Time	Voltage	Current
0.0133330000000000	0.108250000000000	0.000100867000000000
0.0266670000000000	0.129548000000000	0.000100884000000000
0.0400000000000000	0.150086000000000	0.000100660000000000
0.0533330000000000	0.170033000000000	0.000100598000000000
0.0666670000000000	0.189451000000000	0.000100857000000000
0.0800000000000000	0.208382000000000	0.000100899000000000
0.0933330000000000	0.226844000000000	0.000100914000000000
0.106667000000000	0.244852000000000	0.000101012000000000
0.120000000000000	0.262411000000000	0.000100804000000000
0.133333000000000	0.279539000000000	0.000100901000000000
0.146667000000000	0.296233000000000	0.000100755000000000
0.160000000000000	0.312489000000000	0.000100820000000000
0.173333000000000	0.328322000000000	0.000100876000000000
0.186667000000000	0.343724000000000	0.000100971000000000
0.200000000000000	0.358697000000000	0.000100831000000000
0.213333000000000	0.373241000000000	0.000101066000000000
0.226667000000000	0.387357000000000	0.000100645000000000
0.240000000000000	0.401058000000000	0.000101132000000000
0.253333000000000	0.414335000000000	0.000100967000000000
0.266667000000000	0.427206000000000	0.000100957000000000
0.280000000000000	0.439680000000000	0.000101019000000000
0.293333000000000	0.451758000000000	0.000100741000000000
0.306667000000000	0.463460000000000	0.000101113000000000
0.320000000000000	0.474793000000000	0.000101020000000000
0.333333000000000	0.485766000000000	0.000101038000000000
0.346667000000000	0.496391000000000	0.000100902000000000
0.360000000000000	0.506688000000000	0.000101289000000000
0.373333000000000	0.516672000000000	0.000100776000000000
0.386667000000000	0.526349000000000	0.000101066000000000
0.400000000000000	0.535504000000000	0.000100923000000000
0.413333000000000	0.544469000000000	0.000100950000000000
0.426667000000000	0.553301000000000	0.000100823000000000
0.440000000000000	0.561875000000000	0.000100774000000000
0.453333000000000	0.570203000000000	0.000101123000000000
0.466667000000000	0.578261000000000	0.000100939000000000
0.480000000000000	0.586138000000000	0.000101030000000000
0.493333000000000	0.593785000000000	0.000101145000000000
0.506667000000000	0.601215000000000	0.000100955000000000
0.520000000000000	0.608443000000000	0.000100820000000000
0.533333000000000	0.615518000000000	0.000100848000000000
0.546667000000000	0.622379000000000	0.000100856000000000
0.560000000000000	0.629078000000000	0.000100768000000000
0.573333000000000	0.635571000000000	0.000101366000000000
0.586667000000000	0.641965000000000	0.000100999000000000
0.600000000000000	0.648162000000000	0.000100923000000000
0.613333000000000	0.654233000000000	0.000100966000000000
0.626667000000000	0.660125000000000	0.000101273000000000
0.640000000000000	0.665908000000000	0.000100763000000000
0.653333000000000	0.671562000000000	0.000101131000000000
0.666667000000000	0.677073000000000	0.000100758000000000
0.680000000000000	0.682449000000000	0.000100920000000000
0.693333000000000	0.687721000000000	0.000100861000000000
0.706667000000000	0.692881000000000	0.000101054000000000
0.720000000000000	0.697948000000000	0.000101095000000000
0.733333000000000	0.702897000000000	0.000100831000000000
0.746667000000000	0.707733000000000	0.000101066000000000
0.760000000000000	0.712475000000000	0.000100869000000000
0.773333000000000	0.717156000000000	0.000100832000000000
0.786667000000000	0.721758000000000	0.000100870000000000
0.800000000000000	0.726226000000000	0.000100824000000000
0.813333000000000	0.730615000000000	0.000101028000000000
0.826667000000000	0.734919000000000	0.000100788000000000
0.840000000000000	0.739176000000000	0.000101184000000000
0.853333000000000	0.743379000000000	0.000100966000000000
0.866667000000000	0.747481000000000	0.000101078000000000
0.880000000000000	0.751504000000000	0.000101376000000000
0.893333000000000	0.755461000000000	0.000101039000000000
0.906667000000000	0.759345000000000	0.000100776000000000
0.920000000000000	0.763186000000000	0.000101071000000000
0.933333000000000	0.766970000000000	0.000101046000000000
0.946667000000000	0.770705000000000	0.000101063000000000
0.960000000000000	0.774373000000000	0.000100822000000000
0.973330000000000	0.777951000000000	0.000100963000000000
0.986670000000000	0.781530000000000	0.000101037000000000
1	0.785023000000000	0.000100983000000000
1.01333000000000	0.788478000000000	0.000101196000000000
1.02667000000000	0.791874000000000	0.000100913000000000
1.04000000000000	0.795282000000000	0.000100909000000000
1.05333000000000	0.798567000000000	0.000100799000000000
1.06667000000000	0.801832000000000	0.000100931000000000
1.08000000000000	0.805056000000000	0.000100831000000000
1.09333000000000	0.808238000000000	0.000101196000000000
1.10667000000000	0.811351000000000	0.000100862000000000
1.12000000000000	0.814452000000000	0.000100730000000000
1.13333000000000	0.817530000000000	0.000100990000000000
1.14667000000000	0.820566000000000	0.000101191000000000
1.16000000000000	0.823551000000000	0.000101129000000000
1.17333000000000	0.826488000000000	0.000100816000000000
1.18667000000000	0.829412000000000	0.000100600000000000
1.20000000000000	0.832287000000000	0.000101222000000000
1.21333000000000	0.835133000000000	0.000100772000000000
1.22667000000000	0.837936000000000	0.000100964000000000
1.24000000000000	0.840722000000000	0.000101025000000000
1.25333000000000	0.843484000000000	0.000100926000000000
1.26667000000000	0.846218000000000	0.000101189000000000
1.28000000000000	0.848909000000000	0.000101119000000000
1.29333000000000	0.851587000000000	0.000101012000000000
1.30667000000000	0.854193000000000	0.000101063000000000
1.32000000000000	0.856801000000000	0.000100908000000000
1.33333000000000	0.859387000000000	0.000101074000000000
1.34667000000000	0.861957000000000	0.000101389000000000
1.36000000000000	0.864455000000000	0.000101342000000000
1.37333000000000	0.866977000000000	0.000100642000000000
1.38667000000000	0.869459000000000	0.000100839000000000
1.40000000000000	0.871932000000000	0.000100877000000000
1.41333000000000	0.874351000000000	0.000100948000000000
1.42667000000000	0.876754000000000	0.000101119000000000
1.44000000000000	0.879139000000000	0.000101119000000000
1.45333000000000	0.881494000000000	0.000101073000000000
1.46667000000000	0.883852000000000	0.000101033000000000
1.48000000000000	0.886161000000000	0.000101131000000000
1.49333000000000	0.888455000000000	0.000100913000000000
1.50667000000000	0.890711000000000	0.000100837000000000
1.52000000000000	0.892954000000000	0.000101156000000000
1.53333000000000	0.895181000000000	0.000101156000000000
1.54667000000000	0.897424000000000	0.000100986000000000
1.56000000000000	0.899610000000000	0.000101166000000000
1.57333000000000	0.901772000000000	0.000101018000000000
1.58667000000000	0.903913000000000	0.000101089000000000
1.60000000000000	0.906074000000000	0.000101008000000000
1.61333000000000	0.908187000000000	0.000101001000000000
1.62667000000000	0.910304000000000	0.000100893000000000
1.64000000000000	0.912382000000000	0.000101021000000000
1.65333000000000	0.914457000000000	0.000101027000000000
1.66667000000000	0.916501000000000	0.000100863000000000
1.68000000000000	0.918540000000000	0.000101043000000000
1.69333000000000	0.920592000000000	0.000101275000000000
1.70667000000000	0.922627000000000	0.000100647000000000
1.72000000000000	0.924619000000000	0.000101310000000000
1.73333000000000	0.926569000000000	0.000100952000000000
1.74667000000000	0.928523000000000	0.000100807000000000
1.76000000000000	0.930452000000000	0.000100964000000000
1.77333000000000	0.932372000000000	0.000100852000000000
1.78667000000000	0.934283000000000	0.000101182000000000
1.80000000000000	0.936164000000000	0.000100952000000000
1.81333000000000	0.938037000000000	0.000101152000000000
1.82667000000000	0.939886000000000	0.000100703000000000
1.84000000000000	0.941742000000000	0.000101362000000000
1.85333000000000	0.943581000000000	0.000100725000000000
1.86667000000000	0.945410000000000	0.000100908000000000
1.88000000000000	0.947260000000000	0.000101174000000000
1.89333000000000	0.949068000000000	0.000101071000000000
1.90667000000000	0.950850000000000	0.000100731000000000
1.92000000000000	0.952625000000000	0.000100815000000000
1.93333000000000	0.954383000000000	0.000100674000000000
1.94667000000000	0.956125000000000	0.000101043000000000
1.96000000000000	0.957845000000000	0.000101015000000000
1.97333000000000	0.959579000000000	0.000100902000000000
1.98667000000000	0.961293000000000	0.000100999000000000
2	0.962980000000000	0.000101355000000000
2.01333000000000	0.964643000000000	0.000100712000000000
2.02667000000000	0.966335000000000	0.000101339000000000
2.04000000000000	0.968004000000000	0.000100615000000000
2.05333000000000	0.969620000000000	0.000100704000000000
2.06667000000000	0.971239000000000	0.000101066000000000
2.08000000000000	0.972940000000000	0.000100500000000000
2.09333000000000	0.974545000000000	0.000101186000000000
2.10667000000000	0.976143000000000	0.000100841000000000
2.12000000000000	0.977737000000000	0.000100490000000000
2.13333000000000	0.979330000000000	0.000100781000000000
2.14667000000000	0.980894000000000	0.000100876000000000
2.16000000000000	0.982448000000000	0.000101032000000000
2.17333000000000	0.983969000000000	0.000101211000000000
2.18667000000000	0.985516000000000	0.000100753000000000
2.20000000000000	0.987045000000000	0.000101572000000000
2.21333000000000	0.988578000000000	0.000100987000000000
2.22667000000000	0.990074000000000	0.000101220000000000
2.24000000000000	0.991568000000000	0.000100893000000000
2.25333000000000	0.993046000000000	0.000100943000000000
2.26667000000000	0.994521000000000	0.000100804000000000
2.28000000000000	0.995996000000000	0.000100630000000000
2.29333000000000	0.997479000000000	0.000100839000000000
2.30667000000000	0.998946000000000	0.000101325000000000
2.31167000000000	0.999929000000000	0.000100665000000000
2.32500000000000	0.832013000000000	-9.88728000000000e-05
2.33833400000000	0.819742000000000	-9.83925000000000e-05
2.35166700000000	0.808209000000000	-9.87957000000000e-05
2.36500000000000	0.797245000000000	-9.91281000000000e-05
2.37833400000000	0.786610000000000	-9.87415000000000e-05
2.39166700000000	0.776326000000000	-9.90218000000000e-05
2.40500000000000	0.766245000000000	-9.88145000000000e-05
2.41833400000000	0.756359000000000	-9.88864000000000e-05
2.43166700000000	0.746605000000000	-9.87290000000000e-05
2.44500000000000	0.736974000000000	-9.89978000000000e-05
2.45833400000000	0.727442000000000	-9.87468000000000e-05
2.47166700000000	0.717957000000000	-9.87561000000000e-05
2.48500000000000	0.708537000000000	-9.87447000000000e-05
2.49833400000000	0.699176000000000	-9.87978000000000e-05
2.51166700000000	0.689834000000000	-9.87749000000000e-05
2.52500000000000	0.680524000000000	-9.86457000000000e-05
2.53833400000000	0.671253000000000	-9.91573000000000e-05
2.55166700000000	0.661942000000000	-9.90458000000000e-05
2.56500000000000	0.652649000000000	-9.88864000000000e-05
2.57833400000000	0.643379000000000	-9.92104000000000e-05
2.59166700000000	0.634068000000000	-9.88436000000000e-05
2.60500000000000	0.624795000000000	-9.84477000000000e-05
2.61833400000000	0.615483000000000	-9.90531000000000e-05
2.63166700000000	0.606133000000000	-9.88113000000000e-05
2.64500000000000	0.596787000000000	-9.88447000000000e-05
2.65833400000000	0.587425000000000	-9.87249000000000e-05
2.67166700000000	0.578043000000000	-9.83519000000000e-05
2.68500000000000	0.568639000000000	-9.88957000000000e-05
2.69833400000000	0.559143000000000	-9.89280000000000e-05
2.71166700000000	0.549675000000000	-9.91124000000000e-05
2.72500000000000	0.540192000000000	-9.86738000000000e-05
2.73833400000000	0.530629000000000	-9.85717000000000e-05
2.75166700000000	0.521083000000000	-9.88999000000000e-05
2.76500000000000	0.511444000000000	-9.87322000000000e-05
2.77833400000000	0.501791000000000	-9.87790000000000e-05
2.79166700000000	0.492143000000000	-9.87624000000000e-05
2.80500000000000	0.482719000000000	-9.91958000000000e-05
2.81833400000000	0.473076000000000	-9.86228000000000e-05
2.83166700000000	0.463301000000000	-9.86311000000000e-05
2.84500000000000	0.453493000000000	-9.90499000000000e-05
2.85833400000000	0.443651000000000	-9.89583000000000e-05
2.87166700000000	0.433779000000000	-9.88874000000000e-05
2.88500000000000	0.423869000000000	-9.84686000000000e-05
2.89833400000000	0.413927000000000	-9.90031000000000e-05
2.91166700000000	0.403955000000000	-9.88864000000000e-05
2.92500000000000	0.393947000000000	-9.89499000000000e-05
2.93833400000000	0.383913000000000	-9.85623000000000e-05
2.95166700000000	0.373844000000000	-9.87384000000000e-05
2.96500000000000	0.363749000000000	-9.86540000000000e-05
2.97833400000000	0.353624000000000	-9.86363000000000e-05
2.99166700000000	0.343480000000000	-9.87978000000000e-05
3.00500000000000	0.333309000000000	-9.85113000000000e-05
3.01833400000000	0.323114000000000	-9.89530000000000e-05
3.03166700000000	0.312885000000000	-9.85300000000000e-05
3.04500000000000	0.302640000000000	-9.88666000000000e-05
3.05833400000000	0.292377000000000	-9.83925000000000e-05
3.07166700000000	0.282088000000000	-9.85759000000000e-05
3.08500000000000	0.271779000000000	-9.88624000000000e-05
3.09833400000000	0.261457000000000	-9.86999000000000e-05
3.11166700000000	0.251113000000000	-9.88332000000000e-05
3.12500000000000	0.240760000000000	-9.85352000000000e-05
3.13833400000000	0.230384000000000	-9.92802000000000e-05
3.15166700000000	0.219998000000000	-9.83487000000000e-05
3.16500000000000	0.209605000000000	-9.89134000000000e-05
3.17833400000000	0.199199000000000	-9.86655000000000e-05
3.19166700000000	0.188793000000000	-9.85290000000000e-05
3.20500000000000	0.178375000000000	-9.87582000000000e-05
3.21833400000000	0.167958000000000	-9.85769000000000e-05
3.23166700000000	0.157547000000000	-9.84061000000000e-05
3.24500000000000	0.147131000000000	-9.87509000000000e-05
3.25833400000000	0.136722000000000	-9.86051000000000e-05
3.27166700000000	0.126319000000000	-9.89624000000000e-05
3.28499700000000	0.115925000000000	-9.85144000000000e-05
3.29833700000000	0.105543000000000	-9.90447000000000e-05
3.31166700000000	0.0951742000000000	-9.82675000000000e-05
3.32499700000000	0.0848195000000000	-9.94104000000000e-05
3.33833700000000	0.0744880000000000	-9.90103000000000e-05
3.35166700000000	0.0641752000000000	-9.86582000000000e-05
3.36499700000000	0.0538791000000000	-9.89968000000000e-05
3.37833700000000	0.0436423000000000	-9.93240000000000e-05
3.39166700000000	0.0334073000000000	-9.85457000000000e-05
3.40499700000000	0.0231927000000000	-9.88780000000000e-05
3.41833700000000	0.0130032000000000	-9.86988000000000e-05
3.42999700000000	0.00348026000000000	-9.89496000000000e-05
3.44333300000000	0.164796000000000	0.000101163000000000
3.45666700000000	0.184531000000000	0.000100904000000000
3.47000000000000	0.203622000000000	0.000100907000000000
3.48333300000000	0.222268000000000	0.000100769000000000
3.49666700000000	0.240533000000000	0.000101364000000000
3.51000000000000	0.258442000000000	0.000100851000000000
3.52333300000000	0.276052000000000	0.000100621000000000
3.53666700000000	0.293354000000000	0.000101017000000000
3.55000000000000	0.310360000000000	0.000100899000000000
3.56333300000000	0.327066000000000	0.000101671000000000
3.57666700000000	0.343455000000000	0.000100956000000000
3.59000000000000	0.359531000000000	0.000100475000000000
3.60333300000000	0.375277000000000	0.000100401000000000
3.61666700000000	0.390690000000000	0.000101115000000000
3.63000000000000	0.405753000000000	0.000100690000000000
3.64333300000000	0.420467000000000	0.000101202000000000
3.65666700000000	0.434819000000000	0.000100958000000000
3.67000000000000	0.448812000000000	0.000100837000000000
3.68333300000000	0.462441000000000	0.000101560000000000
3.69666700000000	0.475705000000000	0.000100996000000000
3.71000000000000	0.488609000000000	0.000101165000000000
3.72333300000000	0.501163000000000	0.000100591000000000
3.73666700000000	0.513365000000000	0.000100653000000000
3.75000000000000	0.525228000000000	0.000101284000000000
3.76333300000000	0.536487000000000	0.000100828000000000
3.77666700000000	0.547604000000000	0.000100873000000000
3.79000000000000	0.558494000000000	0.000101542000000000
3.80333300000000	0.569123000000000	0.000100976000000000
3.81666700000000	0.579406000000000	0.000100713000000000
3.83000000000000	0.589442000000000	0.000100855000000000
3.84333300000000	0.599180000000000	0.000101553000000000
3.85666700000000	0.608643000000000	0.000101064000000000
3.87000000000000	0.617964000000000	0.000100762000000000
3.88333300000000	0.626951000000000	0.000100992000000000
3.89666700000000	0.635685000000000	0.000101058000000000
3.91000000000000	0.644278000000000	0.000101115000000000
3.92333300000000	0.652590000000000	0.000101710000000000
3.93666700000000	0.660699000000000	0.000101219000000000
3.95000000000000	0.668637000000000	0.000100557000000000
3.96333300000000	0.676330000000000	0.000100878000000000
3.97666700000000	0.683860000000000	0.000101253000000000
3.99000000000000	0.691229000000000	0.000101395000000000
4.00333300000000	0.698436000000000	0.000101427000000000
4.01666700000000	0.705456000000000	0.000100435000000000
4.03000000000000	0.712307000000000	0.000101026000000000
4.04333300000000	0.719088000000000	0.000100483000000000
4.05666700000000	0.725650000000000	0.000101131000000000
4.07000000000000	0.732080000000000	0.000101072000000000
4.08333300000000	0.738372000000000	0.000100823000000000
4.09666700000000	0.744585000000000	0.000101000000000000
4.11000000000000	0.750623000000000	0.000101086000000000
4.12333300000000	0.756550000000000	0.000101263000000000
4.13666700000000	0.762343000000000	0.000101331000000000
4.15000000000000	0.768028000000000	0.000100726000000000
4.16333300000000	0.773614000000000	0.000100931000000000
4.17666700000000	0.779099000000000	0.000101007000000000
4.19000000000000	0.784489000000000	0.000101142000000000
4.20333300000000	0.789743000000000	0.000101542000000000
4.21666700000000	0.794946000000000	0.000101362000000000
4.23000000000000	0.800023000000000	0.000100589000000000
4.24333300000000	0.805001000000000	0.000100684000000000
4.25666700000000	0.809897000000000	0.000101100000000000
4.27000000000000	0.814701000000000	0.000101420000000000
4.28333300000000	0.819454000000000	0.000101172000000000
4.29666700000000	0.824103000000000	0.000100894000000000
4.31000000000000	0.828670000000000	0.000101178000000000
4.32333300000000	0.833157000000000	0.000100440000000000
4.33666700000000	0.837546000000000	0.000101341000000000
4.35000000000000	0.841894000000000	0.000100504000000000
4.36333300000000	0.846182000000000	0.000100978000000000
4.37666700000000	0.850417000000000	0.000100796000000000
4.39000000000000	0.854511000000000	0.000101510000000000
4.40333000000000	0.858595000000000	0.000100922000000000
4.41667000000000	0.862599000000000	0.000100878000000000
4.43000000000000	0.866512000000000	0.000100891000000000
4.44333000000000	0.870411000000000	0.000100713000000000
4.45667000000000	0.874243000000000	0.000100866000000000
4.47000000000000	0.877998000000000	0.000100844000000000
4.48333000000000	0.881717000000000	0.000101699000000000
4.49667000000000	0.885387000000000	0.000100825000000000
4.51000000000000	0.888958000000000	0.000101044000000000
4.52333000000000	0.892499000000000	0.000101057000000000
4.53667000000000	0.895989000000000	0.000100995000000000
4.55000000000000	0.899428000000000	0.000100668000000000
4.56333000000000	0.902818000000000	0.000100877000000000
4.57667000000000	0.906153000000000	0.000100821000000000
4.59000000000000	0.909454000000000	0.000100993000000000
4.60333000000000	0.912675000000000	0.000101178000000000
4.61667000000000	0.915879000000000	0.000100782000000000
4.63000000000000	0.919035000000000	0.000100683000000000
4.64333000000000	0.922204000000000	0.000101217000000000
4.65667000000000	0.925255000000000	0.000100578000000000
4.67000000000000	0.928267000000000	0.000100607000000000
4.68333000000000	0.931243000000000	0.000100530000000000
4.69667000000000	0.934170000000000	0.000101205000000000
4.71000000000000	0.937075000000000	0.000100728000000000
