EXPLAIN
TAG	PWR800_CHARGE
TITLE	LABEL	PWR Cyclic Charge Discharge (Cell) - Charge Step	Test &Identifier
DATE	LABEL	12-7-2017	Date
TIME	LABEL	14:49:05	Time
NOTES	NOTES	3	&Notes...
	supercap test cell
	0.4mg
	6M KOH
PSTAT	PSTAT	IFC5000-01520	Potentiostat
CAPACITY	QUANT	1.00000E-003	Capacity (A-hr)
CELLTYPE	SELECTOR	1	&Cell Type
WORKINGCONNECTION	SELECTOR	0	&Working Lead
MAXCHARGETIME	VARIABLEANDUNITS	1.00000E+002	s	1.00000E+002	second(s)	Max &Charge Time
CHARGECURRENT	QUANT	4.00000E-004	&Charge Current (A) 
VOLTAGEFINISH	TWOPARAM	F	1.00000E-003	3.60000E+003	&Voltage Finish	 I (A) < 	Max Time(s)
SAMPLETIME	QUANT	1.00000E-002	Sa&mple Period (s)
CHARGESTOPAT1	MULTIPARAM	4	1.00000E+000	Charge Stop At &1	Voltage > Limit	V
CHARGESTOPAT2	MULTIPARAM	0	0.00000E+000	Charge Stop At &2	None	N/A
AESBHCSELECTOR	TOGGLE	F	Save Both Half Cells
IRCOMP	TOGGLE	F	IR &Measure
EOC	QUANT	0	Open Circuit (V)
SEQUENCER	TOGGLE	TRUE	Run as Sequence
PSTATMODEL	IQUANT	53	Pstat Model
PSTATSECTION	LABEL	IFC5000-01520	Pstat Section
PSTATSERIALNO	LABEL	01520	Pstat Serial Number
CTRLMODE	IQUANT	0	Control Mode
ELECTROMETER	IQUANT	1	RE=0 or CS=1
IESTAB	IQUANT	0	I/E Stability
CASPEED	IQUANT	4	Control Amp Speed
CONVENTION	IQUANT	1	Current Convention
ICHRANGE	IQUANT	2	Ich Range
ICHRANGEMODE	TOGGLE	T	Ich Auto Range
ICHOFFSETENABLE	TOGGLE	F	Ich Offset Enable
ICHOFFSET	QUANT	0	Ich Offset (V)
ICHFILTER	IQUANT	1	Ich Filter
VCHRANGE	IQUANT	2	Vch Range
VCHRANGEMODE	TOGGLE	T	Vch Auto Range
VCHOFFSETENABLE	TOGGLE	F	Vch Offset Enable
VCHOFFSET	QUANT	0	Vch Offset (V)
VCHFILTER	IQUANT	1	Vch Filter
IERANGELOWERLIMIT	IQUANT	9	I/E Range Lower Limit
IERANGEMODE	TOGGLE	F	I/E AutoRange
IERANGE	IQUANT	9	I/E Range
ACHSELECT	IQUANT	1	Ach Select
ACHRANGE	IQUANT	2	Ach Range
ACHOFFSETENABLE	TOGGLE	F	Ach Offset Enable
ACHOFFSET	QUANT	0	Ach Offset (V)
ACHFILTER	IQUANT	1	Ach Filter
CABLEID	IQUANT	14	Cable ID
DCCALDATE	LABEL	5-7-2017	DC Calibration Date
ACCALDATE	LABEL	12/3/2015	AC Calibration Date
FRAMEWORKVERSION	QUANT	7.01	Framework Version
INSTRUMENTVERSION	LABEL	4.00	Instrument Version
CURVE	TABLE	119
	Pt	T	Vf	Im	Vu	Pwr	Sig	Ach	Temp	IERange	Over
	#	s	V	A	V	W	V	V	deg C	#	bits
	0	0.013333	3.62475E-001	4.00415E-004	0.00000E+000	1.45140E-004	2.40040E-001	3.62560E-001	3.57620E+000	9	...........
	1	0.026667	3.74039E-001	4.02142E-004	0.00000E+000	1.50417E-004	2.40040E-001	3.74114E-001	3.57620E+000	9	...........
	2	0.04	3.83976E-001	4.01863E-004	0.00000E+000	1.54306E-004	2.40040E-001	3.84054E-001	3.57620E+000	9	...........
	3	0.053333	3.93034E-001	3.99792E-004	0.00000E+000	1.57132E-004	2.40040E-001	3.93109E-001	3.57620E+000	9	...........
	4	0.066667	4.01432E-001	4.01492E-004	0.00000E+000	1.61172E-004	2.40040E-001	4.01508E-001	3.57620E+000	9	...........
	5	0.08	4.09415E-001	3.99859E-004	0.00000E+000	1.63708E-004	2.40040E-001	4.09498E-001	3.57620E+000	9	...........
	6	0.093333	4.17132E-001	4.00878E-004	0.00000E+000	1.67219E-004	2.40040E-001	4.17218E-001	3.57620E+000	9	...........
	7	0.106667	4.24618E-001	4.01064E-004	0.00000E+000	1.70299E-004	2.40040E-001	4.24706E-001	3.57620E+000	9	...........
	8	0.12	4.31984E-001	4.02102E-004	0.00000E+000	1.73702E-004	2.40040E-001	4.32072E-001	3.57620E+000	9	...........
	9	0.133333	4.39183E-001	4.00347E-004	0.00000E+000	1.75825E-004	2.40040E-001	4.39272E-001	3.57620E+000	9	...........
	10	0.146667	4.46154E-001	4.01623E-004	0.00000E+000	1.79186E-004	2.40040E-001	4.46244E-001	3.57620E+000	9	...........
	11	0.16	4.53065E-001	4.00082E-004	0.00000E+000	1.81263E-004	2.40040E-001	4.53160E-001	3.57620E+000	9	...........
	12	0.173333	4.59884E-001	4.02216E-004	0.00000E+000	1.84973E-004	2.40040E-001	4.59980E-001	3.57620E+000	9	...........
	13	0.186667	4.66557E-001	4.00630E-004	0.00000E+000	1.86917E-004	2.40040E-001	4.66655E-001	3.57628E+000	9	...........
	14	0.2	4.73169E-001	4.00189E-004	0.00000E+000	1.89357E-004	2.40040E-001	4.73270E-001	3.57650E+000	9	...........
	15	0.213333	4.79699E-001	4.00449E-004	0.00000E+000	1.92095E-004	2.40040E-001	4.79802E-001	3.57650E+000	9	...........
	16	0.226667	4.86165E-001	4.01656E-004	0.00000E+000	1.95271E-004	2.40040E-001	4.86265E-001	3.57650E+000	9	...........
	17	0.24	4.92582E-001	4.00456E-004	0.00000E+000	1.97258E-004	2.40040E-001	4.92684E-001	3.57650E+000	9	...........
	18	0.253333	4.98859E-001	4.00866E-004	0.00000E+000	1.99976E-004	2.40040E-001	4.98967E-001	3.57650E+000	9	...........
	19	0.266667	5.05114E-001	4.01138E-004	0.00000E+000	2.02620E-004	2.40040E-001	5.05211E-001	3.57650E+000	9	...........
	20	0.28	5.11415E-001	4.00566E-004	0.00000E+000	2.04855E-004	2.40040E-001	5.11520E-001	3.57650E+000	9	...........
	21	0.293333	5.17687E-001	4.01386E-004	0.00000E+000	2.07792E-004	2.40040E-001	5.17788E-001	3.57650E+000	9	...........
	22	0.306667	5.23852E-001	4.00402E-004	0.00000E+000	2.09751E-004	2.40040E-001	5.23959E-001	3.57650E+000	9	...........
	23	0.32	5.30002E-001	4.02817E-004	0.00000E+000	2.13494E-004	2.40040E-001	5.30114E-001	3.57650E+000	9	...........
	24	0.333333	5.35911E-001	4.01164E-004	0.00000E+000	2.14988E-004	2.40040E-001	5.36104E-001	3.57650E+000	9	...........
	25	0.346667	5.41945E-001	4.01525E-004	0.00000E+000	2.17605E-004	2.40040E-001	5.42164E-001	3.57650E+000	9	...........
	26	0.36	5.47964E-001	4.00495E-004	0.00000E+000	2.19457E-004	2.40040E-001	5.48180E-001	3.57650E+000	9	...........
	27	0.373333	5.53890E-001	4.00850E-004	0.00000E+000	2.22027E-004	2.40040E-001	5.54091E-001	3.57650E+000	9	...........
	28	0.386667	5.59818E-001	4.01475E-004	0.00000E+000	2.24753E-004	2.40040E-001	5.60065E-001	3.57650E+000	9	...........
	29	0.4	5.65814E-001	4.01439E-004	0.00000E+000	2.27140E-004	2.40040E-001	5.66056E-001	3.57650E+000	9	...........
	30	0.413333	5.71782E-001	4.00923E-004	0.00000E+000	2.29240E-004	2.40040E-001	5.71982E-001	3.57650E+000	9	...........
	31	0.426667	5.77609E-001	4.00448E-004	0.00000E+000	2.31302E-004	2.40040E-001	5.77833E-001	3.57650E+000	9	...........
	32	0.44	5.83400E-001	4.00942E-004	0.00000E+000	2.33909E-004	2.40040E-001	5.83651E-001	3.57650E+000	9	...........
	33	0.453333	5.89262E-001	4.02368E-004	0.00000E+000	2.37100E-004	2.40040E-001	5.89502E-001	3.57650E+000	9	...........
	34	0.466667	5.95049E-001	4.00527E-004	0.00000E+000	2.38333E-004	2.40040E-001	5.95283E-001	3.57650E+000	9	...........
	35	0.48	6.00845E-001	4.00464E-004	0.00000E+000	2.40616E-004	2.40040E-001	6.01090E-001	3.57650E+000	9	...........
	36	0.493333	6.06554E-001	3.99845E-004	0.00000E+000	2.42528E-004	2.40040E-001	6.06815E-001	3.57650E+000	9	...........
	37	0.506667	6.12350E-001	4.01816E-004	0.00000E+000	2.46052E-004	2.40040E-001	6.12610E-001	3.57650E+000	9	...........
	38	0.52	6.18179E-001	4.01742E-004	0.00000E+000	2.48348E-004	2.40040E-001	6.18408E-001	3.57650E+000	9	...........
	39	0.533333	6.23930E-001	4.00866E-004	0.00000E+000	2.50112E-004	2.40040E-001	6.24161E-001	3.57650E+000	9	...........
	40	0.546667	6.29594E-001	4.00978E-004	0.00000E+000	2.52454E-004	2.40040E-001	6.29854E-001	3.57650E+000	9	...........
	41	0.56	6.35277E-001	4.01370E-004	0.00000E+000	2.54981E-004	2.40040E-001	6.35487E-001	3.57650E+000	9	...........
	42	0.573333	6.40905E-001	4.00604E-004	0.00000E+000	2.56749E-004	2.40040E-001	6.41147E-001	3.57650E+000	9	...........
	43	0.586667	6.46565E-001	3.98937E-004	0.00000E+000	2.57939E-004	2.40040E-001	6.46778E-001	3.57650E+000	9	...........
	44	0.6	6.52200E-001	4.01266E-004	0.00000E+000	2.61706E-004	2.40040E-001	6.52459E-001	3.57650E+000	9	...........
	45	0.613333	6.57765E-001	4.02525E-004	0.00000E+000	2.64766E-004	2.40040E-001	6.58017E-001	3.57650E+000	9	...........
	46	0.626667	6.63387E-001	4.01497E-004	0.00000E+000	2.66348E-004	2.40040E-001	6.63645E-001	3.57650E+000	9	...........
	47	0.64	6.69030E-001	4.00611E-004	0.00000E+000	2.68020E-004	2.40040E-001	6.69260E-001	3.57650E+000	9	...........
	48	0.653333	6.74580E-001	4.00538E-004	0.00000E+000	2.70194E-004	2.40040E-001	6.74820E-001	3.57650E+000	9	...........
	49	0.666667	6.80148E-001	4.01228E-004	0.00000E+000	2.72895E-004	2.40040E-001	6.80373E-001	3.57650E+000	9	...........
	50	0.68	6.85666E-001	4.00553E-004	0.00000E+000	2.74646E-004	2.40040E-001	6.85877E-001	3.57650E+000	9	...........
	51	0.693333	6.91179E-001	4.01213E-004	0.00000E+000	2.77310E-004	2.40040E-001	6.91400E-001	3.57650E+000	9	...........
	52	0.706667	6.96673E-001	4.00591E-004	0.00000E+000	2.79081E-004	2.40040E-001	6.96897E-001	3.57650E+000	9	...........
	53	0.72	7.02167E-001	4.01831E-004	0.00000E+000	2.82152E-004	2.40040E-001	7.02380E-001	3.57650E+000	9	...........
	54	0.733333	7.07622E-001	4.01616E-004	0.00000E+000	2.84192E-004	2.40040E-001	7.07868E-001	3.57650E+000	9	...........
	55	0.746667	7.13071E-001	4.01071E-004	0.00000E+000	2.85992E-004	2.40040E-001	7.13303E-001	3.57650E+000	9	...........
	56	0.76	7.18533E-001	3.99910E-004	0.00000E+000	2.87349E-004	2.40040E-001	7.18766E-001	3.57650E+000	9	...........
	57	0.773333	7.23908E-001	4.00079E-004	0.00000E+000	2.89620E-004	2.40040E-001	7.24125E-001	3.57650E+000	9	...........
	58	0.786667	7.29298E-001	4.01448E-004	0.00000E+000	2.92776E-004	2.40040E-001	7.29561E-001	3.57650E+000	9	...........
	59	0.8	7.34703E-001	4.00922E-004	0.00000E+000	2.94559E-004	2.40040E-001	7.34950E-001	3.57650E+000	9	...........
	60	0.813333	7.40087E-001	4.00404E-004	0.00000E+000	2.96334E-004	2.40040E-001	7.40348E-001	3.57650E+000	9	...........
	61	0.826667	7.45407E-001	3.99578E-004	0.00000E+000	2.97848E-004	2.40040E-001	7.45658E-001	3.57650E+000	9	...........
	62	0.84	7.50654E-001	4.01385E-004	0.00000E+000	3.01301E-004	2.40040E-001	7.50888E-001	3.57650E+000	9	...........
	63	0.853333	7.55878E-001	4.00675E-004	0.00000E+000	3.02862E-004	2.40040E-001	7.56109E-001	3.57650E+000	9	...........
	64	0.866667	7.61119E-001	4.02110E-004	0.00000E+000	3.06053E-004	2.40040E-001	7.61335E-001	3.57650E+000	9	...........
	65	0.88	7.66300E-001	4.01883E-004	0.00000E+000	3.07963E-004	2.40040E-001	7.66560E-001	3.57650E+000	9	...........
	66	0.893333	7.71523E-001	3.99970E-004	0.00000E+000	3.08586E-004	2.40040E-001	7.71751E-001	3.57650E+000	9	...........
	67	0.906667	7.76682E-001	4.00915E-004	0.00000E+000	3.11383E-004	2.40040E-001	7.76901E-001	3.57650E+000	9	...........
	68	0.92	7.81885E-001	4.01009E-004	0.00000E+000	3.13543E-004	2.40040E-001	7.82101E-001	3.57650E+000	9	...........
	69	0.933333	7.87017E-001	4.01357E-004	0.00000E+000	3.15875E-004	2.40040E-001	7.87242E-001	3.57650E+000	9	...........
	70	0.946667	7.92132E-001	3.99808E-004	0.00000E+000	3.16701E-004	2.40040E-001	7.92357E-001	3.57650E+000	9	...........
	71	0.96	7.97137E-001	4.01696E-004	0.00000E+000	3.20207E-004	2.40040E-001	7.97342E-001	3.57650E+000	9	...........
	72	0.97333	8.02154E-001	4.00909E-004	0.00000E+000	3.21590E-004	2.40040E-001	8.02355E-001	3.57650E+000	9	...........
	73	0.98667	8.07175E-001	4.01290E-004	0.00000E+000	3.23911E-004	2.40040E-001	8.07396E-001	3.57650E+000	9	...........
	74	1	8.12132E-001	3.99760E-004	0.00000E+000	3.24658E-004	2.40040E-001	8.12353E-001	3.57650E+000	9	...........
	75	1.01333	8.17091E-001	4.00531E-004	0.00000E+000	3.27271E-004	2.40040E-001	8.17315E-001	3.57650E+000	9	...........
	76	1.02667	8.22050E-001	4.01225E-004	0.00000E+000	3.29827E-004	2.40040E-001	8.22272E-001	3.57650E+000	9	...........
	77	1.04	8.27030E-001	4.01466E-004	0.00000E+000	3.32024E-004	2.40040E-001	8.27248E-001	3.57650E+000	9	...........
	78	1.05333	8.31895E-001	4.02144E-004	0.00000E+000	3.34542E-004	2.40040E-001	8.32127E-001	3.57650E+000	9	...........
	79	1.06667	8.36694E-001	4.01797E-004	0.00000E+000	3.36182E-004	2.40040E-001	8.36950E-001	3.57650E+000	9	...........
	80	1.08	8.41486E-001	4.00226E-004	0.00000E+000	3.36785E-004	2.40040E-001	8.41744E-001	3.57650E+000	9	...........
	81	1.09333	8.46331E-001	4.01232E-004	0.00000E+000	3.39575E-004	2.40040E-001	8.46570E-001	3.57650E+000	9	...........
	82	1.10667	8.51097E-001	4.00844E-004	0.00000E+000	3.41157E-004	2.40040E-001	8.51383E-001	3.57650E+000	9	...........
	83	1.12	8.55740E-001	4.01105E-004	0.00000E+000	3.43242E-004	2.40040E-001	8.56033E-001	3.57650E+000	9	...........
	84	1.13333	8.60484E-001	4.01428E-004	0.00000E+000	3.45423E-004	2.40040E-001	8.60758E-001	3.57650E+000	9	...........
	85	1.14667	8.65139E-001	4.01191E-004	0.00000E+000	3.47086E-004	2.40040E-001	8.65414E-001	3.57650E+000	9	...........
	86	1.16	8.69788E-001	4.00736E-004	0.00000E+000	3.48555E-004	2.40040E-001	8.70082E-001	3.57650E+000	9	...........
	87	1.17333	8.74412E-001	4.01177E-004	0.00000E+000	3.50794E-004	2.40040E-001	8.74688E-001	3.57650E+000	9	...........
	88	1.18667	8.78923E-001	4.01332E-004	0.00000E+000	3.52739E-004	2.40040E-001	8.79197E-001	3.57655E+000	9	...........
	89	1.2	8.83364E-001	4.01426E-004	0.00000E+000	3.54606E-004	2.40040E-001	8.83647E-001	3.57670E+000	9	...........
	90	1.21333	8.87862E-001	4.01412E-004	0.00000E+000	3.56398E-004	2.40040E-001	8.88158E-001	3.57670E+000	9	...........
	91	1.22667	8.92279E-001	4.00545E-004	0.00000E+000	3.57398E-004	2.40040E-001	8.92554E-001	3.57670E+000	9	...........
	92	1.24	8.96672E-001	4.01408E-004	0.00000E+000	3.59931E-004	2.40040E-001	8.96983E-001	3.57670E+000	9	...........
	93	1.25333	9.01097E-001	4.00848E-004	0.00000E+000	3.61203E-004	2.40040E-001	9.01413E-001	3.57670E+000	9	...........
	94	1.26667	9.05566E-001	4.00529E-004	0.00000E+000	3.62706E-004	2.40040E-001	9.05885E-001	3.57670E+000	9	...........
	95	1.28	9.09918E-001	4.00740E-004	0.00000E+000	3.64640E-004	2.40040E-001	9.10233E-001	3.57670E+000	9	...........
	96	1.29333	9.14201E-001	4.00930E-004	0.00000E+000	3.66531E-004	2.40040E-001	9.14504E-001	3.57670E+000	9	...........
	97	1.30667	9.18423E-001	4.01720E-004	0.00000E+000	3.68949E-004	2.40040E-001	9.18760E-001	3.57670E+000	9	...........
	98	1.32	9.22679E-001	4.00512E-004	0.00000E+000	3.69544E-004	2.40040E-001	9.22969E-001	3.57670E+000	9	...........
	99	1.33333	9.26835E-001	3.99371E-004	0.00000E+000	3.70151E-004	2.40040E-001	9.27144E-001	3.57670E+000	9	...........
	100	1.34667	9.31014E-001	4.00747E-004	0.00000E+000	3.73101E-004	2.40040E-001	9.31290E-001	3.57670E+000	9	...........
	101	1.36	9.35072E-001	4.00529E-004	0.00000E+000	3.74524E-004	2.40040E-001	9.35383E-001	3.57670E+000	9	...........
	102	1.37333	9.39181E-001	4.01050E-004	0.00000E+000	3.76659E-004	2.40040E-001	9.39489E-001	3.57670E+000	9	...........
	103	1.38667	9.43205E-001	3.99832E-004	0.00000E+000	3.77124E-004	2.40040E-001	9.43520E-001	3.57670E+000	9	...........
	104	1.4	9.47264E-001	4.00486E-004	0.00000E+000	3.79366E-004	2.40040E-001	9.47579E-001	3.57670E+000	9	...........
	105	1.41333	9.51199E-001	4.00976E-004	0.00000E+000	3.81408E-004	2.40040E-001	9.51520E-001	3.57670E+000	9	...........
	106	1.42667	9.55186E-001	4.01847E-004	0.00000E+000	3.83839E-004	2.40040E-001	9.55473E-001	3.57670E+000	9	...........
	107	1.44	9.59023E-001	4.01176E-004	0.00000E+000	3.84737E-004	2.40040E-001	9.59359E-001	3.57670E+000	9	...........
	108	1.45333	9.62905E-001	4.01688E-004	0.00000E+000	3.86787E-004	2.40040E-001	9.63240E-001	3.57670E+000	9	...........
	109	1.46667	9.66712E-001	4.01167E-004	0.00000E+000	3.87813E-004	2.40040E-001	9.67031E-001	3.57670E+000	9	...........
	110	1.48	9.70511E-001	4.01177E-004	0.00000E+000	3.89347E-004	2.40040E-001	9.70871E-001	3.57670E+000	9	...........
	111	1.49333	9.74304E-001	3.99552E-004	0.00000E+000	3.89285E-004	2.40040E-001	9.74615E-001	3.57670E+000	9	...........
	112	1.50667	9.78009E-001	4.01284E-004	0.00000E+000	3.92459E-004	2.40040E-001	9.78335E-001	3.57670E+000	9	...........
	113	1.52	9.81696E-001	4.00112E-004	0.00000E+000	3.92788E-004	2.40040E-001	9.82024E-001	3.57670E+000	9	...........
	114	1.53333	9.85271E-001	4.00567E-004	0.00000E+000	3.94667E-004	2.40040E-001	9.85631E-001	3.57670E+000	9	...........
	115	1.54667	9.88883E-001	4.03268E-004	0.00000E+000	3.98785E-004	2.40040E-001	9.89249E-001	3.57670E+000	9	...........
	116	1.56	9.92429E-001	4.01260E-004	0.00000E+000	3.98222E-004	2.40040E-001	9.92791E-001	3.57670E+000	9	...........
	117	1.57333	9.95991E-001	4.01071E-004	0.00000E+000	3.99463E-004	2.40040E-001	9.96339E-001	3.57670E+000	9	...........
	118	1.58333	9.99049E-001	4.01056E-004	0.00000E+000	4.00675E-004	2.40040E-001	9.99391E-001	3.57670E+000	9	...........
STARTTIMEOFFSET	QUANT	1458.029	Start Time Offset (s)
