EXPLAIN
TAG	PWR800_CHARGE
TITLE	LABEL	PWR Cyclic Charge Discharge (Cell) - Charge Step	Test &Identifier
DATE	LABEL	12-7-2017	Date
TIME	LABEL	14:38:41	Time
NOTES	NOTES	3	&Notes...
	supercap test cell
	0.4mg
	6M KOH
PSTAT	PSTAT	IFC5000-01520	Potentiostat
CAPACITY	QUANT	1.00000E-003	Capacity (A-hr)
CELLTYPE	SELECTOR	1	&Cell Type
WORKINGCONNECTION	SELECTOR	0	&Working Lead
MAXCHARGETIME	VARIABLEANDUNITS	1.00000E+002	s	1.00000E+002	second(s)	Max &Charge Time
CHARGECURRENT	QUANT	4.00000E-004	&Charge Current (A) 
VOLTAGEFINISH	TWOPARAM	F	1.00000E-003	3.60000E+003	&Voltage Finish	 I (A) < 	Max Time(s)
SAMPLETIME	QUANT	1.00000E-002	Sa&mple Period (s)
CHARGESTOPAT1	MULTIPARAM	4	1.00000E+000	Charge Stop At &1	Voltage > Limit	V
CHARGESTOPAT2	MULTIPARAM	0	0.00000E+000	Charge Stop At &2	None	N/A
AESBHCSELECTOR	TOGGLE	F	Save Both Half Cells
IRCOMP	TOGGLE	F	IR &Measure
EOC	QUANT	0	Open Circuit (V)
SEQUENCER	TOGGLE	TRUE	Run as Sequence
PSTATMODEL	IQUANT	53	Pstat Model
PSTATSECTION	LABEL	IFC5000-01520	Pstat Section
PSTATSERIALNO	LABEL	01520	Pstat Serial Number
CTRLMODE	IQUANT	0	Control Mode
ELECTROMETER	IQUANT	1	RE=0 or CS=1
IESTAB	IQUANT	0	I/E Stability
CASPEED	IQUANT	4	Control Amp Speed
CONVENTION	IQUANT	1	Current Convention
ICHRANGE	IQUANT	2	Ich Range
ICHRANGEMODE	TOGGLE	T	Ich Auto Range
ICHOFFSETENABLE	TOGGLE	F	Ich Offset Enable
ICHOFFSET	QUANT	0	Ich Offset (V)
ICHFILTER	IQUANT	1	Ich Filter
VCHRANGE	IQUANT	2	Vch Range
VCHRANGEMODE	TOGGLE	T	Vch Auto Range
VCHOFFSETENABLE	TOGGLE	F	Vch Offset Enable
VCHOFFSET	QUANT	0	Vch Offset (V)
VCHFILTER	IQUANT	1	Vch Filter
IERANGELOWERLIMIT	IQUANT	9	I/E Range Lower Limit
IERANGEMODE	TOGGLE	F	I/E AutoRange
IERANGE	IQUANT	9	I/E Range
ACHSELECT	IQUANT	1	Ach Select
ACHRANGE	IQUANT	2	Ach Range
ACHOFFSETENABLE	TOGGLE	F	Ach Offset Enable
ACHOFFSET	QUANT	0	Ach Offset (V)
ACHFILTER	IQUANT	1	Ach Filter
CABLEID	IQUANT	14	Cable ID
DCCALDATE	LABEL	5-7-2017	DC Calibration Date
ACCALDATE	LABEL	12/3/2015	AC Calibration Date
FRAMEWORKVERSION	QUANT	7.01	Framework Version
INSTRUMENTVERSION	LABEL	4.00	Instrument Version
CURVE	TABLE	126
	Pt	T	Vf	Im	Vu	Pwr	Sig	Ach	Temp	IERange	Over
	#	s	V	A	V	W	V	V	deg C	#	bits
	0	0.013333	3.52022E-001	4.01404E-004	0.00000E+000	1.41303E-004	2.40040E-001	3.52113E-001	3.57710E+000	9	...........
	1	0.026667	3.62822E-001	4.01423E-004	0.00000E+000	1.45645E-004	2.40040E-001	3.62904E-001	3.57710E+000	9	...........
	2	0.04	3.72192E-001	4.01622E-004	0.00000E+000	1.49481E-004	2.40040E-001	3.72268E-001	3.57710E+000	9	...........
	3	0.053333	3.80687E-001	3.99904E-004	0.00000E+000	1.52238E-004	2.40040E-001	3.80759E-001	3.57710E+000	9	...........
	4	0.066667	3.88722E-001	4.02051E-004	0.00000E+000	1.56286E-004	2.40040E-001	3.88798E-001	3.57710E+000	9	...........
	5	0.08	3.96423E-001	4.01249E-004	0.00000E+000	1.59065E-004	2.40040E-001	3.96502E-001	3.57710E+000	9	...........
	6	0.093333	4.03774E-001	4.01409E-004	0.00000E+000	1.62078E-004	2.40040E-001	4.03860E-001	3.57710E+000	9	...........
	7	0.106667	4.10941E-001	4.01567E-004	0.00000E+000	1.65020E-004	2.40040E-001	4.11025E-001	3.57710E+000	9	...........
	8	0.12	4.17925E-001	4.00324E-004	0.00000E+000	1.67306E-004	2.40040E-001	4.18010E-001	3.57710E+000	9	...........
	9	0.133333	4.24664E-001	4.01867E-004	0.00000E+000	1.70658E-004	2.40040E-001	4.24751E-001	3.57710E+000	9	...........
	10	0.146667	4.31323E-001	4.01823E-004	0.00000E+000	1.73315E-004	2.40040E-001	4.31410E-001	3.57710E+000	9	...........
	11	0.16	4.37905E-001	4.01128E-004	0.00000E+000	1.75656E-004	2.40040E-001	4.37990E-001	3.57710E+000	9	...........
	12	0.173333	4.44466E-001	4.01337E-004	0.00000E+000	1.78381E-004	2.40040E-001	4.44553E-001	3.57710E+000	9	...........
	13	0.186667	4.50916E-001	4.00569E-004	0.00000E+000	1.80623E-004	2.40040E-001	4.51004E-001	3.57710E+000	9	...........
	14	0.2	4.57256E-001	4.00167E-004	0.00000E+000	1.82979E-004	2.40040E-001	4.57351E-001	3.57710E+000	9	...........
	15	0.213333	4.63518E-001	4.01191E-004	0.00000E+000	1.85959E-004	2.40040E-001	4.63614E-001	3.57710E+000	9	...........
	16	0.226667	4.69687E-001	4.02102E-004	0.00000E+000	1.88862E-004	2.40040E-001	4.69777E-001	3.57710E+000	9	...........
	17	0.24	4.75759E-001	4.01328E-004	0.00000E+000	1.90936E-004	2.40040E-001	4.75852E-001	3.57710E+000	9	...........
	18	0.253333	4.81824E-001	4.00218E-004	0.00000E+000	1.92835E-004	2.40040E-001	4.81920E-001	3.57710E+000	9	...........
	19	0.266667	4.87836E-001	4.00266E-004	0.00000E+000	1.95264E-004	2.40040E-001	4.87934E-001	3.57710E+000	9	...........
	20	0.28	4.93802E-001	4.01361E-004	0.00000E+000	1.98193E-004	2.40040E-001	4.93901E-001	3.57710E+000	9	...........
	21	0.293333	4.99738E-001	4.01218E-004	0.00000E+000	2.00504E-004	2.40040E-001	4.99841E-001	3.57710E+000	9	...........
	22	0.306667	5.05604E-001	4.02218E-004	0.00000E+000	2.03363E-004	2.40040E-001	5.05707E-001	3.57710E+000	9	...........
	23	0.32	5.11462E-001	4.00454E-004	0.00000E+000	2.04817E-004	2.40040E-001	5.11566E-001	3.57710E+000	9	...........
	24	0.333333	5.17307E-001	4.01522E-004	0.00000E+000	2.07710E-004	2.40040E-001	5.17410E-001	3.57710E+000	9	...........
	25	0.346667	5.23101E-001	4.01548E-004	0.00000E+000	2.10050E-004	2.40040E-001	5.23202E-001	3.57710E+000	9	...........
	26	0.36	5.28977E-001	4.01215E-004	0.00000E+000	2.12234E-004	2.40040E-001	5.29085E-001	3.57710E+000	9	...........
	27	0.373333	5.34644E-001	4.01117E-004	0.00000E+000	2.14455E-004	2.40040E-001	5.34814E-001	3.57710E+000	9	...........
	28	0.386667	5.40301E-001	4.00759E-004	0.00000E+000	2.16530E-004	2.40040E-001	5.40512E-001	3.57710E+000	9	...........
	29	0.4	5.46058E-001	4.01165E-004	0.00000E+000	2.19059E-004	2.40040E-001	5.46256E-001	3.57710E+000	9	...........
	30	0.413333	5.51717E-001	4.02332E-004	0.00000E+000	2.21973E-004	2.40040E-001	5.51920E-001	3.57710E+000	9	...........
	31	0.426667	5.57370E-001	3.99799E-004	0.00000E+000	2.22836E-004	2.40040E-001	5.57547E-001	3.57710E+000	9	...........
	32	0.44	5.63001E-001	4.00954E-004	0.00000E+000	2.25738E-004	2.40040E-001	5.63205E-001	3.57710E+000	9	...........
	33	0.453333	5.68692E-001	4.00707E-004	0.00000E+000	2.27879E-004	2.40040E-001	5.68866E-001	3.57710E+000	9	...........
	34	0.466667	5.74272E-001	4.01131E-004	0.00000E+000	2.30359E-004	2.40040E-001	5.74468E-001	3.57710E+000	9	...........
	35	0.48	5.79853E-001	4.01694E-004	0.00000E+000	2.32924E-004	2.40040E-001	5.80061E-001	3.57710E+000	9	...........
	36	0.493333	5.85420E-001	4.00722E-004	0.00000E+000	2.34591E-004	2.40040E-001	5.85607E-001	3.57710E+000	9	...........
	37	0.506667	5.91064E-001	4.01961E-004	0.00000E+000	2.37584E-004	2.40040E-001	5.91243E-001	3.57710E+000	9	...........
	38	0.52	5.96632E-001	3.99481E-004	0.00000E+000	2.38343E-004	2.40040E-001	5.96823E-001	3.57710E+000	9	...........
	39	0.533333	6.02204E-001	4.02059E-004	0.00000E+000	2.42121E-004	2.40040E-001	6.02435E-001	3.57710E+000	9	...........
	40	0.546667	6.07742E-001	4.01519E-004	0.00000E+000	2.44020E-004	2.40040E-001	6.07968E-001	3.57710E+000	9	...........
	41	0.56	6.13194E-001	4.00899E-004	0.00000E+000	2.45829E-004	2.40040E-001	6.13441E-001	3.57710E+000	9	...........
	42	0.573333	6.18779E-001	4.01382E-004	0.00000E+000	2.48366E-004	2.40040E-001	6.18974E-001	3.57710E+000	9	...........
	43	0.586667	6.24287E-001	4.00157E-004	0.00000E+000	2.49813E-004	2.40040E-001	6.24502E-001	3.57710E+000	9	...........
	44	0.6	6.29703E-001	4.01122E-004	0.00000E+000	2.52588E-004	2.40040E-001	6.29917E-001	3.57710E+000	9	...........
	45	0.613333	6.35119E-001	3.99466E-004	0.00000E+000	2.53708E-004	2.40040E-001	6.35312E-001	3.57710E+000	9	...........
	46	0.626667	6.40556E-001	4.02050E-004	0.00000E+000	2.57536E-004	2.40040E-001	6.40739E-001	3.57710E+000	9	...........
	47	0.64	6.46025E-001	4.00833E-004	0.00000E+000	2.58948E-004	2.40040E-001	6.46202E-001	3.57710E+000	9	...........
	48	0.653333	6.51437E-001	4.00185E-004	0.00000E+000	2.60696E-004	2.40040E-001	6.51648E-001	3.57710E+000	9	...........
	49	0.666667	6.56795E-001	4.01285E-004	0.00000E+000	2.63562E-004	2.40040E-001	6.56991E-001	3.57710E+000	9	...........
	50	0.68	6.62095E-001	4.00860E-004	0.00000E+000	2.65407E-004	2.40040E-001	6.62317E-001	3.57710E+000	9	...........
	51	0.693333	6.67439E-001	4.00650E-004	0.00000E+000	2.67410E-004	2.40040E-001	6.67674E-001	3.57710E+000	9	...........
	52	0.706667	6.72821E-001	4.01885E-004	0.00000E+000	2.70397E-004	2.40040E-001	6.73038E-001	3.57710E+000	9	...........
	53	0.72	6.78125E-001	4.00913E-004	0.00000E+000	2.71869E-004	2.40040E-001	6.78363E-001	3.57710E+000	9	...........
	54	0.733333	6.83426E-001	4.01072E-004	0.00000E+000	2.74103E-004	2.40040E-001	6.83618E-001	3.57720E+000	9	...........
	55	0.746667	6.88697E-001	4.02892E-004	0.00000E+000	2.77471E-004	2.40040E-001	6.88880E-001	3.57750E+000	9	...........
	56	0.76	6.93995E-001	4.00080E-004	0.00000E+000	2.77654E-004	2.40040E-001	6.94177E-001	3.57750E+000	9	...........
	57	0.773333	6.99384E-001	4.00817E-004	0.00000E+000	2.80325E-004	2.40040E-001	6.99539E-001	3.57750E+000	9	...........
	58	0.786667	7.04623E-001	4.01707E-004	0.00000E+000	2.83052E-004	2.40040E-001	7.04826E-001	3.57750E+000	9	...........
	59	0.8	7.09864E-001	4.00262E-004	0.00000E+000	2.84131E-004	2.40040E-001	7.10099E-001	3.57750E+000	9	...........
	60	0.813333	7.15064E-001	4.02179E-004	0.00000E+000	2.87584E-004	2.40040E-001	7.15323E-001	3.57750E+000	9	...........
	61	0.826667	7.20363E-001	4.00735E-004	0.00000E+000	2.88674E-004	2.40040E-001	7.20583E-001	3.57750E+000	9	...........
	62	0.84	7.25558E-001	3.99968E-004	0.00000E+000	2.90200E-004	2.40040E-001	7.25774E-001	3.57750E+000	9	...........
	63	0.853333	7.30716E-001	4.01340E-004	0.00000E+000	2.93266E-004	2.40040E-001	7.30961E-001	3.57750E+000	9	...........
	64	0.866667	7.35882E-001	4.00617E-004	0.00000E+000	2.94807E-004	2.40040E-001	7.36118E-001	3.57750E+000	9	...........
	65	0.88	7.40963E-001	4.01726E-004	0.00000E+000	2.97664E-004	2.40040E-001	7.41199E-001	3.57750E+000	9	...........
	66	0.893333	7.46055E-001	4.03099E-004	0.00000E+000	3.00734E-004	2.40040E-001	7.46285E-001	3.57750E+000	9	...........
	67	0.906667	7.51150E-001	4.01260E-004	0.00000E+000	3.01406E-004	2.40040E-001	7.51380E-001	3.57750E+000	9	...........
	68	0.92	7.56236E-001	4.01257E-004	0.00000E+000	3.03445E-004	2.40040E-001	7.56477E-001	3.57750E+000	9	...........
	69	0.933333	7.61299E-001	3.99868E-004	0.00000E+000	3.04419E-004	2.40040E-001	7.61537E-001	3.57750E+000	9	...........
	70	0.946667	7.66332E-001	3.99982E-004	0.00000E+000	3.06519E-004	2.40040E-001	7.66599E-001	3.57750E+000	9	...........
	71	0.96	7.71350E-001	4.00127E-004	0.00000E+000	3.08638E-004	2.40040E-001	7.71605E-001	3.57750E+000	9	...........
	72	0.97333	7.76366E-001	4.00620E-004	0.00000E+000	3.11028E-004	2.40040E-001	7.76622E-001	3.57750E+000	9	...........
	73	0.98667	7.81358E-001	4.00638E-004	0.00000E+000	3.13041E-004	2.40040E-001	7.81631E-001	3.57750E+000	9	...........
	74	1	7.86302E-001	4.00393E-004	0.00000E+000	3.14830E-004	2.40040E-001	7.86554E-001	3.57750E+000	9	...........
	75	1.01333	7.91258E-001	4.00276E-004	0.00000E+000	3.16722E-004	2.40040E-001	7.91501E-001	3.57750E+000	9	...........
	76	1.02667	7.96221E-001	4.02256E-004	0.00000E+000	3.20284E-004	2.40040E-001	7.96443E-001	3.57750E+000	9	...........
	77	1.04	8.01060E-001	4.00042E-004	0.00000E+000	3.20457E-004	2.40040E-001	8.01297E-001	3.57750E+000	9	...........
	78	1.05333	8.06016E-001	4.00449E-004	0.00000E+000	3.22768E-004	2.40040E-001	8.06280E-001	3.57750E+000	9	...........
	79	1.06667	8.10939E-001	4.00095E-004	0.00000E+000	3.24452E-004	2.40040E-001	8.11183E-001	3.57750E+000	9	...........
	80	1.08	8.15765E-001	4.01566E-004	0.00000E+000	3.27584E-004	2.40040E-001	8.16048E-001	3.57750E+000	9	...........
	81	1.09333	8.20500E-001	4.00225E-004	0.00000E+000	3.28385E-004	2.40040E-001	8.20792E-001	3.57750E+000	9	...........
	82	1.10667	8.25193E-001	4.00163E-004	0.00000E+000	3.30211E-004	2.40040E-001	8.25466E-001	3.57750E+000	9	...........
	83	1.12	8.29868E-001	4.01389E-004	0.00000E+000	3.33100E-004	2.40040E-001	8.30171E-001	3.57750E+000	9	...........
	84	1.13333	8.34607E-001	4.01341E-004	0.00000E+000	3.34962E-004	2.40040E-001	8.34911E-001	3.57750E+000	9	...........
	85	1.14667	8.39270E-001	4.02190E-004	0.00000E+000	3.37546E-004	2.40040E-001	8.39557E-001	3.57750E+000	9	...........
	86	1.16	8.43898E-001	4.00923E-004	0.00000E+000	3.38338E-004	2.40040E-001	8.44188E-001	3.57750E+000	9	...........
	87	1.17333	8.48519E-001	4.00774E-004	0.00000E+000	3.40064E-004	2.40040E-001	8.48819E-001	3.57750E+000	9	...........
	88	1.18667	8.53107E-001	4.01505E-004	0.00000E+000	3.42526E-004	2.40040E-001	8.53399E-001	3.57750E+000	9	...........
	89	1.2	8.57772E-001	4.01421E-004	0.00000E+000	3.44328E-004	2.40040E-001	8.58081E-001	3.57750E+000	9	...........
	90	1.21333	8.62366E-001	4.01051E-004	0.00000E+000	3.45853E-004	2.40040E-001	8.62664E-001	3.57750E+000	9	...........
	91	1.22667	8.66841E-001	4.01910E-004	0.00000E+000	3.48392E-004	2.40040E-001	8.67132E-001	3.57750E+000	9	...........
	92	1.24	8.71302E-001	4.02245E-004	0.00000E+000	3.50477E-004	2.40040E-001	8.71578E-001	3.57750E+000	9	...........
	93	1.25333	8.75720E-001	4.00167E-004	0.00000E+000	3.50434E-004	2.40040E-001	8.75996E-001	3.57750E+000	9	...........
	94	1.26667	8.80165E-001	4.00866E-004	0.00000E+000	3.52828E-004	2.40040E-001	8.80459E-001	3.57750E+000	9	...........
	95	1.28	8.84601E-001	3.99974E-004	0.00000E+000	3.53817E-004	2.40040E-001	8.84859E-001	3.57750E+000	9	...........
	96	1.29333	8.88954E-001	4.00545E-004	0.00000E+000	3.56066E-004	2.40040E-001	8.89228E-001	3.57750E+000	9	...........
	97	1.30667	8.93277E-001	4.00561E-004	0.00000E+000	3.57811E-004	2.40040E-001	8.93569E-001	3.57750E+000	9	...........
	98	1.32	8.97537E-001	4.00632E-004	0.00000E+000	3.59582E-004	2.40040E-001	8.97815E-001	3.57750E+000	9	...........
	99	1.33333	9.01836E-001	4.01411E-004	0.00000E+000	3.62007E-004	2.40040E-001	9.02129E-001	3.57750E+000	9	...........
	100	1.34667	9.06068E-001	4.00583E-004	0.00000E+000	3.62956E-004	2.40040E-001	9.06382E-001	3.57750E+000	9	...........
	101	1.36	9.10287E-001	4.00833E-004	0.00000E+000	3.64872E-004	2.40040E-001	9.10587E-001	3.57750E+000	9	...........
	102	1.37333	9.14454E-001	4.01021E-004	0.00000E+000	3.66715E-004	2.40040E-001	9.14784E-001	3.57750E+000	9	...........
	103	1.38667	9.18563E-001	4.01276E-004	0.00000E+000	3.68598E-004	2.40040E-001	9.18887E-001	3.57750E+000	9	...........
	104	1.4	9.22689E-001	4.01395E-004	0.00000E+000	3.70363E-004	2.40040E-001	9.22968E-001	3.57750E+000	9	...........
	105	1.41333	9.26761E-001	4.00479E-004	0.00000E+000	3.71149E-004	2.40040E-001	9.27057E-001	3.57750E+000	9	...........
	106	1.42667	9.30725E-001	3.99634E-004	0.00000E+000	3.71950E-004	2.40040E-001	9.31034E-001	3.57750E+000	9	...........
	107	1.44	9.34759E-001	4.01004E-004	0.00000E+000	3.74843E-004	2.40040E-001	9.35084E-001	3.57750E+000	9	...........
	108	1.45333	9.38792E-001	4.00910E-004	0.00000E+000	3.76371E-004	2.40040E-001	9.39121E-001	3.57750E+000	9	...........
	109	1.46667	9.42672E-001	4.01831E-004	0.00000E+000	3.78795E-004	2.40040E-001	9.43010E-001	3.57750E+000	9	...........
	110	1.48	9.46600E-001	4.01865E-004	0.00000E+000	3.80405E-004	2.40040E-001	9.46948E-001	3.57750E+000	9	...........
	111	1.49333	9.50453E-001	4.01461E-004	0.00000E+000	3.81569E-004	2.40040E-001	9.50765E-001	3.57750E+000	9	...........
	112	1.50667	9.54250E-001	3.99872E-004	0.00000E+000	3.81578E-004	2.40040E-001	9.54534E-001	3.57750E+000	9	...........
	113	1.52	9.57970E-001	4.00334E-004	0.00000E+000	3.83509E-004	2.40040E-001	9.58265E-001	3.57750E+000	9	...........
	114	1.53333	9.61768E-001	4.01077E-004	0.00000E+000	3.85743E-004	2.40040E-001	9.62063E-001	3.57750E+000	9	...........
	115	1.54667	9.65456E-001	4.00907E-004	0.00000E+000	3.87058E-004	2.40040E-001	9.65756E-001	3.57750E+000	9	...........
	116	1.56	9.69165E-001	4.00607E-004	0.00000E+000	3.88255E-004	2.40040E-001	9.69485E-001	3.57750E+000	9	...........
	117	1.57333	9.72806E-001	4.00730E-004	0.00000E+000	3.89833E-004	2.40040E-001	9.73120E-001	3.57750E+000	9	...........
	118	1.58667	9.76430E-001	4.00318E-004	0.00000E+000	3.90882E-004	2.40040E-001	9.76740E-001	3.57750E+000	9	...........
	119	1.6	9.79994E-001	4.01270E-004	0.00000E+000	3.93242E-004	2.40040E-001	9.80293E-001	3.57750E+000	9	...........
	120	1.61333	9.83542E-001	4.00188E-004	0.00000E+000	3.93601E-004	2.40040E-001	9.83858E-001	3.57750E+000	9	...........
	121	1.62667	9.87051E-001	4.00239E-004	0.00000E+000	3.95056E-004	2.40040E-001	9.87400E-001	3.57750E+000	9	...........
	122	1.64	9.90480E-001	4.01470E-004	0.00000E+000	3.97648E-004	2.40040E-001	9.90806E-001	3.57750E+000	9	...........
	123	1.65333	9.93905E-001	4.02296E-004	0.00000E+000	3.99844E-004	2.40040E-001	9.94242E-001	3.57750E+000	9	...........
	124	1.66667	9.97333E-001	3.99822E-004	0.00000E+000	3.98755E-004	2.40040E-001	9.97661E-001	3.57750E+000	9	...........
	125	1.67167	9.99633E-001	4.00280E-004	0.00000E+000	4.00133E-004	2.40040E-001	9.99991E-001	3.57750E+000	9	...........
STARTTIMEOFFSET	QUANT	965.482	Start Time Offset (s)
