EXPLAIN
TAG	PWR800_CHARGE
TITLE	LABEL	PWR Cyclic Charge Discharge (Cell) - Charge Step	Test &Identifier
DATE	LABEL	12-7-2017	Date
TIME	LABEL	15:16:40	Time
NOTES	NOTES	3	&Notes...
	supercap test cell
	0.4mg
	6M KOH
PSTAT	PSTAT	IFC5000-01520	Potentiostat
CAPACITY	QUANT	1.00000E-003	Capacity (A-hr)
CELLTYPE	SELECTOR	1	&Cell Type
WORKINGCONNECTION	SELECTOR	0	&Working Lead
MAXCHARGETIME	VARIABLEANDUNITS	1.00000E+002	s	1.00000E+002	second(s)	Max &Charge Time
CHARGECURRENT	QUANT	4.00000E-004	&Charge Current (A) 
VOLTAGEFINISH	TWOPARAM	F	1.00000E-003	3.60000E+003	&Voltage Finish	 I (A) < 	Max Time(s)
SAMPLETIME	QUANT	1.00000E-002	Sa&mple Period (s)
CHARGESTOPAT1	MULTIPARAM	4	1.00000E+000	Charge Stop At &1	Voltage > Limit	V
CHARGESTOPAT2	MULTIPARAM	0	0.00000E+000	Charge Stop At &2	None	N/A
AESBHCSELECTOR	TOGGLE	F	Save Both Half Cells
IRCOMP	TOGGLE	F	IR &Measure
EOC	QUANT	0	Open Circuit (V)
SEQUENCER	TOGGLE	TRUE	Run as Sequence
PSTATMODEL	IQUANT	53	Pstat Model
PSTATSECTION	LABEL	IFC5000-01520	Pstat Section
PSTATSERIALNO	LABEL	01520	Pstat Serial Number
CTRLMODE	IQUANT	0	Control Mode
ELECTROMETER	IQUANT	1	RE=0 or CS=1
IESTAB	IQUANT	0	I/E Stability
CASPEED	IQUANT	4	Control Amp Speed
CONVENTION	IQUANT	1	Current Convention
ICHRANGE	IQUANT	2	Ich Range
ICHRANGEMODE	TOGGLE	T	Ich Auto Range
ICHOFFSETENABLE	TOGGLE	F	Ich Offset Enable
ICHOFFSET	QUANT	0	Ich Offset (V)
ICHFILTER	IQUANT	1	Ich Filter
VCHRANGE	IQUANT	2	Vch Range
VCHRANGEMODE	TOGGLE	T	Vch Auto Range
VCHOFFSETENABLE	TOGGLE	F	Vch Offset Enable
VCHOFFSET	QUANT	0	Vch Offset (V)
VCHFILTER	IQUANT	1	Vch Filter
IERANGELOWERLIMIT	IQUANT	9	I/E Range Lower Limit
IERANGEMODE	TOGGLE	F	I/E AutoRange
IERANGE	IQUANT	9	I/E Range
ACHSELECT	IQUANT	1	Ach Select
ACHRANGE	IQUANT	2	Ach Range
ACHOFFSETENABLE	TOGGLE	F	Ach Offset Enable
ACHOFFSET	QUANT	0	Ach Offset (V)
ACHFILTER	IQUANT	1	Ach Filter
CABLEID	IQUANT	14	Cable ID
DCCALDATE	LABEL	5-7-2017	DC Calibration Date
ACCALDATE	LABEL	12/3/2015	AC Calibration Date
FRAMEWORKVERSION	QUANT	7.01	Framework Version
INSTRUMENTVERSION	LABEL	4.00	Instrument Version
CURVE	TABLE	107
	Pt	T	Vf	Im	Vu	Pwr	Sig	Ach	Temp	IERange	Over
	#	s	V	A	V	W	V	V	deg C	#	bits
	0	0.013333	3.86221E-001	4.01686E-004	0.00000E+000	1.55140E-004	2.40040E-001	3.86313E-001	3.57690E+000	9	...........
	1	0.026667	3.98971E-001	4.00421E-004	0.00000E+000	1.59756E-004	2.40040E-001	3.99046E-001	3.57690E+000	9	...........
	2	0.04	4.09830E-001	4.00063E-004	0.00000E+000	1.63958E-004	2.40040E-001	4.09911E-001	3.57690E+000	9	...........
	3	0.053333	4.19692E-001	3.99611E-004	0.00000E+000	1.67714E-004	2.40040E-001	4.19778E-001	3.57690E+000	9	...........
	4	0.066667	4.28855E-001	4.01273E-004	0.00000E+000	1.72088E-004	2.40040E-001	4.28942E-001	3.57690E+000	9	...........
	5	0.08	4.37576E-001	4.01150E-004	0.00000E+000	1.75534E-004	2.40040E-001	4.37670E-001	3.57690E+000	9	...........
	6	0.093333	4.45864E-001	4.00537E-004	0.00000E+000	1.78585E-004	2.40040E-001	4.45957E-001	3.57690E+000	9	...........
	7	0.106667	4.53886E-001	4.00144E-004	0.00000E+000	1.81620E-004	2.40040E-001	4.53985E-001	3.57690E+000	9	...........
	8	0.12	4.61717E-001	4.00883E-004	0.00000E+000	1.85094E-004	2.40040E-001	4.61813E-001	3.57690E+000	9	...........
	9	0.133333	4.69428E-001	4.02659E-004	0.00000E+000	1.89019E-004	2.40040E-001	4.69525E-001	3.57690E+000	9	...........
	10	0.146667	4.76987E-001	4.01307E-004	0.00000E+000	1.91418E-004	2.40040E-001	4.77086E-001	3.57690E+000	9	...........
	11	0.16	4.84313E-001	4.01218E-004	0.00000E+000	1.94315E-004	2.40040E-001	4.84418E-001	3.57690E+000	9	...........
	12	0.173333	4.91579E-001	4.00464E-004	0.00000E+000	1.96859E-004	2.40040E-001	4.91682E-001	3.57690E+000	9	...........
	13	0.186667	4.98750E-001	4.01177E-004	0.00000E+000	2.00087E-004	2.40040E-001	4.98852E-001	3.57690E+000	9	...........
	14	0.2	5.05840E-001	4.00739E-004	0.00000E+000	2.02710E-004	2.40040E-001	5.05944E-001	3.57690E+000	9	...........
	15	0.213333	5.12876E-001	4.01938E-004	0.00000E+000	2.06144E-004	2.40040E-001	5.12977E-001	3.57690E+000	9	...........
	16	0.226667	5.19785E-001	4.02161E-004	0.00000E+000	2.09037E-004	2.40040E-001	5.19894E-001	3.57690E+000	9	...........
	17	0.24	5.26632E-001	4.02285E-004	0.00000E+000	2.11856E-004	2.40040E-001	5.26745E-001	3.57690E+000	9	...........
	18	0.253333	5.33336E-001	4.00414E-004	0.00000E+000	2.13555E-004	2.40040E-001	5.33462E-001	3.57690E+000	9	...........
	19	0.266667	5.39962E-001	4.01567E-004	0.00000E+000	2.16831E-004	2.40040E-001	5.40176E-001	3.57690E+000	9	...........
	20	0.28	5.46577E-001	4.00721E-004	0.00000E+000	2.19025E-004	2.40040E-001	5.46804E-001	3.57690E+000	9	...........
	21	0.293333	5.53198E-001	4.00429E-004	0.00000E+000	2.21517E-004	2.40040E-001	5.53432E-001	3.57690E+000	9	...........
	22	0.306667	5.59788E-001	4.00529E-004	0.00000E+000	2.24212E-004	2.40040E-001	5.60035E-001	3.57690E+000	9	...........
	23	0.32	5.66397E-001	4.01045E-004	0.00000E+000	2.27151E-004	2.40040E-001	5.66602E-001	3.57690E+000	9	...........
	24	0.333333	5.72889E-001	4.01316E-004	0.00000E+000	2.29910E-004	2.40040E-001	5.73093E-001	3.57690E+000	9	...........
	25	0.346667	5.79334E-001	4.01429E-004	0.00000E+000	2.32562E-004	2.40040E-001	5.79573E-001	3.57690E+000	9	...........
	26	0.36	5.85740E-001	4.00984E-004	0.00000E+000	2.34872E-004	2.40040E-001	5.85972E-001	3.57690E+000	9	...........
	27	0.373333	5.92174E-001	4.00910E-004	0.00000E+000	2.37408E-004	2.40040E-001	5.92382E-001	3.57690E+000	9	...........
	28	0.386667	5.98479E-001	4.01749E-004	0.00000E+000	2.40439E-004	2.40040E-001	5.98720E-001	3.57690E+000	9	...........
	29	0.4	6.04885E-001	4.02116E-004	0.00000E+000	2.43234E-004	2.40040E-001	6.05135E-001	3.57690E+000	9	...........
	30	0.413333	6.11232E-001	3.99785E-004	0.00000E+000	2.44362E-004	2.40040E-001	6.11475E-001	3.57690E+000	9	...........
	31	0.426667	6.17587E-001	4.00157E-004	0.00000E+000	2.47132E-004	2.40040E-001	6.17803E-001	3.57690E+000	9	...........
	32	0.44	6.23811E-001	4.02043E-004	0.00000E+000	2.50799E-004	2.40040E-001	6.24036E-001	3.57690E+000	9	...........
	33	0.453333	6.30042E-001	4.00504E-004	0.00000E+000	2.52334E-004	2.40040E-001	6.30281E-001	3.57690E+000	9	...........
	34	0.466667	6.36235E-001	4.00896E-004	0.00000E+000	2.55064E-004	2.40040E-001	6.36492E-001	3.57690E+000	9	...........
	35	0.48	6.42435E-001	4.01284E-004	0.00000E+000	2.57799E-004	2.40040E-001	6.42669E-001	3.57690E+000	9	...........
	36	0.493333	6.48614E-001	4.00859E-004	0.00000E+000	2.60002E-004	2.40040E-001	6.48861E-001	3.57690E+000	9	...........
	37	0.506667	6.54836E-001	4.01452E-004	0.00000E+000	2.62885E-004	2.40040E-001	6.55041E-001	3.57690E+000	9	...........
	38	0.52	6.60918E-001	4.01847E-004	0.00000E+000	2.65588E-004	2.40040E-001	6.61147E-001	3.57690E+000	9	...........
	39	0.533333	6.67005E-001	4.00730E-004	0.00000E+000	2.67289E-004	2.40040E-001	6.67238E-001	3.57690E+000	9	...........
	40	0.546667	6.73160E-001	4.00449E-004	0.00000E+000	2.69566E-004	2.40040E-001	6.73357E-001	3.57690E+000	9	...........
	41	0.56	6.79192E-001	4.00578E-004	0.00000E+000	2.72070E-004	2.40040E-001	6.79419E-001	3.57690E+000	9	...........
	42	0.573333	6.85153E-001	4.00308E-004	0.00000E+000	2.74273E-004	2.40040E-001	6.85375E-001	3.57690E+000	9	...........
	43	0.586667	6.91099E-001	3.99197E-004	0.00000E+000	2.75885E-004	2.40040E-001	6.91323E-001	3.57690E+000	9	...........
	44	0.6	6.97025E-001	4.01712E-004	0.00000E+000	2.80003E-004	2.40040E-001	6.97228E-001	3.57690E+000	9	...........
	45	0.613333	7.02986E-001	4.01332E-004	0.00000E+000	2.82131E-004	2.40040E-001	7.03168E-001	3.57690E+000	9	...........
	46	0.626667	7.08916E-001	4.01413E-004	0.00000E+000	2.84568E-004	2.40040E-001	7.09146E-001	3.57690E+000	9	...........
	47	0.64	7.14882E-001	4.01692E-004	0.00000E+000	2.87162E-004	2.40040E-001	7.15070E-001	3.57690E+000	9	...........
	48	0.653333	7.20807E-001	4.01574E-004	0.00000E+000	2.89457E-004	2.40040E-001	7.20976E-001	3.57690E+000	9	...........
	49	0.666667	7.26624E-001	4.01124E-004	0.00000E+000	2.91466E-004	2.40040E-001	7.26790E-001	3.57690E+000	9	...........
	50	0.68	7.32435E-001	4.01976E-004	0.00000E+000	2.94421E-004	2.40040E-001	7.32634E-001	3.57690E+000	9	...........
	51	0.693333	7.38145E-001	4.01908E-004	0.00000E+000	2.96666E-004	2.40040E-001	7.38349E-001	3.57690E+000	9	...........
	52	0.706667	7.43945E-001	3.99121E-004	0.00000E+000	2.96924E-004	2.40040E-001	7.44166E-001	3.57690E+000	9	...........
	53	0.72	7.49630E-001	4.00279E-004	0.00000E+000	3.00061E-004	2.40040E-001	7.49852E-001	3.57690E+000	9	...........
	54	0.733333	7.55314E-001	3.99149E-004	0.00000E+000	3.01483E-004	2.40040E-001	7.55559E-001	3.57690E+000	9	...........
	55	0.746667	7.60996E-001	4.00287E-004	0.00000E+000	3.04617E-004	2.40040E-001	7.61226E-001	3.57690E+000	9	...........
	56	0.76	7.66550E-001	4.00564E-004	0.00000E+000	3.07052E-004	2.40040E-001	7.66824E-001	3.57690E+000	9	...........
	57	0.773333	7.72164E-001	4.00258E-004	0.00000E+000	3.09065E-004	2.40040E-001	7.72409E-001	3.57690E+000	9	...........
	58	0.786667	7.77704E-001	4.01122E-004	0.00000E+000	3.11954E-004	2.40040E-001	7.77971E-001	3.57690E+000	9	...........
	59	0.8	7.83210E-001	3.99991E-004	0.00000E+000	3.13277E-004	2.40040E-001	7.83442E-001	3.57690E+000	9	...........
	60	0.813333	7.88698E-001	4.02542E-004	0.00000E+000	3.17484E-004	2.40040E-001	7.88954E-001	3.57690E+000	9	...........
	61	0.826667	7.94177E-001	4.01095E-004	0.00000E+000	3.18541E-004	2.40040E-001	7.94438E-001	3.57690E+000	9	...........
	62	0.84	7.99638E-001	4.01329E-004	0.00000E+000	3.20918E-004	2.40040E-001	7.99883E-001	3.57690E+000	9	...........
	63	0.853333	8.05061E-001	4.01444E-004	0.00000E+000	3.23187E-004	2.40040E-001	8.05352E-001	3.57690E+000	9	...........
	64	0.866667	8.10431E-001	4.01089E-004	0.00000E+000	3.25055E-004	2.40040E-001	8.10658E-001	3.57690E+000	9	...........
	65	0.88	8.15688E-001	4.01303E-004	0.00000E+000	3.27338E-004	2.40040E-001	8.15978E-001	3.57690E+000	9	...........
	66	0.893333	8.20997E-001	4.00641E-004	0.00000E+000	3.28925E-004	2.40040E-001	8.21273E-001	3.57690E+000	9	...........
	67	0.906667	8.26263E-001	4.00813E-004	0.00000E+000	3.31177E-004	2.40040E-001	8.26517E-001	3.57690E+000	9	...........
	68	0.92	8.31484E-001	4.01642E-004	0.00000E+000	3.33959E-004	2.40040E-001	8.31765E-001	3.57780E+000	9	...........
	69	0.933333	8.36648E-001	3.99955E-004	0.00000E+000	3.34622E-004	2.40040E-001	8.36950E-001	3.57780E+000	9	...........
	70	0.946667	8.41766E-001	4.00644E-004	0.00000E+000	3.37249E-004	2.40040E-001	8.42068E-001	3.57780E+000	9	...........
	71	0.96	8.46837E-001	4.00464E-004	0.00000E+000	3.39127E-004	2.40040E-001	8.47124E-001	3.57780E+000	9	...........
	72	0.97333	8.51859E-001	4.01457E-004	0.00000E+000	3.41984E-004	2.40040E-001	8.52137E-001	3.57780E+000	9	...........
	73	0.98667	8.56854E-001	4.00786E-004	0.00000E+000	3.43415E-004	2.40040E-001	8.57129E-001	3.57780E+000	9	...........
	74	1	8.61824E-001	4.01493E-004	0.00000E+000	3.46016E-004	2.40040E-001	8.62096E-001	3.57780E+000	9	...........
	75	1.01333	8.66697E-001	4.00346E-004	0.00000E+000	3.46979E-004	2.40040E-001	8.66979E-001	3.57780E+000	9	...........
	76	1.02667	8.71604E-001	4.00420E-004	0.00000E+000	3.49007E-004	2.40040E-001	8.71863E-001	3.57780E+000	9	...........
	77	1.04	8.76372E-001	4.00222E-004	0.00000E+000	3.50743E-004	2.40040E-001	8.76649E-001	3.57780E+000	9	...........
	78	1.05333	8.81255E-001	4.01485E-004	0.00000E+000	3.53810E-004	2.40040E-001	8.81529E-001	3.57780E+000	9	...........
	79	1.06667	8.86063E-001	4.00010E-004	0.00000E+000	3.54434E-004	2.40040E-001	8.86349E-001	3.57780E+000	9	...........
	80	1.08	8.90747E-001	4.02797E-004	0.00000E+000	3.58791E-004	2.40040E-001	8.91042E-001	3.57780E+000	9	...........
	81	1.09333	8.95464E-001	4.00916E-004	0.00000E+000	3.59006E-004	2.40040E-001	8.95783E-001	3.57780E+000	9	...........
	82	1.10667	9.00090E-001	4.02248E-004	0.00000E+000	3.62060E-004	2.40040E-001	9.00429E-001	3.57780E+000	9	...........
	83	1.12	9.04732E-001	4.00058E-004	0.00000E+000	3.61946E-004	2.40040E-001	9.05057E-001	3.57780E+000	9	...........
	84	1.13333	9.09246E-001	4.01426E-004	0.00000E+000	3.64995E-004	2.40040E-001	9.09568E-001	3.57780E+000	9	...........
	85	1.14667	9.13767E-001	4.00403E-004	0.00000E+000	3.65875E-004	2.40040E-001	9.14083E-001	3.57780E+000	9	...........
	86	1.16	9.18318E-001	4.01075E-004	0.00000E+000	3.68315E-004	2.40040E-001	9.18657E-001	3.57780E+000	9	...........
	87	1.17333	9.22790E-001	4.00239E-004	0.00000E+000	3.69336E-004	2.40040E-001	9.23063E-001	3.57780E+000	9	...........
	88	1.18667	9.27253E-001	4.01272E-004	0.00000E+000	3.72081E-004	2.40040E-001	9.27537E-001	3.57780E+000	9	...........
	89	1.2	9.31623E-001	4.00382E-004	0.00000E+000	3.73006E-004	2.40040E-001	9.31928E-001	3.57780E+000	9	...........
	90	1.21333	9.35927E-001	4.00796E-004	0.00000E+000	3.75116E-004	2.40040E-001	9.36245E-001	3.57780E+000	9	...........
	91	1.22667	9.40234E-001	4.01825E-004	0.00000E+000	3.77810E-004	2.40040E-001	9.40541E-001	3.57780E+000	9	...........
	92	1.24	9.44450E-001	4.01306E-004	0.00000E+000	3.79013E-004	2.40040E-001	9.44778E-001	3.57780E+000	9	...........
	93	1.25333	9.48731E-001	4.01050E-004	0.00000E+000	3.80489E-004	2.40040E-001	9.49019E-001	3.57780E+000	9	...........
	94	1.26667	9.52881E-001	4.00351E-004	0.00000E+000	3.81487E-004	2.40040E-001	9.53210E-001	3.57780E+000	9	...........
	95	1.28	9.57010E-001	4.01243E-004	0.00000E+000	3.83994E-004	2.40040E-001	9.57328E-001	3.57780E+000	9	...........
	96	1.29333	9.61064E-001	3.99968E-004	0.00000E+000	3.84395E-004	2.40040E-001	9.61384E-001	3.57780E+000	9	...........
	97	1.30667	9.65086E-001	4.01482E-004	0.00000E+000	3.87464E-004	2.40040E-001	9.65420E-001	3.57780E+000	9	...........
	98	1.32	9.69067E-001	4.00868E-004	0.00000E+000	3.88468E-004	2.40040E-001	9.69391E-001	3.57780E+000	9	...........
	99	1.33333	9.73067E-001	4.02163E-004	0.00000E+000	3.91332E-004	2.40040E-001	9.73413E-001	3.57780E+000	9	...........
	100	1.34667	9.76988E-001	4.00744E-004	0.00000E+000	3.91522E-004	2.40040E-001	9.77299E-001	3.57780E+000	9	...........
	101	1.36	9.80860E-001	4.00950E-004	0.00000E+000	3.93276E-004	2.40040E-001	9.81174E-001	3.57780E+000	9	...........
	102	1.37333	9.84720E-001	4.01627E-004	0.00000E+000	3.95491E-004	2.40040E-001	9.85056E-001	3.57780E+000	9	...........
	103	1.38667	9.88621E-001	4.01829E-004	0.00000E+000	3.97256E-004	2.40040E-001	9.88960E-001	3.57780E+000	9	...........
	104	1.4	9.92404E-001	4.01304E-004	0.00000E+000	3.98256E-004	2.40040E-001	9.92701E-001	3.57780E+000	9	...........
	105	1.41333	9.96097E-001	4.00710E-004	0.00000E+000	3.99146E-004	2.40040E-001	9.96385E-001	3.57780E+000	9	...........
	106	1.42167	9.99112E-001	4.01632E-004	0.00000E+000	4.01276E-004	2.40040E-001	9.99413E-001	3.57780E+000	9	...........
STARTTIMEOFFSET	QUANT	2751.165	Start Time Offset (s)
