EXPLAIN
TAG	PWR800_CHARGE
TITLE	LABEL	PWR Cyclic Charge Discharge (Cell) - Charge Step	Test &Identifier
DATE	LABEL	12-7-2017	Date
TIME	LABEL	15:20:57	Time
NOTES	NOTES	3	&Notes...
	supercap test cell
	0.4mg
	6M KOH
PSTAT	PSTAT	IFC5000-01520	Potentiostat
CAPACITY	QUANT	1.00000E-003	Capacity (A-hr)
CELLTYPE	SELECTOR	1	&Cell Type
WORKINGCONNECTION	SELECTOR	0	&Working Lead
MAXCHARGETIME	VARIABLEANDUNITS	1.00000E+002	s	1.00000E+002	second(s)	Max &Charge Time
CHARGECURRENT	QUANT	4.00000E-004	&Charge Current (A) 
VOLTAGEFINISH	TWOPARAM	F	1.00000E-003	3.60000E+003	&Voltage Finish	 I (A) < 	Max Time(s)
SAMPLETIME	QUANT	1.00000E-002	Sa&mple Period (s)
CHARGESTOPAT1	MULTIPARAM	4	1.00000E+000	Charge Stop At &1	Voltage > Limit	V
CHARGESTOPAT2	MULTIPARAM	0	0.00000E+000	Charge Stop At &2	None	N/A
AESBHCSELECTOR	TOGGLE	F	Save Both Half Cells
IRCOMP	TOGGLE	F	IR &Measure
EOC	QUANT	0	Open Circuit (V)
SEQUENCER	TOGGLE	TRUE	Run as Sequence
PSTATMODEL	IQUANT	53	Pstat Model
PSTATSECTION	LABEL	IFC5000-01520	Pstat Section
PSTATSERIALNO	LABEL	01520	Pstat Serial Number
CTRLMODE	IQUANT	0	Control Mode
ELECTROMETER	IQUANT	1	RE=0 or CS=1
IESTAB	IQUANT	0	I/E Stability
CASPEED	IQUANT	4	Control Amp Speed
CONVENTION	IQUANT	1	Current Convention
ICHRANGE	IQUANT	2	Ich Range
ICHRANGEMODE	TOGGLE	T	Ich Auto Range
ICHOFFSETENABLE	TOGGLE	F	Ich Offset Enable
ICHOFFSET	QUANT	0	Ich Offset (V)
ICHFILTER	IQUANT	1	Ich Filter
VCHRANGE	IQUANT	2	Vch Range
VCHRANGEMODE	TOGGLE	T	Vch Auto Range
VCHOFFSETENABLE	TOGGLE	F	Vch Offset Enable
VCHOFFSET	QUANT	0	Vch Offset (V)
VCHFILTER	IQUANT	1	Vch Filter
IERANGELOWERLIMIT	IQUANT	9	I/E Range Lower Limit
IERANGEMODE	TOGGLE	F	I/E AutoRange
IERANGE	IQUANT	9	I/E Range
ACHSELECT	IQUANT	1	Ach Select
ACHRANGE	IQUANT	2	Ach Range
ACHOFFSETENABLE	TOGGLE	F	Ach Offset Enable
ACHOFFSET	QUANT	0	Ach Offset (V)
ACHFILTER	IQUANT	1	Ach Filter
CABLEID	IQUANT	14	Cable ID
DCCALDATE	LABEL	5-7-2017	DC Calibration Date
ACCALDATE	LABEL	12/3/2015	AC Calibration Date
FRAMEWORKVERSION	QUANT	7.01	Framework Version
INSTRUMENTVERSION	LABEL	4.00	Instrument Version
CURVE	TABLE	105
	Pt	T	Vf	Im	Vu	Pwr	Sig	Ach	Temp	IERange	Over
	#	s	V	A	V	W	V	V	deg C	#	bits
	0	0.013333	3.92539E-001	4.01861E-004	0.00000E+000	1.57746E-004	2.40040E-001	3.92645E-001	3.57660E+000	9	...........
	1	0.026667	4.05450E-001	3.99891E-004	0.00000E+000	1.62136E-004	2.40040E-001	4.05531E-001	3.57660E+000	9	...........
	2	0.04	4.16480E-001	4.00806E-004	0.00000E+000	1.66928E-004	2.40040E-001	4.16574E-001	3.57660E+000	9	...........
	3	0.053333	4.26445E-001	4.01388E-004	0.00000E+000	1.71170E-004	2.40040E-001	4.26532E-001	3.57660E+000	9	...........
	4	0.066667	4.35692E-001	4.00427E-004	0.00000E+000	1.74463E-004	2.40040E-001	4.35784E-001	3.57660E+000	9	...........
	5	0.08	4.44406E-001	4.01465E-004	0.00000E+000	1.78413E-004	2.40040E-001	4.44500E-001	3.57660E+000	9	...........
	6	0.093333	4.52783E-001	4.01045E-004	0.00000E+000	1.81586E-004	2.40040E-001	4.52878E-001	3.57660E+000	9	...........
	7	0.106667	4.60945E-001	4.01915E-004	0.00000E+000	1.85261E-004	2.40040E-001	4.61038E-001	3.57660E+000	9	...........
	8	0.12	4.68873E-001	4.00666E-004	0.00000E+000	1.87861E-004	2.40040E-001	4.68967E-001	3.57660E+000	9	...........
	9	0.133333	4.76598E-001	4.00352E-004	0.00000E+000	1.90807E-004	2.40040E-001	4.76695E-001	3.57660E+000	9	...........
	10	0.146667	4.84126E-001	4.00132E-004	0.00000E+000	1.93715E-004	2.40040E-001	4.84222E-001	3.57660E+000	9	...........
	11	0.16	4.91506E-001	4.01783E-004	0.00000E+000	1.97479E-004	2.40040E-001	4.91609E-001	3.57660E+000	9	...........
	12	0.173333	4.98798E-001	4.00919E-004	0.00000E+000	1.99978E-004	2.40040E-001	4.98897E-001	3.57660E+000	9	...........
	13	0.186667	5.06024E-001	4.00253E-004	0.00000E+000	2.02538E-004	2.40040E-001	5.06127E-001	3.57660E+000	9	...........
	14	0.2	5.13155E-001	4.00517E-004	0.00000E+000	2.05527E-004	2.40040E-001	5.13257E-001	3.57660E+000	9	...........
	15	0.213333	5.20158E-001	4.00328E-004	0.00000E+000	2.08234E-004	2.40040E-001	5.20267E-001	3.57660E+000	9	...........
	16	0.226667	5.27077E-001	4.01345E-004	0.00000E+000	2.11540E-004	2.40040E-001	5.27189E-001	3.57660E+000	9	...........
	17	0.24	5.33811E-001	4.01743E-004	0.00000E+000	2.14455E-004	2.40040E-001	5.33944E-001	3.57660E+000	9	...........
	18	0.253333	5.40514E-001	4.02008E-004	0.00000E+000	2.17291E-004	2.40040E-001	5.40730E-001	3.57660E+000	9	...........
	19	0.266667	5.47279E-001	3.99472E-004	0.00000E+000	2.18622E-004	2.40040E-001	5.47475E-001	3.57660E+000	9	...........
	20	0.28	5.53967E-001	4.01707E-004	0.00000E+000	2.22532E-004	2.40040E-001	5.54214E-001	3.57664E+000	9	...........
	21	0.293333	5.60620E-001	3.99357E-004	0.00000E+000	2.23888E-004	2.40040E-001	5.60877E-001	3.57690E+000	9	...........
	22	0.306667	5.67297E-001	4.00842E-004	0.00000E+000	2.27397E-004	2.40040E-001	5.67516E-001	3.57690E+000	9	...........
	23	0.32	5.73910E-001	4.01262E-004	0.00000E+000	2.30288E-004	2.40040E-001	5.74127E-001	3.57690E+000	9	...........
	24	0.333333	5.80378E-001	4.01006E-004	0.00000E+000	2.32736E-004	2.40040E-001	5.80590E-001	3.57690E+000	9	...........
	25	0.346667	5.86857E-001	4.00024E-004	0.00000E+000	2.34757E-004	2.40040E-001	5.87073E-001	3.57690E+000	9	...........
	26	0.36	5.93294E-001	3.99982E-004	0.00000E+000	2.37307E-004	2.40040E-001	5.93533E-001	3.57690E+000	9	...........
	27	0.373333	5.99752E-001	4.00812E-004	0.00000E+000	2.40388E-004	2.40040E-001	6.00022E-001	3.57690E+000	9	...........
	28	0.386667	6.06099E-001	4.00222E-004	0.00000E+000	2.42574E-004	2.40040E-001	6.06392E-001	3.57690E+000	9	...........
	29	0.4	6.12495E-001	4.00670E-004	0.00000E+000	2.45408E-004	2.40040E-001	6.12768E-001	3.57690E+000	9	...........
	30	0.413333	6.18911E-001	4.00899E-004	0.00000E+000	2.48121E-004	2.40040E-001	6.19143E-001	3.57690E+000	9	...........
	31	0.426667	6.25194E-001	4.00646E-004	0.00000E+000	2.50481E-004	2.40040E-001	6.25434E-001	3.57690E+000	9	...........
	32	0.44	6.31465E-001	4.00995E-004	0.00000E+000	2.53214E-004	2.40040E-001	6.31678E-001	3.57690E+000	9	...........
	33	0.453333	6.37796E-001	4.01695E-004	0.00000E+000	2.56200E-004	2.40040E-001	6.37982E-001	3.57690E+000	9	...........
	34	0.466667	6.44031E-001	4.00728E-004	0.00000E+000	2.58081E-004	2.40040E-001	6.44256E-001	3.57690E+000	9	...........
	35	0.48	6.50185E-001	4.00222E-004	0.00000E+000	2.60219E-004	2.40040E-001	6.50437E-001	3.57690E+000	9	...........
	36	0.493333	6.56399E-001	4.01131E-004	0.00000E+000	2.63302E-004	2.40040E-001	6.56641E-001	3.57690E+000	9	...........
	37	0.506667	6.62570E-001	4.01367E-004	0.00000E+000	2.65934E-004	2.40040E-001	6.62822E-001	3.57690E+000	9	...........
	38	0.52	6.68884E-001	3.99927E-004	0.00000E+000	2.67505E-004	2.40040E-001	6.69115E-001	3.57690E+000	9	...........
	39	0.533333	6.75107E-001	4.01362E-004	0.00000E+000	2.70962E-004	2.40040E-001	6.75318E-001	3.57690E+000	9	...........
	40	0.546667	6.81181E-001	4.00874E-004	0.00000E+000	2.73068E-004	2.40040E-001	6.81437E-001	3.57690E+000	9	...........
	41	0.56	6.87254E-001	4.01715E-004	0.00000E+000	2.76080E-004	2.40040E-001	6.87507E-001	3.57690E+000	9	...........
	42	0.573333	6.93240E-001	4.01374E-004	0.00000E+000	2.78249E-004	2.40040E-001	6.93510E-001	3.57690E+000	9	...........
	43	0.586667	6.99232E-001	3.99150E-004	0.00000E+000	2.79098E-004	2.40040E-001	6.99493E-001	3.57690E+000	9	...........
	44	0.6	7.05232E-001	4.01141E-004	0.00000E+000	2.82897E-004	2.40040E-001	7.05491E-001	3.57690E+000	9	...........
	45	0.613333	7.11216E-001	4.00340E-004	0.00000E+000	2.84728E-004	2.40040E-001	7.11484E-001	3.57690E+000	9	...........
	46	0.626667	7.17169E-001	4.00225E-004	0.00000E+000	2.87029E-004	2.40040E-001	7.17413E-001	3.57690E+000	9	...........
	47	0.64	7.23085E-001	4.01849E-004	0.00000E+000	2.90571E-004	2.40040E-001	7.23304E-001	3.57690E+000	9	...........
	48	0.653333	7.28890E-001	4.01475E-004	0.00000E+000	2.92631E-004	2.40040E-001	7.29105E-001	3.57690E+000	9	...........
	49	0.666667	7.34702E-001	4.01250E-004	0.00000E+000	2.94799E-004	2.40040E-001	7.34934E-001	3.57690E+000	9	...........
	50	0.68	7.40509E-001	4.01733E-004	0.00000E+000	2.97487E-004	2.40040E-001	7.40713E-001	3.57690E+000	9	...........
	51	0.693333	7.46251E-001	4.00926E-004	0.00000E+000	2.99192E-004	2.40040E-001	7.46469E-001	3.57690E+000	9	...........
	52	0.706667	7.52003E-001	4.01114E-004	0.00000E+000	3.01639E-004	2.40040E-001	7.52244E-001	3.57690E+000	9	...........
	53	0.72	7.57744E-001	4.01888E-004	0.00000E+000	3.04528E-004	2.40040E-001	7.57957E-001	3.57690E+000	9	...........
	54	0.733333	7.63389E-001	4.00315E-004	0.00000E+000	3.05596E-004	2.40040E-001	7.63619E-001	3.57690E+000	9	...........
	55	0.746667	7.69048E-001	4.01073E-004	0.00000E+000	3.08445E-004	2.40040E-001	7.69307E-001	3.57690E+000	9	...........
	56	0.76	7.74676E-001	4.01160E-004	0.00000E+000	3.10769E-004	2.40040E-001	7.74909E-001	3.57690E+000	9	...........
	57	0.773333	7.80240E-001	3.99760E-004	0.00000E+000	3.11909E-004	2.40040E-001	7.80454E-001	3.57690E+000	9	...........
	58	0.786667	7.85824E-001	4.01316E-004	0.00000E+000	3.15364E-004	2.40040E-001	7.86057E-001	3.57690E+000	9	...........
	59	0.8	7.91324E-001	4.00530E-004	0.00000E+000	3.16949E-004	2.40040E-001	7.91576E-001	3.57690E+000	9	...........
	60	0.813333	7.96773E-001	4.01334E-004	0.00000E+000	3.19772E-004	2.40040E-001	7.97001E-001	3.57690E+000	9	...........
	61	0.826667	8.02177E-001	4.01212E-004	0.00000E+000	3.21843E-004	2.40040E-001	8.02402E-001	3.57690E+000	9	...........
	62	0.84	8.07547E-001	4.01531E-004	0.00000E+000	3.24255E-004	2.40040E-001	8.07792E-001	3.57690E+000	9	...........
	63	0.853333	8.12909E-001	4.00214E-004	0.00000E+000	3.25337E-004	2.40040E-001	8.13158E-001	3.57690E+000	9	...........
	64	0.866667	8.18265E-001	3.99966E-004	0.00000E+000	3.27278E-004	2.40040E-001	8.18555E-001	3.57690E+000	9	...........
	65	0.88	8.23573E-001	4.00628E-004	0.00000E+000	3.29947E-004	2.40040E-001	8.23872E-001	3.57690E+000	9	...........
	66	0.893333	8.28790E-001	4.00819E-004	0.00000E+000	3.32195E-004	2.40040E-001	8.29058E-001	3.57690E+000	9	...........
	67	0.906667	8.33957E-001	3.99874E-004	0.00000E+000	3.33478E-004	2.40040E-001	8.34256E-001	3.57690E+000	9	...........
	68	0.92	8.39105E-001	4.00984E-004	0.00000E+000	3.36467E-004	2.40040E-001	8.39423E-001	3.57690E+000	9	...........
	69	0.933333	8.44293E-001	4.00773E-004	0.00000E+000	3.38370E-004	2.40040E-001	8.44583E-001	3.57690E+000	9	...........
	70	0.946667	8.49372E-001	4.01289E-004	0.00000E+000	3.40843E-004	2.40040E-001	8.49666E-001	3.57690E+000	9	...........
	71	0.96	8.54451E-001	4.00423E-004	0.00000E+000	3.42142E-004	2.40040E-001	8.54734E-001	3.57690E+000	9	...........
	72	0.97333	8.59547E-001	4.01566E-004	0.00000E+000	3.45165E-004	2.40040E-001	8.59838E-001	3.57690E+000	9	...........
	73	0.98667	8.64515E-001	4.01686E-004	0.00000E+000	3.47263E-004	2.40040E-001	8.64846E-001	3.57690E+000	9	...........
	74	1	8.69540E-001	4.01400E-004	0.00000E+000	3.49034E-004	2.40040E-001	8.69851E-001	3.57690E+000	9	...........
	75	1.01333	8.74491E-001	4.00514E-004	0.00000E+000	3.50246E-004	2.40040E-001	8.74782E-001	3.57690E+000	9	...........
	76	1.02667	8.79348E-001	4.01378E-004	0.00000E+000	3.52951E-004	2.40040E-001	8.79646E-001	3.57690E+000	9	...........
	77	1.04	8.84076E-001	4.00820E-004	0.00000E+000	3.54355E-004	2.40040E-001	8.84401E-001	3.57690E+000	9	...........
	78	1.05333	8.88812E-001	4.00083E-004	0.00000E+000	3.55599E-004	2.40040E-001	8.89139E-001	3.57690E+000	9	...........
	79	1.06667	8.93507E-001	4.00775E-004	0.00000E+000	3.58095E-004	2.40040E-001	8.93848E-001	3.57690E+000	9	...........
	80	1.08	8.98242E-001	4.00782E-004	0.00000E+000	3.60000E-004	2.40040E-001	8.98564E-001	3.57690E+000	9	...........
	81	1.09333	9.02913E-001	4.01531E-004	0.00000E+000	3.62547E-004	2.40040E-001	9.03238E-001	3.57690E+000	9	...........
	82	1.10667	9.07533E-001	4.01199E-004	0.00000E+000	3.64102E-004	2.40040E-001	9.07845E-001	3.57690E+000	9	...........
	83	1.12	9.12046E-001	4.01671E-004	0.00000E+000	3.66343E-004	2.40040E-001	9.12380E-001	3.57690E+000	9	...........
	84	1.13333	9.16601E-001	4.01123E-004	0.00000E+000	3.67670E-004	2.40040E-001	9.16938E-001	3.57690E+000	9	...........
	85	1.14667	9.21156E-001	4.00353E-004	0.00000E+000	3.68788E-004	2.40040E-001	9.21469E-001	3.57690E+000	9	...........
	86	1.16	9.25611E-001	4.01930E-004	0.00000E+000	3.72030E-004	2.40040E-001	9.25908E-001	3.57690E+000	9	...........
	87	1.17333	9.29965E-001	3.99985E-004	0.00000E+000	3.71973E-004	2.40040E-001	9.30264E-001	3.57690E+000	9	...........
	88	1.18667	9.34374E-001	4.01392E-004	0.00000E+000	3.75050E-004	2.40040E-001	9.34679E-001	3.57690E+000	9	...........
	89	1.2	9.38695E-001	4.00694E-004	0.00000E+000	3.76129E-004	2.40040E-001	9.39011E-001	3.57690E+000	9	...........
	90	1.21333	9.42997E-001	4.01189E-004	0.00000E+000	3.78320E-004	2.40040E-001	9.43294E-001	3.57690E+000	9	...........
	91	1.22667	9.47280E-001	3.99376E-004	0.00000E+000	3.78321E-004	2.40040E-001	9.47586E-001	3.57690E+000	9	...........
	92	1.24	9.51514E-001	4.03104E-004	0.00000E+000	3.83559E-004	2.40040E-001	9.51849E-001	3.57690E+000	9	...........
	93	1.25333	9.55680E-001	4.01105E-004	0.00000E+000	3.83328E-004	2.40040E-001	9.55971E-001	3.57690E+000	9	...........
	94	1.26667	9.59720E-001	4.00973E-004	0.00000E+000	3.84822E-004	2.40040E-001	9.60048E-001	3.57690E+000	9	...........
	95	1.28	9.63721E-001	3.99541E-004	0.00000E+000	3.85046E-004	2.40040E-001	9.64044E-001	3.57695E+000	9	...........
	96	1.29333	9.67800E-001	4.01137E-004	0.00000E+000	3.88220E-004	2.40040E-001	9.68105E-001	3.57730E+000	9	...........
	97	1.30667	9.71901E-001	4.00225E-004	0.00000E+000	3.88979E-004	2.40040E-001	9.72206E-001	3.57730E+000	9	...........
	98	1.32	9.75932E-001	4.01372E-004	0.00000E+000	3.91712E-004	2.40040E-001	9.76183E-001	3.57730E+000	9	...........
	99	1.33333	9.79781E-001	4.01200E-004	0.00000E+000	3.93088E-004	2.40040E-001	9.80049E-001	3.57730E+000	9	...........
	100	1.34667	9.83549E-001	4.01616E-004	0.00000E+000	3.95009E-004	2.40040E-001	9.83857E-001	3.57730E+000	9	...........
	101	1.36	9.87436E-001	4.01946E-004	0.00000E+000	3.96896E-004	2.40040E-001	9.87765E-001	3.57730E+000	9	...........
	102	1.37333	9.91234E-001	4.01881E-004	0.00000E+000	3.98358E-004	2.40040E-001	9.91537E-001	3.57730E+000	9	...........
	103	1.38667	9.94954E-001	4.00770E-004	0.00000E+000	3.98748E-004	2.40040E-001	9.95287E-001	3.57730E+000	9	...........
	104	1.4	9.98699E-001	4.00118E-004	0.00000E+000	3.99597E-004	2.40040E-001	9.99017E-001	3.57730E+000	9	...........
STARTTIMEOFFSET	QUANT	2951.043	Start Time Offset (s)
