EXPLAIN
TAG	PWR800_CHARGE
TITLE	LABEL	PWR Cyclic Charge Discharge (Cell) - Charge Step	Test &Identifier
DATE	LABEL	12-7-2017	Date
TIME	LABEL	15:22:29	Time
NOTES	NOTES	3	&Notes...
	supercap test cell
	0.4mg
	6M KOH
PSTAT	PSTAT	IFC5000-01520	Potentiostat
CAPACITY	QUANT	1.00000E-003	Capacity (A-hr)
CELLTYPE	SELECTOR	1	&Cell Type
WORKINGCONNECTION	SELECTOR	0	&Working Lead
MAXCHARGETIME	VARIABLEANDUNITS	1.00000E+002	s	1.00000E+002	second(s)	Max &Charge Time
CHARGECURRENT	QUANT	4.00000E-004	&Charge Current (A) 
VOLTAGEFINISH	TWOPARAM	F	1.00000E-003	3.60000E+003	&Voltage Finish	 I (A) < 	Max Time(s)
SAMPLETIME	QUANT	1.00000E-002	Sa&mple Period (s)
CHARGESTOPAT1	MULTIPARAM	4	1.00000E+000	Charge Stop At &1	Voltage > Limit	V
CHARGESTOPAT2	MULTIPARAM	0	0.00000E+000	Charge Stop At &2	None	N/A
AESBHCSELECTOR	TOGGLE	F	Save Both Half Cells
IRCOMP	TOGGLE	F	IR &Measure
EOC	QUANT	0	Open Circuit (V)
SEQUENCER	TOGGLE	TRUE	Run as Sequence
PSTATMODEL	IQUANT	53	Pstat Model
PSTATSECTION	LABEL	IFC5000-01520	Pstat Section
PSTATSERIALNO	LABEL	01520	Pstat Serial Number
CTRLMODE	IQUANT	0	Control Mode
ELECTROMETER	IQUANT	1	RE=0 or CS=1
IESTAB	IQUANT	0	I/E Stability
CASPEED	IQUANT	4	Control Amp Speed
CONVENTION	IQUANT	1	Current Convention
ICHRANGE	IQUANT	2	Ich Range
ICHRANGEMODE	TOGGLE	T	Ich Auto Range
ICHOFFSETENABLE	TOGGLE	F	Ich Offset Enable
ICHOFFSET	QUANT	0	Ich Offset (V)
ICHFILTER	IQUANT	1	Ich Filter
VCHRANGE	IQUANT	2	Vch Range
VCHRANGEMODE	TOGGLE	T	Vch Auto Range
VCHOFFSETENABLE	TOGGLE	F	Vch Offset Enable
VCHOFFSET	QUANT	0	Vch Offset (V)
VCHFILTER	IQUANT	1	Vch Filter
IERANGELOWERLIMIT	IQUANT	9	I/E Range Lower Limit
IERANGEMODE	TOGGLE	F	I/E AutoRange
IERANGE	IQUANT	9	I/E Range
ACHSELECT	IQUANT	1	Ach Select
ACHRANGE	IQUANT	2	Ach Range
ACHOFFSETENABLE	TOGGLE	F	Ach Offset Enable
ACHOFFSET	QUANT	0	Ach Offset (V)
ACHFILTER	IQUANT	1	Ach Filter
CABLEID	IQUANT	14	Cable ID
DCCALDATE	LABEL	5-7-2017	DC Calibration Date
ACCALDATE	LABEL	12/3/2015	AC Calibration Date
FRAMEWORKVERSION	QUANT	7.01	Framework Version
INSTRUMENTVERSION	LABEL	4.00	Instrument Version
CURVE	TABLE	105
	Pt	T	Vf	Im	Vu	Pwr	Sig	Ach	Temp	IERange	Over
	#	s	V	A	V	W	V	V	deg C	#	bits
	0	0.013333	3.91854E-001	4.00739E-004	0.00000E+000	1.57031E-004	2.40040E-001	3.91955E-001	3.57710E+000	9	...........
	1	0.026667	4.04895E-001	4.02063E-004	0.00000E+000	1.62793E-004	2.40040E-001	4.04981E-001	3.57710E+000	9	...........
	2	0.04	4.15965E-001	4.00201E-004	0.00000E+000	1.66470E-004	2.40040E-001	4.16051E-001	3.57710E+000	9	...........
	3	0.053333	4.26024E-001	4.00977E-004	0.00000E+000	1.70826E-004	2.40040E-001	4.26117E-001	3.57710E+000	9	...........
	4	0.066667	4.35398E-001	3.99935E-004	0.00000E+000	1.74131E-004	2.40040E-001	4.35488E-001	3.57710E+000	9	...........
	5	0.08	4.44275E-001	4.00548E-004	0.00000E+000	1.77953E-004	2.40040E-001	4.44368E-001	3.57710E+000	9	...........
	6	0.093333	4.52777E-001	3.99666E-004	0.00000E+000	1.80960E-004	2.40040E-001	4.52871E-001	3.57710E+000	9	...........
	7	0.106667	4.61010E-001	4.01065E-004	0.00000E+000	1.84895E-004	2.40040E-001	4.61102E-001	3.57710E+000	9	...........
	8	0.12	4.69005E-001	4.01612E-004	0.00000E+000	1.88358E-004	2.40040E-001	4.69103E-001	3.57710E+000	9	...........
	9	0.133333	4.76872E-001	4.01686E-004	0.00000E+000	1.91553E-004	2.40040E-001	4.76966E-001	3.57710E+000	9	...........
	10	0.146667	4.84492E-001	4.02926E-004	0.00000E+000	1.95214E-004	2.40040E-001	4.84594E-001	3.57710E+000	9	...........
	11	0.16	4.92023E-001	4.01771E-004	0.00000E+000	1.97681E-004	2.40040E-001	4.92123E-001	3.57710E+000	9	...........
	12	0.173333	4.99410E-001	4.00669E-004	0.00000E+000	2.00098E-004	2.40040E-001	4.99510E-001	3.57710E+000	9	...........
	13	0.186667	5.06653E-001	4.00967E-004	0.00000E+000	2.03151E-004	2.40040E-001	5.06758E-001	3.57710E+000	9	...........
	14	0.2	5.13850E-001	4.02036E-004	0.00000E+000	2.06586E-004	2.40040E-001	5.13957E-001	3.57710E+000	9	...........
	15	0.213333	5.20921E-001	4.02765E-004	0.00000E+000	2.09809E-004	2.40040E-001	5.21029E-001	3.57710E+000	9	...........
	16	0.226667	5.27907E-001	4.00665E-004	0.00000E+000	2.11514E-004	2.40040E-001	5.28011E-001	3.57710E+000	9	...........
	17	0.24	5.34656E-001	4.00041E-004	0.00000E+000	2.13884E-004	2.40040E-001	5.34810E-001	3.57710E+000	9	...........
	18	0.253333	5.41490E-001	4.01595E-004	0.00000E+000	2.17460E-004	2.40040E-001	5.41714E-001	3.57710E+000	9	...........
	19	0.266667	5.48258E-001	4.01476E-004	0.00000E+000	2.20113E-004	2.40040E-001	5.48476E-001	3.57710E+000	9	...........
	20	0.28	5.55054E-001	4.01150E-004	0.00000E+000	2.22660E-004	2.40040E-001	5.55260E-001	3.57710E+000	9	...........
	21	0.293333	5.61737E-001	4.01988E-004	0.00000E+000	2.25811E-004	2.40040E-001	5.61967E-001	3.57710E+000	9	...........
	22	0.306667	5.68404E-001	3.99822E-004	0.00000E+000	2.27260E-004	2.40040E-001	5.68601E-001	3.57710E+000	9	...........
	23	0.32	5.75030E-001	4.02288E-004	0.00000E+000	2.31328E-004	2.40040E-001	5.75231E-001	3.57710E+000	9	...........
	24	0.333333	5.81559E-001	4.01792E-004	0.00000E+000	2.33666E-004	2.40040E-001	5.81780E-001	3.57685E+000	9	...........
	25	0.346667	5.88126E-001	4.00638E-004	0.00000E+000	2.35626E-004	2.40040E-001	5.88366E-001	3.57670E+000	9	...........
	26	0.36	5.94639E-001	4.01511E-004	0.00000E+000	2.38754E-004	2.40040E-001	5.94877E-001	3.57670E+000	9	...........
	27	0.373333	6.01102E-001	4.00003E-004	0.00000E+000	2.40443E-004	2.40040E-001	6.01350E-001	3.57670E+000	9	...........
	28	0.386667	6.07542E-001	4.01011E-004	0.00000E+000	2.43631E-004	2.40040E-001	6.07790E-001	3.57670E+000	9	...........
	29	0.4	6.13990E-001	4.00513E-004	0.00000E+000	2.45911E-004	2.40040E-001	6.14211E-001	3.57670E+000	9	...........
	30	0.413333	6.20331E-001	4.00636E-004	0.00000E+000	2.48527E-004	2.40040E-001	6.20524E-001	3.57670E+000	9	...........
	31	0.426667	6.26709E-001	4.00649E-004	0.00000E+000	2.51091E-004	2.40040E-001	6.26919E-001	3.57670E+000	9	...........
	32	0.44	6.33013E-001	4.01932E-004	0.00000E+000	2.54428E-004	2.40040E-001	6.33221E-001	3.57670E+000	9	...........
	33	0.453333	6.39326E-001	4.01690E-004	0.00000E+000	2.56811E-004	2.40040E-001	6.39547E-001	3.57670E+000	9	...........
	34	0.466667	6.45639E-001	4.01657E-004	0.00000E+000	2.59325E-004	2.40040E-001	6.45844E-001	3.57670E+000	9	...........
	35	0.48	6.51807E-001	4.00145E-004	0.00000E+000	2.60817E-004	2.40040E-001	6.52031E-001	3.57670E+000	9	...........
	36	0.493333	6.58021E-001	4.01810E-004	0.00000E+000	2.64399E-004	2.40040E-001	6.58254E-001	3.57670E+000	9	...........
	37	0.506667	6.64217E-001	4.01335E-004	0.00000E+000	2.66573E-004	2.40040E-001	6.64440E-001	3.57670E+000	9	...........
	38	0.52	6.70400E-001	3.99994E-004	0.00000E+000	2.68156E-004	2.40040E-001	6.70615E-001	3.57670E+000	9	...........
	39	0.533333	6.76490E-001	4.00108E-004	0.00000E+000	2.70669E-004	2.40040E-001	6.76703E-001	3.57670E+000	9	...........
	40	0.546667	6.82499E-001	4.02059E-004	0.00000E+000	2.74405E-004	2.40040E-001	6.82715E-001	3.57670E+000	9	...........
	41	0.56	6.88561E-001	4.00828E-004	0.00000E+000	2.75995E-004	2.40040E-001	6.88805E-001	3.57670E+000	9	...........
	42	0.573333	6.94569E-001	4.00478E-004	0.00000E+000	2.78160E-004	2.40040E-001	6.94765E-001	3.57670E+000	9	...........
	43	0.586667	7.00537E-001	4.00317E-004	0.00000E+000	2.80437E-004	2.40040E-001	7.00779E-001	3.57670E+000	9	...........
	44	0.6	7.06504E-001	3.99773E-004	0.00000E+000	2.82441E-004	2.40040E-001	7.06735E-001	3.57670E+000	9	...........
	45	0.613333	7.12416E-001	4.01278E-004	0.00000E+000	2.85877E-004	2.40040E-001	7.12666E-001	3.57670E+000	9	...........
	46	0.626667	7.18386E-001	4.00844E-004	0.00000E+000	2.87961E-004	2.40040E-001	7.18635E-001	3.57670E+000	9	...........
	47	0.64	7.24348E-001	4.01815E-004	0.00000E+000	2.91054E-004	2.40040E-001	7.24579E-001	3.57670E+000	9	...........
	48	0.653333	7.30205E-001	4.01141E-004	0.00000E+000	2.92915E-004	2.40040E-001	7.30449E-001	3.57670E+000	9	...........
	49	0.666667	7.36008E-001	4.00580E-004	0.00000E+000	2.94831E-004	2.40040E-001	7.36238E-001	3.57670E+000	9	...........
	50	0.68	7.41803E-001	4.00979E-004	0.00000E+000	2.97448E-004	2.40040E-001	7.42066E-001	3.57670E+000	9	...........
	51	0.693333	7.47600E-001	4.00803E-004	0.00000E+000	2.99641E-004	2.40040E-001	7.47839E-001	3.57670E+000	9	...........
	52	0.706667	7.53375E-001	4.00754E-004	0.00000E+000	3.01918E-004	2.40040E-001	7.53605E-001	3.57670E+000	9	...........
	53	0.72	7.59120E-001	4.01612E-004	0.00000E+000	3.04871E-004	2.40040E-001	7.59354E-001	3.57670E+000	9	...........
	54	0.733333	7.64843E-001	4.00869E-004	0.00000E+000	3.06602E-004	2.40040E-001	7.65109E-001	3.57670E+000	9	...........
	55	0.746667	7.70537E-001	4.00969E-004	0.00000E+000	3.08962E-004	2.40040E-001	7.70819E-001	3.57670E+000	9	...........
	56	0.76	7.76139E-001	3.99818E-004	0.00000E+000	3.10314E-004	2.40040E-001	7.76409E-001	3.57670E+000	9	...........
	57	0.773333	7.81725E-001	4.00521E-004	0.00000E+000	3.13097E-004	2.40040E-001	7.82007E-001	3.57670E+000	9	...........
	58	0.786667	7.87317E-001	4.00365E-004	0.00000E+000	3.15214E-004	2.40040E-001	7.87581E-001	3.57670E+000	9	...........
	59	0.8	7.92846E-001	4.01163E-004	0.00000E+000	3.18060E-004	2.40040E-001	7.93128E-001	3.57670E+000	9	...........
	60	0.813333	7.98360E-001	4.00687E-004	0.00000E+000	3.19892E-004	2.40040E-001	7.98618E-001	3.57670E+000	9	...........
	61	0.826667	8.03764E-001	4.01597E-004	0.00000E+000	3.22789E-004	2.40040E-001	8.04070E-001	3.57670E+000	9	...........
	62	0.84	8.09138E-001	4.02113E-004	0.00000E+000	3.25365E-004	2.40040E-001	8.09440E-001	3.57670E+000	9	...........
	63	0.853333	8.14487E-001	4.00460E-004	0.00000E+000	3.26169E-004	2.40040E-001	8.14775E-001	3.57670E+000	9	...........
	64	0.866667	8.19884E-001	4.02391E-004	0.00000E+000	3.29914E-004	2.40040E-001	8.20182E-001	3.57670E+000	9	...........
	65	0.88	8.25189E-001	4.00697E-004	0.00000E+000	3.30651E-004	2.40040E-001	8.25447E-001	3.57670E+000	9	...........
	66	0.893333	8.30418E-001	4.02210E-004	0.00000E+000	3.34002E-004	2.40040E-001	8.30706E-001	3.57670E+000	9	...........
	67	0.906667	8.35657E-001	4.00821E-004	0.00000E+000	3.34949E-004	2.40040E-001	8.35967E-001	3.57670E+000	9	...........
	68	0.92	8.40840E-001	4.00987E-004	0.00000E+000	3.37166E-004	2.40040E-001	8.41162E-001	3.57670E+000	9	...........
	69	0.933333	8.45980E-001	4.01147E-004	0.00000E+000	3.39363E-004	2.40040E-001	8.46276E-001	3.57670E+000	9	...........
	70	0.946667	8.51091E-001	4.00057E-004	0.00000E+000	3.40485E-004	2.40040E-001	8.51398E-001	3.57670E+000	9	...........
	71	0.96	8.56145E-001	4.01466E-004	0.00000E+000	3.43713E-004	2.40040E-001	8.56457E-001	3.57670E+000	9	...........
	72	0.97333	8.61131E-001	4.00941E-004	0.00000E+000	3.45263E-004	2.40040E-001	8.61428E-001	3.57670E+000	9	...........
	73	0.98667	8.66037E-001	4.01967E-004	0.00000E+000	3.48118E-004	2.40040E-001	8.66362E-001	3.57670E+000	9	...........
	74	1	8.71050E-001	4.00551E-004	0.00000E+000	3.48900E-004	2.40040E-001	8.71389E-001	3.57670E+000	9	...........
	75	1.01333	8.75963E-001	4.01547E-004	0.00000E+000	3.51740E-004	2.40040E-001	8.76287E-001	3.57670E+000	9	...........
	76	1.02667	8.80812E-001	4.01074E-004	0.00000E+000	3.53271E-004	2.40040E-001	8.81134E-001	3.57670E+000	9	...........
	77	1.04	8.85616E-001	4.02233E-004	0.00000E+000	3.56224E-004	2.40040E-001	8.85918E-001	3.57670E+000	9	...........
	78	1.05333	8.90353E-001	4.01084E-004	0.00000E+000	3.57106E-004	2.40040E-001	8.90671E-001	3.57670E+000	9	...........
	79	1.06667	8.95113E-001	4.00547E-004	0.00000E+000	3.58535E-004	2.40040E-001	8.95443E-001	3.57670E+000	9	...........
	80	1.08	8.99854E-001	4.01030E-004	0.00000E+000	3.60869E-004	2.40040E-001	9.00189E-001	3.57670E+000	9	...........
	81	1.09333	9.04518E-001	4.01769E-004	0.00000E+000	3.63408E-004	2.40040E-001	9.04852E-001	3.57670E+000	9	...........
	82	1.10667	9.09102E-001	4.00548E-004	0.00000E+000	3.64139E-004	2.40040E-001	9.09423E-001	3.57670E+000	9	...........
	83	1.12	9.13633E-001	4.00985E-004	0.00000E+000	3.66353E-004	2.40040E-001	9.13965E-001	3.57670E+000	9	...........
	84	1.13333	9.18122E-001	4.01003E-004	0.00000E+000	3.68170E-004	2.40040E-001	9.18457E-001	3.57670E+000	9	...........
	85	1.14667	9.22649E-001	4.00895E-004	0.00000E+000	3.69885E-004	2.40040E-001	9.22919E-001	3.57670E+000	9	...........
	86	1.16	9.27085E-001	4.00919E-004	0.00000E+000	3.71686E-004	2.40040E-001	9.27382E-001	3.57670E+000	9	...........
	87	1.17333	9.31476E-001	3.99698E-004	0.00000E+000	3.72309E-004	2.40040E-001	9.31780E-001	3.57670E+000	9	...........
	88	1.18667	9.35856E-001	4.01811E-004	0.00000E+000	3.76037E-004	2.40040E-001	9.36172E-001	3.57670E+000	9	...........
	89	1.2	9.40193E-001	3.99932E-004	0.00000E+000	3.76013E-004	2.40040E-001	9.40491E-001	3.57670E+000	9	...........
	90	1.21333	9.44517E-001	4.00338E-004	0.00000E+000	3.78126E-004	2.40040E-001	9.44831E-001	3.57670E+000	9	...........
	91	1.22667	9.48811E-001	4.00408E-004	0.00000E+000	3.79912E-004	2.40040E-001	9.49089E-001	3.57670E+000	9	...........
	92	1.24	9.53005E-001	4.01180E-004	0.00000E+000	3.82327E-004	2.40040E-001	9.53298E-001	3.57670E+000	9	...........
	93	1.25333	9.57116E-001	4.01191E-004	0.00000E+000	3.83986E-004	2.40040E-001	9.57420E-001	3.57670E+000	9	...........
	94	1.26667	9.61212E-001	4.00243E-004	0.00000E+000	3.84718E-004	2.40040E-001	9.61508E-001	3.57670E+000	9	...........
	95	1.28	9.65273E-001	4.01386E-004	0.00000E+000	3.87447E-004	2.40040E-001	9.65593E-001	3.57670E+000	9	...........
	96	1.29333	9.69305E-001	3.99851E-004	0.00000E+000	3.87577E-004	2.40040E-001	9.69640E-001	3.57670E+000	9	...........
	97	1.30667	9.73337E-001	4.00791E-004	0.00000E+000	3.90105E-004	2.40040E-001	9.73659E-001	3.57670E+000	9	...........
	98	1.32	9.77321E-001	4.01352E-004	0.00000E+000	3.92250E-004	2.40040E-001	9.77633E-001	3.57670E+000	9	...........
	99	1.33333	9.81212E-001	3.99460E-004	0.00000E+000	3.91955E-004	2.40040E-001	9.81520E-001	3.57664E+000	9	...........
	100	1.34667	9.85039E-001	4.00954E-004	0.00000E+000	3.94956E-004	2.40040E-001	9.85369E-001	3.57660E+000	9	...........
	101	1.36	9.88848E-001	4.01153E-004	0.00000E+000	3.96680E-004	2.40040E-001	9.89157E-001	3.57660E+000	9	...........
	102	1.37333	9.92630E-001	4.01073E-004	0.00000E+000	3.98117E-004	2.40040E-001	9.92959E-001	3.57660E+000	9	...........
	103	1.38667	9.96378E-001	4.01485E-004	0.00000E+000	4.00031E-004	2.40040E-001	9.96671E-001	3.57660E+000	9	...........
	104	1.395	9.99366E-001	4.00542E-004	0.00000E+000	4.00288E-004	2.40040E-001	9.99683E-001	3.57660E+000	9	...........
STARTTIMEOFFSET	QUANT	3022.552	Start Time Offset (s)
