EXPLAIN
TAG	PWR800_CHARGE
TITLE	LABEL	PWR Cyclic Charge Discharge (Cell) - Charge Step	Test &Identifier
DATE	LABEL	12-7-2017	Date
TIME	LABEL	15:16:33	Time
NOTES	NOTES	3	&Notes...
	supercap test cell
	0.4mg
	6M KOH
PSTAT	PSTAT	IFC5000-01520	Potentiostat
CAPACITY	QUANT	1.00000E-003	Capacity (A-hr)
CELLTYPE	SELECTOR	1	&Cell Type
WORKINGCONNECTION	SELECTOR	0	&Working Lead
MAXCHARGETIME	VARIABLEANDUNITS	1.00000E+002	s	1.00000E+002	second(s)	Max &Charge Time
CHARGECURRENT	QUANT	4.00000E-004	&Charge Current (A) 
VOLTAGEFINISH	TWOPARAM	F	1.00000E-003	3.60000E+003	&Voltage Finish	 I (A) < 	Max Time(s)
SAMPLETIME	QUANT	1.00000E-002	Sa&mple Period (s)
CHARGESTOPAT1	MULTIPARAM	4	1.00000E+000	Charge Stop At &1	Voltage > Limit	V
CHARGESTOPAT2	MULTIPARAM	0	0.00000E+000	Charge Stop At &2	None	N/A
AESBHCSELECTOR	TOGGLE	F	Save Both Half Cells
IRCOMP	TOGGLE	F	IR &Measure
EOC	QUANT	0	Open Circuit (V)
SEQUENCER	TOGGLE	TRUE	Run as Sequence
PSTATMODEL	IQUANT	53	Pstat Model
PSTATSECTION	LABEL	IFC5000-01520	Pstat Section
PSTATSERIALNO	LABEL	01520	Pstat Serial Number
CTRLMODE	IQUANT	0	Control Mode
ELECTROMETER	IQUANT	1	RE=0 or CS=1
IESTAB	IQUANT	0	I/E Stability
CASPEED	IQUANT	4	Control Amp Speed
CONVENTION	IQUANT	1	Current Convention
ICHRANGE	IQUANT	2	Ich Range
ICHRANGEMODE	TOGGLE	T	Ich Auto Range
ICHOFFSETENABLE	TOGGLE	F	Ich Offset Enable
ICHOFFSET	QUANT	0	Ich Offset (V)
ICHFILTER	IQUANT	1	Ich Filter
VCHRANGE	IQUANT	2	Vch Range
VCHRANGEMODE	TOGGLE	T	Vch Auto Range
VCHOFFSETENABLE	TOGGLE	F	Vch Offset Enable
VCHOFFSET	QUANT	0	Vch Offset (V)
VCHFILTER	IQUANT	1	Vch Filter
IERANGELOWERLIMIT	IQUANT	9	I/E Range Lower Limit
IERANGEMODE	TOGGLE	F	I/E AutoRange
IERANGE	IQUANT	9	I/E Range
ACHSELECT	IQUANT	1	Ach Select
ACHRANGE	IQUANT	2	Ach Range
ACHOFFSETENABLE	TOGGLE	F	Ach Offset Enable
ACHOFFSET	QUANT	0	Ach Offset (V)
ACHFILTER	IQUANT	1	Ach Filter
CABLEID	IQUANT	14	Cable ID
DCCALDATE	LABEL	5-7-2017	DC Calibration Date
ACCALDATE	LABEL	12/3/2015	AC Calibration Date
FRAMEWORKVERSION	QUANT	7.01	Framework Version
INSTRUMENTVERSION	LABEL	4.00	Instrument Version
CURVE	TABLE	107
	Pt	T	Vf	Im	Vu	Pwr	Sig	Ach	Temp	IERange	Over
	#	s	V	A	V	W	V	V	deg C	#	bits
	0	0.013333	3.90609E-001	4.01011E-004	0.00000E+000	1.56638E-004	2.40040E-001	3.90709E-001	3.57780E+000	9	...........
	1	0.026667	4.02698E-001	4.01200E-004	0.00000E+000	1.61562E-004	2.40040E-001	4.02773E-001	3.57780E+000	9	...........
	2	0.04	4.13155E-001	3.99746E-004	0.00000E+000	1.65157E-004	2.40040E-001	4.13244E-001	3.57780E+000	9	...........
	3	0.053333	4.22777E-001	3.99447E-004	0.00000E+000	1.68877E-004	2.40040E-001	4.22869E-001	3.57780E+000	9	...........
	4	0.066667	4.31867E-001	4.01491E-004	0.00000E+000	1.73391E-004	2.40040E-001	4.31958E-001	3.57766E+000	9	...........
	5	0.08	4.40504E-001	4.00973E-004	0.00000E+000	1.76630E-004	2.40040E-001	4.40593E-001	3.57670E+000	9	...........
	6	0.093333	4.48756E-001	4.00948E-004	0.00000E+000	1.79928E-004	2.40040E-001	4.48845E-001	3.57670E+000	9	...........
	7	0.106667	4.56745E-001	4.01185E-004	0.00000E+000	1.83239E-004	2.40040E-001	4.56841E-001	3.57670E+000	9	...........
	8	0.12	4.64544E-001	4.01731E-004	0.00000E+000	1.86621E-004	2.40040E-001	4.64641E-001	3.57670E+000	9	...........
	9	0.133333	4.72184E-001	4.00620E-004	0.00000E+000	1.89166E-004	2.40040E-001	4.72278E-001	3.57670E+000	9	...........
	10	0.146667	4.79698E-001	4.01296E-004	0.00000E+000	1.92501E-004	2.40040E-001	4.79793E-001	3.57670E+000	9	...........
	11	0.16	4.87103E-001	3.99828E-004	0.00000E+000	1.94758E-004	2.40040E-001	4.87204E-001	3.57670E+000	9	...........
	12	0.173333	4.94352E-001	4.01404E-004	0.00000E+000	1.98435E-004	2.40040E-001	4.94453E-001	3.57670E+000	9	...........
	13	0.186667	5.01531E-001	4.00117E-004	0.00000E+000	2.00671E-004	2.40040E-001	5.01632E-001	3.57670E+000	9	...........
	14	0.2	5.08547E-001	4.01066E-004	0.00000E+000	2.03961E-004	2.40040E-001	5.08651E-001	3.57670E+000	9	...........
	15	0.213333	5.15508E-001	4.00934E-004	0.00000E+000	2.06685E-004	2.40040E-001	5.15615E-001	3.57670E+000	9	...........
	16	0.226667	5.22387E-001	4.00414E-004	0.00000E+000	2.09171E-004	2.40040E-001	5.22492E-001	3.57670E+000	9	...........
	17	0.24	5.29267E-001	4.01818E-004	0.00000E+000	2.12669E-004	2.40040E-001	5.29376E-001	3.57670E+000	9	...........
	18	0.253333	5.35847E-001	4.01670E-004	0.00000E+000	2.15234E-004	2.40040E-001	5.36064E-001	3.57670E+000	9	...........
	19	0.266667	5.42488E-001	4.01531E-004	0.00000E+000	2.17826E-004	2.40040E-001	5.42722E-001	3.57670E+000	9	...........
	20	0.28	5.49126E-001	4.01599E-004	0.00000E+000	2.20528E-004	2.40040E-001	5.49362E-001	3.57670E+000	9	...........
	21	0.293333	5.55766E-001	4.01374E-004	0.00000E+000	2.23070E-004	2.40040E-001	5.56012E-001	3.57670E+000	9	...........
	22	0.306667	5.62322E-001	4.00804E-004	0.00000E+000	2.25381E-004	2.40040E-001	5.62570E-001	3.57670E+000	9	...........
	23	0.32	5.68878E-001	4.00979E-004	0.00000E+000	2.28108E-004	2.40040E-001	5.69103E-001	3.57670E+000	9	...........
	24	0.333333	5.75402E-001	4.00799E-004	0.00000E+000	2.30620E-004	2.40040E-001	5.75642E-001	3.57670E+000	9	...........
	25	0.346667	5.81849E-001	4.00356E-004	0.00000E+000	2.32947E-004	2.40040E-001	5.82100E-001	3.57670E+000	9	...........
	26	0.36	5.88318E-001	4.00213E-004	0.00000E+000	2.35452E-004	2.40040E-001	5.88563E-001	3.57670E+000	9	...........
	27	0.373333	5.94712E-001	4.01740E-004	0.00000E+000	2.38920E-004	2.40040E-001	5.94965E-001	3.57670E+000	9	...........
	28	0.386667	6.01072E-001	4.01132E-004	0.00000E+000	2.41109E-004	2.40040E-001	6.01317E-001	3.57670E+000	9	...........
	29	0.4	6.07378E-001	4.00417E-004	0.00000E+000	2.43205E-004	2.40040E-001	6.07628E-001	3.57670E+000	9	...........
	30	0.413333	6.13765E-001	4.02037E-004	0.00000E+000	2.46756E-004	2.40040E-001	6.14002E-001	3.57670E+000	9	...........
	31	0.426667	6.20062E-001	4.00977E-004	0.00000E+000	2.48631E-004	2.40040E-001	6.20282E-001	3.57670E+000	9	...........
	32	0.44	6.26280E-001	4.01611E-004	0.00000E+000	2.51521E-004	2.40040E-001	6.26493E-001	3.57670E+000	9	...........
	33	0.453333	6.32509E-001	4.01765E-004	0.00000E+000	2.54120E-004	2.40040E-001	6.32719E-001	3.57670E+000	9	...........
	34	0.466667	6.38721E-001	4.01175E-004	0.00000E+000	2.56239E-004	2.40040E-001	6.38948E-001	3.57670E+000	9	...........
	35	0.48	6.44887E-001	4.00646E-004	0.00000E+000	2.58371E-004	2.40040E-001	6.45117E-001	3.57670E+000	9	...........
	36	0.493333	6.51013E-001	4.00457E-004	0.00000E+000	2.60703E-004	2.40040E-001	6.51257E-001	3.57670E+000	9	...........
	37	0.506667	6.57112E-001	4.01372E-004	0.00000E+000	2.63746E-004	2.40040E-001	6.57351E-001	3.57670E+000	9	...........
	38	0.52	6.63194E-001	4.01961E-004	0.00000E+000	2.66578E-004	2.40040E-001	6.63447E-001	3.57670E+000	9	...........
	39	0.533333	6.69385E-001	4.00968E-004	0.00000E+000	2.68402E-004	2.40040E-001	6.69600E-001	3.57670E+000	9	...........
	40	0.546667	6.75436E-001	4.01138E-004	0.00000E+000	2.70943E-004	2.40040E-001	6.75632E-001	3.57670E+000	9	...........
	41	0.56	6.81443E-001	4.00926E-004	0.00000E+000	2.73209E-004	2.40040E-001	6.81655E-001	3.57670E+000	9	...........
	42	0.573333	6.87470E-001	4.00605E-004	0.00000E+000	2.75404E-004	2.40040E-001	6.87702E-001	3.57670E+000	9	...........
	43	0.586667	6.93488E-001	4.01472E-004	0.00000E+000	2.78416E-004	2.40040E-001	6.93682E-001	3.57670E+000	9	...........
	44	0.6	6.99441E-001	3.99495E-004	0.00000E+000	2.79423E-004	2.40040E-001	6.99648E-001	3.57670E+000	9	...........
	45	0.613333	7.05375E-001	4.01328E-004	0.00000E+000	2.83087E-004	2.40040E-001	7.05613E-001	3.57670E+000	9	...........
	46	0.626667	7.11286E-001	4.01198E-004	0.00000E+000	2.85366E-004	2.40040E-001	7.11522E-001	3.57670E+000	9	...........
	47	0.64	7.17179E-001	4.01207E-004	0.00000E+000	2.87737E-004	2.40040E-001	7.17428E-001	3.57670E+000	9	...........
	48	0.653333	7.23114E-001	4.00248E-004	0.00000E+000	2.89425E-004	2.40040E-001	7.23311E-001	3.57670E+000	9	...........
	49	0.666667	7.28875E-001	4.00791E-004	0.00000E+000	2.92126E-004	2.40040E-001	7.29108E-001	3.57670E+000	9	...........
	50	0.68	7.34595E-001	4.00108E-004	0.00000E+000	2.93918E-004	2.40040E-001	7.34836E-001	3.57670E+000	9	...........
	51	0.693333	7.40416E-001	4.02195E-004	0.00000E+000	2.97792E-004	2.40040E-001	7.40635E-001	3.57670E+000	9	...........
	52	0.706667	7.46135E-001	4.00938E-004	0.00000E+000	2.99154E-004	2.40040E-001	7.46350E-001	3.57670E+000	9	...........
	53	0.72	7.51806E-001	4.02158E-004	0.00000E+000	3.02344E-004	2.40040E-001	7.52066E-001	3.57670E+000	9	...........
	54	0.733333	7.57480E-001	4.01750E-004	0.00000E+000	3.04318E-004	2.40040E-001	7.57715E-001	3.57670E+000	9	...........
	55	0.746667	7.63153E-001	4.00131E-004	0.00000E+000	3.05362E-004	2.40040E-001	7.63402E-001	3.57670E+000	9	...........
	56	0.76	7.68761E-001	4.01428E-004	0.00000E+000	3.08602E-004	2.40040E-001	7.69045E-001	3.57670E+000	9	...........
	57	0.773333	7.74311E-001	4.00872E-004	0.00000E+000	3.10400E-004	2.40040E-001	7.74591E-001	3.57670E+000	9	...........
	58	0.786667	7.79803E-001	4.00928E-004	0.00000E+000	3.12645E-004	2.40040E-001	7.80075E-001	3.57670E+000	9	...........
	59	0.8	7.85342E-001	4.01622E-004	0.00000E+000	3.15411E-004	2.40040E-001	7.85591E-001	3.57670E+000	9	...........
	60	0.813333	7.90820E-001	4.00535E-004	0.00000E+000	3.16751E-004	2.40040E-001	7.91072E-001	3.57670E+000	9	...........
	61	0.826667	7.96282E-001	4.00993E-004	0.00000E+000	3.19303E-004	2.40040E-001	7.96517E-001	3.57670E+000	9	...........
	62	0.84	8.01660E-001	4.00330E-004	0.00000E+000	3.20929E-004	2.40040E-001	8.01922E-001	3.57670E+000	9	...........
	63	0.853333	8.07036E-001	4.00468E-004	0.00000E+000	3.23192E-004	2.40040E-001	8.07301E-001	3.57670E+000	9	...........
	64	0.866667	8.12300E-001	4.00279E-004	0.00000E+000	3.25147E-004	2.40040E-001	8.12593E-001	3.57670E+000	9	...........
	65	0.88	8.17629E-001	4.00306E-004	0.00000E+000	3.27302E-004	2.40040E-001	8.17902E-001	3.57670E+000	9	...........
	66	0.893333	8.22897E-001	4.01263E-004	0.00000E+000	3.30198E-004	2.40040E-001	8.23158E-001	3.57670E+000	9	...........
	67	0.906667	8.28140E-001	4.01463E-004	0.00000E+000	3.32467E-004	2.40040E-001	8.28393E-001	3.57670E+000	9	...........
	68	0.92	8.33313E-001	4.01814E-004	0.00000E+000	3.34837E-004	2.40040E-001	8.33596E-001	3.57670E+000	9	...........
	69	0.933333	8.38410E-001	4.02147E-004	0.00000E+000	3.37164E-004	2.40040E-001	8.38683E-001	3.57670E+000	9	...........
	70	0.946667	8.43479E-001	4.00503E-004	0.00000E+000	3.37816E-004	2.40040E-001	8.43753E-001	3.57670E+000	9	...........
	71	0.96	8.48631E-001	4.01733E-004	0.00000E+000	3.40923E-004	2.40040E-001	8.48909E-001	3.57670E+000	9	...........
	72	0.97333	8.53708E-001	4.00080E-004	0.00000E+000	3.41552E-004	2.40040E-001	8.54004E-001	3.57670E+000	9	...........
	73	0.98667	8.58654E-001	4.00912E-004	0.00000E+000	3.44244E-004	2.40040E-001	8.58982E-001	3.57670E+000	9	...........
	74	1	8.63556E-001	4.01452E-004	0.00000E+000	3.46676E-004	2.40040E-001	8.63859E-001	3.57670E+000	9	...........
	75	1.01333	8.68444E-001	4.01417E-004	0.00000E+000	3.48608E-004	2.40040E-001	8.68711E-001	3.57670E+000	9	...........
	76	1.02667	8.73324E-001	4.00709E-004	0.00000E+000	3.49948E-004	2.40040E-001	8.73619E-001	3.57670E+000	9	...........
	77	1.04	8.78145E-001	4.01331E-004	0.00000E+000	3.52426E-004	2.40040E-001	8.78444E-001	3.57670E+000	9	...........
	78	1.05333	8.82980E-001	4.00021E-004	0.00000E+000	3.53211E-004	2.40040E-001	8.83291E-001	3.57670E+000	9	...........
	79	1.06667	8.87811E-001	3.99973E-004	0.00000E+000	3.55100E-004	2.40040E-001	8.88094E-001	3.57671E+000	9	...........
	80	1.08	8.92450E-001	4.00355E-004	0.00000E+000	3.57297E-004	2.40040E-001	8.92763E-001	3.57680E+000	9	...........
	81	1.09333	8.97157E-001	4.00065E-004	0.00000E+000	3.58921E-004	2.40040E-001	8.97477E-001	3.57680E+000	9	...........
	82	1.10667	9.01812E-001	4.00717E-004	0.00000E+000	3.61371E-004	2.40040E-001	9.02148E-001	3.57680E+000	9	...........
	83	1.12	9.06433E-001	4.00388E-004	0.00000E+000	3.62924E-004	2.40040E-001	9.06785E-001	3.57680E+000	9	...........
	84	1.13333	9.10988E-001	4.01245E-004	0.00000E+000	3.65530E-004	2.40040E-001	9.11298E-001	3.57680E+000	9	...........
	85	1.14667	9.15479E-001	4.01014E-004	0.00000E+000	3.67120E-004	2.40040E-001	9.15809E-001	3.57680E+000	9	...........
	86	1.16	9.19899E-001	4.00629E-004	0.00000E+000	3.68538E-004	2.40040E-001	9.20207E-001	3.57680E+000	9	...........
	87	1.17333	9.24347E-001	4.00947E-004	0.00000E+000	3.70614E-004	2.40040E-001	9.24644E-001	3.57680E+000	9	...........
	88	1.18667	9.28758E-001	4.00871E-004	0.00000E+000	3.72312E-004	2.40040E-001	9.29069E-001	3.57680E+000	9	...........
	89	1.2	9.33133E-001	4.01737E-004	0.00000E+000	3.74874E-004	2.40040E-001	9.33434E-001	3.57680E+000	9	...........
	90	1.21333	9.37409E-001	4.01759E-004	0.00000E+000	3.76612E-004	2.40040E-001	9.37743E-001	3.57680E+000	9	...........
	91	1.22667	9.41752E-001	4.01331E-004	0.00000E+000	3.77954E-004	2.40040E-001	9.42061E-001	3.57680E+000	9	...........
	92	1.24	9.45987E-001	4.00425E-004	0.00000E+000	3.78797E-004	2.40040E-001	9.46305E-001	3.57680E+000	9	...........
	93	1.25333	9.50213E-001	4.00139E-004	0.00000E+000	3.80217E-004	2.40040E-001	9.50501E-001	3.57680E+000	9	...........
	94	1.26667	9.54355E-001	4.01243E-004	0.00000E+000	3.82928E-004	2.40040E-001	9.54645E-001	3.57680E+000	9	...........
	95	1.28	9.58426E-001	4.01690E-004	0.00000E+000	3.84990E-004	2.40040E-001	9.58735E-001	3.57680E+000	9	...........
	96	1.29333	9.62455E-001	4.01449E-004	0.00000E+000	3.86377E-004	2.40040E-001	9.62749E-001	3.57680E+000	9	...........
	97	1.30667	9.66439E-001	4.01356E-004	0.00000E+000	3.87885E-004	2.40040E-001	9.66739E-001	3.57680E+000	9	...........
	98	1.32	9.70403E-001	4.00916E-004	0.00000E+000	3.89050E-004	2.40040E-001	9.70726E-001	3.57680E+000	9	...........
	99	1.33333	9.74447E-001	4.00962E-004	0.00000E+000	3.90716E-004	2.40040E-001	9.74725E-001	3.57680E+000	9	...........
	100	1.34667	9.78304E-001	4.00029E-004	0.00000E+000	3.91350E-004	2.40040E-001	9.78569E-001	3.57680E+000	9	...........
	101	1.36	9.82114E-001	4.01535E-004	0.00000E+000	3.94353E-004	2.40040E-001	9.82382E-001	3.57680E+000	9	...........
	102	1.37333	9.85863E-001	4.01145E-004	0.00000E+000	3.95474E-004	2.40040E-001	9.86194E-001	3.57680E+000	9	...........
	103	1.38667	9.89636E-001	4.00370E-004	0.00000E+000	3.96220E-004	2.40040E-001	9.89946E-001	3.57680E+000	9	...........
	104	1.4	9.93339E-001	4.00558E-004	0.00000E+000	3.97890E-004	2.40040E-001	9.93679E-001	3.57680E+000	9	...........
	105	1.41333	9.97079E-001	4.01372E-004	0.00000E+000	4.00200E-004	2.40040E-001	9.97391E-001	3.57680E+000	9	...........
	106	1.41833	9.99629E-001	4.00008E-004	0.00000E+000	3.99859E-004	2.40040E-001	9.99934E-001	3.57680E+000	9	...........
STARTTIMEOFFSET	QUANT	2745.577	Start Time Offset (s)
