EXPLAIN
TAG	PWR800_CHARGE
TITLE	LABEL	PWR Cyclic Charge Discharge (Cell) - Charge Step	Test &Identifier
DATE	LABEL	12-7-2017	Date
TIME	LABEL	15:09:16	Time
NOTES	NOTES	3	&Notes...
	supercap test cell
	0.4mg
	6M KOH
PSTAT	PSTAT	IFC5000-01520	Potentiostat
CAPACITY	QUANT	1.00000E-003	Capacity (A-hr)
CELLTYPE	SELECTOR	1	&Cell Type
WORKINGCONNECTION	SELECTOR	0	&Working Lead
MAXCHARGETIME	VARIABLEANDUNITS	1.00000E+002	s	1.00000E+002	second(s)	Max &Charge Time
CHARGECURRENT	QUANT	4.00000E-004	&Charge Current (A) 
VOLTAGEFINISH	TWOPARAM	F	1.00000E-003	3.60000E+003	&Voltage Finish	 I (A) < 	Max Time(s)
SAMPLETIME	QUANT	1.00000E-002	Sa&mple Period (s)
CHARGESTOPAT1	MULTIPARAM	4	1.00000E+000	Charge Stop At &1	Voltage > Limit	V
CHARGESTOPAT2	MULTIPARAM	0	0.00000E+000	Charge Stop At &2	None	N/A
AESBHCSELECTOR	TOGGLE	F	Save Both Half Cells
IRCOMP	TOGGLE	F	IR &Measure
EOC	QUANT	0	Open Circuit (V)
SEQUENCER	TOGGLE	TRUE	Run as Sequence
PSTATMODEL	IQUANT	53	Pstat Model
PSTATSECTION	LABEL	IFC5000-01520	Pstat Section
PSTATSERIALNO	LABEL	01520	Pstat Serial Number
CTRLMODE	IQUANT	0	Control Mode
ELECTROMETER	IQUANT	1	RE=0 or CS=1
IESTAB	IQUANT	0	I/E Stability
CASPEED	IQUANT	4	Control Amp Speed
CONVENTION	IQUANT	1	Current Convention
ICHRANGE	IQUANT	2	Ich Range
ICHRANGEMODE	TOGGLE	T	Ich Auto Range
ICHOFFSETENABLE	TOGGLE	F	Ich Offset Enable
ICHOFFSET	QUANT	0	Ich Offset (V)
ICHFILTER	IQUANT	1	Ich Filter
VCHRANGE	IQUANT	2	Vch Range
VCHRANGEMODE	TOGGLE	T	Vch Auto Range
VCHOFFSETENABLE	TOGGLE	F	Vch Offset Enable
VCHOFFSET	QUANT	0	Vch Offset (V)
VCHFILTER	IQUANT	1	Vch Filter
IERANGELOWERLIMIT	IQUANT	9	I/E Range Lower Limit
IERANGEMODE	TOGGLE	F	I/E AutoRange
IERANGE	IQUANT	9	I/E Range
ACHSELECT	IQUANT	1	Ach Select
ACHRANGE	IQUANT	2	Ach Range
ACHOFFSETENABLE	TOGGLE	F	Ach Offset Enable
ACHOFFSET	QUANT	0	Ach Offset (V)
ACHFILTER	IQUANT	1	Ach Filter
CABLEID	IQUANT	14	Cable ID
DCCALDATE	LABEL	5-7-2017	DC Calibration Date
ACCALDATE	LABEL	12/3/2015	AC Calibration Date
FRAMEWORKVERSION	QUANT	7.01	Framework Version
INSTRUMENTVERSION	LABEL	4.00	Instrument Version
CURVE	TABLE	110
	Pt	T	Vf	Im	Vu	Pwr	Sig	Ach	Temp	IERange	Over
	#	s	V	A	V	W	V	V	deg C	#	bits
	0	0.013333	3.81686E-001	4.01000E-004	0.00000E+000	1.53056E-004	2.40040E-001	3.81778E-001	3.57770E+000	9	...........
	1	0.026667	3.94142E-001	4.01113E-004	0.00000E+000	1.58096E-004	2.40040E-001	3.94215E-001	3.57770E+000	9	...........
	2	0.04	4.04753E-001	4.00118E-004	0.00000E+000	1.61949E-004	2.40040E-001	4.04828E-001	3.57770E+000	9	...........
	3	0.053333	4.14361E-001	4.00685E-004	0.00000E+000	1.66028E-004	2.40040E-001	4.14442E-001	3.57770E+000	9	...........
	4	0.066667	4.23354E-001	4.01277E-004	0.00000E+000	1.69882E-004	2.40040E-001	4.23447E-001	3.57720E+000	9	...........
	5	0.08	4.31911E-001	4.01106E-004	0.00000E+000	1.73242E-004	2.40040E-001	4.32000E-001	3.57670E+000	9	...........
	6	0.093333	4.40052E-001	4.01385E-004	0.00000E+000	1.76630E-004	2.40040E-001	4.40138E-001	3.57670E+000	9	...........
	7	0.106667	4.47913E-001	4.01180E-004	0.00000E+000	1.79694E-004	2.40040E-001	4.47999E-001	3.57670E+000	9	...........
	8	0.12	4.55573E-001	4.02209E-004	0.00000E+000	1.83235E-004	2.40040E-001	4.55665E-001	3.57670E+000	9	...........
	9	0.133333	4.63072E-001	4.01163E-004	0.00000E+000	1.85767E-004	2.40040E-001	4.63163E-001	3.57670E+000	9	...........
	10	0.146667	4.70427E-001	4.00278E-004	0.00000E+000	1.88302E-004	2.40040E-001	4.70524E-001	3.57670E+000	9	...........
	11	0.16	4.77643E-001	4.01785E-004	0.00000E+000	1.91910E-004	2.40040E-001	4.77737E-001	3.57670E+000	9	...........
	12	0.173333	4.84864E-001	4.01414E-004	0.00000E+000	1.94631E-004	2.40040E-001	4.84961E-001	3.57670E+000	9	...........
	13	0.186667	4.91925E-001	4.00881E-004	0.00000E+000	1.97204E-004	2.40040E-001	4.92024E-001	3.57670E+000	9	...........
	14	0.2	4.98817E-001	4.00975E-004	0.00000E+000	2.00013E-004	2.40040E-001	4.98921E-001	3.57670E+000	9	...........
	15	0.213333	5.05669E-001	4.00250E-004	0.00000E+000	2.02394E-004	2.40040E-001	5.05771E-001	3.57670E+000	9	...........
	16	0.226667	5.12446E-001	4.00379E-004	0.00000E+000	2.05173E-004	2.40040E-001	5.12557E-001	3.57670E+000	9	...........
	17	0.24	5.19229E-001	4.01364E-004	0.00000E+000	2.08400E-004	2.40040E-001	5.19333E-001	3.57670E+000	9	...........
	18	0.253333	5.25866E-001	4.01444E-004	0.00000E+000	2.11106E-004	2.40040E-001	5.25974E-001	3.57670E+000	9	...........
	19	0.266667	5.32429E-001	4.00414E-004	0.00000E+000	2.13192E-004	2.40040E-001	5.32544E-001	3.57670E+000	9	...........
	20	0.28	5.38781E-001	4.00059E-004	0.00000E+000	2.15544E-004	2.40040E-001	5.39010E-001	3.57670E+000	9	...........
	21	0.293333	5.45332E-001	4.00039E-004	0.00000E+000	2.18154E-004	2.40040E-001	5.45549E-001	3.57670E+000	9	...........
	22	0.306667	5.51780E-001	4.00915E-004	0.00000E+000	2.21217E-004	2.40040E-001	5.52030E-001	3.57670E+000	9	...........
	23	0.32	5.58166E-001	4.01715E-004	0.00000E+000	2.24224E-004	2.40040E-001	5.58401E-001	3.57670E+000	9	...........
	24	0.333333	5.64534E-001	4.01824E-004	0.00000E+000	2.26843E-004	2.40040E-001	5.64785E-001	3.57670E+000	9	...........
	25	0.346667	5.70879E-001	4.01676E-004	0.00000E+000	2.29308E-004	2.40040E-001	5.71117E-001	3.57670E+000	9	...........
	26	0.36	5.77199E-001	4.01506E-004	0.00000E+000	2.31748E-004	2.40040E-001	5.77457E-001	3.57670E+000	9	...........
	27	0.373333	5.83516E-001	4.01814E-004	0.00000E+000	2.34465E-004	2.40040E-001	5.83752E-001	3.57670E+000	9	...........
	28	0.386667	5.89804E-001	4.00091E-004	0.00000E+000	2.35975E-004	2.40040E-001	5.90085E-001	3.57670E+000	9	...........
	29	0.4	5.96030E-001	4.00361E-004	0.00000E+000	2.38627E-004	2.40040E-001	5.96270E-001	3.57670E+000	9	...........
	30	0.413333	6.02184E-001	4.01706E-004	0.00000E+000	2.41901E-004	2.40040E-001	6.02443E-001	3.57670E+000	9	...........
	31	0.426667	6.08336E-001	4.01227E-004	0.00000E+000	2.44081E-004	2.40040E-001	6.08573E-001	3.57670E+000	9	...........
	32	0.44	6.14534E-001	4.00741E-004	0.00000E+000	2.46269E-004	2.40040E-001	6.14744E-001	3.57670E+000	9	...........
	33	0.453333	6.20653E-001	4.01785E-004	0.00000E+000	2.49369E-004	2.40040E-001	6.20857E-001	3.57670E+000	9	...........
	34	0.466667	6.26702E-001	4.02120E-004	0.00000E+000	2.52009E-004	2.40040E-001	6.26949E-001	3.57670E+000	9	...........
	35	0.48	6.32824E-001	3.99803E-004	0.00000E+000	2.53005E-004	2.40040E-001	6.33063E-001	3.57670E+000	9	...........
	36	0.493333	6.38896E-001	3.99566E-004	0.00000E+000	2.55281E-004	2.40040E-001	6.39134E-001	3.57670E+000	9	...........
	37	0.506667	6.44912E-001	4.01731E-004	0.00000E+000	2.59081E-004	2.40040E-001	6.45148E-001	3.57670E+000	9	...........
	38	0.52	6.50899E-001	4.00753E-004	0.00000E+000	2.60850E-004	2.40040E-001	6.51137E-001	3.57670E+000	9	...........
	39	0.533333	6.56918E-001	4.00718E-004	0.00000E+000	2.63239E-004	2.40040E-001	6.57133E-001	3.57670E+000	9	...........
	40	0.546667	6.62823E-001	4.02035E-004	0.00000E+000	2.66478E-004	2.40040E-001	6.63070E-001	3.57670E+000	9	...........
	41	0.56	6.68845E-001	4.01726E-004	0.00000E+000	2.68693E-004	2.40040E-001	6.69067E-001	3.57670E+000	9	...........
	42	0.573333	6.74803E-001	4.00549E-004	0.00000E+000	2.70292E-004	2.40040E-001	6.75023E-001	3.57670E+000	9	...........
	43	0.586667	6.80698E-001	4.01135E-004	0.00000E+000	2.73052E-004	2.40040E-001	6.80904E-001	3.57670E+000	9	...........
	44	0.6	6.86623E-001	4.01425E-004	0.00000E+000	2.75628E-004	2.40040E-001	6.86825E-001	3.57670E+000	9	...........
	45	0.613333	6.92495E-001	4.01124E-004	0.00000E+000	2.77776E-004	2.40040E-001	6.92708E-001	3.57670E+000	9	...........
	46	0.626667	6.98363E-001	4.01136E-004	0.00000E+000	2.80138E-004	2.40040E-001	6.98570E-001	3.57670E+000	9	...........
	47	0.64	7.04193E-001	4.01804E-004	0.00000E+000	2.82947E-004	2.40040E-001	7.04415E-001	3.57670E+000	9	...........
	48	0.653333	7.09963E-001	4.01008E-004	0.00000E+000	2.84700E-004	2.40040E-001	7.10178E-001	3.57670E+000	9	...........
	49	0.666667	7.15814E-001	4.01166E-004	0.00000E+000	2.87160E-004	2.40040E-001	7.16045E-001	3.57670E+000	9	...........
	50	0.68	7.21616E-001	4.01256E-004	0.00000E+000	2.89552E-004	2.40040E-001	7.21829E-001	3.57670E+000	9	...........
	51	0.693333	7.27276E-001	4.01578E-004	0.00000E+000	2.92059E-004	2.40040E-001	7.27485E-001	3.57670E+000	9	...........
	52	0.706667	7.32862E-001	4.00101E-004	0.00000E+000	2.93219E-004	2.40040E-001	7.33105E-001	3.57670E+000	9	...........
	53	0.72	7.38529E-001	4.02299E-004	0.00000E+000	2.97110E-004	2.40040E-001	7.38771E-001	3.57670E+000	9	...........
	54	0.733333	7.44224E-001	3.99998E-004	0.00000E+000	2.97688E-004	2.40040E-001	7.44459E-001	3.57670E+000	9	...........
	55	0.746667	7.49847E-001	4.01647E-004	0.00000E+000	3.01174E-004	2.40040E-001	7.50070E-001	3.57670E+000	9	...........
	56	0.76	7.55387E-001	4.00546E-004	0.00000E+000	3.02567E-004	2.40040E-001	7.55640E-001	3.57670E+000	9	...........
	57	0.773333	7.60875E-001	4.02311E-004	0.00000E+000	3.06108E-004	2.40040E-001	7.61106E-001	3.57670E+000	9	...........
	58	0.786667	7.66342E-001	4.00002E-004	0.00000E+000	3.06538E-004	2.40040E-001	7.66626E-001	3.57670E+000	9	...........
	59	0.8	7.71877E-001	4.01401E-004	0.00000E+000	3.09832E-004	2.40040E-001	7.72130E-001	3.57670E+000	9	...........
	60	0.813333	7.77342E-001	4.01403E-004	0.00000E+000	3.12028E-004	2.40040E-001	7.77616E-001	3.57670E+000	9	...........
	61	0.826667	7.82807E-001	4.01760E-004	0.00000E+000	3.14500E-004	2.40040E-001	7.83059E-001	3.57670E+000	9	...........
	62	0.84	7.88193E-001	4.01905E-004	0.00000E+000	3.16778E-004	2.40040E-001	7.88409E-001	3.57670E+000	9	...........
	63	0.853333	7.93577E-001	4.00376E-004	0.00000E+000	3.17729E-004	2.40040E-001	7.93801E-001	3.57670E+000	9	...........
	64	0.866667	7.98884E-001	4.01020E-004	0.00000E+000	3.20369E-004	2.40040E-001	7.99109E-001	3.57670E+000	9	...........
	65	0.88	8.04167E-001	4.01258E-004	0.00000E+000	3.22678E-004	2.40040E-001	8.04397E-001	3.57670E+000	9	...........
	66	0.893333	8.09406E-001	4.01066E-004	0.00000E+000	3.24625E-004	2.40040E-001	8.09655E-001	3.57670E+000	9	...........
	67	0.906667	8.14630E-001	3.99722E-004	0.00000E+000	3.25625E-004	2.40040E-001	8.14888E-001	3.57670E+000	9	...........
	68	0.92	8.19881E-001	4.01159E-004	0.00000E+000	3.28902E-004	2.40040E-001	8.20137E-001	3.57670E+000	9	...........
	69	0.933333	8.25013E-001	4.00502E-004	0.00000E+000	3.30419E-004	2.40040E-001	8.25273E-001	3.57670E+000	9	...........
	70	0.946667	8.30114E-001	4.01334E-004	0.00000E+000	3.33153E-004	2.40040E-001	8.30358E-001	3.57670E+000	9	...........
	71	0.96	8.35216E-001	4.00522E-004	0.00000E+000	3.34523E-004	2.40040E-001	8.35455E-001	3.57670E+000	9	...........
	72	0.97333	8.40271E-001	3.99879E-004	0.00000E+000	3.36007E-004	2.40040E-001	8.40493E-001	3.57670E+000	9	...........
	73	0.98667	8.45276E-001	3.99544E-004	0.00000E+000	3.37725E-004	2.40040E-001	8.45540E-001	3.57670E+000	9	...........
	74	1	8.50251E-001	4.01991E-004	0.00000E+000	3.41793E-004	2.40040E-001	8.50518E-001	3.57670E+000	9	...........
	75	1.01333	8.55201E-001	4.00726E-004	0.00000E+000	3.42702E-004	2.40040E-001	8.55469E-001	3.57670E+000	9	...........
	76	1.02667	8.60111E-001	4.01533E-004	0.00000E+000	3.45362E-004	2.40040E-001	8.60368E-001	3.57670E+000	9	...........
	77	1.04	8.64987E-001	4.01421E-004	0.00000E+000	3.47224E-004	2.40040E-001	8.65246E-001	3.57670E+000	9	...........
	78	1.05333	8.69798E-001	4.00233E-004	0.00000E+000	3.48122E-004	2.40040E-001	8.70054E-001	3.57670E+000	9	...........
	79	1.06667	8.74613E-001	4.01448E-004	0.00000E+000	3.51112E-004	2.40040E-001	8.74921E-001	3.57675E+000	9	...........
	80	1.08	8.79399E-001	4.01218E-004	0.00000E+000	3.52831E-004	2.40040E-001	8.79689E-001	3.57680E+000	9	...........
	81	1.09333	8.84142E-001	4.01643E-004	0.00000E+000	3.55109E-004	2.40040E-001	8.84413E-001	3.57680E+000	9	...........
	82	1.10667	8.88845E-001	4.00444E-004	0.00000E+000	3.55933E-004	2.40040E-001	8.89100E-001	3.57680E+000	9	...........
	83	1.12	8.93463E-001	3.99680E-004	0.00000E+000	3.57099E-004	2.40040E-001	8.93742E-001	3.57680E+000	9	...........
	84	1.13333	8.98010E-001	4.01670E-004	0.00000E+000	3.60704E-004	2.40040E-001	8.98318E-001	3.57680E+000	9	...........
	85	1.14667	9.02649E-001	4.01078E-004	0.00000E+000	3.62033E-004	2.40040E-001	9.02943E-001	3.57680E+000	9	...........
	86	1.16	9.07193E-001	4.01892E-004	0.00000E+000	3.64594E-004	2.40040E-001	9.07504E-001	3.57680E+000	9	...........
	87	1.17333	9.11631E-001	4.00185E-004	0.00000E+000	3.64821E-004	2.40040E-001	9.11934E-001	3.57680E+000	9	...........
	88	1.18667	9.16106E-001	4.01534E-004	0.00000E+000	3.67848E-004	2.40040E-001	9.16442E-001	3.57680E+000	9	...........
	89	1.2	9.20542E-001	4.01921E-004	0.00000E+000	3.69985E-004	2.40040E-001	9.20865E-001	3.57680E+000	9	...........
	90	1.21333	9.24941E-001	4.00732E-004	0.00000E+000	3.70654E-004	2.40040E-001	9.25219E-001	3.57680E+000	9	...........
	91	1.22667	9.29157E-001	4.00090E-004	0.00000E+000	3.71746E-004	2.40040E-001	9.29458E-001	3.57680E+000	9	...........
	92	1.24	9.33498E-001	4.01397E-004	0.00000E+000	3.74703E-004	2.40040E-001	9.33799E-001	3.57680E+000	9	...........
	93	1.25333	9.37811E-001	4.02307E-004	0.00000E+000	3.77288E-004	2.40040E-001	9.38118E-001	3.57680E+000	9	...........
	94	1.26667	9.42013E-001	4.00665E-004	0.00000E+000	3.77432E-004	2.40040E-001	9.42295E-001	3.57680E+000	9	...........
	95	1.28	9.46144E-001	4.00117E-004	0.00000E+000	3.78568E-004	2.40040E-001	9.46441E-001	3.57680E+000	9	...........
	96	1.29333	9.50284E-001	4.00262E-004	0.00000E+000	3.80362E-004	2.40040E-001	9.50595E-001	3.57680E+000	9	...........
	97	1.30667	9.54318E-001	4.01399E-004	0.00000E+000	3.83063E-004	2.40040E-001	9.54635E-001	3.57680E+000	9	...........
	98	1.32	9.58352E-001	4.00389E-004	0.00000E+000	3.83713E-004	2.40040E-001	9.58685E-001	3.57680E+000	9	...........
	99	1.33333	9.62375E-001	4.00273E-004	0.00000E+000	3.85213E-004	2.40040E-001	9.62709E-001	3.57680E+000	9	...........
	100	1.34667	9.66365E-001	4.01745E-004	0.00000E+000	3.88232E-004	2.40040E-001	9.66694E-001	3.57680E+000	9	...........
	101	1.36	9.70339E-001	4.00979E-004	0.00000E+000	3.89086E-004	2.40040E-001	9.70675E-001	3.57680E+000	9	...........
	102	1.37333	9.74245E-001	3.99493E-004	0.00000E+000	3.89204E-004	2.40040E-001	9.74588E-001	3.57680E+000	9	...........
	103	1.38667	9.78137E-001	4.01417E-004	0.00000E+000	3.92641E-004	2.40040E-001	9.78456E-001	3.57680E+000	9	...........
	104	1.4	9.81943E-001	4.01622E-004	0.00000E+000	3.94370E-004	2.40040E-001	9.82262E-001	3.57680E+000	9	...........
	105	1.41333	9.85716E-001	4.01062E-004	0.00000E+000	3.95333E-004	2.40040E-001	9.86054E-001	3.57680E+000	9	...........
	106	1.42667	9.89430E-001	4.00308E-004	0.00000E+000	3.96077E-004	2.40040E-001	9.89751E-001	3.57680E+000	9	...........
	107	1.44	9.93123E-001	4.00259E-004	0.00000E+000	3.97507E-004	2.40040E-001	9.93454E-001	3.57680E+000	9	...........
	108	1.45333	9.96821E-001	4.00939E-004	0.00000E+000	3.99664E-004	2.40040E-001	9.97130E-001	3.57680E+000	9	...........
	109	1.46	9.99508E-001	4.01052E-004	0.00000E+000	4.00855E-004	2.40040E-001	9.99855E-001	3.57680E+000	9	...........
STARTTIMEOFFSET	QUANT	2406.182	Start Time Offset (s)
