EXPLAIN
TAG	PWR800_CHARGE
TITLE	LABEL	PWR Cyclic Charge Discharge (Cell) - Charge Step	Test &Identifier
DATE	LABEL	12-7-2017	Date
TIME	LABEL	14:35:56	Time
NOTES	NOTES	3	&Notes...
	supercap test cell
	0.4mg
	6M KOH
PSTAT	PSTAT	IFC5000-01520	Potentiostat
CAPACITY	QUANT	1.00000E-003	Capacity (A-hr)
CELLTYPE	SELECTOR	1	&Cell Type
WORKINGCONNECTION	SELECTOR	0	&Working Lead
MAXCHARGETIME	VARIABLEANDUNITS	1.00000E+002	s	1.00000E+002	second(s)	Max &Charge Time
CHARGECURRENT	QUANT	4.00000E-004	&Charge Current (A) 
VOLTAGEFINISH	TWOPARAM	F	1.00000E-003	3.60000E+003	&Voltage Finish	 I (A) < 	Max Time(s)
SAMPLETIME	QUANT	1.00000E-002	Sa&mple Period (s)
CHARGESTOPAT1	MULTIPARAM	4	1.00000E+000	Charge Stop At &1	Voltage > Limit	V
CHARGESTOPAT2	MULTIPARAM	0	0.00000E+000	Charge Stop At &2	None	N/A
AESBHCSELECTOR	TOGGLE	F	Save Both Half Cells
IRCOMP	TOGGLE	F	IR &Measure
EOC	QUANT	0	Open Circuit (V)
SEQUENCER	TOGGLE	TRUE	Run as Sequence
PSTATMODEL	IQUANT	53	Pstat Model
PSTATSECTION	LABEL	IFC5000-01520	Pstat Section
PSTATSERIALNO	LABEL	01520	Pstat Serial Number
CTRLMODE	IQUANT	0	Control Mode
ELECTROMETER	IQUANT	1	RE=0 or CS=1
IESTAB	IQUANT	0	I/E Stability
CASPEED	IQUANT	4	Control Amp Speed
CONVENTION	IQUANT	1	Current Convention
ICHRANGE	IQUANT	2	Ich Range
ICHRANGEMODE	TOGGLE	T	Ich Auto Range
ICHOFFSETENABLE	TOGGLE	F	Ich Offset Enable
ICHOFFSET	QUANT	0	Ich Offset (V)
ICHFILTER	IQUANT	1	Ich Filter
VCHRANGE	IQUANT	2	Vch Range
VCHRANGEMODE	TOGGLE	T	Vch Auto Range
VCHOFFSETENABLE	TOGGLE	F	Vch Offset Enable
VCHOFFSET	QUANT	0	Vch Offset (V)
VCHFILTER	IQUANT	1	Vch Filter
IERANGELOWERLIMIT	IQUANT	9	I/E Range Lower Limit
IERANGEMODE	TOGGLE	F	I/E AutoRange
IERANGE	IQUANT	9	I/E Range
ACHSELECT	IQUANT	1	Ach Select
ACHRANGE	IQUANT	2	Ach Range
ACHOFFSETENABLE	TOGGLE	F	Ach Offset Enable
ACHOFFSET	QUANT	0	Ach Offset (V)
ACHFILTER	IQUANT	1	Ach Filter
CABLEID	IQUANT	14	Cable ID
DCCALDATE	LABEL	5-7-2017	DC Calibration Date
ACCALDATE	LABEL	12/3/2015	AC Calibration Date
FRAMEWORKVERSION	QUANT	7.01	Framework Version
INSTRUMENTVERSION	LABEL	4.00	Instrument Version
CURVE	TABLE	128
	Pt	T	Vf	Im	Vu	Pwr	Sig	Ach	Temp	IERange	Over
	#	s	V	A	V	W	V	V	deg C	#	bits
	0	0.013333	3.47193E-001	4.00927E-004	0.00000E+000	1.39199E-004	2.40040E-001	3.47273E-001	3.57710E+000	9	...........
	1	0.026667	3.57959E-001	4.01953E-004	0.00000E+000	1.43882E-004	2.40040E-001	3.58028E-001	3.57710E+000	9	...........
	2	0.04	3.67176E-001	4.02281E-004	0.00000E+000	1.47708E-004	2.40040E-001	3.67250E-001	3.57710E+000	9	...........
	3	0.053333	3.75641E-001	4.02487E-004	0.00000E+000	1.51191E-004	2.40040E-001	3.75716E-001	3.57710E+000	9	...........
	4	0.066667	3.83621E-001	4.00776E-004	0.00000E+000	1.53746E-004	2.40040E-001	3.83696E-001	3.57710E+000	9	...........
	5	0.08	3.91229E-001	4.01892E-004	0.00000E+000	1.57232E-004	2.40040E-001	3.91303E-001	3.57710E+000	9	...........
	6	0.093333	3.98503E-001	4.00337E-004	0.00000E+000	1.59535E-004	2.40040E-001	3.98580E-001	3.57710E+000	9	...........
	7	0.106667	4.05563E-001	4.01438E-004	0.00000E+000	1.62808E-004	2.40040E-001	4.05640E-001	3.57710E+000	9	...........
	8	0.12	4.12466E-001	4.01506E-004	0.00000E+000	1.65607E-004	2.40040E-001	4.12550E-001	3.57710E+000	9	...........
	9	0.133333	4.19164E-001	4.01829E-004	0.00000E+000	1.68432E-004	2.40040E-001	4.19253E-001	3.57710E+000	9	...........
	10	0.146667	4.25801E-001	4.01213E-004	0.00000E+000	1.70837E-004	2.40040E-001	4.25889E-001	3.57710E+000	9	...........
	11	0.16	4.32432E-001	4.01649E-004	0.00000E+000	1.73686E-004	2.40040E-001	4.32522E-001	3.57710E+000	9	...........
	12	0.173333	4.38796E-001	4.00331E-004	0.00000E+000	1.75664E-004	2.40040E-001	4.38888E-001	3.57710E+000	9	...........
	13	0.186667	4.45067E-001	3.99827E-004	0.00000E+000	1.77950E-004	2.40040E-001	4.45158E-001	3.57710E+000	9	...........
	14	0.2	4.51366E-001	4.01501E-004	0.00000E+000	1.81224E-004	2.40040E-001	4.51452E-001	3.57710E+000	9	...........
	15	0.213333	4.57527E-001	4.00894E-004	0.00000E+000	1.83420E-004	2.40040E-001	4.57616E-001	3.57710E+000	9	...........
	16	0.226667	4.63630E-001	4.00920E-004	0.00000E+000	1.85879E-004	2.40040E-001	4.63720E-001	3.57710E+000	9	...........
	17	0.24	4.69676E-001	4.01166E-004	0.00000E+000	1.88418E-004	2.40040E-001	4.69771E-001	3.57710E+000	9	...........
	18	0.253333	4.75710E-001	4.01690E-004	0.00000E+000	1.91088E-004	2.40040E-001	4.75805E-001	3.57710E+000	9	...........
	19	0.266667	4.81705E-001	4.00450E-004	0.00000E+000	1.92899E-004	2.40040E-001	4.81806E-001	3.57710E+000	9	...........
	20	0.28	4.87710E-001	4.00889E-004	0.00000E+000	1.95517E-004	2.40040E-001	4.87803E-001	3.57710E+000	9	...........
	21	0.293333	4.93670E-001	4.01960E-004	0.00000E+000	1.98436E-004	2.40040E-001	4.93770E-001	3.57710E+000	9	...........
	22	0.306667	4.99515E-001	4.00846E-004	0.00000E+000	2.00229E-004	2.40040E-001	4.99619E-001	3.57710E+000	9	...........
	23	0.32	5.05378E-001	4.00903E-004	0.00000E+000	2.02608E-004	2.40040E-001	5.05480E-001	3.57710E+000	9	...........
	24	0.333333	5.11157E-001	4.00485E-004	0.00000E+000	2.04710E-004	2.40040E-001	5.11256E-001	3.57710E+000	9	...........
	25	0.346667	5.16928E-001	4.02660E-004	0.00000E+000	2.08146E-004	2.40040E-001	5.17027E-001	3.57710E+000	9	...........
	26	0.36	5.22645E-001	4.01008E-004	0.00000E+000	2.09585E-004	2.40040E-001	5.22754E-001	3.57710E+000	9	...........
	27	0.373333	5.28373E-001	3.99723E-004	0.00000E+000	2.11203E-004	2.40040E-001	5.28475E-001	3.57710E+000	9	...........
	28	0.386667	5.33875E-001	4.00740E-004	0.00000E+000	2.13945E-004	2.40040E-001	5.34013E-001	3.57710E+000	9	...........
	29	0.4	5.39408E-001	3.99990E-004	0.00000E+000	2.15758E-004	2.40040E-001	5.39624E-001	3.57710E+000	9	...........
	30	0.413333	5.45040E-001	4.01788E-004	0.00000E+000	2.18991E-004	2.40040E-001	5.45247E-001	3.57710E+000	9	...........
	31	0.426667	5.50721E-001	3.99974E-004	0.00000E+000	2.20274E-004	2.40040E-001	5.50936E-001	3.57710E+000	9	...........
	32	0.44	5.56373E-001	4.01140E-004	0.00000E+000	2.23183E-004	2.40040E-001	5.56600E-001	3.57710E+000	9	...........
	33	0.453333	5.61972E-001	4.00693E-004	0.00000E+000	2.25178E-004	2.40040E-001	5.62222E-001	3.57710E+000	9	...........
	34	0.466667	5.67596E-001	4.02422E-004	0.00000E+000	2.28413E-004	2.40040E-001	5.67806E-001	3.57710E+000	9	...........
	35	0.48	5.73144E-001	4.00897E-004	0.00000E+000	2.29772E-004	2.40040E-001	5.73352E-001	3.57710E+000	9	...........
	36	0.493333	5.78613E-001	4.01539E-004	0.00000E+000	2.32336E-004	2.40040E-001	5.78875E-001	3.57710E+000	9	...........
	37	0.506667	5.84110E-001	4.00855E-004	0.00000E+000	2.34144E-004	2.40040E-001	5.84328E-001	3.57710E+000	9	...........
	38	0.52	5.89584E-001	4.01037E-004	0.00000E+000	2.36445E-004	2.40040E-001	5.89836E-001	3.57695E+000	9	...........
	39	0.533333	5.95026E-001	4.00355E-004	0.00000E+000	2.38222E-004	2.40040E-001	5.95273E-001	3.57670E+000	9	...........
	40	0.546667	6.00507E-001	4.01528E-004	0.00000E+000	2.41121E-004	2.40040E-001	6.00762E-001	3.57670E+000	9	...........
	41	0.56	6.05887E-001	4.01233E-004	0.00000E+000	2.43101E-004	2.40040E-001	6.06133E-001	3.57670E+000	9	...........
	42	0.573333	6.11329E-001	4.01172E-004	0.00000E+000	2.45248E-004	2.40040E-001	6.11586E-001	3.57670E+000	9	...........
	43	0.586667	6.16803E-001	4.02207E-004	0.00000E+000	2.48082E-004	2.40040E-001	6.17016E-001	3.57670E+000	9	...........
	44	0.6	6.22211E-001	4.01366E-004	0.00000E+000	2.49734E-004	2.40040E-001	6.22411E-001	3.57670E+000	9	...........
	45	0.613333	6.27590E-001	4.01612E-004	0.00000E+000	2.52047E-004	2.40040E-001	6.27807E-001	3.57670E+000	9	...........
	46	0.626667	6.32969E-001	4.01663E-004	0.00000E+000	2.54240E-004	2.40040E-001	6.33172E-001	3.57670E+000	9	...........
	47	0.64	6.38335E-001	4.01227E-004	0.00000E+000	2.56117E-004	2.40040E-001	6.38574E-001	3.57670E+000	9	...........
	48	0.653333	6.43653E-001	4.00943E-004	0.00000E+000	2.58068E-004	2.40040E-001	6.43889E-001	3.57670E+000	9	...........
	49	0.666667	6.49007E-001	4.00226E-004	0.00000E+000	2.59750E-004	2.40040E-001	6.49236E-001	3.57670E+000	9	...........
	50	0.68	6.54326E-001	4.01809E-004	0.00000E+000	2.62914E-004	2.40040E-001	6.54557E-001	3.57670E+000	9	...........
	51	0.693333	6.59633E-001	4.00963E-004	0.00000E+000	2.64488E-004	2.40040E-001	6.59883E-001	3.57670E+000	9	...........
	52	0.706667	6.64938E-001	4.00948E-004	0.00000E+000	2.66606E-004	2.40040E-001	6.65203E-001	3.57670E+000	9	...........
	53	0.72	6.70213E-001	4.00543E-004	0.00000E+000	2.68449E-004	2.40040E-001	6.70452E-001	3.57670E+000	9	...........
	54	0.733333	6.75512E-001	4.01312E-004	0.00000E+000	2.71091E-004	2.40040E-001	6.75764E-001	3.57670E+000	9	...........
	55	0.746667	6.80847E-001	4.01486E-004	0.00000E+000	2.73350E-004	2.40040E-001	6.81083E-001	3.57670E+000	9	...........
	56	0.76	6.86153E-001	4.00091E-004	0.00000E+000	2.74523E-004	2.40040E-001	6.86373E-001	3.57670E+000	9	...........
	57	0.773333	6.91359E-001	4.02063E-004	0.00000E+000	2.77970E-004	2.40040E-001	6.91593E-001	3.57670E+000	9	...........
	58	0.786667	6.96529E-001	4.00691E-004	0.00000E+000	2.79093E-004	2.40040E-001	6.96764E-001	3.57670E+000	9	...........
	59	0.8	7.01737E-001	4.01353E-004	0.00000E+000	2.81645E-004	2.40040E-001	7.01937E-001	3.57670E+000	9	...........
	60	0.813333	7.06925E-001	4.02030E-004	0.00000E+000	2.84205E-004	2.40040E-001	7.07169E-001	3.57670E+000	9	...........
	61	0.826667	7.12078E-001	4.01685E-004	0.00000E+000	2.86031E-004	2.40040E-001	7.12329E-001	3.57670E+000	9	...........
	62	0.84	7.17272E-001	4.00781E-004	0.00000E+000	2.87469E-004	2.40040E-001	7.17506E-001	3.57670E+000	9	...........
	63	0.853333	7.22428E-001	4.01903E-004	0.00000E+000	2.90346E-004	2.40040E-001	7.22674E-001	3.57670E+000	9	...........
	64	0.866667	7.27584E-001	4.01625E-004	0.00000E+000	2.92216E-004	2.40040E-001	7.27833E-001	3.57670E+000	9	...........
	65	0.88	7.32621E-001	4.00916E-004	0.00000E+000	2.93719E-004	2.40040E-001	7.32879E-001	3.57670E+000	9	...........
	66	0.893333	7.37674E-001	4.00479E-004	0.00000E+000	2.95423E-004	2.40040E-001	7.37920E-001	3.57670E+000	9	...........
	67	0.906667	7.42781E-001	4.01334E-004	0.00000E+000	2.98103E-004	2.40040E-001	7.43009E-001	3.57670E+000	9	...........
	68	0.92	7.47807E-001	4.00365E-004	0.00000E+000	2.99395E-004	2.40040E-001	7.48054E-001	3.57670E+000	9	...........
	69	0.933333	7.52810E-001	4.00776E-004	0.00000E+000	3.01708E-004	2.40040E-001	7.53052E-001	3.57670E+000	9	...........
	70	0.946667	7.57770E-001	4.00241E-004	0.00000E+000	3.03290E-004	2.40040E-001	7.57997E-001	3.57670E+000	9	...........
	71	0.96	7.62746E-001	4.01673E-004	0.00000E+000	3.06375E-004	2.40040E-001	7.63001E-001	3.57670E+000	9	...........
	72	0.97333	7.67698E-001	4.01295E-004	0.00000E+000	3.08073E-004	2.40040E-001	7.67976E-001	3.57670E+000	9	...........
	73	0.98667	7.72708E-001	4.00289E-004	0.00000E+000	3.09306E-004	2.40040E-001	7.72956E-001	3.57670E+000	9	...........
	74	1	7.77668E-001	4.01854E-004	0.00000E+000	3.12508E-004	2.40040E-001	7.77907E-001	3.57670E+000	9	...........
	75	1.01333	7.82591E-001	4.02907E-004	0.00000E+000	3.15311E-004	2.40040E-001	7.82829E-001	3.57670E+000	9	...........
	76	1.02667	7.87522E-001	4.02098E-004	0.00000E+000	3.16662E-004	2.40040E-001	7.87761E-001	3.57670E+000	9	...........
	77	1.04	7.92413E-001	4.00016E-004	0.00000E+000	3.16978E-004	2.40040E-001	7.92674E-001	3.57670E+000	9	...........
	78	1.05333	7.97261E-001	4.01867E-004	0.00000E+000	3.20393E-004	2.40040E-001	7.97521E-001	3.57670E+000	9	...........
	79	1.06667	8.02088E-001	4.00826E-004	0.00000E+000	3.21498E-004	2.40040E-001	8.02335E-001	3.57670E+000	9	...........
	80	1.08	8.06881E-001	4.00094E-004	0.00000E+000	3.22828E-004	2.40040E-001	8.07150E-001	3.57670E+000	9	...........
	81	1.09333	8.11641E-001	4.00387E-004	0.00000E+000	3.24970E-004	2.40040E-001	8.11913E-001	3.57670E+000	9	...........
	82	1.10667	8.16367E-001	4.01229E-004	0.00000E+000	3.27550E-004	2.40040E-001	8.16676E-001	3.57670E+000	9	...........
	83	1.12	8.21111E-001	4.00096E-004	0.00000E+000	3.28523E-004	2.40040E-001	8.21388E-001	3.57670E+000	9	...........
	84	1.13333	8.25829E-001	3.99916E-004	0.00000E+000	3.30262E-004	2.40040E-001	8.26113E-001	3.57670E+000	9	...........
	85	1.14667	8.30483E-001	4.00550E-004	0.00000E+000	3.32650E-004	2.40040E-001	8.30750E-001	3.57670E+000	9	...........
	86	1.16	8.35148E-001	4.01077E-004	0.00000E+000	3.34959E-004	2.40040E-001	8.35452E-001	3.57670E+000	9	...........
	87	1.17333	8.39724E-001	4.01879E-004	0.00000E+000	3.37467E-004	2.40040E-001	8.40029E-001	3.57670E+000	9	...........
	88	1.18667	8.44297E-001	4.01000E-004	0.00000E+000	3.38563E-004	2.40040E-001	8.44599E-001	3.57670E+000	9	...........
	89	1.2	8.48849E-001	4.01743E-004	0.00000E+000	3.41019E-004	2.40040E-001	8.49153E-001	3.57670E+000	9	...........
	90	1.21333	8.53393E-001	4.01376E-004	0.00000E+000	3.42532E-004	2.40040E-001	8.53657E-001	3.57670E+000	9	...........
	91	1.22667	8.57868E-001	4.00244E-004	0.00000E+000	3.43357E-004	2.40040E-001	8.58172E-001	3.57670E+000	9	...........
	92	1.24	8.62379E-001	4.00589E-004	0.00000E+000	3.45459E-004	2.40040E-001	8.62669E-001	3.57670E+000	9	...........
	93	1.25333	8.66871E-001	3.99777E-004	0.00000E+000	3.46555E-004	2.40040E-001	8.67167E-001	3.57670E+000	9	...........
	94	1.26667	8.71331E-001	4.01595E-004	0.00000E+000	3.49922E-004	2.40040E-001	8.71607E-001	3.57670E+000	9	...........
	95	1.28	8.75771E-001	4.00015E-004	0.00000E+000	3.50321E-004	2.40040E-001	8.76062E-001	3.57670E+000	9	...........
	96	1.29333	8.80137E-001	4.03414E-004	0.00000E+000	3.55060E-004	2.40040E-001	8.80429E-001	3.57670E+000	9	...........
	97	1.30667	8.84453E-001	4.01933E-004	0.00000E+000	3.55491E-004	2.40040E-001	8.84769E-001	3.57670E+000	9	...........
	98	1.32	8.88732E-001	4.00988E-004	0.00000E+000	3.56371E-004	2.40040E-001	8.89031E-001	3.57670E+000	9	...........
	99	1.33333	8.93057E-001	4.00207E-004	0.00000E+000	3.57408E-004	2.40040E-001	8.93377E-001	3.57670E+000	9	...........
	100	1.34667	8.97319E-001	4.01220E-004	0.00000E+000	3.60023E-004	2.40040E-001	8.97639E-001	3.57670E+000	9	...........
	101	1.36	9.01528E-001	4.01364E-004	0.00000E+000	3.61841E-004	2.40040E-001	9.01852E-001	3.57670E+000	9	...........
	102	1.37333	9.05691E-001	3.99780E-004	0.00000E+000	3.62077E-004	2.40040E-001	9.06019E-001	3.57670E+000	9	...........
	103	1.38667	9.09844E-001	4.00446E-004	0.00000E+000	3.64343E-004	2.40040E-001	9.10158E-001	3.57670E+000	9	...........
	104	1.4	9.13954E-001	4.01346E-004	0.00000E+000	3.66812E-004	2.40040E-001	9.14263E-001	3.57670E+000	9	...........
	105	1.41333	9.17994E-001	4.00290E-004	0.00000E+000	3.67464E-004	2.40040E-001	9.18317E-001	3.57670E+000	9	...........
	106	1.42667	9.22175E-001	4.01776E-004	0.00000E+000	3.70508E-004	2.40040E-001	9.22452E-001	3.57670E+000	9	...........
	107	1.44	9.26175E-001	4.01751E-004	0.00000E+000	3.72092E-004	2.40040E-001	9.26479E-001	3.57670E+000	9	...........
	108	1.45333	9.30182E-001	4.01112E-004	0.00000E+000	3.73107E-004	2.40040E-001	9.30458E-001	3.57670E+000	9	...........
	109	1.46667	9.34090E-001	4.00506E-004	0.00000E+000	3.74109E-004	2.40040E-001	9.34413E-001	3.57670E+000	9	...........
	110	1.48	9.37942E-001	4.01377E-004	0.00000E+000	3.76469E-004	2.40040E-001	9.38278E-001	3.57670E+000	9	...........
	111	1.49333	9.41892E-001	4.01503E-004	0.00000E+000	3.78173E-004	2.40040E-001	9.42191E-001	3.57670E+000	9	...........
	112	1.50667	9.45721E-001	4.01114E-004	0.00000E+000	3.79342E-004	2.40040E-001	9.46046E-001	3.57670E+000	9	...........
	113	1.52	9.49550E-001	4.01323E-004	0.00000E+000	3.81076E-004	2.40040E-001	9.49880E-001	3.57651E+000	9	...........
	114	1.53333	9.53370E-001	4.02747E-004	0.00000E+000	3.83967E-004	2.40040E-001	9.53686E-001	3.57620E+000	9	...........
	115	1.54667	9.57114E-001	4.00840E-004	0.00000E+000	3.83649E-004	2.40040E-001	9.57430E-001	3.57620E+000	9	...........
	116	1.56	9.60844E-001	4.01521E-004	0.00000E+000	3.85799E-004	2.40040E-001	9.61173E-001	3.57620E+000	9	...........
	117	1.57333	9.64500E-001	4.01750E-004	0.00000E+000	3.87488E-004	2.40040E-001	9.64839E-001	3.57620E+000	9	...........
	118	1.58667	9.68107E-001	4.01403E-004	0.00000E+000	3.88601E-004	2.40040E-001	9.68450E-001	3.57620E+000	9	...........
	119	1.6	9.71752E-001	4.00752E-004	0.00000E+000	3.89432E-004	2.40040E-001	9.72103E-001	3.57620E+000	9	...........
	120	1.61333	9.75342E-001	4.01214E-004	0.00000E+000	3.91321E-004	2.40040E-001	9.75664E-001	3.57620E+000	9	...........
	121	1.62667	9.78914E-001	4.00716E-004	0.00000E+000	3.92266E-004	2.40040E-001	9.79225E-001	3.57620E+000	9	...........
	122	1.64	9.82457E-001	3.99884E-004	0.00000E+000	3.92869E-004	2.40040E-001	9.82769E-001	3.57620E+000	9	...........
	123	1.65333	9.85881E-001	4.00732E-004	0.00000E+000	3.95074E-004	2.40040E-001	9.86226E-001	3.57620E+000	9	...........
	124	1.66667	9.89312E-001	4.00649E-004	0.00000E+000	3.96367E-004	2.40040E-001	9.89630E-001	3.57620E+000	9	...........
	125	1.68	9.92693E-001	4.01468E-004	0.00000E+000	3.98535E-004	2.40040E-001	9.93032E-001	3.57620E+000	9	...........
	126	1.69333	9.96102E-001	3.99936E-004	0.00000E+000	3.98378E-004	2.40040E-001	9.96441E-001	3.57620E+000	9	...........
	127	1.705	9.99186E-001	4.01433E-004	0.00000E+000	4.01106E-004	2.40040E-001	9.99520E-001	3.57620E+000	9	...........
STARTTIMEOFFSET	QUANT	833.692	Start Time Offset (s)
