EXPLAIN
TAG	PWR800_CHARGE
TITLE	LABEL	PWR Cyclic Charge Discharge (Cell) - Charge Step	Test &Identifier
DATE	LABEL	12-7-2017	Date
TIME	LABEL	14:48:22	Time
NOTES	NOTES	3	&Notes...
	supercap test cell
	0.4mg
	6M KOH
PSTAT	PSTAT	IFC5000-01520	Potentiostat
CAPACITY	QUANT	1.00000E-003	Capacity (A-hr)
CELLTYPE	SELECTOR	1	&Cell Type
WORKINGCONNECTION	SELECTOR	0	&Working Lead
MAXCHARGETIME	VARIABLEANDUNITS	1.00000E+002	s	1.00000E+002	second(s)	Max &Charge Time
CHARGECURRENT	QUANT	4.00000E-004	&Charge Current (A) 
VOLTAGEFINISH	TWOPARAM	F	1.00000E-003	3.60000E+003	&Voltage Finish	 I (A) < 	Max Time(s)
SAMPLETIME	QUANT	1.00000E-002	Sa&mple Period (s)
CHARGESTOPAT1	MULTIPARAM	4	1.00000E+000	Charge Stop At &1	Voltage > Limit	V
CHARGESTOPAT2	MULTIPARAM	0	0.00000E+000	Charge Stop At &2	None	N/A
AESBHCSELECTOR	TOGGLE	F	Save Both Half Cells
IRCOMP	TOGGLE	F	IR &Measure
EOC	QUANT	0	Open Circuit (V)
SEQUENCER	TOGGLE	TRUE	Run as Sequence
PSTATMODEL	IQUANT	53	Pstat Model
PSTATSECTION	LABEL	IFC5000-01520	Pstat Section
PSTATSERIALNO	LABEL	01520	Pstat Serial Number
CTRLMODE	IQUANT	0	Control Mode
ELECTROMETER	IQUANT	1	RE=0 or CS=1
IESTAB	IQUANT	0	I/E Stability
CASPEED	IQUANT	4	Control Amp Speed
CONVENTION	IQUANT	1	Current Convention
ICHRANGE	IQUANT	2	Ich Range
ICHRANGEMODE	TOGGLE	T	Ich Auto Range
ICHOFFSETENABLE	TOGGLE	F	Ich Offset Enable
ICHOFFSET	QUANT	0	Ich Offset (V)
ICHFILTER	IQUANT	1	Ich Filter
VCHRANGE	IQUANT	2	Vch Range
VCHRANGEMODE	TOGGLE	T	Vch Auto Range
VCHOFFSETENABLE	TOGGLE	F	Vch Offset Enable
VCHOFFSET	QUANT	0	Vch Offset (V)
VCHFILTER	IQUANT	1	Vch Filter
IERANGELOWERLIMIT	IQUANT	9	I/E Range Lower Limit
IERANGEMODE	TOGGLE	F	I/E AutoRange
IERANGE	IQUANT	9	I/E Range
ACHSELECT	IQUANT	1	Ach Select
ACHRANGE	IQUANT	2	Ach Range
ACHOFFSETENABLE	TOGGLE	F	Ach Offset Enable
ACHOFFSET	QUANT	0	Ach Offset (V)
ACHFILTER	IQUANT	1	Ach Filter
CABLEID	IQUANT	14	Cable ID
DCCALDATE	LABEL	5-7-2017	DC Calibration Date
ACCALDATE	LABEL	12/3/2015	AC Calibration Date
FRAMEWORKVERSION	QUANT	7.01	Framework Version
INSTRUMENTVERSION	LABEL	4.00	Instrument Version
CURVE	TABLE	120
	Pt	T	Vf	Im	Vu	Pwr	Sig	Ach	Temp	IERange	Over
	#	s	V	A	V	W	V	V	deg C	#	bits
	0	0.013333	3.61975E-001	3.99798E-004	0.00000E+000	1.44717E-004	2.40040E-001	3.62075E-001	3.57620E+000	9	...........
	1	0.026667	3.73424E-001	4.01420E-004	0.00000E+000	1.49900E-004	2.40040E-001	3.73502E-001	3.57620E+000	9	...........
	2	0.04	3.83346E-001	4.00981E-004	0.00000E+000	1.53715E-004	2.40040E-001	3.83422E-001	3.57620E+000	9	...........
	3	0.053333	3.92384E-001	4.01081E-004	0.00000E+000	1.57378E-004	2.40040E-001	3.92462E-001	3.57620E+000	9	...........
	4	0.066667	4.00739E-001	3.99520E-004	0.00000E+000	1.60103E-004	2.40040E-001	4.00823E-001	3.57620E+000	9	...........
	5	0.08	4.08707E-001	4.01641E-004	0.00000E+000	1.64153E-004	2.40040E-001	4.08790E-001	3.57620E+000	9	...........
	6	0.093333	4.16440E-001	3.99994E-004	0.00000E+000	1.66574E-004	2.40040E-001	4.16530E-001	3.57620E+000	9	...........
	7	0.106667	4.23933E-001	4.02089E-004	0.00000E+000	1.70459E-004	2.40040E-001	4.24017E-001	3.57620E+000	9	...........
	8	0.12	4.31170E-001	4.01022E-004	0.00000E+000	1.72909E-004	2.40040E-001	4.31260E-001	3.57620E+000	9	...........
	9	0.133333	4.38194E-001	4.02479E-004	0.00000E+000	1.76364E-004	2.40040E-001	4.38284E-001	3.57620E+000	9	...........
	10	0.146667	4.45068E-001	4.01195E-004	0.00000E+000	1.78559E-004	2.40040E-001	4.45158E-001	3.57620E+000	9	...........
	11	0.16	4.51966E-001	4.00063E-004	0.00000E+000	1.80815E-004	2.40040E-001	4.52059E-001	3.57620E+000	9	...........
	12	0.173333	4.58707E-001	4.00008E-004	0.00000E+000	1.83487E-004	2.40040E-001	4.58801E-001	3.57620E+000	9	...........
	13	0.186667	4.65308E-001	4.01065E-004	0.00000E+000	1.86619E-004	2.40040E-001	4.65400E-001	3.57620E+000	9	...........
	14	0.2	4.71845E-001	4.00417E-004	0.00000E+000	1.88934E-004	2.40040E-001	4.71944E-001	3.57620E+000	9	...........
	15	0.213333	4.78333E-001	4.01548E-004	0.00000E+000	1.92074E-004	2.40040E-001	4.78427E-001	3.57620E+000	9	...........
	16	0.226667	4.84823E-001	4.01762E-004	0.00000E+000	1.94783E-004	2.40040E-001	4.84925E-001	3.57620E+000	9	...........
	17	0.24	4.91231E-001	4.01612E-004	0.00000E+000	1.97284E-004	2.40040E-001	4.91333E-001	3.57620E+000	9	...........
	18	0.253333	4.97570E-001	4.01563E-004	0.00000E+000	1.99806E-004	2.40040E-001	4.97673E-001	3.57620E+000	9	...........
	19	0.266667	5.03824E-001	4.00421E-004	0.00000E+000	2.01742E-004	2.40040E-001	5.03923E-001	3.57620E+000	9	...........
	20	0.28	5.10090E-001	4.00418E-004	0.00000E+000	2.04249E-004	2.40040E-001	5.10201E-001	3.57620E+000	9	...........
	21	0.293333	5.16294E-001	4.00007E-004	0.00000E+000	2.06521E-004	2.40040E-001	5.16394E-001	3.57620E+000	9	...........
	22	0.306667	5.22514E-001	4.01119E-004	0.00000E+000	2.09590E-004	2.40040E-001	5.22620E-001	3.57620E+000	9	...........
	23	0.32	5.28709E-001	4.00781E-004	0.00000E+000	2.11897E-004	2.40040E-001	5.28819E-001	3.57620E+000	9	...........
	24	0.333333	5.34622E-001	4.01636E-004	0.00000E+000	2.14723E-004	2.40040E-001	5.34787E-001	3.57620E+000	9	...........
	25	0.346667	5.40541E-001	4.00077E-004	0.00000E+000	2.16258E-004	2.40040E-001	5.40759E-001	3.57620E+000	9	...........
	26	0.36	5.46565E-001	4.01250E-004	0.00000E+000	2.19309E-004	2.40040E-001	5.46754E-001	3.57620E+000	9	...........
	27	0.373333	5.52544E-001	4.01585E-004	0.00000E+000	2.21893E-004	2.40040E-001	5.52779E-001	3.57620E+000	9	...........
	28	0.386667	5.58482E-001	4.01152E-004	0.00000E+000	2.24036E-004	2.40040E-001	5.58691E-001	3.57650E+000	9	...........
	29	0.4	5.64496E-001	4.01919E-004	0.00000E+000	2.26882E-004	2.40040E-001	5.64741E-001	3.57650E+000	9	...........
	30	0.413333	5.70394E-001	4.00667E-004	0.00000E+000	2.28538E-004	2.40040E-001	5.70615E-001	3.57650E+000	9	...........
	31	0.426667	5.76209E-001	4.02663E-004	0.00000E+000	2.32018E-004	2.40040E-001	5.76462E-001	3.57650E+000	9	...........
	32	0.44	5.82083E-001	4.00769E-004	0.00000E+000	2.33281E-004	2.40040E-001	5.82316E-001	3.57650E+000	9	...........
	33	0.453333	5.87900E-001	4.00796E-004	0.00000E+000	2.35628E-004	2.40040E-001	5.88152E-001	3.57650E+000	9	...........
	34	0.466667	5.93676E-001	4.00038E-004	0.00000E+000	2.37493E-004	2.40040E-001	5.93905E-001	3.57650E+000	9	...........
	35	0.48	5.99455E-001	4.01220E-004	0.00000E+000	2.40514E-004	2.40040E-001	5.99698E-001	3.57650E+000	9	...........
	36	0.493333	6.05236E-001	4.00423E-004	0.00000E+000	2.42351E-004	2.40040E-001	6.05476E-001	3.57650E+000	9	...........
	37	0.506667	6.10917E-001	3.99985E-004	0.00000E+000	2.44358E-004	2.40040E-001	6.11189E-001	3.57650E+000	9	...........
	38	0.52	6.16678E-001	4.00877E-004	0.00000E+000	2.47212E-004	2.40040E-001	6.16874E-001	3.57650E+000	9	...........
	39	0.533333	6.22394E-001	4.00374E-004	0.00000E+000	2.49190E-004	2.40040E-001	6.22588E-001	3.57650E+000	9	...........
	40	0.546667	6.28002E-001	4.00568E-004	0.00000E+000	2.51558E-004	2.40040E-001	6.28252E-001	3.57650E+000	9	...........
	41	0.56	6.33672E-001	4.00862E-004	0.00000E+000	2.54015E-004	2.40040E-001	6.33897E-001	3.57650E+000	9	...........
	42	0.573333	6.39286E-001	3.99985E-004	0.00000E+000	2.55705E-004	2.40040E-001	6.39532E-001	3.57650E+000	9	...........
	43	0.586667	6.45009E-001	4.00372E-004	0.00000E+000	2.58243E-004	2.40040E-001	6.45227E-001	3.57650E+000	9	...........
	44	0.6	6.50651E-001	4.01258E-004	0.00000E+000	2.61079E-004	2.40040E-001	6.50873E-001	3.57650E+000	9	...........
	45	0.613333	6.56274E-001	4.01709E-004	0.00000E+000	2.63631E-004	2.40040E-001	6.56484E-001	3.57650E+000	9	...........
	46	0.626667	6.61876E-001	4.01021E-004	0.00000E+000	2.65426E-004	2.40040E-001	6.62099E-001	3.57650E+000	9	...........
	47	0.64	6.67518E-001	3.99997E-004	0.00000E+000	2.67005E-004	2.40040E-001	6.67787E-001	3.57650E+000	9	...........
	48	0.653333	6.73053E-001	4.00666E-004	0.00000E+000	2.69669E-004	2.40040E-001	6.73293E-001	3.57650E+000	9	...........
	49	0.666667	6.78582E-001	4.01223E-004	0.00000E+000	2.72263E-004	2.40040E-001	6.78835E-001	3.57650E+000	9	...........
	50	0.68	6.84162E-001	4.01630E-004	0.00000E+000	2.74780E-004	2.40040E-001	6.84408E-001	3.57650E+000	9	...........
	51	0.693333	6.89676E-001	4.00912E-004	0.00000E+000	2.76499E-004	2.40040E-001	6.89933E-001	3.57650E+000	9	...........
	52	0.706667	6.95157E-001	4.00133E-004	0.00000E+000	2.78156E-004	2.40040E-001	6.95393E-001	3.57650E+000	9	...........
	53	0.72	7.00613E-001	4.00290E-004	0.00000E+000	2.80448E-004	2.40040E-001	7.00832E-001	3.57650E+000	9	...........
	54	0.733333	7.06031E-001	4.01304E-004	0.00000E+000	2.83333E-004	2.40040E-001	7.06288E-001	3.57650E+000	9	...........
	55	0.746667	7.11492E-001	4.01150E-004	0.00000E+000	2.85415E-004	2.40040E-001	7.11709E-001	3.57650E+000	9	...........
	56	0.76	7.16888E-001	4.00198E-004	0.00000E+000	2.86897E-004	2.40040E-001	7.17123E-001	3.57650E+000	9	...........
	57	0.773333	7.22326E-001	4.01025E-004	0.00000E+000	2.89671E-004	2.40040E-001	7.22523E-001	3.57650E+000	9	...........
	58	0.786667	7.27697E-001	4.00454E-004	0.00000E+000	2.91409E-004	2.40040E-001	7.27914E-001	3.57650E+000	9	...........
	59	0.8	7.32996E-001	4.00687E-004	0.00000E+000	2.93702E-004	2.40040E-001	7.33205E-001	3.57650E+000	9	...........
	60	0.813333	7.38303E-001	4.01282E-004	0.00000E+000	2.96267E-004	2.40040E-001	7.38515E-001	3.57650E+000	9	...........
	61	0.826667	7.43694E-001	4.00344E-004	0.00000E+000	2.97733E-004	2.40040E-001	7.43933E-001	3.57650E+000	9	...........
	62	0.84	7.48961E-001	4.01024E-004	0.00000E+000	3.00351E-004	2.40040E-001	7.49187E-001	3.57650E+000	9	...........
	63	0.853333	7.54244E-001	4.01202E-004	0.00000E+000	3.02604E-004	2.40040E-001	7.54465E-001	3.57650E+000	9	...........
	64	0.866667	7.59486E-001	3.99716E-004	0.00000E+000	3.03578E-004	2.40040E-001	7.59727E-001	3.57650E+000	9	...........
	65	0.88	7.64772E-001	4.01237E-004	0.00000E+000	3.06854E-004	2.40040E-001	7.65034E-001	3.57650E+000	9	...........
	66	0.893333	7.70003E-001	4.00774E-004	0.00000E+000	3.08597E-004	2.40040E-001	7.70279E-001	3.57650E+000	9	...........
	67	0.906667	7.75164E-001	4.01610E-004	0.00000E+000	3.11313E-004	2.40040E-001	7.75386E-001	3.57650E+000	9	...........
	68	0.92	7.80281E-001	3.99061E-004	0.00000E+000	3.11380E-004	2.40040E-001	7.80526E-001	3.57650E+000	9	...........
	69	0.933333	7.85372E-001	4.00115E-004	0.00000E+000	3.14239E-004	2.40040E-001	7.85599E-001	3.57650E+000	9	...........
	70	0.946667	7.90565E-001	4.02627E-004	0.00000E+000	3.18302E-004	2.40040E-001	7.90817E-001	3.57650E+000	9	...........
	71	0.96	7.95719E-001	4.00789E-004	0.00000E+000	3.18915E-004	2.40040E-001	7.95951E-001	3.57650E+000	9	...........
	72	0.97333	8.00776E-001	4.01420E-004	0.00000E+000	3.21448E-004	2.40040E-001	8.01044E-001	3.57650E+000	9	...........
	73	0.98667	8.05712E-001	4.00110E-004	0.00000E+000	3.22374E-004	2.40040E-001	8.05995E-001	3.57650E+000	9	...........
	74	1	8.10691E-001	4.01563E-004	0.00000E+000	3.25543E-004	2.40040E-001	8.10945E-001	3.57650E+000	9	...........
	75	1.01333	8.15528E-001	4.00347E-004	0.00000E+000	3.26494E-004	2.40040E-001	8.15816E-001	3.57650E+000	9	...........
	76	1.02667	8.20511E-001	4.00476E-004	0.00000E+000	3.28595E-004	2.40040E-001	8.20790E-001	3.57650E+000	9	...........
	77	1.04	8.25386E-001	4.01229E-004	0.00000E+000	3.31169E-004	2.40040E-001	8.25660E-001	3.57650E+000	9	...........
	78	1.05333	8.30262E-001	4.00632E-004	0.00000E+000	3.32630E-004	2.40040E-001	8.30511E-001	3.57650E+000	9	...........
	79	1.06667	8.35065E-001	4.01389E-004	0.00000E+000	3.35186E-004	2.40040E-001	8.35358E-001	3.57650E+000	9	...........
	80	1.08	8.39851E-001	4.01119E-004	0.00000E+000	3.36880E-004	2.40040E-001	8.40132E-001	3.57650E+000	9	...........
	81	1.09333	8.44630E-001	4.01194E-004	0.00000E+000	3.38860E-004	2.40040E-001	8.44913E-001	3.57650E+000	9	...........
	82	1.10667	8.49347E-001	4.02329E-004	0.00000E+000	3.41716E-004	2.40040E-001	8.49656E-001	3.57650E+000	9	...........
	83	1.12	8.54093E-001	4.01683E-004	0.00000E+000	3.43074E-004	2.40040E-001	8.54403E-001	3.57650E+000	9	...........
	84	1.13333	8.58888E-001	4.00996E-004	0.00000E+000	3.44411E-004	2.40040E-001	8.59202E-001	3.57650E+000	9	...........
	85	1.14667	8.63454E-001	4.00953E-004	0.00000E+000	3.46205E-004	2.40040E-001	8.63768E-001	3.57650E+000	9	...........
	86	1.16	8.68152E-001	4.00155E-004	0.00000E+000	3.47396E-004	2.40040E-001	8.68457E-001	3.57650E+000	9	...........
	87	1.17333	8.72748E-001	4.00926E-004	0.00000E+000	3.49907E-004	2.40040E-001	8.73041E-001	3.57650E+000	9	...........
	88	1.18667	8.77298E-001	4.00436E-004	0.00000E+000	3.51301E-004	2.40040E-001	8.77554E-001	3.57650E+000	9	...........
	89	1.2	8.81814E-001	4.00774E-004	0.00000E+000	3.53408E-004	2.40040E-001	8.82051E-001	3.57650E+000	9	...........
	90	1.21333	8.86319E-001	4.00215E-004	0.00000E+000	3.54718E-004	2.40040E-001	8.86558E-001	3.57650E+000	9	...........
	91	1.22667	8.90681E-001	4.02804E-004	0.00000E+000	3.58769E-004	2.40040E-001	8.90962E-001	3.57650E+000	9	...........
	92	1.24	8.95111E-001	4.00262E-004	0.00000E+000	3.58279E-004	2.40040E-001	8.95387E-001	3.57650E+000	9	...........
	93	1.25333	8.99596E-001	4.02452E-004	0.00000E+000	3.62044E-004	2.40040E-001	8.99854E-001	3.57650E+000	9	...........
	94	1.26667	9.03966E-001	4.00915E-004	0.00000E+000	3.62413E-004	2.40040E-001	9.04212E-001	3.57650E+000	9	...........
	95	1.28	9.08273E-001	4.01226E-004	0.00000E+000	3.64423E-004	2.40040E-001	9.08528E-001	3.57650E+000	9	...........
	96	1.29333	9.12606E-001	4.00475E-004	0.00000E+000	3.65476E-004	2.40040E-001	9.12887E-001	3.57650E+000	9	...........
	97	1.30667	9.16907E-001	4.01251E-004	0.00000E+000	3.67910E-004	2.40040E-001	9.17209E-001	3.57650E+000	9	...........
	98	1.32	9.21124E-001	3.99737E-004	0.00000E+000	3.68208E-004	2.40040E-001	9.21417E-001	3.57650E+000	9	...........
	99	1.33333	9.25351E-001	4.01197E-004	0.00000E+000	3.71248E-004	2.40040E-001	9.25648E-001	3.57650E+000	9	...........
	100	1.34667	9.29594E-001	4.01309E-004	0.00000E+000	3.73054E-004	2.40040E-001	9.29879E-001	3.57650E+000	9	...........
	101	1.36	9.33733E-001	4.00424E-004	0.00000E+000	3.73889E-004	2.40040E-001	9.34020E-001	3.57650E+000	9	...........
	102	1.37333	9.37821E-001	4.01287E-004	0.00000E+000	3.76335E-004	2.40040E-001	9.38131E-001	3.57650E+000	9	...........
	103	1.38667	9.41861E-001	4.01652E-004	0.00000E+000	3.78301E-004	2.40040E-001	9.42158E-001	3.57620E+000	9	...........
	104	1.4	9.45882E-001	3.99619E-004	0.00000E+000	3.77992E-004	2.40040E-001	9.46170E-001	3.57620E+000	9	...........
	105	1.41333	9.49839E-001	4.00188E-004	0.00000E+000	3.80114E-004	2.40040E-001	9.50130E-001	3.57620E+000	9	...........
	106	1.42667	9.53816E-001	4.00972E-004	0.00000E+000	3.82454E-004	2.40040E-001	9.54114E-001	3.57620E+000	9	...........
	107	1.44	9.57648E-001	4.00477E-004	0.00000E+000	3.83516E-004	2.40040E-001	9.57945E-001	3.57620E+000	9	...........
	108	1.45333	9.61501E-001	4.01945E-004	0.00000E+000	3.86471E-004	2.40040E-001	9.61791E-001	3.57620E+000	9	...........
	109	1.46667	9.65343E-001	4.02646E-004	0.00000E+000	3.88692E-004	2.40040E-001	9.65665E-001	3.57620E+000	9	...........
	110	1.48	9.69097E-001	4.01844E-004	0.00000E+000	3.89426E-004	2.40040E-001	9.69424E-001	3.57620E+000	9	...........
	111	1.49333	9.72857E-001	4.00517E-004	0.00000E+000	3.89646E-004	2.40040E-001	9.73180E-001	3.57620E+000	9	...........
	112	1.50667	9.76614E-001	4.01043E-004	0.00000E+000	3.91664E-004	2.40040E-001	9.76940E-001	3.57620E+000	9	...........
	113	1.52	9.80336E-001	4.00223E-004	0.00000E+000	3.92353E-004	2.40040E-001	9.80605E-001	3.57620E+000	9	...........
	114	1.53333	9.83980E-001	4.00553E-004	0.00000E+000	3.94136E-004	2.40040E-001	9.84262E-001	3.57620E+000	9	...........
	115	1.54667	9.87581E-001	4.01192E-004	0.00000E+000	3.96210E-004	2.40040E-001	9.87864E-001	3.57620E+000	9	...........
	116	1.56	9.91128E-001	4.00346E-004	0.00000E+000	3.96794E-004	2.40040E-001	9.91414E-001	3.57620E+000	9	...........
	117	1.57333	9.94672E-001	4.01748E-004	0.00000E+000	3.99608E-004	2.40040E-001	9.94945E-001	3.57620E+000	9	...........
	118	1.58667	9.98232E-001	4.00307E-004	0.00000E+000	3.99599E-004	2.40040E-001	9.98522E-001	3.57620E+000	9	...........
	119	1.58833	1.00021E+000	4.01294E-004	0.00000E+000	4.01377E-004	2.40040E-001	1.00053E+000	3.57620E+000	9	...........
STARTTIMEOFFSET	QUANT	1423.877	Start Time Offset (s)
