EXPLAIN
TAG	PWR800_CHARGE
TITLE	LABEL	PWR Cyclic Charge Discharge (Cell) - Charge Step	Test &Identifier
DATE	LABEL	12-7-2017	Date
TIME	LABEL	14:37:44	Time
NOTES	NOTES	3	&Notes...
	supercap test cell
	0.4mg
	6M KOH
PSTAT	PSTAT	IFC5000-01520	Potentiostat
CAPACITY	QUANT	1.00000E-003	Capacity (A-hr)
CELLTYPE	SELECTOR	1	&Cell Type
WORKINGCONNECTION	SELECTOR	0	&Working Lead
MAXCHARGETIME	VARIABLEANDUNITS	1.00000E+002	s	1.00000E+002	second(s)	Max &Charge Time
CHARGECURRENT	QUANT	4.00000E-004	&Charge Current (A) 
VOLTAGEFINISH	TWOPARAM	F	1.00000E-003	3.60000E+003	&Voltage Finish	 I (A) < 	Max Time(s)
SAMPLETIME	QUANT	1.00000E-002	Sa&mple Period (s)
CHARGESTOPAT1	MULTIPARAM	4	1.00000E+000	Charge Stop At &1	Voltage > Limit	V
CHARGESTOPAT2	MULTIPARAM	0	0.00000E+000	Charge Stop At &2	None	N/A
AESBHCSELECTOR	TOGGLE	F	Save Both Half Cells
IRCOMP	TOGGLE	F	IR &Measure
EOC	QUANT	0	Open Circuit (V)
SEQUENCER	TOGGLE	TRUE	Run as Sequence
PSTATMODEL	IQUANT	53	Pstat Model
PSTATSECTION	LABEL	IFC5000-01520	Pstat Section
PSTATSERIALNO	LABEL	01520	Pstat Serial Number
CTRLMODE	IQUANT	0	Control Mode
ELECTROMETER	IQUANT	1	RE=0 or CS=1
IESTAB	IQUANT	0	I/E Stability
CASPEED	IQUANT	4	Control Amp Speed
CONVENTION	IQUANT	1	Current Convention
ICHRANGE	IQUANT	2	Ich Range
ICHRANGEMODE	TOGGLE	T	Ich Auto Range
ICHOFFSETENABLE	TOGGLE	F	Ich Offset Enable
ICHOFFSET	QUANT	0	Ich Offset (V)
ICHFILTER	IQUANT	1	Ich Filter
VCHRANGE	IQUANT	2	Vch Range
VCHRANGEMODE	TOGGLE	T	Vch Auto Range
VCHOFFSETENABLE	TOGGLE	F	Vch Offset Enable
VCHOFFSET	QUANT	0	Vch Offset (V)
VCHFILTER	IQUANT	1	Vch Filter
IERANGELOWERLIMIT	IQUANT	9	I/E Range Lower Limit
IERANGEMODE	TOGGLE	F	I/E AutoRange
IERANGE	IQUANT	9	I/E Range
ACHSELECT	IQUANT	1	Ach Select
ACHRANGE	IQUANT	2	Ach Range
ACHOFFSETENABLE	TOGGLE	F	Ach Offset Enable
ACHOFFSET	QUANT	0	Ach Offset (V)
ACHFILTER	IQUANT	1	Ach Filter
CABLEID	IQUANT	14	Cable ID
DCCALDATE	LABEL	5-7-2017	DC Calibration Date
ACCALDATE	LABEL	12/3/2015	AC Calibration Date
FRAMEWORKVERSION	QUANT	7.01	Framework Version
INSTRUMENTVERSION	LABEL	4.00	Instrument Version
CURVE	TABLE	127
	Pt	T	Vf	Im	Vu	Pwr	Sig	Ach	Temp	IERange	Over
	#	s	V	A	V	W	V	V	deg C	#	bits
	0	0.013333	3.49100E-001	4.00999E-004	0.00000E+000	1.39989E-004	2.40040E-001	3.49193E-001	3.57650E+000	9	...........
	1	0.026667	3.59913E-001	4.01861E-004	0.00000E+000	1.44635E-004	2.40040E-001	3.59982E-001	3.57650E+000	9	...........
	2	0.04	3.69228E-001	4.01747E-004	0.00000E+000	1.48336E-004	2.40040E-001	3.69303E-001	3.57650E+000	9	...........
	3	0.053333	3.77705E-001	4.01063E-004	0.00000E+000	1.51484E-004	2.40040E-001	3.77777E-001	3.57650E+000	9	...........
	4	0.066667	3.85682E-001	4.01153E-004	0.00000E+000	1.54718E-004	2.40040E-001	3.85757E-001	3.57650E+000	9	...........
	5	0.08	3.93236E-001	4.00851E-004	0.00000E+000	1.57629E-004	2.40040E-001	3.93312E-001	3.57650E+000	9	...........
	6	0.093333	4.00565E-001	4.02491E-004	0.00000E+000	1.61224E-004	2.40040E-001	4.00645E-001	3.57650E+000	9	...........
	7	0.106667	4.07667E-001	4.00229E-004	0.00000E+000	1.63160E-004	2.40040E-001	4.07744E-001	3.57650E+000	9	...........
	8	0.12	4.14600E-001	4.01313E-004	0.00000E+000	1.66384E-004	2.40040E-001	4.14685E-001	3.57650E+000	9	...........
	9	0.133333	4.21437E-001	4.00242E-004	0.00000E+000	1.68677E-004	2.40040E-001	4.21520E-001	3.57650E+000	9	...........
	10	0.146667	4.28129E-001	4.00935E-004	0.00000E+000	1.71652E-004	2.40040E-001	4.28215E-001	3.57650E+000	9	...........
	11	0.16	4.34734E-001	4.01388E-004	0.00000E+000	1.74497E-004	2.40040E-001	4.34824E-001	3.57650E+000	9	...........
	12	0.173333	4.41152E-001	4.01389E-004	0.00000E+000	1.77073E-004	2.40040E-001	4.41242E-001	3.57650E+000	9	...........
	13	0.186667	4.47598E-001	4.00229E-004	0.00000E+000	1.79142E-004	2.40040E-001	4.47693E-001	3.57650E+000	9	...........
	14	0.2	4.53865E-001	4.00721E-004	0.00000E+000	1.81873E-004	2.40040E-001	4.53959E-001	3.57650E+000	9	...........
	15	0.213333	4.60069E-001	4.01336E-004	0.00000E+000	1.84642E-004	2.40040E-001	4.60165E-001	3.57650E+000	9	...........
	16	0.226667	4.66280E-001	4.00348E-004	0.00000E+000	1.86674E-004	2.40040E-001	4.66372E-001	3.57650E+000	9	...........
	17	0.24	4.72455E-001	4.00672E-004	0.00000E+000	1.89300E-004	2.40040E-001	4.72549E-001	3.57650E+000	9	...........
	18	0.253333	4.78522E-001	4.01094E-004	0.00000E+000	1.91932E-004	2.40040E-001	4.78622E-001	3.57650E+000	9	...........
	19	0.266667	4.84596E-001	4.00338E-004	0.00000E+000	1.94002E-004	2.40040E-001	4.84697E-001	3.57650E+000	9	...........
	20	0.28	4.90598E-001	4.00637E-004	0.00000E+000	1.96552E-004	2.40040E-001	4.90698E-001	3.57650E+000	9	...........
	21	0.293333	4.96549E-001	4.00628E-004	0.00000E+000	1.98932E-004	2.40040E-001	4.96650E-001	3.57650E+000	9	...........
	22	0.306667	5.02385E-001	4.00725E-004	0.00000E+000	2.01318E-004	2.40040E-001	5.02485E-001	3.57650E+000	9	...........
	23	0.32	5.08220E-001	4.00966E-004	0.00000E+000	2.03779E-004	2.40040E-001	5.08326E-001	3.57650E+000	9	...........
	24	0.333333	5.14092E-001	4.01688E-004	0.00000E+000	2.06504E-004	2.40040E-001	5.14193E-001	3.57650E+000	9	...........
	25	0.346667	5.19890E-001	4.01596E-004	0.00000E+000	2.08786E-004	2.40040E-001	5.19992E-001	3.57650E+000	9	...........
	26	0.36	5.25654E-001	4.00366E-004	0.00000E+000	2.10454E-004	2.40040E-001	5.25757E-001	3.57650E+000	9	...........
	27	0.373333	5.31369E-001	4.00771E-004	0.00000E+000	2.12957E-004	2.40040E-001	5.31464E-001	3.57650E+000	9	...........
	28	0.386667	5.36937E-001	4.00812E-004	0.00000E+000	2.15211E-004	2.40040E-001	5.37172E-001	3.57650E+000	9	...........
	29	0.4	5.42608E-001	4.01152E-004	0.00000E+000	2.17669E-004	2.40040E-001	5.42834E-001	3.57650E+000	9	...........
	30	0.413333	5.48250E-001	4.01077E-004	0.00000E+000	2.19891E-004	2.40040E-001	5.48475E-001	3.57650E+000	9	...........
	31	0.426667	5.53949E-001	4.02078E-004	0.00000E+000	2.22730E-004	2.40040E-001	5.54182E-001	3.57650E+000	9	...........
	32	0.44	5.59587E-001	4.01442E-004	0.00000E+000	2.24642E-004	2.40040E-001	5.59811E-001	3.57650E+000	9	...........
	33	0.453333	5.65295E-001	4.00496E-004	0.00000E+000	2.26398E-004	2.40040E-001	5.65488E-001	3.57650E+000	9	...........
	34	0.466667	5.70942E-001	4.00777E-004	0.00000E+000	2.28821E-004	2.40040E-001	5.71108E-001	3.57650E+000	9	...........
	35	0.48	5.76344E-001	4.01216E-004	0.00000E+000	2.31239E-004	2.40040E-001	5.76588E-001	3.57650E+000	9	...........
	36	0.493333	5.81933E-001	4.01979E-004	0.00000E+000	2.33924E-004	2.40040E-001	5.82181E-001	3.57650E+000	9	...........
	37	0.506667	5.87509E-001	4.00356E-004	0.00000E+000	2.35213E-004	2.40040E-001	5.87780E-001	3.57650E+000	9	...........
	38	0.52	5.93122E-001	4.00818E-004	0.00000E+000	2.37734E-004	2.40040E-001	5.93398E-001	3.57650E+000	9	...........
	39	0.533333	5.98644E-001	4.01017E-004	0.00000E+000	2.40066E-004	2.40040E-001	5.98900E-001	3.57650E+000	9	...........
	40	0.546667	6.04135E-001	4.00302E-004	0.00000E+000	2.41836E-004	2.40040E-001	6.04400E-001	3.57650E+000	9	...........
	41	0.56	6.09613E-001	4.00003E-004	0.00000E+000	2.43847E-004	2.40040E-001	6.09874E-001	3.57650E+000	9	...........
	42	0.573333	6.15164E-001	4.00480E-004	0.00000E+000	2.46361E-004	2.40040E-001	6.15411E-001	3.57650E+000	9	...........
	43	0.586667	6.20600E-001	4.01018E-004	0.00000E+000	2.48872E-004	2.40040E-001	6.20817E-001	3.57650E+000	9	...........
	44	0.6	6.25965E-001	4.00304E-004	0.00000E+000	2.50577E-004	2.40040E-001	6.26186E-001	3.57650E+000	9	...........
	45	0.613333	6.31429E-001	4.00651E-004	0.00000E+000	2.52983E-004	2.40040E-001	6.31634E-001	3.57650E+000	9	...........
	46	0.626667	6.36826E-001	4.02146E-004	0.00000E+000	2.56097E-004	2.40040E-001	6.37056E-001	3.57650E+000	9	...........
	47	0.64	6.42285E-001	4.00790E-004	0.00000E+000	2.57421E-004	2.40040E-001	6.42502E-001	3.57650E+000	9	...........
	48	0.653333	6.47668E-001	4.01029E-004	0.00000E+000	2.59734E-004	2.40040E-001	6.47908E-001	3.57740E+000	9	...........
	49	0.666667	6.53069E-001	4.00992E-004	0.00000E+000	2.61875E-004	2.40040E-001	6.53319E-001	3.57770E+000	9	...........
	50	0.68	6.58495E-001	4.01306E-004	0.00000E+000	2.64258E-004	2.40040E-001	6.58708E-001	3.57770E+000	9	...........
	51	0.693333	6.63889E-001	4.00905E-004	0.00000E+000	2.66157E-004	2.40040E-001	6.64127E-001	3.57770E+000	9	...........
	52	0.706667	6.69208E-001	4.00404E-004	0.00000E+000	2.67954E-004	2.40040E-001	6.69427E-001	3.57770E+000	9	...........
	53	0.72	6.74501E-001	4.01287E-004	0.00000E+000	2.70668E-004	2.40040E-001	6.74717E-001	3.57770E+000	9	...........
	54	0.733333	6.79829E-001	4.00968E-004	0.00000E+000	2.72590E-004	2.40040E-001	6.80055E-001	3.57770E+000	9	...........
	55	0.746667	6.85078E-001	4.00268E-004	0.00000E+000	2.74215E-004	2.40040E-001	6.85283E-001	3.57770E+000	9	...........
	56	0.76	6.90379E-001	4.00994E-004	0.00000E+000	2.76838E-004	2.40040E-001	6.90605E-001	3.57770E+000	9	...........
	57	0.773333	6.95660E-001	4.00761E-004	0.00000E+000	2.78793E-004	2.40040E-001	6.95885E-001	3.57770E+000	9	...........
	58	0.786667	7.00923E-001	4.00515E-004	0.00000E+000	2.80730E-004	2.40040E-001	7.01164E-001	3.57770E+000	9	...........
	59	0.8	7.06164E-001	4.01329E-004	0.00000E+000	2.83404E-004	2.40040E-001	7.06396E-001	3.57770E+000	9	...........
	60	0.813333	7.11303E-001	4.00496E-004	0.00000E+000	2.84874E-004	2.40040E-001	7.11558E-001	3.57770E+000	9	...........
	61	0.826667	7.16540E-001	4.01169E-004	0.00000E+000	2.87454E-004	2.40040E-001	7.16811E-001	3.57770E+000	9	...........
	62	0.84	7.21799E-001	4.01188E-004	0.00000E+000	2.89577E-004	2.40040E-001	7.22039E-001	3.57770E+000	9	...........
	63	0.853333	7.27020E-001	4.01791E-004	0.00000E+000	2.92110E-004	2.40040E-001	7.27233E-001	3.57770E+000	9	...........
	64	0.866667	7.32177E-001	4.00632E-004	0.00000E+000	2.93334E-004	2.40040E-001	7.32405E-001	3.57770E+000	9	...........
	65	0.88	7.37305E-001	4.01142E-004	0.00000E+000	2.95764E-004	2.40040E-001	7.37556E-001	3.57770E+000	9	...........
	66	0.893333	7.42423E-001	4.00924E-004	0.00000E+000	2.97655E-004	2.40040E-001	7.42684E-001	3.57770E+000	9	...........
	67	0.906667	7.47561E-001	4.00470E-004	0.00000E+000	2.99376E-004	2.40040E-001	7.47783E-001	3.57770E+000	9	...........
	68	0.92	7.52610E-001	3.99978E-004	0.00000E+000	3.01027E-004	2.40040E-001	7.52854E-001	3.57770E+000	9	...........
	69	0.933333	7.57644E-001	4.00177E-004	0.00000E+000	3.03192E-004	2.40040E-001	7.57880E-001	3.57770E+000	9	...........
	70	0.946667	7.62701E-001	4.00603E-004	0.00000E+000	3.05540E-004	2.40040E-001	7.62921E-001	3.57770E+000	9	...........
	71	0.96	7.67764E-001	4.01176E-004	0.00000E+000	3.08009E-004	2.40040E-001	7.68034E-001	3.57770E+000	9	...........
	72	0.97333	7.72761E-001	4.01752E-004	0.00000E+000	3.10459E-004	2.40040E-001	7.73001E-001	3.57770E+000	9	...........
	73	0.98667	7.77694E-001	4.02547E-004	0.00000E+000	3.13059E-004	2.40040E-001	7.77946E-001	3.57770E+000	9	...........
	74	1	7.82611E-001	4.00971E-004	0.00000E+000	3.13804E-004	2.40040E-001	7.82862E-001	3.57770E+000	9	...........
	75	1.01333	7.87545E-001	4.01331E-004	0.00000E+000	3.16066E-004	2.40040E-001	7.87800E-001	3.57770E+000	9	...........
	76	1.02667	7.92486E-001	4.00942E-004	0.00000E+000	3.17741E-004	2.40040E-001	7.92729E-001	3.57770E+000	9	...........
	77	1.04	7.97360E-001	4.01088E-004	0.00000E+000	3.19811E-004	2.40040E-001	7.97602E-001	3.57770E+000	9	...........
	78	1.05333	8.02217E-001	4.01484E-004	0.00000E+000	3.22077E-004	2.40040E-001	8.02466E-001	3.57770E+000	9	...........
	79	1.06667	8.07076E-001	4.00193E-004	0.00000E+000	3.22986E-004	2.40040E-001	8.07357E-001	3.57770E+000	9	...........
	80	1.08	8.11855E-001	4.01339E-004	0.00000E+000	3.25829E-004	2.40040E-001	8.12126E-001	3.57770E+000	9	...........
	81	1.09333	8.16633E-001	4.00822E-004	0.00000E+000	3.27325E-004	2.40040E-001	8.16906E-001	3.57770E+000	9	...........
	82	1.10667	8.21439E-001	4.02309E-004	0.00000E+000	3.30472E-004	2.40040E-001	8.21720E-001	3.57770E+000	9	...........
	83	1.12	8.26226E-001	4.00846E-004	0.00000E+000	3.31189E-004	2.40040E-001	8.26486E-001	3.57770E+000	9	...........
	84	1.13333	8.30975E-001	4.00148E-004	0.00000E+000	3.32513E-004	2.40040E-001	8.31252E-001	3.57770E+000	9	...........
	85	1.14667	8.35703E-001	4.01215E-004	0.00000E+000	3.35296E-004	2.40040E-001	8.35990E-001	3.57770E+000	9	...........
	86	1.16	8.40341E-001	4.01080E-004	0.00000E+000	3.37044E-004	2.40040E-001	8.40632E-001	3.57770E+000	9	...........
	87	1.17333	8.44990E-001	4.00334E-004	0.00000E+000	3.38279E-004	2.40040E-001	8.45290E-001	3.57770E+000	9	...........
	88	1.18667	8.49603E-001	4.01378E-004	0.00000E+000	3.41012E-004	2.40040E-001	8.49906E-001	3.57770E+000	9	...........
	89	1.2	8.54095E-001	4.01631E-004	0.00000E+000	3.43030E-004	2.40040E-001	8.54403E-001	3.57770E+000	9	...........
	90	1.21333	8.58619E-001	4.00970E-004	0.00000E+000	3.44280E-004	2.40040E-001	8.58918E-001	3.57770E+000	9	...........
	91	1.22667	8.63114E-001	4.00372E-004	0.00000E+000	3.45567E-004	2.40040E-001	8.63397E-001	3.57770E+000	9	...........
	92	1.24	8.67648E-001	4.02241E-004	0.00000E+000	3.49004E-004	2.40040E-001	8.67958E-001	3.57770E+000	9	...........
	93	1.25333	8.72091E-001	3.99434E-004	0.00000E+000	3.48343E-004	2.40040E-001	8.72377E-001	3.57770E+000	9	...........
	94	1.26667	8.76544E-001	4.00827E-004	0.00000E+000	3.51343E-004	2.40040E-001	8.76847E-001	3.57770E+000	9	...........
	95	1.28	8.80941E-001	4.00632E-004	0.00000E+000	3.52933E-004	2.40040E-001	8.81232E-001	3.57770E+000	9	...........
	96	1.29333	8.85340E-001	4.01588E-004	0.00000E+000	3.55542E-004	2.40040E-001	8.85611E-001	3.57770E+000	9	...........
	97	1.30667	8.89670E-001	4.01935E-004	0.00000E+000	3.57589E-004	2.40040E-001	8.89959E-001	3.57770E+000	9	...........
	98	1.32	8.93917E-001	4.01365E-004	0.00000E+000	3.58787E-004	2.40040E-001	8.94203E-001	3.57770E+000	9	...........
	99	1.33333	8.98135E-001	4.00904E-004	0.00000E+000	3.60066E-004	2.40040E-001	8.98415E-001	3.57770E+000	9	...........
	100	1.34667	9.02387E-001	4.01037E-004	0.00000E+000	3.61890E-004	2.40040E-001	9.02684E-001	3.57770E+000	9	...........
	101	1.36	9.06614E-001	4.00233E-004	0.00000E+000	3.62857E-004	2.40040E-001	9.06918E-001	3.57770E+000	9	...........
	102	1.37333	9.10767E-001	4.00979E-004	0.00000E+000	3.65199E-004	2.40040E-001	9.11089E-001	3.57770E+000	9	...........
	103	1.38667	9.14941E-001	4.01922E-004	0.00000E+000	3.67735E-004	2.40040E-001	9.15250E-001	3.57770E+000	9	...........
	104	1.4	9.19045E-001	4.01570E-004	0.00000E+000	3.69061E-004	2.40040E-001	9.19384E-001	3.57770E+000	9	...........
	105	1.41333	9.23181E-001	3.99832E-004	0.00000E+000	3.69118E-004	2.40040E-001	9.23467E-001	3.57770E+000	9	...........
	106	1.42667	9.27234E-001	4.01595E-004	0.00000E+000	3.72373E-004	2.40040E-001	9.27503E-001	3.57770E+000	9	...........
	107	1.44	9.31193E-001	4.02141E-004	0.00000E+000	3.74471E-004	2.40040E-001	9.31433E-001	3.57770E+000	9	...........
	108	1.45333	9.35126E-001	3.99686E-004	0.00000E+000	3.73757E-004	2.40040E-001	9.35403E-001	3.57770E+000	9	...........
	109	1.46667	9.39087E-001	4.00689E-004	0.00000E+000	3.76282E-004	2.40040E-001	9.39375E-001	3.57770E+000	9	...........
	110	1.48	9.42977E-001	4.01899E-004	0.00000E+000	3.78982E-004	2.40040E-001	9.43256E-001	3.57770E+000	9	...........
	111	1.49333	9.46850E-001	4.01882E-004	0.00000E+000	3.80522E-004	2.40040E-001	9.47151E-001	3.57770E+000	9	...........
	112	1.50667	9.50697E-001	4.00118E-004	0.00000E+000	3.80391E-004	2.40040E-001	9.50981E-001	3.57770E+000	9	...........
	113	1.52	9.54559E-001	4.00676E-004	0.00000E+000	3.82469E-004	2.40040E-001	9.54854E-001	3.57770E+000	9	...........
	114	1.53333	9.58354E-001	4.00527E-004	0.00000E+000	3.83847E-004	2.40040E-001	9.58651E-001	3.57770E+000	9	...........
	115	1.54667	9.62036E-001	4.01580E-004	0.00000E+000	3.86334E-004	2.40040E-001	9.62355E-001	3.57770E+000	9	...........
	116	1.56	9.65686E-001	4.01277E-004	0.00000E+000	3.87508E-004	2.40040E-001	9.65988E-001	3.57770E+000	9	...........
	117	1.57333	9.69313E-001	4.00949E-004	0.00000E+000	3.88645E-004	2.40040E-001	9.69614E-001	3.57770E+000	9	...........
	118	1.58667	9.72957E-001	4.00515E-004	0.00000E+000	3.89684E-004	2.40040E-001	9.73246E-001	3.57770E+000	9	...........
	119	1.6	9.76570E-001	4.01066E-004	0.00000E+000	3.91669E-004	2.40040E-001	9.76866E-001	3.57770E+000	9	...........
	120	1.61333	9.80091E-001	4.00595E-004	0.00000E+000	3.92620E-004	2.40040E-001	9.80360E-001	3.57770E+000	9	...........
	121	1.62667	9.83530E-001	4.00678E-004	0.00000E+000	3.94079E-004	2.40040E-001	9.83816E-001	3.57770E+000	9	...........
	122	1.64	9.86985E-001	4.00762E-004	0.00000E+000	3.95546E-004	2.40040E-001	9.87252E-001	3.57770E+000	9	...........
	123	1.65333	9.90427E-001	4.01370E-004	0.00000E+000	3.97528E-004	2.40040E-001	9.90704E-001	3.57643E+000	9	...........
	124	1.66667	9.93822E-001	4.01133E-004	0.00000E+000	3.98655E-004	2.40040E-001	9.94099E-001	3.57600E+000	9	...........
	125	1.68	9.97220E-001	4.01839E-004	0.00000E+000	4.00722E-004	2.40040E-001	9.97510E-001	3.57600E+000	9	...........
	126	1.68667	9.99756E-001	4.00881E-004	0.00000E+000	4.00784E-004	2.40040E-001	1.00007E+000	3.57600E+000	9	...........
STARTTIMEOFFSET	QUANT	919.6268	Start Time Offset (s)
