EXPLAIN
TAG	PWR800_CHARGE
TITLE	LABEL	PWR Cyclic Charge Discharge (Cell) - Charge Step	Test &Identifier
DATE	LABEL	12-7-2017	Date
TIME	LABEL	14:27:59	Time
NOTES	NOTES	3	&Notes...
	supercap test cell
	0.4mg
	6M KOH
PSTAT	PSTAT	IFC5000-01520	Potentiostat
CAPACITY	QUANT	1.00000E-003	Capacity (A-hr)
CELLTYPE	SELECTOR	1	&Cell Type
WORKINGCONNECTION	SELECTOR	0	&Working Lead
MAXCHARGETIME	VARIABLEANDUNITS	1.00000E+002	s	1.00000E+002	second(s)	Max &Charge Time
CHARGECURRENT	QUANT	4.00000E-004	&Charge Current (A) 
VOLTAGEFINISH	TWOPARAM	F	1.00000E-003	3.60000E+003	&Voltage Finish	 I (A) < 	Max Time(s)
SAMPLETIME	QUANT	1.00000E-002	Sa&mple Period (s)
CHARGESTOPAT1	MULTIPARAM	4	1.00000E+000	Charge Stop At &1	Voltage > Limit	V
CHARGESTOPAT2	MULTIPARAM	0	0.00000E+000	Charge Stop At &2	None	N/A
AESBHCSELECTOR	TOGGLE	F	Save Both Half Cells
IRCOMP	TOGGLE	F	IR &Measure
EOC	QUANT	0	Open Circuit (V)
SEQUENCER	TOGGLE	TRUE	Run as Sequence
PSTATMODEL	IQUANT	53	Pstat Model
PSTATSECTION	LABEL	IFC5000-01520	Pstat Section
PSTATSERIALNO	LABEL	01520	Pstat Serial Number
CTRLMODE	IQUANT	0	Control Mode
ELECTROMETER	IQUANT	1	RE=0 or CS=1
IESTAB	IQUANT	0	I/E Stability
CASPEED	IQUANT	4	Control Amp Speed
CONVENTION	IQUANT	1	Current Convention
ICHRANGE	IQUANT	2	Ich Range
ICHRANGEMODE	TOGGLE	T	Ich Auto Range
ICHOFFSETENABLE	TOGGLE	F	Ich Offset Enable
ICHOFFSET	QUANT	0	Ich Offset (V)
ICHFILTER	IQUANT	1	Ich Filter
VCHRANGE	IQUANT	2	Vch Range
VCHRANGEMODE	TOGGLE	T	Vch Auto Range
VCHOFFSETENABLE	TOGGLE	F	Vch Offset Enable
VCHOFFSET	QUANT	0	Vch Offset (V)
VCHFILTER	IQUANT	1	Vch Filter
IERANGELOWERLIMIT	IQUANT	9	I/E Range Lower Limit
IERANGEMODE	TOGGLE	F	I/E AutoRange
IERANGE	IQUANT	9	I/E Range
ACHSELECT	IQUANT	1	Ach Select
ACHRANGE	IQUANT	2	Ach Range
ACHOFFSETENABLE	TOGGLE	F	Ach Offset Enable
ACHOFFSET	QUANT	0	Ach Offset (V)
ACHFILTER	IQUANT	1	Ach Filter
CABLEID	IQUANT	14	Cable ID
DCCALDATE	LABEL	5-7-2017	DC Calibration Date
ACCALDATE	LABEL	12/3/2015	AC Calibration Date
FRAMEWORKVERSION	QUANT	7.01	Framework Version
INSTRUMENTVERSION	LABEL	4.00	Instrument Version
CURVE	TABLE	136
	Pt	T	Vf	Im	Vu	Pwr	Sig	Ach	Temp	IERange	Over
	#	s	V	A	V	W	V	V	deg C	#	bits
	0	0.013333	3.38518E-001	4.00921E-004	0.00000E+000	1.35719E-004	2.40040E-001	3.38603E-001	3.57730E+000	9	...........
	1	0.026667	3.48656E-001	4.01059E-004	0.00000E+000	1.39831E-004	2.40040E-001	3.48721E-001	3.57730E+000	9	...........
	2	0.04	3.57476E-001	4.01383E-004	0.00000E+000	1.43485E-004	2.40040E-001	3.57547E-001	3.57730E+000	9	...........
	3	0.053333	3.65496E-001	3.99928E-004	0.00000E+000	1.46172E-004	2.40040E-001	3.65571E-001	3.57730E+000	9	...........
	4	0.066667	3.73046E-001	4.00933E-004	0.00000E+000	1.49566E-004	2.40040E-001	3.73115E-001	3.57730E+000	9	...........
	5	0.08	3.80195E-001	4.01118E-004	0.00000E+000	1.52503E-004	2.40040E-001	3.80270E-001	3.57730E+000	9	...........
	6	0.093333	3.87153E-001	4.00326E-004	0.00000E+000	1.54987E-004	2.40040E-001	3.87235E-001	3.57730E+000	9	...........
	7	0.106667	3.93914E-001	4.01575E-004	0.00000E+000	1.58186E-004	2.40040E-001	3.93989E-001	3.57730E+000	9	...........
	8	0.12	4.00417E-001	4.00602E-004	0.00000E+000	1.60408E-004	2.40040E-001	4.00493E-001	3.57730E+000	9	...........
	9	0.133333	4.06767E-001	4.01664E-004	0.00000E+000	1.63384E-004	2.40040E-001	4.06852E-001	3.57730E+000	9	...........
	10	0.146667	4.13041E-001	3.99927E-004	0.00000E+000	1.65186E-004	2.40040E-001	4.13127E-001	3.57730E+000	9	...........
	11	0.16	4.19356E-001	4.00809E-004	0.00000E+000	1.68081E-004	2.40040E-001	4.19439E-001	3.57730E+000	9	...........
	12	0.173333	4.25514E-001	4.01635E-004	0.00000E+000	1.70901E-004	2.40040E-001	4.25601E-001	3.57730E+000	9	...........
	13	0.186667	4.31567E-001	4.01620E-004	0.00000E+000	1.73326E-004	2.40040E-001	4.31649E-001	3.57730E+000	9	...........
	14	0.2	4.37523E-001	4.00756E-004	0.00000E+000	1.75340E-004	2.40040E-001	4.37601E-001	3.57730E+000	9	...........
	15	0.213333	4.43366E-001	4.00486E-004	0.00000E+000	1.77561E-004	2.40040E-001	4.43450E-001	3.57730E+000	9	...........
	16	0.226667	4.49201E-001	4.00949E-004	0.00000E+000	1.80107E-004	2.40040E-001	4.49293E-001	3.57730E+000	9	...........
	17	0.24	4.55084E-001	4.00750E-004	0.00000E+000	1.82375E-004	2.40040E-001	4.55176E-001	3.57730E+000	9	...........
	18	0.253333	4.60862E-001	4.00902E-004	0.00000E+000	1.84761E-004	2.40040E-001	4.60956E-001	3.57730E+000	9	...........
	19	0.266667	4.66537E-001	4.01490E-004	0.00000E+000	1.87310E-004	2.40040E-001	4.66625E-001	3.57730E+000	9	...........
	20	0.28	4.72213E-001	4.00512E-004	0.00000E+000	1.89127E-004	2.40040E-001	4.72307E-001	3.57730E+000	9	...........
	21	0.293333	4.77820E-001	4.01021E-004	0.00000E+000	1.91616E-004	2.40040E-001	4.77919E-001	3.57730E+000	9	...........
	22	0.306667	4.83375E-001	4.00088E-004	0.00000E+000	1.93392E-004	2.40040E-001	4.83468E-001	3.57730E+000	9	...........
	23	0.32	4.88967E-001	4.00595E-004	0.00000E+000	1.95878E-004	2.40040E-001	4.89062E-001	3.57730E+000	9	...........
	24	0.333333	4.94502E-001	3.99966E-004	0.00000E+000	1.97784E-004	2.40040E-001	4.94602E-001	3.57730E+000	9	...........
	25	0.346667	5.00006E-001	4.00891E-004	0.00000E+000	2.00448E-004	2.40040E-001	5.00109E-001	3.57730E+000	9	...........
	26	0.36	5.05500E-001	4.01241E-004	0.00000E+000	2.02827E-004	2.40040E-001	5.05596E-001	3.57730E+000	9	...........
	27	0.373333	5.10995E-001	4.00484E-004	0.00000E+000	2.04646E-004	2.40040E-001	5.11102E-001	3.57730E+000	9	...........
	28	0.386667	5.16453E-001	4.01041E-004	0.00000E+000	2.07119E-004	2.40040E-001	5.16557E-001	3.57730E+000	9	...........
	29	0.4	5.21879E-001	4.00746E-004	0.00000E+000	2.09141E-004	2.40040E-001	5.21984E-001	3.57730E+000	9	...........
	30	0.413333	5.27313E-001	4.00531E-004	0.00000E+000	2.11205E-004	2.40040E-001	5.27420E-001	3.57730E+000	9	...........
	31	0.426667	5.32651E-001	4.00550E-004	0.00000E+000	2.13354E-004	2.40040E-001	5.32749E-001	3.57730E+000	9	...........
	32	0.44	5.37753E-001	4.00900E-004	0.00000E+000	2.15585E-004	2.40040E-001	5.37967E-001	3.57730E+000	9	...........
	33	0.453333	5.43078E-001	4.00217E-004	0.00000E+000	2.17349E-004	2.40040E-001	5.43285E-001	3.57730E+000	9	...........
	34	0.466667	5.48444E-001	4.00797E-004	0.00000E+000	2.19815E-004	2.40040E-001	5.48650E-001	3.57730E+000	9	...........
	35	0.48	5.53682E-001	4.00596E-004	0.00000E+000	2.21803E-004	2.40040E-001	5.53912E-001	3.57730E+000	9	...........
	36	0.493333	5.59063E-001	4.01110E-004	0.00000E+000	2.24246E-004	2.40040E-001	5.59305E-001	3.57730E+000	9	...........
	37	0.506667	5.64429E-001	4.00714E-004	0.00000E+000	2.26174E-004	2.40040E-001	5.64635E-001	3.57730E+000	9	...........
	38	0.52	5.69712E-001	4.01800E-004	0.00000E+000	2.28910E-004	2.40040E-001	5.69924E-001	3.57730E+000	9	...........
	39	0.533333	5.74985E-001	4.02761E-004	0.00000E+000	2.31582E-004	2.40040E-001	5.75208E-001	3.57730E+000	9	...........
	40	0.546667	5.80222E-001	4.01178E-004	0.00000E+000	2.32773E-004	2.40040E-001	5.80453E-001	3.57730E+000	9	...........
	41	0.56	5.85429E-001	4.00589E-004	0.00000E+000	2.34516E-004	2.40040E-001	5.85678E-001	3.57730E+000	9	...........
	42	0.573333	5.90697E-001	4.01409E-004	0.00000E+000	2.37111E-004	2.40040E-001	5.90945E-001	3.57820E+000	9	...........
	43	0.586667	5.95890E-001	4.01285E-004	0.00000E+000	2.39122E-004	2.40040E-001	5.96146E-001	3.57910E+000	9	...........
	44	0.6	6.00938E-001	4.00656E-004	0.00000E+000	2.40770E-004	2.40040E-001	6.01235E-001	3.57910E+000	9	...........
	45	0.613333	6.06055E-001	4.01636E-004	0.00000E+000	2.43414E-004	2.40040E-001	6.06343E-001	3.57910E+000	9	...........
	46	0.626667	6.11161E-001	4.00802E-004	0.00000E+000	2.44955E-004	2.40040E-001	6.11449E-001	3.57910E+000	9	...........
	47	0.64	6.16462E-001	4.00223E-004	0.00000E+000	2.46722E-004	2.40040E-001	6.16701E-001	3.57910E+000	9	...........
	48	0.653333	6.21574E-001	4.02092E-004	0.00000E+000	2.49930E-004	2.40040E-001	6.21816E-001	3.57910E+000	9	...........
	49	0.666667	6.26659E-001	4.02083E-004	0.00000E+000	2.51969E-004	2.40040E-001	6.26916E-001	3.57910E+000	9	...........
	50	0.68	6.31695E-001	4.01439E-004	0.00000E+000	2.53587E-004	2.40040E-001	6.31956E-001	3.57910E+000	9	...........
	51	0.693333	6.36816E-001	4.00479E-004	0.00000E+000	2.55031E-004	2.40040E-001	6.37083E-001	3.57910E+000	9	...........
	52	0.706667	6.41982E-001	4.01273E-004	0.00000E+000	2.57610E-004	2.40040E-001	6.42222E-001	3.57910E+000	9	...........
	53	0.72	6.47066E-001	4.01166E-004	0.00000E+000	2.59581E-004	2.40040E-001	6.47308E-001	3.57910E+000	9	...........
	54	0.733333	6.52116E-001	4.02873E-004	0.00000E+000	2.62720E-004	2.40040E-001	6.52359E-001	3.57910E+000	9	...........
	55	0.746667	6.57259E-001	4.01036E-004	0.00000E+000	2.63584E-004	2.40040E-001	6.57495E-001	3.57910E+000	9	...........
	56	0.76	6.62295E-001	4.00457E-004	0.00000E+000	2.65221E-004	2.40040E-001	6.62532E-001	3.57910E+000	9	...........
	57	0.773333	6.67322E-001	4.01959E-004	0.00000E+000	2.68236E-004	2.40040E-001	6.67542E-001	3.57910E+000	9	...........
	58	0.786667	6.72367E-001	4.01809E-004	0.00000E+000	2.70163E-004	2.40040E-001	6.72578E-001	3.57910E+000	9	...........
	59	0.8	6.77381E-001	4.01672E-004	0.00000E+000	2.72085E-004	2.40040E-001	6.77614E-001	3.57910E+000	9	...........
	60	0.813333	6.82425E-001	4.00552E-004	0.00000E+000	2.73347E-004	2.40040E-001	6.82667E-001	3.57910E+000	9	...........
	61	0.826667	6.87407E-001	4.01452E-004	0.00000E+000	2.75961E-004	2.40040E-001	6.87660E-001	3.57910E+000	9	...........
	62	0.84	6.92425E-001	4.01026E-004	0.00000E+000	2.77681E-004	2.40040E-001	6.92670E-001	3.57910E+000	9	...........
	63	0.853333	6.97359E-001	4.00475E-004	0.00000E+000	2.79275E-004	2.40040E-001	6.97607E-001	3.57910E+000	9	...........
	64	0.866667	7.02308E-001	4.00879E-004	0.00000E+000	2.81541E-004	2.40040E-001	7.02534E-001	3.57910E+000	9	...........
	65	0.88	7.07294E-001	4.00765E-004	0.00000E+000	2.83459E-004	2.40040E-001	7.07544E-001	3.57910E+000	9	...........
	66	0.893333	7.12283E-001	4.01617E-004	0.00000E+000	2.86065E-004	2.40040E-001	7.12488E-001	3.57910E+000	9	...........
	67	0.906667	7.17178E-001	3.99920E-004	0.00000E+000	2.86814E-004	2.40040E-001	7.17420E-001	3.57910E+000	9	...........
	68	0.92	7.22098E-001	4.01723E-004	0.00000E+000	2.90084E-004	2.40040E-001	7.22324E-001	3.57910E+000	9	...........
	69	0.933333	7.27044E-001	4.00151E-004	0.00000E+000	2.90927E-004	2.40040E-001	7.27243E-001	3.57910E+000	9	...........
	70	0.946667	7.31854E-001	4.01754E-004	0.00000E+000	2.94025E-004	2.40040E-001	7.32103E-001	3.57910E+000	9	...........
	71	0.96	7.36634E-001	4.02412E-004	0.00000E+000	2.96430E-004	2.40040E-001	7.36883E-001	3.57910E+000	9	...........
	72	0.97333	7.41478E-001	4.01807E-004	0.00000E+000	2.97931E-004	2.40040E-001	7.41740E-001	3.57910E+000	9	...........
	73	0.98667	7.46227E-001	4.00182E-004	0.00000E+000	2.98627E-004	2.40040E-001	7.46490E-001	3.57910E+000	9	...........
	74	1	7.50971E-001	4.00418E-004	0.00000E+000	3.00702E-004	2.40040E-001	7.51224E-001	3.57910E+000	9	...........
	75	1.01333	7.55773E-001	4.01790E-004	0.00000E+000	3.03662E-004	2.40040E-001	7.56027E-001	3.57910E+000	9	...........
	76	1.02667	7.60583E-001	4.01308E-004	0.00000E+000	3.05228E-004	2.40040E-001	7.60819E-001	3.57910E+000	9	...........
	77	1.04	7.65337E-001	4.01331E-004	0.00000E+000	3.07153E-004	2.40040E-001	7.65589E-001	3.57910E+000	9	...........
	78	1.05333	7.70000E-001	4.00525E-004	0.00000E+000	3.08404E-004	2.40040E-001	7.70254E-001	3.57910E+000	9	...........
	79	1.06667	7.74685E-001	4.00730E-004	0.00000E+000	3.10440E-004	2.40040E-001	7.74919E-001	3.57910E+000	9	...........
	80	1.08	7.79420E-001	4.01462E-004	0.00000E+000	3.12907E-004	2.40040E-001	7.79672E-001	3.57910E+000	9	...........
	81	1.09333	7.84089E-001	4.01676E-004	0.00000E+000	3.14950E-004	2.40040E-001	7.84340E-001	3.57910E+000	9	...........
	82	1.10667	7.88743E-001	4.00582E-004	0.00000E+000	3.15957E-004	2.40040E-001	7.88999E-001	3.57910E+000	9	...........
	83	1.12	7.93440E-001	4.00558E-004	0.00000E+000	3.17819E-004	2.40040E-001	7.93710E-001	3.57910E+000	9	...........
	84	1.13333	7.98078E-001	4.01152E-004	0.00000E+000	3.20151E-004	2.40040E-001	7.98350E-001	3.57910E+000	9	...........
	85	1.14667	8.02669E-001	3.99815E-004	0.00000E+000	3.20919E-004	2.40040E-001	8.02915E-001	3.57910E+000	9	...........
	86	1.16	8.07267E-001	3.99735E-004	0.00000E+000	3.22693E-004	2.40040E-001	8.07546E-001	3.57910E+000	9	...........
	87	1.17333	8.11869E-001	4.01099E-004	0.00000E+000	3.25640E-004	2.40040E-001	8.12155E-001	3.57910E+000	9	...........
	88	1.18667	8.16428E-001	4.00605E-004	0.00000E+000	3.27065E-004	2.40040E-001	8.16697E-001	3.57910E+000	9	...........
	89	1.2	8.20937E-001	4.00268E-004	0.00000E+000	3.28595E-004	2.40040E-001	8.21218E-001	3.57910E+000	9	...........
	90	1.21333	8.25448E-001	4.02005E-004	0.00000E+000	3.31834E-004	2.40040E-001	8.25723E-001	3.57910E+000	9	...........
	91	1.22667	8.29881E-001	4.00778E-004	0.00000E+000	3.32598E-004	2.40040E-001	8.30165E-001	3.57910E+000	9	...........
	92	1.24	8.34310E-001	4.00737E-004	0.00000E+000	3.34338E-004	2.40040E-001	8.34595E-001	3.57910E+000	9	...........
	93	1.25333	8.38764E-001	4.01648E-004	0.00000E+000	3.36888E-004	2.40040E-001	8.39055E-001	3.57910E+000	9	...........
	94	1.26667	8.43176E-001	4.00005E-004	0.00000E+000	3.37275E-004	2.40040E-001	8.43472E-001	3.57910E+000	9	...........
	95	1.28	8.47563E-001	4.01562E-004	0.00000E+000	3.40349E-004	2.40040E-001	8.47854E-001	3.57910E+000	9	...........
	96	1.29333	8.51940E-001	4.02040E-004	0.00000E+000	3.42514E-004	2.40040E-001	8.52223E-001	3.57910E+000	9	...........
	97	1.30667	8.56244E-001	4.01487E-004	0.00000E+000	3.43771E-004	2.40040E-001	8.56554E-001	3.57910E+000	9	...........
	98	1.32	8.60518E-001	4.00778E-004	0.00000E+000	3.44877E-004	2.40040E-001	8.60811E-001	3.57910E+000	9	...........
	99	1.33333	8.64737E-001	4.01762E-004	0.00000E+000	3.47418E-004	2.40040E-001	8.65056E-001	3.57910E+000	9	...........
	100	1.34667	8.68978E-001	4.00661E-004	0.00000E+000	3.48165E-004	2.40040E-001	8.69298E-001	3.57910E+000	9	...........
	101	1.36	8.73229E-001	4.00953E-004	0.00000E+000	3.50124E-004	2.40040E-001	8.73529E-001	3.57910E+000	9	...........
	102	1.37333	8.77441E-001	4.01363E-004	0.00000E+000	3.52172E-004	2.40040E-001	8.77734E-001	3.57910E+000	9	...........
	103	1.38667	8.81589E-001	4.01114E-004	0.00000E+000	3.53617E-004	2.40040E-001	8.81906E-001	3.57910E+000	9	...........
	104	1.4	8.85779E-001	4.01928E-004	0.00000E+000	3.56019E-004	2.40040E-001	8.86078E-001	3.57910E+000	9	...........
	105	1.41333	8.89854E-001	4.00832E-004	0.00000E+000	3.56682E-004	2.40040E-001	8.90173E-001	3.57910E+000	9	...........
	106	1.42667	8.93909E-001	4.00088E-004	0.00000E+000	3.57642E-004	2.40040E-001	8.94217E-001	3.57910E+000	9	...........
	107	1.44	8.98045E-001	4.01092E-004	0.00000E+000	3.60198E-004	2.40040E-001	8.98327E-001	3.57910E+000	9	...........
	108	1.45333	9.02052E-001	4.00416E-004	0.00000E+000	3.61196E-004	2.40040E-001	9.02359E-001	3.57910E+000	9	...........
	109	1.46667	9.06000E-001	4.00564E-004	0.00000E+000	3.62911E-004	2.40040E-001	9.06303E-001	3.57910E+000	9	...........
	110	1.48	9.09960E-001	3.99983E-004	0.00000E+000	3.63969E-004	2.40040E-001	9.10240E-001	3.57910E+000	9	...........
	111	1.49333	9.13954E-001	4.00893E-004	0.00000E+000	3.66398E-004	2.40040E-001	9.14264E-001	3.57910E+000	9	...........
	112	1.50667	9.17889E-001	4.01078E-004	0.00000E+000	3.68146E-004	2.40040E-001	9.18182E-001	3.57910E+000	9	...........
	113	1.52	9.21877E-001	4.01767E-004	0.00000E+000	3.70380E-004	2.40040E-001	9.22129E-001	3.57910E+000	9	...........
	114	1.53333	9.25764E-001	4.02307E-004	0.00000E+000	3.72441E-004	2.40040E-001	9.26015E-001	3.57910E+000	9	...........
	115	1.54667	9.29519E-001	4.00262E-004	0.00000E+000	3.72051E-004	2.40040E-001	9.29797E-001	3.57910E+000	9	...........
	116	1.56	9.33273E-001	4.01981E-004	0.00000E+000	3.75158E-004	2.40040E-001	9.33549E-001	3.57910E+000	9	...........
	117	1.57333	9.37014E-001	4.02133E-004	0.00000E+000	3.76804E-004	2.40040E-001	9.37304E-001	3.57760E+000	9	...........
	118	1.58667	9.40782E-001	4.00554E-004	0.00000E+000	3.76834E-004	2.40040E-001	9.41023E-001	3.57610E+000	9	...........
	119	1.6	9.44447E-001	3.99382E-004	0.00000E+000	3.77195E-004	2.40040E-001	9.44734E-001	3.57610E+000	9	...........
	120	1.61333	9.48198E-001	4.01969E-004	0.00000E+000	3.81146E-004	2.40040E-001	9.48466E-001	3.57610E+000	9	...........
	121	1.62667	9.51829E-001	4.01009E-004	0.00000E+000	3.81692E-004	2.40040E-001	9.52103E-001	3.57610E+000	9	...........
	122	1.64	9.55430E-001	3.99693E-004	0.00000E+000	3.81878E-004	2.40040E-001	9.55670E-001	3.57610E+000	9	...........
	123	1.65333	9.58996E-001	4.00904E-004	0.00000E+000	3.84466E-004	2.40040E-001	9.59285E-001	3.57610E+000	9	...........
	124	1.66667	9.62536E-001	4.00179E-004	0.00000E+000	3.85187E-004	2.40040E-001	9.62833E-001	3.57610E+000	9	...........
	125	1.68	9.66001E-001	4.01098E-004	0.00000E+000	3.87461E-004	2.40040E-001	9.66306E-001	3.57610E+000	9	...........
	126	1.69333	9.69487E-001	4.02179E-004	0.00000E+000	3.89907E-004	2.40040E-001	9.69771E-001	3.57610E+000	9	...........
	127	1.70667	9.72964E-001	4.00320E-004	0.00000E+000	3.89497E-004	2.40040E-001	9.73260E-001	3.57610E+000	9	...........
	128	1.72	9.76411E-001	4.03081E-004	0.00000E+000	3.93573E-004	2.40040E-001	9.76709E-001	3.57610E+000	9	...........
	129	1.73333	9.79782E-001	4.01051E-004	0.00000E+000	3.92943E-004	2.40040E-001	9.80089E-001	3.57610E+000	9	...........
	130	1.74667	9.83085E-001	4.00138E-004	0.00000E+000	3.93369E-004	2.40040E-001	9.83392E-001	3.57610E+000	9	...........
	131	1.76	9.86390E-001	4.01096E-004	0.00000E+000	3.95637E-004	2.40040E-001	9.86719E-001	3.57610E+000	9	...........
	132	1.77333	9.89648E-001	3.99627E-004	0.00000E+000	3.95490E-004	2.40040E-001	9.89937E-001	3.57610E+000	9	...........
	133	1.78667	9.92862E-001	4.01036E-004	0.00000E+000	3.98173E-004	2.40040E-001	9.93207E-001	3.57610E+000	9	...........
	134	1.8	9.96098E-001	4.01252E-004	0.00000E+000	3.99687E-004	2.40040E-001	9.96431E-001	3.57610E+000	9	...........
	135	1.81167	9.99057E-001	4.00899E-004	0.00000E+000	4.00521E-004	2.40040E-001	9.99395E-001	3.57610E+000	9	...........
STARTTIMEOFFSET	QUANT	451.9017	Start Time Offset (s)
