EXPLAIN
TAG	PWR800_CHARGE
TITLE	LABEL	PWR Cyclic Charge Discharge (Cell) - Charge Step	Test &Identifier
DATE	LABEL	12-7-2017	Date
TIME	LABEL	14:50:39	Time
NOTES	NOTES	3	&Notes...
	supercap test cell
	0.4mg
	6M KOH
PSTAT	PSTAT	IFC5000-01520	Potentiostat
CAPACITY	QUANT	1.00000E-003	Capacity (A-hr)
CELLTYPE	SELECTOR	1	&Cell Type
WORKINGCONNECTION	SELECTOR	0	&Working Lead
MAXCHARGETIME	VARIABLEANDUNITS	1.00000E+002	s	1.00000E+002	second(s)	Max &Charge Time
CHARGECURRENT	QUANT	4.00000E-004	&Charge Current (A) 
VOLTAGEFINISH	TWOPARAM	F	1.00000E-003	3.60000E+003	&Voltage Finish	 I (A) < 	Max Time(s)
SAMPLETIME	QUANT	1.00000E-002	Sa&mple Period (s)
CHARGESTOPAT1	MULTIPARAM	4	1.00000E+000	Charge Stop At &1	Voltage > Limit	V
CHARGESTOPAT2	MULTIPARAM	0	0.00000E+000	Charge Stop At &2	None	N/A
AESBHCSELECTOR	TOGGLE	F	Save Both Half Cells
IRCOMP	TOGGLE	F	IR &Measure
EOC	QUANT	0	Open Circuit (V)
SEQUENCER	TOGGLE	TRUE	Run as Sequence
PSTATMODEL	IQUANT	53	Pstat Model
PSTATSECTION	LABEL	IFC5000-01520	Pstat Section
PSTATSERIALNO	LABEL	01520	Pstat Serial Number
CTRLMODE	IQUANT	0	Control Mode
ELECTROMETER	IQUANT	1	RE=0 or CS=1
IESTAB	IQUANT	0	I/E Stability
CASPEED	IQUANT	4	Control Amp Speed
CONVENTION	IQUANT	1	Current Convention
ICHRANGE	IQUANT	2	Ich Range
ICHRANGEMODE	TOGGLE	T	Ich Auto Range
ICHOFFSETENABLE	TOGGLE	F	Ich Offset Enable
ICHOFFSET	QUANT	0	Ich Offset (V)
ICHFILTER	IQUANT	1	Ich Filter
VCHRANGE	IQUANT	2	Vch Range
VCHRANGEMODE	TOGGLE	T	Vch Auto Range
VCHOFFSETENABLE	TOGGLE	F	Vch Offset Enable
VCHOFFSET	QUANT	0	Vch Offset (V)
VCHFILTER	IQUANT	1	Vch Filter
IERANGELOWERLIMIT	IQUANT	9	I/E Range Lower Limit
IERANGEMODE	TOGGLE	F	I/E AutoRange
IERANGE	IQUANT	9	I/E Range
ACHSELECT	IQUANT	1	Ach Select
ACHRANGE	IQUANT	2	Ach Range
ACHOFFSETENABLE	TOGGLE	F	Ach Offset Enable
ACHOFFSET	QUANT	0	Ach Offset (V)
ACHFILTER	IQUANT	1	Ach Filter
CABLEID	IQUANT	14	Cable ID
DCCALDATE	LABEL	5-7-2017	DC Calibration Date
ACCALDATE	LABEL	12/3/2015	AC Calibration Date
FRAMEWORKVERSION	QUANT	7.01	Framework Version
INSTRUMENTVERSION	LABEL	4.00	Instrument Version
CURVE	TABLE	118
	Pt	T	Vf	Im	Vu	Pwr	Sig	Ach	Temp	IERange	Over
	#	s	V	A	V	W	V	V	deg C	#	bits
	0	0.013333	3.64994E-001	4.01349E-004	0.00000E+000	1.46490E-004	2.40040E-001	3.65091E-001	3.57650E+000	9	...........
	1	0.026667	3.76496E-001	4.01199E-004	0.00000E+000	1.51050E-004	2.40040E-001	3.76576E-001	3.57650E+000	9	...........
	2	0.04	3.86436E-001	4.01439E-004	0.00000E+000	1.55130E-004	2.40040E-001	3.86512E-001	3.57650E+000	9	...........
	3	0.053333	3.95516E-001	4.00490E-004	0.00000E+000	1.58400E-004	2.40040E-001	3.95588E-001	3.57650E+000	9	...........
	4	0.066667	4.04032E-001	4.00595E-004	0.00000E+000	1.61853E-004	2.40040E-001	4.04109E-001	3.57650E+000	9	...........
	5	0.08	4.12086E-001	4.01279E-004	0.00000E+000	1.65361E-004	2.40040E-001	4.12167E-001	3.57650E+000	9	...........
	6	0.093333	4.19791E-001	4.00964E-004	0.00000E+000	1.68321E-004	2.40040E-001	4.19872E-001	3.57650E+000	9	...........
	7	0.106667	4.27246E-001	4.01023E-004	0.00000E+000	1.71336E-004	2.40040E-001	4.27337E-001	3.57650E+000	9	...........
	8	0.12	4.34562E-001	4.01127E-004	0.00000E+000	1.74315E-004	2.40040E-001	4.34654E-001	3.57650E+000	9	...........
	9	0.133333	4.41654E-001	4.00930E-004	0.00000E+000	1.77073E-004	2.40040E-001	4.41740E-001	3.57650E+000	9	...........
	10	0.146667	4.48682E-001	4.02214E-004	0.00000E+000	1.80466E-004	2.40040E-001	4.48765E-001	3.57650E+000	9	...........
	11	0.16	4.55584E-001	4.00846E-004	0.00000E+000	1.82619E-004	2.40040E-001	4.55670E-001	3.57650E+000	9	...........
	12	0.173333	4.62359E-001	4.00429E-004	0.00000E+000	1.85142E-004	2.40040E-001	4.62446E-001	3.57650E+000	9	...........
	13	0.186667	4.69122E-001	4.00183E-004	0.00000E+000	1.87735E-004	2.40040E-001	4.69211E-001	3.57650E+000	9	...........
	14	0.2	4.75772E-001	4.00547E-004	0.00000E+000	1.90569E-004	2.40040E-001	4.75863E-001	3.57650E+000	9	...........
	15	0.213333	4.82270E-001	4.00902E-004	0.00000E+000	1.93343E-004	2.40040E-001	4.82362E-001	3.57650E+000	9	...........
	16	0.226667	4.88674E-001	3.99992E-004	0.00000E+000	1.95466E-004	2.40040E-001	4.88774E-001	3.57650E+000	9	...........
	17	0.24	4.95091E-001	4.00748E-004	0.00000E+000	1.98407E-004	2.40040E-001	4.95194E-001	3.57650E+000	9	...........
	18	0.253333	5.01497E-001	4.00929E-004	0.00000E+000	2.01065E-004	2.40040E-001	5.01604E-001	3.57650E+000	9	...........
	19	0.266667	5.07775E-001	3.99825E-004	0.00000E+000	2.03021E-004	2.40040E-001	5.07875E-001	3.57650E+000	9	...........
	20	0.28	5.14064E-001	4.01265E-004	0.00000E+000	2.06276E-004	2.40040E-001	5.14164E-001	3.57650E+000	9	...........
	21	0.293333	5.20317E-001	4.01644E-004	0.00000E+000	2.08982E-004	2.40040E-001	5.20420E-001	3.57650E+000	9	...........
	22	0.306667	5.26555E-001	3.99828E-004	0.00000E+000	2.10531E-004	2.40040E-001	5.26664E-001	3.57650E+000	9	...........
	23	0.32	5.32598E-001	4.00774E-004	0.00000E+000	2.13451E-004	2.40040E-001	5.32747E-001	3.57650E+000	9	...........
	24	0.333333	5.38629E-001	4.00816E-004	0.00000E+000	2.15891E-004	2.40040E-001	5.38817E-001	3.57650E+000	9	...........
	25	0.346667	5.44647E-001	4.00881E-004	0.00000E+000	2.18339E-004	2.40040E-001	5.44845E-001	3.57650E+000	9	...........
	26	0.36	5.50596E-001	4.00483E-004	0.00000E+000	2.20505E-004	2.40040E-001	5.50849E-001	3.57650E+000	9	...........
	27	0.373333	5.56627E-001	3.99692E-004	0.00000E+000	2.22479E-004	2.40040E-001	5.56837E-001	3.57650E+000	9	...........
	28	0.386667	5.62639E-001	4.00507E-004	0.00000E+000	2.25341E-004	2.40040E-001	5.62846E-001	3.57650E+000	9	...........
	29	0.4	5.68607E-001	4.00108E-004	0.00000E+000	2.27504E-004	2.40040E-001	5.68814E-001	3.57650E+000	9	...........
	30	0.413333	5.74557E-001	4.02210E-004	0.00000E+000	2.31093E-004	2.40040E-001	5.74782E-001	3.57650E+000	9	...........
	31	0.426667	5.80485E-001	4.03298E-004	0.00000E+000	2.34108E-004	2.40040E-001	5.80712E-001	3.57650E+000	9	...........
	32	0.44	5.86378E-001	4.02538E-004	0.00000E+000	2.36040E-004	2.40040E-001	5.86617E-001	3.57650E+000	9	...........
	33	0.453333	5.92243E-001	4.00899E-004	0.00000E+000	2.37430E-004	2.40040E-001	5.92455E-001	3.57650E+000	9	...........
	34	0.466667	5.98011E-001	4.01005E-004	0.00000E+000	2.39806E-004	2.40040E-001	5.98232E-001	3.57650E+000	9	...........
	35	0.48	6.03855E-001	4.01439E-004	0.00000E+000	2.42411E-004	2.40040E-001	6.04098E-001	3.57650E+000	9	...........
	36	0.493333	6.09614E-001	4.00203E-004	0.00000E+000	2.43970E-004	2.40040E-001	6.09857E-001	3.57650E+000	9	...........
	37	0.506667	6.15421E-001	4.00287E-004	0.00000E+000	2.46345E-004	2.40040E-001	6.15641E-001	3.57650E+000	9	...........
	38	0.52	6.21171E-001	4.00522E-004	0.00000E+000	2.48793E-004	2.40040E-001	6.21342E-001	3.57650E+000	9	...........
	39	0.533333	6.26884E-001	4.01649E-004	0.00000E+000	2.51788E-004	2.40040E-001	6.27083E-001	3.57650E+000	9	...........
	40	0.546667	6.32620E-001	4.01146E-004	0.00000E+000	2.53773E-004	2.40040E-001	6.32793E-001	3.57650E+000	9	...........
	41	0.56	6.38360E-001	4.01211E-004	0.00000E+000	2.56117E-004	2.40040E-001	6.38574E-001	3.57650E+000	9	...........
	42	0.573333	6.44017E-001	4.00547E-004	0.00000E+000	2.57959E-004	2.40040E-001	6.44236E-001	3.57650E+000	9	...........
	43	0.586667	6.49700E-001	4.00875E-004	0.00000E+000	2.60449E-004	2.40040E-001	6.49893E-001	3.57650E+000	9	...........
	44	0.6	6.55391E-001	4.00950E-004	0.00000E+000	2.62779E-004	2.40040E-001	6.55577E-001	3.57650E+000	9	...........
	45	0.613333	6.60959E-001	4.01834E-004	0.00000E+000	2.65596E-004	2.40040E-001	6.61163E-001	3.57650E+000	9	...........
	46	0.626667	6.66563E-001	4.01194E-004	0.00000E+000	2.67421E-004	2.40040E-001	6.66807E-001	3.57650E+000	9	...........
	47	0.64	6.72187E-001	4.00735E-004	0.00000E+000	2.69369E-004	2.40040E-001	6.72375E-001	3.57650E+000	9	...........
	48	0.653333	6.77743E-001	3.99085E-004	0.00000E+000	2.70477E-004	2.40040E-001	6.77950E-001	3.57650E+000	9	...........
	49	0.666667	6.83221E-001	4.00779E-004	0.00000E+000	2.73821E-004	2.40040E-001	6.83442E-001	3.57650E+000	9	...........
	50	0.68	6.88750E-001	4.00644E-004	0.00000E+000	2.75943E-004	2.40040E-001	6.88982E-001	3.57650E+000	9	...........
	51	0.693333	6.94337E-001	4.01498E-004	0.00000E+000	2.78775E-004	2.40040E-001	6.94555E-001	3.57650E+000	9	...........
	52	0.706667	6.99846E-001	3.99927E-004	0.00000E+000	2.79887E-004	2.40040E-001	7.00064E-001	3.57650E+000	9	...........
	53	0.72	7.05387E-001	4.01965E-004	0.00000E+000	2.83541E-004	2.40040E-001	7.05608E-001	3.57650E+000	9	...........
	54	0.733333	7.10843E-001	4.00257E-004	0.00000E+000	2.84520E-004	2.40040E-001	7.11060E-001	3.57650E+000	9	...........
	55	0.746667	7.16295E-001	4.00626E-004	0.00000E+000	2.86966E-004	2.40040E-001	7.16525E-001	3.57650E+000	9	...........
	56	0.76	7.21762E-001	4.01283E-004	0.00000E+000	2.89630E-004	2.40040E-001	7.21946E-001	3.57650E+000	9	...........
	57	0.773333	7.27205E-001	4.00553E-004	0.00000E+000	2.91284E-004	2.40040E-001	7.27384E-001	3.57650E+000	9	...........
	58	0.786667	7.32598E-001	4.01060E-004	0.00000E+000	2.93816E-004	2.40040E-001	7.32796E-001	3.57650E+000	9	...........
	59	0.8	7.37947E-001	4.01555E-004	0.00000E+000	2.96326E-004	2.40040E-001	7.38166E-001	3.57650E+000	9	...........
	60	0.813333	7.43306E-001	4.00019E-004	0.00000E+000	2.97336E-004	2.40040E-001	7.43538E-001	3.57650E+000	9	...........
	61	0.826667	7.48623E-001	4.01740E-004	0.00000E+000	3.00752E-004	2.40040E-001	7.48874E-001	3.57650E+000	9	...........
	62	0.84	7.53920E-001	4.01567E-004	0.00000E+000	3.02749E-004	2.40040E-001	7.54161E-001	3.57650E+000	9	...........
	63	0.853333	7.59227E-001	4.00548E-004	0.00000E+000	3.04107E-004	2.40040E-001	7.59446E-001	3.57650E+000	9	...........
	64	0.866667	7.64511E-001	4.00074E-004	0.00000E+000	3.05861E-004	2.40040E-001	7.64759E-001	3.57650E+000	9	...........
	65	0.88	7.69738E-001	4.00238E-004	0.00000E+000	3.08078E-004	2.40040E-001	7.70001E-001	3.57650E+000	9	...........
	66	0.893333	7.74945E-001	4.00702E-004	0.00000E+000	3.10522E-004	2.40040E-001	7.75212E-001	3.57650E+000	9	...........
	67	0.906667	7.80115E-001	4.00636E-004	0.00000E+000	3.12542E-004	2.40040E-001	7.80396E-001	3.57650E+000	9	...........
	68	0.92	7.85204E-001	4.00968E-004	0.00000E+000	3.14842E-004	2.40040E-001	7.85485E-001	3.57650E+000	9	...........
	69	0.933333	7.90380E-001	4.02328E-004	0.00000E+000	3.17992E-004	2.40040E-001	7.90682E-001	3.57650E+000	9	...........
	70	0.946667	7.95544E-001	4.01293E-004	0.00000E+000	3.19246E-004	2.40040E-001	7.95801E-001	3.57650E+000	9	...........
	71	0.96	8.00544E-001	4.01725E-004	0.00000E+000	3.21599E-004	2.40040E-001	8.00805E-001	3.57650E+000	9	...........
	72	0.97333	8.05577E-001	4.00460E-004	0.00000E+000	3.22601E-004	2.40040E-001	8.05820E-001	3.57650E+000	9	...........
	73	0.98667	8.10582E-001	4.02017E-004	0.00000E+000	3.25868E-004	2.40040E-001	8.10838E-001	3.57635E+000	9	...........
	74	1	8.15574E-001	3.99645E-004	0.00000E+000	3.25940E-004	2.40040E-001	8.15856E-001	3.57620E+000	9	...........
	75	1.01333	8.20630E-001	4.00796E-004	0.00000E+000	3.28905E-004	2.40040E-001	8.20908E-001	3.57620E+000	9	...........
	76	1.02667	8.25602E-001	4.02082E-004	0.00000E+000	3.31959E-004	2.40040E-001	8.25870E-001	3.57620E+000	9	...........
	77	1.04	8.30518E-001	4.00777E-004	0.00000E+000	3.32853E-004	2.40040E-001	8.30781E-001	3.57620E+000	9	...........
	78	1.05333	8.35403E-001	4.00128E-004	0.00000E+000	3.34268E-004	2.40040E-001	8.35701E-001	3.57620E+000	9	...........
	79	1.06667	8.40231E-001	4.01151E-004	0.00000E+000	3.37060E-004	2.40040E-001	8.40524E-001	3.57620E+000	9	...........
	80	1.08	8.45103E-001	4.00921E-004	0.00000E+000	3.38819E-004	2.40040E-001	8.45415E-001	3.57620E+000	9	...........
	81	1.09333	8.49899E-001	4.01965E-004	0.00000E+000	3.41630E-004	2.40040E-001	8.50187E-001	3.57620E+000	9	...........
	82	1.10667	8.54631E-001	4.01710E-004	0.00000E+000	3.43314E-004	2.40040E-001	8.54961E-001	3.57620E+000	9	...........
	83	1.12	8.59368E-001	4.01784E-004	0.00000E+000	3.45280E-004	2.40040E-001	8.59683E-001	3.57620E+000	9	...........
	84	1.13333	8.64020E-001	4.01716E-004	0.00000E+000	3.47090E-004	2.40040E-001	8.64371E-001	3.57620E+000	9	...........
	85	1.14667	8.68705E-001	4.01769E-004	0.00000E+000	3.49019E-004	2.40040E-001	8.69024E-001	3.57620E+000	9	...........
	86	1.16	8.73364E-001	4.00459E-004	0.00000E+000	3.49747E-004	2.40040E-001	8.73701E-001	3.57620E+000	9	...........
	87	1.17333	8.77993E-001	4.01809E-004	0.00000E+000	3.52785E-004	2.40040E-001	8.78276E-001	3.57620E+000	9	...........
	88	1.18667	8.82515E-001	4.01481E-004	0.00000E+000	3.54313E-004	2.40040E-001	8.82811E-001	3.57620E+000	9	...........
	89	1.2	8.86994E-001	4.00859E-004	0.00000E+000	3.55559E-004	2.40040E-001	8.87298E-001	3.57620E+000	9	...........
	90	1.21333	8.91491E-001	4.00095E-004	0.00000E+000	3.56681E-004	2.40040E-001	8.91792E-001	3.57620E+000	9	...........
	91	1.22667	8.96026E-001	4.01553E-004	0.00000E+000	3.59803E-004	2.40040E-001	8.96353E-001	3.57620E+000	9	...........
	92	1.24	9.00397E-001	4.00941E-004	0.00000E+000	3.61006E-004	2.40040E-001	9.00714E-001	3.57620E+000	9	...........
	93	1.25333	9.04737E-001	4.01071E-004	0.00000E+000	3.62864E-004	2.40040E-001	9.05065E-001	3.57620E+000	9	...........
	94	1.26667	9.09085E-001	4.00157E-004	0.00000E+000	3.63777E-004	2.40040E-001	9.09418E-001	3.57620E+000	9	...........
	95	1.28	9.13400E-001	4.00579E-004	0.00000E+000	3.65889E-004	2.40040E-001	9.13719E-001	3.57620E+000	9	...........
	96	1.29333	9.17689E-001	4.01368E-004	0.00000E+000	3.68331E-004	2.40040E-001	9.18002E-001	3.57620E+000	9	...........
	97	1.30667	9.22050E-001	4.01618E-004	0.00000E+000	3.70312E-004	2.40040E-001	9.22297E-001	3.57620E+000	9	...........
	98	1.32	9.26179E-001	4.00363E-004	0.00000E+000	3.70807E-004	2.40040E-001	9.26442E-001	3.57620E+000	9	...........
	99	1.33333	9.30330E-001	4.00535E-004	0.00000E+000	3.72629E-004	2.40040E-001	9.30589E-001	3.57620E+000	9	...........
	100	1.34667	9.34459E-001	4.01363E-004	0.00000E+000	3.75057E-004	2.40040E-001	9.34709E-001	3.57620E+000	9	...........
	101	1.36	9.38487E-001	4.00895E-004	0.00000E+000	3.76235E-004	2.40040E-001	9.38754E-001	3.57620E+000	9	...........
	102	1.37333	9.42594E-001	4.00453E-004	0.00000E+000	3.77465E-004	2.40040E-001	9.42844E-001	3.57620E+000	9	...........
	103	1.38667	9.46659E-001	4.01971E-004	0.00000E+000	3.80530E-004	2.40040E-001	9.46918E-001	3.57620E+000	9	...........
	104	1.4	9.50694E-001	4.01433E-004	0.00000E+000	3.81640E-004	2.40040E-001	9.50959E-001	3.57620E+000	9	...........
	105	1.41333	9.54667E-001	4.00221E-004	0.00000E+000	3.82078E-004	2.40040E-001	9.54918E-001	3.57620E+000	9	...........
	106	1.42667	9.58627E-001	4.00979E-004	0.00000E+000	3.84390E-004	2.40040E-001	9.58899E-001	3.57620E+000	9	...........
	107	1.44	9.62446E-001	4.01546E-004	0.00000E+000	3.86466E-004	2.40040E-001	9.62746E-001	3.57620E+000	9	...........
	108	1.45333	9.66247E-001	4.00144E-004	0.00000E+000	3.86638E-004	2.40040E-001	9.66555E-001	3.57620E+000	9	...........
	109	1.46667	9.70061E-001	4.00518E-004	0.00000E+000	3.88527E-004	2.40040E-001	9.70373E-001	3.57620E+000	9	...........
	110	1.48	9.73843E-001	4.00103E-004	0.00000E+000	3.89638E-004	2.40040E-001	9.74148E-001	3.57620E+000	9	...........
	111	1.49333	9.77616E-001	4.00794E-004	0.00000E+000	3.91823E-004	2.40040E-001	9.77916E-001	3.57620E+000	9	...........
	112	1.50667	9.81293E-001	3.99825E-004	0.00000E+000	3.92345E-004	2.40040E-001	9.81583E-001	3.57620E+000	9	...........
	113	1.52	9.84929E-001	4.00202E-004	0.00000E+000	3.94171E-004	2.40040E-001	9.85251E-001	3.57620E+000	9	...........
	114	1.53333	9.88483E-001	4.00396E-004	0.00000E+000	3.95785E-004	2.40040E-001	9.88801E-001	3.57620E+000	9	...........
	115	1.54667	9.92053E-001	4.01387E-004	0.00000E+000	3.98197E-004	2.40040E-001	9.92324E-001	3.57620E+000	9	...........
	116	1.56	9.95556E-001	3.99808E-004	0.00000E+000	3.98031E-004	2.40040E-001	9.95862E-001	3.57620E+000	9	...........
	117	1.57167	9.98837E-001	4.01226E-004	0.00000E+000	4.00760E-004	2.40040E-001	9.99142E-001	3.57620E+000	9	...........
STARTTIMEOFFSET	QUANT	1532.191	Start Time Offset (s)
