EXPLAIN
TAG	PWR800_CHARGE
TITLE	LABEL	PWR Cyclic Charge Discharge (Cell) - Charge Step	Test &Identifier
DATE	LABEL	12-7-2017	Date
TIME	LABEL	14:20:35	Time
NOTES	NOTES	3	&Notes...
	supercap test cell
	0.4mg
	6M KOH
PSTAT	PSTAT	IFC5000-01520	Potentiostat
CAPACITY	QUANT	1.00000E-003	Capacity (A-hr)
CELLTYPE	SELECTOR	1	&Cell Type
WORKINGCONNECTION	SELECTOR	0	&Working Lead
MAXCHARGETIME	VARIABLEANDUNITS	1.00000E+002	s	1.00000E+002	second(s)	Max &Charge Time
CHARGECURRENT	QUANT	4.00000E-004	&Charge Current (A) 
VOLTAGEFINISH	TWOPARAM	F	1.00000E-003	3.60000E+003	&Voltage Finish	 I (A) < 	Max Time(s)
SAMPLETIME	QUANT	1.00000E-002	Sa&mple Period (s)
CHARGESTOPAT1	MULTIPARAM	4	1.00000E+000	Charge Stop At &1	Voltage > Limit	V
CHARGESTOPAT2	MULTIPARAM	0	0.00000E+000	Charge Stop At &2	None	N/A
AESBHCSELECTOR	TOGGLE	F	Save Both Half Cells
IRCOMP	TOGGLE	F	IR &Measure
EOC	QUANT	0	Open Circuit (V)
SEQUENCER	TOGGLE	TRUE	Run as Sequence
PSTATMODEL	IQUANT	53	Pstat Model
PSTATSECTION	LABEL	IFC5000-01520	Pstat Section
PSTATSERIALNO	LABEL	01520	Pstat Serial Number
CTRLMODE	IQUANT	0	Control Mode
ELECTROMETER	IQUANT	1	RE=0 or CS=1
IESTAB	IQUANT	0	I/E Stability
CASPEED	IQUANT	4	Control Amp Speed
CONVENTION	IQUANT	1	Current Convention
ICHRANGE	IQUANT	2	Ich Range
ICHRANGEMODE	TOGGLE	T	Ich Auto Range
ICHOFFSETENABLE	TOGGLE	F	Ich Offset Enable
ICHOFFSET	QUANT	0	Ich Offset (V)
ICHFILTER	IQUANT	1	Ich Filter
VCHRANGE	IQUANT	2	Vch Range
VCHRANGEMODE	TOGGLE	T	Vch Auto Range
VCHOFFSETENABLE	TOGGLE	F	Vch Offset Enable
VCHOFFSET	QUANT	0	Vch Offset (V)
VCHFILTER	IQUANT	1	Vch Filter
IERANGELOWERLIMIT	IQUANT	9	I/E Range Lower Limit
IERANGEMODE	TOGGLE	F	I/E AutoRange
IERANGE	IQUANT	9	I/E Range
ACHSELECT	IQUANT	1	Ach Select
ACHRANGE	IQUANT	2	Ach Range
ACHOFFSETENABLE	TOGGLE	F	Ach Offset Enable
ACHOFFSET	QUANT	0	Ach Offset (V)
ACHFILTER	IQUANT	1	Ach Filter
CABLEID	IQUANT	14	Cable ID
DCCALDATE	LABEL	5-7-2017	DC Calibration Date
ACCALDATE	LABEL	12/3/2015	AC Calibration Date
FRAMEWORKVERSION	QUANT	7.01	Framework Version
INSTRUMENTVERSION	LABEL	4.00	Instrument Version
CURVE	TABLE	152
	Pt	T	Vf	Im	Vu	Pwr	Sig	Ach	Temp	IERange	Over
	#	s	V	A	V	W	V	V	deg C	#	bits
	0	0.013333	3.23060E-001	4.01336E-004	0.00000E+000	1.29656E-004	2.40040E-001	3.23124E-001	3.57600E+000	9	...........
	1	0.026667	3.32398E-001	4.01289E-004	0.00000E+000	1.33387E-004	2.40040E-001	3.32459E-001	3.57600E+000	9	...........
	2	0.04	3.40489E-001	4.00362E-004	0.00000E+000	1.36319E-004	2.40040E-001	3.40550E-001	3.57600E+000	9	...........
	3	0.053333	3.47939E-001	4.01555E-004	0.00000E+000	1.39717E-004	2.40040E-001	3.48003E-001	3.57600E+000	9	...........
	4	0.066667	3.54989E-001	4.00927E-004	0.00000E+000	1.42325E-004	2.40040E-001	3.55053E-001	3.57600E+000	9	...........
	5	0.08	3.61710E-001	4.01502E-004	0.00000E+000	1.45228E-004	2.40040E-001	3.61779E-001	3.57600E+000	9	...........
	6	0.093333	3.68211E-001	4.01719E-004	0.00000E+000	1.47917E-004	2.40040E-001	3.68277E-001	3.57600E+000	9	...........
	7	0.106667	3.74491E-001	4.00960E-004	0.00000E+000	1.50156E-004	2.40040E-001	3.74558E-001	3.57600E+000	9	...........
	8	0.12	3.80631E-001	4.01038E-004	0.00000E+000	1.52647E-004	2.40040E-001	3.80698E-001	3.57600E+000	9	...........
	9	0.133333	3.86636E-001	4.01161E-004	0.00000E+000	1.55103E-004	2.40040E-001	3.86707E-001	3.57600E+000	9	...........
	10	0.146667	3.92569E-001	3.99613E-004	0.00000E+000	1.56876E-004	2.40040E-001	3.92635E-001	3.57600E+000	9	...........
	11	0.16	3.98396E-001	4.02154E-004	0.00000E+000	1.60217E-004	2.40040E-001	3.98468E-001	3.57600E+000	9	...........
	12	0.173333	4.04093E-001	4.00894E-004	0.00000E+000	1.61998E-004	2.40040E-001	4.04168E-001	3.57600E+000	9	...........
	13	0.186667	4.09743E-001	4.01618E-004	0.00000E+000	1.64560E-004	2.40040E-001	4.09819E-001	3.57600E+000	9	...........
	14	0.2	4.15316E-001	4.01577E-004	0.00000E+000	1.66782E-004	2.40040E-001	4.15400E-001	3.57600E+000	9	...........
	15	0.213333	4.20829E-001	4.01279E-004	0.00000E+000	1.68870E-004	2.40040E-001	4.20910E-001	3.57600E+000	9	...........
	16	0.226667	4.26285E-001	4.01239E-004	0.00000E+000	1.71042E-004	2.40040E-001	4.26373E-001	3.57600E+000	9	...........
	17	0.24	4.31709E-001	4.01287E-004	0.00000E+000	1.73239E-004	2.40040E-001	4.31792E-001	3.57600E+000	9	...........
	18	0.253333	4.37063E-001	4.00876E-004	0.00000E+000	1.75208E-004	2.40040E-001	4.37148E-001	3.57600E+000	9	...........
	19	0.266667	4.42390E-001	4.00868E-004	0.00000E+000	1.77340E-004	2.40040E-001	4.42471E-001	3.57600E+000	9	...........
	20	0.28	4.47630E-001	4.00598E-004	0.00000E+000	1.79320E-004	2.40040E-001	4.47712E-001	3.57600E+000	9	...........
	21	0.293333	4.52835E-001	4.00557E-004	0.00000E+000	1.81387E-004	2.40040E-001	4.52914E-001	3.57600E+000	9	...........
	22	0.306667	4.58097E-001	4.01639E-004	0.00000E+000	1.83989E-004	2.40040E-001	4.58183E-001	3.57600E+000	9	...........
	23	0.32	4.63312E-001	4.00069E-004	0.00000E+000	1.85357E-004	2.40040E-001	4.63398E-001	3.57600E+000	9	...........
	24	0.333333	4.68473E-001	4.01773E-004	0.00000E+000	1.88220E-004	2.40040E-001	4.68556E-001	3.57600E+000	9	...........
	25	0.346667	4.73492E-001	4.01215E-004	0.00000E+000	1.89972E-004	2.40040E-001	4.73576E-001	3.57600E+000	9	...........
	26	0.36	4.78509E-001	4.01470E-004	0.00000E+000	1.92107E-004	2.40040E-001	4.78601E-001	3.57600E+000	9	...........
	27	0.373333	4.83588E-001	4.00089E-004	0.00000E+000	1.93478E-004	2.40040E-001	4.83676E-001	3.57600E+000	9	...........
	28	0.386667	4.88604E-001	4.01628E-004	0.00000E+000	1.96237E-004	2.40040E-001	4.88694E-001	3.57600E+000	9	...........
	29	0.4	4.93768E-001	4.00280E-004	0.00000E+000	1.97645E-004	2.40040E-001	4.93865E-001	3.57600E+000	9	...........
	30	0.413333	4.98801E-001	4.03429E-004	0.00000E+000	2.01231E-004	2.40040E-001	4.98898E-001	3.57600E+000	9	...........
	31	0.426667	5.03736E-001	4.02445E-004	0.00000E+000	2.02726E-004	2.40040E-001	5.03830E-001	3.57600E+000	9	...........
	32	0.44	5.08728E-001	4.00502E-004	0.00000E+000	2.03747E-004	2.40040E-001	5.08832E-001	3.57600E+000	9	...........
	33	0.453333	5.13715E-001	4.01099E-004	0.00000E+000	2.06051E-004	2.40040E-001	5.13813E-001	3.57600E+000	9	...........
	34	0.466667	5.18699E-001	4.01636E-004	0.00000E+000	2.08328E-004	2.40040E-001	5.18793E-001	3.57600E+000	9	...........
	35	0.48	5.23577E-001	4.00908E-004	0.00000E+000	2.09906E-004	2.40040E-001	5.23679E-001	3.57600E+000	9	...........
	36	0.493333	5.28533E-001	4.00636E-004	0.00000E+000	2.11749E-004	2.40040E-001	5.28633E-001	3.57600E+000	9	...........
	37	0.506667	5.33252E-001	4.02094E-004	0.00000E+000	2.14417E-004	2.40040E-001	5.33363E-001	3.57600E+000	9	...........
	38	0.52	5.37973E-001	4.01673E-004	0.00000E+000	2.16089E-004	2.40040E-001	5.38129E-001	3.57600E+000	9	...........
	39	0.533333	5.42928E-001	4.00860E-004	0.00000E+000	2.17638E-004	2.40040E-001	5.43090E-001	3.57619E+000	9	...........
	40	0.546667	5.47801E-001	4.01203E-004	0.00000E+000	2.19780E-004	2.40040E-001	5.47930E-001	3.57630E+000	9	...........
	41	0.56	5.52562E-001	4.02016E-004	0.00000E+000	2.22139E-004	2.40040E-001	5.52725E-001	3.57630E+000	9	...........
	42	0.573333	5.57409E-001	4.01371E-004	0.00000E+000	2.23728E-004	2.40040E-001	5.57570E-001	3.57630E+000	9	...........
	43	0.586667	5.62275E-001	4.01360E-004	0.00000E+000	2.25675E-004	2.40040E-001	5.62482E-001	3.57630E+000	9	...........
	44	0.6	5.67164E-001	4.00359E-004	0.00000E+000	2.27069E-004	2.40040E-001	5.67357E-001	3.57630E+000	9	...........
	45	0.613333	5.71998E-001	4.01549E-004	0.00000E+000	2.29685E-004	2.40040E-001	5.72197E-001	3.57630E+000	9	...........
	46	0.626667	5.76785E-001	4.00389E-004	0.00000E+000	2.30938E-004	2.40040E-001	5.76996E-001	3.57630E+000	9	...........
	47	0.64	5.81548E-001	4.00423E-004	0.00000E+000	2.32865E-004	2.40040E-001	5.81726E-001	3.57630E+000	9	...........
	48	0.653333	5.86206E-001	4.00069E-004	0.00000E+000	2.34523E-004	2.40040E-001	5.86407E-001	3.57630E+000	9	...........
	49	0.666667	5.91054E-001	4.00771E-004	0.00000E+000	2.36877E-004	2.40040E-001	5.91243E-001	3.57630E+000	9	...........
	50	0.68	5.95738E-001	3.99866E-004	0.00000E+000	2.38215E-004	2.40040E-001	5.95943E-001	3.57630E+000	9	...........
	51	0.693333	6.00441E-001	4.01444E-004	0.00000E+000	2.41043E-004	2.40040E-001	6.00635E-001	3.57630E+000	9	...........
	52	0.706667	6.05104E-001	3.99606E-004	0.00000E+000	2.41803E-004	2.40040E-001	6.05340E-001	3.57630E+000	9	...........
	53	0.72	6.09799E-001	4.02511E-004	0.00000E+000	2.45451E-004	2.40040E-001	6.10027E-001	3.57630E+000	9	...........
	54	0.733333	6.14512E-001	4.00601E-004	0.00000E+000	2.46174E-004	2.40040E-001	6.14723E-001	3.57630E+000	9	...........
	55	0.746667	6.19262E-001	4.00484E-004	0.00000E+000	2.48005E-004	2.40040E-001	6.19441E-001	3.57630E+000	9	...........
	56	0.76	6.23995E-001	4.00207E-004	0.00000E+000	2.49727E-004	2.40040E-001	6.24186E-001	3.57630E+000	9	...........
	57	0.773333	6.28708E-001	4.00337E-004	0.00000E+000	2.51695E-004	2.40040E-001	6.28909E-001	3.57630E+000	9	...........
	58	0.786667	6.33371E-001	4.00973E-004	0.00000E+000	2.53965E-004	2.40040E-001	6.33586E-001	3.57630E+000	9	...........
	59	0.8	6.38045E-001	4.01614E-004	0.00000E+000	2.56248E-004	2.40040E-001	6.38257E-001	3.57630E+000	9	...........
	60	0.813333	6.42730E-001	4.01017E-004	0.00000E+000	2.57746E-004	2.40040E-001	6.42917E-001	3.57630E+000	9	...........
	61	0.826667	6.47394E-001	4.01745E-004	0.00000E+000	2.60088E-004	2.40040E-001	6.47583E-001	3.57630E+000	9	...........
	62	0.84	6.52035E-001	4.00641E-004	0.00000E+000	2.61232E-004	2.40040E-001	6.52225E-001	3.57630E+000	9	...........
	63	0.853333	6.56702E-001	4.01058E-004	0.00000E+000	2.63375E-004	2.40040E-001	6.56879E-001	3.57630E+000	9	...........
	64	0.866667	6.61231E-001	4.01133E-004	0.00000E+000	2.65241E-004	2.40040E-001	6.61427E-001	3.57630E+000	9	...........
	65	0.88	6.65760E-001	4.01551E-004	0.00000E+000	2.67337E-004	2.40040E-001	6.65982E-001	3.57630E+000	9	...........
	66	0.893333	6.70398E-001	4.00743E-004	0.00000E+000	2.68657E-004	2.40040E-001	6.70587E-001	3.57630E+000	9	...........
	67	0.906667	6.74908E-001	4.00934E-004	0.00000E+000	2.70593E-004	2.40040E-001	6.75133E-001	3.57630E+000	9	...........
	68	0.92	6.79451E-001	4.01019E-004	0.00000E+000	2.72473E-004	2.40040E-001	6.79664E-001	3.57630E+000	9	...........
	69	0.933333	6.84042E-001	3.99659E-004	0.00000E+000	2.73384E-004	2.40040E-001	6.84224E-001	3.57630E+000	9	...........
	70	0.946667	6.88578E-001	4.00397E-004	0.00000E+000	2.75705E-004	2.40040E-001	6.88818E-001	3.57630E+000	9	...........
	71	0.96	6.93146E-001	4.00189E-004	0.00000E+000	2.77389E-004	2.40040E-001	6.93354E-001	3.57630E+000	9	...........
	72	0.97333	6.97639E-001	4.01487E-004	0.00000E+000	2.80093E-004	2.40040E-001	6.97868E-001	3.57630E+000	9	...........
	73	0.98667	7.02175E-001	3.99997E-004	0.00000E+000	2.80868E-004	2.40040E-001	7.02377E-001	3.57630E+000	9	...........
	74	1	7.06670E-001	3.99755E-004	0.00000E+000	2.82495E-004	2.40040E-001	7.06891E-001	3.57630E+000	9	...........
	75	1.01333	7.11178E-001	4.01736E-004	0.00000E+000	2.85706E-004	2.40040E-001	7.11396E-001	3.57630E+000	9	...........
	76	1.02667	7.15593E-001	4.00746E-004	0.00000E+000	2.86771E-004	2.40040E-001	7.15796E-001	3.57630E+000	9	...........
	77	1.04	7.20120E-001	4.01381E-004	0.00000E+000	2.89042E-004	2.40040E-001	7.20298E-001	3.57630E+000	9	...........
	78	1.05333	7.24612E-001	4.00388E-004	0.00000E+000	2.90126E-004	2.40040E-001	7.24819E-001	3.57630E+000	9	...........
	79	1.06667	7.29097E-001	4.01200E-004	0.00000E+000	2.92514E-004	2.40040E-001	7.29311E-001	3.57630E+000	9	...........
	80	1.08	7.33518E-001	4.00725E-004	0.00000E+000	2.93939E-004	2.40040E-001	7.33760E-001	3.57630E+000	9	...........
	81	1.09333	7.38015E-001	4.01949E-004	0.00000E+000	2.96645E-004	2.40040E-001	7.38238E-001	3.57630E+000	9	...........
	82	1.10667	7.42418E-001	4.00221E-004	0.00000E+000	2.97131E-004	2.40040E-001	7.42651E-001	3.57630E+000	9	...........
	83	1.12	7.46884E-001	4.01342E-004	0.00000E+000	2.99756E-004	2.40040E-001	7.47090E-001	3.57630E+000	9	...........
	84	1.13333	7.51259E-001	4.01064E-004	0.00000E+000	3.01303E-004	2.40040E-001	7.51504E-001	3.57630E+000	9	...........
	85	1.14667	7.55687E-001	4.00269E-004	0.00000E+000	3.02478E-004	2.40040E-001	7.55914E-001	3.57630E+000	9	...........
	86	1.16	7.60067E-001	4.00752E-004	0.00000E+000	3.04599E-004	2.40040E-001	7.60284E-001	3.57630E+000	9	...........
	87	1.17333	7.64311E-001	3.99992E-004	0.00000E+000	3.05718E-004	2.40040E-001	7.64547E-001	3.57630E+000	9	...........
	88	1.18667	7.68648E-001	4.00928E-004	0.00000E+000	3.08173E-004	2.40040E-001	7.68906E-001	3.57630E+000	9	...........
	89	1.2	7.72968E-001	3.99885E-004	0.00000E+000	3.09099E-004	2.40040E-001	7.73185E-001	3.57630E+000	9	...........
	90	1.21333	7.77255E-001	3.99567E-004	0.00000E+000	3.10565E-004	2.40040E-001	7.77519E-001	3.57630E+000	9	...........
	91	1.22667	7.81549E-001	4.00953E-004	0.00000E+000	3.13365E-004	2.40040E-001	7.81786E-001	3.57630E+000	9	...........
	92	1.24	7.85757E-001	4.00251E-004	0.00000E+000	3.14500E-004	2.40040E-001	7.86006E-001	3.57630E+000	9	...........
	93	1.25333	7.90023E-001	4.00904E-004	0.00000E+000	3.16724E-004	2.40040E-001	7.90282E-001	3.57630E+000	9	...........
	94	1.26667	7.94330E-001	4.00949E-004	0.00000E+000	3.18486E-004	2.40040E-001	7.94567E-001	3.57630E+000	9	...........
	95	1.28	7.98550E-001	4.00919E-004	0.00000E+000	3.20154E-004	2.40040E-001	7.98775E-001	3.57630E+000	9	...........
	96	1.29333	8.02737E-001	4.01120E-004	0.00000E+000	3.21994E-004	2.40040E-001	8.02985E-001	3.57630E+000	9	...........
	97	1.30667	8.06952E-001	4.01935E-004	0.00000E+000	3.24342E-004	2.40040E-001	8.07217E-001	3.57630E+000	9	...........
	98	1.32	8.11135E-001	4.01071E-004	0.00000E+000	3.25323E-004	2.40040E-001	8.11375E-001	3.57630E+000	9	...........
	99	1.33333	8.15277E-001	4.01028E-004	0.00000E+000	3.26949E-004	2.40040E-001	8.15551E-001	3.57630E+000	9	...........
	100	1.34667	8.19461E-001	4.01501E-004	0.00000E+000	3.29015E-004	2.40040E-001	8.19713E-001	3.57630E+000	9	...........
	101	1.36	8.23570E-001	4.01382E-004	0.00000E+000	3.30566E-004	2.40040E-001	8.23817E-001	3.57630E+000	9	...........
	102	1.37333	8.27667E-001	4.01607E-004	0.00000E+000	3.32397E-004	2.40040E-001	8.27891E-001	3.57630E+000	9	...........
	103	1.38667	8.31741E-001	4.00036E-004	0.00000E+000	3.32727E-004	2.40040E-001	8.32006E-001	3.57630E+000	9	...........
	104	1.4	8.35799E-001	4.02452E-004	0.00000E+000	3.36369E-004	2.40040E-001	8.36075E-001	3.57630E+000	9	...........
	105	1.41333	8.39848E-001	4.00513E-004	0.00000E+000	3.36370E-004	2.40040E-001	8.40113E-001	3.57630E+000	9	...........
	106	1.42667	8.43832E-001	3.99642E-004	0.00000E+000	3.37230E-004	2.40040E-001	8.44118E-001	3.57630E+000	9	...........
	107	1.44	8.47876E-001	4.00986E-004	0.00000E+000	3.39986E-004	2.40040E-001	8.48158E-001	3.57630E+000	9	...........
	108	1.45333	8.51885E-001	3.99236E-004	0.00000E+000	3.40103E-004	2.40040E-001	8.52156E-001	3.57630E+000	9	...........
	109	1.46667	8.55849E-001	3.99727E-004	0.00000E+000	3.42106E-004	2.40040E-001	8.56129E-001	3.57630E+000	9	...........
	110	1.48	8.59755E-001	4.00666E-004	0.00000E+000	3.44475E-004	2.40040E-001	8.60041E-001	3.57630E+000	9	...........
	111	1.49333	8.63694E-001	4.01220E-004	0.00000E+000	3.46532E-004	2.40040E-001	8.63997E-001	3.57630E+000	9	...........
	112	1.50667	8.67581E-001	4.01512E-004	0.00000E+000	3.48344E-004	2.40040E-001	8.67892E-001	3.57630E+000	9	...........
	113	1.52	8.71449E-001	4.00771E-004	0.00000E+000	3.49251E-004	2.40040E-001	8.71772E-001	3.57630E+000	9	...........
	114	1.53333	8.75264E-001	4.01268E-004	0.00000E+000	3.51215E-004	2.40040E-001	8.75564E-001	3.57586E+000	9	...........
	115	1.54667	8.79134E-001	4.01763E-004	0.00000E+000	3.53203E-004	2.40040E-001	8.79429E-001	3.57560E+000	9	...........
	116	1.56	8.82920E-001	4.00538E-004	0.00000E+000	3.53643E-004	2.40040E-001	8.83218E-001	3.57560E+000	9	...........
	117	1.57333	8.86749E-001	4.00222E-004	0.00000E+000	3.54896E-004	2.40040E-001	8.87061E-001	3.57560E+000	9	...........
	118	1.58667	8.90477E-001	4.00750E-004	0.00000E+000	3.56859E-004	2.40040E-001	8.90773E-001	3.57560E+000	9	...........
	119	1.6	8.94208E-001	4.00372E-004	0.00000E+000	3.58016E-004	2.40040E-001	8.94520E-001	3.57560E+000	9	...........
	120	1.61333	8.97962E-001	4.01245E-004	0.00000E+000	3.60303E-004	2.40040E-001	8.98267E-001	3.57560E+000	9	...........
	121	1.62667	9.01662E-001	4.00456E-004	0.00000E+000	3.61076E-004	2.40040E-001	9.01974E-001	3.57560E+000	9	...........
	122	1.64	9.05327E-001	4.00844E-004	0.00000E+000	3.62895E-004	2.40040E-001	9.05633E-001	3.57560E+000	9	...........
	123	1.65333	9.08981E-001	4.01866E-004	0.00000E+000	3.65289E-004	2.40040E-001	9.09308E-001	3.57560E+000	9	...........
	124	1.66667	9.12615E-001	4.01558E-004	0.00000E+000	3.66467E-004	2.40040E-001	9.12927E-001	3.57560E+000	9	...........
	125	1.68	9.16201E-001	4.02238E-004	0.00000E+000	3.68531E-004	2.40040E-001	9.16532E-001	3.57560E+000	9	...........
	126	1.69333	9.19780E-001	4.00024E-004	0.00000E+000	3.67934E-004	2.40040E-001	9.20089E-001	3.57560E+000	9	...........
	127	1.70667	9.23388E-001	4.01221E-004	0.00000E+000	3.70483E-004	2.40040E-001	9.23645E-001	3.57560E+000	9	...........
	128	1.72	9.26919E-001	4.01252E-004	0.00000E+000	3.71928E-004	2.40040E-001	9.27198E-001	3.57560E+000	9	...........
	129	1.73333	9.30357E-001	4.01232E-004	0.00000E+000	3.73288E-004	2.40040E-001	9.30610E-001	3.57560E+000	9	...........
	130	1.74667	9.33750E-001	4.00344E-004	0.00000E+000	3.73821E-004	2.40040E-001	9.34035E-001	3.57560E+000	9	...........
	131	1.76	9.37158E-001	3.98641E-004	0.00000E+000	3.73590E-004	2.40040E-001	9.37434E-001	3.57560E+000	9	...........
	132	1.77333	9.40563E-001	4.01245E-004	0.00000E+000	3.77396E-004	2.40040E-001	9.40841E-001	3.57560E+000	9	...........
	133	1.78667	9.43923E-001	4.01644E-004	0.00000E+000	3.79121E-004	2.40040E-001	9.44216E-001	3.57560E+000	9	...........
	134	1.8	9.47342E-001	4.01227E-004	0.00000E+000	3.80099E-004	2.40040E-001	9.47638E-001	3.57560E+000	9	...........
	135	1.81333	9.50710E-001	4.03025E-004	0.00000E+000	3.83160E-004	2.40040E-001	9.50999E-001	3.57560E+000	9	...........
	136	1.82667	9.54027E-001	4.01055E-004	0.00000E+000	3.82618E-004	2.40040E-001	9.54318E-001	3.57560E+000	9	...........
	137	1.84	9.57248E-001	4.00710E-004	0.00000E+000	3.83578E-004	2.40040E-001	9.57538E-001	3.57560E+000	9	...........
	138	1.85333	9.60431E-001	4.00467E-004	0.00000E+000	3.84621E-004	2.40040E-001	9.60729E-001	3.57560E+000	9	...........
	139	1.86667	9.63618E-001	4.02039E-004	0.00000E+000	3.87412E-004	2.40040E-001	9.63919E-001	3.57560E+000	9	...........
	140	1.88	9.66788E-001	4.00122E-004	0.00000E+000	3.86833E-004	2.40040E-001	9.67083E-001	3.57560E+000	9	...........
	141	1.89333	9.69932E-001	4.00964E-004	0.00000E+000	3.88908E-004	2.40040E-001	9.70231E-001	3.57560E+000	9	...........
	142	1.90667	9.73086E-001	4.00954E-004	0.00000E+000	3.90163E-004	2.40040E-001	9.73359E-001	3.57560E+000	9	...........
	143	1.92	9.76145E-001	4.00938E-004	0.00000E+000	3.91373E-004	2.40040E-001	9.76428E-001	3.57560E+000	9	...........
	144	1.93333	9.79180E-001	4.00555E-004	0.00000E+000	3.92216E-004	2.40040E-001	9.79471E-001	3.57560E+000	9	...........
	145	1.94667	9.82182E-001	3.98615E-004	0.00000E+000	3.91513E-004	2.40040E-001	9.82454E-001	3.57560E+000	9	...........
	146	1.96	9.85132E-001	4.00599E-004	0.00000E+000	3.94643E-004	2.40040E-001	9.85431E-001	3.57560E+000	9	...........
	147	1.97333	9.88082E-001	4.00905E-004	0.00000E+000	3.96127E-004	2.40040E-001	9.88376E-001	3.57560E+000	9	...........
	148	1.98667	9.90975E-001	4.00443E-004	0.00000E+000	3.96829E-004	2.40040E-001	9.91279E-001	3.57560E+000	9	...........
	149	2	9.93899E-001	3.99894E-004	0.00000E+000	3.97454E-004	2.40040E-001	9.94221E-001	3.57560E+000	9	...........
	150	2.01333	9.96712E-001	4.02049E-004	0.00000E+000	4.00728E-004	2.40040E-001	9.97034E-001	3.57560E+000	9	...........
	151	2.02333	9.99147E-001	4.00160E-004	0.00000E+000	3.99819E-004	2.40040E-001	9.99467E-001	3.57560E+000	9	...........
STARTTIMEOFFSET	QUANT	92.94833	Start Time Offset (s)
