EXPLAIN
TAG	PWR800_CHARGE
TITLE	LABEL	PWR Cyclic Charge Discharge (Cell) - Charge Step	Test &Identifier
DATE	LABEL	12-7-2017	Date
TIME	LABEL	15:05:49	Time
NOTES	NOTES	3	&Notes...
	supercap test cell
	0.4mg
	6M KOH
PSTAT	PSTAT	IFC5000-01520	Potentiostat
CAPACITY	QUANT	1.00000E-003	Capacity (A-hr)
CELLTYPE	SELECTOR	1	&Cell Type
WORKINGCONNECTION	SELECTOR	0	&Working Lead
MAXCHARGETIME	VARIABLEANDUNITS	1.00000E+002	s	1.00000E+002	second(s)	Max &Charge Time
CHARGECURRENT	QUANT	4.00000E-004	&Charge Current (A) 
VOLTAGEFINISH	TWOPARAM	F	1.00000E-003	3.60000E+003	&Voltage Finish	 I (A) < 	Max Time(s)
SAMPLETIME	QUANT	1.00000E-002	Sa&mple Period (s)
CHARGESTOPAT1	MULTIPARAM	4	1.00000E+000	Charge Stop At &1	Voltage > Limit	V
CHARGESTOPAT2	MULTIPARAM	0	0.00000E+000	Charge Stop At &2	None	N/A
AESBHCSELECTOR	TOGGLE	F	Save Both Half Cells
IRCOMP	TOGGLE	F	IR &Measure
EOC	QUANT	0	Open Circuit (V)
SEQUENCER	TOGGLE	TRUE	Run as Sequence
PSTATMODEL	IQUANT	53	Pstat Model
PSTATSECTION	LABEL	IFC5000-01520	Pstat Section
PSTATSERIALNO	LABEL	01520	Pstat Serial Number
CTRLMODE	IQUANT	0	Control Mode
ELECTROMETER	IQUANT	1	RE=0 or CS=1
IESTAB	IQUANT	0	I/E Stability
CASPEED	IQUANT	4	Control Amp Speed
CONVENTION	IQUANT	1	Current Convention
ICHRANGE	IQUANT	2	Ich Range
ICHRANGEMODE	TOGGLE	T	Ich Auto Range
ICHOFFSETENABLE	TOGGLE	F	Ich Offset Enable
ICHOFFSET	QUANT	0	Ich Offset (V)
ICHFILTER	IQUANT	1	Ich Filter
VCHRANGE	IQUANT	2	Vch Range
VCHRANGEMODE	TOGGLE	T	Vch Auto Range
VCHOFFSETENABLE	TOGGLE	F	Vch Offset Enable
VCHOFFSET	QUANT	0	Vch Offset (V)
VCHFILTER	IQUANT	1	Vch Filter
IERANGELOWERLIMIT	IQUANT	9	I/E Range Lower Limit
IERANGEMODE	TOGGLE	F	I/E AutoRange
IERANGE	IQUANT	9	I/E Range
ACHSELECT	IQUANT	1	Ach Select
ACHRANGE	IQUANT	2	Ach Range
ACHOFFSETENABLE	TOGGLE	F	Ach Offset Enable
ACHOFFSET	QUANT	0	Ach Offset (V)
ACHFILTER	IQUANT	1	Ach Filter
CABLEID	IQUANT	14	Cable ID
DCCALDATE	LABEL	5-7-2017	DC Calibration Date
ACCALDATE	LABEL	12/3/2015	AC Calibration Date
FRAMEWORKVERSION	QUANT	7.01	Framework Version
INSTRUMENTVERSION	LABEL	4.00	Instrument Version
CURVE	TABLE	111
	Pt	T	Vf	Im	Vu	Pwr	Sig	Ach	Temp	IERange	Over
	#	s	V	A	V	W	V	V	deg C	#	bits
	0	0.013333	3.77849E-001	4.01294E-004	0.00000E+000	1.51629E-004	2.40040E-001	3.77955E-001	3.57710E+000	9	...........
	1	0.026667	3.90218E-001	4.01662E-004	0.00000E+000	1.56736E-004	2.40040E-001	3.90296E-001	3.57710E+000	9	...........
	2	0.04	4.00774E-001	4.00961E-004	0.00000E+000	1.60694E-004	2.40040E-001	4.00848E-001	3.57710E+000	9	...........
	3	0.053333	4.10287E-001	4.00598E-004	0.00000E+000	1.64360E-004	2.40040E-001	4.10374E-001	3.57710E+000	9	...........
	4	0.066667	4.19296E-001	4.00238E-004	0.00000E+000	1.67818E-004	2.40040E-001	4.19390E-001	3.57710E+000	9	...........
	5	0.08	4.27804E-001	4.00035E-004	0.00000E+000	1.71137E-004	2.40040E-001	4.27896E-001	3.57710E+000	9	...........
	6	0.093333	4.35979E-001	4.00577E-004	0.00000E+000	1.74643E-004	2.40040E-001	4.36069E-001	3.57710E+000	9	...........
	7	0.106667	4.43893E-001	3.99806E-004	0.00000E+000	1.77471E-004	2.40040E-001	4.43986E-001	3.57710E+000	9	...........
	8	0.12	4.51578E-001	4.01743E-004	0.00000E+000	1.81419E-004	2.40040E-001	4.51678E-001	3.57710E+000	9	...........
	9	0.133333	4.59053E-001	4.00771E-004	0.00000E+000	1.83975E-004	2.40040E-001	4.59143E-001	3.57710E+000	9	...........
	10	0.146667	4.66412E-001	4.01095E-004	0.00000E+000	1.87075E-004	2.40040E-001	4.66514E-001	3.57710E+000	9	...........
	11	0.16	4.73570E-001	4.01657E-004	0.00000E+000	1.90212E-004	2.40040E-001	4.73667E-001	3.57710E+000	9	...........
	12	0.173333	4.80535E-001	4.00273E-004	0.00000E+000	1.92345E-004	2.40040E-001	4.80632E-001	3.57710E+000	9	...........
	13	0.186667	4.87529E-001	4.00752E-004	0.00000E+000	1.95378E-004	2.40040E-001	4.87630E-001	3.57710E+000	9	...........
	14	0.2	4.94448E-001	4.00649E-004	0.00000E+000	1.98100E-004	2.40040E-001	4.94550E-001	3.57710E+000	9	...........
	15	0.213333	5.01279E-001	4.01182E-004	0.00000E+000	2.01104E-004	2.40040E-001	5.01382E-001	3.57710E+000	9	...........
	16	0.226667	5.08096E-001	4.02161E-004	0.00000E+000	2.04336E-004	2.40040E-001	5.08206E-001	3.57710E+000	9	...........
	17	0.24	5.14769E-001	4.01830E-004	0.00000E+000	2.06849E-004	2.40040E-001	5.14874E-001	3.57710E+000	9	...........
	18	0.253333	5.21274E-001	4.02387E-004	0.00000E+000	2.09754E-004	2.40040E-001	5.21382E-001	3.57710E+000	9	...........
	19	0.266667	5.27880E-001	4.02117E-004	0.00000E+000	2.12270E-004	2.40040E-001	5.27992E-001	3.57710E+000	9	...........
	20	0.28	5.34218E-001	4.01970E-004	0.00000E+000	2.14740E-004	2.40040E-001	5.34402E-001	3.57710E+000	9	...........
	21	0.293333	5.40657E-001	4.01343E-004	0.00000E+000	2.16989E-004	2.40040E-001	5.40887E-001	3.57710E+000	9	...........
	22	0.306667	5.47051E-001	4.00378E-004	0.00000E+000	2.19027E-004	2.40040E-001	5.47305E-001	3.57710E+000	9	...........
	23	0.32	5.53420E-001	4.00999E-004	0.00000E+000	2.21921E-004	2.40040E-001	5.53664E-001	3.57710E+000	9	...........
	24	0.333333	5.59807E-001	4.00501E-004	0.00000E+000	2.24203E-004	2.40040E-001	5.60054E-001	3.57710E+000	9	...........
	25	0.346667	5.66172E-001	4.01833E-004	0.00000E+000	2.27506E-004	2.40040E-001	5.66385E-001	3.57710E+000	9	...........
	26	0.36	5.72452E-001	4.01394E-004	0.00000E+000	2.29779E-004	2.40040E-001	5.72675E-001	3.57710E+000	9	...........
	27	0.373333	5.78689E-001	4.00946E-004	0.00000E+000	2.32023E-004	2.40040E-001	5.78935E-001	3.57710E+000	9	...........
	28	0.386667	5.84930E-001	4.01021E-004	0.00000E+000	2.34569E-004	2.40040E-001	5.85177E-001	3.57710E+000	9	...........
	29	0.4	5.91187E-001	4.00928E-004	0.00000E+000	2.37024E-004	2.40040E-001	5.91422E-001	3.57710E+000	9	...........
	30	0.413333	5.97366E-001	4.00690E-004	0.00000E+000	2.39358E-004	2.40040E-001	5.97568E-001	3.57710E+000	9	...........
	31	0.426667	6.03422E-001	3.99789E-004	0.00000E+000	2.41241E-004	2.40040E-001	6.03651E-001	3.57710E+000	9	...........
	32	0.44	6.09542E-001	4.00019E-004	0.00000E+000	2.43828E-004	2.40040E-001	6.09806E-001	3.57710E+000	9	...........
	33	0.453333	6.15809E-001	4.02224E-004	0.00000E+000	2.47693E-004	2.40040E-001	6.16011E-001	3.57710E+000	9	...........
	34	0.466667	6.21968E-001	4.01807E-004	0.00000E+000	2.49911E-004	2.40040E-001	6.22164E-001	3.57710E+000	9	...........
	35	0.48	6.28046E-001	4.01565E-004	0.00000E+000	2.52201E-004	2.40040E-001	6.28259E-001	3.57710E+000	9	...........
	36	0.493333	6.34007E-001	4.00307E-004	0.00000E+000	2.53798E-004	2.40040E-001	6.34238E-001	3.57710E+000	9	...........
	37	0.506667	6.40019E-001	4.01565E-004	0.00000E+000	2.57009E-004	2.40040E-001	6.40252E-001	3.57710E+000	9	...........
	38	0.52	6.45980E-001	4.01294E-004	0.00000E+000	2.59228E-004	2.40040E-001	6.46208E-001	3.57710E+000	9	...........
	39	0.533333	6.51954E-001	4.01205E-004	0.00000E+000	2.61567E-004	2.40040E-001	6.52208E-001	3.57710E+000	9	...........
	40	0.546667	6.57928E-001	4.01064E-004	0.00000E+000	2.63871E-004	2.40040E-001	6.58150E-001	3.57710E+000	9	...........
	41	0.56	6.63888E-001	4.00359E-004	0.00000E+000	2.65794E-004	2.40040E-001	6.64157E-001	3.57710E+000	9	...........
	42	0.573333	6.69799E-001	4.02128E-004	0.00000E+000	2.69345E-004	2.40040E-001	6.70055E-001	3.57710E+000	9	...........
	43	0.586667	6.75682E-001	4.00628E-004	0.00000E+000	2.70697E-004	2.40040E-001	6.75920E-001	3.57710E+000	9	...........
	44	0.6	6.81545E-001	4.00894E-004	0.00000E+000	2.73227E-004	2.40040E-001	6.81789E-001	3.57710E+000	9	...........
	45	0.613333	6.87347E-001	4.02193E-004	0.00000E+000	2.76446E-004	2.40040E-001	6.87603E-001	3.57710E+000	9	...........
	46	0.626667	6.93201E-001	4.00991E-004	0.00000E+000	2.77967E-004	2.40040E-001	6.93445E-001	3.57710E+000	9	...........
	47	0.64	6.98967E-001	4.01812E-004	0.00000E+000	2.80853E-004	2.40040E-001	6.99204E-001	3.57866E+000	9	...........
	48	0.653333	7.04703E-001	4.01506E-004	0.00000E+000	2.82942E-004	2.40040E-001	7.04940E-001	3.57960E+000	9	...........
	49	0.666667	7.10448E-001	4.00566E-004	0.00000E+000	2.84581E-004	2.40040E-001	7.10686E-001	3.57960E+000	9	...........
	50	0.68	7.16179E-001	4.00757E-004	0.00000E+000	2.87014E-004	2.40040E-001	7.16400E-001	3.57960E+000	9	...........
	51	0.693333	7.21857E-001	4.01095E-004	0.00000E+000	2.89533E-004	2.40040E-001	7.22033E-001	3.57960E+000	9	...........
	52	0.706667	7.27508E-001	4.00437E-004	0.00000E+000	2.91321E-004	2.40040E-001	7.27704E-001	3.57960E+000	9	...........
	53	0.72	7.33136E-001	4.01390E-004	0.00000E+000	2.94273E-004	2.40040E-001	7.33334E-001	3.57960E+000	9	...........
	54	0.733333	7.38729E-001	4.01610E-004	0.00000E+000	2.96681E-004	2.40040E-001	7.38934E-001	3.57960E+000	9	...........
	55	0.746667	7.44354E-001	4.01048E-004	0.00000E+000	2.98522E-004	2.40040E-001	7.44545E-001	3.57960E+000	9	...........
	56	0.76	7.49891E-001	4.00164E-004	0.00000E+000	3.00079E-004	2.40040E-001	7.50089E-001	3.57960E+000	9	...........
	57	0.773333	7.55354E-001	4.01185E-004	0.00000E+000	3.03037E-004	2.40040E-001	7.55574E-001	3.57960E+000	9	...........
	58	0.786667	7.60765E-001	4.01008E-004	0.00000E+000	3.05073E-004	2.40040E-001	7.61019E-001	3.57960E+000	9	...........
	59	0.8	7.66280E-001	4.00822E-004	0.00000E+000	3.07142E-004	2.40040E-001	7.66539E-001	3.57960E+000	9	...........
	60	0.813333	7.71777E-001	4.00325E-004	0.00000E+000	3.08962E-004	2.40040E-001	7.72025E-001	3.57960E+000	9	...........
	61	0.826667	7.77215E-001	4.01485E-004	0.00000E+000	3.12040E-004	2.40040E-001	7.77457E-001	3.57960E+000	9	...........
	62	0.84	7.82539E-001	4.01138E-004	0.00000E+000	3.13906E-004	2.40040E-001	7.82777E-001	3.57960E+000	9	...........
	63	0.853333	7.87884E-001	4.00922E-004	0.00000E+000	3.15880E-004	2.40040E-001	7.88130E-001	3.57960E+000	9	...........
	64	0.866667	7.93275E-001	4.00512E-004	0.00000E+000	3.17716E-004	2.40040E-001	7.93536E-001	3.57960E+000	9	...........
	65	0.88	7.98622E-001	4.02778E-004	0.00000E+000	3.21667E-004	2.40040E-001	7.98867E-001	3.57960E+000	9	...........
	66	0.893333	8.03900E-001	4.02233E-004	0.00000E+000	3.23355E-004	2.40040E-001	8.04145E-001	3.57960E+000	9	...........
	67	0.906667	8.09112E-001	4.00906E-004	0.00000E+000	3.24378E-004	2.40040E-001	8.09361E-001	3.57960E+000	9	...........
	68	0.92	8.14282E-001	4.01839E-004	0.00000E+000	3.27210E-004	2.40040E-001	8.14563E-001	3.57960E+000	9	...........
	69	0.933333	8.19444E-001	3.99369E-004	0.00000E+000	3.27260E-004	2.40040E-001	8.19668E-001	3.57960E+000	9	...........
	70	0.946667	8.24597E-001	4.01093E-004	0.00000E+000	3.30740E-004	2.40040E-001	8.24856E-001	3.57960E+000	9	...........
	71	0.96	8.29622E-001	4.00721E-004	0.00000E+000	3.32447E-004	2.40040E-001	8.29875E-001	3.57960E+000	9	...........
	72	0.97333	8.34694E-001	4.00215E-004	0.00000E+000	3.34057E-004	2.40040E-001	8.34958E-001	3.57960E+000	9	...........
	73	0.98667	8.39709E-001	4.00843E-004	0.00000E+000	3.36592E-004	2.40040E-001	8.39979E-001	3.57960E+000	9	...........
	74	1	8.44691E-001	4.02007E-004	0.00000E+000	3.39571E-004	2.40040E-001	8.44958E-001	3.57960E+000	9	...........
	75	1.01333	8.49682E-001	3.99988E-004	0.00000E+000	3.39862E-004	2.40040E-001	8.49962E-001	3.57960E+000	9	...........
	76	1.02667	8.54567E-001	4.01820E-004	0.00000E+000	3.43382E-004	2.40040E-001	8.54852E-001	3.57960E+000	9	...........
	77	1.04	8.59449E-001	4.01389E-004	0.00000E+000	3.44973E-004	2.40040E-001	8.59728E-001	3.57960E+000	9	...........
	78	1.05333	8.64280E-001	3.99527E-004	0.00000E+000	3.45303E-004	2.40040E-001	8.64581E-001	3.57960E+000	9	...........
	79	1.06667	8.69095E-001	4.01155E-004	0.00000E+000	3.48642E-004	2.40040E-001	8.69371E-001	3.57960E+000	9	...........
	80	1.08	8.73889E-001	4.01054E-004	0.00000E+000	3.50477E-004	2.40040E-001	8.74181E-001	3.57960E+000	9	...........
	81	1.09333	8.78606E-001	4.02506E-004	0.00000E+000	3.53644E-004	2.40040E-001	8.78908E-001	3.57960E+000	9	...........
	82	1.10667	8.83304E-001	4.01489E-004	0.00000E+000	3.54637E-004	2.40040E-001	8.83606E-001	3.57960E+000	9	...........
	83	1.12	8.87923E-001	4.01563E-004	0.00000E+000	3.56557E-004	2.40040E-001	8.88229E-001	3.57960E+000	9	...........
	84	1.13333	8.92584E-001	4.01636E-004	0.00000E+000	3.58494E-004	2.40040E-001	8.92902E-001	3.57960E+000	9	...........
	85	1.14667	8.97239E-001	4.01878E-004	0.00000E+000	3.60580E-004	2.40040E-001	8.97547E-001	3.57960E+000	9	...........
	86	1.16	9.01747E-001	4.00689E-004	0.00000E+000	3.61320E-004	2.40040E-001	9.02078E-001	3.57960E+000	9	...........
	87	1.17333	9.06254E-001	4.01534E-004	0.00000E+000	3.63891E-004	2.40040E-001	9.06597E-001	3.57960E+000	9	...........
	88	1.18667	9.10692E-001	4.00137E-004	0.00000E+000	3.64401E-004	2.40040E-001	9.11022E-001	3.57960E+000	9	...........
	89	1.2	9.15145E-001	4.01088E-004	0.00000E+000	3.67053E-004	2.40040E-001	9.15484E-001	3.57960E+000	9	...........
	90	1.21333	9.19544E-001	3.99878E-004	0.00000E+000	3.67705E-004	2.40040E-001	9.19859E-001	3.57960E+000	9	...........
	91	1.22667	9.23934E-001	4.01204E-004	0.00000E+000	3.70686E-004	2.40040E-001	9.24218E-001	3.57960E+000	9	...........
	92	1.24	9.28237E-001	4.00474E-004	0.00000E+000	3.71735E-004	2.40040E-001	9.28553E-001	3.57960E+000	9	...........
	93	1.25333	9.32501E-001	4.01228E-004	0.00000E+000	3.74146E-004	2.40040E-001	9.32799E-001	3.57960E+000	9	...........
	94	1.26667	9.36744E-001	4.01377E-004	0.00000E+000	3.75988E-004	2.40040E-001	9.37057E-001	3.57960E+000	9	...........
	95	1.28	9.40928E-001	4.01260E-004	0.00000E+000	3.77556E-004	2.40040E-001	9.41259E-001	3.57960E+000	9	...........
	96	1.29333	9.45063E-001	4.02210E-004	0.00000E+000	3.80114E-004	2.40040E-001	9.45395E-001	3.57960E+000	9	...........
	97	1.30667	9.49211E-001	3.99723E-004	0.00000E+000	3.79421E-004	2.40040E-001	9.49514E-001	3.57960E+000	9	...........
	98	1.32	9.53293E-001	4.01886E-004	0.00000E+000	3.83115E-004	2.40040E-001	9.53604E-001	3.57960E+000	9	...........
	99	1.33333	9.57278E-001	4.01236E-004	0.00000E+000	3.84094E-004	2.40040E-001	9.57590E-001	3.57960E+000	9	...........
	100	1.34667	9.61254E-001	4.01116E-004	0.00000E+000	3.85574E-004	2.40040E-001	9.61593E-001	3.57960E+000	9	...........
	101	1.36	9.65216E-001	4.00897E-004	0.00000E+000	3.86952E-004	2.40040E-001	9.65546E-001	3.57960E+000	9	...........
	102	1.37333	9.69141E-001	4.00703E-004	0.00000E+000	3.88338E-004	2.40040E-001	9.69480E-001	3.57960E+000	9	...........
	103	1.38667	9.73069E-001	4.01243E-004	0.00000E+000	3.90437E-004	2.40040E-001	9.73395E-001	3.57960E+000	9	...........
	104	1.4	9.76923E-001	4.01174E-004	0.00000E+000	3.91916E-004	2.40040E-001	9.77248E-001	3.57960E+000	9	...........
	105	1.41333	9.80753E-001	3.99683E-004	0.00000E+000	3.91990E-004	2.40040E-001	9.81072E-001	3.57960E+000	9	...........
	106	1.42667	9.84569E-001	4.01574E-004	0.00000E+000	3.95378E-004	2.40040E-001	9.84892E-001	3.57960E+000	9	...........
	107	1.44	9.88305E-001	4.01302E-004	0.00000E+000	3.96609E-004	2.40040E-001	9.88640E-001	3.57960E+000	9	...........
	108	1.45333	9.92007E-001	4.00699E-004	0.00000E+000	3.97496E-004	2.40040E-001	9.92327E-001	3.57960E+000	9	...........
	109	1.46667	9.95648E-001	4.00116E-004	0.00000E+000	3.98374E-004	2.40040E-001	9.95971E-001	3.57960E+000	9	...........
	110	1.47667	9.98877E-001	4.01779E-004	0.00000E+000	4.01328E-004	2.40040E-001	9.99184E-001	3.57960E+000	9	...........
STARTTIMEOFFSET	QUANT	2244.752	Start Time Offset (s)
