EXPLAIN
TAG	PWR800_CHARGE
TITLE	LABEL	PWR Cyclic Charge Discharge (Cell) - Charge Step	Test &Identifier
DATE	LABEL	12-7-2017	Date
TIME	LABEL	15:06:26	Time
NOTES	NOTES	3	&Notes...
	supercap test cell
	0.4mg
	6M KOH
PSTAT	PSTAT	IFC5000-01520	Potentiostat
CAPACITY	QUANT	1.00000E-003	Capacity (A-hr)
CELLTYPE	SELECTOR	1	&Cell Type
WORKINGCONNECTION	SELECTOR	0	&Working Lead
MAXCHARGETIME	VARIABLEANDUNITS	1.00000E+002	s	1.00000E+002	second(s)	Max &Charge Time
CHARGECURRENT	QUANT	4.00000E-004	&Charge Current (A) 
VOLTAGEFINISH	TWOPARAM	F	1.00000E-003	3.60000E+003	&Voltage Finish	 I (A) < 	Max Time(s)
SAMPLETIME	QUANT	1.00000E-002	Sa&mple Period (s)
CHARGESTOPAT1	MULTIPARAM	4	1.00000E+000	Charge Stop At &1	Voltage > Limit	V
CHARGESTOPAT2	MULTIPARAM	0	0.00000E+000	Charge Stop At &2	None	N/A
AESBHCSELECTOR	TOGGLE	F	Save Both Half Cells
IRCOMP	TOGGLE	F	IR &Measure
EOC	QUANT	0	Open Circuit (V)
SEQUENCER	TOGGLE	TRUE	Run as Sequence
PSTATMODEL	IQUANT	53	Pstat Model
PSTATSECTION	LABEL	IFC5000-01520	Pstat Section
PSTATSERIALNO	LABEL	01520	Pstat Serial Number
CTRLMODE	IQUANT	0	Control Mode
ELECTROMETER	IQUANT	1	RE=0 or CS=1
IESTAB	IQUANT	0	I/E Stability
CASPEED	IQUANT	4	Control Amp Speed
CONVENTION	IQUANT	1	Current Convention
ICHRANGE	IQUANT	2	Ich Range
ICHRANGEMODE	TOGGLE	T	Ich Auto Range
ICHOFFSETENABLE	TOGGLE	F	Ich Offset Enable
ICHOFFSET	QUANT	0	Ich Offset (V)
ICHFILTER	IQUANT	1	Ich Filter
VCHRANGE	IQUANT	2	Vch Range
VCHRANGEMODE	TOGGLE	T	Vch Auto Range
VCHOFFSETENABLE	TOGGLE	F	Vch Offset Enable
VCHOFFSET	QUANT	0	Vch Offset (V)
VCHFILTER	IQUANT	1	Vch Filter
IERANGELOWERLIMIT	IQUANT	9	I/E Range Lower Limit
IERANGEMODE	TOGGLE	F	I/E AutoRange
IERANGE	IQUANT	9	I/E Range
ACHSELECT	IQUANT	1	Ach Select
ACHRANGE	IQUANT	2	Ach Range
ACHOFFSETENABLE	TOGGLE	F	Ach Offset Enable
ACHOFFSET	QUANT	0	Ach Offset (V)
ACHFILTER	IQUANT	1	Ach Filter
CABLEID	IQUANT	14	Cable ID
DCCALDATE	LABEL	5-7-2017	DC Calibration Date
ACCALDATE	LABEL	12/3/2015	AC Calibration Date
FRAMEWORKVERSION	QUANT	7.01	Framework Version
INSTRUMENTVERSION	LABEL	4.00	Instrument Version
CURVE	TABLE	111
	Pt	T	Vf	Im	Vu	Pwr	Sig	Ach	Temp	IERange	Over
	#	s	V	A	V	W	V	V	deg C	#	bits
	0	0.013333	3.80028E-001	4.01586E-004	0.00000E+000	1.52614E-004	2.40040E-001	3.80122E-001	3.57630E+000	9	...........
	1	0.026667	3.92338E-001	4.01781E-004	0.00000E+000	1.57634E-004	2.40040E-001	3.92416E-001	3.57630E+000	9	...........
	2	0.04	4.02912E-001	3.99781E-004	0.00000E+000	1.61077E-004	2.40040E-001	4.02987E-001	3.57630E+000	9	...........
	3	0.053333	4.12446E-001	4.00935E-004	0.00000E+000	1.65364E-004	2.40040E-001	4.12525E-001	3.57630E+000	9	...........
	4	0.066667	4.21380E-001	4.00371E-004	0.00000E+000	1.68708E-004	2.40040E-001	4.21464E-001	3.57630E+000	9	...........
	5	0.08	4.29888E-001	4.00324E-004	0.00000E+000	1.72094E-004	2.40040E-001	4.29970E-001	3.57630E+000	9	...........
	6	0.093333	4.38002E-001	4.01562E-004	0.00000E+000	1.75885E-004	2.40040E-001	4.38088E-001	3.57630E+000	9	...........
	7	0.106667	4.45833E-001	4.00895E-004	0.00000E+000	1.78732E-004	2.40040E-001	4.45919E-001	3.57630E+000	9	...........
	8	0.12	4.53479E-001	4.01516E-004	0.00000E+000	1.82079E-004	2.40040E-001	4.53566E-001	3.57630E+000	9	...........
	9	0.133333	4.60983E-001	4.00885E-004	0.00000E+000	1.84801E-004	2.40040E-001	4.61075E-001	3.57630E+000	9	...........
	10	0.146667	4.68294E-001	3.99842E-004	0.00000E+000	1.87243E-004	2.40040E-001	4.68388E-001	3.57630E+000	9	...........
	11	0.16	4.75512E-001	4.01030E-004	0.00000E+000	1.90695E-004	2.40040E-001	4.75606E-001	3.57630E+000	9	...........
	12	0.173333	4.82604E-001	4.00092E-004	0.00000E+000	1.93086E-004	2.40040E-001	4.82696E-001	3.57630E+000	9	...........
	13	0.186667	4.89583E-001	4.01583E-004	0.00000E+000	1.96608E-004	2.40040E-001	4.89680E-001	3.57630E+000	9	...........
	14	0.2	4.96371E-001	4.01303E-004	0.00000E+000	1.99195E-004	2.40040E-001	4.96469E-001	3.57630E+000	9	...........
	15	0.213333	5.03207E-001	4.01582E-004	0.00000E+000	2.02079E-004	2.40040E-001	5.03307E-001	3.57630E+000	9	...........
	16	0.226667	5.09945E-001	4.00914E-004	0.00000E+000	2.04444E-004	2.40040E-001	5.10056E-001	3.57630E+000	9	...........
	17	0.24	5.16624E-001	4.01076E-004	0.00000E+000	2.07206E-004	2.40040E-001	5.16729E-001	3.57630E+000	9	...........
	18	0.253333	5.23229E-001	4.01909E-004	0.00000E+000	2.10290E-004	2.40040E-001	5.23339E-001	3.57630E+000	9	...........
	19	0.266667	5.29854E-001	4.00031E-004	0.00000E+000	2.11958E-004	2.40040E-001	5.29967E-001	3.57630E+000	9	...........
	20	0.28	5.36135E-001	4.02421E-004	0.00000E+000	2.15752E-004	2.40040E-001	5.36284E-001	3.57630E+000	9	...........
	21	0.293333	5.42624E-001	4.01276E-004	0.00000E+000	2.17742E-004	2.40040E-001	5.42819E-001	3.57630E+000	9	...........
	22	0.306667	5.49079E-001	4.00843E-004	0.00000E+000	2.20095E-004	2.40040E-001	5.49262E-001	3.57630E+000	9	...........
	23	0.32	5.55367E-001	4.01744E-004	0.00000E+000	2.23115E-004	2.40040E-001	5.55531E-001	3.57630E+000	9	...........
	24	0.333333	5.61719E-001	4.00825E-004	0.00000E+000	2.25151E-004	2.40040E-001	5.61931E-001	3.57630E+000	9	...........
	25	0.346667	5.68119E-001	4.00995E-004	0.00000E+000	2.27813E-004	2.40040E-001	5.68305E-001	3.57630E+000	9	...........
	26	0.36	5.74404E-001	4.01199E-004	0.00000E+000	2.30450E-004	2.40040E-001	5.74625E-001	3.57630E+000	9	...........
	27	0.373333	5.80632E-001	4.01400E-004	0.00000E+000	2.33066E-004	2.40040E-001	5.80870E-001	3.57630E+000	9	...........
	28	0.386667	5.86900E-001	4.01751E-004	0.00000E+000	2.35788E-004	2.40040E-001	5.87135E-001	3.57630E+000	9	...........
	29	0.4	5.93153E-001	4.02894E-004	0.00000E+000	2.38978E-004	2.40040E-001	5.93381E-001	3.57630E+000	9	...........
	30	0.413333	5.99305E-001	4.00030E-004	0.00000E+000	2.39740E-004	2.40040E-001	5.99548E-001	3.57630E+000	9	...........
	31	0.426667	6.05364E-001	4.01992E-004	0.00000E+000	2.43352E-004	2.40040E-001	6.05664E-001	3.57630E+000	9	...........
	32	0.44	6.11496E-001	4.01673E-004	0.00000E+000	2.45622E-004	2.40040E-001	6.11772E-001	3.57700E+000	9	...........
	33	0.453333	6.17631E-001	4.00791E-004	0.00000E+000	2.47541E-004	2.40040E-001	6.17852E-001	3.57700E+000	9	...........
	34	0.466667	6.23614E-001	4.00291E-004	0.00000E+000	2.49627E-004	2.40040E-001	6.23812E-001	3.57700E+000	9	...........
	35	0.48	6.29640E-001	4.01298E-004	0.00000E+000	2.52674E-004	2.40040E-001	6.29887E-001	3.57700E+000	9	...........
	36	0.493333	6.35644E-001	4.00486E-004	0.00000E+000	2.54566E-004	2.40040E-001	6.35892E-001	3.57700E+000	9	...........
	37	0.506667	6.41706E-001	4.01411E-004	0.00000E+000	2.57588E-004	2.40040E-001	6.41951E-001	3.57700E+000	9	...........
	38	0.52	6.47675E-001	4.00124E-004	0.00000E+000	2.59150E-004	2.40040E-001	6.47919E-001	3.57700E+000	9	...........
	39	0.533333	6.53673E-001	4.01079E-004	0.00000E+000	2.62175E-004	2.40040E-001	6.53893E-001	3.57700E+000	9	...........
	40	0.546667	6.59628E-001	4.00576E-004	0.00000E+000	2.64231E-004	2.40040E-001	6.59858E-001	3.57700E+000	9	...........
	41	0.56	6.65630E-001	4.00407E-004	0.00000E+000	2.66523E-004	2.40040E-001	6.65892E-001	3.57700E+000	9	...........
	42	0.573333	6.71463E-001	3.99830E-004	0.00000E+000	2.68471E-004	2.40040E-001	6.71702E-001	3.57700E+000	9	...........
	43	0.586667	6.77342E-001	4.01699E-004	0.00000E+000	2.72088E-004	2.40040E-001	6.77589E-001	3.57700E+000	9	...........
	44	0.6	6.83213E-001	4.00767E-004	0.00000E+000	2.73809E-004	2.40040E-001	6.83462E-001	3.57700E+000	9	...........
	45	0.613333	6.88970E-001	4.02140E-004	0.00000E+000	2.77062E-004	2.40040E-001	6.89219E-001	3.57700E+000	9	...........
	46	0.626667	6.94799E-001	4.00491E-004	0.00000E+000	2.78261E-004	2.40040E-001	6.95053E-001	3.57700E+000	9	...........
	47	0.64	7.00632E-001	4.01068E-004	0.00000E+000	2.81001E-004	2.40040E-001	7.00867E-001	3.57700E+000	9	...........
	48	0.653333	7.06281E-001	4.01457E-004	0.00000E+000	2.83541E-004	2.40040E-001	7.06540E-001	3.57700E+000	9	...........
	49	0.666667	7.11992E-001	4.01419E-004	0.00000E+000	2.85807E-004	2.40040E-001	7.12236E-001	3.57700E+000	9	...........
	50	0.68	7.17720E-001	4.00679E-004	0.00000E+000	2.87576E-004	2.40040E-001	7.17965E-001	3.57700E+000	9	...........
	51	0.693333	7.23403E-001	4.01891E-004	0.00000E+000	2.90729E-004	2.40040E-001	7.23615E-001	3.57700E+000	9	...........
	52	0.706667	7.29010E-001	4.00565E-004	0.00000E+000	2.92016E-004	2.40040E-001	7.29236E-001	3.57700E+000	9	...........
	53	0.72	7.34615E-001	4.00333E-004	0.00000E+000	2.94091E-004	2.40040E-001	7.34879E-001	3.57700E+000	9	...........
	54	0.733333	7.40229E-001	4.01186E-004	0.00000E+000	2.96969E-004	2.40040E-001	7.40490E-001	3.57700E+000	9	...........
	55	0.746667	7.45888E-001	4.01373E-004	0.00000E+000	2.99380E-004	2.40040E-001	7.46144E-001	3.57700E+000	9	...........
	56	0.76	7.51432E-001	4.01674E-004	0.00000E+000	3.01831E-004	2.40040E-001	7.51676E-001	3.57700E+000	9	...........
	57	0.773333	7.56985E-001	4.02273E-004	0.00000E+000	3.04515E-004	2.40040E-001	7.57227E-001	3.57700E+000	9	...........
	58	0.786667	7.62444E-001	4.01247E-004	0.00000E+000	3.05929E-004	2.40040E-001	7.62674E-001	3.57700E+000	9	...........
	59	0.8	7.67845E-001	3.99915E-004	0.00000E+000	3.07073E-004	2.40040E-001	7.68106E-001	3.57700E+000	9	...........
	60	0.813333	7.73230E-001	4.00994E-004	0.00000E+000	3.10060E-004	2.40040E-001	7.73506E-001	3.57700E+000	9	...........
	61	0.826667	7.78615E-001	4.02084E-004	0.00000E+000	3.13069E-004	2.40040E-001	7.78906E-001	3.57700E+000	9	...........
	62	0.84	7.83977E-001	4.02782E-004	0.00000E+000	3.15772E-004	2.40040E-001	7.84237E-001	3.57700E+000	9	...........
	63	0.853333	7.89369E-001	4.01900E-004	0.00000E+000	3.17248E-004	2.40040E-001	7.89637E-001	3.57700E+000	9	...........
	64	0.866667	7.94759E-001	4.01010E-004	0.00000E+000	3.18706E-004	2.40040E-001	7.95020E-001	3.57700E+000	9	...........
	65	0.88	8.00065E-001	4.00250E-004	0.00000E+000	3.20226E-004	2.40040E-001	8.00297E-001	3.57700E+000	9	...........
	66	0.893333	8.05297E-001	3.99841E-004	0.00000E+000	3.21990E-004	2.40040E-001	8.05582E-001	3.57700E+000	9	...........
	67	0.906667	8.10493E-001	4.01694E-004	0.00000E+000	3.25570E-004	2.40040E-001	8.10775E-001	3.57700E+000	9	...........
	68	0.92	8.15730E-001	4.01486E-004	0.00000E+000	3.27504E-004	2.40040E-001	8.16006E-001	3.57700E+000	9	...........
	69	0.933333	8.20922E-001	4.00175E-004	0.00000E+000	3.28513E-004	2.40040E-001	8.21208E-001	3.57700E+000	9	...........
	70	0.946667	8.25999E-001	4.01090E-004	0.00000E+000	3.31300E-004	2.40040E-001	8.26302E-001	3.57700E+000	9	...........
	71	0.96	8.31094E-001	4.00765E-004	0.00000E+000	3.33073E-004	2.40040E-001	8.31388E-001	3.57700E+000	9	...........
	72	0.97333	8.36173E-001	4.01486E-004	0.00000E+000	3.35712E-004	2.40040E-001	8.36468E-001	3.57700E+000	9	...........
	73	0.98667	8.41136E-001	4.01427E-004	0.00000E+000	3.37655E-004	2.40040E-001	8.41420E-001	3.57700E+000	9	...........
	74	1	8.46149E-001	4.01240E-004	0.00000E+000	3.39509E-004	2.40040E-001	8.46428E-001	3.57700E+000	9	...........
	75	1.01333	8.51106E-001	4.00793E-004	0.00000E+000	3.41117E-004	2.40040E-001	8.51377E-001	3.57700E+000	9	...........
	76	1.02667	8.55979E-001	4.00269E-004	0.00000E+000	3.42622E-004	2.40040E-001	8.56254E-001	3.57700E+000	9	...........
	77	1.04	8.60827E-001	4.01123E-004	0.00000E+000	3.45298E-004	2.40040E-001	8.61124E-001	3.57700E+000	9	...........
	78	1.05333	8.65703E-001	4.02118E-004	0.00000E+000	3.48115E-004	2.40040E-001	8.66008E-001	3.57700E+000	9	...........
	79	1.06667	8.70521E-001	3.99770E-004	0.00000E+000	3.48008E-004	2.40040E-001	8.70816E-001	3.57700E+000	9	...........
	80	1.08	8.75290E-001	4.00521E-004	0.00000E+000	3.50572E-004	2.40040E-001	8.75591E-001	3.57700E+000	9	...........
	81	1.09333	8.80053E-001	4.01401E-004	0.00000E+000	3.53254E-004	2.40040E-001	8.80373E-001	3.57700E+000	9	...........
	82	1.10667	8.84823E-001	4.00876E-004	0.00000E+000	3.54705E-004	2.40040E-001	8.85127E-001	3.57700E+000	9	...........
	83	1.12	8.89441E-001	4.00420E-004	0.00000E+000	3.56150E-004	2.40040E-001	8.89767E-001	3.57700E+000	9	...........
	84	1.13333	8.94013E-001	4.00412E-004	0.00000E+000	3.57973E-004	2.40040E-001	8.94323E-001	3.57700E+000	9	...........
	85	1.14667	8.98540E-001	4.00476E-004	0.00000E+000	3.59844E-004	2.40040E-001	8.98837E-001	3.57700E+000	9	...........
	86	1.16	9.03058E-001	4.01549E-004	0.00000E+000	3.62622E-004	2.40040E-001	9.03392E-001	3.57700E+000	9	...........
	87	1.17333	9.07536E-001	4.01939E-004	0.00000E+000	3.64774E-004	2.40040E-001	9.07859E-001	3.57700E+000	9	...........
	88	1.18667	9.11985E-001	4.00291E-004	0.00000E+000	3.65059E-004	2.40040E-001	9.12272E-001	3.57700E+000	9	...........
	89	1.2	9.16386E-001	4.00550E-004	0.00000E+000	3.67059E-004	2.40040E-001	9.16693E-001	3.57700E+000	9	...........
	90	1.21333	9.20773E-001	4.00806E-004	0.00000E+000	3.69052E-004	2.40040E-001	9.21058E-001	3.57700E+000	9	...........
	91	1.22667	9.25161E-001	3.99935E-004	0.00000E+000	3.70005E-004	2.40040E-001	9.25413E-001	3.57700E+000	9	...........
	92	1.24	9.29459E-001	4.00759E-004	0.00000E+000	3.72489E-004	2.40040E-001	9.29730E-001	3.57700E+000	9	...........
	93	1.25333	9.33722E-001	4.01300E-004	0.00000E+000	3.74703E-004	2.40040E-001	9.34028E-001	3.57700E+000	9	...........
	94	1.26667	9.37984E-001	4.00530E-004	0.00000E+000	3.75691E-004	2.40040E-001	9.38291E-001	3.57700E+000	9	...........
	95	1.28	9.42156E-001	4.01549E-004	0.00000E+000	3.78322E-004	2.40040E-001	9.42419E-001	3.57700E+000	9	...........
	96	1.29333	9.46331E-001	4.00055E-004	0.00000E+000	3.78585E-004	2.40040E-001	9.46625E-001	3.57700E+000	9	...........
	97	1.30667	9.50455E-001	4.02778E-004	0.00000E+000	3.82822E-004	2.40040E-001	9.50753E-001	3.57700E+000	9	...........
	98	1.32	9.54517E-001	4.00592E-004	0.00000E+000	3.82372E-004	2.40040E-001	9.54831E-001	3.57700E+000	9	...........
	99	1.33333	9.58572E-001	4.00085E-004	0.00000E+000	3.83511E-004	2.40040E-001	9.58876E-001	3.57700E+000	9	...........
	100	1.34667	9.62522E-001	4.00936E-004	0.00000E+000	3.85909E-004	2.40040E-001	9.62848E-001	3.57700E+000	9	...........
	101	1.36	9.66466E-001	4.00061E-004	0.00000E+000	3.86646E-004	2.40040E-001	9.66773E-001	3.57700E+000	9	...........
	102	1.37333	9.70401E-001	4.01297E-004	0.00000E+000	3.89419E-004	2.40040E-001	9.70733E-001	3.57700E+000	9	...........
	103	1.38667	9.74340E-001	4.02087E-004	0.00000E+000	3.91769E-004	2.40040E-001	9.74658E-001	3.57700E+000	9	...........
	104	1.4	9.78175E-001	4.00506E-004	0.00000E+000	3.91765E-004	2.40040E-001	9.78500E-001	3.57700E+000	9	...........
	105	1.41333	9.81962E-001	4.01463E-004	0.00000E+000	3.94221E-004	2.40040E-001	9.82283E-001	3.57700E+000	9	...........
	106	1.42667	9.85657E-001	4.00308E-004	0.00000E+000	3.94567E-004	2.40040E-001	9.85987E-001	3.57700E+000	9	...........
	107	1.44	9.89336E-001	4.00701E-004	0.00000E+000	3.96428E-004	2.40040E-001	9.89656E-001	3.57630E+000	9	...........
	108	1.45333	9.93002E-001	4.01867E-004	0.00000E+000	3.99055E-004	2.40040E-001	9.93337E-001	3.57630E+000	9	...........
	109	1.46667	9.96687E-001	4.00510E-004	0.00000E+000	3.99183E-004	2.40040E-001	9.96994E-001	3.57630E+000	9	...........
	110	1.47333	9.99381E-001	4.00531E-004	0.00000E+000	4.00283E-004	2.40040E-001	9.99732E-001	3.57630E+000	9	...........
STARTTIMEOFFSET	QUANT	2273.733	Start Time Offset (s)
