EXPLAIN
TAG	PWR800_CHARGE
TITLE	LABEL	PWR Cyclic Charge Discharge (Cell) - Charge Step	Test &Identifier
DATE	LABEL	12-7-2017	Date
TIME	LABEL	14:56:49	Time
NOTES	NOTES	3	&Notes...
	supercap test cell
	0.4mg
	6M KOH
PSTAT	PSTAT	IFC5000-01520	Potentiostat
CAPACITY	QUANT	1.00000E-003	Capacity (A-hr)
CELLTYPE	SELECTOR	1	&Cell Type
WORKINGCONNECTION	SELECTOR	0	&Working Lead
MAXCHARGETIME	VARIABLEANDUNITS	1.00000E+002	s	1.00000E+002	second(s)	Max &Charge Time
CHARGECURRENT	QUANT	4.00000E-004	&Charge Current (A) 
VOLTAGEFINISH	TWOPARAM	F	1.00000E-003	3.60000E+003	&Voltage Finish	 I (A) < 	Max Time(s)
SAMPLETIME	QUANT	1.00000E-002	Sa&mple Period (s)
CHARGESTOPAT1	MULTIPARAM	4	1.00000E+000	Charge Stop At &1	Voltage > Limit	V
CHARGESTOPAT2	MULTIPARAM	0	0.00000E+000	Charge Stop At &2	None	N/A
AESBHCSELECTOR	TOGGLE	F	Save Both Half Cells
IRCOMP	TOGGLE	F	IR &Measure
EOC	QUANT	0	Open Circuit (V)
SEQUENCER	TOGGLE	TRUE	Run as Sequence
PSTATMODEL	IQUANT	53	Pstat Model
PSTATSECTION	LABEL	IFC5000-01520	Pstat Section
PSTATSERIALNO	LABEL	01520	Pstat Serial Number
CTRLMODE	IQUANT	0	Control Mode
ELECTROMETER	IQUANT	1	RE=0 or CS=1
IESTAB	IQUANT	0	I/E Stability
CASPEED	IQUANT	4	Control Amp Speed
CONVENTION	IQUANT	1	Current Convention
ICHRANGE	IQUANT	2	Ich Range
ICHRANGEMODE	TOGGLE	T	Ich Auto Range
ICHOFFSETENABLE	TOGGLE	F	Ich Offset Enable
ICHOFFSET	QUANT	0	Ich Offset (V)
ICHFILTER	IQUANT	1	Ich Filter
VCHRANGE	IQUANT	2	Vch Range
VCHRANGEMODE	TOGGLE	T	Vch Auto Range
VCHOFFSETENABLE	TOGGLE	F	Vch Offset Enable
VCHOFFSET	QUANT	0	Vch Offset (V)
VCHFILTER	IQUANT	1	Vch Filter
IERANGELOWERLIMIT	IQUANT	9	I/E Range Lower Limit
IERANGEMODE	TOGGLE	F	I/E AutoRange
IERANGE	IQUANT	9	I/E Range
ACHSELECT	IQUANT	1	Ach Select
ACHRANGE	IQUANT	2	Ach Range
ACHOFFSETENABLE	TOGGLE	F	Ach Offset Enable
ACHOFFSET	QUANT	0	Ach Offset (V)
ACHFILTER	IQUANT	1	Ach Filter
CABLEID	IQUANT	14	Cable ID
DCCALDATE	LABEL	5-7-2017	DC Calibration Date
ACCALDATE	LABEL	12/3/2015	AC Calibration Date
FRAMEWORKVERSION	QUANT	7.01	Framework Version
INSTRUMENTVERSION	LABEL	4.00	Instrument Version
CURVE	TABLE	115
	Pt	T	Vf	Im	Vu	Pwr	Sig	Ach	Temp	IERange	Over
	#	s	V	A	V	W	V	V	deg C	#	bits
	0	0.013333	3.71171E-001	4.00450E-004	0.00000E+000	1.48636E-004	2.40040E-001	3.71260E-001	3.57630E+000	9	...........
	1	0.026667	3.83069E-001	4.01281E-004	0.00000E+000	1.53718E-004	2.40040E-001	3.83143E-001	3.57630E+000	9	...........
	2	0.04	3.93239E-001	4.01772E-004	0.00000E+000	1.57992E-004	2.40040E-001	3.93315E-001	3.57630E+000	9	...........
	3	0.053333	4.02553E-001	4.00717E-004	0.00000E+000	1.61310E-004	2.40040E-001	4.02630E-001	3.57630E+000	9	...........
	4	0.066667	4.11192E-001	4.01180E-004	0.00000E+000	1.64962E-004	2.40040E-001	4.11278E-001	3.57630E+000	9	...........
	5	0.08	4.19410E-001	4.00487E-004	0.00000E+000	1.67968E-004	2.40040E-001	4.19498E-001	3.57630E+000	9	...........
	6	0.093333	4.27300E-001	4.01396E-004	0.00000E+000	1.71516E-004	2.40040E-001	4.27386E-001	3.57630E+000	9	...........
	7	0.106667	4.34907E-001	4.02062E-004	0.00000E+000	1.74859E-004	2.40040E-001	4.34994E-001	3.57630E+000	9	...........
	8	0.12	4.42354E-001	4.01831E-004	0.00000E+000	1.77752E-004	2.40040E-001	4.42441E-001	3.57630E+000	9	...........
	9	0.133333	4.49644E-001	4.00670E-004	0.00000E+000	1.80159E-004	2.40040E-001	4.49736E-001	3.57630E+000	9	...........
	10	0.146667	4.56726E-001	4.00446E-004	0.00000E+000	1.82894E-004	2.40040E-001	4.56819E-001	3.57630E+000	9	...........
	11	0.16	4.63764E-001	3.99695E-004	0.00000E+000	1.85364E-004	2.40040E-001	4.63854E-001	3.57630E+000	9	...........
	12	0.173333	4.70624E-001	4.01676E-004	0.00000E+000	1.89039E-004	2.40040E-001	4.70716E-001	3.57630E+000	9	...........
	13	0.186667	4.77409E-001	4.01498E-004	0.00000E+000	1.91679E-004	2.40040E-001	4.77506E-001	3.57630E+000	9	...........
	14	0.2	4.84220E-001	4.02290E-004	0.00000E+000	1.94797E-004	2.40040E-001	4.84319E-001	3.57630E+000	9	...........
	15	0.213333	4.90933E-001	4.01338E-004	0.00000E+000	1.97030E-004	2.40040E-001	4.91032E-001	3.57630E+000	9	...........
	16	0.226667	4.97527E-001	4.01313E-004	0.00000E+000	1.99664E-004	2.40040E-001	4.97628E-001	3.57630E+000	9	...........
	17	0.24	5.04044E-001	4.00077E-004	0.00000E+000	2.01656E-004	2.40040E-001	5.04140E-001	3.57630E+000	9	...........
	18	0.253333	5.10486E-001	3.99517E-004	0.00000E+000	2.03948E-004	2.40040E-001	5.10590E-001	3.57630E+000	9	...........
	19	0.266667	5.16900E-001	4.00373E-004	0.00000E+000	2.06953E-004	2.40040E-001	5.17009E-001	3.57630E+000	9	...........
	20	0.28	5.23338E-001	4.00693E-004	0.00000E+000	2.09698E-004	2.40040E-001	5.23445E-001	3.57630E+000	9	...........
	21	0.293333	5.29675E-001	4.00547E-004	0.00000E+000	2.12160E-004	2.40040E-001	5.29786E-001	3.57630E+000	9	...........
	22	0.306667	5.35695E-001	4.01075E-004	0.00000E+000	2.14854E-004	2.40040E-001	5.35903E-001	3.57630E+000	9	...........
	23	0.32	5.41915E-001	3.99379E-004	0.00000E+000	2.16430E-004	2.40040E-001	5.42135E-001	3.57638E+000	9	...........
	24	0.333333	5.48077E-001	4.00840E-004	0.00000E+000	2.19691E-004	2.40040E-001	5.48299E-001	3.57660E+000	9	...........
	25	0.346667	5.54218E-001	4.00543E-004	0.00000E+000	2.21988E-004	2.40040E-001	5.54469E-001	3.57660E+000	9	...........
	26	0.36	5.60372E-001	4.01251E-004	0.00000E+000	2.24850E-004	2.40040E-001	5.60622E-001	3.57660E+000	9	...........
	27	0.373333	5.66502E-001	4.00937E-004	0.00000E+000	2.27131E-004	2.40040E-001	5.66732E-001	3.57660E+000	9	...........
	28	0.386667	5.72554E-001	4.01949E-004	0.00000E+000	2.30138E-004	2.40040E-001	5.72785E-001	3.57660E+000	9	...........
	29	0.4	5.78543E-001	4.00992E-004	0.00000E+000	2.31991E-004	2.40040E-001	5.78802E-001	3.57660E+000	9	...........
	30	0.413333	5.84585E-001	4.00625E-004	0.00000E+000	2.34199E-004	2.40040E-001	5.84841E-001	3.57660E+000	9	...........
	31	0.426667	5.90626E-001	4.01947E-004	0.00000E+000	2.37400E-004	2.40040E-001	5.90891E-001	3.57660E+000	9	...........
	32	0.44	5.96627E-001	4.00550E-004	0.00000E+000	2.38979E-004	2.40040E-001	5.96882E-001	3.57660E+000	9	...........
	33	0.453333	6.02604E-001	4.02175E-004	0.00000E+000	2.42353E-004	2.40040E-001	6.02887E-001	3.57660E+000	9	...........
	34	0.466667	6.08490E-001	4.01364E-004	0.00000E+000	2.44226E-004	2.40040E-001	6.08745E-001	3.57660E+000	9	...........
	35	0.48	6.14427E-001	4.01302E-004	0.00000E+000	2.46571E-004	2.40040E-001	6.14677E-001	3.57660E+000	9	...........
	36	0.493333	6.20358E-001	4.01050E-004	0.00000E+000	2.48795E-004	2.40040E-001	6.20561E-001	3.57660E+000	9	...........
	37	0.506667	6.26144E-001	4.00828E-004	0.00000E+000	2.50976E-004	2.40040E-001	6.26332E-001	3.57660E+000	9	...........
	38	0.52	6.31991E-001	4.00187E-004	0.00000E+000	2.52914E-004	2.40040E-001	6.32197E-001	3.57660E+000	9	...........
	39	0.533333	6.37850E-001	4.00315E-004	0.00000E+000	2.55341E-004	2.40040E-001	6.38083E-001	3.57660E+000	9	...........
	40	0.546667	6.43757E-001	4.00937E-004	0.00000E+000	2.58106E-004	2.40040E-001	6.43966E-001	3.57660E+000	9	...........
	41	0.56	6.49566E-001	3.99889E-004	0.00000E+000	2.59754E-004	2.40040E-001	6.49782E-001	3.57660E+000	9	...........
	42	0.573333	6.55411E-001	4.01163E-004	0.00000E+000	2.62927E-004	2.40040E-001	6.55642E-001	3.57660E+000	9	...........
	43	0.586667	6.61118E-001	4.01232E-004	0.00000E+000	2.65261E-004	2.40040E-001	6.61357E-001	3.57660E+000	9	...........
	44	0.6	6.66917E-001	4.02004E-004	0.00000E+000	2.68103E-004	2.40040E-001	6.67165E-001	3.57660E+000	9	...........
	45	0.613333	6.72636E-001	4.01825E-004	0.00000E+000	2.70282E-004	2.40040E-001	6.72882E-001	3.57660E+000	9	...........
	46	0.626667	6.78383E-001	4.00228E-004	0.00000E+000	2.71508E-004	2.40040E-001	6.78602E-001	3.57660E+000	9	...........
	47	0.64	6.84079E-001	4.01649E-004	0.00000E+000	2.74760E-004	2.40040E-001	6.84302E-001	3.57660E+000	9	...........
	48	0.653333	6.89730E-001	4.00511E-004	0.00000E+000	2.76244E-004	2.40040E-001	6.89923E-001	3.57660E+000	9	...........
	49	0.666667	6.95362E-001	4.00353E-004	0.00000E+000	2.78390E-004	2.40040E-001	6.95548E-001	3.57660E+000	9	...........
	50	0.68	7.00998E-001	4.00708E-004	0.00000E+000	2.80896E-004	2.40040E-001	7.01180E-001	3.57660E+000	9	...........
	51	0.693333	7.06610E-001	4.01053E-004	0.00000E+000	2.83388E-004	2.40040E-001	7.06815E-001	3.57660E+000	9	...........
	52	0.706667	7.12173E-001	4.01044E-004	0.00000E+000	2.85613E-004	2.40040E-001	7.12375E-001	3.57660E+000	9	...........
	53	0.72	7.17748E-001	4.02180E-004	0.00000E+000	2.88664E-004	2.40040E-001	7.17969E-001	3.57660E+000	9	...........
	54	0.733333	7.23296E-001	4.01154E-004	0.00000E+000	2.90153E-004	2.40040E-001	7.23528E-001	3.57660E+000	9	...........
	55	0.746667	7.28820E-001	4.00738E-004	0.00000E+000	2.92065E-004	2.40040E-001	7.29050E-001	3.57660E+000	9	...........
	56	0.76	7.34269E-001	4.01627E-004	0.00000E+000	2.94903E-004	2.40040E-001	7.34504E-001	3.57660E+000	9	...........
	57	0.773333	7.39716E-001	4.00452E-004	0.00000E+000	2.96221E-004	2.40040E-001	7.39961E-001	3.57660E+000	9	...........
	58	0.786667	7.45146E-001	4.00842E-004	0.00000E+000	2.98686E-004	2.40040E-001	7.45401E-001	3.57660E+000	9	...........
	59	0.8	7.50548E-001	4.01583E-004	0.00000E+000	3.01407E-004	2.40040E-001	7.50776E-001	3.57660E+000	9	...........
	60	0.813333	7.55926E-001	4.02140E-004	0.00000E+000	3.03988E-004	2.40040E-001	7.56156E-001	3.57660E+000	9	...........
	61	0.826667	7.61305E-001	4.01452E-004	0.00000E+000	3.05628E-004	2.40040E-001	7.61527E-001	3.57660E+000	9	...........
	62	0.84	7.66705E-001	4.01951E-004	0.00000E+000	3.08178E-004	2.40040E-001	7.66975E-001	3.57660E+000	9	...........
	63	0.853333	7.72087E-001	4.00545E-004	0.00000E+000	3.09255E-004	2.40040E-001	7.72326E-001	3.57660E+000	9	...........
	64	0.866667	7.77405E-001	4.01023E-004	0.00000E+000	3.11757E-004	2.40040E-001	7.77657E-001	3.57660E+000	9	...........
	65	0.88	7.82738E-001	4.01681E-004	0.00000E+000	3.14411E-004	2.40040E-001	7.82985E-001	3.57660E+000	9	...........
	66	0.893333	7.87905E-001	3.98900E-004	0.00000E+000	3.14295E-004	2.40040E-001	7.88162E-001	3.57660E+000	9	...........
	67	0.906667	7.93126E-001	4.00968E-004	0.00000E+000	3.18018E-004	2.40040E-001	7.93374E-001	3.57660E+000	9	...........
	68	0.92	7.98265E-001	4.01615E-004	0.00000E+000	3.20595E-004	2.40040E-001	7.98526E-001	3.57660E+000	9	...........
	69	0.933333	8.03410E-001	4.00344E-004	0.00000E+000	3.21640E-004	2.40040E-001	8.03686E-001	3.57660E+000	9	...........
	70	0.946667	8.08587E-001	3.99935E-004	0.00000E+000	3.23382E-004	2.40040E-001	8.08860E-001	3.57660E+000	9	...........
	71	0.96	8.13687E-001	4.01381E-004	0.00000E+000	3.26598E-004	2.40040E-001	8.13973E-001	3.57660E+000	9	...........
	72	0.97333	8.18782E-001	4.00567E-004	0.00000E+000	3.27977E-004	2.40040E-001	8.19065E-001	3.57660E+000	9	...........
	73	0.98667	8.23771E-001	4.02130E-004	0.00000E+000	3.31263E-004	2.40040E-001	8.24057E-001	3.57660E+000	9	...........
	74	1	8.28785E-001	4.01020E-004	0.00000E+000	3.32359E-004	2.40040E-001	8.29045E-001	3.57660E+000	9	...........
	75	1.01333	8.33726E-001	4.00833E-004	0.00000E+000	3.34184E-004	2.40040E-001	8.34027E-001	3.57660E+000	9	...........
	76	1.02667	8.38689E-001	4.01511E-004	0.00000E+000	3.36743E-004	2.40040E-001	8.38921E-001	3.57660E+000	9	...........
	77	1.04	8.43651E-001	4.01016E-004	0.00000E+000	3.38317E-004	2.40040E-001	8.43894E-001	3.57660E+000	9	...........
	78	1.05333	8.48590E-001	4.01547E-004	0.00000E+000	3.40749E-004	2.40040E-001	8.48819E-001	3.57660E+000	9	...........
	79	1.06667	8.53437E-001	4.01772E-004	0.00000E+000	3.42887E-004	2.40040E-001	8.53679E-001	3.57660E+000	9	...........
	80	1.08	8.58180E-001	4.00346E-004	0.00000E+000	3.43569E-004	2.40040E-001	8.58433E-001	3.57660E+000	9	...........
	81	1.09333	8.63023E-001	4.00531E-004	0.00000E+000	3.45668E-004	2.40040E-001	8.63284E-001	3.57660E+000	9	...........
	82	1.10667	8.67780E-001	4.01959E-004	0.00000E+000	3.48812E-004	2.40040E-001	8.68066E-001	3.57660E+000	9	...........
	83	1.12	8.72508E-001	4.01085E-004	0.00000E+000	3.49949E-004	2.40040E-001	8.72783E-001	3.57660E+000	9	...........
	84	1.13333	8.77078E-001	4.00119E-004	0.00000E+000	3.50935E-004	2.40040E-001	8.77351E-001	3.57660E+000	9	...........
	85	1.14667	8.81725E-001	4.01326E-004	0.00000E+000	3.53859E-004	2.40040E-001	8.81992E-001	3.57660E+000	9	...........
	86	1.16	8.86388E-001	4.00839E-004	0.00000E+000	3.55299E-004	2.40040E-001	8.86636E-001	3.57660E+000	9	...........
	87	1.17333	8.90977E-001	4.00121E-004	0.00000E+000	3.56498E-004	2.40040E-001	8.91228E-001	3.57660E+000	9	...........
	88	1.18667	8.95501E-001	3.99728E-004	0.00000E+000	3.57957E-004	2.40040E-001	8.95758E-001	3.57660E+000	9	...........
	89	1.2	9.00008E-001	4.02013E-004	0.00000E+000	3.61815E-004	2.40040E-001	9.00293E-001	3.57660E+000	9	...........
	90	1.21333	9.04483E-001	4.00896E-004	0.00000E+000	3.62604E-004	2.40040E-001	9.04804E-001	3.57660E+000	9	...........
	91	1.22667	9.08894E-001	4.01050E-004	0.00000E+000	3.64512E-004	2.40040E-001	9.09207E-001	3.57660E+000	9	...........
	92	1.24	9.13288E-001	4.00874E-004	0.00000E+000	3.66113E-004	2.40040E-001	9.13582E-001	3.57660E+000	9	...........
	93	1.25333	9.17724E-001	4.01121E-004	0.00000E+000	3.68119E-004	2.40040E-001	9.18028E-001	3.57660E+000	9	...........
	94	1.26667	9.22066E-001	4.01385E-004	0.00000E+000	3.70103E-004	2.40040E-001	9.22330E-001	3.57660E+000	9	...........
	95	1.28	9.26325E-001	4.00328E-004	0.00000E+000	3.70834E-004	2.40040E-001	9.26613E-001	3.57660E+000	9	...........
	96	1.29333	9.30534E-001	4.01576E-004	0.00000E+000	3.73681E-004	2.40040E-001	9.30799E-001	3.57660E+000	9	...........
	97	1.30667	9.34679E-001	4.01787E-004	0.00000E+000	3.75542E-004	2.40040E-001	9.34975E-001	3.57660E+000	9	...........
	98	1.32	9.38825E-001	4.00117E-004	0.00000E+000	3.75639E-004	2.40040E-001	9.39143E-001	3.57652E+000	9	...........
	99	1.33333	9.42940E-001	4.00141E-004	0.00000E+000	3.77309E-004	2.40040E-001	9.43254E-001	3.57630E+000	9	...........
	100	1.34667	9.47066E-001	4.01081E-004	0.00000E+000	3.79851E-004	2.40040E-001	9.47355E-001	3.57630E+000	9	...........
	101	1.36	9.51049E-001	4.01776E-004	0.00000E+000	3.82109E-004	2.40040E-001	9.51339E-001	3.57630E+000	9	...........
	102	1.37333	9.55023E-001	4.00574E-004	0.00000E+000	3.82558E-004	2.40040E-001	9.55295E-001	3.57630E+000	9	...........
	103	1.38667	9.58982E-001	4.01135E-004	0.00000E+000	3.84681E-004	2.40040E-001	9.59286E-001	3.57630E+000	9	...........
	104	1.4	9.62910E-001	4.02584E-004	0.00000E+000	3.87652E-004	2.40040E-001	9.63214E-001	3.57630E+000	9	...........
	105	1.41333	9.66812E-001	4.01179E-004	0.00000E+000	3.87865E-004	2.40040E-001	9.67144E-001	3.57630E+000	9	...........
	106	1.42667	9.70684E-001	4.00583E-004	0.00000E+000	3.88840E-004	2.40040E-001	9.71019E-001	3.57630E+000	9	...........
	107	1.44	9.74619E-001	4.01427E-004	0.00000E+000	3.91239E-004	2.40040E-001	9.74934E-001	3.57630E+000	9	...........
	108	1.45333	9.78406E-001	4.00234E-004	0.00000E+000	3.91592E-004	2.40040E-001	9.78736E-001	3.57630E+000	9	...........
	109	1.46667	9.82114E-001	4.00356E-004	0.00000E+000	3.93196E-004	2.40040E-001	9.82408E-001	3.57630E+000	9	...........
	110	1.48	9.85817E-001	4.01260E-004	0.00000E+000	3.95569E-004	2.40040E-001	9.86145E-001	3.57630E+000	9	...........
	111	1.49333	9.89440E-001	3.99791E-004	0.00000E+000	3.95569E-004	2.40040E-001	9.89754E-001	3.57630E+000	9	...........
	112	1.50667	9.93043E-001	4.00098E-004	0.00000E+000	3.97315E-004	2.40040E-001	9.93341E-001	3.57630E+000	9	...........
	113	1.52	9.96636E-001	3.99244E-004	0.00000E+000	3.97901E-004	2.40040E-001	9.96942E-001	3.57630E+000	9	...........
	114	1.52833	9.99522E-001	4.01701E-004	0.00000E+000	4.01509E-004	2.40040E-001	9.99821E-001	3.57630E+000	9	...........
STARTTIMEOFFSET	QUANT	1823.84	Start Time Offset (s)
