EXPLAIN
TAG	PWR800_CHARGE
TITLE	LABEL	PWR Cyclic Charge Discharge (Cell) - Charge Step	Test &Identifier
DATE	LABEL	12-7-2017	Date
TIME	LABEL	14:48:10	Time
NOTES	NOTES	3	&Notes...
	supercap test cell
	0.4mg
	6M KOH
PSTAT	PSTAT	IFC5000-01520	Potentiostat
CAPACITY	QUANT	1.00000E-003	Capacity (A-hr)
CELLTYPE	SELECTOR	1	&Cell Type
WORKINGCONNECTION	SELECTOR	0	&Working Lead
MAXCHARGETIME	VARIABLEANDUNITS	1.00000E+002	s	1.00000E+002	second(s)	Max &Charge Time
CHARGECURRENT	QUANT	4.00000E-004	&Charge Current (A) 
VOLTAGEFINISH	TWOPARAM	F	1.00000E-003	3.60000E+003	&Voltage Finish	 I (A) < 	Max Time(s)
SAMPLETIME	QUANT	1.00000E-002	Sa&mple Period (s)
CHARGESTOPAT1	MULTIPARAM	4	1.00000E+000	Charge Stop At &1	Voltage > Limit	V
CHARGESTOPAT2	MULTIPARAM	0	0.00000E+000	Charge Stop At &2	None	N/A
AESBHCSELECTOR	TOGGLE	F	Save Both Half Cells
IRCOMP	TOGGLE	F	IR &Measure
EOC	QUANT	0	Open Circuit (V)
SEQUENCER	TOGGLE	TRUE	Run as Sequence
PSTATMODEL	IQUANT	53	Pstat Model
PSTATSECTION	LABEL	IFC5000-01520	Pstat Section
PSTATSERIALNO	LABEL	01520	Pstat Serial Number
CTRLMODE	IQUANT	0	Control Mode
ELECTROMETER	IQUANT	1	RE=0 or CS=1
IESTAB	IQUANT	0	I/E Stability
CASPEED	IQUANT	4	Control Amp Speed
CONVENTION	IQUANT	1	Current Convention
ICHRANGE	IQUANT	2	Ich Range
ICHRANGEMODE	TOGGLE	T	Ich Auto Range
ICHOFFSETENABLE	TOGGLE	F	Ich Offset Enable
ICHOFFSET	QUANT	0	Ich Offset (V)
ICHFILTER	IQUANT	1	Ich Filter
VCHRANGE	IQUANT	2	Vch Range
VCHRANGEMODE	TOGGLE	T	Vch Auto Range
VCHOFFSETENABLE	TOGGLE	F	Vch Offset Enable
VCHOFFSET	QUANT	0	Vch Offset (V)
VCHFILTER	IQUANT	1	Vch Filter
IERANGELOWERLIMIT	IQUANT	9	I/E Range Lower Limit
IERANGEMODE	TOGGLE	F	I/E AutoRange
IERANGE	IQUANT	9	I/E Range
ACHSELECT	IQUANT	1	Ach Select
ACHRANGE	IQUANT	2	Ach Range
ACHOFFSETENABLE	TOGGLE	F	Ach Offset Enable
ACHOFFSET	QUANT	0	Ach Offset (V)
ACHFILTER	IQUANT	1	Ach Filter
CABLEID	IQUANT	14	Cable ID
DCCALDATE	LABEL	5-7-2017	DC Calibration Date
ACCALDATE	LABEL	12/3/2015	AC Calibration Date
FRAMEWORKVERSION	QUANT	7.01	Framework Version
INSTRUMENTVERSION	LABEL	4.00	Instrument Version
CURVE	TABLE	120
	Pt	T	Vf	Im	Vu	Pwr	Sig	Ach	Temp	IERange	Over
	#	s	V	A	V	W	V	V	deg C	#	bits
	0	0.013333	3.61928E-001	4.01831E-004	0.00000E+000	1.45434E-004	2.40040E-001	3.62022E-001	3.57640E+000	9	...........
	1	0.026667	3.73432E-001	4.00158E-004	0.00000E+000	1.49432E-004	2.40040E-001	3.73511E-001	3.57640E+000	9	...........
	2	0.04	3.83286E-001	4.00836E-004	0.00000E+000	1.53635E-004	2.40040E-001	3.83359E-001	3.57640E+000	9	...........
	3	0.053333	3.92214E-001	4.00203E-004	0.00000E+000	1.56965E-004	2.40040E-001	3.92291E-001	3.57640E+000	9	...........
	4	0.066667	4.00562E-001	4.00417E-004	0.00000E+000	1.60392E-004	2.40040E-001	4.00639E-001	3.57640E+000	9	...........
	5	0.08	4.08503E-001	3.99513E-004	0.00000E+000	1.63203E-004	2.40040E-001	4.08580E-001	3.57640E+000	9	...........
	6	0.093333	4.16232E-001	4.01041E-004	0.00000E+000	1.66926E-004	2.40040E-001	4.16315E-001	3.57640E+000	9	...........
	7	0.106667	4.23633E-001	4.00418E-004	0.00000E+000	1.69630E-004	2.40040E-001	4.23716E-001	3.57640E+000	9	...........
	8	0.12	4.30905E-001	4.00741E-004	0.00000E+000	1.72681E-004	2.40040E-001	4.30994E-001	3.57640E+000	9	...........
	9	0.133333	4.38055E-001	4.00768E-004	0.00000E+000	1.75558E-004	2.40040E-001	4.38141E-001	3.57640E+000	9	...........
	10	0.146667	4.45092E-001	4.02107E-004	0.00000E+000	1.78975E-004	2.40040E-001	4.45184E-001	3.57640E+000	9	...........
	11	0.16	4.51908E-001	4.00271E-004	0.00000E+000	1.80885E-004	2.40040E-001	4.52004E-001	3.57640E+000	9	...........
	12	0.173333	4.58634E-001	4.02548E-004	0.00000E+000	1.84622E-004	2.40040E-001	4.58727E-001	3.57640E+000	9	...........
	13	0.186667	4.65303E-001	3.99986E-004	0.00000E+000	1.86115E-004	2.40040E-001	4.65394E-001	3.57640E+000	9	...........
	14	0.2	4.71851E-001	4.01289E-004	0.00000E+000	1.89349E-004	2.40040E-001	4.71947E-001	3.57643E+000	9	...........
	15	0.213333	4.78337E-001	4.01100E-004	0.00000E+000	1.91861E-004	2.40040E-001	4.78428E-001	3.57650E+000	9	...........
	16	0.226667	4.84788E-001	4.00520E-004	0.00000E+000	1.94167E-004	2.40040E-001	4.84886E-001	3.57650E+000	9	...........
	17	0.24	4.91157E-001	3.99948E-004	0.00000E+000	1.96437E-004	2.40040E-001	4.91259E-001	3.57650E+000	9	...........
	18	0.253333	4.97534E-001	4.00894E-004	0.00000E+000	1.99458E-004	2.40040E-001	4.97637E-001	3.57650E+000	9	...........
	19	0.266667	5.03775E-001	4.01185E-004	0.00000E+000	2.02107E-004	2.40040E-001	5.03877E-001	3.57650E+000	9	...........
	20	0.28	5.09953E-001	4.01731E-004	0.00000E+000	2.04864E-004	2.40040E-001	5.10064E-001	3.57650E+000	9	...........
	21	0.293333	5.16180E-001	3.99835E-004	0.00000E+000	2.06387E-004	2.40040E-001	5.16289E-001	3.57650E+000	9	...........
	22	0.306667	5.22301E-001	4.00442E-004	0.00000E+000	2.09151E-004	2.40040E-001	5.22414E-001	3.57650E+000	9	...........
	23	0.32	5.28367E-001	4.01859E-004	0.00000E+000	2.12329E-004	2.40040E-001	5.28479E-001	3.57650E+000	9	...........
	24	0.333333	5.34272E-001	4.00880E-004	0.00000E+000	2.14179E-004	2.40040E-001	5.34437E-001	3.57650E+000	9	...........
	25	0.346667	5.40192E-001	4.02032E-004	0.00000E+000	2.17174E-004	2.40040E-001	5.40425E-001	3.57650E+000	9	...........
	26	0.36	5.46210E-001	4.01451E-004	0.00000E+000	2.19277E-004	2.40040E-001	5.46430E-001	3.57650E+000	9	...........
	27	0.373333	5.52219E-001	4.00736E-004	0.00000E+000	2.21294E-004	2.40040E-001	5.52439E-001	3.57650E+000	9	...........
	28	0.386667	5.58159E-001	4.01003E-004	0.00000E+000	2.23824E-004	2.40040E-001	5.58395E-001	3.57650E+000	9	...........
	29	0.4	5.64091E-001	4.00165E-004	0.00000E+000	2.25729E-004	2.40040E-001	5.64327E-001	3.57650E+000	9	...........
	30	0.413333	5.70076E-001	4.00960E-004	0.00000E+000	2.28577E-004	2.40040E-001	5.70276E-001	3.57650E+000	9	...........
	31	0.426667	5.75953E-001	4.00357E-004	0.00000E+000	2.30587E-004	2.40040E-001	5.76197E-001	3.57650E+000	9	...........
	32	0.44	5.81721E-001	4.01079E-004	0.00000E+000	2.33316E-004	2.40040E-001	5.81960E-001	3.57650E+000	9	...........
	33	0.453333	5.87541E-001	4.01034E-004	0.00000E+000	2.35624E-004	2.40040E-001	5.87763E-001	3.57650E+000	9	...........
	34	0.466667	5.93292E-001	4.01989E-004	0.00000E+000	2.38497E-004	2.40040E-001	5.93501E-001	3.57650E+000	9	...........
	35	0.48	5.99054E-001	4.00891E-004	0.00000E+000	2.40155E-004	2.40040E-001	5.99285E-001	3.57650E+000	9	...........
	36	0.493333	6.04776E-001	4.01500E-004	0.00000E+000	2.42818E-004	2.40040E-001	6.05022E-001	3.57650E+000	9	...........
	37	0.506667	6.10477E-001	4.01382E-004	0.00000E+000	2.45034E-004	2.40040E-001	6.10737E-001	3.57650E+000	9	...........
	38	0.52	6.16268E-001	4.01790E-004	0.00000E+000	2.47610E-004	2.40040E-001	6.16498E-001	3.57650E+000	9	...........
	39	0.533333	6.21929E-001	3.99669E-004	0.00000E+000	2.48565E-004	2.40040E-001	6.22167E-001	3.57650E+000	9	...........
	40	0.546667	6.27526E-001	3.99883E-004	0.00000E+000	2.50937E-004	2.40040E-001	6.27797E-001	3.57650E+000	9	...........
	41	0.56	6.33190E-001	4.01171E-004	0.00000E+000	2.54018E-004	2.40040E-001	6.33452E-001	3.57650E+000	9	...........
	42	0.573333	6.38888E-001	4.01041E-004	0.00000E+000	2.56220E-004	2.40040E-001	6.39151E-001	3.57650E+000	9	...........
	43	0.586667	6.44527E-001	4.01272E-004	0.00000E+000	2.58631E-004	2.40040E-001	6.44783E-001	3.57650E+000	9	...........
	44	0.6	6.50114E-001	4.00447E-004	0.00000E+000	2.60336E-004	2.40040E-001	6.50377E-001	3.57650E+000	9	...........
	45	0.613333	6.55743E-001	4.01976E-004	0.00000E+000	2.63593E-004	2.40040E-001	6.55967E-001	3.57650E+000	9	...........
	46	0.626667	6.61376E-001	4.01319E-004	0.00000E+000	2.65423E-004	2.40040E-001	6.61631E-001	3.57650E+000	9	...........
	47	0.64	6.66990E-001	4.00845E-004	0.00000E+000	2.67360E-004	2.40040E-001	6.67237E-001	3.57650E+000	9	...........
	48	0.653333	6.72590E-001	4.00279E-004	0.00000E+000	2.69224E-004	2.40040E-001	6.72814E-001	3.57650E+000	9	...........
	49	0.666667	6.78103E-001	4.00194E-004	0.00000E+000	2.71373E-004	2.40040E-001	6.78343E-001	3.57650E+000	9	...........
	50	0.68	6.83674E-001	4.00518E-004	0.00000E+000	2.73824E-004	2.40040E-001	6.83917E-001	3.57650E+000	9	...........
	51	0.693333	6.89135E-001	3.99647E-004	0.00000E+000	2.75411E-004	2.40040E-001	6.89399E-001	3.57650E+000	9	...........
	52	0.706667	6.94582E-001	4.01144E-004	0.00000E+000	2.78627E-004	2.40040E-001	6.94839E-001	3.57650E+000	9	...........
	53	0.72	7.00034E-001	4.01234E-004	0.00000E+000	2.80877E-004	2.40040E-001	7.00279E-001	3.57650E+000	9	...........
	54	0.733333	7.05551E-001	4.00963E-004	0.00000E+000	2.82900E-004	2.40040E-001	7.05810E-001	3.57650E+000	9	...........
	55	0.746667	7.10993E-001	4.02056E-004	0.00000E+000	2.85859E-004	2.40040E-001	7.11243E-001	3.57650E+000	9	...........
	56	0.76	7.16397E-001	4.01947E-004	0.00000E+000	2.87954E-004	2.40040E-001	7.16670E-001	3.57650E+000	9	...........
	57	0.773333	7.21827E-001	4.00334E-004	0.00000E+000	2.88972E-004	2.40040E-001	7.22068E-001	3.57650E+000	9	...........
	58	0.786667	7.27201E-001	4.00653E-004	0.00000E+000	2.91356E-004	2.40040E-001	7.27440E-001	3.57650E+000	9	...........
	59	0.8	7.32585E-001	4.00605E-004	0.00000E+000	2.93477E-004	2.40040E-001	7.32844E-001	3.57650E+000	9	...........
	60	0.813333	7.37907E-001	4.00849E-004	0.00000E+000	2.95789E-004	2.40040E-001	7.38135E-001	3.57650E+000	9	...........
	61	0.826667	7.43312E-001	4.01115E-004	0.00000E+000	2.98154E-004	2.40040E-001	7.43568E-001	3.57650E+000	9	...........
	62	0.84	7.48594E-001	4.00581E-004	0.00000E+000	2.99873E-004	2.40040E-001	7.48816E-001	3.57650E+000	9	...........
	63	0.853333	7.53866E-001	4.01324E-004	0.00000E+000	3.02545E-004	2.40040E-001	7.54107E-001	3.57650E+000	9	...........
	64	0.866667	7.59133E-001	4.00302E-004	0.00000E+000	3.03883E-004	2.40040E-001	7.59355E-001	3.57650E+000	9	...........
	65	0.88	7.64354E-001	4.01906E-004	0.00000E+000	3.07198E-004	2.40040E-001	7.64594E-001	3.57650E+000	9	...........
	66	0.893333	7.69560E-001	4.01049E-004	0.00000E+000	3.08631E-004	2.40040E-001	7.69809E-001	3.57650E+000	9	...........
	67	0.906667	7.74752E-001	3.98916E-004	0.00000E+000	3.09061E-004	2.40040E-001	7.74990E-001	3.57650E+000	9	...........
	68	0.92	7.79885E-001	4.01748E-004	0.00000E+000	3.13317E-004	2.40040E-001	7.80127E-001	3.57650E+000	9	...........
	69	0.933333	7.84994E-001	4.01351E-004	0.00000E+000	3.15058E-004	2.40040E-001	7.85252E-001	3.57650E+000	9	...........
	70	0.946667	7.90111E-001	4.01477E-004	0.00000E+000	3.17212E-004	2.40040E-001	7.90345E-001	3.57650E+000	9	...........
	71	0.96	7.95229E-001	4.00699E-004	0.00000E+000	3.18648E-004	2.40040E-001	7.95515E-001	3.57650E+000	9	...........
	72	0.97333	8.00287E-001	4.00673E-004	0.00000E+000	3.20654E-004	2.40040E-001	8.00535E-001	3.57650E+000	9	...........
	73	0.98667	8.05322E-001	4.01397E-004	0.00000E+000	3.23254E-004	2.40040E-001	8.05578E-001	3.57650E+000	9	...........
	74	1	8.10283E-001	4.01115E-004	0.00000E+000	3.25017E-004	2.40040E-001	8.10563E-001	3.57650E+000	9	...........
	75	1.01333	8.15215E-001	4.00915E-004	0.00000E+000	3.26832E-004	2.40040E-001	8.15495E-001	3.57650E+000	9	...........
	76	1.02667	8.20123E-001	4.00916E-004	0.00000E+000	3.28800E-004	2.40040E-001	8.20395E-001	3.57650E+000	9	...........
	77	1.04	8.24934E-001	4.01569E-004	0.00000E+000	3.31268E-004	2.40040E-001	8.25236E-001	3.57650E+000	9	...........
	78	1.05333	8.29803E-001	4.01595E-004	0.00000E+000	3.33245E-004	2.40040E-001	8.30093E-001	3.57650E+000	9	...........
	79	1.06667	8.34636E-001	4.01735E-004	0.00000E+000	3.35302E-004	2.40040E-001	8.34947E-001	3.57650E+000	9	...........
	80	1.08	8.39438E-001	4.00902E-004	0.00000E+000	3.36533E-004	2.40040E-001	8.39743E-001	3.57650E+000	9	...........
	81	1.09333	8.44241E-001	4.00918E-004	0.00000E+000	3.38471E-004	2.40040E-001	8.44542E-001	3.57650E+000	9	...........
	82	1.10667	8.48994E-001	4.00424E-004	0.00000E+000	3.39958E-004	2.40040E-001	8.49313E-001	3.57650E+000	9	...........
	83	1.12	8.53709E-001	4.00724E-004	0.00000E+000	3.42102E-004	2.40040E-001	8.54011E-001	3.57650E+000	9	...........
	84	1.13333	8.58365E-001	4.00962E-004	0.00000E+000	3.44171E-004	2.40040E-001	8.58677E-001	3.57650E+000	9	...........
	85	1.14667	8.63073E-001	4.01238E-004	0.00000E+000	3.46297E-004	2.40040E-001	8.63366E-001	3.57650E+000	9	...........
	86	1.16	8.67732E-001	4.01002E-004	0.00000E+000	3.47963E-004	2.40040E-001	8.68022E-001	3.57650E+000	9	...........
	87	1.17333	8.72384E-001	3.99921E-004	0.00000E+000	3.48884E-004	2.40040E-001	8.72687E-001	3.57650E+000	9	...........
	88	1.18667	8.76906E-001	4.00744E-004	0.00000E+000	3.51415E-004	2.40040E-001	8.77222E-001	3.57650E+000	9	...........
	89	1.2	8.81418E-001	4.01897E-004	0.00000E+000	3.54240E-004	2.40040E-001	8.81747E-001	3.57655E+000	9	...........
	90	1.21333	8.85975E-001	4.02131E-004	0.00000E+000	3.56278E-004	2.40040E-001	8.86262E-001	3.57670E+000	9	...........
	91	1.22667	8.90434E-001	4.02016E-004	0.00000E+000	3.57969E-004	2.40040E-001	8.90715E-001	3.57670E+000	9	...........
	92	1.24	8.94913E-001	4.01743E-004	0.00000E+000	3.59525E-004	2.40040E-001	8.95187E-001	3.57670E+000	9	...........
	93	1.25333	8.99350E-001	4.01582E-004	0.00000E+000	3.61162E-004	2.40040E-001	8.99612E-001	3.57670E+000	9	...........
	94	1.26667	9.03733E-001	4.01301E-004	0.00000E+000	3.62669E-004	2.40040E-001	9.04003E-001	3.57670E+000	9	...........
	95	1.28	9.08045E-001	4.00205E-004	0.00000E+000	3.63404E-004	2.40040E-001	9.08320E-001	3.57670E+000	9	...........
	96	1.29333	9.12297E-001	4.00952E-004	0.00000E+000	3.65788E-004	2.40040E-001	9.12562E-001	3.57670E+000	9	...........
	97	1.30667	9.16590E-001	4.01874E-004	0.00000E+000	3.68354E-004	2.40040E-001	9.16887E-001	3.57670E+000	9	...........
	98	1.32	9.20903E-001	4.02188E-004	0.00000E+000	3.70376E-004	2.40040E-001	9.21148E-001	3.57670E+000	9	...........
	99	1.33333	9.25047E-001	4.01232E-004	0.00000E+000	3.71158E-004	2.40040E-001	9.25324E-001	3.57670E+000	9	...........
	100	1.34667	9.29206E-001	3.99744E-004	0.00000E+000	3.71444E-004	2.40040E-001	9.29465E-001	3.57670E+000	9	...........
	101	1.36	9.33339E-001	4.00913E-004	0.00000E+000	3.74187E-004	2.40040E-001	9.33622E-001	3.57670E+000	9	...........
	102	1.37333	9.37463E-001	4.00512E-004	0.00000E+000	3.75465E-004	2.40040E-001	9.37773E-001	3.57670E+000	9	...........
	103	1.38667	9.41488E-001	3.99829E-004	0.00000E+000	3.76434E-004	2.40040E-001	9.41819E-001	3.57670E+000	9	...........
	104	1.4	9.45460E-001	3.99850E-004	0.00000E+000	3.78042E-004	2.40040E-001	9.45783E-001	3.57670E+000	9	...........
	105	1.41333	9.49480E-001	4.00692E-004	0.00000E+000	3.80449E-004	2.40040E-001	9.49783E-001	3.57670E+000	9	...........
	106	1.42667	9.53430E-001	4.00842E-004	0.00000E+000	3.82175E-004	2.40040E-001	9.53739E-001	3.57670E+000	9	...........
	107	1.44	9.57341E-001	4.00974E-004	0.00000E+000	3.83869E-004	2.40040E-001	9.57658E-001	3.57670E+000	9	...........
	108	1.45333	9.61195E-001	4.00614E-004	0.00000E+000	3.85068E-004	2.40040E-001	9.61518E-001	3.57670E+000	9	...........
	109	1.46667	9.64972E-001	4.00702E-004	0.00000E+000	3.86666E-004	2.40040E-001	9.65306E-001	3.57670E+000	9	...........
	110	1.48	9.68816E-001	4.00424E-004	0.00000E+000	3.87937E-004	2.40040E-001	9.69153E-001	3.57670E+000	9	...........
	111	1.49333	9.72601E-001	4.00113E-004	0.00000E+000	3.89150E-004	2.40040E-001	9.72931E-001	3.57670E+000	9	...........
	112	1.50667	9.76311E-001	4.01677E-004	0.00000E+000	3.92162E-004	2.40040E-001	9.76631E-001	3.57670E+000	9	...........
	113	1.52	9.79967E-001	4.00111E-004	0.00000E+000	3.92096E-004	2.40040E-001	9.80291E-001	3.57670E+000	9	...........
	114	1.53333	9.83572E-001	4.01812E-004	0.00000E+000	3.95211E-004	2.40040E-001	9.83914E-001	3.57670E+000	9	...........
	115	1.54667	9.87163E-001	4.00966E-004	0.00000E+000	3.95818E-004	2.40040E-001	9.87506E-001	3.57670E+000	9	...........
	116	1.56	9.90658E-001	4.00374E-004	0.00000E+000	3.96634E-004	2.40040E-001	9.91007E-001	3.57670E+000	9	...........
	117	1.57333	9.94210E-001	4.00885E-004	0.00000E+000	3.98564E-004	2.40040E-001	9.94555E-001	3.57670E+000	9	...........
	118	1.58667	9.97765E-001	3.99561E-004	0.00000E+000	3.98668E-004	2.40040E-001	9.98092E-001	3.57670E+000	9	...........
	119	1.59	9.99971E-001	3.99610E-004	0.00000E+000	3.99599E-004	2.40040E-001	1.00032E+000	3.57670E+000	9	...........
STARTTIMEOFFSET	QUANT	1414.549	Start Time Offset (s)
