EXPLAIN
TAG	PWR800_CHARGE
TITLE	LABEL	PWR Cyclic Charge Discharge (Cell) - Charge Step	Test &Identifier
DATE	LABEL	12-7-2017	Date
TIME	LABEL	14:59:17	Time
NOTES	NOTES	3	&Notes...
	supercap test cell
	0.4mg
	6M KOH
PSTAT	PSTAT	IFC5000-01520	Potentiostat
CAPACITY	QUANT	1.00000E-003	Capacity (A-hr)
CELLTYPE	SELECTOR	1	&Cell Type
WORKINGCONNECTION	SELECTOR	0	&Working Lead
MAXCHARGETIME	VARIABLEANDUNITS	1.00000E+002	s	1.00000E+002	second(s)	Max &Charge Time
CHARGECURRENT	QUANT	4.00000E-004	&Charge Current (A) 
VOLTAGEFINISH	TWOPARAM	F	1.00000E-003	3.60000E+003	&Voltage Finish	 I (A) < 	Max Time(s)
SAMPLETIME	QUANT	1.00000E-002	Sa&mple Period (s)
CHARGESTOPAT1	MULTIPARAM	4	1.00000E+000	Charge Stop At &1	Voltage > Limit	V
CHARGESTOPAT2	MULTIPARAM	0	0.00000E+000	Charge Stop At &2	None	N/A
AESBHCSELECTOR	TOGGLE	F	Save Both Half Cells
IRCOMP	TOGGLE	F	IR &Measure
EOC	QUANT	0	Open Circuit (V)
SEQUENCER	TOGGLE	TRUE	Run as Sequence
PSTATMODEL	IQUANT	53	Pstat Model
PSTATSECTION	LABEL	IFC5000-01520	Pstat Section
PSTATSERIALNO	LABEL	01520	Pstat Serial Number
CTRLMODE	IQUANT	0	Control Mode
ELECTROMETER	IQUANT	1	RE=0 or CS=1
IESTAB	IQUANT	0	I/E Stability
CASPEED	IQUANT	4	Control Amp Speed
CONVENTION	IQUANT	1	Current Convention
ICHRANGE	IQUANT	2	Ich Range
ICHRANGEMODE	TOGGLE	T	Ich Auto Range
ICHOFFSETENABLE	TOGGLE	F	Ich Offset Enable
ICHOFFSET	QUANT	0	Ich Offset (V)
ICHFILTER	IQUANT	1	Ich Filter
VCHRANGE	IQUANT	2	Vch Range
VCHRANGEMODE	TOGGLE	T	Vch Auto Range
VCHOFFSETENABLE	TOGGLE	F	Vch Offset Enable
VCHOFFSET	QUANT	0	Vch Offset (V)
VCHFILTER	IQUANT	1	Vch Filter
IERANGELOWERLIMIT	IQUANT	9	I/E Range Lower Limit
IERANGEMODE	TOGGLE	F	I/E AutoRange
IERANGE	IQUANT	9	I/E Range
ACHSELECT	IQUANT	1	Ach Select
ACHRANGE	IQUANT	2	Ach Range
ACHOFFSETENABLE	TOGGLE	F	Ach Offset Enable
ACHOFFSET	QUANT	0	Ach Offset (V)
ACHFILTER	IQUANT	1	Ach Filter
CABLEID	IQUANT	14	Cable ID
DCCALDATE	LABEL	5-7-2017	DC Calibration Date
ACCALDATE	LABEL	12/3/2015	AC Calibration Date
FRAMEWORKVERSION	QUANT	7.01	Framework Version
INSTRUMENTVERSION	LABEL	4.00	Instrument Version
CURVE	TABLE	114
	Pt	T	Vf	Im	Vu	Pwr	Sig	Ach	Temp	IERange	Over
	#	s	V	A	V	W	V	V	deg C	#	bits
	0	0.013333	3.73516E-001	4.00896E-004	0.00000E+000	1.49741E-004	2.40040E-001	3.73605E-001	3.57630E+000	9	...........
	1	0.026667	3.85566E-001	4.01137E-004	0.00000E+000	1.54665E-004	2.40040E-001	3.85635E-001	3.57630E+000	9	...........
	2	0.04	3.95921E-001	4.01091E-004	0.00000E+000	1.58800E-004	2.40040E-001	3.95993E-001	3.57630E+000	9	...........
	3	0.053333	4.05274E-001	4.00325E-004	0.00000E+000	1.62241E-004	2.40040E-001	4.05352E-001	3.57630E+000	9	...........
	4	0.066667	4.14035E-001	4.01083E-004	0.00000E+000	1.66062E-004	2.40040E-001	4.14113E-001	3.57630E+000	9	...........
	5	0.08	4.22356E-001	4.00443E-004	0.00000E+000	1.69130E-004	2.40040E-001	4.22438E-001	3.57630E+000	9	...........
	6	0.093333	4.30364E-001	4.01885E-004	0.00000E+000	1.72957E-004	2.40040E-001	4.30447E-001	3.57630E+000	9	...........
	7	0.106667	4.38042E-001	4.01118E-004	0.00000E+000	1.75706E-004	2.40040E-001	4.38125E-001	3.57630E+000	9	...........
	8	0.12	4.45511E-001	4.01025E-004	0.00000E+000	1.78661E-004	2.40040E-001	4.45600E-001	3.57630E+000	9	...........
	9	0.133333	4.52837E-001	4.01312E-004	0.00000E+000	1.81729E-004	2.40040E-001	4.52925E-001	3.57630E+000	9	...........
	10	0.146667	4.60077E-001	4.02106E-004	0.00000E+000	1.85000E-004	2.40040E-001	4.60162E-001	3.57671E+000	9	...........
	11	0.16	4.67187E-001	4.01360E-004	0.00000E+000	1.87510E-004	2.40040E-001	4.67278E-001	3.57740E+000	9	...........
	12	0.173333	4.74225E-001	4.01241E-004	0.00000E+000	1.90279E-004	2.40040E-001	4.74315E-001	3.57740E+000	9	...........
	13	0.186667	4.81032E-001	4.00901E-004	0.00000E+000	1.92846E-004	2.40040E-001	4.81130E-001	3.57740E+000	9	...........
	14	0.2	4.87780E-001	4.01524E-004	0.00000E+000	1.95856E-004	2.40040E-001	4.87880E-001	3.57740E+000	9	...........
	15	0.213333	4.94512E-001	4.00126E-004	0.00000E+000	1.97867E-004	2.40040E-001	4.94612E-001	3.57740E+000	9	...........
	16	0.226667	5.01129E-001	4.00033E-004	0.00000E+000	2.00468E-004	2.40040E-001	5.01232E-001	3.57740E+000	9	...........
	17	0.24	5.07722E-001	4.00789E-004	0.00000E+000	2.03489E-004	2.40040E-001	5.07824E-001	3.57740E+000	9	...........
	18	0.253333	5.14257E-001	4.01465E-004	0.00000E+000	2.06456E-004	2.40040E-001	5.14362E-001	3.57740E+000	9	...........
	19	0.266667	5.20715E-001	4.01593E-004	0.00000E+000	2.09115E-004	2.40040E-001	5.20815E-001	3.57740E+000	9	...........
	20	0.28	5.27144E-001	4.02478E-004	0.00000E+000	2.12164E-004	2.40040E-001	5.27246E-001	3.57740E+000	9	...........
	21	0.293333	5.33333E-001	4.00530E-004	0.00000E+000	2.13616E-004	2.40040E-001	5.33444E-001	3.57740E+000	9	...........
	22	0.306667	5.39482E-001	4.01406E-004	0.00000E+000	2.16551E-004	2.40040E-001	5.39689E-001	3.57740E+000	9	...........
	23	0.32	5.45811E-001	4.00993E-004	0.00000E+000	2.18866E-004	2.40040E-001	5.46012E-001	3.57740E+000	9	...........
	24	0.333333	5.52083E-001	4.01412E-004	0.00000E+000	2.21613E-004	2.40040E-001	5.52320E-001	3.57740E+000	9	...........
	25	0.346667	5.58273E-001	4.00358E-004	0.00000E+000	2.23509E-004	2.40040E-001	5.58539E-001	3.57740E+000	9	...........
	26	0.36	5.64549E-001	4.00507E-004	0.00000E+000	2.26106E-004	2.40040E-001	5.64785E-001	3.57740E+000	9	...........
	27	0.373333	5.70702E-001	4.01677E-004	0.00000E+000	2.29238E-004	2.40040E-001	5.70910E-001	3.57740E+000	9	...........
	28	0.386667	5.76767E-001	4.00486E-004	0.00000E+000	2.30987E-004	2.40040E-001	5.76991E-001	3.57740E+000	9	...........
	29	0.4	5.82833E-001	4.00818E-004	0.00000E+000	2.33610E-004	2.40040E-001	5.83073E-001	3.57740E+000	9	...........
	30	0.413333	5.88930E-001	4.01669E-004	0.00000E+000	2.36555E-004	2.40040E-001	5.89193E-001	3.57740E+000	9	...........
	31	0.426667	5.95030E-001	4.00965E-004	0.00000E+000	2.38586E-004	2.40040E-001	5.95300E-001	3.57740E+000	9	...........
	32	0.44	6.01076E-001	4.00105E-004	0.00000E+000	2.40494E-004	2.40040E-001	6.01340E-001	3.57740E+000	9	...........
	33	0.453333	6.07028E-001	4.00028E-004	0.00000E+000	2.42828E-004	2.40040E-001	6.07327E-001	3.57740E+000	9	...........
	34	0.466667	6.13003E-001	4.00831E-004	0.00000E+000	2.45711E-004	2.40040E-001	6.13283E-001	3.57740E+000	9	...........
	35	0.48	6.18973E-001	4.00054E-004	0.00000E+000	2.47623E-004	2.40040E-001	6.19203E-001	3.57740E+000	9	...........
	36	0.493333	6.24857E-001	3.99283E-004	0.00000E+000	2.49495E-004	2.40040E-001	6.25104E-001	3.57740E+000	9	...........
	37	0.506667	6.30795E-001	4.00413E-004	0.00000E+000	2.52578E-004	2.40040E-001	6.31041E-001	3.57740E+000	9	...........
	38	0.52	6.36642E-001	4.01063E-004	0.00000E+000	2.55333E-004	2.40040E-001	6.36882E-001	3.57740E+000	9	...........
	39	0.533333	6.42605E-001	4.01424E-004	0.00000E+000	2.57957E-004	2.40040E-001	6.42861E-001	3.57740E+000	9	...........
	40	0.546667	6.48479E-001	4.01040E-004	0.00000E+000	2.60066E-004	2.40040E-001	6.48747E-001	3.57740E+000	9	...........
	41	0.56	6.54283E-001	4.00468E-004	0.00000E+000	2.62019E-004	2.40040E-001	6.54548E-001	3.57740E+000	9	...........
	42	0.573333	6.60132E-001	4.00545E-004	0.00000E+000	2.64412E-004	2.40040E-001	6.60377E-001	3.57740E+000	9	...........
	43	0.586667	6.65974E-001	4.00090E-004	0.00000E+000	2.66449E-004	2.40040E-001	6.66254E-001	3.57740E+000	9	...........
	44	0.6	6.71748E-001	4.00992E-004	0.00000E+000	2.69366E-004	2.40040E-001	6.72008E-001	3.57740E+000	9	...........
	45	0.613333	6.77481E-001	4.01348E-004	0.00000E+000	2.71906E-004	2.40040E-001	6.77732E-001	3.57740E+000	9	...........
	46	0.626667	6.83233E-001	4.00730E-004	0.00000E+000	2.73792E-004	2.40040E-001	6.83498E-001	3.57740E+000	9	...........
	47	0.64	6.89012E-001	4.00996E-004	0.00000E+000	2.76291E-004	2.40040E-001	6.89265E-001	3.57740E+000	9	...........
	48	0.653333	6.94724E-001	4.02314E-004	0.00000E+000	2.79497E-004	2.40040E-001	6.94989E-001	3.57740E+000	9	...........
	49	0.666667	7.00296E-001	4.01322E-004	0.00000E+000	2.81045E-004	2.40040E-001	7.00573E-001	3.57740E+000	9	...........
	50	0.68	7.06000E-001	4.00610E-004	0.00000E+000	2.82830E-004	2.40040E-001	7.06254E-001	3.57740E+000	9	...........
	51	0.693333	7.11577E-001	4.01786E-004	0.00000E+000	2.85902E-004	2.40040E-001	7.11868E-001	3.57740E+000	9	...........
	52	0.706667	7.17158E-001	4.00839E-004	0.00000E+000	2.87465E-004	2.40040E-001	7.17418E-001	3.57740E+000	9	...........
	53	0.72	7.22777E-001	4.00935E-004	0.00000E+000	2.89786E-004	2.40040E-001	7.22990E-001	3.57740E+000	9	...........
	54	0.733333	7.28353E-001	4.00607E-004	0.00000E+000	2.91784E-004	2.40040E-001	7.28591E-001	3.57740E+000	9	...........
	55	0.746667	7.33881E-001	4.00833E-004	0.00000E+000	2.94164E-004	2.40040E-001	7.34143E-001	3.57740E+000	9	...........
	56	0.76	7.39427E-001	4.01462E-004	0.00000E+000	2.96852E-004	2.40040E-001	7.39680E-001	3.57740E+000	9	...........
	57	0.773333	7.44939E-001	3.99744E-004	0.00000E+000	2.97785E-004	2.40040E-001	7.45174E-001	3.57740E+000	9	...........
	58	0.786667	7.50383E-001	4.00710E-004	0.00000E+000	3.00685E-004	2.40040E-001	7.50631E-001	3.57740E+000	9	...........
	59	0.8	7.55813E-001	4.01531E-004	0.00000E+000	3.03482E-004	2.40040E-001	7.56064E-001	3.57740E+000	9	...........
	60	0.813333	7.61209E-001	4.01577E-004	0.00000E+000	3.05684E-004	2.40040E-001	7.61457E-001	3.57740E+000	9	...........
	61	0.826667	7.66555E-001	4.00924E-004	0.00000E+000	3.07330E-004	2.40040E-001	7.66817E-001	3.57740E+000	9	...........
	62	0.84	7.71933E-001	4.00071E-004	0.00000E+000	3.08828E-004	2.40040E-001	7.72164E-001	3.57740E+000	9	...........
	63	0.853333	7.77230E-001	4.01384E-004	0.00000E+000	3.11967E-004	2.40040E-001	7.77484E-001	3.57740E+000	9	...........
	64	0.866667	7.82534E-001	4.00557E-004	0.00000E+000	3.13450E-004	2.40040E-001	7.82785E-001	3.57740E+000	9	...........
	65	0.88	7.87756E-001	4.00347E-004	0.00000E+000	3.15376E-004	2.40040E-001	7.88019E-001	3.57740E+000	9	...........
	66	0.893333	7.93017E-001	4.00274E-004	0.00000E+000	3.17424E-004	2.40040E-001	7.93286E-001	3.57740E+000	9	...........
	67	0.906667	7.98201E-001	4.01063E-004	0.00000E+000	3.20129E-004	2.40040E-001	7.98468E-001	3.57740E+000	9	...........
	68	0.92	8.03457E-001	4.00875E-004	0.00000E+000	3.22086E-004	2.40040E-001	8.03727E-001	3.57740E+000	9	...........
	69	0.933333	8.08596E-001	3.99964E-004	0.00000E+000	3.23409E-004	2.40040E-001	8.08886E-001	3.57740E+000	9	...........
	70	0.946667	8.13736E-001	4.01480E-004	0.00000E+000	3.26698E-004	2.40040E-001	8.14011E-001	3.57740E+000	9	...........
	71	0.96	8.18895E-001	4.01571E-004	0.00000E+000	3.28845E-004	2.40040E-001	8.19173E-001	3.57740E+000	9	...........
	72	0.97333	8.23922E-001	4.01391E-004	0.00000E+000	3.30715E-004	2.40040E-001	8.24216E-001	3.57740E+000	9	...........
	73	0.98667	8.28928E-001	4.00498E-004	0.00000E+000	3.31984E-004	2.40040E-001	8.29211E-001	3.57740E+000	9	...........
	74	1	8.33938E-001	4.01097E-004	0.00000E+000	3.34490E-004	2.40040E-001	8.34227E-001	3.57740E+000	9	...........
	75	1.01333	8.38913E-001	4.01069E-004	0.00000E+000	3.36462E-004	2.40040E-001	8.39231E-001	3.57740E+000	9	...........
	76	1.02667	8.43940E-001	4.00573E-004	0.00000E+000	3.38059E-004	2.40040E-001	8.44226E-001	3.57740E+000	9	...........
	77	1.04	8.48810E-001	4.01306E-004	0.00000E+000	3.40632E-004	2.40040E-001	8.49096E-001	3.57740E+000	9	...........
	78	1.05333	8.53621E-001	4.01858E-004	0.00000E+000	3.43034E-004	2.40040E-001	8.53913E-001	3.57740E+000	9	...........
	79	1.06667	8.58460E-001	4.00727E-004	0.00000E+000	3.44008E-004	2.40040E-001	8.58793E-001	3.57740E+000	9	...........
	80	1.08	8.63293E-001	4.01291E-004	0.00000E+000	3.46432E-004	2.40040E-001	8.63612E-001	3.57740E+000	9	...........
	81	1.09333	8.68104E-001	4.01447E-004	0.00000E+000	3.48498E-004	2.40040E-001	8.68411E-001	3.57740E+000	9	...........
	82	1.10667	8.72854E-001	4.02196E-004	0.00000E+000	3.51059E-004	2.40040E-001	8.73162E-001	3.57740E+000	9	...........
	83	1.12	8.77563E-001	4.01993E-004	0.00000E+000	3.52774E-004	2.40040E-001	8.77863E-001	3.57740E+000	9	...........
	84	1.13333	8.82181E-001	4.01061E-004	0.00000E+000	3.53808E-004	2.40040E-001	8.82488E-001	3.57740E+000	9	...........
	85	1.14667	8.86817E-001	4.01279E-004	0.00000E+000	3.55861E-004	2.40040E-001	8.87134E-001	3.57714E+000	9	...........
	86	1.16	8.91365E-001	4.01220E-004	0.00000E+000	3.57633E-004	2.40040E-001	8.91670E-001	3.57670E+000	9	...........
	87	1.17333	8.95901E-001	4.00375E-004	0.00000E+000	3.58697E-004	2.40040E-001	8.96225E-001	3.57670E+000	9	...........
	88	1.18667	9.00413E-001	4.00681E-004	0.00000E+000	3.60779E-004	2.40040E-001	9.00710E-001	3.57670E+000	9	...........
	89	1.2	9.04790E-001	4.01080E-004	0.00000E+000	3.62893E-004	2.40040E-001	9.05117E-001	3.57670E+000	9	...........
	90	1.21333	9.09206E-001	4.00171E-004	0.00000E+000	3.63838E-004	2.40040E-001	9.09523E-001	3.57670E+000	9	...........
	91	1.22667	9.13607E-001	3.99935E-004	0.00000E+000	3.65384E-004	2.40040E-001	9.13920E-001	3.57670E+000	9	...........
	92	1.24	9.17948E-001	4.01509E-004	0.00000E+000	3.68564E-004	2.40040E-001	9.18305E-001	3.57670E+000	9	...........
	93	1.25333	9.22314E-001	4.01229E-004	0.00000E+000	3.70059E-004	2.40040E-001	9.22600E-001	3.57670E+000	9	...........
	94	1.26667	9.26551E-001	4.01744E-004	0.00000E+000	3.72237E-004	2.40040E-001	9.26842E-001	3.57670E+000	9	...........
	95	1.28	9.30793E-001	4.00096E-004	0.00000E+000	3.72406E-004	2.40040E-001	9.31055E-001	3.57670E+000	9	...........
	96	1.29333	9.35047E-001	4.00471E-004	0.00000E+000	3.74459E-004	2.40040E-001	9.35329E-001	3.57670E+000	9	...........
	97	1.30667	9.39232E-001	4.00259E-004	0.00000E+000	3.75937E-004	2.40040E-001	9.39521E-001	3.57670E+000	9	...........
	98	1.32	9.43298E-001	4.01477E-004	0.00000E+000	3.78713E-004	2.40040E-001	9.43594E-001	3.57670E+000	9	...........
	99	1.33333	9.47432E-001	4.00971E-004	0.00000E+000	3.79893E-004	2.40040E-001	9.47721E-001	3.57670E+000	9	...........
	100	1.34667	9.51513E-001	4.00561E-004	0.00000E+000	3.81139E-004	2.40040E-001	9.51824E-001	3.57670E+000	9	...........
	101	1.36	9.55465E-001	4.00007E-004	0.00000E+000	3.82193E-004	2.40040E-001	9.55773E-001	3.57670E+000	9	...........
	102	1.37333	9.59430E-001	4.01312E-004	0.00000E+000	3.85030E-004	2.40040E-001	9.59744E-001	3.57670E+000	9	...........
	103	1.38667	9.63373E-001	4.01256E-004	0.00000E+000	3.86559E-004	2.40040E-001	9.63698E-001	3.57670E+000	9	...........
	104	1.4	9.67260E-001	3.99463E-004	0.00000E+000	3.86385E-004	2.40040E-001	9.67591E-001	3.57670E+000	9	...........
	105	1.41333	9.71115E-001	4.01565E-004	0.00000E+000	3.89966E-004	2.40040E-001	9.71448E-001	3.57670E+000	9	...........
	106	1.42667	9.74968E-001	4.00101E-004	0.00000E+000	3.90086E-004	2.40040E-001	9.75285E-001	3.57670E+000	9	...........
	107	1.44	9.78774E-001	4.01258E-004	0.00000E+000	3.92741E-004	2.40040E-001	9.79094E-001	3.57670E+000	9	...........
	108	1.45333	9.82510E-001	4.01309E-004	0.00000E+000	3.94290E-004	2.40040E-001	9.82841E-001	3.57670E+000	9	...........
	109	1.46667	9.86211E-001	4.00771E-004	0.00000E+000	3.95245E-004	2.40040E-001	9.86561E-001	3.57670E+000	9	...........
	110	1.48	9.89912E-001	4.01188E-004	0.00000E+000	3.97141E-004	2.40040E-001	9.90207E-001	3.57670E+000	9	...........
	111	1.49333	9.93447E-001	4.00099E-004	0.00000E+000	3.97477E-004	2.40040E-001	9.93800E-001	3.57670E+000	9	...........
	112	1.50667	9.97054E-001	4.00408E-004	0.00000E+000	3.99229E-004	2.40040E-001	9.97391E-001	3.57670E+000	9	...........
	113	1.51333	9.99751E-001	3.99569E-004	0.00000E+000	3.99469E-004	2.40040E-001	1.00010E+000	3.57670E+000	9	...........
STARTTIMEOFFSET	QUANT	1940.093	Start Time Offset (s)
