EXPLAIN
TAG	PWR800_CHARGE
TITLE	LABEL	PWR Cyclic Charge Discharge (Cell) - Charge Step	Test &Identifier
DATE	LABEL	12-7-2017	Date
TIME	LABEL	14:56:07	Time
NOTES	NOTES	3	&Notes...
	supercap test cell
	0.4mg
	6M KOH
PSTAT	PSTAT	IFC5000-01520	Potentiostat
CAPACITY	QUANT	1.00000E-003	Capacity (A-hr)
CELLTYPE	SELECTOR	1	&Cell Type
WORKINGCONNECTION	SELECTOR	0	&Working Lead
MAXCHARGETIME	VARIABLEANDUNITS	1.00000E+002	s	1.00000E+002	second(s)	Max &Charge Time
CHARGECURRENT	QUANT	4.00000E-004	&Charge Current (A) 
VOLTAGEFINISH	TWOPARAM	F	1.00000E-003	3.60000E+003	&Voltage Finish	 I (A) < 	Max Time(s)
SAMPLETIME	QUANT	1.00000E-002	Sa&mple Period (s)
CHARGESTOPAT1	MULTIPARAM	4	1.00000E+000	Charge Stop At &1	Voltage > Limit	V
CHARGESTOPAT2	MULTIPARAM	0	0.00000E+000	Charge Stop At &2	None	N/A
AESBHCSELECTOR	TOGGLE	F	Save Both Half Cells
IRCOMP	TOGGLE	F	IR &Measure
EOC	QUANT	0	Open Circuit (V)
SEQUENCER	TOGGLE	TRUE	Run as Sequence
PSTATMODEL	IQUANT	53	Pstat Model
PSTATSECTION	LABEL	IFC5000-01520	Pstat Section
PSTATSERIALNO	LABEL	01520	Pstat Serial Number
CTRLMODE	IQUANT	0	Control Mode
ELECTROMETER	IQUANT	1	RE=0 or CS=1
IESTAB	IQUANT	0	I/E Stability
CASPEED	IQUANT	4	Control Amp Speed
CONVENTION	IQUANT	1	Current Convention
ICHRANGE	IQUANT	2	Ich Range
ICHRANGEMODE	TOGGLE	T	Ich Auto Range
ICHOFFSETENABLE	TOGGLE	F	Ich Offset Enable
ICHOFFSET	QUANT	0	Ich Offset (V)
ICHFILTER	IQUANT	1	Ich Filter
VCHRANGE	IQUANT	2	Vch Range
VCHRANGEMODE	TOGGLE	T	Vch Auto Range
VCHOFFSETENABLE	TOGGLE	F	Vch Offset Enable
VCHOFFSET	QUANT	0	Vch Offset (V)
VCHFILTER	IQUANT	1	Vch Filter
IERANGELOWERLIMIT	IQUANT	9	I/E Range Lower Limit
IERANGEMODE	TOGGLE	F	I/E AutoRange
IERANGE	IQUANT	9	I/E Range
ACHSELECT	IQUANT	1	Ach Select
ACHRANGE	IQUANT	2	Ach Range
ACHOFFSETENABLE	TOGGLE	F	Ach Offset Enable
ACHOFFSET	QUANT	0	Ach Offset (V)
ACHFILTER	IQUANT	1	Ach Filter
CABLEID	IQUANT	14	Cable ID
DCCALDATE	LABEL	5-7-2017	DC Calibration Date
ACCALDATE	LABEL	12/3/2015	AC Calibration Date
FRAMEWORKVERSION	QUANT	7.01	Framework Version
INSTRUMENTVERSION	LABEL	4.00	Instrument Version
CURVE	TABLE	116
	Pt	T	Vf	Im	Vu	Pwr	Sig	Ach	Temp	IERange	Over
	#	s	V	A	V	W	V	V	deg C	#	bits
	0	0.013333	3.72182E-001	4.01656E-004	0.00000E+000	1.49489E-004	2.40040E-001	3.72286E-001	3.57630E+000	9	...........
	1	0.026667	3.83945E-001	4.00952E-004	0.00000E+000	1.53944E-004	2.40040E-001	3.84022E-001	3.57630E+000	9	...........
	2	0.04	3.94089E-001	4.01220E-004	0.00000E+000	1.58116E-004	2.40040E-001	3.94159E-001	3.57630E+000	9	...........
	3	0.053333	4.03203E-001	4.01029E-004	0.00000E+000	1.61696E-004	2.40040E-001	4.03280E-001	3.57630E+000	9	...........
	4	0.066667	4.11743E-001	4.00972E-004	0.00000E+000	1.65098E-004	2.40040E-001	4.11821E-001	3.57630E+000	9	...........
	5	0.08	4.19856E-001	4.01034E-004	0.00000E+000	1.68376E-004	2.40040E-001	4.19942E-001	3.57630E+000	9	...........
	6	0.093333	4.27767E-001	4.01271E-004	0.00000E+000	1.71651E-004	2.40040E-001	4.27848E-001	3.57630E+000	9	...........
	7	0.106667	4.35353E-001	3.99969E-004	0.00000E+000	1.74127E-004	2.40040E-001	4.35443E-001	3.57630E+000	9	...........
	8	0.12	4.42720E-001	4.00728E-004	0.00000E+000	1.77411E-004	2.40040E-001	4.42810E-001	3.57630E+000	9	...........
	9	0.133333	4.49929E-001	3.99926E-004	0.00000E+000	1.79938E-004	2.40040E-001	4.50019E-001	3.57630E+000	9	...........
	10	0.146667	4.56948E-001	4.02453E-004	0.00000E+000	1.83900E-004	2.40040E-001	4.57031E-001	3.57630E+000	9	...........
	11	0.16	4.63961E-001	4.01398E-004	0.00000E+000	1.86233E-004	2.40040E-001	4.64049E-001	3.57630E+000	9	...........
	12	0.173333	4.70921E-001	4.00701E-004	0.00000E+000	1.88698E-004	2.40040E-001	4.71012E-001	3.57630E+000	9	...........
	13	0.186667	4.77623E-001	4.01054E-004	0.00000E+000	1.91553E-004	2.40040E-001	4.77718E-001	3.57630E+000	9	...........
	14	0.2	4.84345E-001	4.00650E-004	0.00000E+000	1.94053E-004	2.40040E-001	4.84441E-001	3.57630E+000	9	...........
	15	0.213333	4.90949E-001	4.00674E-004	0.00000E+000	1.96711E-004	2.40040E-001	4.91046E-001	3.57630E+000	9	...........
	16	0.226667	4.97494E-001	4.00733E-004	0.00000E+000	1.99362E-004	2.40040E-001	4.97599E-001	3.57630E+000	9	...........
	17	0.24	5.03990E-001	4.00137E-004	0.00000E+000	2.01665E-004	2.40040E-001	5.04095E-001	3.57630E+000	9	...........
	18	0.253333	5.10404E-001	4.01357E-004	0.00000E+000	2.04854E-004	2.40040E-001	5.10509E-001	3.57630E+000	9	...........
	19	0.266667	5.16753E-001	4.00535E-004	0.00000E+000	2.06977E-004	2.40040E-001	5.16863E-001	3.57630E+000	9	...........
	20	0.28	5.23095E-001	4.00457E-004	0.00000E+000	2.09477E-004	2.40040E-001	5.23204E-001	3.57630E+000	9	...........
	21	0.293333	5.29354E-001	4.00637E-004	0.00000E+000	2.12078E-004	2.40040E-001	5.29466E-001	3.57630E+000	9	...........
	22	0.306667	5.35347E-001	4.00418E-004	0.00000E+000	2.14363E-004	2.40040E-001	5.35546E-001	3.57630E+000	9	...........
	23	0.32	5.41494E-001	4.01017E-004	0.00000E+000	2.17148E-004	2.40040E-001	5.41717E-001	3.57630E+000	9	...........
	24	0.333333	5.47699E-001	4.00023E-004	0.00000E+000	2.19092E-004	2.40040E-001	5.47945E-001	3.57630E+000	9	...........
	25	0.346667	5.53839E-001	4.00943E-004	0.00000E+000	2.22058E-004	2.40040E-001	5.54084E-001	3.57630E+000	9	...........
	26	0.36	5.59981E-001	4.00346E-004	0.00000E+000	2.24186E-004	2.40040E-001	5.60250E-001	3.57660E+000	9	...........
	27	0.373333	5.66116E-001	4.01194E-004	0.00000E+000	2.27122E-004	2.40040E-001	5.66361E-001	3.57690E+000	9	...........
	28	0.386667	5.72240E-001	4.00597E-004	0.00000E+000	2.29238E-004	2.40040E-001	5.72483E-001	3.57690E+000	9	...........
	29	0.4	5.78285E-001	4.00248E-004	0.00000E+000	2.31457E-004	2.40040E-001	5.78525E-001	3.57690E+000	9	...........
	30	0.413333	5.84254E-001	4.02852E-004	0.00000E+000	2.35368E-004	2.40040E-001	5.84496E-001	3.57690E+000	9	...........
	31	0.426667	5.90260E-001	4.01553E-004	0.00000E+000	2.37021E-004	2.40040E-001	5.90486E-001	3.57690E+000	9	...........
	32	0.44	5.96219E-001	4.00967E-004	0.00000E+000	2.39064E-004	2.40040E-001	5.96425E-001	3.57690E+000	9	...........
	33	0.453333	6.02108E-001	4.00747E-004	0.00000E+000	2.41293E-004	2.40040E-001	6.02331E-001	3.57690E+000	9	...........
	34	0.466667	6.07976E-001	4.00469E-004	0.00000E+000	2.43476E-004	2.40040E-001	6.08196E-001	3.57690E+000	9	...........
	35	0.48	6.13903E-001	4.00488E-004	0.00000E+000	2.45861E-004	2.40040E-001	6.14086E-001	3.57690E+000	9	...........
	36	0.493333	6.19863E-001	4.01578E-004	0.00000E+000	2.48924E-004	2.40040E-001	6.20062E-001	3.57690E+000	9	...........
	37	0.506667	6.25744E-001	3.99582E-004	0.00000E+000	2.50036E-004	2.40040E-001	6.25931E-001	3.57690E+000	9	...........
	38	0.52	6.31547E-001	4.00794E-004	0.00000E+000	2.53120E-004	2.40040E-001	6.31756E-001	3.57690E+000	9	...........
	39	0.533333	6.37232E-001	3.99876E-004	0.00000E+000	2.54814E-004	2.40040E-001	6.37448E-001	3.57690E+000	9	...........
	40	0.546667	6.43002E-001	3.99933E-004	0.00000E+000	2.57158E-004	2.40040E-001	6.43216E-001	3.57690E+000	9	...........
	41	0.56	6.48852E-001	4.00442E-004	0.00000E+000	2.59828E-004	2.40040E-001	6.49077E-001	3.57690E+000	9	...........
	42	0.573333	6.54643E-001	4.01230E-004	0.00000E+000	2.62663E-004	2.40040E-001	6.54863E-001	3.57690E+000	9	...........
	43	0.586667	6.60340E-001	4.00917E-004	0.00000E+000	2.64742E-004	2.40040E-001	6.60573E-001	3.57690E+000	9	...........
	44	0.6	6.66048E-001	4.00878E-004	0.00000E+000	2.67004E-004	2.40040E-001	6.66283E-001	3.57690E+000	9	...........
	45	0.613333	6.71883E-001	4.00296E-004	0.00000E+000	2.68952E-004	2.40040E-001	6.72070E-001	3.57690E+000	9	...........
	46	0.626667	6.77494E-001	4.01593E-004	0.00000E+000	2.72077E-004	2.40040E-001	6.77725E-001	3.57690E+000	9	...........
	47	0.64	6.83114E-001	4.00145E-004	0.00000E+000	2.73344E-004	2.40040E-001	6.83348E-001	3.57690E+000	9	...........
	48	0.653333	6.88675E-001	3.99868E-004	0.00000E+000	2.75379E-004	2.40040E-001	6.88937E-001	3.57690E+000	9	...........
	49	0.666667	6.94363E-001	4.01703E-004	0.00000E+000	2.78928E-004	2.40040E-001	6.94595E-001	3.57690E+000	9	...........
	50	0.68	6.99963E-001	3.99726E-004	0.00000E+000	2.79793E-004	2.40040E-001	7.00188E-001	3.57690E+000	9	...........
	51	0.693333	7.05572E-001	4.00771E-004	0.00000E+000	2.82773E-004	2.40040E-001	7.05812E-001	3.57690E+000	9	...........
	52	0.706667	7.11125E-001	4.00355E-004	0.00000E+000	2.84703E-004	2.40040E-001	7.11390E-001	3.57690E+000	9	...........
	53	0.72	7.16644E-001	4.00762E-004	0.00000E+000	2.87203E-004	2.40040E-001	7.16898E-001	3.57690E+000	9	...........
	54	0.733333	7.22158E-001	4.00399E-004	0.00000E+000	2.89152E-004	2.40040E-001	7.22373E-001	3.57690E+000	9	...........
	55	0.746667	7.27608E-001	4.01289E-004	0.00000E+000	2.91981E-004	2.40040E-001	7.27858E-001	3.57690E+000	9	...........
	56	0.76	7.33044E-001	3.99794E-004	0.00000E+000	2.93066E-004	2.40040E-001	7.33291E-001	3.57690E+000	9	...........
	57	0.773333	7.38474E-001	4.00582E-004	0.00000E+000	2.95820E-004	2.40040E-001	7.38746E-001	3.57690E+000	9	...........
	58	0.786667	7.43935E-001	4.02446E-004	0.00000E+000	2.99394E-004	2.40040E-001	7.44188E-001	3.57690E+000	9	...........
	59	0.8	7.49277E-001	4.01067E-004	0.00000E+000	3.00510E-004	2.40040E-001	7.49549E-001	3.57690E+000	9	...........
	60	0.813333	7.54668E-001	4.01416E-004	0.00000E+000	3.02936E-004	2.40040E-001	7.54936E-001	3.57690E+000	9	...........
	61	0.826667	7.60049E-001	4.00801E-004	0.00000E+000	3.04628E-004	2.40040E-001	7.60294E-001	3.57690E+000	9	...........
	62	0.84	7.65362E-001	4.00623E-004	0.00000E+000	3.06622E-004	2.40040E-001	7.65605E-001	3.57690E+000	9	...........
	63	0.853333	7.70696E-001	4.01361E-004	0.00000E+000	3.09327E-004	2.40040E-001	7.70955E-001	3.57690E+000	9	...........
	64	0.866667	7.75961E-001	4.00954E-004	0.00000E+000	3.11125E-004	2.40040E-001	7.76177E-001	3.57690E+000	9	...........
	65	0.88	7.81240E-001	4.00933E-004	0.00000E+000	3.13225E-004	2.40040E-001	7.81454E-001	3.57690E+000	9	...........
	66	0.893333	7.86366E-001	4.01037E-004	0.00000E+000	3.15362E-004	2.40040E-001	7.86594E-001	3.57690E+000	9	...........
	67	0.906667	7.91543E-001	4.00293E-004	0.00000E+000	3.16849E-004	2.40040E-001	7.91756E-001	3.57690E+000	9	...........
	68	0.92	7.96716E-001	4.01040E-004	0.00000E+000	3.19515E-004	2.40040E-001	7.96911E-001	3.57690E+000	9	...........
	69	0.933333	8.01804E-001	4.00839E-004	0.00000E+000	3.21394E-004	2.40040E-001	8.01997E-001	3.57690E+000	9	...........
	70	0.946667	8.06895E-001	4.01062E-004	0.00000E+000	3.23615E-004	2.40040E-001	8.07132E-001	3.57690E+000	9	...........
	71	0.96	8.11954E-001	4.00959E-004	0.00000E+000	3.25560E-004	2.40040E-001	8.12175E-001	3.57690E+000	9	...........
	72	0.97333	8.16958E-001	4.01313E-004	0.00000E+000	3.27856E-004	2.40040E-001	8.17212E-001	3.57690E+000	9	...........
	73	0.98667	8.21999E-001	4.01619E-004	0.00000E+000	3.30131E-004	2.40040E-001	8.22262E-001	3.57690E+000	9	...........
	74	1	8.26997E-001	4.00198E-004	0.00000E+000	3.30963E-004	2.40040E-001	8.27252E-001	3.57690E+000	9	...........
	75	1.01333	8.31971E-001	4.00384E-004	0.00000E+000	3.33108E-004	2.40040E-001	8.32241E-001	3.57690E+000	9	...........
	76	1.02667	8.36879E-001	4.00376E-004	0.00000E+000	3.35067E-004	2.40040E-001	8.37180E-001	3.57690E+000	9	...........
	77	1.04	8.41770E-001	4.00817E-004	0.00000E+000	3.37396E-004	2.40040E-001	8.42066E-001	3.57690E+000	9	...........
	78	1.05333	8.46622E-001	4.01379E-004	0.00000E+000	3.39817E-004	2.40040E-001	8.46917E-001	3.57690E+000	9	...........
	79	1.06667	8.51472E-001	4.00699E-004	0.00000E+000	3.41184E-004	2.40040E-001	8.51771E-001	3.57690E+000	9	...........
	80	1.08	8.56187E-001	4.00669E-004	0.00000E+000	3.43047E-004	2.40040E-001	8.56489E-001	3.57690E+000	9	...........
	81	1.09333	8.60976E-001	3.99628E-004	0.00000E+000	3.44070E-004	2.40040E-001	8.61296E-001	3.57690E+000	9	...........
	82	1.10667	8.65708E-001	4.00789E-004	0.00000E+000	3.46966E-004	2.40040E-001	8.66019E-001	3.57690E+000	9	...........
	83	1.12	8.70434E-001	4.01011E-004	0.00000E+000	3.49053E-004	2.40040E-001	8.70787E-001	3.57690E+000	9	...........
	84	1.13333	8.75089E-001	4.00544E-004	0.00000E+000	3.50511E-004	2.40040E-001	8.75418E-001	3.57690E+000	9	...........
	85	1.14667	8.79732E-001	4.00323E-004	0.00000E+000	3.52177E-004	2.40040E-001	8.80039E-001	3.57690E+000	9	...........
	86	1.16	8.84367E-001	4.00865E-004	0.00000E+000	3.54512E-004	2.40040E-001	8.84679E-001	3.57690E+000	9	...........
	87	1.17333	8.88940E-001	4.01440E-004	0.00000E+000	3.56856E-004	2.40040E-001	8.89253E-001	3.57690E+000	9	...........
	88	1.18667	8.93429E-001	4.00112E-004	0.00000E+000	3.57471E-004	2.40040E-001	8.93758E-001	3.57690E+000	9	...........
	89	1.2	8.97946E-001	4.00711E-004	0.00000E+000	3.59816E-004	2.40040E-001	8.98274E-001	3.57690E+000	9	...........
	90	1.21333	9.02430E-001	4.02167E-004	0.00000E+000	3.62928E-004	2.40040E-001	9.02769E-001	3.57690E+000	9	...........
	91	1.22667	9.06849E-001	4.00948E-004	0.00000E+000	3.63599E-004	2.40040E-001	9.07169E-001	3.57690E+000	9	...........
	92	1.24	9.11197E-001	4.01831E-004	0.00000E+000	3.66147E-004	2.40040E-001	9.11508E-001	3.57690E+000	9	...........
	93	1.25333	9.15550E-001	4.01611E-004	0.00000E+000	3.67695E-004	2.40040E-001	9.15890E-001	3.57690E+000	9	...........
	94	1.26667	9.19914E-001	4.01403E-004	0.00000E+000	3.69257E-004	2.40040E-001	9.20225E-001	3.57690E+000	9	...........
	95	1.28	9.24269E-001	4.00498E-004	0.00000E+000	3.70168E-004	2.40040E-001	9.24560E-001	3.57690E+000	9	...........
	96	1.29333	9.28531E-001	4.01266E-004	0.00000E+000	3.72588E-004	2.40040E-001	9.28822E-001	3.57690E+000	9	...........
	97	1.30667	9.32711E-001	4.01243E-004	0.00000E+000	3.74244E-004	2.40040E-001	9.33010E-001	3.57690E+000	9	...........
	98	1.32	9.36810E-001	4.02377E-004	0.00000E+000	3.76950E-004	2.40040E-001	9.37110E-001	3.57690E+000	9	...........
	99	1.33333	9.40935E-001	3.99604E-004	0.00000E+000	3.76002E-004	2.40040E-001	9.41251E-001	3.57690E+000	9	...........
	100	1.34667	9.45117E-001	4.01129E-004	0.00000E+000	3.79114E-004	2.40040E-001	9.45415E-001	3.57690E+000	9	...........
	101	1.36	9.49185E-001	4.00278E-004	0.00000E+000	3.79938E-004	2.40040E-001	9.49488E-001	3.57655E+000	9	...........
	102	1.37333	9.53142E-001	4.00264E-004	0.00000E+000	3.81508E-004	2.40040E-001	9.53436E-001	3.57620E+000	9	...........
	103	1.38667	9.57094E-001	4.01143E-004	0.00000E+000	3.83932E-004	2.40040E-001	9.57374E-001	3.57620E+000	9	...........
	104	1.4	9.60990E-001	4.00981E-004	0.00000E+000	3.85339E-004	2.40040E-001	9.61304E-001	3.57620E+000	9	...........
	105	1.41333	9.64911E-001	4.01439E-004	0.00000E+000	3.87353E-004	2.40040E-001	9.65204E-001	3.57620E+000	9	...........
	106	1.42667	9.68758E-001	4.02677E-004	0.00000E+000	3.90096E-004	2.40040E-001	9.69060E-001	3.57620E+000	9	...........
	107	1.44	9.72566E-001	4.01196E-004	0.00000E+000	3.90190E-004	2.40040E-001	9.72880E-001	3.57620E+000	9	...........
	108	1.45333	9.76382E-001	4.00965E-004	0.00000E+000	3.91495E-004	2.40040E-001	9.76653E-001	3.57620E+000	9	...........
	109	1.46667	9.80075E-001	4.02953E-004	0.00000E+000	3.94924E-004	2.40040E-001	9.80350E-001	3.57620E+000	9	...........
	110	1.48	9.83773E-001	4.01127E-004	0.00000E+000	3.94618E-004	2.40040E-001	9.84070E-001	3.57620E+000	9	...........
	111	1.49333	9.87458E-001	4.01502E-004	0.00000E+000	3.96467E-004	2.40040E-001	9.87762E-001	3.57620E+000	9	...........
	112	1.50667	9.91091E-001	4.00821E-004	0.00000E+000	3.97250E-004	2.40040E-001	9.91377E-001	3.57620E+000	9	...........
	113	1.52	9.94688E-001	4.01942E-004	0.00000E+000	3.99807E-004	2.40040E-001	9.94982E-001	3.57620E+000	9	...........
	114	1.53333	9.98219E-001	4.01220E-004	0.00000E+000	4.00506E-004	2.40040E-001	9.98527E-001	3.57620E+000	9	...........
	115	1.535	1.00024E+000	4.01194E-004	0.00000E+000	4.01289E-004	2.40040E-001	1.00054E+000	3.57620E+000	9	...........
STARTTIMEOFFSET	QUANT	1790.806	Start Time Offset (s)
