EXPLAIN
TAG	PWR800_CHARGE
TITLE	LABEL	PWR Cyclic Charge Discharge (Cell) - Charge Step	Test &Identifier
DATE	LABEL	12-7-2017	Date
TIME	LABEL	14:49:25	Time
NOTES	NOTES	3	&Notes...
	supercap test cell
	0.4mg
	6M KOH
PSTAT	PSTAT	IFC5000-01520	Potentiostat
CAPACITY	QUANT	1.00000E-003	Capacity (A-hr)
CELLTYPE	SELECTOR	1	&Cell Type
WORKINGCONNECTION	SELECTOR	0	&Working Lead
MAXCHARGETIME	VARIABLEANDUNITS	1.00000E+002	s	1.00000E+002	second(s)	Max &Charge Time
CHARGECURRENT	QUANT	4.00000E-004	&Charge Current (A) 
VOLTAGEFINISH	TWOPARAM	F	1.00000E-003	3.60000E+003	&Voltage Finish	 I (A) < 	Max Time(s)
SAMPLETIME	QUANT	1.00000E-002	Sa&mple Period (s)
CHARGESTOPAT1	MULTIPARAM	4	1.00000E+000	Charge Stop At &1	Voltage > Limit	V
CHARGESTOPAT2	MULTIPARAM	0	0.00000E+000	Charge Stop At &2	None	N/A
AESBHCSELECTOR	TOGGLE	F	Save Both Half Cells
IRCOMP	TOGGLE	F	IR &Measure
EOC	QUANT	0	Open Circuit (V)
SEQUENCER	TOGGLE	TRUE	Run as Sequence
PSTATMODEL	IQUANT	53	Pstat Model
PSTATSECTION	LABEL	IFC5000-01520	Pstat Section
PSTATSERIALNO	LABEL	01520	Pstat Serial Number
CTRLMODE	IQUANT	0	Control Mode
ELECTROMETER	IQUANT	1	RE=0 or CS=1
IESTAB	IQUANT	0	I/E Stability
CASPEED	IQUANT	4	Control Amp Speed
CONVENTION	IQUANT	1	Current Convention
ICHRANGE	IQUANT	2	Ich Range
ICHRANGEMODE	TOGGLE	T	Ich Auto Range
ICHOFFSETENABLE	TOGGLE	F	Ich Offset Enable
ICHOFFSET	QUANT	0	Ich Offset (V)
ICHFILTER	IQUANT	1	Ich Filter
VCHRANGE	IQUANT	2	Vch Range
VCHRANGEMODE	TOGGLE	T	Vch Auto Range
VCHOFFSETENABLE	TOGGLE	F	Vch Offset Enable
VCHOFFSET	QUANT	0	Vch Offset (V)
VCHFILTER	IQUANT	1	Vch Filter
IERANGELOWERLIMIT	IQUANT	9	I/E Range Lower Limit
IERANGEMODE	TOGGLE	F	I/E AutoRange
IERANGE	IQUANT	9	I/E Range
ACHSELECT	IQUANT	1	Ach Select
ACHRANGE	IQUANT	2	Ach Range
ACHOFFSETENABLE	TOGGLE	F	Ach Offset Enable
ACHOFFSET	QUANT	0	Ach Offset (V)
ACHFILTER	IQUANT	1	Ach Filter
CABLEID	IQUANT	14	Cable ID
DCCALDATE	LABEL	5-7-2017	DC Calibration Date
ACCALDATE	LABEL	12/3/2015	AC Calibration Date
FRAMEWORKVERSION	QUANT	7.01	Framework Version
INSTRUMENTVERSION	LABEL	4.00	Instrument Version
CURVE	TABLE	119
	Pt	T	Vf	Im	Vu	Pwr	Sig	Ach	Temp	IERange	Over
	#	s	V	A	V	W	V	V	deg C	#	bits
	0	0.013333	3.62273E-001	4.00651E-004	0.00000E+000	1.45145E-004	2.40040E-001	3.62378E-001	3.57670E+000	9	...........
	1	0.026667	3.73736E-001	4.00063E-004	0.00000E+000	1.49518E-004	2.40040E-001	3.73816E-001	3.57670E+000	9	...........
	2	0.04	3.83528E-001	4.01687E-004	0.00000E+000	1.54058E-004	2.40040E-001	3.83607E-001	3.57670E+000	9	...........
	3	0.053333	3.92529E-001	4.01093E-004	0.00000E+000	1.57441E-004	2.40040E-001	3.92610E-001	3.57670E+000	9	...........
	4	0.066667	4.00995E-001	4.00954E-004	0.00000E+000	1.60781E-004	2.40040E-001	4.01081E-001	3.57670E+000	9	...........
	5	0.08	4.08983E-001	4.02006E-004	0.00000E+000	1.64414E-004	2.40040E-001	4.09070E-001	3.57670E+000	9	...........
	6	0.093333	4.16666E-001	4.01624E-004	0.00000E+000	1.67343E-004	2.40040E-001	4.16760E-001	3.57670E+000	9	...........
	7	0.106667	4.24167E-001	4.00603E-004	0.00000E+000	1.69923E-004	2.40040E-001	4.24263E-001	3.57670E+000	9	...........
	8	0.12	4.31469E-001	4.01240E-004	0.00000E+000	1.73123E-004	2.40040E-001	4.31560E-001	3.57670E+000	9	...........
	9	0.133333	4.38592E-001	4.00185E-004	0.00000E+000	1.75518E-004	2.40040E-001	4.38688E-001	3.57670E+000	9	...........
	10	0.146667	4.45598E-001	4.02210E-004	0.00000E+000	1.79224E-004	2.40040E-001	4.45690E-001	3.57670E+000	9	...........
	11	0.16	4.52469E-001	4.00501E-004	0.00000E+000	1.81214E-004	2.40040E-001	4.52565E-001	3.57670E+000	9	...........
	12	0.173333	4.59227E-001	4.00334E-004	0.00000E+000	1.83844E-004	2.40040E-001	4.59322E-001	3.57670E+000	9	...........
	13	0.186667	4.65908E-001	4.00910E-004	0.00000E+000	1.86787E-004	2.40040E-001	4.66008E-001	3.57670E+000	9	...........
	14	0.2	4.72473E-001	4.00358E-004	0.00000E+000	1.89159E-004	2.40040E-001	4.72570E-001	3.57670E+000	9	...........
	15	0.213333	4.78988E-001	4.01279E-004	0.00000E+000	1.92208E-004	2.40040E-001	4.79086E-001	3.57670E+000	9	...........
	16	0.226667	4.85388E-001	4.00670E-004	0.00000E+000	1.94481E-004	2.40040E-001	4.85489E-001	3.57670E+000	9	...........
	17	0.24	4.91783E-001	4.01033E-004	0.00000E+000	1.97221E-004	2.40040E-001	4.91887E-001	3.57670E+000	9	...........
	18	0.253333	4.98094E-001	4.01440E-004	0.00000E+000	1.99955E-004	2.40040E-001	4.98202E-001	3.57670E+000	9	...........
	19	0.266667	5.04441E-001	4.01442E-004	0.00000E+000	2.02504E-004	2.40040E-001	5.04548E-001	3.57670E+000	9	...........
	20	0.28	5.10712E-001	4.01122E-004	0.00000E+000	2.04858E-004	2.40040E-001	5.10824E-001	3.57670E+000	9	...........
	21	0.293333	5.16906E-001	4.00983E-004	0.00000E+000	2.07270E-004	2.40040E-001	5.17017E-001	3.57670E+000	9	...........
	22	0.306667	5.23073E-001	4.01610E-004	0.00000E+000	2.10071E-004	2.40040E-001	5.23184E-001	3.57670E+000	9	...........
	23	0.32	5.29139E-001	4.00481E-004	0.00000E+000	2.11910E-004	2.40040E-001	5.29252E-001	3.57670E+000	9	...........
	24	0.333333	5.35029E-001	4.02358E-004	0.00000E+000	2.15273E-004	2.40040E-001	5.35206E-001	3.57670E+000	9	...........
	25	0.346667	5.41016E-001	4.00851E-004	0.00000E+000	2.16867E-004	2.40040E-001	5.41237E-001	3.57670E+000	9	...........
	26	0.36	5.47040E-001	4.00073E-004	0.00000E+000	2.18856E-004	2.40040E-001	5.47255E-001	3.57670E+000	9	...........
	27	0.373333	5.53055E-001	4.01169E-004	0.00000E+000	2.21868E-004	2.40040E-001	5.53279E-001	3.57670E+000	9	...........
	28	0.386667	5.59091E-001	4.00884E-004	0.00000E+000	2.24130E-004	2.40040E-001	5.59300E-001	3.57670E+000	9	...........
	29	0.4	5.65068E-001	4.01213E-004	0.00000E+000	2.26712E-004	2.40040E-001	5.65240E-001	3.57670E+000	9	...........
	30	0.413333	5.70927E-001	4.00883E-004	0.00000E+000	2.28875E-004	2.40040E-001	5.71125E-001	3.57670E+000	9	...........
	31	0.426667	5.76715E-001	4.00702E-004	0.00000E+000	2.31091E-004	2.40040E-001	5.76928E-001	3.57670E+000	9	...........
	32	0.44	5.82573E-001	4.01383E-004	0.00000E+000	2.33835E-004	2.40040E-001	5.82783E-001	3.57670E+000	9	...........
	33	0.453333	5.88396E-001	4.01751E-004	0.00000E+000	2.36389E-004	2.40040E-001	5.88617E-001	3.57670E+000	9	...........
	34	0.466667	5.94331E-001	4.01038E-004	0.00000E+000	2.38349E-004	2.40040E-001	5.94538E-001	3.57670E+000	9	...........
	35	0.48	6.00156E-001	4.00995E-004	0.00000E+000	2.40659E-004	2.40040E-001	6.00377E-001	3.57670E+000	9	...........
	36	0.493333	6.05918E-001	4.01710E-004	0.00000E+000	2.43403E-004	2.40040E-001	6.06184E-001	3.57670E+000	9	...........
	37	0.506667	6.11641E-001	4.01701E-004	0.00000E+000	2.45697E-004	2.40040E-001	6.11901E-001	3.57670E+000	9	...........
	38	0.52	6.17491E-001	4.01010E-004	0.00000E+000	2.47620E-004	2.40040E-001	6.17711E-001	3.57670E+000	9	...........
	39	0.533333	6.23178E-001	4.00015E-004	0.00000E+000	2.49280E-004	2.40040E-001	6.23401E-001	3.57670E+000	9	...........
	40	0.546667	6.28903E-001	4.01001E-004	0.00000E+000	2.52191E-004	2.40040E-001	6.29147E-001	3.57670E+000	9	...........
	41	0.56	6.34610E-001	3.99976E-004	0.00000E+000	2.53829E-004	2.40040E-001	6.34832E-001	3.57670E+000	9	...........
	42	0.573333	6.40238E-001	4.01258E-004	0.00000E+000	2.56900E-004	2.40040E-001	6.40493E-001	3.57670E+000	9	...........
	43	0.586667	6.45919E-001	3.99761E-004	0.00000E+000	2.58213E-004	2.40040E-001	6.46129E-001	3.57670E+000	9	...........
	44	0.6	6.51619E-001	4.01543E-004	0.00000E+000	2.61653E-004	2.40040E-001	6.51825E-001	3.57670E+000	9	...........
	45	0.613333	6.57308E-001	4.01746E-004	0.00000E+000	2.64071E-004	2.40040E-001	6.57511E-001	3.57670E+000	9	...........
	46	0.626667	6.62950E-001	4.01021E-004	0.00000E+000	2.65857E-004	2.40040E-001	6.63170E-001	3.57670E+000	9	...........
	47	0.64	6.68565E-001	3.99998E-004	0.00000E+000	2.67425E-004	2.40040E-001	6.68784E-001	3.57670E+000	9	...........
	48	0.653333	6.74202E-001	4.00396E-004	0.00000E+000	2.69948E-004	2.40040E-001	6.74410E-001	3.57707E+000	9	...........
	49	0.666667	6.79720E-001	4.00760E-004	0.00000E+000	2.72404E-004	2.40040E-001	6.79955E-001	3.57770E+000	9	...........
	50	0.68	6.85241E-001	4.00887E-004	0.00000E+000	2.74704E-004	2.40040E-001	6.85487E-001	3.57770E+000	9	...........
	51	0.693333	6.90776E-001	4.01375E-004	0.00000E+000	2.77260E-004	2.40040E-001	6.91012E-001	3.57770E+000	9	...........
	52	0.706667	6.96272E-001	4.01771E-004	0.00000E+000	2.79742E-004	2.40040E-001	6.96494E-001	3.57770E+000	9	...........
	53	0.72	7.01838E-001	4.01004E-004	0.00000E+000	2.81440E-004	2.40040E-001	7.02068E-001	3.57770E+000	9	...........
	54	0.733333	7.07355E-001	4.00386E-004	0.00000E+000	2.83215E-004	2.40040E-001	7.07618E-001	3.57770E+000	9	...........
	55	0.746667	7.12780E-001	4.01714E-004	0.00000E+000	2.86334E-004	2.40040E-001	7.13013E-001	3.57770E+000	9	...........
	56	0.76	7.18193E-001	4.00153E-004	0.00000E+000	2.87387E-004	2.40040E-001	7.18461E-001	3.57770E+000	9	...........
	57	0.773333	7.23650E-001	4.00947E-004	0.00000E+000	2.90145E-004	2.40040E-001	7.23900E-001	3.57770E+000	9	...........
	58	0.786667	7.29028E-001	4.00472E-004	0.00000E+000	2.91955E-004	2.40040E-001	7.29291E-001	3.57770E+000	9	...........
	59	0.8	7.34363E-001	4.00333E-004	0.00000E+000	2.93990E-004	2.40040E-001	7.34631E-001	3.57770E+000	9	...........
	60	0.813333	7.39697E-001	4.01429E-004	0.00000E+000	2.96936E-004	2.40040E-001	7.39939E-001	3.57770E+000	9	...........
	61	0.826667	7.45042E-001	4.00348E-004	0.00000E+000	2.98276E-004	2.40040E-001	7.45316E-001	3.57770E+000	9	...........
	62	0.84	7.50361E-001	4.01387E-004	0.00000E+000	3.01185E-004	2.40040E-001	7.50600E-001	3.57770E+000	9	...........
	63	0.853333	7.55703E-001	4.00665E-004	0.00000E+000	3.02784E-004	2.40040E-001	7.55961E-001	3.57770E+000	9	...........
	64	0.866667	7.60939E-001	4.00950E-004	0.00000E+000	3.05099E-004	2.40040E-001	7.61179E-001	3.57770E+000	9	...........
	65	0.88	7.66176E-001	4.01910E-004	0.00000E+000	3.07934E-004	2.40040E-001	7.66456E-001	3.57770E+000	9	...........
	66	0.893333	7.71357E-001	4.01484E-004	0.00000E+000	3.09687E-004	2.40040E-001	7.71611E-001	3.57770E+000	9	...........
	67	0.906667	7.76572E-001	4.00977E-004	0.00000E+000	3.11388E-004	2.40040E-001	7.76842E-001	3.57770E+000	9	...........
	68	0.92	7.81758E-001	4.02391E-004	0.00000E+000	3.14572E-004	2.40040E-001	7.82040E-001	3.57770E+000	9	...........
	69	0.933333	7.86837E-001	4.01123E-004	0.00000E+000	3.15619E-004	2.40040E-001	7.87095E-001	3.57770E+000	9	...........
	70	0.946667	7.91932E-001	4.00336E-004	0.00000E+000	3.17038E-004	2.40040E-001	7.92236E-001	3.57770E+000	9	...........
	71	0.96	7.97045E-001	4.00823E-004	0.00000E+000	3.19474E-004	2.40040E-001	7.97321E-001	3.57770E+000	9	...........
	72	0.97333	8.02089E-001	4.01246E-004	0.00000E+000	3.21835E-004	2.40040E-001	8.02372E-001	3.57770E+000	9	...........
	73	0.98667	8.07151E-001	4.00480E-004	0.00000E+000	3.23248E-004	2.40040E-001	8.07431E-001	3.57770E+000	9	...........
	74	1	8.12158E-001	4.01278E-004	0.00000E+000	3.25901E-004	2.40040E-001	8.12461E-001	3.57770E+000	9	...........
	75	1.01333	8.17166E-001	4.01008E-004	0.00000E+000	3.27690E-004	2.40040E-001	8.17442E-001	3.57770E+000	9	...........
	76	1.02667	8.22115E-001	4.00588E-004	0.00000E+000	3.29329E-004	2.40040E-001	8.22408E-001	3.57770E+000	9	...........
	77	1.04	8.27000E-001	4.00643E-004	0.00000E+000	3.31331E-004	2.40040E-001	8.27290E-001	3.57770E+000	9	...........
	78	1.05333	8.31855E-001	4.00938E-004	0.00000E+000	3.33522E-004	2.40040E-001	8.32128E-001	3.57770E+000	9	...........
	79	1.06667	8.36658E-001	4.00843E-004	0.00000E+000	3.35368E-004	2.40040E-001	8.36971E-001	3.57770E+000	9	...........
	80	1.08	8.41466E-001	4.00950E-004	0.00000E+000	3.37386E-004	2.40040E-001	8.41776E-001	3.57770E+000	9	...........
	81	1.09333	8.46382E-001	4.01126E-004	0.00000E+000	3.39506E-004	2.40040E-001	8.46676E-001	3.57770E+000	9	...........
	82	1.10667	8.51137E-001	4.00929E-004	0.00000E+000	3.41246E-004	2.40040E-001	8.51436E-001	3.57770E+000	9	...........
	83	1.12	8.55882E-001	4.00761E-004	0.00000E+000	3.43004E-004	2.40040E-001	8.56179E-001	3.57770E+000	9	...........
	84	1.13333	8.60607E-001	4.00761E-004	0.00000E+000	3.44897E-004	2.40040E-001	8.60888E-001	3.57770E+000	9	...........
	85	1.14667	8.65236E-001	4.00880E-004	0.00000E+000	3.46856E-004	2.40040E-001	8.65534E-001	3.57770E+000	9	...........
	86	1.16	8.69879E-001	3.99281E-004	0.00000E+000	3.47326E-004	2.40040E-001	8.70174E-001	3.57770E+000	9	...........
	87	1.17333	8.74505E-001	4.00875E-004	0.00000E+000	3.50567E-004	2.40040E-001	8.74788E-001	3.57770E+000	9	...........
	88	1.18667	8.79049E-001	4.00543E-004	0.00000E+000	3.52097E-004	2.40040E-001	8.79342E-001	3.57770E+000	9	...........
	89	1.2	8.83604E-001	4.01142E-004	0.00000E+000	3.54451E-004	2.40040E-001	8.83896E-001	3.57770E+000	9	...........
	90	1.21333	8.88075E-001	4.01018E-004	0.00000E+000	3.56134E-004	2.40040E-001	8.88347E-001	3.57770E+000	9	...........
	91	1.22667	8.92578E-001	4.01165E-004	0.00000E+000	3.58071E-004	2.40040E-001	8.92829E-001	3.57770E+000	9	...........
	92	1.24	8.96988E-001	4.01719E-004	0.00000E+000	3.60337E-004	2.40040E-001	8.97267E-001	3.57770E+000	9	...........
	93	1.25333	9.01395E-001	4.01431E-004	0.00000E+000	3.61847E-004	2.40040E-001	9.01679E-001	3.57770E+000	9	...........
	94	1.26667	9.05759E-001	3.99952E-004	0.00000E+000	3.62260E-004	2.40040E-001	9.06060E-001	3.57770E+000	9	...........
	95	1.28	9.10084E-001	4.00315E-004	0.00000E+000	3.64320E-004	2.40040E-001	9.10353E-001	3.57770E+000	9	...........
	96	1.29333	9.14394E-001	3.99808E-004	0.00000E+000	3.65582E-004	2.40040E-001	9.14678E-001	3.57770E+000	9	...........
	97	1.30667	9.18660E-001	4.00500E-004	0.00000E+000	3.67923E-004	2.40040E-001	9.18959E-001	3.57770E+000	9	...........
	98	1.32	9.22921E-001	4.00964E-004	0.00000E+000	3.70058E-004	2.40040E-001	9.23185E-001	3.57770E+000	9	...........
	99	1.33333	9.27147E-001	4.00130E-004	0.00000E+000	3.70979E-004	2.40040E-001	9.27383E-001	3.57770E+000	9	...........
	100	1.34667	9.31322E-001	4.02242E-004	0.00000E+000	3.74617E-004	2.40040E-001	9.31568E-001	3.57770E+000	9	...........
	101	1.36	9.35410E-001	4.00263E-004	0.00000E+000	3.74409E-004	2.40040E-001	9.35659E-001	3.57770E+000	9	...........
	102	1.37333	9.39459E-001	4.02410E-004	0.00000E+000	3.78047E-004	2.40040E-001	9.39721E-001	3.57770E+000	9	...........
	103	1.38667	9.43525E-001	4.00630E-004	0.00000E+000	3.78005E-004	2.40040E-001	9.43774E-001	3.57770E+000	9	...........
	104	1.4	9.47509E-001	4.00819E-004	0.00000E+000	3.79780E-004	2.40040E-001	9.47790E-001	3.57770E+000	9	...........
	105	1.41333	9.51528E-001	4.01227E-004	0.00000E+000	3.81779E-004	2.40040E-001	9.51809E-001	3.57770E+000	9	...........
	106	1.42667	9.55460E-001	4.00650E-004	0.00000E+000	3.82805E-004	2.40040E-001	9.55739E-001	3.57770E+000	9	...........
	107	1.44	9.59307E-001	4.00874E-004	0.00000E+000	3.84562E-004	2.40040E-001	9.59601E-001	3.57770E+000	9	...........
	108	1.45333	9.63147E-001	4.01147E-004	0.00000E+000	3.86364E-004	2.40040E-001	9.63449E-001	3.57770E+000	9	...........
	109	1.46667	9.66976E-001	4.00130E-004	0.00000E+000	3.86916E-004	2.40040E-001	9.67291E-001	3.57770E+000	9	...........
	110	1.48	9.70735E-001	4.01182E-004	0.00000E+000	3.89441E-004	2.40040E-001	9.71085E-001	3.57770E+000	9	...........
	111	1.49333	9.74558E-001	4.00394E-004	0.00000E+000	3.90207E-004	2.40040E-001	9.74881E-001	3.57770E+000	9	...........
	112	1.50667	9.78235E-001	4.00956E-004	0.00000E+000	3.92230E-004	2.40040E-001	9.78554E-001	3.57770E+000	9	...........
	113	1.52	9.81928E-001	4.00936E-004	0.00000E+000	3.93690E-004	2.40040E-001	9.82216E-001	3.57770E+000	9	...........
	114	1.53333	9.85567E-001	4.00520E-004	0.00000E+000	3.94739E-004	2.40040E-001	9.85887E-001	3.57770E+000	9	...........
	115	1.54667	9.89133E-001	4.00513E-004	0.00000E+000	3.96160E-004	2.40040E-001	9.89456E-001	3.57770E+000	9	...........
	116	1.56	9.92645E-001	4.00106E-004	0.00000E+000	3.97163E-004	2.40040E-001	9.92932E-001	3.57770E+000	9	...........
	117	1.57333	9.96123E-001	4.01986E-004	0.00000E+000	4.00427E-004	2.40040E-001	9.96401E-001	3.57770E+000	9	...........
	118	1.58333	9.99194E-001	4.00900E-004	0.00000E+000	4.00576E-004	2.40040E-001	9.99437E-001	3.57770E+000	9	...........
STARTTIMEOFFSET	QUANT	1473.521	Start Time Offset (s)
