EXPLAIN
TAG	PWR800_CHARGE
TITLE	LABEL	PWR Cyclic Charge Discharge (Cell) - Charge Step	Test &Identifier
DATE	LABEL	12-7-2017	Date
TIME	LABEL	15:08:06	Time
NOTES	NOTES	3	&Notes...
	supercap test cell
	0.4mg
	6M KOH
PSTAT	PSTAT	IFC5000-01520	Potentiostat
CAPACITY	QUANT	1.00000E-003	Capacity (A-hr)
CELLTYPE	SELECTOR	1	&Cell Type
WORKINGCONNECTION	SELECTOR	0	&Working Lead
MAXCHARGETIME	VARIABLEANDUNITS	1.00000E+002	s	1.00000E+002	second(s)	Max &Charge Time
CHARGECURRENT	QUANT	4.00000E-004	&Charge Current (A) 
VOLTAGEFINISH	TWOPARAM	F	1.00000E-003	3.60000E+003	&Voltage Finish	 I (A) < 	Max Time(s)
SAMPLETIME	QUANT	1.00000E-002	Sa&mple Period (s)
CHARGESTOPAT1	MULTIPARAM	4	1.00000E+000	Charge Stop At &1	Voltage > Limit	V
CHARGESTOPAT2	MULTIPARAM	0	0.00000E+000	Charge Stop At &2	None	N/A
AESBHCSELECTOR	TOGGLE	F	Save Both Half Cells
IRCOMP	TOGGLE	F	IR &Measure
EOC	QUANT	0	Open Circuit (V)
SEQUENCER	TOGGLE	TRUE	Run as Sequence
PSTATMODEL	IQUANT	53	Pstat Model
PSTATSECTION	LABEL	IFC5000-01520	Pstat Section
PSTATSERIALNO	LABEL	01520	Pstat Serial Number
CTRLMODE	IQUANT	0	Control Mode
ELECTROMETER	IQUANT	1	RE=0 or CS=1
IESTAB	IQUANT	0	I/E Stability
CASPEED	IQUANT	4	Control Amp Speed
CONVENTION	IQUANT	1	Current Convention
ICHRANGE	IQUANT	2	Ich Range
ICHRANGEMODE	TOGGLE	T	Ich Auto Range
ICHOFFSETENABLE	TOGGLE	F	Ich Offset Enable
ICHOFFSET	QUANT	0	Ich Offset (V)
ICHFILTER	IQUANT	1	Ich Filter
VCHRANGE	IQUANT	2	Vch Range
VCHRANGEMODE	TOGGLE	T	Vch Auto Range
VCHOFFSETENABLE	TOGGLE	F	Vch Offset Enable
VCHOFFSET	QUANT	0	Vch Offset (V)
VCHFILTER	IQUANT	1	Vch Filter
IERANGELOWERLIMIT	IQUANT	9	I/E Range Lower Limit
IERANGEMODE	TOGGLE	F	I/E AutoRange
IERANGE	IQUANT	9	I/E Range
ACHSELECT	IQUANT	1	Ach Select
ACHRANGE	IQUANT	2	Ach Range
ACHOFFSETENABLE	TOGGLE	F	Ach Offset Enable
ACHOFFSET	QUANT	0	Ach Offset (V)
ACHFILTER	IQUANT	1	Ach Filter
CABLEID	IQUANT	14	Cable ID
DCCALDATE	LABEL	5-7-2017	DC Calibration Date
ACCALDATE	LABEL	12/3/2015	AC Calibration Date
FRAMEWORKVERSION	QUANT	7.01	Framework Version
INSTRUMENTVERSION	LABEL	4.00	Instrument Version
CURVE	TABLE	110
	Pt	T	Vf	Im	Vu	Pwr	Sig	Ach	Temp	IERange	Over
	#	s	V	A	V	W	V	V	deg C	#	bits
	0	0.013333	3.80409E-001	4.00421E-004	0.00000E+000	1.52324E-004	2.40040E-001	3.80495E-001	3.57630E+000	9	...........
	1	0.026667	3.92730E-001	4.01508E-004	0.00000E+000	1.57684E-004	2.40040E-001	3.92806E-001	3.57630E+000	9	...........
	2	0.04	4.03297E-001	4.01926E-004	0.00000E+000	1.62096E-004	2.40040E-001	4.03382E-001	3.57630E+000	9	...........
	3	0.053333	4.12910E-001	4.00032E-004	0.00000E+000	1.65177E-004	2.40040E-001	4.12999E-001	3.57630E+000	9	...........
	4	0.066667	4.21942E-001	4.00232E-004	0.00000E+000	1.68875E-004	2.40040E-001	4.22027E-001	3.57630E+000	9	...........
	5	0.08	4.30477E-001	4.01466E-004	0.00000E+000	1.72822E-004	2.40040E-001	4.30566E-001	3.57630E+000	9	...........
	6	0.093333	4.38622E-001	3.99579E-004	0.00000E+000	1.75264E-004	2.40040E-001	4.38713E-001	3.57630E+000	9	...........
	7	0.106667	4.46518E-001	4.01367E-004	0.00000E+000	1.79218E-004	2.40040E-001	4.46611E-001	3.57630E+000	9	...........
	8	0.12	4.54276E-001	4.01335E-004	0.00000E+000	1.82317E-004	2.40040E-001	4.54371E-001	3.57630E+000	9	...........
	9	0.133333	4.61729E-001	4.01637E-004	0.00000E+000	1.85447E-004	2.40040E-001	4.61827E-001	3.57630E+000	9	...........
	10	0.146667	4.69068E-001	4.01031E-004	0.00000E+000	1.88111E-004	2.40040E-001	4.69165E-001	3.57630E+000	9	...........
	11	0.16	4.76255E-001	4.01276E-004	0.00000E+000	1.91110E-004	2.40040E-001	4.76352E-001	3.57630E+000	9	...........
	12	0.173333	4.83345E-001	4.00321E-004	0.00000E+000	1.93493E-004	2.40040E-001	4.83445E-001	3.57630E+000	9	...........
	13	0.186667	4.90417E-001	4.00616E-004	0.00000E+000	1.96469E-004	2.40040E-001	4.90519E-001	3.57630E+000	9	...........
	14	0.2	4.97453E-001	4.00955E-004	0.00000E+000	1.99457E-004	2.40040E-001	4.97563E-001	3.57630E+000	9	...........
	15	0.213333	5.04282E-001	4.01702E-004	0.00000E+000	2.02571E-004	2.40040E-001	5.04383E-001	3.57630E+000	9	...........
	16	0.226667	5.11080E-001	4.01989E-004	0.00000E+000	2.05449E-004	2.40040E-001	5.11190E-001	3.57630E+000	9	...........
	17	0.24	5.17795E-001	4.00543E-004	0.00000E+000	2.07399E-004	2.40040E-001	5.17905E-001	3.57630E+000	9	...........
	18	0.253333	5.24451E-001	4.01402E-004	0.00000E+000	2.10516E-004	2.40040E-001	5.24564E-001	3.57630E+000	9	...........
	19	0.266667	5.31041E-001	4.01041E-004	0.00000E+000	2.12969E-004	2.40040E-001	5.31166E-001	3.57630E+000	9	...........
	20	0.28	5.37344E-001	4.00681E-004	0.00000E+000	2.15304E-004	2.40040E-001	5.37581E-001	3.57630E+000	9	...........
	21	0.293333	5.43831E-001	3.99951E-004	0.00000E+000	2.17506E-004	2.40040E-001	5.44072E-001	3.57630E+000	9	...........
	22	0.306667	5.50275E-001	4.01016E-004	0.00000E+000	2.20669E-004	2.40040E-001	5.50480E-001	3.57701E+000	9	...........
	23	0.32	5.56670E-001	4.01021E-004	0.00000E+000	2.23236E-004	2.40040E-001	5.56900E-001	3.57720E+000	9	...........
	24	0.333333	5.63072E-001	3.99818E-004	0.00000E+000	2.25126E-004	2.40040E-001	5.63303E-001	3.57720E+000	9	...........
	25	0.346667	5.69401E-001	4.00813E-004	0.00000E+000	2.28223E-004	2.40040E-001	5.69604E-001	3.57720E+000	9	...........
	26	0.36	5.75745E-001	4.01084E-004	0.00000E+000	2.30922E-004	2.40040E-001	5.75935E-001	3.57720E+000	9	...........
	27	0.373333	5.82068E-001	4.00617E-004	0.00000E+000	2.33186E-004	2.40040E-001	5.82257E-001	3.57720E+000	9	...........
	28	0.386667	5.88321E-001	4.00227E-004	0.00000E+000	2.35462E-004	2.40040E-001	5.88521E-001	3.57720E+000	9	...........
	29	0.4	5.94537E-001	4.00491E-004	0.00000E+000	2.38107E-004	2.40040E-001	5.94748E-001	3.57720E+000	9	...........
	30	0.413333	6.00697E-001	4.01314E-004	0.00000E+000	2.41068E-004	2.40040E-001	6.00895E-001	3.57720E+000	9	...........
	31	0.426667	6.06871E-001	4.01631E-004	0.00000E+000	2.43738E-004	2.40040E-001	6.07088E-001	3.57720E+000	9	...........
	32	0.44	6.13010E-001	4.01378E-004	0.00000E+000	2.46049E-004	2.40040E-001	6.13237E-001	3.57720E+000	9	...........
	33	0.453333	6.19208E-001	4.01270E-004	0.00000E+000	2.48470E-004	2.40040E-001	6.19366E-001	3.57720E+000	9	...........
	34	0.466667	6.25259E-001	4.01563E-004	0.00000E+000	2.51081E-004	2.40040E-001	6.25459E-001	3.57720E+000	9	...........
	35	0.48	6.31317E-001	4.02157E-004	0.00000E+000	2.53888E-004	2.40040E-001	6.31536E-001	3.57720E+000	9	...........
	36	0.493333	6.37373E-001	4.01737E-004	0.00000E+000	2.56056E-004	2.40040E-001	6.37581E-001	3.57720E+000	9	...........
	37	0.506667	6.43397E-001	4.00768E-004	0.00000E+000	2.57853E-004	2.40040E-001	6.43616E-001	3.57720E+000	9	...........
	38	0.52	6.49363E-001	3.99434E-004	0.00000E+000	2.59378E-004	2.40040E-001	6.49594E-001	3.57720E+000	9	...........
	39	0.533333	6.55361E-001	4.00329E-004	0.00000E+000	2.62360E-004	2.40040E-001	6.55558E-001	3.57720E+000	9	...........
	40	0.546667	6.61320E-001	4.01748E-004	0.00000E+000	2.65684E-004	2.40040E-001	6.61525E-001	3.57720E+000	9	...........
	41	0.56	6.67306E-001	4.01108E-004	0.00000E+000	2.67661E-004	2.40040E-001	6.67565E-001	3.57720E+000	9	...........
	42	0.573333	6.73244E-001	4.00908E-004	0.00000E+000	2.69909E-004	2.40040E-001	6.73480E-001	3.57720E+000	9	...........
	43	0.586667	6.79187E-001	4.01534E-004	0.00000E+000	2.72717E-004	2.40040E-001	6.79439E-001	3.57720E+000	9	...........
	44	0.6	6.85057E-001	4.00382E-004	0.00000E+000	2.74285E-004	2.40040E-001	6.85330E-001	3.57720E+000	9	...........
	45	0.613333	6.90891E-001	4.01061E-004	0.00000E+000	2.77089E-004	2.40040E-001	6.91144E-001	3.57720E+000	9	...........
	46	0.626667	6.96783E-001	4.00489E-004	0.00000E+000	2.79054E-004	2.40040E-001	6.97028E-001	3.57720E+000	9	...........
	47	0.64	7.02577E-001	4.00915E-004	0.00000E+000	2.81674E-004	2.40040E-001	7.02850E-001	3.57720E+000	9	...........
	48	0.653333	7.08405E-001	4.00359E-004	0.00000E+000	2.83616E-004	2.40040E-001	7.08653E-001	3.57720E+000	9	...........
	49	0.666667	7.14202E-001	4.01553E-004	0.00000E+000	2.86790E-004	2.40040E-001	7.14438E-001	3.57720E+000	9	...........
	50	0.68	7.19893E-001	4.00119E-004	0.00000E+000	2.88043E-004	2.40040E-001	7.20110E-001	3.57720E+000	9	...........
	51	0.693333	7.25556E-001	4.01117E-004	0.00000E+000	2.91033E-004	2.40040E-001	7.25786E-001	3.57720E+000	9	...........
	52	0.706667	7.31115E-001	4.00110E-004	0.00000E+000	2.92527E-004	2.40040E-001	7.31369E-001	3.57720E+000	9	...........
	53	0.72	7.36786E-001	4.01367E-004	0.00000E+000	2.95722E-004	2.40040E-001	7.37003E-001	3.57720E+000	9	...........
	54	0.733333	7.42443E-001	4.01321E-004	0.00000E+000	2.97958E-004	2.40040E-001	7.42699E-001	3.57720E+000	9	...........
	55	0.746667	7.48110E-001	4.02149E-004	0.00000E+000	3.00852E-004	2.40040E-001	7.48335E-001	3.57720E+000	9	...........
	56	0.76	7.53635E-001	4.01028E-004	0.00000E+000	3.02229E-004	2.40040E-001	7.53899E-001	3.57720E+000	9	...........
	57	0.773333	7.59170E-001	4.00166E-004	0.00000E+000	3.03794E-004	2.40040E-001	7.59429E-001	3.57720E+000	9	...........
	58	0.786667	7.64695E-001	4.01432E-004	0.00000E+000	3.06973E-004	2.40040E-001	7.64939E-001	3.57720E+000	9	...........
	59	0.8	7.70196E-001	4.01506E-004	0.00000E+000	3.09238E-004	2.40040E-001	7.70419E-001	3.57720E+000	9	...........
	60	0.813333	7.75579E-001	4.00920E-004	0.00000E+000	3.10945E-004	2.40040E-001	7.75810E-001	3.57720E+000	9	...........
	61	0.826667	7.81009E-001	4.01045E-004	0.00000E+000	3.13220E-004	2.40040E-001	7.81221E-001	3.57720E+000	9	...........
	62	0.84	7.86428E-001	4.00362E-004	0.00000E+000	3.14856E-004	2.40040E-001	7.86642E-001	3.57720E+000	9	...........
	63	0.853333	7.91848E-001	4.00818E-004	0.00000E+000	3.17387E-004	2.40040E-001	7.92087E-001	3.57720E+000	9	...........
	64	0.866667	7.97232E-001	4.00913E-004	0.00000E+000	3.19621E-004	2.40040E-001	7.97475E-001	3.57720E+000	9	...........
	65	0.88	8.02492E-001	4.00542E-004	0.00000E+000	3.21432E-004	2.40040E-001	8.02742E-001	3.57720E+000	9	...........
	66	0.893333	8.07786E-001	4.00114E-004	0.00000E+000	3.23206E-004	2.40040E-001	8.08047E-001	3.57720E+000	9	...........
	67	0.906667	8.13017E-001	3.99176E-004	0.00000E+000	3.24537E-004	2.40040E-001	8.13278E-001	3.57720E+000	9	...........
	68	0.92	8.18231E-001	4.00283E-004	0.00000E+000	3.27524E-004	2.40040E-001	8.18495E-001	3.57720E+000	9	...........
	69	0.933333	8.23352E-001	4.00792E-004	0.00000E+000	3.29993E-004	2.40040E-001	8.23631E-001	3.57720E+000	9	...........
	70	0.946667	8.28494E-001	3.99483E-004	0.00000E+000	3.30969E-004	2.40040E-001	8.28728E-001	3.57720E+000	9	...........
	71	0.96	8.33532E-001	4.01624E-004	0.00000E+000	3.34767E-004	2.40040E-001	8.33811E-001	3.57720E+000	9	...........
	72	0.97333	8.38535E-001	4.00492E-004	0.00000E+000	3.35826E-004	2.40040E-001	8.38817E-001	3.57720E+000	9	...........
	73	0.98667	8.43538E-001	4.00737E-004	0.00000E+000	3.38037E-004	2.40040E-001	8.43841E-001	3.57720E+000	9	...........
	74	1	8.48554E-001	3.99723E-004	0.00000E+000	3.39186E-004	2.40040E-001	8.48843E-001	3.57720E+000	9	...........
	75	1.01333	8.53418E-001	4.01523E-004	0.00000E+000	3.42667E-004	2.40040E-001	8.53687E-001	3.57720E+000	9	...........
	76	1.02667	8.58272E-001	4.01304E-004	0.00000E+000	3.44429E-004	2.40040E-001	8.58586E-001	3.57720E+000	9	...........
	77	1.04	8.63187E-001	4.00200E-004	0.00000E+000	3.45447E-004	2.40040E-001	8.63476E-001	3.57720E+000	9	...........
	78	1.05333	8.68053E-001	4.00306E-004	0.00000E+000	3.47487E-004	2.40040E-001	8.68354E-001	3.57720E+000	9	...........
	79	1.06667	8.72885E-001	4.01270E-004	0.00000E+000	3.50263E-004	2.40040E-001	8.73221E-001	3.57720E+000	9	...........
	80	1.08	8.77651E-001	3.99848E-004	0.00000E+000	3.50927E-004	2.40040E-001	8.77973E-001	3.57720E+000	9	...........
	81	1.09333	8.82394E-001	4.00255E-004	0.00000E+000	3.53183E-004	2.40040E-001	8.82719E-001	3.57720E+000	9	...........
	82	1.10667	8.87031E-001	4.01947E-004	0.00000E+000	3.56540E-004	2.40040E-001	8.87347E-001	3.57720E+000	9	...........
	83	1.12	8.91629E-001	4.01680E-004	0.00000E+000	3.58149E-004	2.40040E-001	8.91924E-001	3.57720E+000	9	...........
	84	1.13333	8.96234E-001	4.01296E-004	0.00000E+000	3.59655E-004	2.40040E-001	8.96575E-001	3.57720E+000	9	...........
	85	1.14667	9.00806E-001	3.99966E-004	0.00000E+000	3.60291E-004	2.40040E-001	9.01145E-001	3.57720E+000	9	...........
	86	1.16	9.05392E-001	4.00383E-004	0.00000E+000	3.62504E-004	2.40040E-001	9.05727E-001	3.57720E+000	9	...........
	87	1.17333	9.09908E-001	4.00164E-004	0.00000E+000	3.64112E-004	2.40040E-001	9.10227E-001	3.57720E+000	9	...........
	88	1.18667	9.14343E-001	4.01103E-004	0.00000E+000	3.66746E-004	2.40040E-001	9.14694E-001	3.57720E+000	9	...........
	89	1.2	9.18783E-001	4.01126E-004	0.00000E+000	3.68548E-004	2.40040E-001	9.19144E-001	3.57720E+000	9	...........
	90	1.21333	9.23223E-001	4.01858E-004	0.00000E+000	3.71004E-004	2.40040E-001	9.23512E-001	3.57720E+000	9	...........
	91	1.22667	9.27512E-001	4.00841E-004	0.00000E+000	3.71785E-004	2.40040E-001	9.27800E-001	3.57720E+000	9	...........
	92	1.24	9.31797E-001	4.01422E-004	0.00000E+000	3.74044E-004	2.40040E-001	9.32090E-001	3.57720E+000	9	...........
	93	1.25333	9.36067E-001	4.00118E-004	0.00000E+000	3.74537E-004	2.40040E-001	9.36393E-001	3.57720E+000	9	...........
	94	1.26667	9.40341E-001	4.00747E-004	0.00000E+000	3.76839E-004	2.40040E-001	9.40679E-001	3.57720E+000	9	...........
	95	1.28	9.44531E-001	4.00797E-004	0.00000E+000	3.78565E-004	2.40040E-001	9.44844E-001	3.57720E+000	9	...........
	96	1.29333	9.48673E-001	4.01672E-004	0.00000E+000	3.81056E-004	2.40040E-001	9.48990E-001	3.57720E+000	9	...........
	97	1.30667	9.52774E-001	4.01623E-004	0.00000E+000	3.82656E-004	2.40040E-001	9.53098E-001	3.57649E+000	9	...........
	98	1.32	9.56851E-001	4.00937E-004	0.00000E+000	3.83637E-004	2.40040E-001	9.57151E-001	3.57630E+000	9	...........
	99	1.33333	9.60905E-001	4.01205E-004	0.00000E+000	3.85520E-004	2.40040E-001	9.61241E-001	3.57630E+000	9	...........
	100	1.34667	9.64967E-001	4.02192E-004	0.00000E+000	3.88102E-004	2.40040E-001	9.65313E-001	3.57630E+000	9	...........
	101	1.36	9.68920E-001	4.00558E-004	0.00000E+000	3.88109E-004	2.40040E-001	9.69228E-001	3.57630E+000	9	...........
	102	1.37333	9.72808E-001	4.00636E-004	0.00000E+000	3.89742E-004	2.40040E-001	9.73120E-001	3.57630E+000	9	...........
	103	1.38667	9.76720E-001	4.00743E-004	0.00000E+000	3.91414E-004	2.40040E-001	9.77005E-001	3.57630E+000	9	...........
	104	1.4	9.80548E-001	4.00180E-004	0.00000E+000	3.92396E-004	2.40040E-001	9.80836E-001	3.57630E+000	9	...........
	105	1.41333	9.84304E-001	4.01258E-004	0.00000E+000	3.94959E-004	2.40040E-001	9.84629E-001	3.57630E+000	9	...........
	106	1.42667	9.88058E-001	4.01710E-004	0.00000E+000	3.96912E-004	2.40040E-001	9.88412E-001	3.57630E+000	9	...........
	107	1.44	9.91765E-001	4.00210E-004	0.00000E+000	3.96915E-004	2.40040E-001	9.92086E-001	3.57630E+000	9	...........
	108	1.45333	9.95527E-001	4.00976E-004	0.00000E+000	3.99183E-004	2.40040E-001	9.95816E-001	3.57630E+000	9	...........
	109	1.465	9.98943E-001	4.00415E-004	0.00000E+000	3.99992E-004	2.40040E-001	9.99253E-001	3.57630E+000	9	...........
STARTTIMEOFFSET	QUANT	2351.629	Start Time Offset (s)
