EXPLAIN
TAG	PWR800_CHARGE
TITLE	LABEL	PWR Cyclic Charge Discharge (Cell) - Charge Step	Test &Identifier
DATE	LABEL	12-7-2017	Date
TIME	LABEL	15:14:41	Time
NOTES	NOTES	3	&Notes...
	supercap test cell
	0.4mg
	6M KOH
PSTAT	PSTAT	IFC5000-01520	Potentiostat
CAPACITY	QUANT	1.00000E-003	Capacity (A-hr)
CELLTYPE	SELECTOR	1	&Cell Type
WORKINGCONNECTION	SELECTOR	0	&Working Lead
MAXCHARGETIME	VARIABLEANDUNITS	1.00000E+002	s	1.00000E+002	second(s)	Max &Charge Time
CHARGECURRENT	QUANT	4.00000E-004	&Charge Current (A) 
VOLTAGEFINISH	TWOPARAM	F	1.00000E-003	3.60000E+003	&Voltage Finish	 I (A) < 	Max Time(s)
SAMPLETIME	QUANT	1.00000E-002	Sa&mple Period (s)
CHARGESTOPAT1	MULTIPARAM	4	1.00000E+000	Charge Stop At &1	Voltage > Limit	V
CHARGESTOPAT2	MULTIPARAM	0	0.00000E+000	Charge Stop At &2	None	N/A
AESBHCSELECTOR	TOGGLE	F	Save Both Half Cells
IRCOMP	TOGGLE	F	IR &Measure
EOC	QUANT	0	Open Circuit (V)
SEQUENCER	TOGGLE	TRUE	Run as Sequence
PSTATMODEL	IQUANT	53	Pstat Model
PSTATSECTION	LABEL	IFC5000-01520	Pstat Section
PSTATSERIALNO	LABEL	01520	Pstat Serial Number
CTRLMODE	IQUANT	0	Control Mode
ELECTROMETER	IQUANT	1	RE=0 or CS=1
IESTAB	IQUANT	0	I/E Stability
CASPEED	IQUANT	4	Control Amp Speed
CONVENTION	IQUANT	1	Current Convention
ICHRANGE	IQUANT	2	Ich Range
ICHRANGEMODE	TOGGLE	T	Ich Auto Range
ICHOFFSETENABLE	TOGGLE	F	Ich Offset Enable
ICHOFFSET	QUANT	0	Ich Offset (V)
ICHFILTER	IQUANT	1	Ich Filter
VCHRANGE	IQUANT	2	Vch Range
VCHRANGEMODE	TOGGLE	T	Vch Auto Range
VCHOFFSETENABLE	TOGGLE	F	Vch Offset Enable
VCHOFFSET	QUANT	0	Vch Offset (V)
VCHFILTER	IQUANT	1	Vch Filter
IERANGELOWERLIMIT	IQUANT	9	I/E Range Lower Limit
IERANGEMODE	TOGGLE	F	I/E AutoRange
IERANGE	IQUANT	9	I/E Range
ACHSELECT	IQUANT	1	Ach Select
ACHRANGE	IQUANT	2	Ach Range
ACHOFFSETENABLE	TOGGLE	F	Ach Offset Enable
ACHOFFSET	QUANT	0	Ach Offset (V)
ACHFILTER	IQUANT	1	Ach Filter
CABLEID	IQUANT	14	Cable ID
DCCALDATE	LABEL	5-7-2017	DC Calibration Date
ACCALDATE	LABEL	12/3/2015	AC Calibration Date
FRAMEWORKVERSION	QUANT	7.01	Framework Version
INSTRUMENTVERSION	LABEL	4.00	Instrument Version
CURVE	TABLE	108
	Pt	T	Vf	Im	Vu	Pwr	Sig	Ach	Temp	IERange	Over
	#	s	V	A	V	W	V	V	deg C	#	bits
	0	0.013333	3.85953E-001	4.00816E-004	0.00000E+000	1.54696E-004	2.40040E-001	3.86055E-001	3.57680E+000	9	...........
	1	0.026667	3.98740E-001	4.01657E-004	0.00000E+000	1.60157E-004	2.40040E-001	3.98822E-001	3.57680E+000	9	...........
	2	0.04	4.09607E-001	4.00698E-004	0.00000E+000	1.64129E-004	2.40040E-001	4.09694E-001	3.57680E+000	9	...........
	3	0.053333	4.19450E-001	4.01239E-004	0.00000E+000	1.68300E-004	2.40040E-001	4.19546E-001	3.57680E+000	9	...........
	4	0.066667	4.28591E-001	4.00971E-004	0.00000E+000	1.71853E-004	2.40040E-001	4.28681E-001	3.57680E+000	9	...........
	5	0.08	4.37253E-001	4.01230E-004	0.00000E+000	1.75439E-004	2.40040E-001	4.37340E-001	3.57680E+000	9	...........
	6	0.093333	4.45557E-001	4.02144E-004	0.00000E+000	1.79178E-004	2.40040E-001	4.45652E-001	3.57680E+000	9	...........
	7	0.106667	4.53613E-001	4.01442E-004	0.00000E+000	1.82099E-004	2.40040E-001	4.53703E-001	3.57680E+000	9	...........
	8	0.12	4.61425E-001	4.00329E-004	0.00000E+000	1.84722E-004	2.40040E-001	4.61523E-001	3.57680E+000	9	...........
	9	0.133333	4.69088E-001	4.00878E-004	0.00000E+000	1.88047E-004	2.40040E-001	4.69193E-001	3.57680E+000	9	...........
	10	0.146667	4.76567E-001	4.02380E-004	0.00000E+000	1.91761E-004	2.40040E-001	4.76666E-001	3.57680E+000	9	...........
	11	0.16	4.83883E-001	4.00671E-004	0.00000E+000	1.93878E-004	2.40040E-001	4.83980E-001	3.57680E+000	9	...........
	12	0.173333	4.91094E-001	4.01538E-004	0.00000E+000	1.97193E-004	2.40040E-001	4.91200E-001	3.57680E+000	9	...........
	13	0.186667	4.98296E-001	4.00728E-004	0.00000E+000	1.99681E-004	2.40040E-001	4.98398E-001	3.57680E+000	9	...........
	14	0.2	5.05311E-001	4.00063E-004	0.00000E+000	2.02156E-004	2.40040E-001	5.05427E-001	3.57680E+000	9	...........
	15	0.213333	5.12301E-001	4.01017E-004	0.00000E+000	2.05441E-004	2.40040E-001	5.12407E-001	3.57680E+000	9	...........
	16	0.226667	5.19179E-001	4.00088E-004	0.00000E+000	2.07717E-004	2.40040E-001	5.19286E-001	3.57680E+000	9	...........
	17	0.24	5.26069E-001	4.01374E-004	0.00000E+000	2.11150E-004	2.40040E-001	5.26178E-001	3.57680E+000	9	...........
	18	0.253333	5.32823E-001	4.01722E-004	0.00000E+000	2.14047E-004	2.40040E-001	5.32969E-001	3.57680E+000	9	...........
	19	0.266667	5.39423E-001	4.00251E-004	0.00000E+000	2.15905E-004	2.40040E-001	5.39677E-001	3.57680E+000	9	...........
	20	0.28	5.46037E-001	4.01907E-004	0.00000E+000	2.19456E-004	2.40040E-001	5.46289E-001	3.57680E+000	9	...........
	21	0.293333	5.52637E-001	4.01540E-004	0.00000E+000	2.21906E-004	2.40040E-001	5.52899E-001	3.57680E+000	9	...........
	22	0.306667	5.59237E-001	4.00876E-004	0.00000E+000	2.24185E-004	2.40040E-001	5.59511E-001	3.57680E+000	9	...........
	23	0.32	5.65803E-001	4.00856E-004	0.00000E+000	2.26806E-004	2.40040E-001	5.66059E-001	3.57680E+000	9	...........
	24	0.333333	5.72228E-001	4.00718E-004	0.00000E+000	2.29302E-004	2.40040E-001	5.72485E-001	3.57680E+000	9	...........
	25	0.346667	5.78665E-001	4.01201E-004	0.00000E+000	2.32161E-004	2.40040E-001	5.78917E-001	3.57680E+000	9	...........
	26	0.36	5.85074E-001	4.01201E-004	0.00000E+000	2.34732E-004	2.40040E-001	5.85311E-001	3.57680E+000	9	...........
	27	0.373333	5.91499E-001	4.00472E-004	0.00000E+000	2.36879E-004	2.40040E-001	5.91693E-001	3.57680E+000	9	...........
	28	0.386667	5.97862E-001	4.00904E-004	0.00000E+000	2.39686E-004	2.40040E-001	5.98067E-001	3.57680E+000	9	...........
	29	0.4	6.04173E-001	4.00914E-004	0.00000E+000	2.42221E-004	2.40040E-001	6.04413E-001	3.57680E+000	9	...........
	30	0.413333	6.10437E-001	4.00285E-004	0.00000E+000	2.44349E-004	2.40040E-001	6.10711E-001	3.57680E+000	9	...........
	31	0.426667	6.16801E-001	4.01557E-004	0.00000E+000	2.47680E-004	2.40040E-001	6.17013E-001	3.57680E+000	9	...........
	32	0.44	6.23013E-001	4.00371E-004	0.00000E+000	2.49436E-004	2.40040E-001	6.23212E-001	3.57680E+000	9	...........
	33	0.453333	6.29241E-001	4.00979E-004	0.00000E+000	2.52313E-004	2.40040E-001	6.29437E-001	3.57680E+000	9	...........
	34	0.466667	6.35426E-001	4.01124E-004	0.00000E+000	2.54885E-004	2.40040E-001	6.35627E-001	3.57680E+000	9	...........
	35	0.48	6.41612E-001	4.00700E-004	0.00000E+000	2.57094E-004	2.40040E-001	6.41828E-001	3.57680E+000	9	...........
	36	0.493333	6.47705E-001	4.01273E-004	0.00000E+000	2.59906E-004	2.40040E-001	6.47934E-001	3.57680E+000	9	...........
	37	0.506667	6.53819E-001	3.99774E-004	0.00000E+000	2.61380E-004	2.40040E-001	6.54037E-001	3.57680E+000	9	...........
	38	0.52	6.59935E-001	4.00727E-004	0.00000E+000	2.64454E-004	2.40040E-001	6.60153E-001	3.57680E+000	9	...........
	39	0.533333	6.65994E-001	4.00373E-004	0.00000E+000	2.66646E-004	2.40040E-001	6.66227E-001	3.57680E+000	9	...........
	40	0.546667	6.72005E-001	4.01137E-004	0.00000E+000	2.69566E-004	2.40040E-001	6.72230E-001	3.57680E+000	9	...........
	41	0.56	6.78005E-001	4.01916E-004	0.00000E+000	2.72501E-004	2.40040E-001	6.78245E-001	3.57680E+000	9	...........
	42	0.573333	6.83958E-001	4.01634E-004	0.00000E+000	2.74701E-004	2.40040E-001	6.84200E-001	3.57680E+000	9	...........
	43	0.586667	6.89854E-001	4.00272E-004	0.00000E+000	2.76129E-004	2.40040E-001	6.90105E-001	3.57680E+000	9	...........
	44	0.6	6.95834E-001	4.00664E-004	0.00000E+000	2.78795E-004	2.40040E-001	6.96094E-001	3.57680E+000	9	...........
	45	0.613333	7.01773E-001	4.01580E-004	0.00000E+000	2.81818E-004	2.40040E-001	7.02019E-001	3.57680E+000	9	...........
	46	0.626667	7.07652E-001	4.00646E-004	0.00000E+000	2.83518E-004	2.40040E-001	7.07930E-001	3.57680E+000	9	...........
	47	0.64	7.13529E-001	4.02854E-004	0.00000E+000	2.87448E-004	2.40040E-001	7.13773E-001	3.57680E+000	9	...........
	48	0.653333	7.19420E-001	4.00304E-004	0.00000E+000	2.87987E-004	2.40040E-001	7.19646E-001	3.57680E+000	9	...........
	49	0.666667	7.25276E-001	4.01472E-004	0.00000E+000	2.91178E-004	2.40040E-001	7.25500E-001	3.57680E+000	9	...........
	50	0.68	7.31034E-001	4.01030E-004	0.00000E+000	2.93167E-004	2.40040E-001	7.31283E-001	3.57680E+000	9	...........
	51	0.693333	7.36773E-001	4.01484E-004	0.00000E+000	2.95802E-004	2.40040E-001	7.37020E-001	3.57680E+000	9	...........
	52	0.706667	7.42510E-001	3.99899E-004	0.00000E+000	2.96929E-004	2.40040E-001	7.42755E-001	3.57680E+000	9	...........
	53	0.72	7.48207E-001	3.99526E-004	0.00000E+000	2.98928E-004	2.40040E-001	7.48469E-001	3.57680E+000	9	...........
	54	0.733333	7.53849E-001	4.02935E-004	0.00000E+000	3.03752E-004	2.40040E-001	7.54079E-001	3.57680E+000	9	...........
	55	0.746667	7.59480E-001	4.01240E-004	0.00000E+000	3.04734E-004	2.40040E-001	7.59687E-001	3.57680E+000	9	...........
	56	0.76	7.65095E-001	4.00797E-004	0.00000E+000	3.06648E-004	2.40040E-001	7.65349E-001	3.57743E+000	9	...........
	57	0.773333	7.70689E-001	4.00056E-004	0.00000E+000	3.08319E-004	2.40040E-001	7.70967E-001	3.57780E+000	9	...........
	58	0.786667	7.76171E-001	4.00151E-004	0.00000E+000	3.10586E-004	2.40040E-001	7.76425E-001	3.57780E+000	9	...........
	59	0.8	7.81695E-001	4.01020E-004	0.00000E+000	3.13476E-004	2.40040E-001	7.81957E-001	3.57780E+000	9	...........
	60	0.813333	7.87184E-001	4.01175E-004	0.00000E+000	3.15799E-004	2.40040E-001	7.87449E-001	3.57780E+000	9	...........
	61	0.826667	7.92657E-001	4.01008E-004	0.00000E+000	3.17861E-004	2.40040E-001	7.92899E-001	3.57780E+000	9	...........
	62	0.84	7.98019E-001	4.01686E-004	0.00000E+000	3.20553E-004	2.40040E-001	7.98248E-001	3.57780E+000	9	...........
	63	0.853333	8.03375E-001	4.02097E-004	0.00000E+000	3.23035E-004	2.40040E-001	8.03632E-001	3.57780E+000	9	...........
	64	0.866667	8.08778E-001	4.01312E-004	0.00000E+000	3.24572E-004	2.40040E-001	8.09021E-001	3.57780E+000	9	...........
	65	0.88	8.14070E-001	4.00727E-004	0.00000E+000	3.26220E-004	2.40040E-001	8.14342E-001	3.57780E+000	9	...........
	66	0.893333	8.19347E-001	4.01482E-004	0.00000E+000	3.28953E-004	2.40040E-001	8.19621E-001	3.57780E+000	9	...........
	67	0.906667	8.24565E-001	4.01282E-004	0.00000E+000	3.30883E-004	2.40040E-001	8.24841E-001	3.57780E+000	9	...........
	68	0.92	8.29732E-001	4.01531E-004	0.00000E+000	3.33163E-004	2.40040E-001	8.30005E-001	3.57780E+000	9	...........
	69	0.933333	8.34884E-001	4.00730E-004	0.00000E+000	3.34563E-004	2.40040E-001	8.35162E-001	3.57780E+000	9	...........
	70	0.946667	8.39977E-001	4.00155E-004	0.00000E+000	3.36121E-004	2.40040E-001	8.40267E-001	3.57780E+000	9	...........
	71	0.96	8.45054E-001	4.01422E-004	0.00000E+000	3.39223E-004	2.40040E-001	8.45343E-001	3.57780E+000	9	...........
	72	0.97333	8.50076E-001	4.01026E-004	0.00000E+000	3.40903E-004	2.40040E-001	8.50379E-001	3.57780E+000	9	...........
	73	0.98667	8.55060E-001	4.00386E-004	0.00000E+000	3.42354E-004	2.40040E-001	8.55371E-001	3.57780E+000	9	...........
	74	1	8.60016E-001	3.99891E-004	0.00000E+000	3.43912E-004	2.40040E-001	8.60328E-001	3.57780E+000	9	...........
	75	1.01333	8.64912E-001	4.00130E-004	0.00000E+000	3.46078E-004	2.40040E-001	8.65236E-001	3.57780E+000	9	...........
	76	1.02667	8.69863E-001	4.00913E-004	0.00000E+000	3.48739E-004	2.40040E-001	8.70206E-001	3.57780E+000	9	...........
	77	1.04	8.74717E-001	4.00530E-004	0.00000E+000	3.50351E-004	2.40040E-001	8.75034E-001	3.57780E+000	9	...........
	78	1.05333	8.79503E-001	4.00358E-004	0.00000E+000	3.52116E-004	2.40040E-001	8.79817E-001	3.57780E+000	9	...........
	79	1.06667	8.84243E-001	4.01342E-004	0.00000E+000	3.54884E-004	2.40040E-001	8.84569E-001	3.57780E+000	9	...........
	80	1.08	8.88968E-001	4.00617E-004	0.00000E+000	3.56135E-004	2.40040E-001	8.89302E-001	3.57780E+000	9	...........
	81	1.09333	8.93708E-001	4.00761E-004	0.00000E+000	3.58163E-004	2.40040E-001	8.94035E-001	3.57780E+000	9	...........
	82	1.10667	8.98397E-001	3.99976E-004	0.00000E+000	3.59337E-004	2.40040E-001	8.98718E-001	3.57780E+000	9	...........
	83	1.12	9.03009E-001	4.01978E-004	0.00000E+000	3.62989E-004	2.40040E-001	9.03350E-001	3.57780E+000	9	...........
	84	1.13333	9.07599E-001	4.01680E-004	0.00000E+000	3.64564E-004	2.40040E-001	9.07924E-001	3.57780E+000	9	...........
	85	1.14667	9.12110E-001	4.02394E-004	0.00000E+000	3.67028E-004	2.40040E-001	9.12427E-001	3.57780E+000	9	...........
	86	1.16	9.16580E-001	3.99769E-004	0.00000E+000	3.66420E-004	2.40040E-001	9.16898E-001	3.57780E+000	9	...........
	87	1.17333	9.21038E-001	4.01741E-004	0.00000E+000	3.70019E-004	2.40040E-001	9.21335E-001	3.57780E+000	9	...........
	88	1.18667	9.25473E-001	4.01171E-004	0.00000E+000	3.71273E-004	2.40040E-001	9.25755E-001	3.57780E+000	9	...........
	89	1.2	9.29854E-001	4.01817E-004	0.00000E+000	3.73631E-004	2.40040E-001	9.30137E-001	3.57780E+000	9	...........
	90	1.21333	9.34210E-001	4.01020E-004	0.00000E+000	3.74637E-004	2.40040E-001	9.34512E-001	3.57780E+000	9	...........
	91	1.22667	9.38563E-001	4.01435E-004	0.00000E+000	3.76772E-004	2.40040E-001	9.38868E-001	3.57780E+000	9	...........
	92	1.24	9.42816E-001	4.01402E-004	0.00000E+000	3.78449E-004	2.40040E-001	9.43114E-001	3.57780E+000	9	...........
	93	1.25333	9.46959E-001	4.00452E-004	0.00000E+000	3.79212E-004	2.40040E-001	9.47290E-001	3.57780E+000	9	...........
	94	1.26667	9.51077E-001	4.01664E-004	0.00000E+000	3.82013E-004	2.40040E-001	9.51380E-001	3.57780E+000	9	...........
	95	1.28	9.55192E-001	4.00753E-004	0.00000E+000	3.82796E-004	2.40040E-001	9.55500E-001	3.57780E+000	9	...........
	96	1.29333	9.59271E-001	4.00941E-004	0.00000E+000	3.84611E-004	2.40040E-001	9.59605E-001	3.57780E+000	9	...........
	97	1.30667	9.63324E-001	4.00721E-004	0.00000E+000	3.86024E-004	2.40040E-001	9.63675E-001	3.57780E+000	9	...........
	98	1.32	9.67336E-001	4.01688E-004	0.00000E+000	3.88567E-004	2.40040E-001	9.67668E-001	3.57780E+000	9	...........
	99	1.33333	9.71307E-001	4.00674E-004	0.00000E+000	3.89177E-004	2.40040E-001	9.71658E-001	3.57780E+000	9	...........
	100	1.34667	9.75233E-001	4.01130E-004	0.00000E+000	3.91196E-004	2.40040E-001	9.75571E-001	3.57780E+000	9	...........
	101	1.36	9.79106E-001	4.01366E-004	0.00000E+000	3.92980E-004	2.40040E-001	9.79440E-001	3.57780E+000	9	...........
	102	1.37333	9.82970E-001	4.01157E-004	0.00000E+000	3.94325E-004	2.40040E-001	9.83307E-001	3.57780E+000	9	...........
	103	1.38667	9.86779E-001	4.01954E-004	0.00000E+000	3.96639E-004	2.40040E-001	9.87126E-001	3.57780E+000	9	...........
	104	1.4	9.90565E-001	4.00446E-004	0.00000E+000	3.96668E-004	2.40040E-001	9.90911E-001	3.57780E+000	9	...........
	105	1.41333	9.94284E-001	4.00913E-004	0.00000E+000	3.98621E-004	2.40040E-001	9.94622E-001	3.57780E+000	9	...........
	106	1.42667	9.97974E-001	4.01098E-004	0.00000E+000	4.00286E-004	2.40040E-001	9.98315E-001	3.57780E+000	9	...........
	107	1.42833	1.00005E+000	3.99452E-004	0.00000E+000	3.99470E-004	2.40040E-001	1.00039E+000	3.57780E+000	9	...........
STARTTIMEOFFSET	QUANT	2658.71	Start Time Offset (s)
