EXPLAIN
TAG	PWR800_CHARGE
TITLE	LABEL	PWR Cyclic Charge Discharge (Cell) - Charge Step	Test &Identifier
DATE	LABEL	12-7-2017	Date
TIME	LABEL	15:13:26	Time
NOTES	NOTES	3	&Notes...
	supercap test cell
	0.4mg
	6M KOH
PSTAT	PSTAT	IFC5000-01520	Potentiostat
CAPACITY	QUANT	1.00000E-003	Capacity (A-hr)
CELLTYPE	SELECTOR	1	&Cell Type
WORKINGCONNECTION	SELECTOR	0	&Working Lead
MAXCHARGETIME	VARIABLEANDUNITS	1.00000E+002	s	1.00000E+002	second(s)	Max &Charge Time
CHARGECURRENT	QUANT	4.00000E-004	&Charge Current (A) 
VOLTAGEFINISH	TWOPARAM	F	1.00000E-003	3.60000E+003	&Voltage Finish	 I (A) < 	Max Time(s)
SAMPLETIME	QUANT	1.00000E-002	Sa&mple Period (s)
CHARGESTOPAT1	MULTIPARAM	4	1.00000E+000	Charge Stop At &1	Voltage > Limit	V
CHARGESTOPAT2	MULTIPARAM	0	0.00000E+000	Charge Stop At &2	None	N/A
AESBHCSELECTOR	TOGGLE	F	Save Both Half Cells
IRCOMP	TOGGLE	F	IR &Measure
EOC	QUANT	0	Open Circuit (V)
SEQUENCER	TOGGLE	TRUE	Run as Sequence
PSTATMODEL	IQUANT	53	Pstat Model
PSTATSECTION	LABEL	IFC5000-01520	Pstat Section
PSTATSERIALNO	LABEL	01520	Pstat Serial Number
CTRLMODE	IQUANT	0	Control Mode
ELECTROMETER	IQUANT	1	RE=0 or CS=1
IESTAB	IQUANT	0	I/E Stability
CASPEED	IQUANT	4	Control Amp Speed
CONVENTION	IQUANT	1	Current Convention
ICHRANGE	IQUANT	2	Ich Range
ICHRANGEMODE	TOGGLE	T	Ich Auto Range
ICHOFFSETENABLE	TOGGLE	F	Ich Offset Enable
ICHOFFSET	QUANT	0	Ich Offset (V)
ICHFILTER	IQUANT	1	Ich Filter
VCHRANGE	IQUANT	2	Vch Range
VCHRANGEMODE	TOGGLE	T	Vch Auto Range
VCHOFFSETENABLE	TOGGLE	F	Vch Offset Enable
VCHOFFSET	QUANT	0	Vch Offset (V)
VCHFILTER	IQUANT	1	Vch Filter
IERANGELOWERLIMIT	IQUANT	9	I/E Range Lower Limit
IERANGEMODE	TOGGLE	F	I/E AutoRange
IERANGE	IQUANT	9	I/E Range
ACHSELECT	IQUANT	1	Ach Select
ACHRANGE	IQUANT	2	Ach Range
ACHOFFSETENABLE	TOGGLE	F	Ach Offset Enable
ACHOFFSET	QUANT	0	Ach Offset (V)
ACHFILTER	IQUANT	1	Ach Filter
CABLEID	IQUANT	14	Cable ID
DCCALDATE	LABEL	5-7-2017	DC Calibration Date
ACCALDATE	LABEL	12/3/2015	AC Calibration Date
FRAMEWORKVERSION	QUANT	7.01	Framework Version
INSTRUMENTVERSION	LABEL	4.00	Instrument Version
CURVE	TABLE	108
	Pt	T	Vf	Im	Vu	Pwr	Sig	Ach	Temp	IERange	Over
	#	s	V	A	V	W	V	V	deg C	#	bits
	0	0.013333	3.85544E-001	4.01179E-004	0.00000E+000	1.54672E-004	2.40040E-001	3.85636E-001	3.57700E+000	9	...........
	1	0.026667	3.98270E-001	4.00964E-004	0.00000E+000	1.59692E-004	2.40040E-001	3.98347E-001	3.57700E+000	9	...........
	2	0.04	4.09119E-001	4.00913E-004	0.00000E+000	1.64021E-004	2.40040E-001	4.09199E-001	3.57700E+000	9	...........
	3	0.053333	4.18900E-001	4.00307E-004	0.00000E+000	1.67689E-004	2.40040E-001	4.18984E-001	3.57700E+000	9	...........
	4	0.066667	4.28058E-001	4.01635E-004	0.00000E+000	1.71923E-004	2.40040E-001	4.28146E-001	3.57700E+000	9	...........
	5	0.08	4.36687E-001	4.01485E-004	0.00000E+000	1.75323E-004	2.40040E-001	4.36776E-001	3.57700E+000	9	...........
	6	0.093333	4.44945E-001	4.01428E-004	0.00000E+000	1.78614E-004	2.40040E-001	4.45035E-001	3.57700E+000	9	...........
	7	0.106667	4.52969E-001	3.99847E-004	0.00000E+000	1.81118E-004	2.40040E-001	4.53067E-001	3.57700E+000	9	...........
	8	0.12	4.60729E-001	4.02167E-004	0.00000E+000	1.85290E-004	2.40040E-001	4.60823E-001	3.57700E+000	9	...........
	9	0.133333	4.68333E-001	4.00698E-004	0.00000E+000	1.87660E-004	2.40040E-001	4.68432E-001	3.57700E+000	9	...........
	10	0.146667	4.75817E-001	4.00794E-004	0.00000E+000	1.90705E-004	2.40040E-001	4.75910E-001	3.57700E+000	9	...........
	11	0.16	4.83170E-001	4.01523E-004	0.00000E+000	1.94004E-004	2.40040E-001	4.83269E-001	3.57700E+000	9	...........
	12	0.173333	4.90411E-001	4.01476E-004	0.00000E+000	1.96888E-004	2.40040E-001	4.90510E-001	3.57700E+000	9	...........
	13	0.186667	4.97545E-001	4.01360E-004	0.00000E+000	1.99694E-004	2.40040E-001	4.97649E-001	3.57700E+000	9	...........
	14	0.2	5.04633E-001	4.01081E-004	0.00000E+000	2.02399E-004	2.40040E-001	5.04739E-001	3.57700E+000	9	...........
	15	0.213333	5.11569E-001	4.00892E-004	0.00000E+000	2.05084E-004	2.40040E-001	5.11677E-001	3.57700E+000	9	...........
	16	0.226667	5.18407E-001	4.00637E-004	0.00000E+000	2.07693E-004	2.40040E-001	5.18514E-001	3.57700E+000	9	...........
	17	0.24	5.25190E-001	4.00695E-004	0.00000E+000	2.10441E-004	2.40040E-001	5.25296E-001	3.57700E+000	9	...........
	18	0.253333	5.31846E-001	4.02769E-004	0.00000E+000	2.14211E-004	2.40040E-001	5.31989E-001	3.57700E+000	9	...........
	19	0.266667	5.38387E-001	3.99980E-004	0.00000E+000	2.15344E-004	2.40040E-001	5.38600E-001	3.57700E+000	9	...........
	20	0.28	5.45023E-001	4.00701E-004	0.00000E+000	2.18391E-004	2.40040E-001	5.45246E-001	3.57700E+000	9	...........
	21	0.293333	5.51575E-001	4.01200E-004	0.00000E+000	2.21292E-004	2.40040E-001	5.51785E-001	3.57700E+000	9	...........
	22	0.306667	5.58111E-001	4.00354E-004	0.00000E+000	2.23442E-004	2.40040E-001	5.58316E-001	3.57700E+000	9	...........
	23	0.32	5.64664E-001	3.99238E-004	0.00000E+000	2.25436E-004	2.40040E-001	5.64870E-001	3.57700E+000	9	...........
	24	0.333333	5.71166E-001	4.00864E-004	0.00000E+000	2.28960E-004	2.40040E-001	5.71360E-001	3.57700E+000	9	...........
	25	0.346667	5.77581E-001	4.01296E-004	0.00000E+000	2.31781E-004	2.40040E-001	5.77801E-001	3.57700E+000	9	...........
	26	0.36	5.83995E-001	4.00285E-004	0.00000E+000	2.33765E-004	2.40040E-001	5.84211E-001	3.57700E+000	9	...........
	27	0.373333	5.90377E-001	4.00693E-004	0.00000E+000	2.36560E-004	2.40040E-001	5.90592E-001	3.57700E+000	9	...........
	28	0.386667	5.96698E-001	4.00578E-004	0.00000E+000	2.39024E-004	2.40040E-001	5.96912E-001	3.57700E+000	9	...........
	29	0.4	6.02964E-001	4.00386E-004	0.00000E+000	2.41418E-004	2.40040E-001	6.03188E-001	3.57700E+000	9	...........
	30	0.413333	6.09178E-001	4.01396E-004	0.00000E+000	2.44522E-004	2.40040E-001	6.09417E-001	3.57700E+000	9	...........
	31	0.426667	6.15466E-001	3.99628E-004	0.00000E+000	2.45958E-004	2.40040E-001	6.15676E-001	3.57700E+000	9	...........
	32	0.44	6.21746E-001	3.99650E-004	0.00000E+000	2.48481E-004	2.40040E-001	6.21929E-001	3.57700E+000	9	...........
	33	0.453333	6.27969E-001	4.01737E-004	0.00000E+000	2.52278E-004	2.40040E-001	6.28163E-001	3.57700E+000	9	...........
	34	0.466667	6.34115E-001	4.01018E-004	0.00000E+000	2.54291E-004	2.40040E-001	6.34333E-001	3.57700E+000	9	...........
	35	0.48	6.40281E-001	4.01725E-004	0.00000E+000	2.57217E-004	2.40040E-001	6.40523E-001	3.57700E+000	9	...........
	36	0.493333	6.46425E-001	4.01913E-004	0.00000E+000	2.59807E-004	2.40040E-001	6.46651E-001	3.57700E+000	9	...........
	37	0.506667	6.52485E-001	4.01333E-004	0.00000E+000	2.61864E-004	2.40040E-001	6.52729E-001	3.57700E+000	9	...........
	38	0.52	6.58519E-001	4.01138E-004	0.00000E+000	2.64157E-004	2.40040E-001	6.58768E-001	3.57700E+000	9	...........
	39	0.533333	6.64555E-001	4.00058E-004	0.00000E+000	2.65861E-004	2.40040E-001	6.64802E-001	3.57700E+000	9	...........
	40	0.546667	6.70632E-001	4.00706E-004	0.00000E+000	2.68726E-004	2.40040E-001	6.70868E-001	3.57711E+000	9	...........
	41	0.56	6.76573E-001	4.01486E-004	0.00000E+000	2.71634E-004	2.40040E-001	6.76833E-001	3.57730E+000	9	...........
	42	0.573333	6.82532E-001	4.01224E-004	0.00000E+000	2.73849E-004	2.40040E-001	6.82807E-001	3.57730E+000	9	...........
	43	0.586667	6.88466E-001	4.01176E-004	0.00000E+000	2.76196E-004	2.40040E-001	6.88729E-001	3.57730E+000	9	...........
	44	0.6	6.94411E-001	4.01324E-004	0.00000E+000	2.78684E-004	2.40040E-001	6.94658E-001	3.57730E+000	9	...........
	45	0.613333	7.00315E-001	4.01225E-004	0.00000E+000	2.80984E-004	2.40040E-001	7.00563E-001	3.57730E+000	9	...........
	46	0.626667	7.06205E-001	4.01423E-004	0.00000E+000	2.83487E-004	2.40040E-001	7.06473E-001	3.57730E+000	9	...........
	47	0.64	7.12087E-001	4.00300E-004	0.00000E+000	2.85049E-004	2.40040E-001	7.12355E-001	3.57730E+000	9	...........
	48	0.653333	7.17908E-001	4.01100E-004	0.00000E+000	2.87953E-004	2.40040E-001	7.18171E-001	3.57730E+000	9	...........
	49	0.666667	7.23726E-001	4.01924E-004	0.00000E+000	2.90883E-004	2.40040E-001	7.23944E-001	3.57730E+000	9	...........
	50	0.68	7.29422E-001	4.00805E-004	0.00000E+000	2.92356E-004	2.40040E-001	7.29690E-001	3.57730E+000	9	...........
	51	0.693333	7.35144E-001	4.02220E-004	0.00000E+000	2.95690E-004	2.40040E-001	7.35406E-001	3.57730E+000	9	...........
	52	0.706667	7.40882E-001	4.00723E-004	0.00000E+000	2.96888E-004	2.40040E-001	7.41153E-001	3.57730E+000	9	...........
	53	0.72	7.46512E-001	4.01941E-004	0.00000E+000	3.00054E-004	2.40040E-001	7.46771E-001	3.57730E+000	9	...........
	54	0.733333	7.52148E-001	4.00545E-004	0.00000E+000	3.01269E-004	2.40040E-001	7.52391E-001	3.57730E+000	9	...........
	55	0.746667	7.57776E-001	3.99978E-004	0.00000E+000	3.03094E-004	2.40040E-001	7.58012E-001	3.57730E+000	9	...........
	56	0.76	7.63364E-001	4.00916E-004	0.00000E+000	3.06045E-004	2.40040E-001	7.63610E-001	3.57730E+000	9	...........
	57	0.773333	7.68964E-001	4.00338E-004	0.00000E+000	3.07845E-004	2.40040E-001	7.69230E-001	3.57730E+000	9	...........
	58	0.786667	7.74484E-001	4.00806E-004	0.00000E+000	3.10418E-004	2.40040E-001	7.74734E-001	3.57730E+000	9	...........
	59	0.8	7.79912E-001	4.00996E-004	0.00000E+000	3.12742E-004	2.40040E-001	7.80186E-001	3.57730E+000	9	...........
	60	0.813333	7.85418E-001	4.00849E-004	0.00000E+000	3.14834E-004	2.40040E-001	7.85657E-001	3.57730E+000	9	...........
	61	0.826667	7.90908E-001	4.00885E-004	0.00000E+000	3.17063E-004	2.40040E-001	7.91162E-001	3.57730E+000	9	...........
	62	0.84	7.96306E-001	4.01150E-004	0.00000E+000	3.19438E-004	2.40040E-001	7.96548E-001	3.57730E+000	9	...........
	63	0.853333	8.01678E-001	4.00856E-004	0.00000E+000	3.21358E-004	2.40040E-001	8.01905E-001	3.57730E+000	9	...........
	64	0.866667	8.07048E-001	4.00981E-004	0.00000E+000	3.23611E-004	2.40040E-001	8.07338E-001	3.57730E+000	9	...........
	65	0.88	8.12392E-001	4.01500E-004	0.00000E+000	3.26176E-004	2.40040E-001	8.12675E-001	3.57730E+000	9	...........
	66	0.893333	8.17675E-001	4.00444E-004	0.00000E+000	3.27433E-004	2.40040E-001	8.17965E-001	3.57730E+000	9	...........
	67	0.906667	8.22867E-001	4.00485E-004	0.00000E+000	3.29545E-004	2.40040E-001	8.23141E-001	3.57730E+000	9	...........
	68	0.92	8.27960E-001	3.99800E-004	0.00000E+000	3.31018E-004	2.40040E-001	8.28262E-001	3.57730E+000	9	...........
	69	0.933333	8.33116E-001	4.00998E-004	0.00000E+000	3.34078E-004	2.40040E-001	8.33416E-001	3.57730E+000	9	...........
	70	0.946667	8.38259E-001	4.01674E-004	0.00000E+000	3.36707E-004	2.40040E-001	8.38555E-001	3.57730E+000	9	...........
	71	0.96	8.43359E-001	4.01078E-004	0.00000E+000	3.38253E-004	2.40040E-001	8.43647E-001	3.57730E+000	9	...........
	72	0.97333	8.48444E-001	4.00292E-004	0.00000E+000	3.39625E-004	2.40040E-001	8.48714E-001	3.57730E+000	9	...........
	73	0.98667	8.53383E-001	4.00750E-004	0.00000E+000	3.41993E-004	2.40040E-001	8.53649E-001	3.57730E+000	9	...........
	74	1	8.58381E-001	4.00400E-004	0.00000E+000	3.43696E-004	2.40040E-001	8.58649E-001	3.57730E+000	9	...........
	75	1.01333	8.63367E-001	3.99079E-004	0.00000E+000	3.44552E-004	2.40040E-001	8.63658E-001	3.57730E+000	9	...........
	76	1.02667	8.68262E-001	4.00801E-004	0.00000E+000	3.48001E-004	2.40040E-001	8.68556E-001	3.57730E+000	9	...........
	77	1.04	8.73139E-001	3.99655E-004	0.00000E+000	3.48955E-004	2.40040E-001	8.73441E-001	3.57730E+000	9	...........
	78	1.05333	8.77905E-001	4.01154E-004	0.00000E+000	3.52175E-004	2.40040E-001	8.78209E-001	3.57730E+000	9	...........
	79	1.06667	8.82724E-001	4.00931E-004	0.00000E+000	3.53912E-004	2.40040E-001	8.83003E-001	3.57730E+000	9	...........
	80	1.08	8.87448E-001	4.01876E-004	0.00000E+000	3.56645E-004	2.40040E-001	8.87732E-001	3.57730E+000	9	...........
	81	1.09333	8.92134E-001	4.01784E-004	0.00000E+000	3.58445E-004	2.40040E-001	8.92414E-001	3.57730E+000	9	...........
	82	1.10667	8.96767E-001	4.00585E-004	0.00000E+000	3.59231E-004	2.40040E-001	8.97100E-001	3.57730E+000	9	...........
	83	1.12	9.01406E-001	4.00975E-004	0.00000E+000	3.61441E-004	2.40040E-001	9.01728E-001	3.57730E+000	9	...........
	84	1.13333	9.05961E-001	4.01196E-004	0.00000E+000	3.63468E-004	2.40040E-001	9.06312E-001	3.57730E+000	9	...........
	85	1.14667	9.10550E-001	3.99758E-004	0.00000E+000	3.64000E-004	2.40040E-001	9.10857E-001	3.57730E+000	9	...........
	86	1.16	9.14973E-001	4.02705E-004	0.00000E+000	3.68464E-004	2.40040E-001	9.15292E-001	3.57730E+000	9	...........
	87	1.17333	9.19439E-001	4.00461E-004	0.00000E+000	3.68199E-004	2.40040E-001	9.19719E-001	3.57730E+000	9	...........
	88	1.18667	9.23943E-001	4.01097E-004	0.00000E+000	3.70591E-004	2.40040E-001	9.24170E-001	3.57730E+000	9	...........
	89	1.2	9.28296E-001	4.00518E-004	0.00000E+000	3.71799E-004	2.40040E-001	9.28560E-001	3.57730E+000	9	...........
	90	1.21333	9.32607E-001	4.00447E-004	0.00000E+000	3.73460E-004	2.40040E-001	9.32877E-001	3.57730E+000	9	...........
	91	1.22667	9.36904E-001	4.00513E-004	0.00000E+000	3.75242E-004	2.40040E-001	9.37201E-001	3.57730E+000	9	...........
	92	1.24	9.41163E-001	4.00542E-004	0.00000E+000	3.76975E-004	2.40040E-001	9.41460E-001	3.57730E+000	9	...........
	93	1.25333	9.45356E-001	4.01472E-004	0.00000E+000	3.79534E-004	2.40040E-001	9.45668E-001	3.57730E+000	9	...........
	94	1.26667	9.49536E-001	4.00586E-004	0.00000E+000	3.80370E-004	2.40040E-001	9.49840E-001	3.57730E+000	9	...........
	95	1.28	9.53660E-001	4.00785E-004	0.00000E+000	3.82212E-004	2.40040E-001	9.53974E-001	3.57730E+000	9	...........
	96	1.29333	9.57744E-001	4.01336E-004	0.00000E+000	3.84377E-004	2.40040E-001	9.58049E-001	3.57730E+000	9	...........
	97	1.30667	9.61746E-001	3.99994E-004	0.00000E+000	3.84692E-004	2.40040E-001	9.62081E-001	3.57730E+000	9	...........
	98	1.32	9.65797E-001	4.00931E-004	0.00000E+000	3.87218E-004	2.40040E-001	9.66135E-001	3.57730E+000	9	...........
	99	1.33333	9.69800E-001	4.01126E-004	0.00000E+000	3.89012E-004	2.40040E-001	9.70140E-001	3.57730E+000	9	...........
	100	1.34667	9.73790E-001	4.02139E-004	0.00000E+000	3.91599E-004	2.40040E-001	9.74080E-001	3.57730E+000	9	...........
	101	1.36	9.77616E-001	4.00877E-004	0.00000E+000	3.91904E-004	2.40040E-001	9.77925E-001	3.57730E+000	9	...........
	102	1.37333	9.81493E-001	4.00411E-004	0.00000E+000	3.93000E-004	2.40040E-001	9.81795E-001	3.57730E+000	9	...........
	103	1.38667	9.85313E-001	4.02043E-004	0.00000E+000	3.96138E-004	2.40040E-001	9.85582E-001	3.57730E+000	9	...........
	104	1.4	9.89062E-001	4.00472E-004	0.00000E+000	3.96092E-004	2.40040E-001	9.89350E-001	3.57730E+000	9	...........
	105	1.41333	9.92772E-001	4.01144E-004	0.00000E+000	3.98245E-004	2.40040E-001	9.93065E-001	3.57730E+000	9	...........
	106	1.42667	9.96476E-001	4.00672E-004	0.00000E+000	3.99260E-004	2.40040E-001	9.96737E-001	3.57730E+000	9	...........
	107	1.435	9.99466E-001	4.01121E-004	0.00000E+000	4.00906E-004	2.40040E-001	9.99771E-001	3.57730E+000	9	...........
STARTTIMEOFFSET	QUANT	2599.569	Start Time Offset (s)
