EXPLAIN
TAG	PWR800_CHARGE
TITLE	LABEL	PWR Cyclic Charge Discharge (Cell) - Charge Step	Test &Identifier
DATE	LABEL	12-7-2017	Date
TIME	LABEL	15:16:51	Time
NOTES	NOTES	3	&Notes...
	supercap test cell
	0.4mg
	6M KOH
PSTAT	PSTAT	IFC5000-01520	Potentiostat
CAPACITY	QUANT	1.00000E-003	Capacity (A-hr)
CELLTYPE	SELECTOR	1	&Cell Type
WORKINGCONNECTION	SELECTOR	0	&Working Lead
MAXCHARGETIME	VARIABLEANDUNITS	1.00000E+002	s	1.00000E+002	second(s)	Max &Charge Time
CHARGECURRENT	QUANT	4.00000E-004	&Charge Current (A) 
VOLTAGEFINISH	TWOPARAM	F	1.00000E-003	3.60000E+003	&Voltage Finish	 I (A) < 	Max Time(s)
SAMPLETIME	QUANT	1.00000E-002	Sa&mple Period (s)
CHARGESTOPAT1	MULTIPARAM	4	1.00000E+000	Charge Stop At &1	Voltage > Limit	V
CHARGESTOPAT2	MULTIPARAM	0	0.00000E+000	Charge Stop At &2	None	N/A
AESBHCSELECTOR	TOGGLE	F	Save Both Half Cells
IRCOMP	TOGGLE	F	IR &Measure
EOC	QUANT	0	Open Circuit (V)
SEQUENCER	TOGGLE	TRUE	Run as Sequence
PSTATMODEL	IQUANT	53	Pstat Model
PSTATSECTION	LABEL	IFC5000-01520	Pstat Section
PSTATSERIALNO	LABEL	01520	Pstat Serial Number
CTRLMODE	IQUANT	0	Control Mode
ELECTROMETER	IQUANT	1	RE=0 or CS=1
IESTAB	IQUANT	0	I/E Stability
CASPEED	IQUANT	4	Control Amp Speed
CONVENTION	IQUANT	1	Current Convention
ICHRANGE	IQUANT	2	Ich Range
ICHRANGEMODE	TOGGLE	T	Ich Auto Range
ICHOFFSETENABLE	TOGGLE	F	Ich Offset Enable
ICHOFFSET	QUANT	0	Ich Offset (V)
ICHFILTER	IQUANT	1	Ich Filter
VCHRANGE	IQUANT	2	Vch Range
VCHRANGEMODE	TOGGLE	T	Vch Auto Range
VCHOFFSETENABLE	TOGGLE	F	Vch Offset Enable
VCHOFFSET	QUANT	0	Vch Offset (V)
VCHFILTER	IQUANT	1	Vch Filter
IERANGELOWERLIMIT	IQUANT	9	I/E Range Lower Limit
IERANGEMODE	TOGGLE	F	I/E AutoRange
IERANGE	IQUANT	9	I/E Range
ACHSELECT	IQUANT	1	Ach Select
ACHRANGE	IQUANT	2	Ach Range
ACHOFFSETENABLE	TOGGLE	F	Ach Offset Enable
ACHOFFSET	QUANT	0	Ach Offset (V)
ACHFILTER	IQUANT	1	Ach Filter
CABLEID	IQUANT	14	Cable ID
DCCALDATE	LABEL	5-7-2017	DC Calibration Date
ACCALDATE	LABEL	12/3/2015	AC Calibration Date
FRAMEWORKVERSION	QUANT	7.01	Framework Version
INSTRUMENTVERSION	LABEL	4.00	Instrument Version
CURVE	TABLE	107
	Pt	T	Vf	Im	Vu	Pwr	Sig	Ach	Temp	IERange	Over
	#	s	V	A	V	W	V	V	deg C	#	bits
	0	0.013333	3.87405E-001	4.01565E-004	0.00000E+000	1.55568E-004	2.40040E-001	3.87499E-001	3.57780E+000	9	...........
	1	0.026667	4.00189E-001	4.00901E-004	0.00000E+000	1.60436E-004	2.40040E-001	4.00268E-001	3.57780E+000	9	...........
	2	0.04	4.11168E-001	4.00177E-004	0.00000E+000	1.64540E-004	2.40040E-001	4.11248E-001	3.57780E+000	9	...........
	3	0.053333	4.20999E-001	4.00257E-004	0.00000E+000	1.68508E-004	2.40040E-001	4.21087E-001	3.57705E+000	9	...........
	4	0.066667	4.30184E-001	4.00775E-004	0.00000E+000	1.72407E-004	2.40040E-001	4.30277E-001	3.57680E+000	9	...........
	5	0.08	4.38912E-001	4.00902E-004	0.00000E+000	1.75961E-004	2.40040E-001	4.39008E-001	3.57680E+000	9	...........
	6	0.093333	4.47231E-001	3.99906E-004	0.00000E+000	1.78850E-004	2.40040E-001	4.47324E-001	3.57680E+000	9	...........
	7	0.106667	4.55300E-001	4.01315E-004	0.00000E+000	1.82718E-004	2.40040E-001	4.55395E-001	3.57680E+000	9	...........
	8	0.12	4.63141E-001	4.00554E-004	0.00000E+000	1.85513E-004	2.40040E-001	4.63243E-001	3.57680E+000	9	...........
	9	0.133333	4.70865E-001	4.01431E-004	0.00000E+000	1.89019E-004	2.40040E-001	4.70960E-001	3.57680E+000	9	...........
	10	0.146667	4.78414E-001	4.02115E-004	0.00000E+000	1.92377E-004	2.40040E-001	4.78513E-001	3.57680E+000	9	...........
	11	0.16	4.85839E-001	4.01678E-004	0.00000E+000	1.95151E-004	2.40040E-001	4.85939E-001	3.57680E+000	9	...........
	12	0.173333	4.93120E-001	4.00398E-004	0.00000E+000	1.97444E-004	2.40040E-001	4.93227E-001	3.57680E+000	9	...........
	13	0.186667	5.00278E-001	4.00390E-004	0.00000E+000	2.00306E-004	2.40040E-001	5.00384E-001	3.57680E+000	9	...........
	14	0.2	5.07343E-001	4.01920E-004	0.00000E+000	2.03911E-004	2.40040E-001	5.07449E-001	3.57680E+000	9	...........
	15	0.213333	5.14325E-001	4.00221E-004	0.00000E+000	2.05843E-004	2.40040E-001	5.14433E-001	3.57680E+000	9	...........
	16	0.226667	5.21257E-001	4.00792E-004	0.00000E+000	2.08915E-004	2.40040E-001	5.21368E-001	3.57680E+000	9	...........
	17	0.24	5.28138E-001	4.01200E-004	0.00000E+000	2.11889E-004	2.40040E-001	5.28251E-001	3.57680E+000	9	...........
	18	0.253333	5.34738E-001	4.02113E-004	0.00000E+000	2.15025E-004	2.40040E-001	5.34886E-001	3.57680E+000	9	...........
	19	0.266667	5.41360E-001	4.01465E-004	0.00000E+000	2.17337E-004	2.40040E-001	5.41599E-001	3.57680E+000	9	...........
	20	0.28	5.48068E-001	3.99872E-004	0.00000E+000	2.19157E-004	2.40040E-001	5.48284E-001	3.57680E+000	9	...........
	21	0.293333	5.54720E-001	4.00096E-004	0.00000E+000	2.21941E-004	2.40040E-001	5.54982E-001	3.57680E+000	9	...........
	22	0.306667	5.61251E-001	4.01776E-004	0.00000E+000	2.25498E-004	2.40040E-001	5.61535E-001	3.57680E+000	9	...........
	23	0.32	5.67818E-001	4.00554E-004	0.00000E+000	2.27442E-004	2.40040E-001	5.68066E-001	3.57680E+000	9	...........
	24	0.333333	5.74277E-001	4.00475E-004	0.00000E+000	2.29984E-004	2.40040E-001	5.74533E-001	3.57680E+000	9	...........
	25	0.346667	5.80811E-001	4.01501E-004	0.00000E+000	2.33196E-004	2.40040E-001	5.81077E-001	3.57680E+000	9	...........
	26	0.36	5.87217E-001	4.00965E-004	0.00000E+000	2.35453E-004	2.40040E-001	5.87450E-001	3.57680E+000	9	...........
	27	0.373333	5.93583E-001	4.00830E-004	0.00000E+000	2.37926E-004	2.40040E-001	5.93812E-001	3.57680E+000	9	...........
	28	0.386667	5.99993E-001	4.01038E-004	0.00000E+000	2.40620E-004	2.40040E-001	6.00237E-001	3.57680E+000	9	...........
	29	0.4	6.06353E-001	3.99431E-004	0.00000E+000	2.42196E-004	2.40040E-001	6.06589E-001	3.57680E+000	9	...........
	30	0.413333	6.12690E-001	4.01397E-004	0.00000E+000	2.45932E-004	2.40040E-001	6.12926E-001	3.57680E+000	9	...........
	31	0.426667	6.19009E-001	4.01271E-004	0.00000E+000	2.48390E-004	2.40040E-001	6.19204E-001	3.57680E+000	9	...........
	32	0.44	6.25165E-001	4.01326E-004	0.00000E+000	2.50895E-004	2.40040E-001	6.25403E-001	3.57680E+000	9	...........
	33	0.453333	6.31407E-001	4.01428E-004	0.00000E+000	2.53465E-004	2.40040E-001	6.31646E-001	3.57680E+000	9	...........
	34	0.466667	6.37661E-001	4.02090E-004	0.00000E+000	2.56397E-004	2.40040E-001	6.37907E-001	3.57680E+000	9	...........
	35	0.48	6.43948E-001	4.01013E-004	0.00000E+000	2.58231E-004	2.40040E-001	6.44201E-001	3.57680E+000	9	...........
	36	0.493333	6.50083E-001	4.01389E-004	0.00000E+000	2.60936E-004	2.40040E-001	6.50317E-001	3.57680E+000	9	...........
	37	0.506667	6.56200E-001	4.01340E-004	0.00000E+000	2.63359E-004	2.40040E-001	6.56421E-001	3.57680E+000	9	...........
	38	0.52	6.62269E-001	4.00909E-004	0.00000E+000	2.65509E-004	2.40040E-001	6.62483E-001	3.57680E+000	9	...........
	39	0.533333	6.68412E-001	4.01366E-004	0.00000E+000	2.68278E-004	2.40040E-001	6.68638E-001	3.57680E+000	9	...........
	40	0.546667	6.74543E-001	4.01307E-004	0.00000E+000	2.70699E-004	2.40040E-001	6.74758E-001	3.57680E+000	9	...........
	41	0.56	6.80523E-001	3.99994E-004	0.00000E+000	2.72205E-004	2.40040E-001	6.80788E-001	3.57680E+000	9	...........
	42	0.573333	6.86514E-001	4.01535E-004	0.00000E+000	2.75659E-004	2.40040E-001	6.86759E-001	3.57680E+000	9	...........
	43	0.586667	6.92532E-001	4.02252E-004	0.00000E+000	2.78572E-004	2.40040E-001	6.92785E-001	3.57680E+000	9	...........
	44	0.6	6.98492E-001	4.01632E-004	0.00000E+000	2.80536E-004	2.40040E-001	6.98740E-001	3.57680E+000	9	...........
	45	0.613333	7.04417E-001	3.99831E-004	0.00000E+000	2.81648E-004	2.40040E-001	7.04655E-001	3.57680E+000	9	...........
	46	0.626667	7.10230E-001	4.00834E-004	0.00000E+000	2.84684E-004	2.40040E-001	7.10484E-001	3.57680E+000	9	...........
	47	0.64	7.16137E-001	4.01681E-004	0.00000E+000	2.87658E-004	2.40040E-001	7.16388E-001	3.57680E+000	9	...........
	48	0.653333	7.22045E-001	4.00861E-004	0.00000E+000	2.89439E-004	2.40040E-001	7.22254E-001	3.57680E+000	9	...........
	49	0.666667	7.27905E-001	4.00780E-004	0.00000E+000	2.91730E-004	2.40040E-001	7.28125E-001	3.57680E+000	9	...........
	50	0.68	7.33688E-001	4.00216E-004	0.00000E+000	2.93633E-004	2.40040E-001	7.33921E-001	3.57680E+000	9	...........
	51	0.693333	7.39495E-001	4.02422E-004	0.00000E+000	2.97589E-004	2.40040E-001	7.39729E-001	3.57680E+000	9	...........
	52	0.706667	7.45292E-001	4.01570E-004	0.00000E+000	2.99287E-004	2.40040E-001	7.45526E-001	3.57680E+000	9	...........
	53	0.72	7.51005E-001	4.01468E-004	0.00000E+000	3.01505E-004	2.40040E-001	7.51234E-001	3.57680E+000	9	...........
	54	0.733333	7.56687E-001	4.01112E-004	0.00000E+000	3.03516E-004	2.40040E-001	7.56936E-001	3.57680E+000	9	...........
	55	0.746667	7.62288E-001	4.01718E-004	0.00000E+000	3.06225E-004	2.40040E-001	7.62549E-001	3.57680E+000	9	...........
	56	0.76	7.67906E-001	4.00253E-004	0.00000E+000	3.07357E-004	2.40040E-001	7.68195E-001	3.57680E+000	9	...........
	57	0.773333	7.73547E-001	4.01015E-004	0.00000E+000	3.10204E-004	2.40040E-001	7.73809E-001	3.57680E+000	9	...........
	58	0.786667	7.79069E-001	4.01351E-004	0.00000E+000	3.12681E-004	2.40040E-001	7.79351E-001	3.57680E+000	9	...........
	59	0.8	7.84620E-001	4.01910E-004	0.00000E+000	3.15347E-004	2.40040E-001	7.84887E-001	3.57680E+000	9	...........
	60	0.813333	7.90086E-001	3.99853E-004	0.00000E+000	3.15918E-004	2.40040E-001	7.90359E-001	3.57680E+000	9	...........
	61	0.826667	7.95585E-001	4.01084E-004	0.00000E+000	3.19096E-004	2.40040E-001	7.95833E-001	3.57680E+000	9	...........
	62	0.84	8.00996E-001	4.00978E-004	0.00000E+000	3.21182E-004	2.40040E-001	8.01248E-001	3.57680E+000	9	...........
	63	0.853333	8.06301E-001	3.99720E-004	0.00000E+000	3.22294E-004	2.40040E-001	8.06567E-001	3.57680E+000	9	...........
	64	0.866667	8.11661E-001	4.01177E-004	0.00000E+000	3.25620E-004	2.40040E-001	8.11920E-001	3.57680E+000	9	...........
	65	0.88	8.16991E-001	3.99790E-004	0.00000E+000	3.26624E-004	2.40040E-001	8.17261E-001	3.57680E+000	9	...........
	66	0.893333	8.22303E-001	4.02314E-004	0.00000E+000	3.30824E-004	2.40040E-001	8.22592E-001	3.57680E+000	9	...........
	67	0.906667	8.27517E-001	4.01224E-004	0.00000E+000	3.32020E-004	2.40040E-001	8.27788E-001	3.57680E+000	9	...........
	68	0.92	8.32719E-001	4.00357E-004	0.00000E+000	3.33385E-004	2.40040E-001	8.33000E-001	3.57680E+000	9	...........
	69	0.933333	8.37791E-001	4.00683E-004	0.00000E+000	3.35689E-004	2.40040E-001	8.38102E-001	3.57680E+000	9	...........
	70	0.946667	8.42922E-001	4.01588E-004	0.00000E+000	3.38507E-004	2.40040E-001	8.43251E-001	3.57680E+000	9	...........
	71	0.96	8.48092E-001	4.00829E-004	0.00000E+000	3.39940E-004	2.40040E-001	8.48414E-001	3.57680E+000	9	...........
	72	0.97333	8.53139E-001	4.00817E-004	0.00000E+000	3.41953E-004	2.40040E-001	8.53449E-001	3.57680E+000	9	...........
	73	0.98667	8.58095E-001	4.00625E-004	0.00000E+000	3.43774E-004	2.40040E-001	8.58407E-001	3.57680E+000	9	...........
	74	1	8.63004E-001	3.99691E-004	0.00000E+000	3.44935E-004	2.40040E-001	8.63296E-001	3.57680E+000	9	...........
	75	1.01333	8.67955E-001	4.00785E-004	0.00000E+000	3.47863E-004	2.40040E-001	8.68258E-001	3.57680E+000	9	...........
	76	1.02667	8.72899E-001	4.00501E-004	0.00000E+000	3.49597E-004	2.40040E-001	8.73204E-001	3.57680E+000	9	...........
	77	1.04	8.77761E-001	4.00747E-004	0.00000E+000	3.51760E-004	2.40040E-001	8.78077E-001	3.57680E+000	9	...........
	78	1.05333	8.82576E-001	4.01306E-004	0.00000E+000	3.54183E-004	2.40040E-001	8.82878E-001	3.57755E+000	9	...........
	79	1.06667	8.87264E-001	4.00615E-004	0.00000E+000	3.55451E-004	2.40040E-001	8.87563E-001	3.57780E+000	9	...........
	80	1.08	8.92009E-001	4.01873E-004	0.00000E+000	3.58474E-004	2.40040E-001	8.92285E-001	3.57780E+000	9	...........
	81	1.09333	8.96753E-001	4.01033E-004	0.00000E+000	3.59627E-004	2.40040E-001	8.97048E-001	3.57780E+000	9	...........
	82	1.10667	9.01388E-001	4.01122E-004	0.00000E+000	3.61567E-004	2.40040E-001	9.01669E-001	3.57780E+000	9	...........
	83	1.12	9.05956E-001	4.00297E-004	0.00000E+000	3.62652E-004	2.40040E-001	9.06263E-001	3.57780E+000	9	...........
	84	1.13333	9.10550E-001	4.01198E-004	0.00000E+000	3.65311E-004	2.40040E-001	9.10850E-001	3.57780E+000	9	...........
	85	1.14667	9.15078E-001	4.00880E-004	0.00000E+000	3.66837E-004	2.40040E-001	9.15399E-001	3.57780E+000	9	...........
	86	1.16	9.19541E-001	4.00045E-004	0.00000E+000	3.67858E-004	2.40040E-001	9.19862E-001	3.57780E+000	9	...........
	87	1.17333	9.24035E-001	4.00183E-004	0.00000E+000	3.69784E-004	2.40040E-001	9.24324E-001	3.57780E+000	9	...........
	88	1.18667	9.28406E-001	4.02046E-004	0.00000E+000	3.73262E-004	2.40040E-001	9.28697E-001	3.57780E+000	9	...........
	89	1.2	9.32784E-001	4.00198E-004	0.00000E+000	3.73298E-004	2.40040E-001	9.33079E-001	3.57780E+000	9	...........
	90	1.21333	9.37089E-001	4.00098E-004	0.00000E+000	3.74927E-004	2.40040E-001	9.37410E-001	3.57780E+000	9	...........
	91	1.22667	9.41357E-001	4.01655E-004	0.00000E+000	3.78100E-004	2.40040E-001	9.41655E-001	3.57780E+000	9	...........
	92	1.24	9.45591E-001	4.01447E-004	0.00000E+000	3.79605E-004	2.40040E-001	9.45954E-001	3.57780E+000	9	...........
	93	1.25333	9.49791E-001	4.01534E-004	0.00000E+000	3.81373E-004	2.40040E-001	9.50135E-001	3.57780E+000	9	...........
	94	1.26667	9.53969E-001	4.00698E-004	0.00000E+000	3.82254E-004	2.40040E-001	9.54290E-001	3.57780E+000	9	...........
	95	1.28	9.58099E-001	4.00036E-004	0.00000E+000	3.83275E-004	2.40040E-001	9.58416E-001	3.57780E+000	9	...........
	96	1.29333	9.62171E-001	4.01198E-004	0.00000E+000	3.86021E-004	2.40040E-001	9.62510E-001	3.57780E+000	9	...........
	97	1.30667	9.66170E-001	4.01730E-004	0.00000E+000	3.88139E-004	2.40040E-001	9.66504E-001	3.57780E+000	9	...........
	98	1.32	9.70147E-001	3.99504E-004	0.00000E+000	3.87578E-004	2.40040E-001	9.70485E-001	3.57780E+000	9	...........
	99	1.33333	9.74159E-001	4.02904E-004	0.00000E+000	3.92492E-004	2.40040E-001	9.74474E-001	3.57780E+000	9	...........
	100	1.34667	9.78014E-001	4.00631E-004	0.00000E+000	3.91823E-004	2.40040E-001	9.78320E-001	3.57780E+000	9	...........
	101	1.36	9.81883E-001	4.00508E-004	0.00000E+000	3.93252E-004	2.40040E-001	9.82215E-001	3.57780E+000	9	...........
	102	1.37333	9.85676E-001	4.01924E-004	0.00000E+000	3.96167E-004	2.40040E-001	9.86004E-001	3.57780E+000	9	...........
	103	1.38667	9.89423E-001	4.01973E-004	0.00000E+000	3.97722E-004	2.40040E-001	9.89754E-001	3.57780E+000	9	...........
	104	1.4	9.93133E-001	4.01557E-004	0.00000E+000	3.98799E-004	2.40040E-001	9.93459E-001	3.57780E+000	9	...........
	105	1.41333	9.96789E-001	4.00716E-004	0.00000E+000	3.99429E-004	2.40040E-001	9.97114E-001	3.57780E+000	9	...........
	106	1.42	9.99533E-001	4.00290E-004	0.00000E+000	4.00103E-004	2.40040E-001	9.99912E-001	3.57780E+000	9	...........
STARTTIMEOFFSET	QUANT	2759.54	Start Time Offset (s)
