EXPLAIN
TAG	PWR800_CHARGE
TITLE	LABEL	PWR Cyclic Charge Discharge (Cell) - Charge Step	Test &Identifier
DATE	LABEL	12-7-2017	Date
TIME	LABEL	14:55:44	Time
NOTES	NOTES	3	&Notes...
	supercap test cell
	0.4mg
	6M KOH
PSTAT	PSTAT	IFC5000-01520	Potentiostat
CAPACITY	QUANT	1.00000E-003	Capacity (A-hr)
CELLTYPE	SELECTOR	1	&Cell Type
WORKINGCONNECTION	SELECTOR	0	&Working Lead
MAXCHARGETIME	VARIABLEANDUNITS	1.00000E+002	s	1.00000E+002	second(s)	Max &Charge Time
CHARGECURRENT	QUANT	4.00000E-004	&Charge Current (A) 
VOLTAGEFINISH	TWOPARAM	F	1.00000E-003	3.60000E+003	&Voltage Finish	 I (A) < 	Max Time(s)
SAMPLETIME	QUANT	1.00000E-002	Sa&mple Period (s)
CHARGESTOPAT1	MULTIPARAM	4	1.00000E+000	Charge Stop At &1	Voltage > Limit	V
CHARGESTOPAT2	MULTIPARAM	0	0.00000E+000	Charge Stop At &2	None	N/A
AESBHCSELECTOR	TOGGLE	F	Save Both Half Cells
IRCOMP	TOGGLE	F	IR &Measure
EOC	QUANT	0	Open Circuit (V)
SEQUENCER	TOGGLE	TRUE	Run as Sequence
PSTATMODEL	IQUANT	53	Pstat Model
PSTATSECTION	LABEL	IFC5000-01520	Pstat Section
PSTATSERIALNO	LABEL	01520	Pstat Serial Number
CTRLMODE	IQUANT	0	Control Mode
ELECTROMETER	IQUANT	1	RE=0 or CS=1
IESTAB	IQUANT	0	I/E Stability
CASPEED	IQUANT	4	Control Amp Speed
CONVENTION	IQUANT	1	Current Convention
ICHRANGE	IQUANT	2	Ich Range
ICHRANGEMODE	TOGGLE	T	Ich Auto Range
ICHOFFSETENABLE	TOGGLE	F	Ich Offset Enable
ICHOFFSET	QUANT	0	Ich Offset (V)
ICHFILTER	IQUANT	1	Ich Filter
VCHRANGE	IQUANT	2	Vch Range
VCHRANGEMODE	TOGGLE	T	Vch Auto Range
VCHOFFSETENABLE	TOGGLE	F	Vch Offset Enable
VCHOFFSET	QUANT	0	Vch Offset (V)
VCHFILTER	IQUANT	1	Vch Filter
IERANGELOWERLIMIT	IQUANT	9	I/E Range Lower Limit
IERANGEMODE	TOGGLE	F	I/E AutoRange
IERANGE	IQUANT	9	I/E Range
ACHSELECT	IQUANT	1	Ach Select
ACHRANGE	IQUANT	2	Ach Range
ACHOFFSETENABLE	TOGGLE	F	Ach Offset Enable
ACHOFFSET	QUANT	0	Ach Offset (V)
ACHFILTER	IQUANT	1	Ach Filter
CABLEID	IQUANT	14	Cable ID
DCCALDATE	LABEL	5-7-2017	DC Calibration Date
ACCALDATE	LABEL	12/3/2015	AC Calibration Date
FRAMEWORKVERSION	QUANT	7.01	Framework Version
INSTRUMENTVERSION	LABEL	4.00	Instrument Version
CURVE	TABLE	116
	Pt	T	Vf	Im	Vu	Pwr	Sig	Ach	Temp	IERange	Over
	#	s	V	A	V	W	V	V	deg C	#	bits
	0	0.013333	3.68393E-001	4.00979E-004	0.00000E+000	1.47718E-004	2.40040E-001	3.68486E-001	3.57630E+000	9	...........
	1	0.026667	3.80233E-001	4.00748E-004	0.00000E+000	1.52378E-004	2.40040E-001	3.80307E-001	3.57630E+000	9	...........
	2	0.04	3.90397E-001	4.00723E-004	0.00000E+000	1.56441E-004	2.40040E-001	3.90468E-001	3.57630E+000	9	...........
	3	0.053333	3.99629E-001	4.01677E-004	0.00000E+000	1.60522E-004	2.40040E-001	3.99703E-001	3.57630E+000	9	...........
	4	0.066667	4.08217E-001	4.00610E-004	0.00000E+000	1.63536E-004	2.40040E-001	4.08295E-001	3.57630E+000	9	...........
	5	0.08	4.16383E-001	4.00875E-004	0.00000E+000	1.66918E-004	2.40040E-001	4.16466E-001	3.57630E+000	9	...........
	6	0.093333	4.24263E-001	3.99442E-004	0.00000E+000	1.69468E-004	2.40040E-001	4.24349E-001	3.57630E+000	9	...........
	7	0.106667	4.31897E-001	4.00625E-004	0.00000E+000	1.73029E-004	2.40040E-001	4.31984E-001	3.57630E+000	9	...........
	8	0.12	4.39340E-001	3.99986E-004	0.00000E+000	1.75730E-004	2.40040E-001	4.39425E-001	3.57630E+000	9	...........
	9	0.133333	4.46591E-001	4.00540E-004	0.00000E+000	1.78877E-004	2.40040E-001	4.46681E-001	3.57630E+000	9	...........
	10	0.146667	4.53699E-001	4.00230E-004	0.00000E+000	1.81584E-004	2.40040E-001	4.53788E-001	3.57630E+000	9	...........
	11	0.16	4.60681E-001	4.01190E-004	0.00000E+000	1.84821E-004	2.40040E-001	4.60771E-001	3.57630E+000	9	...........
	12	0.173333	4.67533E-001	4.01182E-004	0.00000E+000	1.87566E-004	2.40040E-001	4.67625E-001	3.57630E+000	9	...........
	13	0.186667	4.74329E-001	4.01171E-004	0.00000E+000	1.90287E-004	2.40040E-001	4.74421E-001	3.57630E+000	9	...........
	14	0.2	4.81093E-001	4.01886E-004	0.00000E+000	1.93344E-004	2.40040E-001	4.81189E-001	3.57630E+000	9	...........
	15	0.213333	4.87767E-001	4.01327E-004	0.00000E+000	1.95754E-004	2.40040E-001	4.87858E-001	3.57630E+000	9	...........
	16	0.226667	4.94303E-001	4.01112E-004	0.00000E+000	1.98271E-004	2.40040E-001	4.94401E-001	3.57630E+000	9	...........
	17	0.24	5.00897E-001	4.00823E-004	0.00000E+000	2.00771E-004	2.40040E-001	5.00995E-001	3.57630E+000	9	...........
	18	0.253333	5.07387E-001	4.01748E-004	0.00000E+000	2.03842E-004	2.40040E-001	5.07492E-001	3.57630E+000	9	...........
	19	0.266667	5.13798E-001	4.00372E-004	0.00000E+000	2.05710E-004	2.40040E-001	5.13897E-001	3.57630E+000	9	...........
	20	0.28	5.20139E-001	4.00409E-004	0.00000E+000	2.08269E-004	2.40040E-001	5.20241E-001	3.57630E+000	9	...........
	21	0.293333	5.26545E-001	4.00636E-004	0.00000E+000	2.10952E-004	2.40040E-001	5.26648E-001	3.57630E+000	9	...........
	22	0.306667	5.32681E-001	4.01017E-004	0.00000E+000	2.13614E-004	2.40040E-001	5.32823E-001	3.57630E+000	9	...........
	23	0.32	5.38781E-001	4.01456E-004	0.00000E+000	2.16296E-004	2.40040E-001	5.39002E-001	3.57630E+000	9	...........
	24	0.333333	5.45035E-001	3.99615E-004	0.00000E+000	2.17804E-004	2.40040E-001	5.45242E-001	3.57630E+000	9	...........
	25	0.346667	5.51209E-001	3.99691E-004	0.00000E+000	2.20313E-004	2.40040E-001	5.51417E-001	3.57630E+000	9	...........
	26	0.36	5.57326E-001	4.00624E-004	0.00000E+000	2.23278E-004	2.40040E-001	5.57555E-001	3.57645E+000	9	...........
	27	0.373333	5.63460E-001	3.99834E-004	0.00000E+000	2.25291E-004	2.40040E-001	5.63682E-001	3.57660E+000	9	...........
	28	0.386667	5.69592E-001	4.00874E-004	0.00000E+000	2.28335E-004	2.40040E-001	5.69780E-001	3.57660E+000	9	...........
	29	0.4	5.75689E-001	4.00353E-004	0.00000E+000	2.30479E-004	2.40040E-001	5.75938E-001	3.57660E+000	9	...........
	30	0.413333	5.81738E-001	4.00525E-004	0.00000E+000	2.33001E-004	2.40040E-001	5.82000E-001	3.57660E+000	9	...........
	31	0.426667	5.87787E-001	4.00866E-004	0.00000E+000	2.35624E-004	2.40040E-001	5.88053E-001	3.57660E+000	9	...........
	32	0.44	5.93782E-001	4.00498E-004	0.00000E+000	2.37809E-004	2.40040E-001	5.94032E-001	3.57660E+000	9	...........
	33	0.453333	5.99737E-001	4.00832E-004	0.00000E+000	2.40394E-004	2.40040E-001	5.99998E-001	3.57660E+000	9	...........
	34	0.466667	6.05678E-001	4.02448E-004	0.00000E+000	2.43754E-004	2.40040E-001	6.05956E-001	3.57660E+000	9	...........
	35	0.48	6.11529E-001	4.00465E-004	0.00000E+000	2.44896E-004	2.40040E-001	6.11818E-001	3.57660E+000	9	...........
	36	0.493333	6.17485E-001	3.99284E-004	0.00000E+000	2.46552E-004	2.40040E-001	6.17708E-001	3.57660E+000	9	...........
	37	0.506667	6.23378E-001	4.00235E-004	0.00000E+000	2.49498E-004	2.40040E-001	6.23543E-001	3.57660E+000	9	...........
	38	0.52	6.29249E-001	4.01066E-004	0.00000E+000	2.52370E-004	2.40040E-001	6.29467E-001	3.57660E+000	9	...........
	39	0.533333	6.35090E-001	4.00264E-004	0.00000E+000	2.54203E-004	2.40040E-001	6.35306E-001	3.57660E+000	9	...........
	40	0.546667	6.40887E-001	4.01198E-004	0.00000E+000	2.57123E-004	2.40040E-001	6.41102E-001	3.57660E+000	9	...........
	41	0.56	6.46668E-001	4.01062E-004	0.00000E+000	2.59354E-004	2.40040E-001	6.46874E-001	3.57660E+000	9	...........
	42	0.573333	6.52474E-001	4.01148E-004	0.00000E+000	2.61739E-004	2.40040E-001	6.52705E-001	3.57660E+000	9	...........
	43	0.586667	6.58248E-001	4.00131E-004	0.00000E+000	2.63386E-004	2.40040E-001	6.58457E-001	3.57660E+000	9	...........
	44	0.6	6.63946E-001	3.99606E-004	0.00000E+000	2.65317E-004	2.40040E-001	6.64171E-001	3.57660E+000	9	...........
	45	0.613333	6.69700E-001	4.00124E-004	0.00000E+000	2.67963E-004	2.40040E-001	6.69912E-001	3.57660E+000	9	...........
	46	0.626667	6.75397E-001	4.01899E-004	0.00000E+000	2.71442E-004	2.40040E-001	6.75603E-001	3.57660E+000	9	...........
	47	0.64	6.81089E-001	4.00519E-004	0.00000E+000	2.72789E-004	2.40040E-001	6.81318E-001	3.57660E+000	9	...........
	48	0.653333	6.86801E-001	4.00384E-004	0.00000E+000	2.74985E-004	2.40040E-001	6.87020E-001	3.57660E+000	9	...........
	49	0.666667	6.92454E-001	4.01439E-004	0.00000E+000	2.77978E-004	2.40040E-001	6.92678E-001	3.57660E+000	9	...........
	50	0.68	6.98073E-001	4.00627E-004	0.00000E+000	2.79667E-004	2.40040E-001	6.98284E-001	3.57660E+000	9	...........
	51	0.693333	7.03701E-001	4.00981E-004	0.00000E+000	2.82171E-004	2.40040E-001	7.03905E-001	3.57660E+000	9	...........
	52	0.706667	7.09315E-001	4.00695E-004	0.00000E+000	2.84219E-004	2.40040E-001	7.09539E-001	3.57660E+000	9	...........
	53	0.72	7.14911E-001	4.00712E-004	0.00000E+000	2.86473E-004	2.40040E-001	7.15159E-001	3.57660E+000	9	...........
	54	0.733333	7.20471E-001	4.00612E-004	0.00000E+000	2.88629E-004	2.40040E-001	7.20684E-001	3.57660E+000	9	...........
	55	0.746667	7.26012E-001	4.00711E-004	0.00000E+000	2.90921E-004	2.40040E-001	7.26220E-001	3.57660E+000	9	...........
	56	0.76	7.31517E-001	4.00120E-004	0.00000E+000	2.92694E-004	2.40040E-001	7.31775E-001	3.57660E+000	9	...........
	57	0.773333	7.36961E-001	4.00537E-004	0.00000E+000	2.95180E-004	2.40040E-001	7.37175E-001	3.57660E+000	9	...........
	58	0.786667	7.42348E-001	4.00974E-004	0.00000E+000	2.97663E-004	2.40040E-001	7.42598E-001	3.57660E+000	9	...........
	59	0.8	7.47767E-001	4.01854E-004	0.00000E+000	3.00493E-004	2.40040E-001	7.47998E-001	3.57660E+000	9	...........
	60	0.813333	7.53239E-001	4.00258E-004	0.00000E+000	3.01490E-004	2.40040E-001	7.53479E-001	3.57660E+000	9	...........
	61	0.826667	7.58697E-001	4.02005E-004	0.00000E+000	3.05000E-004	2.40040E-001	7.58924E-001	3.57660E+000	9	...........
	62	0.84	7.64021E-001	4.01664E-004	0.00000E+000	3.06880E-004	2.40040E-001	7.64246E-001	3.57660E+000	9	...........
	63	0.853333	7.69343E-001	4.00661E-004	0.00000E+000	3.08246E-004	2.40040E-001	7.69597E-001	3.57660E+000	9	...........
	64	0.866667	7.74678E-001	4.01035E-004	0.00000E+000	3.10673E-004	2.40040E-001	7.74920E-001	3.57660E+000	9	...........
	65	0.88	7.79963E-001	4.00694E-004	0.00000E+000	3.12527E-004	2.40040E-001	7.80172E-001	3.57660E+000	9	...........
	66	0.893333	7.85197E-001	4.00989E-004	0.00000E+000	3.14855E-004	2.40040E-001	7.85381E-001	3.57660E+000	9	...........
	67	0.906667	7.90365E-001	4.00303E-004	0.00000E+000	3.16386E-004	2.40040E-001	7.90624E-001	3.57660E+000	9	...........
	68	0.92	7.95622E-001	3.99724E-004	0.00000E+000	3.18029E-004	2.40040E-001	7.95846E-001	3.57660E+000	9	...........
	69	0.933333	8.00757E-001	4.01783E-004	0.00000E+000	3.21730E-004	2.40040E-001	8.01016E-001	3.57660E+000	9	...........
	70	0.946667	8.05813E-001	3.99905E-004	0.00000E+000	3.22249E-004	2.40040E-001	8.06101E-001	3.57660E+000	9	...........
	71	0.96	8.10880E-001	4.00093E-004	0.00000E+000	3.24427E-004	2.40040E-001	8.11148E-001	3.57660E+000	9	...........
	72	0.97333	8.15953E-001	4.00055E-004	0.00000E+000	3.26426E-004	2.40040E-001	8.16243E-001	3.57660E+000	9	...........
	73	0.98667	8.20954E-001	4.00035E-004	0.00000E+000	3.28411E-004	2.40040E-001	8.21238E-001	3.57660E+000	9	...........
	74	1	8.25943E-001	4.00423E-004	0.00000E+000	3.30727E-004	2.40040E-001	8.26217E-001	3.57660E+000	9	...........
	75	1.01333	8.30866E-001	4.01321E-004	0.00000E+000	3.33444E-004	2.40040E-001	8.31141E-001	3.57660E+000	9	...........
	76	1.02667	8.35843E-001	4.00493E-004	0.00000E+000	3.34749E-004	2.40040E-001	8.36136E-001	3.57660E+000	9	...........
	77	1.04	8.40783E-001	3.99945E-004	0.00000E+000	3.36267E-004	2.40040E-001	8.41038E-001	3.57660E+000	9	...........
	78	1.05333	8.45755E-001	4.00631E-004	0.00000E+000	3.38836E-004	2.40040E-001	8.46055E-001	3.57660E+000	9	...........
	79	1.06667	8.50570E-001	4.00553E-004	0.00000E+000	3.40698E-004	2.40040E-001	8.50841E-001	3.57660E+000	9	...........
	80	1.08	8.55351E-001	4.00363E-004	0.00000E+000	3.42451E-004	2.40040E-001	8.55653E-001	3.57660E+000	9	...........
	81	1.09333	8.60114E-001	4.00750E-004	0.00000E+000	3.44691E-004	2.40040E-001	8.60402E-001	3.57660E+000	9	...........
	82	1.10667	8.64852E-001	4.01350E-004	0.00000E+000	3.47109E-004	2.40040E-001	8.65133E-001	3.57660E+000	9	...........
	83	1.12	8.69538E-001	4.00980E-004	0.00000E+000	3.48668E-004	2.40040E-001	8.69818E-001	3.57660E+000	9	...........
	84	1.13333	8.74171E-001	4.02506E-004	0.00000E+000	3.51859E-004	2.40040E-001	8.74457E-001	3.57660E+000	9	...........
	85	1.14667	8.78823E-001	4.01232E-004	0.00000E+000	3.52611E-004	2.40040E-001	8.79099E-001	3.57660E+000	9	...........
	86	1.16	8.83397E-001	4.00089E-004	0.00000E+000	3.53437E-004	2.40040E-001	8.83693E-001	3.57660E+000	9	...........
	87	1.17333	8.87943E-001	4.01098E-004	0.00000E+000	3.56152E-004	2.40040E-001	8.88224E-001	3.57660E+000	9	...........
	88	1.18667	8.92504E-001	4.02164E-004	0.00000E+000	3.58933E-004	2.40040E-001	8.92788E-001	3.57660E+000	9	...........
	89	1.2	8.96994E-001	3.99761E-004	0.00000E+000	3.58584E-004	2.40040E-001	8.97308E-001	3.57660E+000	9	...........
	90	1.21333	9.01487E-001	4.01348E-004	0.00000E+000	3.61810E-004	2.40040E-001	9.01789E-001	3.57660E+000	9	...........
	91	1.22667	9.05889E-001	4.00091E-004	0.00000E+000	3.62438E-004	2.40040E-001	9.06194E-001	3.57660E+000	9	...........
	92	1.24	9.10299E-001	4.01278E-004	0.00000E+000	3.65283E-004	2.40040E-001	9.10594E-001	3.57660E+000	9	...........
	93	1.25333	9.14631E-001	4.00256E-004	0.00000E+000	3.66087E-004	2.40040E-001	9.14909E-001	3.57660E+000	9	...........
	94	1.26667	9.18892E-001	4.01354E-004	0.00000E+000	3.68802E-004	2.40040E-001	9.19202E-001	3.57660E+000	9	...........
	95	1.28	9.23269E-001	4.02316E-004	0.00000E+000	3.71446E-004	2.40040E-001	9.23510E-001	3.57660E+000	9	...........
	96	1.29333	9.27513E-001	4.00697E-004	0.00000E+000	3.71652E-004	2.40040E-001	9.27772E-001	3.57660E+000	9	...........
	97	1.30667	9.31712E-001	4.00283E-004	0.00000E+000	3.72949E-004	2.40040E-001	9.31998E-001	3.57660E+000	9	...........
	98	1.32	9.35866E-001	4.00731E-004	0.00000E+000	3.75031E-004	2.40040E-001	9.36170E-001	3.57660E+000	9	...........
	99	1.33333	9.40014E-001	4.01236E-004	0.00000E+000	3.77167E-004	2.40040E-001	9.40329E-001	3.57660E+000	9	...........
	100	1.34667	9.44153E-001	4.01577E-004	0.00000E+000	3.79151E-004	2.40040E-001	9.44436E-001	3.57660E+000	9	...........
	101	1.36	9.48232E-001	4.01019E-004	0.00000E+000	3.80259E-004	2.40040E-001	9.48503E-001	3.57640E+000	9	...........
	102	1.37333	9.52245E-001	4.01983E-004	0.00000E+000	3.82786E-004	2.40040E-001	9.52530E-001	3.57620E+000	9	...........
	103	1.38667	9.56202E-001	4.00685E-004	0.00000E+000	3.83135E-004	2.40040E-001	9.56499E-001	3.57620E+000	9	...........
	104	1.4	9.60158E-001	4.01199E-004	0.00000E+000	3.85214E-004	2.40040E-001	9.60478E-001	3.57620E+000	9	...........
	105	1.41333	9.64036E-001	4.01353E-004	0.00000E+000	3.86919E-004	2.40040E-001	9.64354E-001	3.57620E+000	9	...........
	106	1.42667	9.67928E-001	4.01321E-004	0.00000E+000	3.88450E-004	2.40040E-001	9.68225E-001	3.57620E+000	9	...........
	107	1.44	9.71788E-001	4.02147E-004	0.00000E+000	3.90802E-004	2.40040E-001	9.72098E-001	3.57620E+000	9	...........
	108	1.45333	9.75556E-001	4.00681E-004	0.00000E+000	3.90887E-004	2.40040E-001	9.75813E-001	3.57620E+000	9	...........
	109	1.46667	9.79308E-001	4.00966E-004	0.00000E+000	3.92669E-004	2.40040E-001	9.79584E-001	3.57620E+000	9	...........
	110	1.48	9.82957E-001	4.00958E-004	0.00000E+000	3.94124E-004	2.40040E-001	9.83262E-001	3.57620E+000	9	...........
	111	1.49333	9.86662E-001	4.01093E-004	0.00000E+000	3.95743E-004	2.40040E-001	9.86965E-001	3.57620E+000	9	...........
	112	1.50667	9.90305E-001	4.01450E-004	0.00000E+000	3.97558E-004	2.40040E-001	9.90601E-001	3.57620E+000	9	...........
	113	1.52	9.93849E-001	3.99999E-004	0.00000E+000	3.97538E-004	2.40040E-001	9.94169E-001	3.57620E+000	9	...........
	114	1.53333	9.97438E-001	4.00438E-004	0.00000E+000	3.99412E-004	2.40040E-001	9.97744E-001	3.57620E+000	9	...........
	115	1.53833	9.99843E-001	4.01177E-004	0.00000E+000	4.01114E-004	2.40040E-001	1.00013E+000	3.57620E+000	9	...........
STARTTIMEOFFSET	QUANT	1772.743	Start Time Offset (s)
