EXPLAIN
TAG	PWR800_CHARGE
TITLE	LABEL	PWR Cyclic Charge Discharge (Cell) - Charge Step	Test &Identifier
DATE	LABEL	12-7-2017	Date
TIME	LABEL	14:36:08	Time
NOTES	NOTES	3	&Notes...
	supercap test cell
	0.4mg
	6M KOH
PSTAT	PSTAT	IFC5000-01520	Potentiostat
CAPACITY	QUANT	1.00000E-003	Capacity (A-hr)
CELLTYPE	SELECTOR	1	&Cell Type
WORKINGCONNECTION	SELECTOR	0	&Working Lead
MAXCHARGETIME	VARIABLEANDUNITS	1.00000E+002	s	1.00000E+002	second(s)	Max &Charge Time
CHARGECURRENT	QUANT	4.00000E-004	&Charge Current (A) 
VOLTAGEFINISH	TWOPARAM	F	1.00000E-003	3.60000E+003	&Voltage Finish	 I (A) < 	Max Time(s)
SAMPLETIME	QUANT	1.00000E-002	Sa&mple Period (s)
CHARGESTOPAT1	MULTIPARAM	4	1.00000E+000	Charge Stop At &1	Voltage > Limit	V
CHARGESTOPAT2	MULTIPARAM	0	0.00000E+000	Charge Stop At &2	None	N/A
AESBHCSELECTOR	TOGGLE	F	Save Both Half Cells
IRCOMP	TOGGLE	F	IR &Measure
EOC	QUANT	0	Open Circuit (V)
SEQUENCER	TOGGLE	TRUE	Run as Sequence
PSTATMODEL	IQUANT	53	Pstat Model
PSTATSECTION	LABEL	IFC5000-01520	Pstat Section
PSTATSERIALNO	LABEL	01520	Pstat Serial Number
CTRLMODE	IQUANT	0	Control Mode
ELECTROMETER	IQUANT	1	RE=0 or CS=1
IESTAB	IQUANT	0	I/E Stability
CASPEED	IQUANT	4	Control Amp Speed
CONVENTION	IQUANT	1	Current Convention
ICHRANGE	IQUANT	2	Ich Range
ICHRANGEMODE	TOGGLE	T	Ich Auto Range
ICHOFFSETENABLE	TOGGLE	F	Ich Offset Enable
ICHOFFSET	QUANT	0	Ich Offset (V)
ICHFILTER	IQUANT	1	Ich Filter
VCHRANGE	IQUANT	2	Vch Range
VCHRANGEMODE	TOGGLE	T	Vch Auto Range
VCHOFFSETENABLE	TOGGLE	F	Vch Offset Enable
VCHOFFSET	QUANT	0	Vch Offset (V)
VCHFILTER	IQUANT	1	Vch Filter
IERANGELOWERLIMIT	IQUANT	9	I/E Range Lower Limit
IERANGEMODE	TOGGLE	F	I/E AutoRange
IERANGE	IQUANT	9	I/E Range
ACHSELECT	IQUANT	1	Ach Select
ACHRANGE	IQUANT	2	Ach Range
ACHOFFSETENABLE	TOGGLE	F	Ach Offset Enable
ACHOFFSET	QUANT	0	Ach Offset (V)
ACHFILTER	IQUANT	1	Ach Filter
CABLEID	IQUANT	14	Cable ID
DCCALDATE	LABEL	5-7-2017	DC Calibration Date
ACCALDATE	LABEL	12/3/2015	AC Calibration Date
FRAMEWORKVERSION	QUANT	7.01	Framework Version
INSTRUMENTVERSION	LABEL	4.00	Instrument Version
CURVE	TABLE	128
	Pt	T	Vf	Im	Vu	Pwr	Sig	Ach	Temp	IERange	Over
	#	s	V	A	V	W	V	V	deg C	#	bits
	0	0.013333	3.49157E-001	4.01673E-004	0.00000E+000	1.40247E-004	2.40040E-001	3.49244E-001	3.57630E+000	9	...........
	1	0.026667	3.59773E-001	4.00946E-004	0.00000E+000	1.44250E-004	2.40040E-001	3.59849E-001	3.57630E+000	9	...........
	2	0.04	3.68957E-001	4.01110E-004	0.00000E+000	1.47992E-004	2.40040E-001	3.69031E-001	3.57630E+000	9	...........
	3	0.053333	3.77341E-001	4.02237E-004	0.00000E+000	1.51780E-004	2.40040E-001	3.77419E-001	3.57630E+000	9	...........
	4	0.066667	3.85209E-001	4.00459E-004	0.00000E+000	1.54261E-004	2.40040E-001	3.85284E-001	3.57630E+000	9	...........
	5	0.08	3.92798E-001	4.01511E-004	0.00000E+000	1.57713E-004	2.40040E-001	3.92873E-001	3.57630E+000	9	...........
	6	0.093333	4.00086E-001	4.01634E-004	0.00000E+000	1.60688E-004	2.40040E-001	4.00163E-001	3.57630E+000	9	...........
	7	0.106667	4.07088E-001	4.00572E-004	0.00000E+000	1.63068E-004	2.40040E-001	4.07164E-001	3.57630E+000	9	...........
	8	0.12	4.13913E-001	3.99714E-004	0.00000E+000	1.65447E-004	2.40040E-001	4.14001E-001	3.57630E+000	9	...........
	9	0.133333	4.20530E-001	4.01077E-004	0.00000E+000	1.68665E-004	2.40040E-001	4.20614E-001	3.57630E+000	9	...........
	10	0.146667	4.27198E-001	4.01537E-004	0.00000E+000	1.71536E-004	2.40040E-001	4.27283E-001	3.57630E+000	9	...........
	11	0.16	4.33654E-001	4.00686E-004	0.00000E+000	1.73759E-004	2.40040E-001	4.33736E-001	3.57630E+000	9	...........
	12	0.173333	4.40032E-001	4.01697E-004	0.00000E+000	1.76760E-004	2.40040E-001	4.40122E-001	3.57630E+000	9	...........
	13	0.186667	4.46343E-001	4.00744E-004	0.00000E+000	1.78869E-004	2.40040E-001	4.46432E-001	3.57630E+000	9	...........
	14	0.2	4.52620E-001	4.01110E-004	0.00000E+000	1.81550E-004	2.40040E-001	4.52708E-001	3.57630E+000	9	...........
	15	0.213333	4.58751E-001	4.00869E-004	0.00000E+000	1.83899E-004	2.40040E-001	4.58840E-001	3.57630E+000	9	...........
	16	0.226667	4.64933E-001	4.01935E-004	0.00000E+000	1.86873E-004	2.40040E-001	4.65029E-001	3.57630E+000	9	...........
	17	0.24	4.70949E-001	4.01176E-004	0.00000E+000	1.88934E-004	2.40040E-001	4.71047E-001	3.57630E+000	9	...........
	18	0.253333	4.76990E-001	4.00910E-004	0.00000E+000	1.91230E-004	2.40040E-001	4.77086E-001	3.57630E+000	9	...........
	19	0.266667	4.82969E-001	4.00306E-004	0.00000E+000	1.93336E-004	2.40040E-001	4.83068E-001	3.57630E+000	9	...........
	20	0.28	4.88924E-001	4.00109E-004	0.00000E+000	1.95623E-004	2.40040E-001	4.89025E-001	3.57630E+000	9	...........
	21	0.293333	4.94890E-001	4.01884E-004	0.00000E+000	1.98888E-004	2.40040E-001	4.94992E-001	3.57630E+000	9	...........
	22	0.306667	5.00784E-001	4.00901E-004	0.00000E+000	2.00765E-004	2.40040E-001	5.00885E-001	3.57630E+000	9	...........
	23	0.32	5.06631E-001	4.01356E-004	0.00000E+000	2.03339E-004	2.40040E-001	5.06734E-001	3.57630E+000	9	...........
	24	0.333333	5.12437E-001	4.01849E-004	0.00000E+000	2.05923E-004	2.40040E-001	5.12533E-001	3.57630E+000	9	...........
	25	0.346667	5.18138E-001	4.02029E-004	0.00000E+000	2.08306E-004	2.40040E-001	5.18239E-001	3.57630E+000	9	...........
	26	0.36	5.23864E-001	3.99726E-004	0.00000E+000	2.09402E-004	2.40040E-001	5.23973E-001	3.57630E+000	9	...........
	27	0.373333	5.29601E-001	4.00962E-004	0.00000E+000	2.12350E-004	2.40040E-001	5.29703E-001	3.57630E+000	9	...........
	28	0.386667	5.35064E-001	4.00845E-004	0.00000E+000	2.14478E-004	2.40040E-001	5.35189E-001	3.57630E+000	9	...........
	29	0.4	5.40674E-001	4.00631E-004	0.00000E+000	2.16611E-004	2.40040E-001	5.40844E-001	3.57630E+000	9	...........
	30	0.413333	5.46293E-001	3.99889E-004	0.00000E+000	2.18456E-004	2.40040E-001	5.46472E-001	3.57630E+000	9	...........
	31	0.426667	5.51858E-001	4.00570E-004	0.00000E+000	2.21058E-004	2.40040E-001	5.52051E-001	3.57630E+000	9	...........
	32	0.44	5.57447E-001	4.03235E-004	0.00000E+000	2.24782E-004	2.40040E-001	5.57617E-001	3.57630E+000	9	...........
	33	0.453333	5.63028E-001	4.00503E-004	0.00000E+000	2.25495E-004	2.40040E-001	5.63215E-001	3.57630E+000	9	...........
	34	0.466667	5.68715E-001	4.01582E-004	0.00000E+000	2.28386E-004	2.40040E-001	5.68882E-001	3.57630E+000	9	...........
	35	0.48	5.74181E-001	4.00985E-004	0.00000E+000	2.30238E-004	2.40040E-001	5.74380E-001	3.57630E+000	9	...........
	36	0.493333	5.79743E-001	4.00516E-004	0.00000E+000	2.32196E-004	2.40040E-001	5.79962E-001	3.57630E+000	9	...........
	37	0.506667	5.85206E-001	4.01058E-004	0.00000E+000	2.34701E-004	2.40040E-001	5.85408E-001	3.57630E+000	9	...........
	38	0.52	5.90760E-001	4.01135E-004	0.00000E+000	2.36974E-004	2.40040E-001	5.90976E-001	3.57630E+000	9	...........
	39	0.533333	5.96266E-001	4.00578E-004	0.00000E+000	2.38851E-004	2.40040E-001	5.96447E-001	3.57630E+000	9	...........
	40	0.546667	6.01739E-001	4.02071E-004	0.00000E+000	2.41942E-004	2.40040E-001	6.01986E-001	3.57630E+000	9	...........
	41	0.56	6.07047E-001	4.01212E-004	0.00000E+000	2.43554E-004	2.40040E-001	6.07294E-001	3.57630E+000	9	...........
	42	0.573333	6.12552E-001	4.01421E-004	0.00000E+000	2.45891E-004	2.40040E-001	6.12809E-001	3.57630E+000	9	...........
	43	0.586667	6.18045E-001	4.01480E-004	0.00000E+000	2.48132E-004	2.40040E-001	6.18258E-001	3.57630E+000	9	...........
	44	0.6	6.23397E-001	4.01039E-004	0.00000E+000	2.50006E-004	2.40040E-001	6.23588E-001	3.57630E+000	9	...........
	45	0.613333	6.28695E-001	4.00479E-004	0.00000E+000	2.51779E-004	2.40040E-001	6.28944E-001	3.57630E+000	9	...........
	46	0.626667	6.34137E-001	4.01697E-004	0.00000E+000	2.54731E-004	2.40040E-001	6.34381E-001	3.57630E+000	9	...........
	47	0.64	6.39486E-001	4.00752E-004	0.00000E+000	2.56276E-004	2.40040E-001	6.39743E-001	3.57630E+000	9	...........
	48	0.653333	6.44853E-001	4.00839E-004	0.00000E+000	2.58482E-004	2.40040E-001	6.45099E-001	3.57630E+000	9	...........
	49	0.666667	6.50303E-001	4.00504E-004	0.00000E+000	2.60449E-004	2.40040E-001	6.50529E-001	3.57630E+000	9	...........
	50	0.68	6.55690E-001	4.02290E-004	0.00000E+000	2.63778E-004	2.40040E-001	6.55919E-001	3.57630E+000	9	...........
	51	0.693333	6.61034E-001	4.01359E-004	0.00000E+000	2.65312E-004	2.40040E-001	6.61258E-001	3.57630E+000	9	...........
	52	0.706667	6.66336E-001	4.00840E-004	0.00000E+000	2.67094E-004	2.40040E-001	6.66588E-001	3.57630E+000	9	...........
	53	0.72	6.71626E-001	4.01756E-004	0.00000E+000	2.69829E-004	2.40040E-001	6.71828E-001	3.57630E+000	9	...........
	54	0.733333	6.76857E-001	3.99854E-004	0.00000E+000	2.70644E-004	2.40040E-001	6.77094E-001	3.57630E+000	9	...........
	55	0.746667	6.82104E-001	4.01326E-004	0.00000E+000	2.73746E-004	2.40040E-001	6.82309E-001	3.57630E+000	9	...........
	56	0.76	6.87290E-001	4.00313E-004	0.00000E+000	2.75131E-004	2.40040E-001	6.87515E-001	3.57630E+000	9	...........
	57	0.773333	6.92461E-001	4.00931E-004	0.00000E+000	2.77629E-004	2.40040E-001	6.92690E-001	3.57630E+000	9	...........
	58	0.786667	6.97687E-001	4.01225E-004	0.00000E+000	2.79930E-004	2.40040E-001	6.97909E-001	3.57630E+000	9	...........
	59	0.8	7.02864E-001	4.01098E-004	0.00000E+000	2.81917E-004	2.40040E-001	7.03049E-001	3.57630E+000	9	...........
	60	0.813333	7.07962E-001	4.00894E-004	0.00000E+000	2.83818E-004	2.40040E-001	7.08174E-001	3.57630E+000	9	...........
	61	0.826667	7.13149E-001	4.00344E-004	0.00000E+000	2.85505E-004	2.40040E-001	7.13324E-001	3.57630E+000	9	...........
	62	0.84	7.18369E-001	4.00935E-004	0.00000E+000	2.88019E-004	2.40040E-001	7.18590E-001	3.57630E+000	9	...........
	63	0.853333	7.23470E-001	4.01281E-004	0.00000E+000	2.90314E-004	2.40040E-001	7.23658E-001	3.57630E+000	9	...........
	64	0.866667	7.28558E-001	4.01226E-004	0.00000E+000	2.92317E-004	2.40040E-001	7.28751E-001	3.57630E+000	9	...........
	65	0.88	7.33684E-001	4.01022E-004	0.00000E+000	2.94223E-004	2.40040E-001	7.33888E-001	3.57630E+000	9	...........
	66	0.893333	7.38779E-001	4.01211E-004	0.00000E+000	2.96406E-004	2.40040E-001	7.39006E-001	3.57630E+000	9	...........
	67	0.906667	7.43923E-001	4.01183E-004	0.00000E+000	2.98449E-004	2.40040E-001	7.44130E-001	3.57630E+000	9	...........
	68	0.92	7.48874E-001	4.00620E-004	0.00000E+000	3.00014E-004	2.40040E-001	7.49101E-001	3.57630E+000	9	...........
	69	0.933333	7.53819E-001	4.00268E-004	0.00000E+000	3.01729E-004	2.40040E-001	7.54060E-001	3.57630E+000	9	...........
	70	0.946667	7.58868E-001	4.01671E-004	0.00000E+000	3.04816E-004	2.40040E-001	7.59122E-001	3.57630E+000	9	...........
	71	0.96	7.63885E-001	4.02244E-004	0.00000E+000	3.07268E-004	2.40040E-001	7.64127E-001	3.57645E+000	9	...........
	72	0.97333	7.68897E-001	4.02174E-004	0.00000E+000	3.09231E-004	2.40040E-001	7.69165E-001	3.57690E+000	9	...........
	73	0.98667	7.73877E-001	4.00666E-004	0.00000E+000	3.10066E-004	2.40040E-001	7.74111E-001	3.57690E+000	9	...........
	74	1	7.78798E-001	4.01541E-004	0.00000E+000	3.12719E-004	2.40040E-001	7.79026E-001	3.57690E+000	9	...........
	75	1.01333	7.83774E-001	4.00731E-004	0.00000E+000	3.14083E-004	2.40040E-001	7.83982E-001	3.57690E+000	9	...........
	76	1.02667	7.88614E-001	4.01540E-004	0.00000E+000	3.16660E-004	2.40040E-001	7.88830E-001	3.57690E+000	9	...........
	77	1.04	7.93453E-001	4.00736E-004	0.00000E+000	3.17965E-004	2.40040E-001	7.93670E-001	3.57690E+000	9	...........
	78	1.05333	7.98248E-001	4.00740E-004	0.00000E+000	3.19890E-004	2.40040E-001	7.98478E-001	3.57690E+000	9	...........
	79	1.06667	8.03067E-001	4.02343E-004	0.00000E+000	3.23109E-004	2.40040E-001	8.03326E-001	3.57690E+000	9	...........
	80	1.08	8.07855E-001	4.00968E-004	0.00000E+000	3.23924E-004	2.40040E-001	8.08122E-001	3.57690E+000	9	...........
	81	1.09333	8.12604E-001	4.01035E-004	0.00000E+000	3.25882E-004	2.40040E-001	8.12877E-001	3.57690E+000	9	...........
	82	1.10667	8.17370E-001	4.01810E-004	0.00000E+000	3.28427E-004	2.40040E-001	8.17675E-001	3.57690E+000	9	...........
	83	1.12	8.22056E-001	4.01311E-004	0.00000E+000	3.29900E-004	2.40040E-001	8.22367E-001	3.57690E+000	9	...........
	84	1.13333	8.26797E-001	4.00603E-004	0.00000E+000	3.31218E-004	2.40040E-001	8.27100E-001	3.57690E+000	9	...........
	85	1.14667	8.31426E-001	4.01045E-004	0.00000E+000	3.33439E-004	2.40040E-001	8.31711E-001	3.57690E+000	9	...........
	86	1.16	8.36004E-001	4.03217E-004	0.00000E+000	3.37091E-004	2.40040E-001	8.36336E-001	3.57690E+000	9	...........
	87	1.17333	8.40561E-001	4.00544E-004	0.00000E+000	3.36682E-004	2.40040E-001	8.40901E-001	3.57690E+000	9	...........
	88	1.18667	8.45194E-001	4.00921E-004	0.00000E+000	3.38856E-004	2.40040E-001	8.45528E-001	3.57690E+000	9	...........
	89	1.2	8.49765E-001	4.02336E-004	0.00000E+000	3.41891E-004	2.40040E-001	8.50103E-001	3.57690E+000	9	...........
	90	1.21333	8.54356E-001	4.01697E-004	0.00000E+000	3.43192E-004	2.40040E-001	8.54672E-001	3.57690E+000	9	...........
	91	1.22667	8.58818E-001	4.02460E-004	0.00000E+000	3.45640E-004	2.40040E-001	8.59154E-001	3.57690E+000	9	...........
	92	1.24	8.63367E-001	4.00797E-004	0.00000E+000	3.46035E-004	2.40040E-001	8.63701E-001	3.57690E+000	9	...........
	93	1.25333	8.67827E-001	4.01095E-004	0.00000E+000	3.48081E-004	2.40040E-001	8.68173E-001	3.57690E+000	9	...........
	94	1.26667	8.72261E-001	4.00666E-004	0.00000E+000	3.49485E-004	2.40040E-001	8.72591E-001	3.57690E+000	9	...........
	95	1.28	8.76649E-001	4.00943E-004	0.00000E+000	3.51486E-004	2.40040E-001	8.76962E-001	3.57690E+000	9	...........
	96	1.29333	8.81076E-001	4.01312E-004	0.00000E+000	3.53586E-004	2.40040E-001	8.81393E-001	3.57690E+000	9	...........
	97	1.30667	8.85479E-001	4.01450E-004	0.00000E+000	3.55476E-004	2.40040E-001	8.85759E-001	3.57690E+000	9	...........
	98	1.32	8.89696E-001	4.01488E-004	0.00000E+000	3.57202E-004	2.40040E-001	8.89987E-001	3.57690E+000	9	...........
	99	1.33333	8.93971E-001	4.00975E-004	0.00000E+000	3.58460E-004	2.40040E-001	8.94257E-001	3.57690E+000	9	...........
	100	1.34667	8.98137E-001	4.00160E-004	0.00000E+000	3.59399E-004	2.40040E-001	8.98434E-001	3.57690E+000	9	...........
	101	1.36	9.02347E-001	4.00790E-004	0.00000E+000	3.61652E-004	2.40040E-001	9.02654E-001	3.57690E+000	9	...........
	102	1.37333	9.06531E-001	4.01152E-004	0.00000E+000	3.63657E-004	2.40040E-001	9.06842E-001	3.57690E+000	9	...........
	103	1.38667	9.10771E-001	3.99993E-004	0.00000E+000	3.64302E-004	2.40040E-001	9.11070E-001	3.57690E+000	9	...........
	104	1.4	9.14810E-001	4.01097E-004	0.00000E+000	3.66927E-004	2.40040E-001	9.15109E-001	3.57690E+000	9	...........
	105	1.41333	9.18900E-001	4.00839E-004	0.00000E+000	3.68331E-004	2.40040E-001	9.19223E-001	3.57690E+000	9	...........
	106	1.42667	9.23080E-001	4.00454E-004	0.00000E+000	3.69651E-004	2.40040E-001	9.23323E-001	3.57690E+000	9	...........
	107	1.44	9.27100E-001	4.02601E-004	0.00000E+000	3.73251E-004	2.40040E-001	9.27368E-001	3.57690E+000	9	...........
	108	1.45333	9.31054E-001	4.02592E-004	0.00000E+000	3.74835E-004	2.40040E-001	9.31330E-001	3.57690E+000	9	...........
	109	1.46667	9.34960E-001	4.01202E-004	0.00000E+000	3.75108E-004	2.40040E-001	9.35264E-001	3.57690E+000	9	...........
	110	1.48	9.38848E-001	3.99267E-004	0.00000E+000	3.74851E-004	2.40040E-001	9.39160E-001	3.57690E+000	9	...........
	111	1.49333	9.42694E-001	4.01509E-004	0.00000E+000	3.78500E-004	2.40040E-001	9.42995E-001	3.57690E+000	9	...........
	112	1.50667	9.46559E-001	3.99901E-004	0.00000E+000	3.78530E-004	2.40040E-001	9.46849E-001	3.57690E+000	9	...........
	113	1.52	9.50298E-001	4.01086E-004	0.00000E+000	3.81151E-004	2.40040E-001	9.50588E-001	3.57690E+000	9	...........
	114	1.53333	9.54077E-001	4.00035E-004	0.00000E+000	3.81664E-004	2.40040E-001	9.54350E-001	3.57690E+000	9	...........
	115	1.54667	9.57805E-001	4.00904E-004	0.00000E+000	3.83988E-004	2.40040E-001	9.58089E-001	3.57690E+000	9	...........
	116	1.56	9.61558E-001	4.01050E-004	0.00000E+000	3.85633E-004	2.40040E-001	9.61849E-001	3.57690E+000	9	...........
	117	1.57333	9.65183E-001	4.01434E-004	0.00000E+000	3.87457E-004	2.40040E-001	9.65496E-001	3.57690E+000	9	...........
	118	1.58667	9.68854E-001	4.02980E-004	0.00000E+000	3.90429E-004	2.40040E-001	9.69150E-001	3.57690E+000	9	...........
	119	1.6	9.72498E-001	4.00599E-004	0.00000E+000	3.89582E-004	2.40040E-001	9.72801E-001	3.57690E+000	9	...........
	120	1.61333	9.76072E-001	4.01102E-004	0.00000E+000	3.91505E-004	2.40040E-001	9.76345E-001	3.57690E+000	9	...........
	121	1.62667	9.79602E-001	4.00649E-004	0.00000E+000	3.92477E-004	2.40040E-001	9.79856E-001	3.57690E+000	9	...........
	122	1.64	9.83174E-001	4.00828E-004	0.00000E+000	3.94084E-004	2.40040E-001	9.83421E-001	3.57690E+000	9	...........
	123	1.65333	9.86586E-001	4.00476E-004	0.00000E+000	3.95104E-004	2.40040E-001	9.86861E-001	3.57690E+000	9	...........
	124	1.66667	9.89937E-001	4.01932E-004	0.00000E+000	3.97887E-004	2.40040E-001	9.90197E-001	3.57690E+000	9	...........
	125	1.68	9.93354E-001	4.00922E-004	0.00000E+000	3.98257E-004	2.40040E-001	9.93605E-001	3.57690E+000	9	...........
	126	1.69333	9.96717E-001	4.01320E-004	0.00000E+000	4.00003E-004	2.40040E-001	9.97027E-001	3.57690E+000	9	...........
	127	1.70167	9.99460E-001	3.99925E-004	0.00000E+000	3.99709E-004	2.40040E-001	9.99725E-001	3.57690E+000	9	...........
STARTTIMEOFFSET	QUANT	843.6453	Start Time Offset (s)
