EXPLAIN
TAG	PWR800_CHARGE
TITLE	LABEL	PWR Cyclic Charge Discharge (Cell) - Charge Step	Test &Identifier
DATE	LABEL	12-7-2017	Date
TIME	LABEL	14:32:42	Time
NOTES	NOTES	3	&Notes...
	supercap test cell
	0.4mg
	6M KOH
PSTAT	PSTAT	IFC5000-01520	Potentiostat
CAPACITY	QUANT	1.00000E-003	Capacity (A-hr)
CELLTYPE	SELECTOR	1	&Cell Type
WORKINGCONNECTION	SELECTOR	0	&Working Lead
MAXCHARGETIME	VARIABLEANDUNITS	1.00000E+002	s	1.00000E+002	second(s)	Max &Charge Time
CHARGECURRENT	QUANT	4.00000E-004	&Charge Current (A) 
VOLTAGEFINISH	TWOPARAM	F	1.00000E-003	3.60000E+003	&Voltage Finish	 I (A) < 	Max Time(s)
SAMPLETIME	QUANT	1.00000E-002	Sa&mple Period (s)
CHARGESTOPAT1	MULTIPARAM	4	1.00000E+000	Charge Stop At &1	Voltage > Limit	V
CHARGESTOPAT2	MULTIPARAM	0	0.00000E+000	Charge Stop At &2	None	N/A
AESBHCSELECTOR	TOGGLE	F	Save Both Half Cells
IRCOMP	TOGGLE	F	IR &Measure
EOC	QUANT	0	Open Circuit (V)
SEQUENCER	TOGGLE	TRUE	Run as Sequence
PSTATMODEL	IQUANT	53	Pstat Model
PSTATSECTION	LABEL	IFC5000-01520	Pstat Section
PSTATSERIALNO	LABEL	01520	Pstat Serial Number
CTRLMODE	IQUANT	0	Control Mode
ELECTROMETER	IQUANT	1	RE=0 or CS=1
IESTAB	IQUANT	0	I/E Stability
CASPEED	IQUANT	4	Control Amp Speed
CONVENTION	IQUANT	1	Current Convention
ICHRANGE	IQUANT	2	Ich Range
ICHRANGEMODE	TOGGLE	T	Ich Auto Range
ICHOFFSETENABLE	TOGGLE	F	Ich Offset Enable
ICHOFFSET	QUANT	0	Ich Offset (V)
ICHFILTER	IQUANT	1	Ich Filter
VCHRANGE	IQUANT	2	Vch Range
VCHRANGEMODE	TOGGLE	T	Vch Auto Range
VCHOFFSETENABLE	TOGGLE	F	Vch Offset Enable
VCHOFFSET	QUANT	0	Vch Offset (V)
VCHFILTER	IQUANT	1	Vch Filter
IERANGELOWERLIMIT	IQUANT	9	I/E Range Lower Limit
IERANGEMODE	TOGGLE	F	I/E AutoRange
IERANGE	IQUANT	9	I/E Range
ACHSELECT	IQUANT	1	Ach Select
ACHRANGE	IQUANT	2	Ach Range
ACHOFFSETENABLE	TOGGLE	F	Ach Offset Enable
ACHOFFSET	QUANT	0	Ach Offset (V)
ACHFILTER	IQUANT	1	Ach Filter
CABLEID	IQUANT	14	Cable ID
DCCALDATE	LABEL	5-7-2017	DC Calibration Date
ACCALDATE	LABEL	12/3/2015	AC Calibration Date
FRAMEWORKVERSION	QUANT	7.01	Framework Version
INSTRUMENTVERSION	LABEL	4.00	Instrument Version
CURVE	TABLE	131
	Pt	T	Vf	Im	Vu	Pwr	Sig	Ach	Temp	IERange	Over
	#	s	V	A	V	W	V	V	deg C	#	bits
	0	0.013333	3.44418E-001	4.00587E-004	0.00000E+000	1.37969E-004	2.40040E-001	3.44507E-001	3.57640E+000	9	...........
	1	0.026667	3.54893E-001	4.01139E-004	0.00000E+000	1.42361E-004	2.40040E-001	3.54966E-001	3.57640E+000	9	...........
	2	0.04	3.63960E-001	4.00413E-004	0.00000E+000	1.45734E-004	2.40040E-001	3.64028E-001	3.57640E+000	9	...........
	3	0.053333	3.72198E-001	4.00904E-004	0.00000E+000	1.49216E-004	2.40040E-001	3.72273E-001	3.57640E+000	9	...........
	4	0.066667	3.79910E-001	4.01475E-004	0.00000E+000	1.52524E-004	2.40040E-001	3.79986E-001	3.57640E+000	9	...........
	5	0.08	3.87358E-001	4.02324E-004	0.00000E+000	1.55844E-004	2.40040E-001	3.87437E-001	3.57640E+000	9	...........
	6	0.093333	3.94497E-001	4.00722E-004	0.00000E+000	1.58084E-004	2.40040E-001	3.94572E-001	3.57640E+000	9	...........
	7	0.106667	4.01293E-001	4.01591E-004	0.00000E+000	1.61156E-004	2.40040E-001	4.01375E-001	3.57640E+000	9	...........
	8	0.12	4.08047E-001	4.00156E-004	0.00000E+000	1.63282E-004	2.40040E-001	4.08126E-001	3.57640E+000	9	...........
	9	0.133333	4.14706E-001	4.00461E-004	0.00000E+000	1.66074E-004	2.40040E-001	4.14787E-001	3.57640E+000	9	...........
	10	0.146667	4.21188E-001	4.00549E-004	0.00000E+000	1.68707E-004	2.40040E-001	4.21272E-001	3.57640E+000	9	...........
	11	0.16	4.27579E-001	4.01081E-004	0.00000E+000	1.71494E-004	2.40040E-001	4.27660E-001	3.57640E+000	9	...........
	12	0.173333	4.33840E-001	4.00872E-004	0.00000E+000	1.73914E-004	2.40040E-001	4.33929E-001	3.57640E+000	9	...........
	13	0.186667	4.40032E-001	4.00592E-004	0.00000E+000	1.76273E-004	2.40040E-001	4.40116E-001	3.57640E+000	9	...........
	14	0.2	4.46076E-001	4.01336E-004	0.00000E+000	1.79026E-004	2.40040E-001	4.46164E-001	3.57640E+000	9	...........
	15	0.213333	4.52098E-001	4.01747E-004	0.00000E+000	1.81629E-004	2.40040E-001	4.52189E-001	3.57640E+000	9	...........
	16	0.226667	4.58153E-001	4.01512E-004	0.00000E+000	1.83954E-004	2.40040E-001	4.58245E-001	3.57640E+000	9	...........
	17	0.24	4.64123E-001	4.00309E-004	0.00000E+000	1.85793E-004	2.40040E-001	4.64213E-001	3.57640E+000	9	...........
	18	0.253333	4.70024E-001	4.00924E-004	0.00000E+000	1.88444E-004	2.40040E-001	4.70115E-001	3.57640E+000	9	...........
	19	0.266667	4.75881E-001	4.01145E-004	0.00000E+000	1.90897E-004	2.40040E-001	4.75976E-001	3.57640E+000	9	...........
	20	0.28	4.81692E-001	4.00941E-004	0.00000E+000	1.93130E-004	2.40040E-001	4.81786E-001	3.57640E+000	9	...........
	21	0.293333	4.87528E-001	4.00555E-004	0.00000E+000	1.95282E-004	2.40040E-001	4.87625E-001	3.57640E+000	9	...........
	22	0.306667	4.93319E-001	4.01191E-004	0.00000E+000	1.97915E-004	2.40040E-001	4.93419E-001	3.57640E+000	9	...........
	23	0.32	4.99105E-001	4.01887E-004	0.00000E+000	2.00584E-004	2.40040E-001	4.99205E-001	3.57640E+000	9	...........
	24	0.333333	5.04696E-001	3.99048E-004	0.00000E+000	2.01398E-004	2.40040E-001	5.04795E-001	3.57639E+000	9	...........
	25	0.346667	5.10335E-001	4.00021E-004	0.00000E+000	2.04145E-004	2.40040E-001	5.10443E-001	3.57630E+000	9	...........
	26	0.36	5.16066E-001	4.02583E-004	0.00000E+000	2.07759E-004	2.40040E-001	5.16181E-001	3.57630E+000	9	...........
	27	0.373333	5.21682E-001	4.00965E-004	0.00000E+000	2.09176E-004	2.40040E-001	5.21790E-001	3.57630E+000	9	...........
	28	0.386667	5.27278E-001	4.00664E-004	0.00000E+000	2.11261E-004	2.40040E-001	5.27389E-001	3.57630E+000	9	...........
	29	0.4	5.32742E-001	4.01491E-004	0.00000E+000	2.13891E-004	2.40040E-001	5.32886E-001	3.57630E+000	9	...........
	30	0.413333	5.38148E-001	4.01019E-004	0.00000E+000	2.15807E-004	2.40040E-001	5.38357E-001	3.57630E+000	9	...........
	31	0.426667	5.43647E-001	4.01046E-004	0.00000E+000	2.18028E-004	2.40040E-001	5.43880E-001	3.57630E+000	9	...........
	32	0.44	5.49186E-001	4.00942E-004	0.00000E+000	2.20192E-004	2.40040E-001	5.49407E-001	3.57630E+000	9	...........
	33	0.453333	5.54679E-001	4.00695E-004	0.00000E+000	2.22257E-004	2.40040E-001	5.54909E-001	3.57630E+000	9	...........
	34	0.466667	5.60136E-001	4.01545E-004	0.00000E+000	2.24920E-004	2.40040E-001	5.60387E-001	3.57630E+000	9	...........
	35	0.48	5.65617E-001	4.02296E-004	0.00000E+000	2.27546E-004	2.40040E-001	5.65851E-001	3.57630E+000	9	...........
	36	0.493333	5.71071E-001	4.00611E-004	0.00000E+000	2.28777E-004	2.40040E-001	5.71281E-001	3.57630E+000	9	...........
	37	0.506667	5.76442E-001	4.01854E-004	0.00000E+000	2.31645E-004	2.40040E-001	5.76706E-001	3.57630E+000	9	...........
	38	0.52	5.81813E-001	4.00079E-004	0.00000E+000	2.32771E-004	2.40040E-001	5.82070E-001	3.57630E+000	9	...........
	39	0.533333	5.87215E-001	4.00239E-004	0.00000E+000	2.35026E-004	2.40040E-001	5.87477E-001	3.57630E+000	9	...........
	40	0.546667	5.92592E-001	4.02020E-004	0.00000E+000	2.38234E-004	2.40040E-001	5.92810E-001	3.57630E+000	9	...........
	41	0.56	5.97974E-001	4.01832E-004	0.00000E+000	2.40285E-004	2.40040E-001	5.98175E-001	3.57630E+000	9	...........
	42	0.573333	6.03279E-001	4.01456E-004	0.00000E+000	2.42190E-004	2.40040E-001	6.03531E-001	3.57630E+000	9	...........
	43	0.586667	6.08669E-001	4.01292E-004	0.00000E+000	2.44254E-004	2.40040E-001	6.08900E-001	3.57630E+000	9	...........
	44	0.6	6.14021E-001	4.01724E-004	0.00000E+000	2.46667E-004	2.40040E-001	6.14241E-001	3.57630E+000	9	...........
	45	0.613333	6.19308E-001	4.01992E-004	0.00000E+000	2.48957E-004	2.40040E-001	6.19517E-001	3.57630E+000	9	...........
	46	0.626667	6.24580E-001	4.00844E-004	0.00000E+000	2.50359E-004	2.40040E-001	6.24783E-001	3.57630E+000	9	...........
	47	0.64	6.29824E-001	4.00520E-004	0.00000E+000	2.52257E-004	2.40040E-001	6.30041E-001	3.57630E+000	9	...........
	48	0.653333	6.35062E-001	4.00796E-004	0.00000E+000	2.54530E-004	2.40040E-001	6.35252E-001	3.57630E+000	9	...........
	49	0.666667	6.40286E-001	4.00378E-004	0.00000E+000	2.56356E-004	2.40040E-001	6.40519E-001	3.57630E+000	9	...........
	50	0.68	6.45527E-001	4.02693E-004	0.00000E+000	2.59950E-004	2.40040E-001	6.45719E-001	3.57630E+000	9	...........
	51	0.693333	6.50781E-001	4.01026E-004	0.00000E+000	2.60980E-004	2.40040E-001	6.50999E-001	3.57630E+000	9	...........
	52	0.706667	6.56035E-001	4.00319E-004	0.00000E+000	2.62623E-004	2.40040E-001	6.56214E-001	3.57630E+000	9	...........
	53	0.72	6.61166E-001	4.01712E-004	0.00000E+000	2.65598E-004	2.40040E-001	6.61333E-001	3.57630E+000	9	...........
	54	0.733333	6.66368E-001	4.00217E-004	0.00000E+000	2.66691E-004	2.40040E-001	6.66534E-001	3.57630E+000	9	...........
	55	0.746667	6.71607E-001	4.01202E-004	0.00000E+000	2.69450E-004	2.40040E-001	6.71768E-001	3.57630E+000	9	...........
	56	0.76	6.76873E-001	4.00675E-004	0.00000E+000	2.71206E-004	2.40040E-001	6.77019E-001	3.57630E+000	9	...........
	57	0.773333	6.82032E-001	4.00814E-004	0.00000E+000	2.73368E-004	2.40040E-001	6.82180E-001	3.57630E+000	9	...........
	58	0.786667	6.87144E-001	4.01145E-004	0.00000E+000	2.75644E-004	2.40040E-001	6.87343E-001	3.57630E+000	9	...........
	59	0.8	6.92201E-001	4.00716E-004	0.00000E+000	2.77376E-004	2.40040E-001	6.92378E-001	3.57630E+000	9	...........
	60	0.813333	6.97330E-001	4.01487E-004	0.00000E+000	2.79969E-004	2.40040E-001	6.97518E-001	3.57630E+000	9	...........
	61	0.826667	7.02420E-001	4.00483E-004	0.00000E+000	2.81307E-004	2.40040E-001	7.02613E-001	3.57630E+000	9	...........
	62	0.84	7.07497E-001	4.00697E-004	0.00000E+000	2.83492E-004	2.40040E-001	7.07719E-001	3.57630E+000	9	...........
	63	0.853333	7.12589E-001	4.01270E-004	0.00000E+000	2.85940E-004	2.40040E-001	7.12805E-001	3.57630E+000	9	...........
	64	0.866667	7.17757E-001	4.01898E-004	0.00000E+000	2.88465E-004	2.40040E-001	7.18013E-001	3.57630E+000	9	...........
	65	0.88	7.22796E-001	4.00821E-004	0.00000E+000	2.89712E-004	2.40040E-001	7.23013E-001	3.57630E+000	9	...........
	66	0.893333	7.27792E-001	4.01686E-004	0.00000E+000	2.92344E-004	2.40040E-001	7.28038E-001	3.57630E+000	9	...........
	67	0.906667	7.32775E-001	4.00735E-004	0.00000E+000	2.93648E-004	2.40040E-001	7.32998E-001	3.57630E+000	9	...........
	68	0.92	7.37863E-001	4.00452E-004	0.00000E+000	2.95479E-004	2.40040E-001	7.38064E-001	3.57630E+000	9	...........
	69	0.933333	7.42876E-001	4.01676E-004	0.00000E+000	2.98396E-004	2.40040E-001	7.43080E-001	3.57630E+000	9	...........
	70	0.946667	7.47904E-001	4.01480E-004	0.00000E+000	3.00268E-004	2.40040E-001	7.48096E-001	3.57630E+000	9	...........
	71	0.96	7.52795E-001	4.01097E-004	0.00000E+000	3.01944E-004	2.40040E-001	7.53015E-001	3.57630E+000	9	...........
	72	0.97333	7.57771E-001	4.01517E-004	0.00000E+000	3.04258E-004	2.40040E-001	7.57980E-001	3.57630E+000	9	...........
	73	0.98667	7.62665E-001	4.01543E-004	0.00000E+000	3.06243E-004	2.40040E-001	7.62882E-001	3.57630E+000	9	...........
	74	1	7.67576E-001	4.00378E-004	0.00000E+000	3.07321E-004	2.40040E-001	7.67841E-001	3.57630E+000	9	...........
	75	1.01333	7.72452E-001	4.01145E-004	0.00000E+000	3.09865E-004	2.40040E-001	7.72700E-001	3.57630E+000	9	...........
	76	1.02667	7.77312E-001	4.00304E-004	0.00000E+000	3.11161E-004	2.40040E-001	7.77566E-001	3.57630E+000	9	...........
	77	1.04	7.82221E-001	4.00722E-004	0.00000E+000	3.13453E-004	2.40040E-001	7.82461E-001	3.57630E+000	9	...........
	78	1.05333	7.87026E-001	4.00902E-004	0.00000E+000	3.15521E-004	2.40040E-001	7.87271E-001	3.57630E+000	9	...........
	79	1.06667	7.91804E-001	4.00585E-004	0.00000E+000	3.17184E-004	2.40040E-001	7.92071E-001	3.57630E+000	9	...........
	80	1.08	7.96593E-001	4.00929E-004	0.00000E+000	3.19378E-004	2.40040E-001	7.96853E-001	3.57630E+000	9	...........
	81	1.09333	8.01361E-001	4.00284E-004	0.00000E+000	3.20772E-004	2.40040E-001	8.01597E-001	3.57630E+000	9	...........
	82	1.10667	8.06101E-001	4.00764E-004	0.00000E+000	3.23056E-004	2.40040E-001	8.06368E-001	3.57630E+000	9	...........
	83	1.12	8.10746E-001	4.01418E-004	0.00000E+000	3.25448E-004	2.40040E-001	8.11041E-001	3.57630E+000	9	...........
	84	1.13333	8.15424E-001	4.01208E-004	0.00000E+000	3.27154E-004	2.40040E-001	8.15716E-001	3.57630E+000	9	...........
	85	1.14667	8.20101E-001	4.00401E-004	0.00000E+000	3.28369E-004	2.40040E-001	8.20380E-001	3.57630E+000	9	...........
	86	1.16	8.24691E-001	4.00439E-004	0.00000E+000	3.30238E-004	2.40040E-001	8.24980E-001	3.57630E+000	9	...........
	87	1.17333	8.29284E-001	4.01573E-004	0.00000E+000	3.33018E-004	2.40040E-001	8.29563E-001	3.57630E+000	9	...........
	88	1.18667	8.33862E-001	4.01575E-004	0.00000E+000	3.34858E-004	2.40040E-001	8.34140E-001	3.57630E+000	9	...........
	89	1.2	8.38468E-001	4.02403E-004	0.00000E+000	3.37402E-004	2.40040E-001	8.38763E-001	3.57630E+000	9	...........
	90	1.21333	8.43146E-001	4.01691E-004	0.00000E+000	3.38684E-004	2.40040E-001	8.43424E-001	3.57630E+000	9	...........
	91	1.22667	8.47712E-001	4.00668E-004	0.00000E+000	3.39651E-004	2.40040E-001	8.48011E-001	3.57630E+000	9	...........
	92	1.24	8.52173E-001	4.01596E-004	0.00000E+000	3.42229E-004	2.40040E-001	8.52473E-001	3.57630E+000	9	...........
	93	1.25333	8.56591E-001	4.00784E-004	0.00000E+000	3.43307E-004	2.40040E-001	8.56896E-001	3.57630E+000	9	...........
	94	1.26667	8.61072E-001	4.00765E-004	0.00000E+000	3.45087E-004	2.40040E-001	8.61361E-001	3.57630E+000	9	...........
	95	1.28	8.65332E-001	4.00993E-004	0.00000E+000	3.46992E-004	2.40040E-001	8.65653E-001	3.57630E+000	9	...........
	96	1.29333	8.69743E-001	4.01239E-004	0.00000E+000	3.48975E-004	2.40040E-001	8.70036E-001	3.57630E+000	9	...........
	97	1.30667	8.74098E-001	3.99277E-004	0.00000E+000	3.49007E-004	2.40040E-001	8.74367E-001	3.57630E+000	9	...........
	98	1.32	8.78410E-001	4.00719E-004	0.00000E+000	3.51995E-004	2.40040E-001	8.78659E-001	3.57630E+000	9	...........
	99	1.33333	8.82764E-001	4.00950E-004	0.00000E+000	3.53944E-004	2.40040E-001	8.83008E-001	3.57632E+000	9	...........
	100	1.34667	8.87092E-001	3.99719E-004	0.00000E+000	3.54587E-004	2.40040E-001	8.87350E-001	3.57650E+000	9	...........
	101	1.36	8.91322E-001	4.00045E-004	0.00000E+000	3.56569E-004	2.40040E-001	8.91576E-001	3.57650E+000	9	...........
	102	1.37333	8.95525E-001	4.00058E-004	0.00000E+000	3.58262E-004	2.40040E-001	8.95783E-001	3.57650E+000	9	...........
	103	1.38667	8.99713E-001	4.00001E-004	0.00000E+000	3.59886E-004	2.40040E-001	9.00009E-001	3.57650E+000	9	...........
	104	1.4	9.03885E-001	4.00655E-004	0.00000E+000	3.62147E-004	2.40040E-001	9.04185E-001	3.57650E+000	9	...........
	105	1.41333	9.08012E-001	4.00928E-004	0.00000E+000	3.64048E-004	2.40040E-001	9.08325E-001	3.57650E+000	9	...........
	106	1.42667	9.12082E-001	4.01438E-004	0.00000E+000	3.66144E-004	2.40040E-001	9.12387E-001	3.57650E+000	9	...........
	107	1.44	9.16088E-001	4.00603E-004	0.00000E+000	3.66988E-004	2.40040E-001	9.16424E-001	3.57650E+000	9	...........
	108	1.45333	9.20164E-001	4.01443E-004	0.00000E+000	3.69393E-004	2.40040E-001	9.20477E-001	3.57650E+000	9	...........
	109	1.46667	9.24174E-001	4.01939E-004	0.00000E+000	3.71462E-004	2.40040E-001	9.24465E-001	3.57650E+000	9	...........
	110	1.48	9.28081E-001	4.02428E-004	0.00000E+000	3.73485E-004	2.40040E-001	9.28382E-001	3.57650E+000	9	...........
	111	1.49333	9.31941E-001	4.00746E-004	0.00000E+000	3.73472E-004	2.40040E-001	9.32249E-001	3.57650E+000	9	...........
	112	1.50667	9.35791E-001	4.02603E-004	0.00000E+000	3.76752E-004	2.40040E-001	9.36086E-001	3.57650E+000	9	...........
	113	1.52	9.39627E-001	4.00962E-004	0.00000E+000	3.76755E-004	2.40040E-001	9.39983E-001	3.57650E+000	9	...........
	114	1.53333	9.43486E-001	4.01195E-004	0.00000E+000	3.78522E-004	2.40040E-001	9.43824E-001	3.57650E+000	9	...........
	115	1.54667	9.47260E-001	4.01217E-004	0.00000E+000	3.80057E-004	2.40040E-001	9.47589E-001	3.57650E+000	9	...........
	116	1.56	9.51015E-001	4.00403E-004	0.00000E+000	3.80790E-004	2.40040E-001	9.51353E-001	3.57650E+000	9	...........
	117	1.57333	9.54744E-001	4.01006E-004	0.00000E+000	3.82859E-004	2.40040E-001	9.55058E-001	3.57650E+000	9	...........
	118	1.58667	9.58348E-001	4.02191E-004	0.00000E+000	3.85439E-004	2.40040E-001	9.58678E-001	3.57650E+000	9	...........
	119	1.6	9.61984E-001	4.02131E-004	0.00000E+000	3.86843E-004	2.40040E-001	9.62344E-001	3.57650E+000	9	...........
	120	1.61333	9.65577E-001	3.99579E-004	0.00000E+000	3.85824E-004	2.40040E-001	9.65928E-001	3.57650E+000	9	...........
	121	1.62667	9.69127E-001	4.01980E-004	0.00000E+000	3.89569E-004	2.40040E-001	9.69471E-001	3.57650E+000	9	...........
	122	1.64	9.72690E-001	4.01049E-004	0.00000E+000	3.90096E-004	2.40040E-001	9.73034E-001	3.57650E+000	9	...........
	123	1.65333	9.76198E-001	4.02366E-004	0.00000E+000	3.92789E-004	2.40040E-001	9.76533E-001	3.57650E+000	9	...........
	124	1.66667	9.79685E-001	4.01130E-004	0.00000E+000	3.92981E-004	2.40040E-001	9.80014E-001	3.57650E+000	9	...........
	125	1.68	9.83132E-001	4.02478E-004	0.00000E+000	3.95689E-004	2.40040E-001	9.83455E-001	3.57650E+000	9	...........
	126	1.69333	9.86514E-001	4.01021E-004	0.00000E+000	3.95613E-004	2.40040E-001	9.86851E-001	3.57650E+000	9	...........
	127	1.70667	9.89894E-001	3.99537E-004	0.00000E+000	3.95500E-004	2.40040E-001	9.90204E-001	3.57650E+000	9	...........
	128	1.72	9.93177E-001	4.01223E-004	0.00000E+000	3.98486E-004	2.40040E-001	9.93491E-001	3.57650E+000	9	...........
	129	1.73333	9.96430E-001	4.01000E-004	0.00000E+000	3.99569E-004	2.40040E-001	9.96756E-001	3.57650E+000	9	...........
	130	1.74333	9.99367E-001	4.00519E-004	0.00000E+000	4.00266E-004	2.40040E-001	9.99649E-001	3.57650E+000	9	...........
STARTTIMEOFFSET	QUANT	679.4535	Start Time Offset (s)
