EXPLAIN
TAG	PWR800_CHARGE
TITLE	LABEL	PWR Cyclic Charge Discharge (Cell) - Charge Step	Test &Identifier
DATE	LABEL	12-7-2017	Date
TIME	LABEL	15:08:43	Time
NOTES	NOTES	3	&Notes...
	supercap test cell
	0.4mg
	6M KOH
PSTAT	PSTAT	IFC5000-01520	Potentiostat
CAPACITY	QUANT	1.00000E-003	Capacity (A-hr)
CELLTYPE	SELECTOR	1	&Cell Type
WORKINGCONNECTION	SELECTOR	0	&Working Lead
MAXCHARGETIME	VARIABLEANDUNITS	1.00000E+002	s	1.00000E+002	second(s)	Max &Charge Time
CHARGECURRENT	QUANT	4.00000E-004	&Charge Current (A) 
VOLTAGEFINISH	TWOPARAM	F	1.00000E-003	3.60000E+003	&Voltage Finish	 I (A) < 	Max Time(s)
SAMPLETIME	QUANT	1.00000E-002	Sa&mple Period (s)
CHARGESTOPAT1	MULTIPARAM	4	1.00000E+000	Charge Stop At &1	Voltage > Limit	V
CHARGESTOPAT2	MULTIPARAM	0	0.00000E+000	Charge Stop At &2	None	N/A
AESBHCSELECTOR	TOGGLE	F	Save Both Half Cells
IRCOMP	TOGGLE	F	IR &Measure
EOC	QUANT	0	Open Circuit (V)
SEQUENCER	TOGGLE	TRUE	Run as Sequence
PSTATMODEL	IQUANT	53	Pstat Model
PSTATSECTION	LABEL	IFC5000-01520	Pstat Section
PSTATSERIALNO	LABEL	01520	Pstat Serial Number
CTRLMODE	IQUANT	0	Control Mode
ELECTROMETER	IQUANT	1	RE=0 or CS=1
IESTAB	IQUANT	0	I/E Stability
CASPEED	IQUANT	4	Control Amp Speed
CONVENTION	IQUANT	1	Current Convention
ICHRANGE	IQUANT	2	Ich Range
ICHRANGEMODE	TOGGLE	T	Ich Auto Range
ICHOFFSETENABLE	TOGGLE	F	Ich Offset Enable
ICHOFFSET	QUANT	0	Ich Offset (V)
ICHFILTER	IQUANT	1	Ich Filter
VCHRANGE	IQUANT	2	Vch Range
VCHRANGEMODE	TOGGLE	T	Vch Auto Range
VCHOFFSETENABLE	TOGGLE	F	Vch Offset Enable
VCHOFFSET	QUANT	0	Vch Offset (V)
VCHFILTER	IQUANT	1	Vch Filter
IERANGELOWERLIMIT	IQUANT	9	I/E Range Lower Limit
IERANGEMODE	TOGGLE	F	I/E AutoRange
IERANGE	IQUANT	9	I/E Range
ACHSELECT	IQUANT	1	Ach Select
ACHRANGE	IQUANT	2	Ach Range
ACHOFFSETENABLE	TOGGLE	F	Ach Offset Enable
ACHOFFSET	QUANT	0	Ach Offset (V)
ACHFILTER	IQUANT	1	Ach Filter
CABLEID	IQUANT	14	Cable ID
DCCALDATE	LABEL	5-7-2017	DC Calibration Date
ACCALDATE	LABEL	12/3/2015	AC Calibration Date
FRAMEWORKVERSION	QUANT	7.01	Framework Version
INSTRUMENTVERSION	LABEL	4.00	Instrument Version
CURVE	TABLE	110
	Pt	T	Vf	Im	Vu	Pwr	Sig	Ach	Temp	IERange	Over
	#	s	V	A	V	W	V	V	deg C	#	bits
	0	0.013333	3.80963E-001	3.99811E-004	0.00000E+000	1.52313E-004	2.40040E-001	3.81055E-001	3.57710E+000	9	...........
	1	0.026667	3.93374E-001	4.00853E-004	0.00000E+000	1.57685E-004	2.40040E-001	3.93446E-001	3.57710E+000	9	...........
	2	0.04	4.03932E-001	4.00822E-004	0.00000E+000	1.61905E-004	2.40040E-001	4.04008E-001	3.57710E+000	9	...........
	3	0.053333	4.13508E-001	4.01446E-004	0.00000E+000	1.66001E-004	2.40040E-001	4.13596E-001	3.57710E+000	9	...........
	4	0.066667	4.22432E-001	4.00514E-004	0.00000E+000	1.69190E-004	2.40040E-001	4.22517E-001	3.57710E+000	9	...........
	5	0.08	4.30924E-001	4.00240E-004	0.00000E+000	1.72473E-004	2.40040E-001	4.31009E-001	3.57710E+000	9	...........
	6	0.093333	4.39152E-001	4.01097E-004	0.00000E+000	1.76143E-004	2.40040E-001	4.39246E-001	3.57710E+000	9	...........
	7	0.106667	4.47005E-001	4.00472E-004	0.00000E+000	1.79013E-004	2.40040E-001	4.47098E-001	3.57710E+000	9	...........
	8	0.12	4.54683E-001	4.02140E-004	0.00000E+000	1.82846E-004	2.40040E-001	4.54773E-001	3.57710E+000	9	...........
	9	0.133333	4.62143E-001	4.00981E-004	0.00000E+000	1.85311E-004	2.40040E-001	4.62226E-001	3.57710E+000	9	...........
	10	0.146667	4.69514E-001	4.00655E-004	0.00000E+000	1.88113E-004	2.40040E-001	4.69607E-001	3.57710E+000	9	...........
	11	0.16	4.76769E-001	4.01507E-004	0.00000E+000	1.91426E-004	2.40040E-001	4.76860E-001	3.57710E+000	9	...........
	12	0.173333	4.83886E-001	4.02447E-004	0.00000E+000	1.94739E-004	2.40040E-001	4.83983E-001	3.57710E+000	9	...........
	13	0.186667	4.90926E-001	4.01648E-004	0.00000E+000	1.97179E-004	2.40040E-001	4.91017E-001	3.57710E+000	9	...........
	14	0.2	4.97824E-001	4.00466E-004	0.00000E+000	1.99361E-004	2.40040E-001	4.97923E-001	3.57710E+000	9	...........
	15	0.213333	5.04660E-001	4.01019E-004	0.00000E+000	2.02378E-004	2.40040E-001	5.04766E-001	3.57710E+000	9	...........
	16	0.226667	5.11460E-001	4.00348E-004	0.00000E+000	2.04762E-004	2.40040E-001	5.11567E-001	3.57710E+000	9	...........
	17	0.24	5.18207E-001	4.01692E-004	0.00000E+000	2.08160E-004	2.40040E-001	5.18313E-001	3.57710E+000	9	...........
	18	0.253333	5.24890E-001	4.01912E-004	0.00000E+000	2.10959E-004	2.40040E-001	5.25001E-001	3.57710E+000	9	...........
	19	0.266667	5.31426E-001	4.01037E-004	0.00000E+000	2.13121E-004	2.40040E-001	5.31523E-001	3.57710E+000	9	...........
	20	0.28	5.37713E-001	4.00512E-004	0.00000E+000	2.15360E-004	2.40040E-001	5.37944E-001	3.57710E+000	9	...........
	21	0.293333	5.44279E-001	4.00865E-004	0.00000E+000	2.18182E-004	2.40040E-001	5.44497E-001	3.57710E+000	9	...........
	22	0.306667	5.50699E-001	4.02230E-004	0.00000E+000	2.21507E-004	2.40040E-001	5.50935E-001	3.57710E+000	9	...........
	23	0.32	5.57147E-001	4.01321E-004	0.00000E+000	2.23595E-004	2.40040E-001	5.57366E-001	3.57710E+000	9	...........
	24	0.333333	5.63562E-001	4.01603E-004	0.00000E+000	2.26329E-004	2.40040E-001	5.63812E-001	3.57710E+000	9	...........
	25	0.346667	5.69891E-001	4.01252E-004	0.00000E+000	2.28670E-004	2.40040E-001	5.70080E-001	3.57710E+000	9	...........
	26	0.36	5.76222E-001	4.02082E-004	0.00000E+000	2.31688E-004	2.40040E-001	5.76460E-001	3.57710E+000	9	...........
	27	0.373333	5.82527E-001	4.00239E-004	0.00000E+000	2.33150E-004	2.40040E-001	5.82781E-001	3.57710E+000	9	...........
	28	0.386667	5.88867E-001	4.00467E-004	0.00000E+000	2.35821E-004	2.40040E-001	5.89107E-001	3.57710E+000	9	...........
	29	0.4	5.95119E-001	4.00411E-004	0.00000E+000	2.38292E-004	2.40040E-001	5.95366E-001	3.57711E+000	9	...........
	30	0.413333	6.01354E-001	4.02143E-004	0.00000E+000	2.41830E-004	2.40040E-001	6.01627E-001	3.57720E+000	9	...........
	31	0.426667	6.07541E-001	4.01456E-004	0.00000E+000	2.43901E-004	2.40040E-001	6.07808E-001	3.57720E+000	9	...........
	32	0.44	6.13686E-001	4.01777E-004	0.00000E+000	2.46565E-004	2.40040E-001	6.13934E-001	3.57720E+000	9	...........
	33	0.453333	6.19863E-001	4.00790E-004	0.00000E+000	2.48435E-004	2.40040E-001	6.20062E-001	3.57720E+000	9	...........
	34	0.466667	6.25974E-001	4.01672E-004	0.00000E+000	2.51436E-004	2.40040E-001	6.26182E-001	3.57720E+000	9	...........
	35	0.48	6.32038E-001	4.01992E-004	0.00000E+000	2.54074E-004	2.40040E-001	6.32241E-001	3.57720E+000	9	...........
	36	0.493333	6.38103E-001	3.99802E-004	0.00000E+000	2.55115E-004	2.40040E-001	6.38304E-001	3.57720E+000	9	...........
	37	0.506667	6.44118E-001	4.00097E-004	0.00000E+000	2.57710E-004	2.40040E-001	6.44326E-001	3.57720E+000	9	...........
	38	0.52	6.50122E-001	4.00635E-004	0.00000E+000	2.60461E-004	2.40040E-001	6.50347E-001	3.57720E+000	9	...........
	39	0.533333	6.56191E-001	4.02189E-004	0.00000E+000	2.63913E-004	2.40040E-001	6.56404E-001	3.57720E+000	9	...........
	40	0.546667	6.62149E-001	4.00726E-004	0.00000E+000	2.65340E-004	2.40040E-001	6.62387E-001	3.57720E+000	9	...........
	41	0.56	6.68141E-001	4.01294E-004	0.00000E+000	2.68121E-004	2.40040E-001	6.68352E-001	3.57720E+000	9	...........
	42	0.573333	6.73987E-001	4.01323E-004	0.00000E+000	2.70487E-004	2.40040E-001	6.74190E-001	3.57720E+000	9	...........
	43	0.586667	6.79906E-001	4.00021E-004	0.00000E+000	2.71977E-004	2.40040E-001	6.80134E-001	3.57720E+000	9	...........
	44	0.6	6.85802E-001	4.00356E-004	0.00000E+000	2.74565E-004	2.40040E-001	6.86012E-001	3.57720E+000	9	...........
	45	0.613333	6.91720E-001	4.00654E-004	0.00000E+000	2.77140E-004	2.40040E-001	6.91932E-001	3.57720E+000	9	...........
	46	0.626667	6.97565E-001	4.01913E-004	0.00000E+000	2.80361E-004	2.40040E-001	6.97830E-001	3.57720E+000	9	...........
	47	0.64	7.03384E-001	4.02136E-004	0.00000E+000	2.82856E-004	2.40040E-001	7.03624E-001	3.57720E+000	9	...........
	48	0.653333	7.09184E-001	4.00288E-004	0.00000E+000	2.83877E-004	2.40040E-001	7.09429E-001	3.57720E+000	9	...........
	49	0.666667	7.14958E-001	4.01445E-004	0.00000E+000	2.87016E-004	2.40040E-001	7.15174E-001	3.57720E+000	9	...........
	50	0.68	7.20705E-001	4.00986E-004	0.00000E+000	2.88992E-004	2.40040E-001	7.20899E-001	3.57720E+000	9	...........
	51	0.693333	7.26391E-001	4.00645E-004	0.00000E+000	2.91025E-004	2.40040E-001	7.26575E-001	3.57720E+000	9	...........
	52	0.706667	7.32054E-001	4.00595E-004	0.00000E+000	2.93257E-004	2.40040E-001	7.32270E-001	3.57720E+000	9	...........
	53	0.72	7.37698E-001	4.01017E-004	0.00000E+000	2.95829E-004	2.40040E-001	7.37910E-001	3.57720E+000	9	...........
	54	0.733333	7.43316E-001	4.00883E-004	0.00000E+000	2.97982E-004	2.40040E-001	7.43531E-001	3.57720E+000	9	...........
	55	0.746667	7.48958E-001	4.00637E-004	0.00000E+000	3.00060E-004	2.40040E-001	7.49135E-001	3.57720E+000	9	...........
	56	0.76	7.54574E-001	4.01726E-004	0.00000E+000	3.03132E-004	2.40040E-001	7.54771E-001	3.57720E+000	9	...........
	57	0.773333	7.60157E-001	4.00964E-004	0.00000E+000	3.04796E-004	2.40040E-001	7.60359E-001	3.57720E+000	9	...........
	58	0.786667	7.65686E-001	4.00922E-004	0.00000E+000	3.06980E-004	2.40040E-001	7.65927E-001	3.57720E+000	9	...........
	59	0.8	7.71221E-001	4.01796E-004	0.00000E+000	3.09874E-004	2.40040E-001	7.71442E-001	3.57720E+000	9	...........
	60	0.813333	7.76637E-001	4.01208E-004	0.00000E+000	3.11593E-004	2.40040E-001	7.76875E-001	3.57720E+000	9	...........
	61	0.826667	7.82063E-001	4.00384E-004	0.00000E+000	3.13126E-004	2.40040E-001	7.82282E-001	3.57720E+000	9	...........
	62	0.84	7.87502E-001	4.00666E-004	0.00000E+000	3.15525E-004	2.40040E-001	7.87734E-001	3.57720E+000	9	...........
	63	0.853333	7.92851E-001	4.00947E-004	0.00000E+000	3.17891E-004	2.40040E-001	7.93037E-001	3.57720E+000	9	...........
	64	0.866667	7.98215E-001	4.00237E-004	0.00000E+000	3.19475E-004	2.40040E-001	7.98433E-001	3.57720E+000	9	...........
	65	0.88	8.03468E-001	4.00746E-004	0.00000E+000	3.21987E-004	2.40040E-001	8.03701E-001	3.57720E+000	9	...........
	66	0.893333	8.08693E-001	3.99939E-004	0.00000E+000	3.23427E-004	2.40040E-001	8.08923E-001	3.57720E+000	9	...........
	67	0.906667	8.13860E-001	4.02117E-004	0.00000E+000	3.27267E-004	2.40040E-001	8.14120E-001	3.57720E+000	9	...........
	68	0.92	8.19057E-001	3.99983E-004	0.00000E+000	3.27609E-004	2.40040E-001	8.19291E-001	3.57720E+000	9	...........
	69	0.933333	8.24279E-001	4.00620E-004	0.00000E+000	3.30222E-004	2.40040E-001	8.24523E-001	3.57720E+000	9	...........
	70	0.946667	8.29412E-001	4.01044E-004	0.00000E+000	3.32631E-004	2.40040E-001	8.29651E-001	3.57720E+000	9	...........
	71	0.96	8.34491E-001	4.02870E-004	0.00000E+000	3.36192E-004	2.40040E-001	8.34768E-001	3.57720E+000	9	...........
	72	0.97333	8.39525E-001	4.00921E-004	0.00000E+000	3.36583E-004	2.40040E-001	8.39817E-001	3.57720E+000	9	...........
	73	0.98667	8.44544E-001	4.01735E-004	0.00000E+000	3.39283E-004	2.40040E-001	8.44833E-001	3.57720E+000	9	...........
	74	1	8.49529E-001	4.01296E-004	0.00000E+000	3.40913E-004	2.40040E-001	8.49813E-001	3.57720E+000	9	...........
	75	1.01333	8.54496E-001	4.01136E-004	0.00000E+000	3.42769E-004	2.40040E-001	8.54766E-001	3.57720E+000	9	...........
	76	1.02667	8.59374E-001	4.00928E-004	0.00000E+000	3.44547E-004	2.40040E-001	8.59667E-001	3.57720E+000	9	...........
	77	1.04	8.64170E-001	4.00315E-004	0.00000E+000	3.45940E-004	2.40040E-001	8.64482E-001	3.57720E+000	9	...........
	78	1.05333	8.69045E-001	4.00696E-004	0.00000E+000	3.48223E-004	2.40040E-001	8.69349E-001	3.57720E+000	9	...........
	79	1.06667	8.73842E-001	4.00768E-004	0.00000E+000	3.50208E-004	2.40040E-001	8.74152E-001	3.57720E+000	9	...........
	80	1.08	8.78601E-001	4.00841E-004	0.00000E+000	3.52179E-004	2.40040E-001	8.78897E-001	3.57720E+000	9	...........
	81	1.09333	8.83344E-001	4.00980E-004	0.00000E+000	3.54204E-004	2.40040E-001	8.83643E-001	3.57720E+000	9	...........
	82	1.10667	8.88012E-001	3.99709E-004	0.00000E+000	3.54947E-004	2.40040E-001	8.88321E-001	3.57720E+000	9	...........
	83	1.12	8.92674E-001	4.02155E-004	0.00000E+000	3.58993E-004	2.40040E-001	8.92974E-001	3.57720E+000	9	...........
	84	1.13333	8.97231E-001	4.00521E-004	0.00000E+000	3.59360E-004	2.40040E-001	8.97562E-001	3.57720E+000	9	...........
	85	1.14667	9.01750E-001	4.01055E-004	0.00000E+000	3.61652E-004	2.40040E-001	9.02045E-001	3.57720E+000	9	...........
	86	1.16	9.06283E-001	3.99706E-004	0.00000E+000	3.62247E-004	2.40040E-001	9.06613E-001	3.57720E+000	9	...........
	87	1.17333	9.10847E-001	4.00990E-004	0.00000E+000	3.65240E-004	2.40040E-001	9.11170E-001	3.57720E+000	9	...........
	88	1.18667	9.15307E-001	4.00238E-004	0.00000E+000	3.66340E-004	2.40040E-001	9.15605E-001	3.57720E+000	9	...........
	89	1.2	9.19700E-001	4.00822E-004	0.00000E+000	3.68636E-004	2.40040E-001	9.19987E-001	3.57720E+000	9	...........
	90	1.21333	9.24102E-001	3.99806E-004	0.00000E+000	3.69462E-004	2.40040E-001	9.24388E-001	3.57720E+000	9	...........
	91	1.22667	9.28445E-001	4.01401E-004	0.00000E+000	3.72679E-004	2.40040E-001	9.28732E-001	3.57720E+000	9	...........
	92	1.24	9.32660E-001	4.01334E-004	0.00000E+000	3.74308E-004	2.40040E-001	9.32979E-001	3.57720E+000	9	...........
	93	1.25333	9.36978E-001	4.00937E-004	0.00000E+000	3.75669E-004	2.40040E-001	9.37295E-001	3.57720E+000	9	...........
	94	1.26667	9.41223E-001	4.01847E-004	0.00000E+000	3.78228E-004	2.40040E-001	9.41525E-001	3.57720E+000	9	...........
	95	1.28	9.45370E-001	4.00439E-004	0.00000E+000	3.78563E-004	2.40040E-001	9.45690E-001	3.57720E+000	9	...........
	96	1.29333	9.49606E-001	4.01473E-004	0.00000E+000	3.81241E-004	2.40040E-001	9.49920E-001	3.57720E+000	9	...........
	97	1.30667	9.53753E-001	4.01780E-004	0.00000E+000	3.83198E-004	2.40040E-001	9.54053E-001	3.57720E+000	9	...........
	98	1.32	9.57765E-001	4.01121E-004	0.00000E+000	3.84180E-004	2.40040E-001	9.58076E-001	3.57720E+000	9	...........
	99	1.33333	9.61757E-001	4.00310E-004	0.00000E+000	3.85001E-004	2.40040E-001	9.62101E-001	3.57720E+000	9	...........
	100	1.34667	9.65735E-001	4.01493E-004	0.00000E+000	3.87736E-004	2.40040E-001	9.66096E-001	3.57720E+000	9	...........
	101	1.36	9.69697E-001	4.02466E-004	0.00000E+000	3.90270E-004	2.40040E-001	9.70076E-001	3.57720E+000	9	...........
	102	1.37333	9.73638E-001	3.99929E-004	0.00000E+000	3.89386E-004	2.40040E-001	9.73975E-001	3.57720E+000	9	...........
	103	1.38667	9.77501E-001	4.00766E-004	0.00000E+000	3.91749E-004	2.40040E-001	9.77824E-001	3.57720E+000	9	...........
	104	1.4	9.81319E-001	4.01439E-004	0.00000E+000	3.93940E-004	2.40040E-001	9.81664E-001	3.57721E+000	9	...........
	105	1.41333	9.85136E-001	4.00591E-004	0.00000E+000	3.94636E-004	2.40040E-001	9.85451E-001	3.57730E+000	9	...........
	106	1.42667	9.88868E-001	4.00549E-004	0.00000E+000	3.96090E-004	2.40040E-001	9.89195E-001	3.57730E+000	9	...........
	107	1.44	9.92557E-001	4.00721E-004	0.00000E+000	3.97738E-004	2.40040E-001	9.92892E-001	3.57730E+000	9	...........
	108	1.45333	9.96197E-001	4.01560E-004	0.00000E+000	4.00033E-004	2.40040E-001	9.96515E-001	3.57730E+000	9	...........
	109	1.46167	9.99148E-001	4.01717E-004	0.00000E+000	4.01375E-004	2.40040E-001	9.99477E-001	3.57730E+000	9	...........
STARTTIMEOFFSET	QUANT	2380.36	Start Time Offset (s)
