EXPLAIN
TAG	PWR800_CHARGE
TITLE	LABEL	PWR Cyclic Charge Discharge (Cell) - Charge Step	Test &Identifier
DATE	LABEL	12-7-2017	Date
TIME	LABEL	15:11:47	Time
NOTES	NOTES	3	&Notes...
	supercap test cell
	0.4mg
	6M KOH
PSTAT	PSTAT	IFC5000-01520	Potentiostat
CAPACITY	QUANT	1.00000E-003	Capacity (A-hr)
CELLTYPE	SELECTOR	1	&Cell Type
WORKINGCONNECTION	SELECTOR	0	&Working Lead
MAXCHARGETIME	VARIABLEANDUNITS	1.00000E+002	s	1.00000E+002	second(s)	Max &Charge Time
CHARGECURRENT	QUANT	4.00000E-004	&Charge Current (A) 
VOLTAGEFINISH	TWOPARAM	F	1.00000E-003	3.60000E+003	&Voltage Finish	 I (A) < 	Max Time(s)
SAMPLETIME	QUANT	1.00000E-002	Sa&mple Period (s)
CHARGESTOPAT1	MULTIPARAM	4	1.00000E+000	Charge Stop At &1	Voltage > Limit	V
CHARGESTOPAT2	MULTIPARAM	0	0.00000E+000	Charge Stop At &2	None	N/A
AESBHCSELECTOR	TOGGLE	F	Save Both Half Cells
IRCOMP	TOGGLE	F	IR &Measure
EOC	QUANT	0	Open Circuit (V)
SEQUENCER	TOGGLE	TRUE	Run as Sequence
PSTATMODEL	IQUANT	53	Pstat Model
PSTATSECTION	LABEL	IFC5000-01520	Pstat Section
PSTATSERIALNO	LABEL	01520	Pstat Serial Number
CTRLMODE	IQUANT	0	Control Mode
ELECTROMETER	IQUANT	1	RE=0 or CS=1
IESTAB	IQUANT	0	I/E Stability
CASPEED	IQUANT	4	Control Amp Speed
CONVENTION	IQUANT	1	Current Convention
ICHRANGE	IQUANT	2	Ich Range
ICHRANGEMODE	TOGGLE	T	Ich Auto Range
ICHOFFSETENABLE	TOGGLE	F	Ich Offset Enable
ICHOFFSET	QUANT	0	Ich Offset (V)
ICHFILTER	IQUANT	1	Ich Filter
VCHRANGE	IQUANT	2	Vch Range
VCHRANGEMODE	TOGGLE	T	Vch Auto Range
VCHOFFSETENABLE	TOGGLE	F	Vch Offset Enable
VCHOFFSET	QUANT	0	Vch Offset (V)
VCHFILTER	IQUANT	1	Vch Filter
IERANGELOWERLIMIT	IQUANT	9	I/E Range Lower Limit
IERANGEMODE	TOGGLE	F	I/E AutoRange
IERANGE	IQUANT	9	I/E Range
ACHSELECT	IQUANT	1	Ach Select
ACHRANGE	IQUANT	2	Ach Range
ACHOFFSETENABLE	TOGGLE	F	Ach Offset Enable
ACHOFFSET	QUANT	0	Ach Offset (V)
ACHFILTER	IQUANT	1	Ach Filter
CABLEID	IQUANT	14	Cable ID
DCCALDATE	LABEL	5-7-2017	DC Calibration Date
ACCALDATE	LABEL	12/3/2015	AC Calibration Date
FRAMEWORKVERSION	QUANT	7.01	Framework Version
INSTRUMENTVERSION	LABEL	4.00	Instrument Version
CURVE	TABLE	109
	Pt	T	Vf	Im	Vu	Pwr	Sig	Ach	Temp	IERange	Over
	#	s	V	A	V	W	V	V	deg C	#	bits
	0	0.013333	3.83946E-001	4.01384E-004	0.00000E+000	1.54110E-004	2.40040E-001	3.84046E-001	3.57630E+000	9	...........
	1	0.026667	3.96287E-001	4.00485E-004	0.00000E+000	1.58707E-004	2.40040E-001	3.96364E-001	3.57630E+000	9	...........
	2	0.04	4.06943E-001	4.00823E-004	0.00000E+000	1.63112E-004	2.40040E-001	4.07020E-001	3.57630E+000	9	...........
	3	0.053333	4.16562E-001	4.01890E-004	0.00000E+000	1.67412E-004	2.40040E-001	4.16643E-001	3.57630E+000	9	...........
	4	0.066667	4.25506E-001	4.00795E-004	0.00000E+000	1.70541E-004	2.40040E-001	4.25590E-001	3.57630E+000	9	...........
	5	0.08	4.34010E-001	4.02260E-004	0.00000E+000	1.74585E-004	2.40040E-001	4.34098E-001	3.57630E+000	9	...........
	6	0.093333	4.42216E-001	4.01413E-004	0.00000E+000	1.77511E-004	2.40040E-001	4.42299E-001	3.57630E+000	9	...........
	7	0.106667	4.50105E-001	4.01142E-004	0.00000E+000	1.80556E-004	2.40040E-001	4.50194E-001	3.57630E+000	9	...........
	8	0.12	4.57787E-001	4.00533E-004	0.00000E+000	1.83359E-004	2.40040E-001	4.57876E-001	3.57630E+000	9	...........
	9	0.133333	4.65332E-001	4.01222E-004	0.00000E+000	1.86701E-004	2.40040E-001	4.65424E-001	3.57630E+000	9	...........
	10	0.146667	4.72748E-001	4.00346E-004	0.00000E+000	1.89263E-004	2.40040E-001	4.72835E-001	3.57630E+000	9	...........
	11	0.16	4.80078E-001	4.00713E-004	0.00000E+000	1.92373E-004	2.40040E-001	4.80171E-001	3.57630E+000	9	...........
	12	0.173333	4.87209E-001	4.01421E-004	0.00000E+000	1.95576E-004	2.40040E-001	4.87303E-001	3.57630E+000	9	...........
	13	0.186667	4.94254E-001	4.01439E-004	0.00000E+000	1.98413E-004	2.40040E-001	4.94354E-001	3.57630E+000	9	...........
	14	0.2	5.01203E-001	4.00259E-004	0.00000E+000	2.00611E-004	2.40040E-001	5.01305E-001	3.57630E+000	9	...........
	15	0.213333	5.08119E-001	4.01689E-004	0.00000E+000	2.04106E-004	2.40040E-001	5.08225E-001	3.57630E+000	9	...........
	16	0.226667	5.14988E-001	4.00101E-004	0.00000E+000	2.06047E-004	2.40040E-001	5.15096E-001	3.57630E+000	9	...........
	17	0.24	5.21731E-001	4.01939E-004	0.00000E+000	2.09704E-004	2.40040E-001	5.21839E-001	3.57630E+000	9	...........
	18	0.253333	5.28464E-001	4.01465E-004	0.00000E+000	2.12160E-004	2.40040E-001	5.28573E-001	3.57630E+000	9	...........
	19	0.266667	5.34910E-001	4.00021E-004	0.00000E+000	2.13975E-004	2.40040E-001	5.35057E-001	3.57630E+000	9	...........
	20	0.28	5.41418E-001	4.01439E-004	0.00000E+000	2.17346E-004	2.40040E-001	5.41644E-001	3.57655E+000	9	...........
	21	0.293333	5.47946E-001	4.00399E-004	0.00000E+000	2.19397E-004	2.40040E-001	5.48159E-001	3.57670E+000	9	...........
	22	0.306667	5.54470E-001	4.01628E-004	0.00000E+000	2.22691E-004	2.40040E-001	5.54706E-001	3.57670E+000	9	...........
	23	0.32	5.61001E-001	4.00848E-004	0.00000E+000	2.24876E-004	2.40040E-001	5.61251E-001	3.57670E+000	9	...........
	24	0.333333	5.67430E-001	4.01506E-004	0.00000E+000	2.27826E-004	2.40040E-001	5.67653E-001	3.57670E+000	9	...........
	25	0.346667	5.73768E-001	4.00223E-004	0.00000E+000	2.29635E-004	2.40040E-001	5.73988E-001	3.57670E+000	9	...........
	26	0.36	5.80098E-001	4.00443E-004	0.00000E+000	2.32296E-004	2.40040E-001	5.80345E-001	3.57670E+000	9	...........
	27	0.373333	5.86382E-001	4.00504E-004	0.00000E+000	2.34848E-004	2.40040E-001	5.86618E-001	3.57670E+000	9	...........
	28	0.386667	5.92724E-001	4.00226E-004	0.00000E+000	2.37224E-004	2.40040E-001	5.92983E-001	3.57670E+000	9	...........
	29	0.4	5.98972E-001	4.01990E-004	0.00000E+000	2.40781E-004	2.40040E-001	5.99221E-001	3.57670E+000	9	...........
	30	0.413333	6.05188E-001	4.02476E-004	0.00000E+000	2.43573E-004	2.40040E-001	6.05458E-001	3.57670E+000	9	...........
	31	0.426667	6.11402E-001	4.01806E-004	0.00000E+000	2.45665E-004	2.40040E-001	6.11679E-001	3.57670E+000	9	...........
	32	0.44	6.17686E-001	3.99134E-004	0.00000E+000	2.46540E-004	2.40040E-001	6.17927E-001	3.57670E+000	9	...........
	33	0.453333	6.23861E-001	4.00845E-004	0.00000E+000	2.50071E-004	2.40040E-001	6.24101E-001	3.57670E+000	9	...........
	34	0.466667	6.30008E-001	4.00691E-004	0.00000E+000	2.52438E-004	2.40040E-001	6.30236E-001	3.57670E+000	9	...........
	35	0.48	6.36122E-001	4.00503E-004	0.00000E+000	2.54769E-004	2.40040E-001	6.36358E-001	3.57670E+000	9	...........
	36	0.493333	6.42331E-001	4.00049E-004	0.00000E+000	2.56964E-004	2.40040E-001	6.42541E-001	3.57670E+000	9	...........
	37	0.506667	6.48410E-001	4.01415E-004	0.00000E+000	2.60281E-004	2.40040E-001	6.48619E-001	3.57670E+000	9	...........
	38	0.52	6.54431E-001	4.00867E-004	0.00000E+000	2.62340E-004	2.40040E-001	6.54664E-001	3.57670E+000	9	...........
	39	0.533333	6.60423E-001	4.01233E-004	0.00000E+000	2.64983E-004	2.40040E-001	6.60638E-001	3.57670E+000	9	...........
	40	0.546667	6.66473E-001	4.00830E-004	0.00000E+000	2.67143E-004	2.40040E-001	6.66678E-001	3.57670E+000	9	...........
	41	0.56	6.72435E-001	4.00456E-004	0.00000E+000	2.69281E-004	2.40040E-001	6.72605E-001	3.57670E+000	9	...........
	42	0.573333	6.78407E-001	4.00010E-004	0.00000E+000	2.71370E-004	2.40040E-001	6.78599E-001	3.57670E+000	9	...........
	43	0.586667	6.84298E-001	4.01064E-004	0.00000E+000	2.74447E-004	2.40040E-001	6.84512E-001	3.57670E+000	9	...........
	44	0.6	6.90249E-001	4.01045E-004	0.00000E+000	2.76821E-004	2.40040E-001	6.90479E-001	3.57670E+000	9	...........
	45	0.613333	6.96126E-001	4.02110E-004	0.00000E+000	2.79919E-004	2.40040E-001	6.96359E-001	3.57670E+000	9	...........
	46	0.626667	7.02008E-001	4.01526E-004	0.00000E+000	2.81875E-004	2.40040E-001	7.02239E-001	3.57670E+000	9	...........
	47	0.64	7.07876E-001	4.02243E-004	0.00000E+000	2.84738E-004	2.40040E-001	7.08119E-001	3.57670E+000	9	...........
	48	0.653333	7.13688E-001	4.00531E-004	0.00000E+000	2.85854E-004	2.40040E-001	7.13953E-001	3.57670E+000	9	...........
	49	0.666667	7.19564E-001	4.00092E-004	0.00000E+000	2.87891E-004	2.40040E-001	7.19791E-001	3.57670E+000	9	...........
	50	0.68	7.25327E-001	4.02374E-004	0.00000E+000	2.91853E-004	2.40040E-001	7.25573E-001	3.57670E+000	9	...........
	51	0.693333	7.31034E-001	4.00546E-004	0.00000E+000	2.92813E-004	2.40040E-001	7.31261E-001	3.57670E+000	9	...........
	52	0.706667	7.36695E-001	4.00827E-004	0.00000E+000	2.95287E-004	2.40040E-001	7.36923E-001	3.57670E+000	9	...........
	53	0.72	7.42378E-001	4.00096E-004	0.00000E+000	2.97022E-004	2.40040E-001	7.42654E-001	3.57670E+000	9	...........
	54	0.733333	7.48008E-001	4.01261E-004	0.00000E+000	3.00146E-004	2.40040E-001	7.48258E-001	3.57670E+000	9	...........
	55	0.746667	7.53642E-001	4.00924E-004	0.00000E+000	3.02153E-004	2.40040E-001	7.53895E-001	3.57670E+000	9	...........
	56	0.76	7.59243E-001	4.00653E-004	0.00000E+000	3.04193E-004	2.40040E-001	7.59499E-001	3.57670E+000	9	...........
	57	0.773333	7.64822E-001	4.00456E-004	0.00000E+000	3.06278E-004	2.40040E-001	7.65084E-001	3.57670E+000	9	...........
	58	0.786667	7.70416E-001	4.00244E-004	0.00000E+000	3.08354E-004	2.40040E-001	7.70665E-001	3.57670E+000	9	...........
	59	0.8	7.75984E-001	4.01742E-004	0.00000E+000	3.11746E-004	2.40040E-001	7.76245E-001	3.57670E+000	9	...........
	60	0.813333	7.81441E-001	4.01576E-004	0.00000E+000	3.13808E-004	2.40040E-001	7.81697E-001	3.57670E+000	9	...........
	61	0.826667	7.86866E-001	4.01118E-004	0.00000E+000	3.15626E-004	2.40040E-001	7.87109E-001	3.57670E+000	9	...........
	62	0.84	7.92269E-001	4.01335E-004	0.00000E+000	3.17965E-004	2.40040E-001	7.92516E-001	3.57670E+000	9	...........
	63	0.853333	7.97600E-001	4.00204E-004	0.00000E+000	3.19203E-004	2.40040E-001	7.97835E-001	3.57670E+000	9	...........
	64	0.866667	8.02907E-001	4.01247E-004	0.00000E+000	3.22164E-004	2.40040E-001	8.03140E-001	3.57670E+000	9	...........
	65	0.88	8.08166E-001	4.00193E-004	0.00000E+000	3.23422E-004	2.40040E-001	8.08448E-001	3.57670E+000	9	...........
	66	0.893333	8.13457E-001	4.01310E-004	0.00000E+000	3.26448E-004	2.40040E-001	8.13763E-001	3.57670E+000	9	...........
	67	0.906667	8.18734E-001	4.02285E-004	0.00000E+000	3.29364E-004	2.40040E-001	8.19012E-001	3.57670E+000	9	...........
	68	0.92	8.23947E-001	4.01535E-004	0.00000E+000	3.30843E-004	2.40040E-001	8.24228E-001	3.57670E+000	9	...........
	69	0.933333	8.29119E-001	4.02047E-004	0.00000E+000	3.33345E-004	2.40040E-001	8.29387E-001	3.57670E+000	9	...........
	70	0.946667	8.34177E-001	4.00986E-004	0.00000E+000	3.34493E-004	2.40040E-001	8.34482E-001	3.57670E+000	9	...........
	71	0.96	8.39244E-001	4.01292E-004	0.00000E+000	3.36782E-004	2.40040E-001	8.39533E-001	3.57670E+000	9	...........
	72	0.97333	8.44336E-001	4.00363E-004	0.00000E+000	3.38041E-004	2.40040E-001	8.44665E-001	3.57670E+000	9	...........
	73	0.98667	8.49338E-001	4.01281E-004	0.00000E+000	3.40823E-004	2.40040E-001	8.49658E-001	3.57670E+000	9	...........
	74	1	8.54351E-001	4.01002E-004	0.00000E+000	3.42597E-004	2.40040E-001	8.54668E-001	3.57670E+000	9	...........
	75	1.01333	8.59335E-001	4.00518E-004	0.00000E+000	3.44179E-004	2.40040E-001	8.59648E-001	3.57670E+000	9	...........
	76	1.02667	8.64287E-001	3.99906E-004	0.00000E+000	3.45634E-004	2.40040E-001	8.64611E-001	3.57670E+000	9	...........
	77	1.04	8.69184E-001	3.99929E-004	0.00000E+000	3.47612E-004	2.40040E-001	8.69476E-001	3.57670E+000	9	...........
	78	1.05333	8.73994E-001	4.01023E-004	0.00000E+000	3.50492E-004	2.40040E-001	8.74301E-001	3.57670E+000	9	...........
	79	1.06667	8.78789E-001	4.00422E-004	0.00000E+000	3.51886E-004	2.40040E-001	8.79088E-001	3.57670E+000	9	...........
	80	1.08	8.83553E-001	4.01048E-004	0.00000E+000	3.54347E-004	2.40040E-001	8.83873E-001	3.57670E+000	9	...........
	81	1.09333	8.88304E-001	4.02189E-004	0.00000E+000	3.57266E-004	2.40040E-001	8.88612E-001	3.57670E+000	9	...........
	82	1.10667	8.92954E-001	4.01694E-004	0.00000E+000	3.58694E-004	2.40040E-001	8.93297E-001	3.57670E+000	9	...........
	83	1.12	8.97574E-001	4.00430E-004	0.00000E+000	3.59416E-004	2.40040E-001	8.97874E-001	3.57670E+000	9	...........
	84	1.13333	9.02101E-001	4.01109E-004	0.00000E+000	3.61841E-004	2.40040E-001	9.02418E-001	3.57670E+000	9	...........
	85	1.14667	9.06663E-001	4.02691E-004	0.00000E+000	3.65105E-004	2.40040E-001	9.06972E-001	3.57670E+000	9	...........
	86	1.16	9.11168E-001	4.01686E-004	0.00000E+000	3.66003E-004	2.40040E-001	9.11458E-001	3.57670E+000	9	...........
	87	1.17333	9.15596E-001	4.00934E-004	0.00000E+000	3.67093E-004	2.40040E-001	9.15909E-001	3.57670E+000	9	...........
	88	1.18667	9.20030E-001	4.00788E-004	0.00000E+000	3.68737E-004	2.40040E-001	9.20307E-001	3.57670E+000	9	...........
	89	1.2	9.24488E-001	4.01711E-004	0.00000E+000	3.71377E-004	2.40040E-001	9.24762E-001	3.57670E+000	9	...........
	90	1.21333	9.28904E-001	4.00738E-004	0.00000E+000	3.72247E-004	2.40040E-001	9.29178E-001	3.57670E+000	9	...........
	91	1.22667	9.33196E-001	4.01362E-004	0.00000E+000	3.74549E-004	2.40040E-001	9.33480E-001	3.57670E+000	9	...........
	92	1.24	9.37499E-001	4.00874E-004	0.00000E+000	3.75819E-004	2.40040E-001	9.37806E-001	3.57670E+000	9	...........
	93	1.25333	9.41756E-001	4.01272E-004	0.00000E+000	3.77900E-004	2.40040E-001	9.42065E-001	3.57670E+000	9	...........
	94	1.26667	9.45956E-001	4.00696E-004	0.00000E+000	3.79041E-004	2.40040E-001	9.46274E-001	3.57670E+000	9	...........
	95	1.28	9.50155E-001	4.01091E-004	0.00000E+000	3.81099E-004	2.40040E-001	9.50455E-001	3.57670E+000	9	...........
	96	1.29333	9.54268E-001	4.01093E-004	0.00000E+000	3.82750E-004	2.40040E-001	9.54571E-001	3.57670E+000	9	...........
	97	1.30667	9.58379E-001	3.99427E-004	0.00000E+000	3.82803E-004	2.40040E-001	9.58661E-001	3.57670E+000	9	...........
	98	1.32	9.62362E-001	4.00354E-004	0.00000E+000	3.85286E-004	2.40040E-001	9.62675E-001	3.57670E+000	9	...........
	99	1.33333	9.66389E-001	4.00473E-004	0.00000E+000	3.87013E-004	2.40040E-001	9.66705E-001	3.57670E+000	9	...........
	100	1.34667	9.70359E-001	4.02215E-004	0.00000E+000	3.90293E-004	2.40040E-001	9.70696E-001	3.57670E+000	9	...........
	101	1.36	9.74307E-001	4.00403E-004	0.00000E+000	3.90115E-004	2.40040E-001	9.74611E-001	3.57670E+000	9	...........
	102	1.37333	9.78185E-001	4.01708E-004	0.00000E+000	3.92945E-004	2.40040E-001	9.78460E-001	3.57670E+000	9	...........
	103	1.38667	9.81979E-001	4.00682E-004	0.00000E+000	3.93462E-004	2.40040E-001	9.82270E-001	3.57670E+000	9	...........
	104	1.4	9.85758E-001	4.00661E-004	0.00000E+000	3.94954E-004	2.40040E-001	9.86090E-001	3.57670E+000	9	...........
	105	1.41333	9.89553E-001	4.00407E-004	0.00000E+000	3.96224E-004	2.40040E-001	9.89874E-001	3.57670E+000	9	...........
	106	1.42667	9.93230E-001	4.01120E-004	0.00000E+000	3.98404E-004	2.40040E-001	9.93557E-001	3.57670E+000	9	...........
	107	1.44	9.96934E-001	4.01090E-004	0.00000E+000	3.99860E-004	2.40040E-001	9.97270E-001	3.57670E+000	9	...........
	108	1.44667	9.99701E-001	4.01100E-004	0.00000E+000	4.00980E-004	2.40040E-001	1.00001E+000	3.57670E+000	9	...........
STARTTIMEOFFSET	QUANT	2523.177	Start Time Offset (s)
