EXPLAIN
TAG	PWR800_CHARGE
TITLE	LABEL	PWR Cyclic Charge Discharge (Cell) - Charge Step	Test &Identifier
DATE	LABEL	12-7-2017	Date
TIME	LABEL	15:14:23	Time
NOTES	NOTES	3	&Notes...
	supercap test cell
	0.4mg
	6M KOH
PSTAT	PSTAT	IFC5000-01520	Potentiostat
CAPACITY	QUANT	1.00000E-003	Capacity (A-hr)
CELLTYPE	SELECTOR	1	&Cell Type
WORKINGCONNECTION	SELECTOR	0	&Working Lead
MAXCHARGETIME	VARIABLEANDUNITS	1.00000E+002	s	1.00000E+002	second(s)	Max &Charge Time
CHARGECURRENT	QUANT	4.00000E-004	&Charge Current (A) 
VOLTAGEFINISH	TWOPARAM	F	1.00000E-003	3.60000E+003	&Voltage Finish	 I (A) < 	Max Time(s)
SAMPLETIME	QUANT	1.00000E-002	Sa&mple Period (s)
CHARGESTOPAT1	MULTIPARAM	4	1.00000E+000	Charge Stop At &1	Voltage > Limit	V
CHARGESTOPAT2	MULTIPARAM	0	0.00000E+000	Charge Stop At &2	None	N/A
AESBHCSELECTOR	TOGGLE	F	Save Both Half Cells
IRCOMP	TOGGLE	F	IR &Measure
EOC	QUANT	0	Open Circuit (V)
SEQUENCER	TOGGLE	TRUE	Run as Sequence
PSTATMODEL	IQUANT	53	Pstat Model
PSTATSECTION	LABEL	IFC5000-01520	Pstat Section
PSTATSERIALNO	LABEL	01520	Pstat Serial Number
CTRLMODE	IQUANT	0	Control Mode
ELECTROMETER	IQUANT	1	RE=0 or CS=1
IESTAB	IQUANT	0	I/E Stability
CASPEED	IQUANT	4	Control Amp Speed
CONVENTION	IQUANT	1	Current Convention
ICHRANGE	IQUANT	2	Ich Range
ICHRANGEMODE	TOGGLE	T	Ich Auto Range
ICHOFFSETENABLE	TOGGLE	F	Ich Offset Enable
ICHOFFSET	QUANT	0	Ich Offset (V)
ICHFILTER	IQUANT	1	Ich Filter
VCHRANGE	IQUANT	2	Vch Range
VCHRANGEMODE	TOGGLE	T	Vch Auto Range
VCHOFFSETENABLE	TOGGLE	F	Vch Offset Enable
VCHOFFSET	QUANT	0	Vch Offset (V)
VCHFILTER	IQUANT	1	Vch Filter
IERANGELOWERLIMIT	IQUANT	9	I/E Range Lower Limit
IERANGEMODE	TOGGLE	F	I/E AutoRange
IERANGE	IQUANT	9	I/E Range
ACHSELECT	IQUANT	1	Ach Select
ACHRANGE	IQUANT	2	Ach Range
ACHOFFSETENABLE	TOGGLE	F	Ach Offset Enable
ACHOFFSET	QUANT	0	Ach Offset (V)
ACHFILTER	IQUANT	1	Ach Filter
CABLEID	IQUANT	14	Cable ID
DCCALDATE	LABEL	5-7-2017	DC Calibration Date
ACCALDATE	LABEL	12/3/2015	AC Calibration Date
FRAMEWORKVERSION	QUANT	7.01	Framework Version
INSTRUMENTVERSION	LABEL	4.00	Instrument Version
CURVE	TABLE	108
	Pt	T	Vf	Im	Vu	Pwr	Sig	Ach	Temp	IERange	Over
	#	s	V	A	V	W	V	V	deg C	#	bits
	0	0.013333	3.86895E-001	4.01533E-004	0.00000E+000	1.55351E-004	2.40040E-001	3.86991E-001	3.57680E+000	9	...........
	1	0.026667	3.99450E-001	4.00209E-004	0.00000E+000	1.59864E-004	2.40040E-001	3.99529E-001	3.57680E+000	9	...........
	2	0.04	4.10169E-001	4.00945E-004	0.00000E+000	1.64455E-004	2.40040E-001	4.10256E-001	3.57680E+000	9	...........
	3	0.053333	4.19958E-001	4.00084E-004	0.00000E+000	1.68018E-004	2.40040E-001	4.20048E-001	3.57680E+000	9	...........
	4	0.066667	4.29099E-001	4.00704E-004	0.00000E+000	1.71942E-004	2.40040E-001	4.29188E-001	3.57680E+000	9	...........
	5	0.08	4.37686E-001	4.01219E-004	0.00000E+000	1.75608E-004	2.40040E-001	4.37780E-001	3.57680E+000	9	...........
	6	0.093333	4.45946E-001	4.01275E-004	0.00000E+000	1.78947E-004	2.40040E-001	4.46037E-001	3.57680E+000	9	...........
	7	0.106667	4.53994E-001	4.01219E-004	0.00000E+000	1.82151E-004	2.40040E-001	4.54082E-001	3.57680E+000	9	...........
	8	0.12	4.61798E-001	4.01008E-004	0.00000E+000	1.85185E-004	2.40040E-001	4.61891E-001	3.57680E+000	9	...........
	9	0.133333	4.69475E-001	4.00426E-004	0.00000E+000	1.87990E-004	2.40040E-001	4.69570E-001	3.57680E+000	9	...........
	10	0.146667	4.76933E-001	4.01494E-004	0.00000E+000	1.91486E-004	2.40040E-001	4.77030E-001	3.57680E+000	9	...........
	11	0.16	4.84196E-001	4.02310E-004	0.00000E+000	1.94797E-004	2.40040E-001	4.84292E-001	3.57680E+000	9	...........
	12	0.173333	4.91403E-001	4.00583E-004	0.00000E+000	1.96848E-004	2.40040E-001	4.91498E-001	3.57680E+000	9	...........
	13	0.186667	4.98522E-001	4.00283E-004	0.00000E+000	1.99550E-004	2.40040E-001	4.98628E-001	3.57680E+000	9	...........
	14	0.2	5.05507E-001	4.02237E-004	0.00000E+000	2.03334E-004	2.40040E-001	5.05614E-001	3.57680E+000	9	...........
	15	0.213333	5.12460E-001	4.02227E-004	0.00000E+000	2.06125E-004	2.40040E-001	5.12559E-001	3.57680E+000	9	...........
	16	0.226667	5.19436E-001	4.00607E-004	0.00000E+000	2.08090E-004	2.40040E-001	5.19543E-001	3.57680E+000	9	...........
	17	0.24	5.26228E-001	4.01140E-004	0.00000E+000	2.11091E-004	2.40040E-001	5.26333E-001	3.57680E+000	9	...........
	18	0.253333	5.32804E-001	4.01701E-004	0.00000E+000	2.14028E-004	2.40040E-001	5.32908E-001	3.57680E+000	9	...........
	19	0.266667	5.39273E-001	4.01712E-004	0.00000E+000	2.16632E-004	2.40040E-001	5.39499E-001	3.57680E+000	9	...........
	20	0.28	5.45922E-001	4.00757E-004	0.00000E+000	2.18782E-004	2.40040E-001	5.46150E-001	3.57680E+000	9	...........
	21	0.293333	5.52452E-001	3.99938E-004	0.00000E+000	2.20946E-004	2.40040E-001	5.52700E-001	3.57680E+000	9	...........
	22	0.306667	5.59043E-001	4.01299E-004	0.00000E+000	2.24344E-004	2.40040E-001	5.59287E-001	3.57680E+000	9	...........
	23	0.32	5.65580E-001	3.99737E-004	0.00000E+000	2.26084E-004	2.40040E-001	5.65807E-001	3.57680E+000	9	...........
	24	0.333333	5.72037E-001	4.00672E-004	0.00000E+000	2.29199E-004	2.40040E-001	5.72260E-001	3.57680E+000	9	...........
	25	0.346667	5.78468E-001	4.00959E-004	0.00000E+000	2.31942E-004	2.40040E-001	5.78716E-001	3.57680E+000	9	...........
	26	0.36	5.84846E-001	4.00658E-004	0.00000E+000	2.34324E-004	2.40040E-001	5.85102E-001	3.57680E+000	9	...........
	27	0.373333	5.91195E-001	4.00668E-004	0.00000E+000	2.36873E-004	2.40040E-001	5.91458E-001	3.57680E+000	9	...........
	28	0.386667	5.97495E-001	4.01278E-004	0.00000E+000	2.39762E-004	2.40040E-001	5.97746E-001	3.57680E+000	9	...........
	29	0.4	6.03725E-001	4.01371E-004	0.00000E+000	2.42318E-004	2.40040E-001	6.04018E-001	3.57680E+000	9	...........
	30	0.413333	6.09989E-001	4.00655E-004	0.00000E+000	2.44396E-004	2.40040E-001	6.10273E-001	3.57680E+000	9	...........
	31	0.426667	6.16287E-001	4.01067E-004	0.00000E+000	2.47172E-004	2.40040E-001	6.16569E-001	3.57680E+000	9	...........
	32	0.44	6.22554E-001	4.00332E-004	0.00000E+000	2.49229E-004	2.40040E-001	6.22798E-001	3.57680E+000	9	...........
	33	0.453333	6.28795E-001	4.01075E-004	0.00000E+000	2.52194E-004	2.40040E-001	6.29054E-001	3.57680E+000	9	...........
	34	0.466667	6.34961E-001	4.01085E-004	0.00000E+000	2.54673E-004	2.40040E-001	6.35229E-001	3.57680E+000	9	...........
	35	0.48	6.41191E-001	3.99874E-004	0.00000E+000	2.56396E-004	2.40040E-001	6.41429E-001	3.57680E+000	9	...........
	36	0.493333	6.47286E-001	4.01240E-004	0.00000E+000	2.59717E-004	2.40040E-001	6.47537E-001	3.57680E+000	9	...........
	37	0.506667	6.53432E-001	4.01431E-004	0.00000E+000	2.62307E-004	2.40040E-001	6.53647E-001	3.57680E+000	9	...........
	38	0.52	6.59526E-001	4.01293E-004	0.00000E+000	2.64663E-004	2.40040E-001	6.59755E-001	3.57680E+000	9	...........
	39	0.533333	6.65607E-001	4.01422E-004	0.00000E+000	2.67190E-004	2.40040E-001	6.65825E-001	3.57680E+000	9	...........
	40	0.546667	6.71677E-001	4.00739E-004	0.00000E+000	2.69167E-004	2.40040E-001	6.71900E-001	3.57680E+000	9	...........
	41	0.56	6.77631E-001	4.00578E-004	0.00000E+000	2.71444E-004	2.40040E-001	6.77872E-001	3.57680E+000	9	...........
	42	0.573333	6.83560E-001	4.00425E-004	0.00000E+000	2.73715E-004	2.40040E-001	6.83783E-001	3.57680E+000	9	...........
	43	0.586667	6.89568E-001	4.01642E-004	0.00000E+000	2.76959E-004	2.40040E-001	6.89794E-001	3.57680E+000	9	...........
	44	0.6	6.95505E-001	4.00358E-004	0.00000E+000	2.78451E-004	2.40040E-001	6.95744E-001	3.57680E+000	9	...........
	45	0.613333	7.01406E-001	4.00875E-004	0.00000E+000	2.81176E-004	2.40040E-001	7.01640E-001	3.57680E+000	9	...........
	46	0.626667	7.07247E-001	4.00989E-004	0.00000E+000	2.83598E-004	2.40040E-001	7.07513E-001	3.57680E+000	9	...........
	47	0.64	7.13094E-001	4.00344E-004	0.00000E+000	2.85483E-004	2.40040E-001	7.13341E-001	3.57680E+000	9	...........
	48	0.653333	7.19005E-001	4.01023E-004	0.00000E+000	2.88337E-004	2.40040E-001	7.19240E-001	3.57680E+000	9	...........
	49	0.666667	7.24796E-001	4.01413E-004	0.00000E+000	2.90942E-004	2.40040E-001	7.25009E-001	3.57680E+000	9	...........
	50	0.68	7.30559E-001	4.00078E-004	0.00000E+000	2.92281E-004	2.40040E-001	7.30796E-001	3.57680E+000	9	...........
	51	0.693333	7.36271E-001	3.99789E-004	0.00000E+000	2.94353E-004	2.40040E-001	7.36493E-001	3.57680E+000	9	...........
	52	0.706667	7.41987E-001	4.00879E-004	0.00000E+000	2.97447E-004	2.40040E-001	7.42225E-001	3.57680E+000	9	...........
	53	0.72	7.47668E-001	4.01396E-004	0.00000E+000	3.00111E-004	2.40040E-001	7.47904E-001	3.57680E+000	9	...........
	54	0.733333	7.53289E-001	3.99687E-004	0.00000E+000	3.01080E-004	2.40040E-001	7.53516E-001	3.57680E+000	9	...........
	55	0.746667	7.58904E-001	4.00552E-004	0.00000E+000	3.03981E-004	2.40040E-001	7.59117E-001	3.57680E+000	9	...........
	56	0.76	7.64469E-001	4.01166E-004	0.00000E+000	3.06679E-004	2.40040E-001	7.64699E-001	3.57680E+000	9	...........
	57	0.773333	7.70089E-001	3.99817E-004	0.00000E+000	3.07894E-004	2.40040E-001	7.70301E-001	3.57680E+000	9	...........
	58	0.786667	7.75537E-001	4.00504E-004	0.00000E+000	3.10606E-004	2.40040E-001	7.75730E-001	3.57680E+000	9	...........
	59	0.8	7.81048E-001	4.01178E-004	0.00000E+000	3.13339E-004	2.40040E-001	7.81231E-001	3.57680E+000	9	...........
	60	0.813333	7.86502E-001	4.01295E-004	0.00000E+000	3.15619E-004	2.40040E-001	7.86695E-001	3.57680E+000	9	...........
	61	0.826667	7.91947E-001	4.00374E-004	0.00000E+000	3.17075E-004	2.40040E-001	7.92145E-001	3.57680E+000	9	...........
	62	0.84	7.97404E-001	4.00402E-004	0.00000E+000	3.19282E-004	2.40040E-001	7.97595E-001	3.57692E+000	9	...........
	63	0.853333	8.02809E-001	4.01714E-004	0.00000E+000	3.22500E-004	2.40040E-001	8.03032E-001	3.57780E+000	9	...........
	64	0.866667	8.08114E-001	4.00812E-004	0.00000E+000	3.23901E-004	2.40040E-001	8.08353E-001	3.57780E+000	9	...........
	65	0.88	8.13403E-001	4.01750E-004	0.00000E+000	3.26785E-004	2.40040E-001	8.13640E-001	3.57780E+000	9	...........
	66	0.893333	8.18713E-001	3.99666E-004	0.00000E+000	3.27211E-004	2.40040E-001	8.18947E-001	3.57780E+000	9	...........
	67	0.906667	8.23917E-001	4.00612E-004	0.00000E+000	3.30071E-004	2.40040E-001	8.24170E-001	3.57780E+000	9	...........
	68	0.92	8.29104E-001	4.01221E-004	0.00000E+000	3.32654E-004	2.40040E-001	8.29353E-001	3.57780E+000	9	...........
	69	0.933333	8.34272E-001	4.01041E-004	0.00000E+000	3.34577E-004	2.40040E-001	8.34548E-001	3.57780E+000	9	...........
	70	0.946667	8.39459E-001	4.01025E-004	0.00000E+000	3.36644E-004	2.40040E-001	8.39741E-001	3.57780E+000	9	...........
	71	0.96	8.44530E-001	4.00707E-004	0.00000E+000	3.38409E-004	2.40040E-001	8.44793E-001	3.57780E+000	9	...........
	72	0.97333	8.49572E-001	4.02320E-004	0.00000E+000	3.41800E-004	2.40040E-001	8.49851E-001	3.57780E+000	9	...........
	73	0.98667	8.54591E-001	3.99973E-004	0.00000E+000	3.41813E-004	2.40040E-001	8.54887E-001	3.57780E+000	9	...........
	74	1	8.59534E-001	3.99469E-004	0.00000E+000	3.43357E-004	2.40040E-001	8.59838E-001	3.57780E+000	9	...........
	75	1.01333	8.64392E-001	4.00294E-004	0.00000E+000	3.46011E-004	2.40040E-001	8.64696E-001	3.57780E+000	9	...........
	76	1.02667	8.69295E-001	4.01391E-004	0.00000E+000	3.48927E-004	2.40040E-001	8.69613E-001	3.57780E+000	9	...........
	77	1.04	8.74173E-001	4.00795E-004	0.00000E+000	3.50364E-004	2.40040E-001	8.74474E-001	3.57780E+000	9	...........
	78	1.05333	8.78953E-001	4.00676E-004	0.00000E+000	3.52175E-004	2.40040E-001	8.79241E-001	3.57780E+000	9	...........
	79	1.06667	8.83782E-001	4.00394E-004	0.00000E+000	3.53861E-004	2.40040E-001	8.84081E-001	3.57780E+000	9	...........
	80	1.08	8.88467E-001	4.00619E-004	0.00000E+000	3.55937E-004	2.40040E-001	8.88757E-001	3.57780E+000	9	...........
	81	1.09333	8.93085E-001	4.00727E-004	0.00000E+000	3.57884E-004	2.40040E-001	8.93397E-001	3.57780E+000	9	...........
	82	1.10667	8.97777E-001	4.00084E-004	0.00000E+000	3.59187E-004	2.40040E-001	8.98098E-001	3.57780E+000	9	...........
	83	1.12	9.02450E-001	3.99835E-004	0.00000E+000	3.60831E-004	2.40040E-001	9.02767E-001	3.57780E+000	9	...........
	84	1.13333	9.07077E-001	4.00692E-004	0.00000E+000	3.63458E-004	2.40040E-001	9.07360E-001	3.57780E+000	9	...........
	85	1.14667	9.11595E-001	4.01664E-004	0.00000E+000	3.66155E-004	2.40040E-001	9.11907E-001	3.57780E+000	9	...........
	86	1.16	9.16075E-001	4.00765E-004	0.00000E+000	3.67131E-004	2.40040E-001	9.16384E-001	3.57780E+000	9	...........
	87	1.17333	9.20495E-001	4.01523E-004	0.00000E+000	3.69600E-004	2.40040E-001	9.20777E-001	3.57780E+000	9	...........
	88	1.18667	9.24888E-001	3.99598E-004	0.00000E+000	3.69583E-004	2.40040E-001	9.25185E-001	3.57780E+000	9	...........
	89	1.2	9.29280E-001	4.02037E-004	0.00000E+000	3.73605E-004	2.40040E-001	9.29554E-001	3.57780E+000	9	...........
	90	1.21333	9.33599E-001	4.01084E-004	0.00000E+000	3.74451E-004	2.40040E-001	9.33890E-001	3.57780E+000	9	...........
	91	1.22667	9.37876E-001	3.99900E-004	0.00000E+000	3.75056E-004	2.40040E-001	9.38193E-001	3.57780E+000	9	...........
	92	1.24	9.42131E-001	4.00747E-004	0.00000E+000	3.77556E-004	2.40040E-001	9.42419E-001	3.57780E+000	9	...........
	93	1.25333	9.46389E-001	4.01395E-004	0.00000E+000	3.79876E-004	2.40040E-001	9.46664E-001	3.57780E+000	9	...........
	94	1.26667	9.50579E-001	4.01477E-004	0.00000E+000	3.81636E-004	2.40040E-001	9.50824E-001	3.57780E+000	9	...........
	95	1.28	9.54706E-001	4.01225E-004	0.00000E+000	3.83052E-004	2.40040E-001	9.54949E-001	3.57780E+000	9	...........
	96	1.29333	9.58813E-001	4.02120E-004	0.00000E+000	3.85558E-004	2.40040E-001	9.59090E-001	3.57780E+000	9	...........
	97	1.30667	9.62794E-001	4.00404E-004	0.00000E+000	3.85507E-004	2.40040E-001	9.63071E-001	3.57780E+000	9	...........
	98	1.32	9.66751E-001	4.01273E-004	0.00000E+000	3.87931E-004	2.40040E-001	9.67028E-001	3.57780E+000	9	...........
	99	1.33333	9.70773E-001	4.01209E-004	0.00000E+000	3.89482E-004	2.40040E-001	9.71104E-001	3.57780E+000	9	...........
	100	1.34667	9.74770E-001	4.01495E-004	0.00000E+000	3.91366E-004	2.40040E-001	9.75069E-001	3.57780E+000	9	...........
	101	1.36	9.78683E-001	4.00413E-004	0.00000E+000	3.91877E-004	2.40040E-001	9.78970E-001	3.57780E+000	9	...........
	102	1.37333	9.82446E-001	4.01260E-004	0.00000E+000	3.94216E-004	2.40040E-001	9.82771E-001	3.57780E+000	9	...........
	103	1.38667	9.86222E-001	3.99550E-004	0.00000E+000	3.94045E-004	2.40040E-001	9.86565E-001	3.57780E+000	9	...........
	104	1.4	9.90007E-001	4.02311E-004	0.00000E+000	3.98291E-004	2.40040E-001	9.90324E-001	3.57780E+000	9	...........
	105	1.41333	9.93665E-001	4.00995E-004	0.00000E+000	3.98455E-004	2.40040E-001	9.93979E-001	3.57780E+000	9	...........
	106	1.42667	9.97275E-001	4.01452E-004	0.00000E+000	4.00358E-004	2.40040E-001	9.97625E-001	3.57780E+000	9	...........
	107	1.43167	9.99736E-001	4.00424E-004	0.00000E+000	4.00319E-004	2.40040E-001	1.00011E+000	3.57780E+000	9	...........
STARTTIMEOFFSET	QUANT	2644.654	Start Time Offset (s)
