EXPLAIN
TAG	PWR800_CHARGE
TITLE	LABEL	PWR Cyclic Charge Discharge (Cell) - Charge Step	Test &Identifier
DATE	LABEL	12-7-2017	Date
TIME	LABEL	14:33:24	Time
NOTES	NOTES	3	&Notes...
	supercap test cell
	0.4mg
	6M KOH
PSTAT	PSTAT	IFC5000-01520	Potentiostat
CAPACITY	QUANT	1.00000E-003	Capacity (A-hr)
CELLTYPE	SELECTOR	1	&Cell Type
WORKINGCONNECTION	SELECTOR	0	&Working Lead
MAXCHARGETIME	VARIABLEANDUNITS	1.00000E+002	s	1.00000E+002	second(s)	Max &Charge Time
CHARGECURRENT	QUANT	4.00000E-004	&Charge Current (A) 
VOLTAGEFINISH	TWOPARAM	F	1.00000E-003	3.60000E+003	&Voltage Finish	 I (A) < 	Max Time(s)
SAMPLETIME	QUANT	1.00000E-002	Sa&mple Period (s)
CHARGESTOPAT1	MULTIPARAM	4	1.00000E+000	Charge Stop At &1	Voltage > Limit	V
CHARGESTOPAT2	MULTIPARAM	0	0.00000E+000	Charge Stop At &2	None	N/A
AESBHCSELECTOR	TOGGLE	F	Save Both Half Cells
IRCOMP	TOGGLE	F	IR &Measure
EOC	QUANT	0	Open Circuit (V)
SEQUENCER	TOGGLE	TRUE	Run as Sequence
PSTATMODEL	IQUANT	53	Pstat Model
PSTATSECTION	LABEL	IFC5000-01520	Pstat Section
PSTATSERIALNO	LABEL	01520	Pstat Serial Number
CTRLMODE	IQUANT	0	Control Mode
ELECTROMETER	IQUANT	1	RE=0 or CS=1
IESTAB	IQUANT	0	I/E Stability
CASPEED	IQUANT	4	Control Amp Speed
CONVENTION	IQUANT	1	Current Convention
ICHRANGE	IQUANT	2	Ich Range
ICHRANGEMODE	TOGGLE	T	Ich Auto Range
ICHOFFSETENABLE	TOGGLE	F	Ich Offset Enable
ICHOFFSET	QUANT	0	Ich Offset (V)
ICHFILTER	IQUANT	1	Ich Filter
VCHRANGE	IQUANT	2	Vch Range
VCHRANGEMODE	TOGGLE	T	Vch Auto Range
VCHOFFSETENABLE	TOGGLE	F	Vch Offset Enable
VCHOFFSET	QUANT	0	Vch Offset (V)
VCHFILTER	IQUANT	1	Vch Filter
IERANGELOWERLIMIT	IQUANT	9	I/E Range Lower Limit
IERANGEMODE	TOGGLE	F	I/E AutoRange
IERANGE	IQUANT	9	I/E Range
ACHSELECT	IQUANT	1	Ach Select
ACHRANGE	IQUANT	2	Ach Range
ACHOFFSETENABLE	TOGGLE	F	Ach Offset Enable
ACHOFFSET	QUANT	0	Ach Offset (V)
ACHFILTER	IQUANT	1	Ach Filter
CABLEID	IQUANT	14	Cable ID
DCCALDATE	LABEL	5-7-2017	DC Calibration Date
ACCALDATE	LABEL	12/3/2015	AC Calibration Date
FRAMEWORKVERSION	QUANT	7.01	Framework Version
INSTRUMENTVERSION	LABEL	4.00	Instrument Version
CURVE	TABLE	130
	Pt	T	Vf	Im	Vu	Pwr	Sig	Ach	Temp	IERange	Over
	#	s	V	A	V	W	V	V	deg C	#	bits
	0	0.013333	3.43673E-001	4.01029E-004	0.00000E+000	1.37823E-004	2.40040E-001	3.43757E-001	3.57600E+000	9	...........
	1	0.026667	3.54166E-001	4.00729E-004	0.00000E+000	1.41925E-004	2.40040E-001	3.54235E-001	3.57600E+000	9	...........
	2	0.04	3.63307E-001	4.01311E-004	0.00000E+000	1.45799E-004	2.40040E-001	3.63381E-001	3.57600E+000	9	...........
	3	0.053333	3.71654E-001	4.00605E-004	0.00000E+000	1.48887E-004	2.40040E-001	3.71725E-001	3.57600E+000	9	...........
	4	0.066667	3.79495E-001	4.00198E-004	0.00000E+000	1.51873E-004	2.40040E-001	3.79564E-001	3.57600E+000	9	...........
	5	0.08	3.86979E-001	4.00303E-004	0.00000E+000	1.54909E-004	2.40040E-001	3.87053E-001	3.57600E+000	9	...........
	6	0.093333	3.94106E-001	3.99776E-004	0.00000E+000	1.57554E-004	2.40040E-001	3.94184E-001	3.57600E+000	9	...........
	7	0.106667	4.01057E-001	4.00587E-004	0.00000E+000	1.60658E-004	2.40040E-001	4.01136E-001	3.57600E+000	9	...........
	8	0.12	4.07844E-001	4.01351E-004	0.00000E+000	1.63689E-004	2.40040E-001	4.07923E-001	3.57669E+000	9	...........
	9	0.133333	4.14520E-001	3.99637E-004	0.00000E+000	1.65658E-004	2.40040E-001	4.14609E-001	3.57710E+000	9	...........
	10	0.146667	4.21067E-001	4.00730E-004	0.00000E+000	1.68734E-004	2.40040E-001	4.21154E-001	3.57710E+000	9	...........
	11	0.16	4.27550E-001	4.00482E-004	0.00000E+000	1.71226E-004	2.40040E-001	4.27642E-001	3.57710E+000	9	...........
	12	0.173333	4.33858E-001	3.99910E-004	0.00000E+000	1.73504E-004	2.40040E-001	4.33946E-001	3.57710E+000	9	...........
	13	0.186667	4.40085E-001	4.01937E-004	0.00000E+000	1.76886E-004	2.40040E-001	4.40172E-001	3.57710E+000	9	...........
	14	0.2	4.46255E-001	4.00984E-004	0.00000E+000	1.78941E-004	2.40040E-001	4.46348E-001	3.57710E+000	9	...........
	15	0.213333	4.52441E-001	4.00836E-004	0.00000E+000	1.81355E-004	2.40040E-001	4.52535E-001	3.57710E+000	9	...........
	16	0.226667	4.58421E-001	3.99934E-004	0.00000E+000	1.83338E-004	2.40040E-001	4.58511E-001	3.57710E+000	9	...........
	17	0.24	4.64487E-001	4.02607E-004	0.00000E+000	1.87006E-004	2.40040E-001	4.64579E-001	3.57710E+000	9	...........
	18	0.253333	4.70463E-001	3.99799E-004	0.00000E+000	1.88091E-004	2.40040E-001	4.70557E-001	3.57710E+000	9	...........
	19	0.266667	4.76415E-001	4.00712E-004	0.00000E+000	1.90905E-004	2.40040E-001	4.76508E-001	3.57710E+000	9	...........
	20	0.28	4.82324E-001	4.00698E-004	0.00000E+000	1.93266E-004	2.40040E-001	4.82421E-001	3.57710E+000	9	...........
	21	0.293333	4.88124E-001	4.00805E-004	0.00000E+000	1.95643E-004	2.40040E-001	4.88221E-001	3.57710E+000	9	...........
	22	0.306667	4.93887E-001	4.00154E-004	0.00000E+000	1.97631E-004	2.40040E-001	4.93985E-001	3.57710E+000	9	...........
	23	0.32	4.99584E-001	4.01347E-004	0.00000E+000	2.00507E-004	2.40040E-001	4.99688E-001	3.57710E+000	9	...........
	24	0.333333	5.05268E-001	4.00462E-004	0.00000E+000	2.02341E-004	2.40040E-001	5.05372E-001	3.57710E+000	9	...........
	25	0.346667	5.10988E-001	4.00450E-004	0.00000E+000	2.04625E-004	2.40040E-001	5.11096E-001	3.57710E+000	9	...........
	26	0.36	5.16668E-001	4.00566E-004	0.00000E+000	2.06959E-004	2.40040E-001	5.16773E-001	3.57710E+000	9	...........
	27	0.373333	5.22371E-001	4.01832E-004	0.00000E+000	2.09905E-004	2.40040E-001	5.22478E-001	3.57710E+000	9	...........
	28	0.386667	5.28016E-001	4.00122E-004	0.00000E+000	2.11271E-004	2.40040E-001	5.28124E-001	3.57710E+000	9	...........
	29	0.4	5.33511E-001	4.01360E-004	0.00000E+000	2.14130E-004	2.40040E-001	5.33640E-001	3.57710E+000	9	...........
	30	0.413333	5.38971E-001	3.98971E-004	0.00000E+000	2.15033E-004	2.40040E-001	5.39194E-001	3.57710E+000	9	...........
	31	0.426667	5.44533E-001	4.00786E-004	0.00000E+000	2.18241E-004	2.40040E-001	5.44742E-001	3.57710E+000	9	...........
	32	0.44	5.50088E-001	4.01942E-004	0.00000E+000	2.21104E-004	2.40040E-001	5.50312E-001	3.57710E+000	9	...........
	33	0.453333	5.55608E-001	4.00421E-004	0.00000E+000	2.22477E-004	2.40040E-001	5.55845E-001	3.57710E+000	9	...........
	34	0.466667	5.61091E-001	4.01983E-004	0.00000E+000	2.25549E-004	2.40040E-001	5.61312E-001	3.57710E+000	9	...........
	35	0.48	5.66607E-001	4.02753E-004	0.00000E+000	2.28203E-004	2.40040E-001	5.66837E-001	3.57710E+000	9	...........
	36	0.493333	5.72153E-001	4.01239E-004	0.00000E+000	2.29570E-004	2.40040E-001	5.72348E-001	3.57710E+000	9	...........
	37	0.506667	5.77551E-001	4.01239E-004	0.00000E+000	2.31736E-004	2.40040E-001	5.77781E-001	3.57710E+000	9	...........
	38	0.52	5.82936E-001	4.00587E-004	0.00000E+000	2.33516E-004	2.40040E-001	5.83173E-001	3.57710E+000	9	...........
	39	0.533333	5.88395E-001	4.00622E-004	0.00000E+000	2.35724E-004	2.40040E-001	5.88633E-001	3.57710E+000	9	...........
	40	0.546667	5.93818E-001	4.00825E-004	0.00000E+000	2.38017E-004	2.40040E-001	5.94065E-001	3.57710E+000	9	...........
	41	0.56	5.99182E-001	4.01243E-004	0.00000E+000	2.40417E-004	2.40040E-001	5.99436E-001	3.57710E+000	9	...........
	42	0.573333	6.04532E-001	4.00264E-004	0.00000E+000	2.41972E-004	2.40040E-001	6.04781E-001	3.57710E+000	9	...........
	43	0.586667	6.09858E-001	4.00045E-004	0.00000E+000	2.43971E-004	2.40040E-001	6.10112E-001	3.57710E+000	9	...........
	44	0.6	6.15264E-001	4.01133E-004	0.00000E+000	2.46802E-004	2.40040E-001	6.15522E-001	3.57710E+000	9	...........
	45	0.613333	6.20566E-001	4.01348E-004	0.00000E+000	2.49063E-004	2.40040E-001	6.20782E-001	3.57710E+000	9	...........
	46	0.626667	6.25911E-001	4.02192E-004	0.00000E+000	2.51737E-004	2.40040E-001	6.26142E-001	3.57710E+000	9	...........
	47	0.64	6.31265E-001	3.99993E-004	0.00000E+000	2.52501E-004	2.40040E-001	6.31474E-001	3.57710E+000	9	...........
	48	0.653333	6.36522E-001	4.00606E-004	0.00000E+000	2.54995E-004	2.40040E-001	6.36729E-001	3.57710E+000	9	...........
	49	0.666667	6.41859E-001	3.99081E-004	0.00000E+000	2.56154E-004	2.40040E-001	6.42062E-001	3.57710E+000	9	...........
	50	0.68	6.47124E-001	3.99975E-004	0.00000E+000	2.58834E-004	2.40040E-001	6.47321E-001	3.57710E+000	9	...........
	51	0.693333	6.52398E-001	3.99798E-004	0.00000E+000	2.60827E-004	2.40040E-001	6.52609E-001	3.57710E+000	9	...........
	52	0.706667	6.57588E-001	4.01287E-004	0.00000E+000	2.63881E-004	2.40040E-001	6.57808E-001	3.57710E+000	9	...........
	53	0.72	6.62818E-001	4.01161E-004	0.00000E+000	2.65896E-004	2.40040E-001	6.63038E-001	3.57710E+000	9	...........
	54	0.733333	6.68085E-001	4.00827E-004	0.00000E+000	2.67787E-004	2.40040E-001	6.68319E-001	3.57710E+000	9	...........
	55	0.746667	6.73280E-001	4.01611E-004	0.00000E+000	2.70397E-004	2.40040E-001	6.73499E-001	3.57710E+000	9	...........
	56	0.76	6.78545E-001	3.99407E-004	0.00000E+000	2.71016E-004	2.40040E-001	6.78787E-001	3.57710E+000	9	...........
	57	0.773333	6.83663E-001	4.00154E-004	0.00000E+000	2.73571E-004	2.40040E-001	6.83883E-001	3.57710E+000	9	...........
	58	0.786667	6.88857E-001	4.00965E-004	0.00000E+000	2.76208E-004	2.40040E-001	6.89115E-001	3.57710E+000	9	...........
	59	0.8	6.94053E-001	4.01212E-004	0.00000E+000	2.78462E-004	2.40040E-001	6.94297E-001	3.57710E+000	9	...........
	60	0.813333	6.99200E-001	4.01070E-004	0.00000E+000	2.80428E-004	2.40040E-001	6.99457E-001	3.57710E+000	9	...........
	61	0.826667	7.04348E-001	4.00562E-004	0.00000E+000	2.82135E-004	2.40040E-001	7.04590E-001	3.57710E+000	9	...........
	62	0.84	7.09477E-001	4.00571E-004	0.00000E+000	2.84196E-004	2.40040E-001	7.09731E-001	3.57710E+000	9	...........
	63	0.853333	7.14542E-001	4.01135E-004	0.00000E+000	2.86627E-004	2.40040E-001	7.14785E-001	3.57710E+000	9	...........
	64	0.866667	7.19756E-001	4.00053E-004	0.00000E+000	2.87941E-004	2.40040E-001	7.20000E-001	3.57710E+000	9	...........
	65	0.88	7.24849E-001	3.99972E-004	0.00000E+000	2.89919E-004	2.40040E-001	7.25071E-001	3.57710E+000	9	...........
	66	0.893333	7.29847E-001	4.01847E-004	0.00000E+000	2.93287E-004	2.40040E-001	7.30084E-001	3.57710E+000	9	...........
	67	0.906667	7.34838E-001	4.01676E-004	0.00000E+000	2.95167E-004	2.40040E-001	7.35079E-001	3.57710E+000	9	...........
	68	0.92	7.39830E-001	4.01395E-004	0.00000E+000	2.96964E-004	2.40040E-001	7.40071E-001	3.57710E+000	9	...........
	69	0.933333	7.44923E-001	4.00297E-004	0.00000E+000	2.98190E-004	2.40040E-001	7.45175E-001	3.57710E+000	9	...........
	70	0.946667	7.49896E-001	3.99305E-004	0.00000E+000	2.99437E-004	2.40040E-001	7.50133E-001	3.57710E+000	9	...........
	71	0.96	7.54890E-001	4.00714E-004	0.00000E+000	3.02495E-004	2.40040E-001	7.55094E-001	3.57710E+000	9	...........
	72	0.97333	7.59772E-001	4.00169E-004	0.00000E+000	3.04037E-004	2.40040E-001	7.59987E-001	3.57710E+000	9	...........
	73	0.98667	7.64732E-001	4.00384E-004	0.00000E+000	3.06187E-004	2.40040E-001	7.64952E-001	3.57710E+000	9	...........
	74	1	7.69627E-001	4.02602E-004	0.00000E+000	3.09853E-004	2.40040E-001	7.69851E-001	3.57710E+000	9	...........
	75	1.01333	7.74508E-001	4.01346E-004	0.00000E+000	3.10846E-004	2.40040E-001	7.74741E-001	3.57710E+000	9	...........
	76	1.02667	7.79427E-001	4.01872E-004	0.00000E+000	3.13230E-004	2.40040E-001	7.79641E-001	3.57710E+000	9	...........
	77	1.04	7.84220E-001	4.01022E-004	0.00000E+000	3.14490E-004	2.40040E-001	7.84442E-001	3.57710E+000	9	...........
	78	1.05333	7.89033E-001	4.01681E-004	0.00000E+000	3.16939E-004	2.40040E-001	7.89236E-001	3.57710E+000	9	...........
	79	1.06667	7.93857E-001	4.00560E-004	0.00000E+000	3.17987E-004	2.40040E-001	7.94114E-001	3.57710E+000	9	...........
	80	1.08	7.98679E-001	4.00081E-004	0.00000E+000	3.19537E-004	2.40040E-001	7.98906E-001	3.57710E+000	9	...........
	81	1.09333	8.03411E-001	4.00399E-004	0.00000E+000	3.21685E-004	2.40040E-001	8.03652E-001	3.57710E+000	9	...........
	82	1.10667	8.08188E-001	4.01872E-004	0.00000E+000	3.24788E-004	2.40040E-001	8.08466E-001	3.57710E+000	9	...........
	83	1.12	8.12882E-001	4.02071E-004	0.00000E+000	3.26836E-004	2.40040E-001	8.13168E-001	3.57666E+000	9	...........
	84	1.13333	8.17612E-001	4.01917E-004	0.00000E+000	3.28612E-004	2.40040E-001	8.17893E-001	3.57640E+000	9	...........
	85	1.14667	8.22327E-001	4.00851E-004	0.00000E+000	3.29631E-004	2.40040E-001	8.22611E-001	3.57640E+000	9	...........
	86	1.16	8.26977E-001	3.99411E-004	0.00000E+000	3.30304E-004	2.40040E-001	8.27235E-001	3.57640E+000	9	...........
	87	1.17333	8.31568E-001	4.01247E-004	0.00000E+000	3.33664E-004	2.40040E-001	8.31855E-001	3.57640E+000	9	...........
	88	1.18667	8.36155E-001	3.99692E-004	0.00000E+000	3.34204E-004	2.40040E-001	8.36456E-001	3.57640E+000	9	...........
	89	1.2	8.40687E-001	4.02029E-004	0.00000E+000	3.37980E-004	2.40040E-001	8.40987E-001	3.57640E+000	9	...........
	90	1.21333	8.45193E-001	3.99821E-004	0.00000E+000	3.37926E-004	2.40040E-001	8.45479E-001	3.57640E+000	9	...........
	91	1.22667	8.49714E-001	4.00992E-004	0.00000E+000	3.40728E-004	2.40040E-001	8.50004E-001	3.57640E+000	9	...........
	92	1.24	8.54231E-001	4.00618E-004	0.00000E+000	3.42220E-004	2.40040E-001	8.54532E-001	3.57640E+000	9	...........
	93	1.25333	8.58671E-001	4.00996E-004	0.00000E+000	3.44324E-004	2.40040E-001	8.58978E-001	3.57640E+000	9	...........
	94	1.26667	8.63127E-001	4.02091E-004	0.00000E+000	3.47056E-004	2.40040E-001	8.63424E-001	3.57640E+000	9	...........
	95	1.28	8.67605E-001	4.00743E-004	0.00000E+000	3.47686E-004	2.40040E-001	8.67913E-001	3.57640E+000	9	...........
	96	1.29333	8.72006E-001	4.01728E-004	0.00000E+000	3.50310E-004	2.40040E-001	8.72287E-001	3.57640E+000	9	...........
	97	1.30667	8.76334E-001	4.01000E-004	0.00000E+000	3.51410E-004	2.40040E-001	8.76634E-001	3.57640E+000	9	...........
	98	1.32	8.80602E-001	4.02060E-004	0.00000E+000	3.54055E-004	2.40040E-001	8.80884E-001	3.57640E+000	9	...........
	99	1.33333	8.84955E-001	4.01469E-004	0.00000E+000	3.55282E-004	2.40040E-001	8.85232E-001	3.57640E+000	9	...........
	100	1.34667	8.89215E-001	4.01024E-004	0.00000E+000	3.56597E-004	2.40040E-001	8.89486E-001	3.57640E+000	9	...........
	101	1.36	8.93465E-001	4.01818E-004	0.00000E+000	3.59011E-004	2.40040E-001	8.93770E-001	3.57640E+000	9	...........
	102	1.37333	8.97621E-001	4.01077E-004	0.00000E+000	3.60015E-004	2.40040E-001	8.97932E-001	3.57640E+000	9	...........
	103	1.38667	9.01786E-001	4.00412E-004	0.00000E+000	3.61086E-004	2.40040E-001	9.02102E-001	3.57640E+000	9	...........
	104	1.4	9.05959E-001	4.01119E-004	0.00000E+000	3.63397E-004	2.40040E-001	9.06288E-001	3.57640E+000	9	...........
	105	1.41333	9.10094E-001	4.00334E-004	0.00000E+000	3.64342E-004	2.40040E-001	9.10400E-001	3.57640E+000	9	...........
	106	1.42667	9.14187E-001	4.00660E-004	0.00000E+000	3.66278E-004	2.40040E-001	9.14495E-001	3.57640E+000	9	...........
	107	1.44	9.18197E-001	4.00994E-004	0.00000E+000	3.68191E-004	2.40040E-001	9.18524E-001	3.57640E+000	9	...........
	108	1.45333	9.22259E-001	4.00519E-004	0.00000E+000	3.69382E-004	2.40040E-001	9.22527E-001	3.57640E+000	9	...........
	109	1.46667	9.26228E-001	4.00625E-004	0.00000E+000	3.71070E-004	2.40040E-001	9.26489E-001	3.57640E+000	9	...........
	110	1.48	9.30145E-001	4.00716E-004	0.00000E+000	3.72724E-004	2.40040E-001	9.30422E-001	3.57640E+000	9	...........
	111	1.49333	9.34039E-001	4.01371E-004	0.00000E+000	3.74896E-004	2.40040E-001	9.34328E-001	3.57640E+000	9	...........
	112	1.50667	9.37929E-001	4.00658E-004	0.00000E+000	3.75789E-004	2.40040E-001	9.38188E-001	3.57640E+000	9	...........
	113	1.52	9.41806E-001	4.02701E-004	0.00000E+000	3.79266E-004	2.40040E-001	9.42069E-001	3.57640E+000	9	...........
	114	1.53333	9.45658E-001	4.00829E-004	0.00000E+000	3.79048E-004	2.40040E-001	9.45941E-001	3.57640E+000	9	...........
	115	1.54667	9.49495E-001	4.00593E-004	0.00000E+000	3.80361E-004	2.40040E-001	9.49764E-001	3.57640E+000	9	...........
	116	1.56	9.53195E-001	4.00212E-004	0.00000E+000	3.81480E-004	2.40040E-001	9.53485E-001	3.57640E+000	9	...........
	117	1.57333	9.56853E-001	4.02409E-004	0.00000E+000	3.85046E-004	2.40040E-001	9.57143E-001	3.57640E+000	9	...........
	118	1.58667	9.60479E-001	4.01709E-004	0.00000E+000	3.85833E-004	2.40040E-001	9.60795E-001	3.57640E+000	9	...........
	119	1.6	9.64140E-001	4.02041E-004	0.00000E+000	3.87624E-004	2.40040E-001	9.64460E-001	3.57640E+000	9	...........
	120	1.61333	9.67679E-001	3.99735E-004	0.00000E+000	3.86816E-004	2.40040E-001	9.67999E-001	3.57640E+000	9	...........
	121	1.62667	9.71263E-001	4.02064E-004	0.00000E+000	3.90510E-004	2.40040E-001	9.71620E-001	3.57640E+000	9	...........
	122	1.64	9.74873E-001	4.01294E-004	0.00000E+000	3.91211E-004	2.40040E-001	9.75184E-001	3.57640E+000	9	...........
	123	1.65333	9.78396E-001	4.01322E-004	0.00000E+000	3.92652E-004	2.40040E-001	9.78744E-001	3.57640E+000	9	...........
	124	1.66667	9.81851E-001	4.00301E-004	0.00000E+000	3.93036E-004	2.40040E-001	9.82188E-001	3.57640E+000	9	...........
	125	1.68	9.85271E-001	4.01613E-004	0.00000E+000	3.95697E-004	2.40040E-001	9.85614E-001	3.57640E+000	9	...........
	126	1.69333	9.88656E-001	4.00646E-004	0.00000E+000	3.96101E-004	2.40040E-001	9.89007E-001	3.57640E+000	9	...........
	127	1.70667	9.92024E-001	4.01049E-004	0.00000E+000	3.97851E-004	2.40040E-001	9.92384E-001	3.57640E+000	9	...........
	128	1.72	9.95349E-001	4.01472E-004	0.00000E+000	3.99605E-004	2.40040E-001	9.95709E-001	3.57640E+000	9	...........
	129	1.73333	9.98658E-001	4.01820E-004	0.00000E+000	4.01281E-004	2.40040E-001	9.99000E-001	3.57640E+000	9	...........
STARTTIMEOFFSET	QUANT	713.2786	Start Time Offset (s)
