EXPLAIN
TAG	PWR800_CHARGE
TITLE	LABEL	PWR Cyclic Charge Discharge (Cell) - Charge Step	Test &Identifier
DATE	LABEL	12-7-2017	Date
TIME	LABEL	14:50:00	Time
NOTES	NOTES	3	&Notes...
	supercap test cell
	0.4mg
	6M KOH
PSTAT	PSTAT	IFC5000-01520	Potentiostat
CAPACITY	QUANT	1.00000E-003	Capacity (A-hr)
CELLTYPE	SELECTOR	1	&Cell Type
WORKINGCONNECTION	SELECTOR	0	&Working Lead
MAXCHARGETIME	VARIABLEANDUNITS	1.00000E+002	s	1.00000E+002	second(s)	Max &Charge Time
CHARGECURRENT	QUANT	4.00000E-004	&Charge Current (A) 
VOLTAGEFINISH	TWOPARAM	F	1.00000E-003	3.60000E+003	&Voltage Finish	 I (A) < 	Max Time(s)
SAMPLETIME	QUANT	1.00000E-002	Sa&mple Period (s)
CHARGESTOPAT1	MULTIPARAM	4	1.00000E+000	Charge Stop At &1	Voltage > Limit	V
CHARGESTOPAT2	MULTIPARAM	0	0.00000E+000	Charge Stop At &2	None	N/A
AESBHCSELECTOR	TOGGLE	F	Save Both Half Cells
IRCOMP	TOGGLE	F	IR &Measure
EOC	QUANT	0	Open Circuit (V)
SEQUENCER	TOGGLE	TRUE	Run as Sequence
PSTATMODEL	IQUANT	53	Pstat Model
PSTATSECTION	LABEL	IFC5000-01520	Pstat Section
PSTATSERIALNO	LABEL	01520	Pstat Serial Number
CTRLMODE	IQUANT	0	Control Mode
ELECTROMETER	IQUANT	1	RE=0 or CS=1
IESTAB	IQUANT	0	I/E Stability
CASPEED	IQUANT	4	Control Amp Speed
CONVENTION	IQUANT	1	Current Convention
ICHRANGE	IQUANT	2	Ich Range
ICHRANGEMODE	TOGGLE	T	Ich Auto Range
ICHOFFSETENABLE	TOGGLE	F	Ich Offset Enable
ICHOFFSET	QUANT	0	Ich Offset (V)
ICHFILTER	IQUANT	1	Ich Filter
VCHRANGE	IQUANT	2	Vch Range
VCHRANGEMODE	TOGGLE	T	Vch Auto Range
VCHOFFSETENABLE	TOGGLE	F	Vch Offset Enable
VCHOFFSET	QUANT	0	Vch Offset (V)
VCHFILTER	IQUANT	1	Vch Filter
IERANGELOWERLIMIT	IQUANT	9	I/E Range Lower Limit
IERANGEMODE	TOGGLE	F	I/E AutoRange
IERANGE	IQUANT	9	I/E Range
ACHSELECT	IQUANT	1	Ach Select
ACHRANGE	IQUANT	2	Ach Range
ACHOFFSETENABLE	TOGGLE	F	Ach Offset Enable
ACHOFFSET	QUANT	0	Ach Offset (V)
ACHFILTER	IQUANT	1	Ach Filter
CABLEID	IQUANT	14	Cable ID
DCCALDATE	LABEL	5-7-2017	DC Calibration Date
ACCALDATE	LABEL	12/3/2015	AC Calibration Date
FRAMEWORKVERSION	QUANT	7.01	Framework Version
INSTRUMENTVERSION	LABEL	4.00	Instrument Version
CURVE	TABLE	119
	Pt	T	Vf	Im	Vu	Pwr	Sig	Ach	Temp	IERange	Over
	#	s	V	A	V	W	V	V	deg C	#	bits
	0	0.013333	3.63945E-001	4.00813E-004	0.00000E+000	1.45874E-004	2.40040E-001	3.64045E-001	3.57700E+000	9	...........
	1	0.026667	3.75493E-001	4.01212E-004	0.00000E+000	1.50652E-004	2.40040E-001	3.75564E-001	3.57700E+000	9	...........
	2	0.04	3.85397E-001	4.00195E-004	0.00000E+000	1.54234E-004	2.40040E-001	3.85475E-001	3.57700E+000	9	...........
	3	0.053333	3.94464E-001	4.00192E-004	0.00000E+000	1.57861E-004	2.40040E-001	3.94544E-001	3.57700E+000	9	...........
	4	0.066667	4.02873E-001	4.01404E-004	0.00000E+000	1.61715E-004	2.40040E-001	4.02955E-001	3.57700E+000	9	...........
	5	0.08	4.10901E-001	4.02120E-004	0.00000E+000	1.65232E-004	2.40040E-001	4.10989E-001	3.57700E+000	9	...........
	6	0.093333	4.18609E-001	4.00575E-004	0.00000E+000	1.67684E-004	2.40040E-001	4.18698E-001	3.57700E+000	9	...........
	7	0.106667	4.26126E-001	4.01068E-004	0.00000E+000	1.70906E-004	2.40040E-001	4.26214E-001	3.57700E+000	9	...........
	8	0.12	4.33392E-001	4.01435E-004	0.00000E+000	1.73979E-004	2.40040E-001	4.33481E-001	3.57700E+000	9	...........
	9	0.133333	4.40470E-001	4.00565E-004	0.00000E+000	1.76437E-004	2.40040E-001	4.40560E-001	3.57700E+000	9	...........
	10	0.146667	4.47444E-001	4.01103E-004	0.00000E+000	1.79471E-004	2.40040E-001	4.47544E-001	3.57700E+000	9	...........
	11	0.16	4.54391E-001	4.01637E-004	0.00000E+000	1.82500E-004	2.40040E-001	4.54480E-001	3.57700E+000	9	...........
	12	0.173333	4.61218E-001	4.00723E-004	0.00000E+000	1.84821E-004	2.40040E-001	4.61309E-001	3.57700E+000	9	...........
	13	0.186667	4.67973E-001	4.00762E-004	0.00000E+000	1.87546E-004	2.40040E-001	4.68064E-001	3.57700E+000	9	...........
	14	0.2	4.74602E-001	4.01321E-004	0.00000E+000	1.90468E-004	2.40040E-001	4.74699E-001	3.57700E+000	9	...........
	15	0.213333	4.81192E-001	4.02568E-004	0.00000E+000	1.93713E-004	2.40040E-001	4.81290E-001	3.57700E+000	9	...........
	16	0.226667	4.87674E-001	4.01655E-004	0.00000E+000	1.95876E-004	2.40040E-001	4.87778E-001	3.57700E+000	9	...........
	17	0.24	4.94041E-001	4.00025E-004	0.00000E+000	1.97629E-004	2.40040E-001	4.94149E-001	3.57700E+000	9	...........
	18	0.253333	5.00398E-001	4.01797E-004	0.00000E+000	2.01059E-004	2.40040E-001	5.00507E-001	3.57700E+000	9	...........
	19	0.266667	5.06682E-001	4.01034E-004	0.00000E+000	2.03196E-004	2.40040E-001	5.06790E-001	3.57700E+000	9	...........
	20	0.28	5.12939E-001	4.01714E-004	0.00000E+000	2.06055E-004	2.40040E-001	5.13047E-001	3.57700E+000	9	...........
	21	0.293333	5.19110E-001	4.01769E-004	0.00000E+000	2.08562E-004	2.40040E-001	5.19216E-001	3.57700E+000	9	...........
	22	0.306667	5.25292E-001	4.00115E-004	0.00000E+000	2.10177E-004	2.40040E-001	5.25401E-001	3.57700E+000	9	...........
	23	0.32	5.31372E-001	4.01386E-004	0.00000E+000	2.13285E-004	2.40040E-001	5.31465E-001	3.57700E+000	9	...........
	24	0.333333	5.37270E-001	4.02235E-004	0.00000E+000	2.16109E-004	2.40040E-001	5.37480E-001	3.57700E+000	9	...........
	25	0.346667	5.43320E-001	4.00481E-004	0.00000E+000	2.17589E-004	2.40040E-001	5.43532E-001	3.57700E+000	9	...........
	26	0.36	5.49384E-001	4.00845E-004	0.00000E+000	2.20218E-004	2.40040E-001	5.49574E-001	3.57700E+000	9	...........
	27	0.373333	5.55317E-001	4.02252E-004	0.00000E+000	2.23377E-004	2.40040E-001	5.55510E-001	3.57700E+000	9	...........
	28	0.386667	5.61248E-001	4.01053E-004	0.00000E+000	2.25090E-004	2.40040E-001	5.61466E-001	3.57700E+000	9	...........
	29	0.4	5.67235E-001	4.00428E-004	0.00000E+000	2.27137E-004	2.40040E-001	5.67451E-001	3.57700E+000	9	...........
	30	0.413333	5.73156E-001	4.01376E-004	0.00000E+000	2.30051E-004	2.40040E-001	5.73383E-001	3.57700E+000	9	...........
	31	0.426667	5.78993E-001	4.01420E-004	0.00000E+000	2.32419E-004	2.40040E-001	5.79257E-001	3.57700E+000	9	...........
	32	0.44	5.84811E-001	4.00990E-004	0.00000E+000	2.34503E-004	2.40040E-001	5.85077E-001	3.57700E+000	9	...........
	33	0.453333	5.90720E-001	4.00844E-004	0.00000E+000	2.36786E-004	2.40040E-001	5.90972E-001	3.57700E+000	9	...........
	34	0.466667	5.96421E-001	4.01136E-004	0.00000E+000	2.39246E-004	2.40040E-001	5.96685E-001	3.57700E+000	9	...........
	35	0.48	6.02262E-001	4.00287E-004	0.00000E+000	2.41077E-004	2.40040E-001	6.02545E-001	3.57700E+000	9	...........
	36	0.493333	6.08007E-001	4.01270E-004	0.00000E+000	2.43975E-004	2.40040E-001	6.08301E-001	3.57700E+000	9	...........
	37	0.506667	6.13838E-001	4.01293E-004	0.00000E+000	2.46329E-004	2.40040E-001	6.14097E-001	3.57700E+000	9	...........
	38	0.52	6.19639E-001	4.00785E-004	0.00000E+000	2.48342E-004	2.40040E-001	6.19891E-001	3.57700E+000	9	...........
	39	0.533333	6.25386E-001	4.01308E-004	0.00000E+000	2.50972E-004	2.40040E-001	6.25624E-001	3.57700E+000	9	...........
	40	0.546667	6.31206E-001	3.99807E-004	0.00000E+000	2.52361E-004	2.40040E-001	6.31456E-001	3.57700E+000	9	...........
	41	0.56	6.36856E-001	4.00949E-004	0.00000E+000	2.55347E-004	2.40040E-001	6.37104E-001	3.57700E+000	9	...........
	42	0.573333	6.42554E-001	4.01646E-004	0.00000E+000	2.58079E-004	2.40040E-001	6.42793E-001	3.57700E+000	9	...........
	43	0.586667	6.48251E-001	4.01022E-004	0.00000E+000	2.59963E-004	2.40040E-001	6.48487E-001	3.57700E+000	9	...........
	44	0.6	6.53893E-001	4.02991E-004	0.00000E+000	2.63513E-004	2.40040E-001	6.54121E-001	3.57700E+000	9	...........
	45	0.613333	6.59460E-001	4.01290E-004	0.00000E+000	2.64635E-004	2.40040E-001	6.59723E-001	3.57866E+000	9	...........
	46	0.626667	6.65107E-001	4.00420E-004	0.00000E+000	2.66322E-004	2.40040E-001	6.65372E-001	3.57890E+000	9	...........
	47	0.64	6.70697E-001	4.00978E-004	0.00000E+000	2.68935E-004	2.40040E-001	6.70924E-001	3.57890E+000	9	...........
	48	0.653333	6.76259E-001	4.01026E-004	0.00000E+000	2.71198E-004	2.40040E-001	6.76489E-001	3.57890E+000	9	...........
	49	0.666667	6.81805E-001	4.00348E-004	0.00000E+000	2.72959E-004	2.40040E-001	6.82052E-001	3.57890E+000	9	...........
	50	0.68	6.87322E-001	4.00883E-004	0.00000E+000	2.75535E-004	2.40040E-001	6.87544E-001	3.57890E+000	9	...........
	51	0.693333	6.92864E-001	4.00770E-004	0.00000E+000	2.77679E-004	2.40040E-001	6.93077E-001	3.57890E+000	9	...........
	52	0.706667	6.98358E-001	4.01340E-004	0.00000E+000	2.80279E-004	2.40040E-001	6.98542E-001	3.57890E+000	9	...........
	53	0.72	7.03850E-001	4.00669E-004	0.00000E+000	2.82011E-004	2.40040E-001	7.04074E-001	3.57890E+000	9	...........
	54	0.733333	7.09279E-001	4.00432E-004	0.00000E+000	2.84018E-004	2.40040E-001	7.09513E-001	3.57890E+000	9	...........
	55	0.746667	7.14717E-001	4.00125E-004	0.00000E+000	2.85976E-004	2.40040E-001	7.14948E-001	3.57890E+000	9	...........
	56	0.76	7.20206E-001	4.01323E-004	0.00000E+000	2.89036E-004	2.40040E-001	7.20433E-001	3.57890E+000	9	...........
	57	0.773333	7.25608E-001	4.00978E-004	0.00000E+000	2.90953E-004	2.40040E-001	7.25815E-001	3.57890E+000	9	...........
	58	0.786667	7.30909E-001	4.00656E-004	0.00000E+000	2.92843E-004	2.40040E-001	7.31139E-001	3.57890E+000	9	...........
	59	0.8	7.36224E-001	4.01570E-004	0.00000E+000	2.95645E-004	2.40040E-001	7.36430E-001	3.57890E+000	9	...........
	60	0.813333	7.41553E-001	3.99334E-004	0.00000E+000	2.96128E-004	2.40040E-001	7.41775E-001	3.57890E+000	9	...........
	61	0.826667	7.46925E-001	4.00116E-004	0.00000E+000	2.98856E-004	2.40040E-001	7.47139E-001	3.57890E+000	9	...........
	62	0.84	7.52218E-001	4.01300E-004	0.00000E+000	3.01865E-004	2.40040E-001	7.52456E-001	3.57890E+000	9	...........
	63	0.853333	7.57526E-001	4.00553E-004	0.00000E+000	3.03430E-004	2.40040E-001	7.57760E-001	3.57890E+000	9	...........
	64	0.866667	7.62732E-001	4.00848E-004	0.00000E+000	3.05740E-004	2.40040E-001	7.62979E-001	3.57890E+000	9	...........
	65	0.88	7.67929E-001	4.00172E-004	0.00000E+000	3.07304E-004	2.40040E-001	7.68182E-001	3.57890E+000	9	...........
	66	0.893333	7.73165E-001	3.99470E-004	0.00000E+000	3.08856E-004	2.40040E-001	7.73399E-001	3.57890E+000	9	...........
	67	0.906667	7.78390E-001	3.99391E-004	0.00000E+000	3.10882E-004	2.40040E-001	7.78620E-001	3.57890E+000	9	...........
	68	0.92	7.83586E-001	3.98960E-004	0.00000E+000	3.12620E-004	2.40040E-001	7.83819E-001	3.57890E+000	9	...........
	69	0.933333	7.88697E-001	4.00738E-004	0.00000E+000	3.16060E-004	2.40040E-001	7.88946E-001	3.57890E+000	9	...........
	70	0.946667	7.93840E-001	4.00842E-004	0.00000E+000	3.18204E-004	2.40040E-001	7.94097E-001	3.57890E+000	9	...........
	71	0.96	7.98930E-001	3.99753E-004	0.00000E+000	3.19375E-004	2.40040E-001	7.99170E-001	3.57890E+000	9	...........
	72	0.97333	8.03935E-001	4.00237E-004	0.00000E+000	3.21764E-004	2.40040E-001	8.04182E-001	3.57890E+000	9	...........
	73	0.98667	8.08973E-001	3.99943E-004	0.00000E+000	3.23543E-004	2.40040E-001	8.09236E-001	3.57890E+000	9	...........
	74	1	8.13972E-001	4.01029E-004	0.00000E+000	3.26427E-004	2.40040E-001	8.14228E-001	3.57890E+000	9	...........
	75	1.01333	8.18933E-001	4.01514E-004	0.00000E+000	3.28813E-004	2.40040E-001	8.19208E-001	3.57890E+000	9	...........
	76	1.02667	8.23885E-001	4.00296E-004	0.00000E+000	3.29798E-004	2.40040E-001	8.24181E-001	3.57890E+000	9	...........
	77	1.04	8.28809E-001	4.01248E-004	0.00000E+000	3.32558E-004	2.40040E-001	8.29091E-001	3.57890E+000	9	...........
	78	1.05333	8.33775E-001	4.00964E-004	0.00000E+000	3.34313E-004	2.40040E-001	8.34065E-001	3.57890E+000	9	...........
	79	1.06667	8.38628E-001	4.01030E-004	0.00000E+000	3.36315E-004	2.40040E-001	8.38907E-001	3.57890E+000	9	...........
	80	1.08	8.43497E-001	4.00779E-004	0.00000E+000	3.38056E-004	2.40040E-001	8.43787E-001	3.57890E+000	9	...........
	81	1.09333	8.48335E-001	4.01093E-004	0.00000E+000	3.40261E-004	2.40040E-001	8.48623E-001	3.57890E+000	9	...........
	82	1.10667	8.53152E-001	3.99172E-004	0.00000E+000	3.40554E-004	2.40040E-001	8.53417E-001	3.57890E+000	9	...........
	83	1.12	8.57891E-001	4.00782E-004	0.00000E+000	3.43828E-004	2.40040E-001	8.58203E-001	3.57890E+000	9	...........
	84	1.13333	8.62565E-001	4.01088E-004	0.00000E+000	3.45964E-004	2.40040E-001	8.62862E-001	3.57890E+000	9	...........
	85	1.14667	8.67206E-001	4.00378E-004	0.00000E+000	3.47210E-004	2.40040E-001	8.67527E-001	3.57890E+000	9	...........
	86	1.16	8.71887E-001	4.00938E-004	0.00000E+000	3.49573E-004	2.40040E-001	8.72189E-001	3.57890E+000	9	...........
	87	1.17333	8.76437E-001	4.00848E-004	0.00000E+000	3.51318E-004	2.40040E-001	8.76776E-001	3.57890E+000	9	...........
	88	1.18667	8.80930E-001	4.00663E-004	0.00000E+000	3.52956E-004	2.40040E-001	8.81268E-001	3.57890E+000	9	...........
	89	1.2	8.85492E-001	4.01017E-004	0.00000E+000	3.55097E-004	2.40040E-001	8.85829E-001	3.57890E+000	9	...........
	90	1.21333	8.90020E-001	4.00636E-004	0.00000E+000	3.56574E-004	2.40040E-001	8.90330E-001	3.57890E+000	9	...........
	91	1.22667	8.94482E-001	4.01511E-004	0.00000E+000	3.59144E-004	2.40040E-001	8.94794E-001	3.57890E+000	9	...........
	92	1.24	8.98905E-001	4.00924E-004	0.00000E+000	3.60393E-004	2.40040E-001	8.99210E-001	3.57890E+000	9	...........
	93	1.25333	9.03274E-001	4.01582E-004	0.00000E+000	3.62738E-004	2.40040E-001	9.03588E-001	3.57890E+000	9	...........
	94	1.26667	9.07646E-001	4.01716E-004	0.00000E+000	3.64616E-004	2.40040E-001	9.07943E-001	3.57890E+000	9	...........
	95	1.28	9.11986E-001	4.00456E-004	0.00000E+000	3.65211E-004	2.40040E-001	9.12273E-001	3.57890E+000	9	...........
	96	1.29333	9.16236E-001	4.02504E-004	0.00000E+000	3.68788E-004	2.40040E-001	9.16559E-001	3.57890E+000	9	...........
	97	1.30667	9.20510E-001	4.00116E-004	0.00000E+000	3.68311E-004	2.40040E-001	9.20819E-001	3.57890E+000	9	...........
	98	1.32	9.24719E-001	4.02011E-004	0.00000E+000	3.71747E-004	2.40040E-001	9.25002E-001	3.57890E+000	9	...........
	99	1.33333	9.28899E-001	4.01161E-004	0.00000E+000	3.72638E-004	2.40040E-001	9.29199E-001	3.57890E+000	9	...........
	100	1.34667	9.33148E-001	4.00657E-004	0.00000E+000	3.73873E-004	2.40040E-001	9.33455E-001	3.57890E+000	9	...........
	101	1.36	9.37265E-001	4.02551E-004	0.00000E+000	3.77297E-004	2.40040E-001	9.37575E-001	3.57890E+000	9	...........
	102	1.37333	9.41342E-001	4.01265E-004	0.00000E+000	3.77727E-004	2.40040E-001	9.41620E-001	3.57890E+000	9	...........
	103	1.38667	9.45352E-001	4.00138E-004	0.00000E+000	3.78271E-004	2.40040E-001	9.45631E-001	3.57890E+000	9	...........
	104	1.4	9.49389E-001	3.99721E-004	0.00000E+000	3.79490E-004	2.40040E-001	9.49664E-001	3.57890E+000	9	...........
	105	1.41333	9.53370E-001	4.02539E-004	0.00000E+000	3.83769E-004	2.40040E-001	9.53638E-001	3.57890E+000	9	...........
	106	1.42667	9.57245E-001	3.99859E-004	0.00000E+000	3.82763E-004	2.40040E-001	9.57529E-001	3.57890E+000	9	...........
	107	1.44	9.61155E-001	4.01749E-004	0.00000E+000	3.86144E-004	2.40040E-001	9.61420E-001	3.57890E+000	9	...........
	108	1.45333	9.64979E-001	4.00345E-004	0.00000E+000	3.86325E-004	2.40040E-001	9.65285E-001	3.57890E+000	9	...........
	109	1.46667	9.68799E-001	4.00898E-004	0.00000E+000	3.88390E-004	2.40040E-001	9.69121E-001	3.57890E+000	9	...........
	110	1.48	9.72561E-001	4.00986E-004	0.00000E+000	3.89983E-004	2.40040E-001	9.72916E-001	3.57890E+000	9	...........
	111	1.49333	9.76335E-001	4.01374E-004	0.00000E+000	3.91876E-004	2.40040E-001	9.76654E-001	3.57890E+000	9	...........
	112	1.50667	9.80046E-001	4.00780E-004	0.00000E+000	3.92783E-004	2.40040E-001	9.80368E-001	3.57890E+000	9	...........
	113	1.52	9.83693E-001	4.02143E-004	0.00000E+000	3.95585E-004	2.40040E-001	9.84017E-001	3.57890E+000	9	...........
	114	1.53333	9.87315E-001	4.01237E-004	0.00000E+000	3.96147E-004	2.40040E-001	9.87654E-001	3.57890E+000	9	...........
	115	1.54667	9.90939E-001	4.01515E-004	0.00000E+000	3.97877E-004	2.40040E-001	9.91244E-001	3.57890E+000	9	...........
	116	1.56	9.94495E-001	4.01310E-004	0.00000E+000	3.99101E-004	2.40040E-001	9.94794E-001	3.57890E+000	9	...........
	117	1.57333	9.97980E-001	4.00299E-004	0.00000E+000	3.99491E-004	2.40040E-001	9.98336E-001	3.57890E+000	9	...........
	118	1.57667	1.00011E+000	4.03015E-004	0.00000E+000	4.03058E-004	2.40040E-001	1.00044E+000	3.57890E+000	9	...........
STARTTIMEOFFSET	QUANT	1501.353	Start Time Offset (s)
