EXPLAIN
TAG	PWR800_CHARGE
TITLE	LABEL	PWR Cyclic Charge Discharge (Cell) - Charge Step	Test &Identifier
DATE	LABEL	12-7-2017	Date
TIME	LABEL	15:15:14	Time
NOTES	NOTES	3	&Notes...
	supercap test cell
	0.4mg
	6M KOH
PSTAT	PSTAT	IFC5000-01520	Potentiostat
CAPACITY	QUANT	1.00000E-003	Capacity (A-hr)
CELLTYPE	SELECTOR	1	&Cell Type
WORKINGCONNECTION	SELECTOR	0	&Working Lead
MAXCHARGETIME	VARIABLEANDUNITS	1.00000E+002	s	1.00000E+002	second(s)	Max &Charge Time
CHARGECURRENT	QUANT	4.00000E-004	&Charge Current (A) 
VOLTAGEFINISH	TWOPARAM	F	1.00000E-003	3.60000E+003	&Voltage Finish	 I (A) < 	Max Time(s)
SAMPLETIME	QUANT	1.00000E-002	Sa&mple Period (s)
CHARGESTOPAT1	MULTIPARAM	4	1.00000E+000	Charge Stop At &1	Voltage > Limit	V
CHARGESTOPAT2	MULTIPARAM	0	0.00000E+000	Charge Stop At &2	None	N/A
AESBHCSELECTOR	TOGGLE	F	Save Both Half Cells
IRCOMP	TOGGLE	F	IR &Measure
EOC	QUANT	0	Open Circuit (V)
SEQUENCER	TOGGLE	TRUE	Run as Sequence
PSTATMODEL	IQUANT	53	Pstat Model
PSTATSECTION	LABEL	IFC5000-01520	Pstat Section
PSTATSERIALNO	LABEL	01520	Pstat Serial Number
CTRLMODE	IQUANT	0	Control Mode
ELECTROMETER	IQUANT	1	RE=0 or CS=1
IESTAB	IQUANT	0	I/E Stability
CASPEED	IQUANT	4	Control Amp Speed
CONVENTION	IQUANT	1	Current Convention
ICHRANGE	IQUANT	2	Ich Range
ICHRANGEMODE	TOGGLE	T	Ich Auto Range
ICHOFFSETENABLE	TOGGLE	F	Ich Offset Enable
ICHOFFSET	QUANT	0	Ich Offset (V)
ICHFILTER	IQUANT	1	Ich Filter
VCHRANGE	IQUANT	2	Vch Range
VCHRANGEMODE	TOGGLE	T	Vch Auto Range
VCHOFFSETENABLE	TOGGLE	F	Vch Offset Enable
VCHOFFSET	QUANT	0	Vch Offset (V)
VCHFILTER	IQUANT	1	Vch Filter
IERANGELOWERLIMIT	IQUANT	9	I/E Range Lower Limit
IERANGEMODE	TOGGLE	F	I/E AutoRange
IERANGE	IQUANT	9	I/E Range
ACHSELECT	IQUANT	1	Ach Select
ACHRANGE	IQUANT	2	Ach Range
ACHOFFSETENABLE	TOGGLE	F	Ach Offset Enable
ACHOFFSET	QUANT	0	Ach Offset (V)
ACHFILTER	IQUANT	1	Ach Filter
CABLEID	IQUANT	14	Cable ID
DCCALDATE	LABEL	5-7-2017	DC Calibration Date
ACCALDATE	LABEL	12/3/2015	AC Calibration Date
FRAMEWORKVERSION	QUANT	7.01	Framework Version
INSTRUMENTVERSION	LABEL	4.00	Instrument Version
CURVE	TABLE	108
	Pt	T	Vf	Im	Vu	Pwr	Sig	Ach	Temp	IERange	Over
	#	s	V	A	V	W	V	V	deg C	#	bits
	0	0.013333	3.86495E-001	4.00971E-004	0.00000E+000	1.54973E-004	2.40040E-001	3.86593E-001	3.57700E+000	9	...........
	1	0.026667	3.99170E-001	4.01526E-004	0.00000E+000	1.60277E-004	2.40040E-001	3.99249E-001	3.57700E+000	9	...........
	2	0.04	4.09944E-001	4.00732E-004	0.00000E+000	1.64278E-004	2.40040E-001	4.10030E-001	3.57700E+000	9	...........
	3	0.053333	4.19786E-001	4.00935E-004	0.00000E+000	1.68307E-004	2.40040E-001	4.19877E-001	3.57700E+000	9	...........
	4	0.066667	4.28982E-001	4.00225E-004	0.00000E+000	1.71690E-004	2.40040E-001	4.29073E-001	3.57700E+000	9	...........
	5	0.08	4.37546E-001	4.00661E-004	0.00000E+000	1.75308E-004	2.40040E-001	4.37638E-001	3.57700E+000	9	...........
	6	0.093333	4.45816E-001	4.00768E-004	0.00000E+000	1.78669E-004	2.40040E-001	4.45907E-001	3.57700E+000	9	...........
	7	0.106667	4.53869E-001	4.00797E-004	0.00000E+000	1.81909E-004	2.40040E-001	4.53959E-001	3.57700E+000	9	...........
	8	0.12	4.61692E-001	4.00832E-004	0.00000E+000	1.85061E-004	2.40040E-001	4.61782E-001	3.57700E+000	9	...........
	9	0.133333	4.69320E-001	4.01001E-004	0.00000E+000	1.88198E-004	2.40040E-001	4.69418E-001	3.57700E+000	9	...........
	10	0.146667	4.76801E-001	4.01842E-004	0.00000E+000	1.91599E-004	2.40040E-001	4.76899E-001	3.57700E+000	9	...........
	11	0.16	4.84194E-001	4.00153E-004	0.00000E+000	1.93752E-004	2.40040E-001	4.84291E-001	3.57700E+000	9	...........
	12	0.173333	4.91441E-001	4.00215E-004	0.00000E+000	1.96682E-004	2.40040E-001	4.91542E-001	3.57700E+000	9	...........
	13	0.186667	4.98538E-001	4.00653E-004	0.00000E+000	1.99741E-004	2.40040E-001	4.98643E-001	3.57700E+000	9	...........
	14	0.2	5.05549E-001	4.01867E-004	0.00000E+000	2.03164E-004	2.40040E-001	5.05655E-001	3.57700E+000	9	...........
	15	0.213333	5.12503E-001	4.01911E-004	0.00000E+000	2.05980E-004	2.40040E-001	5.12610E-001	3.57700E+000	9	...........
	16	0.226667	5.19313E-001	4.00635E-004	0.00000E+000	2.08055E-004	2.40040E-001	5.19425E-001	3.57700E+000	9	...........
	17	0.24	5.26123E-001	4.02006E-004	0.00000E+000	2.11504E-004	2.40040E-001	5.26234E-001	3.57700E+000	9	...........
	18	0.253333	5.32841E-001	4.01087E-004	0.00000E+000	2.13715E-004	2.40040E-001	5.32950E-001	3.57700E+000	9	...........
	19	0.266667	5.39423E-001	4.00025E-004	0.00000E+000	2.15783E-004	2.40040E-001	5.39652E-001	3.57700E+000	9	...........
	20	0.28	5.46178E-001	4.01274E-004	0.00000E+000	2.19167E-004	2.40040E-001	5.46377E-001	3.57700E+000	9	...........
	21	0.293333	5.52863E-001	4.02272E-004	0.00000E+000	2.22402E-004	2.40040E-001	5.53059E-001	3.57700E+000	9	...........
	22	0.306667	5.59466E-001	4.02058E-004	0.00000E+000	2.24938E-004	2.40040E-001	5.59679E-001	3.57700E+000	9	...........
	23	0.32	5.66131E-001	4.01882E-004	0.00000E+000	2.27518E-004	2.40040E-001	5.66288E-001	3.57700E+000	9	...........
	24	0.333333	5.72649E-001	3.99574E-004	0.00000E+000	2.28816E-004	2.40040E-001	5.72792E-001	3.57700E+000	9	...........
	25	0.346667	5.79088E-001	4.01596E-004	0.00000E+000	2.32560E-004	2.40040E-001	5.79291E-001	3.57700E+000	9	...........
	26	0.36	5.85564E-001	4.01832E-004	0.00000E+000	2.35298E-004	2.40040E-001	5.85742E-001	3.57700E+000	9	...........
	27	0.373333	5.91978E-001	4.02240E-004	0.00000E+000	2.38117E-004	2.40040E-001	5.92157E-001	3.57700E+000	9	...........
	28	0.386667	5.98258E-001	4.00097E-004	0.00000E+000	2.39361E-004	2.40040E-001	5.98468E-001	3.57700E+000	9	...........
	29	0.4	6.04572E-001	4.00754E-004	0.00000E+000	2.42285E-004	2.40040E-001	6.04813E-001	3.57700E+000	9	...........
	30	0.413333	6.10825E-001	4.00715E-004	0.00000E+000	2.44766E-004	2.40040E-001	6.11058E-001	3.57700E+000	9	...........
	31	0.426667	6.17158E-001	4.00745E-004	0.00000E+000	2.47323E-004	2.40040E-001	6.17356E-001	3.57700E+000	9	...........
	32	0.44	6.23404E-001	4.01564E-004	0.00000E+000	2.50337E-004	2.40040E-001	6.23606E-001	3.57700E+000	9	...........
	33	0.453333	6.29670E-001	3.99964E-004	0.00000E+000	2.51845E-004	2.40040E-001	6.29891E-001	3.57700E+000	9	...........
	34	0.466667	6.35884E-001	4.00736E-004	0.00000E+000	2.54821E-004	2.40040E-001	6.36108E-001	3.57700E+000	9	...........
	35	0.48	6.42128E-001	4.01236E-004	0.00000E+000	2.57644E-004	2.40040E-001	6.42366E-001	3.57700E+000	9	...........
	36	0.493333	6.48307E-001	4.01933E-004	0.00000E+000	2.60576E-004	2.40040E-001	6.48538E-001	3.57700E+000	9	...........
	37	0.506667	6.54428E-001	4.00365E-004	0.00000E+000	2.62010E-004	2.40040E-001	6.54654E-001	3.57700E+000	9	...........
	38	0.52	6.60543E-001	4.00917E-004	0.00000E+000	2.64823E-004	2.40040E-001	6.60772E-001	3.57700E+000	9	...........
	39	0.533333	6.66693E-001	4.01094E-004	0.00000E+000	2.67407E-004	2.40040E-001	6.66922E-001	3.57700E+000	9	...........
	40	0.546667	6.72731E-001	4.01575E-004	0.00000E+000	2.70152E-004	2.40040E-001	6.72939E-001	3.57700E+000	9	...........
	41	0.56	6.78746E-001	4.01260E-004	0.00000E+000	2.72353E-004	2.40040E-001	6.78985E-001	3.57700E+000	9	...........
	42	0.573333	6.84776E-001	4.01702E-004	0.00000E+000	2.75076E-004	2.40040E-001	6.85007E-001	3.57700E+000	9	...........
	43	0.586667	6.90703E-001	4.00572E-004	0.00000E+000	2.76676E-004	2.40040E-001	6.90949E-001	3.57700E+000	9	...........
	44	0.6	6.96611E-001	4.00498E-004	0.00000E+000	2.78992E-004	2.40040E-001	6.96867E-001	3.57700E+000	9	...........
	45	0.613333	7.02547E-001	4.00846E-004	0.00000E+000	2.81613E-004	2.40040E-001	7.02774E-001	3.57700E+000	9	...........
	46	0.626667	7.08408E-001	4.01370E-004	0.00000E+000	2.84334E-004	2.40040E-001	7.08627E-001	3.57700E+000	9	...........
	47	0.64	7.14248E-001	4.00856E-004	0.00000E+000	2.86311E-004	2.40040E-001	7.14469E-001	3.57700E+000	9	...........
	48	0.653333	7.20120E-001	4.01029E-004	0.00000E+000	2.88789E-004	2.40040E-001	7.20335E-001	3.57700E+000	9	...........
	49	0.666667	7.25947E-001	4.00357E-004	0.00000E+000	2.90638E-004	2.40040E-001	7.26123E-001	3.57700E+000	9	...........
	50	0.68	7.31656E-001	4.00895E-004	0.00000E+000	2.93317E-004	2.40040E-001	7.31854E-001	3.57700E+000	9	...........
	51	0.693333	7.37378E-001	4.00867E-004	0.00000E+000	2.95590E-004	2.40040E-001	7.37579E-001	3.57700E+000	9	...........
	52	0.706667	7.43041E-001	4.01585E-004	0.00000E+000	2.98394E-004	2.40040E-001	7.43269E-001	3.57700E+000	9	...........
	53	0.72	7.48699E-001	4.00816E-004	0.00000E+000	3.00091E-004	2.40040E-001	7.48931E-001	3.57700E+000	9	...........
	54	0.733333	7.54422E-001	4.01328E-004	0.00000E+000	3.02771E-004	2.40040E-001	7.54650E-001	3.57700E+000	9	...........
	55	0.746667	7.60127E-001	4.00750E-004	0.00000E+000	3.04621E-004	2.40040E-001	7.60336E-001	3.57700E+000	9	...........
	56	0.76	7.65706E-001	4.00283E-004	0.00000E+000	3.06499E-004	2.40040E-001	7.65964E-001	3.57700E+000	9	...........
	57	0.773333	7.71283E-001	4.00147E-004	0.00000E+000	3.08626E-004	2.40040E-001	7.71554E-001	3.57700E+000	9	...........
	58	0.786667	7.76857E-001	3.99991E-004	0.00000E+000	3.10736E-004	2.40040E-001	7.77134E-001	3.57700E+000	9	...........
	59	0.8	7.82378E-001	4.00880E-004	0.00000E+000	3.13640E-004	2.40040E-001	7.82626E-001	3.57700E+000	9	...........
	60	0.813333	7.87875E-001	4.00815E-004	0.00000E+000	3.15792E-004	2.40040E-001	7.88097E-001	3.57700E+000	9	...........
	61	0.826667	7.93310E-001	4.00923E-004	0.00000E+000	3.18056E-004	2.40040E-001	7.93562E-001	3.57700E+000	9	...........
	62	0.84	7.98720E-001	4.01249E-004	0.00000E+000	3.20486E-004	2.40040E-001	7.98937E-001	3.57700E+000	9	...........
	63	0.853333	8.04034E-001	4.00880E-004	0.00000E+000	3.22321E-004	2.40040E-001	8.04295E-001	3.57700E+000	9	...........
	64	0.866667	8.09331E-001	4.02182E-004	0.00000E+000	3.25498E-004	2.40040E-001	8.09596E-001	3.57700E+000	9	...........
	65	0.88	8.14711E-001	4.02329E-004	0.00000E+000	3.27782E-004	2.40040E-001	8.14996E-001	3.57710E+000	9	...........
	66	0.893333	8.20086E-001	4.01225E-004	0.00000E+000	3.29039E-004	2.40040E-001	8.20355E-001	3.57780E+000	9	...........
	67	0.906667	8.25349E-001	4.00818E-004	0.00000E+000	3.30815E-004	2.40040E-001	8.25621E-001	3.57780E+000	9	...........
	68	0.92	8.30512E-001	4.00829E-004	0.00000E+000	3.32894E-004	2.40040E-001	8.30815E-001	3.57780E+000	9	...........
	69	0.933333	8.35577E-001	4.01764E-004	0.00000E+000	3.35705E-004	2.40040E-001	8.35897E-001	3.57780E+000	9	...........
	70	0.946667	8.40692E-001	4.01805E-004	0.00000E+000	3.37794E-004	2.40040E-001	8.41002E-001	3.57780E+000	9	...........
	71	0.96	8.45704E-001	4.00092E-004	0.00000E+000	3.38359E-004	2.40040E-001	8.46017E-001	3.57780E+000	9	...........
	72	0.97333	8.50731E-001	4.00648E-004	0.00000E+000	3.40844E-004	2.40040E-001	8.51046E-001	3.57780E+000	9	...........
	73	0.98667	8.55765E-001	3.99904E-004	0.00000E+000	3.42224E-004	2.40040E-001	8.56096E-001	3.57780E+000	9	...........
	74	1	8.60757E-001	4.00974E-004	0.00000E+000	3.45141E-004	2.40040E-001	8.61079E-001	3.57780E+000	9	...........
	75	1.01333	8.65636E-001	4.00921E-004	0.00000E+000	3.47052E-004	2.40040E-001	8.65971E-001	3.57780E+000	9	...........
	76	1.02667	8.70571E-001	3.99949E-004	0.00000E+000	3.48184E-004	2.40040E-001	8.70891E-001	3.57780E+000	9	...........
	77	1.04	8.75435E-001	4.00815E-004	0.00000E+000	3.50887E-004	2.40040E-001	8.75753E-001	3.57780E+000	9	...........
	78	1.05333	8.80208E-001	4.00536E-004	0.00000E+000	3.52555E-004	2.40040E-001	8.80534E-001	3.57780E+000	9	...........
	79	1.06667	8.84993E-001	4.00960E-004	0.00000E+000	3.54847E-004	2.40040E-001	8.85300E-001	3.57780E+000	9	...........
	80	1.08	8.89660E-001	4.02294E-004	0.00000E+000	3.57905E-004	2.40040E-001	8.89934E-001	3.57780E+000	9	...........
	81	1.09333	8.94376E-001	4.00904E-004	0.00000E+000	3.58559E-004	2.40040E-001	8.94675E-001	3.57780E+000	9	...........
	82	1.10667	8.98964E-001	4.00598E-004	0.00000E+000	3.60123E-004	2.40040E-001	8.99294E-001	3.57780E+000	9	...........
	83	1.12	9.03552E-001	4.02127E-004	0.00000E+000	3.63342E-004	2.40040E-001	9.03839E-001	3.57780E+000	9	...........
	84	1.13333	9.08072E-001	4.00051E-004	0.00000E+000	3.63275E-004	2.40040E-001	9.08384E-001	3.57780E+000	9	...........
	85	1.14667	9.12679E-001	4.00785E-004	0.00000E+000	3.65788E-004	2.40040E-001	9.12970E-001	3.57780E+000	9	...........
	86	1.16	9.17143E-001	4.01148E-004	0.00000E+000	3.67910E-004	2.40040E-001	9.17449E-001	3.57780E+000	9	...........
	87	1.17333	9.21658E-001	4.00876E-004	0.00000E+000	3.69471E-004	2.40040E-001	9.21924E-001	3.57780E+000	9	...........
	88	1.18667	9.26046E-001	4.01240E-004	0.00000E+000	3.71567E-004	2.40040E-001	9.26307E-001	3.57780E+000	9	...........
	89	1.2	9.30387E-001	4.01116E-004	0.00000E+000	3.73193E-004	2.40040E-001	9.30624E-001	3.57780E+000	9	...........
	90	1.21333	9.34766E-001	4.00290E-004	0.00000E+000	3.74177E-004	2.40040E-001	9.35034E-001	3.57780E+000	9	...........
	91	1.22667	9.39037E-001	4.01368E-004	0.00000E+000	3.76899E-004	2.40040E-001	9.39315E-001	3.57780E+000	9	...........
	92	1.24	9.43240E-001	4.02004E-004	0.00000E+000	3.79186E-004	2.40040E-001	9.43510E-001	3.57780E+000	9	...........
	93	1.25333	9.47447E-001	4.02328E-004	0.00000E+000	3.81184E-004	2.40040E-001	9.47730E-001	3.57780E+000	9	...........
	94	1.26667	9.51653E-001	4.01552E-004	0.00000E+000	3.82139E-004	2.40040E-001	9.51924E-001	3.57780E+000	9	...........
	95	1.28	9.55781E-001	3.99161E-004	0.00000E+000	3.81511E-004	2.40040E-001	9.56050E-001	3.57780E+000	9	...........
	96	1.29333	9.59901E-001	4.00738E-004	0.00000E+000	3.84669E-004	2.40040E-001	9.60204E-001	3.57780E+000	9	...........
	97	1.30667	9.63849E-001	4.01406E-004	0.00000E+000	3.86894E-004	2.40040E-001	9.64168E-001	3.57780E+000	9	...........
	98	1.32	9.67817E-001	4.00970E-004	0.00000E+000	3.88065E-004	2.40040E-001	9.68146E-001	3.57780E+000	9	...........
	99	1.33333	9.71822E-001	4.01566E-004	0.00000E+000	3.90251E-004	2.40040E-001	9.72172E-001	3.57780E+000	9	...........
	100	1.34667	9.75700E-001	4.01235E-004	0.00000E+000	3.91484E-004	2.40040E-001	9.76025E-001	3.57780E+000	9	...........
	101	1.36	9.79572E-001	4.01533E-004	0.00000E+000	3.93330E-004	2.40040E-001	9.79889E-001	3.57780E+000	9	...........
	102	1.37333	9.83414E-001	4.00323E-004	0.00000E+000	3.93683E-004	2.40040E-001	9.83749E-001	3.57780E+000	9	...........
	103	1.38667	9.87255E-001	4.00494E-004	0.00000E+000	3.95390E-004	2.40040E-001	9.87582E-001	3.57780E+000	9	...........
	104	1.4	9.90954E-001	4.00593E-004	0.00000E+000	3.96969E-004	2.40040E-001	9.91310E-001	3.57780E+000	9	...........
	105	1.41333	9.94609E-001	3.99927E-004	0.00000E+000	3.97771E-004	2.40040E-001	9.94956E-001	3.57780E+000	9	...........
	106	1.42667	9.98292E-001	4.00676E-004	0.00000E+000	3.99992E-004	2.40040E-001	9.98636E-001	3.57780E+000	9	...........
	107	1.42833	1.00030E+000	4.02136E-004	0.00000E+000	4.02255E-004	2.40040E-001	1.00070E+000	3.57780E+000	9	...........
STARTTIMEOFFSET	QUANT	2683.956	Start Time Offset (s)
