EXPLAIN
TAG	PWR800_CHARGE
TITLE	LABEL	PWR Cyclic Charge Discharge (Cell) - Charge Step	Test &Identifier
DATE	LABEL	12-7-2017	Date
TIME	LABEL	15:12:57	Time
NOTES	NOTES	3	&Notes...
	supercap test cell
	0.4mg
	6M KOH
PSTAT	PSTAT	IFC5000-01520	Potentiostat
CAPACITY	QUANT	1.00000E-003	Capacity (A-hr)
CELLTYPE	SELECTOR	1	&Cell Type
WORKINGCONNECTION	SELECTOR	0	&Working Lead
MAXCHARGETIME	VARIABLEANDUNITS	1.00000E+002	s	1.00000E+002	second(s)	Max &Charge Time
CHARGECURRENT	QUANT	4.00000E-004	&Charge Current (A) 
VOLTAGEFINISH	TWOPARAM	F	1.00000E-003	3.60000E+003	&Voltage Finish	 I (A) < 	Max Time(s)
SAMPLETIME	QUANT	1.00000E-002	Sa&mple Period (s)
CHARGESTOPAT1	MULTIPARAM	4	1.00000E+000	Charge Stop At &1	Voltage > Limit	V
CHARGESTOPAT2	MULTIPARAM	0	0.00000E+000	Charge Stop At &2	None	N/A
AESBHCSELECTOR	TOGGLE	F	Save Both Half Cells
IRCOMP	TOGGLE	F	IR &Measure
EOC	QUANT	0	Open Circuit (V)
SEQUENCER	TOGGLE	TRUE	Run as Sequence
PSTATMODEL	IQUANT	53	Pstat Model
PSTATSECTION	LABEL	IFC5000-01520	Pstat Section
PSTATSERIALNO	LABEL	01520	Pstat Serial Number
CTRLMODE	IQUANT	0	Control Mode
ELECTROMETER	IQUANT	1	RE=0 or CS=1
IESTAB	IQUANT	0	I/E Stability
CASPEED	IQUANT	4	Control Amp Speed
CONVENTION	IQUANT	1	Current Convention
ICHRANGE	IQUANT	2	Ich Range
ICHRANGEMODE	TOGGLE	T	Ich Auto Range
ICHOFFSETENABLE	TOGGLE	F	Ich Offset Enable
ICHOFFSET	QUANT	0	Ich Offset (V)
ICHFILTER	IQUANT	1	Ich Filter
VCHRANGE	IQUANT	2	Vch Range
VCHRANGEMODE	TOGGLE	T	Vch Auto Range
VCHOFFSETENABLE	TOGGLE	F	Vch Offset Enable
VCHOFFSET	QUANT	0	Vch Offset (V)
VCHFILTER	IQUANT	1	Vch Filter
IERANGELOWERLIMIT	IQUANT	9	I/E Range Lower Limit
IERANGEMODE	TOGGLE	F	I/E AutoRange
IERANGE	IQUANT	9	I/E Range
ACHSELECT	IQUANT	1	Ach Select
ACHRANGE	IQUANT	2	Ach Range
ACHOFFSETENABLE	TOGGLE	F	Ach Offset Enable
ACHOFFSET	QUANT	0	Ach Offset (V)
ACHFILTER	IQUANT	1	Ach Filter
CABLEID	IQUANT	14	Cable ID
DCCALDATE	LABEL	5-7-2017	DC Calibration Date
ACCALDATE	LABEL	12/3/2015	AC Calibration Date
FRAMEWORKVERSION	QUANT	7.01	Framework Version
INSTRUMENTVERSION	LABEL	4.00	Instrument Version
CURVE	TABLE	108
	Pt	T	Vf	Im	Vu	Pwr	Sig	Ach	Temp	IERange	Over
	#	s	V	A	V	W	V	V	deg C	#	bits
	0	0.013333	3.86158E-001	4.01020E-004	0.00000E+000	1.54857E-004	2.40040E-001	3.86244E-001	3.57680E+000	9	...........
	1	0.026667	3.98820E-001	4.00793E-004	0.00000E+000	1.59844E-004	2.40040E-001	3.98894E-001	3.57680E+000	9	...........
	2	0.04	4.09619E-001	4.01036E-004	0.00000E+000	1.64272E-004	2.40040E-001	4.09700E-001	3.57680E+000	9	...........
	3	0.053333	4.19345E-001	4.00998E-004	0.00000E+000	1.68157E-004	2.40040E-001	4.19434E-001	3.57680E+000	9	...........
	4	0.066667	4.28406E-001	4.00369E-004	0.00000E+000	1.71520E-004	2.40040E-001	4.28493E-001	3.57680E+000	9	...........
	5	0.08	4.37017E-001	3.99779E-004	0.00000E+000	1.74710E-004	2.40040E-001	4.37101E-001	3.57680E+000	9	...........
	6	0.093333	4.45304E-001	4.01786E-004	0.00000E+000	1.78917E-004	2.40040E-001	4.45389E-001	3.57680E+000	9	...........
	7	0.106667	4.53298E-001	4.01332E-004	0.00000E+000	1.81923E-004	2.40040E-001	4.53390E-001	3.57680E+000	9	...........
	8	0.12	4.61062E-001	4.00992E-004	0.00000E+000	1.84882E-004	2.40040E-001	4.61151E-001	3.57680E+000	9	...........
	9	0.133333	4.68660E-001	4.01144E-004	0.00000E+000	1.88000E-004	2.40040E-001	4.68747E-001	3.57680E+000	9	...........
	10	0.146667	4.76110E-001	4.01398E-004	0.00000E+000	1.91110E-004	2.40040E-001	4.76202E-001	3.57680E+000	9	...........
	11	0.16	4.83452E-001	4.01796E-004	0.00000E+000	1.94249E-004	2.40040E-001	4.83545E-001	3.57680E+000	9	...........
	12	0.173333	4.90549E-001	4.00841E-004	0.00000E+000	1.96632E-004	2.40040E-001	4.90644E-001	3.57680E+000	9	...........
	13	0.186667	4.97523E-001	4.01909E-004	0.00000E+000	1.99959E-004	2.40040E-001	4.97621E-001	3.57680E+000	9	...........
	14	0.2	5.04492E-001	4.01898E-004	0.00000E+000	2.02755E-004	2.40040E-001	5.04593E-001	3.57680E+000	9	...........
	15	0.213333	5.11434E-001	4.00423E-004	0.00000E+000	2.04790E-004	2.40040E-001	5.11536E-001	3.57680E+000	9	...........
	16	0.226667	5.18316E-001	4.02652E-004	0.00000E+000	2.08701E-004	2.40040E-001	5.18419E-001	3.57680E+000	9	...........
	17	0.24	5.25106E-001	4.00417E-004	0.00000E+000	2.10261E-004	2.40040E-001	5.25205E-001	3.57680E+000	9	...........
	18	0.253333	5.31739E-001	4.00097E-004	0.00000E+000	2.12747E-004	2.40040E-001	5.31863E-001	3.57680E+000	9	...........
	19	0.266667	5.38240E-001	4.00304E-004	0.00000E+000	2.15460E-004	2.40040E-001	5.38432E-001	3.57680E+000	9	...........
	20	0.28	5.44809E-001	4.00359E-004	0.00000E+000	2.18119E-004	2.40040E-001	5.45006E-001	3.57680E+000	9	...........
	21	0.293333	5.51386E-001	3.99891E-004	0.00000E+000	2.20494E-004	2.40040E-001	5.51582E-001	3.57680E+000	9	...........
	22	0.306667	5.57905E-001	4.02722E-004	0.00000E+000	2.24681E-004	2.40040E-001	5.58091E-001	3.57680E+000	9	...........
	23	0.32	5.64414E-001	4.01519E-004	0.00000E+000	2.26623E-004	2.40040E-001	5.64627E-001	3.57680E+000	9	...........
	24	0.333333	5.70895E-001	4.01702E-004	0.00000E+000	2.29330E-004	2.40040E-001	5.71111E-001	3.57680E+000	9	...........
	25	0.346667	5.77309E-001	3.99549E-004	0.00000E+000	2.30663E-004	2.40040E-001	5.77522E-001	3.57680E+000	9	...........
	26	0.36	5.83631E-001	4.00314E-004	0.00000E+000	2.33635E-004	2.40040E-001	5.83871E-001	3.57680E+000	9	...........
	27	0.373333	5.89981E-001	4.01805E-004	0.00000E+000	2.37057E-004	2.40040E-001	5.90221E-001	3.57680E+000	9	...........
	28	0.386667	5.96357E-001	4.00421E-004	0.00000E+000	2.38794E-004	2.40040E-001	5.96588E-001	3.57680E+000	9	...........
	29	0.4	6.02630E-001	4.01390E-004	0.00000E+000	2.41890E-004	2.40040E-001	6.02886E-001	3.57680E+000	9	...........
	30	0.413333	6.08938E-001	4.01340E-004	0.00000E+000	2.44391E-004	2.40040E-001	6.09178E-001	3.57680E+000	9	...........
	31	0.426667	6.15236E-001	4.01432E-004	0.00000E+000	2.46975E-004	2.40040E-001	6.15447E-001	3.57680E+000	9	...........
	32	0.44	6.21434E-001	4.01608E-004	0.00000E+000	2.49573E-004	2.40040E-001	6.21626E-001	3.57680E+000	9	...........
	33	0.453333	6.27625E-001	4.01411E-004	0.00000E+000	2.51935E-004	2.40040E-001	6.27846E-001	3.57680E+000	9	...........
	34	0.466667	6.33789E-001	4.01218E-004	0.00000E+000	2.54288E-004	2.40040E-001	6.34002E-001	3.57680E+000	9	...........
	35	0.48	6.39897E-001	4.00927E-004	0.00000E+000	2.56552E-004	2.40040E-001	6.40139E-001	3.57680E+000	9	...........
	36	0.493333	6.46033E-001	4.00271E-004	0.00000E+000	2.58588E-004	2.40040E-001	6.46267E-001	3.57680E+000	9	...........
	37	0.506667	6.52116E-001	4.01495E-004	0.00000E+000	2.61821E-004	2.40040E-001	6.52344E-001	3.57682E+000	9	...........
	38	0.52	6.58186E-001	4.01746E-004	0.00000E+000	2.64424E-004	2.40040E-001	6.58400E-001	3.57700E+000	9	...........
	39	0.533333	6.64244E-001	4.02402E-004	0.00000E+000	2.67293E-004	2.40040E-001	6.64480E-001	3.57700E+000	9	...........
	40	0.546667	6.70327E-001	4.00949E-004	0.00000E+000	2.68767E-004	2.40040E-001	6.70562E-001	3.57700E+000	9	...........
	41	0.56	6.76318E-001	4.00631E-004	0.00000E+000	2.70954E-004	2.40040E-001	6.76558E-001	3.57700E+000	9	...........
	42	0.573333	6.82259E-001	4.01683E-004	0.00000E+000	2.74051E-004	2.40040E-001	6.82488E-001	3.57700E+000	9	...........
	43	0.586667	6.88145E-001	4.00972E-004	0.00000E+000	2.75927E-004	2.40040E-001	6.88379E-001	3.57700E+000	9	...........
	44	0.6	6.94029E-001	4.01670E-004	0.00000E+000	2.78771E-004	2.40040E-001	6.94254E-001	3.57700E+000	9	...........
	45	0.613333	6.99870E-001	4.02167E-004	0.00000E+000	2.81465E-004	2.40040E-001	7.00102E-001	3.57700E+000	9	...........
	46	0.626667	7.05732E-001	4.00826E-004	0.00000E+000	2.82876E-004	2.40040E-001	7.05923E-001	3.57700E+000	9	...........
	47	0.64	7.11581E-001	4.00508E-004	0.00000E+000	2.84994E-004	2.40040E-001	7.11798E-001	3.57700E+000	9	...........
	48	0.653333	7.17469E-001	4.00908E-004	0.00000E+000	2.87639E-004	2.40040E-001	7.17688E-001	3.57700E+000	9	...........
	49	0.666667	7.23307E-001	4.01763E-004	0.00000E+000	2.90598E-004	2.40040E-001	7.23505E-001	3.57700E+000	9	...........
	50	0.68	7.29042E-001	4.01073E-004	0.00000E+000	2.92399E-004	2.40040E-001	7.29258E-001	3.57700E+000	9	...........
	51	0.693333	7.34744E-001	3.99858E-004	0.00000E+000	2.93794E-004	2.40040E-001	7.34978E-001	3.57700E+000	9	...........
	52	0.706667	7.40470E-001	4.00487E-004	0.00000E+000	2.96548E-004	2.40040E-001	7.40711E-001	3.57700E+000	9	...........
	53	0.72	7.46092E-001	4.01716E-004	0.00000E+000	2.99717E-004	2.40040E-001	7.46318E-001	3.57700E+000	9	...........
	54	0.733333	7.51760E-001	4.00198E-004	0.00000E+000	3.00853E-004	2.40040E-001	7.51995E-001	3.57700E+000	9	...........
	55	0.746667	7.57396E-001	4.01667E-004	0.00000E+000	3.04221E-004	2.40040E-001	7.57627E-001	3.57700E+000	9	...........
	56	0.76	7.62976E-001	4.01107E-004	0.00000E+000	3.06035E-004	2.40040E-001	7.63207E-001	3.57700E+000	9	...........
	57	0.773333	7.68537E-001	4.00487E-004	0.00000E+000	3.07789E-004	2.40040E-001	7.68765E-001	3.57700E+000	9	...........
	58	0.786667	7.74049E-001	4.01162E-004	0.00000E+000	3.10519E-004	2.40040E-001	7.74312E-001	3.57700E+000	9	...........
	59	0.8	7.79543E-001	4.01511E-004	0.00000E+000	3.12995E-004	2.40040E-001	7.79789E-001	3.57700E+000	9	...........
	60	0.813333	7.85034E-001	4.01823E-004	0.00000E+000	3.15445E-004	2.40040E-001	7.85231E-001	3.57700E+000	9	...........
	61	0.826667	7.90431E-001	4.01383E-004	0.00000E+000	3.17265E-004	2.40040E-001	7.90656E-001	3.57700E+000	9	...........
	62	0.84	7.95922E-001	4.00133E-004	0.00000E+000	3.18475E-004	2.40040E-001	7.96126E-001	3.57700E+000	9	...........
	63	0.853333	8.01265E-001	4.00020E-004	0.00000E+000	3.20522E-004	2.40040E-001	8.01451E-001	3.57700E+000	9	...........
	64	0.866667	8.06598E-001	4.01047E-004	0.00000E+000	3.23484E-004	2.40040E-001	8.06838E-001	3.57700E+000	9	...........
	65	0.88	8.11883E-001	4.00682E-004	0.00000E+000	3.25307E-004	2.40040E-001	8.12128E-001	3.57700E+000	9	...........
	66	0.893333	8.17115E-001	4.00630E-004	0.00000E+000	3.27361E-004	2.40040E-001	8.17367E-001	3.57700E+000	9	...........
	67	0.906667	8.22360E-001	4.01281E-004	0.00000E+000	3.29997E-004	2.40040E-001	8.22626E-001	3.57700E+000	9	...........
	68	0.92	8.27617E-001	4.01199E-004	0.00000E+000	3.32039E-004	2.40040E-001	8.27886E-001	3.57700E+000	9	...........
	69	0.933333	8.32801E-001	4.01243E-004	0.00000E+000	3.34155E-004	2.40040E-001	8.33070E-001	3.57700E+000	9	...........
	70	0.946667	8.37862E-001	4.00605E-004	0.00000E+000	3.35652E-004	2.40040E-001	8.38117E-001	3.57700E+000	9	...........
	71	0.96	8.42967E-001	3.99964E-004	0.00000E+000	3.37156E-004	2.40040E-001	8.43239E-001	3.57700E+000	9	...........
	72	0.97333	8.47994E-001	4.02522E-004	0.00000E+000	3.41336E-004	2.40040E-001	8.48253E-001	3.57700E+000	9	...........
	73	0.98667	8.52988E-001	4.00546E-004	0.00000E+000	3.41661E-004	2.40040E-001	8.53243E-001	3.57700E+000	9	...........
	74	1	8.57966E-001	4.01484E-004	0.00000E+000	3.44459E-004	2.40040E-001	8.58268E-001	3.57700E+000	9	...........
	75	1.01333	8.62864E-001	4.01003E-004	0.00000E+000	3.46011E-004	2.40040E-001	8.63141E-001	3.57700E+000	9	...........
	76	1.02667	8.67775E-001	4.01532E-004	0.00000E+000	3.48439E-004	2.40040E-001	8.68071E-001	3.57700E+000	9	...........
	77	1.04	8.72666E-001	4.01640E-004	0.00000E+000	3.50498E-004	2.40040E-001	8.72962E-001	3.57700E+000	9	...........
	78	1.05333	8.77446E-001	4.01272E-004	0.00000E+000	3.52095E-004	2.40040E-001	8.77728E-001	3.57700E+000	9	...........
	79	1.06667	8.82249E-001	3.99590E-004	0.00000E+000	3.52537E-004	2.40040E-001	8.82556E-001	3.57700E+000	9	...........
	80	1.08	8.86987E-001	4.02527E-004	0.00000E+000	3.57036E-004	2.40040E-001	8.87287E-001	3.57700E+000	9	...........
	81	1.09333	8.91651E-001	4.00576E-004	0.00000E+000	3.57174E-004	2.40040E-001	8.91954E-001	3.57700E+000	9	...........
	82	1.10667	8.96279E-001	4.02142E-004	0.00000E+000	3.60432E-004	2.40040E-001	8.96624E-001	3.57700E+000	9	...........
	83	1.12	9.00916E-001	4.01483E-004	0.00000E+000	3.61702E-004	2.40040E-001	9.01222E-001	3.57700E+000	9	...........
	84	1.13333	9.05437E-001	4.00051E-004	0.00000E+000	3.62221E-004	2.40040E-001	9.05740E-001	3.57700E+000	9	...........
	85	1.14667	9.10003E-001	4.00675E-004	0.00000E+000	3.64616E-004	2.40040E-001	9.10298E-001	3.57700E+000	9	...........
	86	1.16	9.14526E-001	4.01345E-004	0.00000E+000	3.67040E-004	2.40040E-001	9.14824E-001	3.57700E+000	9	...........
	87	1.17333	9.18960E-001	4.01040E-004	0.00000E+000	3.68539E-004	2.40040E-001	9.19277E-001	3.57700E+000	9	...........
	88	1.18667	9.23410E-001	4.01956E-004	0.00000E+000	3.71170E-004	2.40040E-001	9.23658E-001	3.57700E+000	9	...........
	89	1.2	9.27764E-001	4.01836E-004	0.00000E+000	3.72809E-004	2.40040E-001	9.28019E-001	3.57700E+000	9	...........
	90	1.21333	9.32083E-001	4.02239E-004	0.00000E+000	3.74920E-004	2.40040E-001	9.32378E-001	3.57700E+000	9	...........
	91	1.22667	9.36438E-001	3.99870E-004	0.00000E+000	3.74453E-004	2.40040E-001	9.36737E-001	3.57700E+000	9	...........
	92	1.24	9.40663E-001	4.01768E-004	0.00000E+000	3.77928E-004	2.40040E-001	9.40963E-001	3.57700E+000	9	...........
	93	1.25333	9.44868E-001	4.01199E-004	0.00000E+000	3.79080E-004	2.40040E-001	9.45185E-001	3.57700E+000	9	...........
	94	1.26667	9.49071E-001	4.00351E-004	0.00000E+000	3.79962E-004	2.40040E-001	9.49353E-001	3.57700E+000	9	...........
	95	1.28	9.53179E-001	4.00481E-004	0.00000E+000	3.81730E-004	2.40040E-001	9.53459E-001	3.57700E+000	9	...........
	96	1.29333	9.57295E-001	4.00480E-004	0.00000E+000	3.83378E-004	2.40040E-001	9.57599E-001	3.57700E+000	9	...........
	97	1.30667	9.61292E-001	4.00948E-004	0.00000E+000	3.85428E-004	2.40040E-001	9.61619E-001	3.57700E+000	9	...........
	98	1.32	9.65293E-001	4.00700E-004	0.00000E+000	3.86793E-004	2.40040E-001	9.65610E-001	3.57700E+000	9	...........
	99	1.33333	9.69231E-001	4.00142E-004	0.00000E+000	3.87830E-004	2.40040E-001	9.69578E-001	3.57700E+000	9	...........
	100	1.34667	9.73192E-001	4.01097E-004	0.00000E+000	3.90345E-004	2.40040E-001	9.73531E-001	3.57700E+000	9	...........
	101	1.36	9.77093E-001	4.00561E-004	0.00000E+000	3.91385E-004	2.40040E-001	9.77415E-001	3.57700E+000	9	...........
	102	1.37333	9.80904E-001	4.01011E-004	0.00000E+000	3.93353E-004	2.40040E-001	9.81199E-001	3.57700E+000	9	...........
	103	1.38667	9.84724E-001	4.01627E-004	0.00000E+000	3.95492E-004	2.40040E-001	9.85032E-001	3.57700E+000	9	...........
	104	1.4	9.88539E-001	4.01610E-004	0.00000E+000	3.97007E-004	2.40040E-001	9.88842E-001	3.57700E+000	9	...........
	105	1.41333	9.92276E-001	4.01137E-004	0.00000E+000	3.98038E-004	2.40040E-001	9.92582E-001	3.57700E+000	9	...........
	106	1.42667	9.95937E-001	4.01515E-004	0.00000E+000	3.99884E-004	2.40040E-001	9.96255E-001	3.57700E+000	9	...........
	107	1.43667	9.99104E-001	4.00348E-004	0.00000E+000	3.99989E-004	2.40040E-001	9.99429E-001	3.57700E+000	9	...........
STARTTIMEOFFSET	QUANT	2576.993	Start Time Offset (s)
