EXPLAIN
TAG	PWR800_CHARGE
TITLE	LABEL	PWR Cyclic Charge Discharge (Cell) - Charge Step	Test &Identifier
DATE	LABEL	12-7-2017	Date
TIME	LABEL	15:15:57	Time
NOTES	NOTES	3	&Notes...
	supercap test cell
	0.4mg
	6M KOH
PSTAT	PSTAT	IFC5000-01520	Potentiostat
CAPACITY	QUANT	1.00000E-003	Capacity (A-hr)
CELLTYPE	SELECTOR	1	&Cell Type
WORKINGCONNECTION	SELECTOR	0	&Working Lead
MAXCHARGETIME	VARIABLEANDUNITS	1.00000E+002	s	1.00000E+002	second(s)	Max &Charge Time
CHARGECURRENT	QUANT	4.00000E-004	&Charge Current (A) 
VOLTAGEFINISH	TWOPARAM	F	1.00000E-003	3.60000E+003	&Voltage Finish	 I (A) < 	Max Time(s)
SAMPLETIME	QUANT	1.00000E-002	Sa&mple Period (s)
CHARGESTOPAT1	MULTIPARAM	4	1.00000E+000	Charge Stop At &1	Voltage > Limit	V
CHARGESTOPAT2	MULTIPARAM	0	0.00000E+000	Charge Stop At &2	None	N/A
AESBHCSELECTOR	TOGGLE	F	Save Both Half Cells
IRCOMP	TOGGLE	F	IR &Measure
EOC	QUANT	0	Open Circuit (V)
SEQUENCER	TOGGLE	TRUE	Run as Sequence
PSTATMODEL	IQUANT	53	Pstat Model
PSTATSECTION	LABEL	IFC5000-01520	Pstat Section
PSTATSERIALNO	LABEL	01520	Pstat Serial Number
CTRLMODE	IQUANT	0	Control Mode
ELECTROMETER	IQUANT	1	RE=0 or CS=1
IESTAB	IQUANT	0	I/E Stability
CASPEED	IQUANT	4	Control Amp Speed
CONVENTION	IQUANT	1	Current Convention
ICHRANGE	IQUANT	2	Ich Range
ICHRANGEMODE	TOGGLE	T	Ich Auto Range
ICHOFFSETENABLE	TOGGLE	F	Ich Offset Enable
ICHOFFSET	QUANT	0	Ich Offset (V)
ICHFILTER	IQUANT	1	Ich Filter
VCHRANGE	IQUANT	2	Vch Range
VCHRANGEMODE	TOGGLE	T	Vch Auto Range
VCHOFFSETENABLE	TOGGLE	F	Vch Offset Enable
VCHOFFSET	QUANT	0	Vch Offset (V)
VCHFILTER	IQUANT	1	Vch Filter
IERANGELOWERLIMIT	IQUANT	9	I/E Range Lower Limit
IERANGEMODE	TOGGLE	F	I/E AutoRange
IERANGE	IQUANT	9	I/E Range
ACHSELECT	IQUANT	1	Ach Select
ACHRANGE	IQUANT	2	Ach Range
ACHOFFSETENABLE	TOGGLE	F	Ach Offset Enable
ACHOFFSET	QUANT	0	Ach Offset (V)
ACHFILTER	IQUANT	1	Ach Filter
CABLEID	IQUANT	14	Cable ID
DCCALDATE	LABEL	5-7-2017	DC Calibration Date
ACCALDATE	LABEL	12/3/2015	AC Calibration Date
FRAMEWORKVERSION	QUANT	7.01	Framework Version
INSTRUMENTVERSION	LABEL	4.00	Instrument Version
CURVE	TABLE	107
	Pt	T	Vf	Im	Vu	Pwr	Sig	Ach	Temp	IERange	Over
	#	s	V	A	V	W	V	V	deg C	#	bits
	0	0.013333	3.86986E-001	4.00971E-004	0.00000E+000	1.55170E-004	2.40040E-001	3.87082E-001	3.57700E+000	9	...........
	1	0.026667	3.99839E-001	4.01291E-004	0.00000E+000	1.60452E-004	2.40040E-001	3.99907E-001	3.57700E+000	9	...........
	2	0.04	4.10713E-001	4.00593E-004	0.00000E+000	1.64529E-004	2.40040E-001	4.10790E-001	3.57700E+000	9	...........
	3	0.053333	4.20423E-001	4.02670E-004	0.00000E+000	1.69292E-004	2.40040E-001	4.20504E-001	3.57700E+000	9	...........
	4	0.066667	4.29616E-001	4.01217E-004	0.00000E+000	1.72369E-004	2.40040E-001	4.29703E-001	3.57700E+000	9	...........
	5	0.08	4.38354E-001	4.00734E-004	0.00000E+000	1.75663E-004	2.40040E-001	4.38438E-001	3.57700E+000	9	...........
	6	0.093333	4.46676E-001	4.00209E-004	0.00000E+000	1.78764E-004	2.40040E-001	4.46765E-001	3.57700E+000	9	...........
	7	0.106667	4.54704E-001	4.01800E-004	0.00000E+000	1.82700E-004	2.40040E-001	4.54792E-001	3.57700E+000	9	...........
	8	0.12	4.62492E-001	4.01505E-004	0.00000E+000	1.85692E-004	2.40040E-001	4.62581E-001	3.57700E+000	9	...........
	9	0.133333	4.70154E-001	4.02565E-004	0.00000E+000	1.89267E-004	2.40040E-001	4.70247E-001	3.57700E+000	9	...........
	10	0.146667	4.77670E-001	4.02108E-004	0.00000E+000	1.92075E-004	2.40040E-001	4.77763E-001	3.57700E+000	9	...........
	11	0.16	4.85067E-001	3.99850E-004	0.00000E+000	1.93954E-004	2.40040E-001	4.85166E-001	3.57700E+000	9	...........
	12	0.173333	4.92306E-001	4.00381E-004	0.00000E+000	1.97110E-004	2.40040E-001	4.92408E-001	3.57700E+000	9	...........
	13	0.186667	4.99421E-001	4.00986E-004	0.00000E+000	2.00261E-004	2.40040E-001	4.99524E-001	3.57700E+000	9	...........
	14	0.2	5.06493E-001	4.02621E-004	0.00000E+000	2.03925E-004	2.40040E-001	5.06598E-001	3.57700E+000	9	...........
	15	0.213333	5.13530E-001	4.02214E-004	0.00000E+000	2.06549E-004	2.40040E-001	5.13636E-001	3.57700E+000	9	...........
	16	0.226667	5.20538E-001	4.01533E-004	0.00000E+000	2.09013E-004	2.40040E-001	5.20642E-001	3.57700E+000	9	...........
	17	0.24	5.27400E-001	4.02367E-004	0.00000E+000	2.12208E-004	2.40040E-001	5.27503E-001	3.57700E+000	9	...........
	18	0.253333	5.34038E-001	4.00619E-004	0.00000E+000	2.13946E-004	2.40040E-001	5.34170E-001	3.57700E+000	9	...........
	19	0.266667	5.40626E-001	3.99939E-004	0.00000E+000	2.16217E-004	2.40040E-001	5.40839E-001	3.57700E+000	9	...........
	20	0.28	5.47322E-001	4.01033E-004	0.00000E+000	2.19494E-004	2.40040E-001	5.47520E-001	3.57700E+000	9	...........
	21	0.293333	5.53984E-001	4.01071E-004	0.00000E+000	2.22187E-004	2.40040E-001	5.54192E-001	3.57700E+000	9	...........
	22	0.306667	5.60624E-001	3.99782E-004	0.00000E+000	2.24127E-004	2.40040E-001	5.60835E-001	3.57700E+000	9	...........
	23	0.32	5.67164E-001	4.00172E-004	0.00000E+000	2.26963E-004	2.40040E-001	5.67376E-001	3.57700E+000	9	...........
	24	0.333333	5.73617E-001	4.00436E-004	0.00000E+000	2.29697E-004	2.40040E-001	5.73800E-001	3.57700E+000	9	...........
	25	0.346667	5.80051E-001	4.01307E-004	0.00000E+000	2.32778E-004	2.40040E-001	5.80258E-001	3.57700E+000	9	...........
	26	0.36	5.86437E-001	4.01935E-004	0.00000E+000	2.35709E-004	2.40040E-001	5.86663E-001	3.57700E+000	9	...........
	27	0.373333	5.92866E-001	4.01650E-004	0.00000E+000	2.38125E-004	2.40040E-001	5.93090E-001	3.57700E+000	9	...........
	28	0.386667	5.99199E-001	4.01440E-004	0.00000E+000	2.40542E-004	2.40040E-001	5.99416E-001	3.57700E+000	9	...........
	29	0.4	6.05500E-001	3.99518E-004	0.00000E+000	2.41908E-004	2.40040E-001	6.05753E-001	3.57700E+000	9	...........
	30	0.413333	6.11798E-001	4.00955E-004	0.00000E+000	2.45304E-004	2.40040E-001	6.12033E-001	3.57700E+000	9	...........
	31	0.426667	6.18115E-001	4.01340E-004	0.00000E+000	2.48074E-004	2.40040E-001	6.18279E-001	3.57700E+000	9	...........
	32	0.44	6.24332E-001	4.02066E-004	0.00000E+000	2.51023E-004	2.40040E-001	6.24464E-001	3.57700E+000	9	...........
	33	0.453333	6.30552E-001	3.99649E-004	0.00000E+000	2.51999E-004	2.40040E-001	6.30699E-001	3.57700E+000	9	...........
	34	0.466667	6.36699E-001	4.00960E-004	0.00000E+000	2.55291E-004	2.40040E-001	6.36921E-001	3.57700E+000	9	...........
	35	0.48	6.42865E-001	4.00299E-004	0.00000E+000	2.57338E-004	2.40040E-001	6.43076E-001	3.57700E+000	9	...........
	36	0.493333	6.49048E-001	4.00029E-004	0.00000E+000	2.59638E-004	2.40040E-001	6.49243E-001	3.57700E+000	9	...........
	37	0.506667	6.55166E-001	3.99259E-004	0.00000E+000	2.61581E-004	2.40040E-001	6.55372E-001	3.57700E+000	9	...........
	38	0.52	6.61300E-001	4.02440E-004	0.00000E+000	2.66133E-004	2.40040E-001	6.61542E-001	3.57700E+000	9	...........
	39	0.533333	6.67364E-001	4.01381E-004	0.00000E+000	2.67867E-004	2.40040E-001	6.67604E-001	3.57700E+000	9	...........
	40	0.546667	6.73353E-001	4.00481E-004	0.00000E+000	2.69665E-004	2.40040E-001	6.73562E-001	3.57700E+000	9	...........
	41	0.56	6.79350E-001	4.01184E-004	0.00000E+000	2.72544E-004	2.40040E-001	6.79598E-001	3.57700E+000	9	...........
	42	0.573333	6.85376E-001	4.01369E-004	0.00000E+000	2.75089E-004	2.40040E-001	6.85585E-001	3.57700E+000	9	...........
	43	0.586667	6.91374E-001	4.00542E-004	0.00000E+000	2.76924E-004	2.40040E-001	6.91613E-001	3.57700E+000	9	...........
	44	0.6	6.97348E-001	3.99815E-004	0.00000E+000	2.78810E-004	2.40040E-001	6.97582E-001	3.57700E+000	9	...........
	45	0.613333	7.03275E-001	4.01396E-004	0.00000E+000	2.82292E-004	2.40040E-001	7.03500E-001	3.57700E+000	9	...........
	46	0.626667	7.09197E-001	4.02505E-004	0.00000E+000	2.85455E-004	2.40040E-001	7.09426E-001	3.57700E+000	9	...........
	47	0.64	7.15093E-001	4.01004E-004	0.00000E+000	2.86756E-004	2.40040E-001	7.15298E-001	3.57700E+000	9	...........
	48	0.653333	7.20979E-001	4.00565E-004	0.00000E+000	2.88799E-004	2.40040E-001	7.21151E-001	3.57700E+000	9	...........
	49	0.666667	7.26735E-001	4.01064E-004	0.00000E+000	2.91467E-004	2.40040E-001	7.26936E-001	3.57700E+000	9	...........
	50	0.68	7.32517E-001	4.01689E-004	0.00000E+000	2.94244E-004	2.40040E-001	7.32708E-001	3.57700E+000	9	...........
	51	0.693333	7.38263E-001	4.00994E-004	0.00000E+000	2.96039E-004	2.40040E-001	7.38471E-001	3.57700E+000	9	...........
	52	0.706667	7.44034E-001	4.01152E-004	0.00000E+000	2.98471E-004	2.40040E-001	7.44226E-001	3.57700E+000	9	...........
	53	0.72	7.49709E-001	4.02505E-004	0.00000E+000	3.01761E-004	2.40040E-001	7.49933E-001	3.57700E+000	9	...........
	54	0.733333	7.55347E-001	4.01021E-004	0.00000E+000	3.02910E-004	2.40040E-001	7.55585E-001	3.57700E+000	9	...........
	55	0.746667	7.61019E-001	4.02575E-004	0.00000E+000	3.06367E-004	2.40040E-001	7.61236E-001	3.57700E+000	9	...........
	56	0.76	7.66616E-001	4.01413E-004	0.00000E+000	3.07729E-004	2.40040E-001	7.66856E-001	3.57700E+000	9	...........
	57	0.773333	7.72213E-001	4.00048E-004	0.00000E+000	3.08922E-004	2.40040E-001	7.72432E-001	3.57700E+000	9	...........
	58	0.786667	7.77650E-001	4.00998E-004	0.00000E+000	3.11836E-004	2.40040E-001	7.77905E-001	3.57700E+000	9	...........
	59	0.8	7.83226E-001	4.01278E-004	0.00000E+000	3.14292E-004	2.40040E-001	7.83450E-001	3.57700E+000	9	...........
	60	0.813333	7.88743E-001	4.00564E-004	0.00000E+000	3.15942E-004	2.40040E-001	7.88967E-001	3.57700E+000	9	...........
	61	0.826667	7.94176E-001	4.00503E-004	0.00000E+000	3.18070E-004	2.40040E-001	7.94417E-001	3.57700E+000	9	...........
	62	0.84	7.99573E-001	4.01825E-004	0.00000E+000	3.21289E-004	2.40040E-001	7.99816E-001	3.57700E+000	9	...........
	63	0.853333	8.04919E-001	4.02623E-004	0.00000E+000	3.24079E-004	2.40040E-001	8.05178E-001	3.57700E+000	9	...........
	64	0.866667	8.10225E-001	4.02055E-004	0.00000E+000	3.25755E-004	2.40040E-001	8.10492E-001	3.57760E+000	9	...........
	65	0.88	8.15523E-001	4.00155E-004	0.00000E+000	3.26336E-004	2.40040E-001	8.15796E-001	3.57780E+000	9	...........
	66	0.893333	8.20812E-001	4.01446E-004	0.00000E+000	3.29512E-004	2.40040E-001	8.21080E-001	3.57780E+000	9	...........
	67	0.906667	8.26059E-001	4.01534E-004	0.00000E+000	3.31691E-004	2.40040E-001	8.26330E-001	3.57780E+000	9	...........
	68	0.92	8.31226E-001	4.00407E-004	0.00000E+000	3.32829E-004	2.40040E-001	8.31507E-001	3.57780E+000	9	...........
	69	0.933333	8.36451E-001	4.00057E-004	0.00000E+000	3.34628E-004	2.40040E-001	8.36733E-001	3.57780E+000	9	...........
	70	0.946667	8.41557E-001	4.01012E-004	0.00000E+000	3.37474E-004	2.40040E-001	8.41879E-001	3.57780E+000	9	...........
	71	0.96	8.46733E-001	4.00681E-004	0.00000E+000	3.39270E-004	2.40040E-001	8.47027E-001	3.57780E+000	9	...........
	72	0.97333	8.51751E-001	3.99131E-004	0.00000E+000	3.39960E-004	2.40040E-001	8.52058E-001	3.57780E+000	9	...........
	73	0.98667	8.56744E-001	4.00736E-004	0.00000E+000	3.43328E-004	2.40040E-001	8.57059E-001	3.57780E+000	9	...........
	74	1	8.61724E-001	3.99123E-004	0.00000E+000	3.43933E-004	2.40040E-001	8.61997E-001	3.57780E+000	9	...........
	75	1.01333	8.66664E-001	4.01459E-004	0.00000E+000	3.47930E-004	2.40040E-001	8.66986E-001	3.57780E+000	9	...........
	76	1.02667	8.71640E-001	4.00788E-004	0.00000E+000	3.49343E-004	2.40040E-001	8.71949E-001	3.57780E+000	9	...........
	77	1.04	8.76517E-001	4.01212E-004	0.00000E+000	3.51669E-004	2.40040E-001	8.76808E-001	3.57780E+000	9	...........
	78	1.05333	8.81295E-001	4.00424E-004	0.00000E+000	3.52892E-004	2.40040E-001	8.81584E-001	3.57780E+000	9	...........
	79	1.06667	8.86108E-001	3.99754E-004	0.00000E+000	3.54225E-004	2.40040E-001	8.86397E-001	3.57780E+000	9	...........
	80	1.08	8.90784E-001	4.00941E-004	0.00000E+000	3.57152E-004	2.40040E-001	8.91077E-001	3.57780E+000	9	...........
	81	1.09333	8.95450E-001	4.01205E-004	0.00000E+000	3.59259E-004	2.40040E-001	8.95779E-001	3.57780E+000	9	...........
	82	1.10667	9.00157E-001	4.00658E-004	0.00000E+000	3.60655E-004	2.40040E-001	9.00465E-001	3.57780E+000	9	...........
	83	1.12	9.04742E-001	4.00729E-004	0.00000E+000	3.62557E-004	2.40040E-001	9.05050E-001	3.57780E+000	9	...........
	84	1.13333	9.09316E-001	4.01382E-004	0.00000E+000	3.64983E-004	2.40040E-001	9.09649E-001	3.57780E+000	9	...........
	85	1.14667	9.13852E-001	4.00512E-004	0.00000E+000	3.66008E-004	2.40040E-001	9.14182E-001	3.57780E+000	9	...........
	86	1.16	9.18302E-001	4.00844E-004	0.00000E+000	3.68096E-004	2.40040E-001	9.18640E-001	3.57780E+000	9	...........
	87	1.17333	9.22812E-001	4.02416E-004	0.00000E+000	3.71355E-004	2.40040E-001	9.23099E-001	3.57780E+000	9	...........
	88	1.18667	9.27193E-001	4.00536E-004	0.00000E+000	3.71374E-004	2.40040E-001	9.27485E-001	3.57780E+000	9	...........
	89	1.2	9.31534E-001	4.01916E-004	0.00000E+000	3.74399E-004	2.40040E-001	9.31810E-001	3.57780E+000	9	...........
	90	1.21333	9.35875E-001	4.00346E-004	0.00000E+000	3.74674E-004	2.40040E-001	9.36170E-001	3.57780E+000	9	...........
	91	1.22667	9.40149E-001	4.00324E-004	0.00000E+000	3.76364E-004	2.40040E-001	9.40420E-001	3.57780E+000	9	...........
	92	1.24	9.44378E-001	4.00374E-004	0.00000E+000	3.78104E-004	2.40040E-001	9.44646E-001	3.57780E+000	9	...........
	93	1.25333	9.48595E-001	4.00930E-004	0.00000E+000	3.80320E-004	2.40040E-001	9.48853E-001	3.57780E+000	9	...........
	94	1.26667	9.52739E-001	4.00336E-004	0.00000E+000	3.81415E-004	2.40040E-001	9.52995E-001	3.57780E+000	9	...........
	95	1.28	9.56871E-001	4.01003E-004	0.00000E+000	3.83709E-004	2.40040E-001	9.57131E-001	3.57780E+000	9	...........
	96	1.29333	9.60902E-001	4.01926E-004	0.00000E+000	3.86212E-004	2.40040E-001	9.61228E-001	3.57780E+000	9	...........
	97	1.30667	9.64961E-001	4.01023E-004	0.00000E+000	3.86972E-004	2.40040E-001	9.65281E-001	3.57780E+000	9	...........
	98	1.32	9.68963E-001	4.01145E-004	0.00000E+000	3.88695E-004	2.40040E-001	9.69295E-001	3.57780E+000	9	...........
	99	1.33333	9.72919E-001	4.01076E-004	0.00000E+000	3.90215E-004	2.40040E-001	9.73253E-001	3.57780E+000	9	...........
	100	1.34667	9.76814E-001	4.01019E-004	0.00000E+000	3.91721E-004	2.40040E-001	9.77130E-001	3.57780E+000	9	...........
	101	1.36	9.80715E-001	4.00532E-004	0.00000E+000	3.92808E-004	2.40040E-001	9.81014E-001	3.57780E+000	9	...........
	102	1.37333	9.84515E-001	4.00748E-004	0.00000E+000	3.94543E-004	2.40040E-001	9.84836E-001	3.57780E+000	9	...........
	103	1.38667	9.88294E-001	4.00751E-004	0.00000E+000	3.96060E-004	2.40040E-001	9.88647E-001	3.57780E+000	9	...........
	104	1.4	9.92049E-001	3.99973E-004	0.00000E+000	3.96793E-004	2.40040E-001	9.92391E-001	3.57780E+000	9	...........
	105	1.41333	9.95791E-001	3.99895E-004	0.00000E+000	3.98212E-004	2.40040E-001	9.96094E-001	3.57780E+000	9	...........
	106	1.42333	9.99017E-001	4.01632E-004	0.00000E+000	4.01237E-004	2.40040E-001	9.99367E-001	3.57780E+000	9	...........
STARTTIMEOFFSET	QUANT	2717.602	Start Time Offset (s)
