EXPLAIN
TAG	PWR800_CHARGE
TITLE	LABEL	PWR Cyclic Charge Discharge (Cell) - Charge Step	Test &Identifier
DATE	LABEL	12-7-2017	Date
TIME	LABEL	14:56:37	Time
NOTES	NOTES	3	&Notes...
	supercap test cell
	0.4mg
	6M KOH
PSTAT	PSTAT	IFC5000-01520	Potentiostat
CAPACITY	QUANT	1.00000E-003	Capacity (A-hr)
CELLTYPE	SELECTOR	1	&Cell Type
WORKINGCONNECTION	SELECTOR	0	&Working Lead
MAXCHARGETIME	VARIABLEANDUNITS	1.00000E+002	s	1.00000E+002	second(s)	Max &Charge Time
CHARGECURRENT	QUANT	4.00000E-004	&Charge Current (A) 
VOLTAGEFINISH	TWOPARAM	F	1.00000E-003	3.60000E+003	&Voltage Finish	 I (A) < 	Max Time(s)
SAMPLETIME	QUANT	1.00000E-002	Sa&mple Period (s)
CHARGESTOPAT1	MULTIPARAM	4	1.00000E+000	Charge Stop At &1	Voltage > Limit	V
CHARGESTOPAT2	MULTIPARAM	0	0.00000E+000	Charge Stop At &2	None	N/A
AESBHCSELECTOR	TOGGLE	F	Save Both Half Cells
IRCOMP	TOGGLE	F	IR &Measure
EOC	QUANT	0	Open Circuit (V)
SEQUENCER	TOGGLE	TRUE	Run as Sequence
PSTATMODEL	IQUANT	53	Pstat Model
PSTATSECTION	LABEL	IFC5000-01520	Pstat Section
PSTATSERIALNO	LABEL	01520	Pstat Serial Number
CTRLMODE	IQUANT	0	Control Mode
ELECTROMETER	IQUANT	1	RE=0 or CS=1
IESTAB	IQUANT	0	I/E Stability
CASPEED	IQUANT	4	Control Amp Speed
CONVENTION	IQUANT	1	Current Convention
ICHRANGE	IQUANT	2	Ich Range
ICHRANGEMODE	TOGGLE	T	Ich Auto Range
ICHOFFSETENABLE	TOGGLE	F	Ich Offset Enable
ICHOFFSET	QUANT	0	Ich Offset (V)
ICHFILTER	IQUANT	1	Ich Filter
VCHRANGE	IQUANT	2	Vch Range
VCHRANGEMODE	TOGGLE	T	Vch Auto Range
VCHOFFSETENABLE	TOGGLE	F	Vch Offset Enable
VCHOFFSET	QUANT	0	Vch Offset (V)
VCHFILTER	IQUANT	1	Vch Filter
IERANGELOWERLIMIT	IQUANT	9	I/E Range Lower Limit
IERANGEMODE	TOGGLE	F	I/E AutoRange
IERANGE	IQUANT	9	I/E Range
ACHSELECT	IQUANT	1	Ach Select
ACHRANGE	IQUANT	2	Ach Range
ACHOFFSETENABLE	TOGGLE	F	Ach Offset Enable
ACHOFFSET	QUANT	0	Ach Offset (V)
ACHFILTER	IQUANT	1	Ach Filter
CABLEID	IQUANT	14	Cable ID
DCCALDATE	LABEL	5-7-2017	DC Calibration Date
ACCALDATE	LABEL	12/3/2015	AC Calibration Date
FRAMEWORKVERSION	QUANT	7.01	Framework Version
INSTRUMENTVERSION	LABEL	4.00	Instrument Version
CURVE	TABLE	115
	Pt	T	Vf	Im	Vu	Pwr	Sig	Ach	Temp	IERange	Over
	#	s	V	A	V	W	V	V	deg C	#	bits
	0	0.013333	3.71154E-001	4.01646E-004	0.00000E+000	1.49072E-004	2.40040E-001	3.71244E-001	3.57670E+000	9	...........
	1	0.026667	3.83031E-001	4.01275E-004	0.00000E+000	1.53701E-004	2.40040E-001	3.83101E-001	3.57670E+000	9	...........
	2	0.04	3.93157E-001	3.99960E-004	0.00000E+000	1.57247E-004	2.40040E-001	3.93231E-001	3.57670E+000	9	...........
	3	0.053333	4.02400E-001	4.00455E-004	0.00000E+000	1.61143E-004	2.40040E-001	4.02480E-001	3.57670E+000	9	...........
	4	0.066667	4.11037E-001	4.00822E-004	0.00000E+000	1.64753E-004	2.40040E-001	4.11118E-001	3.57670E+000	9	...........
	5	0.08	4.19282E-001	4.01931E-004	0.00000E+000	1.68522E-004	2.40040E-001	4.19364E-001	3.57670E+000	9	...........
	6	0.093333	4.27049E-001	4.01175E-004	0.00000E+000	1.71322E-004	2.40040E-001	4.27139E-001	3.57670E+000	9	...........
	7	0.106667	4.34626E-001	4.03219E-004	0.00000E+000	1.75250E-004	2.40040E-001	4.34711E-001	3.57670E+000	9	...........
	8	0.12	4.42009E-001	4.00695E-004	0.00000E+000	1.77111E-004	2.40040E-001	4.42104E-001	3.57670E+000	9	...........
	9	0.133333	4.49352E-001	4.01367E-004	0.00000E+000	1.80355E-004	2.40040E-001	4.49440E-001	3.57670E+000	9	...........
	10	0.146667	4.56548E-001	4.00156E-004	0.00000E+000	1.82691E-004	2.40040E-001	4.56642E-001	3.57670E+000	9	...........
	11	0.16	4.63547E-001	4.00498E-004	0.00000E+000	1.85650E-004	2.40040E-001	4.63639E-001	3.57670E+000	9	...........
	12	0.173333	4.70413E-001	4.00586E-004	0.00000E+000	1.88441E-004	2.40040E-001	4.70506E-001	3.57670E+000	9	...........
	13	0.186667	4.77210E-001	4.01581E-004	0.00000E+000	1.91638E-004	2.40040E-001	4.77303E-001	3.57670E+000	9	...........
	14	0.2	4.84005E-001	4.01298E-004	0.00000E+000	1.94230E-004	2.40040E-001	4.84095E-001	3.57670E+000	9	...........
	15	0.213333	4.90658E-001	4.00072E-004	0.00000E+000	1.96299E-004	2.40040E-001	4.90757E-001	3.57670E+000	9	...........
	16	0.226667	4.97271E-001	4.00564E-004	0.00000E+000	1.99189E-004	2.40040E-001	4.97369E-001	3.57670E+000	9	...........
	17	0.24	5.03782E-001	4.01484E-004	0.00000E+000	2.02260E-004	2.40040E-001	5.03874E-001	3.57670E+000	9	...........
	18	0.253333	5.10208E-001	4.00238E-004	0.00000E+000	2.04204E-004	2.40040E-001	5.10317E-001	3.57670E+000	9	...........
	19	0.266667	5.16648E-001	4.01988E-004	0.00000E+000	2.07686E-004	2.40040E-001	5.16749E-001	3.57670E+000	9	...........
	20	0.28	5.23057E-001	4.01390E-004	0.00000E+000	2.09950E-004	2.40040E-001	5.23162E-001	3.57670E+000	9	...........
	21	0.293333	5.29422E-001	4.01091E-004	0.00000E+000	2.12346E-004	2.40040E-001	5.29527E-001	3.57670E+000	9	...........
	22	0.306667	5.35502E-001	4.01628E-004	0.00000E+000	2.15073E-004	2.40040E-001	5.35658E-001	3.57670E+000	9	...........
	23	0.32	5.41648E-001	4.01428E-004	0.00000E+000	2.17433E-004	2.40040E-001	5.41856E-001	3.57670E+000	9	...........
	24	0.333333	5.47890E-001	4.00438E-004	0.00000E+000	2.19396E-004	2.40040E-001	5.48079E-001	3.57670E+000	9	...........
	25	0.346667	5.54161E-001	4.00443E-004	0.00000E+000	2.21910E-004	2.40040E-001	5.54380E-001	3.57670E+000	9	...........
	26	0.36	5.60362E-001	4.01298E-004	0.00000E+000	2.24872E-004	2.40040E-001	5.60595E-001	3.57670E+000	9	...........
	27	0.373333	5.66510E-001	4.00657E-004	0.00000E+000	2.26976E-004	2.40040E-001	5.66727E-001	3.57670E+000	9	...........
	28	0.386667	5.72548E-001	4.01164E-004	0.00000E+000	2.29686E-004	2.40040E-001	5.72790E-001	3.57670E+000	9	...........
	29	0.4	5.78582E-001	4.01998E-004	0.00000E+000	2.32589E-004	2.40040E-001	5.78801E-001	3.57670E+000	9	...........
	30	0.413333	5.84604E-001	4.01804E-004	0.00000E+000	2.34896E-004	2.40040E-001	5.84852E-001	3.57670E+000	9	...........
	31	0.426667	5.90608E-001	4.00508E-004	0.00000E+000	2.36544E-004	2.40040E-001	5.90858E-001	3.57670E+000	9	...........
	32	0.44	5.96656E-001	4.01297E-004	0.00000E+000	2.39436E-004	2.40040E-001	5.96917E-001	3.57670E+000	9	...........
	33	0.453333	6.02664E-001	4.00772E-004	0.00000E+000	2.41531E-004	2.40040E-001	6.02928E-001	3.57670E+000	9	...........
	34	0.466667	6.08623E-001	4.01220E-004	0.00000E+000	2.44192E-004	2.40040E-001	6.08877E-001	3.57670E+000	9	...........
	35	0.48	6.14585E-001	4.01039E-004	0.00000E+000	2.46472E-004	2.40040E-001	6.14814E-001	3.57670E+000	9	...........
	36	0.493333	6.20508E-001	4.00246E-004	0.00000E+000	2.48356E-004	2.40040E-001	6.20713E-001	3.57670E+000	9	...........
	37	0.506667	6.26373E-001	4.00577E-004	0.00000E+000	2.50911E-004	2.40040E-001	6.26583E-001	3.57670E+000	9	...........
	38	0.52	6.32154E-001	4.01891E-004	0.00000E+000	2.54057E-004	2.40040E-001	6.32396E-001	3.57670E+000	9	...........
	39	0.533333	6.37995E-001	4.01592E-004	0.00000E+000	2.56214E-004	2.40040E-001	6.38207E-001	3.57670E+000	9	...........
	40	0.546667	6.43847E-001	4.00776E-004	0.00000E+000	2.58039E-004	2.40040E-001	6.44064E-001	3.57670E+000	9	...........
	41	0.56	6.49654E-001	4.00664E-004	0.00000E+000	2.60293E-004	2.40040E-001	6.49897E-001	3.57670E+000	9	...........
	42	0.573333	6.55502E-001	4.01436E-004	0.00000E+000	2.63142E-004	2.40040E-001	6.55739E-001	3.57670E+000	9	...........
	43	0.586667	6.61260E-001	4.00184E-004	0.00000E+000	2.64626E-004	2.40040E-001	6.61505E-001	3.57670E+000	9	...........
	44	0.6	6.67040E-001	4.00785E-004	0.00000E+000	2.67340E-004	2.40040E-001	6.67282E-001	3.57670E+000	9	...........
	45	0.613333	6.72775E-001	4.00593E-004	0.00000E+000	2.69509E-004	2.40040E-001	6.73000E-001	3.57670E+000	9	...........
	46	0.626667	6.78506E-001	4.00461E-004	0.00000E+000	2.71715E-004	2.40040E-001	6.78739E-001	3.57670E+000	9	...........
	47	0.64	6.84199E-001	4.01348E-004	0.00000E+000	2.74602E-004	2.40040E-001	6.84430E-001	3.57670E+000	9	...........
	48	0.653333	6.89893E-001	4.01262E-004	0.00000E+000	2.76828E-004	2.40040E-001	6.90113E-001	3.57670E+000	9	...........
	49	0.666667	6.95579E-001	3.99346E-004	0.00000E+000	2.77776E-004	2.40040E-001	6.95798E-001	3.57670E+000	9	...........
	50	0.68	7.01187E-001	4.00855E-004	0.00000E+000	2.81075E-004	2.40040E-001	7.01418E-001	3.57670E+000	9	...........
	51	0.693333	7.06779E-001	4.00349E-004	0.00000E+000	2.82958E-004	2.40040E-001	7.07023E-001	3.57670E+000	9	...........
	52	0.706667	7.12336E-001	4.00965E-004	0.00000E+000	2.85622E-004	2.40040E-001	7.12580E-001	3.57670E+000	9	...........
	53	0.72	7.17874E-001	4.00937E-004	0.00000E+000	2.87822E-004	2.40040E-001	7.18118E-001	3.57670E+000	9	...........
	54	0.733333	7.23395E-001	4.00531E-004	0.00000E+000	2.89742E-004	2.40040E-001	7.23615E-001	3.57670E+000	9	...........
	55	0.746667	7.28861E-001	4.01657E-004	0.00000E+000	2.92752E-004	2.40040E-001	7.29083E-001	3.57670E+000	9	...........
	56	0.76	7.34297E-001	4.01911E-004	0.00000E+000	2.95122E-004	2.40040E-001	7.34543E-001	3.57707E+000	9	...........
	57	0.773333	7.39730E-001	4.01029E-004	0.00000E+000	2.96653E-004	2.40040E-001	7.39946E-001	3.57770E+000	9	...........
	58	0.786667	7.45129E-001	4.01398E-004	0.00000E+000	2.99094E-004	2.40040E-001	7.45378E-001	3.57770E+000	9	...........
	59	0.8	7.50594E-001	4.00651E-004	0.00000E+000	3.00726E-004	2.40040E-001	7.50810E-001	3.57770E+000	9	...........
	60	0.813333	7.56032E-001	4.00780E-004	0.00000E+000	3.03003E-004	2.40040E-001	7.56261E-001	3.57770E+000	9	...........
	61	0.826667	7.61454E-001	4.01936E-004	0.00000E+000	3.06056E-004	2.40040E-001	7.61676E-001	3.57770E+000	9	...........
	62	0.84	7.66805E-001	4.00889E-004	0.00000E+000	3.07403E-004	2.40040E-001	7.67042E-001	3.57770E+000	9	...........
	63	0.853333	7.72137E-001	4.01077E-004	0.00000E+000	3.09687E-004	2.40040E-001	7.72370E-001	3.57770E+000	9	...........
	64	0.866667	7.77390E-001	4.01265E-004	0.00000E+000	3.11939E-004	2.40040E-001	7.77601E-001	3.57770E+000	9	...........
	65	0.88	7.82672E-001	4.02208E-004	0.00000E+000	3.14797E-004	2.40040E-001	7.82887E-001	3.57770E+000	9	...........
	66	0.893333	7.87846E-001	4.01458E-004	0.00000E+000	3.16287E-004	2.40040E-001	7.88074E-001	3.57770E+000	9	...........
	67	0.906667	7.93028E-001	4.01162E-004	0.00000E+000	3.18133E-004	2.40040E-001	7.93287E-001	3.57770E+000	9	...........
	68	0.92	7.98200E-001	4.01025E-004	0.00000E+000	3.20098E-004	2.40040E-001	7.98436E-001	3.57770E+000	9	...........
	69	0.933333	8.03380E-001	4.01075E-004	0.00000E+000	3.22216E-004	2.40040E-001	8.03601E-001	3.57770E+000	9	...........
	70	0.946667	8.08501E-001	4.00581E-004	0.00000E+000	3.23871E-004	2.40040E-001	8.08732E-001	3.57770E+000	9	...........
	71	0.96	8.13572E-001	4.00730E-004	0.00000E+000	3.26023E-004	2.40040E-001	8.13817E-001	3.57770E+000	9	...........
	72	0.97333	8.18570E-001	4.01099E-004	0.00000E+000	3.28328E-004	2.40040E-001	8.18843E-001	3.57770E+000	9	...........
	73	0.98667	8.23611E-001	4.01036E-004	0.00000E+000	3.30297E-004	2.40040E-001	8.23890E-001	3.57770E+000	9	...........
	74	1	8.28639E-001	4.00814E-004	0.00000E+000	3.32130E-004	2.40040E-001	8.28888E-001	3.57770E+000	9	...........
	75	1.01333	8.33617E-001	4.01318E-004	0.00000E+000	3.34546E-004	2.40040E-001	8.33885E-001	3.57770E+000	9	...........
	76	1.02667	8.38581E-001	4.01116E-004	0.00000E+000	3.36368E-004	2.40040E-001	8.38838E-001	3.57770E+000	9	...........
	77	1.04	8.43567E-001	4.01508E-004	0.00000E+000	3.38699E-004	2.40040E-001	8.43825E-001	3.57770E+000	9	...........
	78	1.05333	8.48442E-001	4.00775E-004	0.00000E+000	3.40035E-004	2.40040E-001	8.48712E-001	3.57770E+000	9	...........
	79	1.06667	8.53214E-001	4.00941E-004	0.00000E+000	3.42088E-004	2.40040E-001	8.53474E-001	3.57770E+000	9	...........
	80	1.08	8.57947E-001	4.01526E-004	0.00000E+000	3.44488E-004	2.40040E-001	8.58198E-001	3.57770E+000	9	...........
	81	1.09333	8.62654E-001	4.01353E-004	0.00000E+000	3.46229E-004	2.40040E-001	8.62922E-001	3.57770E+000	9	...........
	82	1.10667	8.67403E-001	4.00912E-004	0.00000E+000	3.47752E-004	2.40040E-001	8.67662E-001	3.57770E+000	9	...........
	83	1.12	8.72119E-001	3.99939E-004	0.00000E+000	3.48794E-004	2.40040E-001	8.72353E-001	3.57770E+000	9	...........
	84	1.13333	8.76699E-001	4.01132E-004	0.00000E+000	3.51672E-004	2.40040E-001	8.76991E-001	3.57770E+000	9	...........
	85	1.14667	8.81340E-001	4.01158E-004	0.00000E+000	3.53556E-004	2.40040E-001	8.81614E-001	3.57770E+000	9	...........
	86	1.16	8.85908E-001	4.01266E-004	0.00000E+000	3.55485E-004	2.40040E-001	8.86189E-001	3.57770E+000	9	...........
	87	1.17333	8.90502E-001	4.00291E-004	0.00000E+000	3.56460E-004	2.40040E-001	8.90797E-001	3.57770E+000	9	...........
	88	1.18667	8.95018E-001	4.00662E-004	0.00000E+000	3.58600E-004	2.40040E-001	8.95340E-001	3.57770E+000	9	...........
	89	1.2	8.99448E-001	4.00924E-004	0.00000E+000	3.60610E-004	2.40040E-001	8.99750E-001	3.57770E+000	9	...........
	90	1.21333	9.03888E-001	4.00344E-004	0.00000E+000	3.61866E-004	2.40040E-001	9.04214E-001	3.57770E+000	9	...........
	91	1.22667	9.08278E-001	4.00640E-004	0.00000E+000	3.63892E-004	2.40040E-001	9.08593E-001	3.57770E+000	9	...........
	92	1.24	9.12662E-001	4.00013E-004	0.00000E+000	3.65076E-004	2.40040E-001	9.12955E-001	3.57770E+000	9	...........
	93	1.25333	9.17033E-001	4.01185E-004	0.00000E+000	3.67900E-004	2.40040E-001	9.17340E-001	3.57770E+000	9	...........
	94	1.26667	9.21428E-001	4.00281E-004	0.00000E+000	3.68831E-004	2.40040E-001	9.21697E-001	3.57770E+000	9	...........
	95	1.28	9.25724E-001	4.01284E-004	0.00000E+000	3.71478E-004	2.40040E-001	9.25988E-001	3.57770E+000	9	...........
	96	1.29333	9.29923E-001	4.00564E-004	0.00000E+000	3.72493E-004	2.40040E-001	9.30205E-001	3.57770E+000	9	...........
	97	1.30667	9.34088E-001	4.01696E-004	0.00000E+000	3.75220E-004	2.40040E-001	9.34399E-001	3.57770E+000	9	...........
	98	1.32	9.38221E-001	4.01094E-004	0.00000E+000	3.76315E-004	2.40040E-001	9.38523E-001	3.57770E+000	9	...........
	99	1.33333	9.42328E-001	4.01226E-004	0.00000E+000	3.78087E-004	2.40040E-001	9.42634E-001	3.57770E+000	9	...........
	100	1.34667	9.46436E-001	4.01685E-004	0.00000E+000	3.80169E-004	2.40040E-001	9.46755E-001	3.57770E+000	9	...........
	101	1.36	9.50528E-001	4.00757E-004	0.00000E+000	3.80931E-004	2.40040E-001	9.50839E-001	3.57770E+000	9	...........
	102	1.37333	9.54503E-001	4.00259E-004	0.00000E+000	3.82049E-004	2.40040E-001	9.54809E-001	3.57770E+000	9	...........
	103	1.38667	9.58446E-001	4.00919E-004	0.00000E+000	3.84259E-004	2.40040E-001	9.58764E-001	3.57770E+000	9	...........
	104	1.4	9.62347E-001	4.01580E-004	0.00000E+000	3.86459E-004	2.40040E-001	9.62675E-001	3.57770E+000	9	...........
	105	1.41333	9.66210E-001	4.00920E-004	0.00000E+000	3.87373E-004	2.40040E-001	9.66544E-001	3.57770E+000	9	...........
	106	1.42667	9.70120E-001	4.01139E-004	0.00000E+000	3.89153E-004	2.40040E-001	9.70451E-001	3.57770E+000	9	...........
	107	1.44	9.74018E-001	4.01412E-004	0.00000E+000	3.90982E-004	2.40040E-001	9.74314E-001	3.57770E+000	9	...........
	108	1.45333	9.77757E-001	4.00715E-004	0.00000E+000	3.91801E-004	2.40040E-001	9.78053E-001	3.57770E+000	9	...........
	109	1.46667	9.81497E-001	3.99875E-004	0.00000E+000	3.92476E-004	2.40040E-001	9.81805E-001	3.57770E+000	9	...........
	110	1.48	9.85177E-001	4.01384E-004	0.00000E+000	3.95434E-004	2.40040E-001	9.85517E-001	3.57770E+000	9	...........
	111	1.49333	9.88839E-001	3.99660E-004	0.00000E+000	3.95200E-004	2.40040E-001	9.89176E-001	3.57770E+000	9	...........
	112	1.50667	9.92476E-001	4.00705E-004	0.00000E+000	3.97690E-004	2.40040E-001	9.92822E-001	3.57770E+000	9	...........
	113	1.52	9.96068E-001	4.00232E-004	0.00000E+000	3.98659E-004	2.40040E-001	9.96392E-001	3.57770E+000	9	...........
	114	1.53	9.99164E-001	4.02058E-004	0.00000E+000	4.01722E-004	2.40040E-001	9.99509E-001	3.57770E+000	9	...........
STARTTIMEOFFSET	QUANT	1814.842	Start Time Offset (s)
