EXPLAIN
TAG	PWR800_CHARGE
TITLE	LABEL	PWR Cyclic Charge Discharge (Cell) - Charge Step	Test &Identifier
DATE	LABEL	12-7-2017	Date
TIME	LABEL	14:29:04	Time
NOTES	NOTES	3	&Notes...
	supercap test cell
	0.4mg
	6M KOH
PSTAT	PSTAT	IFC5000-01520	Potentiostat
CAPACITY	QUANT	1.00000E-003	Capacity (A-hr)
CELLTYPE	SELECTOR	1	&Cell Type
WORKINGCONNECTION	SELECTOR	0	&Working Lead
MAXCHARGETIME	VARIABLEANDUNITS	1.00000E+002	s	1.00000E+002	second(s)	Max &Charge Time
CHARGECURRENT	QUANT	4.00000E-004	&Charge Current (A) 
VOLTAGEFINISH	TWOPARAM	F	1.00000E-003	3.60000E+003	&Voltage Finish	 I (A) < 	Max Time(s)
SAMPLETIME	QUANT	1.00000E-002	Sa&mple Period (s)
CHARGESTOPAT1	MULTIPARAM	4	1.00000E+000	Charge Stop At &1	Voltage > Limit	V
CHARGESTOPAT2	MULTIPARAM	0	0.00000E+000	Charge Stop At &2	None	N/A
AESBHCSELECTOR	TOGGLE	F	Save Both Half Cells
IRCOMP	TOGGLE	F	IR &Measure
EOC	QUANT	0	Open Circuit (V)
SEQUENCER	TOGGLE	TRUE	Run as Sequence
PSTATMODEL	IQUANT	53	Pstat Model
PSTATSECTION	LABEL	IFC5000-01520	Pstat Section
PSTATSERIALNO	LABEL	01520	Pstat Serial Number
CTRLMODE	IQUANT	0	Control Mode
ELECTROMETER	IQUANT	1	RE=0 or CS=1
IESTAB	IQUANT	0	I/E Stability
CASPEED	IQUANT	4	Control Amp Speed
CONVENTION	IQUANT	1	Current Convention
ICHRANGE	IQUANT	2	Ich Range
ICHRANGEMODE	TOGGLE	T	Ich Auto Range
ICHOFFSETENABLE	TOGGLE	F	Ich Offset Enable
ICHOFFSET	QUANT	0	Ich Offset (V)
ICHFILTER	IQUANT	1	Ich Filter
VCHRANGE	IQUANT	2	Vch Range
VCHRANGEMODE	TOGGLE	T	Vch Auto Range
VCHOFFSETENABLE	TOGGLE	F	Vch Offset Enable
VCHOFFSET	QUANT	0	Vch Offset (V)
VCHFILTER	IQUANT	1	Vch Filter
IERANGELOWERLIMIT	IQUANT	9	I/E Range Lower Limit
IERANGEMODE	TOGGLE	F	I/E AutoRange
IERANGE	IQUANT	9	I/E Range
ACHSELECT	IQUANT	1	Ach Select
ACHRANGE	IQUANT	2	Ach Range
ACHOFFSETENABLE	TOGGLE	F	Ach Offset Enable
ACHOFFSET	QUANT	0	Ach Offset (V)
ACHFILTER	IQUANT	1	Ach Filter
CABLEID	IQUANT	14	Cable ID
DCCALDATE	LABEL	5-7-2017	DC Calibration Date
ACCALDATE	LABEL	12/3/2015	AC Calibration Date
FRAMEWORKVERSION	QUANT	7.01	Framework Version
INSTRUMENTVERSION	LABEL	4.00	Instrument Version
CURVE	TABLE	135
	Pt	T	Vf	Im	Vu	Pwr	Sig	Ach	Temp	IERange	Over
	#	s	V	A	V	W	V	V	deg C	#	bits
	0	0.013333	3.39854E-001	4.00088E-004	0.00000E+000	1.35971E-004	2.40040E-001	3.39944E-001	3.57650E+000	9	...........
	1	0.026667	3.50028E-001	4.01741E-004	0.00000E+000	1.40621E-004	2.40040E-001	3.50101E-001	3.57650E+000	9	...........
	2	0.04	3.58829E-001	4.00453E-004	0.00000E+000	1.43694E-004	2.40040E-001	3.58901E-001	3.57650E+000	9	...........
	3	0.053333	3.66829E-001	4.00328E-004	0.00000E+000	1.46852E-004	2.40040E-001	3.66896E-001	3.57650E+000	9	...........
	4	0.066667	3.74364E-001	4.00225E-004	0.00000E+000	1.49830E-004	2.40040E-001	3.74431E-001	3.57650E+000	9	...........
	5	0.08	3.81636E-001	4.02390E-004	0.00000E+000	1.53566E-004	2.40040E-001	3.81701E-001	3.57650E+000	9	...........
	6	0.093333	3.88675E-001	4.00726E-004	0.00000E+000	1.55752E-004	2.40040E-001	3.88747E-001	3.57650E+000	9	...........
	7	0.106667	3.95414E-001	4.00993E-004	0.00000E+000	1.58558E-004	2.40040E-001	3.95482E-001	3.57650E+000	9	...........
	8	0.12	4.01967E-001	4.01170E-004	0.00000E+000	1.61257E-004	2.40040E-001	4.02045E-001	3.57650E+000	9	...........
	9	0.133333	4.08336E-001	4.00531E-004	0.00000E+000	1.63552E-004	2.40040E-001	4.08415E-001	3.57650E+000	9	...........
	10	0.146667	4.14658E-001	4.01130E-004	0.00000E+000	1.66332E-004	2.40040E-001	4.14744E-001	3.57650E+000	9	...........
	11	0.16	4.21010E-001	4.00985E-004	0.00000E+000	1.68819E-004	2.40040E-001	4.21098E-001	3.57650E+000	9	...........
	12	0.173333	4.27222E-001	4.00738E-004	0.00000E+000	1.71204E-004	2.40040E-001	4.27309E-001	3.57650E+000	9	...........
	13	0.186667	4.33264E-001	4.00711E-004	0.00000E+000	1.73613E-004	2.40040E-001	4.33351E-001	3.57650E+000	9	...........
	14	0.2	4.39245E-001	4.00858E-004	0.00000E+000	1.76075E-004	2.40040E-001	4.39329E-001	3.57650E+000	9	...........
	15	0.213333	4.45139E-001	4.00590E-004	0.00000E+000	1.78318E-004	2.40040E-001	4.45225E-001	3.57650E+000	9	...........
	16	0.226667	4.51020E-001	4.01624E-004	0.00000E+000	1.81141E-004	2.40040E-001	4.51108E-001	3.57650E+000	9	...........
	17	0.24	4.56837E-001	4.01385E-004	0.00000E+000	1.83367E-004	2.40040E-001	4.56929E-001	3.57650E+000	9	...........
	18	0.253333	4.62671E-001	4.00384E-004	0.00000E+000	1.85246E-004	2.40040E-001	4.62766E-001	3.57650E+000	9	...........
	19	0.266667	4.68457E-001	4.02529E-004	0.00000E+000	1.88568E-004	2.40040E-001	4.68552E-001	3.57650E+000	9	...........
	20	0.28	4.74147E-001	4.00506E-004	0.00000E+000	1.89899E-004	2.40040E-001	4.74244E-001	3.57650E+000	9	...........
	21	0.293333	4.79850E-001	4.00897E-004	0.00000E+000	1.92371E-004	2.40040E-001	4.79952E-001	3.57650E+000	9	...........
	22	0.306667	4.85468E-001	4.01836E-004	0.00000E+000	1.95079E-004	2.40040E-001	4.85565E-001	3.57650E+000	9	...........
	23	0.32	4.91107E-001	4.01112E-004	0.00000E+000	1.96989E-004	2.40040E-001	4.91211E-001	3.57650E+000	9	...........
	24	0.333333	4.96681E-001	4.00189E-004	0.00000E+000	1.98766E-004	2.40040E-001	4.96785E-001	3.57720E+000	9	...........
	25	0.346667	5.02199E-001	4.02886E-004	0.00000E+000	2.02329E-004	2.40040E-001	5.02302E-001	3.57720E+000	9	...........
	26	0.36	5.07741E-001	4.00317E-004	0.00000E+000	2.03257E-004	2.40040E-001	5.07848E-001	3.57720E+000	9	...........
	27	0.373333	5.13257E-001	4.01824E-004	0.00000E+000	2.06239E-004	2.40040E-001	5.13364E-001	3.57720E+000	9	...........
	28	0.386667	5.18761E-001	4.00698E-004	0.00000E+000	2.07867E-004	2.40040E-001	5.18867E-001	3.57720E+000	9	...........
	29	0.4	5.24215E-001	3.99866E-004	0.00000E+000	2.09616E-004	2.40040E-001	5.24322E-001	3.57720E+000	9	...........
	30	0.413333	5.29685E-001	4.01456E-004	0.00000E+000	2.12645E-004	2.40040E-001	5.29791E-001	3.57720E+000	9	...........
	31	0.426667	5.34917E-001	4.01025E-004	0.00000E+000	2.14515E-004	2.40040E-001	5.35067E-001	3.57720E+000	9	...........
	32	0.44	5.40255E-001	4.01817E-004	0.00000E+000	2.17084E-004	2.40040E-001	5.40471E-001	3.57720E+000	9	...........
	33	0.453333	5.45677E-001	4.01278E-004	0.00000E+000	2.18968E-004	2.40040E-001	5.45876E-001	3.57720E+000	9	...........
	34	0.466667	5.51076E-001	4.01087E-004	0.00000E+000	2.21029E-004	2.40040E-001	5.51285E-001	3.57720E+000	9	...........
	35	0.48	5.56377E-001	4.00852E-004	0.00000E+000	2.23025E-004	2.40040E-001	5.56574E-001	3.57720E+000	9	...........
	36	0.493333	5.61747E-001	4.01434E-004	0.00000E+000	2.25504E-004	2.40040E-001	5.61920E-001	3.57720E+000	9	...........
	37	0.506667	5.67031E-001	4.02087E-004	0.00000E+000	2.27996E-004	2.40040E-001	5.67213E-001	3.57720E+000	9	...........
	38	0.52	5.72359E-001	4.00990E-004	0.00000E+000	2.29510E-004	2.40040E-001	5.72551E-001	3.57720E+000	9	...........
	39	0.533333	5.77605E-001	4.01886E-004	0.00000E+000	2.32131E-004	2.40040E-001	5.77810E-001	3.57720E+000	9	...........
	40	0.546667	5.82843E-001	4.00747E-004	0.00000E+000	2.33573E-004	2.40040E-001	5.83070E-001	3.57720E+000	9	...........
	41	0.56	5.88136E-001	4.01672E-004	0.00000E+000	2.36238E-004	2.40040E-001	5.88366E-001	3.57720E+000	9	...........
	42	0.573333	5.93466E-001	4.01276E-004	0.00000E+000	2.38144E-004	2.40040E-001	5.93697E-001	3.57720E+000	9	...........
	43	0.586667	5.98678E-001	4.00603E-004	0.00000E+000	2.39832E-004	2.40040E-001	5.98915E-001	3.57720E+000	9	...........
	44	0.6	6.03827E-001	4.00270E-004	0.00000E+000	2.41694E-004	2.40040E-001	6.04088E-001	3.57720E+000	9	...........
	45	0.613333	6.09023E-001	4.01001E-004	0.00000E+000	2.44219E-004	2.40040E-001	6.09278E-001	3.57720E+000	9	...........
	46	0.626667	6.14265E-001	4.00766E-004	0.00000E+000	2.46176E-004	2.40040E-001	6.14514E-001	3.57720E+000	9	...........
	47	0.64	6.19429E-001	4.00669E-004	0.00000E+000	2.48186E-004	2.40040E-001	6.19643E-001	3.57720E+000	9	...........
	48	0.653333	6.24578E-001	3.99713E-004	0.00000E+000	2.49652E-004	2.40040E-001	6.24789E-001	3.57720E+000	9	...........
	49	0.666667	6.29695E-001	3.99387E-004	0.00000E+000	2.51492E-004	2.40040E-001	6.29924E-001	3.57720E+000	9	...........
	50	0.68	6.34825E-001	4.02258E-004	0.00000E+000	2.55363E-004	2.40040E-001	6.35079E-001	3.57720E+000	9	...........
	51	0.693333	6.39997E-001	4.01379E-004	0.00000E+000	2.56882E-004	2.40040E-001	6.40226E-001	3.57720E+000	9	...........
	52	0.706667	6.45142E-001	4.01078E-004	0.00000E+000	2.58753E-004	2.40040E-001	6.45363E-001	3.57720E+000	9	...........
	53	0.72	6.50274E-001	4.00858E-004	0.00000E+000	2.60667E-004	2.40040E-001	6.50524E-001	3.57720E+000	9	...........
	54	0.733333	6.55429E-001	4.00417E-004	0.00000E+000	2.62445E-004	2.40040E-001	6.55687E-001	3.57720E+000	9	...........
	55	0.746667	6.60539E-001	4.01486E-004	0.00000E+000	2.65197E-004	2.40040E-001	6.60791E-001	3.57720E+000	9	...........
	56	0.76	6.65604E-001	4.01878E-004	0.00000E+000	2.67491E-004	2.40040E-001	6.65874E-001	3.57720E+000	9	...........
	57	0.773333	6.70669E-001	3.99772E-004	0.00000E+000	2.68115E-004	2.40040E-001	6.70900E-001	3.57720E+000	9	...........
	58	0.786667	6.75737E-001	4.00273E-004	0.00000E+000	2.70479E-004	2.40040E-001	6.75962E-001	3.57720E+000	9	...........
	59	0.8	6.80748E-001	4.00176E-004	0.00000E+000	2.72419E-004	2.40040E-001	6.80977E-001	3.57720E+000	9	...........
	60	0.813333	6.85765E-001	4.01028E-004	0.00000E+000	2.75011E-004	2.40040E-001	6.86007E-001	3.57720E+000	9	...........
	61	0.826667	6.90792E-001	4.00780E-004	0.00000E+000	2.76856E-004	2.40040E-001	6.91047E-001	3.57720E+000	9	...........
	62	0.84	6.95810E-001	4.01022E-004	0.00000E+000	2.79035E-004	2.40040E-001	6.96044E-001	3.57720E+000	9	...........
	63	0.853333	7.00835E-001	4.00575E-004	0.00000E+000	2.80737E-004	2.40040E-001	7.01066E-001	3.57720E+000	9	...........
	64	0.866667	7.05857E-001	3.99844E-004	0.00000E+000	2.82233E-004	2.40040E-001	7.06109E-001	3.57720E+000	9	...........
	65	0.88	7.10812E-001	4.01835E-004	0.00000E+000	2.85629E-004	2.40040E-001	7.11074E-001	3.57720E+000	9	...........
	66	0.893333	7.15728E-001	3.99916E-004	0.00000E+000	2.86231E-004	2.40040E-001	7.16010E-001	3.57720E+000	9	...........
	67	0.906667	7.20682E-001	4.01169E-004	0.00000E+000	2.89115E-004	2.40040E-001	7.20909E-001	3.57720E+000	9	...........
	68	0.92	7.25567E-001	3.99992E-004	0.00000E+000	2.90221E-004	2.40040E-001	7.25805E-001	3.57720E+000	9	...........
	69	0.933333	7.30490E-001	4.01773E-004	0.00000E+000	2.93491E-004	2.40040E-001	7.30736E-001	3.57720E+000	9	...........
	70	0.946667	7.35392E-001	4.00776E-004	0.00000E+000	2.94728E-004	2.40040E-001	7.35616E-001	3.57720E+000	9	...........
	71	0.96	7.40278E-001	4.00877E-004	0.00000E+000	2.96760E-004	2.40040E-001	7.40539E-001	3.57720E+000	9	...........
	72	0.97333	7.45162E-001	4.00695E-004	0.00000E+000	2.98583E-004	2.40040E-001	7.45373E-001	3.57720E+000	9	...........
	73	0.98667	7.49999E-001	4.01239E-004	0.00000E+000	3.00929E-004	2.40040E-001	7.50199E-001	3.57720E+000	9	...........
	74	1	7.54808E-001	4.01823E-004	0.00000E+000	3.03299E-004	2.40040E-001	7.55049E-001	3.57720E+000	9	...........
	75	1.01333	7.59582E-001	4.00841E-004	0.00000E+000	3.04472E-004	2.40040E-001	7.59786E-001	3.57720E+000	9	...........
	76	1.02667	7.64361E-001	4.00543E-004	0.00000E+000	3.06159E-004	2.40040E-001	7.64579E-001	3.57720E+000	9	...........
	77	1.04	7.69148E-001	4.01560E-004	0.00000E+000	3.08859E-004	2.40040E-001	7.69390E-001	3.57720E+000	9	...........
	78	1.05333	7.73932E-001	4.02273E-004	0.00000E+000	3.11332E-004	2.40040E-001	7.74157E-001	3.57720E+000	9	...........
	79	1.06667	7.78722E-001	4.01970E-004	0.00000E+000	3.13023E-004	2.40040E-001	7.78964E-001	3.57720E+000	9	...........
	80	1.08	7.83478E-001	4.00294E-004	0.00000E+000	3.13622E-004	2.40040E-001	7.83727E-001	3.57720E+000	9	...........
	81	1.09333	7.88226E-001	4.00767E-004	0.00000E+000	3.15895E-004	2.40040E-001	7.88497E-001	3.57720E+000	9	...........
	82	1.10667	7.92886E-001	4.01230E-004	0.00000E+000	3.18130E-004	2.40040E-001	7.93187E-001	3.57720E+000	9	...........
	83	1.12	7.97567E-001	4.00258E-004	0.00000E+000	3.19233E-004	2.40040E-001	7.97822E-001	3.57720E+000	9	...........
	84	1.13333	8.02172E-001	4.01648E-004	0.00000E+000	3.22191E-004	2.40040E-001	8.02428E-001	3.57720E+000	9	...........
	85	1.14667	8.06778E-001	4.00712E-004	0.00000E+000	3.23285E-004	2.40040E-001	8.07053E-001	3.57720E+000	9	...........
	86	1.16	8.11436E-001	4.00924E-004	0.00000E+000	3.25324E-004	2.40040E-001	8.11696E-001	3.57720E+000	9	...........
	87	1.17333	8.16014E-001	4.01108E-004	0.00000E+000	3.27309E-004	2.40040E-001	8.16318E-001	3.57720E+000	9	...........
	88	1.18667	8.20568E-001	4.01239E-004	0.00000E+000	3.29244E-004	2.40040E-001	8.20837E-001	3.57720E+000	9	...........
	89	1.2	8.25111E-001	4.01041E-004	0.00000E+000	3.30903E-004	2.40040E-001	8.25377E-001	3.57720E+000	9	...........
	90	1.21333	8.29592E-001	4.00946E-004	0.00000E+000	3.32622E-004	2.40040E-001	8.29875E-001	3.57720E+000	9	...........
	91	1.22667	8.34058E-001	4.00224E-004	0.00000E+000	3.33810E-004	2.40040E-001	8.34355E-001	3.57720E+000	9	...........
	92	1.24	8.38476E-001	3.99580E-004	0.00000E+000	3.35038E-004	2.40040E-001	8.38756E-001	3.57720E+000	9	...........
	93	1.25333	8.42917E-001	4.01353E-004	0.00000E+000	3.38308E-004	2.40040E-001	8.43222E-001	3.57720E+000	9	...........
	94	1.26667	8.47392E-001	4.01487E-004	0.00000E+000	3.40217E-004	2.40040E-001	8.47682E-001	3.57720E+000	9	...........
	95	1.28	8.51794E-001	4.00391E-004	0.00000E+000	3.41050E-004	2.40040E-001	8.52079E-001	3.57720E+000	9	...........
	96	1.29333	8.56108E-001	4.01025E-004	0.00000E+000	3.43321E-004	2.40040E-001	8.56406E-001	3.57720E+000	9	...........
	97	1.30667	8.60397E-001	4.00242E-004	0.00000E+000	3.44367E-004	2.40040E-001	8.60694E-001	3.57720E+000	9	...........
	98	1.32	8.64726E-001	4.01137E-004	0.00000E+000	3.46873E-004	2.40040E-001	8.64997E-001	3.57720E+000	9	...........
	99	1.33333	8.69039E-001	4.01090E-004	0.00000E+000	3.48563E-004	2.40040E-001	8.69337E-001	3.57660E+000	9	...........
	100	1.34667	8.73333E-001	3.99981E-004	0.00000E+000	3.49317E-004	2.40040E-001	8.73661E-001	3.57660E+000	9	...........
	101	1.36	8.77567E-001	4.02080E-004	0.00000E+000	3.52852E-004	2.40040E-001	8.77866E-001	3.57660E+000	9	...........
	102	1.37333	8.81804E-001	4.02065E-004	0.00000E+000	3.54542E-004	2.40040E-001	8.82106E-001	3.57660E+000	9	...........
	103	1.38667	8.86015E-001	4.02717E-004	0.00000E+000	3.56814E-004	2.40040E-001	8.86322E-001	3.57660E+000	9	...........
	104	1.4	8.90170E-001	4.01067E-004	0.00000E+000	3.57018E-004	2.40040E-001	8.90459E-001	3.57660E+000	9	...........
	105	1.41333	8.94281E-001	4.00166E-004	0.00000E+000	3.57860E-004	2.40040E-001	8.94597E-001	3.57660E+000	9	...........
	106	1.42667	8.98363E-001	4.00752E-004	0.00000E+000	3.60021E-004	2.40040E-001	8.98658E-001	3.57660E+000	9	...........
	107	1.44	9.02417E-001	4.00715E-004	0.00000E+000	3.61612E-004	2.40040E-001	9.02708E-001	3.57660E+000	9	...........
	108	1.45333	9.06459E-001	4.01085E-004	0.00000E+000	3.63567E-004	2.40040E-001	9.06799E-001	3.57660E+000	9	...........
	109	1.46667	9.10463E-001	4.00156E-004	0.00000E+000	3.64327E-004	2.40040E-001	9.10765E-001	3.57660E+000	9	...........
	110	1.48	9.14416E-001	4.01784E-004	0.00000E+000	3.67397E-004	2.40040E-001	9.14702E-001	3.57660E+000	9	...........
	111	1.49333	9.18341E-001	4.00945E-004	0.00000E+000	3.68204E-004	2.40040E-001	9.18625E-001	3.57660E+000	9	...........
	112	1.50667	9.22280E-001	4.01038E-004	0.00000E+000	3.69869E-004	2.40040E-001	9.22544E-001	3.57660E+000	9	...........
	113	1.52	9.26166E-001	4.00683E-004	0.00000E+000	3.71100E-004	2.40040E-001	9.26429E-001	3.57660E+000	9	...........
	114	1.53333	9.30084E-001	4.00813E-004	0.00000E+000	3.72789E-004	2.40040E-001	9.30333E-001	3.57660E+000	9	...........
	115	1.54667	9.33854E-001	4.00553E-004	0.00000E+000	3.74058E-004	2.40040E-001	9.34145E-001	3.57660E+000	9	...........
	116	1.56	9.37555E-001	4.00608E-004	0.00000E+000	3.75593E-004	2.40040E-001	9.37876E-001	3.57660E+000	9	...........
	117	1.57333	9.41302E-001	4.01045E-004	0.00000E+000	3.77504E-004	2.40040E-001	9.41618E-001	3.57660E+000	9	...........
	118	1.58667	9.45063E-001	4.01496E-004	0.00000E+000	3.79439E-004	2.40040E-001	9.45358E-001	3.57660E+000	9	...........
	119	1.6	9.48768E-001	4.01856E-004	0.00000E+000	3.81268E-004	2.40040E-001	9.49078E-001	3.57660E+000	9	...........
	120	1.61333	9.52503E-001	4.01443E-004	0.00000E+000	3.82376E-004	2.40040E-001	9.52791E-001	3.57660E+000	9	...........
	121	1.62667	9.56160E-001	4.00795E-004	0.00000E+000	3.83224E-004	2.40040E-001	9.56461E-001	3.57660E+000	9	...........
	122	1.64	9.59751E-001	4.01678E-004	0.00000E+000	3.85511E-004	2.40040E-001	9.60060E-001	3.57660E+000	9	...........
	123	1.65333	9.63299E-001	4.00496E-004	0.00000E+000	3.85797E-004	2.40040E-001	9.63618E-001	3.57660E+000	9	...........
	124	1.66667	9.66838E-001	4.02496E-004	0.00000E+000	3.89149E-004	2.40040E-001	9.67179E-001	3.57660E+000	9	...........
	125	1.68	9.70380E-001	4.00316E-004	0.00000E+000	3.88458E-004	2.40040E-001	9.70714E-001	3.57660E+000	9	...........
	126	1.69333	9.73879E-001	4.00284E-004	0.00000E+000	3.89829E-004	2.40040E-001	9.74189E-001	3.57660E+000	9	...........
	127	1.70667	9.77268E-001	4.00333E-004	0.00000E+000	3.91233E-004	2.40040E-001	9.77606E-001	3.57660E+000	9	...........
	128	1.72	9.80594E-001	4.00805E-004	0.00000E+000	3.93027E-004	2.40040E-001	9.80902E-001	3.57660E+000	9	...........
	129	1.73333	9.83961E-001	4.01426E-004	0.00000E+000	3.94988E-004	2.40040E-001	9.84276E-001	3.57660E+000	9	...........
	130	1.74667	9.87250E-001	4.01960E-004	0.00000E+000	3.96835E-004	2.40040E-001	9.87564E-001	3.57660E+000	9	...........
	131	1.76	9.90486E-001	4.00115E-004	0.00000E+000	3.96308E-004	2.40040E-001	9.90795E-001	3.57660E+000	9	...........
	132	1.77333	9.93685E-001	4.02100E-004	0.00000E+000	3.99561E-004	2.40040E-001	9.94004E-001	3.57660E+000	9	...........
	133	1.78667	9.96945E-001	4.01812E-004	0.00000E+000	4.00584E-004	2.40040E-001	9.97257E-001	3.57660E+000	9	...........
	134	1.795	9.99512E-001	4.02301E-004	0.00000E+000	4.02105E-004	2.40040E-001	9.99835E-001	3.57660E+000	9	...........
STARTTIMEOFFSET	QUANT	504.4167	Start Time Offset (s)
