EXPLAIN
TAG	PWR800_CHARGE
TITLE	LABEL	PWR Cyclic Charge Discharge (Cell) - Charge Step	Test &Identifier
DATE	LABEL	12-7-2017	Date
TIME	LABEL	15:04:23	Time
NOTES	NOTES	3	&Notes...
	supercap test cell
	0.4mg
	6M KOH
PSTAT	PSTAT	IFC5000-01520	Potentiostat
CAPACITY	QUANT	1.00000E-003	Capacity (A-hr)
CELLTYPE	SELECTOR	1	&Cell Type
WORKINGCONNECTION	SELECTOR	0	&Working Lead
MAXCHARGETIME	VARIABLEANDUNITS	1.00000E+002	s	1.00000E+002	second(s)	Max &Charge Time
CHARGECURRENT	QUANT	4.00000E-004	&Charge Current (A) 
VOLTAGEFINISH	TWOPARAM	F	1.00000E-003	3.60000E+003	&Voltage Finish	 I (A) < 	Max Time(s)
SAMPLETIME	QUANT	1.00000E-002	Sa&mple Period (s)
CHARGESTOPAT1	MULTIPARAM	4	1.00000E+000	Charge Stop At &1	Voltage > Limit	V
CHARGESTOPAT2	MULTIPARAM	0	0.00000E+000	Charge Stop At &2	None	N/A
AESBHCSELECTOR	TOGGLE	F	Save Both Half Cells
IRCOMP	TOGGLE	F	IR &Measure
EOC	QUANT	0	Open Circuit (V)
SEQUENCER	TOGGLE	TRUE	Run as Sequence
PSTATMODEL	IQUANT	53	Pstat Model
PSTATSECTION	LABEL	IFC5000-01520	Pstat Section
PSTATSERIALNO	LABEL	01520	Pstat Serial Number
CTRLMODE	IQUANT	0	Control Mode
ELECTROMETER	IQUANT	1	RE=0 or CS=1
IESTAB	IQUANT	0	I/E Stability
CASPEED	IQUANT	4	Control Amp Speed
CONVENTION	IQUANT	1	Current Convention
ICHRANGE	IQUANT	2	Ich Range
ICHRANGEMODE	TOGGLE	T	Ich Auto Range
ICHOFFSETENABLE	TOGGLE	F	Ich Offset Enable
ICHOFFSET	QUANT	0	Ich Offset (V)
ICHFILTER	IQUANT	1	Ich Filter
VCHRANGE	IQUANT	2	Vch Range
VCHRANGEMODE	TOGGLE	T	Vch Auto Range
VCHOFFSETENABLE	TOGGLE	F	Vch Offset Enable
VCHOFFSET	QUANT	0	Vch Offset (V)
VCHFILTER	IQUANT	1	Vch Filter
IERANGELOWERLIMIT	IQUANT	9	I/E Range Lower Limit
IERANGEMODE	TOGGLE	F	I/E AutoRange
IERANGE	IQUANT	9	I/E Range
ACHSELECT	IQUANT	1	Ach Select
ACHRANGE	IQUANT	2	Ach Range
ACHOFFSETENABLE	TOGGLE	F	Ach Offset Enable
ACHOFFSET	QUANT	0	Ach Offset (V)
ACHFILTER	IQUANT	1	Ach Filter
CABLEID	IQUANT	14	Cable ID
DCCALDATE	LABEL	5-7-2017	DC Calibration Date
ACCALDATE	LABEL	12/3/2015	AC Calibration Date
FRAMEWORKVERSION	QUANT	7.01	Framework Version
INSTRUMENTVERSION	LABEL	4.00	Instrument Version
CURVE	TABLE	112
	Pt	T	Vf	Im	Vu	Pwr	Sig	Ach	Temp	IERange	Over
	#	s	V	A	V	W	V	V	deg C	#	bits
	0	0.013333	3.77258E-001	4.01242E-004	0.00000E+000	1.51372E-004	2.40040E-001	3.77349E-001	3.57710E+000	9	...........
	1	0.026667	3.89535E-001	3.99582E-004	0.00000E+000	1.55651E-004	2.40040E-001	3.89612E-001	3.57710E+000	9	...........
	2	0.04	3.99998E-001	4.01161E-004	0.00000E+000	1.60464E-004	2.40040E-001	4.00077E-001	3.57710E+000	9	...........
	3	0.053333	4.09494E-001	4.01544E-004	0.00000E+000	1.64430E-004	2.40040E-001	4.09579E-001	3.57710E+000	9	...........
	4	0.066667	4.18368E-001	4.01023E-004	0.00000E+000	1.67775E-004	2.40040E-001	4.18456E-001	3.57710E+000	9	...........
	5	0.08	4.26824E-001	4.00989E-004	0.00000E+000	1.71152E-004	2.40040E-001	4.26912E-001	3.57710E+000	9	...........
	6	0.093333	4.34968E-001	4.02261E-004	0.00000E+000	1.74971E-004	2.40040E-001	4.35057E-001	3.57710E+000	9	...........
	7	0.106667	4.42695E-001	4.00753E-004	0.00000E+000	1.77411E-004	2.40040E-001	4.42785E-001	3.57710E+000	9	...........
	8	0.12	4.50306E-001	4.01069E-004	0.00000E+000	1.80604E-004	2.40040E-001	4.50399E-001	3.57710E+000	9	...........
	9	0.133333	4.57722E-001	4.00401E-004	0.00000E+000	1.83273E-004	2.40040E-001	4.57811E-001	3.57710E+000	9	...........
	10	0.146667	4.64949E-001	4.01786E-004	0.00000E+000	1.86810E-004	2.40040E-001	4.65043E-001	3.57710E+000	9	...........
	11	0.16	4.72118E-001	4.01920E-004	0.00000E+000	1.89754E-004	2.40040E-001	4.72208E-001	3.57710E+000	9	...........
	12	0.173333	4.79183E-001	4.01108E-004	0.00000E+000	1.92204E-004	2.40040E-001	4.79282E-001	3.57710E+000	9	...........
	13	0.186667	4.86182E-001	4.00888E-004	0.00000E+000	1.94904E-004	2.40040E-001	4.86275E-001	3.57710E+000	9	...........
	14	0.2	4.93067E-001	4.02023E-004	0.00000E+000	1.98224E-004	2.40040E-001	4.93170E-001	3.57710E+000	9	...........
	15	0.213333	4.99865E-001	4.02388E-004	0.00000E+000	2.01140E-004	2.40040E-001	4.99972E-001	3.57710E+000	9	...........
	16	0.226667	5.06618E-001	4.01113E-004	0.00000E+000	2.03211E-004	2.40040E-001	5.06726E-001	3.57710E+000	9	...........
	17	0.24	5.13237E-001	4.01270E-004	0.00000E+000	2.05947E-004	2.40040E-001	5.13341E-001	3.57710E+000	9	...........
	18	0.253333	5.19863E-001	4.01438E-004	0.00000E+000	2.08693E-004	2.40040E-001	5.19965E-001	3.57710E+000	9	...........
	19	0.266667	5.26359E-001	4.01460E-004	0.00000E+000	2.11312E-004	2.40040E-001	5.26466E-001	3.57710E+000	9	...........
	20	0.28	5.32725E-001	4.00987E-004	0.00000E+000	2.13616E-004	2.40040E-001	5.32867E-001	3.57710E+000	9	...........
	21	0.293333	5.39051E-001	4.02139E-004	0.00000E+000	2.16773E-004	2.40040E-001	5.39254E-001	3.57710E+000	9	...........
	22	0.306667	5.45443E-001	4.01043E-004	0.00000E+000	2.18746E-004	2.40040E-001	5.45649E-001	3.57710E+000	9	...........
	23	0.32	5.51812E-001	4.01233E-004	0.00000E+000	2.21405E-004	2.40040E-001	5.52061E-001	3.57710E+000	9	...........
	24	0.333333	5.58164E-001	4.00160E-004	0.00000E+000	2.23355E-004	2.40040E-001	5.58407E-001	3.57710E+000	9	...........
	25	0.346667	5.64525E-001	4.00397E-004	0.00000E+000	2.26034E-004	2.40040E-001	5.64755E-001	3.57710E+000	9	...........
	26	0.36	5.70760E-001	3.99907E-004	0.00000E+000	2.28251E-004	2.40040E-001	5.71000E-001	3.57710E+000	9	...........
	27	0.373333	5.76978E-001	4.00790E-004	0.00000E+000	2.31247E-004	2.40040E-001	5.77240E-001	3.57710E+000	9	...........
	28	0.386667	5.83241E-001	4.01399E-004	0.00000E+000	2.34112E-004	2.40040E-001	5.83487E-001	3.57710E+000	9	...........
	29	0.4	5.89408E-001	4.01295E-004	0.00000E+000	2.36527E-004	2.40040E-001	5.89658E-001	3.57710E+000	9	...........
	30	0.413333	5.95539E-001	4.01396E-004	0.00000E+000	2.39047E-004	2.40040E-001	5.95771E-001	3.57710E+000	9	...........
	31	0.426667	6.01668E-001	4.00180E-004	0.00000E+000	2.40775E-004	2.40040E-001	6.01936E-001	3.57710E+000	9	...........
	32	0.44	6.07802E-001	4.00593E-004	0.00000E+000	2.43481E-004	2.40040E-001	6.08056E-001	3.57715E+000	9	...........
	33	0.453333	6.13847E-001	3.99921E-004	0.00000E+000	2.45490E-004	2.40040E-001	6.14093E-001	3.57720E+000	9	...........
	34	0.466667	6.19916E-001	4.00662E-004	0.00000E+000	2.48376E-004	2.40040E-001	6.20117E-001	3.57720E+000	9	...........
	35	0.48	6.25952E-001	4.01297E-004	0.00000E+000	2.51193E-004	2.40040E-001	6.26151E-001	3.57720E+000	9	...........
	36	0.493333	6.31993E-001	4.02323E-004	0.00000E+000	2.54265E-004	2.40040E-001	6.32241E-001	3.57720E+000	9	...........
	37	0.506667	6.38052E-001	4.01402E-004	0.00000E+000	2.56116E-004	2.40040E-001	6.38289E-001	3.57720E+000	9	...........
	38	0.52	6.44086E-001	4.00899E-004	0.00000E+000	2.58213E-004	2.40040E-001	6.44302E-001	3.57720E+000	9	...........
	39	0.533333	6.49987E-001	4.00442E-004	0.00000E+000	2.60282E-004	2.40040E-001	6.50237E-001	3.57720E+000	9	...........
	40	0.546667	6.55935E-001	4.01168E-004	0.00000E+000	2.63140E-004	2.40040E-001	6.56171E-001	3.57720E+000	9	...........
	41	0.56	6.61807E-001	4.00386E-004	0.00000E+000	2.64978E-004	2.40040E-001	6.62059E-001	3.57720E+000	9	...........
	42	0.573333	6.67679E-001	4.00119E-004	0.00000E+000	2.67151E-004	2.40040E-001	6.67908E-001	3.57720E+000	9	...........
	43	0.586667	6.73537E-001	4.01726E-004	0.00000E+000	2.70577E-004	2.40040E-001	6.73764E-001	3.57720E+000	9	...........
	44	0.6	6.79446E-001	4.00990E-004	0.00000E+000	2.72451E-004	2.40040E-001	6.79697E-001	3.57720E+000	9	...........
	45	0.613333	6.85290E-001	4.01567E-004	0.00000E+000	2.75190E-004	2.40040E-001	6.85549E-001	3.57720E+000	9	...........
	46	0.626667	6.91152E-001	4.00271E-004	0.00000E+000	2.76648E-004	2.40040E-001	6.91395E-001	3.57720E+000	9	...........
	47	0.64	6.96888E-001	4.00121E-004	0.00000E+000	2.78839E-004	2.40040E-001	6.97140E-001	3.57720E+000	9	...........
	48	0.653333	7.02667E-001	4.00342E-004	0.00000E+000	2.81307E-004	2.40040E-001	7.02895E-001	3.57720E+000	9	...........
	49	0.666667	7.08411E-001	4.00738E-004	0.00000E+000	2.83887E-004	2.40040E-001	7.08638E-001	3.57720E+000	9	...........
	50	0.68	7.14139E-001	4.00159E-004	0.00000E+000	2.85770E-004	2.40040E-001	7.14354E-001	3.57720E+000	9	...........
	51	0.693333	7.19834E-001	4.00917E-004	0.00000E+000	2.88593E-004	2.40040E-001	7.20063E-001	3.57720E+000	9	...........
	52	0.706667	7.25481E-001	4.00040E-004	0.00000E+000	2.90221E-004	2.40040E-001	7.25710E-001	3.57720E+000	9	...........
	53	0.72	7.31098E-001	4.02636E-004	0.00000E+000	2.94366E-004	2.40040E-001	7.31333E-001	3.57720E+000	9	...........
	54	0.733333	7.36760E-001	4.01326E-004	0.00000E+000	2.95681E-004	2.40040E-001	7.36980E-001	3.57720E+000	9	...........
	55	0.746667	7.42373E-001	4.01048E-004	0.00000E+000	2.97727E-004	2.40040E-001	7.42628E-001	3.57720E+000	9	...........
	56	0.76	7.47958E-001	4.00872E-004	0.00000E+000	2.99835E-004	2.40040E-001	7.48208E-001	3.57720E+000	9	...........
	57	0.773333	7.53497E-001	4.01491E-004	0.00000E+000	3.02522E-004	2.40040E-001	7.53730E-001	3.57720E+000	9	...........
	58	0.786667	7.58998E-001	4.00123E-004	0.00000E+000	3.03693E-004	2.40040E-001	7.59262E-001	3.57720E+000	9	...........
	59	0.8	7.64454E-001	3.99845E-004	0.00000E+000	3.05663E-004	2.40040E-001	7.64727E-001	3.57720E+000	9	...........
	60	0.813333	7.69958E-001	4.00549E-004	0.00000E+000	3.08406E-004	2.40040E-001	7.70222E-001	3.57720E+000	9	...........
	61	0.826667	7.75391E-001	4.00501E-004	0.00000E+000	3.10545E-004	2.40040E-001	7.75615E-001	3.57720E+000	9	...........
	62	0.84	7.80784E-001	4.01591E-004	0.00000E+000	3.13556E-004	2.40040E-001	7.81002E-001	3.57720E+000	9	...........
	63	0.853333	7.86101E-001	3.99959E-004	0.00000E+000	3.14408E-004	2.40040E-001	7.86352E-001	3.57720E+000	9	...........
	64	0.866667	7.91404E-001	4.01356E-004	0.00000E+000	3.17634E-004	2.40040E-001	7.91644E-001	3.57720E+000	9	...........
	65	0.88	7.96693E-001	4.00759E-004	0.00000E+000	3.19282E-004	2.40040E-001	7.96935E-001	3.57720E+000	9	...........
	66	0.893333	8.01977E-001	4.01006E-004	0.00000E+000	3.21598E-004	2.40040E-001	8.02192E-001	3.57720E+000	9	...........
	67	0.906667	8.07227E-001	4.01266E-004	0.00000E+000	3.23913E-004	2.40040E-001	8.07496E-001	3.57720E+000	9	...........
	68	0.92	8.12370E-001	4.01364E-004	0.00000E+000	3.26056E-004	2.40040E-001	8.12652E-001	3.57720E+000	9	...........
	69	0.933333	8.17540E-001	4.02061E-004	0.00000E+000	3.28701E-004	2.40040E-001	8.17816E-001	3.57720E+000	9	...........
	70	0.946667	8.22704E-001	4.00689E-004	0.00000E+000	3.29648E-004	2.40040E-001	8.22983E-001	3.57720E+000	9	...........
	71	0.96	8.27765E-001	4.01414E-004	0.00000E+000	3.32276E-004	2.40040E-001	8.28035E-001	3.57720E+000	9	...........
	72	0.97333	8.32842E-001	4.01286E-004	0.00000E+000	3.34207E-004	2.40040E-001	8.33157E-001	3.57720E+000	9	...........
	73	0.98667	8.37854E-001	4.00367E-004	0.00000E+000	3.35449E-004	2.40040E-001	8.38138E-001	3.57720E+000	9	...........
	74	1	8.42828E-001	4.02073E-004	0.00000E+000	3.38879E-004	2.40040E-001	8.43116E-001	3.57720E+000	9	...........
	75	1.01333	8.47769E-001	3.99521E-004	0.00000E+000	3.38701E-004	2.40040E-001	8.48044E-001	3.57720E+000	9	...........
	76	1.02667	8.52683E-001	4.00417E-004	0.00000E+000	3.41429E-004	2.40040E-001	8.52952E-001	3.57720E+000	9	...........
	77	1.04	8.57525E-001	4.01580E-004	0.00000E+000	3.44364E-004	2.40040E-001	8.57818E-001	3.57720E+000	9	...........
	78	1.05333	8.62354E-001	4.01263E-004	0.00000E+000	3.46031E-004	2.40040E-001	8.62648E-001	3.57720E+000	9	...........
	79	1.06667	8.67159E-001	4.00765E-004	0.00000E+000	3.47527E-004	2.40040E-001	8.67489E-001	3.57720E+000	9	...........
	80	1.08	8.71977E-001	4.00506E-004	0.00000E+000	3.49233E-004	2.40040E-001	8.72287E-001	3.57720E+000	9	...........
	81	1.09333	8.76699E-001	4.01718E-004	0.00000E+000	3.52186E-004	2.40040E-001	8.77017E-001	3.57720E+000	9	...........
	82	1.10667	8.81446E-001	4.01275E-004	0.00000E+000	3.53702E-004	2.40040E-001	8.81751E-001	3.57720E+000	9	...........
	83	1.12	8.86145E-001	4.00905E-004	0.00000E+000	3.55260E-004	2.40040E-001	8.86477E-001	3.57720E+000	9	...........
	84	1.13333	8.90756E-001	4.00590E-004	0.00000E+000	3.56828E-004	2.40040E-001	8.91062E-001	3.57720E+000	9	...........
	85	1.14667	8.95290E-001	4.01518E-004	0.00000E+000	3.59475E-004	2.40040E-001	8.95619E-001	3.57720E+000	9	...........
	86	1.16	8.99824E-001	4.00096E-004	0.00000E+000	3.60016E-004	2.40040E-001	9.00144E-001	3.57720E+000	9	...........
	87	1.17333	9.04312E-001	4.00964E-004	0.00000E+000	3.62596E-004	2.40040E-001	9.04642E-001	3.57720E+000	9	...........
	88	1.18667	9.08804E-001	4.00779E-004	0.00000E+000	3.64230E-004	2.40040E-001	9.09117E-001	3.57720E+000	9	...........
	89	1.2	9.13238E-001	4.00754E-004	0.00000E+000	3.65984E-004	2.40040E-001	9.13554E-001	3.57720E+000	9	...........
	90	1.21333	9.17652E-001	4.01276E-004	0.00000E+000	3.68232E-004	2.40040E-001	9.17982E-001	3.57720E+000	9	...........
	91	1.22667	9.22092E-001	3.99866E-004	0.00000E+000	3.68713E-004	2.40040E-001	9.22383E-001	3.57720E+000	9	...........
	92	1.24	9.26439E-001	4.00655E-004	0.00000E+000	3.71183E-004	2.40040E-001	9.26750E-001	3.57720E+000	9	...........
	93	1.25333	9.30684E-001	4.01496E-004	0.00000E+000	3.73666E-004	2.40040E-001	9.30973E-001	3.57720E+000	9	...........
	94	1.26667	9.34911E-001	4.00953E-004	0.00000E+000	3.74856E-004	2.40040E-001	9.35208E-001	3.57720E+000	9	...........
	95	1.28	9.39176E-001	4.01619E-004	0.00000E+000	3.77191E-004	2.40040E-001	9.39498E-001	3.57720E+000	9	...........
	96	1.29333	9.43389E-001	4.01497E-004	0.00000E+000	3.78768E-004	2.40040E-001	9.43700E-001	3.57720E+000	9	...........
	97	1.30667	9.47550E-001	4.01705E-004	0.00000E+000	3.80635E-004	2.40040E-001	9.47845E-001	3.57720E+000	9	...........
	98	1.32	9.51689E-001	4.01172E-004	0.00000E+000	3.81791E-004	2.40040E-001	9.51959E-001	3.57720E+000	9	...........
	99	1.33333	9.55746E-001	4.00947E-004	0.00000E+000	3.83204E-004	2.40040E-001	9.56053E-001	3.57720E+000	9	...........
	100	1.34667	9.59785E-001	4.01451E-004	0.00000E+000	3.85307E-004	2.40040E-001	9.60100E-001	3.57720E+000	9	...........
	101	1.36	9.63748E-001	4.00672E-004	0.00000E+000	3.86147E-004	2.40040E-001	9.64063E-001	3.57720E+000	9	...........
	102	1.37333	9.67630E-001	4.01016E-004	0.00000E+000	3.88035E-004	2.40040E-001	9.67928E-001	3.57720E+000	9	...........
	103	1.38667	9.71497E-001	4.01562E-004	0.00000E+000	3.90116E-004	2.40040E-001	9.71819E-001	3.57720E+000	9	...........
	104	1.4	9.75386E-001	4.00346E-004	0.00000E+000	3.90492E-004	2.40040E-001	9.75713E-001	3.57720E+000	9	...........
	105	1.41333	9.79261E-001	4.00818E-004	0.00000E+000	3.92505E-004	2.40040E-001	9.79576E-001	3.57720E+000	9	...........
	106	1.42667	9.83067E-001	4.01022E-004	0.00000E+000	3.94232E-004	2.40040E-001	9.83392E-001	3.57720E+000	9	...........
	107	1.44	9.86766E-001	4.01404E-004	0.00000E+000	3.96092E-004	2.40040E-001	9.87076E-001	3.57680E+000	9	...........
	108	1.45333	9.90441E-001	4.00583E-004	0.00000E+000	3.96754E-004	2.40040E-001	9.90746E-001	3.57640E+000	9	...........
	109	1.46667	9.94013E-001	4.00671E-004	0.00000E+000	3.98272E-004	2.40040E-001	9.94317E-001	3.57640E+000	9	...........
	110	1.48	9.97660E-001	4.00081E-004	0.00000E+000	3.99145E-004	2.40040E-001	9.97984E-001	3.57640E+000	9	...........
	111	1.48333	9.99931E-001	3.99652E-004	0.00000E+000	3.99624E-004	2.40040E-001	1.00030E+000	3.57640E+000	9	...........
STARTTIMEOFFSET	QUANT	2177.948	Start Time Offset (s)
