EXPLAIN
TAG	PWR800_CHARGE
TITLE	LABEL	PWR Cyclic Charge Discharge (Cell) - Charge Step	Test &Identifier
DATE	LABEL	12-7-2017	Date
TIME	LABEL	14:35:43	Time
NOTES	NOTES	3	&Notes...
	supercap test cell
	0.4mg
	6M KOH
PSTAT	PSTAT	IFC5000-01520	Potentiostat
CAPACITY	QUANT	1.00000E-003	Capacity (A-hr)
CELLTYPE	SELECTOR	1	&Cell Type
WORKINGCONNECTION	SELECTOR	0	&Working Lead
MAXCHARGETIME	VARIABLEANDUNITS	1.00000E+002	s	1.00000E+002	second(s)	Max &Charge Time
CHARGECURRENT	QUANT	4.00000E-004	&Charge Current (A) 
VOLTAGEFINISH	TWOPARAM	F	1.00000E-003	3.60000E+003	&Voltage Finish	 I (A) < 	Max Time(s)
SAMPLETIME	QUANT	1.00000E-002	Sa&mple Period (s)
CHARGESTOPAT1	MULTIPARAM	4	1.00000E+000	Charge Stop At &1	Voltage > Limit	V
CHARGESTOPAT2	MULTIPARAM	0	0.00000E+000	Charge Stop At &2	None	N/A
AESBHCSELECTOR	TOGGLE	F	Save Both Half Cells
IRCOMP	TOGGLE	F	IR &Measure
EOC	QUANT	0	Open Circuit (V)
SEQUENCER	TOGGLE	TRUE	Run as Sequence
PSTATMODEL	IQUANT	53	Pstat Model
PSTATSECTION	LABEL	IFC5000-01520	Pstat Section
PSTATSERIALNO	LABEL	01520	Pstat Serial Number
CTRLMODE	IQUANT	0	Control Mode
ELECTROMETER	IQUANT	1	RE=0 or CS=1
IESTAB	IQUANT	0	I/E Stability
CASPEED	IQUANT	4	Control Amp Speed
CONVENTION	IQUANT	1	Current Convention
ICHRANGE	IQUANT	2	Ich Range
ICHRANGEMODE	TOGGLE	T	Ich Auto Range
ICHOFFSETENABLE	TOGGLE	F	Ich Offset Enable
ICHOFFSET	QUANT	0	Ich Offset (V)
ICHFILTER	IQUANT	1	Ich Filter
VCHRANGE	IQUANT	2	Vch Range
VCHRANGEMODE	TOGGLE	T	Vch Auto Range
VCHOFFSETENABLE	TOGGLE	F	Vch Offset Enable
VCHOFFSET	QUANT	0	Vch Offset (V)
VCHFILTER	IQUANT	1	Vch Filter
IERANGELOWERLIMIT	IQUANT	9	I/E Range Lower Limit
IERANGEMODE	TOGGLE	F	I/E AutoRange
IERANGE	IQUANT	9	I/E Range
ACHSELECT	IQUANT	1	Ach Select
ACHRANGE	IQUANT	2	Ach Range
ACHOFFSETENABLE	TOGGLE	F	Ach Offset Enable
ACHOFFSET	QUANT	0	Ach Offset (V)
ACHFILTER	IQUANT	1	Ach Filter
CABLEID	IQUANT	14	Cable ID
DCCALDATE	LABEL	5-7-2017	DC Calibration Date
ACCALDATE	LABEL	12/3/2015	AC Calibration Date
FRAMEWORKVERSION	QUANT	7.01	Framework Version
INSTRUMENTVERSION	LABEL	4.00	Instrument Version
CURVE	TABLE	128
	Pt	T	Vf	Im	Vu	Pwr	Sig	Ach	Temp	IERange	Over
	#	s	V	A	V	W	V	V	deg C	#	bits
	0	0.013333	3.47517E-001	4.01507E-004	0.00000E+000	1.39530E-004	2.40040E-001	3.47607E-001	3.57680E+000	9	...........
	1	0.026667	3.58193E-001	4.01272E-004	0.00000E+000	1.43733E-004	2.40040E-001	3.58264E-001	3.57680E+000	9	...........
	2	0.04	3.67449E-001	4.01566E-004	0.00000E+000	1.47555E-004	2.40040E-001	3.67522E-001	3.57680E+000	9	...........
	3	0.053333	3.75868E-001	4.00386E-004	0.00000E+000	1.50492E-004	2.40040E-001	3.75943E-001	3.57680E+000	9	...........
	4	0.066667	3.83808E-001	4.01809E-004	0.00000E+000	1.54218E-004	2.40040E-001	3.83882E-001	3.57680E+000	9	...........
	5	0.08	3.91398E-001	4.00076E-004	0.00000E+000	1.56589E-004	2.40040E-001	3.91474E-001	3.57680E+000	9	...........
	6	0.093333	3.98641E-001	4.00192E-004	0.00000E+000	1.59533E-004	2.40040E-001	3.98719E-001	3.57680E+000	9	...........
	7	0.106667	4.05683E-001	4.01525E-004	0.00000E+000	1.62892E-004	2.40040E-001	4.05760E-001	3.57680E+000	9	...........
	8	0.12	4.12612E-001	3.99733E-004	0.00000E+000	1.64935E-004	2.40040E-001	4.12695E-001	3.57680E+000	9	...........
	9	0.133333	4.19336E-001	4.00987E-004	0.00000E+000	1.68148E-004	2.40040E-001	4.19424E-001	3.57680E+000	9	...........
	10	0.146667	4.25860E-001	4.00960E-004	0.00000E+000	1.70753E-004	2.40040E-001	4.25945E-001	3.57680E+000	9	...........
	11	0.16	4.32361E-001	4.00641E-004	0.00000E+000	1.73221E-004	2.40040E-001	4.32454E-001	3.57680E+000	9	...........
	12	0.173333	4.38757E-001	4.00411E-004	0.00000E+000	1.75683E-004	2.40040E-001	4.38845E-001	3.57680E+000	9	...........
	13	0.186667	4.45073E-001	4.00344E-004	0.00000E+000	1.78182E-004	2.40040E-001	4.45164E-001	3.57680E+000	9	...........
	14	0.2	4.51374E-001	3.99946E-004	0.00000E+000	1.80525E-004	2.40040E-001	4.51470E-001	3.57680E+000	9	...........
	15	0.213333	4.57559E-001	4.01508E-004	0.00000E+000	1.83713E-004	2.40040E-001	4.57646E-001	3.57680E+000	9	...........
	16	0.226667	4.63699E-001	4.03123E-004	0.00000E+000	1.86927E-004	2.40040E-001	4.63783E-001	3.57680E+000	9	...........
	17	0.24	4.69751E-001	3.99402E-004	0.00000E+000	1.87619E-004	2.40040E-001	4.69842E-001	3.57680E+000	9	...........
	18	0.253333	4.75731E-001	4.01913E-004	0.00000E+000	1.91203E-004	2.40040E-001	4.75816E-001	3.57680E+000	9	...........
	19	0.266667	4.81743E-001	4.00621E-004	0.00000E+000	1.92996E-004	2.40040E-001	4.81832E-001	3.57680E+000	9	...........
	20	0.28	4.87709E-001	4.00947E-004	0.00000E+000	1.95546E-004	2.40040E-001	4.87802E-001	3.57680E+000	9	...........
	21	0.293333	4.93640E-001	4.00867E-004	0.00000E+000	1.97884E-004	2.40040E-001	4.93744E-001	3.57680E+000	9	...........
	22	0.306667	4.99512E-001	4.01689E-004	0.00000E+000	2.00649E-004	2.40040E-001	4.99610E-001	3.57680E+000	9	...........
	23	0.32	5.05305E-001	4.00921E-004	0.00000E+000	2.02587E-004	2.40040E-001	5.05406E-001	3.57680E+000	9	...........
	24	0.333333	5.11078E-001	4.01134E-004	0.00000E+000	2.05010E-004	2.40040E-001	5.11180E-001	3.57680E+000	9	...........
	25	0.346667	5.16871E-001	4.00076E-004	0.00000E+000	2.06788E-004	2.40040E-001	5.16973E-001	3.57680E+000	9	...........
	26	0.36	5.22556E-001	3.99326E-004	0.00000E+000	2.08670E-004	2.40040E-001	5.22666E-001	3.57680E+000	9	...........
	27	0.373333	5.28253E-001	4.00646E-004	0.00000E+000	2.11642E-004	2.40040E-001	5.28363E-001	3.57680E+000	9	...........
	28	0.386667	5.33808E-001	4.00489E-004	0.00000E+000	2.13784E-004	2.40040E-001	5.33948E-001	3.57680E+000	9	...........
	29	0.4	5.39416E-001	4.01881E-004	0.00000E+000	2.16781E-004	2.40040E-001	5.39626E-001	3.57680E+000	9	...........
	30	0.413333	5.44955E-001	4.01505E-004	0.00000E+000	2.18802E-004	2.40040E-001	5.45141E-001	3.57680E+000	9	...........
	31	0.426667	5.50509E-001	4.00814E-004	0.00000E+000	2.20651E-004	2.40040E-001	5.50700E-001	3.57680E+000	9	...........
	32	0.44	5.56097E-001	4.01285E-004	0.00000E+000	2.23153E-004	2.40040E-001	5.56292E-001	3.57680E+000	9	...........
	33	0.453333	5.61664E-001	4.01124E-004	0.00000E+000	2.25297E-004	2.40040E-001	5.61896E-001	3.57680E+000	9	...........
	34	0.466667	5.67312E-001	4.00812E-004	0.00000E+000	2.27385E-004	2.40040E-001	5.67517E-001	3.57680E+000	9	...........
	35	0.48	5.72853E-001	4.01391E-004	0.00000E+000	2.29938E-004	2.40040E-001	5.73051E-001	3.57680E+000	9	...........
	36	0.493333	5.78374E-001	4.00411E-004	0.00000E+000	2.31587E-004	2.40040E-001	5.78582E-001	3.57680E+000	9	...........
	37	0.506667	5.83901E-001	4.01165E-004	0.00000E+000	2.34241E-004	2.40040E-001	5.84132E-001	3.57680E+000	9	...........
	38	0.52	5.89320E-001	4.00382E-004	0.00000E+000	2.35954E-004	2.40040E-001	5.89572E-001	3.57680E+000	9	...........
	39	0.533333	5.94873E-001	4.02267E-004	0.00000E+000	2.39298E-004	2.40040E-001	5.95128E-001	3.57680E+000	9	...........
	40	0.546667	6.00271E-001	4.01346E-004	0.00000E+000	2.40916E-004	2.40040E-001	6.00528E-001	3.57680E+000	9	...........
	41	0.56	6.05718E-001	4.00712E-004	0.00000E+000	2.42718E-004	2.40040E-001	6.05987E-001	3.57680E+000	9	...........
	42	0.573333	6.11146E-001	4.01608E-004	0.00000E+000	2.45441E-004	2.40040E-001	6.11436E-001	3.57680E+000	9	...........
	43	0.586667	6.16634E-001	4.01195E-004	0.00000E+000	2.47391E-004	2.40040E-001	6.16883E-001	3.57680E+000	9	...........
	44	0.6	6.21970E-001	4.01294E-004	0.00000E+000	2.49593E-004	2.40040E-001	6.22183E-001	3.57680E+000	9	...........
	45	0.613333	6.27366E-001	4.01824E-004	0.00000E+000	2.52091E-004	2.40040E-001	6.27598E-001	3.57680E+000	9	...........
	46	0.626667	6.32686E-001	4.01923E-004	0.00000E+000	2.54291E-004	2.40040E-001	6.32903E-001	3.57680E+000	9	...........
	47	0.64	6.38096E-001	4.00552E-004	0.00000E+000	2.55591E-004	2.40040E-001	6.38274E-001	3.57680E+000	9	...........
	48	0.653333	6.43423E-001	4.00651E-004	0.00000E+000	2.57788E-004	2.40040E-001	6.43644E-001	3.57680E+000	9	...........
	49	0.666667	6.48767E-001	4.00722E-004	0.00000E+000	2.59975E-004	2.40040E-001	6.48963E-001	3.57680E+000	9	...........
	50	0.68	6.54002E-001	3.99873E-004	0.00000E+000	2.61518E-004	2.40040E-001	6.54194E-001	3.57680E+000	9	...........
	51	0.693333	6.59395E-001	4.01993E-004	0.00000E+000	2.65072E-004	2.40040E-001	6.59588E-001	3.57680E+000	9	...........
	52	0.706667	6.64732E-001	4.01270E-004	0.00000E+000	2.66737E-004	2.40040E-001	6.64950E-001	3.57680E+000	9	...........
	53	0.72	6.70060E-001	4.00194E-004	0.00000E+000	2.68154E-004	2.40040E-001	6.70257E-001	3.57680E+000	9	...........
	54	0.733333	6.75300E-001	4.01334E-004	0.00000E+000	2.71020E-004	2.40040E-001	6.75510E-001	3.57680E+000	9	...........
	55	0.746667	6.80588E-001	4.01356E-004	0.00000E+000	2.73158E-004	2.40040E-001	6.80839E-001	3.57680E+000	9	...........
	56	0.76	6.85806E-001	4.02462E-004	0.00000E+000	2.76011E-004	2.40040E-001	6.86034E-001	3.57680E+000	9	...........
	57	0.773333	6.91021E-001	4.00886E-004	0.00000E+000	2.77020E-004	2.40040E-001	6.91277E-001	3.57680E+000	9	...........
	58	0.786667	6.96276E-001	4.00643E-004	0.00000E+000	2.78958E-004	2.40040E-001	6.96519E-001	3.57680E+000	9	...........
	59	0.8	7.01434E-001	4.02132E-004	0.00000E+000	2.82069E-004	2.40040E-001	7.01674E-001	3.57680E+000	9	...........
	60	0.813333	7.06561E-001	4.00441E-004	0.00000E+000	2.82936E-004	2.40040E-001	7.06806E-001	3.57680E+000	9	...........
	61	0.826667	7.11787E-001	4.00208E-004	0.00000E+000	2.84863E-004	2.40040E-001	7.12033E-001	3.57680E+000	9	...........
	62	0.84	7.16996E-001	4.00194E-004	0.00000E+000	2.86938E-004	2.40040E-001	7.17260E-001	3.57680E+000	9	...........
	63	0.853333	7.22182E-001	4.00555E-004	0.00000E+000	2.89274E-004	2.40040E-001	7.22419E-001	3.57680E+000	9	...........
	64	0.866667	7.27255E-001	3.99477E-004	0.00000E+000	2.90522E-004	2.40040E-001	7.27479E-001	3.57680E+000	9	...........
	65	0.88	7.32353E-001	4.00803E-004	0.00000E+000	2.93530E-004	2.40040E-001	7.32609E-001	3.57680E+000	9	...........
	66	0.893333	7.37451E-001	4.01169E-004	0.00000E+000	2.95843E-004	2.40040E-001	7.37696E-001	3.57680E+000	9	...........
	67	0.906667	7.42535E-001	4.00894E-004	0.00000E+000	2.97678E-004	2.40040E-001	7.42786E-001	3.57680E+000	9	...........
	68	0.92	7.47583E-001	4.00754E-004	0.00000E+000	2.99597E-004	2.40040E-001	7.47843E-001	3.57680E+000	9	...........
	69	0.933333	7.52576E-001	4.01377E-004	0.00000E+000	3.02067E-004	2.40040E-001	7.52841E-001	3.57684E+000	9	...........
	70	0.946667	7.57553E-001	3.99233E-004	0.00000E+000	3.02440E-004	2.40040E-001	7.57812E-001	3.57740E+000	9	...........
	71	0.96	7.62514E-001	4.00885E-004	0.00000E+000	3.05680E-004	2.40040E-001	7.62757E-001	3.57740E+000	9	...........
	72	0.97333	7.67513E-001	3.99857E-004	0.00000E+000	3.06895E-004	2.40040E-001	7.67775E-001	3.57740E+000	9	...........
	73	0.98667	7.72504E-001	4.00761E-004	0.00000E+000	3.09589E-004	2.40040E-001	7.72757E-001	3.57740E+000	9	...........
	74	1	7.77453E-001	4.01171E-004	0.00000E+000	3.11891E-004	2.40040E-001	7.77697E-001	3.57740E+000	9	...........
	75	1.01333	7.82362E-001	4.00517E-004	0.00000E+000	3.13349E-004	2.40040E-001	7.82607E-001	3.57740E+000	9	...........
	76	1.02667	7.87226E-001	4.00929E-004	0.00000E+000	3.15622E-004	2.40040E-001	7.87471E-001	3.57740E+000	9	...........
	77	1.04	7.92129E-001	3.99645E-004	0.00000E+000	3.16570E-004	2.40040E-001	7.92387E-001	3.57740E+000	9	...........
	78	1.05333	7.96953E-001	4.01957E-004	0.00000E+000	3.20341E-004	2.40040E-001	7.97203E-001	3.57740E+000	9	...........
	79	1.06667	8.01755E-001	4.00597E-004	0.00000E+000	3.21181E-004	2.40040E-001	8.02019E-001	3.57740E+000	9	...........
	80	1.08	8.06523E-001	4.00379E-004	0.00000E+000	3.22915E-004	2.40040E-001	8.06788E-001	3.57740E+000	9	...........
	81	1.09333	8.11236E-001	4.00754E-004	0.00000E+000	3.25106E-004	2.40040E-001	8.11472E-001	3.57740E+000	9	...........
	82	1.10667	8.16056E-001	4.02087E-004	0.00000E+000	3.28125E-004	2.40040E-001	8.16315E-001	3.57740E+000	9	...........
	83	1.12	8.20771E-001	3.99863E-004	0.00000E+000	3.28196E-004	2.40040E-001	8.21012E-001	3.57740E+000	9	...........
	84	1.13333	8.25451E-001	4.02191E-004	0.00000E+000	3.31989E-004	2.40040E-001	8.25725E-001	3.57740E+000	9	...........
	85	1.14667	8.30141E-001	4.02324E-004	0.00000E+000	3.33986E-004	2.40040E-001	8.30417E-001	3.57740E+000	9	...........
	86	1.16	8.34749E-001	4.02276E-004	0.00000E+000	3.35799E-004	2.40040E-001	8.35058E-001	3.57740E+000	9	...........
	87	1.17333	8.39375E-001	4.00732E-004	0.00000E+000	3.36365E-004	2.40040E-001	8.39652E-001	3.57740E+000	9	...........
	88	1.18667	8.43981E-001	4.02033E-004	0.00000E+000	3.39308E-004	2.40040E-001	8.44267E-001	3.57740E+000	9	...........
	89	1.2	8.48575E-001	4.01304E-004	0.00000E+000	3.40537E-004	2.40040E-001	8.48827E-001	3.57740E+000	9	...........
	90	1.21333	8.53098E-001	4.01726E-004	0.00000E+000	3.42712E-004	2.40040E-001	8.53318E-001	3.57740E+000	9	...........
	91	1.22667	8.57571E-001	4.01713E-004	0.00000E+000	3.44497E-004	2.40040E-001	8.57804E-001	3.57740E+000	9	...........
	92	1.24	8.62098E-001	4.00816E-004	0.00000E+000	3.45542E-004	2.40040E-001	8.62323E-001	3.57740E+000	9	...........
	93	1.25333	8.66558E-001	4.01084E-004	0.00000E+000	3.47562E-004	2.40040E-001	8.66813E-001	3.57740E+000	9	...........
	94	1.26667	8.70948E-001	4.00137E-004	0.00000E+000	3.48498E-004	2.40040E-001	8.71244E-001	3.57740E+000	9	...........
	95	1.28	8.75285E-001	4.00922E-004	0.00000E+000	3.50921E-004	2.40040E-001	8.75587E-001	3.57740E+000	9	...........
	96	1.29333	8.79722E-001	4.01639E-004	0.00000E+000	3.53330E-004	2.40040E-001	8.80023E-001	3.57740E+000	9	...........
	97	1.30667	8.84067E-001	4.02259E-004	0.00000E+000	3.55624E-004	2.40040E-001	8.84374E-001	3.57740E+000	9	...........
	98	1.32	8.88384E-001	4.00669E-004	0.00000E+000	3.55948E-004	2.40040E-001	8.88697E-001	3.57740E+000	9	...........
	99	1.33333	8.92674E-001	4.02621E-004	0.00000E+000	3.59410E-004	2.40040E-001	8.92987E-001	3.57740E+000	9	...........
	100	1.34667	8.96938E-001	3.99444E-004	0.00000E+000	3.58276E-004	2.40040E-001	8.97274E-001	3.57740E+000	9	...........
	101	1.36	9.01181E-001	4.01489E-004	0.00000E+000	3.61814E-004	2.40040E-001	9.01490E-001	3.57740E+000	9	...........
	102	1.37333	9.05351E-001	4.01439E-004	0.00000E+000	3.63443E-004	2.40040E-001	9.05650E-001	3.57740E+000	9	...........
	103	1.38667	9.09549E-001	4.00830E-004	0.00000E+000	3.64575E-004	2.40040E-001	9.09813E-001	3.57740E+000	9	...........
	104	1.4	9.13660E-001	4.00198E-004	0.00000E+000	3.65645E-004	2.40040E-001	9.13958E-001	3.57740E+000	9	...........
	105	1.41333	9.17702E-001	4.01269E-004	0.00000E+000	3.68245E-004	2.40040E-001	9.18005E-001	3.57740E+000	9	...........
	106	1.42667	9.21785E-001	3.99133E-004	0.00000E+000	3.67915E-004	2.40040E-001	9.22052E-001	3.57740E+000	9	...........
	107	1.44	9.25871E-001	4.00383E-004	0.00000E+000	3.70703E-004	2.40040E-001	9.26160E-001	3.57740E+000	9	...........
	108	1.45333	9.29803E-001	4.00798E-004	0.00000E+000	3.72663E-004	2.40040E-001	9.30077E-001	3.57740E+000	9	...........
	109	1.46667	9.33684E-001	4.00865E-004	0.00000E+000	3.74281E-004	2.40040E-001	9.33970E-001	3.57740E+000	9	...........
	110	1.48	9.37559E-001	4.01879E-004	0.00000E+000	3.76785E-004	2.40040E-001	9.37881E-001	3.57740E+000	9	...........
	111	1.49333	9.41437E-001	4.01760E-004	0.00000E+000	3.78231E-004	2.40040E-001	9.41753E-001	3.57740E+000	9	...........
	112	1.50667	9.45298E-001	4.00989E-004	0.00000E+000	3.79054E-004	2.40040E-001	9.45613E-001	3.57740E+000	9	...........
	113	1.52	9.49168E-001	4.00779E-004	0.00000E+000	3.80407E-004	2.40040E-001	9.49514E-001	3.57740E+000	9	...........
	114	1.53333	9.52986E-001	4.01670E-004	0.00000E+000	3.82786E-004	2.40040E-001	9.53330E-001	3.57740E+000	9	...........
	115	1.54667	9.56701E-001	4.01026E-004	0.00000E+000	3.83662E-004	2.40040E-001	9.57008E-001	3.57740E+000	9	...........
	116	1.56	9.60379E-001	4.00928E-004	0.00000E+000	3.85043E-004	2.40040E-001	9.60715E-001	3.57740E+000	9	...........
	117	1.57333	9.64018E-001	4.00275E-004	0.00000E+000	3.85872E-004	2.40040E-001	9.64350E-001	3.57740E+000	9	...........
	118	1.58667	9.67578E-001	4.01866E-004	0.00000E+000	3.88837E-004	2.40040E-001	9.67933E-001	3.57740E+000	9	...........
	119	1.6	9.71238E-001	4.01937E-004	0.00000E+000	3.90376E-004	2.40040E-001	9.71610E-001	3.57740E+000	9	...........
	120	1.61333	9.74926E-001	4.00407E-004	0.00000E+000	3.90367E-004	2.40040E-001	9.75258E-001	3.57740E+000	9	...........
	121	1.62667	9.78477E-001	4.01004E-004	0.00000E+000	3.92374E-004	2.40040E-001	9.78811E-001	3.57740E+000	9	...........
	122	1.64	9.81979E-001	4.00079E-004	0.00000E+000	3.92870E-004	2.40040E-001	9.82311E-001	3.57740E+000	9	...........
	123	1.65333	9.85487E-001	4.01209E-004	0.00000E+000	3.95386E-004	2.40040E-001	9.85817E-001	3.57740E+000	9	...........
	124	1.66667	9.88894E-001	4.00551E-004	0.00000E+000	3.96103E-004	2.40040E-001	9.89239E-001	3.57740E+000	9	...........
	125	1.68	9.92289E-001	4.00835E-004	0.00000E+000	3.97744E-004	2.40040E-001	9.92631E-001	3.57740E+000	9	...........
	126	1.69333	9.95609E-001	4.01739E-004	0.00000E+000	3.99975E-004	2.40040E-001	9.95959E-001	3.57740E+000	9	...........
	127	1.70667	9.98912E-001	4.01487E-004	0.00000E+000	4.01050E-004	2.40040E-001	9.99239E-001	3.57740E+000	9	...........
STARTTIMEOFFSET	QUANT	823.7169	Start Time Offset (s)
