EXPLAIN
TAG	PWR800_CHARGE
TITLE	LABEL	PWR Cyclic Charge Discharge (Cell) - Charge Step	Test &Identifier
DATE	LABEL	12-7-2017	Date
TIME	LABEL	14:25:38	Time
NOTES	NOTES	3	&Notes...
	supercap test cell
	0.4mg
	6M KOH
PSTAT	PSTAT	IFC5000-01520	Potentiostat
CAPACITY	QUANT	1.00000E-003	Capacity (A-hr)
CELLTYPE	SELECTOR	1	&Cell Type
WORKINGCONNECTION	SELECTOR	0	&Working Lead
MAXCHARGETIME	VARIABLEANDUNITS	1.00000E+002	s	1.00000E+002	second(s)	Max &Charge Time
CHARGECURRENT	QUANT	4.00000E-004	&Charge Current (A) 
VOLTAGEFINISH	TWOPARAM	F	1.00000E-003	3.60000E+003	&Voltage Finish	 I (A) < 	Max Time(s)
SAMPLETIME	QUANT	1.00000E-002	Sa&mple Period (s)
CHARGESTOPAT1	MULTIPARAM	4	1.00000E+000	Charge Stop At &1	Voltage > Limit	V
CHARGESTOPAT2	MULTIPARAM	0	0.00000E+000	Charge Stop At &2	None	N/A
AESBHCSELECTOR	TOGGLE	F	Save Both Half Cells
IRCOMP	TOGGLE	F	IR &Measure
EOC	QUANT	0	Open Circuit (V)
SEQUENCER	TOGGLE	TRUE	Run as Sequence
PSTATMODEL	IQUANT	53	Pstat Model
PSTATSECTION	LABEL	IFC5000-01520	Pstat Section
PSTATSERIALNO	LABEL	01520	Pstat Serial Number
CTRLMODE	IQUANT	0	Control Mode
ELECTROMETER	IQUANT	1	RE=0 or CS=1
IESTAB	IQUANT	0	I/E Stability
CASPEED	IQUANT	4	Control Amp Speed
CONVENTION	IQUANT	1	Current Convention
ICHRANGE	IQUANT	2	Ich Range
ICHRANGEMODE	TOGGLE	T	Ich Auto Range
ICHOFFSETENABLE	TOGGLE	F	Ich Offset Enable
ICHOFFSET	QUANT	0	Ich Offset (V)
ICHFILTER	IQUANT	1	Ich Filter
VCHRANGE	IQUANT	2	Vch Range
VCHRANGEMODE	TOGGLE	T	Vch Auto Range
VCHOFFSETENABLE	TOGGLE	F	Vch Offset Enable
VCHOFFSET	QUANT	0	Vch Offset (V)
VCHFILTER	IQUANT	1	Vch Filter
IERANGELOWERLIMIT	IQUANT	9	I/E Range Lower Limit
IERANGEMODE	TOGGLE	F	I/E AutoRange
IERANGE	IQUANT	9	I/E Range
ACHSELECT	IQUANT	1	Ach Select
ACHRANGE	IQUANT	2	Ach Range
ACHOFFSETENABLE	TOGGLE	F	Ach Offset Enable
ACHOFFSET	QUANT	0	Ach Offset (V)
ACHFILTER	IQUANT	1	Ach Filter
CABLEID	IQUANT	14	Cable ID
DCCALDATE	LABEL	5-7-2017	DC Calibration Date
ACCALDATE	LABEL	12/3/2015	AC Calibration Date
FRAMEWORKVERSION	QUANT	7.01	Framework Version
INSTRUMENTVERSION	LABEL	4.00	Instrument Version
CURVE	TABLE	140
	Pt	T	Vf	Im	Vu	Pwr	Sig	Ach	Temp	IERange	Over
	#	s	V	A	V	W	V	V	deg C	#	bits
	0	0.013333	3.33834E-001	4.02123E-004	0.00000E+000	1.34242E-004	2.40040E-001	3.33916E-001	3.57640E+000	9	...........
	1	0.026667	3.43724E-001	4.02066E-004	0.00000E+000	1.38200E-004	2.40040E-001	3.43790E-001	3.57640E+000	9	...........
	2	0.04	3.52325E-001	4.00647E-004	0.00000E+000	1.41158E-004	2.40040E-001	3.52392E-001	3.57640E+000	9	...........
	3	0.053333	3.60191E-001	4.01450E-004	0.00000E+000	1.44599E-004	2.40040E-001	3.60261E-001	3.57640E+000	9	...........
	4	0.066667	3.67650E-001	4.01283E-004	0.00000E+000	1.47532E-004	2.40040E-001	3.67720E-001	3.57640E+000	9	...........
	5	0.08	3.74719E-001	4.02198E-004	0.00000E+000	1.50712E-004	2.40040E-001	3.74788E-001	3.57640E+000	9	...........
	6	0.093333	3.81507E-001	3.99993E-004	0.00000E+000	1.52600E-004	2.40040E-001	3.81576E-001	3.57640E+000	9	...........
	7	0.106667	3.88246E-001	4.01264E-004	0.00000E+000	1.55789E-004	2.40040E-001	3.88315E-001	3.57640E+000	9	...........
	8	0.12	3.94716E-001	3.98895E-004	0.00000E+000	1.57450E-004	2.40040E-001	3.94790E-001	3.57640E+000	9	...........
	9	0.133333	4.01053E-001	4.01456E-004	0.00000E+000	1.61005E-004	2.40040E-001	4.01126E-001	3.57640E+000	9	...........
	10	0.146667	4.07223E-001	4.00141E-004	0.00000E+000	1.62946E-004	2.40040E-001	4.07298E-001	3.57640E+000	9	...........
	11	0.16	4.13324E-001	4.01861E-004	0.00000E+000	1.66099E-004	2.40040E-001	4.13403E-001	3.57640E+000	9	...........
	12	0.173333	4.19378E-001	4.01150E-004	0.00000E+000	1.68233E-004	2.40040E-001	4.19457E-001	3.57640E+000	9	...........
	13	0.186667	4.25333E-001	4.01858E-004	0.00000E+000	1.70923E-004	2.40040E-001	4.25414E-001	3.57640E+000	9	...........
	14	0.2	4.31112E-001	4.00502E-004	0.00000E+000	1.72661E-004	2.40040E-001	4.31193E-001	3.57640E+000	9	...........
	15	0.213333	4.36917E-001	3.99877E-004	0.00000E+000	1.74713E-004	2.40040E-001	4.37004E-001	3.57640E+000	9	...........
	16	0.226667	4.42608E-001	4.00801E-004	0.00000E+000	1.77398E-004	2.40040E-001	4.42704E-001	3.57640E+000	9	...........
	17	0.24	4.48291E-001	4.01630E-004	0.00000E+000	1.80047E-004	2.40040E-001	4.48381E-001	3.57640E+000	9	...........
	18	0.253333	4.54006E-001	4.01266E-004	0.00000E+000	1.82177E-004	2.40040E-001	4.54093E-001	3.57640E+000	9	...........
	19	0.266667	4.59703E-001	4.00925E-004	0.00000E+000	1.84306E-004	2.40040E-001	4.59784E-001	3.57640E+000	9	...........
	20	0.28	4.65300E-001	4.00769E-004	0.00000E+000	1.86478E-004	2.40040E-001	4.65390E-001	3.57640E+000	9	...........
	21	0.293333	4.70765E-001	4.02273E-004	0.00000E+000	1.89376E-004	2.40040E-001	4.70854E-001	3.57640E+000	9	...........
	22	0.306667	4.76250E-001	4.01321E-004	0.00000E+000	1.91129E-004	2.40040E-001	4.76341E-001	3.57640E+000	9	...........
	23	0.32	4.81752E-001	4.00431E-004	0.00000E+000	1.92909E-004	2.40040E-001	4.81848E-001	3.57640E+000	9	...........
	24	0.333333	4.87240E-001	4.02729E-004	0.00000E+000	1.96226E-004	2.40040E-001	4.87337E-001	3.57640E+000	9	...........
	25	0.346667	4.92705E-001	4.01238E-004	0.00000E+000	1.97692E-004	2.40040E-001	4.92801E-001	3.57640E+000	9	...........
	26	0.36	4.98070E-001	4.00507E-004	0.00000E+000	1.99481E-004	2.40040E-001	4.98164E-001	3.57640E+000	9	...........
	27	0.373333	5.03464E-001	4.02858E-004	0.00000E+000	2.02825E-004	2.40040E-001	5.03561E-001	3.57640E+000	9	...........
	28	0.386667	5.08796E-001	4.01262E-004	0.00000E+000	2.04160E-004	2.40040E-001	5.08899E-001	3.57640E+000	9	...........
	29	0.4	5.14111E-001	4.01712E-004	0.00000E+000	2.06525E-004	2.40040E-001	5.14217E-001	3.57640E+000	9	...........
	30	0.413333	5.19433E-001	4.01049E-004	0.00000E+000	2.08318E-004	2.40040E-001	5.19536E-001	3.57640E+000	9	...........
	31	0.426667	5.24706E-001	4.00992E-004	0.00000E+000	2.10403E-004	2.40040E-001	5.24809E-001	3.57640E+000	9	...........
	32	0.44	5.30010E-001	3.99161E-004	0.00000E+000	2.11559E-004	2.40040E-001	5.30116E-001	3.57640E+000	9	...........
	33	0.453333	5.35130E-001	3.99650E-004	0.00000E+000	2.13865E-004	2.40040E-001	5.35279E-001	3.57640E+000	9	...........
	34	0.466667	5.40322E-001	4.00345E-004	0.00000E+000	2.16315E-004	2.40040E-001	5.40535E-001	3.57640E+000	9	...........
	35	0.48	5.45443E-001	4.01869E-004	0.00000E+000	2.19197E-004	2.40040E-001	5.45642E-001	3.57640E+000	9	...........
	36	0.493333	5.50611E-001	4.00826E-004	0.00000E+000	2.20699E-004	2.40040E-001	5.50817E-001	3.57640E+000	9	...........
	37	0.506667	5.55853E-001	4.01284E-004	0.00000E+000	2.23055E-004	2.40040E-001	5.56102E-001	3.57640E+000	9	...........
	38	0.52	5.61116E-001	4.01732E-004	0.00000E+000	2.25418E-004	2.40040E-001	5.61371E-001	3.57640E+000	9	...........
	39	0.533333	5.66283E-001	4.01199E-004	0.00000E+000	2.27192E-004	2.40040E-001	5.66491E-001	3.57640E+000	9	...........
	40	0.546667	5.71395E-001	4.00954E-004	0.00000E+000	2.29103E-004	2.40040E-001	5.71603E-001	3.57640E+000	9	...........
	41	0.56	5.76488E-001	4.01454E-004	0.00000E+000	2.31434E-004	2.40040E-001	5.76715E-001	3.57640E+000	9	...........
	42	0.573333	5.81603E-001	4.02293E-004	0.00000E+000	2.33975E-004	2.40040E-001	5.81826E-001	3.57640E+000	9	...........
	43	0.586667	5.86689E-001	4.00081E-004	0.00000E+000	2.34723E-004	2.40040E-001	5.86933E-001	3.57640E+000	9	...........
	44	0.6	5.91798E-001	4.00897E-004	0.00000E+000	2.37250E-004	2.40040E-001	5.92021E-001	3.57640E+000	9	...........
	45	0.613333	5.96898E-001	3.99928E-004	0.00000E+000	2.38716E-004	2.40040E-001	5.97108E-001	3.57640E+000	9	...........
	46	0.626667	6.02031E-001	4.01062E-004	0.00000E+000	2.41452E-004	2.40040E-001	6.02266E-001	3.57642E+000	9	...........
	47	0.64	6.07093E-001	4.02682E-004	0.00000E+000	2.44465E-004	2.40040E-001	6.07352E-001	3.57970E+000	9	...........
	48	0.653333	6.12130E-001	4.01137E-004	0.00000E+000	2.45548E-004	2.40040E-001	6.12358E-001	3.57970E+000	9	...........
	49	0.666667	6.17220E-001	4.01204E-004	0.00000E+000	2.47631E-004	2.40040E-001	6.17419E-001	3.57970E+000	9	...........
	50	0.68	6.22209E-001	3.99399E-004	0.00000E+000	2.48510E-004	2.40040E-001	6.22408E-001	3.57970E+000	9	...........
	51	0.693333	6.27148E-001	4.01894E-004	0.00000E+000	2.52047E-004	2.40040E-001	6.27366E-001	3.57970E+000	9	...........
	52	0.706667	6.32199E-001	4.00617E-004	0.00000E+000	2.53269E-004	2.40040E-001	6.32432E-001	3.57970E+000	9	...........
	53	0.72	6.37218E-001	3.99536E-004	0.00000E+000	2.54592E-004	2.40040E-001	6.37451E-001	3.57970E+000	9	...........
	54	0.733333	6.42253E-001	4.00545E-004	0.00000E+000	2.57251E-004	2.40040E-001	6.42456E-001	3.57970E+000	9	...........
	55	0.746667	6.47231E-001	4.01281E-004	0.00000E+000	2.59721E-004	2.40040E-001	6.47456E-001	3.57970E+000	9	...........
	56	0.76	6.52172E-001	4.00039E-004	0.00000E+000	2.60894E-004	2.40040E-001	6.52400E-001	3.57970E+000	9	...........
	57	0.773333	6.57121E-001	4.01250E-004	0.00000E+000	2.63670E-004	2.40040E-001	6.57333E-001	3.57970E+000	9	...........
	58	0.786667	6.62032E-001	4.00842E-004	0.00000E+000	2.65370E-004	2.40040E-001	6.62295E-001	3.57970E+000	9	...........
	59	0.8	6.67023E-001	3.99930E-004	0.00000E+000	2.66763E-004	2.40040E-001	6.67269E-001	3.57970E+000	9	...........
	60	0.813333	6.71932E-001	4.01058E-004	0.00000E+000	2.69484E-004	2.40040E-001	6.72158E-001	3.57970E+000	9	...........
	61	0.826667	6.76800E-001	4.00598E-004	0.00000E+000	2.71125E-004	2.40040E-001	6.77027E-001	3.57970E+000	9	...........
	62	0.84	6.81682E-001	4.01317E-004	0.00000E+000	2.73571E-004	2.40040E-001	6.81934E-001	3.57970E+000	9	...........
	63	0.853333	6.86578E-001	4.00525E-004	0.00000E+000	2.74992E-004	2.40040E-001	6.86810E-001	3.57970E+000	9	...........
	64	0.866667	6.91386E-001	4.01272E-004	0.00000E+000	2.77434E-004	2.40040E-001	6.91633E-001	3.57970E+000	9	...........
	65	0.88	6.96328E-001	4.01373E-004	0.00000E+000	2.79487E-004	2.40040E-001	6.96510E-001	3.57970E+000	9	...........
	66	0.893333	7.01193E-001	4.00218E-004	0.00000E+000	2.80630E-004	2.40040E-001	7.01422E-001	3.57970E+000	9	...........
	67	0.906667	7.06091E-001	4.00444E-004	0.00000E+000	2.82750E-004	2.40040E-001	7.06331E-001	3.57970E+000	9	...........
	68	0.92	7.10929E-001	4.00364E-004	0.00000E+000	2.84630E-004	2.40040E-001	7.11153E-001	3.57970E+000	9	...........
	69	0.933333	7.15752E-001	3.99274E-004	0.00000E+000	2.85781E-004	2.40040E-001	7.15991E-001	3.57970E+000	9	...........
	70	0.946667	7.20628E-001	4.01345E-004	0.00000E+000	2.89220E-004	2.40040E-001	7.20819E-001	3.57970E+000	9	...........
	71	0.96	7.25348E-001	3.99110E-004	0.00000E+000	2.89494E-004	2.40040E-001	7.25591E-001	3.57970E+000	9	...........
	72	0.97333	7.30153E-001	4.01012E-004	0.00000E+000	2.92800E-004	2.40040E-001	7.30396E-001	3.57970E+000	9	...........
	73	0.98667	7.34953E-001	3.99839E-004	0.00000E+000	2.93863E-004	2.40040E-001	7.35208E-001	3.57970E+000	9	...........
	74	1	7.39727E-001	4.01207E-004	0.00000E+000	2.96783E-004	2.40040E-001	7.39993E-001	3.57970E+000	9	...........
	75	1.01333	7.44487E-001	4.00646E-004	0.00000E+000	2.98276E-004	2.40040E-001	7.44760E-001	3.57970E+000	9	...........
	76	1.02667	7.49160E-001	4.00029E-004	0.00000E+000	2.99686E-004	2.40040E-001	7.49415E-001	3.57970E+000	9	...........
	77	1.04	7.53870E-001	4.00914E-004	0.00000E+000	3.02237E-004	2.40040E-001	7.54144E-001	3.57970E+000	9	...........
	78	1.05333	7.58532E-001	3.99584E-004	0.00000E+000	3.03097E-004	2.40040E-001	7.58776E-001	3.57970E+000	9	...........
	79	1.06667	7.63180E-001	4.01424E-004	0.00000E+000	3.06359E-004	2.40040E-001	7.63430E-001	3.57970E+000	9	...........
	80	1.08	7.67849E-001	3.99732E-004	0.00000E+000	3.06934E-004	2.40040E-001	7.68109E-001	3.57970E+000	9	...........
	81	1.09333	7.72516E-001	4.00073E-004	0.00000E+000	3.09063E-004	2.40040E-001	7.72779E-001	3.57970E+000	9	...........
	82	1.10667	7.77206E-001	4.00828E-004	0.00000E+000	3.11526E-004	2.40040E-001	7.77472E-001	3.57970E+000	9	...........
	83	1.12	7.81820E-001	4.01115E-004	0.00000E+000	3.13600E-004	2.40040E-001	7.82072E-001	3.57970E+000	9	...........
	84	1.13333	7.86405E-001	4.00797E-004	0.00000E+000	3.15189E-004	2.40040E-001	7.86654E-001	3.57970E+000	9	...........
	85	1.14667	7.91049E-001	4.01342E-004	0.00000E+000	3.17481E-004	2.40040E-001	7.91325E-001	3.57970E+000	9	...........
	86	1.16	7.95659E-001	4.00386E-004	0.00000E+000	3.18570E-004	2.40040E-001	7.95896E-001	3.57970E+000	9	...........
	87	1.17333	8.00218E-001	4.00725E-004	0.00000E+000	3.20668E-004	2.40040E-001	8.00460E-001	3.57970E+000	9	...........
	88	1.18667	8.04690E-001	4.00936E-004	0.00000E+000	3.22629E-004	2.40040E-001	8.04971E-001	3.57970E+000	9	...........
	89	1.2	8.09093E-001	4.00889E-004	0.00000E+000	3.24356E-004	2.40040E-001	8.09356E-001	3.57970E+000	9	...........
	90	1.21333	8.13593E-001	4.00788E-004	0.00000E+000	3.26078E-004	2.40040E-001	8.13885E-001	3.57970E+000	9	...........
	91	1.22667	8.18089E-001	4.01753E-004	0.00000E+000	3.28670E-004	2.40040E-001	8.18356E-001	3.57970E+000	9	...........
	92	1.24	8.22474E-001	3.99152E-004	0.00000E+000	3.28292E-004	2.40040E-001	8.22788E-001	3.57970E+000	9	...........
	93	1.25333	8.26901E-001	4.00533E-004	0.00000E+000	3.31201E-004	2.40040E-001	8.27156E-001	3.57970E+000	9	...........
	94	1.26667	8.31312E-001	4.00646E-004	0.00000E+000	3.33062E-004	2.40040E-001	8.31591E-001	3.57970E+000	9	...........
	95	1.28	8.35723E-001	4.00485E-004	0.00000E+000	3.34694E-004	2.40040E-001	8.36023E-001	3.57970E+000	9	...........
	96	1.29333	8.40116E-001	4.01441E-004	0.00000E+000	3.37257E-004	2.40040E-001	8.40396E-001	3.57970E+000	9	...........
	97	1.30667	8.44461E-001	4.00430E-004	0.00000E+000	3.38148E-004	2.40040E-001	8.44743E-001	3.57970E+000	9	...........
	98	1.32	8.48750E-001	4.00662E-004	0.00000E+000	3.40062E-004	2.40040E-001	8.49038E-001	3.57970E+000	9	...........
	99	1.33333	8.53005E-001	4.01750E-004	0.00000E+000	3.42695E-004	2.40040E-001	8.53291E-001	3.57970E+000	9	...........
	100	1.34667	8.57272E-001	4.02326E-004	0.00000E+000	3.44902E-004	2.40040E-001	8.57586E-001	3.57970E+000	9	...........
	101	1.36	8.61571E-001	4.01317E-004	0.00000E+000	3.45763E-004	2.40040E-001	8.61831E-001	3.57970E+000	9	...........
	102	1.37333	8.65649E-001	4.01238E-004	0.00000E+000	3.47331E-004	2.40040E-001	8.65937E-001	3.57970E+000	9	...........
	103	1.38667	8.69812E-001	4.00836E-004	0.00000E+000	3.48651E-004	2.40040E-001	8.70096E-001	3.57970E+000	9	...........
	104	1.4	8.73983E-001	4.00470E-004	0.00000E+000	3.50004E-004	2.40040E-001	8.74248E-001	3.57970E+000	9	...........
	105	1.41333	8.78193E-001	4.00090E-004	0.00000E+000	3.51356E-004	2.40040E-001	8.78429E-001	3.57970E+000	9	...........
	106	1.42667	8.82398E-001	4.00599E-004	0.00000E+000	3.53488E-004	2.40040E-001	8.82658E-001	3.57970E+000	9	...........
	107	1.44	8.86520E-001	4.01814E-004	0.00000E+000	3.56216E-004	2.40040E-001	8.86792E-001	3.57970E+000	9	...........
	108	1.45333	8.90521E-001	4.01700E-004	0.00000E+000	3.57722E-004	2.40040E-001	8.90781E-001	3.57970E+000	9	...........
	109	1.46667	8.94520E-001	4.00430E-004	0.00000E+000	3.58193E-004	2.40040E-001	8.94824E-001	3.57970E+000	9	...........
	110	1.48	8.98529E-001	4.01286E-004	0.00000E+000	3.60567E-004	2.40040E-001	8.98814E-001	3.57970E+000	9	...........
	111	1.49333	9.02491E-001	4.01105E-004	0.00000E+000	3.61994E-004	2.40040E-001	9.02789E-001	3.57970E+000	9	...........
	112	1.50667	9.06351E-001	4.01444E-004	0.00000E+000	3.63849E-004	2.40040E-001	9.06644E-001	3.57970E+000	9	...........
	113	1.52	9.10259E-001	4.01037E-004	0.00000E+000	3.65047E-004	2.40040E-001	9.10535E-001	3.57970E+000	9	...........
	114	1.53333	9.14093E-001	4.01673E-004	0.00000E+000	3.67167E-004	2.40040E-001	9.14388E-001	3.57970E+000	9	...........
	115	1.54667	9.17936E-001	4.01590E-004	0.00000E+000	3.68634E-004	2.40040E-001	9.18230E-001	3.57970E+000	9	...........
	116	1.56	9.21806E-001	4.00337E-004	0.00000E+000	3.69033E-004	2.40040E-001	9.22068E-001	3.57970E+000	9	...........
	117	1.57333	9.25610E-001	4.00956E-004	0.00000E+000	3.71129E-004	2.40040E-001	9.25883E-001	3.57970E+000	9	...........
	118	1.58667	9.29366E-001	4.01442E-004	0.00000E+000	3.73087E-004	2.40040E-001	9.29617E-001	3.57970E+000	9	...........
	119	1.6	9.33068E-001	4.01568E-004	0.00000E+000	3.74690E-004	2.40040E-001	9.33362E-001	3.57970E+000	9	...........
	120	1.61333	9.36739E-001	4.01475E-004	0.00000E+000	3.76078E-004	2.40040E-001	9.37047E-001	3.57970E+000	9	...........
	121	1.62667	9.40389E-001	4.00075E-004	0.00000E+000	3.76226E-004	2.40040E-001	9.40691E-001	3.57968E+000	9	...........
	122	1.64	9.44055E-001	4.00648E-004	0.00000E+000	3.78234E-004	2.40040E-001	9.44373E-001	3.57650E+000	9	...........
	123	1.65333	9.47685E-001	4.01655E-004	0.00000E+000	3.80642E-004	2.40040E-001	9.47980E-001	3.57650E+000	9	...........
	124	1.66667	9.51233E-001	4.01767E-004	0.00000E+000	3.82174E-004	2.40040E-001	9.51551E-001	3.57650E+000	9	...........
	125	1.68	9.54691E-001	4.00603E-004	0.00000E+000	3.82452E-004	2.40040E-001	9.54989E-001	3.57650E+000	9	...........
	126	1.69333	9.58132E-001	4.00707E-004	0.00000E+000	3.83931E-004	2.40040E-001	9.58449E-001	3.57650E+000	9	...........
	127	1.70667	9.61642E-001	4.00302E-004	0.00000E+000	3.84947E-004	2.40040E-001	9.61958E-001	3.57650E+000	9	...........
	128	1.72	9.65044E-001	4.01262E-004	0.00000E+000	3.87235E-004	2.40040E-001	9.65349E-001	3.57650E+000	9	...........
	129	1.73333	9.68368E-001	4.01116E-004	0.00000E+000	3.88428E-004	2.40040E-001	9.68663E-001	3.57650E+000	9	...........
	130	1.74667	9.71768E-001	4.00218E-004	0.00000E+000	3.88919E-004	2.40040E-001	9.72095E-001	3.57650E+000	9	...........
	131	1.76	9.75178E-001	4.01118E-004	0.00000E+000	3.91161E-004	2.40040E-001	9.75458E-001	3.57650E+000	9	...........
	132	1.77333	9.78407E-001	4.01873E-004	0.00000E+000	3.93196E-004	2.40040E-001	9.78714E-001	3.57650E+000	9	...........
	133	1.78667	9.81693E-001	3.99747E-004	0.00000E+000	3.92429E-004	2.40040E-001	9.81979E-001	3.57650E+000	9	...........
	134	1.8	9.84977E-001	4.00754E-004	0.00000E+000	3.94734E-004	2.40040E-001	9.85292E-001	3.57650E+000	9	...........
	135	1.81333	9.88204E-001	4.01739E-004	0.00000E+000	3.97000E-004	2.40040E-001	9.88520E-001	3.57650E+000	9	...........
	136	1.82667	9.91357E-001	4.00721E-004	0.00000E+000	3.97257E-004	2.40040E-001	9.91667E-001	3.57650E+000	9	...........
	137	1.84	9.94433E-001	4.00895E-004	0.00000E+000	3.98663E-004	2.40040E-001	9.94762E-001	3.57650E+000	9	...........
	138	1.85333	9.97599E-001	4.00885E-004	0.00000E+000	3.99922E-004	2.40040E-001	9.97930E-001	3.57650E+000	9	...........
	139	1.85833	9.99723E-001	4.03864E-004	0.00000E+000	4.03752E-004	2.40040E-001	1.00009E+000	3.57650E+000	9	...........
STARTTIMEOFFSET	QUANT	338.1483	Start Time Offset (s)
