EXPLAIN
TAG	PWR800_CHARGE
TITLE	LABEL	PWR Cyclic Charge Discharge (Cell) - Charge Step	Test &Identifier
DATE	LABEL	12-7-2017	Date
TIME	LABEL	14:54:19	Time
NOTES	NOTES	3	&Notes...
	supercap test cell
	0.4mg
	6M KOH
PSTAT	PSTAT	IFC5000-01520	Potentiostat
CAPACITY	QUANT	1.00000E-003	Capacity (A-hr)
CELLTYPE	SELECTOR	1	&Cell Type
WORKINGCONNECTION	SELECTOR	0	&Working Lead
MAXCHARGETIME	VARIABLEANDUNITS	1.00000E+002	s	1.00000E+002	second(s)	Max &Charge Time
CHARGECURRENT	QUANT	4.00000E-004	&Charge Current (A) 
VOLTAGEFINISH	TWOPARAM	F	1.00000E-003	3.60000E+003	&Voltage Finish	 I (A) < 	Max Time(s)
SAMPLETIME	QUANT	1.00000E-002	Sa&mple Period (s)
CHARGESTOPAT1	MULTIPARAM	4	1.00000E+000	Charge Stop At &1	Voltage > Limit	V
CHARGESTOPAT2	MULTIPARAM	0	0.00000E+000	Charge Stop At &2	None	N/A
AESBHCSELECTOR	TOGGLE	F	Save Both Half Cells
IRCOMP	TOGGLE	F	IR &Measure
EOC	QUANT	0	Open Circuit (V)
SEQUENCER	TOGGLE	TRUE	Run as Sequence
PSTATMODEL	IQUANT	53	Pstat Model
PSTATSECTION	LABEL	IFC5000-01520	Pstat Section
PSTATSERIALNO	LABEL	01520	Pstat Serial Number
CTRLMODE	IQUANT	0	Control Mode
ELECTROMETER	IQUANT	1	RE=0 or CS=1
IESTAB	IQUANT	0	I/E Stability
CASPEED	IQUANT	4	Control Amp Speed
CONVENTION	IQUANT	1	Current Convention
ICHRANGE	IQUANT	2	Ich Range
ICHRANGEMODE	TOGGLE	T	Ich Auto Range
ICHOFFSETENABLE	TOGGLE	F	Ich Offset Enable
ICHOFFSET	QUANT	0	Ich Offset (V)
ICHFILTER	IQUANT	1	Ich Filter
VCHRANGE	IQUANT	2	Vch Range
VCHRANGEMODE	TOGGLE	T	Vch Auto Range
VCHOFFSETENABLE	TOGGLE	F	Vch Offset Enable
VCHOFFSET	QUANT	0	Vch Offset (V)
VCHFILTER	IQUANT	1	Vch Filter
IERANGELOWERLIMIT	IQUANT	9	I/E Range Lower Limit
IERANGEMODE	TOGGLE	F	I/E AutoRange
IERANGE	IQUANT	9	I/E Range
ACHSELECT	IQUANT	1	Ach Select
ACHRANGE	IQUANT	2	Ach Range
ACHOFFSETENABLE	TOGGLE	F	Ach Offset Enable
ACHOFFSET	QUANT	0	Ach Offset (V)
ACHFILTER	IQUANT	1	Ach Filter
CABLEID	IQUANT	14	Cable ID
DCCALDATE	LABEL	5-7-2017	DC Calibration Date
ACCALDATE	LABEL	12/3/2015	AC Calibration Date
FRAMEWORKVERSION	QUANT	7.01	Framework Version
INSTRUMENTVERSION	LABEL	4.00	Instrument Version
CURVE	TABLE	117
	Pt	T	Vf	Im	Vu	Pwr	Sig	Ach	Temp	IERange	Over
	#	s	V	A	V	W	V	V	deg C	#	bits
	0	0.013333	3.67207E-001	4.00973E-004	0.00000E+000	1.47240E-004	2.40040E-001	3.67294E-001	3.57670E+000	9	...........
	1	0.026667	3.78882E-001	4.00099E-004	0.00000E+000	1.51590E-004	2.40040E-001	3.78952E-001	3.57670E+000	9	...........
	2	0.04	3.88867E-001	4.01297E-004	0.00000E+000	1.56051E-004	2.40040E-001	3.88940E-001	3.57670E+000	9	...........
	3	0.053333	3.97980E-001	4.00712E-004	0.00000E+000	1.59475E-004	2.40040E-001	3.98054E-001	3.57670E+000	9	...........
	4	0.066667	4.06557E-001	4.01085E-004	0.00000E+000	1.63064E-004	2.40040E-001	4.06635E-001	3.57670E+000	9	...........
	5	0.08	4.14659E-001	4.00579E-004	0.00000E+000	1.66104E-004	2.40040E-001	4.14747E-001	3.57670E+000	9	...........
	6	0.093333	4.22467E-001	4.01212E-004	0.00000E+000	1.69499E-004	2.40040E-001	4.22552E-001	3.57670E+000	9	...........
	7	0.106667	4.30037E-001	4.00711E-004	0.00000E+000	1.72321E-004	2.40040E-001	4.30119E-001	3.57670E+000	9	...........
	8	0.12	4.37331E-001	4.00820E-004	0.00000E+000	1.75291E-004	2.40040E-001	4.37417E-001	3.57670E+000	9	...........
	9	0.133333	4.44553E-001	4.01083E-004	0.00000E+000	1.78302E-004	2.40040E-001	4.44635E-001	3.57670E+000	9	...........
	10	0.146667	4.51641E-001	4.02039E-004	0.00000E+000	1.81577E-004	2.40040E-001	4.51728E-001	3.57670E+000	9	...........
	11	0.16	4.58694E-001	4.00150E-004	0.00000E+000	1.83546E-004	2.40040E-001	4.58783E-001	3.57670E+000	9	...........
	12	0.173333	4.65593E-001	3.99897E-004	0.00000E+000	1.86189E-004	2.40040E-001	4.65679E-001	3.57670E+000	9	...........
	13	0.186667	4.72368E-001	4.00583E-004	0.00000E+000	1.89223E-004	2.40040E-001	4.72459E-001	3.57670E+000	9	...........
	14	0.2	4.79082E-001	4.00333E-004	0.00000E+000	1.91793E-004	2.40040E-001	4.79172E-001	3.57670E+000	9	...........
	15	0.213333	4.85698E-001	3.99932E-004	0.00000E+000	1.94246E-004	2.40040E-001	4.85791E-001	3.57670E+000	9	...........
	16	0.226667	4.92231E-001	4.01610E-004	0.00000E+000	1.97685E-004	2.40040E-001	4.92331E-001	3.57670E+000	9	...........
	17	0.24	4.98705E-001	3.99653E-004	0.00000E+000	1.99309E-004	2.40040E-001	4.98808E-001	3.57670E+000	9	...........
	18	0.253333	5.05111E-001	4.00327E-004	0.00000E+000	2.02210E-004	2.40040E-001	5.05209E-001	3.57670E+000	9	...........
	19	0.266667	5.11477E-001	3.99884E-004	0.00000E+000	2.04532E-004	2.40040E-001	5.11577E-001	3.57670E+000	9	...........
	20	0.28	5.17779E-001	4.00682E-004	0.00000E+000	2.07465E-004	2.40040E-001	5.17878E-001	3.57670E+000	9	...........
	21	0.293333	5.24050E-001	4.01386E-004	0.00000E+000	2.10346E-004	2.40040E-001	5.24151E-001	3.57670E+000	9	...........
	22	0.306667	5.30385E-001	4.00146E-004	0.00000E+000	2.12232E-004	2.40040E-001	5.30487E-001	3.57670E+000	9	...........
	23	0.32	5.36327E-001	4.00983E-004	0.00000E+000	2.15058E-004	2.40040E-001	5.36494E-001	3.57670E+000	9	...........
	24	0.333333	5.42531E-001	4.01321E-004	0.00000E+000	2.17729E-004	2.40040E-001	5.42707E-001	3.57670E+000	9	...........
	25	0.346667	5.48692E-001	4.01030E-004	0.00000E+000	2.20042E-004	2.40040E-001	5.48886E-001	3.57670E+000	9	...........
	26	0.36	5.54714E-001	4.01561E-004	0.00000E+000	2.22751E-004	2.40040E-001	5.54905E-001	3.57670E+000	9	...........
	27	0.373333	5.60756E-001	4.00675E-004	0.00000E+000	2.24681E-004	2.40040E-001	5.60985E-001	3.57670E+000	9	...........
	28	0.386667	5.66917E-001	4.01114E-004	0.00000E+000	2.27398E-004	2.40040E-001	5.67105E-001	3.57670E+000	9	...........
	29	0.4	5.72997E-001	4.01874E-004	0.00000E+000	2.30273E-004	2.40040E-001	5.73176E-001	3.57670E+000	9	...........
	30	0.413333	5.78957E-001	4.01466E-004	0.00000E+000	2.32431E-004	2.40040E-001	5.79188E-001	3.57670E+000	9	...........
	31	0.426667	5.84939E-001	4.00537E-004	0.00000E+000	2.34289E-004	2.40040E-001	5.85176E-001	3.57670E+000	9	...........
	32	0.44	5.90935E-001	3.99983E-004	0.00000E+000	2.36364E-004	2.40040E-001	5.91165E-001	3.57670E+000	9	...........
	33	0.453333	5.96897E-001	4.00366E-004	0.00000E+000	2.38977E-004	2.40040E-001	5.97140E-001	3.57670E+000	9	...........
	34	0.466667	6.02804E-001	4.00378E-004	0.00000E+000	2.41350E-004	2.40040E-001	6.03063E-001	3.57670E+000	9	...........
	35	0.48	6.08689E-001	4.00175E-004	0.00000E+000	2.43582E-004	2.40040E-001	6.08962E-001	3.57670E+000	9	...........
	36	0.493333	6.14582E-001	4.02340E-004	0.00000E+000	2.47271E-004	2.40040E-001	6.14824E-001	3.57670E+000	9	...........
	37	0.506667	6.20458E-001	4.01943E-004	0.00000E+000	2.49389E-004	2.40040E-001	6.20676E-001	3.57670E+000	9	...........
	38	0.52	6.26285E-001	3.99612E-004	0.00000E+000	2.50271E-004	2.40040E-001	6.26498E-001	3.57670E+000	9	...........
	39	0.533333	6.32090E-001	4.01229E-004	0.00000E+000	2.53613E-004	2.40040E-001	6.32298E-001	3.57670E+000	9	...........
	40	0.546667	6.37936E-001	4.00715E-004	0.00000E+000	2.55630E-004	2.40040E-001	6.38137E-001	3.57670E+000	9	...........
	41	0.56	6.43722E-001	4.00452E-004	0.00000E+000	2.57780E-004	2.40040E-001	6.43927E-001	3.57670E+000	9	...........
	42	0.573333	6.49440E-001	4.00698E-004	0.00000E+000	2.60229E-004	2.40040E-001	6.49652E-001	3.57670E+000	9	...........
	43	0.586667	6.55229E-001	4.01482E-004	0.00000E+000	2.63062E-004	2.40040E-001	6.55449E-001	3.57670E+000	9	...........
	44	0.6	6.60991E-001	4.01363E-004	0.00000E+000	2.65297E-004	2.40040E-001	6.61198E-001	3.57670E+000	9	...........
	45	0.613333	6.66698E-001	4.00059E-004	0.00000E+000	2.66719E-004	2.40040E-001	6.66907E-001	3.57670E+000	9	...........
	46	0.626667	6.72427E-001	4.01049E-004	0.00000E+000	2.69676E-004	2.40040E-001	6.72629E-001	3.57670E+000	9	...........
	47	0.64	6.78098E-001	4.01187E-004	0.00000E+000	2.72044E-004	2.40040E-001	6.78283E-001	3.57670E+000	9	...........
	48	0.653333	6.83673E-001	4.00035E-004	0.00000E+000	2.73493E-004	2.40040E-001	6.83887E-001	3.57670E+000	9	...........
	49	0.666667	6.89231E-001	4.00810E-004	0.00000E+000	2.76250E-004	2.40040E-001	6.89458E-001	3.57670E+000	9	...........
	50	0.68	6.94831E-001	4.01491E-004	0.00000E+000	2.78968E-004	2.40040E-001	6.95057E-001	3.57670E+000	9	...........
	51	0.693333	7.00432E-001	4.00708E-004	0.00000E+000	2.80669E-004	2.40040E-001	7.00677E-001	3.57670E+000	9	...........
	52	0.706667	7.05969E-001	4.01068E-004	0.00000E+000	2.83141E-004	2.40040E-001	7.06235E-001	3.57670E+000	9	...........
	53	0.72	7.11496E-001	4.00719E-004	0.00000E+000	2.85110E-004	2.40040E-001	7.11779E-001	3.57670E+000	9	...........
	54	0.733333	7.17045E-001	3.99951E-004	0.00000E+000	2.86783E-004	2.40040E-001	7.17305E-001	3.57670E+000	9	...........
	55	0.746667	7.22502E-001	4.00259E-004	0.00000E+000	2.89188E-004	2.40040E-001	7.22749E-001	3.57770E+000	9	...........
	56	0.76	7.28042E-001	4.00827E-004	0.00000E+000	2.91819E-004	2.40040E-001	7.28320E-001	3.57770E+000	9	...........
	57	0.773333	7.33601E-001	4.02096E-004	0.00000E+000	2.94978E-004	2.40040E-001	7.33850E-001	3.57770E+000	9	...........
	58	0.786667	7.39070E-001	4.01175E-004	0.00000E+000	2.96496E-004	2.40040E-001	7.39303E-001	3.57770E+000	9	...........
	59	0.8	7.44505E-001	4.01403E-004	0.00000E+000	2.98847E-004	2.40040E-001	7.44750E-001	3.57770E+000	9	...........
	60	0.813333	7.49877E-001	4.01219E-004	0.00000E+000	3.00865E-004	2.40040E-001	7.50091E-001	3.57770E+000	9	...........
	61	0.826667	7.55234E-001	4.00489E-004	0.00000E+000	3.02463E-004	2.40040E-001	7.55439E-001	3.57770E+000	9	...........
	62	0.84	7.60576E-001	3.99495E-004	0.00000E+000	3.03846E-004	2.40040E-001	7.60810E-001	3.57770E+000	9	...........
	63	0.853333	7.66000E-001	4.01936E-004	0.00000E+000	3.07883E-004	2.40040E-001	7.66244E-001	3.57770E+000	9	...........
	64	0.866667	7.71335E-001	3.99945E-004	0.00000E+000	3.08491E-004	2.40040E-001	7.71574E-001	3.57770E+000	9	...........
	65	0.88	7.76610E-001	4.00563E-004	0.00000E+000	3.11081E-004	2.40040E-001	7.76860E-001	3.57770E+000	9	...........
	66	0.893333	7.81788E-001	4.01029E-004	0.00000E+000	3.13520E-004	2.40040E-001	7.82035E-001	3.57770E+000	9	...........
	67	0.906667	7.86917E-001	4.00585E-004	0.00000E+000	3.15227E-004	2.40040E-001	7.87155E-001	3.57770E+000	9	...........
	68	0.92	7.92123E-001	4.00420E-004	0.00000E+000	3.17182E-004	2.40040E-001	7.92375E-001	3.57770E+000	9	...........
	69	0.933333	7.97235E-001	4.01072E-004	0.00000E+000	3.19749E-004	2.40040E-001	7.97487E-001	3.57770E+000	9	...........
	70	0.946667	8.02330E-001	4.01090E-004	0.00000E+000	3.21807E-004	2.40040E-001	8.02598E-001	3.57770E+000	9	...........
	71	0.96	8.07497E-001	4.01220E-004	0.00000E+000	3.23984E-004	2.40040E-001	8.07777E-001	3.57770E+000	9	...........
	72	0.97333	8.12497E-001	4.01194E-004	0.00000E+000	3.25969E-004	2.40040E-001	8.12783E-001	3.57770E+000	9	...........
	73	0.98667	8.17479E-001	4.01664E-004	0.00000E+000	3.28352E-004	2.40040E-001	8.17757E-001	3.57770E+000	9	...........
	74	1	8.22448E-001	4.00238E-004	0.00000E+000	3.29175E-004	2.40040E-001	8.22728E-001	3.57770E+000	9	...........
	75	1.01333	8.27395E-001	4.01538E-004	0.00000E+000	3.32230E-004	2.40040E-001	8.27660E-001	3.57770E+000	9	...........
	76	1.02667	8.32275E-001	4.01164E-004	0.00000E+000	3.33879E-004	2.40040E-001	8.32578E-001	3.57770E+000	9	...........
	77	1.04	8.37171E-001	4.00351E-004	0.00000E+000	3.35162E-004	2.40040E-001	8.37453E-001	3.57770E+000	9	...........
	78	1.05333	8.42049E-001	4.00429E-004	0.00000E+000	3.37181E-004	2.40040E-001	8.42344E-001	3.57770E+000	9	...........
	79	1.06667	8.46918E-001	4.00401E-004	0.00000E+000	3.39107E-004	2.40040E-001	8.47201E-001	3.57770E+000	9	...........
	80	1.08	8.51819E-001	4.02187E-004	0.00000E+000	3.42590E-004	2.40040E-001	8.52099E-001	3.57770E+000	9	...........
	81	1.09333	8.56621E-001	4.01522E-004	0.00000E+000	3.43952E-004	2.40040E-001	8.56913E-001	3.57770E+000	9	...........
	82	1.10667	8.61323E-001	4.01838E-004	0.00000E+000	3.46112E-004	2.40040E-001	8.61624E-001	3.57770E+000	9	...........
	83	1.12	8.66040E-001	3.99969E-004	0.00000E+000	3.46389E-004	2.40040E-001	8.66356E-001	3.57770E+000	9	...........
	84	1.13333	8.70762E-001	4.01105E-004	0.00000E+000	3.49267E-004	2.40040E-001	8.71082E-001	3.57770E+000	9	...........
	85	1.14667	8.75455E-001	4.00166E-004	0.00000E+000	3.50327E-004	2.40040E-001	8.75772E-001	3.57770E+000	9	...........
	86	1.16	8.80083E-001	4.01832E-004	0.00000E+000	3.53645E-004	2.40040E-001	8.80394E-001	3.57770E+000	9	...........
	87	1.17333	8.84738E-001	4.00671E-004	0.00000E+000	3.54489E-004	2.40040E-001	8.85036E-001	3.57770E+000	9	...........
	88	1.18667	8.89274E-001	4.00026E-004	0.00000E+000	3.55733E-004	2.40040E-001	8.89562E-001	3.57770E+000	9	...........
	89	1.2	8.93752E-001	4.01306E-004	0.00000E+000	3.58667E-004	2.40040E-001	8.94073E-001	3.57770E+000	9	...........
	90	1.21333	8.98267E-001	4.00251E-004	0.00000E+000	3.59532E-004	2.40040E-001	8.98585E-001	3.57770E+000	9	...........
	91	1.22667	9.02695E-001	4.00964E-004	0.00000E+000	3.61948E-004	2.40040E-001	9.03017E-001	3.57770E+000	9	...........
	92	1.24	9.07038E-001	4.00995E-004	0.00000E+000	3.63718E-004	2.40040E-001	9.07343E-001	3.57770E+000	9	...........
	93	1.25333	9.11411E-001	4.00796E-004	0.00000E+000	3.65290E-004	2.40040E-001	9.11723E-001	3.57770E+000	9	...........
	94	1.26667	9.15750E-001	4.00367E-004	0.00000E+000	3.66636E-004	2.40040E-001	9.16077E-001	3.57770E+000	9	...........
	95	1.28	9.20069E-001	4.00320E-004	0.00000E+000	3.68322E-004	2.40040E-001	9.20362E-001	3.57770E+000	9	...........
	96	1.29333	9.24379E-001	4.01688E-004	0.00000E+000	3.71312E-004	2.40040E-001	9.24618E-001	3.57770E+000	9	...........
	97	1.30667	9.28583E-001	4.00824E-004	0.00000E+000	3.72199E-004	2.40040E-001	9.28869E-001	3.57770E+000	9	...........
	98	1.32	9.32745E-001	4.01266E-004	0.00000E+000	3.74279E-004	2.40040E-001	9.33049E-001	3.57770E+000	9	...........
	99	1.33333	9.36883E-001	4.01471E-004	0.00000E+000	3.76131E-004	2.40040E-001	9.37188E-001	3.57770E+000	9	...........
	100	1.34667	9.41034E-001	4.01196E-004	0.00000E+000	3.77539E-004	2.40040E-001	9.41345E-001	3.57770E+000	9	...........
	101	1.36	9.45043E-001	4.00694E-004	0.00000E+000	3.78673E-004	2.40040E-001	9.45381E-001	3.57770E+000	9	...........
	102	1.37333	9.49186E-001	4.01203E-004	0.00000E+000	3.80817E-004	2.40040E-001	9.49480E-001	3.57770E+000	9	...........
	103	1.38667	9.53167E-001	4.01520E-004	0.00000E+000	3.82716E-004	2.40040E-001	9.53451E-001	3.57770E+000	9	...........
	104	1.4	9.57106E-001	4.00550E-004	0.00000E+000	3.83369E-004	2.40040E-001	9.57403E-001	3.57770E+000	9	...........
	105	1.41333	9.60990E-001	4.01055E-004	0.00000E+000	3.85410E-004	2.40040E-001	9.61324E-001	3.57770E+000	9	...........
	106	1.42667	9.64846E-001	4.00888E-004	0.00000E+000	3.86795E-004	2.40040E-001	9.65184E-001	3.57770E+000	9	...........
	107	1.44	9.68702E-001	4.00558E-004	0.00000E+000	3.88022E-004	2.40040E-001	9.69046E-001	3.57770E+000	9	...........
	108	1.45333	9.72603E-001	4.01812E-004	0.00000E+000	3.90804E-004	2.40040E-001	9.72957E-001	3.57770E+000	9	...........
	109	1.46667	9.76440E-001	4.01038E-004	0.00000E+000	3.91589E-004	2.40040E-001	9.76754E-001	3.57770E+000	9	...........
	110	1.48	9.80124E-001	4.00571E-004	0.00000E+000	3.92609E-004	2.40040E-001	9.80441E-001	3.57770E+000	9	...........
	111	1.49333	9.83819E-001	3.99879E-004	0.00000E+000	3.93409E-004	2.40040E-001	9.84151E-001	3.57770E+000	9	...........
	112	1.50667	9.87499E-001	4.01494E-004	0.00000E+000	3.96475E-004	2.40040E-001	9.87832E-001	3.57770E+000	9	...........
	113	1.52	9.91091E-001	4.00868E-004	0.00000E+000	3.97297E-004	2.40040E-001	9.91420E-001	3.57770E+000	9	...........
	114	1.53333	9.94620E-001	4.00383E-004	0.00000E+000	3.98229E-004	2.40040E-001	9.94959E-001	3.57770E+000	9	...........
	115	1.54667	9.98198E-001	4.01295E-004	0.00000E+000	4.00572E-004	2.40040E-001	9.98535E-001	3.57770E+000	9	...........
	116	1.54833	1.00020E+000	4.05220E-004	0.00000E+000	4.05299E-004	2.40040E-001	1.00057E+000	3.57770E+000	9	...........
STARTTIMEOFFSET	QUANT	1706.281	Start Time Offset (s)
