EXPLAIN
TAG	PWR800_CHARGE
TITLE	LABEL	PWR Cyclic Charge Discharge (Cell) - Charge Step	Test &Identifier
DATE	LABEL	12-7-2017	Date
TIME	LABEL	14:32:38	Time
NOTES	NOTES	3	&Notes...
	supercap test cell
	0.4mg
	6M KOH
PSTAT	PSTAT	IFC5000-01520	Potentiostat
CAPACITY	QUANT	1.00000E-003	Capacity (A-hr)
CELLTYPE	SELECTOR	1	&Cell Type
WORKINGCONNECTION	SELECTOR	0	&Working Lead
MAXCHARGETIME	VARIABLEANDUNITS	1.00000E+002	s	1.00000E+002	second(s)	Max &Charge Time
CHARGECURRENT	QUANT	4.00000E-004	&Charge Current (A) 
VOLTAGEFINISH	TWOPARAM	F	1.00000E-003	3.60000E+003	&Voltage Finish	 I (A) < 	Max Time(s)
SAMPLETIME	QUANT	1.00000E-002	Sa&mple Period (s)
CHARGESTOPAT1	MULTIPARAM	4	1.00000E+000	Charge Stop At &1	Voltage > Limit	V
CHARGESTOPAT2	MULTIPARAM	0	0.00000E+000	Charge Stop At &2	None	N/A
AESBHCSELECTOR	TOGGLE	F	Save Both Half Cells
IRCOMP	TOGGLE	F	IR &Measure
EOC	QUANT	0	Open Circuit (V)
SEQUENCER	TOGGLE	TRUE	Run as Sequence
PSTATMODEL	IQUANT	53	Pstat Model
PSTATSECTION	LABEL	IFC5000-01520	Pstat Section
PSTATSERIALNO	LABEL	01520	Pstat Serial Number
CTRLMODE	IQUANT	0	Control Mode
ELECTROMETER	IQUANT	1	RE=0 or CS=1
IESTAB	IQUANT	0	I/E Stability
CASPEED	IQUANT	4	Control Amp Speed
CONVENTION	IQUANT	1	Current Convention
ICHRANGE	IQUANT	2	Ich Range
ICHRANGEMODE	TOGGLE	T	Ich Auto Range
ICHOFFSETENABLE	TOGGLE	F	Ich Offset Enable
ICHOFFSET	QUANT	0	Ich Offset (V)
ICHFILTER	IQUANT	1	Ich Filter
VCHRANGE	IQUANT	2	Vch Range
VCHRANGEMODE	TOGGLE	T	Vch Auto Range
VCHOFFSETENABLE	TOGGLE	F	Vch Offset Enable
VCHOFFSET	QUANT	0	Vch Offset (V)
VCHFILTER	IQUANT	1	Vch Filter
IERANGELOWERLIMIT	IQUANT	9	I/E Range Lower Limit
IERANGEMODE	TOGGLE	F	I/E AutoRange
IERANGE	IQUANT	9	I/E Range
ACHSELECT	IQUANT	1	Ach Select
ACHRANGE	IQUANT	2	Ach Range
ACHOFFSETENABLE	TOGGLE	F	Ach Offset Enable
ACHOFFSET	QUANT	0	Ach Offset (V)
ACHFILTER	IQUANT	1	Ach Filter
CABLEID	IQUANT	14	Cable ID
DCCALDATE	LABEL	5-7-2017	DC Calibration Date
ACCALDATE	LABEL	12/3/2015	AC Calibration Date
FRAMEWORKVERSION	QUANT	7.01	Framework Version
INSTRUMENTVERSION	LABEL	4.00	Instrument Version
CURVE	TABLE	131
	Pt	T	Vf	Im	Vu	Pwr	Sig	Ach	Temp	IERange	Over
	#	s	V	A	V	W	V	V	deg C	#	bits
	0	0.013333	3.44937E-001	4.00757E-004	0.00000E+000	1.38236E-004	2.40040E-001	3.45016E-001	3.57660E+000	9	...........
	1	0.026667	3.55393E-001	4.01463E-004	0.00000E+000	1.42677E-004	2.40040E-001	3.55463E-001	3.57660E+000	9	...........
	2	0.04	3.64377E-001	4.01623E-004	0.00000E+000	1.46342E-004	2.40040E-001	3.64453E-001	3.57660E+000	9	...........
	3	0.053333	3.72636E-001	4.01465E-004	0.00000E+000	1.49600E-004	2.40040E-001	3.72706E-001	3.57660E+000	9	...........
	4	0.066667	3.80289E-001	4.00683E-004	0.00000E+000	1.52375E-004	2.40040E-001	3.80363E-001	3.57660E+000	9	...........
	5	0.08	3.87723E-001	4.01423E-004	0.00000E+000	1.55641E-004	2.40040E-001	3.87800E-001	3.57660E+000	9	...........
	6	0.093333	3.94864E-001	3.99790E-004	0.00000E+000	1.57863E-004	2.40040E-001	3.94940E-001	3.57660E+000	9	...........
	7	0.106667	4.01789E-001	4.01353E-004	0.00000E+000	1.61260E-004	2.40040E-001	4.01867E-001	3.57660E+000	9	...........
	8	0.12	4.08469E-001	4.00925E-004	0.00000E+000	1.63766E-004	2.40040E-001	4.08551E-001	3.57660E+000	9	...........
	9	0.133333	4.14912E-001	4.00306E-004	0.00000E+000	1.66092E-004	2.40040E-001	4.14999E-001	3.57660E+000	9	...........
	10	0.146667	4.21371E-001	4.01722E-004	0.00000E+000	1.69274E-004	2.40040E-001	4.21456E-001	3.57660E+000	9	...........
	11	0.16	4.27830E-001	4.00663E-004	0.00000E+000	1.71415E-004	2.40040E-001	4.27922E-001	3.57660E+000	9	...........
	12	0.173333	4.34111E-001	4.01112E-004	0.00000E+000	1.74127E-004	2.40040E-001	4.34203E-001	3.57660E+000	9	...........
	13	0.186667	4.40288E-001	4.01343E-004	0.00000E+000	1.76707E-004	2.40040E-001	4.40380E-001	3.57660E+000	9	...........
	14	0.2	4.46454E-001	4.01450E-004	0.00000E+000	1.79229E-004	2.40040E-001	4.46546E-001	3.57660E+000	9	...........
	15	0.213333	4.52535E-001	3.99669E-004	0.00000E+000	1.80864E-004	2.40040E-001	4.52626E-001	3.57660E+000	9	...........
	16	0.226667	4.58521E-001	4.00626E-004	0.00000E+000	1.83696E-004	2.40040E-001	4.58615E-001	3.57660E+000	9	...........
	17	0.24	4.64520E-001	4.01104E-004	0.00000E+000	1.86321E-004	2.40040E-001	4.64611E-001	3.57660E+000	9	...........
	18	0.253333	4.70451E-001	4.00749E-004	0.00000E+000	1.88533E-004	2.40040E-001	4.70544E-001	3.57660E+000	9	...........
	19	0.266667	4.76399E-001	4.01384E-004	0.00000E+000	1.91219E-004	2.40040E-001	4.76498E-001	3.57660E+000	9	...........
	20	0.28	4.82249E-001	4.00975E-004	0.00000E+000	1.93370E-004	2.40040E-001	4.82346E-001	3.57660E+000	9	...........
	21	0.293333	4.88076E-001	4.01633E-004	0.00000E+000	1.96027E-004	2.40040E-001	4.88179E-001	3.57660E+000	9	...........
	22	0.306667	4.93816E-001	4.00694E-004	0.00000E+000	1.97869E-004	2.40040E-001	4.93911E-001	3.57660E+000	9	...........
	23	0.32	4.99579E-001	4.00281E-004	0.00000E+000	1.99972E-004	2.40040E-001	4.99685E-001	3.57660E+000	9	...........
	24	0.333333	5.05251E-001	4.01531E-004	0.00000E+000	2.02874E-004	2.40040E-001	5.05351E-001	3.57660E+000	9	...........
	25	0.346667	5.10868E-001	4.00701E-004	0.00000E+000	2.04705E-004	2.40040E-001	5.10972E-001	3.57660E+000	9	...........
	26	0.36	5.16507E-001	4.01010E-004	0.00000E+000	2.07124E-004	2.40040E-001	5.16608E-001	3.57660E+000	9	...........
	27	0.373333	5.22166E-001	4.01693E-004	0.00000E+000	2.09750E-004	2.40040E-001	5.22267E-001	3.57660E+000	9	...........
	28	0.386667	5.27781E-001	4.01025E-004	0.00000E+000	2.11653E-004	2.40040E-001	5.27887E-001	3.57660E+000	9	...........
	29	0.4	5.33264E-001	4.01276E-004	0.00000E+000	2.13986E-004	2.40040E-001	5.33377E-001	3.57660E+000	9	...........
	30	0.413333	5.38722E-001	4.00727E-004	0.00000E+000	2.15881E-004	2.40040E-001	5.38910E-001	3.57660E+000	9	...........
	31	0.426667	5.44266E-001	4.02548E-004	0.00000E+000	2.19094E-004	2.40040E-001	5.44475E-001	3.57660E+000	9	...........
	32	0.44	5.49763E-001	3.99817E-004	0.00000E+000	2.19805E-004	2.40040E-001	5.49951E-001	3.57660E+000	9	...........
	33	0.453333	5.55228E-001	4.00996E-004	0.00000E+000	2.22644E-004	2.40040E-001	5.55457E-001	3.57660E+000	9	...........
	34	0.466667	5.60657E-001	4.00263E-004	0.00000E+000	2.24410E-004	2.40040E-001	5.60891E-001	3.57660E+000	9	...........
	35	0.48	5.66107E-001	4.01510E-004	0.00000E+000	2.27297E-004	2.40040E-001	5.66319E-001	3.57660E+000	9	...........
	36	0.493333	5.71556E-001	4.01756E-004	0.00000E+000	2.29626E-004	2.40040E-001	5.71753E-001	3.57660E+000	9	...........
	37	0.506667	5.76930E-001	4.01102E-004	0.00000E+000	2.31408E-004	2.40040E-001	5.77132E-001	3.57660E+000	9	...........
	38	0.52	5.82364E-001	4.01361E-004	0.00000E+000	2.33738E-004	2.40040E-001	5.82565E-001	3.57660E+000	9	...........
	39	0.533333	5.87800E-001	4.02512E-004	0.00000E+000	2.36597E-004	2.40040E-001	5.88016E-001	3.57660E+000	9	...........
	40	0.546667	5.93144E-001	4.01100E-004	0.00000E+000	2.37910E-004	2.40040E-001	5.93343E-001	3.57660E+000	9	...........
	41	0.56	5.98480E-001	4.01648E-004	0.00000E+000	2.40379E-004	2.40040E-001	5.98671E-001	3.57660E+000	9	...........
	42	0.573333	6.03821E-001	4.01490E-004	0.00000E+000	2.42428E-004	2.40040E-001	6.04041E-001	3.57660E+000	9	...........
	43	0.586667	6.09130E-001	3.99175E-004	0.00000E+000	2.43149E-004	2.40040E-001	6.09332E-001	3.57808E+000	9	...........
	44	0.6	6.14534E-001	4.00252E-004	0.00000E+000	2.45968E-004	2.40040E-001	6.14709E-001	3.57870E+000	9	...........
	45	0.613333	6.19808E-001	4.00815E-004	0.00000E+000	2.48428E-004	2.40040E-001	6.19958E-001	3.57870E+000	9	...........
	46	0.626667	6.25099E-001	4.02036E-004	0.00000E+000	2.51312E-004	2.40040E-001	6.25262E-001	3.57870E+000	9	...........
	47	0.64	6.30404E-001	4.01269E-004	0.00000E+000	2.52962E-004	2.40040E-001	6.30581E-001	3.57870E+000	9	...........
	48	0.653333	6.35636E-001	4.01481E-004	0.00000E+000	2.55196E-004	2.40040E-001	6.35831E-001	3.57870E+000	9	...........
	49	0.666667	6.40920E-001	4.00182E-004	0.00000E+000	2.56485E-004	2.40040E-001	6.41121E-001	3.57870E+000	9	...........
	50	0.68	6.46212E-001	4.00691E-004	0.00000E+000	2.58931E-004	2.40040E-001	6.46441E-001	3.57870E+000	9	...........
	51	0.693333	6.51455E-001	3.99861E-004	0.00000E+000	2.60492E-004	2.40040E-001	6.51681E-001	3.57870E+000	9	...........
	52	0.706667	6.56630E-001	4.02322E-004	0.00000E+000	2.64177E-004	2.40040E-001	6.56864E-001	3.57870E+000	9	...........
	53	0.72	6.61854E-001	4.01908E-004	0.00000E+000	2.66004E-004	2.40040E-001	6.62099E-001	3.57870E+000	9	...........
	54	0.733333	6.67152E-001	4.01993E-004	0.00000E+000	2.68190E-004	2.40040E-001	6.67387E-001	3.57870E+000	9	...........
	55	0.746667	6.72302E-001	4.02269E-004	0.00000E+000	2.70447E-004	2.40040E-001	6.72539E-001	3.57870E+000	9	...........
	56	0.76	6.77497E-001	4.01323E-004	0.00000E+000	2.71895E-004	2.40040E-001	6.77773E-001	3.57870E+000	9	...........
	57	0.773333	6.82709E-001	4.01569E-004	0.00000E+000	2.74155E-004	2.40040E-001	6.82960E-001	3.57870E+000	9	...........
	58	0.786667	6.87814E-001	4.00366E-004	0.00000E+000	2.75377E-004	2.40040E-001	6.88069E-001	3.57870E+000	9	...........
	59	0.8	6.92978E-001	4.02222E-004	0.00000E+000	2.78731E-004	2.40040E-001	6.93238E-001	3.57870E+000	9	...........
	60	0.813333	6.98124E-001	4.01377E-004	0.00000E+000	2.80211E-004	2.40040E-001	6.98350E-001	3.57870E+000	9	...........
	61	0.826667	7.03220E-001	4.01582E-004	0.00000E+000	2.82400E-004	2.40040E-001	7.03454E-001	3.57870E+000	9	...........
	62	0.84	7.08273E-001	4.01854E-004	0.00000E+000	2.84622E-004	2.40040E-001	7.08534E-001	3.57870E+000	9	...........
	63	0.853333	7.13355E-001	4.01235E-004	0.00000E+000	2.86223E-004	2.40040E-001	7.13591E-001	3.57870E+000	9	...........
	64	0.866667	7.18497E-001	4.00152E-004	0.00000E+000	2.87508E-004	2.40040E-001	7.18720E-001	3.57870E+000	9	...........
	65	0.88	7.23619E-001	4.00779E-004	0.00000E+000	2.90011E-004	2.40040E-001	7.23834E-001	3.57870E+000	9	...........
	66	0.893333	7.28658E-001	4.00899E-004	0.00000E+000	2.92118E-004	2.40040E-001	7.28874E-001	3.57870E+000	9	...........
	67	0.906667	7.33678E-001	4.00568E-004	0.00000E+000	2.93888E-004	2.40040E-001	7.33943E-001	3.57870E+000	9	...........
	68	0.92	7.38664E-001	4.01028E-004	0.00000E+000	2.96225E-004	2.40040E-001	7.38923E-001	3.57870E+000	9	...........
	69	0.933333	7.43666E-001	4.01432E-004	0.00000E+000	2.98531E-004	2.40040E-001	7.43909E-001	3.57870E+000	9	...........
	70	0.946667	7.48632E-001	4.00878E-004	0.00000E+000	3.00110E-004	2.40040E-001	7.48847E-001	3.57870E+000	9	...........
	71	0.96	7.53605E-001	4.00089E-004	0.00000E+000	3.01509E-004	2.40040E-001	7.53811E-001	3.57870E+000	9	...........
	72	0.97333	7.58567E-001	4.00280E-004	0.00000E+000	3.03639E-004	2.40040E-001	7.58729E-001	3.57870E+000	9	...........
	73	0.98667	7.63479E-001	4.00480E-004	0.00000E+000	3.05758E-004	2.40040E-001	7.63660E-001	3.57870E+000	9	...........
	74	1	7.68409E-001	4.00164E-004	0.00000E+000	3.07489E-004	2.40040E-001	7.68632E-001	3.57870E+000	9	...........
	75	1.01333	7.73309E-001	4.00884E-004	0.00000E+000	3.10007E-004	2.40040E-001	7.73522E-001	3.57870E+000	9	...........
	76	1.02667	7.78120E-001	4.00837E-004	0.00000E+000	3.11899E-004	2.40040E-001	7.78359E-001	3.57870E+000	9	...........
	77	1.04	7.83042E-001	4.02565E-004	0.00000E+000	3.15225E-004	2.40040E-001	7.83294E-001	3.57870E+000	9	...........
	78	1.05333	7.87849E-001	4.00056E-004	0.00000E+000	3.15184E-004	2.40040E-001	7.88097E-001	3.57870E+000	9	...........
	79	1.06667	7.92631E-001	4.00708E-004	0.00000E+000	3.17614E-004	2.40040E-001	7.92906E-001	3.57870E+000	9	...........
	80	1.08	7.97370E-001	4.01556E-004	0.00000E+000	3.20188E-004	2.40040E-001	7.97603E-001	3.57870E+000	9	...........
	81	1.09333	8.02073E-001	4.02218E-004	0.00000E+000	3.22608E-004	2.40040E-001	8.02326E-001	3.57870E+000	9	...........
	82	1.10667	8.06838E-001	4.02142E-004	0.00000E+000	3.24464E-004	2.40040E-001	8.07111E-001	3.57870E+000	9	...........
	83	1.12	8.11519E-001	4.01335E-004	0.00000E+000	3.25691E-004	2.40040E-001	8.11812E-001	3.57870E+000	9	...........
	84	1.13333	8.16233E-001	4.00986E-004	0.00000E+000	3.27298E-004	2.40040E-001	8.16535E-001	3.57870E+000	9	...........
	85	1.14667	8.20919E-001	4.01432E-004	0.00000E+000	3.29543E-004	2.40040E-001	8.21175E-001	3.57870E+000	9	...........
	86	1.16	8.25473E-001	4.00795E-004	0.00000E+000	3.30845E-004	2.40040E-001	8.25778E-001	3.57870E+000	9	...........
	87	1.17333	8.30092E-001	4.00680E-004	0.00000E+000	3.32602E-004	2.40040E-001	8.30375E-001	3.57870E+000	9	...........
	88	1.18667	8.34707E-001	4.01047E-004	0.00000E+000	3.34757E-004	2.40040E-001	8.34995E-001	3.57870E+000	9	...........
	89	1.2	8.39294E-001	4.00239E-004	0.00000E+000	3.35918E-004	2.40040E-001	8.39591E-001	3.57870E+000	9	...........
	90	1.21333	8.43858E-001	4.01527E-004	0.00000E+000	3.38832E-004	2.40040E-001	8.44169E-001	3.57870E+000	9	...........
	91	1.22667	8.48332E-001	3.99748E-004	0.00000E+000	3.39119E-004	2.40040E-001	8.48631E-001	3.57870E+000	9	...........
	92	1.24	8.52797E-001	4.01832E-004	0.00000E+000	3.42681E-004	2.40040E-001	8.53113E-001	3.57870E+000	9	...........
	93	1.25333	8.57242E-001	4.01336E-004	0.00000E+000	3.44042E-004	2.40040E-001	8.57557E-001	3.57870E+000	9	...........
	94	1.26667	8.61721E-001	4.00117E-004	0.00000E+000	3.44789E-004	2.40040E-001	8.62023E-001	3.57870E+000	9	...........
	95	1.28	8.66138E-001	4.00555E-004	0.00000E+000	3.46936E-004	2.40040E-001	8.66449E-001	3.57870E+000	9	...........
	96	1.29333	8.70566E-001	4.00968E-004	0.00000E+000	3.49069E-004	2.40040E-001	8.70892E-001	3.57870E+000	9	...........
	97	1.30667	8.74969E-001	4.01619E-004	0.00000E+000	3.51404E-004	2.40040E-001	8.75276E-001	3.57870E+000	9	...........
	98	1.32	8.79235E-001	4.00913E-004	0.00000E+000	3.52497E-004	2.40040E-001	8.79568E-001	3.57870E+000	9	...........
	99	1.33333	8.83478E-001	4.00733E-004	0.00000E+000	3.54039E-004	2.40040E-001	8.83780E-001	3.57870E+000	9	...........
	100	1.34667	8.87704E-001	4.00102E-004	0.00000E+000	3.55172E-004	2.40040E-001	8.87999E-001	3.57870E+000	9	...........
	101	1.36	8.91827E-001	4.01352E-004	0.00000E+000	3.57937E-004	2.40040E-001	8.92109E-001	3.57870E+000	9	...........
	102	1.37333	8.96004E-001	4.00858E-004	0.00000E+000	3.59170E-004	2.40040E-001	8.96319E-001	3.57870E+000	9	...........
	103	1.38667	9.00164E-001	3.99966E-004	0.00000E+000	3.60035E-004	2.40040E-001	9.00457E-001	3.57870E+000	9	...........
	104	1.4	9.04263E-001	4.01879E-004	0.00000E+000	3.63404E-004	2.40040E-001	9.04577E-001	3.57870E+000	9	...........
	105	1.41333	9.08292E-001	4.01396E-004	0.00000E+000	3.64585E-004	2.40040E-001	9.08593E-001	3.57870E+000	9	...........
	106	1.42667	9.12370E-001	4.01489E-004	0.00000E+000	3.66306E-004	2.40040E-001	9.12669E-001	3.57870E+000	9	...........
	107	1.44	9.16450E-001	4.01949E-004	0.00000E+000	3.68367E-004	2.40040E-001	9.16739E-001	3.57870E+000	9	...........
	108	1.45333	9.20459E-001	4.00320E-004	0.00000E+000	3.68478E-004	2.40040E-001	9.20737E-001	3.57870E+000	9	...........
	109	1.46667	9.24424E-001	4.00829E-004	0.00000E+000	3.70536E-004	2.40040E-001	9.24685E-001	3.57870E+000	9	...........
	110	1.48	9.28340E-001	4.01016E-004	0.00000E+000	3.72279E-004	2.40040E-001	9.28612E-001	3.57870E+000	9	...........
	111	1.49333	9.32207E-001	3.99668E-004	0.00000E+000	3.72573E-004	2.40040E-001	9.32489E-001	3.57870E+000	9	...........
	112	1.50667	9.36091E-001	4.00948E-004	0.00000E+000	3.75324E-004	2.40040E-001	9.36382E-001	3.57870E+000	9	...........
	113	1.52	9.39978E-001	4.01399E-004	0.00000E+000	3.77306E-004	2.40040E-001	9.40264E-001	3.57870E+000	9	...........
	114	1.53333	9.43774E-001	4.01090E-004	0.00000E+000	3.78538E-004	2.40040E-001	9.44085E-001	3.57870E+000	9	...........
	115	1.54667	9.47567E-001	4.01458E-004	0.00000E+000	3.80408E-004	2.40040E-001	9.47880E-001	3.57870E+000	9	...........
	116	1.56	9.51313E-001	4.01455E-004	0.00000E+000	3.81909E-004	2.40040E-001	9.51610E-001	3.57870E+000	9	...........
	117	1.57333	9.54929E-001	4.00718E-004	0.00000E+000	3.82657E-004	2.40040E-001	9.55239E-001	3.57870E+000	9	...........
	118	1.58667	9.58614E-001	4.00847E-004	0.00000E+000	3.84258E-004	2.40040E-001	9.58919E-001	3.57693E+000	9	...........
	119	1.6	9.62261E-001	4.00544E-004	0.00000E+000	3.85428E-004	2.40040E-001	9.62606E-001	3.57620E+000	9	...........
	120	1.61333	9.65955E-001	4.00756E-004	0.00000E+000	3.87113E-004	2.40040E-001	9.66293E-001	3.57620E+000	9	...........
	121	1.62667	9.69551E-001	4.00750E-004	0.00000E+000	3.88548E-004	2.40040E-001	9.69909E-001	3.57620E+000	9	...........
	122	1.64	9.73119E-001	4.00108E-004	0.00000E+000	3.89353E-004	2.40040E-001	9.73459E-001	3.57620E+000	9	...........
	123	1.65333	9.76619E-001	3.99913E-004	0.00000E+000	3.90562E-004	2.40040E-001	9.76946E-001	3.57620E+000	9	...........
	124	1.66667	9.80082E-001	4.02171E-004	0.00000E+000	3.94161E-004	2.40040E-001	9.80404E-001	3.57620E+000	9	...........
	125	1.68	9.83479E-001	4.01139E-004	0.00000E+000	3.94511E-004	2.40040E-001	9.83835E-001	3.57620E+000	9	...........
	126	1.69333	9.86927E-001	4.01132E-004	0.00000E+000	3.95888E-004	2.40040E-001	9.87289E-001	3.57620E+000	9	...........
	127	1.70667	9.90269E-001	3.99325E-004	0.00000E+000	3.95439E-004	2.40040E-001	9.90637E-001	3.57620E+000	9	...........
	128	1.72	9.93586E-001	4.01763E-004	0.00000E+000	3.99186E-004	2.40040E-001	9.93949E-001	3.57620E+000	9	...........
	129	1.73333	9.96865E-001	4.01297E-004	0.00000E+000	4.00039E-004	2.40040E-001	9.97244E-001	3.57620E+000	9	...........
	130	1.74167	9.99534E-001	4.03308E-004	0.00000E+000	4.03120E-004	2.40040E-001	9.99877E-001	3.57620E+000	9	...........
STARTTIMEOFFSET	QUANT	676.0602	Start Time Offset (s)
