EXPLAIN
TAG	PWR800_CHARGE
TITLE	LABEL	PWR Cyclic Charge Discharge (Cell) - Charge Step	Test &Identifier
DATE	LABEL	12-7-2017	Date
TIME	LABEL	15:17:34	Time
NOTES	NOTES	3	&Notes...
	supercap test cell
	0.4mg
	6M KOH
PSTAT	PSTAT	IFC5000-01520	Potentiostat
CAPACITY	QUANT	1.00000E-003	Capacity (A-hr)
CELLTYPE	SELECTOR	1	&Cell Type
WORKINGCONNECTION	SELECTOR	0	&Working Lead
MAXCHARGETIME	VARIABLEANDUNITS	1.00000E+002	s	1.00000E+002	second(s)	Max &Charge Time
CHARGECURRENT	QUANT	4.00000E-004	&Charge Current (A) 
VOLTAGEFINISH	TWOPARAM	F	1.00000E-003	3.60000E+003	&Voltage Finish	 I (A) < 	Max Time(s)
SAMPLETIME	QUANT	1.00000E-002	Sa&mple Period (s)
CHARGESTOPAT1	MULTIPARAM	4	1.00000E+000	Charge Stop At &1	Voltage > Limit	V
CHARGESTOPAT2	MULTIPARAM	0	0.00000E+000	Charge Stop At &2	None	N/A
AESBHCSELECTOR	TOGGLE	F	Save Both Half Cells
IRCOMP	TOGGLE	F	IR &Measure
EOC	QUANT	0	Open Circuit (V)
SEQUENCER	TOGGLE	TRUE	Run as Sequence
PSTATMODEL	IQUANT	53	Pstat Model
PSTATSECTION	LABEL	IFC5000-01520	Pstat Section
PSTATSERIALNO	LABEL	01520	Pstat Serial Number
CTRLMODE	IQUANT	0	Control Mode
ELECTROMETER	IQUANT	1	RE=0 or CS=1
IESTAB	IQUANT	0	I/E Stability
CASPEED	IQUANT	4	Control Amp Speed
CONVENTION	IQUANT	1	Current Convention
ICHRANGE	IQUANT	2	Ich Range
ICHRANGEMODE	TOGGLE	T	Ich Auto Range
ICHOFFSETENABLE	TOGGLE	F	Ich Offset Enable
ICHOFFSET	QUANT	0	Ich Offset (V)
ICHFILTER	IQUANT	1	Ich Filter
VCHRANGE	IQUANT	2	Vch Range
VCHRANGEMODE	TOGGLE	T	Vch Auto Range
VCHOFFSETENABLE	TOGGLE	F	Vch Offset Enable
VCHOFFSET	QUANT	0	Vch Offset (V)
VCHFILTER	IQUANT	1	Vch Filter
IERANGELOWERLIMIT	IQUANT	9	I/E Range Lower Limit
IERANGEMODE	TOGGLE	F	I/E AutoRange
IERANGE	IQUANT	9	I/E Range
ACHSELECT	IQUANT	1	Ach Select
ACHRANGE	IQUANT	2	Ach Range
ACHOFFSETENABLE	TOGGLE	F	Ach Offset Enable
ACHOFFSET	QUANT	0	Ach Offset (V)
ACHFILTER	IQUANT	1	Ach Filter
CABLEID	IQUANT	14	Cable ID
DCCALDATE	LABEL	5-7-2017	DC Calibration Date
ACCALDATE	LABEL	12/3/2015	AC Calibration Date
FRAMEWORKVERSION	QUANT	7.01	Framework Version
INSTRUMENTVERSION	LABEL	4.00	Instrument Version
CURVE	TABLE	107
	Pt	T	Vf	Im	Vu	Pwr	Sig	Ach	Temp	IERange	Over
	#	s	V	A	V	W	V	V	deg C	#	bits
	0	0.013333	3.87871E-001	4.01697E-004	0.00000E+000	1.55807E-004	2.40040E-001	3.87964E-001	3.57780E+000	9	...........
	1	0.026667	4.00591E-001	4.01079E-004	0.00000E+000	1.60669E-004	2.40040E-001	4.00672E-001	3.57780E+000	9	...........
	2	0.04	4.11472E-001	4.01487E-004	0.00000E+000	1.65200E-004	2.40040E-001	4.11559E-001	3.57780E+000	9	...........
	3	0.053333	4.21335E-001	4.01502E-004	0.00000E+000	1.69167E-004	2.40040E-001	4.21427E-001	3.57780E+000	9	...........
	4	0.066667	4.30489E-001	4.00832E-004	0.00000E+000	1.72554E-004	2.40040E-001	4.30580E-001	3.57780E+000	9	...........
	5	0.08	4.39132E-001	4.00821E-004	0.00000E+000	1.76013E-004	2.40040E-001	4.39218E-001	3.57780E+000	9	...........
	6	0.093333	4.47464E-001	3.99849E-004	0.00000E+000	1.78918E-004	2.40040E-001	4.47563E-001	3.57780E+000	9	...........
	7	0.106667	4.55561E-001	4.00698E-004	0.00000E+000	1.82543E-004	2.40040E-001	4.55652E-001	3.57730E+000	9	...........
	8	0.12	4.63361E-001	4.00598E-004	0.00000E+000	1.85622E-004	2.40040E-001	4.63455E-001	3.57730E+000	9	...........
	9	0.133333	4.71021E-001	4.01285E-004	0.00000E+000	1.89013E-004	2.40040E-001	4.71120E-001	3.57730E+000	9	...........
	10	0.146667	4.78511E-001	4.01050E-004	0.00000E+000	1.91907E-004	2.40040E-001	4.78606E-001	3.57730E+000	9	...........
	11	0.16	4.85895E-001	4.00756E-004	0.00000E+000	1.94726E-004	2.40040E-001	4.85984E-001	3.57730E+000	9	...........
	12	0.173333	4.93149E-001	4.01000E-004	0.00000E+000	1.97753E-004	2.40040E-001	4.93247E-001	3.57730E+000	9	...........
	13	0.186667	5.00269E-001	4.01396E-004	0.00000E+000	2.00806E-004	2.40040E-001	5.00368E-001	3.57730E+000	9	...........
	14	0.2	5.07361E-001	4.00530E-004	0.00000E+000	2.03214E-004	2.40040E-001	5.07465E-001	3.57730E+000	9	...........
	15	0.213333	5.14347E-001	4.00429E-004	0.00000E+000	2.05960E-004	2.40040E-001	5.14454E-001	3.57730E+000	9	...........
	16	0.226667	5.21344E-001	4.02057E-004	0.00000E+000	2.09610E-004	2.40040E-001	5.21454E-001	3.57730E+000	9	...........
	17	0.24	5.28221E-001	4.01169E-004	0.00000E+000	2.11906E-004	2.40040E-001	5.28330E-001	3.57730E+000	9	...........
	18	0.253333	5.34801E-001	4.01591E-004	0.00000E+000	2.14771E-004	2.40040E-001	5.34964E-001	3.57730E+000	9	...........
	19	0.266667	5.41474E-001	4.01777E-004	0.00000E+000	2.17552E-004	2.40040E-001	5.41702E-001	3.57730E+000	9	...........
	20	0.28	5.48219E-001	4.00134E-004	0.00000E+000	2.19361E-004	2.40040E-001	5.48442E-001	3.57730E+000	9	...........
	21	0.293333	5.54808E-001	4.00389E-004	0.00000E+000	2.22139E-004	2.40040E-001	5.55050E-001	3.57730E+000	9	...........
	22	0.306667	5.61341E-001	4.00636E-004	0.00000E+000	2.24893E-004	2.40040E-001	5.61617E-001	3.57730E+000	9	...........
	23	0.32	5.67938E-001	4.01716E-004	0.00000E+000	2.28150E-004	2.40040E-001	5.68145E-001	3.57730E+000	9	...........
	24	0.333333	5.74426E-001	4.01919E-004	0.00000E+000	2.30873E-004	2.40040E-001	5.74668E-001	3.57730E+000	9	...........
	25	0.346667	5.80985E-001	4.01045E-004	0.00000E+000	2.33001E-004	2.40040E-001	5.81257E-001	3.57730E+000	9	...........
	26	0.36	5.87407E-001	4.00363E-004	0.00000E+000	2.35176E-004	2.40040E-001	5.87670E-001	3.57730E+000	9	...........
	27	0.373333	5.93843E-001	4.00801E-004	0.00000E+000	2.38013E-004	2.40040E-001	5.94092E-001	3.57730E+000	9	...........
	28	0.386667	6.00246E-001	4.00546E-004	0.00000E+000	2.40426E-004	2.40040E-001	6.00511E-001	3.57730E+000	9	...........
	29	0.4	6.06572E-001	4.00648E-004	0.00000E+000	2.43022E-004	2.40040E-001	6.06861E-001	3.57730E+000	9	...........
	30	0.413333	6.12854E-001	4.01091E-004	0.00000E+000	2.45810E-004	2.40040E-001	6.13133E-001	3.57730E+000	9	...........
	31	0.426667	6.19149E-001	4.00512E-004	0.00000E+000	2.47976E-004	2.40040E-001	6.19393E-001	3.57730E+000	9	...........
	32	0.44	6.25418E-001	4.02312E-004	0.00000E+000	2.51613E-004	2.40040E-001	6.25631E-001	3.57730E+000	9	...........
	33	0.453333	6.31647E-001	4.01379E-004	0.00000E+000	2.53530E-004	2.40040E-001	6.31861E-001	3.57730E+000	9	...........
	34	0.466667	6.37820E-001	4.00910E-004	0.00000E+000	2.55708E-004	2.40040E-001	6.38053E-001	3.57730E+000	9	...........
	35	0.48	6.44048E-001	4.01335E-004	0.00000E+000	2.58479E-004	2.40040E-001	6.44276E-001	3.57730E+000	9	...........
	36	0.493333	6.50217E-001	4.00920E-004	0.00000E+000	2.60685E-004	2.40040E-001	6.50437E-001	3.57730E+000	9	...........
	37	0.506667	6.56335E-001	4.01100E-004	0.00000E+000	2.63256E-004	2.40040E-001	6.56567E-001	3.57730E+000	9	...........
	38	0.52	6.62462E-001	4.00231E-004	0.00000E+000	2.65138E-004	2.40040E-001	6.62720E-001	3.57730E+000	9	...........
	39	0.533333	6.68607E-001	4.02614E-004	0.00000E+000	2.69191E-004	2.40040E-001	6.68844E-001	3.57730E+000	9	...........
	40	0.546667	6.74670E-001	4.01069E-004	0.00000E+000	2.70589E-004	2.40040E-001	6.74922E-001	3.57730E+000	9	...........
	41	0.56	6.80702E-001	4.00790E-004	0.00000E+000	2.72818E-004	2.40040E-001	6.80912E-001	3.57730E+000	9	...........
	42	0.573333	6.86648E-001	4.00275E-004	0.00000E+000	2.74848E-004	2.40040E-001	6.86860E-001	3.57730E+000	9	...........
	43	0.586667	6.92626E-001	4.00570E-004	0.00000E+000	2.77445E-004	2.40040E-001	6.92855E-001	3.57730E+000	9	...........
	44	0.6	6.98607E-001	4.01043E-004	0.00000E+000	2.80171E-004	2.40040E-001	6.98843E-001	3.57730E+000	9	...........
	45	0.613333	7.04536E-001	4.01498E-004	0.00000E+000	2.82870E-004	2.40040E-001	7.04753E-001	3.57730E+000	9	...........
	46	0.626667	7.10450E-001	4.01272E-004	0.00000E+000	2.85084E-004	2.40040E-001	7.10700E-001	3.57730E+000	9	...........
	47	0.64	7.16369E-001	4.01754E-004	0.00000E+000	2.87804E-004	2.40040E-001	7.16624E-001	3.57730E+000	9	...........
	48	0.653333	7.22228E-001	4.00646E-004	0.00000E+000	2.89358E-004	2.40040E-001	7.22461E-001	3.57730E+000	9	...........
	49	0.666667	7.28072E-001	4.01472E-004	0.00000E+000	2.92301E-004	2.40040E-001	7.28321E-001	3.57730E+000	9	...........
	50	0.68	7.33916E-001	4.00706E-004	0.00000E+000	2.94085E-004	2.40040E-001	7.34156E-001	3.57730E+000	9	...........
	51	0.693333	7.39631E-001	4.00984E-004	0.00000E+000	2.96580E-004	2.40040E-001	7.39894E-001	3.57730E+000	9	...........
	52	0.706667	7.45389E-001	4.00565E-004	0.00000E+000	2.98577E-004	2.40040E-001	7.45656E-001	3.57730E+000	9	...........
	53	0.72	7.51164E-001	4.00197E-004	0.00000E+000	3.00614E-004	2.40040E-001	7.51430E-001	3.57730E+000	9	...........
	54	0.733333	7.56909E-001	3.99947E-004	0.00000E+000	3.02723E-004	2.40040E-001	7.57166E-001	3.57730E+000	9	...........
	55	0.746667	7.62503E-001	3.99305E-004	0.00000E+000	3.04471E-004	2.40040E-001	7.62772E-001	3.57730E+000	9	...........
	56	0.76	7.68143E-001	4.00746E-004	0.00000E+000	3.07830E-004	2.40040E-001	7.68445E-001	3.57730E+000	9	...........
	57	0.773333	7.73747E-001	4.00900E-004	0.00000E+000	3.10195E-004	2.40040E-001	7.74024E-001	3.57730E+000	9	...........
	58	0.786667	7.79334E-001	4.01832E-004	0.00000E+000	3.13161E-004	2.40040E-001	7.79611E-001	3.57730E+000	9	...........
	59	0.8	7.84835E-001	4.02213E-004	0.00000E+000	3.15671E-004	2.40040E-001	7.85084E-001	3.57730E+000	9	...........
	60	0.813333	7.90361E-001	4.01113E-004	0.00000E+000	3.17024E-004	2.40040E-001	7.90606E-001	3.57730E+000	9	...........
	61	0.826667	7.95828E-001	4.01795E-004	0.00000E+000	3.19760E-004	2.40040E-001	7.96050E-001	3.57730E+000	9	...........
	62	0.84	8.01193E-001	3.99910E-004	0.00000E+000	3.20405E-004	2.40040E-001	8.01432E-001	3.57730E+000	9	...........
	63	0.853333	8.06567E-001	4.02248E-004	0.00000E+000	3.24440E-004	2.40040E-001	8.06827E-001	3.57730E+000	9	...........
	64	0.866667	8.11939E-001	4.02021E-004	0.00000E+000	3.26417E-004	2.40040E-001	8.12187E-001	3.57730E+000	9	...........
	65	0.88	8.17265E-001	4.01496E-004	0.00000E+000	3.28129E-004	2.40040E-001	8.17537E-001	3.57730E+000	9	...........
	66	0.893333	8.22565E-001	4.00159E-004	0.00000E+000	3.29157E-004	2.40040E-001	8.22845E-001	3.57730E+000	9	...........
	67	0.906667	8.27829E-001	4.00990E-004	0.00000E+000	3.31951E-004	2.40040E-001	8.28091E-001	3.57730E+000	9	...........
	68	0.92	8.33002E-001	4.00198E-004	0.00000E+000	3.33366E-004	2.40040E-001	8.33281E-001	3.57730E+000	9	...........
	69	0.933333	8.38179E-001	3.99638E-004	0.00000E+000	3.34968E-004	2.40040E-001	8.38447E-001	3.57730E+000	9	...........
	70	0.946667	8.43323E-001	4.01014E-004	0.00000E+000	3.38184E-004	2.40040E-001	8.43611E-001	3.57730E+000	9	...........
	71	0.96	8.48419E-001	3.99522E-004	0.00000E+000	3.38962E-004	2.40040E-001	8.48714E-001	3.57730E+000	9	...........
	72	0.97333	8.53483E-001	4.01823E-004	0.00000E+000	3.42949E-004	2.40040E-001	8.53764E-001	3.57730E+000	9	...........
	73	0.98667	8.58471E-001	4.00728E-004	0.00000E+000	3.44014E-004	2.40040E-001	8.58779E-001	3.57730E+000	9	...........
	74	1	8.63441E-001	3.99675E-004	0.00000E+000	3.45096E-004	2.40040E-001	8.63723E-001	3.57730E+000	9	...........
	75	1.01333	8.68352E-001	4.02040E-004	0.00000E+000	3.49112E-004	2.40040E-001	8.68663E-001	3.57730E+000	9	...........
	76	1.02667	8.73258E-001	3.99430E-004	0.00000E+000	3.48806E-004	2.40040E-001	8.73568E-001	3.57730E+000	9	...........
	77	1.04	8.78096E-001	3.99758E-004	0.00000E+000	3.51026E-004	2.40040E-001	8.78406E-001	3.57730E+000	9	...........
	78	1.05333	8.82893E-001	4.01595E-004	0.00000E+000	3.54565E-004	2.40040E-001	8.83204E-001	3.57730E+000	9	...........
	79	1.06667	8.87618E-001	4.00513E-004	0.00000E+000	3.55502E-004	2.40040E-001	8.87924E-001	3.57730E+000	9	...........
	80	1.08	8.92340E-001	4.01223E-004	0.00000E+000	3.58027E-004	2.40040E-001	8.92637E-001	3.57730E+000	9	...........
	81	1.09333	8.97053E-001	4.01267E-004	0.00000E+000	3.59958E-004	2.40040E-001	8.97327E-001	3.57730E+000	9	...........
	82	1.10667	9.01686E-001	4.00472E-004	0.00000E+000	3.61100E-004	2.40040E-001	9.01970E-001	3.57710E+000	9	...........
	83	1.12	9.06290E-001	4.02191E-004	0.00000E+000	3.64502E-004	2.40040E-001	9.06580E-001	3.57710E+000	9	...........
	84	1.13333	9.10839E-001	3.99462E-004	0.00000E+000	3.63846E-004	2.40040E-001	9.11110E-001	3.57710E+000	9	...........
	85	1.14667	9.15358E-001	4.00085E-004	0.00000E+000	3.66222E-004	2.40040E-001	9.15659E-001	3.57710E+000	9	...........
	86	1.16	9.19919E-001	4.02069E-004	0.00000E+000	3.69871E-004	2.40040E-001	9.20204E-001	3.57710E+000	9	...........
	87	1.17333	9.24366E-001	4.02913E-004	0.00000E+000	3.72439E-004	2.40040E-001	9.24625E-001	3.57710E+000	9	...........
	88	1.18667	9.28747E-001	4.01940E-004	0.00000E+000	3.73301E-004	2.40040E-001	9.29036E-001	3.57710E+000	9	...........
	89	1.2	9.33096E-001	4.00987E-004	0.00000E+000	3.74159E-004	2.40040E-001	9.33392E-001	3.57710E+000	9	...........
	90	1.21333	9.37437E-001	4.00214E-004	0.00000E+000	3.75175E-004	2.40040E-001	9.37733E-001	3.57710E+000	9	...........
	91	1.22667	9.41721E-001	4.01143E-004	0.00000E+000	3.77765E-004	2.40040E-001	9.42034E-001	3.57710E+000	9	...........
	92	1.24	9.45970E-001	4.00275E-004	0.00000E+000	3.78648E-004	2.40040E-001	9.46293E-001	3.57710E+000	9	...........
	93	1.25333	9.50194E-001	4.00722E-004	0.00000E+000	3.80764E-004	2.40040E-001	9.50514E-001	3.57710E+000	9	...........
	94	1.26667	9.54319E-001	4.00973E-004	0.00000E+000	3.82656E-004	2.40040E-001	9.54613E-001	3.57710E+000	9	...........
	95	1.28	9.58376E-001	4.01268E-004	0.00000E+000	3.84566E-004	2.40040E-001	9.58686E-001	3.57710E+000	9	...........
	96	1.29333	9.62401E-001	4.00601E-004	0.00000E+000	3.85539E-004	2.40040E-001	9.62710E-001	3.57710E+000	9	...........
	97	1.30667	9.66414E-001	4.00917E-004	0.00000E+000	3.87452E-004	2.40040E-001	9.66706E-001	3.57710E+000	9	...........
	98	1.32	9.70383E-001	4.01838E-004	0.00000E+000	3.89936E-004	2.40040E-001	9.70715E-001	3.57710E+000	9	...........
	99	1.33333	9.74389E-001	4.01457E-004	0.00000E+000	3.91175E-004	2.40040E-001	9.74684E-001	3.57710E+000	9	...........
	100	1.34667	9.78243E-001	4.00164E-004	0.00000E+000	3.91457E-004	2.40040E-001	9.78540E-001	3.57710E+000	9	...........
	101	1.36	9.82081E-001	4.01119E-004	0.00000E+000	3.93931E-004	2.40040E-001	9.82397E-001	3.57710E+000	9	...........
	102	1.37333	9.85927E-001	4.01994E-004	0.00000E+000	3.96337E-004	2.40040E-001	9.86251E-001	3.57710E+000	9	...........
	103	1.38667	9.89747E-001	4.00401E-004	0.00000E+000	3.96296E-004	2.40040E-001	9.90052E-001	3.57710E+000	9	...........
	104	1.4	9.93476E-001	4.01087E-004	0.00000E+000	3.98470E-004	2.40040E-001	9.93795E-001	3.57710E+000	9	...........
	105	1.41333	9.97204E-001	3.99133E-004	0.00000E+000	3.98017E-004	2.40040E-001	9.97530E-001	3.57710E+000	9	...........
	106	1.41833	9.99729E-001	3.99810E-004	0.00000E+000	3.99702E-004	2.40040E-001	1.00006E+000	3.57710E+000	9	...........
STARTTIMEOFFSET	QUANT	2793.022	Start Time Offset (s)
