EXPLAIN
TAG	PWR800_CHARGE
TITLE	LABEL	PWR Cyclic Charge Discharge (Cell) - Charge Step	Test &Identifier
DATE	LABEL	12-7-2017	Date
TIME	LABEL	14:41:53	Time
NOTES	NOTES	3	&Notes...
	supercap test cell
	0.4mg
	6M KOH
PSTAT	PSTAT	IFC5000-01520	Potentiostat
CAPACITY	QUANT	1.00000E-003	Capacity (A-hr)
CELLTYPE	SELECTOR	1	&Cell Type
WORKINGCONNECTION	SELECTOR	0	&Working Lead
MAXCHARGETIME	VARIABLEANDUNITS	1.00000E+002	s	1.00000E+002	second(s)	Max &Charge Time
CHARGECURRENT	QUANT	4.00000E-004	&Charge Current (A) 
VOLTAGEFINISH	TWOPARAM	F	1.00000E-003	3.60000E+003	&Voltage Finish	 I (A) < 	Max Time(s)
SAMPLETIME	QUANT	1.00000E-002	Sa&mple Period (s)
CHARGESTOPAT1	MULTIPARAM	4	1.00000E+000	Charge Stop At &1	Voltage > Limit	V
CHARGESTOPAT2	MULTIPARAM	0	0.00000E+000	Charge Stop At &2	None	N/A
AESBHCSELECTOR	TOGGLE	F	Save Both Half Cells
IRCOMP	TOGGLE	F	IR &Measure
EOC	QUANT	0	Open Circuit (V)
SEQUENCER	TOGGLE	TRUE	Run as Sequence
PSTATMODEL	IQUANT	53	Pstat Model
PSTATSECTION	LABEL	IFC5000-01520	Pstat Section
PSTATSERIALNO	LABEL	01520	Pstat Serial Number
CTRLMODE	IQUANT	0	Control Mode
ELECTROMETER	IQUANT	1	RE=0 or CS=1
IESTAB	IQUANT	0	I/E Stability
CASPEED	IQUANT	4	Control Amp Speed
CONVENTION	IQUANT	1	Current Convention
ICHRANGE	IQUANT	2	Ich Range
ICHRANGEMODE	TOGGLE	T	Ich Auto Range
ICHOFFSETENABLE	TOGGLE	F	Ich Offset Enable
ICHOFFSET	QUANT	0	Ich Offset (V)
ICHFILTER	IQUANT	1	Ich Filter
VCHRANGE	IQUANT	2	Vch Range
VCHRANGEMODE	TOGGLE	T	Vch Auto Range
VCHOFFSETENABLE	TOGGLE	F	Vch Offset Enable
VCHOFFSET	QUANT	0	Vch Offset (V)
VCHFILTER	IQUANT	1	Vch Filter
IERANGELOWERLIMIT	IQUANT	9	I/E Range Lower Limit
IERANGEMODE	TOGGLE	F	I/E AutoRange
IERANGE	IQUANT	9	I/E Range
ACHSELECT	IQUANT	1	Ach Select
ACHRANGE	IQUANT	2	Ach Range
ACHOFFSETENABLE	TOGGLE	F	Ach Offset Enable
ACHOFFSET	QUANT	0	Ach Offset (V)
ACHFILTER	IQUANT	1	Ach Filter
CABLEID	IQUANT	14	Cable ID
DCCALDATE	LABEL	5-7-2017	DC Calibration Date
ACCALDATE	LABEL	12/3/2015	AC Calibration Date
FRAMEWORKVERSION	QUANT	7.01	Framework Version
INSTRUMENTVERSION	LABEL	4.00	Instrument Version
CURVE	TABLE	124
	Pt	T	Vf	Im	Vu	Pwr	Sig	Ach	Temp	IERange	Over
	#	s	V	A	V	W	V	V	deg C	#	bits
	0	0.013333	3.53899E-001	4.00550E-004	0.00000E+000	1.41754E-004	2.40040E-001	3.53998E-001	3.57610E+000	9	...........
	1	0.026667	3.65055E-001	3.99566E-004	0.00000E+000	1.45863E-004	2.40040E-001	3.65126E-001	3.57610E+000	9	...........
	2	0.04	3.74585E-001	4.00669E-004	0.00000E+000	1.50085E-004	2.40040E-001	3.74654E-001	3.57610E+000	9	...........
	3	0.053333	3.83217E-001	4.00835E-004	0.00000E+000	1.53607E-004	2.40040E-001	3.83294E-001	3.57610E+000	9	...........
	4	0.066667	3.91347E-001	4.01278E-004	0.00000E+000	1.57039E-004	2.40040E-001	3.91428E-001	3.57610E+000	9	...........
	5	0.08	3.99156E-001	4.00639E-004	0.00000E+000	1.59917E-004	2.40040E-001	3.99237E-001	3.57610E+000	9	...........
	6	0.093333	4.06656E-001	4.01121E-004	0.00000E+000	1.63118E-004	2.40040E-001	4.06742E-001	3.57621E+000	9	...........
	7	0.106667	4.13916E-001	4.00357E-004	0.00000E+000	1.65714E-004	2.40040E-001	4.14006E-001	3.57640E+000	9	...........
	8	0.12	4.21048E-001	4.00908E-004	0.00000E+000	1.68801E-004	2.40040E-001	4.21138E-001	3.57640E+000	9	...........
	9	0.133333	4.28027E-001	4.01497E-004	0.00000E+000	1.71851E-004	2.40040E-001	4.28121E-001	3.57640E+000	9	...........
	10	0.146667	4.34761E-001	4.01518E-004	0.00000E+000	1.74564E-004	2.40040E-001	4.34855E-001	3.57640E+000	9	...........
	11	0.16	4.41415E-001	4.01250E-004	0.00000E+000	1.77118E-004	2.40040E-001	4.41511E-001	3.57640E+000	9	...........
	12	0.173333	4.47991E-001	4.00963E-004	0.00000E+000	1.79628E-004	2.40040E-001	4.48086E-001	3.57640E+000	9	...........
	13	0.186667	4.54462E-001	4.00625E-004	0.00000E+000	1.82069E-004	2.40040E-001	4.54558E-001	3.57640E+000	9	...........
	14	0.2	4.60876E-001	4.02098E-004	0.00000E+000	1.85318E-004	2.40040E-001	4.60971E-001	3.57640E+000	9	...........
	15	0.213333	4.67219E-001	4.01369E-004	0.00000E+000	1.87527E-004	2.40040E-001	4.67313E-001	3.57640E+000	9	...........
	16	0.226667	4.73499E-001	4.00528E-004	0.00000E+000	1.89650E-004	2.40040E-001	4.73599E-001	3.57640E+000	9	...........
	17	0.24	4.79700E-001	3.99701E-004	0.00000E+000	1.91737E-004	2.40040E-001	4.79797E-001	3.57640E+000	9	...........
	18	0.253333	4.85878E-001	4.00856E-004	0.00000E+000	1.94767E-004	2.40040E-001	4.85980E-001	3.57640E+000	9	...........
	19	0.266667	4.92020E-001	4.01346E-004	0.00000E+000	1.97470E-004	2.40040E-001	4.92119E-001	3.57640E+000	9	...........
	20	0.28	4.98134E-001	4.01218E-004	0.00000E+000	1.99860E-004	2.40040E-001	4.98239E-001	3.57640E+000	9	...........
	21	0.293333	5.04208E-001	4.00353E-004	0.00000E+000	2.01861E-004	2.40040E-001	5.04313E-001	3.57640E+000	9	...........
	22	0.306667	5.10310E-001	4.00510E-004	0.00000E+000	2.04384E-004	2.40040E-001	5.10420E-001	3.57640E+000	9	...........
	23	0.32	5.16318E-001	4.01287E-004	0.00000E+000	2.07192E-004	2.40040E-001	5.16430E-001	3.57640E+000	9	...........
	24	0.333333	5.22211E-001	4.01193E-004	0.00000E+000	2.09507E-004	2.40040E-001	5.22327E-001	3.57640E+000	9	...........
	25	0.346667	5.28098E-001	4.01136E-004	0.00000E+000	2.11839E-004	2.40040E-001	5.28208E-001	3.57640E+000	9	...........
	26	0.36	5.33710E-001	4.00440E-004	0.00000E+000	2.13719E-004	2.40040E-001	5.33858E-001	3.57640E+000	9	...........
	27	0.373333	5.39488E-001	4.00919E-004	0.00000E+000	2.16291E-004	2.40040E-001	5.39727E-001	3.57640E+000	9	...........
	28	0.386667	5.45287E-001	4.01643E-004	0.00000E+000	2.19011E-004	2.40040E-001	5.45542E-001	3.57640E+000	9	...........
	29	0.4	5.51140E-001	4.01287E-004	0.00000E+000	2.21165E-004	2.40040E-001	5.51400E-001	3.57640E+000	9	...........
	30	0.413333	5.56919E-001	4.02102E-004	0.00000E+000	2.23938E-004	2.40040E-001	5.57184E-001	3.57640E+000	9	...........
	31	0.426667	5.62696E-001	3.99661E-004	0.00000E+000	2.24888E-004	2.40040E-001	5.62950E-001	3.57640E+000	9	...........
	32	0.44	5.68462E-001	4.00633E-004	0.00000E+000	2.27745E-004	2.40040E-001	5.68706E-001	3.57640E+000	9	...........
	33	0.453333	5.74221E-001	4.01112E-004	0.00000E+000	2.30327E-004	2.40040E-001	5.74475E-001	3.57640E+000	9	...........
	34	0.466667	5.79939E-001	4.02355E-004	0.00000E+000	2.33341E-004	2.40040E-001	5.80191E-001	3.57640E+000	9	...........
	35	0.48	5.85675E-001	4.00616E-004	0.00000E+000	2.34631E-004	2.40040E-001	5.85932E-001	3.57640E+000	9	...........
	36	0.493333	5.91360E-001	4.01626E-004	0.00000E+000	2.37506E-004	2.40040E-001	5.91595E-001	3.57640E+000	9	...........
	37	0.506667	5.96897E-001	4.00978E-004	0.00000E+000	2.39343E-004	2.40040E-001	5.97138E-001	3.57640E+000	9	...........
	38	0.52	6.02500E-001	4.00061E-004	0.00000E+000	2.41037E-004	2.40040E-001	6.02770E-001	3.57640E+000	9	...........
	39	0.533333	6.08071E-001	4.02094E-004	0.00000E+000	2.44502E-004	2.40040E-001	6.08323E-001	3.57640E+000	9	...........
	40	0.546667	6.13633E-001	4.02157E-004	0.00000E+000	2.46777E-004	2.40040E-001	6.13855E-001	3.57640E+000	9	...........
	41	0.56	6.19208E-001	4.00326E-004	0.00000E+000	2.47885E-004	2.40040E-001	6.19396E-001	3.57640E+000	9	...........
	42	0.573333	6.24720E-001	4.00729E-004	0.00000E+000	2.50344E-004	2.40040E-001	6.24903E-001	3.57640E+000	9	...........
	43	0.586667	6.30256E-001	4.00902E-004	0.00000E+000	2.52671E-004	2.40040E-001	6.30421E-001	3.57640E+000	9	...........
	44	0.6	6.35780E-001	4.01723E-004	0.00000E+000	2.55408E-004	2.40040E-001	6.35958E-001	3.57640E+000	9	...........
	45	0.613333	6.41293E-001	4.00753E-004	0.00000E+000	2.57000E-004	2.40040E-001	6.41488E-001	3.57640E+000	9	...........
	46	0.626667	6.46703E-001	4.00208E-004	0.00000E+000	2.58816E-004	2.40040E-001	6.46903E-001	3.57640E+000	9	...........
	47	0.64	6.52181E-001	4.01414E-004	0.00000E+000	2.61795E-004	2.40040E-001	6.52407E-001	3.57640E+000	9	...........
	48	0.653333	6.57592E-001	4.00787E-004	0.00000E+000	2.63554E-004	2.40040E-001	6.57804E-001	3.57640E+000	9	...........
	49	0.666667	6.62953E-001	4.01132E-004	0.00000E+000	2.65931E-004	2.40040E-001	6.63210E-001	3.57640E+000	9	...........
	50	0.68	6.68368E-001	4.00432E-004	0.00000E+000	2.67636E-004	2.40040E-001	6.68580E-001	3.57640E+000	9	...........
	51	0.693333	6.73797E-001	4.01120E-004	0.00000E+000	2.70273E-004	2.40040E-001	6.74014E-001	3.57640E+000	9	...........
	52	0.706667	6.79111E-001	4.00406E-004	0.00000E+000	2.71920E-004	2.40040E-001	6.79364E-001	3.57640E+000	9	...........
	53	0.72	6.84469E-001	4.00928E-004	0.00000E+000	2.74423E-004	2.40040E-001	6.84709E-001	3.57640E+000	9	...........
	54	0.733333	6.89866E-001	4.01472E-004	0.00000E+000	2.76962E-004	2.40040E-001	6.90075E-001	3.57640E+000	9	...........
	55	0.746667	6.95205E-001	4.00702E-004	0.00000E+000	2.78570E-004	2.40040E-001	6.95420E-001	3.57640E+000	9	...........
	56	0.76	7.00592E-001	4.00456E-004	0.00000E+000	2.80556E-004	2.40040E-001	7.00815E-001	3.57640E+000	9	...........
	57	0.773333	7.05910E-001	4.00767E-004	0.00000E+000	2.82905E-004	2.40040E-001	7.06126E-001	3.57640E+000	9	...........
	58	0.786667	7.11256E-001	4.00357E-004	0.00000E+000	2.84756E-004	2.40040E-001	7.11493E-001	3.57640E+000	9	...........
	59	0.8	7.16585E-001	4.00872E-004	0.00000E+000	2.87259E-004	2.40040E-001	7.16814E-001	3.57640E+000	9	...........
	60	0.813333	7.21924E-001	4.02123E-004	0.00000E+000	2.90303E-004	2.40040E-001	7.22154E-001	3.57640E+000	9	...........
	61	0.826667	7.27184E-001	4.01197E-004	0.00000E+000	2.91744E-004	2.40040E-001	7.27423E-001	3.57640E+000	9	...........
	62	0.84	7.32371E-001	4.00870E-004	0.00000E+000	2.93586E-004	2.40040E-001	7.32631E-001	3.57640E+000	9	...........
	63	0.853333	7.37530E-001	4.00473E-004	0.00000E+000	2.95361E-004	2.40040E-001	7.37790E-001	3.57640E+000	9	...........
	64	0.866667	7.42862E-001	4.02072E-004	0.00000E+000	2.98684E-004	2.40040E-001	7.43109E-001	3.57640E+000	9	...........
	65	0.88	7.48054E-001	4.02509E-004	0.00000E+000	3.01098E-004	2.40040E-001	7.48291E-001	3.57640E+000	9	...........
	66	0.893333	7.53267E-001	4.01164E-004	0.00000E+000	3.02184E-004	2.40040E-001	7.53506E-001	3.57640E+000	9	...........
	67	0.906667	7.58449E-001	4.00345E-004	0.00000E+000	3.03641E-004	2.40040E-001	7.58662E-001	3.57640E+000	9	...........
	68	0.92	7.63607E-001	4.01842E-004	0.00000E+000	3.06850E-004	2.40040E-001	7.63837E-001	3.57640E+000	9	...........
	69	0.933333	7.68753E-001	4.00944E-004	0.00000E+000	3.08227E-004	2.40040E-001	7.69015E-001	3.57640E+000	9	...........
	70	0.946667	7.73819E-001	4.00778E-004	0.00000E+000	3.10130E-004	2.40040E-001	7.74047E-001	3.57640E+000	9	...........
	71	0.96	7.78765E-001	4.01640E-004	0.00000E+000	3.12783E-004	2.40040E-001	7.79030E-001	3.57640E+000	9	...........
	72	0.97333	7.83720E-001	4.01217E-004	0.00000E+000	3.14442E-004	2.40040E-001	7.83951E-001	3.57640E+000	9	...........
	73	0.98667	7.88743E-001	3.99826E-004	0.00000E+000	3.15360E-004	2.40040E-001	7.88985E-001	3.57640E+000	9	...........
	74	1	7.93791E-001	4.03244E-004	0.00000E+000	3.20092E-004	2.40040E-001	7.94055E-001	3.57640E+000	9	...........
	75	1.01333	7.98772E-001	4.00441E-004	0.00000E+000	3.19861E-004	2.40040E-001	7.98991E-001	3.57640E+000	9	...........
	76	1.02667	8.03677E-001	4.01667E-004	0.00000E+000	3.22811E-004	2.40040E-001	8.03938E-001	3.57640E+000	9	...........
	77	1.04	8.08609E-001	4.00526E-004	0.00000E+000	3.23869E-004	2.40040E-001	8.08887E-001	3.57640E+000	9	...........
	78	1.05333	8.13502E-001	4.00531E-004	0.00000E+000	3.25833E-004	2.40040E-001	8.13787E-001	3.57640E+000	9	...........
	79	1.06667	8.18328E-001	4.02920E-004	0.00000E+000	3.29721E-004	2.40040E-001	8.18598E-001	3.57640E+000	9	...........
	80	1.08	8.23227E-001	4.01671E-004	0.00000E+000	3.30667E-004	2.40040E-001	8.23490E-001	3.57640E+000	9	...........
	81	1.09333	8.27980E-001	3.99260E-004	0.00000E+000	3.30579E-004	2.40040E-001	8.28240E-001	3.57644E+000	9	...........
	82	1.10667	8.32754E-001	4.00554E-004	0.00000E+000	3.33563E-004	2.40040E-001	8.33033E-001	3.57650E+000	9	...........
	83	1.12	8.37496E-001	4.02101E-004	0.00000E+000	3.36758E-004	2.40040E-001	8.37802E-001	3.57650E+000	9	...........
	84	1.13333	8.42151E-001	4.00899E-004	0.00000E+000	3.37618E-004	2.40040E-001	8.42444E-001	3.57650E+000	9	...........
	85	1.14667	8.46832E-001	4.00340E-004	0.00000E+000	3.39020E-004	2.40040E-001	8.47131E-001	3.57650E+000	9	...........
	86	1.16	8.51534E-001	4.01600E-004	0.00000E+000	3.41976E-004	2.40040E-001	8.51816E-001	3.57650E+000	9	...........
	87	1.17333	8.56183E-001	4.00283E-004	0.00000E+000	3.42716E-004	2.40040E-001	8.56472E-001	3.57650E+000	9	...........
	88	1.18667	8.60776E-001	4.01297E-004	0.00000E+000	3.45427E-004	2.40040E-001	8.61049E-001	3.57650E+000	9	...........
	89	1.2	8.65331E-001	3.99893E-004	0.00000E+000	3.46040E-004	2.40040E-001	8.65638E-001	3.57650E+000	9	...........
	90	1.21333	8.69967E-001	4.00547E-004	0.00000E+000	3.48463E-004	2.40040E-001	8.70267E-001	3.57650E+000	9	...........
	91	1.22667	8.74451E-001	3.99916E-004	0.00000E+000	3.49707E-004	2.40040E-001	8.74776E-001	3.57650E+000	9	...........
	92	1.24	8.78913E-001	4.00901E-004	0.00000E+000	3.52357E-004	2.40040E-001	8.79231E-001	3.57650E+000	9	...........
	93	1.25333	8.83359E-001	4.01082E-004	0.00000E+000	3.54299E-004	2.40040E-001	8.83687E-001	3.57650E+000	9	...........
	94	1.26667	8.87757E-001	4.00063E-004	0.00000E+000	3.55158E-004	2.40040E-001	8.88072E-001	3.57650E+000	9	...........
	95	1.28	8.92114E-001	4.01243E-004	0.00000E+000	3.57954E-004	2.40040E-001	8.92430E-001	3.57650E+000	9	...........
	96	1.29333	8.96441E-001	4.02994E-004	0.00000E+000	3.61261E-004	2.40040E-001	8.96799E-001	3.57650E+000	9	...........
	97	1.30667	9.00703E-001	4.01672E-004	0.00000E+000	3.61787E-004	2.40040E-001	9.01042E-001	3.57650E+000	9	...........
	98	1.32	9.04965E-001	4.01620E-004	0.00000E+000	3.63452E-004	2.40040E-001	9.05330E-001	3.57650E+000	9	...........
	99	1.33333	9.09225E-001	4.01093E-004	0.00000E+000	3.64684E-004	2.40040E-001	9.09542E-001	3.57650E+000	9	...........
	100	1.34667	9.13482E-001	4.01348E-004	0.00000E+000	3.66624E-004	2.40040E-001	9.13804E-001	3.57650E+000	9	...........
	101	1.36	9.17688E-001	4.01546E-004	0.00000E+000	3.68494E-004	2.40040E-001	9.18010E-001	3.57650E+000	9	...........
	102	1.37333	9.21942E-001	4.01709E-004	0.00000E+000	3.70352E-004	2.40040E-001	9.22230E-001	3.57650E+000	9	...........
	103	1.38667	9.26114E-001	3.99687E-004	0.00000E+000	3.70156E-004	2.40040E-001	9.26372E-001	3.57650E+000	9	...........
	104	1.4	9.30215E-001	4.00701E-004	0.00000E+000	3.72738E-004	2.40040E-001	9.30470E-001	3.57650E+000	9	...........
	105	1.41333	9.34199E-001	4.00587E-004	0.00000E+000	3.74228E-004	2.40040E-001	9.34478E-001	3.57650E+000	9	...........
	106	1.42667	9.38181E-001	4.01315E-004	0.00000E+000	3.76506E-004	2.40040E-001	9.38451E-001	3.57650E+000	9	...........
	107	1.44	9.42172E-001	4.01226E-004	0.00000E+000	3.78024E-004	2.40040E-001	9.42441E-001	3.57650E+000	9	...........
	108	1.45333	9.46066E-001	4.00567E-004	0.00000E+000	3.78963E-004	2.40040E-001	9.46339E-001	3.57650E+000	9	...........
	109	1.46667	9.49975E-001	4.01495E-004	0.00000E+000	3.81410E-004	2.40040E-001	9.50246E-001	3.57650E+000	9	...........
	110	1.48	9.53816E-001	4.01373E-004	0.00000E+000	3.82836E-004	2.40040E-001	9.54106E-001	3.57650E+000	9	...........
	111	1.49333	9.57598E-001	4.01813E-004	0.00000E+000	3.84775E-004	2.40040E-001	9.57894E-001	3.57650E+000	9	...........
	112	1.50667	9.61397E-001	4.01220E-004	0.00000E+000	3.85732E-004	2.40040E-001	9.61706E-001	3.57650E+000	9	...........
	113	1.52	9.65177E-001	4.01145E-004	0.00000E+000	3.87176E-004	2.40040E-001	9.65513E-001	3.57650E+000	9	...........
	114	1.53333	9.68892E-001	4.01313E-004	0.00000E+000	3.88829E-004	2.40040E-001	9.69225E-001	3.57650E+000	9	...........
	115	1.54667	9.72583E-001	3.99756E-004	0.00000E+000	3.88796E-004	2.40040E-001	9.72908E-001	3.57650E+000	9	...........
	116	1.56	9.76272E-001	4.01147E-004	0.00000E+000	3.91629E-004	2.40040E-001	9.76581E-001	3.57650E+000	9	...........
	117	1.57333	9.79880E-001	4.01219E-004	0.00000E+000	3.93146E-004	2.40040E-001	9.80179E-001	3.57650E+000	9	...........
	118	1.58667	9.83462E-001	4.01243E-004	0.00000E+000	3.94607E-004	2.40040E-001	9.83800E-001	3.57650E+000	9	...........
	119	1.6	9.86994E-001	4.02297E-004	0.00000E+000	3.97065E-004	2.40040E-001	9.87347E-001	3.57650E+000	9	...........
	120	1.61333	9.90511E-001	4.00066E-004	0.00000E+000	3.96270E-004	2.40040E-001	9.90821E-001	3.57650E+000	9	...........
	121	1.62667	9.93986E-001	4.01892E-004	0.00000E+000	3.99475E-004	2.40040E-001	9.94320E-001	3.57650E+000	9	...........
	122	1.64	9.97438E-001	4.01157E-004	0.00000E+000	4.00129E-004	2.40040E-001	9.97792E-001	3.57650E+000	9	...........
	123	1.645	9.99823E-001	4.01666E-004	0.00000E+000	4.01595E-004	2.40040E-001	1.00013E+000	3.57650E+000	9	...........
STARTTIMEOFFSET	QUANT	1117.655	Start Time Offset (s)
