EXPLAIN
TAG	PWR800_CHARGE
TITLE	LABEL	PWR Cyclic Charge Discharge (Cell) - Charge Step	Test &Identifier
DATE	LABEL	12-7-2017	Date
TIME	LABEL	15:15:11	Time
NOTES	NOTES	3	&Notes...
	supercap test cell
	0.4mg
	6M KOH
PSTAT	PSTAT	IFC5000-01520	Potentiostat
CAPACITY	QUANT	1.00000E-003	Capacity (A-hr)
CELLTYPE	SELECTOR	1	&Cell Type
WORKINGCONNECTION	SELECTOR	0	&Working Lead
MAXCHARGETIME	VARIABLEANDUNITS	1.00000E+002	s	1.00000E+002	second(s)	Max &Charge Time
CHARGECURRENT	QUANT	4.00000E-004	&Charge Current (A) 
VOLTAGEFINISH	TWOPARAM	F	1.00000E-003	3.60000E+003	&Voltage Finish	 I (A) < 	Max Time(s)
SAMPLETIME	QUANT	1.00000E-002	Sa&mple Period (s)
CHARGESTOPAT1	MULTIPARAM	4	1.00000E+000	Charge Stop At &1	Voltage > Limit	V
CHARGESTOPAT2	MULTIPARAM	0	0.00000E+000	Charge Stop At &2	None	N/A
AESBHCSELECTOR	TOGGLE	F	Save Both Half Cells
IRCOMP	TOGGLE	F	IR &Measure
EOC	QUANT	0	Open Circuit (V)
SEQUENCER	TOGGLE	TRUE	Run as Sequence
PSTATMODEL	IQUANT	53	Pstat Model
PSTATSECTION	LABEL	IFC5000-01520	Pstat Section
PSTATSERIALNO	LABEL	01520	Pstat Serial Number
CTRLMODE	IQUANT	0	Control Mode
ELECTROMETER	IQUANT	1	RE=0 or CS=1
IESTAB	IQUANT	0	I/E Stability
CASPEED	IQUANT	4	Control Amp Speed
CONVENTION	IQUANT	1	Current Convention
ICHRANGE	IQUANT	2	Ich Range
ICHRANGEMODE	TOGGLE	T	Ich Auto Range
ICHOFFSETENABLE	TOGGLE	F	Ich Offset Enable
ICHOFFSET	QUANT	0	Ich Offset (V)
ICHFILTER	IQUANT	1	Ich Filter
VCHRANGE	IQUANT	2	Vch Range
VCHRANGEMODE	TOGGLE	T	Vch Auto Range
VCHOFFSETENABLE	TOGGLE	F	Vch Offset Enable
VCHOFFSET	QUANT	0	Vch Offset (V)
VCHFILTER	IQUANT	1	Vch Filter
IERANGELOWERLIMIT	IQUANT	9	I/E Range Lower Limit
IERANGEMODE	TOGGLE	F	I/E AutoRange
IERANGE	IQUANT	9	I/E Range
ACHSELECT	IQUANT	1	Ach Select
ACHRANGE	IQUANT	2	Ach Range
ACHOFFSETENABLE	TOGGLE	F	Ach Offset Enable
ACHOFFSET	QUANT	0	Ach Offset (V)
ACHFILTER	IQUANT	1	Ach Filter
CABLEID	IQUANT	14	Cable ID
DCCALDATE	LABEL	5-7-2017	DC Calibration Date
ACCALDATE	LABEL	12/3/2015	AC Calibration Date
FRAMEWORKVERSION	QUANT	7.01	Framework Version
INSTRUMENTVERSION	LABEL	4.00	Instrument Version
CURVE	TABLE	108
	Pt	T	Vf	Im	Vu	Pwr	Sig	Ach	Temp	IERange	Over
	#	s	V	A	V	W	V	V	deg C	#	bits
	0	0.013333	3.89262E-001	4.00185E-004	0.00000E+000	1.55777E-004	2.40040E-001	3.89358E-001	3.57770E+000	9	...........
	1	0.026667	4.01882E-001	4.00579E-004	0.00000E+000	1.60986E-004	2.40040E-001	4.01964E-001	3.57770E+000	9	...........
	2	0.04	4.12658E-001	4.00626E-004	0.00000E+000	1.65322E-004	2.40040E-001	4.12745E-001	3.57770E+000	9	...........
	3	0.053333	4.22341E-001	4.01124E-004	0.00000E+000	1.69411E-004	2.40040E-001	4.22429E-001	3.57770E+000	9	...........
	4	0.066667	4.31372E-001	4.00792E-004	0.00000E+000	1.72890E-004	2.40040E-001	4.31463E-001	3.57770E+000	9	...........
	5	0.08	4.39922E-001	4.01708E-004	0.00000E+000	1.76720E-004	2.40040E-001	4.40010E-001	3.57770E+000	9	...........
	6	0.093333	4.48128E-001	4.01367E-004	0.00000E+000	1.79864E-004	2.40040E-001	4.48232E-001	3.57770E+000	9	...........
	7	0.106667	4.56089E-001	4.00545E-004	0.00000E+000	1.82684E-004	2.40040E-001	4.56183E-001	3.57770E+000	9	...........
	8	0.12	4.63829E-001	4.02340E-004	0.00000E+000	1.86617E-004	2.40040E-001	4.63927E-001	3.57770E+000	9	...........
	9	0.133333	4.71423E-001	3.99834E-004	0.00000E+000	1.88491E-004	2.40040E-001	4.71522E-001	3.57770E+000	9	...........
	10	0.146667	4.78874E-001	4.00542E-004	0.00000E+000	1.91809E-004	2.40040E-001	4.78972E-001	3.57770E+000	9	...........
	11	0.16	4.86173E-001	4.01443E-004	0.00000E+000	1.95171E-004	2.40040E-001	4.86269E-001	3.57770E+000	9	...........
	12	0.173333	4.93340E-001	4.01379E-004	0.00000E+000	1.98017E-004	2.40040E-001	4.93444E-001	3.57770E+000	9	...........
	13	0.186667	5.00454E-001	4.00298E-004	0.00000E+000	2.00331E-004	2.40040E-001	5.00557E-001	3.57770E+000	9	...........
	14	0.2	5.07492E-001	4.01151E-004	0.00000E+000	2.03581E-004	2.40040E-001	5.07599E-001	3.57770E+000	9	...........
	15	0.213333	5.14389E-001	4.00951E-004	0.00000E+000	2.06245E-004	2.40040E-001	5.14500E-001	3.57770E+000	9	...........
	16	0.226667	5.21180E-001	4.01988E-004	0.00000E+000	2.09508E-004	2.40040E-001	5.21291E-001	3.57770E+000	9	...........
	17	0.24	5.27901E-001	4.01162E-004	0.00000E+000	2.11774E-004	2.40040E-001	5.28012E-001	3.57770E+000	9	...........
	18	0.253333	5.34448E-001	4.01889E-004	0.00000E+000	2.14789E-004	2.40040E-001	5.34602E-001	3.57770E+000	9	...........
	19	0.266667	5.41019E-001	4.01954E-004	0.00000E+000	2.17464E-004	2.40040E-001	5.41242E-001	3.57770E+000	9	...........
	20	0.28	5.47685E-001	4.00425E-004	0.00000E+000	2.19307E-004	2.40040E-001	5.47899E-001	3.57770E+000	9	...........
	21	0.293333	5.54202E-001	4.00994E-004	0.00000E+000	2.22232E-004	2.40040E-001	5.54435E-001	3.57770E+000	9	...........
	22	0.306667	5.60697E-001	4.01317E-004	0.00000E+000	2.25017E-004	2.40040E-001	5.60955E-001	3.57770E+000	9	...........
	23	0.32	5.67239E-001	4.01271E-004	0.00000E+000	2.27616E-004	2.40040E-001	5.67476E-001	3.57770E+000	9	...........
	24	0.333333	5.73635E-001	4.01664E-004	0.00000E+000	2.30408E-004	2.40040E-001	5.73861E-001	3.57770E+000	9	...........
	25	0.346667	5.80078E-001	4.01336E-004	0.00000E+000	2.32806E-004	2.40040E-001	5.80333E-001	3.57770E+000	9	...........
	26	0.36	5.86453E-001	4.01569E-004	0.00000E+000	2.35502E-004	2.40040E-001	5.86727E-001	3.57770E+000	9	...........
	27	0.373333	5.92834E-001	4.01693E-004	0.00000E+000	2.38137E-004	2.40040E-001	5.93090E-001	3.57770E+000	9	...........
	28	0.386667	5.99149E-001	4.01040E-004	0.00000E+000	2.40283E-004	2.40040E-001	5.99388E-001	3.57770E+000	9	...........
	29	0.4	6.05408E-001	4.00944E-004	0.00000E+000	2.42735E-004	2.40040E-001	6.05695E-001	3.57770E+000	9	...........
	30	0.413333	6.11730E-001	3.99822E-004	0.00000E+000	2.44583E-004	2.40040E-001	6.12017E-001	3.57770E+000	9	...........
	31	0.426667	6.18094E-001	4.00495E-004	0.00000E+000	2.47543E-004	2.40040E-001	6.18319E-001	3.57770E+000	9	...........
	32	0.44	6.24301E-001	4.01509E-004	0.00000E+000	2.50662E-004	2.40040E-001	6.24541E-001	3.57770E+000	9	...........
	33	0.453333	6.30499E-001	4.00225E-004	0.00000E+000	2.52342E-004	2.40040E-001	6.30756E-001	3.57770E+000	9	...........
	34	0.466667	6.36642E-001	4.02619E-004	0.00000E+000	2.56324E-004	2.40040E-001	6.36879E-001	3.57759E+000	9	...........
	35	0.48	6.42804E-001	4.00974E-004	0.00000E+000	2.57748E-004	2.40040E-001	6.43048E-001	3.57750E+000	9	...........
	36	0.493333	6.48947E-001	4.02837E-004	0.00000E+000	2.61420E-004	2.40040E-001	6.49203E-001	3.57750E+000	9	...........
	37	0.506667	6.54980E-001	4.00143E-004	0.00000E+000	2.62085E-004	2.40040E-001	6.55200E-001	3.57750E+000	9	...........
	38	0.52	6.61048E-001	4.00168E-004	0.00000E+000	2.64530E-004	2.40040E-001	6.61303E-001	3.57750E+000	9	...........
	39	0.533333	6.67153E-001	4.00791E-004	0.00000E+000	2.67389E-004	2.40040E-001	6.67402E-001	3.57750E+000	9	...........
	40	0.546667	6.73163E-001	4.01898E-004	0.00000E+000	2.70543E-004	2.40040E-001	6.73412E-001	3.57750E+000	9	...........
	41	0.56	6.79126E-001	4.01913E-004	0.00000E+000	2.72950E-004	2.40040E-001	6.79380E-001	3.57750E+000	9	...........
	42	0.573333	6.85052E-001	4.02463E-004	0.00000E+000	2.75708E-004	2.40040E-001	6.85292E-001	3.57750E+000	9	...........
	43	0.586667	6.90913E-001	4.01184E-004	0.00000E+000	2.77183E-004	2.40040E-001	6.91170E-001	3.57750E+000	9	...........
	44	0.6	6.96829E-001	4.01498E-004	0.00000E+000	2.79776E-004	2.40040E-001	6.97060E-001	3.57750E+000	9	...........
	45	0.613333	7.02699E-001	4.01478E-004	0.00000E+000	2.82118E-004	2.40040E-001	7.02944E-001	3.57750E+000	9	...........
	46	0.626667	7.08581E-001	4.00883E-004	0.00000E+000	2.84058E-004	2.40040E-001	7.08835E-001	3.57750E+000	9	...........
	47	0.64	7.14448E-001	4.02255E-004	0.00000E+000	2.87390E-004	2.40040E-001	7.14714E-001	3.57750E+000	9	...........
	48	0.653333	7.20350E-001	4.00369E-004	0.00000E+000	2.88406E-004	2.40040E-001	7.20578E-001	3.57750E+000	9	...........
	49	0.666667	7.26126E-001	4.02825E-004	0.00000E+000	2.92501E-004	2.40040E-001	7.26350E-001	3.57750E+000	9	...........
	50	0.68	7.31871E-001	4.01527E-004	0.00000E+000	2.93866E-004	2.40040E-001	7.32093E-001	3.57750E+000	9	...........
	51	0.693333	7.37612E-001	4.00408E-004	0.00000E+000	2.95346E-004	2.40040E-001	7.37848E-001	3.57750E+000	9	...........
	52	0.706667	7.43355E-001	4.00184E-004	0.00000E+000	2.97479E-004	2.40040E-001	7.43610E-001	3.57750E+000	9	...........
	53	0.72	7.49062E-001	4.00987E-004	0.00000E+000	3.00364E-004	2.40040E-001	7.49297E-001	3.57750E+000	9	...........
	54	0.733333	7.54694E-001	4.00792E-004	0.00000E+000	3.02475E-004	2.40040E-001	7.54944E-001	3.57750E+000	9	...........
	55	0.746667	7.60321E-001	4.00508E-004	0.00000E+000	3.04515E-004	2.40040E-001	7.60551E-001	3.57750E+000	9	...........
	56	0.76	7.65875E-001	4.00666E-004	0.00000E+000	3.06860E-004	2.40040E-001	7.66126E-001	3.57750E+000	9	...........
	57	0.773333	7.71467E-001	4.00900E-004	0.00000E+000	3.09281E-004	2.40040E-001	7.71695E-001	3.57750E+000	9	...........
	58	0.786667	7.76947E-001	4.00204E-004	0.00000E+000	3.10938E-004	2.40040E-001	7.77187E-001	3.57750E+000	9	...........
	59	0.8	7.82444E-001	3.99518E-004	0.00000E+000	3.12600E-004	2.40040E-001	7.82661E-001	3.57750E+000	9	...........
	60	0.813333	7.87883E-001	4.00042E-004	0.00000E+000	3.15186E-004	2.40040E-001	7.88117E-001	3.57750E+000	9	...........
	61	0.826667	7.93331E-001	4.01246E-004	0.00000E+000	3.18321E-004	2.40040E-001	7.93565E-001	3.57750E+000	9	...........
	62	0.84	7.98713E-001	4.01924E-004	0.00000E+000	3.21022E-004	2.40040E-001	7.98965E-001	3.57750E+000	9	...........
	63	0.853333	8.04071E-001	4.01694E-004	0.00000E+000	3.22991E-004	2.40040E-001	8.04335E-001	3.57750E+000	9	...........
	64	0.866667	8.09379E-001	4.00001E-004	0.00000E+000	3.23753E-004	2.40040E-001	8.09623E-001	3.57750E+000	9	...........
	65	0.88	8.14692E-001	4.00437E-004	0.00000E+000	3.26233E-004	2.40040E-001	8.14982E-001	3.57750E+000	9	...........
	66	0.893333	8.20003E-001	4.00028E-004	0.00000E+000	3.28024E-004	2.40040E-001	8.20270E-001	3.57750E+000	9	...........
	67	0.906667	8.25173E-001	3.99678E-004	0.00000E+000	3.29803E-004	2.40040E-001	8.25452E-001	3.57750E+000	9	...........
	68	0.92	8.30380E-001	4.00219E-004	0.00000E+000	3.32334E-004	2.40040E-001	8.30648E-001	3.57750E+000	9	...........
	69	0.933333	8.35558E-001	4.01520E-004	0.00000E+000	3.35493E-004	2.40040E-001	8.35848E-001	3.57750E+000	9	...........
	70	0.946667	8.40667E-001	4.00572E-004	0.00000E+000	3.36748E-004	2.40040E-001	8.40967E-001	3.57750E+000	9	...........
	71	0.96	8.45735E-001	4.00466E-004	0.00000E+000	3.38688E-004	2.40040E-001	8.46017E-001	3.57750E+000	9	...........
	72	0.97333	8.50692E-001	4.01586E-004	0.00000E+000	3.41626E-004	2.40040E-001	8.50976E-001	3.57750E+000	9	...........
	73	0.98667	8.55659E-001	4.00555E-004	0.00000E+000	3.42739E-004	2.40040E-001	8.55951E-001	3.57750E+000	9	...........
	74	1	8.60573E-001	4.00622E-004	0.00000E+000	3.44765E-004	2.40040E-001	8.60858E-001	3.57750E+000	9	...........
	75	1.01333	8.65444E-001	4.00084E-004	0.00000E+000	3.46251E-004	2.40040E-001	8.65732E-001	3.57750E+000	9	...........
	76	1.02667	8.70363E-001	4.01760E-004	0.00000E+000	3.49677E-004	2.40040E-001	8.70656E-001	3.57750E+000	9	...........
	77	1.04	8.75176E-001	4.00586E-004	0.00000E+000	3.50583E-004	2.40040E-001	8.75474E-001	3.57750E+000	9	...........
	78	1.05333	8.79975E-001	4.00951E-004	0.00000E+000	3.52827E-004	2.40040E-001	8.80287E-001	3.57750E+000	9	...........
	79	1.06667	8.84728E-001	4.00757E-004	0.00000E+000	3.54562E-004	2.40040E-001	8.85053E-001	3.57750E+000	9	...........
	80	1.08	8.89444E-001	4.01485E-004	0.00000E+000	3.57098E-004	2.40040E-001	8.89739E-001	3.57750E+000	9	...........
	81	1.09333	8.94128E-001	4.01955E-004	0.00000E+000	3.59399E-004	2.40040E-001	8.94444E-001	3.57750E+000	9	...........
	82	1.10667	8.98764E-001	4.02695E-004	0.00000E+000	3.61928E-004	2.40040E-001	8.99085E-001	3.57750E+000	9	...........
	83	1.12	9.03380E-001	4.02163E-004	0.00000E+000	3.63306E-004	2.40040E-001	9.03677E-001	3.57750E+000	9	...........
	84	1.13333	9.08001E-001	4.00550E-004	0.00000E+000	3.63700E-004	2.40040E-001	9.08289E-001	3.57750E+000	9	...........
	85	1.14667	9.12589E-001	4.00017E-004	0.00000E+000	3.65051E-004	2.40040E-001	9.12872E-001	3.57750E+000	9	...........
	86	1.16	9.17068E-001	4.02961E-004	0.00000E+000	3.69543E-004	2.40040E-001	9.17369E-001	3.57750E+000	9	...........
	87	1.17333	9.21536E-001	4.00511E-004	0.00000E+000	3.69085E-004	2.40040E-001	9.21802E-001	3.57750E+000	9	...........
	88	1.18667	9.26002E-001	4.01339E-004	0.00000E+000	3.71641E-004	2.40040E-001	9.26269E-001	3.57750E+000	9	...........
	89	1.2	9.30414E-001	4.01944E-004	0.00000E+000	3.73975E-004	2.40040E-001	9.30656E-001	3.57750E+000	9	...........
	90	1.21333	9.34682E-001	4.01100E-004	0.00000E+000	3.74901E-004	2.40040E-001	9.34960E-001	3.57750E+000	9	...........
	91	1.22667	9.38917E-001	4.00318E-004	0.00000E+000	3.75865E-004	2.40040E-001	9.39245E-001	3.57750E+000	9	...........
	92	1.24	9.43111E-001	4.00769E-004	0.00000E+000	3.77970E-004	2.40040E-001	9.43411E-001	3.57750E+000	9	...........
	93	1.25333	9.47329E-001	4.01000E-004	0.00000E+000	3.79879E-004	2.40040E-001	9.47638E-001	3.57750E+000	9	...........
	94	1.26667	9.51503E-001	4.00771E-004	0.00000E+000	3.81335E-004	2.40040E-001	9.51790E-001	3.57750E+000	9	...........
	95	1.28	9.55625E-001	3.99704E-004	0.00000E+000	3.81967E-004	2.40040E-001	9.55913E-001	3.57750E+000	9	...........
	96	1.29333	9.59697E-001	4.01948E-004	0.00000E+000	3.85749E-004	2.40040E-001	9.59988E-001	3.57750E+000	9	...........
	97	1.30667	9.63758E-001	4.01433E-004	0.00000E+000	3.86884E-004	2.40040E-001	9.64086E-001	3.57750E+000	9	...........
	98	1.32	9.67763E-001	4.00788E-004	0.00000E+000	3.87867E-004	2.40040E-001	9.68095E-001	3.57750E+000	9	...........
	99	1.33333	9.71729E-001	4.02061E-004	0.00000E+000	3.90694E-004	2.40040E-001	9.72071E-001	3.57750E+000	9	...........
	100	1.34667	9.75665E-001	4.00374E-004	0.00000E+000	3.90631E-004	2.40040E-001	9.75984E-001	3.57750E+000	9	...........
	101	1.36	9.79532E-001	4.01610E-004	0.00000E+000	3.93390E-004	2.40040E-001	9.79869E-001	3.57750E+000	9	...........
	102	1.37333	9.83325E-001	4.00475E-004	0.00000E+000	3.93797E-004	2.40040E-001	9.83669E-001	3.57750E+000	9	...........
	103	1.38667	9.87071E-001	4.02141E-004	0.00000E+000	3.96942E-004	2.40040E-001	9.87408E-001	3.57750E+000	9	...........
	104	1.4	9.90851E-001	4.00687E-004	0.00000E+000	3.97021E-004	2.40040E-001	9.91169E-001	3.57750E+000	9	...........
	105	1.41333	9.94627E-001	4.01560E-004	0.00000E+000	3.99402E-004	2.40040E-001	9.94932E-001	3.57750E+000	9	...........
	106	1.42667	9.98283E-001	4.01807E-004	0.00000E+000	4.01117E-004	2.40040E-001	9.98620E-001	3.57750E+000	9	...........
	107	1.42833	1.00028E+000	4.01827E-004	0.00000E+000	4.01939E-004	2.40040E-001	1.00067E+000	3.57750E+000	9	...........
STARTTIMEOFFSET	QUANT	2681.149	Start Time Offset (s)
