EXPLAIN
TAG	PWR800_CHARGE
TITLE	LABEL	PWR Cyclic Charge Discharge (Cell) - Charge Step	Test &Identifier
DATE	LABEL	12-7-2017	Date
TIME	LABEL	15:19:35	Time
NOTES	NOTES	3	&Notes...
	supercap test cell
	0.4mg
	6M KOH
PSTAT	PSTAT	IFC5000-01520	Potentiostat
CAPACITY	QUANT	1.00000E-003	Capacity (A-hr)
CELLTYPE	SELECTOR	1	&Cell Type
WORKINGCONNECTION	SELECTOR	0	&Working Lead
MAXCHARGETIME	VARIABLEANDUNITS	1.00000E+002	s	1.00000E+002	second(s)	Max &Charge Time
CHARGECURRENT	QUANT	4.00000E-004	&Charge Current (A) 
VOLTAGEFINISH	TWOPARAM	F	1.00000E-003	3.60000E+003	&Voltage Finish	 I (A) < 	Max Time(s)
SAMPLETIME	QUANT	1.00000E-002	Sa&mple Period (s)
CHARGESTOPAT1	MULTIPARAM	4	1.00000E+000	Charge Stop At &1	Voltage > Limit	V
CHARGESTOPAT2	MULTIPARAM	0	0.00000E+000	Charge Stop At &2	None	N/A
AESBHCSELECTOR	TOGGLE	F	Save Both Half Cells
IRCOMP	TOGGLE	F	IR &Measure
EOC	QUANT	0	Open Circuit (V)
SEQUENCER	TOGGLE	TRUE	Run as Sequence
PSTATMODEL	IQUANT	53	Pstat Model
PSTATSECTION	LABEL	IFC5000-01520	Pstat Section
PSTATSERIALNO	LABEL	01520	Pstat Serial Number
CTRLMODE	IQUANT	0	Control Mode
ELECTROMETER	IQUANT	1	RE=0 or CS=1
IESTAB	IQUANT	0	I/E Stability
CASPEED	IQUANT	4	Control Amp Speed
CONVENTION	IQUANT	1	Current Convention
ICHRANGE	IQUANT	2	Ich Range
ICHRANGEMODE	TOGGLE	T	Ich Auto Range
ICHOFFSETENABLE	TOGGLE	F	Ich Offset Enable
ICHOFFSET	QUANT	0	Ich Offset (V)
ICHFILTER	IQUANT	1	Ich Filter
VCHRANGE	IQUANT	2	Vch Range
VCHRANGEMODE	TOGGLE	T	Vch Auto Range
VCHOFFSETENABLE	TOGGLE	F	Vch Offset Enable
VCHOFFSET	QUANT	0	Vch Offset (V)
VCHFILTER	IQUANT	1	Vch Filter
IERANGELOWERLIMIT	IQUANT	9	I/E Range Lower Limit
IERANGEMODE	TOGGLE	F	I/E AutoRange
IERANGE	IQUANT	9	I/E Range
ACHSELECT	IQUANT	1	Ach Select
ACHRANGE	IQUANT	2	Ach Range
ACHOFFSETENABLE	TOGGLE	F	Ach Offset Enable
ACHOFFSET	QUANT	0	Ach Offset (V)
ACHFILTER	IQUANT	1	Ach Filter
CABLEID	IQUANT	14	Cable ID
DCCALDATE	LABEL	5-7-2017	DC Calibration Date
ACCALDATE	LABEL	12/3/2015	AC Calibration Date
FRAMEWORKVERSION	QUANT	7.01	Framework Version
INSTRUMENTVERSION	LABEL	4.00	Instrument Version
CURVE	TABLE	106
	Pt	T	Vf	Im	Vu	Pwr	Sig	Ach	Temp	IERange	Over
	#	s	V	A	V	W	V	V	deg C	#	bits
	0	0.013333	3.90315E-001	3.99994E-004	0.00000E+000	1.56124E-004	2.40040E-001	3.90402E-001	3.57700E+000	9	...........
	1	0.026667	4.03242E-001	4.01117E-004	0.00000E+000	1.61747E-004	2.40040E-001	4.03316E-001	3.57700E+000	9	...........
	2	0.04	4.14206E-001	4.00088E-004	0.00000E+000	1.65719E-004	2.40040E-001	4.14295E-001	3.57700E+000	9	...........
	3	0.053333	4.24158E-001	4.00328E-004	0.00000E+000	1.69802E-004	2.40040E-001	4.24243E-001	3.57700E+000	9	...........
	4	0.066667	4.33458E-001	4.00759E-004	0.00000E+000	1.73712E-004	2.40040E-001	4.33545E-001	3.57700E+000	9	...........
	5	0.08	4.42227E-001	4.01408E-004	0.00000E+000	1.77513E-004	2.40040E-001	4.42324E-001	3.57700E+000	9	...........
	6	0.093333	4.50624E-001	4.01568E-004	0.00000E+000	1.80956E-004	2.40040E-001	4.50724E-001	3.57700E+000	9	...........
	7	0.106667	4.58780E-001	4.01102E-004	0.00000E+000	1.84018E-004	2.40040E-001	4.58872E-001	3.57700E+000	9	...........
	8	0.12	4.66650E-001	4.01664E-004	0.00000E+000	1.87436E-004	2.40040E-001	4.66740E-001	3.57700E+000	9	...........
	9	0.133333	4.74379E-001	4.00324E-004	0.00000E+000	1.89905E-004	2.40040E-001	4.74475E-001	3.57700E+000	9	...........
	10	0.146667	4.81980E-001	4.01849E-004	0.00000E+000	1.93683E-004	2.40040E-001	4.82082E-001	3.57700E+000	9	...........
	11	0.16	4.89475E-001	4.01965E-004	0.00000E+000	1.96752E-004	2.40040E-001	4.89572E-001	3.57700E+000	9	...........
	12	0.173333	4.96812E-001	4.01576E-004	0.00000E+000	1.99508E-004	2.40040E-001	4.96916E-001	3.57700E+000	9	...........
	13	0.186667	5.04017E-001	4.01295E-004	0.00000E+000	2.02259E-004	2.40040E-001	5.04117E-001	3.57700E+000	9	...........
	14	0.2	5.11111E-001	4.00260E-004	0.00000E+000	2.04578E-004	2.40040E-001	5.11211E-001	3.57700E+000	9	...........
	15	0.213333	5.18099E-001	4.01151E-004	0.00000E+000	2.07836E-004	2.40040E-001	5.18202E-001	3.57700E+000	9	...........
	16	0.226667	5.25013E-001	4.00869E-004	0.00000E+000	2.10462E-004	2.40040E-001	5.25118E-001	3.57700E+000	9	...........
	17	0.24	5.31803E-001	4.00231E-004	0.00000E+000	2.12844E-004	2.40040E-001	5.31947E-001	3.57700E+000	9	...........
	18	0.253333	5.38413E-001	4.00672E-004	0.00000E+000	2.15727E-004	2.40040E-001	5.38645E-001	3.57700E+000	9	...........
	19	0.266667	5.45165E-001	4.01252E-004	0.00000E+000	2.18749E-004	2.40040E-001	5.45389E-001	3.57700E+000	9	...........
	20	0.28	5.51803E-001	4.00205E-004	0.00000E+000	2.20834E-004	2.40040E-001	5.52050E-001	3.57700E+000	9	...........
	21	0.293333	5.58455E-001	4.00886E-004	0.00000E+000	2.23877E-004	2.40040E-001	5.58645E-001	3.57700E+000	9	...........
	22	0.306667	5.65048E-001	4.00663E-004	0.00000E+000	2.26394E-004	2.40040E-001	5.65242E-001	3.57700E+000	9	...........
	23	0.32	5.71641E-001	4.01120E-004	0.00000E+000	2.29297E-004	2.40040E-001	5.71842E-001	3.57700E+000	9	...........
	24	0.333333	5.78148E-001	4.01777E-004	0.00000E+000	2.32287E-004	2.40040E-001	5.78375E-001	3.57700E+000	9	...........
	25	0.346667	5.84604E-001	4.01478E-004	0.00000E+000	2.34706E-004	2.40040E-001	5.84840E-001	3.57700E+000	9	...........
	26	0.36	5.91114E-001	3.99466E-004	0.00000E+000	2.36130E-004	2.40040E-001	5.91353E-001	3.57700E+000	9	...........
	27	0.373333	5.97504E-001	4.01389E-004	0.00000E+000	2.39831E-004	2.40040E-001	5.97732E-001	3.57700E+000	9	...........
	28	0.386667	6.03842E-001	4.01038E-004	0.00000E+000	2.42163E-004	2.40040E-001	6.04102E-001	3.57700E+000	9	...........
	29	0.4	6.10197E-001	4.01738E-004	0.00000E+000	2.45139E-004	2.40040E-001	6.10470E-001	3.57700E+000	9	...........
	30	0.413333	6.16587E-001	4.01127E-004	0.00000E+000	2.47330E-004	2.40040E-001	6.16798E-001	3.57700E+000	9	...........
	31	0.426667	6.22860E-001	4.01408E-004	0.00000E+000	2.50021E-004	2.40040E-001	6.23049E-001	3.57700E+000	9	...........
	32	0.44	6.29134E-001	4.01019E-004	0.00000E+000	2.52295E-004	2.40040E-001	6.29366E-001	3.57700E+000	9	...........
	33	0.453333	6.35374E-001	4.01272E-004	0.00000E+000	2.54958E-004	2.40040E-001	6.35592E-001	3.57700E+000	9	...........
	34	0.466667	6.41581E-001	4.00036E-004	0.00000E+000	2.56656E-004	2.40040E-001	6.41812E-001	3.57700E+000	9	...........
	35	0.48	6.47803E-001	4.01991E-004	0.00000E+000	2.60411E-004	2.40040E-001	6.48012E-001	3.57700E+000	9	...........
	36	0.493333	6.53982E-001	3.99820E-004	0.00000E+000	2.61475E-004	2.40040E-001	6.54199E-001	3.57700E+000	9	...........
	37	0.506667	6.60127E-001	4.00771E-004	0.00000E+000	2.64560E-004	2.40040E-001	6.60348E-001	3.57700E+000	9	...........
	38	0.52	6.66335E-001	4.00796E-004	0.00000E+000	2.67064E-004	2.40040E-001	6.66568E-001	3.57700E+000	9	...........
	39	0.533333	6.72452E-001	3.99827E-004	0.00000E+000	2.68865E-004	2.40040E-001	6.72670E-001	3.57700E+000	9	...........
	40	0.546667	6.78541E-001	4.01434E-004	0.00000E+000	2.72389E-004	2.40040E-001	6.78783E-001	3.57700E+000	9	...........
	41	0.56	6.84573E-001	4.01600E-004	0.00000E+000	2.74925E-004	2.40040E-001	6.84808E-001	3.57700E+000	9	...........
	42	0.573333	6.90624E-001	4.00617E-004	0.00000E+000	2.76676E-004	2.40040E-001	6.90828E-001	3.57700E+000	9	...........
	43	0.586667	6.96640E-001	4.00849E-004	0.00000E+000	2.79248E-004	2.40040E-001	6.96869E-001	3.57700E+000	9	...........
	44	0.6	7.02629E-001	4.00546E-004	0.00000E+000	2.81435E-004	2.40040E-001	7.02842E-001	3.57700E+000	9	...........
	45	0.613333	7.08545E-001	4.01373E-004	0.00000E+000	2.84391E-004	2.40040E-001	7.08788E-001	3.57700E+000	9	...........
	46	0.626667	7.14531E-001	4.01191E-004	0.00000E+000	2.86663E-004	2.40040E-001	7.14760E-001	3.57700E+000	9	...........
	47	0.64	7.20488E-001	4.01415E-004	0.00000E+000	2.89215E-004	2.40040E-001	7.20688E-001	3.57700E+000	9	...........
	48	0.653333	7.26271E-001	4.01822E-004	0.00000E+000	2.91832E-004	2.40040E-001	7.26465E-001	3.57700E+000	9	...........
	49	0.666667	7.32074E-001	4.00670E-004	0.00000E+000	2.93320E-004	2.40040E-001	7.32320E-001	3.57700E+000	9	...........
	50	0.68	7.37887E-001	4.00507E-004	0.00000E+000	2.95529E-004	2.40040E-001	7.38133E-001	3.57700E+000	9	...........
	51	0.693333	7.43676E-001	4.00832E-004	0.00000E+000	2.98090E-004	2.40040E-001	7.43910E-001	3.57700E+000	9	...........
	52	0.706667	7.49378E-001	4.00570E-004	0.00000E+000	3.00178E-004	2.40040E-001	7.49605E-001	3.57700E+000	9	...........
	53	0.72	7.55137E-001	4.01486E-004	0.00000E+000	3.03177E-004	2.40040E-001	7.55377E-001	3.57700E+000	9	...........
	54	0.733333	7.60865E-001	4.00830E-004	0.00000E+000	3.04978E-004	2.40040E-001	7.61090E-001	3.57700E+000	9	...........
	55	0.746667	7.66521E-001	4.00666E-004	0.00000E+000	3.07119E-004	2.40040E-001	7.66792E-001	3.57700E+000	9	...........
	56	0.76	7.72212E-001	4.01558E-004	0.00000E+000	3.10088E-004	2.40040E-001	7.72435E-001	3.57700E+000	9	...........
	57	0.773333	7.77789E-001	4.01685E-004	0.00000E+000	3.12426E-004	2.40040E-001	7.78059E-001	3.57700E+000	9	...........
	58	0.786667	7.83341E-001	3.99117E-004	0.00000E+000	3.12644E-004	2.40040E-001	7.83605E-001	3.57700E+000	9	...........
	59	0.8	7.88878E-001	4.01003E-004	0.00000E+000	3.16343E-004	2.40040E-001	7.89117E-001	3.57700E+000	9	...........
	60	0.813333	7.94340E-001	4.01187E-004	0.00000E+000	3.18679E-004	2.40040E-001	7.94613E-001	3.57700E+000	9	...........
	61	0.826667	7.99768E-001	3.99425E-004	0.00000E+000	3.19447E-004	2.40040E-001	8.00015E-001	3.57700E+000	9	...........
	62	0.84	8.05174E-001	4.00553E-004	0.00000E+000	3.22515E-004	2.40040E-001	8.05450E-001	3.57700E+000	9	...........
	63	0.853333	8.10546E-001	4.00349E-004	0.00000E+000	3.24501E-004	2.40040E-001	8.10801E-001	3.57720E+000	9	...........
	64	0.866667	8.15824E-001	4.00871E-004	0.00000E+000	3.27040E-004	2.40040E-001	8.16138E-001	3.57780E+000	9	...........
	65	0.88	8.21119E-001	4.01642E-004	0.00000E+000	3.29796E-004	2.40040E-001	8.21388E-001	3.57780E+000	9	...........
	66	0.893333	8.26329E-001	4.00837E-004	0.00000E+000	3.31223E-004	2.40040E-001	8.26603E-001	3.57780E+000	9	...........
	67	0.906667	8.31511E-001	4.01155E-004	0.00000E+000	3.33565E-004	2.40040E-001	8.31786E-001	3.57780E+000	9	...........
	68	0.92	8.36679E-001	4.01275E-004	0.00000E+000	3.35739E-004	2.40040E-001	8.36992E-001	3.57780E+000	9	...........
	69	0.933333	8.41776E-001	4.01239E-004	0.00000E+000	3.37753E-004	2.40040E-001	8.42093E-001	3.57780E+000	9	...........
	70	0.946667	8.46929E-001	4.00289E-004	0.00000E+000	3.39016E-004	2.40040E-001	8.47226E-001	3.57780E+000	9	...........
	71	0.96	8.52001E-001	4.00200E-004	0.00000E+000	3.40971E-004	2.40040E-001	8.52284E-001	3.57780E+000	9	...........
	72	0.97333	8.57017E-001	4.01425E-004	0.00000E+000	3.44028E-004	2.40040E-001	8.57331E-001	3.57780E+000	9	...........
	73	0.98667	8.62064E-001	4.01845E-004	0.00000E+000	3.46416E-004	2.40040E-001	8.62348E-001	3.57780E+000	9	...........
	74	1	8.66989E-001	4.01930E-004	0.00000E+000	3.48469E-004	2.40040E-001	8.67306E-001	3.57780E+000	9	...........
	75	1.01333	8.71942E-001	4.01056E-004	0.00000E+000	3.49698E-004	2.40040E-001	8.72219E-001	3.57780E+000	9	...........
	76	1.02667	8.76778E-001	4.00459E-004	0.00000E+000	3.51114E-004	2.40040E-001	8.77046E-001	3.57780E+000	9	...........
	77	1.04	8.81621E-001	4.01100E-004	0.00000E+000	3.53618E-004	2.40040E-001	8.81903E-001	3.57780E+000	9	...........
	78	1.05333	8.86429E-001	4.01750E-004	0.00000E+000	3.56123E-004	2.40040E-001	8.86704E-001	3.57780E+000	9	...........
	79	1.06667	8.91172E-001	4.01471E-004	0.00000E+000	3.57780E-004	2.40040E-001	8.91442E-001	3.57780E+000	9	...........
	80	1.08	8.95886E-001	4.00122E-004	0.00000E+000	3.58464E-004	2.40040E-001	8.96184E-001	3.57780E+000	9	...........
	81	1.09333	9.00564E-001	4.00548E-004	0.00000E+000	3.60719E-004	2.40040E-001	9.00848E-001	3.57780E+000	9	...........
	82	1.10667	9.05147E-001	4.02108E-004	0.00000E+000	3.63967E-004	2.40040E-001	9.05442E-001	3.57780E+000	9	...........
	83	1.12	9.09741E-001	4.00995E-004	0.00000E+000	3.64802E-004	2.40040E-001	9.10042E-001	3.57780E+000	9	...........
	84	1.13333	9.14263E-001	4.01854E-004	0.00000E+000	3.67400E-004	2.40040E-001	9.14588E-001	3.57780E+000	9	...........
	85	1.14667	9.18718E-001	4.01501E-004	0.00000E+000	3.68867E-004	2.40040E-001	9.19050E-001	3.57780E+000	9	...........
	86	1.16	9.23256E-001	4.00834E-004	0.00000E+000	3.70072E-004	2.40040E-001	9.23540E-001	3.57780E+000	9	...........
	87	1.17333	9.27736E-001	4.02010E-004	0.00000E+000	3.72959E-004	2.40040E-001	9.28014E-001	3.57780E+000	9	...........
	88	1.18667	9.32105E-001	4.00705E-004	0.00000E+000	3.73499E-004	2.40040E-001	9.32388E-001	3.57780E+000	9	...........
	89	1.2	9.36466E-001	4.00458E-004	0.00000E+000	3.75016E-004	2.40040E-001	9.36750E-001	3.57780E+000	9	...........
	90	1.21333	9.40818E-001	4.00689E-004	0.00000E+000	3.76975E-004	2.40040E-001	9.41110E-001	3.57780E+000	9	...........
	91	1.22667	9.45096E-001	4.00655E-004	0.00000E+000	3.78658E-004	2.40040E-001	9.45409E-001	3.57780E+000	9	...........
	92	1.24	9.49337E-001	4.00729E-004	0.00000E+000	3.80427E-004	2.40040E-001	9.49610E-001	3.57780E+000	9	...........
	93	1.25333	9.53478E-001	3.99475E-004	0.00000E+000	3.80890E-004	2.40040E-001	9.53739E-001	3.57780E+000	9	...........
	94	1.26667	9.57588E-001	4.00860E-004	0.00000E+000	3.83858E-004	2.40040E-001	9.57868E-001	3.57780E+000	9	...........
	95	1.28	9.61671E-001	4.01446E-004	0.00000E+000	3.86059E-004	2.40040E-001	9.61975E-001	3.57780E+000	9	...........
	96	1.29333	9.65736E-001	3.99660E-004	0.00000E+000	3.85966E-004	2.40040E-001	9.66034E-001	3.57780E+000	9	...........
	97	1.30667	9.69726E-001	4.01244E-004	0.00000E+000	3.89097E-004	2.40040E-001	9.70063E-001	3.57780E+000	9	...........
	98	1.32	9.73718E-001	4.01855E-004	0.00000E+000	3.91293E-004	2.40040E-001	9.74003E-001	3.57780E+000	9	...........
	99	1.33333	9.77615E-001	4.01892E-004	0.00000E+000	3.92896E-004	2.40040E-001	9.77891E-001	3.57780E+000	9	...........
	100	1.34667	9.81467E-001	4.00567E-004	0.00000E+000	3.93143E-004	2.40040E-001	9.81729E-001	3.57780E+000	9	...........
	101	1.36	9.85302E-001	4.00708E-004	0.00000E+000	3.94819E-004	2.40040E-001	9.85599E-001	3.57780E+000	9	...........
	102	1.37333	9.89155E-001	4.01866E-004	0.00000E+000	3.97508E-004	2.40040E-001	9.89429E-001	3.57780E+000	9	...........
	103	1.38667	9.92886E-001	3.99919E-004	0.00000E+000	3.97074E-004	2.40040E-001	9.93170E-001	3.57780E+000	9	...........
	104	1.4	9.96577E-001	4.00658E-004	0.00000E+000	3.99287E-004	2.40040E-001	9.96885E-001	3.57780E+000	9	...........
	105	1.40833	9.99542E-001	4.00627E-004	0.00000E+000	4.00444E-004	2.40040E-001	9.99843E-001	3.57780E+000	9	...........
STARTTIMEOFFSET	QUANT	2887.505	Start Time Offset (s)
