EXPLAIN
TAG	PWR800_CHARGE
TITLE	LABEL	PWR Cyclic Charge Discharge (Cell) - Charge Step	Test &Identifier
DATE	LABEL	12-7-2017	Date
TIME	LABEL	14:50:35	Time
NOTES	NOTES	3	&Notes...
	supercap test cell
	0.4mg
	6M KOH
PSTAT	PSTAT	IFC5000-01520	Potentiostat
CAPACITY	QUANT	1.00000E-003	Capacity (A-hr)
CELLTYPE	SELECTOR	1	&Cell Type
WORKINGCONNECTION	SELECTOR	0	&Working Lead
MAXCHARGETIME	VARIABLEANDUNITS	1.00000E+002	s	1.00000E+002	second(s)	Max &Charge Time
CHARGECURRENT	QUANT	4.00000E-004	&Charge Current (A) 
VOLTAGEFINISH	TWOPARAM	F	1.00000E-003	3.60000E+003	&Voltage Finish	 I (A) < 	Max Time(s)
SAMPLETIME	QUANT	1.00000E-002	Sa&mple Period (s)
CHARGESTOPAT1	MULTIPARAM	4	1.00000E+000	Charge Stop At &1	Voltage > Limit	V
CHARGESTOPAT2	MULTIPARAM	0	0.00000E+000	Charge Stop At &2	None	N/A
AESBHCSELECTOR	TOGGLE	F	Save Both Half Cells
IRCOMP	TOGGLE	F	IR &Measure
EOC	QUANT	0	Open Circuit (V)
SEQUENCER	TOGGLE	TRUE	Run as Sequence
PSTATMODEL	IQUANT	53	Pstat Model
PSTATSECTION	LABEL	IFC5000-01520	Pstat Section
PSTATSERIALNO	LABEL	01520	Pstat Serial Number
CTRLMODE	IQUANT	0	Control Mode
ELECTROMETER	IQUANT	1	RE=0 or CS=1
IESTAB	IQUANT	0	I/E Stability
CASPEED	IQUANT	4	Control Amp Speed
CONVENTION	IQUANT	1	Current Convention
ICHRANGE	IQUANT	2	Ich Range
ICHRANGEMODE	TOGGLE	T	Ich Auto Range
ICHOFFSETENABLE	TOGGLE	F	Ich Offset Enable
ICHOFFSET	QUANT	0	Ich Offset (V)
ICHFILTER	IQUANT	1	Ich Filter
VCHRANGE	IQUANT	2	Vch Range
VCHRANGEMODE	TOGGLE	T	Vch Auto Range
VCHOFFSETENABLE	TOGGLE	F	Vch Offset Enable
VCHOFFSET	QUANT	0	Vch Offset (V)
VCHFILTER	IQUANT	1	Vch Filter
IERANGELOWERLIMIT	IQUANT	9	I/E Range Lower Limit
IERANGEMODE	TOGGLE	F	I/E AutoRange
IERANGE	IQUANT	9	I/E Range
ACHSELECT	IQUANT	1	Ach Select
ACHRANGE	IQUANT	2	Ach Range
ACHOFFSETENABLE	TOGGLE	F	Ach Offset Enable
ACHOFFSET	QUANT	0	Ach Offset (V)
ACHFILTER	IQUANT	1	Ach Filter
CABLEID	IQUANT	14	Cable ID
DCCALDATE	LABEL	5-7-2017	DC Calibration Date
ACCALDATE	LABEL	12/3/2015	AC Calibration Date
FRAMEWORKVERSION	QUANT	7.01	Framework Version
INSTRUMENTVERSION	LABEL	4.00	Instrument Version
CURVE	TABLE	118
	Pt	T	Vf	Im	Vu	Pwr	Sig	Ach	Temp	IERange	Over
	#	s	V	A	V	W	V	V	deg C	#	bits
	0	0.013333	3.64831E-001	4.00638E-004	0.00000E+000	1.46165E-004	2.40040E-001	3.64924E-001	3.57670E+000	9	...........
	1	0.026667	3.76419E-001	4.02502E-004	0.00000E+000	1.51509E-004	2.40040E-001	3.76492E-001	3.57670E+000	9	...........
	2	0.04	3.86334E-001	4.01528E-004	0.00000E+000	1.55124E-004	2.40040E-001	3.86415E-001	3.57670E+000	9	...........
	3	0.053333	3.95299E-001	4.01506E-004	0.00000E+000	1.58715E-004	2.40040E-001	3.95377E-001	3.57670E+000	9	...........
	4	0.066667	4.03745E-001	4.00676E-004	0.00000E+000	1.61771E-004	2.40040E-001	4.03826E-001	3.57670E+000	9	...........
	5	0.08	4.11845E-001	4.00819E-004	0.00000E+000	1.65075E-004	2.40040E-001	4.11930E-001	3.57670E+000	9	...........
	6	0.093333	4.19622E-001	4.01021E-004	0.00000E+000	1.68277E-004	2.40040E-001	4.19704E-001	3.57670E+000	9	...........
	7	0.106667	4.27128E-001	4.00747E-004	0.00000E+000	1.71170E-004	2.40040E-001	4.27218E-001	3.57670E+000	9	...........
	8	0.12	4.34408E-001	4.01237E-004	0.00000E+000	1.74300E-004	2.40040E-001	4.34494E-001	3.57670E+000	9	...........
	9	0.133333	4.41501E-001	4.01593E-004	0.00000E+000	1.77304E-004	2.40040E-001	4.41594E-001	3.57670E+000	9	...........
	10	0.146667	4.48491E-001	4.01698E-004	0.00000E+000	1.80158E-004	2.40040E-001	4.48577E-001	3.57670E+000	9	...........
	11	0.16	4.55380E-001	4.00754E-004	0.00000E+000	1.82495E-004	2.40040E-001	4.55469E-001	3.57670E+000	9	...........
	12	0.173333	4.62157E-001	4.00999E-004	0.00000E+000	1.85325E-004	2.40040E-001	4.62252E-001	3.57670E+000	9	...........
	13	0.186667	4.68865E-001	4.00375E-004	0.00000E+000	1.87722E-004	2.40040E-001	4.68966E-001	3.57670E+000	9	...........
	14	0.2	4.75526E-001	4.01010E-004	0.00000E+000	1.90690E-004	2.40040E-001	4.75623E-001	3.57670E+000	9	...........
	15	0.213333	4.81987E-001	4.03125E-004	0.00000E+000	1.94301E-004	2.40040E-001	4.82086E-001	3.57670E+000	9	...........
	16	0.226667	4.88427E-001	4.00985E-004	0.00000E+000	1.95852E-004	2.40040E-001	4.88526E-001	3.57670E+000	9	...........
	17	0.24	4.94919E-001	4.00302E-004	0.00000E+000	1.98117E-004	2.40040E-001	4.95022E-001	3.57670E+000	9	...........
	18	0.253333	5.01302E-001	4.01375E-004	0.00000E+000	2.01210E-004	2.40040E-001	5.01400E-001	3.57670E+000	9	...........
	19	0.266667	5.07639E-001	4.00963E-004	0.00000E+000	2.03544E-004	2.40040E-001	5.07744E-001	3.57670E+000	9	...........
	20	0.28	5.13903E-001	4.01813E-004	0.00000E+000	2.06493E-004	2.40040E-001	5.14008E-001	3.57670E+000	9	...........
	21	0.293333	5.20140E-001	4.01463E-004	0.00000E+000	2.08817E-004	2.40040E-001	5.20245E-001	3.57670E+000	9	...........
	22	0.306667	5.26417E-001	4.00682E-004	0.00000E+000	2.10926E-004	2.40040E-001	5.26519E-001	3.57670E+000	9	...........
	23	0.32	5.32394E-001	3.99628E-004	0.00000E+000	2.12760E-004	2.40040E-001	5.32506E-001	3.57670E+000	9	...........
	24	0.333333	5.38290E-001	4.01200E-004	0.00000E+000	2.15962E-004	2.40040E-001	5.38484E-001	3.57670E+000	9	...........
	25	0.346667	5.44454E-001	4.01101E-004	0.00000E+000	2.18381E-004	2.40040E-001	5.44641E-001	3.57670E+000	9	...........
	26	0.36	5.50555E-001	4.01951E-004	0.00000E+000	2.21296E-004	2.40040E-001	5.50730E-001	3.57670E+000	9	...........
	27	0.373333	5.56521E-001	4.01672E-004	0.00000E+000	2.23539E-004	2.40040E-001	5.56749E-001	3.57670E+000	9	...........
	28	0.386667	5.62472E-001	4.01710E-004	0.00000E+000	2.25950E-004	2.40040E-001	5.62696E-001	3.57670E+000	9	...........
	29	0.4	5.68443E-001	4.00795E-004	0.00000E+000	2.27829E-004	2.40040E-001	5.68647E-001	3.57670E+000	9	...........
	30	0.413333	5.74400E-001	4.00152E-004	0.00000E+000	2.29847E-004	2.40040E-001	5.74641E-001	3.57670E+000	9	...........
	31	0.426667	5.80263E-001	4.01445E-004	0.00000E+000	2.32944E-004	2.40040E-001	5.80512E-001	3.57670E+000	9	...........
	32	0.44	5.86153E-001	4.01056E-004	0.00000E+000	2.35080E-004	2.40040E-001	5.86398E-001	3.57670E+000	9	...........
	33	0.453333	5.92065E-001	4.01855E-004	0.00000E+000	2.37924E-004	2.40040E-001	5.92302E-001	3.57670E+000	9	...........
	34	0.466667	5.97877E-001	4.00881E-004	0.00000E+000	2.39678E-004	2.40040E-001	5.98122E-001	3.57670E+000	9	...........
	35	0.48	6.03671E-001	4.00307E-004	0.00000E+000	2.41654E-004	2.40040E-001	6.03936E-001	3.57670E+000	9	...........
	36	0.493333	6.09492E-001	4.01151E-004	0.00000E+000	2.44498E-004	2.40040E-001	6.09751E-001	3.57670E+000	9	...........
	37	0.506667	6.15349E-001	4.00812E-004	0.00000E+000	2.46639E-004	2.40040E-001	6.15582E-001	3.57670E+000	9	...........
	38	0.52	6.21121E-001	4.00749E-004	0.00000E+000	2.48914E-004	2.40040E-001	6.21327E-001	3.57670E+000	9	...........
	39	0.533333	6.26856E-001	4.01190E-004	0.00000E+000	2.51488E-004	2.40040E-001	6.27086E-001	3.57670E+000	9	...........
	40	0.546667	6.32554E-001	3.99435E-004	0.00000E+000	2.52664E-004	2.40040E-001	6.32793E-001	3.57670E+000	9	...........
	41	0.56	6.38295E-001	4.00212E-004	0.00000E+000	2.55453E-004	2.40040E-001	6.38517E-001	3.57670E+000	9	...........
	42	0.573333	6.43978E-001	4.00400E-004	0.00000E+000	2.57849E-004	2.40040E-001	6.44217E-001	3.57670E+000	9	...........
	43	0.586667	6.49689E-001	4.00461E-004	0.00000E+000	2.60175E-004	2.40040E-001	6.49933E-001	3.57670E+000	9	...........
	44	0.6	6.55309E-001	3.99558E-004	0.00000E+000	2.61834E-004	2.40040E-001	6.55548E-001	3.57670E+000	9	...........
	45	0.613333	6.60902E-001	4.01700E-004	0.00000E+000	2.65485E-004	2.40040E-001	6.61123E-001	3.57670E+000	9	...........
	46	0.626667	6.66526E-001	4.01582E-004	0.00000E+000	2.67665E-004	2.40040E-001	6.66753E-001	3.57670E+000	9	...........
	47	0.64	6.72121E-001	4.01178E-004	0.00000E+000	2.69640E-004	2.40040E-001	6.72355E-001	3.57670E+000	9	...........
	48	0.653333	6.77688E-001	3.99455E-004	0.00000E+000	2.70706E-004	2.40040E-001	6.77944E-001	3.57670E+000	9	...........
	49	0.666667	6.83266E-001	4.01847E-004	0.00000E+000	2.74569E-004	2.40040E-001	6.83479E-001	3.57670E+000	9	...........
	50	0.68	6.88831E-001	4.00951E-004	0.00000E+000	2.76188E-004	2.40040E-001	6.89039E-001	3.57670E+000	9	...........
	51	0.693333	6.94321E-001	4.00737E-004	0.00000E+000	2.78240E-004	2.40040E-001	6.94533E-001	3.57670E+000	9	...........
	52	0.706667	6.99813E-001	4.00597E-004	0.00000E+000	2.80343E-004	2.40040E-001	7.00023E-001	3.57670E+000	9	...........
	53	0.72	7.05317E-001	4.00382E-004	0.00000E+000	2.82397E-004	2.40040E-001	7.05550E-001	3.57670E+000	9	...........
	54	0.733333	7.10823E-001	4.01804E-004	0.00000E+000	2.85611E-004	2.40040E-001	7.11035E-001	3.57670E+000	9	...........
	55	0.746667	7.16400E-001	4.00603E-004	0.00000E+000	2.86992E-004	2.40040E-001	7.16629E-001	3.57670E+000	9	...........
	56	0.76	7.21926E-001	4.02775E-004	0.00000E+000	2.90773E-004	2.40040E-001	7.22118E-001	3.57670E+000	9	...........
	57	0.773333	7.27359E-001	4.02453E-004	0.00000E+000	2.92728E-004	2.40040E-001	7.27575E-001	3.57670E+000	9	...........
	58	0.786667	7.32690E-001	4.00850E-004	0.00000E+000	2.93699E-004	2.40040E-001	7.32938E-001	3.57670E+000	9	...........
	59	0.8	7.38028E-001	4.00753E-004	0.00000E+000	2.95767E-004	2.40040E-001	7.38278E-001	3.57670E+000	9	...........
	60	0.813333	7.43377E-001	4.00747E-004	0.00000E+000	2.97906E-004	2.40040E-001	7.43618E-001	3.57670E+000	9	...........
	61	0.826667	7.48692E-001	4.00029E-004	0.00000E+000	2.99499E-004	2.40040E-001	7.48929E-001	3.57670E+000	9	...........
	62	0.84	7.53975E-001	4.01272E-004	0.00000E+000	3.02549E-004	2.40040E-001	7.54209E-001	3.57670E+000	9	...........
	63	0.853333	7.59177E-001	4.01251E-004	0.00000E+000	3.04621E-004	2.40040E-001	7.59411E-001	3.57670E+000	9	...........
	64	0.866667	7.64419E-001	3.99930E-004	0.00000E+000	3.05714E-004	2.40040E-001	7.64664E-001	3.57681E+000	9	...........
	65	0.88	7.69640E-001	4.00564E-004	0.00000E+000	3.08290E-004	2.40040E-001	7.69881E-001	3.57760E+000	9	...........
	66	0.893333	7.74872E-001	4.00977E-004	0.00000E+000	3.10706E-004	2.40040E-001	7.75105E-001	3.57760E+000	9	...........
	67	0.906667	7.80067E-001	4.02116E-004	0.00000E+000	3.13678E-004	2.40040E-001	7.80312E-001	3.57760E+000	9	...........
	68	0.92	7.85245E-001	4.00393E-004	0.00000E+000	3.14407E-004	2.40040E-001	7.85454E-001	3.57760E+000	9	...........
	69	0.933333	7.90376E-001	4.00159E-004	0.00000E+000	3.16276E-004	2.40040E-001	7.90597E-001	3.57760E+000	9	...........
	70	0.946667	7.95544E-001	4.00674E-004	0.00000E+000	3.18754E-004	2.40040E-001	7.95755E-001	3.57760E+000	9	...........
	71	0.96	8.00650E-001	4.00766E-004	0.00000E+000	3.20873E-004	2.40040E-001	8.00885E-001	3.57760E+000	9	...........
	72	0.97333	8.05742E-001	4.00322E-004	0.00000E+000	3.22556E-004	2.40040E-001	8.06000E-001	3.57760E+000	9	...........
	73	0.98667	8.10800E-001	4.00490E-004	0.00000E+000	3.24717E-004	2.40040E-001	8.11056E-001	3.57760E+000	9	...........
	74	1	8.15789E-001	4.00731E-004	0.00000E+000	3.26912E-004	2.40040E-001	8.16050E-001	3.57760E+000	9	...........
	75	1.01333	8.20817E-001	4.00922E-004	0.00000E+000	3.29084E-004	2.40040E-001	8.21078E-001	3.57760E+000	9	...........
	76	1.02667	8.25688E-001	4.00885E-004	0.00000E+000	3.31006E-004	2.40040E-001	8.25985E-001	3.57760E+000	9	...........
	77	1.04	8.30572E-001	4.00389E-004	0.00000E+000	3.32552E-004	2.40040E-001	8.30866E-001	3.57760E+000	9	...........
	78	1.05333	8.35531E-001	4.01658E-004	0.00000E+000	3.35598E-004	2.40040E-001	8.35821E-001	3.57760E+000	9	...........
	79	1.06667	8.40331E-001	4.00601E-004	0.00000E+000	3.36638E-004	2.40040E-001	8.40603E-001	3.57760E+000	9	...........
	80	1.08	8.45103E-001	4.01289E-004	0.00000E+000	3.39130E-004	2.40040E-001	8.45379E-001	3.57760E+000	9	...........
	81	1.09333	8.49914E-001	4.00974E-004	0.00000E+000	3.40794E-004	2.40040E-001	8.50207E-001	3.57760E+000	9	...........
	82	1.10667	8.54627E-001	4.00726E-004	0.00000E+000	3.42472E-004	2.40040E-001	8.54922E-001	3.57760E+000	9	...........
	83	1.12	8.59365E-001	4.00127E-004	0.00000E+000	3.43855E-004	2.40040E-001	8.59663E-001	3.57760E+000	9	...........
	84	1.13333	8.64016E-001	4.00780E-004	0.00000E+000	3.46281E-004	2.40040E-001	8.64309E-001	3.57760E+000	9	...........
	85	1.14667	8.68693E-001	4.00508E-004	0.00000E+000	3.47919E-004	2.40040E-001	8.68979E-001	3.57760E+000	9	...........
	86	1.16	8.73312E-001	4.00856E-004	0.00000E+000	3.50073E-004	2.40040E-001	8.73617E-001	3.57760E+000	9	...........
	87	1.17333	8.77905E-001	4.00837E-004	0.00000E+000	3.51896E-004	2.40040E-001	8.78199E-001	3.57760E+000	9	...........
	88	1.18667	8.82384E-001	4.00875E-004	0.00000E+000	3.53726E-004	2.40040E-001	8.82662E-001	3.57760E+000	9	...........
	89	1.2	8.86910E-001	4.00307E-004	0.00000E+000	3.55037E-004	2.40040E-001	8.87203E-001	3.57760E+000	9	...........
	90	1.21333	8.91423E-001	4.01612E-004	0.00000E+000	3.58006E-004	2.40040E-001	8.91690E-001	3.57760E+000	9	...........
	91	1.22667	8.95876E-001	4.00508E-004	0.00000E+000	3.58806E-004	2.40040E-001	8.96180E-001	3.57760E+000	9	...........
	92	1.24	9.00289E-001	4.01091E-004	0.00000E+000	3.61098E-004	2.40040E-001	9.00575E-001	3.57760E+000	9	...........
	93	1.25333	9.04632E-001	4.01186E-004	0.00000E+000	3.62925E-004	2.40040E-001	9.04942E-001	3.57760E+000	9	...........
	94	1.26667	9.08964E-001	4.00792E-004	0.00000E+000	3.64305E-004	2.40040E-001	9.09277E-001	3.57760E+000	9	...........
	95	1.28	9.13324E-001	4.00748E-004	0.00000E+000	3.66013E-004	2.40040E-001	9.13644E-001	3.57760E+000	9	...........
	96	1.29333	9.17641E-001	4.01135E-004	0.00000E+000	3.68097E-004	2.40040E-001	9.17962E-001	3.57760E+000	9	...........
	97	1.30667	9.21960E-001	3.99911E-004	0.00000E+000	3.68702E-004	2.40040E-001	9.22239E-001	3.57760E+000	9	...........
	98	1.32	9.26194E-001	4.01974E-004	0.00000E+000	3.72306E-004	2.40040E-001	9.26462E-001	3.57760E+000	9	...........
	99	1.33333	9.30353E-001	4.00356E-004	0.00000E+000	3.72473E-004	2.40040E-001	9.30645E-001	3.57760E+000	9	...........
	100	1.34667	9.34504E-001	4.02709E-004	0.00000E+000	3.76333E-004	2.40040E-001	9.34805E-001	3.57760E+000	9	...........
	101	1.36	9.38616E-001	4.01706E-004	0.00000E+000	3.77047E-004	2.40040E-001	9.38899E-001	3.57760E+000	9	...........
	102	1.37333	9.42642E-001	4.00199E-004	0.00000E+000	3.77245E-004	2.40040E-001	9.42905E-001	3.57760E+000	9	...........
	103	1.38667	9.46651E-001	4.01108E-004	0.00000E+000	3.79709E-004	2.40040E-001	9.46901E-001	3.57760E+000	9	...........
	104	1.4	9.50607E-001	3.99934E-004	0.00000E+000	3.80180E-004	2.40040E-001	9.50863E-001	3.57760E+000	9	...........
	105	1.41333	9.54530E-001	4.01226E-004	0.00000E+000	3.82983E-004	2.40040E-001	9.54783E-001	3.57760E+000	9	...........
	106	1.42667	9.58511E-001	4.01502E-004	0.00000E+000	3.84844E-004	2.40040E-001	9.58785E-001	3.57760E+000	9	...........
	107	1.44	9.62356E-001	4.00503E-004	0.00000E+000	3.85427E-004	2.40040E-001	9.62643E-001	3.57760E+000	9	...........
	108	1.45333	9.66221E-001	4.00208E-004	0.00000E+000	3.86690E-004	2.40040E-001	9.66515E-001	3.57760E+000	9	...........
	109	1.46667	9.69961E-001	4.01751E-004	0.00000E+000	3.89683E-004	2.40040E-001	9.70246E-001	3.57760E+000	9	...........
	110	1.48	9.73763E-001	4.01801E-004	0.00000E+000	3.91259E-004	2.40040E-001	9.74041E-001	3.57760E+000	9	...........
	111	1.49333	9.77463E-001	4.01979E-004	0.00000E+000	3.92919E-004	2.40040E-001	9.77736E-001	3.57760E+000	9	...........
	112	1.50667	9.81115E-001	4.01668E-004	0.00000E+000	3.94083E-004	2.40040E-001	9.81416E-001	3.57760E+000	9	...........
	113	1.52	9.84758E-001	4.00176E-004	0.00000E+000	3.94077E-004	2.40040E-001	9.85064E-001	3.57760E+000	9	...........
	114	1.53333	9.88330E-001	4.00224E-004	0.00000E+000	3.95554E-004	2.40040E-001	9.88650E-001	3.57760E+000	9	...........
	115	1.54667	9.91948E-001	4.01876E-004	0.00000E+000	3.98641E-004	2.40040E-001	9.92279E-001	3.57760E+000	9	...........
	116	1.56	9.95504E-001	4.01108E-004	0.00000E+000	3.99304E-004	2.40040E-001	9.95811E-001	3.57760E+000	9	...........
	117	1.57167	9.98787E-001	4.01747E-004	0.00000E+000	4.01259E-004	2.40040E-001	9.99119E-001	3.57760E+000	9	...........
STARTTIMEOFFSET	QUANT	1529.115	Start Time Offset (s)
