EXPLAIN
TAG	PWR800_CHARGE
TITLE	LABEL	PWR Cyclic Charge Discharge (Cell) - Charge Step	Test &Identifier
DATE	LABEL	12-7-2017	Date
TIME	LABEL	14:27:24	Time
NOTES	NOTES	3	&Notes...
	supercap test cell
	0.4mg
	6M KOH
PSTAT	PSTAT	IFC5000-01520	Potentiostat
CAPACITY	QUANT	1.00000E-003	Capacity (A-hr)
CELLTYPE	SELECTOR	1	&Cell Type
WORKINGCONNECTION	SELECTOR	0	&Working Lead
MAXCHARGETIME	VARIABLEANDUNITS	1.00000E+002	s	1.00000E+002	second(s)	Max &Charge Time
CHARGECURRENT	QUANT	4.00000E-004	&Charge Current (A) 
VOLTAGEFINISH	TWOPARAM	F	1.00000E-003	3.60000E+003	&Voltage Finish	 I (A) < 	Max Time(s)
SAMPLETIME	QUANT	1.00000E-002	Sa&mple Period (s)
CHARGESTOPAT1	MULTIPARAM	4	1.00000E+000	Charge Stop At &1	Voltage > Limit	V
CHARGESTOPAT2	MULTIPARAM	0	0.00000E+000	Charge Stop At &2	None	N/A
AESBHCSELECTOR	TOGGLE	F	Save Both Half Cells
IRCOMP	TOGGLE	F	IR &Measure
EOC	QUANT	0	Open Circuit (V)
SEQUENCER	TOGGLE	TRUE	Run as Sequence
PSTATMODEL	IQUANT	53	Pstat Model
PSTATSECTION	LABEL	IFC5000-01520	Pstat Section
PSTATSERIALNO	LABEL	01520	Pstat Serial Number
CTRLMODE	IQUANT	0	Control Mode
ELECTROMETER	IQUANT	1	RE=0 or CS=1
IESTAB	IQUANT	0	I/E Stability
CASPEED	IQUANT	4	Control Amp Speed
CONVENTION	IQUANT	1	Current Convention
ICHRANGE	IQUANT	2	Ich Range
ICHRANGEMODE	TOGGLE	T	Ich Auto Range
ICHOFFSETENABLE	TOGGLE	F	Ich Offset Enable
ICHOFFSET	QUANT	0	Ich Offset (V)
ICHFILTER	IQUANT	1	Ich Filter
VCHRANGE	IQUANT	2	Vch Range
VCHRANGEMODE	TOGGLE	T	Vch Auto Range
VCHOFFSETENABLE	TOGGLE	F	Vch Offset Enable
VCHOFFSET	QUANT	0	Vch Offset (V)
VCHFILTER	IQUANT	1	Vch Filter
IERANGELOWERLIMIT	IQUANT	9	I/E Range Lower Limit
IERANGEMODE	TOGGLE	F	I/E AutoRange
IERANGE	IQUANT	9	I/E Range
ACHSELECT	IQUANT	1	Ach Select
ACHRANGE	IQUANT	2	Ach Range
ACHOFFSETENABLE	TOGGLE	F	Ach Offset Enable
ACHOFFSET	QUANT	0	Ach Offset (V)
ACHFILTER	IQUANT	1	Ach Filter
CABLEID	IQUANT	14	Cable ID
DCCALDATE	LABEL	5-7-2017	DC Calibration Date
ACCALDATE	LABEL	12/3/2015	AC Calibration Date
FRAMEWORKVERSION	QUANT	7.01	Framework Version
INSTRUMENTVERSION	LABEL	4.00	Instrument Version
CURVE	TABLE	137
	Pt	T	Vf	Im	Vu	Pwr	Sig	Ach	Temp	IERange	Over
	#	s	V	A	V	W	V	V	deg C	#	bits
	0	0.013333	3.37414E-001	4.01192E-004	0.00000E+000	1.35368E-004	2.40040E-001	3.37498E-001	3.57730E+000	9	...........
	1	0.026667	3.47458E-001	4.01000E-004	0.00000E+000	1.39331E-004	2.40040E-001	3.47524E-001	3.57730E+000	9	...........
	2	0.04	3.56213E-001	4.01207E-004	0.00000E+000	1.42915E-004	2.40040E-001	3.56284E-001	3.57730E+000	9	...........
	3	0.053333	3.64234E-001	4.01335E-004	0.00000E+000	1.46180E-004	2.40040E-001	3.64304E-001	3.57730E+000	9	...........
	4	0.066667	3.71695E-001	4.00876E-004	0.00000E+000	1.49004E-004	2.40040E-001	3.71771E-001	3.57730E+000	9	...........
	5	0.08	3.78846E-001	4.00971E-004	0.00000E+000	1.51906E-004	2.40040E-001	3.78919E-001	3.57730E+000	9	...........
	6	0.093333	3.85728E-001	3.99150E-004	0.00000E+000	1.53963E-004	2.40040E-001	3.85802E-001	3.57730E+000	9	...........
	7	0.106667	3.92418E-001	4.01652E-004	0.00000E+000	1.57616E-004	2.40040E-001	3.92486E-001	3.57730E+000	9	...........
	8	0.12	3.98958E-001	4.01485E-004	0.00000E+000	1.60176E-004	2.40040E-001	3.99030E-001	3.57730E+000	9	...........
	9	0.133333	4.05358E-001	4.00480E-004	0.00000E+000	1.62338E-004	2.40040E-001	4.05438E-001	3.57730E+000	9	...........
	10	0.146667	4.11621E-001	4.00693E-004	0.00000E+000	1.64934E-004	2.40040E-001	4.11702E-001	3.57730E+000	9	...........
	11	0.16	4.17788E-001	4.01473E-004	0.00000E+000	1.67731E-004	2.40040E-001	4.17877E-001	3.57730E+000	9	...........
	12	0.173333	4.23944E-001	4.01062E-004	0.00000E+000	1.70028E-004	2.40040E-001	4.24028E-001	3.57730E+000	9	...........
	13	0.186667	4.30043E-001	4.00813E-004	0.00000E+000	1.72367E-004	2.40040E-001	4.30126E-001	3.57730E+000	9	...........
	14	0.2	4.35930E-001	4.00652E-004	0.00000E+000	1.74656E-004	2.40040E-001	4.36020E-001	3.57730E+000	9	...........
	15	0.213333	4.41805E-001	4.01861E-004	0.00000E+000	1.77544E-004	2.40040E-001	4.41895E-001	3.57730E+000	9	...........
	16	0.226667	4.47688E-001	4.01043E-004	0.00000E+000	1.79542E-004	2.40040E-001	4.47779E-001	3.57730E+000	9	...........
	17	0.24	4.53430E-001	4.00626E-004	0.00000E+000	1.81656E-004	2.40040E-001	4.53522E-001	3.57730E+000	9	...........
	18	0.253333	4.59098E-001	4.01795E-004	0.00000E+000	1.84463E-004	2.40040E-001	4.59181E-001	3.57730E+000	9	...........
	19	0.266667	4.64795E-001	4.00782E-004	0.00000E+000	1.86282E-004	2.40040E-001	4.64878E-001	3.57730E+000	9	...........
	20	0.28	4.70427E-001	4.00568E-004	0.00000E+000	1.88438E-004	2.40040E-001	4.70521E-001	3.57730E+000	9	...........
	21	0.293333	4.76094E-001	4.00910E-004	0.00000E+000	1.90871E-004	2.40040E-001	4.76188E-001	3.57730E+000	9	...........
	22	0.306667	4.81650E-001	4.00440E-004	0.00000E+000	1.92872E-004	2.40040E-001	4.81743E-001	3.57730E+000	9	...........
	23	0.32	4.87171E-001	4.01505E-004	0.00000E+000	1.95601E-004	2.40040E-001	4.87269E-001	3.57730E+000	9	...........
	24	0.333333	4.92685E-001	3.99956E-004	0.00000E+000	1.97052E-004	2.40040E-001	4.92779E-001	3.57730E+000	9	...........
	25	0.346667	4.98280E-001	4.01117E-004	0.00000E+000	1.99869E-004	2.40040E-001	4.98380E-001	3.57730E+000	9	...........
	26	0.36	5.03853E-001	4.00769E-004	0.00000E+000	2.01929E-004	2.40040E-001	5.03949E-001	3.57730E+000	9	...........
	27	0.373333	5.09320E-001	4.01752E-004	0.00000E+000	2.04620E-004	2.40040E-001	5.09421E-001	3.57730E+000	9	...........
	28	0.386667	5.14700E-001	4.01135E-004	0.00000E+000	2.06464E-004	2.40040E-001	5.14806E-001	3.57730E+000	9	...........
	29	0.4	5.20076E-001	4.00801E-004	0.00000E+000	2.08447E-004	2.40040E-001	5.20178E-001	3.57730E+000	9	...........
	30	0.413333	5.25443E-001	4.01128E-004	0.00000E+000	2.10770E-004	2.40040E-001	5.25548E-001	3.57730E+000	9	...........
	31	0.426667	5.30801E-001	4.00864E-004	0.00000E+000	2.12779E-004	2.40040E-001	5.30887E-001	3.57730E+000	9	...........
	32	0.44	5.35893E-001	4.00995E-004	0.00000E+000	2.14891E-004	2.40040E-001	5.36105E-001	3.57730E+000	9	...........
	33	0.453333	5.41240E-001	4.01395E-004	0.00000E+000	2.17251E-004	2.40040E-001	5.41444E-001	3.57730E+000	9	...........
	34	0.466667	5.46495E-001	4.00404E-004	0.00000E+000	2.18819E-004	2.40040E-001	5.46701E-001	3.57730E+000	9	...........
	35	0.48	5.51793E-001	4.01096E-004	0.00000E+000	2.21322E-004	2.40040E-001	5.52014E-001	3.57700E+000	9	...........
	36	0.493333	5.57007E-001	4.00021E-004	0.00000E+000	2.22815E-004	2.40040E-001	5.57216E-001	3.57650E+000	9	...........
	37	0.506667	5.62268E-001	3.99755E-004	0.00000E+000	2.24770E-004	2.40040E-001	5.62457E-001	3.57650E+000	9	...........
	38	0.52	5.67466E-001	4.01576E-004	0.00000E+000	2.27881E-004	2.40040E-001	5.67660E-001	3.57650E+000	9	...........
	39	0.533333	5.72744E-001	4.02363E-004	0.00000E+000	2.30451E-004	2.40040E-001	5.72938E-001	3.57650E+000	9	...........
	40	0.546667	5.77903E-001	4.00322E-004	0.00000E+000	2.31347E-004	2.40040E-001	5.78096E-001	3.57650E+000	9	...........
	41	0.56	5.83006E-001	4.00090E-004	0.00000E+000	2.33255E-004	2.40040E-001	5.83225E-001	3.57650E+000	9	...........
	42	0.573333	5.88224E-001	4.01213E-004	0.00000E+000	2.36003E-004	2.40040E-001	5.88460E-001	3.57650E+000	9	...........
	43	0.586667	5.93475E-001	3.99245E-004	0.00000E+000	2.36942E-004	2.40040E-001	5.93710E-001	3.57650E+000	9	...........
	44	0.6	5.98659E-001	4.00660E-004	0.00000E+000	2.39858E-004	2.40040E-001	5.98897E-001	3.57650E+000	9	...........
	45	0.613333	6.03782E-001	4.01413E-004	0.00000E+000	2.42366E-004	2.40040E-001	6.04028E-001	3.57650E+000	9	...........
	46	0.626667	6.08931E-001	4.01519E-004	0.00000E+000	2.44498E-004	2.40040E-001	6.09148E-001	3.57650E+000	9	...........
	47	0.64	6.14070E-001	4.01341E-004	0.00000E+000	2.46451E-004	2.40040E-001	6.14287E-001	3.57650E+000	9	...........
	48	0.653333	6.19121E-001	4.00799E-004	0.00000E+000	2.48143E-004	2.40040E-001	6.19304E-001	3.57650E+000	9	...........
	49	0.666667	6.24161E-001	4.00839E-004	0.00000E+000	2.50188E-004	2.40040E-001	6.24346E-001	3.57650E+000	9	...........
	50	0.68	6.29260E-001	4.02442E-004	0.00000E+000	2.53241E-004	2.40040E-001	6.29487E-001	3.57650E+000	9	...........
	51	0.693333	6.34350E-001	4.00974E-004	0.00000E+000	2.54358E-004	2.40040E-001	6.34559E-001	3.57650E+000	9	...........
	52	0.706667	6.39434E-001	4.01669E-004	0.00000E+000	2.56841E-004	2.40040E-001	6.39657E-001	3.57650E+000	9	...........
	53	0.72	6.44441E-001	4.02661E-004	0.00000E+000	2.59491E-004	2.40040E-001	6.44663E-001	3.57650E+000	9	...........
	54	0.733333	6.49496E-001	4.01628E-004	0.00000E+000	2.60856E-004	2.40040E-001	6.49718E-001	3.57650E+000	9	...........
	55	0.746667	6.54548E-001	4.00486E-004	0.00000E+000	2.62137E-004	2.40040E-001	6.54764E-001	3.57650E+000	9	...........
	56	0.76	6.59588E-001	4.00886E-004	0.00000E+000	2.64419E-004	2.40040E-001	6.59813E-001	3.57650E+000	9	...........
	57	0.773333	6.64603E-001	4.01141E-004	0.00000E+000	2.66600E-004	2.40040E-001	6.64858E-001	3.57650E+000	9	...........
	58	0.786667	6.69629E-001	4.01478E-004	0.00000E+000	2.68842E-004	2.40040E-001	6.69847E-001	3.57650E+000	9	...........
	59	0.8	6.74613E-001	4.01033E-004	0.00000E+000	2.70542E-004	2.40040E-001	6.74845E-001	3.57650E+000	9	...........
	60	0.813333	6.79595E-001	4.00794E-004	0.00000E+000	2.72378E-004	2.40040E-001	6.79805E-001	3.57650E+000	9	...........
	61	0.826667	6.84561E-001	4.00519E-004	0.00000E+000	2.74179E-004	2.40040E-001	6.84765E-001	3.57650E+000	9	...........
	62	0.84	6.89546E-001	4.00500E-004	0.00000E+000	2.76163E-004	2.40040E-001	6.89765E-001	3.57650E+000	9	...........
	63	0.853333	6.94514E-001	4.00774E-004	0.00000E+000	2.78343E-004	2.40040E-001	6.94744E-001	3.57650E+000	9	...........
	64	0.866667	6.99449E-001	4.01374E-004	0.00000E+000	2.80741E-004	2.40040E-001	6.99700E-001	3.57650E+000	9	...........
	65	0.88	7.04363E-001	3.99761E-004	0.00000E+000	2.81577E-004	2.40040E-001	7.04613E-001	3.57650E+000	9	...........
	66	0.893333	7.09284E-001	4.01168E-004	0.00000E+000	2.84542E-004	2.40040E-001	7.09531E-001	3.57650E+000	9	...........
	67	0.906667	7.14177E-001	4.00331E-004	0.00000E+000	2.85907E-004	2.40040E-001	7.14413E-001	3.57650E+000	9	...........
	68	0.92	7.19060E-001	4.01396E-004	0.00000E+000	2.88628E-004	2.40040E-001	7.19285E-001	3.57650E+000	9	...........
	69	0.933333	7.23869E-001	4.01361E-004	0.00000E+000	2.90533E-004	2.40040E-001	7.24121E-001	3.57650E+000	9	...........
	70	0.946667	7.28758E-001	4.00926E-004	0.00000E+000	2.92178E-004	2.40040E-001	7.29010E-001	3.57650E+000	9	...........
	71	0.96	7.33668E-001	4.02370E-004	0.00000E+000	2.95206E-004	2.40040E-001	7.33901E-001	3.57650E+000	9	...........
	72	0.97333	7.38522E-001	4.00624E-004	0.00000E+000	2.95870E-004	2.40040E-001	7.38771E-001	3.57650E+000	9	...........
	73	0.98667	7.43347E-001	4.02236E-004	0.00000E+000	2.99001E-004	2.40040E-001	7.43620E-001	3.57650E+000	9	...........
	74	1	7.48148E-001	4.02080E-004	0.00000E+000	3.00815E-004	2.40040E-001	7.48391E-001	3.57650E+000	9	...........
	75	1.01333	7.52920E-001	4.01739E-004	0.00000E+000	3.02477E-004	2.40040E-001	7.53151E-001	3.57650E+000	9	...........
	76	1.02667	7.57708E-001	4.01726E-004	0.00000E+000	3.04391E-004	2.40040E-001	7.57954E-001	3.57650E+000	9	...........
	77	1.04	7.62468E-001	4.00419E-004	0.00000E+000	3.05307E-004	2.40040E-001	7.62711E-001	3.57650E+000	9	...........
	78	1.05333	7.67195E-001	4.01121E-004	0.00000E+000	3.07738E-004	2.40040E-001	7.67469E-001	3.57650E+000	9	...........
	79	1.06667	7.71910E-001	4.02358E-004	0.00000E+000	3.10584E-004	2.40040E-001	7.72162E-001	3.57650E+000	9	...........
	80	1.08	7.76628E-001	4.00341E-004	0.00000E+000	3.10916E-004	2.40040E-001	7.76860E-001	3.57650E+000	9	...........
	81	1.09333	7.81309E-001	3.99722E-004	0.00000E+000	3.12306E-004	2.40040E-001	7.81540E-001	3.57650E+000	9	...........
	82	1.10667	7.85952E-001	4.00544E-004	0.00000E+000	3.14808E-004	2.40040E-001	7.86169E-001	3.57650E+000	9	...........
	83	1.12	7.90587E-001	4.00673E-004	0.00000E+000	3.16767E-004	2.40040E-001	7.90840E-001	3.57650E+000	9	...........
	84	1.13333	7.95273E-001	4.00875E-004	0.00000E+000	3.18805E-004	2.40040E-001	7.95495E-001	3.57650E+000	9	...........
	85	1.14667	7.99887E-001	4.00441E-004	0.00000E+000	3.20307E-004	2.40040E-001	8.00122E-001	3.57650E+000	9	...........
	86	1.16	8.04466E-001	4.03082E-004	0.00000E+000	3.24266E-004	2.40040E-001	8.04735E-001	3.57650E+000	9	...........
	87	1.17333	8.09058E-001	4.00518E-004	0.00000E+000	3.24042E-004	2.40040E-001	8.09325E-001	3.57650E+000	9	...........
	88	1.18667	8.13535E-001	4.01589E-004	0.00000E+000	3.26706E-004	2.40040E-001	8.13846E-001	3.57650E+000	9	...........
	89	1.2	8.18059E-001	4.01077E-004	0.00000E+000	3.28105E-004	2.40040E-001	8.18327E-001	3.57650E+000	9	...........
	90	1.21333	8.22550E-001	4.00424E-004	0.00000E+000	3.29369E-004	2.40040E-001	8.22837E-001	3.57650E+000	9	...........
	91	1.22667	8.27037E-001	4.01187E-004	0.00000E+000	3.31796E-004	2.40040E-001	8.27318E-001	3.57650E+000	9	...........
	92	1.24	8.31475E-001	4.01087E-004	0.00000E+000	3.33494E-004	2.40040E-001	8.31768E-001	3.57650E+000	9	...........
	93	1.25333	8.35958E-001	4.00432E-004	0.00000E+000	3.34745E-004	2.40040E-001	8.36262E-001	3.57650E+000	9	...........
	94	1.26667	8.40360E-001	4.02559E-004	0.00000E+000	3.38294E-004	2.40040E-001	8.40639E-001	3.57650E+000	9	...........
	95	1.28	8.44767E-001	4.01424E-004	0.00000E+000	3.39110E-004	2.40040E-001	8.45057E-001	3.57650E+000	9	...........
	96	1.29333	8.49111E-001	4.01733E-004	0.00000E+000	3.41116E-004	2.40040E-001	8.49407E-001	3.57650E+000	9	...........
	97	1.30667	8.53453E-001	4.01441E-004	0.00000E+000	3.42611E-004	2.40040E-001	8.53749E-001	3.57650E+000	9	...........
	98	1.32	8.57728E-001	4.00271E-004	0.00000E+000	3.43324E-004	2.40040E-001	8.58024E-001	3.57650E+000	9	...........
	99	1.33333	8.62029E-001	4.01487E-004	0.00000E+000	3.46093E-004	2.40040E-001	8.62311E-001	3.57650E+000	9	...........
	100	1.34667	8.66213E-001	4.00942E-004	0.00000E+000	3.47301E-004	2.40040E-001	8.66507E-001	3.57650E+000	9	...........
	101	1.36	8.70534E-001	4.00792E-004	0.00000E+000	3.48903E-004	2.40040E-001	8.70842E-001	3.57650E+000	9	...........
	102	1.37333	8.74792E-001	4.01810E-004	0.00000E+000	3.51500E-004	2.40040E-001	8.75093E-001	3.57650E+000	9	...........
	103	1.38667	8.78973E-001	4.00478E-004	0.00000E+000	3.52009E-004	2.40040E-001	8.79259E-001	3.57650E+000	9	...........
	104	1.4	8.83095E-001	4.00985E-004	0.00000E+000	3.54108E-004	2.40040E-001	8.83384E-001	3.57650E+000	9	...........
	105	1.41333	8.87211E-001	4.01660E-004	0.00000E+000	3.56357E-004	2.40040E-001	8.87502E-001	3.57650E+000	9	...........
	106	1.42667	8.91275E-001	4.02424E-004	0.00000E+000	3.58671E-004	2.40040E-001	8.91586E-001	3.57650E+000	9	...........
	107	1.44	8.95316E-001	4.02353E-004	0.00000E+000	3.60233E-004	2.40040E-001	8.95640E-001	3.57650E+000	9	...........
	108	1.45333	8.99349E-001	4.00787E-004	0.00000E+000	3.60447E-004	2.40040E-001	8.99680E-001	3.57650E+000	9	...........
	109	1.46667	9.03383E-001	4.00671E-004	0.00000E+000	3.61959E-004	2.40040E-001	9.03682E-001	3.57650E+000	9	...........
	110	1.48	9.07378E-001	4.00814E-004	0.00000E+000	3.63690E-004	2.40040E-001	9.07682E-001	3.57635E+000	9	...........
	111	1.49333	9.11372E-001	4.00769E-004	0.00000E+000	3.65250E-004	2.40040E-001	9.11674E-001	3.57610E+000	9	...........
	112	1.50667	9.15322E-001	4.01480E-004	0.00000E+000	3.67483E-004	2.40040E-001	9.15602E-001	3.57610E+000	9	...........
	113	1.52	9.19211E-001	4.00941E-004	0.00000E+000	3.68549E-004	2.40040E-001	9.19514E-001	3.57610E+000	9	...........
	114	1.53333	9.23141E-001	4.01436E-004	0.00000E+000	3.70582E-004	2.40040E-001	9.23404E-001	3.57610E+000	9	...........
	115	1.54667	9.27017E-001	3.99532E-004	0.00000E+000	3.70373E-004	2.40040E-001	9.27308E-001	3.57610E+000	9	...........
	116	1.56	9.30828E-001	4.00427E-004	0.00000E+000	3.72729E-004	2.40040E-001	9.31100E-001	3.57610E+000	9	...........
	117	1.57333	9.34547E-001	4.00983E-004	0.00000E+000	3.74737E-004	2.40040E-001	9.34813E-001	3.57610E+000	9	...........
	118	1.58667	9.38241E-001	4.01051E-004	0.00000E+000	3.76283E-004	2.40040E-001	9.38533E-001	3.57610E+000	9	...........
	119	1.6	9.41951E-001	4.00287E-004	0.00000E+000	3.77050E-004	2.40040E-001	9.42223E-001	3.57610E+000	9	...........
	120	1.61333	9.45626E-001	4.00706E-004	0.00000E+000	3.78918E-004	2.40040E-001	9.45921E-001	3.57610E+000	9	...........
	121	1.62667	9.49294E-001	4.01238E-004	0.00000E+000	3.80892E-004	2.40040E-001	9.49583E-001	3.57610E+000	9	...........
	122	1.64	9.52901E-001	4.00572E-004	0.00000E+000	3.81706E-004	2.40040E-001	9.53198E-001	3.57610E+000	9	...........
	123	1.65333	9.56457E-001	4.00799E-004	0.00000E+000	3.83347E-004	2.40040E-001	9.56749E-001	3.57610E+000	9	...........
	124	1.66667	9.59979E-001	4.00706E-004	0.00000E+000	3.84670E-004	2.40040E-001	9.60278E-001	3.57610E+000	9	...........
	125	1.68	9.63464E-001	4.00393E-004	0.00000E+000	3.85764E-004	2.40040E-001	9.63785E-001	3.57610E+000	9	...........
	126	1.69333	9.66959E-001	4.02756E-004	0.00000E+000	3.89448E-004	2.40040E-001	9.67273E-001	3.57610E+000	9	...........
	127	1.70667	9.70383E-001	4.01850E-004	0.00000E+000	3.89949E-004	2.40040E-001	9.70735E-001	3.57610E+000	9	...........
	128	1.72	9.73866E-001	4.01117E-004	0.00000E+000	3.90634E-004	2.40040E-001	9.74171E-001	3.57610E+000	9	...........
	129	1.73333	9.77235E-001	3.99315E-004	0.00000E+000	3.90225E-004	2.40040E-001	9.77554E-001	3.57610E+000	9	...........
	130	1.74667	9.80566E-001	4.02241E-004	0.00000E+000	3.94424E-004	2.40040E-001	9.80893E-001	3.57610E+000	9	...........
	131	1.76	9.83855E-001	4.00494E-004	0.00000E+000	3.94028E-004	2.40040E-001	9.84209E-001	3.57610E+000	9	...........
	132	1.77333	9.87106E-001	4.00157E-004	0.00000E+000	3.94998E-004	2.40040E-001	9.87432E-001	3.57610E+000	9	...........
	133	1.78667	9.90301E-001	4.01125E-004	0.00000E+000	3.97235E-004	2.40040E-001	9.90656E-001	3.57610E+000	9	...........
	134	1.8	9.93504E-001	4.00915E-004	0.00000E+000	3.98310E-004	2.40040E-001	9.93842E-001	3.57610E+000	9	...........
	135	1.81333	9.96635E-001	4.00544E-004	0.00000E+000	3.99196E-004	2.40040E-001	9.96992E-001	3.57610E+000	9	...........
	136	1.82333	9.99396E-001	4.00930E-004	0.00000E+000	4.00688E-004	2.40040E-001	9.99739E-001	3.57610E+000	9	...........
STARTTIMEOFFSET	QUANT	423.6833	Start Time Offset (s)
