EXPLAIN
TAG	PWR800_CHARGE
TITLE	LABEL	PWR Cyclic Charge Discharge (Cell) - Charge Step	Test &Identifier
DATE	LABEL	12-7-2017	Date
TIME	LABEL	15:20:32	Time
NOTES	NOTES	3	&Notes...
	supercap test cell
	0.4mg
	6M KOH
PSTAT	PSTAT	IFC5000-01520	Potentiostat
CAPACITY	QUANT	1.00000E-003	Capacity (A-hr)
CELLTYPE	SELECTOR	1	&Cell Type
WORKINGCONNECTION	SELECTOR	0	&Working Lead
MAXCHARGETIME	VARIABLEANDUNITS	1.00000E+002	s	1.00000E+002	second(s)	Max &Charge Time
CHARGECURRENT	QUANT	4.00000E-004	&Charge Current (A) 
VOLTAGEFINISH	TWOPARAM	F	1.00000E-003	3.60000E+003	&Voltage Finish	 I (A) < 	Max Time(s)
SAMPLETIME	QUANT	1.00000E-002	Sa&mple Period (s)
CHARGESTOPAT1	MULTIPARAM	4	1.00000E+000	Charge Stop At &1	Voltage > Limit	V
CHARGESTOPAT2	MULTIPARAM	0	0.00000E+000	Charge Stop At &2	None	N/A
AESBHCSELECTOR	TOGGLE	F	Save Both Half Cells
IRCOMP	TOGGLE	F	IR &Measure
EOC	QUANT	0	Open Circuit (V)
SEQUENCER	TOGGLE	TRUE	Run as Sequence
PSTATMODEL	IQUANT	53	Pstat Model
PSTATSECTION	LABEL	IFC5000-01520	Pstat Section
PSTATSERIALNO	LABEL	01520	Pstat Serial Number
CTRLMODE	IQUANT	0	Control Mode
ELECTROMETER	IQUANT	1	RE=0 or CS=1
IESTAB	IQUANT	0	I/E Stability
CASPEED	IQUANT	4	Control Amp Speed
CONVENTION	IQUANT	1	Current Convention
ICHRANGE	IQUANT	2	Ich Range
ICHRANGEMODE	TOGGLE	T	Ich Auto Range
ICHOFFSETENABLE	TOGGLE	F	Ich Offset Enable
ICHOFFSET	QUANT	0	Ich Offset (V)
ICHFILTER	IQUANT	1	Ich Filter
VCHRANGE	IQUANT	2	Vch Range
VCHRANGEMODE	TOGGLE	T	Vch Auto Range
VCHOFFSETENABLE	TOGGLE	F	Vch Offset Enable
VCHOFFSET	QUANT	0	Vch Offset (V)
VCHFILTER	IQUANT	1	Vch Filter
IERANGELOWERLIMIT	IQUANT	9	I/E Range Lower Limit
IERANGEMODE	TOGGLE	F	I/E AutoRange
IERANGE	IQUANT	9	I/E Range
ACHSELECT	IQUANT	1	Ach Select
ACHRANGE	IQUANT	2	Ach Range
ACHOFFSETENABLE	TOGGLE	F	Ach Offset Enable
ACHOFFSET	QUANT	0	Ach Offset (V)
ACHFILTER	IQUANT	1	Ach Filter
CABLEID	IQUANT	14	Cable ID
DCCALDATE	LABEL	5-7-2017	DC Calibration Date
ACCALDATE	LABEL	12/3/2015	AC Calibration Date
FRAMEWORKVERSION	QUANT	7.01	Framework Version
INSTRUMENTVERSION	LABEL	4.00	Instrument Version
CURVE	TABLE	106
	Pt	T	Vf	Im	Vu	Pwr	Sig	Ach	Temp	IERange	Over
	#	s	V	A	V	W	V	V	deg C	#	bits
	0	0.013333	3.90144E-001	4.00258E-004	0.00000E+000	1.56159E-004	2.40040E-001	3.90235E-001	3.57780E+000	9	...........
	1	0.026667	4.03153E-001	4.01340E-004	0.00000E+000	1.61801E-004	2.40040E-001	4.03234E-001	3.57780E+000	9	...........
	2	0.04	4.14282E-001	4.00445E-004	0.00000E+000	1.65897E-004	2.40040E-001	4.14366E-001	3.57780E+000	9	...........
	3	0.053333	4.24304E-001	4.00715E-004	0.00000E+000	1.70025E-004	2.40040E-001	4.24387E-001	3.57780E+000	9	...........
	4	0.066667	4.33583E-001	4.01182E-004	0.00000E+000	1.73945E-004	2.40040E-001	4.33669E-001	3.57780E+000	9	...........
	5	0.08	4.42430E-001	4.01224E-004	0.00000E+000	1.77514E-004	2.40040E-001	4.42522E-001	3.57745E+000	9	...........
	6	0.093333	4.50920E-001	4.02010E-004	0.00000E+000	1.81274E-004	2.40040E-001	4.51007E-001	3.57710E+000	9	...........
	7	0.106667	4.59099E-001	4.00367E-004	0.00000E+000	1.83808E-004	2.40040E-001	4.59190E-001	3.57710E+000	9	...........
	8	0.12	4.67063E-001	4.02660E-004	0.00000E+000	1.88068E-004	2.40040E-001	4.67158E-001	3.57710E+000	9	...........
	9	0.133333	4.74864E-001	4.00175E-004	0.00000E+000	1.90029E-004	2.40040E-001	4.74962E-001	3.57710E+000	9	...........
	10	0.146667	4.82503E-001	4.01845E-004	0.00000E+000	1.93891E-004	2.40040E-001	4.82602E-001	3.57710E+000	9	...........
	11	0.16	4.89974E-001	4.00191E-004	0.00000E+000	1.96083E-004	2.40040E-001	4.90077E-001	3.57710E+000	9	...........
	12	0.173333	4.97333E-001	4.00202E-004	0.00000E+000	1.99034E-004	2.40040E-001	4.97436E-001	3.57710E+000	9	...........
	13	0.186667	5.04612E-001	4.01534E-004	0.00000E+000	2.02619E-004	2.40040E-001	5.04716E-001	3.57710E+000	9	...........
	14	0.2	5.11850E-001	4.00692E-004	0.00000E+000	2.05094E-004	2.40040E-001	5.11960E-001	3.57710E+000	9	...........
	15	0.213333	5.18944E-001	4.00664E-004	0.00000E+000	2.07922E-004	2.40040E-001	5.19049E-001	3.57710E+000	9	...........
	16	0.226667	5.25918E-001	4.01248E-004	0.00000E+000	2.11024E-004	2.40040E-001	5.26027E-001	3.57710E+000	9	...........
	17	0.24	5.32692E-001	3.99726E-004	0.00000E+000	2.12931E-004	2.40040E-001	5.32815E-001	3.57710E+000	9	...........
	18	0.253333	5.39453E-001	4.01080E-004	0.00000E+000	2.16364E-004	2.40040E-001	5.39670E-001	3.57710E+000	9	...........
	19	0.266667	5.46218E-001	4.02171E-004	0.00000E+000	2.19673E-004	2.40040E-001	5.46416E-001	3.57710E+000	9	...........
	20	0.28	5.52922E-001	4.01389E-004	0.00000E+000	2.21937E-004	2.40040E-001	5.53170E-001	3.57710E+000	9	...........
	21	0.293333	5.59606E-001	4.01432E-004	0.00000E+000	2.24643E-004	2.40040E-001	5.59836E-001	3.57710E+000	9	...........
	22	0.306667	5.66324E-001	3.99900E-004	0.00000E+000	2.26473E-004	2.40040E-001	5.66557E-001	3.57710E+000	9	...........
	23	0.32	5.72862E-001	4.00820E-004	0.00000E+000	2.29615E-004	2.40040E-001	5.73081E-001	3.57710E+000	9	...........
	24	0.333333	5.79392E-001	4.01680E-004	0.00000E+000	2.32730E-004	2.40040E-001	5.79652E-001	3.57710E+000	9	...........
	25	0.346667	5.85885E-001	4.01187E-004	0.00000E+000	2.35049E-004	2.40040E-001	5.86151E-001	3.57710E+000	9	...........
	26	0.36	5.92388E-001	4.02184E-004	0.00000E+000	2.38249E-004	2.40040E-001	5.92628E-001	3.57710E+000	9	...........
	27	0.373333	5.98883E-001	4.01603E-004	0.00000E+000	2.40513E-004	2.40040E-001	5.99108E-001	3.57710E+000	9	...........
	28	0.386667	6.05425E-001	4.00395E-004	0.00000E+000	2.42409E-004	2.40040E-001	6.05662E-001	3.57710E+000	9	...........
	29	0.4	6.11873E-001	3.99290E-004	0.00000E+000	2.44315E-004	2.40040E-001	6.12110E-001	3.57710E+000	9	...........
	30	0.413333	6.18309E-001	4.00570E-004	0.00000E+000	2.47676E-004	2.40040E-001	6.18493E-001	3.57710E+000	9	...........
	31	0.426667	6.24601E-001	4.01415E-004	0.00000E+000	2.50724E-004	2.40040E-001	6.24791E-001	3.57710E+000	9	...........
	32	0.44	6.30876E-001	4.00790E-004	0.00000E+000	2.52849E-004	2.40040E-001	6.31107E-001	3.57710E+000	9	...........
	33	0.453333	6.37111E-001	4.01745E-004	0.00000E+000	2.55956E-004	2.40040E-001	6.37323E-001	3.57710E+000	9	...........
	34	0.466667	6.43344E-001	4.01077E-004	0.00000E+000	2.58031E-004	2.40040E-001	6.43589E-001	3.57710E+000	9	...........
	35	0.48	6.49545E-001	3.99418E-004	0.00000E+000	2.59440E-004	2.40040E-001	6.49796E-001	3.57710E+000	9	...........
	36	0.493333	6.55755E-001	4.03238E-004	0.00000E+000	2.64425E-004	2.40040E-001	6.56003E-001	3.57710E+000	9	...........
	37	0.506667	6.61975E-001	3.99910E-004	0.00000E+000	2.64731E-004	2.40040E-001	6.62228E-001	3.57710E+000	9	...........
	38	0.52	6.68091E-001	4.01390E-004	0.00000E+000	2.68165E-004	2.40040E-001	6.68353E-001	3.57710E+000	9	...........
	39	0.533333	6.74169E-001	4.01784E-004	0.00000E+000	2.70870E-004	2.40040E-001	6.74415E-001	3.57710E+000	9	...........
	40	0.546667	6.80314E-001	4.01735E-004	0.00000E+000	2.73306E-004	2.40040E-001	6.80574E-001	3.57710E+000	9	...........
	41	0.56	6.86324E-001	4.01081E-004	0.00000E+000	2.75272E-004	2.40040E-001	6.86587E-001	3.57710E+000	9	...........
	42	0.573333	6.92311E-001	4.01688E-004	0.00000E+000	2.78093E-004	2.40040E-001	6.92558E-001	3.57710E+000	9	...........
	43	0.586667	6.98341E-001	4.01246E-004	0.00000E+000	2.80207E-004	2.40040E-001	6.98587E-001	3.57710E+000	9	...........
	44	0.6	7.04327E-001	4.01357E-004	0.00000E+000	2.82686E-004	2.40040E-001	7.04561E-001	3.57710E+000	9	...........
	45	0.613333	7.10339E-001	4.01557E-004	0.00000E+000	2.85241E-004	2.40040E-001	7.10576E-001	3.57710E+000	9	...........
	46	0.626667	7.16282E-001	4.00514E-004	0.00000E+000	2.86881E-004	2.40040E-001	7.16541E-001	3.57710E+000	9	...........
	47	0.64	7.22185E-001	4.01936E-004	0.00000E+000	2.90272E-004	2.40040E-001	7.22413E-001	3.57710E+000	9	...........
	48	0.653333	7.28008E-001	4.01636E-004	0.00000E+000	2.92394E-004	2.40040E-001	7.28226E-001	3.57710E+000	9	...........
	49	0.666667	7.33801E-001	4.01102E-004	0.00000E+000	2.94329E-004	2.40040E-001	7.34043E-001	3.57710E+000	9	...........
	50	0.68	7.39576E-001	4.00586E-004	0.00000E+000	2.96263E-004	2.40040E-001	7.39821E-001	3.57710E+000	9	...........
	51	0.693333	7.45439E-001	3.99984E-004	0.00000E+000	2.98164E-004	2.40040E-001	7.45698E-001	3.57710E+000	9	...........
	52	0.706667	7.51225E-001	4.01429E-004	0.00000E+000	3.01564E-004	2.40040E-001	7.51475E-001	3.57710E+000	9	...........
	53	0.72	7.56937E-001	3.99457E-004	0.00000E+000	3.02364E-004	2.40040E-001	7.57170E-001	3.57710E+000	9	...........
	54	0.733333	7.62600E-001	3.99904E-004	0.00000E+000	3.04967E-004	2.40040E-001	7.62831E-001	3.57710E+000	9	...........
	55	0.746667	7.68239E-001	4.01094E-004	0.00000E+000	3.08136E-004	2.40040E-001	7.68515E-001	3.57710E+000	9	...........
	56	0.76	7.73882E-001	4.00519E-004	0.00000E+000	3.09955E-004	2.40040E-001	7.74135E-001	3.57710E+000	9	...........
	57	0.773333	7.79542E-001	4.02397E-004	0.00000E+000	3.13686E-004	2.40040E-001	7.79796E-001	3.57710E+000	9	...........
	58	0.786667	7.85172E-001	4.01971E-004	0.00000E+000	3.15616E-004	2.40040E-001	7.85402E-001	3.57710E+000	9	...........
	59	0.8	7.90695E-001	4.00767E-004	0.00000E+000	3.16884E-004	2.40040E-001	7.90935E-001	3.57710E+000	9	...........
	60	0.813333	7.96209E-001	4.00475E-004	0.00000E+000	3.18862E-004	2.40040E-001	7.96467E-001	3.57710E+000	9	...........
	61	0.826667	8.01680E-001	4.01076E-004	0.00000E+000	3.21535E-004	2.40040E-001	8.01940E-001	3.57710E+000	9	...........
	62	0.84	8.07098E-001	3.99931E-004	0.00000E+000	3.22784E-004	2.40040E-001	8.07358E-001	3.57710E+000	9	...........
	63	0.853333	8.12513E-001	4.01102E-004	0.00000E+000	3.25901E-004	2.40040E-001	8.12757E-001	3.57710E+000	9	...........
	64	0.866667	8.17826E-001	4.01531E-004	0.00000E+000	3.28382E-004	2.40040E-001	8.18093E-001	3.57710E+000	9	...........
	65	0.88	8.23158E-001	4.01502E-004	0.00000E+000	3.30500E-004	2.40040E-001	8.23417E-001	3.57710E+000	9	...........
	66	0.893333	8.28403E-001	4.00920E-004	0.00000E+000	3.32123E-004	2.40040E-001	8.28671E-001	3.57710E+000	9	...........
	67	0.906667	8.33652E-001	4.02511E-004	0.00000E+000	3.35554E-004	2.40040E-001	8.33936E-001	3.57710E+000	9	...........
	68	0.92	8.38840E-001	4.00586E-004	0.00000E+000	3.36027E-004	2.40040E-001	8.39119E-001	3.57710E+000	9	...........
	69	0.933333	8.43998E-001	4.01039E-004	0.00000E+000	3.38476E-004	2.40040E-001	8.44271E-001	3.57710E+000	9	...........
	70	0.946667	8.49033E-001	4.01264E-004	0.00000E+000	3.40686E-004	2.40040E-001	8.49322E-001	3.57710E+000	9	...........
	71	0.96	8.54070E-001	4.01064E-004	0.00000E+000	3.42536E-004	2.40040E-001	8.54331E-001	3.57710E+000	9	...........
	72	0.97333	8.59076E-001	4.00198E-004	0.00000E+000	3.43801E-004	2.40040E-001	8.59318E-001	3.57710E+000	9	...........
	73	0.98667	8.64082E-001	4.01498E-004	0.00000E+000	3.46927E-004	2.40040E-001	8.64363E-001	3.57710E+000	9	...........
	74	1	8.69049E-001	4.01421E-004	0.00000E+000	3.48855E-004	2.40040E-001	8.69317E-001	3.57710E+000	9	...........
	75	1.01333	8.73878E-001	4.00653E-004	0.00000E+000	3.50122E-004	2.40040E-001	8.74119E-001	3.57710E+000	9	...........
	76	1.02667	8.78754E-001	4.00929E-004	0.00000E+000	3.52318E-004	2.40040E-001	8.79012E-001	3.57710E+000	9	...........
	77	1.04	8.83581E-001	4.00213E-004	0.00000E+000	3.53620E-004	2.40040E-001	8.83808E-001	3.57710E+000	9	...........
	78	1.05333	8.88354E-001	4.01334E-004	0.00000E+000	3.56526E-004	2.40040E-001	8.88593E-001	3.57710E+000	9	...........
	79	1.06667	8.93052E-001	4.00512E-004	0.00000E+000	3.57677E-004	2.40040E-001	8.93327E-001	3.57710E+000	9	...........
	80	1.08	8.97733E-001	4.00944E-004	0.00000E+000	3.59941E-004	2.40040E-001	8.97992E-001	3.57700E+000	9	...........
	81	1.09333	9.02390E-001	4.01229E-004	0.00000E+000	3.62065E-004	2.40040E-001	9.02647E-001	3.57690E+000	9	...........
	82	1.10667	9.07027E-001	3.99874E-004	0.00000E+000	3.62696E-004	2.40040E-001	9.07264E-001	3.57690E+000	9	...........
	83	1.12	9.11613E-001	4.02414E-004	0.00000E+000	3.66846E-004	2.40040E-001	9.11828E-001	3.57690E+000	9	...........
	84	1.13333	9.16150E-001	3.99584E-004	0.00000E+000	3.66079E-004	2.40040E-001	9.16404E-001	3.57690E+000	9	...........
	85	1.14667	9.20644E-001	4.00874E-004	0.00000E+000	3.69062E-004	2.40040E-001	9.20882E-001	3.57690E+000	9	...........
	86	1.16	9.25106E-001	4.01046E-004	0.00000E+000	3.71010E-004	2.40040E-001	9.25367E-001	3.57690E+000	9	...........
	87	1.17333	9.29559E-001	4.00943E-004	0.00000E+000	3.72700E-004	2.40040E-001	9.29774E-001	3.57690E+000	9	...........
	88	1.18667	9.33888E-001	4.00455E-004	0.00000E+000	3.73980E-004	2.40040E-001	9.34167E-001	3.57690E+000	9	...........
	89	1.2	9.38251E-001	3.99462E-004	0.00000E+000	3.74796E-004	2.40040E-001	9.38503E-001	3.57690E+000	9	...........
	90	1.21333	9.42494E-001	4.01110E-004	0.00000E+000	3.78043E-004	2.40040E-001	9.42735E-001	3.57690E+000	9	...........
	91	1.22667	9.46740E-001	4.01337E-004	0.00000E+000	3.79962E-004	2.40040E-001	9.46979E-001	3.57690E+000	9	...........
	92	1.24	9.50955E-001	4.00587E-004	0.00000E+000	3.80940E-004	2.40040E-001	9.51219E-001	3.57690E+000	9	...........
	93	1.25333	9.55132E-001	4.01638E-004	0.00000E+000	3.83617E-004	2.40040E-001	9.55398E-001	3.57690E+000	9	...........
	94	1.26667	9.59250E-001	4.01350E-004	0.00000E+000	3.84995E-004	2.40040E-001	9.59551E-001	3.57690E+000	9	...........
	95	1.28	9.63312E-001	4.00276E-004	0.00000E+000	3.85591E-004	2.40040E-001	9.63648E-001	3.57690E+000	9	...........
	96	1.29333	9.67370E-001	4.00428E-004	0.00000E+000	3.87362E-004	2.40040E-001	9.67683E-001	3.57690E+000	9	...........
	97	1.30667	9.71388E-001	4.01238E-004	0.00000E+000	3.89758E-004	2.40040E-001	9.71744E-001	3.57690E+000	9	...........
	98	1.32	9.75418E-001	4.01391E-004	0.00000E+000	3.91524E-004	2.40040E-001	9.75761E-001	3.57690E+000	9	...........
	99	1.33333	9.79282E-001	4.00521E-004	0.00000E+000	3.92223E-004	2.40040E-001	9.79604E-001	3.57690E+000	9	...........
	100	1.34667	9.83136E-001	4.00953E-004	0.00000E+000	3.94192E-004	2.40040E-001	9.83474E-001	3.57690E+000	9	...........
	101	1.36	9.86956E-001	4.01556E-004	0.00000E+000	3.96318E-004	2.40040E-001	9.87311E-001	3.57690E+000	9	...........
	102	1.37333	9.90746E-001	4.00660E-004	0.00000E+000	3.96952E-004	2.40040E-001	9.91105E-001	3.57690E+000	9	...........
	103	1.38667	9.94498E-001	4.00162E-004	0.00000E+000	3.97960E-004	2.40040E-001	9.94831E-001	3.57690E+000	9	...........
	104	1.4	9.98158E-001	4.00516E-004	0.00000E+000	3.99778E-004	2.40040E-001	9.98511E-001	3.57690E+000	9	...........
	105	1.40167	1.00023E+000	4.02478E-004	0.00000E+000	4.02569E-004	2.40040E-001	1.00054E+000	3.57690E+000	9	...........
STARTTIMEOFFSET	QUANT	2931.749	Start Time Offset (s)
