EXPLAIN
TAG	PWR800_CHARGE
TITLE	LABEL	PWR Cyclic Charge Discharge (Cell) - Charge Step	Test &Identifier
DATE	LABEL	12-7-2017	Date
TIME	LABEL	14:24:12	Time
NOTES	NOTES	3	&Notes...
	supercap test cell
	0.4mg
	6M KOH
PSTAT	PSTAT	IFC5000-01520	Potentiostat
CAPACITY	QUANT	1.00000E-003	Capacity (A-hr)
CELLTYPE	SELECTOR	1	&Cell Type
WORKINGCONNECTION	SELECTOR	0	&Working Lead
MAXCHARGETIME	VARIABLEANDUNITS	1.00000E+002	s	1.00000E+002	second(s)	Max &Charge Time
CHARGECURRENT	QUANT	4.00000E-004	&Charge Current (A) 
VOLTAGEFINISH	TWOPARAM	F	1.00000E-003	3.60000E+003	&Voltage Finish	 I (A) < 	Max Time(s)
SAMPLETIME	QUANT	1.00000E-002	Sa&mple Period (s)
CHARGESTOPAT1	MULTIPARAM	4	1.00000E+000	Charge Stop At &1	Voltage > Limit	V
CHARGESTOPAT2	MULTIPARAM	0	0.00000E+000	Charge Stop At &2	None	N/A
AESBHCSELECTOR	TOGGLE	F	Save Both Half Cells
IRCOMP	TOGGLE	F	IR &Measure
EOC	QUANT	0	Open Circuit (V)
SEQUENCER	TOGGLE	TRUE	Run as Sequence
PSTATMODEL	IQUANT	53	Pstat Model
PSTATSECTION	LABEL	IFC5000-01520	Pstat Section
PSTATSERIALNO	LABEL	01520	Pstat Serial Number
CTRLMODE	IQUANT	0	Control Mode
ELECTROMETER	IQUANT	1	RE=0 or CS=1
IESTAB	IQUANT	0	I/E Stability
CASPEED	IQUANT	4	Control Amp Speed
CONVENTION	IQUANT	1	Current Convention
ICHRANGE	IQUANT	2	Ich Range
ICHRANGEMODE	TOGGLE	T	Ich Auto Range
ICHOFFSETENABLE	TOGGLE	F	Ich Offset Enable
ICHOFFSET	QUANT	0	Ich Offset (V)
ICHFILTER	IQUANT	1	Ich Filter
VCHRANGE	IQUANT	2	Vch Range
VCHRANGEMODE	TOGGLE	T	Vch Auto Range
VCHOFFSETENABLE	TOGGLE	F	Vch Offset Enable
VCHOFFSET	QUANT	0	Vch Offset (V)
VCHFILTER	IQUANT	1	Vch Filter
IERANGELOWERLIMIT	IQUANT	9	I/E Range Lower Limit
IERANGEMODE	TOGGLE	F	I/E AutoRange
IERANGE	IQUANT	9	I/E Range
ACHSELECT	IQUANT	1	Ach Select
ACHRANGE	IQUANT	2	Ach Range
ACHOFFSETENABLE	TOGGLE	F	Ach Offset Enable
ACHOFFSET	QUANT	0	Ach Offset (V)
ACHFILTER	IQUANT	1	Ach Filter
CABLEID	IQUANT	14	Cable ID
DCCALDATE	LABEL	5-7-2017	DC Calibration Date
ACCALDATE	LABEL	12/3/2015	AC Calibration Date
FRAMEWORKVERSION	QUANT	7.01	Framework Version
INSTRUMENTVERSION	LABEL	4.00	Instrument Version
CURVE	TABLE	142
	Pt	T	Vf	Im	Vu	Pwr	Sig	Ach	Temp	IERange	Over
	#	s	V	A	V	W	V	V	deg C	#	bits
	0	0.013333	3.33287E-001	4.00894E-004	0.00000E+000	1.33613E-004	2.40040E-001	3.33369E-001	3.57700E+000	9	...........
	1	0.026667	3.43016E-001	4.00724E-004	0.00000E+000	1.37455E-004	2.40040E-001	3.43078E-001	3.57700E+000	9	...........
	2	0.04	3.51474E-001	4.01668E-004	0.00000E+000	1.41176E-004	2.40040E-001	3.51539E-001	3.57700E+000	9	...........
	3	0.053333	3.59206E-001	4.02122E-004	0.00000E+000	1.44445E-004	2.40040E-001	3.59271E-001	3.57700E+000	9	...........
	4	0.066667	3.66438E-001	4.02142E-004	0.00000E+000	1.47360E-004	2.40040E-001	3.66505E-001	3.57700E+000	9	...........
	5	0.08	3.73385E-001	3.99982E-004	0.00000E+000	1.49347E-004	2.40040E-001	3.73448E-001	3.57700E+000	9	...........
	6	0.093333	3.80068E-001	4.01099E-004	0.00000E+000	1.52445E-004	2.40040E-001	3.80136E-001	3.57700E+000	9	...........
	7	0.106667	3.86468E-001	4.01916E-004	0.00000E+000	1.55328E-004	2.40040E-001	3.86537E-001	3.57700E+000	9	...........
	8	0.12	3.92790E-001	4.02161E-004	0.00000E+000	1.57965E-004	2.40040E-001	3.92860E-001	3.57700E+000	9	...........
	9	0.133333	3.99034E-001	4.00268E-004	0.00000E+000	1.59720E-004	2.40040E-001	3.99110E-001	3.57700E+000	9	...........
	10	0.146667	4.05131E-001	4.02712E-004	0.00000E+000	1.63151E-004	2.40040E-001	4.05209E-001	3.57700E+000	9	...........
	11	0.16	4.11208E-001	4.00582E-004	0.00000E+000	1.64723E-004	2.40040E-001	4.11285E-001	3.57700E+000	9	...........
	12	0.173333	4.17105E-001	4.01829E-004	0.00000E+000	1.67605E-004	2.40040E-001	4.17185E-001	3.57700E+000	9	...........
	13	0.186667	4.22996E-001	4.01201E-004	0.00000E+000	1.69706E-004	2.40040E-001	4.23073E-001	3.57700E+000	9	...........
	14	0.2	4.28776E-001	4.00250E-004	0.00000E+000	1.71618E-004	2.40040E-001	4.28851E-001	3.57700E+000	9	...........
	15	0.213333	4.34444E-001	4.01871E-004	0.00000E+000	1.74591E-004	2.40040E-001	4.34525E-001	3.57700E+000	9	...........
	16	0.226667	4.40098E-001	4.01154E-004	0.00000E+000	1.76547E-004	2.40040E-001	4.40182E-001	3.57700E+000	9	...........
	17	0.24	4.45788E-001	4.03249E-004	0.00000E+000	1.79764E-004	2.40040E-001	4.45873E-001	3.57700E+000	9	...........
	18	0.253333	4.51423E-001	4.01215E-004	0.00000E+000	1.81117E-004	2.40040E-001	4.51508E-001	3.57700E+000	9	...........
	19	0.266667	4.56914E-001	4.02945E-004	0.00000E+000	1.84111E-004	2.40040E-001	4.57001E-001	3.57700E+000	9	...........
	20	0.28	4.62420E-001	4.01215E-004	0.00000E+000	1.85530E-004	2.40040E-001	4.62508E-001	3.57700E+000	9	...........
	21	0.293333	4.67878E-001	3.99998E-004	0.00000E+000	1.87150E-004	2.40040E-001	4.67965E-001	3.57700E+000	9	...........
	22	0.306667	4.73374E-001	4.00581E-004	0.00000E+000	1.89625E-004	2.40040E-001	4.73457E-001	3.57700E+000	9	...........
	23	0.32	4.78813E-001	4.00530E-004	0.00000E+000	1.91779E-004	2.40040E-001	4.78904E-001	3.57700E+000	9	...........
	24	0.333333	4.84160E-001	4.00526E-004	0.00000E+000	1.93919E-004	2.40040E-001	4.84250E-001	3.57700E+000	9	...........
	25	0.346667	4.89509E-001	4.00522E-004	0.00000E+000	1.96059E-004	2.40040E-001	4.89604E-001	3.57700E+000	9	...........
	26	0.36	4.94789E-001	4.00225E-004	0.00000E+000	1.98027E-004	2.40040E-001	4.94885E-001	3.57700E+000	9	...........
	27	0.373333	5.00040E-001	4.01332E-004	0.00000E+000	2.00682E-004	2.40040E-001	5.00141E-001	3.57700E+000	9	...........
	28	0.386667	5.05300E-001	4.00790E-004	0.00000E+000	2.02519E-004	2.40040E-001	5.05404E-001	3.57700E+000	9	...........
	29	0.4	5.10626E-001	4.01021E-004	0.00000E+000	2.04772E-004	2.40040E-001	5.10731E-001	3.57700E+000	9	...........
	30	0.413333	5.15906E-001	3.99905E-004	0.00000E+000	2.06313E-004	2.40040E-001	5.16004E-001	3.57700E+000	9	...........
	31	0.426667	5.21074E-001	4.00156E-004	0.00000E+000	2.08511E-004	2.40040E-001	5.21173E-001	3.57700E+000	9	...........
	32	0.44	5.26253E-001	4.00945E-004	0.00000E+000	2.10999E-004	2.40040E-001	5.26359E-001	3.57700E+000	9	...........
	33	0.453333	5.31455E-001	4.00469E-004	0.00000E+000	2.12831E-004	2.40040E-001	5.31558E-001	3.57700E+000	9	...........
	34	0.466667	5.36418E-001	3.99920E-004	0.00000E+000	2.14524E-004	2.40040E-001	5.36621E-001	3.57700E+000	9	...........
	35	0.48	5.41642E-001	4.00761E-004	0.00000E+000	2.17069E-004	2.40040E-001	5.41860E-001	3.57700E+000	9	...........
	36	0.493333	5.46739E-001	4.01714E-004	0.00000E+000	2.19632E-004	2.40040E-001	5.46954E-001	3.57700E+000	9	...........
	37	0.506667	5.51859E-001	4.00677E-004	0.00000E+000	2.21117E-004	2.40040E-001	5.52097E-001	3.57700E+000	9	...........
	38	0.52	5.56969E-001	4.01093E-004	0.00000E+000	2.23396E-004	2.40040E-001	5.57209E-001	3.57700E+000	9	...........
	39	0.533333	5.62109E-001	4.01533E-004	0.00000E+000	2.25705E-004	2.40040E-001	5.62352E-001	3.57700E+000	9	...........
	40	0.546667	5.67196E-001	4.02750E-004	0.00000E+000	2.28438E-004	2.40040E-001	5.67397E-001	3.57700E+000	9	...........
	41	0.56	5.72300E-001	4.01002E-004	0.00000E+000	2.29494E-004	2.40040E-001	5.72491E-001	3.57700E+000	9	...........
	42	0.573333	5.77315E-001	4.00841E-004	0.00000E+000	2.31411E-004	2.40040E-001	5.77565E-001	3.57700E+000	9	...........
	43	0.586667	5.82368E-001	3.99485E-004	0.00000E+000	2.32647E-004	2.40040E-001	5.82608E-001	3.57700E+000	9	...........
	44	0.6	5.87449E-001	4.00490E-004	0.00000E+000	2.35267E-004	2.40040E-001	5.87687E-001	3.57700E+000	9	...........
	45	0.613333	5.92472E-001	3.99984E-004	0.00000E+000	2.36979E-004	2.40040E-001	5.92700E-001	3.57700E+000	9	...........
	46	0.626667	5.97435E-001	4.01063E-004	0.00000E+000	2.39609E-004	2.40040E-001	5.97638E-001	3.57700E+000	9	...........
	47	0.64	6.02463E-001	3.99828E-004	0.00000E+000	2.40882E-004	2.40040E-001	6.02673E-001	3.57700E+000	9	...........
	48	0.653333	6.07415E-001	4.00283E-004	0.00000E+000	2.43138E-004	2.40040E-001	6.07628E-001	3.57700E+000	9	...........
	49	0.666667	6.12424E-001	4.01048E-004	0.00000E+000	2.45612E-004	2.40040E-001	6.12612E-001	3.57700E+000	9	...........
	50	0.68	6.17490E-001	4.01485E-004	0.00000E+000	2.47913E-004	2.40040E-001	6.17642E-001	3.57700E+000	9	...........
	51	0.693333	6.22463E-001	4.01005E-004	0.00000E+000	2.49611E-004	2.40040E-001	6.22592E-001	3.57700E+000	9	...........
	52	0.706667	6.27428E-001	4.00751E-004	0.00000E+000	2.51443E-004	2.40040E-001	6.27588E-001	3.57700E+000	9	...........
	53	0.72	6.32344E-001	4.01553E-004	0.00000E+000	2.53920E-004	2.40040E-001	6.32554E-001	3.57700E+000	9	...........
	54	0.733333	6.37239E-001	3.99711E-004	0.00000E+000	2.54712E-004	2.40040E-001	6.37449E-001	3.57700E+000	9	...........
	55	0.746667	6.42253E-001	4.01659E-004	0.00000E+000	2.57966E-004	2.40040E-001	6.42456E-001	3.57700E+000	9	...........
	56	0.76	6.47107E-001	4.01518E-004	0.00000E+000	2.59825E-004	2.40040E-001	6.47316E-001	3.57700E+000	9	...........
	57	0.773333	6.52037E-001	4.00335E-004	0.00000E+000	2.61034E-004	2.40040E-001	6.52273E-001	3.57700E+000	9	...........
	58	0.786667	6.56967E-001	4.01286E-004	0.00000E+000	2.63631E-004	2.40040E-001	6.57189E-001	3.57700E+000	9	...........
	59	0.8	6.61808E-001	4.00606E-004	0.00000E+000	2.65125E-004	2.40040E-001	6.62060E-001	3.57700E+000	9	...........
	60	0.813333	6.66700E-001	4.01257E-004	0.00000E+000	2.67518E-004	2.40040E-001	6.66944E-001	3.57700E+000	9	...........
	61	0.826667	6.71513E-001	4.01995E-004	0.00000E+000	2.69945E-004	2.40040E-001	6.71742E-001	3.57700E+000	9	...........
	62	0.84	6.76319E-001	4.02804E-004	0.00000E+000	2.72424E-004	2.40040E-001	6.76553E-001	3.57700E+000	9	...........
	63	0.853333	6.81107E-001	3.99720E-004	0.00000E+000	2.72252E-004	2.40040E-001	6.81355E-001	3.57700E+000	9	...........
	64	0.866667	6.85896E-001	4.00210E-004	0.00000E+000	2.74503E-004	2.40040E-001	6.86150E-001	3.57700E+000	9	...........
	65	0.88	6.90659E-001	4.00591E-004	0.00000E+000	2.76672E-004	2.40040E-001	6.90929E-001	3.57700E+000	9	...........
	66	0.893333	6.95403E-001	4.01715E-004	0.00000E+000	2.79354E-004	2.40040E-001	6.95619E-001	3.57700E+000	9	...........
	67	0.906667	7.00165E-001	4.00461E-004	0.00000E+000	2.80389E-004	2.40040E-001	7.00424E-001	3.57700E+000	9	...........
	68	0.92	7.04969E-001	4.00447E-004	0.00000E+000	2.82303E-004	2.40040E-001	7.05208E-001	3.57705E+000	9	...........
	69	0.933333	7.09750E-001	4.00065E-004	0.00000E+000	2.83946E-004	2.40040E-001	7.10008E-001	3.57720E+000	9	...........
	70	0.946667	7.14487E-001	4.00328E-004	0.00000E+000	2.86029E-004	2.40040E-001	7.14743E-001	3.57720E+000	9	...........
	71	0.96	7.19238E-001	3.99963E-004	0.00000E+000	2.87668E-004	2.40040E-001	7.19449E-001	3.57720E+000	9	...........
	72	0.97333	7.23990E-001	4.00160E-004	0.00000E+000	2.89712E-004	2.40040E-001	7.24198E-001	3.57720E+000	9	...........
	73	0.98667	7.28714E-001	4.01364E-004	0.00000E+000	2.92480E-004	2.40040E-001	7.28971E-001	3.57720E+000	9	...........
	74	1	7.33439E-001	4.00720E-004	0.00000E+000	2.93904E-004	2.40040E-001	7.33710E-001	3.57720E+000	9	...........
	75	1.01333	7.38077E-001	4.01463E-004	0.00000E+000	2.96310E-004	2.40040E-001	7.38358E-001	3.57720E+000	9	...........
	76	1.02667	7.42785E-001	4.01882E-004	0.00000E+000	2.98512E-004	2.40040E-001	7.43025E-001	3.57720E+000	9	...........
	77	1.04	7.47336E-001	4.00921E-004	0.00000E+000	2.99623E-004	2.40040E-001	7.47575E-001	3.57720E+000	9	...........
	78	1.05333	7.51981E-001	4.00542E-004	0.00000E+000	3.01200E-004	2.40040E-001	7.52212E-001	3.57720E+000	9	...........
	79	1.06667	7.56594E-001	4.00940E-004	0.00000E+000	3.03348E-004	2.40040E-001	7.56860E-001	3.57720E+000	9	...........
	80	1.08	7.61245E-001	3.99579E-004	0.00000E+000	3.04178E-004	2.40040E-001	7.61501E-001	3.57720E+000	9	...........
	81	1.09333	7.65824E-001	3.99830E-004	0.00000E+000	3.06200E-004	2.40040E-001	7.66077E-001	3.57720E+000	9	...........
	82	1.10667	7.70494E-001	4.01649E-004	0.00000E+000	3.09468E-004	2.40040E-001	7.70761E-001	3.57720E+000	9	...........
	83	1.12	7.75055E-001	4.00421E-004	0.00000E+000	3.10348E-004	2.40040E-001	7.75319E-001	3.57720E+000	9	...........
	84	1.13333	7.79617E-001	4.01477E-004	0.00000E+000	3.12999E-004	2.40040E-001	7.79895E-001	3.57720E+000	9	...........
	85	1.14667	7.84114E-001	3.99565E-004	0.00000E+000	3.13304E-004	2.40040E-001	7.84374E-001	3.57720E+000	9	...........
	86	1.16	7.88657E-001	4.01336E-004	0.00000E+000	3.16516E-004	2.40040E-001	7.88904E-001	3.57720E+000	9	...........
	87	1.17333	7.93123E-001	4.00593E-004	0.00000E+000	3.17720E-004	2.40040E-001	7.93412E-001	3.57720E+000	9	...........
	88	1.18667	7.97616E-001	4.01591E-004	0.00000E+000	3.20315E-004	2.40040E-001	7.97857E-001	3.57720E+000	9	...........
	89	1.2	8.02102E-001	4.00470E-004	0.00000E+000	3.21218E-004	2.40040E-001	8.02356E-001	3.57720E+000	9	...........
	90	1.21333	8.06551E-001	3.99964E-004	0.00000E+000	3.22591E-004	2.40040E-001	8.06798E-001	3.57720E+000	9	...........
	91	1.22667	8.10954E-001	4.03618E-004	0.00000E+000	3.27316E-004	2.40040E-001	8.11202E-001	3.57720E+000	9	...........
	92	1.24	8.15367E-001	4.01114E-004	0.00000E+000	3.27055E-004	2.40040E-001	8.15648E-001	3.57720E+000	9	...........
	93	1.25333	8.19798E-001	4.00406E-004	0.00000E+000	3.28252E-004	2.40040E-001	8.20061E-001	3.57720E+000	9	...........
	94	1.26667	8.24182E-001	4.00746E-004	0.00000E+000	3.30288E-004	2.40040E-001	8.24475E-001	3.57720E+000	9	...........
	95	1.28	8.28606E-001	4.01096E-004	0.00000E+000	3.32351E-004	2.40040E-001	8.28870E-001	3.57720E+000	9	...........
	96	1.29333	8.32928E-001	4.00475E-004	0.00000E+000	3.33567E-004	2.40040E-001	8.33218E-001	3.57720E+000	9	...........
	97	1.30667	8.37230E-001	4.01123E-004	0.00000E+000	3.35832E-004	2.40040E-001	8.37518E-001	3.57720E+000	9	...........
	98	1.32	8.41520E-001	4.01293E-004	0.00000E+000	3.37696E-004	2.40040E-001	8.41793E-001	3.57720E+000	9	...........
	99	1.33333	8.45825E-001	4.00916E-004	0.00000E+000	3.39105E-004	2.40040E-001	8.46060E-001	3.57720E+000	9	...........
	100	1.34667	8.49967E-001	3.99938E-004	0.00000E+000	3.39934E-004	2.40040E-001	8.50226E-001	3.57720E+000	9	...........
	101	1.36	8.54158E-001	4.02604E-004	0.00000E+000	3.43887E-004	2.40040E-001	8.54448E-001	3.57720E+000	9	...........
	102	1.37333	8.58382E-001	4.01045E-004	0.00000E+000	3.44250E-004	2.40040E-001	8.58697E-001	3.57720E+000	9	...........
	103	1.38667	8.62614E-001	4.00039E-004	0.00000E+000	3.45079E-004	2.40040E-001	8.62949E-001	3.57720E+000	9	...........
	104	1.4	8.66789E-001	4.00677E-004	0.00000E+000	3.47303E-004	2.40040E-001	8.67096E-001	3.57720E+000	9	...........
	105	1.41333	8.70910E-001	4.01816E-004	0.00000E+000	3.49945E-004	2.40040E-001	8.71227E-001	3.57720E+000	9	...........
	106	1.42667	8.74910E-001	4.00145E-004	0.00000E+000	3.50091E-004	2.40040E-001	8.75207E-001	3.57720E+000	9	...........
	107	1.44	8.79034E-001	4.02127E-004	0.00000E+000	3.53483E-004	2.40040E-001	8.79317E-001	3.57720E+000	9	...........
	108	1.45333	8.83058E-001	4.00771E-004	0.00000E+000	3.53904E-004	2.40040E-001	8.83343E-001	3.57720E+000	9	...........
	109	1.46667	8.87059E-001	4.00856E-004	0.00000E+000	3.55583E-004	2.40040E-001	8.87323E-001	3.57720E+000	9	...........
	110	1.48	8.91031E-001	4.00242E-004	0.00000E+000	3.56628E-004	2.40040E-001	8.91302E-001	3.57720E+000	9	...........
	111	1.49333	8.94937E-001	4.00830E-004	0.00000E+000	3.58718E-004	2.40040E-001	8.95249E-001	3.57720E+000	9	...........
	112	1.50667	8.98876E-001	4.01423E-004	0.00000E+000	3.60830E-004	2.40040E-001	8.99168E-001	3.57720E+000	9	...........
	113	1.52	9.02824E-001	4.01283E-004	0.00000E+000	3.62287E-004	2.40040E-001	9.03134E-001	3.57720E+000	9	...........
	114	1.53333	9.06714E-001	4.01568E-004	0.00000E+000	3.64107E-004	2.40040E-001	9.07020E-001	3.57720E+000	9	...........
	115	1.54667	9.10621E-001	4.02006E-004	0.00000E+000	3.66075E-004	2.40040E-001	9.10898E-001	3.57720E+000	9	...........
	116	1.56	9.14412E-001	4.00641E-004	0.00000E+000	3.66351E-004	2.40040E-001	9.14697E-001	3.57720E+000	9	...........
	117	1.57333	9.18162E-001	4.01080E-004	0.00000E+000	3.68257E-004	2.40040E-001	9.18474E-001	3.57720E+000	9	...........
	118	1.58667	9.22015E-001	4.01148E-004	0.00000E+000	3.69865E-004	2.40040E-001	9.22258E-001	3.57720E+000	9	...........
	119	1.6	9.25747E-001	4.01597E-004	0.00000E+000	3.71778E-004	2.40040E-001	9.25999E-001	3.57720E+000	9	...........
	120	1.61333	9.29446E-001	4.00773E-004	0.00000E+000	3.72497E-004	2.40040E-001	9.29675E-001	3.57720E+000	9	...........
	121	1.62667	9.33071E-001	3.99685E-004	0.00000E+000	3.72935E-004	2.40040E-001	9.33336E-001	3.57720E+000	9	...........
	122	1.64	9.36745E-001	4.01294E-004	0.00000E+000	3.75910E-004	2.40040E-001	9.37004E-001	3.57720E+000	9	...........
	123	1.65333	9.40345E-001	4.00630E-004	0.00000E+000	3.76731E-004	2.40040E-001	9.40583E-001	3.57720E+000	9	...........
	124	1.66667	9.43928E-001	4.01185E-004	0.00000E+000	3.78689E-004	2.40040E-001	9.44196E-001	3.57720E+000	9	...........
	125	1.68	9.47567E-001	4.01601E-004	0.00000E+000	3.80544E-004	2.40040E-001	9.47843E-001	3.57720E+000	9	...........
	126	1.69333	9.51074E-001	4.01834E-004	0.00000E+000	3.82174E-004	2.40040E-001	9.51363E-001	3.57720E+000	9	...........
	127	1.70667	9.54580E-001	4.01518E-004	0.00000E+000	3.83281E-004	2.40040E-001	9.54875E-001	3.57720E+000	9	...........
	128	1.72	9.58076E-001	4.01169E-004	0.00000E+000	3.84350E-004	2.40040E-001	9.58406E-001	3.57720E+000	9	...........
	129	1.73333	9.61498E-001	4.01687E-004	0.00000E+000	3.86221E-004	2.40040E-001	9.61834E-001	3.57720E+000	9	...........
	130	1.74667	9.64887E-001	4.00884E-004	0.00000E+000	3.86807E-004	2.40040E-001	9.65215E-001	3.57720E+000	9	...........
	131	1.76	9.68150E-001	4.00752E-004	0.00000E+000	3.87989E-004	2.40040E-001	9.68481E-001	3.57720E+000	9	...........
	132	1.77333	9.71445E-001	4.00257E-004	0.00000E+000	3.88828E-004	2.40040E-001	9.71780E-001	3.57720E+000	9	...........
	133	1.78667	9.74815E-001	4.00296E-004	0.00000E+000	3.90215E-004	2.40040E-001	9.75136E-001	3.57720E+000	9	...........
	134	1.8	9.78082E-001	4.01221E-004	0.00000E+000	3.92427E-004	2.40040E-001	9.78405E-001	3.57720E+000	9	...........
	135	1.81333	9.81242E-001	4.01608E-004	0.00000E+000	3.94074E-004	2.40040E-001	9.81556E-001	3.57720E+000	9	...........
	136	1.82667	9.84413E-001	4.01743E-004	0.00000E+000	3.95481E-004	2.40040E-001	9.84751E-001	3.57720E+000	9	...........
	137	1.84	9.87609E-001	4.01180E-004	0.00000E+000	3.96209E-004	2.40040E-001	9.87967E-001	3.57720E+000	9	...........
	138	1.85333	9.90736E-001	4.01256E-004	0.00000E+000	3.97538E-004	2.40040E-001	9.91061E-001	3.57720E+000	9	...........
	139	1.86667	9.93821E-001	4.00264E-004	0.00000E+000	3.97790E-004	2.40040E-001	9.94141E-001	3.57720E+000	9	...........
	140	1.88	9.96954E-001	4.01980E-004	0.00000E+000	4.00755E-004	2.40040E-001	9.97286E-001	3.57720E+000	9	...........
	141	1.88833	9.99438E-001	4.01993E-004	0.00000E+000	4.01767E-004	2.40040E-001	9.99779E-001	3.57720E+000	9	...........
STARTTIMEOFFSET	QUANT	269.2483	Start Time Offset (s)
