EXPLAIN
TAG	PWR800_CHARGE
TITLE	LABEL	PWR Cyclic Charge Discharge (Cell) - Charge Step	Test &Identifier
DATE	LABEL	12-7-2017	Date
TIME	LABEL	15:07:03	Time
NOTES	NOTES	3	&Notes...
	supercap test cell
	0.4mg
	6M KOH
PSTAT	PSTAT	IFC5000-01520	Potentiostat
CAPACITY	QUANT	1.00000E-003	Capacity (A-hr)
CELLTYPE	SELECTOR	1	&Cell Type
WORKINGCONNECTION	SELECTOR	0	&Working Lead
MAXCHARGETIME	VARIABLEANDUNITS	1.00000E+002	s	1.00000E+002	second(s)	Max &Charge Time
CHARGECURRENT	QUANT	4.00000E-004	&Charge Current (A) 
VOLTAGEFINISH	TWOPARAM	F	1.00000E-003	3.60000E+003	&Voltage Finish	 I (A) < 	Max Time(s)
SAMPLETIME	QUANT	1.00000E-002	Sa&mple Period (s)
CHARGESTOPAT1	MULTIPARAM	4	1.00000E+000	Charge Stop At &1	Voltage > Limit	V
CHARGESTOPAT2	MULTIPARAM	0	0.00000E+000	Charge Stop At &2	None	N/A
AESBHCSELECTOR	TOGGLE	F	Save Both Half Cells
IRCOMP	TOGGLE	F	IR &Measure
EOC	QUANT	0	Open Circuit (V)
SEQUENCER	TOGGLE	TRUE	Run as Sequence
PSTATMODEL	IQUANT	53	Pstat Model
PSTATSECTION	LABEL	IFC5000-01520	Pstat Section
PSTATSERIALNO	LABEL	01520	Pstat Serial Number
CTRLMODE	IQUANT	0	Control Mode
ELECTROMETER	IQUANT	1	RE=0 or CS=1
IESTAB	IQUANT	0	I/E Stability
CASPEED	IQUANT	4	Control Amp Speed
CONVENTION	IQUANT	1	Current Convention
ICHRANGE	IQUANT	2	Ich Range
ICHRANGEMODE	TOGGLE	T	Ich Auto Range
ICHOFFSETENABLE	TOGGLE	F	Ich Offset Enable
ICHOFFSET	QUANT	0	Ich Offset (V)
ICHFILTER	IQUANT	1	Ich Filter
VCHRANGE	IQUANT	2	Vch Range
VCHRANGEMODE	TOGGLE	T	Vch Auto Range
VCHOFFSETENABLE	TOGGLE	F	Vch Offset Enable
VCHOFFSET	QUANT	0	Vch Offset (V)
VCHFILTER	IQUANT	1	Vch Filter
IERANGELOWERLIMIT	IQUANT	9	I/E Range Lower Limit
IERANGEMODE	TOGGLE	F	I/E AutoRange
IERANGE	IQUANT	9	I/E Range
ACHSELECT	IQUANT	1	Ach Select
ACHRANGE	IQUANT	2	Ach Range
ACHOFFSETENABLE	TOGGLE	F	Ach Offset Enable
ACHOFFSET	QUANT	0	Ach Offset (V)
ACHFILTER	IQUANT	1	Ach Filter
CABLEID	IQUANT	14	Cable ID
DCCALDATE	LABEL	5-7-2017	DC Calibration Date
ACCALDATE	LABEL	12/3/2015	AC Calibration Date
FRAMEWORKVERSION	QUANT	7.01	Framework Version
INSTRUMENTVERSION	LABEL	4.00	Instrument Version
CURVE	TABLE	111
	Pt	T	Vf	Im	Vu	Pwr	Sig	Ach	Temp	IERange	Over
	#	s	V	A	V	W	V	V	deg C	#	bits
	0	0.013333	3.80559E-001	4.00688E-004	0.00000E+000	1.52485E-004	2.40040E-001	3.80660E-001	3.57630E+000	9	...........
	1	0.026667	3.92715E-001	4.00080E-004	0.00000E+000	1.57118E-004	2.40040E-001	3.92789E-001	3.57630E+000	9	...........
	2	0.04	4.03265E-001	3.99976E-004	0.00000E+000	1.61296E-004	2.40040E-001	4.03337E-001	3.57630E+000	9	...........
	3	0.053333	4.12757E-001	4.01573E-004	0.00000E+000	1.65752E-004	2.40040E-001	4.12842E-001	3.57630E+000	9	...........
	4	0.066667	4.21660E-001	4.01079E-004	0.00000E+000	1.69119E-004	2.40040E-001	4.21749E-001	3.57630E+000	9	...........
	5	0.08	4.30095E-001	4.01422E-004	0.00000E+000	1.72650E-004	2.40040E-001	4.30177E-001	3.57630E+000	9	...........
	6	0.093333	4.38192E-001	4.01519E-004	0.00000E+000	1.75943E-004	2.40040E-001	4.38279E-001	3.57630E+000	9	...........
	7	0.106667	4.46041E-001	4.01212E-004	0.00000E+000	1.78957E-004	2.40040E-001	4.46134E-001	3.57630E+000	9	...........
	8	0.12	4.53682E-001	4.00527E-004	0.00000E+000	1.81712E-004	2.40040E-001	4.53774E-001	3.57630E+000	9	...........
	9	0.133333	4.61237E-001	4.01170E-004	0.00000E+000	1.85035E-004	2.40040E-001	4.61330E-001	3.57630E+000	9	...........
	10	0.146667	4.68535E-001	4.00679E-004	0.00000E+000	1.87732E-004	2.40040E-001	4.68628E-001	3.57630E+000	9	...........
	11	0.16	4.75731E-001	4.02230E-004	0.00000E+000	1.91353E-004	2.40040E-001	4.75828E-001	3.57630E+000	9	...........
	12	0.173333	4.82813E-001	3.99478E-004	0.00000E+000	1.92873E-004	2.40040E-001	4.82911E-001	3.57630E+000	9	...........
	13	0.186667	4.89898E-001	4.01105E-004	0.00000E+000	1.96501E-004	2.40040E-001	4.90001E-001	3.57630E+000	9	...........
	14	0.2	4.96815E-001	4.00999E-004	0.00000E+000	1.99222E-004	2.40040E-001	4.96915E-001	3.57630E+000	9	...........
	15	0.213333	5.03586E-001	4.00958E-004	0.00000E+000	2.01917E-004	2.40040E-001	5.03687E-001	3.57630E+000	9	...........
	16	0.226667	5.10316E-001	4.00199E-004	0.00000E+000	2.04228E-004	2.40040E-001	5.10419E-001	3.57630E+000	9	...........
	17	0.24	5.17026E-001	4.01584E-004	0.00000E+000	2.07629E-004	2.40040E-001	5.17126E-001	3.57630E+000	9	...........
	18	0.253333	5.23629E-001	4.00555E-004	0.00000E+000	2.09742E-004	2.40040E-001	5.23738E-001	3.57630E+000	9	...........
	19	0.266667	5.30203E-001	4.01413E-004	0.00000E+000	2.12830E-004	2.40040E-001	5.30314E-001	3.57630E+000	9	...........
	20	0.28	5.36456E-001	4.01155E-004	0.00000E+000	2.15202E-004	2.40040E-001	5.36685E-001	3.57630E+000	9	...........
	21	0.293333	5.42942E-001	4.01152E-004	0.00000E+000	2.17803E-004	2.40040E-001	5.43151E-001	3.57630E+000	9	...........
	22	0.306667	5.49351E-001	4.00651E-004	0.00000E+000	2.20098E-004	2.40040E-001	5.49589E-001	3.57630E+000	9	...........
	23	0.32	5.55762E-001	4.01054E-004	0.00000E+000	2.22891E-004	2.40040E-001	5.56006E-001	3.57630E+000	9	...........
	24	0.333333	5.62102E-001	4.00906E-004	0.00000E+000	2.25350E-004	2.40040E-001	5.62360E-001	3.57630E+000	9	...........
	25	0.346667	5.68474E-001	4.00533E-004	0.00000E+000	2.27693E-004	2.40040E-001	5.68702E-001	3.57630E+000	9	...........
	26	0.36	5.74806E-001	4.01543E-004	0.00000E+000	2.30810E-004	2.40040E-001	5.75015E-001	3.57630E+000	9	...........
	27	0.373333	5.81057E-001	4.01591E-004	0.00000E+000	2.33347E-004	2.40040E-001	5.81306E-001	3.57630E+000	9	...........
	28	0.386667	5.87325E-001	4.00162E-004	0.00000E+000	2.35025E-004	2.40040E-001	5.87582E-001	3.57652E+000	9	...........
	29	0.4	5.93608E-001	4.00431E-004	0.00000E+000	2.37699E-004	2.40040E-001	5.93846E-001	3.57660E+000	9	...........
	30	0.413333	5.99854E-001	4.00066E-004	0.00000E+000	2.39981E-004	2.40040E-001	6.00115E-001	3.57660E+000	9	...........
	31	0.426667	6.06009E-001	4.01239E-004	0.00000E+000	2.43154E-004	2.40040E-001	6.06271E-001	3.57660E+000	9	...........
	32	0.44	6.12126E-001	4.00853E-004	0.00000E+000	2.45373E-004	2.40040E-001	6.12361E-001	3.57660E+000	9	...........
	33	0.453333	6.18274E-001	4.01187E-004	0.00000E+000	2.48043E-004	2.40040E-001	6.18473E-001	3.57660E+000	9	...........
	34	0.466667	6.24371E-001	4.01114E-004	0.00000E+000	2.50444E-004	2.40040E-001	6.24543E-001	3.57660E+000	9	...........
	35	0.48	6.30357E-001	4.01710E-004	0.00000E+000	2.53221E-004	2.40040E-001	6.30513E-001	3.57660E+000	9	...........
	36	0.493333	6.36364E-001	4.00077E-004	0.00000E+000	2.54595E-004	2.40040E-001	6.36523E-001	3.57660E+000	9	...........
	37	0.506667	6.42408E-001	4.02318E-004	0.00000E+000	2.58452E-004	2.40040E-001	6.42563E-001	3.57660E+000	9	...........
	38	0.52	6.48391E-001	4.00288E-004	0.00000E+000	2.59543E-004	2.40040E-001	6.48553E-001	3.57660E+000	9	...........
	39	0.533333	6.54410E-001	4.00240E-004	0.00000E+000	2.61921E-004	2.40040E-001	6.54563E-001	3.57660E+000	9	...........
	40	0.546667	6.60378E-001	4.02710E-004	0.00000E+000	2.65941E-004	2.40040E-001	6.60543E-001	3.57660E+000	9	...........
	41	0.56	6.66299E-001	4.01487E-004	0.00000E+000	2.67510E-004	2.40040E-001	6.66523E-001	3.57660E+000	9	...........
	42	0.573333	6.72214E-001	4.01285E-004	0.00000E+000	2.69749E-004	2.40040E-001	6.72407E-001	3.57660E+000	9	...........
	43	0.586667	6.78130E-001	4.01561E-004	0.00000E+000	2.72310E-004	2.40040E-001	6.78328E-001	3.57660E+000	9	...........
	44	0.6	6.83998E-001	4.00984E-004	0.00000E+000	2.74272E-004	2.40040E-001	6.84190E-001	3.57660E+000	9	...........
	45	0.613333	6.89825E-001	4.01173E-004	0.00000E+000	2.76739E-004	2.40040E-001	6.90009E-001	3.57660E+000	9	...........
	46	0.626667	6.95607E-001	4.01761E-004	0.00000E+000	2.79468E-004	2.40040E-001	6.95834E-001	3.57660E+000	9	...........
	47	0.64	7.01407E-001	4.01293E-004	0.00000E+000	2.81470E-004	2.40040E-001	7.01609E-001	3.57660E+000	9	...........
	48	0.653333	7.07182E-001	4.00953E-004	0.00000E+000	2.83547E-004	2.40040E-001	7.07414E-001	3.57660E+000	9	...........
	49	0.666667	7.12945E-001	4.00930E-004	0.00000E+000	2.85841E-004	2.40040E-001	7.13135E-001	3.57660E+000	9	...........
	50	0.68	7.18691E-001	4.02381E-004	0.00000E+000	2.89187E-004	2.40040E-001	7.18883E-001	3.57660E+000	9	...........
	51	0.693333	7.24322E-001	4.00774E-004	0.00000E+000	2.90289E-004	2.40040E-001	7.24519E-001	3.57660E+000	9	...........
	52	0.706667	7.29974E-001	4.01497E-004	0.00000E+000	2.93082E-004	2.40040E-001	7.30170E-001	3.57660E+000	9	...........
	53	0.72	7.35687E-001	4.00540E-004	0.00000E+000	2.94672E-004	2.40040E-001	7.35881E-001	3.57660E+000	9	...........
	54	0.733333	7.41293E-001	4.01918E-004	0.00000E+000	2.97939E-004	2.40040E-001	7.41526E-001	3.57660E+000	9	...........
	55	0.746667	7.46879E-001	4.02015E-004	0.00000E+000	3.00257E-004	2.40040E-001	7.47078E-001	3.57660E+000	9	...........
	56	0.76	7.52428E-001	4.01856E-004	0.00000E+000	3.02368E-004	2.40040E-001	7.52659E-001	3.57660E+000	9	...........
	57	0.773333	7.57947E-001	4.01363E-004	0.00000E+000	3.04212E-004	2.40040E-001	7.58171E-001	3.57660E+000	9	...........
	58	0.786667	7.63456E-001	4.00166E-004	0.00000E+000	3.05509E-004	2.40040E-001	7.63675E-001	3.57660E+000	9	...........
	59	0.8	7.68919E-001	4.01138E-004	0.00000E+000	3.08443E-004	2.40040E-001	7.69190E-001	3.57660E+000	9	...........
	60	0.813333	7.74356E-001	4.00658E-004	0.00000E+000	3.10252E-004	2.40040E-001	7.74620E-001	3.57660E+000	9	...........
	61	0.826667	7.79801E-001	4.01316E-004	0.00000E+000	3.12947E-004	2.40040E-001	7.80080E-001	3.57660E+000	9	...........
	62	0.84	7.85157E-001	4.00862E-004	0.00000E+000	3.14739E-004	2.40040E-001	7.85407E-001	3.57660E+000	9	...........
	63	0.853333	7.90521E-001	4.01036E-004	0.00000E+000	3.17027E-004	2.40040E-001	7.90797E-001	3.57660E+000	9	...........
	64	0.866667	7.95852E-001	4.00328E-004	0.00000E+000	3.18602E-004	2.40040E-001	7.96111E-001	3.57660E+000	9	...........
	65	0.88	8.01164E-001	4.01056E-004	0.00000E+000	3.21312E-004	2.40040E-001	8.01395E-001	3.57660E+000	9	...........
	66	0.893333	8.06322E-001	4.01225E-004	0.00000E+000	3.23517E-004	2.40040E-001	8.06598E-001	3.57660E+000	9	...........
	67	0.906667	8.11498E-001	4.01409E-004	0.00000E+000	3.25742E-004	2.40040E-001	8.11778E-001	3.57660E+000	9	...........
	68	0.92	8.16721E-001	4.01572E-004	0.00000E+000	3.27972E-004	2.40040E-001	8.17003E-001	3.57660E+000	9	...........
	69	0.933333	8.21888E-001	4.01254E-004	0.00000E+000	3.29786E-004	2.40040E-001	8.22192E-001	3.57660E+000	9	...........
	70	0.946667	8.27045E-001	4.00878E-004	0.00000E+000	3.31544E-004	2.40040E-001	8.27331E-001	3.57660E+000	9	...........
	71	0.96	8.32069E-001	4.00372E-004	0.00000E+000	3.33137E-004	2.40040E-001	8.32343E-001	3.57660E+000	9	...........
	72	0.97333	8.37141E-001	4.00660E-004	0.00000E+000	3.35408E-004	2.40040E-001	8.37453E-001	3.57660E+000	9	...........
	73	0.98667	8.42168E-001	4.02324E-004	0.00000E+000	3.38825E-004	2.40040E-001	8.42442E-001	3.57660E+000	9	...........
	74	1	8.47195E-001	4.01058E-004	0.00000E+000	3.39774E-004	2.40040E-001	8.47479E-001	3.57660E+000	9	...........
	75	1.01333	8.52159E-001	4.00486E-004	0.00000E+000	3.41277E-004	2.40040E-001	8.52409E-001	3.57660E+000	9	...........
	76	1.02667	8.56993E-001	3.99538E-004	0.00000E+000	3.42402E-004	2.40040E-001	8.57308E-001	3.57660E+000	9	...........
	77	1.04	8.61857E-001	4.00116E-004	0.00000E+000	3.44843E-004	2.40040E-001	8.62156E-001	3.57660E+000	9	...........
	78	1.05333	8.66714E-001	4.00280E-004	0.00000E+000	3.46929E-004	2.40040E-001	8.66999E-001	3.57660E+000	9	...........
	79	1.06667	8.71549E-001	4.01818E-004	0.00000E+000	3.50204E-004	2.40040E-001	8.71846E-001	3.57660E+000	9	...........
	80	1.08	8.76289E-001	4.01612E-004	0.00000E+000	3.51928E-004	2.40040E-001	8.76578E-001	3.57660E+000	9	...........
	81	1.09333	8.81002E-001	4.01260E-004	0.00000E+000	3.53511E-004	2.40040E-001	8.81318E-001	3.57660E+000	9	...........
	82	1.10667	8.85681E-001	4.01096E-004	0.00000E+000	3.55243E-004	2.40040E-001	8.86001E-001	3.57660E+000	9	...........
	83	1.12	8.90362E-001	4.00433E-004	0.00000E+000	3.56531E-004	2.40040E-001	8.90678E-001	3.57660E+000	9	...........
	84	1.13333	8.94976E-001	4.01528E-004	0.00000E+000	3.59358E-004	2.40040E-001	8.95323E-001	3.57660E+000	9	...........
	85	1.14667	8.99599E-001	4.00651E-004	0.00000E+000	3.60425E-004	2.40040E-001	8.99935E-001	3.57660E+000	9	...........
	86	1.16	9.04178E-001	4.00318E-004	0.00000E+000	3.61959E-004	2.40040E-001	9.04498E-001	3.57660E+000	9	...........
	87	1.17333	9.08682E-001	4.01189E-004	0.00000E+000	3.64553E-004	2.40040E-001	9.08995E-001	3.57660E+000	9	...........
	88	1.18667	9.13144E-001	4.01932E-004	0.00000E+000	3.67021E-004	2.40040E-001	9.13447E-001	3.57660E+000	9	...........
	89	1.2	9.17602E-001	4.01222E-004	0.00000E+000	3.68162E-004	2.40040E-001	9.17904E-001	3.57660E+000	9	...........
	90	1.21333	9.22111E-001	4.00879E-004	0.00000E+000	3.69655E-004	2.40040E-001	9.22360E-001	3.57660E+000	9	...........
	91	1.22667	9.26465E-001	3.99447E-004	0.00000E+000	3.70073E-004	2.40040E-001	9.26734E-001	3.57660E+000	9	...........
	92	1.24	9.30765E-001	3.99537E-004	0.00000E+000	3.71876E-004	2.40040E-001	9.31004E-001	3.57660E+000	9	...........
	93	1.25333	9.35017E-001	4.01637E-004	0.00000E+000	3.75537E-004	2.40040E-001	9.35309E-001	3.57660E+000	9	...........
	94	1.26667	9.39247E-001	4.01499E-004	0.00000E+000	3.77107E-004	2.40040E-001	9.39550E-001	3.57660E+000	9	...........
	95	1.28	9.43421E-001	4.01393E-004	0.00000E+000	3.78683E-004	2.40040E-001	9.43701E-001	3.57660E+000	9	...........
	96	1.29333	9.47617E-001	4.00665E-004	0.00000E+000	3.79677E-004	2.40040E-001	9.47864E-001	3.57660E+000	9	...........
	97	1.30667	9.51692E-001	4.00122E-004	0.00000E+000	3.80793E-004	2.40040E-001	9.51966E-001	3.57660E+000	9	...........
	98	1.32	9.55777E-001	4.00796E-004	0.00000E+000	3.83072E-004	2.40040E-001	9.56030E-001	3.57660E+000	9	...........
	99	1.33333	9.59807E-001	4.00581E-004	0.00000E+000	3.84481E-004	2.40040E-001	9.60094E-001	3.57660E+000	9	...........
	100	1.34667	9.63776E-001	3.99774E-004	0.00000E+000	3.85293E-004	2.40040E-001	9.64085E-001	3.57660E+000	9	...........
	101	1.36	9.67734E-001	4.01167E-004	0.00000E+000	3.88223E-004	2.40040E-001	9.68039E-001	3.57660E+000	9	...........
	102	1.37333	9.71667E-001	4.01134E-004	0.00000E+000	3.89768E-004	2.40040E-001	9.71984E-001	3.57660E+000	9	...........
	103	1.38667	9.75572E-001	4.00799E-004	0.00000E+000	3.91008E-004	2.40040E-001	9.75851E-001	3.57637E+000	9	...........
	104	1.4	9.79412E-001	4.01866E-004	0.00000E+000	3.93592E-004	2.40040E-001	9.79703E-001	3.57630E+000	9	...........
	105	1.41333	9.83152E-001	4.00268E-004	0.00000E+000	3.93524E-004	2.40040E-001	9.83461E-001	3.57630E+000	9	...........
	106	1.42667	9.86935E-001	4.02215E-004	0.00000E+000	3.96960E-004	2.40040E-001	9.87222E-001	3.57630E+000	9	...........
	107	1.44	9.90659E-001	4.00086E-004	0.00000E+000	3.96349E-004	2.40040E-001	9.90960E-001	3.57630E+000	9	...........
	108	1.45333	9.94384E-001	4.00920E-004	0.00000E+000	3.98668E-004	2.40040E-001	9.94677E-001	3.57630E+000	9	...........
	109	1.46667	9.98059E-001	4.01249E-004	0.00000E+000	4.00470E-004	2.40040E-001	9.98370E-001	3.57630E+000	9	...........
	110	1.46833	1.00008E+000	4.00661E-004	0.00000E+000	4.00691E-004	2.40040E-001	1.00043E+000	3.57630E+000	9	...........
STARTTIMEOFFSET	QUANT	2302.658	Start Time Offset (s)
