EXPLAIN
TAG	PWR800_CHARGE
TITLE	LABEL	PWR Cyclic Charge Discharge (Cell) - Charge Step	Test &Identifier
DATE	LABEL	12-7-2017	Date
TIME	LABEL	14:52:24	Time
NOTES	NOTES	3	&Notes...
	supercap test cell
	0.4mg
	6M KOH
PSTAT	PSTAT	IFC5000-01520	Potentiostat
CAPACITY	QUANT	1.00000E-003	Capacity (A-hr)
CELLTYPE	SELECTOR	1	&Cell Type
WORKINGCONNECTION	SELECTOR	0	&Working Lead
MAXCHARGETIME	VARIABLEANDUNITS	1.00000E+002	s	1.00000E+002	second(s)	Max &Charge Time
CHARGECURRENT	QUANT	4.00000E-004	&Charge Current (A) 
VOLTAGEFINISH	TWOPARAM	F	1.00000E-003	3.60000E+003	&Voltage Finish	 I (A) < 	Max Time(s)
SAMPLETIME	QUANT	1.00000E-002	Sa&mple Period (s)
CHARGESTOPAT1	MULTIPARAM	4	1.00000E+000	Charge Stop At &1	Voltage > Limit	V
CHARGESTOPAT2	MULTIPARAM	0	0.00000E+000	Charge Stop At &2	None	N/A
AESBHCSELECTOR	TOGGLE	F	Save Both Half Cells
IRCOMP	TOGGLE	F	IR &Measure
EOC	QUANT	0	Open Circuit (V)
SEQUENCER	TOGGLE	TRUE	Run as Sequence
PSTATMODEL	IQUANT	53	Pstat Model
PSTATSECTION	LABEL	IFC5000-01520	Pstat Section
PSTATSERIALNO	LABEL	01520	Pstat Serial Number
CTRLMODE	IQUANT	0	Control Mode
ELECTROMETER	IQUANT	1	RE=0 or CS=1
IESTAB	IQUANT	0	I/E Stability
CASPEED	IQUANT	4	Control Amp Speed
CONVENTION	IQUANT	1	Current Convention
ICHRANGE	IQUANT	2	Ich Range
ICHRANGEMODE	TOGGLE	T	Ich Auto Range
ICHOFFSETENABLE	TOGGLE	F	Ich Offset Enable
ICHOFFSET	QUANT	0	Ich Offset (V)
ICHFILTER	IQUANT	1	Ich Filter
VCHRANGE	IQUANT	2	Vch Range
VCHRANGEMODE	TOGGLE	T	Vch Auto Range
VCHOFFSETENABLE	TOGGLE	F	Vch Offset Enable
VCHOFFSET	QUANT	0	Vch Offset (V)
VCHFILTER	IQUANT	1	Vch Filter
IERANGELOWERLIMIT	IQUANT	9	I/E Range Lower Limit
IERANGEMODE	TOGGLE	F	I/E AutoRange
IERANGE	IQUANT	9	I/E Range
ACHSELECT	IQUANT	1	Ach Select
ACHRANGE	IQUANT	2	Ach Range
ACHOFFSETENABLE	TOGGLE	F	Ach Offset Enable
ACHOFFSET	QUANT	0	Ach Offset (V)
ACHFILTER	IQUANT	1	Ach Filter
CABLEID	IQUANT	14	Cable ID
DCCALDATE	LABEL	5-7-2017	DC Calibration Date
ACCALDATE	LABEL	12/3/2015	AC Calibration Date
FRAMEWORKVERSION	QUANT	7.01	Framework Version
INSTRUMENTVERSION	LABEL	4.00	Instrument Version
CURVE	TABLE	117
	Pt	T	Vf	Im	Vu	Pwr	Sig	Ach	Temp	IERange	Over
	#	s	V	A	V	W	V	V	deg C	#	bits
	0	0.013333	3.66298E-001	4.01279E-004	0.00000E+000	1.46988E-004	2.40040E-001	3.66385E-001	3.57630E+000	9	...........
	1	0.026667	3.77955E-001	4.00858E-004	0.00000E+000	1.51506E-004	2.40040E-001	3.78026E-001	3.57630E+000	9	...........
	2	0.04	3.87989E-001	4.00773E-004	0.00000E+000	1.55496E-004	2.40040E-001	3.88063E-001	3.57630E+000	9	...........
	3	0.053333	3.97109E-001	4.00784E-004	0.00000E+000	1.59155E-004	2.40040E-001	3.97183E-001	3.57630E+000	9	...........
	4	0.066667	4.05631E-001	4.01790E-004	0.00000E+000	1.62978E-004	2.40040E-001	4.05709E-001	3.57630E+000	9	...........
	5	0.08	4.13694E-001	4.01171E-004	0.00000E+000	1.65962E-004	2.40040E-001	4.13776E-001	3.57630E+000	9	...........
	6	0.093333	4.21466E-001	4.00493E-004	0.00000E+000	1.68794E-004	2.40040E-001	4.21551E-001	3.57630E+000	9	...........
	7	0.106667	4.29087E-001	4.00784E-004	0.00000E+000	1.71971E-004	2.40040E-001	4.29179E-001	3.57630E+000	9	...........
	8	0.12	4.36442E-001	4.00827E-004	0.00000E+000	1.74938E-004	2.40040E-001	4.36533E-001	3.57630E+000	9	...........
	9	0.133333	4.43654E-001	3.99247E-004	0.00000E+000	1.77127E-004	2.40040E-001	4.43740E-001	3.57630E+000	9	...........
	10	0.146667	4.50704E-001	4.01070E-004	0.00000E+000	1.80764E-004	2.40040E-001	4.50796E-001	3.57630E+000	9	...........
	11	0.16	4.57561E-001	4.00820E-004	0.00000E+000	1.83400E-004	2.40040E-001	4.57650E-001	3.57630E+000	9	...........
	12	0.173333	4.64383E-001	4.00757E-004	0.00000E+000	1.86105E-004	2.40040E-001	4.64472E-001	3.57630E+000	9	...........
	13	0.186667	4.71055E-001	4.01660E-004	0.00000E+000	1.89204E-004	2.40040E-001	4.71149E-001	3.57630E+000	9	...........
	14	0.2	4.77724E-001	4.00733E-004	0.00000E+000	1.91440E-004	2.40040E-001	4.77816E-001	3.57630E+000	9	...........
	15	0.213333	4.84302E-001	4.01640E-004	0.00000E+000	1.94515E-004	2.40040E-001	4.84399E-001	3.57630E+000	9	...........
	16	0.226667	4.90857E-001	4.00065E-004	0.00000E+000	1.96374E-004	2.40040E-001	4.90959E-001	3.57630E+000	9	...........
	17	0.24	4.97323E-001	4.00632E-004	0.00000E+000	1.99244E-004	2.40040E-001	4.97428E-001	3.57630E+000	9	...........
	18	0.253333	5.03707E-001	4.01323E-004	0.00000E+000	2.02149E-004	2.40040E-001	5.03810E-001	3.57630E+000	9	...........
	19	0.266667	5.10042E-001	4.01837E-004	0.00000E+000	2.04954E-004	2.40040E-001	5.10144E-001	3.57630E+000	9	...........
	20	0.28	5.16325E-001	4.00604E-004	0.00000E+000	2.06842E-004	2.40040E-001	5.16431E-001	3.57630E+000	9	...........
	21	0.293333	5.22565E-001	3.99944E-004	0.00000E+000	2.08996E-004	2.40040E-001	5.22673E-001	3.57630E+000	9	...........
	22	0.306667	5.28765E-001	4.00866E-004	0.00000E+000	2.11964E-004	2.40040E-001	5.28868E-001	3.57630E+000	9	...........
	23	0.32	5.34791E-001	4.00975E-004	0.00000E+000	2.14438E-004	2.40040E-001	5.34929E-001	3.57630E+000	9	...........
	24	0.333333	5.40868E-001	3.99712E-004	0.00000E+000	2.16192E-004	2.40040E-001	5.41101E-001	3.57630E+000	9	...........
	25	0.346667	5.46954E-001	4.02199E-004	0.00000E+000	2.19984E-004	2.40040E-001	5.47170E-001	3.57630E+000	9	...........
	26	0.36	5.53031E-001	4.00166E-004	0.00000E+000	2.21304E-004	2.40040E-001	5.53255E-001	3.57630E+000	9	...........
	27	0.373333	5.59019E-001	4.00055E-004	0.00000E+000	2.23639E-004	2.40040E-001	5.59262E-001	3.57634E+000	9	...........
	28	0.386667	5.65058E-001	4.00141E-004	0.00000E+000	2.26103E-004	2.40040E-001	5.65274E-001	3.57660E+000	9	...........
	29	0.4	5.71055E-001	4.02057E-004	0.00000E+000	2.29597E-004	2.40040E-001	5.71275E-001	3.57660E+000	9	...........
	30	0.413333	5.77002E-001	4.00421E-004	0.00000E+000	2.31044E-004	2.40040E-001	5.77220E-001	3.57660E+000	9	...........
	31	0.426667	5.82923E-001	4.00736E-004	0.00000E+000	2.33598E-004	2.40040E-001	5.83132E-001	3.57660E+000	9	...........
	32	0.44	5.88877E-001	4.01066E-004	0.00000E+000	2.36178E-004	2.40040E-001	5.89096E-001	3.57660E+000	9	...........
	33	0.453333	5.94764E-001	4.01175E-004	0.00000E+000	2.38605E-004	2.40040E-001	5.94988E-001	3.57660E+000	9	...........
	34	0.466667	6.00712E-001	4.01665E-004	0.00000E+000	2.41285E-004	2.40040E-001	6.00953E-001	3.57660E+000	9	...........
	35	0.48	6.06516E-001	4.01185E-004	0.00000E+000	2.43325E-004	2.40040E-001	6.06748E-001	3.57660E+000	9	...........
	36	0.493333	6.12300E-001	3.99863E-004	0.00000E+000	2.44836E-004	2.40040E-001	6.12544E-001	3.57660E+000	9	...........
	37	0.506667	6.18145E-001	4.01217E-004	0.00000E+000	2.48010E-004	2.40040E-001	6.18369E-001	3.57660E+000	9	...........
	38	0.52	6.23942E-001	4.00603E-004	0.00000E+000	2.49953E-004	2.40040E-001	6.24139E-001	3.57660E+000	9	...........
	39	0.533333	6.29718E-001	4.00392E-004	0.00000E+000	2.52134E-004	2.40040E-001	6.29928E-001	3.57660E+000	9	...........
	40	0.546667	6.35426E-001	3.99841E-004	0.00000E+000	2.54069E-004	2.40040E-001	6.35649E-001	3.57660E+000	9	...........
	41	0.56	6.41240E-001	4.02437E-004	0.00000E+000	2.58059E-004	2.40040E-001	6.41449E-001	3.57660E+000	9	...........
	42	0.573333	6.46924E-001	4.00887E-004	0.00000E+000	2.59343E-004	2.40040E-001	6.47141E-001	3.57660E+000	9	...........
	43	0.586667	6.52645E-001	4.01937E-004	0.00000E+000	2.62322E-004	2.40040E-001	6.52864E-001	3.57660E+000	9	...........
	44	0.6	6.58317E-001	4.01120E-004	0.00000E+000	2.64064E-004	2.40040E-001	6.58542E-001	3.57660E+000	9	...........
	45	0.613333	6.64026E-001	4.01782E-004	0.00000E+000	2.66793E-004	2.40040E-001	6.64247E-001	3.57660E+000	9	...........
	46	0.626667	6.69674E-001	4.00251E-004	0.00000E+000	2.68038E-004	2.40040E-001	6.69873E-001	3.57660E+000	9	...........
	47	0.64	6.75280E-001	4.00271E-004	0.00000E+000	2.70295E-004	2.40040E-001	6.75489E-001	3.57660E+000	9	...........
	48	0.653333	6.80912E-001	4.00665E-004	0.00000E+000	2.72817E-004	2.40040E-001	6.81117E-001	3.57660E+000	9	...........
	49	0.666667	6.86426E-001	4.00632E-004	0.00000E+000	2.75005E-004	2.40040E-001	6.86643E-001	3.57660E+000	9	...........
	50	0.68	6.92033E-001	4.02214E-004	0.00000E+000	2.78346E-004	2.40040E-001	6.92249E-001	3.57660E+000	9	...........
	51	0.693333	6.97603E-001	4.01663E-004	0.00000E+000	2.80201E-004	2.40040E-001	6.97820E-001	3.57660E+000	9	...........
	52	0.706667	7.03221E-001	4.02066E-004	0.00000E+000	2.82741E-004	2.40040E-001	7.03435E-001	3.57660E+000	9	...........
	53	0.72	7.08790E-001	3.99898E-004	0.00000E+000	2.83444E-004	2.40040E-001	7.09019E-001	3.57660E+000	9	...........
	54	0.733333	7.14308E-001	4.01551E-004	0.00000E+000	2.86831E-004	2.40040E-001	7.14576E-001	3.57660E+000	9	...........
	55	0.746667	7.19787E-001	4.01489E-004	0.00000E+000	2.88987E-004	2.40040E-001	7.19998E-001	3.57660E+000	9	...........
	56	0.76	7.25199E-001	4.00321E-004	0.00000E+000	2.90313E-004	2.40040E-001	7.25424E-001	3.57660E+000	9	...........
	57	0.773333	7.30636E-001	4.00424E-004	0.00000E+000	2.92564E-004	2.40040E-001	7.30879E-001	3.57660E+000	9	...........
	58	0.786667	7.35953E-001	4.01283E-004	0.00000E+000	2.95325E-004	2.40040E-001	7.36166E-001	3.57660E+000	9	...........
	59	0.8	7.41310E-001	4.01050E-004	0.00000E+000	2.97303E-004	2.40040E-001	7.41549E-001	3.57660E+000	9	...........
	60	0.813333	7.46621E-001	4.00863E-004	0.00000E+000	2.99293E-004	2.40040E-001	7.46853E-001	3.57660E+000	9	...........
	61	0.826667	7.51976E-001	4.02161E-004	0.00000E+000	3.02415E-004	2.40040E-001	7.52209E-001	3.57660E+000	9	...........
	62	0.84	7.57330E-001	4.00392E-004	0.00000E+000	3.03229E-004	2.40040E-001	7.57569E-001	3.57660E+000	9	...........
	63	0.853333	7.62711E-001	4.00685E-004	0.00000E+000	3.05606E-004	2.40040E-001	7.62970E-001	3.57660E+000	9	...........
	64	0.866667	7.67951E-001	4.01935E-004	0.00000E+000	3.08666E-004	2.40040E-001	7.68239E-001	3.57660E+000	9	...........
	65	0.88	7.73238E-001	4.00508E-004	0.00000E+000	3.09689E-004	2.40040E-001	7.73509E-001	3.57660E+000	9	...........
	66	0.893333	7.78442E-001	4.00103E-004	0.00000E+000	3.11457E-004	2.40040E-001	7.78725E-001	3.57660E+000	9	...........
	67	0.906667	7.83670E-001	4.00409E-004	0.00000E+000	3.13789E-004	2.40040E-001	7.83931E-001	3.57660E+000	9	...........
	68	0.92	7.88797E-001	4.00869E-004	0.00000E+000	3.16204E-004	2.40040E-001	7.89071E-001	3.57660E+000	9	...........
	69	0.933333	7.93995E-001	4.00525E-004	0.00000E+000	3.18015E-004	2.40040E-001	7.94291E-001	3.57660E+000	9	...........
	70	0.946667	7.99156E-001	4.00973E-004	0.00000E+000	3.20440E-004	2.40040E-001	7.99410E-001	3.57660E+000	9	...........
	71	0.96	8.04257E-001	4.00844E-004	0.00000E+000	3.22382E-004	2.40040E-001	8.04517E-001	3.57660E+000	9	...........
	72	0.97333	8.09287E-001	4.00497E-004	0.00000E+000	3.24117E-004	2.40040E-001	8.09563E-001	3.57660E+000	9	...........
	73	0.98667	8.14305E-001	4.01618E-004	0.00000E+000	3.27040E-004	2.40040E-001	8.14602E-001	3.57660E+000	9	...........
	74	1	8.19349E-001	4.01434E-004	0.00000E+000	3.28914E-004	2.40040E-001	8.19642E-001	3.57660E+000	9	...........
	75	1.01333	8.24307E-001	4.00097E-004	0.00000E+000	3.29803E-004	2.40040E-001	8.24600E-001	3.57660E+000	9	...........
	76	1.02667	8.29255E-001	4.01122E-004	0.00000E+000	3.32633E-004	2.40040E-001	8.29526E-001	3.57660E+000	9	...........
	77	1.04	8.34156E-001	4.01609E-004	0.00000E+000	3.35004E-004	2.40040E-001	8.34442E-001	3.57660E+000	9	...........
	78	1.05333	8.38941E-001	4.01849E-004	0.00000E+000	3.37128E-004	2.40040E-001	8.39256E-001	3.57660E+000	9	...........
	79	1.06667	8.43751E-001	4.01228E-004	0.00000E+000	3.38537E-004	2.40040E-001	8.44051E-001	3.57660E+000	9	...........
	80	1.08	8.48619E-001	4.00756E-004	0.00000E+000	3.40089E-004	2.40040E-001	8.48939E-001	3.57660E+000	9	...........
	81	1.09333	8.53454E-001	4.02173E-004	0.00000E+000	3.43237E-004	2.40040E-001	8.53747E-001	3.57660E+000	9	...........
	82	1.10667	8.58229E-001	4.00539E-004	0.00000E+000	3.43754E-004	2.40040E-001	8.58539E-001	3.57660E+000	9	...........
	83	1.12	8.62914E-001	3.99923E-004	0.00000E+000	3.45099E-004	2.40040E-001	8.63206E-001	3.57660E+000	9	...........
	84	1.13333	8.67645E-001	4.01018E-004	0.00000E+000	3.47941E-004	2.40040E-001	8.67932E-001	3.57660E+000	9	...........
	85	1.14667	8.72346E-001	4.01509E-004	0.00000E+000	3.50255E-004	2.40040E-001	8.72634E-001	3.57660E+000	9	...........
	86	1.16	8.76971E-001	4.01605E-004	0.00000E+000	3.52195E-004	2.40040E-001	8.77261E-001	3.57660E+000	9	...........
	87	1.17333	8.81573E-001	4.01194E-004	0.00000E+000	3.53682E-004	2.40040E-001	8.81829E-001	3.57660E+000	9	...........
	88	1.18667	8.86115E-001	4.00149E-004	0.00000E+000	3.54578E-004	2.40040E-001	8.86403E-001	3.57660E+000	9	...........
	89	1.2	8.90629E-001	4.01241E-004	0.00000E+000	3.57357E-004	2.40040E-001	8.90911E-001	3.57660E+000	9	...........
	90	1.21333	8.95146E-001	4.00167E-004	0.00000E+000	3.58208E-004	2.40040E-001	8.95443E-001	3.57660E+000	9	...........
	91	1.22667	8.99525E-001	4.01466E-004	0.00000E+000	3.61129E-004	2.40040E-001	8.99830E-001	3.57660E+000	9	...........
	92	1.24	9.03928E-001	4.02021E-004	0.00000E+000	3.63398E-004	2.40040E-001	9.04244E-001	3.57660E+000	9	...........
	93	1.25333	9.08292E-001	4.01121E-004	0.00000E+000	3.64335E-004	2.40040E-001	9.08587E-001	3.57660E+000	9	...........
	94	1.26667	9.12572E-001	4.02061E-004	0.00000E+000	3.66910E-004	2.40040E-001	9.12858E-001	3.57660E+000	9	...........
	95	1.28	9.16854E-001	4.01168E-004	0.00000E+000	3.67812E-004	2.40040E-001	9.17144E-001	3.57660E+000	9	...........
	96	1.29333	9.21207E-001	4.01275E-004	0.00000E+000	3.69658E-004	2.40040E-001	9.21490E-001	3.57660E+000	9	...........
	97	1.30667	9.25453E-001	4.00576E-004	0.00000E+000	3.70715E-004	2.40040E-001	9.25710E-001	3.57660E+000	9	...........
	98	1.32	9.29656E-001	4.01294E-004	0.00000E+000	3.73066E-004	2.40040E-001	9.29905E-001	3.57660E+000	9	...........
	99	1.33333	9.33822E-001	4.01414E-004	0.00000E+000	3.74849E-004	2.40040E-001	9.34093E-001	3.57660E+000	9	...........
	100	1.34667	9.37903E-001	4.00580E-004	0.00000E+000	3.75706E-004	2.40040E-001	9.38206E-001	3.57660E+000	9	...........
	101	1.36	9.41940E-001	4.00948E-004	0.00000E+000	3.77669E-004	2.40040E-001	9.42221E-001	3.57660E+000	9	...........
	102	1.37333	9.45924E-001	4.00637E-004	0.00000E+000	3.78972E-004	2.40040E-001	9.46216E-001	3.57655E+000	9	...........
	103	1.38667	9.49955E-001	4.01288E-004	0.00000E+000	3.81205E-004	2.40040E-001	9.50243E-001	3.57620E+000	9	...........
	104	1.4	9.53893E-001	4.00762E-004	0.00000E+000	3.82284E-004	2.40040E-001	9.54186E-001	3.57620E+000	9	...........
	105	1.41333	9.57827E-001	4.00132E-004	0.00000E+000	3.83257E-004	2.40040E-001	9.58116E-001	3.57620E+000	9	...........
	106	1.42667	9.61733E-001	4.01396E-004	0.00000E+000	3.86036E-004	2.40040E-001	9.62023E-001	3.57620E+000	9	...........
	107	1.44	9.65592E-001	3.99895E-004	0.00000E+000	3.86135E-004	2.40040E-001	9.65874E-001	3.57620E+000	9	...........
	108	1.45333	9.69376E-001	4.01888E-004	0.00000E+000	3.89580E-004	2.40040E-001	9.69686E-001	3.57620E+000	9	...........
	109	1.46667	9.73232E-001	4.00401E-004	0.00000E+000	3.89683E-004	2.40040E-001	9.73535E-001	3.57620E+000	9	...........
	110	1.48	9.76971E-001	4.00643E-004	0.00000E+000	3.91417E-004	2.40040E-001	9.77281E-001	3.57620E+000	9	...........
	111	1.49333	9.80709E-001	4.00234E-004	0.00000E+000	3.92513E-004	2.40040E-001	9.81018E-001	3.57620E+000	9	...........
	112	1.50667	9.84373E-001	4.00861E-004	0.00000E+000	3.94596E-004	2.40040E-001	9.84694E-001	3.57620E+000	9	...........
	113	1.52	9.87919E-001	4.01040E-004	0.00000E+000	3.96195E-004	2.40040E-001	9.88244E-001	3.57620E+000	9	...........
	114	1.53333	9.91517E-001	4.01076E-004	0.00000E+000	3.97674E-004	2.40040E-001	9.91831E-001	3.57620E+000	9	...........
	115	1.54667	9.95093E-001	4.00607E-004	0.00000E+000	3.98642E-004	2.40040E-001	9.95391E-001	3.57620E+000	9	...........
	116	1.56	9.98560E-001	4.01068E-004	0.00000E+000	4.00491E-004	2.40040E-001	9.98876E-001	3.57620E+000	9	...........
STARTTIMEOFFSET	QUANT	1614.964	Start Time Offset (s)
