EXPLAIN
TAG	PWR800_CHARGE
TITLE	LABEL	PWR Cyclic Charge Discharge (Cell) - Charge Step	Test &Identifier
DATE	LABEL	12-7-2017	Date
TIME	LABEL	14:28:20	Time
NOTES	NOTES	3	&Notes...
	supercap test cell
	0.4mg
	6M KOH
PSTAT	PSTAT	IFC5000-01520	Potentiostat
CAPACITY	QUANT	1.00000E-003	Capacity (A-hr)
CELLTYPE	SELECTOR	1	&Cell Type
WORKINGCONNECTION	SELECTOR	0	&Working Lead
MAXCHARGETIME	VARIABLEANDUNITS	1.00000E+002	s	1.00000E+002	second(s)	Max &Charge Time
CHARGECURRENT	QUANT	4.00000E-004	&Charge Current (A) 
VOLTAGEFINISH	TWOPARAM	F	1.00000E-003	3.60000E+003	&Voltage Finish	 I (A) < 	Max Time(s)
SAMPLETIME	QUANT	1.00000E-002	Sa&mple Period (s)
CHARGESTOPAT1	MULTIPARAM	4	1.00000E+000	Charge Stop At &1	Voltage > Limit	V
CHARGESTOPAT2	MULTIPARAM	0	0.00000E+000	Charge Stop At &2	None	N/A
AESBHCSELECTOR	TOGGLE	F	Save Both Half Cells
IRCOMP	TOGGLE	F	IR &Measure
EOC	QUANT	0	Open Circuit (V)
SEQUENCER	TOGGLE	TRUE	Run as Sequence
PSTATMODEL	IQUANT	53	Pstat Model
PSTATSECTION	LABEL	IFC5000-01520	Pstat Section
PSTATSERIALNO	LABEL	01520	Pstat Serial Number
CTRLMODE	IQUANT	0	Control Mode
ELECTROMETER	IQUANT	1	RE=0 or CS=1
IESTAB	IQUANT	0	I/E Stability
CASPEED	IQUANT	4	Control Amp Speed
CONVENTION	IQUANT	1	Current Convention
ICHRANGE	IQUANT	2	Ich Range
ICHRANGEMODE	TOGGLE	T	Ich Auto Range
ICHOFFSETENABLE	TOGGLE	F	Ich Offset Enable
ICHOFFSET	QUANT	0	Ich Offset (V)
ICHFILTER	IQUANT	1	Ich Filter
VCHRANGE	IQUANT	2	Vch Range
VCHRANGEMODE	TOGGLE	T	Vch Auto Range
VCHOFFSETENABLE	TOGGLE	F	Vch Offset Enable
VCHOFFSET	QUANT	0	Vch Offset (V)
VCHFILTER	IQUANT	1	Vch Filter
IERANGELOWERLIMIT	IQUANT	9	I/E Range Lower Limit
IERANGEMODE	TOGGLE	F	I/E AutoRange
IERANGE	IQUANT	9	I/E Range
ACHSELECT	IQUANT	1	Ach Select
ACHRANGE	IQUANT	2	Ach Range
ACHOFFSETENABLE	TOGGLE	F	Ach Offset Enable
ACHOFFSET	QUANT	0	Ach Offset (V)
ACHFILTER	IQUANT	1	Ach Filter
CABLEID	IQUANT	14	Cable ID
DCCALDATE	LABEL	5-7-2017	DC Calibration Date
ACCALDATE	LABEL	12/3/2015	AC Calibration Date
FRAMEWORKVERSION	QUANT	7.01	Framework Version
INSTRUMENTVERSION	LABEL	4.00	Instrument Version
CURVE	TABLE	136
	Pt	T	Vf	Im	Vu	Pwr	Sig	Ach	Temp	IERange	Over
	#	s	V	A	V	W	V	V	deg C	#	bits
	0	0.013333	3.37316E-001	4.00716E-004	0.00000E+000	1.35168E-004	2.40040E-001	3.37401E-001	3.57630E+000	9	...........
	1	0.026667	3.47474E-001	4.00794E-004	0.00000E+000	1.39265E-004	2.40040E-001	3.47544E-001	3.57630E+000	9	...........
	2	0.04	3.56212E-001	4.00333E-004	0.00000E+000	1.42604E-004	2.40040E-001	3.56284E-001	3.57630E+000	9	...........
	3	0.053333	3.64313E-001	3.99370E-004	0.00000E+000	1.45495E-004	2.40040E-001	3.64380E-001	3.57630E+000	9	...........
	4	0.066667	3.71813E-001	4.01284E-004	0.00000E+000	1.49203E-004	2.40040E-001	3.71880E-001	3.57630E+000	9	...........
	5	0.08	3.78977E-001	4.01045E-004	0.00000E+000	1.51987E-004	2.40040E-001	3.79047E-001	3.57630E+000	9	...........
	6	0.093333	3.85943E-001	4.02114E-004	0.00000E+000	1.55193E-004	2.40040E-001	3.86017E-001	3.57630E+000	9	...........
	7	0.106667	3.92671E-001	4.00496E-004	0.00000E+000	1.57263E-004	2.40040E-001	3.92742E-001	3.57630E+000	9	...........
	8	0.12	3.99245E-001	4.00549E-004	0.00000E+000	1.59917E-004	2.40040E-001	3.99323E-001	3.57630E+000	9	...........
	9	0.133333	4.05686E-001	4.01365E-004	0.00000E+000	1.62828E-004	2.40040E-001	4.05760E-001	3.57630E+000	9	...........
	10	0.146667	4.12036E-001	4.01055E-004	0.00000E+000	1.65249E-004	2.40040E-001	4.12117E-001	3.57630E+000	9	...........
	11	0.16	4.18257E-001	4.00827E-004	0.00000E+000	1.67649E-004	2.40040E-001	4.18342E-001	3.57630E+000	9	...........
	12	0.173333	4.24391E-001	4.01118E-004	0.00000E+000	1.70231E-004	2.40040E-001	4.24476E-001	3.57630E+000	9	...........
	13	0.186667	4.30426E-001	4.00525E-004	0.00000E+000	1.72397E-004	2.40040E-001	4.30515E-001	3.57630E+000	9	...........
	14	0.2	4.36451E-001	4.01886E-004	0.00000E+000	1.75403E-004	2.40040E-001	4.36538E-001	3.57630E+000	9	...........
	15	0.213333	4.42335E-001	4.00701E-004	0.00000E+000	1.77244E-004	2.40040E-001	4.42417E-001	3.57630E+000	9	...........
	16	0.226667	4.48178E-001	3.99737E-004	0.00000E+000	1.79153E-004	2.40040E-001	4.48265E-001	3.57630E+000	9	...........
	17	0.24	4.53977E-001	4.00105E-004	0.00000E+000	1.81638E-004	2.40040E-001	4.54059E-001	3.57630E+000	9	...........
	18	0.253333	4.59711E-001	4.00552E-004	0.00000E+000	1.84138E-004	2.40040E-001	4.59803E-001	3.57630E+000	9	...........
	19	0.266667	4.65512E-001	4.00182E-004	0.00000E+000	1.86290E-004	2.40040E-001	4.65603E-001	3.57630E+000	9	...........
	20	0.28	4.71191E-001	4.00591E-004	0.00000E+000	1.88755E-004	2.40040E-001	4.71287E-001	3.57630E+000	9	...........
	21	0.293333	4.76862E-001	4.01167E-004	0.00000E+000	1.91301E-004	2.40040E-001	4.76953E-001	3.57630E+000	9	...........
	22	0.306667	4.82475E-001	4.00277E-004	0.00000E+000	1.93124E-004	2.40040E-001	4.82573E-001	3.57630E+000	9	...........
	23	0.32	4.88055E-001	4.00027E-004	0.00000E+000	1.95235E-004	2.40040E-001	4.88149E-001	3.57630E+000	9	...........
	24	0.333333	4.93611E-001	4.01028E-004	0.00000E+000	1.97952E-004	2.40040E-001	4.93708E-001	3.57630E+000	9	...........
	25	0.346667	4.99191E-001	4.00083E-004	0.00000E+000	1.99718E-004	2.40040E-001	4.99296E-001	3.57630E+000	9	...........
	26	0.36	5.04723E-001	4.00806E-004	0.00000E+000	2.02296E-004	2.40040E-001	5.04829E-001	3.57630E+000	9	...........
	27	0.373333	5.10196E-001	4.01161E-004	0.00000E+000	2.04670E-004	2.40040E-001	5.10300E-001	3.57630E+000	9	...........
	28	0.386667	5.15642E-001	4.01844E-004	0.00000E+000	2.07208E-004	2.40040E-001	5.15736E-001	3.57630E+000	9	...........
	29	0.4	5.21102E-001	4.01415E-004	0.00000E+000	2.09178E-004	2.40040E-001	5.21206E-001	3.57630E+000	9	...........
	30	0.413333	5.26545E-001	4.01818E-004	0.00000E+000	2.11575E-004	2.40040E-001	5.26644E-001	3.57630E+000	9	...........
	31	0.426667	5.31946E-001	4.00919E-004	0.00000E+000	2.13267E-004	2.40040E-001	5.32046E-001	3.57630E+000	9	...........
	32	0.44	5.37125E-001	3.99290E-004	0.00000E+000	2.14469E-004	2.40040E-001	5.37320E-001	3.57630E+000	9	...........
	33	0.453333	5.42571E-001	4.00937E-004	0.00000E+000	2.17536E-004	2.40040E-001	5.42780E-001	3.57630E+000	9	...........
	34	0.466667	5.47911E-001	4.00137E-004	0.00000E+000	2.19239E-004	2.40040E-001	5.48119E-001	3.57630E+000	9	...........
	35	0.48	5.53186E-001	4.01492E-004	0.00000E+000	2.22100E-004	2.40040E-001	5.53414E-001	3.57630E+000	9	...........
	36	0.493333	5.58504E-001	4.01634E-004	0.00000E+000	2.24314E-004	2.40040E-001	5.58749E-001	3.57630E+000	9	...........
	37	0.506667	5.63880E-001	3.99881E-004	0.00000E+000	2.25485E-004	2.40040E-001	5.64120E-001	3.57630E+000	9	...........
	38	0.52	5.69147E-001	4.00380E-004	0.00000E+000	2.27875E-004	2.40040E-001	5.69368E-001	3.57630E+000	9	...........
	39	0.533333	5.74377E-001	4.01896E-004	0.00000E+000	2.30840E-004	2.40040E-001	5.74602E-001	3.57630E+000	9	...........
	40	0.546667	5.79657E-001	4.00495E-004	0.00000E+000	2.32150E-004	2.40040E-001	5.79917E-001	3.57630E+000	9	...........
	41	0.56	5.84843E-001	4.02647E-004	0.00000E+000	2.35485E-004	2.40040E-001	5.85081E-001	3.57630E+000	9	...........
	42	0.573333	5.90053E-001	4.02445E-004	0.00000E+000	2.37464E-004	2.40040E-001	5.90298E-001	3.57630E+000	9	...........
	43	0.586667	5.95304E-001	4.01120E-004	0.00000E+000	2.38788E-004	2.40040E-001	5.95538E-001	3.57630E+000	9	...........
	44	0.6	6.00510E-001	4.01232E-004	0.00000E+000	2.40943E-004	2.40040E-001	6.00756E-001	3.57630E+000	9	...........
	45	0.613333	6.05632E-001	3.99898E-004	0.00000E+000	2.42191E-004	2.40040E-001	6.05884E-001	3.57630E+000	9	...........
	46	0.626667	6.10833E-001	4.02429E-004	0.00000E+000	2.45817E-004	2.40040E-001	6.11107E-001	3.57630E+000	9	...........
	47	0.64	6.16078E-001	4.01362E-004	0.00000E+000	2.47270E-004	2.40040E-001	6.16296E-001	3.57630E+000	9	...........
	48	0.653333	6.21226E-001	4.01264E-004	0.00000E+000	2.49276E-004	2.40040E-001	6.21423E-001	3.57630E+000	9	...........
	49	0.666667	6.26395E-001	4.01091E-004	0.00000E+000	2.51241E-004	2.40040E-001	6.26589E-001	3.57630E+000	9	...........
	50	0.68	6.31489E-001	4.00766E-004	0.00000E+000	2.53079E-004	2.40040E-001	6.31691E-001	3.57630E+000	9	...........
	51	0.693333	6.36607E-001	4.01627E-004	0.00000E+000	2.55679E-004	2.40040E-001	6.36788E-001	3.57630E+000	9	...........
	52	0.706667	6.41646E-001	4.01420E-004	0.00000E+000	2.57570E-004	2.40040E-001	6.41841E-001	3.57630E+000	9	...........
	53	0.72	6.46694E-001	4.01241E-004	0.00000E+000	2.59480E-004	2.40040E-001	6.46922E-001	3.57630E+000	9	...........
	54	0.733333	6.51882E-001	4.01786E-004	0.00000E+000	2.61917E-004	2.40040E-001	6.52081E-001	3.57630E+000	9	...........
	55	0.746667	6.56989E-001	4.00845E-004	0.00000E+000	2.63351E-004	2.40040E-001	6.57199E-001	3.57630E+000	9	...........
	56	0.76	6.62060E-001	4.00529E-004	0.00000E+000	2.65174E-004	2.40040E-001	6.62279E-001	3.57630E+000	9	...........
	57	0.773333	6.67162E-001	4.01171E-004	0.00000E+000	2.67646E-004	2.40040E-001	6.67348E-001	3.57630E+000	9	...........
	58	0.786667	6.72174E-001	4.01148E-004	0.00000E+000	2.69641E-004	2.40040E-001	6.72358E-001	3.57730E+000	9	...........
	59	0.8	6.77183E-001	4.00876E-004	0.00000E+000	2.71467E-004	2.40040E-001	6.77360E-001	3.57730E+000	9	...........
	60	0.813333	6.82201E-001	4.02041E-004	0.00000E+000	2.74273E-004	2.40040E-001	6.82387E-001	3.57730E+000	9	...........
	61	0.826667	6.87199E-001	4.00503E-004	0.00000E+000	2.75225E-004	2.40040E-001	6.87398E-001	3.57730E+000	9	...........
	62	0.84	6.92189E-001	4.01323E-004	0.00000E+000	2.77791E-004	2.40040E-001	6.92403E-001	3.57730E+000	9	...........
	63	0.853333	6.97144E-001	4.01164E-004	0.00000E+000	2.79669E-004	2.40040E-001	6.97370E-001	3.57730E+000	9	...........
	64	0.866667	7.02097E-001	4.01139E-004	0.00000E+000	2.81638E-004	2.40040E-001	7.02275E-001	3.57730E+000	9	...........
	65	0.88	7.07083E-001	4.00878E-004	0.00000E+000	2.83454E-004	2.40040E-001	7.07283E-001	3.57730E+000	9	...........
	66	0.893333	7.12046E-001	4.00510E-004	0.00000E+000	2.85181E-004	2.40040E-001	7.12250E-001	3.57730E+000	9	...........
	67	0.906667	7.17005E-001	3.99585E-004	0.00000E+000	2.86505E-004	2.40040E-001	7.17240E-001	3.57730E+000	9	...........
	68	0.92	7.21924E-001	4.01958E-004	0.00000E+000	2.90183E-004	2.40040E-001	7.22150E-001	3.57730E+000	9	...........
	69	0.933333	7.26836E-001	3.99735E-004	0.00000E+000	2.90542E-004	2.40040E-001	7.27066E-001	3.57730E+000	9	...........
	70	0.946667	7.31697E-001	4.02729E-004	0.00000E+000	2.94675E-004	2.40040E-001	7.31904E-001	3.57730E+000	9	...........
	71	0.96	7.36579E-001	4.00870E-004	0.00000E+000	2.95272E-004	2.40040E-001	7.36793E-001	3.57730E+000	9	...........
	72	0.97333	7.41389E-001	4.00628E-004	0.00000E+000	2.97021E-004	2.40040E-001	7.41616E-001	3.57730E+000	9	...........
	73	0.98667	7.46287E-001	4.01343E-004	0.00000E+000	2.99517E-004	2.40040E-001	7.46508E-001	3.57730E+000	9	...........
	74	1	7.51112E-001	4.00717E-004	0.00000E+000	3.00983E-004	2.40040E-001	7.51318E-001	3.57730E+000	9	...........
	75	1.01333	7.55898E-001	4.02464E-004	0.00000E+000	3.04222E-004	2.40040E-001	7.56121E-001	3.57730E+000	9	...........
	76	1.02667	7.60635E-001	4.01292E-004	0.00000E+000	3.05237E-004	2.40040E-001	7.60862E-001	3.57730E+000	9	...........
	77	1.04	7.65402E-001	4.00890E-004	0.00000E+000	3.06842E-004	2.40040E-001	7.65676E-001	3.57730E+000	9	...........
	78	1.05333	7.70199E-001	3.99854E-004	0.00000E+000	3.07967E-004	2.40040E-001	7.70444E-001	3.57730E+000	9	...........
	79	1.06667	7.74943E-001	4.01496E-004	0.00000E+000	3.11137E-004	2.40040E-001	7.75202E-001	3.57730E+000	9	...........
	80	1.08	7.79638E-001	4.01666E-004	0.00000E+000	3.13154E-004	2.40040E-001	7.79882E-001	3.57730E+000	9	...........
	81	1.09333	7.84389E-001	4.00271E-004	0.00000E+000	3.13968E-004	2.40040E-001	7.84652E-001	3.57730E+000	9	...........
	82	1.10667	7.89077E-001	4.01150E-004	0.00000E+000	3.16538E-004	2.40040E-001	7.89315E-001	3.57730E+000	9	...........
	83	1.12	7.93742E-001	4.00778E-004	0.00000E+000	3.18115E-004	2.40040E-001	7.94001E-001	3.57730E+000	9	...........
	84	1.13333	7.98402E-001	4.00467E-004	0.00000E+000	3.19733E-004	2.40040E-001	7.98648E-001	3.57730E+000	9	...........
	85	1.14667	8.03061E-001	4.01563E-004	0.00000E+000	3.22479E-004	2.40040E-001	8.03315E-001	3.57730E+000	9	...........
	86	1.16	8.07670E-001	4.02166E-004	0.00000E+000	3.24817E-004	2.40040E-001	8.07946E-001	3.57730E+000	9	...........
	87	1.17333	8.12328E-001	4.01555E-004	0.00000E+000	3.26194E-004	2.40040E-001	8.12608E-001	3.57730E+000	9	...........
	88	1.18667	8.16905E-001	4.02561E-004	0.00000E+000	3.28854E-004	2.40040E-001	8.17215E-001	3.57730E+000	9	...........
	89	1.2	8.21452E-001	3.99951E-004	0.00000E+000	3.28541E-004	2.40040E-001	8.21750E-001	3.57730E+000	9	...........
	90	1.21333	8.26009E-001	4.00089E-004	0.00000E+000	3.30477E-004	2.40040E-001	8.26300E-001	3.57730E+000	9	...........
	91	1.22667	8.30538E-001	4.02133E-004	0.00000E+000	3.33987E-004	2.40040E-001	8.30833E-001	3.57730E+000	9	...........
	92	1.24	8.34929E-001	4.01941E-004	0.00000E+000	3.35592E-004	2.40040E-001	8.35236E-001	3.57730E+000	9	...........
	93	1.25333	8.39333E-001	4.00252E-004	0.00000E+000	3.35945E-004	2.40040E-001	8.39626E-001	3.57730E+000	9	...........
	94	1.26667	8.43755E-001	4.00423E-004	0.00000E+000	3.37859E-004	2.40040E-001	8.44047E-001	3.57730E+000	9	...........
	95	1.28	8.48150E-001	4.01069E-004	0.00000E+000	3.40167E-004	2.40040E-001	8.48461E-001	3.57730E+000	9	...........
	96	1.29333	8.52484E-001	4.00899E-004	0.00000E+000	3.41760E-004	2.40040E-001	8.52774E-001	3.57730E+000	9	...........
	97	1.30667	8.56823E-001	4.00502E-004	0.00000E+000	3.43160E-004	2.40040E-001	8.57153E-001	3.57730E+000	9	...........
	98	1.32	8.61167E-001	4.00768E-004	0.00000E+000	3.45128E-004	2.40040E-001	8.61463E-001	3.57730E+000	9	...........
	99	1.33333	8.65378E-001	4.01205E-004	0.00000E+000	3.47194E-004	2.40040E-001	8.65677E-001	3.57730E+000	9	...........
	100	1.34667	8.69672E-001	4.00199E-004	0.00000E+000	3.48042E-004	2.40040E-001	8.69984E-001	3.57730E+000	9	...........
	101	1.36	8.74012E-001	4.01055E-004	0.00000E+000	3.50527E-004	2.40040E-001	8.74327E-001	3.57730E+000	9	...........
	102	1.37333	8.78181E-001	4.01526E-004	0.00000E+000	3.52613E-004	2.40040E-001	8.78514E-001	3.57730E+000	9	...........
	103	1.38667	8.82379E-001	4.01312E-004	0.00000E+000	3.54109E-004	2.40040E-001	8.82708E-001	3.57730E+000	9	...........
	104	1.4	8.86559E-001	4.00965E-004	0.00000E+000	3.55479E-004	2.40040E-001	8.86896E-001	3.57730E+000	9	...........
	105	1.41333	8.90683E-001	4.00750E-004	0.00000E+000	3.56941E-004	2.40040E-001	8.90992E-001	3.57730E+000	9	...........
	106	1.42667	8.94795E-001	4.01165E-004	0.00000E+000	3.58960E-004	2.40040E-001	8.95137E-001	3.57730E+000	9	...........
	107	1.44	8.98921E-001	4.00940E-004	0.00000E+000	3.60413E-004	2.40040E-001	8.99242E-001	3.57730E+000	9	...........
	108	1.45333	9.02974E-001	4.01550E-004	0.00000E+000	3.62589E-004	2.40040E-001	9.03313E-001	3.57730E+000	9	...........
	109	1.46667	9.07035E-001	4.00919E-004	0.00000E+000	3.63648E-004	2.40040E-001	9.07363E-001	3.57730E+000	9	...........
	110	1.48	9.11023E-001	4.00372E-004	0.00000E+000	3.64748E-004	2.40040E-001	9.11327E-001	3.57730E+000	9	...........
	111	1.49333	9.14950E-001	4.00500E-004	0.00000E+000	3.66437E-004	2.40040E-001	9.15272E-001	3.57730E+000	9	...........
	112	1.50667	9.18884E-001	4.01671E-004	0.00000E+000	3.69089E-004	2.40040E-001	9.19210E-001	3.57730E+000	9	...........
	113	1.52	9.22850E-001	4.01918E-004	0.00000E+000	3.70910E-004	2.40040E-001	9.23135E-001	3.57730E+000	9	...........
	114	1.53333	9.26691E-001	4.00515E-004	0.00000E+000	3.71154E-004	2.40040E-001	9.26984E-001	3.57730E+000	9	...........
	115	1.54667	9.30538E-001	4.00173E-004	0.00000E+000	3.72376E-004	2.40040E-001	9.30820E-001	3.57730E+000	9	...........
	116	1.56	9.34374E-001	3.99380E-004	0.00000E+000	3.73171E-004	2.40040E-001	9.34664E-001	3.57730E+000	9	...........
	117	1.57333	9.38082E-001	4.01038E-004	0.00000E+000	3.76206E-004	2.40040E-001	9.38390E-001	3.57730E+000	9	...........
	118	1.58667	9.41865E-001	4.01408E-004	0.00000E+000	3.78072E-004	2.40040E-001	9.42155E-001	3.57730E+000	9	...........
	119	1.6	9.45565E-001	4.00010E-004	0.00000E+000	3.78236E-004	2.40040E-001	9.45875E-001	3.57730E+000	9	...........
	120	1.61333	9.49282E-001	4.00999E-004	0.00000E+000	3.80661E-004	2.40040E-001	9.49596E-001	3.57730E+000	9	...........
	121	1.62667	9.52932E-001	4.01139E-004	0.00000E+000	3.82258E-004	2.40040E-001	9.53234E-001	3.57730E+000	9	...........
	122	1.64	9.56449E-001	4.00603E-004	0.00000E+000	3.83156E-004	2.40040E-001	9.56768E-001	3.57730E+000	9	...........
	123	1.65333	9.59986E-001	4.00239E-004	0.00000E+000	3.84224E-004	2.40040E-001	9.60318E-001	3.57730E+000	9	...........
	124	1.66667	9.63488E-001	4.01089E-004	0.00000E+000	3.86444E-004	2.40040E-001	9.63833E-001	3.57730E+000	9	...........
	125	1.68	9.66955E-001	4.02353E-004	0.00000E+000	3.89057E-004	2.40040E-001	9.67299E-001	3.57730E+000	9	...........
	126	1.69333	9.70381E-001	4.01531E-004	0.00000E+000	3.89638E-004	2.40040E-001	9.70765E-001	3.57730E+000	9	...........
	127	1.70667	9.73911E-001	3.99789E-004	0.00000E+000	3.89359E-004	2.40040E-001	9.74250E-001	3.57730E+000	9	...........
	128	1.72	9.77328E-001	4.01018E-004	0.00000E+000	3.91926E-004	2.40040E-001	9.77663E-001	3.57730E+000	9	...........
	129	1.73333	9.80726E-001	4.02432E-004	0.00000E+000	3.94676E-004	2.40040E-001	9.81065E-001	3.57730E+000	9	...........
	130	1.74667	9.84003E-001	4.00991E-004	0.00000E+000	3.94576E-004	2.40040E-001	9.84341E-001	3.57730E+000	9	...........
	131	1.76	9.87283E-001	4.00971E-004	0.00000E+000	3.95872E-004	2.40040E-001	9.87622E-001	3.57730E+000	9	...........
	132	1.77333	9.90554E-001	4.02139E-004	0.00000E+000	3.98340E-004	2.40040E-001	9.90902E-001	3.57730E+000	9	...........
	133	1.78667	9.93767E-001	4.00358E-004	0.00000E+000	3.97863E-004	2.40040E-001	9.94140E-001	3.57590E+000	9	...........
	134	1.8	9.96991E-001	4.00962E-004	0.00000E+000	3.99755E-004	2.40040E-001	9.97335E-001	3.57590E+000	9	...........
	135	1.80667	9.99453E-001	4.01609E-004	0.00000E+000	4.01389E-004	2.40040E-001	9.99782E-001	3.57590E+000	9	...........
STARTTIMEOFFSET	QUANT	469.4568	Start Time Offset (s)
