EXPLAIN
TAG	PWR800_CHARGE
TITLE	LABEL	PWR Cyclic Charge Discharge (Cell) - Charge Step	Test &Identifier
DATE	LABEL	12-7-2017	Date
TIME	LABEL	14:42:09	Time
NOTES	NOTES	3	&Notes...
	supercap test cell
	0.4mg
	6M KOH
PSTAT	PSTAT	IFC5000-01520	Potentiostat
CAPACITY	QUANT	1.00000E-003	Capacity (A-hr)
CELLTYPE	SELECTOR	1	&Cell Type
WORKINGCONNECTION	SELECTOR	0	&Working Lead
MAXCHARGETIME	VARIABLEANDUNITS	1.00000E+002	s	1.00000E+002	second(s)	Max &Charge Time
CHARGECURRENT	QUANT	4.00000E-004	&Charge Current (A) 
VOLTAGEFINISH	TWOPARAM	F	1.00000E-003	3.60000E+003	&Voltage Finish	 I (A) < 	Max Time(s)
SAMPLETIME	QUANT	1.00000E-002	Sa&mple Period (s)
CHARGESTOPAT1	MULTIPARAM	4	1.00000E+000	Charge Stop At &1	Voltage > Limit	V
CHARGESTOPAT2	MULTIPARAM	0	0.00000E+000	Charge Stop At &2	None	N/A
AESBHCSELECTOR	TOGGLE	F	Save Both Half Cells
IRCOMP	TOGGLE	F	IR &Measure
EOC	QUANT	0	Open Circuit (V)
SEQUENCER	TOGGLE	TRUE	Run as Sequence
PSTATMODEL	IQUANT	53	Pstat Model
PSTATSECTION	LABEL	IFC5000-01520	Pstat Section
PSTATSERIALNO	LABEL	01520	Pstat Serial Number
CTRLMODE	IQUANT	0	Control Mode
ELECTROMETER	IQUANT	1	RE=0 or CS=1
IESTAB	IQUANT	0	I/E Stability
CASPEED	IQUANT	4	Control Amp Speed
CONVENTION	IQUANT	1	Current Convention
ICHRANGE	IQUANT	2	Ich Range
ICHRANGEMODE	TOGGLE	T	Ich Auto Range
ICHOFFSETENABLE	TOGGLE	F	Ich Offset Enable
ICHOFFSET	QUANT	0	Ich Offset (V)
ICHFILTER	IQUANT	1	Ich Filter
VCHRANGE	IQUANT	2	Vch Range
VCHRANGEMODE	TOGGLE	T	Vch Auto Range
VCHOFFSETENABLE	TOGGLE	F	Vch Offset Enable
VCHOFFSET	QUANT	0	Vch Offset (V)
VCHFILTER	IQUANT	1	Vch Filter
IERANGELOWERLIMIT	IQUANT	9	I/E Range Lower Limit
IERANGEMODE	TOGGLE	F	I/E AutoRange
IERANGE	IQUANT	9	I/E Range
ACHSELECT	IQUANT	1	Ach Select
ACHRANGE	IQUANT	2	Ach Range
ACHOFFSETENABLE	TOGGLE	F	Ach Offset Enable
ACHOFFSET	QUANT	0	Ach Offset (V)
ACHFILTER	IQUANT	1	Ach Filter
CABLEID	IQUANT	14	Cable ID
DCCALDATE	LABEL	5-7-2017	DC Calibration Date
ACCALDATE	LABEL	12/3/2015	AC Calibration Date
FRAMEWORKVERSION	QUANT	7.01	Framework Version
INSTRUMENTVERSION	LABEL	4.00	Instrument Version
CURVE	TABLE	124
	Pt	T	Vf	Im	Vu	Pwr	Sig	Ach	Temp	IERange	Over
	#	s	V	A	V	W	V	V	deg C	#	bits
	0	0.013333	3.54998E-001	4.01643E-004	0.00000E+000	1.42583E-004	2.40040E-001	3.55099E-001	3.57670E+000	9	...........
	1	0.026667	3.66114E-001	4.02085E-004	0.00000E+000	1.47209E-004	2.40040E-001	3.66182E-001	3.57670E+000	9	...........
	2	0.04	3.75562E-001	4.01152E-004	0.00000E+000	1.50658E-004	2.40040E-001	3.75637E-001	3.57670E+000	9	...........
	3	0.053333	3.84256E-001	4.01685E-004	0.00000E+000	1.54350E-004	2.40040E-001	3.84323E-001	3.57670E+000	9	...........
	4	0.066667	3.92446E-001	4.00942E-004	0.00000E+000	1.57348E-004	2.40040E-001	3.92518E-001	3.57670E+000	9	...........
	5	0.08	4.00266E-001	4.00431E-004	0.00000E+000	1.60279E-004	2.40040E-001	4.00344E-001	3.57670E+000	9	...........
	6	0.093333	4.07781E-001	4.00125E-004	0.00000E+000	1.63163E-004	2.40040E-001	4.07860E-001	3.57670E+000	9	...........
	7	0.106667	4.15043E-001	4.01189E-004	0.00000E+000	1.66511E-004	2.40040E-001	4.15129E-001	3.57670E+000	9	...........
	8	0.12	4.22075E-001	4.00945E-004	0.00000E+000	1.69229E-004	2.40040E-001	4.22163E-001	3.57670E+000	9	...........
	9	0.133333	4.28947E-001	4.01555E-004	0.00000E+000	1.72246E-004	2.40040E-001	4.29037E-001	3.57670E+000	9	...........
	10	0.146667	4.35810E-001	4.01268E-004	0.00000E+000	1.74876E-004	2.40040E-001	4.35901E-001	3.57670E+000	9	...........
	11	0.16	4.42499E-001	4.01161E-004	0.00000E+000	1.77513E-004	2.40040E-001	4.42590E-001	3.57670E+000	9	...........
	12	0.173333	4.48996E-001	3.99590E-004	0.00000E+000	1.79414E-004	2.40040E-001	4.49092E-001	3.57670E+000	9	...........
	13	0.186667	4.55537E-001	3.99901E-004	0.00000E+000	1.82170E-004	2.40040E-001	4.55628E-001	3.57670E+000	9	...........
	14	0.2	4.61940E-001	4.01389E-004	0.00000E+000	1.85418E-004	2.40040E-001	4.62035E-001	3.57670E+000	9	...........
	15	0.213333	4.68323E-001	4.01149E-004	0.00000E+000	1.87867E-004	2.40040E-001	4.68427E-001	3.57670E+000	9	...........
	16	0.226667	4.74667E-001	4.00918E-004	0.00000E+000	1.90303E-004	2.40040E-001	4.74758E-001	3.57670E+000	9	...........
	17	0.24	4.80921E-001	4.01269E-004	0.00000E+000	1.92979E-004	2.40040E-001	4.81018E-001	3.57670E+000	9	...........
	18	0.253333	4.87084E-001	4.00590E-004	0.00000E+000	1.95121E-004	2.40040E-001	4.87183E-001	3.57670E+000	9	...........
	19	0.266667	4.93211E-001	4.00129E-004	0.00000E+000	1.97348E-004	2.40040E-001	4.93313E-001	3.57670E+000	9	...........
	20	0.28	4.99278E-001	4.00615E-004	0.00000E+000	2.00018E-004	2.40040E-001	4.99378E-001	3.57670E+000	9	...........
	21	0.293333	5.05359E-001	4.00043E-004	0.00000E+000	2.02165E-004	2.40040E-001	5.05461E-001	3.57670E+000	9	...........
	22	0.306667	5.11332E-001	4.00658E-004	0.00000E+000	2.04869E-004	2.40040E-001	5.11442E-001	3.57670E+000	9	...........
	23	0.32	5.17321E-001	4.01000E-004	0.00000E+000	2.07446E-004	2.40040E-001	5.17432E-001	3.57670E+000	9	...........
	24	0.333333	5.23205E-001	4.02086E-004	0.00000E+000	2.10373E-004	2.40040E-001	5.23317E-001	3.57670E+000	9	...........
	25	0.346667	5.29142E-001	4.01465E-004	0.00000E+000	2.12432E-004	2.40040E-001	5.29257E-001	3.57670E+000	9	...........
	26	0.36	5.34773E-001	4.00336E-004	0.00000E+000	2.14089E-004	2.40040E-001	5.34973E-001	3.57670E+000	9	...........
	27	0.373333	5.40552E-001	4.01425E-004	0.00000E+000	2.16991E-004	2.40040E-001	5.40800E-001	3.57670E+000	9	...........
	28	0.386667	5.46410E-001	4.02065E-004	0.00000E+000	2.19692E-004	2.40040E-001	5.46640E-001	3.57670E+000	9	...........
	29	0.4	5.52257E-001	4.01928E-004	0.00000E+000	2.21967E-004	2.40040E-001	5.52501E-001	3.57670E+000	9	...........
	30	0.413333	5.58051E-001	3.99603E-004	0.00000E+000	2.22999E-004	2.40040E-001	5.58286E-001	3.57670E+000	9	...........
	31	0.426667	5.63825E-001	4.01166E-004	0.00000E+000	2.26187E-004	2.40040E-001	5.64082E-001	3.57670E+000	9	...........
	32	0.44	5.69598E-001	4.01146E-004	0.00000E+000	2.28492E-004	2.40040E-001	5.69816E-001	3.57670E+000	9	...........
	33	0.453333	5.75313E-001	4.02014E-004	0.00000E+000	2.31284E-004	2.40040E-001	5.75541E-001	3.57670E+000	9	...........
	34	0.466667	5.80987E-001	4.00716E-004	0.00000E+000	2.32811E-004	2.40040E-001	5.81226E-001	3.57670E+000	9	...........
	35	0.48	5.86597E-001	4.02084E-004	0.00000E+000	2.35861E-004	2.40040E-001	5.86863E-001	3.57670E+000	9	...........
	36	0.493333	5.92303E-001	4.01163E-004	0.00000E+000	2.37610E-004	2.40040E-001	5.92561E-001	3.57670E+000	9	...........
	37	0.506667	5.97857E-001	4.00998E-004	0.00000E+000	2.39740E-004	2.40040E-001	5.98115E-001	3.57670E+000	9	...........
	38	0.52	6.03371E-001	4.00384E-004	0.00000E+000	2.41580E-004	2.40040E-001	6.03663E-001	3.57670E+000	9	...........
	39	0.533333	6.08923E-001	4.00146E-004	0.00000E+000	2.43658E-004	2.40040E-001	6.09187E-001	3.57670E+000	9	...........
	40	0.546667	6.14516E-001	4.01346E-004	0.00000E+000	2.46634E-004	2.40040E-001	6.14762E-001	3.57670E+000	9	...........
	41	0.56	6.20114E-001	4.00802E-004	0.00000E+000	2.48543E-004	2.40040E-001	6.20329E-001	3.57670E+000	9	...........
	42	0.573333	6.25638E-001	4.01162E-004	0.00000E+000	2.50982E-004	2.40040E-001	6.25839E-001	3.57670E+000	9	...........
	43	0.586667	6.31126E-001	4.02583E-004	0.00000E+000	2.54080E-004	2.40040E-001	6.31349E-001	3.57670E+000	9	...........
	44	0.6	6.36627E-001	4.01614E-004	0.00000E+000	2.55678E-004	2.40040E-001	6.36837E-001	3.57670E+000	9	...........
	45	0.613333	6.42174E-001	4.01282E-004	0.00000E+000	2.57692E-004	2.40040E-001	6.42359E-001	3.57670E+000	9	...........
	46	0.626667	6.47648E-001	4.01714E-004	0.00000E+000	2.60169E-004	2.40040E-001	6.47863E-001	3.57670E+000	9	...........
	47	0.64	6.53113E-001	4.03197E-004	0.00000E+000	2.63333E-004	2.40040E-001	6.53313E-001	3.57670E+000	9	...........
	48	0.653333	6.58555E-001	4.00655E-004	0.00000E+000	2.63853E-004	2.40040E-001	6.58736E-001	3.57670E+000	9	...........
	49	0.666667	6.63987E-001	3.99858E-004	0.00000E+000	2.65501E-004	2.40040E-001	6.64189E-001	3.57670E+000	9	...........
	50	0.68	6.69458E-001	3.99871E-004	0.00000E+000	2.67697E-004	2.40040E-001	6.69623E-001	3.57670E+000	9	...........
	51	0.693333	6.74816E-001	4.00545E-004	0.00000E+000	2.70294E-004	2.40040E-001	6.74979E-001	3.57670E+000	9	...........
	52	0.706667	6.80239E-001	4.01116E-004	0.00000E+000	2.72855E-004	2.40040E-001	6.80413E-001	3.57670E+000	9	...........
	53	0.72	6.85607E-001	4.00530E-004	0.00000E+000	2.74607E-004	2.40040E-001	6.85800E-001	3.57670E+000	9	...........
	54	0.733333	6.90987E-001	4.01148E-004	0.00000E+000	2.77188E-004	2.40040E-001	6.91178E-001	3.57670E+000	9	...........
	55	0.746667	6.96365E-001	4.01598E-004	0.00000E+000	2.79659E-004	2.40040E-001	6.96588E-001	3.57670E+000	9	...........
	56	0.76	7.01735E-001	4.00916E-004	0.00000E+000	2.81336E-004	2.40040E-001	7.01939E-001	3.57670E+000	9	...........
	57	0.773333	7.07000E-001	4.00762E-004	0.00000E+000	2.83339E-004	2.40040E-001	7.07253E-001	3.57670E+000	9	...........
	58	0.786667	7.12297E-001	4.00681E-004	0.00000E+000	2.85404E-004	2.40040E-001	7.12506E-001	3.57670E+000	9	...........
	59	0.8	7.17610E-001	4.00162E-004	0.00000E+000	2.87160E-004	2.40040E-001	7.17840E-001	3.57670E+000	9	...........
	60	0.813333	7.22946E-001	4.00203E-004	0.00000E+000	2.89325E-004	2.40040E-001	7.23174E-001	3.57670E+000	9	...........
	61	0.826667	7.28212E-001	4.00180E-004	0.00000E+000	2.91416E-004	2.40040E-001	7.28445E-001	3.57670E+000	9	...........
	62	0.84	7.33407E-001	4.00168E-004	0.00000E+000	2.93486E-004	2.40040E-001	7.33663E-001	3.57670E+000	9	...........
	63	0.853333	7.38592E-001	3.99892E-004	0.00000E+000	2.95357E-004	2.40040E-001	7.38865E-001	3.57670E+000	9	...........
	64	0.866667	7.43749E-001	4.02019E-004	0.00000E+000	2.99001E-004	2.40040E-001	7.44021E-001	3.57670E+000	9	...........
	65	0.88	7.48941E-001	4.01841E-004	0.00000E+000	3.00955E-004	2.40040E-001	7.49173E-001	3.57670E+000	9	...........
	66	0.893333	7.54098E-001	4.00721E-004	0.00000E+000	3.02183E-004	2.40040E-001	7.54334E-001	3.57670E+000	9	...........
	67	0.906667	7.59248E-001	4.00716E-004	0.00000E+000	3.04243E-004	2.40040E-001	7.59502E-001	3.57710E+000	9	...........
	68	0.92	7.64388E-001	4.01945E-004	0.00000E+000	3.07242E-004	2.40040E-001	7.64610E-001	3.57750E+000	9	...........
	69	0.933333	7.69463E-001	4.00851E-004	0.00000E+000	3.08440E-004	2.40040E-001	7.69725E-001	3.57750E+000	9	...........
	70	0.946667	7.74564E-001	4.01381E-004	0.00000E+000	3.10895E-004	2.40040E-001	7.74805E-001	3.57750E+000	9	...........
	71	0.96	7.79603E-001	4.01207E-004	0.00000E+000	3.12782E-004	2.40040E-001	7.79869E-001	3.57750E+000	9	...........
	72	0.97333	7.84614E-001	4.01698E-004	0.00000E+000	3.15178E-004	2.40040E-001	7.84852E-001	3.57750E+000	9	...........
	73	0.98667	7.89523E-001	4.01794E-004	0.00000E+000	3.17226E-004	2.40040E-001	7.89781E-001	3.57750E+000	9	...........
	74	1	7.94563E-001	4.01265E-004	0.00000E+000	3.18830E-004	2.40040E-001	7.94804E-001	3.57750E+000	9	...........
	75	1.01333	7.99518E-001	3.99678E-004	0.00000E+000	3.19550E-004	2.40040E-001	7.99758E-001	3.57750E+000	9	...........
	76	1.02667	8.04480E-001	4.02763E-004	0.00000E+000	3.24015E-004	2.40040E-001	8.04702E-001	3.57750E+000	9	...........
	77	1.04	8.09338E-001	4.00961E-004	0.00000E+000	3.24513E-004	2.40040E-001	8.09576E-001	3.57750E+000	9	...........
	78	1.05333	8.14216E-001	4.01515E-004	0.00000E+000	3.26920E-004	2.40040E-001	8.14500E-001	3.57750E+000	9	...........
	79	1.06667	8.19068E-001	4.00942E-004	0.00000E+000	3.28399E-004	2.40040E-001	8.19358E-001	3.57750E+000	9	...........
	80	1.08	8.23875E-001	4.01402E-004	0.00000E+000	3.30705E-004	2.40040E-001	8.24171E-001	3.57750E+000	9	...........
	81	1.09333	8.28606E-001	4.02621E-004	0.00000E+000	3.33615E-004	2.40040E-001	8.28870E-001	3.57750E+000	9	...........
	82	1.10667	8.33378E-001	4.02190E-004	0.00000E+000	3.35176E-004	2.40040E-001	8.33695E-001	3.57750E+000	9	...........
	83	1.12	8.38196E-001	4.01759E-004	0.00000E+000	3.36753E-004	2.40040E-001	8.38482E-001	3.57750E+000	9	...........
	84	1.13333	8.42908E-001	4.01669E-004	0.00000E+000	3.38570E-004	2.40040E-001	8.43199E-001	3.57750E+000	9	...........
	85	1.14667	8.47643E-001	4.00227E-004	0.00000E+000	3.39250E-004	2.40040E-001	8.47943E-001	3.57750E+000	9	...........
	86	1.16	8.52220E-001	3.99397E-004	0.00000E+000	3.40374E-004	2.40040E-001	8.52522E-001	3.57750E+000	9	...........
	87	1.17333	8.56928E-001	4.00976E-004	0.00000E+000	3.43608E-004	2.40040E-001	8.57229E-001	3.57750E+000	9	...........
	88	1.18667	8.61629E-001	4.01090E-004	0.00000E+000	3.45590E-004	2.40040E-001	8.61917E-001	3.57750E+000	9	...........
	89	1.2	8.66142E-001	4.01037E-004	0.00000E+000	3.47355E-004	2.40040E-001	8.66418E-001	3.57750E+000	9	...........
	90	1.21333	8.70648E-001	4.01093E-004	0.00000E+000	3.49211E-004	2.40040E-001	8.70918E-001	3.57750E+000	9	...........
	91	1.22667	8.75172E-001	3.99910E-004	0.00000E+000	3.49991E-004	2.40040E-001	8.75464E-001	3.57750E+000	9	...........
	92	1.24	8.79583E-001	4.00702E-004	0.00000E+000	3.52451E-004	2.40040E-001	8.79861E-001	3.57750E+000	9	...........
	93	1.25333	8.84023E-001	4.00579E-004	0.00000E+000	3.54121E-004	2.40040E-001	8.84305E-001	3.57750E+000	9	...........
	94	1.26667	8.88387E-001	4.01516E-004	0.00000E+000	3.56702E-004	2.40040E-001	8.88717E-001	3.57750E+000	9	...........
	95	1.28	8.92746E-001	4.01239E-004	0.00000E+000	3.58204E-004	2.40040E-001	8.93045E-001	3.57750E+000	9	...........
	96	1.29333	8.97139E-001	4.01131E-004	0.00000E+000	3.59871E-004	2.40040E-001	8.97470E-001	3.57750E+000	9	...........
	97	1.30667	9.01420E-001	4.01068E-004	0.00000E+000	3.61531E-004	2.40040E-001	9.01733E-001	3.57750E+000	9	...........
	98	1.32	9.05714E-001	4.01635E-004	0.00000E+000	3.63766E-004	2.40040E-001	9.06068E-001	3.57750E+000	9	...........
	99	1.33333	9.10068E-001	3.99376E-004	0.00000E+000	3.63459E-004	2.40040E-001	9.10363E-001	3.57750E+000	9	...........
	100	1.34667	9.14282E-001	4.02153E-004	0.00000E+000	3.67681E-004	2.40040E-001	9.14579E-001	3.57750E+000	9	...........
	101	1.36	9.18427E-001	4.01765E-004	0.00000E+000	3.68992E-004	2.40040E-001	9.18762E-001	3.57750E+000	9	...........
	102	1.37333	9.22622E-001	4.00841E-004	0.00000E+000	3.69825E-004	2.40040E-001	9.22889E-001	3.57750E+000	9	...........
	103	1.38667	9.26751E-001	4.02868E-004	0.00000E+000	3.73359E-004	2.40040E-001	9.27033E-001	3.57750E+000	9	...........
	104	1.4	9.30803E-001	4.02048E-004	0.00000E+000	3.74228E-004	2.40040E-001	9.31060E-001	3.57750E+000	9	...........
	105	1.41333	9.34868E-001	4.00969E-004	0.00000E+000	3.74853E-004	2.40040E-001	9.35169E-001	3.57750E+000	9	...........
	106	1.42667	9.38867E-001	4.01152E-004	0.00000E+000	3.76629E-004	2.40040E-001	9.39183E-001	3.57750E+000	9	...........
	107	1.44	9.42869E-001	4.00841E-004	0.00000E+000	3.77940E-004	2.40040E-001	9.43153E-001	3.57750E+000	9	...........
	108	1.45333	9.46881E-001	3.99973E-004	0.00000E+000	3.78727E-004	2.40040E-001	9.47186E-001	3.57750E+000	9	...........
	109	1.46667	9.50742E-001	4.00578E-004	0.00000E+000	3.80846E-004	2.40040E-001	9.51063E-001	3.57750E+000	9	...........
	110	1.48	9.54489E-001	4.00605E-004	0.00000E+000	3.82374E-004	2.40040E-001	9.54808E-001	3.57750E+000	9	...........
	111	1.49333	9.58237E-001	4.00185E-004	0.00000E+000	3.83472E-004	2.40040E-001	9.58578E-001	3.57750E+000	9	...........
	112	1.50667	9.62095E-001	4.01453E-004	0.00000E+000	3.86236E-004	2.40040E-001	9.62433E-001	3.57750E+000	9	...........
	113	1.52	9.65918E-001	4.00867E-004	0.00000E+000	3.87205E-004	2.40040E-001	9.66261E-001	3.57750E+000	9	...........
	114	1.53333	9.69636E-001	4.00796E-004	0.00000E+000	3.88626E-004	2.40040E-001	9.69986E-001	3.57750E+000	9	...........
	115	1.54667	9.73361E-001	4.00342E-004	0.00000E+000	3.89677E-004	2.40040E-001	9.73724E-001	3.57750E+000	9	...........
	116	1.56	9.77044E-001	4.00004E-004	0.00000E+000	3.90822E-004	2.40040E-001	9.77370E-001	3.57750E+000	9	...........
	117	1.57333	9.80634E-001	4.01366E-004	0.00000E+000	3.93593E-004	2.40040E-001	9.80960E-001	3.57750E+000	9	...........
	118	1.58667	9.84150E-001	4.00790E-004	0.00000E+000	3.94437E-004	2.40040E-001	9.84471E-001	3.57750E+000	9	...........
	119	1.6	9.87650E-001	3.99685E-004	0.00000E+000	3.94749E-004	2.40040E-001	9.87942E-001	3.57750E+000	9	...........
	120	1.61333	9.91179E-001	4.00767E-004	0.00000E+000	3.97232E-004	2.40040E-001	9.91466E-001	3.57750E+000	9	...........
	121	1.62667	9.94683E-001	4.01538E-004	0.00000E+000	3.99403E-004	2.40040E-001	9.94984E-001	3.57750E+000	9	...........
	122	1.64	9.98122E-001	4.00133E-004	0.00000E+000	3.99382E-004	2.40040E-001	9.98405E-001	3.57750E+000	9	...........
	123	1.64167	1.00003E+000	3.99902E-004	0.00000E+000	3.99912E-004	2.40040E-001	1.00034E+000	3.57750E+000	9	...........
STARTTIMEOFFSET	QUANT	1130.503	Start Time Offset (s)
