EXPLAIN
TAG	PWR800_CHARGE
TITLE	LABEL	PWR Cyclic Charge Discharge (Cell) - Charge Step	Test &Identifier
DATE	LABEL	12-7-2017	Date
TIME	LABEL	14:26:13	Time
NOTES	NOTES	3	&Notes...
	supercap test cell
	0.4mg
	6M KOH
PSTAT	PSTAT	IFC5000-01520	Potentiostat
CAPACITY	QUANT	1.00000E-003	Capacity (A-hr)
CELLTYPE	SELECTOR	1	&Cell Type
WORKINGCONNECTION	SELECTOR	0	&Working Lead
MAXCHARGETIME	VARIABLEANDUNITS	1.00000E+002	s	1.00000E+002	second(s)	Max &Charge Time
CHARGECURRENT	QUANT	4.00000E-004	&Charge Current (A) 
VOLTAGEFINISH	TWOPARAM	F	1.00000E-003	3.60000E+003	&Voltage Finish	 I (A) < 	Max Time(s)
SAMPLETIME	QUANT	1.00000E-002	Sa&mple Period (s)
CHARGESTOPAT1	MULTIPARAM	4	1.00000E+000	Charge Stop At &1	Voltage > Limit	V
CHARGESTOPAT2	MULTIPARAM	0	0.00000E+000	Charge Stop At &2	None	N/A
AESBHCSELECTOR	TOGGLE	F	Save Both Half Cells
IRCOMP	TOGGLE	F	IR &Measure
EOC	QUANT	0	Open Circuit (V)
SEQUENCER	TOGGLE	TRUE	Run as Sequence
PSTATMODEL	IQUANT	53	Pstat Model
PSTATSECTION	LABEL	IFC5000-01520	Pstat Section
PSTATSERIALNO	LABEL	01520	Pstat Serial Number
CTRLMODE	IQUANT	0	Control Mode
ELECTROMETER	IQUANT	1	RE=0 or CS=1
IESTAB	IQUANT	0	I/E Stability
CASPEED	IQUANT	4	Control Amp Speed
CONVENTION	IQUANT	1	Current Convention
ICHRANGE	IQUANT	2	Ich Range
ICHRANGEMODE	TOGGLE	T	Ich Auto Range
ICHOFFSETENABLE	TOGGLE	F	Ich Offset Enable
ICHOFFSET	QUANT	0	Ich Offset (V)
ICHFILTER	IQUANT	1	Ich Filter
VCHRANGE	IQUANT	2	Vch Range
VCHRANGEMODE	TOGGLE	T	Vch Auto Range
VCHOFFSETENABLE	TOGGLE	F	Vch Offset Enable
VCHOFFSET	QUANT	0	Vch Offset (V)
VCHFILTER	IQUANT	1	Vch Filter
IERANGELOWERLIMIT	IQUANT	9	I/E Range Lower Limit
IERANGEMODE	TOGGLE	F	I/E AutoRange
IERANGE	IQUANT	9	I/E Range
ACHSELECT	IQUANT	1	Ach Select
ACHRANGE	IQUANT	2	Ach Range
ACHOFFSETENABLE	TOGGLE	F	Ach Offset Enable
ACHOFFSET	QUANT	0	Ach Offset (V)
ACHFILTER	IQUANT	1	Ach Filter
CABLEID	IQUANT	14	Cable ID
DCCALDATE	LABEL	5-7-2017	DC Calibration Date
ACCALDATE	LABEL	12/3/2015	AC Calibration Date
FRAMEWORKVERSION	QUANT	7.01	Framework Version
INSTRUMENTVERSION	LABEL	4.00	Instrument Version
CURVE	TABLE	139
	Pt	T	Vf	Im	Vu	Pwr	Sig	Ach	Temp	IERange	Over
	#	s	V	A	V	W	V	V	deg C	#	bits
	0	0.013333	3.37396E-001	4.01220E-004	0.00000E+000	1.35370E-004	2.40040E-001	3.37475E-001	3.57590E+000	9	...........
	1	0.026667	3.47270E-001	4.01107E-004	0.00000E+000	1.39292E-004	2.40040E-001	3.47338E-001	3.57590E+000	9	...........
	2	0.04	3.55839E-001	4.01372E-004	0.00000E+000	1.42824E-004	2.40040E-001	3.55908E-001	3.57590E+000	9	...........
	3	0.053333	3.63663E-001	4.01436E-004	0.00000E+000	1.45987E-004	2.40040E-001	3.63731E-001	3.57590E+000	9	...........
	4	0.066667	3.71081E-001	4.00639E-004	0.00000E+000	1.48669E-004	2.40040E-001	3.71144E-001	3.57590E+000	9	...........
	5	0.08	3.78189E-001	4.02633E-004	0.00000E+000	1.52271E-004	2.40040E-001	3.78257E-001	3.57590E+000	9	...........
	6	0.093333	3.84973E-001	4.00215E-004	0.00000E+000	1.54072E-004	2.40040E-001	3.85046E-001	3.57590E+000	9	...........
	7	0.106667	3.91569E-001	4.01152E-004	0.00000E+000	1.57079E-004	2.40040E-001	3.91643E-001	3.57628E+000	9	...........
	8	0.12	3.97993E-001	3.99944E-004	0.00000E+000	1.59175E-004	2.40040E-001	3.98069E-001	3.57640E+000	9	...........
	9	0.133333	4.04249E-001	4.01272E-004	0.00000E+000	1.62214E-004	2.40040E-001	4.04326E-001	3.57640E+000	9	...........
	10	0.146667	4.10423E-001	4.01381E-004	0.00000E+000	1.64736E-004	2.40040E-001	4.10505E-001	3.57640E+000	9	...........
	11	0.16	4.16533E-001	4.00412E-004	0.00000E+000	1.66784E-004	2.40040E-001	4.16619E-001	3.57640E+000	9	...........
	12	0.173333	4.22547E-001	4.01145E-004	0.00000E+000	1.69503E-004	2.40040E-001	4.22634E-001	3.57640E+000	9	...........
	13	0.186667	4.28471E-001	3.99916E-004	0.00000E+000	1.71352E-004	2.40040E-001	4.28554E-001	3.57640E+000	9	...........
	14	0.2	4.34439E-001	4.01560E-004	0.00000E+000	1.74453E-004	2.40040E-001	4.34523E-001	3.57640E+000	9	...........
	15	0.213333	4.40335E-001	4.01676E-004	0.00000E+000	1.76872E-004	2.40040E-001	4.40418E-001	3.57640E+000	9	...........
	16	0.226667	4.46097E-001	4.01220E-004	0.00000E+000	1.78983E-004	2.40040E-001	4.46185E-001	3.57640E+000	9	...........
	17	0.24	4.51806E-001	4.01988E-004	0.00000E+000	1.81620E-004	2.40040E-001	4.51892E-001	3.57640E+000	9	...........
	18	0.253333	4.57431E-001	4.01781E-004	0.00000E+000	1.83787E-004	2.40040E-001	4.57515E-001	3.57640E+000	9	...........
	19	0.266667	4.63055E-001	4.01646E-004	0.00000E+000	1.85984E-004	2.40040E-001	4.63145E-001	3.57640E+000	9	...........
	20	0.28	4.68677E-001	4.00983E-004	0.00000E+000	1.87931E-004	2.40040E-001	4.68772E-001	3.57640E+000	9	...........
	21	0.293333	4.74196E-001	4.01064E-004	0.00000E+000	1.90183E-004	2.40040E-001	4.74283E-001	3.57640E+000	9	...........
	22	0.306667	4.79688E-001	4.00273E-004	0.00000E+000	1.92006E-004	2.40040E-001	4.79782E-001	3.57640E+000	9	...........
	23	0.32	4.85189E-001	4.01769E-004	0.00000E+000	1.94934E-004	2.40040E-001	4.85280E-001	3.57640E+000	9	...........
	24	0.333333	4.90686E-001	4.00856E-004	0.00000E+000	1.96695E-004	2.40040E-001	4.90781E-001	3.57640E+000	9	...........
	25	0.346667	4.96189E-001	4.00722E-004	0.00000E+000	1.98834E-004	2.40040E-001	4.96284E-001	3.57640E+000	9	...........
	26	0.36	5.01561E-001	3.99660E-004	0.00000E+000	2.00454E-004	2.40040E-001	5.01662E-001	3.57640E+000	9	...........
	27	0.373333	5.06913E-001	4.00027E-004	0.00000E+000	2.02779E-004	2.40040E-001	5.07011E-001	3.57640E+000	9	...........
	28	0.386667	5.12267E-001	4.00010E-004	0.00000E+000	2.04912E-004	2.40040E-001	5.12370E-001	3.57640E+000	9	...........
	29	0.4	5.17587E-001	4.00994E-004	0.00000E+000	2.07549E-004	2.40040E-001	5.17689E-001	3.57640E+000	9	...........
	30	0.413333	5.22885E-001	4.00564E-004	0.00000E+000	2.09449E-004	2.40040E-001	5.22989E-001	3.57640E+000	9	...........
	31	0.426667	5.28174E-001	4.00626E-004	0.00000E+000	2.11600E-004	2.40040E-001	5.28279E-001	3.57640E+000	9	...........
	32	0.44	5.33333E-001	4.00666E-004	0.00000E+000	2.13688E-004	2.40040E-001	5.33473E-001	3.57640E+000	9	...........
	33	0.453333	5.38565E-001	4.01431E-004	0.00000E+000	2.16197E-004	2.40040E-001	5.38770E-001	3.57640E+000	9	...........
	34	0.466667	5.43812E-001	4.00420E-004	0.00000E+000	2.17753E-004	2.40040E-001	5.44016E-001	3.57640E+000	9	...........
	35	0.48	5.48997E-001	4.00438E-004	0.00000E+000	2.19839E-004	2.40040E-001	5.49209E-001	3.57640E+000	9	...........
	36	0.493333	5.54155E-001	4.00011E-004	0.00000E+000	2.21668E-004	2.40040E-001	5.54366E-001	3.57640E+000	9	...........
	37	0.506667	5.59297E-001	4.01879E-004	0.00000E+000	2.24769E-004	2.40040E-001	5.59499E-001	3.57640E+000	9	...........
	38	0.52	5.64516E-001	4.01583E-004	0.00000E+000	2.26700E-004	2.40040E-001	5.64722E-001	3.57640E+000	9	...........
	39	0.533333	5.69822E-001	4.00589E-004	0.00000E+000	2.28264E-004	2.40040E-001	5.70001E-001	3.57640E+000	9	...........
	40	0.546667	5.75023E-001	4.01751E-004	0.00000E+000	2.31016E-004	2.40040E-001	5.75172E-001	3.57640E+000	9	...........
	41	0.56	5.80101E-001	4.01954E-004	0.00000E+000	2.33174E-004	2.40040E-001	5.80305E-001	3.57640E+000	9	...........
	42	0.573333	5.85298E-001	4.01869E-004	0.00000E+000	2.35213E-004	2.40040E-001	5.85510E-001	3.57640E+000	9	...........
	43	0.586667	5.90525E-001	4.01193E-004	0.00000E+000	2.36914E-004	2.40040E-001	5.90748E-001	3.57640E+000	9	...........
	44	0.6	5.95664E-001	4.01519E-004	0.00000E+000	2.39171E-004	2.40040E-001	5.95852E-001	3.57640E+000	9	...........
	45	0.613333	6.00598E-001	3.99930E-004	0.00000E+000	2.40197E-004	2.40040E-001	6.00856E-001	3.57640E+000	9	...........
	46	0.626667	6.05693E-001	4.00463E-004	0.00000E+000	2.42557E-004	2.40040E-001	6.05946E-001	3.57640E+000	9	...........
	47	0.64	6.10742E-001	3.99963E-004	0.00000E+000	2.44274E-004	2.40040E-001	6.11017E-001	3.57640E+000	9	...........
	48	0.653333	6.15939E-001	4.00582E-004	0.00000E+000	2.46734E-004	2.40040E-001	6.16159E-001	3.57640E+000	9	...........
	49	0.666667	6.20973E-001	4.01043E-004	0.00000E+000	2.49037E-004	2.40040E-001	6.21177E-001	3.57640E+000	9	...........
	50	0.68	6.25911E-001	4.01505E-004	0.00000E+000	2.51306E-004	2.40040E-001	6.26133E-001	3.57640E+000	9	...........
	51	0.693333	6.30911E-001	4.00044E-004	0.00000E+000	2.52392E-004	2.40040E-001	6.31148E-001	3.57640E+000	9	...........
	52	0.706667	6.35971E-001	4.00582E-004	0.00000E+000	2.54759E-004	2.40040E-001	6.36227E-001	3.57640E+000	9	...........
	53	0.72	6.41067E-001	4.01524E-004	0.00000E+000	2.57404E-004	2.40040E-001	6.41299E-001	3.57640E+000	9	...........
	54	0.733333	6.45999E-001	4.01367E-004	0.00000E+000	2.59283E-004	2.40040E-001	6.46243E-001	3.57640E+000	9	...........
	55	0.746667	6.50959E-001	4.00865E-004	0.00000E+000	2.60947E-004	2.40040E-001	6.51207E-001	3.57640E+000	9	...........
	56	0.76	6.55898E-001	4.00887E-004	0.00000E+000	2.62941E-004	2.40040E-001	6.56127E-001	3.57640E+000	9	...........
	57	0.773333	6.60878E-001	4.01396E-004	0.00000E+000	2.65274E-004	2.40040E-001	6.61083E-001	3.57640E+000	9	...........
	58	0.786667	6.65762E-001	4.00733E-004	0.00000E+000	2.66793E-004	2.40040E-001	6.66020E-001	3.57640E+000	9	...........
	59	0.8	6.70754E-001	4.02191E-004	0.00000E+000	2.69771E-004	2.40040E-001	6.70979E-001	3.57640E+000	9	...........
	60	0.813333	6.75727E-001	4.00313E-004	0.00000E+000	2.70502E-004	2.40040E-001	6.75947E-001	3.57640E+000	9	...........
	61	0.826667	6.80563E-001	4.01854E-004	0.00000E+000	2.73487E-004	2.40040E-001	6.80802E-001	3.57640E+000	9	...........
	62	0.84	6.85512E-001	4.00675E-004	0.00000E+000	2.74668E-004	2.40040E-001	6.85742E-001	3.57640E+000	9	...........
	63	0.853333	6.90407E-001	4.01272E-004	0.00000E+000	2.77041E-004	2.40040E-001	6.90617E-001	3.57640E+000	9	...........
	64	0.866667	6.95325E-001	4.01103E-004	0.00000E+000	2.78897E-004	2.40040E-001	6.95523E-001	3.57640E+000	9	...........
	65	0.88	7.00180E-001	4.00963E-004	0.00000E+000	2.80746E-004	2.40040E-001	7.00366E-001	3.57640E+000	9	...........
	66	0.893333	7.05023E-001	4.01164E-004	0.00000E+000	2.82830E-004	2.40040E-001	7.05240E-001	3.57640E+000	9	...........
	67	0.906667	7.09821E-001	4.00264E-004	0.00000E+000	2.84116E-004	2.40040E-001	7.10043E-001	3.57640E+000	9	...........
	68	0.92	7.14623E-001	4.01061E-004	0.00000E+000	2.86607E-004	2.40040E-001	7.14858E-001	3.57640E+000	9	...........
	69	0.933333	7.19461E-001	4.01017E-004	0.00000E+000	2.88516E-004	2.40040E-001	7.19685E-001	3.57640E+000	9	...........
	70	0.946667	7.24313E-001	4.01873E-004	0.00000E+000	2.91082E-004	2.40040E-001	7.24519E-001	3.57640E+000	9	...........
	71	0.96	7.29181E-001	4.01535E-004	0.00000E+000	2.92791E-004	2.40040E-001	7.29416E-001	3.57640E+000	9	...........
	72	0.97333	7.33974E-001	4.01163E-004	0.00000E+000	2.94443E-004	2.40040E-001	7.34213E-001	3.57640E+000	9	...........
	73	0.98667	7.38702E-001	4.00464E-004	0.00000E+000	2.95823E-004	2.40040E-001	7.38941E-001	3.57640E+000	9	...........
	74	1	7.43480E-001	4.00578E-004	0.00000E+000	2.97822E-004	2.40040E-001	7.43739E-001	3.57640E+000	9	...........
	75	1.01333	7.48219E-001	4.02178E-004	0.00000E+000	3.00917E-004	2.40040E-001	7.48464E-001	3.57640E+000	9	...........
	76	1.02667	7.52913E-001	4.01760E-004	0.00000E+000	3.02490E-004	2.40040E-001	7.53151E-001	3.57640E+000	9	...........
	77	1.04	7.57693E-001	4.01916E-004	0.00000E+000	3.04529E-004	2.40040E-001	7.57931E-001	3.57640E+000	9	...........
	78	1.05333	7.62374E-001	4.00856E-004	0.00000E+000	3.05603E-004	2.40040E-001	7.62616E-001	3.57640E+000	9	...........
	79	1.06667	7.67019E-001	4.01797E-004	0.00000E+000	3.08186E-004	2.40040E-001	7.67302E-001	3.57640E+000	9	...........
	80	1.08	7.71684E-001	4.00643E-004	0.00000E+000	3.09170E-004	2.40040E-001	7.71954E-001	3.57640E+000	9	...........
	81	1.09333	7.76370E-001	4.00890E-004	0.00000E+000	3.11239E-004	2.40040E-001	7.76635E-001	3.57640E+000	9	...........
	82	1.10667	7.81084E-001	4.03102E-004	0.00000E+000	3.14856E-004	2.40040E-001	7.81346E-001	3.57632E+000	9	...........
	83	1.12	7.85684E-001	4.01200E-004	0.00000E+000	3.15217E-004	2.40040E-001	7.85957E-001	3.57630E+000	9	...........
	84	1.13333	7.90199E-001	4.00904E-004	0.00000E+000	3.16794E-004	2.40040E-001	7.90475E-001	3.57630E+000	9	...........
	85	1.14667	7.94818E-001	4.00699E-004	0.00000E+000	3.18483E-004	2.40040E-001	7.95096E-001	3.57630E+000	9	...........
	86	1.16	7.99411E-001	4.01907E-004	0.00000E+000	3.21288E-004	2.40040E-001	7.99670E-001	3.57630E+000	9	...........
	87	1.17333	8.03932E-001	4.01331E-004	0.00000E+000	3.22643E-004	2.40040E-001	8.04202E-001	3.57630E+000	9	...........
	88	1.18667	8.08517E-001	4.01644E-004	0.00000E+000	3.24736E-004	2.40040E-001	8.08803E-001	3.57630E+000	9	...........
	89	1.2	8.12999E-001	4.00443E-004	0.00000E+000	3.25560E-004	2.40040E-001	8.13305E-001	3.57630E+000	9	...........
	90	1.21333	8.17409E-001	4.01603E-004	0.00000E+000	3.28274E-004	2.40040E-001	8.17720E-001	3.57630E+000	9	...........
	91	1.22667	8.21870E-001	4.00151E-004	0.00000E+000	3.28872E-004	2.40040E-001	8.22158E-001	3.57630E+000	9	...........
	92	1.24	8.26307E-001	4.00716E-004	0.00000E+000	3.31114E-004	2.40040E-001	8.26582E-001	3.57630E+000	9	...........
	93	1.25333	8.30681E-001	3.99933E-004	0.00000E+000	3.32217E-004	2.40040E-001	8.30957E-001	3.57630E+000	9	...........
	94	1.26667	8.35111E-001	4.02424E-004	0.00000E+000	3.36069E-004	2.40040E-001	8.35417E-001	3.57630E+000	9	...........
	95	1.28	8.39448E-001	4.00461E-004	0.00000E+000	3.36166E-004	2.40040E-001	8.39740E-001	3.57630E+000	9	...........
	96	1.29333	8.43761E-001	4.01310E-004	0.00000E+000	3.38609E-004	2.40040E-001	8.44059E-001	3.57630E+000	9	...........
	97	1.30667	8.48075E-001	4.01457E-004	0.00000E+000	3.40465E-004	2.40040E-001	8.48376E-001	3.57630E+000	9	...........
	98	1.32	8.52368E-001	4.00407E-004	0.00000E+000	3.41294E-004	2.40040E-001	8.52659E-001	3.57630E+000	9	...........
	99	1.33333	8.56671E-001	4.00343E-004	0.00000E+000	3.42962E-004	2.40040E-001	8.56969E-001	3.57630E+000	9	...........
	100	1.34667	8.60885E-001	4.01770E-004	0.00000E+000	3.45878E-004	2.40040E-001	8.61171E-001	3.57630E+000	9	...........
	101	1.36	8.65095E-001	4.01375E-004	0.00000E+000	3.47228E-004	2.40040E-001	8.65392E-001	3.57630E+000	9	...........
	102	1.37333	8.69334E-001	4.01096E-004	0.00000E+000	3.48686E-004	2.40040E-001	8.69618E-001	3.57630E+000	9	...........
	103	1.38667	8.73536E-001	4.01823E-004	0.00000E+000	3.51007E-004	2.40040E-001	8.73852E-001	3.57630E+000	9	...........
	104	1.4	8.77658E-001	4.00752E-004	0.00000E+000	3.51724E-004	2.40040E-001	8.77948E-001	3.57630E+000	9	...........
	105	1.41333	8.81822E-001	4.00618E-004	0.00000E+000	3.53274E-004	2.40040E-001	8.82099E-001	3.57630E+000	9	...........
	106	1.42667	8.85936E-001	4.01188E-004	0.00000E+000	3.55427E-004	2.40040E-001	8.86247E-001	3.57630E+000	9	...........
	107	1.44	8.90012E-001	4.00073E-004	0.00000E+000	3.56070E-004	2.40040E-001	8.90290E-001	3.57630E+000	9	...........
	108	1.45333	8.94018E-001	3.99557E-004	0.00000E+000	3.57211E-004	2.40040E-001	8.94314E-001	3.57630E+000	9	...........
	109	1.46667	8.98026E-001	4.00935E-004	0.00000E+000	3.60050E-004	2.40040E-001	8.98322E-001	3.57630E+000	9	...........
	110	1.48	9.01992E-001	4.00429E-004	0.00000E+000	3.61184E-004	2.40040E-001	9.02304E-001	3.57630E+000	9	...........
	111	1.49333	9.05960E-001	4.00460E-004	0.00000E+000	3.62800E-004	2.40040E-001	9.06284E-001	3.57630E+000	9	...........
	112	1.50667	9.09894E-001	4.02118E-004	0.00000E+000	3.65885E-004	2.40040E-001	9.10180E-001	3.57630E+000	9	...........
	113	1.52	9.13817E-001	4.00586E-004	0.00000E+000	3.66062E-004	2.40040E-001	9.14125E-001	3.57630E+000	9	...........
	114	1.53333	9.17657E-001	4.00141E-004	0.00000E+000	3.67192E-004	2.40040E-001	9.17977E-001	3.57630E+000	9	...........
	115	1.54667	9.21561E-001	4.02415E-004	0.00000E+000	3.70850E-004	2.40040E-001	9.21822E-001	3.57630E+000	9	...........
	116	1.56	9.25375E-001	4.01237E-004	0.00000E+000	3.71294E-004	2.40040E-001	9.25639E-001	3.57630E+000	9	...........
	117	1.57333	9.29107E-001	4.00827E-004	0.00000E+000	3.72412E-004	2.40040E-001	9.29369E-001	3.57630E+000	9	...........
	118	1.58667	9.32831E-001	4.00690E-004	0.00000E+000	3.73776E-004	2.40040E-001	9.33106E-001	3.57630E+000	9	...........
	119	1.6	9.36550E-001	4.01002E-004	0.00000E+000	3.75559E-004	2.40040E-001	9.36835E-001	3.57630E+000	9	...........
	120	1.61333	9.40248E-001	4.00043E-004	0.00000E+000	3.76139E-004	2.40040E-001	9.40499E-001	3.57630E+000	9	...........
	121	1.62667	9.43903E-001	4.00674E-004	0.00000E+000	3.78197E-004	2.40040E-001	9.44166E-001	3.57630E+000	9	...........
	122	1.64	9.47509E-001	4.00503E-004	0.00000E+000	3.79480E-004	2.40040E-001	9.47781E-001	3.57630E+000	9	...........
	123	1.65333	9.51064E-001	4.01036E-004	0.00000E+000	3.81411E-004	2.40040E-001	9.51339E-001	3.57630E+000	9	...........
	124	1.66667	9.54608E-001	4.00297E-004	0.00000E+000	3.82127E-004	2.40040E-001	9.54890E-001	3.57630E+000	9	...........
	125	1.68	9.58129E-001	4.01510E-004	0.00000E+000	3.84698E-004	2.40040E-001	9.58400E-001	3.57630E+000	9	...........
	126	1.69333	9.61563E-001	4.00201E-004	0.00000E+000	3.84819E-004	2.40040E-001	9.61898E-001	3.57630E+000	9	...........
	127	1.70667	9.65027E-001	4.00666E-004	0.00000E+000	3.86653E-004	2.40040E-001	9.65359E-001	3.57630E+000	9	...........
	128	1.72	9.68373E-001	4.00641E-004	0.00000E+000	3.87970E-004	2.40040E-001	9.68724E-001	3.57630E+000	9	...........
	129	1.73333	9.71728E-001	4.01546E-004	0.00000E+000	3.90194E-004	2.40040E-001	9.72099E-001	3.57630E+000	9	...........
	130	1.74667	9.75142E-001	4.01162E-004	0.00000E+000	3.91190E-004	2.40040E-001	9.75466E-001	3.57630E+000	9	...........
	131	1.76	9.78506E-001	4.01375E-004	0.00000E+000	3.92748E-004	2.40040E-001	9.78844E-001	3.57630E+000	9	...........
	132	1.77333	9.81799E-001	4.00065E-004	0.00000E+000	3.92783E-004	2.40040E-001	9.82131E-001	3.57630E+000	9	...........
	133	1.78667	9.85087E-001	4.00619E-004	0.00000E+000	3.94644E-004	2.40040E-001	9.85447E-001	3.57630E+000	9	...........
	134	1.8	9.88345E-001	4.01467E-004	0.00000E+000	3.96788E-004	2.40040E-001	9.88674E-001	3.57630E+000	9	...........
	135	1.81333	9.91474E-001	4.00753E-004	0.00000E+000	3.97337E-004	2.40040E-001	9.91844E-001	3.57630E+000	9	...........
	136	1.82667	9.94644E-001	4.00016E-004	0.00000E+000	3.97873E-004	2.40040E-001	9.95002E-001	3.57630E+000	9	...........
	137	1.84	9.97874E-001	4.00725E-004	0.00000E+000	3.99873E-004	2.40040E-001	9.98217E-001	3.57630E+000	9	...........
	138	1.84333	9.99831E-001	4.00956E-004	0.00000E+000	4.00889E-004	2.40040E-001	1.00014E+000	3.57630E+000	9	...........
STARTTIMEOFFSET	QUANT	366.8449	Start Time Offset (s)
