EXPLAIN
TAG	PWR800_CHARGE
TITLE	LABEL	PWR Cyclic Charge Discharge (Cell) - Charge Step	Test &Identifier
DATE	LABEL	12-7-2017	Date
TIME	LABEL	14:58:09	Time
NOTES	NOTES	3	&Notes...
	supercap test cell
	0.4mg
	6M KOH
PSTAT	PSTAT	IFC5000-01520	Potentiostat
CAPACITY	QUANT	1.00000E-003	Capacity (A-hr)
CELLTYPE	SELECTOR	1	&Cell Type
WORKINGCONNECTION	SELECTOR	0	&Working Lead
MAXCHARGETIME	VARIABLEANDUNITS	1.00000E+002	s	1.00000E+002	second(s)	Max &Charge Time
CHARGECURRENT	QUANT	4.00000E-004	&Charge Current (A) 
VOLTAGEFINISH	TWOPARAM	F	1.00000E-003	3.60000E+003	&Voltage Finish	 I (A) < 	Max Time(s)
SAMPLETIME	QUANT	1.00000E-002	Sa&mple Period (s)
CHARGESTOPAT1	MULTIPARAM	4	1.00000E+000	Charge Stop At &1	Voltage > Limit	V
CHARGESTOPAT2	MULTIPARAM	0	0.00000E+000	Charge Stop At &2	None	N/A
AESBHCSELECTOR	TOGGLE	F	Save Both Half Cells
IRCOMP	TOGGLE	F	IR &Measure
EOC	QUANT	0	Open Circuit (V)
SEQUENCER	TOGGLE	TRUE	Run as Sequence
PSTATMODEL	IQUANT	53	Pstat Model
PSTATSECTION	LABEL	IFC5000-01520	Pstat Section
PSTATSERIALNO	LABEL	01520	Pstat Serial Number
CTRLMODE	IQUANT	0	Control Mode
ELECTROMETER	IQUANT	1	RE=0 or CS=1
IESTAB	IQUANT	0	I/E Stability
CASPEED	IQUANT	4	Control Amp Speed
CONVENTION	IQUANT	1	Current Convention
ICHRANGE	IQUANT	2	Ich Range
ICHRANGEMODE	TOGGLE	T	Ich Auto Range
ICHOFFSETENABLE	TOGGLE	F	Ich Offset Enable
ICHOFFSET	QUANT	0	Ich Offset (V)
ICHFILTER	IQUANT	1	Ich Filter
VCHRANGE	IQUANT	2	Vch Range
VCHRANGEMODE	TOGGLE	T	Vch Auto Range
VCHOFFSETENABLE	TOGGLE	F	Vch Offset Enable
VCHOFFSET	QUANT	0	Vch Offset (V)
VCHFILTER	IQUANT	1	Vch Filter
IERANGELOWERLIMIT	IQUANT	9	I/E Range Lower Limit
IERANGEMODE	TOGGLE	F	I/E AutoRange
IERANGE	IQUANT	9	I/E Range
ACHSELECT	IQUANT	1	Ach Select
ACHRANGE	IQUANT	2	Ach Range
ACHOFFSETENABLE	TOGGLE	F	Ach Offset Enable
ACHOFFSET	QUANT	0	Ach Offset (V)
ACHFILTER	IQUANT	1	Ach Filter
CABLEID	IQUANT	14	Cable ID
DCCALDATE	LABEL	5-7-2017	DC Calibration Date
ACCALDATE	LABEL	12/3/2015	AC Calibration Date
FRAMEWORKVERSION	QUANT	7.01	Framework Version
INSTRUMENTVERSION	LABEL	4.00	Instrument Version
CURVE	TABLE	114
	Pt	T	Vf	Im	Vu	Pwr	Sig	Ach	Temp	IERange	Over
	#	s	V	A	V	W	V	V	deg C	#	bits
	0	0.013333	3.75936E-001	4.01185E-004	0.00000E+000	1.50820E-004	2.40040E-001	3.76022E-001	3.57630E+000	9	...........
	1	0.026667	3.87266E-001	4.00829E-004	0.00000E+000	1.55228E-004	2.40040E-001	3.87345E-001	3.57630E+000	9	...........
	2	0.04	3.97206E-001	4.01959E-004	0.00000E+000	1.59660E-004	2.40040E-001	3.97278E-001	3.57630E+000	9	...........
	3	0.053333	4.06300E-001	4.00778E-004	0.00000E+000	1.62836E-004	2.40040E-001	4.06381E-001	3.57630E+000	9	...........
	4	0.066667	4.14819E-001	4.00390E-004	0.00000E+000	1.66089E-004	2.40040E-001	4.14909E-001	3.57630E+000	9	...........
	5	0.08	4.22967E-001	4.02284E-004	0.00000E+000	1.70153E-004	2.40040E-001	4.23051E-001	3.57630E+000	9	...........
	6	0.093333	4.30870E-001	4.00092E-004	0.00000E+000	1.72388E-004	2.40040E-001	4.30956E-001	3.57630E+000	9	...........
	7	0.106667	4.38519E-001	4.01218E-004	0.00000E+000	1.75942E-004	2.40040E-001	4.38603E-001	3.57630E+000	9	...........
	8	0.12	4.46007E-001	4.00122E-004	0.00000E+000	1.78457E-004	2.40040E-001	4.46102E-001	3.57630E+000	9	...........
	9	0.133333	4.53294E-001	4.00648E-004	0.00000E+000	1.81611E-004	2.40040E-001	4.53381E-001	3.57630E+000	9	...........
	10	0.146667	4.60409E-001	4.00247E-004	0.00000E+000	1.84277E-004	2.40040E-001	4.60501E-001	3.57630E+000	9	...........
	11	0.16	4.67380E-001	4.01243E-004	0.00000E+000	1.87533E-004	2.40040E-001	4.67465E-001	3.57630E+000	9	...........
	12	0.173333	4.74256E-001	4.02572E-004	0.00000E+000	1.90922E-004	2.40040E-001	4.74338E-001	3.57630E+000	9	...........
	13	0.186667	4.81149E-001	4.01489E-004	0.00000E+000	1.93176E-004	2.40040E-001	4.81235E-001	3.57630E+000	9	...........
	14	0.2	4.87878E-001	3.99928E-004	0.00000E+000	1.95116E-004	2.40040E-001	4.87970E-001	3.57630E+000	9	...........
	15	0.213333	4.94512E-001	4.00430E-004	0.00000E+000	1.98018E-004	2.40040E-001	4.94607E-001	3.57630E+000	9	...........
	16	0.226667	5.01108E-001	4.00723E-004	0.00000E+000	2.00806E-004	2.40040E-001	5.01201E-001	3.57630E+000	9	...........
	17	0.24	5.07652E-001	4.01495E-004	0.00000E+000	2.03820E-004	2.40040E-001	5.07747E-001	3.57630E+000	9	...........
	18	0.253333	5.14120E-001	4.00782E-004	0.00000E+000	2.06050E-004	2.40040E-001	5.14218E-001	3.57630E+000	9	...........
	19	0.266667	5.20462E-001	4.01922E-004	0.00000E+000	2.09185E-004	2.40040E-001	5.20571E-001	3.57630E+000	9	...........
	20	0.28	5.26833E-001	4.01687E-004	0.00000E+000	2.11622E-004	2.40040E-001	5.26942E-001	3.57630E+000	9	...........
	21	0.293333	5.33099E-001	4.02746E-004	0.00000E+000	2.14704E-004	2.40040E-001	5.33218E-001	3.57630E+000	9	...........
	22	0.306667	5.39317E-001	4.01265E-004	0.00000E+000	2.16409E-004	2.40040E-001	5.39520E-001	3.57630E+000	9	...........
	23	0.32	5.45606E-001	4.00885E-004	0.00000E+000	2.18725E-004	2.40040E-001	5.45784E-001	3.57637E+000	9	...........
	24	0.333333	5.51813E-001	4.01901E-004	0.00000E+000	2.21774E-004	2.40040E-001	5.52017E-001	3.57660E+000	9	...........
	25	0.346667	5.58023E-001	4.00049E-004	0.00000E+000	2.23236E-004	2.40040E-001	5.58235E-001	3.57660E+000	9	...........
	26	0.36	5.64269E-001	4.00407E-004	0.00000E+000	2.25937E-004	2.40040E-001	5.64466E-001	3.57660E+000	9	...........
	27	0.373333	5.70437E-001	4.01277E-004	0.00000E+000	2.28904E-004	2.40040E-001	5.70628E-001	3.57660E+000	9	...........
	28	0.386667	5.76540E-001	4.00118E-004	0.00000E+000	2.30684E-004	2.40040E-001	5.76760E-001	3.57660E+000	9	...........
	29	0.4	5.82649E-001	4.00912E-004	0.00000E+000	2.33591E-004	2.40040E-001	5.82883E-001	3.57660E+000	9	...........
	30	0.413333	5.88656E-001	4.00934E-004	0.00000E+000	2.36012E-004	2.40040E-001	5.88918E-001	3.57660E+000	9	...........
	31	0.426667	5.94729E-001	4.00883E-004	0.00000E+000	2.38416E-004	2.40040E-001	5.94948E-001	3.57660E+000	9	...........
	32	0.44	6.00645E-001	4.00956E-004	0.00000E+000	2.40832E-004	2.40040E-001	6.00937E-001	3.57660E+000	9	...........
	33	0.453333	6.06621E-001	4.01357E-004	0.00000E+000	2.43471E-004	2.40040E-001	6.06870E-001	3.57660E+000	9	...........
	34	0.466667	6.12602E-001	4.00951E-004	0.00000E+000	2.45623E-004	2.40040E-001	6.12873E-001	3.57660E+000	9	...........
	35	0.48	6.18558E-001	3.99971E-004	0.00000E+000	2.47405E-004	2.40040E-001	6.18766E-001	3.57660E+000	9	...........
	36	0.493333	6.24457E-001	4.02217E-004	0.00000E+000	2.51167E-004	2.40040E-001	6.24656E-001	3.57660E+000	9	...........
	37	0.506667	6.30411E-001	4.01256E-004	0.00000E+000	2.52956E-004	2.40040E-001	6.30652E-001	3.57660E+000	9	...........
	38	0.52	6.36310E-001	4.01972E-004	0.00000E+000	2.55779E-004	2.40040E-001	6.36553E-001	3.57660E+000	9	...........
	39	0.533333	6.42186E-001	3.99978E-004	0.00000E+000	2.56860E-004	2.40040E-001	6.42434E-001	3.57660E+000	9	...........
	40	0.546667	6.48002E-001	4.01851E-004	0.00000E+000	2.60401E-004	2.40040E-001	6.48233E-001	3.57660E+000	9	...........
	41	0.56	6.53767E-001	4.00436E-004	0.00000E+000	2.61791E-004	2.40040E-001	6.54002E-001	3.57660E+000	9	...........
	42	0.573333	6.59500E-001	4.00809E-004	0.00000E+000	2.64333E-004	2.40040E-001	6.59739E-001	3.57660E+000	9	...........
	43	0.586667	6.65330E-001	4.00229E-004	0.00000E+000	2.66284E-004	2.40040E-001	6.65580E-001	3.57660E+000	9	...........
	44	0.6	6.71066E-001	4.00937E-004	0.00000E+000	2.69055E-004	2.40040E-001	6.71317E-001	3.57660E+000	9	...........
	45	0.613333	6.76815E-001	4.00492E-004	0.00000E+000	2.71059E-004	2.40040E-001	6.77050E-001	3.57660E+000	9	...........
	46	0.626667	6.82540E-001	4.01234E-004	0.00000E+000	2.73858E-004	2.40040E-001	6.82802E-001	3.57660E+000	9	...........
	47	0.64	6.88246E-001	4.01104E-004	0.00000E+000	2.76058E-004	2.40040E-001	6.88532E-001	3.57660E+000	9	...........
	48	0.653333	6.94002E-001	4.01065E-004	0.00000E+000	2.78340E-004	2.40040E-001	6.94232E-001	3.57660E+000	9	...........
	49	0.666667	6.99688E-001	4.01548E-004	0.00000E+000	2.80958E-004	2.40040E-001	6.99955E-001	3.57660E+000	9	...........
	50	0.68	7.05380E-001	4.01739E-004	0.00000E+000	2.83378E-004	2.40040E-001	7.05619E-001	3.57660E+000	9	...........
	51	0.693333	7.11038E-001	4.00645E-004	0.00000E+000	2.84874E-004	2.40040E-001	7.11295E-001	3.57660E+000	9	...........
	52	0.706667	7.16679E-001	4.00735E-004	0.00000E+000	2.87198E-004	2.40040E-001	7.16938E-001	3.57660E+000	9	...........
	53	0.72	7.22326E-001	4.01938E-004	0.00000E+000	2.90330E-004	2.40040E-001	7.22560E-001	3.57660E+000	9	...........
	54	0.733333	7.27924E-001	4.02317E-004	0.00000E+000	2.92856E-004	2.40040E-001	7.28166E-001	3.57660E+000	9	...........
	55	0.746667	7.33423E-001	4.01597E-004	0.00000E+000	2.94540E-004	2.40040E-001	7.33695E-001	3.57660E+000	9	...........
	56	0.76	7.38946E-001	4.00821E-004	0.00000E+000	2.96185E-004	2.40040E-001	7.39163E-001	3.57660E+000	9	...........
	57	0.773333	7.44452E-001	4.00646E-004	0.00000E+000	2.98262E-004	2.40040E-001	7.44719E-001	3.57660E+000	9	...........
	58	0.786667	7.49884E-001	4.01147E-004	0.00000E+000	3.00814E-004	2.40040E-001	7.50136E-001	3.57660E+000	9	...........
	59	0.8	7.55317E-001	4.01608E-004	0.00000E+000	3.03341E-004	2.40040E-001	7.55569E-001	3.57660E+000	9	...........
	60	0.813333	7.60609E-001	4.00246E-004	0.00000E+000	3.04431E-004	2.40040E-001	7.60862E-001	3.57660E+000	9	...........
	61	0.826667	7.65981E-001	4.00854E-004	0.00000E+000	3.07047E-004	2.40040E-001	7.66247E-001	3.57660E+000	9	...........
	62	0.84	7.71394E-001	4.00929E-004	0.00000E+000	3.09275E-004	2.40040E-001	7.71634E-001	3.57660E+000	9	...........
	63	0.853333	7.76657E-001	4.01095E-004	0.00000E+000	3.11513E-004	2.40040E-001	7.76926E-001	3.57660E+000	9	...........
	64	0.866667	7.81990E-001	4.00342E-004	0.00000E+000	3.13063E-004	2.40040E-001	7.82274E-001	3.57660E+000	9	...........
	65	0.88	7.87207E-001	4.01433E-004	0.00000E+000	3.16011E-004	2.40040E-001	7.87466E-001	3.57660E+000	9	...........
	66	0.893333	7.92466E-001	4.00314E-004	0.00000E+000	3.17235E-004	2.40040E-001	7.92720E-001	3.57660E+000	9	...........
	67	0.906667	7.97728E-001	4.00341E-004	0.00000E+000	3.19363E-004	2.40040E-001	7.97955E-001	3.57660E+000	9	...........
	68	0.92	8.02919E-001	3.99683E-004	0.00000E+000	3.20913E-004	2.40040E-001	8.03162E-001	3.57660E+000	9	...........
	69	0.933333	8.08095E-001	4.00382E-004	0.00000E+000	3.23547E-004	2.40040E-001	8.08345E-001	3.57660E+000	9	...........
	70	0.946667	8.13201E-001	4.02160E-004	0.00000E+000	3.27037E-004	2.40040E-001	8.13481E-001	3.57660E+000	9	...........
	71	0.96	8.18301E-001	4.01281E-004	0.00000E+000	3.28368E-004	2.40040E-001	8.18586E-001	3.57660E+000	9	...........
	72	0.97333	8.23383E-001	4.01138E-004	0.00000E+000	3.30290E-004	2.40040E-001	8.23638E-001	3.57660E+000	9	...........
	73	0.98667	8.28315E-001	3.99832E-004	0.00000E+000	3.31187E-004	2.40040E-001	8.28561E-001	3.57660E+000	9	...........
	74	1	8.33284E-001	4.01621E-004	0.00000E+000	3.34665E-004	2.40040E-001	8.33577E-001	3.57660E+000	9	...........
	75	1.01333	8.38241E-001	4.00485E-004	0.00000E+000	3.35703E-004	2.40040E-001	8.38521E-001	3.57660E+000	9	...........
	76	1.02667	8.43153E-001	4.00853E-004	0.00000E+000	3.37981E-004	2.40040E-001	8.43443E-001	3.57660E+000	9	...........
	77	1.04	8.48019E-001	4.01354E-004	0.00000E+000	3.40356E-004	2.40040E-001	8.48296E-001	3.57660E+000	9	...........
	78	1.05333	8.52882E-001	4.01204E-004	0.00000E+000	3.42180E-004	2.40040E-001	8.53169E-001	3.57660E+000	9	...........
	79	1.06667	8.57716E-001	4.00734E-004	0.00000E+000	3.43716E-004	2.40040E-001	8.58037E-001	3.57660E+000	9	...........
	80	1.08	8.62557E-001	4.00002E-004	0.00000E+000	3.45024E-004	2.40040E-001	8.62829E-001	3.57660E+000	9	...........
	81	1.09333	8.67318E-001	4.00284E-004	0.00000E+000	3.47174E-004	2.40040E-001	8.67592E-001	3.57660E+000	9	...........
	82	1.10667	8.72090E-001	4.01300E-004	0.00000E+000	3.49970E-004	2.40040E-001	8.72334E-001	3.57660E+000	9	...........
	83	1.12	8.76774E-001	4.01923E-004	0.00000E+000	3.52396E-004	2.40040E-001	8.77054E-001	3.57660E+000	9	...........
	84	1.13333	8.81370E-001	4.00463E-004	0.00000E+000	3.52956E-004	2.40040E-001	8.81664E-001	3.57660E+000	9	...........
	85	1.14667	8.85975E-001	4.00714E-004	0.00000E+000	3.55022E-004	2.40040E-001	8.86244E-001	3.57660E+000	9	...........
	86	1.16	8.90537E-001	4.00399E-004	0.00000E+000	3.56570E-004	2.40040E-001	8.90846E-001	3.57660E+000	9	...........
	87	1.17333	8.95072E-001	4.00731E-004	0.00000E+000	3.58684E-004	2.40040E-001	8.95397E-001	3.57660E+000	9	...........
	88	1.18667	8.99590E-001	3.99868E-004	0.00000E+000	3.59717E-004	2.40040E-001	8.99907E-001	3.57660E+000	9	...........
	89	1.2	9.04084E-001	4.01769E-004	0.00000E+000	3.63233E-004	2.40040E-001	9.04405E-001	3.57660E+000	9	...........
	90	1.21333	9.08452E-001	4.00825E-004	0.00000E+000	3.64131E-004	2.40040E-001	9.08802E-001	3.57660E+000	9	...........
	91	1.22667	9.12855E-001	4.00603E-004	0.00000E+000	3.65693E-004	2.40040E-001	9.13173E-001	3.57660E+000	9	...........
	92	1.24	9.17178E-001	4.00676E-004	0.00000E+000	3.67491E-004	2.40040E-001	9.17515E-001	3.57660E+000	9	...........
	93	1.25333	9.21535E-001	4.00490E-004	0.00000E+000	3.69065E-004	2.40040E-001	9.21789E-001	3.57660E+000	9	...........
	94	1.26667	9.25825E-001	4.00078E-004	0.00000E+000	3.70402E-004	2.40040E-001	9.26078E-001	3.57660E+000	9	...........
	95	1.28	9.30091E-001	4.00847E-004	0.00000E+000	3.72824E-004	2.40040E-001	9.30344E-001	3.57660E+000	9	...........
	96	1.29333	9.34284E-001	4.01444E-004	0.00000E+000	3.75063E-004	2.40040E-001	9.34580E-001	3.57660E+000	9	...........
	97	1.30667	9.38495E-001	4.00662E-004	0.00000E+000	3.76019E-004	2.40040E-001	9.38789E-001	3.57660E+000	9	...........
	98	1.32	9.42724E-001	4.01411E-004	0.00000E+000	3.78419E-004	2.40040E-001	9.42973E-001	3.57653E+000	9	...........
	99	1.33333	9.46850E-001	4.00376E-004	0.00000E+000	3.79096E-004	2.40040E-001	9.47135E-001	3.57630E+000	9	...........
	100	1.34667	9.50877E-001	4.00681E-004	0.00000E+000	3.80999E-004	2.40040E-001	9.51170E-001	3.57630E+000	9	...........
	101	1.36	9.54884E-001	4.02068E-004	0.00000E+000	3.83929E-004	2.40040E-001	9.55171E-001	3.57630E+000	9	...........
	102	1.37333	9.58840E-001	4.00993E-004	0.00000E+000	3.84488E-004	2.40040E-001	9.59153E-001	3.57630E+000	9	...........
	103	1.38667	9.62791E-001	4.00369E-004	0.00000E+000	3.85472E-004	2.40040E-001	9.63119E-001	3.57630E+000	9	...........
	104	1.4	9.66697E-001	4.01022E-004	0.00000E+000	3.87667E-004	2.40040E-001	9.67018E-001	3.57630E+000	9	...........
	105	1.41333	9.70575E-001	4.00848E-004	0.00000E+000	3.89053E-004	2.40040E-001	9.70879E-001	3.57630E+000	9	...........
	106	1.42667	9.74428E-001	4.00277E-004	0.00000E+000	3.90041E-004	2.40040E-001	9.74713E-001	3.57630E+000	9	...........
	107	1.44	9.78215E-001	4.00694E-004	0.00000E+000	3.91965E-004	2.40040E-001	9.78503E-001	3.57630E+000	9	...........
	108	1.45333	9.81994E-001	4.00626E-004	0.00000E+000	3.93413E-004	2.40040E-001	9.82284E-001	3.57630E+000	9	...........
	109	1.46667	9.85668E-001	4.00785E-004	0.00000E+000	3.95041E-004	2.40040E-001	9.85975E-001	3.57630E+000	9	...........
	110	1.48	9.89311E-001	4.00458E-004	0.00000E+000	3.96178E-004	2.40040E-001	9.89644E-001	3.57630E+000	9	...........
	111	1.49333	9.92920E-001	4.01221E-004	0.00000E+000	3.98380E-004	2.40040E-001	9.93266E-001	3.57630E+000	9	...........
	112	1.50667	9.96515E-001	4.01139E-004	0.00000E+000	3.99741E-004	2.40040E-001	9.96847E-001	3.57630E+000	9	...........
	113	1.515	9.99372E-001	4.01359E-004	0.00000E+000	4.01107E-004	2.40040E-001	9.99709E-001	3.57630E+000	9	...........
STARTTIMEOFFSET	QUANT	1886.599	Start Time Offset (s)
