EXPLAIN
TAG	PWR800_CHARGE
TITLE	LABEL	PWR Cyclic Charge Discharge (Cell) - Charge Step	Test &Identifier
DATE	LABEL	12-7-2017	Date
TIME	LABEL	14:46:35	Time
NOTES	NOTES	3	&Notes...
	supercap test cell
	0.4mg
	6M KOH
PSTAT	PSTAT	IFC5000-01520	Potentiostat
CAPACITY	QUANT	1.00000E-003	Capacity (A-hr)
CELLTYPE	SELECTOR	1	&Cell Type
WORKINGCONNECTION	SELECTOR	0	&Working Lead
MAXCHARGETIME	VARIABLEANDUNITS	1.00000E+002	s	1.00000E+002	second(s)	Max &Charge Time
CHARGECURRENT	QUANT	4.00000E-004	&Charge Current (A) 
VOLTAGEFINISH	TWOPARAM	F	1.00000E-003	3.60000E+003	&Voltage Finish	 I (A) < 	Max Time(s)
SAMPLETIME	QUANT	1.00000E-002	Sa&mple Period (s)
CHARGESTOPAT1	MULTIPARAM	4	1.00000E+000	Charge Stop At &1	Voltage > Limit	V
CHARGESTOPAT2	MULTIPARAM	0	0.00000E+000	Charge Stop At &2	None	N/A
AESBHCSELECTOR	TOGGLE	F	Save Both Half Cells
IRCOMP	TOGGLE	F	IR &Measure
EOC	QUANT	0	Open Circuit (V)
SEQUENCER	TOGGLE	TRUE	Run as Sequence
PSTATMODEL	IQUANT	53	Pstat Model
PSTATSECTION	LABEL	IFC5000-01520	Pstat Section
PSTATSERIALNO	LABEL	01520	Pstat Serial Number
CTRLMODE	IQUANT	0	Control Mode
ELECTROMETER	IQUANT	1	RE=0 or CS=1
IESTAB	IQUANT	0	I/E Stability
CASPEED	IQUANT	4	Control Amp Speed
CONVENTION	IQUANT	1	Current Convention
ICHRANGE	IQUANT	2	Ich Range
ICHRANGEMODE	TOGGLE	T	Ich Auto Range
ICHOFFSETENABLE	TOGGLE	F	Ich Offset Enable
ICHOFFSET	QUANT	0	Ich Offset (V)
ICHFILTER	IQUANT	1	Ich Filter
VCHRANGE	IQUANT	2	Vch Range
VCHRANGEMODE	TOGGLE	T	Vch Auto Range
VCHOFFSETENABLE	TOGGLE	F	Vch Offset Enable
VCHOFFSET	QUANT	0	Vch Offset (V)
VCHFILTER	IQUANT	1	Vch Filter
IERANGELOWERLIMIT	IQUANT	9	I/E Range Lower Limit
IERANGEMODE	TOGGLE	F	I/E AutoRange
IERANGE	IQUANT	9	I/E Range
ACHSELECT	IQUANT	1	Ach Select
ACHRANGE	IQUANT	2	Ach Range
ACHOFFSETENABLE	TOGGLE	F	Ach Offset Enable
ACHOFFSET	QUANT	0	Ach Offset (V)
ACHFILTER	IQUANT	1	Ach Filter
CABLEID	IQUANT	14	Cable ID
DCCALDATE	LABEL	5-7-2017	DC Calibration Date
ACCALDATE	LABEL	12/3/2015	AC Calibration Date
FRAMEWORKVERSION	QUANT	7.01	Framework Version
INSTRUMENTVERSION	LABEL	4.00	Instrument Version
CURVE	TABLE	120
	Pt	T	Vf	Im	Vu	Pwr	Sig	Ach	Temp	IERange	Over
	#	s	V	A	V	W	V	V	deg C	#	bits
	0	0.013333	3.60409E-001	4.01058E-004	0.00000E+000	1.44545E-004	2.40040E-001	3.60507E-001	3.57670E+000	9	...........
	1	0.026667	3.71800E-001	4.01102E-004	0.00000E+000	1.49130E-004	2.40040E-001	3.71876E-001	3.57670E+000	9	...........
	2	0.04	3.81645E-001	4.00615E-004	0.00000E+000	1.52892E-004	2.40040E-001	3.81723E-001	3.57670E+000	9	...........
	3	0.053333	3.90560E-001	4.00241E-004	0.00000E+000	1.56318E-004	2.40040E-001	3.90636E-001	3.57670E+000	9	...........
	4	0.066667	3.98944E-001	4.00142E-004	0.00000E+000	1.59634E-004	2.40040E-001	3.99023E-001	3.57670E+000	9	...........
	5	0.08	4.06841E-001	4.02142E-004	0.00000E+000	1.63608E-004	2.40040E-001	4.06923E-001	3.57670E+000	9	...........
	6	0.093333	4.14426E-001	4.00221E-004	0.00000E+000	1.65862E-004	2.40040E-001	4.14516E-001	3.57670E+000	9	...........
	7	0.106667	4.21736E-001	4.00624E-004	0.00000E+000	1.68958E-004	2.40040E-001	4.21820E-001	3.57670E+000	9	...........
	8	0.12	4.28979E-001	4.00943E-004	0.00000E+000	1.71996E-004	2.40040E-001	4.29068E-001	3.57670E+000	9	...........
	9	0.133333	4.36016E-001	4.01379E-004	0.00000E+000	1.75008E-004	2.40040E-001	4.36105E-001	3.57670E+000	9	...........
	10	0.146667	4.42964E-001	4.00922E-004	0.00000E+000	1.77594E-004	2.40040E-001	4.43057E-001	3.57670E+000	9	...........
	11	0.16	4.49749E-001	4.00070E-004	0.00000E+000	1.79931E-004	2.40040E-001	4.49843E-001	3.57670E+000	9	...........
	12	0.173333	4.56430E-001	4.01243E-004	0.00000E+000	1.83139E-004	2.40040E-001	4.56520E-001	3.57670E+000	9	...........
	13	0.186667	4.63064E-001	4.00223E-004	0.00000E+000	1.85329E-004	2.40040E-001	4.63156E-001	3.57670E+000	9	...........
	14	0.2	4.69603E-001	4.00178E-004	0.00000E+000	1.87925E-004	2.40040E-001	4.69694E-001	3.57670E+000	9	...........
	15	0.213333	4.76066E-001	4.00595E-004	0.00000E+000	1.90709E-004	2.40040E-001	4.76160E-001	3.57670E+000	9	...........
	16	0.226667	4.82448E-001	4.00378E-004	0.00000E+000	1.93162E-004	2.40040E-001	4.82542E-001	3.57670E+000	9	...........
	17	0.24	4.88770E-001	4.00984E-004	0.00000E+000	1.95989E-004	2.40040E-001	4.88873E-001	3.57670E+000	9	...........
	18	0.253333	4.95072E-001	4.00895E-004	0.00000E+000	1.98472E-004	2.40040E-001	4.95174E-001	3.57670E+000	9	...........
	19	0.266667	5.01325E-001	3.99726E-004	0.00000E+000	2.00393E-004	2.40040E-001	5.01433E-001	3.57670E+000	9	...........
	20	0.28	5.07446E-001	4.00954E-004	0.00000E+000	2.03463E-004	2.40040E-001	5.07547E-001	3.57670E+000	9	...........
	21	0.293333	5.13680E-001	3.99966E-004	0.00000E+000	2.05455E-004	2.40040E-001	5.13789E-001	3.57670E+000	9	...........
	22	0.306667	5.19844E-001	4.02427E-004	0.00000E+000	2.09199E-004	2.40040E-001	5.19947E-001	3.57670E+000	9	...........
	23	0.32	5.25873E-001	4.00118E-004	0.00000E+000	2.10411E-004	2.40040E-001	5.25979E-001	3.57670E+000	9	...........
	24	0.333333	5.31855E-001	4.00994E-004	0.00000E+000	2.13270E-004	2.40040E-001	5.31998E-001	3.57670E+000	9	...........
	25	0.346667	5.37631E-001	4.01796E-004	0.00000E+000	2.16018E-004	2.40040E-001	5.37846E-001	3.57670E+000	9	...........
	26	0.36	5.43580E-001	4.01558E-004	0.00000E+000	2.18279E-004	2.40040E-001	5.43789E-001	3.57670E+000	9	...........
	27	0.373333	5.49521E-001	4.00144E-004	0.00000E+000	2.19887E-004	2.40040E-001	5.49744E-001	3.57670E+000	9	...........
	28	0.386667	5.55420E-001	4.00152E-004	0.00000E+000	2.22253E-004	2.40040E-001	5.55654E-001	3.57670E+000	9	...........
	29	0.4	5.61280E-001	4.00618E-004	0.00000E+000	2.24859E-004	2.40040E-001	5.61542E-001	3.57670E+000	9	...........
	30	0.413333	5.67192E-001	4.01044E-004	0.00000E+000	2.27469E-004	2.40040E-001	5.67432E-001	3.57670E+000	9	...........
	31	0.426667	5.72996E-001	3.99313E-004	0.00000E+000	2.28805E-004	2.40040E-001	5.73252E-001	3.57670E+000	9	...........
	32	0.44	5.78847E-001	4.00873E-004	0.00000E+000	2.32044E-004	2.40040E-001	5.79098E-001	3.57670E+000	9	...........
	33	0.453333	5.84607E-001	4.02318E-004	0.00000E+000	2.35198E-004	2.40040E-001	5.84872E-001	3.57670E+000	9	...........
	34	0.466667	5.90373E-001	4.00499E-004	0.00000E+000	2.36444E-004	2.40040E-001	5.90640E-001	3.57670E+000	9	...........
	35	0.48	5.96109E-001	4.01037E-004	0.00000E+000	2.39062E-004	2.40040E-001	5.96372E-001	3.57670E+000	9	...........
	36	0.493333	6.01890E-001	4.01115E-004	0.00000E+000	2.41427E-004	2.40040E-001	6.02170E-001	3.57670E+000	9	...........
	37	0.506667	6.07646E-001	4.00184E-004	0.00000E+000	2.43170E-004	2.40040E-001	6.07929E-001	3.57670E+000	9	...........
	38	0.52	6.13309E-001	4.00335E-004	0.00000E+000	2.45529E-004	2.40040E-001	6.13582E-001	3.57670E+000	9	...........
	39	0.533333	6.18978E-001	4.00174E-004	0.00000E+000	2.47699E-004	2.40040E-001	6.19202E-001	3.57670E+000	9	...........
	40	0.546667	6.24634E-001	3.99958E-004	0.00000E+000	2.49827E-004	2.40040E-001	6.24887E-001	3.57670E+000	9	...........
	41	0.56	6.30249E-001	4.01583E-004	0.00000E+000	2.53097E-004	2.40040E-001	6.30507E-001	3.57688E+000	9	...........
	42	0.573333	6.35866E-001	4.01331E-004	0.00000E+000	2.55193E-004	2.40040E-001	6.36101E-001	3.57690E+000	9	...........
	43	0.586667	6.41525E-001	4.00377E-004	0.00000E+000	2.56852E-004	2.40040E-001	6.41762E-001	3.57690E+000	9	...........
	44	0.6	6.47087E-001	4.00753E-004	0.00000E+000	2.59322E-004	2.40040E-001	6.47321E-001	3.57690E+000	9	...........
	45	0.613333	6.52688E-001	4.00746E-004	0.00000E+000	2.61562E-004	2.40040E-001	6.52924E-001	3.57690E+000	9	...........
	46	0.626667	6.58206E-001	4.00776E-004	0.00000E+000	2.63793E-004	2.40040E-001	6.58453E-001	3.57690E+000	9	...........
	47	0.64	6.63709E-001	4.01765E-004	0.00000E+000	2.66655E-004	2.40040E-001	6.63970E-001	3.57690E+000	9	...........
	48	0.653333	6.69285E-001	4.01054E-004	0.00000E+000	2.68420E-004	2.40040E-001	6.69539E-001	3.57690E+000	9	...........
	49	0.666667	6.74887E-001	4.01154E-004	0.00000E+000	2.70734E-004	2.40040E-001	6.75124E-001	3.57690E+000	9	...........
	50	0.68	6.80388E-001	4.01560E-004	0.00000E+000	2.73216E-004	2.40040E-001	6.80624E-001	3.57690E+000	9	...........
	51	0.693333	6.85881E-001	4.01911E-004	0.00000E+000	2.75663E-004	2.40040E-001	6.86107E-001	3.57690E+000	9	...........
	52	0.706667	6.91324E-001	4.02267E-004	0.00000E+000	2.78097E-004	2.40040E-001	6.91557E-001	3.57690E+000	9	...........
	53	0.72	6.96870E-001	4.01640E-004	0.00000E+000	2.79891E-004	2.40040E-001	6.97076E-001	3.57690E+000	9	...........
	54	0.733333	7.02323E-001	4.00728E-004	0.00000E+000	2.81441E-004	2.40040E-001	7.02532E-001	3.57690E+000	9	...........
	55	0.746667	7.07705E-001	4.00077E-004	0.00000E+000	2.83137E-004	2.40040E-001	7.07921E-001	3.57690E+000	9	...........
	56	0.76	7.13131E-001	4.01399E-004	0.00000E+000	2.86250E-004	2.40040E-001	7.13350E-001	3.57690E+000	9	...........
	57	0.773333	7.18472E-001	4.01158E-004	0.00000E+000	2.88220E-004	2.40040E-001	7.18683E-001	3.57690E+000	9	...........
	58	0.786667	7.23831E-001	4.00890E-004	0.00000E+000	2.90177E-004	2.40040E-001	7.24018E-001	3.57690E+000	9	...........
	59	0.8	7.29208E-001	4.00560E-004	0.00000E+000	2.92091E-004	2.40040E-001	7.29424E-001	3.57690E+000	9	...........
	60	0.813333	7.34475E-001	3.99984E-004	0.00000E+000	2.93779E-004	2.40040E-001	7.34685E-001	3.57690E+000	9	...........
	61	0.826667	7.39721E-001	4.02067E-004	0.00000E+000	2.97418E-004	2.40040E-001	7.39955E-001	3.57690E+000	9	...........
	62	0.84	7.45027E-001	4.00222E-004	0.00000E+000	2.98176E-004	2.40040E-001	7.45248E-001	3.57690E+000	9	...........
	63	0.853333	7.50337E-001	4.01487E-004	0.00000E+000	3.01251E-004	2.40040E-001	7.50565E-001	3.57690E+000	9	...........
	64	0.866667	7.55576E-001	4.00553E-004	0.00000E+000	3.02648E-004	2.40040E-001	7.55809E-001	3.57690E+000	9	...........
	65	0.88	7.60836E-001	4.01460E-004	0.00000E+000	3.05445E-004	2.40040E-001	7.61059E-001	3.57690E+000	9	...........
	66	0.893333	7.66020E-001	4.01172E-004	0.00000E+000	3.07306E-004	2.40040E-001	7.66259E-001	3.57690E+000	9	...........
	67	0.906667	7.71186E-001	4.01531E-004	0.00000E+000	3.09655E-004	2.40040E-001	7.71431E-001	3.57690E+000	9	...........
	68	0.92	7.76305E-001	4.01483E-004	0.00000E+000	3.11673E-004	2.40040E-001	7.76581E-001	3.57690E+000	9	...........
	69	0.933333	7.81397E-001	4.00234E-004	0.00000E+000	3.12742E-004	2.40040E-001	7.81636E-001	3.57690E+000	9	...........
	70	0.946667	7.86550E-001	4.01237E-004	0.00000E+000	3.15593E-004	2.40040E-001	7.86791E-001	3.57690E+000	9	...........
	71	0.96	7.91605E-001	4.00289E-004	0.00000E+000	3.16871E-004	2.40040E-001	7.91854E-001	3.57690E+000	9	...........
	72	0.97333	7.96683E-001	3.99945E-004	0.00000E+000	3.18629E-004	2.40040E-001	7.96937E-001	3.57690E+000	9	...........
	73	0.98667	8.01666E-001	4.00766E-004	0.00000E+000	3.21281E-004	2.40040E-001	8.01912E-001	3.57690E+000	9	...........
	74	1	8.06696E-001	4.00931E-004	0.00000E+000	3.23430E-004	2.40040E-001	8.06961E-001	3.57690E+000	9	...........
	75	1.01333	8.11709E-001	4.01879E-004	0.00000E+000	3.26208E-004	2.40040E-001	8.11990E-001	3.57690E+000	9	...........
	76	1.02667	8.16625E-001	4.01031E-004	0.00000E+000	3.27492E-004	2.40040E-001	8.16912E-001	3.57690E+000	9	...........
	77	1.04	8.21565E-001	4.00674E-004	0.00000E+000	3.29180E-004	2.40040E-001	8.21843E-001	3.57690E+000	9	...........
	78	1.05333	8.26492E-001	4.01577E-004	0.00000E+000	3.31900E-004	2.40040E-001	8.26773E-001	3.57690E+000	9	...........
	79	1.06667	8.31394E-001	4.01669E-004	0.00000E+000	3.33945E-004	2.40040E-001	8.31652E-001	3.57690E+000	9	...........
	80	1.08	8.36202E-001	4.01265E-004	0.00000E+000	3.35538E-004	2.40040E-001	8.36501E-001	3.57690E+000	9	...........
	81	1.09333	8.40971E-001	4.01149E-004	0.00000E+000	3.37355E-004	2.40040E-001	8.41264E-001	3.57690E+000	9	...........
	82	1.10667	8.45775E-001	4.00287E-004	0.00000E+000	3.38552E-004	2.40040E-001	8.46080E-001	3.57690E+000	9	...........
	83	1.12	8.50501E-001	4.01369E-004	0.00000E+000	3.41365E-004	2.40040E-001	8.50789E-001	3.57690E+000	9	...........
	84	1.13333	8.55269E-001	3.99684E-004	0.00000E+000	3.41838E-004	2.40040E-001	8.55568E-001	3.57690E+000	9	...........
	85	1.14667	8.59948E-001	4.00614E-004	0.00000E+000	3.44507E-004	2.40040E-001	8.60242E-001	3.57690E+000	9	...........
	86	1.16	8.64568E-001	4.00898E-004	0.00000E+000	3.46604E-004	2.40040E-001	8.64897E-001	3.57690E+000	9	...........
	87	1.17333	8.69210E-001	4.01147E-004	0.00000E+000	3.48681E-004	2.40040E-001	8.69527E-001	3.57690E+000	9	...........
	88	1.18667	8.73823E-001	4.01141E-004	0.00000E+000	3.50526E-004	2.40040E-001	8.74138E-001	3.57690E+000	9	...........
	89	1.2	8.78409E-001	4.01358E-004	0.00000E+000	3.52556E-004	2.40040E-001	8.78703E-001	3.57690E+000	9	...........
	90	1.21333	8.82931E-001	4.00952E-004	0.00000E+000	3.54013E-004	2.40040E-001	8.83224E-001	3.57690E+000	9	...........
	91	1.22667	8.87412E-001	4.01592E-004	0.00000E+000	3.56378E-004	2.40040E-001	8.87700E-001	3.57690E+000	9	...........
	92	1.24	8.91792E-001	4.01095E-004	0.00000E+000	3.57693E-004	2.40040E-001	8.92070E-001	3.57690E+000	9	...........
	93	1.25333	8.96169E-001	4.01219E-004	0.00000E+000	3.59560E-004	2.40040E-001	8.96472E-001	3.57690E+000	9	...........
	94	1.26667	9.00586E-001	3.99946E-004	0.00000E+000	3.60185E-004	2.40040E-001	9.00880E-001	3.57690E+000	9	...........
	95	1.28	9.04912E-001	4.00888E-004	0.00000E+000	3.62768E-004	2.40040E-001	9.05234E-001	3.57690E+000	9	...........
	96	1.29333	9.09234E-001	3.99873E-004	0.00000E+000	3.63578E-004	2.40040E-001	9.09525E-001	3.57690E+000	9	...........
	97	1.30667	9.13538E-001	4.00131E-004	0.00000E+000	3.65535E-004	2.40040E-001	9.13840E-001	3.57690E+000	9	...........
	98	1.32	9.17766E-001	4.00704E-004	0.00000E+000	3.67753E-004	2.40040E-001	9.18080E-001	3.57690E+000	9	...........
	99	1.33333	9.22042E-001	4.00387E-004	0.00000E+000	3.69173E-004	2.40040E-001	9.22315E-001	3.57690E+000	9	...........
	100	1.34667	9.26210E-001	4.01806E-004	0.00000E+000	3.72156E-004	2.40040E-001	9.26484E-001	3.57690E+000	9	...........
	101	1.36	9.30353E-001	4.00351E-004	0.00000E+000	3.72468E-004	2.40040E-001	9.30625E-001	3.57690E+000	9	...........
	102	1.37333	9.34384E-001	4.01232E-004	0.00000E+000	3.74904E-004	2.40040E-001	9.34690E-001	3.57690E+000	9	...........
	103	1.38667	9.38438E-001	4.01540E-004	0.00000E+000	3.76820E-004	2.40040E-001	9.38768E-001	3.57690E+000	9	...........
	104	1.4	9.42499E-001	4.00478E-004	0.00000E+000	3.77450E-004	2.40040E-001	9.42805E-001	3.57690E+000	9	...........
	105	1.41333	9.46517E-001	4.01819E-004	0.00000E+000	3.80329E-004	2.40040E-001	9.46858E-001	3.57690E+000	9	...........
	106	1.42667	9.50471E-001	4.01192E-004	0.00000E+000	3.81322E-004	2.40040E-001	9.50784E-001	3.57690E+000	9	...........
	107	1.44	9.54415E-001	3.99334E-004	0.00000E+000	3.81131E-004	2.40040E-001	9.54703E-001	3.57690E+000	9	...........
	108	1.45333	9.58299E-001	4.00219E-004	0.00000E+000	3.83529E-004	2.40040E-001	9.58604E-001	3.57690E+000	9	...........
	109	1.46667	9.62128E-001	4.00562E-004	0.00000E+000	3.85392E-004	2.40040E-001	9.62464E-001	3.57690E+000	9	...........
	110	1.48	9.65896E-001	4.02210E-004	0.00000E+000	3.88493E-004	2.40040E-001	9.66223E-001	3.57690E+000	9	...........
	111	1.49333	9.69639E-001	4.00216E-004	0.00000E+000	3.88065E-004	2.40040E-001	9.69988E-001	3.57690E+000	9	...........
	112	1.50667	9.73416E-001	4.02155E-004	0.00000E+000	3.91464E-004	2.40040E-001	9.73744E-001	3.57690E+000	9	...........
	113	1.52	9.77101E-001	4.01277E-004	0.00000E+000	3.92089E-004	2.40040E-001	9.77404E-001	3.57690E+000	9	...........
	114	1.53333	9.80714E-001	4.00153E-004	0.00000E+000	3.92436E-004	2.40040E-001	9.81036E-001	3.57690E+000	9	...........
	115	1.54667	9.84310E-001	4.01904E-004	0.00000E+000	3.95598E-004	2.40040E-001	9.84637E-001	3.57690E+000	9	...........
	116	1.56	9.87934E-001	3.99788E-004	0.00000E+000	3.94964E-004	2.40040E-001	9.88255E-001	3.57655E+000	9	...........
	117	1.57333	9.91494E-001	4.01944E-004	0.00000E+000	3.98525E-004	2.40040E-001	9.91834E-001	3.57650E+000	9	...........
	118	1.58667	9.94999E-001	3.99117E-004	0.00000E+000	3.97121E-004	2.40040E-001	9.95339E-001	3.57650E+000	9	...........
	119	1.6	9.98482E-001	4.00121E-004	0.00000E+000	3.99513E-004	2.40040E-001	9.98827E-001	3.57650E+000	9	...........
STARTTIMEOFFSET	QUANT	1339.642	Start Time Offset (s)
