EXPLAIN
TAG	PWR800_CHARGE
TITLE	LABEL	PWR Cyclic Charge Discharge (Cell) - Charge Step	Test &Identifier
DATE	LABEL	12-7-2017	Date
TIME	LABEL	15:05:34	Time
NOTES	NOTES	3	&Notes...
	supercap test cell
	0.4mg
	6M KOH
PSTAT	PSTAT	IFC5000-01520	Potentiostat
CAPACITY	QUANT	1.00000E-003	Capacity (A-hr)
CELLTYPE	SELECTOR	1	&Cell Type
WORKINGCONNECTION	SELECTOR	0	&Working Lead
MAXCHARGETIME	VARIABLEANDUNITS	1.00000E+002	s	1.00000E+002	second(s)	Max &Charge Time
CHARGECURRENT	QUANT	4.00000E-004	&Charge Current (A) 
VOLTAGEFINISH	TWOPARAM	F	1.00000E-003	3.60000E+003	&Voltage Finish	 I (A) < 	Max Time(s)
SAMPLETIME	QUANT	1.00000E-002	Sa&mple Period (s)
CHARGESTOPAT1	MULTIPARAM	4	1.00000E+000	Charge Stop At &1	Voltage > Limit	V
CHARGESTOPAT2	MULTIPARAM	0	0.00000E+000	Charge Stop At &2	None	N/A
AESBHCSELECTOR	TOGGLE	F	Save Both Half Cells
IRCOMP	TOGGLE	F	IR &Measure
EOC	QUANT	0	Open Circuit (V)
SEQUENCER	TOGGLE	TRUE	Run as Sequence
PSTATMODEL	IQUANT	53	Pstat Model
PSTATSECTION	LABEL	IFC5000-01520	Pstat Section
PSTATSERIALNO	LABEL	01520	Pstat Serial Number
CTRLMODE	IQUANT	0	Control Mode
ELECTROMETER	IQUANT	1	RE=0 or CS=1
IESTAB	IQUANT	0	I/E Stability
CASPEED	IQUANT	4	Control Amp Speed
CONVENTION	IQUANT	1	Current Convention
ICHRANGE	IQUANT	2	Ich Range
ICHRANGEMODE	TOGGLE	T	Ich Auto Range
ICHOFFSETENABLE	TOGGLE	F	Ich Offset Enable
ICHOFFSET	QUANT	0	Ich Offset (V)
ICHFILTER	IQUANT	1	Ich Filter
VCHRANGE	IQUANT	2	Vch Range
VCHRANGEMODE	TOGGLE	T	Vch Auto Range
VCHOFFSETENABLE	TOGGLE	F	Vch Offset Enable
VCHOFFSET	QUANT	0	Vch Offset (V)
VCHFILTER	IQUANT	1	Vch Filter
IERANGELOWERLIMIT	IQUANT	9	I/E Range Lower Limit
IERANGEMODE	TOGGLE	F	I/E AutoRange
IERANGE	IQUANT	9	I/E Range
ACHSELECT	IQUANT	1	Ach Select
ACHRANGE	IQUANT	2	Ach Range
ACHOFFSETENABLE	TOGGLE	F	Ach Offset Enable
ACHOFFSET	QUANT	0	Ach Offset (V)
ACHFILTER	IQUANT	1	Ach Filter
CABLEID	IQUANT	14	Cable ID
DCCALDATE	LABEL	5-7-2017	DC Calibration Date
ACCALDATE	LABEL	12/3/2015	AC Calibration Date
FRAMEWORKVERSION	QUANT	7.01	Framework Version
INSTRUMENTVERSION	LABEL	4.00	Instrument Version
CURVE	TABLE	111
	Pt	T	Vf	Im	Vu	Pwr	Sig	Ach	Temp	IERange	Over
	#	s	V	A	V	W	V	V	deg C	#	bits
	0	0.013333	3.77891E-001	4.01279E-004	0.00000E+000	1.51640E-004	2.40040E-001	3.77984E-001	3.57740E+000	9	...........
	1	0.026667	3.90241E-001	4.00558E-004	0.00000E+000	1.56314E-004	2.40040E-001	3.90311E-001	3.57740E+000	9	...........
	2	0.04	4.00735E-001	4.01133E-004	0.00000E+000	1.60748E-004	2.40040E-001	4.00806E-001	3.57740E+000	9	...........
	3	0.053333	4.10278E-001	4.01439E-004	0.00000E+000	1.64702E-004	2.40040E-001	4.10363E-001	3.57740E+000	9	...........
	4	0.066667	4.19191E-001	4.00852E-004	0.00000E+000	1.68034E-004	2.40040E-001	4.19279E-001	3.57740E+000	9	...........
	5	0.08	4.27637E-001	4.01202E-004	0.00000E+000	1.71569E-004	2.40040E-001	4.27722E-001	3.57740E+000	9	...........
	6	0.093333	4.35774E-001	4.01696E-004	0.00000E+000	1.75049E-004	2.40040E-001	4.35855E-001	3.57740E+000	9	...........
	7	0.106667	4.43570E-001	4.00891E-004	0.00000E+000	1.77823E-004	2.40040E-001	4.43658E-001	3.57740E+000	9	...........
	8	0.12	4.51250E-001	4.02142E-004	0.00000E+000	1.81467E-004	2.40040E-001	4.51335E-001	3.57740E+000	9	...........
	9	0.133333	4.58825E-001	3.99429E-004	0.00000E+000	1.83268E-004	2.40040E-001	4.58912E-001	3.57740E+000	9	...........
	10	0.146667	4.66197E-001	4.00470E-004	0.00000E+000	1.86698E-004	2.40040E-001	4.66285E-001	3.57740E+000	9	...........
	11	0.16	4.73363E-001	3.99592E-004	0.00000E+000	1.89152E-004	2.40040E-001	4.73455E-001	3.57740E+000	9	...........
	12	0.173333	4.80409E-001	4.01122E-004	0.00000E+000	1.92703E-004	2.40040E-001	4.80499E-001	3.57740E+000	9	...........
	13	0.186667	4.87448E-001	4.01633E-004	0.00000E+000	1.95775E-004	2.40040E-001	4.87544E-001	3.57740E+000	9	...........
	14	0.2	4.94339E-001	4.00038E-004	0.00000E+000	1.97754E-004	2.40040E-001	4.94443E-001	3.57740E+000	9	...........
	15	0.213333	5.01182E-001	4.00942E-004	0.00000E+000	2.00945E-004	2.40040E-001	5.01278E-001	3.57740E+000	9	...........
	16	0.226667	5.07875E-001	4.00419E-004	0.00000E+000	2.03363E-004	2.40040E-001	5.07982E-001	3.57740E+000	9	...........
	17	0.24	5.14519E-001	4.01462E-004	0.00000E+000	2.06560E-004	2.40040E-001	5.14620E-001	3.57740E+000	9	...........
	18	0.253333	5.21167E-001	4.00447E-004	0.00000E+000	2.08700E-004	2.40040E-001	5.21275E-001	3.57740E+000	9	...........
	19	0.266667	5.27806E-001	4.01509E-004	0.00000E+000	2.11919E-004	2.40040E-001	5.27919E-001	3.57740E+000	9	...........
	20	0.28	5.34194E-001	4.01368E-004	0.00000E+000	2.14408E-004	2.40040E-001	5.34375E-001	3.57740E+000	9	...........
	21	0.293333	5.40565E-001	4.02346E-004	0.00000E+000	2.17494E-004	2.40040E-001	5.40784E-001	3.57740E+000	9	...........
	22	0.306667	5.46951E-001	3.99799E-004	0.00000E+000	2.18670E-004	2.40040E-001	5.47159E-001	3.57740E+000	9	...........
	23	0.32	5.53257E-001	4.02734E-004	0.00000E+000	2.22815E-004	2.40040E-001	5.53501E-001	3.57740E+000	9	...........
	24	0.333333	5.59643E-001	4.01064E-004	0.00000E+000	2.24453E-004	2.40040E-001	5.59900E-001	3.57740E+000	9	...........
	25	0.346667	5.66123E-001	4.01625E-004	0.00000E+000	2.27369E-004	2.40040E-001	5.66352E-001	3.57740E+000	9	...........
	26	0.36	5.72392E-001	4.01113E-004	0.00000E+000	2.29594E-004	2.40040E-001	5.72592E-001	3.57740E+000	9	...........
	27	0.373333	5.78583E-001	4.00245E-004	0.00000E+000	2.31575E-004	2.40040E-001	5.78840E-001	3.57740E+000	9	...........
	28	0.386667	5.84730E-001	4.00376E-004	0.00000E+000	2.34112E-004	2.40040E-001	5.84977E-001	3.57740E+000	9	...........
	29	0.4	5.90955E-001	4.02078E-004	0.00000E+000	2.37610E-004	2.40040E-001	5.91195E-001	3.57740E+000	9	...........
	30	0.413333	5.97117E-001	4.02850E-004	0.00000E+000	2.40548E-004	2.40040E-001	5.97350E-001	3.57740E+000	9	...........
	31	0.426667	6.03243E-001	4.00618E-004	0.00000E+000	2.41670E-004	2.40040E-001	6.03508E-001	3.57740E+000	9	...........
	32	0.44	6.09344E-001	4.01807E-004	0.00000E+000	2.44839E-004	2.40040E-001	6.09590E-001	3.57740E+000	9	...........
	33	0.453333	6.15478E-001	4.02878E-004	0.00000E+000	2.47962E-004	2.40040E-001	6.15682E-001	3.57740E+000	9	...........
	34	0.466667	6.21569E-001	3.99727E-004	0.00000E+000	2.48458E-004	2.40040E-001	6.21742E-001	3.57740E+000	9	...........
	35	0.48	6.27672E-001	4.02044E-004	0.00000E+000	2.52352E-004	2.40040E-001	6.27858E-001	3.57740E+000	9	...........
	36	0.493333	6.33702E-001	4.01573E-004	0.00000E+000	2.54478E-004	2.40040E-001	6.33911E-001	3.57740E+000	9	...........
	37	0.506667	6.39774E-001	4.01467E-004	0.00000E+000	2.56848E-004	2.40040E-001	6.39989E-001	3.57740E+000	9	...........
	38	0.52	6.45766E-001	4.00841E-004	0.00000E+000	2.58849E-004	2.40040E-001	6.45982E-001	3.57740E+000	9	...........
	39	0.533333	6.51720E-001	4.02329E-004	0.00000E+000	2.62206E-004	2.40040E-001	6.51947E-001	3.57740E+000	9	...........
	40	0.546667	6.57609E-001	4.00690E-004	0.00000E+000	2.63497E-004	2.40040E-001	6.57789E-001	3.57740E+000	9	...........
	41	0.56	6.63434E-001	4.01521E-004	0.00000E+000	2.66383E-004	2.40040E-001	6.63629E-001	3.57740E+000	9	...........
	42	0.573333	6.69373E-001	4.01725E-004	0.00000E+000	2.68904E-004	2.40040E-001	6.69519E-001	3.57740E+000	9	...........
	43	0.586667	6.75186E-001	4.00685E-004	0.00000E+000	2.70537E-004	2.40040E-001	6.75362E-001	3.57740E+000	9	...........
	44	0.6	6.80992E-001	4.01752E-004	0.00000E+000	2.73590E-004	2.40040E-001	6.81185E-001	3.57740E+000	9	...........
	45	0.613333	6.86810E-001	4.00599E-004	0.00000E+000	2.75136E-004	2.40040E-001	6.86998E-001	3.57740E+000	9	...........
	46	0.626667	6.92631E-001	4.00941E-004	0.00000E+000	2.77704E-004	2.40040E-001	6.92833E-001	3.57740E+000	9	...........
	47	0.64	6.98398E-001	3.99544E-004	0.00000E+000	2.79041E-004	2.40040E-001	6.98588E-001	3.57740E+000	9	...........
	48	0.653333	7.04113E-001	4.01073E-004	0.00000E+000	2.82401E-004	2.40040E-001	7.04322E-001	3.57740E+000	9	...........
	49	0.666667	7.09790E-001	4.01145E-004	0.00000E+000	2.84729E-004	2.40040E-001	7.10030E-001	3.57740E+000	9	...........
	50	0.68	7.15548E-001	4.01303E-004	0.00000E+000	2.87152E-004	2.40040E-001	7.15796E-001	3.57740E+000	9	...........
	51	0.693333	7.21308E-001	4.00497E-004	0.00000E+000	2.88882E-004	2.40040E-001	7.21508E-001	3.57740E+000	9	...........
	52	0.706667	7.26976E-001	3.99588E-004	0.00000E+000	2.90491E-004	2.40040E-001	7.27206E-001	3.57740E+000	9	...........
	53	0.72	7.32601E-001	4.00661E-004	0.00000E+000	2.93524E-004	2.40040E-001	7.32858E-001	3.57740E+000	9	...........
	54	0.733333	7.38297E-001	4.00110E-004	0.00000E+000	2.95400E-004	2.40040E-001	7.38535E-001	3.57740E+000	9	...........
	55	0.746667	7.43844E-001	3.99799E-004	0.00000E+000	2.97388E-004	2.40040E-001	7.44098E-001	3.57740E+000	9	...........
	56	0.76	7.49453E-001	4.01586E-004	0.00000E+000	3.00970E-004	2.40040E-001	7.49712E-001	3.57740E+000	9	...........
	57	0.773333	7.54983E-001	4.01769E-004	0.00000E+000	3.03329E-004	2.40040E-001	7.55235E-001	3.57740E+000	9	...........
	58	0.786667	7.60454E-001	4.00257E-004	0.00000E+000	3.04377E-004	2.40040E-001	7.60700E-001	3.57740E+000	9	...........
	59	0.8	7.65977E-001	4.01542E-004	0.00000E+000	3.07572E-004	2.40040E-001	7.66236E-001	3.57740E+000	9	...........
	60	0.813333	7.71463E-001	4.01419E-004	0.00000E+000	3.09680E-004	2.40040E-001	7.71716E-001	3.57740E+000	9	...........
	61	0.826667	7.76885E-001	4.01616E-004	0.00000E+000	3.12009E-004	2.40040E-001	7.77137E-001	3.57740E+000	9	...........
	62	0.84	7.82314E-001	4.01398E-004	0.00000E+000	3.14020E-004	2.40040E-001	7.82567E-001	3.57740E+000	9	...........
	63	0.853333	7.87688E-001	4.01301E-004	0.00000E+000	3.16100E-004	2.40040E-001	7.87915E-001	3.57740E+000	9	...........
	64	0.866667	7.92998E-001	4.01648E-004	0.00000E+000	3.18506E-004	2.40040E-001	7.93269E-001	3.57740E+000	9	...........
	65	0.88	7.98342E-001	4.01974E-004	0.00000E+000	3.20913E-004	2.40040E-001	7.98582E-001	3.57740E+000	9	...........
	66	0.893333	8.03561E-001	4.01041E-004	0.00000E+000	3.22261E-004	2.40040E-001	8.03823E-001	3.57740E+000	9	...........
	67	0.906667	8.08768E-001	4.00827E-004	0.00000E+000	3.24176E-004	2.40040E-001	8.09050E-001	3.57740E+000	9	...........
	68	0.92	8.13987E-001	4.01844E-004	0.00000E+000	3.27096E-004	2.40040E-001	8.14267E-001	3.57740E+000	9	...........
	69	0.933333	8.19164E-001	4.01136E-004	0.00000E+000	3.28596E-004	2.40040E-001	8.19442E-001	3.57740E+000	9	...........
	70	0.946667	8.24287E-001	4.00212E-004	0.00000E+000	3.29889E-004	2.40040E-001	8.24548E-001	3.57740E+000	9	...........
	71	0.96	8.29417E-001	4.00801E-004	0.00000E+000	3.32431E-004	2.40040E-001	8.29665E-001	3.57740E+000	9	...........
	72	0.97333	8.34454E-001	4.01935E-004	0.00000E+000	3.35396E-004	2.40040E-001	8.34720E-001	3.57740E+000	9	...........
	73	0.98667	8.39495E-001	3.99409E-004	0.00000E+000	3.35302E-004	2.40040E-001	8.39747E-001	3.57740E+000	9	...........
	74	1	8.44486E-001	4.02543E-004	0.00000E+000	3.39942E-004	2.40040E-001	8.44762E-001	3.57740E+000	9	...........
	75	1.01333	8.49484E-001	4.01299E-004	0.00000E+000	3.40897E-004	2.40040E-001	8.49726E-001	3.57740E+000	9	...........
	76	1.02667	8.54373E-001	4.01295E-004	0.00000E+000	3.42856E-004	2.40040E-001	8.54643E-001	3.57740E+000	9	...........
	77	1.04	8.59298E-001	4.02123E-004	0.00000E+000	3.45544E-004	2.40040E-001	8.59593E-001	3.57740E+000	9	...........
	78	1.05333	8.64155E-001	4.00948E-004	0.00000E+000	3.46481E-004	2.40040E-001	8.64459E-001	3.57740E+000	9	...........
	79	1.06667	8.69031E-001	4.01761E-004	0.00000E+000	3.49143E-004	2.40040E-001	8.69299E-001	3.57740E+000	9	...........
	80	1.08	8.73816E-001	4.00270E-004	0.00000E+000	3.49762E-004	2.40040E-001	8.74087E-001	3.57740E+000	9	...........
	81	1.09333	8.78504E-001	4.00176E-004	0.00000E+000	3.51556E-004	2.40040E-001	8.78784E-001	3.57740E+000	9	...........
	82	1.10667	8.83198E-001	4.00668E-004	0.00000E+000	3.53869E-004	2.40040E-001	8.83467E-001	3.57740E+000	9	...........
	83	1.12	8.87878E-001	4.00757E-004	0.00000E+000	3.55824E-004	2.40040E-001	8.88173E-001	3.57740E+000	9	...........
	84	1.13333	8.92533E-001	4.00606E-004	0.00000E+000	3.57554E-004	2.40040E-001	8.92790E-001	3.57740E+000	9	...........
	85	1.14667	8.97080E-001	4.01162E-004	0.00000E+000	3.59874E-004	2.40040E-001	8.97385E-001	3.57740E+000	9	...........
	86	1.16	9.01571E-001	4.00307E-004	0.00000E+000	3.60905E-004	2.40040E-001	9.01845E-001	3.57740E+000	9	...........
	87	1.17333	9.06041E-001	3.99581E-004	0.00000E+000	3.62037E-004	2.40040E-001	9.06344E-001	3.57740E+000	9	...........
	88	1.18667	9.10534E-001	4.01651E-004	0.00000E+000	3.65717E-004	2.40040E-001	9.10819E-001	3.57740E+000	9	...........
	89	1.2	9.14992E-001	4.00869E-004	0.00000E+000	3.66792E-004	2.40040E-001	9.15300E-001	3.57740E+000	9	...........
	90	1.21333	9.19335E-001	4.00240E-004	0.00000E+000	3.67954E-004	2.40040E-001	9.19650E-001	3.57740E+000	9	...........
	91	1.22667	9.23712E-001	4.01184E-004	0.00000E+000	3.70578E-004	2.40040E-001	9.23997E-001	3.57740E+000	9	...........
	92	1.24	9.28027E-001	4.00927E-004	0.00000E+000	3.72071E-004	2.40040E-001	9.28347E-001	3.57740E+000	9	...........
	93	1.25333	9.32345E-001	4.00208E-004	0.00000E+000	3.73132E-004	2.40040E-001	9.32667E-001	3.57740E+000	9	...........
	94	1.26667	9.36548E-001	4.00068E-004	0.00000E+000	3.74682E-004	2.40040E-001	9.36869E-001	3.57740E+000	9	...........
	95	1.28	9.40749E-001	4.00648E-004	0.00000E+000	3.76909E-004	2.40040E-001	9.41055E-001	3.57740E+000	9	...........
	96	1.29333	9.44949E-001	4.01518E-004	0.00000E+000	3.79414E-004	2.40040E-001	9.45269E-001	3.57740E+000	9	...........
	97	1.30667	9.49151E-001	4.00079E-004	0.00000E+000	3.79736E-004	2.40040E-001	9.49451E-001	3.57740E+000	9	...........
	98	1.32	9.53212E-001	4.00665E-004	0.00000E+000	3.81919E-004	2.40040E-001	9.53525E-001	3.57740E+000	9	...........
	99	1.33333	9.57221E-001	4.01477E-004	0.00000E+000	3.84303E-004	2.40040E-001	9.57570E-001	3.57740E+000	9	...........
	100	1.34667	9.61234E-001	4.01420E-004	0.00000E+000	3.85859E-004	2.40040E-001	9.61563E-001	3.57740E+000	9	...........
	101	1.36	9.65158E-001	4.01316E-004	0.00000E+000	3.87333E-004	2.40040E-001	9.65495E-001	3.57740E+000	9	...........
	102	1.37333	9.69113E-001	4.01890E-004	0.00000E+000	3.89477E-004	2.40040E-001	9.69430E-001	3.57740E+000	9	...........
	103	1.38667	9.73045E-001	4.01878E-004	0.00000E+000	3.91045E-004	2.40040E-001	9.73368E-001	3.57740E+000	9	...........
	104	1.4	9.76872E-001	4.00811E-004	0.00000E+000	3.91541E-004	2.40040E-001	9.77221E-001	3.57740E+000	9	...........
	105	1.41333	9.80664E-001	4.01307E-004	0.00000E+000	3.93547E-004	2.40040E-001	9.80994E-001	3.57740E+000	9	...........
	106	1.42667	9.84375E-001	4.00890E-004	0.00000E+000	3.94626E-004	2.40040E-001	9.84700E-001	3.57740E+000	9	...........
	107	1.44	9.88090E-001	4.01106E-004	0.00000E+000	3.96329E-004	2.40040E-001	9.88441E-001	3.57740E+000	9	...........
	108	1.45333	9.91725E-001	4.00194E-004	0.00000E+000	3.96882E-004	2.40040E-001	9.92089E-001	3.57740E+000	9	...........
	109	1.46667	9.95396E-001	4.00978E-004	0.00000E+000	3.99132E-004	2.40040E-001	9.95732E-001	3.57740E+000	9	...........
	110	1.47833	9.98784E-001	4.01096E-004	0.00000E+000	4.00609E-004	2.40040E-001	9.99137E-001	3.57740E+000	9	...........
STARTTIMEOFFSET	QUANT	2233.153	Start Time Offset (s)
