EXPLAIN
TAG	PWR800_CHARGE
TITLE	LABEL	PWR Cyclic Charge Discharge (Cell) - Charge Step	Test &Identifier
DATE	LABEL	12-7-2017	Date
TIME	LABEL	14:45:59	Time
NOTES	NOTES	3	&Notes...
	supercap test cell
	0.4mg
	6M KOH
PSTAT	PSTAT	IFC5000-01520	Potentiostat
CAPACITY	QUANT	1.00000E-003	Capacity (A-hr)
CELLTYPE	SELECTOR	1	&Cell Type
WORKINGCONNECTION	SELECTOR	0	&Working Lead
MAXCHARGETIME	VARIABLEANDUNITS	1.00000E+002	s	1.00000E+002	second(s)	Max &Charge Time
CHARGECURRENT	QUANT	4.00000E-004	&Charge Current (A) 
VOLTAGEFINISH	TWOPARAM	F	1.00000E-003	3.60000E+003	&Voltage Finish	 I (A) < 	Max Time(s)
SAMPLETIME	QUANT	1.00000E-002	Sa&mple Period (s)
CHARGESTOPAT1	MULTIPARAM	4	1.00000E+000	Charge Stop At &1	Voltage > Limit	V
CHARGESTOPAT2	MULTIPARAM	0	0.00000E+000	Charge Stop At &2	None	N/A
AESBHCSELECTOR	TOGGLE	F	Save Both Half Cells
IRCOMP	TOGGLE	F	IR &Measure
EOC	QUANT	0	Open Circuit (V)
SEQUENCER	TOGGLE	TRUE	Run as Sequence
PSTATMODEL	IQUANT	53	Pstat Model
PSTATSECTION	LABEL	IFC5000-01520	Pstat Section
PSTATSERIALNO	LABEL	01520	Pstat Serial Number
CTRLMODE	IQUANT	0	Control Mode
ELECTROMETER	IQUANT	1	RE=0 or CS=1
IESTAB	IQUANT	0	I/E Stability
CASPEED	IQUANT	4	Control Amp Speed
CONVENTION	IQUANT	1	Current Convention
ICHRANGE	IQUANT	2	Ich Range
ICHRANGEMODE	TOGGLE	T	Ich Auto Range
ICHOFFSETENABLE	TOGGLE	F	Ich Offset Enable
ICHOFFSET	QUANT	0	Ich Offset (V)
ICHFILTER	IQUANT	1	Ich Filter
VCHRANGE	IQUANT	2	Vch Range
VCHRANGEMODE	TOGGLE	T	Vch Auto Range
VCHOFFSETENABLE	TOGGLE	F	Vch Offset Enable
VCHOFFSET	QUANT	0	Vch Offset (V)
VCHFILTER	IQUANT	1	Vch Filter
IERANGELOWERLIMIT	IQUANT	9	I/E Range Lower Limit
IERANGEMODE	TOGGLE	F	I/E AutoRange
IERANGE	IQUANT	9	I/E Range
ACHSELECT	IQUANT	1	Ach Select
ACHRANGE	IQUANT	2	Ach Range
ACHOFFSETENABLE	TOGGLE	F	Ach Offset Enable
ACHOFFSET	QUANT	0	Ach Offset (V)
ACHFILTER	IQUANT	1	Ach Filter
CABLEID	IQUANT	14	Cable ID
DCCALDATE	LABEL	5-7-2017	DC Calibration Date
ACCALDATE	LABEL	12/3/2015	AC Calibration Date
FRAMEWORKVERSION	QUANT	7.01	Framework Version
INSTRUMENTVERSION	LABEL	4.00	Instrument Version
CURVE	TABLE	121
	Pt	T	Vf	Im	Vu	Pwr	Sig	Ach	Temp	IERange	Over
	#	s	V	A	V	W	V	V	deg C	#	bits
	0	0.013333	3.61313E-001	4.00678E-004	0.00000E+000	1.44770E-004	2.40040E-001	3.61389E-001	3.57630E+000	9	...........
	1	0.026667	3.72577E-001	4.01258E-004	0.00000E+000	1.49499E-004	2.40040E-001	3.72644E-001	3.57630E+000	9	...........
	2	0.04	3.82355E-001	4.01293E-004	0.00000E+000	1.53436E-004	2.40040E-001	3.82421E-001	3.57630E+000	9	...........
	3	0.053333	3.91170E-001	4.00680E-004	0.00000E+000	1.56734E-004	2.40040E-001	3.91240E-001	3.57630E+000	9	...........
	4	0.066667	3.99414E-001	4.00758E-004	0.00000E+000	1.60069E-004	2.40040E-001	3.99479E-001	3.57630E+000	9	...........
	5	0.08	4.07256E-001	4.00635E-004	0.00000E+000	1.63161E-004	2.40040E-001	4.07332E-001	3.57630E+000	9	...........
	6	0.093333	4.14810E-001	4.02087E-004	0.00000E+000	1.66790E-004	2.40040E-001	4.14890E-001	3.57630E+000	9	...........
	7	0.106667	4.22134E-001	4.01120E-004	0.00000E+000	1.69326E-004	2.40040E-001	4.22211E-001	3.57630E+000	9	...........
	8	0.12	4.29242E-001	3.99984E-004	0.00000E+000	1.71690E-004	2.40040E-001	4.29323E-001	3.57630E+000	9	...........
	9	0.133333	4.36202E-001	4.00702E-004	0.00000E+000	1.74787E-004	2.40040E-001	4.36276E-001	3.57630E+000	9	...........
	10	0.146667	4.43080E-001	4.01044E-004	0.00000E+000	1.77695E-004	2.40040E-001	4.43158E-001	3.57641E+000	9	...........
	11	0.16	4.49837E-001	4.00264E-004	0.00000E+000	1.80053E-004	2.40040E-001	4.49922E-001	3.57650E+000	9	...........
	12	0.173333	4.56443E-001	4.02438E-004	0.00000E+000	1.83690E-004	2.40040E-001	4.56534E-001	3.57650E+000	9	...........
	13	0.186667	4.63045E-001	3.99685E-004	0.00000E+000	1.85072E-004	2.40040E-001	4.63133E-001	3.57650E+000	9	...........
	14	0.2	4.69518E-001	3.99959E-004	0.00000E+000	1.87788E-004	2.40040E-001	4.69605E-001	3.57650E+000	9	...........
	15	0.213333	4.75920E-001	4.00285E-004	0.00000E+000	1.90504E-004	2.40040E-001	4.76012E-001	3.57650E+000	9	...........
	16	0.226667	4.82252E-001	4.00668E-004	0.00000E+000	1.93223E-004	2.40040E-001	4.82350E-001	3.57650E+000	9	...........
	17	0.24	4.88549E-001	3.99622E-004	0.00000E+000	1.95235E-004	2.40040E-001	4.88647E-001	3.57650E+000	9	...........
	18	0.253333	4.94811E-001	3.99829E-004	0.00000E+000	1.97840E-004	2.40040E-001	4.94911E-001	3.57650E+000	9	...........
	19	0.266667	5.01001E-001	3.99915E-004	0.00000E+000	2.00358E-004	2.40040E-001	5.01106E-001	3.57650E+000	9	...........
	20	0.28	5.07132E-001	4.00361E-004	0.00000E+000	2.03035E-004	2.40040E-001	5.07235E-001	3.57650E+000	9	...........
	21	0.293333	5.13272E-001	4.01052E-004	0.00000E+000	2.05849E-004	2.40040E-001	5.13378E-001	3.57650E+000	9	...........
	22	0.306667	5.19285E-001	4.02245E-004	0.00000E+000	2.08880E-004	2.40040E-001	5.19391E-001	3.57650E+000	9	...........
	23	0.32	5.25269E-001	4.02644E-004	0.00000E+000	2.11497E-004	2.40040E-001	5.25379E-001	3.57650E+000	9	...........
	24	0.333333	5.31282E-001	4.02410E-004	0.00000E+000	2.13793E-004	2.40040E-001	5.31406E-001	3.57650E+000	9	...........
	25	0.346667	5.37015E-001	4.01708E-004	0.00000E+000	2.15723E-004	2.40040E-001	5.37230E-001	3.57650E+000	9	...........
	26	0.36	5.42996E-001	4.01577E-004	0.00000E+000	2.18055E-004	2.40040E-001	5.43215E-001	3.57650E+000	9	...........
	27	0.373333	5.48906E-001	4.00205E-004	0.00000E+000	2.19675E-004	2.40040E-001	5.49121E-001	3.57650E+000	9	...........
	28	0.386667	5.54724E-001	4.00537E-004	0.00000E+000	2.22187E-004	2.40040E-001	5.54972E-001	3.57650E+000	9	...........
	29	0.4	5.60712E-001	4.00954E-004	0.00000E+000	2.24820E-004	2.40040E-001	5.60974E-001	3.57650E+000	9	...........
	30	0.413333	5.66637E-001	4.00792E-004	0.00000E+000	2.27104E-004	2.40040E-001	5.66873E-001	3.57650E+000	9	...........
	31	0.426667	5.72473E-001	4.01293E-004	0.00000E+000	2.29729E-004	2.40040E-001	5.72685E-001	3.57650E+000	9	...........
	32	0.44	5.78295E-001	4.01491E-004	0.00000E+000	2.32180E-004	2.40040E-001	5.78522E-001	3.57650E+000	9	...........
	33	0.453333	5.84009E-001	4.01969E-004	0.00000E+000	2.34753E-004	2.40040E-001	5.84255E-001	3.57650E+000	9	...........
	34	0.466667	5.89769E-001	3.99985E-004	0.00000E+000	2.35899E-004	2.40040E-001	5.90030E-001	3.57650E+000	9	...........
	35	0.48	5.95465E-001	4.00629E-004	0.00000E+000	2.38561E-004	2.40040E-001	5.95705E-001	3.57650E+000	9	...........
	36	0.493333	6.01137E-001	4.00963E-004	0.00000E+000	2.41034E-004	2.40040E-001	6.01386E-001	3.57650E+000	9	...........
	37	0.506667	6.06827E-001	4.00104E-004	0.00000E+000	2.42794E-004	2.40040E-001	6.07097E-001	3.57650E+000	9	...........
	38	0.52	6.12492E-001	4.01537E-004	0.00000E+000	2.45938E-004	2.40040E-001	6.12770E-001	3.57650E+000	9	...........
	39	0.533333	6.18145E-001	4.00894E-004	0.00000E+000	2.47811E-004	2.40040E-001	6.18374E-001	3.57650E+000	9	...........
	40	0.546667	6.23816E-001	4.00462E-004	0.00000E+000	2.49814E-004	2.40040E-001	6.24018E-001	3.57650E+000	9	...........
	41	0.56	6.29389E-001	4.00799E-004	0.00000E+000	2.52259E-004	2.40040E-001	6.29632E-001	3.57650E+000	9	...........
	42	0.573333	6.34965E-001	4.00240E-004	0.00000E+000	2.54138E-004	2.40040E-001	6.35201E-001	3.57650E+000	9	...........
	43	0.586667	6.40591E-001	4.01753E-004	0.00000E+000	2.57360E-004	2.40040E-001	6.40817E-001	3.57650E+000	9	...........
	44	0.6	6.46181E-001	3.99860E-004	0.00000E+000	2.58382E-004	2.40040E-001	6.46391E-001	3.57650E+000	9	...........
	45	0.613333	6.51721E-001	4.00903E-004	0.00000E+000	2.61277E-004	2.40040E-001	6.51939E-001	3.57650E+000	9	...........
	46	0.626667	6.57273E-001	4.01460E-004	0.00000E+000	2.63869E-004	2.40040E-001	6.57485E-001	3.57650E+000	9	...........
	47	0.64	6.62861E-001	4.00608E-004	0.00000E+000	2.65548E-004	2.40040E-001	6.63093E-001	3.57650E+000	9	...........
	48	0.653333	6.68327E-001	4.01545E-004	0.00000E+000	2.68364E-004	2.40040E-001	6.68562E-001	3.57650E+000	9	...........
	49	0.666667	6.73822E-001	4.00050E-004	0.00000E+000	2.69562E-004	2.40040E-001	6.74059E-001	3.57650E+000	9	...........
	50	0.68	6.79343E-001	4.01190E-004	0.00000E+000	2.72545E-004	2.40040E-001	6.79589E-001	3.57650E+000	9	...........
	51	0.693333	6.84783E-001	4.00894E-004	0.00000E+000	2.74525E-004	2.40040E-001	6.85018E-001	3.57650E+000	9	...........
	52	0.706667	6.90198E-001	4.01667E-004	0.00000E+000	2.77230E-004	2.40040E-001	6.90457E-001	3.57650E+000	9	...........
	53	0.72	6.95626E-001	4.00582E-004	0.00000E+000	2.78656E-004	2.40040E-001	6.95862E-001	3.57650E+000	9	...........
	54	0.733333	7.01029E-001	4.01027E-004	0.00000E+000	2.81132E-004	2.40040E-001	7.01284E-001	3.57650E+000	9	...........
	55	0.746667	7.06438E-001	4.01944E-004	0.00000E+000	2.83948E-004	2.40040E-001	7.06694E-001	3.57650E+000	9	...........
	56	0.76	7.11875E-001	4.01072E-004	0.00000E+000	2.85513E-004	2.40040E-001	7.12131E-001	3.57650E+000	9	...........
	57	0.773333	7.17295E-001	4.00411E-004	0.00000E+000	2.87213E-004	2.40040E-001	7.17544E-001	3.57650E+000	9	...........
	58	0.786667	7.22681E-001	4.01621E-004	0.00000E+000	2.90244E-004	2.40040E-001	7.22884E-001	3.57650E+000	9	...........
	59	0.8	7.28027E-001	4.03010E-004	0.00000E+000	2.93402E-004	2.40040E-001	7.28260E-001	3.57650E+000	9	...........
	60	0.813333	7.33297E-001	4.01483E-004	0.00000E+000	2.94406E-004	2.40040E-001	7.33558E-001	3.57650E+000	9	...........
	61	0.826667	7.38564E-001	4.01315E-004	0.00000E+000	2.96397E-004	2.40040E-001	7.38816E-001	3.57650E+000	9	...........
	62	0.84	7.43889E-001	4.00310E-004	0.00000E+000	2.97787E-004	2.40040E-001	7.44120E-001	3.57650E+000	9	...........
	63	0.853333	7.49170E-001	4.01167E-004	0.00000E+000	3.00542E-004	2.40040E-001	7.49398E-001	3.57650E+000	9	...........
	64	0.866667	7.54415E-001	4.01635E-004	0.00000E+000	3.02999E-004	2.40040E-001	7.54653E-001	3.57650E+000	9	...........
	65	0.88	7.59630E-001	4.02620E-004	0.00000E+000	3.05842E-004	2.40040E-001	7.59895E-001	3.57650E+000	9	...........
	66	0.893333	7.64787E-001	4.01477E-004	0.00000E+000	3.07045E-004	2.40040E-001	7.65029E-001	3.57650E+000	9	...........
	67	0.906667	7.70025E-001	4.00653E-004	0.00000E+000	3.08513E-004	2.40040E-001	7.70285E-001	3.57650E+000	9	...........
	68	0.92	7.75239E-001	4.00927E-004	0.00000E+000	3.10815E-004	2.40040E-001	7.75471E-001	3.57650E+000	9	...........
	69	0.933333	7.80381E-001	4.00152E-004	0.00000E+000	3.12271E-004	2.40040E-001	7.80614E-001	3.57650E+000	9	...........
	70	0.946667	7.85514E-001	4.01056E-004	0.00000E+000	3.15036E-004	2.40040E-001	7.85752E-001	3.57650E+000	9	...........
	71	0.96	7.90586E-001	4.00661E-004	0.00000E+000	3.16757E-004	2.40040E-001	7.90855E-001	3.57650E+000	9	...........
	72	0.97333	7.95698E-001	4.00940E-004	0.00000E+000	3.19027E-004	2.40040E-001	7.95937E-001	3.57650E+000	9	...........
	73	0.98667	8.00672E-001	4.01822E-004	0.00000E+000	3.21728E-004	2.40040E-001	8.00914E-001	3.57650E+000	9	...........
	74	1	8.05672E-001	4.01207E-004	0.00000E+000	3.23241E-004	2.40040E-001	8.05903E-001	3.57650E+000	9	...........
	75	1.01333	8.10594E-001	4.01868E-004	0.00000E+000	3.25752E-004	2.40040E-001	8.10875E-001	3.57650E+000	9	...........
	76	1.02667	8.15519E-001	4.00426E-004	0.00000E+000	3.26555E-004	2.40040E-001	8.15816E-001	3.57650E+000	9	...........
	77	1.04	8.20478E-001	4.00917E-004	0.00000E+000	3.28944E-004	2.40040E-001	8.20781E-001	3.57650E+000	9	...........
	78	1.05333	8.25338E-001	4.00955E-004	0.00000E+000	3.30924E-004	2.40040E-001	8.25647E-001	3.57650E+000	9	...........
	79	1.06667	8.30162E-001	3.99783E-004	0.00000E+000	3.31885E-004	2.40040E-001	8.30453E-001	3.57650E+000	9	...........
	80	1.08	8.34950E-001	4.01266E-004	0.00000E+000	3.35037E-004	2.40040E-001	8.35251E-001	3.57650E+000	9	...........
	81	1.09333	8.39746E-001	4.01688E-004	0.00000E+000	3.37316E-004	2.40040E-001	8.40038E-001	3.57650E+000	9	...........
	82	1.10667	8.44519E-001	4.01630E-004	0.00000E+000	3.39184E-004	2.40040E-001	8.44818E-001	3.57650E+000	9	...........
	83	1.12	8.49300E-001	4.00902E-004	0.00000E+000	3.40486E-004	2.40040E-001	8.49589E-001	3.57650E+000	9	...........
	84	1.13333	8.54007E-001	4.00878E-004	0.00000E+000	3.42353E-004	2.40040E-001	8.54323E-001	3.57650E+000	9	...........
	85	1.14667	8.58706E-001	4.01026E-004	0.00000E+000	3.44364E-004	2.40040E-001	8.59018E-001	3.57655E+000	9	...........
	86	1.16	8.63333E-001	3.99945E-004	0.00000E+000	3.45286E-004	2.40040E-001	8.63658E-001	3.57660E+000	9	...........
	87	1.17333	8.68001E-001	4.01294E-004	0.00000E+000	3.48324E-004	2.40040E-001	8.68311E-001	3.57660E+000	9	...........
	88	1.18667	8.72611E-001	4.01555E-004	0.00000E+000	3.50401E-004	2.40040E-001	8.72922E-001	3.57660E+000	9	...........
	89	1.2	8.77169E-001	4.00519E-004	0.00000E+000	3.51323E-004	2.40040E-001	8.77483E-001	3.57660E+000	9	...........
	90	1.21333	8.81687E-001	4.00329E-004	0.00000E+000	3.52965E-004	2.40040E-001	8.81987E-001	3.57660E+000	9	...........
	91	1.22667	8.86214E-001	4.00071E-004	0.00000E+000	3.54548E-004	2.40040E-001	8.86509E-001	3.57660E+000	9	...........
	92	1.24	8.90676E-001	3.99950E-004	0.00000E+000	3.56226E-004	2.40040E-001	8.90993E-001	3.57660E+000	9	...........
	93	1.25333	8.95087E-001	3.99896E-004	0.00000E+000	3.57942E-004	2.40040E-001	8.95413E-001	3.57660E+000	9	...........
	94	1.26667	8.99425E-001	4.00729E-004	0.00000E+000	3.60426E-004	2.40040E-001	8.99742E-001	3.57660E+000	9	...........
	95	1.28	9.03753E-001	4.00983E-004	0.00000E+000	3.62389E-004	2.40040E-001	9.04095E-001	3.57660E+000	9	...........
	96	1.29333	9.08117E-001	4.00853E-004	0.00000E+000	3.64022E-004	2.40040E-001	9.08454E-001	3.57660E+000	9	...........
	97	1.30667	9.12382E-001	4.00233E-004	0.00000E+000	3.65166E-004	2.40040E-001	9.12709E-001	3.57660E+000	9	...........
	98	1.32	9.16598E-001	4.00548E-004	0.00000E+000	3.67141E-004	2.40040E-001	9.16963E-001	3.57660E+000	9	...........
	99	1.33333	9.20834E-001	4.00742E-004	0.00000E+000	3.69017E-004	2.40040E-001	9.21148E-001	3.57660E+000	9	...........
	100	1.34667	9.25022E-001	4.01192E-004	0.00000E+000	3.71111E-004	2.40040E-001	9.25325E-001	3.57660E+000	9	...........
	101	1.36	9.29204E-001	4.01406E-004	0.00000E+000	3.72987E-004	2.40040E-001	9.29487E-001	3.57660E+000	9	...........
	102	1.37333	9.33310E-001	3.99346E-004	0.00000E+000	3.72713E-004	2.40040E-001	9.33632E-001	3.57660E+000	9	...........
	103	1.38667	9.37358E-001	4.01272E-004	0.00000E+000	3.76136E-004	2.40040E-001	9.37689E-001	3.57660E+000	9	...........
	104	1.4	9.41372E-001	4.01785E-004	0.00000E+000	3.78229E-004	2.40040E-001	9.41705E-001	3.57660E+000	9	...........
	105	1.41333	9.45415E-001	4.00867E-004	0.00000E+000	3.78985E-004	2.40040E-001	9.45750E-001	3.57660E+000	9	...........
	106	1.42667	9.49420E-001	4.00587E-004	0.00000E+000	3.80325E-004	2.40040E-001	9.49754E-001	3.57660E+000	9	...........
	107	1.44	9.53385E-001	4.01053E-004	0.00000E+000	3.82358E-004	2.40040E-001	9.53710E-001	3.57660E+000	9	...........
	108	1.45333	9.57274E-001	4.00946E-004	0.00000E+000	3.83815E-004	2.40040E-001	9.57594E-001	3.57660E+000	9	...........
	109	1.46667	9.61148E-001	4.01586E-004	0.00000E+000	3.85983E-004	2.40040E-001	9.61500E-001	3.57660E+000	9	...........
	110	1.48	9.64967E-001	4.01138E-004	0.00000E+000	3.87085E-004	2.40040E-001	9.65299E-001	3.57660E+000	9	...........
	111	1.49333	9.68714E-001	4.01204E-004	0.00000E+000	3.88653E-004	2.40040E-001	9.69053E-001	3.57660E+000	9	...........
	112	1.50667	9.72427E-001	4.01239E-004	0.00000E+000	3.90175E-004	2.40040E-001	9.72784E-001	3.57660E+000	9	...........
	113	1.52	9.76180E-001	4.00420E-004	0.00000E+000	3.90882E-004	2.40040E-001	9.76498E-001	3.57660E+000	9	...........
	114	1.53333	9.79855E-001	4.01322E-004	0.00000E+000	3.93237E-004	2.40040E-001	9.80155E-001	3.57660E+000	9	...........
	115	1.54667	9.83465E-001	4.00061E-004	0.00000E+000	3.93446E-004	2.40040E-001	9.83797E-001	3.57660E+000	9	...........
	116	1.56	9.87066E-001	4.00434E-004	0.00000E+000	3.95255E-004	2.40040E-001	9.87394E-001	3.57660E+000	9	...........
	117	1.57333	9.90598E-001	3.99873E-004	0.00000E+000	3.96113E-004	2.40040E-001	9.90939E-001	3.57660E+000	9	...........
	118	1.58667	9.94095E-001	4.01623E-004	0.00000E+000	3.99252E-004	2.40040E-001	9.94410E-001	3.57660E+000	9	...........
	119	1.6	9.97620E-001	4.00376E-004	0.00000E+000	3.99423E-004	2.40040E-001	9.97951E-001	3.57660E+000	9	...........
	120	1.60333	9.99776E-001	4.02540E-004	0.00000E+000	4.02450E-004	2.40040E-001	1.00012E+000	3.57660E+000	9	...........
STARTTIMEOFFSET	QUANT	1311.404	Start Time Offset (s)
