EXPLAIN
TAG	PWR800_CHARGE
TITLE	LABEL	PWR Cyclic Charge Discharge (Cell) - Charge Step	Test &Identifier
DATE	LABEL	12-7-2017	Date
TIME	LABEL	15:01:19	Time
NOTES	NOTES	3	&Notes...
	supercap test cell
	0.4mg
	6M KOH
PSTAT	PSTAT	IFC5000-01520	Potentiostat
CAPACITY	QUANT	1.00000E-003	Capacity (A-hr)
CELLTYPE	SELECTOR	1	&Cell Type
WORKINGCONNECTION	SELECTOR	0	&Working Lead
MAXCHARGETIME	VARIABLEANDUNITS	1.00000E+002	s	1.00000E+002	second(s)	Max &Charge Time
CHARGECURRENT	QUANT	4.00000E-004	&Charge Current (A) 
VOLTAGEFINISH	TWOPARAM	F	1.00000E-003	3.60000E+003	&Voltage Finish	 I (A) < 	Max Time(s)
SAMPLETIME	QUANT	1.00000E-002	Sa&mple Period (s)
CHARGESTOPAT1	MULTIPARAM	4	1.00000E+000	Charge Stop At &1	Voltage > Limit	V
CHARGESTOPAT2	MULTIPARAM	0	0.00000E+000	Charge Stop At &2	None	N/A
AESBHCSELECTOR	TOGGLE	F	Save Both Half Cells
IRCOMP	TOGGLE	F	IR &Measure
EOC	QUANT	0	Open Circuit (V)
SEQUENCER	TOGGLE	TRUE	Run as Sequence
PSTATMODEL	IQUANT	53	Pstat Model
PSTATSECTION	LABEL	IFC5000-01520	Pstat Section
PSTATSERIALNO	LABEL	01520	Pstat Serial Number
CTRLMODE	IQUANT	0	Control Mode
ELECTROMETER	IQUANT	1	RE=0 or CS=1
IESTAB	IQUANT	0	I/E Stability
CASPEED	IQUANT	4	Control Amp Speed
CONVENTION	IQUANT	1	Current Convention
ICHRANGE	IQUANT	2	Ich Range
ICHRANGEMODE	TOGGLE	T	Ich Auto Range
ICHOFFSETENABLE	TOGGLE	F	Ich Offset Enable
ICHOFFSET	QUANT	0	Ich Offset (V)
ICHFILTER	IQUANT	1	Ich Filter
VCHRANGE	IQUANT	2	Vch Range
VCHRANGEMODE	TOGGLE	T	Vch Auto Range
VCHOFFSETENABLE	TOGGLE	F	Vch Offset Enable
VCHOFFSET	QUANT	0	Vch Offset (V)
VCHFILTER	IQUANT	1	Vch Filter
IERANGELOWERLIMIT	IQUANT	9	I/E Range Lower Limit
IERANGEMODE	TOGGLE	F	I/E AutoRange
IERANGE	IQUANT	9	I/E Range
ACHSELECT	IQUANT	1	Ach Select
ACHRANGE	IQUANT	2	Ach Range
ACHOFFSETENABLE	TOGGLE	F	Ach Offset Enable
ACHOFFSET	QUANT	0	Ach Offset (V)
ACHFILTER	IQUANT	1	Ach Filter
CABLEID	IQUANT	14	Cable ID
DCCALDATE	LABEL	5-7-2017	DC Calibration Date
ACCALDATE	LABEL	12/3/2015	AC Calibration Date
FRAMEWORKVERSION	QUANT	7.01	Framework Version
INSTRUMENTVERSION	LABEL	4.00	Instrument Version
CURVE	TABLE	113
	Pt	T	Vf	Im	Vu	Pwr	Sig	Ach	Temp	IERange	Over
	#	s	V	A	V	W	V	V	deg C	#	bits
	0	0.013333	3.74761E-001	4.00635E-004	0.00000E+000	1.50142E-004	2.40040E-001	3.74855E-001	3.57680E+000	9	...........
	1	0.026667	3.86700E-001	4.00775E-004	0.00000E+000	1.54980E-004	2.40040E-001	3.86775E-001	3.57680E+000	9	...........
	2	0.04	3.97006E-001	4.00046E-004	0.00000E+000	1.58821E-004	2.40040E-001	3.97078E-001	3.57680E+000	9	...........
	3	0.053333	4.06329E-001	4.01418E-004	0.00000E+000	1.63108E-004	2.40040E-001	4.06405E-001	3.57680E+000	9	...........
	4	0.066667	4.15113E-001	4.00116E-004	0.00000E+000	1.66093E-004	2.40040E-001	4.15197E-001	3.57680E+000	9	...........
	5	0.08	4.23504E-001	4.00759E-004	0.00000E+000	1.69723E-004	2.40040E-001	4.23588E-001	3.57680E+000	9	...........
	6	0.093333	4.31492E-001	4.00616E-004	0.00000E+000	1.72862E-004	2.40040E-001	4.31579E-001	3.57680E+000	9	...........
	7	0.106667	4.39271E-001	3.99855E-004	0.00000E+000	1.75645E-004	2.40040E-001	4.39364E-001	3.57680E+000	9	...........
	8	0.12	4.46883E-001	4.00797E-004	0.00000E+000	1.79110E-004	2.40040E-001	4.46980E-001	3.57680E+000	9	...........
	9	0.133333	4.54396E-001	4.00735E-004	0.00000E+000	1.82092E-004	2.40040E-001	4.54487E-001	3.57680E+000	9	...........
	10	0.146667	4.61661E-001	4.01642E-004	0.00000E+000	1.85422E-004	2.40040E-001	4.61756E-001	3.57680E+000	9	...........
	11	0.16	4.68747E-001	4.00532E-004	0.00000E+000	1.87748E-004	2.40040E-001	4.68842E-001	3.57680E+000	9	...........
	12	0.173333	4.75697E-001	4.01787E-004	0.00000E+000	1.91129E-004	2.40040E-001	4.75790E-001	3.57680E+000	9	...........
	13	0.186667	4.82618E-001	3.98966E-004	0.00000E+000	1.92548E-004	2.40040E-001	4.82716E-001	3.57680E+000	9	...........
	14	0.2	4.89470E-001	4.01493E-004	0.00000E+000	1.96519E-004	2.40040E-001	4.89569E-001	3.57680E+000	9	...........
	15	0.213333	4.96255E-001	4.01338E-004	0.00000E+000	1.99166E-004	2.40040E-001	4.96355E-001	3.57680E+000	9	...........
	16	0.226667	5.02930E-001	4.00685E-004	0.00000E+000	2.01516E-004	2.40040E-001	5.03026E-001	3.57680E+000	9	...........
	17	0.24	5.09531E-001	4.01076E-004	0.00000E+000	2.04361E-004	2.40040E-001	5.09630E-001	3.57680E+000	9	...........
	18	0.253333	5.16072E-001	4.00995E-004	0.00000E+000	2.06942E-004	2.40040E-001	5.16173E-001	3.57680E+000	9	...........
	19	0.266667	5.22580E-001	4.00457E-004	0.00000E+000	2.09271E-004	2.40040E-001	5.22683E-001	3.57680E+000	9	...........
	20	0.28	5.29044E-001	4.00238E-004	0.00000E+000	2.11743E-004	2.40040E-001	5.29152E-001	3.57680E+000	9	...........
	21	0.293333	5.35191E-001	4.00395E-004	0.00000E+000	2.14288E-004	2.40040E-001	5.35332E-001	3.57680E+000	9	...........
	22	0.306667	5.41630E-001	4.02018E-004	0.00000E+000	2.17745E-004	2.40040E-001	5.41854E-001	3.57680E+000	9	...........
	23	0.32	5.48024E-001	3.99878E-004	0.00000E+000	2.19143E-004	2.40040E-001	5.48246E-001	3.57680E+000	9	...........
	24	0.333333	5.54234E-001	4.00868E-004	0.00000E+000	2.22175E-004	2.40040E-001	5.54462E-001	3.57680E+000	9	...........
	25	0.346667	5.60475E-001	4.00955E-004	0.00000E+000	2.24725E-004	2.40040E-001	5.60722E-001	3.57680E+000	9	...........
	26	0.36	5.66771E-001	4.00160E-004	0.00000E+000	2.26799E-004	2.40040E-001	5.66996E-001	3.57680E+000	9	...........
	27	0.373333	5.72939E-001	4.00638E-004	0.00000E+000	2.29541E-004	2.40040E-001	5.73166E-001	3.57680E+000	9	...........
	28	0.386667	5.79050E-001	4.00266E-004	0.00000E+000	2.31774E-004	2.40040E-001	5.79288E-001	3.57680E+000	9	...........
	29	0.4	5.85225E-001	4.02241E-004	0.00000E+000	2.35402E-004	2.40040E-001	5.85486E-001	3.57680E+000	9	...........
	30	0.413333	5.91359E-001	4.00885E-004	0.00000E+000	2.37067E-004	2.40040E-001	5.91632E-001	3.57680E+000	9	...........
	31	0.426667	5.97386E-001	4.00580E-004	0.00000E+000	2.39301E-004	2.40040E-001	5.97628E-001	3.57680E+000	9	...........
	32	0.44	6.03433E-001	4.00199E-004	0.00000E+000	2.41493E-004	2.40040E-001	6.03683E-001	3.57680E+000	9	...........
	33	0.453333	6.09465E-001	4.01114E-004	0.00000E+000	2.44465E-004	2.40040E-001	6.09712E-001	3.57680E+000	9	...........
	34	0.466667	6.15603E-001	4.01785E-004	0.00000E+000	2.47340E-004	2.40040E-001	6.15822E-001	3.57680E+000	9	...........
	35	0.48	6.21580E-001	4.00554E-004	0.00000E+000	2.48976E-004	2.40040E-001	6.21776E-001	3.57680E+000	9	...........
	36	0.493333	6.27525E-001	4.02659E-004	0.00000E+000	2.52678E-004	2.40040E-001	6.27764E-001	3.57680E+000	9	...........
	37	0.506667	6.33502E-001	4.01036E-004	0.00000E+000	2.54057E-004	2.40040E-001	6.33716E-001	3.57680E+000	9	...........
	38	0.52	6.39463E-001	4.02291E-004	0.00000E+000	2.57250E-004	2.40040E-001	6.39693E-001	3.57680E+000	9	...........
	39	0.533333	6.45387E-001	4.01451E-004	0.00000E+000	2.59092E-004	2.40040E-001	6.45622E-001	3.57680E+000	9	...........
	40	0.546667	6.51311E-001	4.02005E-004	0.00000E+000	2.61830E-004	2.40040E-001	6.51562E-001	3.57680E+000	9	...........
	41	0.56	6.57158E-001	4.01415E-004	0.00000E+000	2.63793E-004	2.40040E-001	6.57407E-001	3.57680E+000	9	...........
	42	0.573333	6.63011E-001	4.01054E-004	0.00000E+000	2.65904E-004	2.40040E-001	6.63274E-001	3.57691E+000	9	...........
	43	0.586667	6.68910E-001	4.01006E-004	0.00000E+000	2.68237E-004	2.40040E-001	6.69155E-001	3.57720E+000	9	...........
	44	0.6	6.74760E-001	4.01312E-004	0.00000E+000	2.70789E-004	2.40040E-001	6.75024E-001	3.57720E+000	9	...........
	45	0.613333	6.80558E-001	4.00953E-004	0.00000E+000	2.72872E-004	2.40040E-001	6.80805E-001	3.57720E+000	9	...........
	46	0.626667	6.86299E-001	4.00802E-004	0.00000E+000	2.75070E-004	2.40040E-001	6.86564E-001	3.57720E+000	9	...........
	47	0.64	6.92060E-001	4.00005E-004	0.00000E+000	2.76827E-004	2.40040E-001	6.92325E-001	3.57720E+000	9	...........
	48	0.653333	6.97794E-001	4.00839E-004	0.00000E+000	2.79703E-004	2.40040E-001	6.98044E-001	3.57720E+000	9	...........
	49	0.666667	7.03541E-001	4.02049E-004	0.00000E+000	2.82858E-004	2.40040E-001	7.03783E-001	3.57720E+000	9	...........
	50	0.68	7.09182E-001	4.01572E-004	0.00000E+000	2.84788E-004	2.40040E-001	7.09439E-001	3.57720E+000	9	...........
	51	0.693333	7.14801E-001	4.00612E-004	0.00000E+000	2.86357E-004	2.40040E-001	7.15071E-001	3.57720E+000	9	...........
	52	0.706667	7.20577E-001	4.01124E-004	0.00000E+000	2.89041E-004	2.40040E-001	7.20794E-001	3.57720E+000	9	...........
	53	0.72	7.26246E-001	4.01160E-004	0.00000E+000	2.91341E-004	2.40040E-001	7.26464E-001	3.57720E+000	9	...........
	54	0.733333	7.31811E-001	4.01695E-004	0.00000E+000	2.93965E-004	2.40040E-001	7.32044E-001	3.57720E+000	9	...........
	55	0.746667	7.37368E-001	4.00852E-004	0.00000E+000	2.95576E-004	2.40040E-001	7.37645E-001	3.57720E+000	9	...........
	56	0.76	7.42987E-001	4.00472E-004	0.00000E+000	2.97546E-004	2.40040E-001	7.43248E-001	3.57720E+000	9	...........
	57	0.773333	7.48454E-001	4.00593E-004	0.00000E+000	2.99825E-004	2.40040E-001	7.48716E-001	3.57720E+000	9	...........
	58	0.786667	7.53906E-001	4.01991E-004	0.00000E+000	3.03064E-004	2.40040E-001	7.54157E-001	3.57720E+000	9	...........
	59	0.8	7.59412E-001	4.00630E-004	0.00000E+000	3.04244E-004	2.40040E-001	7.59654E-001	3.57720E+000	9	...........
	60	0.813333	7.64799E-001	3.99839E-004	0.00000E+000	3.05796E-004	2.40040E-001	7.65072E-001	3.57720E+000	9	...........
	61	0.826667	7.70242E-001	4.01938E-004	0.00000E+000	3.09590E-004	2.40040E-001	7.70504E-001	3.57720E+000	9	...........
	62	0.84	7.75708E-001	4.00504E-004	0.00000E+000	3.10674E-004	2.40040E-001	7.75942E-001	3.57720E+000	9	...........
	63	0.853333	7.81015E-001	4.00952E-004	0.00000E+000	3.13150E-004	2.40040E-001	7.81289E-001	3.57720E+000	9	...........
	64	0.866667	7.86332E-001	4.01468E-004	0.00000E+000	3.15687E-004	2.40040E-001	7.86609E-001	3.57720E+000	9	...........
	65	0.88	7.91664E-001	4.02078E-004	0.00000E+000	3.18310E-004	2.40040E-001	7.91930E-001	3.57720E+000	9	...........
	66	0.893333	7.96902E-001	4.01201E-004	0.00000E+000	3.19718E-004	2.40040E-001	7.97137E-001	3.57720E+000	9	...........
	67	0.906667	8.02137E-001	4.01027E-004	0.00000E+000	3.21679E-004	2.40040E-001	8.02392E-001	3.57720E+000	9	...........
	68	0.92	8.07311E-001	4.00493E-004	0.00000E+000	3.23322E-004	2.40040E-001	8.07586E-001	3.57720E+000	9	...........
	69	0.933333	8.12517E-001	4.00922E-004	0.00000E+000	3.25756E-004	2.40040E-001	8.12768E-001	3.57720E+000	9	...........
	70	0.946667	8.17681E-001	4.01368E-004	0.00000E+000	3.28191E-004	2.40040E-001	8.17955E-001	3.57720E+000	9	...........
	71	0.96	8.22793E-001	4.02018E-004	0.00000E+000	3.30778E-004	2.40040E-001	8.23017E-001	3.57720E+000	9	...........
	72	0.97333	8.27827E-001	4.00974E-004	0.00000E+000	3.31937E-004	2.40040E-001	8.28061E-001	3.57720E+000	9	...........
	73	0.98667	8.32838E-001	4.01214E-004	0.00000E+000	3.34146E-004	2.40040E-001	8.33077E-001	3.57720E+000	9	...........
	74	1	8.37845E-001	4.00631E-004	0.00000E+000	3.35667E-004	2.40040E-001	8.38112E-001	3.57720E+000	9	...........
	75	1.01333	8.42802E-001	4.01835E-004	0.00000E+000	3.38667E-004	2.40040E-001	8.43077E-001	3.57720E+000	9	...........
	76	1.02667	8.47727E-001	4.01885E-004	0.00000E+000	3.40689E-004	2.40040E-001	8.48024E-001	3.57720E+000	9	...........
	77	1.04	8.52653E-001	4.01397E-004	0.00000E+000	3.42252E-004	2.40040E-001	8.52929E-001	3.57720E+000	9	...........
	78	1.05333	8.57532E-001	4.00699E-004	0.00000E+000	3.43612E-004	2.40040E-001	8.57828E-001	3.57720E+000	9	...........
	79	1.06667	8.62306E-001	4.00233E-004	0.00000E+000	3.45124E-004	2.40040E-001	8.62589E-001	3.57720E+000	9	...........
	80	1.08	8.67077E-001	4.01154E-004	0.00000E+000	3.47832E-004	2.40040E-001	8.67401E-001	3.57720E+000	9	...........
	81	1.09333	8.71841E-001	4.00083E-004	0.00000E+000	3.48809E-004	2.40040E-001	8.72124E-001	3.57720E+000	9	...........
	82	1.10667	8.76592E-001	4.01176E-004	0.00000E+000	3.51668E-004	2.40040E-001	8.76893E-001	3.57720E+000	9	...........
	83	1.12	8.81233E-001	4.00906E-004	0.00000E+000	3.53292E-004	2.40040E-001	8.81544E-001	3.57720E+000	9	...........
	84	1.13333	8.85938E-001	4.00704E-004	0.00000E+000	3.54999E-004	2.40040E-001	8.86219E-001	3.57720E+000	9	...........
	85	1.14667	8.90547E-001	4.01913E-004	0.00000E+000	3.57922E-004	2.40040E-001	8.90826E-001	3.57720E+000	9	...........
	86	1.16	8.95139E-001	4.00928E-004	0.00000E+000	3.58886E-004	2.40040E-001	8.95400E-001	3.57720E+000	9	...........
	87	1.17333	8.99664E-001	4.01804E-004	0.00000E+000	3.61488E-004	2.40040E-001	8.99917E-001	3.57720E+000	9	...........
	88	1.18667	9.04094E-001	4.00832E-004	0.00000E+000	3.62390E-004	2.40040E-001	9.04345E-001	3.57720E+000	9	...........
	89	1.2	9.08541E-001	4.00386E-004	0.00000E+000	3.63767E-004	2.40040E-001	9.08797E-001	3.57720E+000	9	...........
	90	1.21333	9.12923E-001	4.00778E-004	0.00000E+000	3.65880E-004	2.40040E-001	9.13190E-001	3.57720E+000	9	...........
	91	1.22667	9.17322E-001	4.01708E-004	0.00000E+000	3.68495E-004	2.40040E-001	9.17637E-001	3.57720E+000	9	...........
	92	1.24	9.21773E-001	4.00506E-004	0.00000E+000	3.69176E-004	2.40040E-001	9.22055E-001	3.57720E+000	9	...........
	93	1.25333	9.26089E-001	4.00863E-004	0.00000E+000	3.71234E-004	2.40040E-001	9.26364E-001	3.57720E+000	9	...........
	94	1.26667	9.30338E-001	4.01647E-004	0.00000E+000	3.73668E-004	2.40040E-001	9.30614E-001	3.57720E+000	9	...........
	95	1.28	9.34539E-001	4.00886E-004	0.00000E+000	3.74643E-004	2.40040E-001	9.34842E-001	3.57720E+000	9	...........
	96	1.29333	9.38740E-001	4.00220E-004	0.00000E+000	3.75702E-004	2.40040E-001	9.39033E-001	3.57720E+000	9	...........
	97	1.30667	9.42849E-001	4.00019E-004	0.00000E+000	3.77157E-004	2.40040E-001	9.43131E-001	3.57720E+000	9	...........
	98	1.32	9.46956E-001	4.01437E-004	0.00000E+000	3.80143E-004	2.40040E-001	9.47266E-001	3.57720E+000	9	...........
	99	1.33333	9.51039E-001	4.01375E-004	0.00000E+000	3.81724E-004	2.40040E-001	9.51355E-001	3.57720E+000	9	...........
	100	1.34667	9.55129E-001	4.00339E-004	0.00000E+000	3.82375E-004	2.40040E-001	9.55448E-001	3.57720E+000	9	...........
	101	1.36	9.59112E-001	3.99556E-004	0.00000E+000	3.83219E-004	2.40040E-001	9.59413E-001	3.57720E+000	9	...........
	102	1.37333	9.63111E-001	4.00685E-004	0.00000E+000	3.85904E-004	2.40040E-001	9.63440E-001	3.57720E+000	9	...........
	103	1.38667	9.67020E-001	4.02248E-004	0.00000E+000	3.88982E-004	2.40040E-001	9.67320E-001	3.57720E+000	9	...........
	104	1.4	9.70854E-001	4.00094E-004	0.00000E+000	3.88433E-004	2.40040E-001	9.71191E-001	3.57720E+000	9	...........
	105	1.41333	9.74735E-001	4.00258E-004	0.00000E+000	3.90146E-004	2.40040E-001	9.75039E-001	3.57720E+000	9	...........
	106	1.42667	9.78591E-001	4.01378E-004	0.00000E+000	3.92785E-004	2.40040E-001	9.78923E-001	3.57720E+000	9	...........
	107	1.44	9.82296E-001	4.00892E-004	0.00000E+000	3.93794E-004	2.40040E-001	9.82640E-001	3.57720E+000	9	...........
	108	1.45333	9.86003E-001	4.02344E-004	0.00000E+000	3.96713E-004	2.40040E-001	9.86347E-001	3.57720E+000	9	...........
	109	1.46667	9.89673E-001	4.00616E-004	0.00000E+000	3.96479E-004	2.40040E-001	9.90019E-001	3.57720E+000	9	...........
	110	1.48	9.93319E-001	4.01708E-004	0.00000E+000	3.99024E-004	2.40040E-001	9.93650E-001	3.57720E+000	9	...........
	111	1.49333	9.96949E-001	4.00827E-004	0.00000E+000	3.99604E-004	2.40040E-001	9.97285E-001	3.57720E+000	9	...........
	112	1.5	9.99641E-001	3.99460E-004	0.00000E+000	3.99317E-004	2.40040E-001	9.99990E-001	3.57720E+000	9	...........
STARTTIMEOFFSET	QUANT	2034.571	Start Time Offset (s)
