EXPLAIN
TAG	PWR800_CHARGE
TITLE	LABEL	PWR Cyclic Charge Discharge (Cell) - Charge Step	Test &Identifier
DATE	LABEL	12-7-2017	Date
TIME	LABEL	14:55:02	Time
NOTES	NOTES	3	&Notes...
	supercap test cell
	0.4mg
	6M KOH
PSTAT	PSTAT	IFC5000-01520	Potentiostat
CAPACITY	QUANT	1.00000E-003	Capacity (A-hr)
CELLTYPE	SELECTOR	1	&Cell Type
WORKINGCONNECTION	SELECTOR	0	&Working Lead
MAXCHARGETIME	VARIABLEANDUNITS	1.00000E+002	s	1.00000E+002	second(s)	Max &Charge Time
CHARGECURRENT	QUANT	4.00000E-004	&Charge Current (A) 
VOLTAGEFINISH	TWOPARAM	F	1.00000E-003	3.60000E+003	&Voltage Finish	 I (A) < 	Max Time(s)
SAMPLETIME	QUANT	1.00000E-002	Sa&mple Period (s)
CHARGESTOPAT1	MULTIPARAM	4	1.00000E+000	Charge Stop At &1	Voltage > Limit	V
CHARGESTOPAT2	MULTIPARAM	0	0.00000E+000	Charge Stop At &2	None	N/A
AESBHCSELECTOR	TOGGLE	F	Save Both Half Cells
IRCOMP	TOGGLE	F	IR &Measure
EOC	QUANT	0	Open Circuit (V)
SEQUENCER	TOGGLE	TRUE	Run as Sequence
PSTATMODEL	IQUANT	53	Pstat Model
PSTATSECTION	LABEL	IFC5000-01520	Pstat Section
PSTATSERIALNO	LABEL	01520	Pstat Serial Number
CTRLMODE	IQUANT	0	Control Mode
ELECTROMETER	IQUANT	1	RE=0 or CS=1
IESTAB	IQUANT	0	I/E Stability
CASPEED	IQUANT	4	Control Amp Speed
CONVENTION	IQUANT	1	Current Convention
ICHRANGE	IQUANT	2	Ich Range
ICHRANGEMODE	TOGGLE	T	Ich Auto Range
ICHOFFSETENABLE	TOGGLE	F	Ich Offset Enable
ICHOFFSET	QUANT	0	Ich Offset (V)
ICHFILTER	IQUANT	1	Ich Filter
VCHRANGE	IQUANT	2	Vch Range
VCHRANGEMODE	TOGGLE	T	Vch Auto Range
VCHOFFSETENABLE	TOGGLE	F	Vch Offset Enable
VCHOFFSET	QUANT	0	Vch Offset (V)
VCHFILTER	IQUANT	1	Vch Filter
IERANGELOWERLIMIT	IQUANT	9	I/E Range Lower Limit
IERANGEMODE	TOGGLE	F	I/E AutoRange
IERANGE	IQUANT	9	I/E Range
ACHSELECT	IQUANT	1	Ach Select
ACHRANGE	IQUANT	2	Ach Range
ACHOFFSETENABLE	TOGGLE	F	Ach Offset Enable
ACHOFFSET	QUANT	0	Ach Offset (V)
ACHFILTER	IQUANT	1	Ach Filter
CABLEID	IQUANT	14	Cable ID
DCCALDATE	LABEL	5-7-2017	DC Calibration Date
ACCALDATE	LABEL	12/3/2015	AC Calibration Date
FRAMEWORKVERSION	QUANT	7.01	Framework Version
INSTRUMENTVERSION	LABEL	4.00	Instrument Version
CURVE	TABLE	116
	Pt	T	Vf	Im	Vu	Pwr	Sig	Ach	Temp	IERange	Over
	#	s	V	A	V	W	V	V	deg C	#	bits
	0	0.013333	3.69940E-001	4.02061E-004	0.00000E+000	1.48738E-004	2.40040E-001	3.70032E-001	3.57670E+000	9	...........
	1	0.026667	3.81697E-001	4.02383E-004	0.00000E+000	1.53588E-004	2.40040E-001	3.81770E-001	3.57670E+000	9	...........
	2	0.04	3.91757E-001	4.00596E-004	0.00000E+000	1.56936E-004	2.40040E-001	3.91830E-001	3.57670E+000	9	...........
	3	0.053333	4.00909E-001	4.00269E-004	0.00000E+000	1.60471E-004	2.40040E-001	4.00987E-001	3.57670E+000	9	...........
	4	0.066667	4.09422E-001	4.01527E-004	0.00000E+000	1.64394E-004	2.40040E-001	4.09501E-001	3.57670E+000	9	...........
	5	0.08	4.17566E-001	4.00531E-004	0.00000E+000	1.67248E-004	2.40040E-001	4.17652E-001	3.57670E+000	9	...........
	6	0.093333	4.25429E-001	4.01040E-004	0.00000E+000	1.70614E-004	2.40040E-001	4.25524E-001	3.57670E+000	9	...........
	7	0.106667	4.33078E-001	3.99922E-004	0.00000E+000	1.73198E-004	2.40040E-001	4.33163E-001	3.57670E+000	9	...........
	8	0.12	4.40466E-001	4.01341E-004	0.00000E+000	1.76777E-004	2.40040E-001	4.40556E-001	3.57670E+000	9	...........
	9	0.133333	4.47748E-001	4.00017E-004	0.00000E+000	1.79107E-004	2.40040E-001	4.47844E-001	3.57670E+000	9	...........
	10	0.146667	4.54817E-001	4.01551E-004	0.00000E+000	1.82632E-004	2.40040E-001	4.54904E-001	3.57670E+000	9	...........
	11	0.16	4.61641E-001	4.01638E-004	0.00000E+000	1.85412E-004	2.40040E-001	4.61730E-001	3.57670E+000	9	...........
	12	0.173333	4.68504E-001	4.01158E-004	0.00000E+000	1.87944E-004	2.40040E-001	4.68597E-001	3.57670E+000	9	...........
	13	0.186667	4.75317E-001	3.99992E-004	0.00000E+000	1.90123E-004	2.40040E-001	4.75408E-001	3.57670E+000	9	...........
	14	0.2	4.82104E-001	4.01899E-004	0.00000E+000	1.93757E-004	2.40040E-001	4.82202E-001	3.57670E+000	9	...........
	15	0.213333	4.88747E-001	4.00707E-004	0.00000E+000	1.95845E-004	2.40040E-001	4.88845E-001	3.57670E+000	9	...........
	16	0.226667	4.95256E-001	4.00962E-004	0.00000E+000	1.98579E-004	2.40040E-001	4.95358E-001	3.57670E+000	9	...........
	17	0.24	5.01721E-001	4.01241E-004	0.00000E+000	2.01311E-004	2.40040E-001	5.01828E-001	3.57670E+000	9	...........
	18	0.253333	5.08141E-001	4.01284E-004	0.00000E+000	2.03909E-004	2.40040E-001	5.08248E-001	3.57670E+000	9	...........
	19	0.266667	5.14485E-001	3.99818E-004	0.00000E+000	2.05700E-004	2.40040E-001	5.14591E-001	3.57670E+000	9	...........
	20	0.28	5.20836E-001	4.01459E-004	0.00000E+000	2.09094E-004	2.40040E-001	5.20942E-001	3.57670E+000	9	...........
	21	0.293333	5.27138E-001	4.00556E-004	0.00000E+000	2.11149E-004	2.40040E-001	5.27246E-001	3.57670E+000	9	...........
	22	0.306667	5.33314E-001	4.01815E-004	0.00000E+000	2.14293E-004	2.40040E-001	5.33441E-001	3.57670E+000	9	...........
	23	0.32	5.39418E-001	4.01482E-004	0.00000E+000	2.16567E-004	2.40040E-001	5.39650E-001	3.57670E+000	9	...........
	24	0.333333	5.45579E-001	4.00917E-004	0.00000E+000	2.18732E-004	2.40040E-001	5.45796E-001	3.57670E+000	9	...........
	25	0.346667	5.51739E-001	4.02265E-004	0.00000E+000	2.21945E-004	2.40040E-001	5.51967E-001	3.57670E+000	9	...........
	26	0.36	5.57825E-001	4.00149E-004	0.00000E+000	2.23213E-004	2.40040E-001	5.58066E-001	3.57670E+000	9	...........
	27	0.373333	5.63935E-001	4.00831E-004	0.00000E+000	2.26043E-004	2.40040E-001	5.64153E-001	3.57670E+000	9	...........
	28	0.386667	5.69967E-001	4.00117E-004	0.00000E+000	2.28053E-004	2.40040E-001	5.70180E-001	3.57670E+000	9	...........
	29	0.4	5.75987E-001	4.00954E-004	0.00000E+000	2.30944E-004	2.40040E-001	5.76235E-001	3.57670E+000	9	...........
	30	0.413333	5.81986E-001	4.01511E-004	0.00000E+000	2.33674E-004	2.40040E-001	5.82242E-001	3.57670E+000	9	...........
	31	0.426667	5.87961E-001	4.00150E-004	0.00000E+000	2.35273E-004	2.40040E-001	5.88220E-001	3.57670E+000	9	...........
	32	0.44	5.93986E-001	4.01091E-004	0.00000E+000	2.38242E-004	2.40040E-001	5.94241E-001	3.57670E+000	9	...........
	33	0.453333	5.99924E-001	4.00360E-004	0.00000E+000	2.40186E-004	2.40040E-001	6.00173E-001	3.57670E+000	9	...........
	34	0.466667	6.05834E-001	4.02177E-004	0.00000E+000	2.43652E-004	2.40040E-001	6.06092E-001	3.57670E+000	9	...........
	35	0.48	6.11691E-001	4.00049E-004	0.00000E+000	2.44706E-004	2.40040E-001	6.11963E-001	3.57670E+000	9	...........
	36	0.493333	6.17641E-001	4.00574E-004	0.00000E+000	2.47411E-004	2.40040E-001	6.17821E-001	3.57670E+000	9	...........
	37	0.506667	6.23486E-001	4.01297E-004	0.00000E+000	2.50203E-004	2.40040E-001	6.23667E-001	3.57670E+000	9	...........
	38	0.52	6.29310E-001	4.00057E-004	0.00000E+000	2.51760E-004	2.40040E-001	6.29532E-001	3.57670E+000	9	...........
	39	0.533333	6.35167E-001	4.02686E-004	0.00000E+000	2.55773E-004	2.40040E-001	6.35381E-001	3.57690E+000	9	...........
	40	0.546667	6.40972E-001	4.00472E-004	0.00000E+000	2.56691E-004	2.40040E-001	6.41164E-001	3.57690E+000	9	...........
	41	0.56	6.46765E-001	4.01111E-004	0.00000E+000	2.59425E-004	2.40040E-001	6.46969E-001	3.57690E+000	9	...........
	42	0.573333	6.52498E-001	4.02078E-004	0.00000E+000	2.62355E-004	2.40040E-001	6.52703E-001	3.57690E+000	9	...........
	43	0.586667	6.58283E-001	3.99909E-004	0.00000E+000	2.63254E-004	2.40040E-001	6.58484E-001	3.57690E+000	9	...........
	44	0.6	6.63968E-001	4.01186E-004	0.00000E+000	2.66374E-004	2.40040E-001	6.64205E-001	3.57690E+000	9	...........
	45	0.613333	6.69684E-001	4.00805E-004	0.00000E+000	2.68413E-004	2.40040E-001	6.69899E-001	3.57690E+000	9	...........
	46	0.626667	6.75395E-001	4.00556E-004	0.00000E+000	2.70534E-004	2.40040E-001	6.75592E-001	3.57690E+000	9	...........
	47	0.64	6.81079E-001	4.00318E-004	0.00000E+000	2.72648E-004	2.40040E-001	6.81283E-001	3.57690E+000	9	...........
	48	0.653333	6.86708E-001	4.01004E-004	0.00000E+000	2.75373E-004	2.40040E-001	6.86930E-001	3.57690E+000	9	...........
	49	0.666667	6.92320E-001	4.01056E-004	0.00000E+000	2.77659E-004	2.40040E-001	6.92552E-001	3.57690E+000	9	...........
	50	0.68	6.97908E-001	4.01926E-004	0.00000E+000	2.80508E-004	2.40040E-001	6.98155E-001	3.57690E+000	9	...........
	51	0.693333	7.03485E-001	4.01613E-004	0.00000E+000	2.82529E-004	2.40040E-001	7.03719E-001	3.57690E+000	9	...........
	52	0.706667	7.08982E-001	4.00997E-004	0.00000E+000	2.84300E-004	2.40040E-001	7.09251E-001	3.57690E+000	9	...........
	53	0.72	7.14503E-001	4.01176E-004	0.00000E+000	2.86642E-004	2.40040E-001	7.14733E-001	3.57690E+000	9	...........
	54	0.733333	7.20016E-001	4.00318E-004	0.00000E+000	2.88235E-004	2.40040E-001	7.20240E-001	3.57690E+000	9	...........
	55	0.746667	7.25547E-001	3.99910E-004	0.00000E+000	2.90154E-004	2.40040E-001	7.25754E-001	3.57690E+000	9	...........
	56	0.76	7.30992E-001	4.01562E-004	0.00000E+000	2.93538E-004	2.40040E-001	7.31238E-001	3.57690E+000	9	...........
	57	0.773333	7.36410E-001	4.00431E-004	0.00000E+000	2.94882E-004	2.40040E-001	7.36624E-001	3.57690E+000	9	...........
	58	0.786667	7.41823E-001	4.00386E-004	0.00000E+000	2.97015E-004	2.40040E-001	7.42070E-001	3.57690E+000	9	...........
	59	0.8	7.47271E-001	4.02323E-004	0.00000E+000	3.00645E-004	2.40040E-001	7.47496E-001	3.57690E+000	9	...........
	60	0.813333	7.52698E-001	4.00790E-004	0.00000E+000	3.01674E-004	2.40040E-001	7.52942E-001	3.57690E+000	9	...........
	61	0.826667	7.58094E-001	4.01052E-004	0.00000E+000	3.04035E-004	2.40040E-001	7.58321E-001	3.57690E+000	9	...........
	62	0.84	7.63397E-001	4.00785E-004	0.00000E+000	3.05958E-004	2.40040E-001	7.63647E-001	3.57690E+000	9	...........
	63	0.853333	7.68796E-001	4.00589E-004	0.00000E+000	3.07971E-004	2.40040E-001	7.69045E-001	3.57690E+000	9	...........
	64	0.866667	7.74108E-001	4.00976E-004	0.00000E+000	3.10399E-004	2.40040E-001	7.74392E-001	3.57690E+000	9	...........
	65	0.88	7.79322E-001	4.01089E-004	0.00000E+000	3.12577E-004	2.40040E-001	7.79579E-001	3.57690E+000	9	...........
	66	0.893333	7.84503E-001	3.99239E-004	0.00000E+000	3.13204E-004	2.40040E-001	7.84771E-001	3.57690E+000	9	...........
	67	0.906667	7.89742E-001	4.01321E-004	0.00000E+000	3.16940E-004	2.40040E-001	7.90024E-001	3.57690E+000	9	...........
	68	0.92	7.94966E-001	4.01423E-004	0.00000E+000	3.19118E-004	2.40040E-001	7.95227E-001	3.57690E+000	9	...........
	69	0.933333	8.00135E-001	4.00040E-004	0.00000E+000	3.20086E-004	2.40040E-001	8.00385E-001	3.57690E+000	9	...........
	70	0.946667	8.05265E-001	3.99776E-004	0.00000E+000	3.21926E-004	2.40040E-001	8.05550E-001	3.57690E+000	9	...........
	71	0.96	8.10322E-001	4.00787E-004	0.00000E+000	3.24766E-004	2.40040E-001	8.10576E-001	3.57690E+000	9	...........
	72	0.97333	8.15358E-001	4.00959E-004	0.00000E+000	3.26925E-004	2.40040E-001	8.15606E-001	3.57690E+000	9	...........
	73	0.98667	8.20363E-001	4.01083E-004	0.00000E+000	3.29033E-004	2.40040E-001	8.20602E-001	3.57690E+000	9	...........
	74	1	8.25358E-001	4.01204E-004	0.00000E+000	3.31137E-004	2.40040E-001	8.25595E-001	3.57690E+000	9	...........
	75	1.01333	8.30296E-001	4.01416E-004	0.00000E+000	3.33294E-004	2.40040E-001	8.30518E-001	3.57690E+000	9	...........
	76	1.02667	8.35179E-001	4.01184E-004	0.00000E+000	3.35060E-004	2.40040E-001	8.35441E-001	3.57690E+000	9	...........
	77	1.04	8.40109E-001	4.01217E-004	0.00000E+000	3.37066E-004	2.40040E-001	8.40358E-001	3.57690E+000	9	...........
	78	1.05333	8.44999E-001	4.01493E-004	0.00000E+000	3.39261E-004	2.40040E-001	8.45268E-001	3.57690E+000	9	...........
	79	1.06667	8.49774E-001	3.99648E-004	0.00000E+000	3.39610E-004	2.40040E-001	8.50054E-001	3.57690E+000	9	...........
	80	1.08	8.54552E-001	4.01421E-004	0.00000E+000	3.43035E-004	2.40040E-001	8.54868E-001	3.57690E+000	9	...........
	81	1.09333	8.59375E-001	4.01009E-004	0.00000E+000	3.44617E-004	2.40040E-001	8.59683E-001	3.57690E+000	9	...........
	82	1.10667	8.64066E-001	4.00264E-004	0.00000E+000	3.45854E-004	2.40040E-001	8.64393E-001	3.57690E+000	9	...........
	83	1.12	8.68809E-001	4.02076E-004	0.00000E+000	3.49328E-004	2.40040E-001	8.69107E-001	3.57690E+000	9	...........
	84	1.13333	8.73430E-001	4.01077E-004	0.00000E+000	3.50313E-004	2.40040E-001	8.73732E-001	3.57690E+000	9	...........
	85	1.14667	8.78086E-001	4.01514E-004	0.00000E+000	3.52564E-004	2.40040E-001	8.78373E-001	3.57690E+000	9	...........
	86	1.16	8.82698E-001	4.00499E-004	0.00000E+000	3.53520E-004	2.40040E-001	8.82961E-001	3.57690E+000	9	...........
	87	1.17333	8.87229E-001	4.01234E-004	0.00000E+000	3.55986E-004	2.40040E-001	8.87520E-001	3.57690E+000	9	...........
	88	1.18667	8.91775E-001	4.00443E-004	0.00000E+000	3.57105E-004	2.40040E-001	8.92014E-001	3.57690E+000	9	...........
	89	1.2	8.96375E-001	4.02310E-004	0.00000E+000	3.60621E-004	2.40040E-001	8.96653E-001	3.57690E+000	9	...........
	90	1.21333	9.00843E-001	3.99596E-004	0.00000E+000	3.59973E-004	2.40040E-001	9.01093E-001	3.57690E+000	9	...........
	91	1.22667	9.05232E-001	4.00331E-004	0.00000E+000	3.62393E-004	2.40040E-001	9.05517E-001	3.57690E+000	9	...........
	92	1.24	9.09711E-001	4.02504E-004	0.00000E+000	3.66162E-004	2.40040E-001	9.09967E-001	3.57690E+000	9	...........
	93	1.25333	9.14086E-001	4.00500E-004	0.00000E+000	3.66091E-004	2.40040E-001	9.14360E-001	3.57690E+000	9	...........
	94	1.26667	9.18382E-001	4.00518E-004	0.00000E+000	3.67828E-004	2.40040E-001	9.18687E-001	3.57690E+000	9	...........
	95	1.28	9.22755E-001	4.00668E-004	0.00000E+000	3.69718E-004	2.40040E-001	9.22997E-001	3.57690E+000	9	...........
	96	1.29333	9.26963E-001	4.01378E-004	0.00000E+000	3.72063E-004	2.40040E-001	9.27234E-001	3.57690E+000	9	...........
	97	1.30667	9.31121E-001	4.01985E-004	0.00000E+000	3.74296E-004	2.40040E-001	9.31395E-001	3.57690E+000	9	...........
	98	1.32	9.35278E-001	4.00442E-004	0.00000E+000	3.74525E-004	2.40040E-001	9.35567E-001	3.57690E+000	9	...........
	99	1.33333	9.39394E-001	4.01557E-004	0.00000E+000	3.77220E-004	2.40040E-001	9.39678E-001	3.57690E+000	9	...........
	100	1.34667	9.43469E-001	4.01694E-004	0.00000E+000	3.78986E-004	2.40040E-001	9.43756E-001	3.57690E+000	9	...........
	101	1.36	9.47622E-001	4.00668E-004	0.00000E+000	3.79682E-004	2.40040E-001	9.47941E-001	3.57690E+000	9	...........
	102	1.37333	9.51684E-001	3.99507E-004	0.00000E+000	3.80205E-004	2.40040E-001	9.51994E-001	3.57690E+000	9	...........
	103	1.38667	9.55670E-001	4.01298E-004	0.00000E+000	3.83509E-004	2.40040E-001	9.55956E-001	3.57690E+000	9	...........
	104	1.4	9.59624E-001	4.01669E-004	0.00000E+000	3.85451E-004	2.40040E-001	9.59953E-001	3.57690E+000	9	...........
	105	1.41333	9.63540E-001	4.01564E-004	0.00000E+000	3.86923E-004	2.40040E-001	9.63883E-001	3.57690E+000	9	...........
	106	1.42667	9.67414E-001	4.00966E-004	0.00000E+000	3.87900E-004	2.40040E-001	9.67734E-001	3.57690E+000	9	...........
	107	1.44	9.71217E-001	4.00172E-004	0.00000E+000	3.88654E-004	2.40040E-001	9.71555E-001	3.57690E+000	9	...........
	108	1.45333	9.75066E-001	4.01143E-004	0.00000E+000	3.91141E-004	2.40040E-001	9.75368E-001	3.57690E+000	9	...........
	109	1.46667	9.78801E-001	4.00867E-004	0.00000E+000	3.92369E-004	2.40040E-001	9.79105E-001	3.57690E+000	9	...........
	110	1.48	9.82458E-001	4.00910E-004	0.00000E+000	3.93877E-004	2.40040E-001	9.82768E-001	3.57690E+000	9	...........
	111	1.49333	9.86172E-001	4.01360E-004	0.00000E+000	3.95810E-004	2.40040E-001	9.86490E-001	3.57690E+000	9	...........
	112	1.50667	9.89840E-001	4.00632E-004	0.00000E+000	3.96562E-004	2.40040E-001	9.90128E-001	3.57690E+000	9	...........
	113	1.52	9.93409E-001	4.00414E-004	0.00000E+000	3.97774E-004	2.40040E-001	9.93712E-001	3.57690E+000	9	...........
	114	1.53333	9.97006E-001	4.00377E-004	0.00000E+000	3.99179E-004	2.40040E-001	9.97317E-001	3.57620E+000	9	...........
	115	1.54	9.99628E-001	4.01932E-004	0.00000E+000	4.01782E-004	2.40040E-001	9.99912E-001	3.57620E+000	9	...........
STARTTIMEOFFSET	QUANT	1739.557	Start Time Offset (s)
