EXPLAIN
TAG	PWR800_CHARGE
TITLE	LABEL	PWR Cyclic Charge Discharge (Cell) - Charge Step	Test &Identifier
DATE	LABEL	12-7-2017	Date
TIME	LABEL	15:20:29	Time
NOTES	NOTES	3	&Notes...
	supercap test cell
	0.4mg
	6M KOH
PSTAT	PSTAT	IFC5000-01520	Potentiostat
CAPACITY	QUANT	1.00000E-003	Capacity (A-hr)
CELLTYPE	SELECTOR	1	&Cell Type
WORKINGCONNECTION	SELECTOR	0	&Working Lead
MAXCHARGETIME	VARIABLEANDUNITS	1.00000E+002	s	1.00000E+002	second(s)	Max &Charge Time
CHARGECURRENT	QUANT	4.00000E-004	&Charge Current (A) 
VOLTAGEFINISH	TWOPARAM	F	1.00000E-003	3.60000E+003	&Voltage Finish	 I (A) < 	Max Time(s)
SAMPLETIME	QUANT	1.00000E-002	Sa&mple Period (s)
CHARGESTOPAT1	MULTIPARAM	4	1.00000E+000	Charge Stop At &1	Voltage > Limit	V
CHARGESTOPAT2	MULTIPARAM	0	0.00000E+000	Charge Stop At &2	None	N/A
AESBHCSELECTOR	TOGGLE	F	Save Both Half Cells
IRCOMP	TOGGLE	F	IR &Measure
EOC	QUANT	0	Open Circuit (V)
SEQUENCER	TOGGLE	TRUE	Run as Sequence
PSTATMODEL	IQUANT	53	Pstat Model
PSTATSECTION	LABEL	IFC5000-01520	Pstat Section
PSTATSERIALNO	LABEL	01520	Pstat Serial Number
CTRLMODE	IQUANT	0	Control Mode
ELECTROMETER	IQUANT	1	RE=0 or CS=1
IESTAB	IQUANT	0	I/E Stability
CASPEED	IQUANT	4	Control Amp Speed
CONVENTION	IQUANT	1	Current Convention
ICHRANGE	IQUANT	2	Ich Range
ICHRANGEMODE	TOGGLE	T	Ich Auto Range
ICHOFFSETENABLE	TOGGLE	F	Ich Offset Enable
ICHOFFSET	QUANT	0	Ich Offset (V)
ICHFILTER	IQUANT	1	Ich Filter
VCHRANGE	IQUANT	2	Vch Range
VCHRANGEMODE	TOGGLE	T	Vch Auto Range
VCHOFFSETENABLE	TOGGLE	F	Vch Offset Enable
VCHOFFSET	QUANT	0	Vch Offset (V)
VCHFILTER	IQUANT	1	Vch Filter
IERANGELOWERLIMIT	IQUANT	9	I/E Range Lower Limit
IERANGEMODE	TOGGLE	F	I/E AutoRange
IERANGE	IQUANT	9	I/E Range
ACHSELECT	IQUANT	1	Ach Select
ACHRANGE	IQUANT	2	Ach Range
ACHOFFSETENABLE	TOGGLE	F	Ach Offset Enable
ACHOFFSET	QUANT	0	Ach Offset (V)
ACHFILTER	IQUANT	1	Ach Filter
CABLEID	IQUANT	14	Cable ID
DCCALDATE	LABEL	5-7-2017	DC Calibration Date
ACCALDATE	LABEL	12/3/2015	AC Calibration Date
FRAMEWORKVERSION	QUANT	7.01	Framework Version
INSTRUMENTVERSION	LABEL	4.00	Instrument Version
CURVE	TABLE	106
	Pt	T	Vf	Im	Vu	Pwr	Sig	Ach	Temp	IERange	Over
	#	s	V	A	V	W	V	V	deg C	#	bits
	0	0.013333	3.89420E-001	4.02172E-004	0.00000E+000	1.56614E-004	2.40040E-001	3.89508E-001	3.57690E+000	9	...........
	1	0.026667	4.02436E-001	4.01402E-004	0.00000E+000	1.61539E-004	2.40040E-001	4.02516E-001	3.57690E+000	9	...........
	2	0.04	4.13590E-001	4.01669E-004	0.00000E+000	1.66126E-004	2.40040E-001	4.13671E-001	3.57690E+000	9	...........
	3	0.053333	4.23689E-001	4.00703E-004	0.00000E+000	1.69774E-004	2.40040E-001	4.23779E-001	3.57690E+000	9	...........
	4	0.066667	4.33081E-001	4.00653E-004	0.00000E+000	1.73515E-004	2.40040E-001	4.33169E-001	3.57690E+000	9	...........
	5	0.08	4.41943E-001	4.02243E-004	0.00000E+000	1.77769E-004	2.40040E-001	4.42036E-001	3.57690E+000	9	...........
	6	0.093333	4.50411E-001	4.00409E-004	0.00000E+000	1.80349E-004	2.40040E-001	4.50500E-001	3.57690E+000	9	...........
	7	0.106667	4.58621E-001	4.01321E-004	0.00000E+000	1.84054E-004	2.40040E-001	4.58711E-001	3.57690E+000	9	...........
	8	0.12	4.66642E-001	4.01500E-004	0.00000E+000	1.87357E-004	2.40040E-001	4.66733E-001	3.57690E+000	9	...........
	9	0.133333	4.74441E-001	4.01266E-004	0.00000E+000	1.90377E-004	2.40040E-001	4.74530E-001	3.57690E+000	9	...........
	10	0.146667	4.82036E-001	4.01938E-004	0.00000E+000	1.93748E-004	2.40040E-001	4.82127E-001	3.57690E+000	9	...........
	11	0.16	4.89524E-001	4.00966E-004	0.00000E+000	1.96283E-004	2.40040E-001	4.89623E-001	3.57690E+000	9	...........
	12	0.173333	4.96854E-001	4.00301E-004	0.00000E+000	1.98891E-004	2.40040E-001	4.96955E-001	3.57690E+000	9	...........
	13	0.186667	5.04065E-001	4.01188E-004	0.00000E+000	2.02225E-004	2.40040E-001	5.04168E-001	3.57690E+000	9	...........
	14	0.2	5.11168E-001	4.01041E-004	0.00000E+000	2.04999E-004	2.40040E-001	5.11277E-001	3.57690E+000	9	...........
	15	0.213333	5.18243E-001	4.01171E-004	0.00000E+000	2.07904E-004	2.40040E-001	5.18350E-001	3.57690E+000	9	...........
	16	0.226667	5.25200E-001	4.00867E-004	0.00000E+000	2.10535E-004	2.40040E-001	5.25308E-001	3.57690E+000	9	...........
	17	0.24	5.32031E-001	4.00084E-004	0.00000E+000	2.12857E-004	2.40040E-001	5.32130E-001	3.57690E+000	9	...........
	18	0.253333	5.38727E-001	4.01727E-004	0.00000E+000	2.16421E-004	2.40040E-001	5.38920E-001	3.57690E+000	9	...........
	19	0.266667	5.45541E-001	4.01176E-004	0.00000E+000	2.18858E-004	2.40040E-001	5.45746E-001	3.57690E+000	9	...........
	20	0.28	5.52317E-001	4.01066E-004	0.00000E+000	2.21515E-004	2.40040E-001	5.52539E-001	3.57690E+000	9	...........
	21	0.293333	5.59058E-001	4.00104E-004	0.00000E+000	2.23681E-004	2.40040E-001	5.59286E-001	3.57690E+000	9	...........
	22	0.306667	5.65738E-001	4.00866E-004	0.00000E+000	2.26785E-004	2.40040E-001	5.65983E-001	3.57690E+000	9	...........
	23	0.32	5.72328E-001	4.01010E-004	0.00000E+000	2.29509E-004	2.40040E-001	5.72532E-001	3.57690E+000	9	...........
	24	0.333333	5.78890E-001	3.98965E-004	0.00000E+000	2.30957E-004	2.40040E-001	5.79146E-001	3.57690E+000	9	...........
	25	0.346667	5.85422E-001	4.01060E-004	0.00000E+000	2.34789E-004	2.40040E-001	5.85671E-001	3.57690E+000	9	...........
	26	0.36	5.91924E-001	3.99670E-004	0.00000E+000	2.36574E-004	2.40040E-001	5.92175E-001	3.57690E+000	9	...........
	27	0.373333	5.98323E-001	4.00281E-004	0.00000E+000	2.39497E-004	2.40040E-001	5.98580E-001	3.57690E+000	9	...........
	28	0.386667	6.04747E-001	4.01642E-004	0.00000E+000	2.42892E-004	2.40040E-001	6.05011E-001	3.57690E+000	9	...........
	29	0.4	6.11172E-001	4.01558E-004	0.00000E+000	2.45421E-004	2.40040E-001	6.11426E-001	3.57690E+000	9	...........
	30	0.413333	6.17682E-001	4.00784E-004	0.00000E+000	2.47557E-004	2.40040E-001	6.17903E-001	3.57690E+000	9	...........
	31	0.426667	6.23957E-001	4.00297E-004	0.00000E+000	2.49768E-004	2.40040E-001	6.24174E-001	3.57690E+000	9	...........
	32	0.44	6.30196E-001	4.01796E-004	0.00000E+000	2.53210E-004	2.40040E-001	6.30413E-001	3.57690E+000	9	...........
	33	0.453333	6.36449E-001	4.02070E-004	0.00000E+000	2.55897E-004	2.40040E-001	6.36658E-001	3.57690E+000	9	...........
	34	0.466667	6.42714E-001	4.00312E-004	0.00000E+000	2.57286E-004	2.40040E-001	6.42901E-001	3.57690E+000	9	...........
	35	0.48	6.48889E-001	4.00906E-004	0.00000E+000	2.60144E-004	2.40040E-001	6.49101E-001	3.57690E+000	9	...........
	36	0.493333	6.55106E-001	4.00922E-004	0.00000E+000	2.62646E-004	2.40040E-001	6.55329E-001	3.57690E+000	9	...........
	37	0.506667	6.61221E-001	4.01246E-004	0.00000E+000	2.65312E-004	2.40040E-001	6.61482E-001	3.57690E+000	9	...........
	38	0.52	6.67389E-001	4.00632E-004	0.00000E+000	2.67378E-004	2.40040E-001	6.67629E-001	3.57690E+000	9	...........
	39	0.533333	6.73534E-001	4.01987E-004	0.00000E+000	2.70752E-004	2.40040E-001	6.73763E-001	3.57690E+000	9	...........
	40	0.546667	6.79561E-001	4.01911E-004	0.00000E+000	2.73123E-004	2.40040E-001	6.79807E-001	3.57690E+000	9	...........
	41	0.56	6.85622E-001	4.00983E-004	0.00000E+000	2.74923E-004	2.40040E-001	6.85867E-001	3.57690E+000	9	...........
	42	0.573333	6.91660E-001	4.01344E-004	0.00000E+000	2.77593E-004	2.40040E-001	6.91918E-001	3.57690E+000	9	...........
	43	0.586667	6.97691E-001	4.00036E-004	0.00000E+000	2.79102E-004	2.40040E-001	6.97945E-001	3.57690E+000	9	...........
	44	0.6	7.03623E-001	4.02108E-004	0.00000E+000	2.82932E-004	2.40040E-001	7.03861E-001	3.57718E+000	9	...........
	45	0.613333	7.09481E-001	4.01362E-004	0.00000E+000	2.84759E-004	2.40040E-001	7.09735E-001	3.57720E+000	9	...........
	46	0.626667	7.15452E-001	4.01527E-004	0.00000E+000	2.87274E-004	2.40040E-001	7.15706E-001	3.57720E+000	9	...........
	47	0.64	7.21426E-001	4.01207E-004	0.00000E+000	2.89441E-004	2.40040E-001	7.21646E-001	3.57720E+000	9	...........
	48	0.653333	7.27260E-001	4.00338E-004	0.00000E+000	2.91150E-004	2.40040E-001	7.27501E-001	3.57720E+000	9	...........
	49	0.666667	7.33111E-001	4.02166E-004	0.00000E+000	2.94832E-004	2.40040E-001	7.33361E-001	3.57720E+000	9	...........
	50	0.68	7.38865E-001	4.00820E-004	0.00000E+000	2.96152E-004	2.40040E-001	7.39148E-001	3.57720E+000	9	...........
	51	0.693333	7.44590E-001	4.00801E-004	0.00000E+000	2.98433E-004	2.40040E-001	7.44833E-001	3.57720E+000	9	...........
	52	0.706667	7.50315E-001	4.00162E-004	0.00000E+000	3.00247E-004	2.40040E-001	7.50547E-001	3.57720E+000	9	...........
	53	0.72	7.56056E-001	4.00948E-004	0.00000E+000	3.03139E-004	2.40040E-001	7.56311E-001	3.57720E+000	9	...........
	54	0.733333	7.61777E-001	3.99850E-004	0.00000E+000	3.04596E-004	2.40040E-001	7.62017E-001	3.57720E+000	9	...........
	55	0.746667	7.67408E-001	3.99966E-004	0.00000E+000	3.06937E-004	2.40040E-001	7.67669E-001	3.57720E+000	9	...........
	56	0.76	7.73067E-001	4.00576E-004	0.00000E+000	3.09672E-004	2.40040E-001	7.73316E-001	3.57720E+000	9	...........
	57	0.773333	7.78610E-001	3.99023E-004	0.00000E+000	3.10683E-004	2.40040E-001	7.78869E-001	3.57720E+000	9	...........
	58	0.786667	7.84119E-001	4.01295E-004	0.00000E+000	3.14663E-004	2.40040E-001	7.84357E-001	3.57720E+000	9	...........
	59	0.8	7.89632E-001	4.00212E-004	0.00000E+000	3.16020E-004	2.40040E-001	7.89872E-001	3.57720E+000	9	...........
	60	0.813333	7.95177E-001	4.00524E-004	0.00000E+000	3.18487E-004	2.40040E-001	7.95422E-001	3.57720E+000	9	...........
	61	0.826667	8.00574E-001	4.00726E-004	0.00000E+000	3.20811E-004	2.40040E-001	8.00823E-001	3.57720E+000	9	...........
	62	0.84	8.05918E-001	4.01878E-004	0.00000E+000	3.23880E-004	2.40040E-001	8.06207E-001	3.57720E+000	9	...........
	63	0.853333	8.11141E-001	4.01004E-004	0.00000E+000	3.25271E-004	2.40040E-001	8.11437E-001	3.57720E+000	9	...........
	64	0.866667	8.16578E-001	3.99707E-004	0.00000E+000	3.26392E-004	2.40040E-001	8.16887E-001	3.57720E+000	9	...........
	65	0.88	8.21953E-001	3.99579E-004	0.00000E+000	3.28435E-004	2.40040E-001	8.22253E-001	3.57720E+000	9	...........
	66	0.893333	8.27258E-001	4.00847E-004	0.00000E+000	3.31604E-004	2.40040E-001	8.27521E-001	3.57720E+000	9	...........
	67	0.906667	8.32500E-001	4.01303E-004	0.00000E+000	3.34085E-004	2.40040E-001	8.32803E-001	3.57720E+000	9	...........
	68	0.92	8.37672E-001	4.00643E-004	0.00000E+000	3.35607E-004	2.40040E-001	8.37990E-001	3.57720E+000	9	...........
	69	0.933333	8.42793E-001	4.01526E-004	0.00000E+000	3.38404E-004	2.40040E-001	8.43080E-001	3.57720E+000	9	...........
	70	0.946667	8.47966E-001	4.00676E-004	0.00000E+000	3.39760E-004	2.40040E-001	8.48259E-001	3.57720E+000	9	...........
	71	0.96	8.53038E-001	4.00292E-004	0.00000E+000	3.41464E-004	2.40040E-001	8.53302E-001	3.57720E+000	9	...........
	72	0.97333	8.58024E-001	4.00894E-004	0.00000E+000	3.43976E-004	2.40040E-001	8.58348E-001	3.57720E+000	9	...........
	73	0.98667	8.62994E-001	4.01235E-004	0.00000E+000	3.46263E-004	2.40040E-001	8.63287E-001	3.57720E+000	9	...........
	74	1	8.67980E-001	4.02565E-004	0.00000E+000	3.49418E-004	2.40040E-001	8.68282E-001	3.57720E+000	9	...........
	75	1.01333	8.72988E-001	4.00996E-004	0.00000E+000	3.50065E-004	2.40040E-001	8.73297E-001	3.57720E+000	9	...........
	76	1.02667	8.77825E-001	4.01065E-004	0.00000E+000	3.52065E-004	2.40040E-001	8.78151E-001	3.57720E+000	9	...........
	77	1.04	8.82664E-001	4.00319E-004	0.00000E+000	3.53347E-004	2.40040E-001	8.82977E-001	3.57720E+000	9	...........
	78	1.05333	8.87472E-001	4.01892E-004	0.00000E+000	3.56668E-004	2.40040E-001	8.87794E-001	3.57720E+000	9	...........
	79	1.06667	8.92222E-001	4.01670E-004	0.00000E+000	3.58379E-004	2.40040E-001	8.92524E-001	3.57720E+000	9	...........
	80	1.08	8.96958E-001	4.00949E-004	0.00000E+000	3.59635E-004	2.40040E-001	8.97270E-001	3.57720E+000	9	...........
	81	1.09333	9.01581E-001	4.00902E-004	0.00000E+000	3.61446E-004	2.40040E-001	9.01897E-001	3.57720E+000	9	...........
	82	1.10667	9.06206E-001	4.00666E-004	0.00000E+000	3.63086E-004	2.40040E-001	9.06543E-001	3.57720E+000	9	...........
	83	1.12	9.10869E-001	4.01060E-004	0.00000E+000	3.65313E-004	2.40040E-001	9.11179E-001	3.57720E+000	9	...........
	84	1.13333	9.15381E-001	4.01573E-004	0.00000E+000	3.67592E-004	2.40040E-001	9.15690E-001	3.57720E+000	9	...........
	85	1.14667	9.19899E-001	4.01316E-004	0.00000E+000	3.69170E-004	2.40040E-001	9.20194E-001	3.57720E+000	9	...........
	86	1.16	9.24386E-001	4.00596E-004	0.00000E+000	3.70305E-004	2.40040E-001	9.24668E-001	3.57720E+000	9	...........
	87	1.17333	9.28805E-001	4.00798E-004	0.00000E+000	3.72263E-004	2.40040E-001	9.29080E-001	3.57720E+000	9	...........
	88	1.18667	9.33176E-001	4.00553E-004	0.00000E+000	3.73787E-004	2.40040E-001	9.33473E-001	3.57720E+000	9	...........
	89	1.2	9.37485E-001	3.99756E-004	0.00000E+000	3.74766E-004	2.40040E-001	9.37806E-001	3.57720E+000	9	...........
	90	1.21333	9.41729E-001	4.00424E-004	0.00000E+000	3.77091E-004	2.40040E-001	9.42049E-001	3.57720E+000	9	...........
	91	1.22667	9.45945E-001	4.01304E-004	0.00000E+000	3.79612E-004	2.40040E-001	9.46281E-001	3.57720E+000	9	...........
	92	1.24	9.50248E-001	4.00998E-004	0.00000E+000	3.81048E-004	2.40040E-001	9.50569E-001	3.57720E+000	9	...........
	93	1.25333	9.54437E-001	4.01246E-004	0.00000E+000	3.82964E-004	2.40040E-001	9.54734E-001	3.57720E+000	9	...........
	94	1.26667	9.58555E-001	4.01532E-004	0.00000E+000	3.84890E-004	2.40040E-001	9.58860E-001	3.57720E+000	9	...........
	95	1.28	9.62626E-001	4.00119E-004	0.00000E+000	3.85165E-004	2.40040E-001	9.62943E-001	3.57720E+000	9	...........
	96	1.29333	9.66715E-001	4.00314E-004	0.00000E+000	3.86989E-004	2.40040E-001	9.67018E-001	3.57720E+000	9	...........
	97	1.30667	9.70720E-001	4.01562E-004	0.00000E+000	3.89804E-004	2.40040E-001	9.71053E-001	3.57720E+000	9	...........
	98	1.32	9.74730E-001	4.01133E-004	0.00000E+000	3.90996E-004	2.40040E-001	9.75036E-001	3.57720E+000	9	...........
	99	1.33333	9.78628E-001	4.00775E-004	0.00000E+000	3.92210E-004	2.40040E-001	9.78936E-001	3.57720E+000	9	...........
	100	1.34667	9.82532E-001	4.01763E-004	0.00000E+000	3.94745E-004	2.40040E-001	9.82812E-001	3.57720E+000	9	...........
	101	1.36	9.86246E-001	4.00652E-004	0.00000E+000	3.95142E-004	2.40040E-001	9.86524E-001	3.57720E+000	9	...........
	102	1.37333	9.90016E-001	4.01600E-004	0.00000E+000	3.97591E-004	2.40040E-001	9.90356E-001	3.57720E+000	9	...........
	103	1.38667	9.93779E-001	4.00520E-004	0.00000E+000	3.98028E-004	2.40040E-001	9.94155E-001	3.57720E+000	9	...........
	104	1.4	9.97504E-001	4.00430E-004	0.00000E+000	3.99431E-004	2.40040E-001	9.97866E-001	3.57720E+000	9	...........
	105	1.40333	9.99816E-001	4.03728E-004	0.00000E+000	4.03654E-004	2.40040E-001	1.00016E+000	3.57720E+000	9	...........
STARTTIMEOFFSET	QUANT	2928.99	Start Time Offset (s)
