EXPLAIN
TAG	PWR800_CHARGE
TITLE	LABEL	PWR Cyclic Charge Discharge (Cell) - Charge Step	Test &Identifier
DATE	LABEL	12-7-2017	Date
TIME	LABEL	14:53:45	Time
NOTES	NOTES	3	&Notes...
	supercap test cell
	0.4mg
	6M KOH
PSTAT	PSTAT	IFC5000-01520	Potentiostat
CAPACITY	QUANT	1.00000E-003	Capacity (A-hr)
CELLTYPE	SELECTOR	1	&Cell Type
WORKINGCONNECTION	SELECTOR	0	&Working Lead
MAXCHARGETIME	VARIABLEANDUNITS	1.00000E+002	s	1.00000E+002	second(s)	Max &Charge Time
CHARGECURRENT	QUANT	4.00000E-004	&Charge Current (A) 
VOLTAGEFINISH	TWOPARAM	F	1.00000E-003	3.60000E+003	&Voltage Finish	 I (A) < 	Max Time(s)
SAMPLETIME	QUANT	1.00000E-002	Sa&mple Period (s)
CHARGESTOPAT1	MULTIPARAM	4	1.00000E+000	Charge Stop At &1	Voltage > Limit	V
CHARGESTOPAT2	MULTIPARAM	0	0.00000E+000	Charge Stop At &2	None	N/A
AESBHCSELECTOR	TOGGLE	F	Save Both Half Cells
IRCOMP	TOGGLE	F	IR &Measure
EOC	QUANT	0	Open Circuit (V)
SEQUENCER	TOGGLE	TRUE	Run as Sequence
PSTATMODEL	IQUANT	53	Pstat Model
PSTATSECTION	LABEL	IFC5000-01520	Pstat Section
PSTATSERIALNO	LABEL	01520	Pstat Serial Number
CTRLMODE	IQUANT	0	Control Mode
ELECTROMETER	IQUANT	1	RE=0 or CS=1
IESTAB	IQUANT	0	I/E Stability
CASPEED	IQUANT	4	Control Amp Speed
CONVENTION	IQUANT	1	Current Convention
ICHRANGE	IQUANT	2	Ich Range
ICHRANGEMODE	TOGGLE	T	Ich Auto Range
ICHOFFSETENABLE	TOGGLE	F	Ich Offset Enable
ICHOFFSET	QUANT	0	Ich Offset (V)
ICHFILTER	IQUANT	1	Ich Filter
VCHRANGE	IQUANT	2	Vch Range
VCHRANGEMODE	TOGGLE	T	Vch Auto Range
VCHOFFSETENABLE	TOGGLE	F	Vch Offset Enable
VCHOFFSET	QUANT	0	Vch Offset (V)
VCHFILTER	IQUANT	1	Vch Filter
IERANGELOWERLIMIT	IQUANT	9	I/E Range Lower Limit
IERANGEMODE	TOGGLE	F	I/E AutoRange
IERANGE	IQUANT	9	I/E Range
ACHSELECT	IQUANT	1	Ach Select
ACHRANGE	IQUANT	2	Ach Range
ACHOFFSETENABLE	TOGGLE	F	Ach Offset Enable
ACHOFFSET	QUANT	0	Ach Offset (V)
ACHFILTER	IQUANT	1	Ach Filter
CABLEID	IQUANT	14	Cable ID
DCCALDATE	LABEL	5-7-2017	DC Calibration Date
ACCALDATE	LABEL	12/3/2015	AC Calibration Date
FRAMEWORKVERSION	QUANT	7.01	Framework Version
INSTRUMENTVERSION	LABEL	4.00	Instrument Version
CURVE	TABLE	117
	Pt	T	Vf	Im	Vu	Pwr	Sig	Ach	Temp	IERange	Over
	#	s	V	A	V	W	V	V	deg C	#	bits
	0	0.013333	3.67140E-001	4.01687E-004	0.00000E+000	1.47475E-004	2.40040E-001	3.67238E-001	3.57690E+000	9	...........
	1	0.026667	3.78786E-001	4.01543E-004	0.00000E+000	1.52099E-004	2.40040E-001	3.78864E-001	3.57690E+000	9	...........
	2	0.04	3.88833E-001	4.00963E-004	0.00000E+000	1.55908E-004	2.40040E-001	3.88913E-001	3.57690E+000	9	...........
	3	0.053333	3.98024E-001	4.00374E-004	0.00000E+000	1.59359E-004	2.40040E-001	3.98102E-001	3.57690E+000	9	...........
	4	0.066667	4.06545E-001	4.01411E-004	0.00000E+000	1.63192E-004	2.40040E-001	4.06622E-001	3.57690E+000	9	...........
	5	0.08	4.14650E-001	4.01277E-004	0.00000E+000	1.66390E-004	2.40040E-001	4.14730E-001	3.57690E+000	9	...........
	6	0.093333	4.22438E-001	4.01797E-004	0.00000E+000	1.69734E-004	2.40040E-001	4.22521E-001	3.57690E+000	9	...........
	7	0.106667	4.30035E-001	4.01122E-004	0.00000E+000	1.72497E-004	2.40040E-001	4.30122E-001	3.57690E+000	9	...........
	8	0.12	4.37345E-001	4.00999E-004	0.00000E+000	1.75375E-004	2.40040E-001	4.37435E-001	3.57690E+000	9	...........
	9	0.133333	4.44521E-001	4.00709E-004	0.00000E+000	1.78123E-004	2.40040E-001	4.44612E-001	3.57690E+000	9	...........
	10	0.146667	4.51614E-001	4.00578E-004	0.00000E+000	1.80907E-004	2.40040E-001	4.51707E-001	3.57690E+000	9	...........
	11	0.16	4.58553E-001	4.00132E-004	0.00000E+000	1.83482E-004	2.40040E-001	4.58647E-001	3.57690E+000	9	...........
	12	0.173333	4.65386E-001	4.00630E-004	0.00000E+000	1.86448E-004	2.40040E-001	4.65476E-001	3.57690E+000	9	...........
	13	0.186667	4.72115E-001	4.01329E-004	0.00000E+000	1.89473E-004	2.40040E-001	4.72204E-001	3.57690E+000	9	...........
	14	0.2	4.78786E-001	4.01021E-004	0.00000E+000	1.92003E-004	2.40040E-001	4.78877E-001	3.57690E+000	9	...........
	15	0.213333	4.85441E-001	4.01880E-004	0.00000E+000	1.95089E-004	2.40040E-001	4.85533E-001	3.57690E+000	9	...........
	16	0.226667	4.91928E-001	4.00848E-004	0.00000E+000	1.97188E-004	2.40040E-001	4.92027E-001	3.57690E+000	9	...........
	17	0.24	4.98479E-001	4.00826E-004	0.00000E+000	1.99804E-004	2.40040E-001	4.98578E-001	3.57690E+000	9	...........
	18	0.253333	5.04942E-001	4.01138E-004	0.00000E+000	2.02551E-004	2.40040E-001	5.05046E-001	3.57690E+000	9	...........
	19	0.266667	5.11316E-001	4.00362E-004	0.00000E+000	2.04711E-004	2.40040E-001	5.11424E-001	3.57690E+000	9	...........
	20	0.28	5.17689E-001	4.01958E-004	0.00000E+000	2.08089E-004	2.40040E-001	5.17793E-001	3.57690E+000	9	...........
	21	0.293333	5.24027E-001	4.01307E-004	0.00000E+000	2.10296E-004	2.40040E-001	5.24132E-001	3.57690E+000	9	...........
	22	0.306667	5.30288E-001	4.00363E-004	0.00000E+000	2.12307E-004	2.40040E-001	5.30396E-001	3.57690E+000	9	...........
	23	0.32	5.36273E-001	4.00756E-004	0.00000E+000	2.14915E-004	2.40040E-001	5.36477E-001	3.57690E+000	9	...........
	24	0.333333	5.42361E-001	4.01303E-004	0.00000E+000	2.17651E-004	2.40040E-001	5.42589E-001	3.57690E+000	9	...........
	25	0.346667	5.48430E-001	4.01001E-004	0.00000E+000	2.19921E-004	2.40040E-001	5.48656E-001	3.57690E+000	9	...........
	26	0.36	5.54580E-001	4.00310E-004	0.00000E+000	2.22004E-004	2.40040E-001	5.54834E-001	3.57690E+000	9	...........
	27	0.373333	5.60646E-001	4.01881E-004	0.00000E+000	2.25313E-004	2.40040E-001	5.60915E-001	3.57690E+000	9	...........
	28	0.386667	5.66773E-001	3.99461E-004	0.00000E+000	2.26404E-004	2.40040E-001	5.66982E-001	3.57690E+000	9	...........
	29	0.4	5.72752E-001	4.01486E-004	0.00000E+000	2.29952E-004	2.40040E-001	5.72980E-001	3.57690E+000	9	...........
	30	0.413333	5.78730E-001	4.00871E-004	0.00000E+000	2.31996E-004	2.40040E-001	5.78971E-001	3.57690E+000	9	...........
	31	0.426667	5.84669E-001	4.01424E-004	0.00000E+000	2.34700E-004	2.40040E-001	5.84916E-001	3.57690E+000	9	...........
	32	0.44	5.90631E-001	4.01384E-004	0.00000E+000	2.37070E-004	2.40040E-001	5.90863E-001	3.57690E+000	9	...........
	33	0.453333	5.96532E-001	4.00093E-004	0.00000E+000	2.38668E-004	2.40040E-001	5.96767E-001	3.57690E+000	9	...........
	34	0.466667	6.02409E-001	4.01262E-004	0.00000E+000	2.41724E-004	2.40040E-001	6.02697E-001	3.57691E+000	9	...........
	35	0.48	6.08286E-001	4.00103E-004	0.00000E+000	2.43377E-004	2.40040E-001	6.08559E-001	3.57700E+000	9	...........
	36	0.493333	6.14206E-001	3.99189E-004	0.00000E+000	2.45185E-004	2.40040E-001	6.14447E-001	3.57700E+000	9	...........
	37	0.506667	6.20063E-001	3.99580E-004	0.00000E+000	2.47765E-004	2.40040E-001	6.20271E-001	3.57700E+000	9	...........
	38	0.52	6.25863E-001	4.00641E-004	0.00000E+000	2.50746E-004	2.40040E-001	6.26071E-001	3.57700E+000	9	...........
	39	0.533333	6.31647E-001	4.01619E-004	0.00000E+000	2.53682E-004	2.40040E-001	6.31869E-001	3.57700E+000	9	...........
	40	0.546667	6.37389E-001	4.00614E-004	0.00000E+000	2.55347E-004	2.40040E-001	6.37618E-001	3.57700E+000	9	...........
	41	0.56	6.43177E-001	4.00480E-004	0.00000E+000	2.57580E-004	2.40040E-001	6.43402E-001	3.57700E+000	9	...........
	42	0.573333	6.48897E-001	4.00915E-004	0.00000E+000	2.60153E-004	2.40040E-001	6.49132E-001	3.57700E+000	9	...........
	43	0.586667	6.54598E-001	4.01340E-004	0.00000E+000	2.62716E-004	2.40040E-001	6.54821E-001	3.57700E+000	9	...........
	44	0.6	6.60238E-001	4.01398E-004	0.00000E+000	2.65018E-004	2.40040E-001	6.60470E-001	3.57700E+000	9	...........
	45	0.613333	6.65908E-001	4.00826E-004	0.00000E+000	2.66913E-004	2.40040E-001	6.66165E-001	3.57700E+000	9	...........
	46	0.626667	6.71643E-001	4.01845E-004	0.00000E+000	2.69897E-004	2.40040E-001	6.71884E-001	3.57700E+000	9	...........
	47	0.64	6.77306E-001	3.99970E-004	0.00000E+000	2.70902E-004	2.40040E-001	6.77544E-001	3.57700E+000	9	...........
	48	0.653333	6.82968E-001	4.02123E-004	0.00000E+000	2.74637E-004	2.40040E-001	6.83175E-001	3.57700E+000	9	...........
	49	0.666667	6.88560E-001	4.01471E-004	0.00000E+000	2.76437E-004	2.40040E-001	6.88795E-001	3.57700E+000	9	...........
	50	0.68	6.94206E-001	4.00616E-004	0.00000E+000	2.78110E-004	2.40040E-001	6.94407E-001	3.57700E+000	9	...........
	51	0.693333	6.99763E-001	4.01709E-004	0.00000E+000	2.81101E-004	2.40040E-001	7.00002E-001	3.57700E+000	9	...........
	52	0.706667	7.05353E-001	4.02662E-004	0.00000E+000	2.84019E-004	2.40040E-001	7.05584E-001	3.57700E+000	9	...........
	53	0.72	7.10880E-001	4.00337E-004	0.00000E+000	2.84591E-004	2.40040E-001	7.11109E-001	3.57700E+000	9	...........
	54	0.733333	7.16396E-001	4.01267E-004	0.00000E+000	2.87466E-004	2.40040E-001	7.16646E-001	3.57700E+000	9	...........
	55	0.746667	7.21957E-001	4.00795E-004	0.00000E+000	2.89357E-004	2.40040E-001	7.22168E-001	3.57700E+000	9	...........
	56	0.76	7.27405E-001	4.01037E-004	0.00000E+000	2.91716E-004	2.40040E-001	7.27634E-001	3.57700E+000	9	...........
	57	0.773333	7.32810E-001	4.00675E-004	0.00000E+000	2.93619E-004	2.40040E-001	7.33063E-001	3.57700E+000	9	...........
	58	0.786667	7.38274E-001	4.01174E-004	0.00000E+000	2.96177E-004	2.40040E-001	7.38540E-001	3.57700E+000	9	...........
	59	0.8	7.43681E-001	4.01077E-004	0.00000E+000	2.98274E-004	2.40040E-001	7.43961E-001	3.57700E+000	9	...........
	60	0.813333	7.49053E-001	4.01396E-004	0.00000E+000	3.00667E-004	2.40040E-001	7.49300E-001	3.57700E+000	9	...........
	61	0.826667	7.54413E-001	4.01150E-004	0.00000E+000	3.02633E-004	2.40040E-001	7.54660E-001	3.57700E+000	9	...........
	62	0.84	7.59791E-001	4.01296E-004	0.00000E+000	3.04901E-004	2.40040E-001	7.60042E-001	3.57700E+000	9	...........
	63	0.853333	7.65092E-001	4.01612E-004	0.00000E+000	3.07270E-004	2.40040E-001	7.65356E-001	3.57700E+000	9	...........
	64	0.866667	7.70414E-001	4.00497E-004	0.00000E+000	3.08548E-004	2.40040E-001	7.70685E-001	3.57700E+000	9	...........
	65	0.88	7.75686E-001	4.01868E-004	0.00000E+000	3.11723E-004	2.40040E-001	7.75927E-001	3.57700E+000	9	...........
	66	0.893333	7.80904E-001	4.00415E-004	0.00000E+000	3.12685E-004	2.40040E-001	7.81140E-001	3.57700E+000	9	...........
	67	0.906667	7.86124E-001	4.01117E-004	0.00000E+000	3.15328E-004	2.40040E-001	7.86370E-001	3.57700E+000	9	...........
	68	0.92	7.91294E-001	4.01319E-004	0.00000E+000	3.17561E-004	2.40040E-001	7.91519E-001	3.57700E+000	9	...........
	69	0.933333	7.96471E-001	4.01795E-004	0.00000E+000	3.20018E-004	2.40040E-001	7.96712E-001	3.57700E+000	9	...........
	70	0.946667	8.01565E-001	3.99396E-004	0.00000E+000	3.20142E-004	2.40040E-001	8.01771E-001	3.57700E+000	9	...........
	71	0.96	8.06587E-001	4.00393E-004	0.00000E+000	3.22952E-004	2.40040E-001	8.06847E-001	3.57700E+000	9	...........
	72	0.97333	8.11635E-001	4.00547E-004	0.00000E+000	3.25098E-004	2.40040E-001	8.11885E-001	3.57700E+000	9	...........
	73	0.98667	8.16657E-001	3.99839E-004	0.00000E+000	3.26531E-004	2.40040E-001	8.16932E-001	3.57700E+000	9	...........
	74	1	8.21683E-001	4.01213E-004	0.00000E+000	3.29670E-004	2.40040E-001	8.21956E-001	3.57700E+000	9	...........
	75	1.01333	8.26643E-001	4.01078E-004	0.00000E+000	3.31549E-004	2.40040E-001	8.26913E-001	3.57700E+000	9	...........
	76	1.02667	8.31490E-001	4.00350E-004	0.00000E+000	3.32887E-004	2.40040E-001	8.31792E-001	3.57700E+000	9	...........
	77	1.04	8.36347E-001	4.01732E-004	0.00000E+000	3.35987E-004	2.40040E-001	8.36678E-001	3.57700E+000	9	...........
	78	1.05333	8.41225E-001	4.01545E-004	0.00000E+000	3.37790E-004	2.40040E-001	8.41531E-001	3.57700E+000	9	...........
	79	1.06667	8.46153E-001	4.00507E-004	0.00000E+000	3.38891E-004	2.40040E-001	8.46448E-001	3.57700E+000	9	...........
	80	1.08	8.50983E-001	4.00922E-004	0.00000E+000	3.41178E-004	2.40040E-001	8.51311E-001	3.57700E+000	9	...........
	81	1.09333	8.55745E-001	4.02506E-004	0.00000E+000	3.44442E-004	2.40040E-001	8.56059E-001	3.57700E+000	9	...........
	82	1.10667	8.60508E-001	4.02211E-004	0.00000E+000	3.46106E-004	2.40040E-001	8.60823E-001	3.57700E+000	9	...........
	83	1.12	8.65220E-001	4.01754E-004	0.00000E+000	3.47605E-004	2.40040E-001	8.65549E-001	3.57700E+000	9	...........
	84	1.13333	8.69940E-001	4.01388E-004	0.00000E+000	3.49183E-004	2.40040E-001	8.70248E-001	3.57700E+000	9	...........
	85	1.14667	8.74580E-001	4.00408E-004	0.00000E+000	3.50189E-004	2.40040E-001	8.74878E-001	3.57700E+000	9	...........
	86	1.16	8.79140E-001	4.01614E-004	0.00000E+000	3.53075E-004	2.40040E-001	8.79448E-001	3.57700E+000	9	...........
	87	1.17333	8.83773E-001	3.99920E-004	0.00000E+000	3.53438E-004	2.40040E-001	8.84050E-001	3.57700E+000	9	...........
	88	1.18667	8.88320E-001	4.01182E-004	0.00000E+000	3.56377E-004	2.40040E-001	8.88633E-001	3.57700E+000	9	...........
	89	1.2	8.92809E-001	4.01304E-004	0.00000E+000	3.58288E-004	2.40040E-001	8.93111E-001	3.57700E+000	9	...........
	90	1.21333	8.97343E-001	4.00771E-004	0.00000E+000	3.59629E-004	2.40040E-001	8.97642E-001	3.57700E+000	9	...........
	91	1.22667	9.01810E-001	4.00780E-004	0.00000E+000	3.61428E-004	2.40040E-001	9.02114E-001	3.57700E+000	9	...........
	92	1.24	9.06209E-001	4.01631E-004	0.00000E+000	3.63961E-004	2.40040E-001	9.06533E-001	3.57700E+000	9	...........
	93	1.25333	9.10584E-001	4.01914E-004	0.00000E+000	3.65977E-004	2.40040E-001	9.10882E-001	3.57700E+000	9	...........
	94	1.26667	9.14896E-001	4.00481E-004	0.00000E+000	3.66399E-004	2.40040E-001	9.15228E-001	3.57700E+000	9	...........
	95	1.28	9.19215E-001	4.01744E-004	0.00000E+000	3.69289E-004	2.40040E-001	9.19527E-001	3.57700E+000	9	...........
	96	1.29333	9.23535E-001	4.01415E-004	0.00000E+000	3.70721E-004	2.40040E-001	9.23804E-001	3.57700E+000	9	...........
	97	1.30667	9.27782E-001	4.00790E-004	0.00000E+000	3.71845E-004	2.40040E-001	9.28043E-001	3.57700E+000	9	...........
	98	1.32	9.31981E-001	4.00643E-004	0.00000E+000	3.73391E-004	2.40040E-001	9.32214E-001	3.57700E+000	9	...........
	99	1.33333	9.36087E-001	4.01514E-004	0.00000E+000	3.75852E-004	2.40040E-001	9.36361E-001	3.57700E+000	9	...........
	100	1.34667	9.40176E-001	4.01204E-004	0.00000E+000	3.77203E-004	2.40040E-001	9.40430E-001	3.57700E+000	9	...........
	101	1.36	9.44240E-001	4.01420E-004	0.00000E+000	3.79037E-004	2.40040E-001	9.44530E-001	3.57700E+000	9	...........
	102	1.37333	9.48329E-001	4.00251E-004	0.00000E+000	3.79570E-004	2.40040E-001	9.48586E-001	3.57700E+000	9	...........
	103	1.38667	9.52386E-001	4.01158E-004	0.00000E+000	3.82057E-004	2.40040E-001	9.52663E-001	3.57700E+000	9	...........
	104	1.4	9.56257E-001	4.01649E-004	0.00000E+000	3.84080E-004	2.40040E-001	9.56546E-001	3.57700E+000	9	...........
	105	1.41333	9.60173E-001	4.01254E-004	0.00000E+000	3.85274E-004	2.40040E-001	9.60471E-001	3.57700E+000	9	...........
	106	1.42667	9.64024E-001	4.00246E-004	0.00000E+000	3.85847E-004	2.40040E-001	9.64353E-001	3.57700E+000	9	...........
	107	1.44	9.67882E-001	4.00769E-004	0.00000E+000	3.87897E-004	2.40040E-001	9.68195E-001	3.57700E+000	9	...........
	108	1.45333	9.71714E-001	4.00580E-004	0.00000E+000	3.89250E-004	2.40040E-001	9.72033E-001	3.57700E+000	9	...........
	109	1.46667	9.75531E-001	4.00881E-004	0.00000E+000	3.91072E-004	2.40040E-001	9.75825E-001	3.57691E+000	9	...........
	110	1.48	9.79335E-001	4.01637E-004	0.00000E+000	3.93337E-004	2.40040E-001	9.79631E-001	3.57630E+000	9	...........
	111	1.49333	9.83062E-001	4.01302E-004	0.00000E+000	3.94505E-004	2.40040E-001	9.83386E-001	3.57630E+000	9	...........
	112	1.50667	9.86664E-001	4.01264E-004	0.00000E+000	3.95912E-004	2.40040E-001	9.87004E-001	3.57630E+000	9	...........
	113	1.52	9.90284E-001	4.01923E-004	0.00000E+000	3.98018E-004	2.40040E-001	9.90607E-001	3.57630E+000	9	...........
	114	1.53333	9.93876E-001	4.01784E-004	0.00000E+000	3.99323E-004	2.40040E-001	9.94229E-001	3.57630E+000	9	...........
	115	1.54667	9.97425E-001	4.01410E-004	0.00000E+000	4.00376E-004	2.40040E-001	9.97751E-001	3.57630E+000	9	...........
	116	1.55167	9.99816E-001	4.01047E-004	0.00000E+000	4.00973E-004	2.40040E-001	1.00012E+000	3.57630E+000	9	...........
STARTTIMEOFFSET	QUANT	1678.944	Start Time Offset (s)
