EXPLAIN
TAG	PWR800_CHARGE
TITLE	LABEL	PWR Cyclic Charge Discharge (Cell) - Charge Step	Test &Identifier
DATE	LABEL	12-7-2017	Date
TIME	LABEL	14:55:40	Time
NOTES	NOTES	3	&Notes...
	supercap test cell
	0.4mg
	6M KOH
PSTAT	PSTAT	IFC5000-01520	Potentiostat
CAPACITY	QUANT	1.00000E-003	Capacity (A-hr)
CELLTYPE	SELECTOR	1	&Cell Type
WORKINGCONNECTION	SELECTOR	0	&Working Lead
MAXCHARGETIME	VARIABLEANDUNITS	1.00000E+002	s	1.00000E+002	second(s)	Max &Charge Time
CHARGECURRENT	QUANT	4.00000E-004	&Charge Current (A) 
VOLTAGEFINISH	TWOPARAM	F	1.00000E-003	3.60000E+003	&Voltage Finish	 I (A) < 	Max Time(s)
SAMPLETIME	QUANT	1.00000E-002	Sa&mple Period (s)
CHARGESTOPAT1	MULTIPARAM	4	1.00000E+000	Charge Stop At &1	Voltage > Limit	V
CHARGESTOPAT2	MULTIPARAM	0	0.00000E+000	Charge Stop At &2	None	N/A
AESBHCSELECTOR	TOGGLE	F	Save Both Half Cells
IRCOMP	TOGGLE	F	IR &Measure
EOC	QUANT	0	Open Circuit (V)
SEQUENCER	TOGGLE	TRUE	Run as Sequence
PSTATMODEL	IQUANT	53	Pstat Model
PSTATSECTION	LABEL	IFC5000-01520	Pstat Section
PSTATSERIALNO	LABEL	01520	Pstat Serial Number
CTRLMODE	IQUANT	0	Control Mode
ELECTROMETER	IQUANT	1	RE=0 or CS=1
IESTAB	IQUANT	0	I/E Stability
CASPEED	IQUANT	4	Control Amp Speed
CONVENTION	IQUANT	1	Current Convention
ICHRANGE	IQUANT	2	Ich Range
ICHRANGEMODE	TOGGLE	T	Ich Auto Range
ICHOFFSETENABLE	TOGGLE	F	Ich Offset Enable
ICHOFFSET	QUANT	0	Ich Offset (V)
ICHFILTER	IQUANT	1	Ich Filter
VCHRANGE	IQUANT	2	Vch Range
VCHRANGEMODE	TOGGLE	T	Vch Auto Range
VCHOFFSETENABLE	TOGGLE	F	Vch Offset Enable
VCHOFFSET	QUANT	0	Vch Offset (V)
VCHFILTER	IQUANT	1	Vch Filter
IERANGELOWERLIMIT	IQUANT	9	I/E Range Lower Limit
IERANGEMODE	TOGGLE	F	I/E AutoRange
IERANGE	IQUANT	9	I/E Range
ACHSELECT	IQUANT	1	Ach Select
ACHRANGE	IQUANT	2	Ach Range
ACHOFFSETENABLE	TOGGLE	F	Ach Offset Enable
ACHOFFSET	QUANT	0	Ach Offset (V)
ACHFILTER	IQUANT	1	Ach Filter
CABLEID	IQUANT	14	Cable ID
DCCALDATE	LABEL	5-7-2017	DC Calibration Date
ACCALDATE	LABEL	12/3/2015	AC Calibration Date
FRAMEWORKVERSION	QUANT	7.01	Framework Version
INSTRUMENTVERSION	LABEL	4.00	Instrument Version
CURVE	TABLE	116
	Pt	T	Vf	Im	Vu	Pwr	Sig	Ach	Temp	IERange	Over
	#	s	V	A	V	W	V	V	deg C	#	bits
	0	0.013333	3.68486E-001	4.01070E-004	0.00000E+000	1.47789E-004	2.40040E-001	3.68583E-001	3.57700E+000	9	...........
	1	0.026667	3.80337E-001	4.02778E-004	0.00000E+000	1.53191E-004	2.40040E-001	3.80410E-001	3.57700E+000	9	...........
	2	0.04	3.90507E-001	4.00729E-004	0.00000E+000	1.56488E-004	2.40040E-001	3.90575E-001	3.57700E+000	9	...........
	3	0.053333	3.99716E-001	4.00852E-004	0.00000E+000	1.60227E-004	2.40040E-001	3.99794E-001	3.57700E+000	9	...........
	4	0.066667	4.08319E-001	3.99770E-004	0.00000E+000	1.63233E-004	2.40040E-001	4.08398E-001	3.57700E+000	9	...........
	5	0.08	4.16559E-001	4.00869E-004	0.00000E+000	1.66985E-004	2.40040E-001	4.16648E-001	3.57700E+000	9	...........
	6	0.093333	4.24444E-001	4.01261E-004	0.00000E+000	1.70313E-004	2.40040E-001	4.24525E-001	3.57700E+000	9	...........
	7	0.106667	4.32077E-001	4.01303E-004	0.00000E+000	1.73394E-004	2.40040E-001	4.32168E-001	3.57700E+000	9	...........
	8	0.12	4.39528E-001	4.01183E-004	0.00000E+000	1.76331E-004	2.40040E-001	4.39616E-001	3.57700E+000	9	...........
	9	0.133333	4.46780E-001	4.01592E-004	0.00000E+000	1.79423E-004	2.40040E-001	4.46869E-001	3.57700E+000	9	...........
	10	0.146667	4.53927E-001	4.01434E-004	0.00000E+000	1.82221E-004	2.40040E-001	4.54017E-001	3.57700E+000	9	...........
	11	0.16	4.60945E-001	4.00316E-004	0.00000E+000	1.84524E-004	2.40040E-001	4.61035E-001	3.57700E+000	9	...........
	12	0.173333	4.67843E-001	4.01185E-004	0.00000E+000	1.87691E-004	2.40040E-001	4.67942E-001	3.57708E+000	9	...........
	13	0.186667	4.74701E-001	4.00462E-004	0.00000E+000	1.90100E-004	2.40040E-001	4.74790E-001	3.57710E+000	9	...........
	14	0.2	4.81496E-001	4.01411E-004	0.00000E+000	1.93278E-004	2.40040E-001	4.81597E-001	3.57710E+000	9	...........
	15	0.213333	4.88170E-001	4.01023E-004	0.00000E+000	1.95767E-004	2.40040E-001	4.88269E-001	3.57710E+000	9	...........
	16	0.226667	4.94691E-001	4.00967E-004	0.00000E+000	1.98355E-004	2.40040E-001	4.94795E-001	3.57710E+000	9	...........
	17	0.24	5.01196E-001	4.01183E-004	0.00000E+000	2.01071E-004	2.40040E-001	5.01302E-001	3.57710E+000	9	...........
	18	0.253333	5.07657E-001	4.00680E-004	0.00000E+000	2.03408E-004	2.40040E-001	5.07764E-001	3.57710E+000	9	...........
	19	0.266667	5.14034E-001	4.01232E-004	0.00000E+000	2.06247E-004	2.40040E-001	5.14139E-001	3.57710E+000	9	...........
	20	0.28	5.20453E-001	4.00380E-004	0.00000E+000	2.08379E-004	2.40040E-001	5.20555E-001	3.57710E+000	9	...........
	21	0.293333	5.26843E-001	4.00683E-004	0.00000E+000	2.11097E-004	2.40040E-001	5.26947E-001	3.57710E+000	9	...........
	22	0.306667	5.33006E-001	4.01370E-004	0.00000E+000	2.13933E-004	2.40040E-001	5.33128E-001	3.57710E+000	9	...........
	23	0.32	5.39108E-001	4.00927E-004	0.00000E+000	2.16143E-004	2.40040E-001	5.39337E-001	3.57710E+000	9	...........
	24	0.333333	5.45327E-001	4.01928E-004	0.00000E+000	2.19182E-004	2.40040E-001	5.45515E-001	3.57710E+000	9	...........
	25	0.346667	5.51468E-001	4.01204E-004	0.00000E+000	2.21251E-004	2.40040E-001	5.51667E-001	3.57710E+000	9	...........
	26	0.36	5.57572E-001	4.01581E-004	0.00000E+000	2.23910E-004	2.40040E-001	5.57786E-001	3.57710E+000	9	...........
	27	0.373333	5.63700E-001	4.01033E-004	0.00000E+000	2.26062E-004	2.40040E-001	5.63940E-001	3.57710E+000	9	...........
	28	0.386667	5.69756E-001	4.01261E-004	0.00000E+000	2.28621E-004	2.40040E-001	5.69961E-001	3.57710E+000	9	...........
	29	0.4	5.75833E-001	3.99971E-004	0.00000E+000	2.30316E-004	2.40040E-001	5.76083E-001	3.57710E+000	9	...........
	30	0.413333	5.81858E-001	4.01218E-004	0.00000E+000	2.33452E-004	2.40040E-001	5.82117E-001	3.57710E+000	9	...........
	31	0.426667	5.87875E-001	4.02691E-004	0.00000E+000	2.36732E-004	2.40040E-001	5.88116E-001	3.57710E+000	9	...........
	32	0.44	5.93861E-001	4.00928E-004	0.00000E+000	2.38096E-004	2.40040E-001	5.94071E-001	3.57710E+000	9	...........
	33	0.453333	5.99779E-001	4.01076E-004	0.00000E+000	2.40557E-004	2.40040E-001	6.00016E-001	3.57710E+000	9	...........
	34	0.466667	6.05697E-001	4.01031E-004	0.00000E+000	2.42903E-004	2.40040E-001	6.05956E-001	3.57710E+000	9	...........
	35	0.48	6.11616E-001	4.00063E-004	0.00000E+000	2.44685E-004	2.40040E-001	6.11857E-001	3.57710E+000	9	...........
	36	0.493333	6.17615E-001	4.00608E-004	0.00000E+000	2.47422E-004	2.40040E-001	6.17834E-001	3.57710E+000	9	...........
	37	0.506667	6.23466E-001	4.01296E-004	0.00000E+000	2.50194E-004	2.40040E-001	6.23644E-001	3.57710E+000	9	...........
	38	0.52	6.29320E-001	4.01291E-004	0.00000E+000	2.52541E-004	2.40040E-001	6.29511E-001	3.57710E+000	9	...........
	39	0.533333	6.35190E-001	4.00640E-004	0.00000E+000	2.54482E-004	2.40040E-001	6.35376E-001	3.57710E+000	9	...........
	40	0.546667	6.41025E-001	4.00471E-004	0.00000E+000	2.56712E-004	2.40040E-001	6.41234E-001	3.57710E+000	9	...........
	41	0.56	6.46824E-001	3.99326E-004	0.00000E+000	2.58294E-004	2.40040E-001	6.47013E-001	3.57710E+000	9	...........
	42	0.573333	6.52585E-001	4.01946E-004	0.00000E+000	2.62304E-004	2.40040E-001	6.52795E-001	3.57710E+000	9	...........
	43	0.586667	6.58400E-001	4.00979E-004	0.00000E+000	2.64005E-004	2.40040E-001	6.58588E-001	3.57710E+000	9	...........
	44	0.6	6.64146E-001	4.00463E-004	0.00000E+000	2.65966E-004	2.40040E-001	6.64385E-001	3.57710E+000	9	...........
	45	0.613333	6.69859E-001	4.01042E-004	0.00000E+000	2.68642E-004	2.40040E-001	6.70078E-001	3.57710E+000	9	...........
	46	0.626667	6.75501E-001	4.00346E-004	0.00000E+000	2.70434E-004	2.40040E-001	6.75744E-001	3.57710E+000	9	...........
	47	0.64	6.81184E-001	4.00465E-004	0.00000E+000	2.72790E-004	2.40040E-001	6.81420E-001	3.57710E+000	9	...........
	48	0.653333	6.86822E-001	4.00481E-004	0.00000E+000	2.75059E-004	2.40040E-001	6.87029E-001	3.57710E+000	9	...........
	49	0.666667	6.92402E-001	4.01151E-004	0.00000E+000	2.77758E-004	2.40040E-001	6.92632E-001	3.57710E+000	9	...........
	50	0.68	6.98032E-001	4.01038E-004	0.00000E+000	2.79937E-004	2.40040E-001	6.98247E-001	3.57710E+000	9	...........
	51	0.693333	7.03585E-001	4.00946E-004	0.00000E+000	2.82100E-004	2.40040E-001	7.03826E-001	3.57710E+000	9	...........
	52	0.706667	7.09155E-001	4.00923E-004	0.00000E+000	2.84317E-004	2.40040E-001	7.09398E-001	3.57710E+000	9	...........
	53	0.72	7.14717E-001	3.99701E-004	0.00000E+000	2.85673E-004	2.40040E-001	7.14964E-001	3.57710E+000	9	...........
	54	0.733333	7.20356E-001	4.00841E-004	0.00000E+000	2.88748E-004	2.40040E-001	7.20576E-001	3.57710E+000	9	...........
	55	0.746667	7.25840E-001	3.99743E-004	0.00000E+000	2.90149E-004	2.40040E-001	7.26041E-001	3.57710E+000	9	...........
	56	0.76	7.31254E-001	4.01712E-004	0.00000E+000	2.93753E-004	2.40040E-001	7.31521E-001	3.57710E+000	9	...........
	57	0.773333	7.36701E-001	4.00367E-004	0.00000E+000	2.94951E-004	2.40040E-001	7.36928E-001	3.57710E+000	9	...........
	58	0.786667	7.42142E-001	3.98827E-004	0.00000E+000	2.95986E-004	2.40040E-001	7.42359E-001	3.57710E+000	9	...........
	59	0.8	7.47593E-001	4.01289E-004	0.00000E+000	3.00001E-004	2.40040E-001	7.47801E-001	3.57710E+000	9	...........
	60	0.813333	7.52945E-001	4.00813E-004	0.00000E+000	3.01790E-004	2.40040E-001	7.53145E-001	3.57710E+000	9	...........
	61	0.826667	7.58338E-001	4.00731E-004	0.00000E+000	3.03890E-004	2.40040E-001	7.58519E-001	3.57710E+000	9	...........
	62	0.84	7.63662E-001	3.99629E-004	0.00000E+000	3.05182E-004	2.40040E-001	7.63852E-001	3.57710E+000	9	...........
	63	0.853333	7.69054E-001	4.00928E-004	0.00000E+000	3.08336E-004	2.40040E-001	7.69269E-001	3.57710E+000	9	...........
	64	0.866667	7.74330E-001	4.01127E-004	0.00000E+000	3.10605E-004	2.40040E-001	7.74554E-001	3.57710E+000	9	...........
	65	0.88	7.79618E-001	4.01789E-004	0.00000E+000	3.13242E-004	2.40040E-001	7.79842E-001	3.57710E+000	9	...........
	66	0.893333	7.84957E-001	4.00091E-004	0.00000E+000	3.14054E-004	2.40040E-001	7.85166E-001	3.57710E+000	9	...........
	67	0.906667	7.90165E-001	4.01548E-004	0.00000E+000	3.17289E-004	2.40040E-001	7.90415E-001	3.57710E+000	9	...........
	68	0.92	7.95365E-001	4.00896E-004	0.00000E+000	3.18859E-004	2.40040E-001	7.95586E-001	3.57710E+000	9	...........
	69	0.933333	8.00490E-001	4.01999E-004	0.00000E+000	3.21796E-004	2.40040E-001	8.00717E-001	3.57710E+000	9	...........
	70	0.946667	8.05664E-001	3.99877E-004	0.00000E+000	3.22167E-004	2.40040E-001	8.05905E-001	3.57710E+000	9	...........
	71	0.96	8.10766E-001	4.01559E-004	0.00000E+000	3.25570E-004	2.40040E-001	8.11046E-001	3.57710E+000	9	...........
	72	0.97333	8.15798E-001	4.00449E-004	0.00000E+000	3.26686E-004	2.40040E-001	8.16098E-001	3.57710E+000	9	...........
	73	0.98667	8.20825E-001	4.00089E-004	0.00000E+000	3.28403E-004	2.40040E-001	8.21090E-001	3.57710E+000	9	...........
	74	1	8.25794E-001	3.99929E-004	0.00000E+000	3.30259E-004	2.40040E-001	8.26078E-001	3.57710E+000	9	...........
	75	1.01333	8.30810E-001	4.00798E-004	0.00000E+000	3.32987E-004	2.40040E-001	8.31076E-001	3.57710E+000	9	...........
	76	1.02667	8.35709E-001	4.00863E-004	0.00000E+000	3.35005E-004	2.40040E-001	8.36016E-001	3.57710E+000	9	...........
	77	1.04	8.40623E-001	4.01219E-004	0.00000E+000	3.37274E-004	2.40040E-001	8.40911E-001	3.57710E+000	9	...........
	78	1.05333	8.45511E-001	3.98880E-004	0.00000E+000	3.37258E-004	2.40040E-001	8.45777E-001	3.57710E+000	9	...........
	79	1.06667	8.50329E-001	4.01271E-004	0.00000E+000	3.41213E-004	2.40040E-001	8.50627E-001	3.57710E+000	9	...........
	80	1.08	8.55087E-001	4.01539E-004	0.00000E+000	3.43351E-004	2.40040E-001	8.55373E-001	3.57710E+000	9	...........
	81	1.09333	8.59833E-001	4.00069E-004	0.00000E+000	3.43992E-004	2.40040E-001	8.60102E-001	3.57710E+000	9	...........
	82	1.10667	8.64566E-001	4.01015E-004	0.00000E+000	3.46704E-004	2.40040E-001	8.64838E-001	3.57710E+000	9	...........
	83	1.12	8.69240E-001	3.99843E-004	0.00000E+000	3.47559E-004	2.40040E-001	8.69521E-001	3.57710E+000	9	...........
	84	1.13333	8.73934E-001	4.00449E-004	0.00000E+000	3.49966E-004	2.40040E-001	8.74237E-001	3.57710E+000	9	...........
	85	1.14667	8.78550E-001	4.00798E-004	0.00000E+000	3.52121E-004	2.40040E-001	8.78834E-001	3.57710E+000	9	...........
	86	1.16	8.83118E-001	4.01537E-004	0.00000E+000	3.54604E-004	2.40040E-001	8.83421E-001	3.57710E+000	9	...........
	87	1.17333	8.87732E-001	4.00349E-004	0.00000E+000	3.55403E-004	2.40040E-001	8.88032E-001	3.57735E+000	9	...........
	88	1.18667	8.92237E-001	4.00773E-004	0.00000E+000	3.57585E-004	2.40040E-001	8.92512E-001	3.57740E+000	9	...........
	89	1.2	8.96732E-001	4.00842E-004	0.00000E+000	3.59448E-004	2.40040E-001	8.97022E-001	3.57740E+000	9	...........
	90	1.21333	9.01155E-001	4.00964E-004	0.00000E+000	3.61330E-004	2.40040E-001	9.01438E-001	3.57740E+000	9	...........
	91	1.22667	9.05549E-001	4.00605E-004	0.00000E+000	3.62768E-004	2.40040E-001	9.05852E-001	3.57740E+000	9	...........
	92	1.24	9.09995E-001	4.00563E-004	0.00000E+000	3.64510E-004	2.40040E-001	9.10253E-001	3.57740E+000	9	...........
	93	1.25333	9.14388E-001	3.99758E-004	0.00000E+000	3.65534E-004	2.40040E-001	9.14662E-001	3.57740E+000	9	...........
	94	1.26667	9.18690E-001	4.01556E-004	0.00000E+000	3.68905E-004	2.40040E-001	9.19014E-001	3.57740E+000	9	...........
	95	1.28	9.23026E-001	4.00159E-004	0.00000E+000	3.69358E-004	2.40040E-001	9.23292E-001	3.57740E+000	9	...........
	96	1.29333	9.27292E-001	4.00803E-004	0.00000E+000	3.71662E-004	2.40040E-001	9.27586E-001	3.57740E+000	9	...........
	97	1.30667	9.31508E-001	4.00979E-004	0.00000E+000	3.73516E-004	2.40040E-001	9.31743E-001	3.57740E+000	9	...........
	98	1.32	9.35652E-001	4.00393E-004	0.00000E+000	3.74628E-004	2.40040E-001	9.35939E-001	3.57740E+000	9	...........
	99	1.33333	9.39820E-001	4.00267E-004	0.00000E+000	3.76179E-004	2.40040E-001	9.40090E-001	3.57740E+000	9	...........
	100	1.34667	9.43914E-001	4.01508E-004	0.00000E+000	3.78989E-004	2.40040E-001	9.44176E-001	3.57740E+000	9	...........
	101	1.36	9.47979E-001	4.02069E-004	0.00000E+000	3.81153E-004	2.40040E-001	9.48254E-001	3.57740E+000	9	...........
	102	1.37333	9.51975E-001	4.00471E-004	0.00000E+000	3.81238E-004	2.40040E-001	9.52243E-001	3.57740E+000	9	...........
	103	1.38667	9.55883E-001	3.99559E-004	0.00000E+000	3.81932E-004	2.40040E-001	9.56146E-001	3.57740E+000	9	...........
	104	1.4	9.59839E-001	4.00063E-004	0.00000E+000	3.83996E-004	2.40040E-001	9.60131E-001	3.57740E+000	9	...........
	105	1.41333	9.63769E-001	4.00784E-004	0.00000E+000	3.86263E-004	2.40040E-001	9.64103E-001	3.57740E+000	9	...........
	106	1.42667	9.67613E-001	4.01603E-004	0.00000E+000	3.88597E-004	2.40040E-001	9.67921E-001	3.57740E+000	9	...........
	107	1.44	9.71469E-001	4.01553E-004	0.00000E+000	3.90097E-004	2.40040E-001	9.71809E-001	3.57740E+000	9	...........
	108	1.45333	9.75348E-001	4.00880E-004	0.00000E+000	3.90998E-004	2.40040E-001	9.75658E-001	3.57740E+000	9	...........
	109	1.46667	9.79072E-001	4.00426E-004	0.00000E+000	3.92046E-004	2.40040E-001	9.79386E-001	3.57740E+000	9	...........
	110	1.48	9.82756E-001	4.01108E-004	0.00000E+000	3.94191E-004	2.40040E-001	9.83079E-001	3.57740E+000	9	...........
	111	1.49333	9.86505E-001	4.00712E-004	0.00000E+000	3.95304E-004	2.40040E-001	9.86845E-001	3.57740E+000	9	...........
	112	1.50667	9.90179E-001	4.00736E-004	0.00000E+000	3.96800E-004	2.40040E-001	9.90471E-001	3.57740E+000	9	...........
	113	1.52	9.93740E-001	4.01034E-004	0.00000E+000	3.98523E-004	2.40040E-001	9.94077E-001	3.57740E+000	9	...........
	114	1.53333	9.97286E-001	4.01810E-004	0.00000E+000	4.00719E-004	2.40040E-001	9.97591E-001	3.57740E+000	9	...........
	115	1.53833	9.99706E-001	4.01936E-004	0.00000E+000	4.01818E-004	2.40040E-001	1.00003E+000	3.57740E+000	9	...........
STARTTIMEOFFSET	QUANT	1769.728	Start Time Offset (s)
