EXPLAIN
TAG	PWR800_CHARGE
TITLE	LABEL	PWR Cyclic Charge Discharge (Cell) - Charge Step	Test &Identifier
DATE	LABEL	12-7-2017	Date
TIME	LABEL	14:23:31	Time
NOTES	NOTES	3	&Notes...
	supercap test cell
	0.4mg
	6M KOH
PSTAT	PSTAT	IFC5000-01520	Potentiostat
CAPACITY	QUANT	1.00000E-003	Capacity (A-hr)
CELLTYPE	SELECTOR	1	&Cell Type
WORKINGCONNECTION	SELECTOR	0	&Working Lead
MAXCHARGETIME	VARIABLEANDUNITS	1.00000E+002	s	1.00000E+002	second(s)	Max &Charge Time
CHARGECURRENT	QUANT	4.00000E-004	&Charge Current (A) 
VOLTAGEFINISH	TWOPARAM	F	1.00000E-003	3.60000E+003	&Voltage Finish	 I (A) < 	Max Time(s)
SAMPLETIME	QUANT	1.00000E-002	Sa&mple Period (s)
CHARGESTOPAT1	MULTIPARAM	4	1.00000E+000	Charge Stop At &1	Voltage > Limit	V
CHARGESTOPAT2	MULTIPARAM	0	0.00000E+000	Charge Stop At &2	None	N/A
AESBHCSELECTOR	TOGGLE	F	Save Both Half Cells
IRCOMP	TOGGLE	F	IR &Measure
EOC	QUANT	0	Open Circuit (V)
SEQUENCER	TOGGLE	TRUE	Run as Sequence
PSTATMODEL	IQUANT	53	Pstat Model
PSTATSECTION	LABEL	IFC5000-01520	Pstat Section
PSTATSERIALNO	LABEL	01520	Pstat Serial Number
CTRLMODE	IQUANT	0	Control Mode
ELECTROMETER	IQUANT	1	RE=0 or CS=1
IESTAB	IQUANT	0	I/E Stability
CASPEED	IQUANT	4	Control Amp Speed
CONVENTION	IQUANT	1	Current Convention
ICHRANGE	IQUANT	2	Ich Range
ICHRANGEMODE	TOGGLE	T	Ich Auto Range
ICHOFFSETENABLE	TOGGLE	F	Ich Offset Enable
ICHOFFSET	QUANT	0	Ich Offset (V)
ICHFILTER	IQUANT	1	Ich Filter
VCHRANGE	IQUANT	2	Vch Range
VCHRANGEMODE	TOGGLE	T	Vch Auto Range
VCHOFFSETENABLE	TOGGLE	F	Vch Offset Enable
VCHOFFSET	QUANT	0	Vch Offset (V)
VCHFILTER	IQUANT	1	Vch Filter
IERANGELOWERLIMIT	IQUANT	9	I/E Range Lower Limit
IERANGEMODE	TOGGLE	F	I/E AutoRange
IERANGE	IQUANT	9	I/E Range
ACHSELECT	IQUANT	1	Ach Select
ACHRANGE	IQUANT	2	Ach Range
ACHOFFSETENABLE	TOGGLE	F	Ach Offset Enable
ACHOFFSET	QUANT	0	Ach Offset (V)
ACHFILTER	IQUANT	1	Ach Filter
CABLEID	IQUANT	14	Cable ID
DCCALDATE	LABEL	5-7-2017	DC Calibration Date
ACCALDATE	LABEL	12/3/2015	AC Calibration Date
FRAMEWORKVERSION	QUANT	7.01	Framework Version
INSTRUMENTVERSION	LABEL	4.00	Instrument Version
CURVE	TABLE	143
	Pt	T	Vf	Im	Vu	Pwr	Sig	Ach	Temp	IERange	Over
	#	s	V	A	V	W	V	V	deg C	#	bits
	0	0.013333	3.30521E-001	4.01117E-004	0.00000E+000	1.32578E-004	2.40040E-001	3.30595E-001	3.57610E+000	9	...........
	1	0.026667	3.40359E-001	4.00125E-004	0.00000E+000	1.36186E-004	2.40040E-001	3.40422E-001	3.57610E+000	9	...........
	2	0.04	3.48806E-001	4.01939E-004	0.00000E+000	1.40199E-004	2.40040E-001	3.48867E-001	3.57610E+000	9	...........
	3	0.053333	3.56561E-001	4.01391E-004	0.00000E+000	1.43120E-004	2.40040E-001	3.56623E-001	3.57610E+000	9	...........
	4	0.066667	3.63883E-001	4.01404E-004	0.00000E+000	1.46064E-004	2.40040E-001	3.63947E-001	3.57610E+000	9	...........
	5	0.08	3.70879E-001	4.01933E-004	0.00000E+000	1.49068E-004	2.40040E-001	3.70950E-001	3.57610E+000	9	...........
	6	0.093333	3.77589E-001	4.01594E-004	0.00000E+000	1.51637E-004	2.40040E-001	3.77661E-001	3.57610E+000	9	...........
	7	0.106667	3.84140E-001	4.00640E-004	0.00000E+000	1.53902E-004	2.40040E-001	3.84208E-001	3.57610E+000	9	...........
	8	0.12	3.90510E-001	4.00680E-004	0.00000E+000	1.56470E-004	2.40040E-001	3.90579E-001	3.57610E+000	9	...........
	9	0.133333	3.96648E-001	4.00181E-004	0.00000E+000	1.58731E-004	2.40040E-001	3.96716E-001	3.57610E+000	9	...........
	10	0.146667	4.02708E-001	3.99883E-004	0.00000E+000	1.61036E-004	2.40040E-001	4.02784E-001	3.57610E+000	9	...........
	11	0.16	4.08745E-001	4.01503E-004	0.00000E+000	1.64113E-004	2.40040E-001	4.08819E-001	3.57610E+000	9	...........
	12	0.173333	4.14648E-001	4.00290E-004	0.00000E+000	1.65979E-004	2.40040E-001	4.14724E-001	3.57610E+000	9	...........
	13	0.186667	4.20475E-001	4.01395E-004	0.00000E+000	1.68777E-004	2.40040E-001	4.20558E-001	3.57610E+000	9	...........
	14	0.2	4.26287E-001	4.00572E-004	0.00000E+000	1.70759E-004	2.40040E-001	4.26367E-001	3.57610E+000	9	...........
	15	0.213333	4.32077E-001	4.02062E-004	0.00000E+000	1.73722E-004	2.40040E-001	4.32158E-001	3.57610E+000	9	...........
	16	0.226667	4.37755E-001	4.01685E-004	0.00000E+000	1.75840E-004	2.40040E-001	4.37840E-001	3.57610E+000	9	...........
	17	0.24	4.43398E-001	4.01435E-004	0.00000E+000	1.77995E-004	2.40040E-001	4.43482E-001	3.57610E+000	9	...........
	18	0.253333	4.48938E-001	4.01185E-004	0.00000E+000	1.80107E-004	2.40040E-001	4.49025E-001	3.57610E+000	9	...........
	19	0.266667	4.54452E-001	4.02640E-004	0.00000E+000	1.82980E-004	2.40040E-001	4.54535E-001	3.57610E+000	9	...........
	20	0.28	4.59972E-001	4.00912E-004	0.00000E+000	1.84408E-004	2.40040E-001	4.60059E-001	3.57610E+000	9	...........
	21	0.293333	4.65505E-001	4.01281E-004	0.00000E+000	1.86798E-004	2.40040E-001	4.65592E-001	3.57610E+000	9	...........
	22	0.306667	4.70960E-001	4.01487E-004	0.00000E+000	1.89084E-004	2.40040E-001	4.71048E-001	3.57610E+000	9	...........
	23	0.32	4.76241E-001	4.01088E-004	0.00000E+000	1.91014E-004	2.40040E-001	4.76330E-001	3.57610E+000	9	...........
	24	0.333333	4.81569E-001	4.02571E-004	0.00000E+000	1.93866E-004	2.40040E-001	4.81660E-001	3.57610E+000	9	...........
	25	0.346667	4.86919E-001	4.00792E-004	0.00000E+000	1.95153E-004	2.40040E-001	4.87010E-001	3.57610E+000	9	...........
	26	0.36	4.92208E-001	4.01746E-004	0.00000E+000	1.97743E-004	2.40040E-001	4.92305E-001	3.57610E+000	9	...........
	27	0.373333	4.97465E-001	4.01414E-004	0.00000E+000	1.99689E-004	2.40040E-001	4.97564E-001	3.57610E+000	9	...........
	28	0.386667	5.02761E-001	4.01146E-004	0.00000E+000	2.01681E-004	2.40040E-001	5.02858E-001	3.57610E+000	9	...........
	29	0.4	5.07963E-001	4.00424E-004	0.00000E+000	2.03401E-004	2.40040E-001	5.08068E-001	3.57610E+000	9	...........
	30	0.413333	5.13194E-001	4.00242E-004	0.00000E+000	2.05402E-004	2.40040E-001	5.13288E-001	3.57610E+000	9	...........
	31	0.426667	5.18413E-001	4.01315E-004	0.00000E+000	2.08047E-004	2.40040E-001	5.18514E-001	3.57610E+000	9	...........
	32	0.44	5.23629E-001	4.01071E-004	0.00000E+000	2.10013E-004	2.40040E-001	5.23733E-001	3.57610E+000	9	...........
	33	0.453333	5.28760E-001	4.02166E-004	0.00000E+000	2.12649E-004	2.40040E-001	5.28859E-001	3.57610E+000	9	...........
	34	0.466667	5.33762E-001	4.01096E-004	0.00000E+000	2.14090E-004	2.40040E-001	5.33879E-001	3.57610E+000	9	...........
	35	0.48	5.38827E-001	4.02024E-004	0.00000E+000	2.16622E-004	2.40040E-001	5.39037E-001	3.57610E+000	9	...........
	36	0.493333	5.43907E-001	4.00384E-004	0.00000E+000	2.17772E-004	2.40040E-001	5.44131E-001	3.57610E+000	9	...........
	37	0.506667	5.49033E-001	4.00676E-004	0.00000E+000	2.19984E-004	2.40040E-001	5.49230E-001	3.57610E+000	9	...........
	38	0.52	5.54061E-001	4.01235E-004	0.00000E+000	2.22309E-004	2.40040E-001	5.54259E-001	3.57610E+000	9	...........
	39	0.533333	5.59093E-001	4.01968E-004	0.00000E+000	2.24738E-004	2.40040E-001	5.59295E-001	3.57610E+000	9	...........
	40	0.546667	5.64174E-001	4.01543E-004	0.00000E+000	2.26540E-004	2.40040E-001	5.64384E-001	3.57610E+000	9	...........
	41	0.56	5.69258E-001	4.00760E-004	0.00000E+000	2.28136E-004	2.40040E-001	5.69456E-001	3.57610E+000	9	...........
	42	0.573333	5.74285E-001	4.01298E-004	0.00000E+000	2.30460E-004	2.40040E-001	5.74507E-001	3.57610E+000	9	...........
	43	0.586667	5.79303E-001	4.01260E-004	0.00000E+000	2.32451E-004	2.40040E-001	5.79522E-001	3.57610E+000	9	...........
	44	0.6	5.84227E-001	3.99565E-004	0.00000E+000	2.33436E-004	2.40040E-001	5.84463E-001	3.57610E+000	9	...........
	45	0.613333	5.89244E-001	4.00090E-004	0.00000E+000	2.35750E-004	2.40040E-001	5.89478E-001	3.57610E+000	9	...........
	46	0.626667	5.94309E-001	4.01002E-004	0.00000E+000	2.38319E-004	2.40040E-001	5.94531E-001	3.57610E+000	9	...........
	47	0.64	5.99317E-001	4.00723E-004	0.00000E+000	2.40160E-004	2.40040E-001	5.99550E-001	3.57610E+000	9	...........
	48	0.653333	6.04195E-001	4.00391E-004	0.00000E+000	2.41914E-004	2.40040E-001	6.04455E-001	3.57610E+000	9	...........
	49	0.666667	6.09144E-001	4.00357E-004	0.00000E+000	2.43875E-004	2.40040E-001	6.09416E-001	3.57610E+000	9	...........
	50	0.68	6.14127E-001	4.00968E-004	0.00000E+000	2.46245E-004	2.40040E-001	6.14377E-001	3.57610E+000	9	...........
	51	0.693333	6.19078E-001	4.00651E-004	0.00000E+000	2.48034E-004	2.40040E-001	6.19266E-001	3.57610E+000	9	...........
	52	0.706667	6.23998E-001	4.01785E-004	0.00000E+000	2.50713E-004	2.40040E-001	6.24219E-001	3.57610E+000	9	...........
	53	0.72	6.28863E-001	4.00766E-004	0.00000E+000	2.52027E-004	2.40040E-001	6.29094E-001	3.57610E+000	9	...........
	54	0.733333	6.33666E-001	4.00848E-004	0.00000E+000	2.54004E-004	2.40040E-001	6.33928E-001	3.57610E+000	9	...........
	55	0.746667	6.38580E-001	4.00988E-004	0.00000E+000	2.56063E-004	2.40040E-001	6.38811E-001	3.57665E+000	9	...........
	56	0.76	6.43507E-001	3.99562E-004	0.00000E+000	2.57121E-004	2.40040E-001	6.43744E-001	3.57720E+000	9	...........
	57	0.773333	6.48409E-001	4.01047E-004	0.00000E+000	2.60042E-004	2.40040E-001	6.48626E-001	3.57720E+000	9	...........
	58	0.786667	6.53239E-001	4.00399E-004	0.00000E+000	2.61556E-004	2.40040E-001	6.53431E-001	3.57720E+000	9	...........
	59	0.8	6.57988E-001	4.01653E-004	0.00000E+000	2.64283E-004	2.40040E-001	6.58163E-001	3.57720E+000	9	...........
	60	0.813333	6.62761E-001	4.01522E-004	0.00000E+000	2.66113E-004	2.40040E-001	6.62975E-001	3.57720E+000	9	...........
	61	0.826667	6.67706E-001	4.01146E-004	0.00000E+000	2.67848E-004	2.40040E-001	6.67870E-001	3.57720E+000	9	...........
	62	0.84	6.72496E-001	4.00242E-004	0.00000E+000	2.69161E-004	2.40040E-001	6.72697E-001	3.57720E+000	9	...........
	63	0.853333	6.77239E-001	4.00698E-004	0.00000E+000	2.71368E-004	2.40040E-001	6.77408E-001	3.57720E+000	9	...........
	64	0.866667	6.82071E-001	4.01892E-004	0.00000E+000	2.74119E-004	2.40040E-001	6.82277E-001	3.57720E+000	9	...........
	65	0.88	6.86924E-001	4.00852E-004	0.00000E+000	2.75355E-004	2.40040E-001	6.87153E-001	3.57720E+000	9	...........
	66	0.893333	6.91691E-001	3.99227E-004	0.00000E+000	2.76142E-004	2.40040E-001	6.91917E-001	3.57720E+000	9	...........
	67	0.906667	6.96436E-001	4.00038E-004	0.00000E+000	2.78601E-004	2.40040E-001	6.96654E-001	3.57720E+000	9	...........
	68	0.92	7.01119E-001	4.00605E-004	0.00000E+000	2.80872E-004	2.40040E-001	7.01362E-001	3.57720E+000	9	...........
	69	0.933333	7.05867E-001	4.00517E-004	0.00000E+000	2.82712E-004	2.40040E-001	7.06106E-001	3.57720E+000	9	...........
	70	0.946667	7.10592E-001	4.00716E-004	0.00000E+000	2.84745E-004	2.40040E-001	7.10816E-001	3.57720E+000	9	...........
	71	0.96	7.15305E-001	4.01374E-004	0.00000E+000	2.87105E-004	2.40040E-001	7.15534E-001	3.57720E+000	9	...........
	72	0.97333	7.20089E-001	4.00627E-004	0.00000E+000	2.88487E-004	2.40040E-001	7.20270E-001	3.57720E+000	9	...........
	73	0.98667	7.24757E-001	4.01118E-004	0.00000E+000	2.90713E-004	2.40040E-001	7.24931E-001	3.57720E+000	9	...........
	74	1	7.29326E-001	4.01180E-004	0.00000E+000	2.92591E-004	2.40040E-001	7.29535E-001	3.57720E+000	9	...........
	75	1.01333	7.33906E-001	4.01154E-004	0.00000E+000	2.94410E-004	2.40040E-001	7.34130E-001	3.57720E+000	9	...........
	76	1.02667	7.38499E-001	4.01619E-004	0.00000E+000	2.96595E-004	2.40040E-001	7.38701E-001	3.57720E+000	9	...........
	77	1.04	7.43137E-001	4.01708E-004	0.00000E+000	2.98524E-004	2.40040E-001	7.43351E-001	3.57720E+000	9	...........
	78	1.05333	7.47812E-001	4.00156E-004	0.00000E+000	2.99242E-004	2.40040E-001	7.48028E-001	3.57720E+000	9	...........
	79	1.06667	7.52441E-001	4.02419E-004	0.00000E+000	3.02797E-004	2.40040E-001	7.52669E-001	3.57720E+000	9	...........
	80	1.08	7.57014E-001	4.01888E-004	0.00000E+000	3.04235E-004	2.40040E-001	7.57250E-001	3.57720E+000	9	...........
	81	1.09333	7.61669E-001	4.01600E-004	0.00000E+000	3.05887E-004	2.40040E-001	7.61892E-001	3.57720E+000	9	...........
	82	1.10667	7.66235E-001	4.02630E-004	0.00000E+000	3.08509E-004	2.40040E-001	7.66452E-001	3.57720E+000	9	...........
	83	1.12	7.70726E-001	4.00949E-004	0.00000E+000	3.09022E-004	2.40040E-001	7.70959E-001	3.57720E+000	9	...........
	84	1.13333	7.75238E-001	4.01698E-004	0.00000E+000	3.11412E-004	2.40040E-001	7.75495E-001	3.57720E+000	9	...........
	85	1.14667	7.79827E-001	4.01294E-004	0.00000E+000	3.12940E-004	2.40040E-001	7.80064E-001	3.57720E+000	9	...........
	86	1.16	7.84354E-001	4.01574E-004	0.00000E+000	3.14976E-004	2.40040E-001	7.84605E-001	3.57720E+000	9	...........
	87	1.17333	7.88805E-001	4.01105E-004	0.00000E+000	3.16394E-004	2.40040E-001	7.89052E-001	3.57720E+000	9	...........
	88	1.18667	7.93305E-001	4.00514E-004	0.00000E+000	3.17729E-004	2.40040E-001	7.93561E-001	3.57720E+000	9	...........
	89	1.2	7.97805E-001	4.01567E-004	0.00000E+000	3.20372E-004	2.40040E-001	7.98055E-001	3.57720E+000	9	...........
	90	1.21333	8.02285E-001	4.00751E-004	0.00000E+000	3.21517E-004	2.40040E-001	8.02548E-001	3.57720E+000	9	...........
	91	1.22667	8.06633E-001	4.00960E-004	0.00000E+000	3.23427E-004	2.40040E-001	8.06902E-001	3.57720E+000	9	...........
	92	1.24	8.11016E-001	3.99356E-004	0.00000E+000	3.23884E-004	2.40040E-001	8.11291E-001	3.57720E+000	9	...........
	93	1.25333	8.15440E-001	4.00690E-004	0.00000E+000	3.26739E-004	2.40040E-001	8.15706E-001	3.57720E+000	9	...........
	94	1.26667	8.19787E-001	4.01416E-004	0.00000E+000	3.29076E-004	2.40040E-001	8.20061E-001	3.57720E+000	9	...........
	95	1.28	8.24118E-001	4.01166E-004	0.00000E+000	3.30608E-004	2.40040E-001	8.24403E-001	3.57720E+000	9	...........
	96	1.29333	8.28440E-001	4.01149E-004	0.00000E+000	3.32328E-004	2.40040E-001	8.28702E-001	3.57720E+000	9	...........
	97	1.30667	8.32714E-001	4.02384E-004	0.00000E+000	3.35071E-004	2.40040E-001	8.32988E-001	3.57720E+000	9	...........
	98	1.32	8.36985E-001	4.01860E-004	0.00000E+000	3.36350E-004	2.40040E-001	8.37281E-001	3.57720E+000	9	...........
	99	1.33333	8.41196E-001	4.00467E-004	0.00000E+000	3.36871E-004	2.40040E-001	8.41477E-001	3.57720E+000	9	...........
	100	1.34667	8.45438E-001	4.00155E-004	0.00000E+000	3.38306E-004	2.40040E-001	8.45732E-001	3.57720E+000	9	...........
	101	1.36	8.49639E-001	4.00570E-004	0.00000E+000	3.40340E-004	2.40040E-001	8.49937E-001	3.57720E+000	9	...........
	102	1.37333	8.53761E-001	4.01857E-004	0.00000E+000	3.43089E-004	2.40040E-001	8.54039E-001	3.57720E+000	9	...........
	103	1.38667	8.57920E-001	4.00827E-004	0.00000E+000	3.43878E-004	2.40040E-001	8.58188E-001	3.57720E+000	9	...........
	104	1.4	8.61998E-001	3.99810E-004	0.00000E+000	3.44636E-004	2.40040E-001	8.62261E-001	3.57720E+000	9	...........
	105	1.41333	8.66105E-001	3.99532E-004	0.00000E+000	3.46037E-004	2.40040E-001	8.66381E-001	3.57720E+000	9	...........
	106	1.42667	8.70289E-001	4.00378E-004	0.00000E+000	3.48445E-004	2.40040E-001	8.70584E-001	3.57720E+000	9	...........
	107	1.44	8.74391E-001	4.01021E-004	0.00000E+000	3.50649E-004	2.40040E-001	8.74716E-001	3.57720E+000	9	...........
	108	1.45333	8.78411E-001	4.02077E-004	0.00000E+000	3.53188E-004	2.40040E-001	8.78723E-001	3.57720E+000	9	...........
	109	1.46667	8.82473E-001	4.02310E-004	0.00000E+000	3.55027E-004	2.40040E-001	8.82772E-001	3.57720E+000	9	...........
	110	1.48	8.86507E-001	4.00700E-004	0.00000E+000	3.55223E-004	2.40040E-001	8.86843E-001	3.57720E+000	9	...........
	111	1.49333	8.90553E-001	3.99733E-004	0.00000E+000	3.55984E-004	2.40040E-001	8.90843E-001	3.57720E+000	9	...........
	112	1.50667	8.94490E-001	4.01486E-004	0.00000E+000	3.59125E-004	2.40040E-001	8.94802E-001	3.57720E+000	9	...........
	113	1.52	8.98415E-001	4.01894E-004	0.00000E+000	3.61068E-004	2.40040E-001	8.98718E-001	3.57720E+000	9	...........
	114	1.53333	9.02256E-001	4.01137E-004	0.00000E+000	3.61928E-004	2.40040E-001	9.02585E-001	3.57720E+000	9	...........
	115	1.54667	9.06094E-001	4.00942E-004	0.00000E+000	3.63291E-004	2.40040E-001	9.06415E-001	3.57720E+000	9	...........
	116	1.56	9.09948E-001	4.00520E-004	0.00000E+000	3.64452E-004	2.40040E-001	9.10249E-001	3.57720E+000	9	...........
	117	1.57333	9.13765E-001	4.00765E-004	0.00000E+000	3.66205E-004	2.40040E-001	9.14074E-001	3.57720E+000	9	...........
	118	1.58667	9.17538E-001	4.01458E-004	0.00000E+000	3.68353E-004	2.40040E-001	9.17867E-001	3.57720E+000	9	...........
	119	1.6	9.21334E-001	4.01012E-004	0.00000E+000	3.69466E-004	2.40040E-001	9.21638E-001	3.57720E+000	9	...........
	120	1.61333	9.25118E-001	4.01656E-004	0.00000E+000	3.71579E-004	2.40040E-001	9.25397E-001	3.57720E+000	9	...........
	121	1.62667	9.28790E-001	4.00587E-004	0.00000E+000	3.72061E-004	2.40040E-001	9.29073E-001	3.57720E+000	9	...........
	122	1.64	9.32386E-001	3.99762E-004	0.00000E+000	3.72733E-004	2.40040E-001	9.32674E-001	3.57720E+000	9	...........
	123	1.65333	9.35991E-001	4.01524E-004	0.00000E+000	3.75823E-004	2.40040E-001	9.36304E-001	3.57720E+000	9	...........
	124	1.66667	9.39585E-001	4.01162E-004	0.00000E+000	3.76926E-004	2.40040E-001	9.39910E-001	3.57720E+000	9	...........
	125	1.68	9.43209E-001	4.01398E-004	0.00000E+000	3.78602E-004	2.40040E-001	9.43516E-001	3.57720E+000	9	...........
	126	1.69333	9.46768E-001	4.00640E-004	0.00000E+000	3.79313E-004	2.40040E-001	9.47090E-001	3.57720E+000	9	...........
	127	1.70667	9.50340E-001	4.01996E-004	0.00000E+000	3.82033E-004	2.40040E-001	9.50630E-001	3.57720E+000	9	...........
	128	1.72	9.53846E-001	4.01743E-004	0.00000E+000	3.83201E-004	2.40040E-001	9.54134E-001	3.57720E+000	9	...........
	129	1.73333	9.57246E-001	4.01616E-004	0.00000E+000	3.84446E-004	2.40040E-001	9.57554E-001	3.57720E+000	9	...........
	130	1.74667	9.60614E-001	4.00050E-004	0.00000E+000	3.84294E-004	2.40040E-001	9.60905E-001	3.57650E+000	9	...........
	131	1.76	9.64016E-001	4.02237E-004	0.00000E+000	3.87763E-004	2.40040E-001	9.64354E-001	3.57580E+000	9	...........
	132	1.77333	9.67410E-001	4.02229E-004	0.00000E+000	3.89120E-004	2.40040E-001	9.67748E-001	3.57580E+000	9	...........
	133	1.78667	9.70784E-001	4.00618E-004	0.00000E+000	3.88913E-004	2.40040E-001	9.71121E-001	3.57580E+000	9	...........
	134	1.8	9.74089E-001	4.01532E-004	0.00000E+000	3.91127E-004	2.40040E-001	9.74389E-001	3.57580E+000	9	...........
	135	1.81333	9.77384E-001	4.01295E-004	0.00000E+000	3.92219E-004	2.40040E-001	9.77673E-001	3.57580E+000	9	...........
	136	1.82667	9.80571E-001	4.00714E-004	0.00000E+000	3.92928E-004	2.40040E-001	9.80861E-001	3.57580E+000	9	...........
	137	1.84	9.83725E-001	4.01209E-004	0.00000E+000	3.94679E-004	2.40040E-001	9.84044E-001	3.57580E+000	9	...........
	138	1.85333	9.86875E-001	4.01221E-004	0.00000E+000	3.95955E-004	2.40040E-001	9.87172E-001	3.57580E+000	9	...........
	139	1.86667	9.89922E-001	4.00835E-004	0.00000E+000	3.96795E-004	2.40040E-001	9.90232E-001	3.57580E+000	9	...........
	140	1.88	9.92976E-001	3.99875E-004	0.00000E+000	3.97066E-004	2.40040E-001	9.93307E-001	3.57580E+000	9	...........
	141	1.89333	9.96036E-001	4.01801E-004	0.00000E+000	4.00209E-004	2.40040E-001	9.96364E-001	3.57580E+000	9	...........
	142	1.905	9.98906E-001	4.00665E-004	0.00000E+000	4.00227E-004	2.40040E-001	9.99259E-001	3.57580E+000	9	...........
STARTTIMEOFFSET	QUANT	236.255	Start Time Offset (s)
