EXPLAIN
TAG	PWR800_CHARGE
TITLE	LABEL	PWR Cyclic Charge Discharge (Cell) - Charge Step	Test &Identifier
DATE	LABEL	12-7-2017	Date
TIME	LABEL	14:57:16	Time
NOTES	NOTES	3	&Notes...
	supercap test cell
	0.4mg
	6M KOH
PSTAT	PSTAT	IFC5000-01520	Potentiostat
CAPACITY	QUANT	1.00000E-003	Capacity (A-hr)
CELLTYPE	SELECTOR	1	&Cell Type
WORKINGCONNECTION	SELECTOR	0	&Working Lead
MAXCHARGETIME	VARIABLEANDUNITS	1.00000E+002	s	1.00000E+002	second(s)	Max &Charge Time
CHARGECURRENT	QUANT	4.00000E-004	&Charge Current (A) 
VOLTAGEFINISH	TWOPARAM	F	1.00000E-003	3.60000E+003	&Voltage Finish	 I (A) < 	Max Time(s)
SAMPLETIME	QUANT	1.00000E-002	Sa&mple Period (s)
CHARGESTOPAT1	MULTIPARAM	4	1.00000E+000	Charge Stop At &1	Voltage > Limit	V
CHARGESTOPAT2	MULTIPARAM	0	0.00000E+000	Charge Stop At &2	None	N/A
AESBHCSELECTOR	TOGGLE	F	Save Both Half Cells
IRCOMP	TOGGLE	F	IR &Measure
EOC	QUANT	0	Open Circuit (V)
SEQUENCER	TOGGLE	TRUE	Run as Sequence
PSTATMODEL	IQUANT	53	Pstat Model
PSTATSECTION	LABEL	IFC5000-01520	Pstat Section
PSTATSERIALNO	LABEL	01520	Pstat Serial Number
CTRLMODE	IQUANT	0	Control Mode
ELECTROMETER	IQUANT	1	RE=0 or CS=1
IESTAB	IQUANT	0	I/E Stability
CASPEED	IQUANT	4	Control Amp Speed
CONVENTION	IQUANT	1	Current Convention
ICHRANGE	IQUANT	2	Ich Range
ICHRANGEMODE	TOGGLE	T	Ich Auto Range
ICHOFFSETENABLE	TOGGLE	F	Ich Offset Enable
ICHOFFSET	QUANT	0	Ich Offset (V)
ICHFILTER	IQUANT	1	Ich Filter
VCHRANGE	IQUANT	2	Vch Range
VCHRANGEMODE	TOGGLE	T	Vch Auto Range
VCHOFFSETENABLE	TOGGLE	F	Vch Offset Enable
VCHOFFSET	QUANT	0	Vch Offset (V)
VCHFILTER	IQUANT	1	Vch Filter
IERANGELOWERLIMIT	IQUANT	9	I/E Range Lower Limit
IERANGEMODE	TOGGLE	F	I/E AutoRange
IERANGE	IQUANT	9	I/E Range
ACHSELECT	IQUANT	1	Ach Select
ACHRANGE	IQUANT	2	Ach Range
ACHOFFSETENABLE	TOGGLE	F	Ach Offset Enable
ACHOFFSET	QUANT	0	Ach Offset (V)
ACHFILTER	IQUANT	1	Ach Filter
CABLEID	IQUANT	14	Cable ID
DCCALDATE	LABEL	5-7-2017	DC Calibration Date
ACCALDATE	LABEL	12/3/2015	AC Calibration Date
FRAMEWORKVERSION	QUANT	7.01	Framework Version
INSTRUMENTVERSION	LABEL	4.00	Instrument Version
CURVE	TABLE	115
	Pt	T	Vf	Im	Vu	Pwr	Sig	Ach	Temp	IERange	Over
	#	s	V	A	V	W	V	V	deg C	#	bits
	0	0.013333	3.70817E-001	4.00904E-004	0.00000E+000	1.48662E-004	2.40040E-001	3.70916E-001	3.57670E+000	9	...........
	1	0.026667	3.82697E-001	4.00322E-004	0.00000E+000	1.53202E-004	2.40040E-001	3.82769E-001	3.57670E+000	9	...........
	2	0.04	3.92816E-001	4.01765E-004	0.00000E+000	1.57820E-004	2.40040E-001	3.92889E-001	3.57670E+000	9	...........
	3	0.053333	4.02099E-001	4.00771E-004	0.00000E+000	1.61150E-004	2.40040E-001	4.02172E-001	3.57670E+000	9	...........
	4	0.066667	4.10716E-001	4.00719E-004	0.00000E+000	1.64582E-004	2.40040E-001	4.10795E-001	3.57670E+000	9	...........
	5	0.08	4.18910E-001	4.00890E-004	0.00000E+000	1.67937E-004	2.40040E-001	4.18997E-001	3.57670E+000	9	...........
	6	0.093333	4.26824E-001	4.00208E-004	0.00000E+000	1.70818E-004	2.40040E-001	4.26910E-001	3.57670E+000	9	...........
	7	0.106667	4.34463E-001	4.00014E-004	0.00000E+000	1.73791E-004	2.40040E-001	4.34544E-001	3.57670E+000	9	...........
	8	0.12	4.41902E-001	4.00375E-004	0.00000E+000	1.76926E-004	2.40040E-001	4.41991E-001	3.57670E+000	9	...........
	9	0.133333	4.49175E-001	4.00887E-004	0.00000E+000	1.80068E-004	2.40040E-001	4.49261E-001	3.57670E+000	9	...........
	10	0.146667	4.56318E-001	4.01419E-004	0.00000E+000	1.83175E-004	2.40040E-001	4.56408E-001	3.57670E+000	9	...........
	11	0.16	4.63352E-001	4.01337E-004	0.00000E+000	1.85960E-004	2.40040E-001	4.63444E-001	3.57670E+000	9	...........
	12	0.173333	4.70284E-001	4.00997E-004	0.00000E+000	1.88582E-004	2.40040E-001	4.70375E-001	3.57670E+000	9	...........
	13	0.186667	4.77118E-001	4.01681E-004	0.00000E+000	1.91649E-004	2.40040E-001	4.77212E-001	3.57670E+000	9	...........
	14	0.2	4.83898E-001	4.00447E-004	0.00000E+000	1.93776E-004	2.40040E-001	4.83990E-001	3.57670E+000	9	...........
	15	0.213333	4.90578E-001	4.01278E-004	0.00000E+000	1.96858E-004	2.40040E-001	4.90672E-001	3.57670E+000	9	...........
	16	0.226667	4.97039E-001	4.01145E-004	0.00000E+000	1.99385E-004	2.40040E-001	4.97138E-001	3.57670E+000	9	...........
	17	0.24	5.03528E-001	4.00249E-004	0.00000E+000	2.01537E-004	2.40040E-001	5.03628E-001	3.57670E+000	9	...........
	18	0.253333	5.10028E-001	4.02054E-004	0.00000E+000	2.05059E-004	2.40040E-001	5.10132E-001	3.57670E+000	9	...........
	19	0.266667	5.16541E-001	4.01387E-004	0.00000E+000	2.07333E-004	2.40040E-001	5.16644E-001	3.57670E+000	9	...........
	20	0.28	5.22939E-001	4.01045E-004	0.00000E+000	2.09722E-004	2.40040E-001	5.23046E-001	3.57670E+000	9	...........
	21	0.293333	5.29252E-001	4.00487E-004	0.00000E+000	2.11958E-004	2.40040E-001	5.29356E-001	3.57670E+000	9	...........
	22	0.306667	5.35392E-001	4.01224E-004	0.00000E+000	2.14812E-004	2.40040E-001	5.35535E-001	3.57670E+000	9	...........
	23	0.32	5.41588E-001	3.99485E-004	0.00000E+000	2.16356E-004	2.40040E-001	5.41755E-001	3.57670E+000	9	...........
	24	0.333333	5.47808E-001	4.01469E-004	0.00000E+000	2.19928E-004	2.40040E-001	5.47984E-001	3.57670E+000	9	...........
	25	0.346667	5.53994E-001	4.01441E-004	0.00000E+000	2.22396E-004	2.40040E-001	5.54205E-001	3.57670E+000	9	...........
	26	0.36	5.60242E-001	4.01004E-004	0.00000E+000	2.24660E-004	2.40040E-001	5.60439E-001	3.57670E+000	9	...........
	27	0.373333	5.66441E-001	4.00984E-004	0.00000E+000	2.27133E-004	2.40040E-001	5.66622E-001	3.57670E+000	9	...........
	28	0.386667	5.72526E-001	4.03421E-004	0.00000E+000	2.30969E-004	2.40040E-001	5.72723E-001	3.57670E+000	9	...........
	29	0.4	5.78582E-001	4.02240E-004	0.00000E+000	2.32729E-004	2.40040E-001	5.78830E-001	3.57670E+000	9	...........
	30	0.413333	5.84621E-001	4.00471E-004	0.00000E+000	2.34124E-004	2.40040E-001	5.84863E-001	3.57670E+000	9	...........
	31	0.426667	5.90643E-001	3.99893E-004	0.00000E+000	2.36194E-004	2.40040E-001	5.90876E-001	3.57670E+000	9	...........
	32	0.44	5.96561E-001	4.00903E-004	0.00000E+000	2.39163E-004	2.40040E-001	5.96786E-001	3.57670E+000	9	...........
	33	0.453333	6.02437E-001	4.01674E-004	0.00000E+000	2.41983E-004	2.40040E-001	6.02683E-001	3.57670E+000	9	...........
	34	0.466667	6.08398E-001	4.00967E-004	0.00000E+000	2.43947E-004	2.40040E-001	6.08647E-001	3.57670E+000	9	...........
	35	0.48	6.14442E-001	4.00272E-004	0.00000E+000	2.45944E-004	2.40040E-001	6.14683E-001	3.57670E+000	9	...........
	36	0.493333	6.20372E-001	4.01289E-004	0.00000E+000	2.48948E-004	2.40040E-001	6.20569E-001	3.57670E+000	9	...........
	37	0.506667	6.26250E-001	4.00412E-004	0.00000E+000	2.50758E-004	2.40040E-001	6.26476E-001	3.57670E+000	9	...........
	38	0.52	6.32113E-001	4.01115E-004	0.00000E+000	2.53550E-004	2.40040E-001	6.32364E-001	3.57670E+000	9	...........
	39	0.533333	6.38017E-001	4.00323E-004	0.00000E+000	2.55413E-004	2.40040E-001	6.38276E-001	3.57670E+000	9	...........
	40	0.546667	6.43886E-001	4.00575E-004	0.00000E+000	2.57925E-004	2.40040E-001	6.44128E-001	3.57670E+000	9	...........
	41	0.56	6.49649E-001	4.00552E-004	0.00000E+000	2.60218E-004	2.40040E-001	6.49884E-001	3.57670E+000	9	...........
	42	0.573333	6.55411E-001	4.01374E-004	0.00000E+000	2.63065E-004	2.40040E-001	6.55613E-001	3.57670E+000	9	...........
	43	0.586667	6.61201E-001	4.00493E-004	0.00000E+000	2.64806E-004	2.40040E-001	6.61400E-001	3.57670E+000	9	...........
	44	0.6	6.67015E-001	4.00496E-004	0.00000E+000	2.67137E-004	2.40040E-001	6.67209E-001	3.57670E+000	9	...........
	45	0.613333	6.72743E-001	3.99831E-004	0.00000E+000	2.68984E-004	2.40040E-001	6.72938E-001	3.57670E+000	9	...........
	46	0.626667	6.78431E-001	4.00381E-004	0.00000E+000	2.71631E-004	2.40040E-001	6.78663E-001	3.57670E+000	9	...........
	47	0.64	6.84107E-001	4.00697E-004	0.00000E+000	2.74120E-004	2.40040E-001	6.84342E-001	3.57686E+000	9	...........
	48	0.653333	6.89770E-001	4.02594E-004	0.00000E+000	2.77698E-004	2.40040E-001	6.89992E-001	3.57800E+000	9	...........
	49	0.666667	6.95398E-001	4.01536E-004	0.00000E+000	2.79227E-004	2.40040E-001	6.95682E-001	3.57800E+000	9	...........
	50	0.68	7.01057E-001	4.00852E-004	0.00000E+000	2.81020E-004	2.40040E-001	7.01305E-001	3.57800E+000	9	...........
	51	0.693333	7.06653E-001	4.01300E-004	0.00000E+000	2.83580E-004	2.40040E-001	7.06916E-001	3.57800E+000	9	...........
	52	0.706667	7.12260E-001	4.00976E-004	0.00000E+000	2.85599E-004	2.40040E-001	7.12511E-001	3.57800E+000	9	...........
	53	0.72	7.17843E-001	4.01589E-004	0.00000E+000	2.88278E-004	2.40040E-001	7.18105E-001	3.57800E+000	9	...........
	54	0.733333	7.23368E-001	4.00834E-004	0.00000E+000	2.89950E-004	2.40040E-001	7.23586E-001	3.57800E+000	9	...........
	55	0.746667	7.28922E-001	4.01531E-004	0.00000E+000	2.92684E-004	2.40040E-001	7.29174E-001	3.57800E+000	9	...........
	56	0.76	7.34489E-001	4.00688E-004	0.00000E+000	2.94301E-004	2.40040E-001	7.34754E-001	3.57800E+000	9	...........
	57	0.773333	7.39945E-001	4.01180E-004	0.00000E+000	2.96851E-004	2.40040E-001	7.40208E-001	3.57800E+000	9	...........
	58	0.786667	7.45402E-001	4.01186E-004	0.00000E+000	2.99045E-004	2.40040E-001	7.45630E-001	3.57800E+000	9	...........
	59	0.8	7.50893E-001	4.01899E-004	0.00000E+000	3.01783E-004	2.40040E-001	7.51157E-001	3.57800E+000	9	...........
	60	0.813333	7.56276E-001	4.01378E-004	0.00000E+000	3.03553E-004	2.40040E-001	7.56554E-001	3.57800E+000	9	...........
	61	0.826667	7.61583E-001	4.02590E-004	0.00000E+000	3.06606E-004	2.40040E-001	7.61835E-001	3.57800E+000	9	...........
	62	0.84	7.66921E-001	4.01606E-004	0.00000E+000	3.08000E-004	2.40040E-001	7.67185E-001	3.57800E+000	9	...........
	63	0.853333	7.72323E-001	4.01591E-004	0.00000E+000	3.10158E-004	2.40040E-001	7.72561E-001	3.57800E+000	9	...........
	64	0.866667	7.77618E-001	4.00834E-004	0.00000E+000	3.11695E-004	2.40040E-001	7.77887E-001	3.57800E+000	9	...........
	65	0.88	7.82863E-001	4.01148E-004	0.00000E+000	3.14044E-004	2.40040E-001	7.83107E-001	3.57800E+000	9	...........
	66	0.893333	7.88113E-001	4.00352E-004	0.00000E+000	3.15523E-004	2.40040E-001	7.88382E-001	3.57800E+000	9	...........
	67	0.906667	7.93308E-001	4.00499E-004	0.00000E+000	3.17719E-004	2.40040E-001	7.93556E-001	3.57800E+000	9	...........
	68	0.92	7.98534E-001	4.01795E-004	0.00000E+000	3.20847E-004	2.40040E-001	7.98762E-001	3.57800E+000	9	...........
	69	0.933333	8.03728E-001	4.01262E-004	0.00000E+000	3.22505E-004	2.40040E-001	8.03978E-001	3.57800E+000	9	...........
	70	0.946667	8.08834E-001	4.01331E-004	0.00000E+000	3.24610E-004	2.40040E-001	8.09105E-001	3.57800E+000	9	...........
	71	0.96	8.13926E-001	4.00507E-004	0.00000E+000	3.25983E-004	2.40040E-001	8.14212E-001	3.57800E+000	9	...........
	72	0.97333	8.18940E-001	4.01574E-004	0.00000E+000	3.28865E-004	2.40040E-001	8.19218E-001	3.57800E+000	9	...........
	73	0.98667	8.23948E-001	4.00905E-004	0.00000E+000	3.30325E-004	2.40040E-001	8.24221E-001	3.57800E+000	9	...........
	74	1	8.28962E-001	4.02148E-004	0.00000E+000	3.33366E-004	2.40040E-001	8.29253E-001	3.57800E+000	9	...........
	75	1.01333	8.34002E-001	4.01895E-004	0.00000E+000	3.35181E-004	2.40040E-001	8.34307E-001	3.57800E+000	9	...........
	76	1.02667	8.38925E-001	4.00122E-004	0.00000E+000	3.35672E-004	2.40040E-001	8.39257E-001	3.57800E+000	9	...........
	77	1.04	8.43887E-001	4.00383E-004	0.00000E+000	3.37878E-004	2.40040E-001	8.44184E-001	3.57800E+000	9	...........
	78	1.05333	8.48780E-001	4.00324E-004	0.00000E+000	3.39787E-004	2.40040E-001	8.49087E-001	3.57800E+000	9	...........
	79	1.06667	8.53623E-001	4.01750E-004	0.00000E+000	3.42943E-004	2.40040E-001	8.53919E-001	3.57800E+000	9	...........
	80	1.08	8.58325E-001	3.99493E-004	0.00000E+000	3.42894E-004	2.40040E-001	8.58647E-001	3.57800E+000	9	...........
	81	1.09333	8.63114E-001	3.99796E-004	0.00000E+000	3.45069E-004	2.40040E-001	8.63406E-001	3.57800E+000	9	...........
	82	1.10667	8.67906E-001	4.01735E-004	0.00000E+000	3.48668E-004	2.40040E-001	8.68179E-001	3.57800E+000	9	...........
	83	1.12	8.72615E-001	4.01709E-004	0.00000E+000	3.50537E-004	2.40040E-001	8.72882E-001	3.57800E+000	9	...........
	84	1.13333	8.77343E-001	4.02116E-004	0.00000E+000	3.52794E-004	2.40040E-001	8.77614E-001	3.57800E+000	9	...........
	85	1.14667	8.82039E-001	4.00902E-004	0.00000E+000	3.53611E-004	2.40040E-001	8.82308E-001	3.57800E+000	9	...........
	86	1.16	8.86602E-001	4.01406E-004	0.00000E+000	3.55887E-004	2.40040E-001	8.86879E-001	3.57800E+000	9	...........
	87	1.17333	8.91095E-001	4.00934E-004	0.00000E+000	3.57270E-004	2.40040E-001	8.91348E-001	3.57800E+000	9	...........
	88	1.18667	8.95620E-001	4.00573E-004	0.00000E+000	3.58761E-004	2.40040E-001	8.95892E-001	3.57800E+000	9	...........
	89	1.2	9.00158E-001	4.01473E-004	0.00000E+000	3.61389E-004	2.40040E-001	9.00440E-001	3.57800E+000	9	...........
	90	1.21333	9.04628E-001	4.00408E-004	0.00000E+000	3.62221E-004	2.40040E-001	9.04907E-001	3.57800E+000	9	...........
	91	1.22667	9.08991E-001	4.02828E-004	0.00000E+000	3.66167E-004	2.40040E-001	9.09277E-001	3.57800E+000	9	...........
	92	1.24	9.13365E-001	4.02018E-004	0.00000E+000	3.67189E-004	2.40040E-001	9.13685E-001	3.57800E+000	9	...........
	93	1.25333	9.17752E-001	4.00784E-004	0.00000E+000	3.67820E-004	2.40040E-001	9.18059E-001	3.57800E+000	9	...........
	94	1.26667	9.22146E-001	4.01385E-004	0.00000E+000	3.70135E-004	2.40040E-001	9.22418E-001	3.57800E+000	9	...........
	95	1.28	9.26384E-001	4.00044E-004	0.00000E+000	3.70594E-004	2.40040E-001	9.26669E-001	3.57800E+000	9	...........
	96	1.29333	9.30658E-001	4.00604E-004	0.00000E+000	3.72826E-004	2.40040E-001	9.30918E-001	3.57800E+000	9	...........
	97	1.30667	9.34934E-001	4.01137E-004	0.00000E+000	3.75037E-004	2.40040E-001	9.35225E-001	3.57800E+000	9	...........
	98	1.32	9.39116E-001	4.01552E-004	0.00000E+000	3.77104E-004	2.40040E-001	9.39399E-001	3.57800E+000	9	...........
	99	1.33333	9.43176E-001	4.00216E-004	0.00000E+000	3.77474E-004	2.40040E-001	9.43493E-001	3.57800E+000	9	...........
	100	1.34667	9.47274E-001	4.01425E-004	0.00000E+000	3.80260E-004	2.40040E-001	9.47568E-001	3.57800E+000	9	...........
	101	1.36	9.51276E-001	4.00702E-004	0.00000E+000	3.81178E-004	2.40040E-001	9.51599E-001	3.57800E+000	9	...........
	102	1.37333	9.55298E-001	4.01844E-004	0.00000E+000	3.83881E-004	2.40040E-001	9.55623E-001	3.57800E+000	9	...........
	103	1.38667	9.59301E-001	4.00784E-004	0.00000E+000	3.84472E-004	2.40040E-001	9.59610E-001	3.57800E+000	9	...........
	104	1.4	9.63135E-001	4.01213E-004	0.00000E+000	3.86422E-004	2.40040E-001	9.63493E-001	3.57800E+000	9	...........
	105	1.41333	9.66966E-001	3.99600E-004	0.00000E+000	3.86400E-004	2.40040E-001	9.67310E-001	3.57800E+000	9	...........
	106	1.42667	9.70815E-001	4.01286E-004	0.00000E+000	3.89574E-004	2.40040E-001	9.71180E-001	3.57800E+000	9	...........
	107	1.44	9.74673E-001	4.00579E-004	0.00000E+000	3.90434E-004	2.40040E-001	9.74998E-001	3.57800E+000	9	...........
	108	1.45333	9.78463E-001	4.01135E-004	0.00000E+000	3.92495E-004	2.40040E-001	9.78763E-001	3.57800E+000	9	...........
	109	1.46667	9.82184E-001	4.00105E-004	0.00000E+000	3.92977E-004	2.40040E-001	9.82504E-001	3.57800E+000	9	...........
	110	1.48	9.85896E-001	4.01147E-004	0.00000E+000	3.95489E-004	2.40040E-001	9.86229E-001	3.57800E+000	9	...........
	111	1.49333	9.89541E-001	4.01210E-004	0.00000E+000	3.97013E-004	2.40040E-001	9.89872E-001	3.57800E+000	9	...........
	112	1.50667	9.93196E-001	4.00802E-004	0.00000E+000	3.98075E-004	2.40040E-001	9.93534E-001	3.57800E+000	9	...........
	113	1.52	9.96730E-001	4.01014E-004	0.00000E+000	3.99702E-004	2.40040E-001	9.97079E-001	3.57800E+000	9	...........
	114	1.52667	9.99418E-001	3.99790E-004	0.00000E+000	3.99557E-004	2.40040E-001	9.99757E-001	3.57800E+000	9	...........
STARTTIMEOFFSET	QUANT	1844.8	Start Time Offset (s)
