EXPLAIN
TAG	PWR800_CHARGE
TITLE	LABEL	PWR Cyclic Charge Discharge (Cell) - Charge Step	Test &Identifier
DATE	LABEL	12-7-2017	Date
TIME	LABEL	15:23:50	Time
NOTES	NOTES	3	&Notes...
	supercap test cell
	0.4mg
	6M KOH
PSTAT	PSTAT	IFC5000-01520	Potentiostat
CAPACITY	QUANT	1.00000E-003	Capacity (A-hr)
CELLTYPE	SELECTOR	1	&Cell Type
WORKINGCONNECTION	SELECTOR	0	&Working Lead
MAXCHARGETIME	VARIABLEANDUNITS	1.00000E+002	s	1.00000E+002	second(s)	Max &Charge Time
CHARGECURRENT	QUANT	4.00000E-004	&Charge Current (A) 
VOLTAGEFINISH	TWOPARAM	F	1.00000E-003	3.60000E+003	&Voltage Finish	 I (A) < 	Max Time(s)
SAMPLETIME	QUANT	1.00000E-002	Sa&mple Period (s)
CHARGESTOPAT1	MULTIPARAM	4	1.00000E+000	Charge Stop At &1	Voltage > Limit	V
CHARGESTOPAT2	MULTIPARAM	0	0.00000E+000	Charge Stop At &2	None	N/A
AESBHCSELECTOR	TOGGLE	F	Save Both Half Cells
IRCOMP	TOGGLE	F	IR &Measure
EOC	QUANT	0	Open Circuit (V)
SEQUENCER	TOGGLE	TRUE	Run as Sequence
PSTATMODEL	IQUANT	53	Pstat Model
PSTATSECTION	LABEL	IFC5000-01520	Pstat Section
PSTATSERIALNO	LABEL	01520	Pstat Serial Number
CTRLMODE	IQUANT	0	Control Mode
ELECTROMETER	IQUANT	1	RE=0 or CS=1
IESTAB	IQUANT	0	I/E Stability
CASPEED	IQUANT	4	Control Amp Speed
CONVENTION	IQUANT	1	Current Convention
ICHRANGE	IQUANT	2	Ich Range
ICHRANGEMODE	TOGGLE	T	Ich Auto Range
ICHOFFSETENABLE	TOGGLE	F	Ich Offset Enable
ICHOFFSET	QUANT	0	Ich Offset (V)
ICHFILTER	IQUANT	1	Ich Filter
VCHRANGE	IQUANT	2	Vch Range
VCHRANGEMODE	TOGGLE	T	Vch Auto Range
VCHOFFSETENABLE	TOGGLE	F	Vch Offset Enable
VCHOFFSET	QUANT	0	Vch Offset (V)
VCHFILTER	IQUANT	1	Vch Filter
IERANGELOWERLIMIT	IQUANT	9	I/E Range Lower Limit
IERANGEMODE	TOGGLE	F	I/E AutoRange
IERANGE	IQUANT	9	I/E Range
ACHSELECT	IQUANT	1	Ach Select
ACHRANGE	IQUANT	2	Ach Range
ACHOFFSETENABLE	TOGGLE	F	Ach Offset Enable
ACHOFFSET	QUANT	0	Ach Offset (V)
ACHFILTER	IQUANT	1	Ach Filter
CABLEID	IQUANT	14	Cable ID
DCCALDATE	LABEL	5-7-2017	DC Calibration Date
ACCALDATE	LABEL	12/3/2015	AC Calibration Date
FRAMEWORKVERSION	QUANT	7.01	Framework Version
INSTRUMENTVERSION	LABEL	4.00	Instrument Version
CURVE	TABLE	104
	Pt	T	Vf	Im	Vu	Pwr	Sig	Ach	Temp	IERange	Over
	#	s	V	A	V	W	V	V	deg C	#	bits
	0	0.013333	3.92828E-001	4.02068E-004	0.00000E+000	1.57944E-004	2.40040E-001	3.92932E-001	3.57660E+000	9	...........
	1	0.026667	4.06006E-001	4.01483E-004	0.00000E+000	1.63004E-004	2.40040E-001	4.06086E-001	3.57660E+000	9	...........
	2	0.04	4.17130E-001	4.01363E-004	0.00000E+000	1.67421E-004	2.40040E-001	4.17214E-001	3.57660E+000	9	...........
	3	0.053333	4.27225E-001	4.01525E-004	0.00000E+000	1.71542E-004	2.40040E-001	4.27308E-001	3.57660E+000	9	...........
	4	0.066667	4.36563E-001	4.01956E-004	0.00000E+000	1.75479E-004	2.40040E-001	4.36650E-001	3.57660E+000	9	...........
	5	0.08	4.45420E-001	3.99941E-004	0.00000E+000	1.78142E-004	2.40040E-001	4.45512E-001	3.57660E+000	9	...........
	6	0.093333	4.53919E-001	4.02455E-004	0.00000E+000	1.82682E-004	2.40040E-001	4.54006E-001	3.57660E+000	9	...........
	7	0.106667	4.62166E-001	4.00892E-004	0.00000E+000	1.85278E-004	2.40040E-001	4.62255E-001	3.57660E+000	9	...........
	8	0.12	4.70156E-001	4.00336E-004	0.00000E+000	1.88220E-004	2.40040E-001	4.70249E-001	3.57660E+000	9	...........
	9	0.133333	4.78016E-001	4.00538E-004	0.00000E+000	1.91463E-004	2.40040E-001	4.78118E-001	3.57660E+000	9	...........
	10	0.146667	4.85651E-001	3.99783E-004	0.00000E+000	1.94155E-004	2.40040E-001	4.85754E-001	3.57660E+000	9	...........
	11	0.16	4.93223E-001	4.00097E-004	0.00000E+000	1.97337E-004	2.40040E-001	4.93327E-001	3.57660E+000	9	...........
	12	0.173333	5.00620E-001	4.01182E-004	0.00000E+000	2.00839E-004	2.40040E-001	5.00728E-001	3.57660E+000	9	...........
	13	0.186667	5.07960E-001	4.00006E-004	0.00000E+000	2.03187E-004	2.40040E-001	5.08067E-001	3.57660E+000	9	...........
	14	0.2	5.15172E-001	4.00532E-004	0.00000E+000	2.06343E-004	2.40040E-001	5.15281E-001	3.57660E+000	9	...........
	15	0.213333	5.22280E-001	4.00947E-004	0.00000E+000	2.09407E-004	2.40040E-001	5.22387E-001	3.57660E+000	9	...........
	16	0.226667	5.29272E-001	4.00445E-004	0.00000E+000	2.11944E-004	2.40040E-001	5.29386E-001	3.57660E+000	9	...........
	17	0.24	5.36024E-001	3.98723E-004	0.00000E+000	2.13725E-004	2.40040E-001	5.36225E-001	3.57660E+000	9	...........
	18	0.253333	5.42913E-001	4.01923E-004	0.00000E+000	2.18210E-004	2.40040E-001	5.43111E-001	3.57660E+000	9	...........
	19	0.266667	5.49821E-001	4.02531E-004	0.00000E+000	2.21320E-004	2.40040E-001	5.50001E-001	3.57660E+000	9	...........
	20	0.28	5.56593E-001	4.02167E-004	0.00000E+000	2.23844E-004	2.40040E-001	5.56766E-001	3.57660E+000	9	...........
	21	0.293333	5.63372E-001	4.01097E-004	0.00000E+000	2.25967E-004	2.40040E-001	5.63546E-001	3.57660E+000	9	...........
	22	0.306667	5.70095E-001	4.01034E-004	0.00000E+000	2.28627E-004	2.40040E-001	5.70310E-001	3.57660E+000	9	...........
	23	0.32	5.76701E-001	4.01165E-004	0.00000E+000	2.31352E-004	2.40040E-001	5.76918E-001	3.57660E+000	9	...........
	24	0.333333	5.83243E-001	4.01371E-004	0.00000E+000	2.34097E-004	2.40040E-001	5.83456E-001	3.57660E+000	9	...........
	25	0.346667	5.89806E-001	4.01287E-004	0.00000E+000	2.36681E-004	2.40040E-001	5.90023E-001	3.57660E+000	9	...........
	26	0.36	5.96376E-001	4.01428E-004	0.00000E+000	2.39402E-004	2.40040E-001	5.96576E-001	3.57660E+000	9	...........
	27	0.373333	6.02847E-001	4.00530E-004	0.00000E+000	2.41458E-004	2.40040E-001	6.03085E-001	3.57660E+000	9	...........
	28	0.386667	6.09265E-001	4.00392E-004	0.00000E+000	2.43945E-004	2.40040E-001	6.09529E-001	3.57670E+000	9	...........
	29	0.4	6.15778E-001	4.00154E-004	0.00000E+000	2.46406E-004	2.40040E-001	6.16009E-001	3.57670E+000	9	...........
	30	0.413333	6.22254E-001	4.00884E-004	0.00000E+000	2.49451E-004	2.40040E-001	6.22449E-001	3.57670E+000	9	...........
	31	0.426667	6.28632E-001	4.00457E-004	0.00000E+000	2.51741E-004	2.40040E-001	6.28831E-001	3.57670E+000	9	...........
	32	0.44	6.34949E-001	4.00869E-004	0.00000E+000	2.54531E-004	2.40040E-001	6.35183E-001	3.57670E+000	9	...........
	33	0.453333	6.41262E-001	4.00811E-004	0.00000E+000	2.57025E-004	2.40040E-001	6.41496E-001	3.57670E+000	9	...........
	34	0.466667	6.47466E-001	4.00586E-004	0.00000E+000	2.59365E-004	2.40040E-001	6.47721E-001	3.57670E+000	9	...........
	35	0.48	6.53808E-001	4.01030E-004	0.00000E+000	2.62197E-004	2.40040E-001	6.54042E-001	3.57670E+000	9	...........
	36	0.493333	6.60044E-001	4.00865E-004	0.00000E+000	2.64588E-004	2.40040E-001	6.60280E-001	3.57670E+000	9	...........
	37	0.506667	6.66186E-001	4.00308E-004	0.00000E+000	2.66680E-004	2.40040E-001	6.66423E-001	3.57670E+000	9	...........
	38	0.52	6.72385E-001	4.00404E-004	0.00000E+000	2.69226E-004	2.40040E-001	6.72610E-001	3.57670E+000	9	...........
	39	0.533333	6.78597E-001	4.01505E-004	0.00000E+000	2.72460E-004	2.40040E-001	6.78847E-001	3.57670E+000	9	...........
	40	0.546667	6.84727E-001	4.01331E-004	0.00000E+000	2.74802E-004	2.40040E-001	6.84958E-001	3.57670E+000	9	...........
	41	0.56	6.90708E-001	4.01987E-004	0.00000E+000	2.77656E-004	2.40040E-001	6.90974E-001	3.57670E+000	9	...........
	42	0.573333	6.96724E-001	4.01189E-004	0.00000E+000	2.79518E-004	2.40040E-001	6.96988E-001	3.57670E+000	9	...........
	43	0.586667	7.02720E-001	4.01279E-004	0.00000E+000	2.81987E-004	2.40040E-001	7.02980E-001	3.57670E+000	9	...........
	44	0.6	7.08711E-001	4.00549E-004	0.00000E+000	2.83873E-004	2.40040E-001	7.08968E-001	3.57670E+000	9	...........
	45	0.613333	7.14709E-001	4.01043E-004	0.00000E+000	2.86629E-004	2.40040E-001	7.14965E-001	3.57670E+000	9	...........
	46	0.626667	7.20760E-001	4.00972E-004	0.00000E+000	2.89005E-004	2.40040E-001	7.20990E-001	3.57670E+000	9	...........
	47	0.64	7.26659E-001	3.99744E-004	0.00000E+000	2.90477E-004	2.40040E-001	7.26900E-001	3.57670E+000	9	...........
	48	0.653333	7.32578E-001	4.00858E-004	0.00000E+000	2.93660E-004	2.40040E-001	7.32839E-001	3.57670E+000	9	...........
	49	0.666667	7.38437E-001	4.01327E-004	0.00000E+000	2.96355E-004	2.40040E-001	7.38690E-001	3.57670E+000	9	...........
	50	0.68	7.44277E-001	4.00973E-004	0.00000E+000	2.98435E-004	2.40040E-001	7.44523E-001	3.57670E+000	9	...........
	51	0.693333	7.50014E-001	4.01699E-004	0.00000E+000	3.01280E-004	2.40040E-001	7.50247E-001	3.57670E+000	9	...........
	52	0.706667	7.55740E-001	4.01496E-004	0.00000E+000	3.03427E-004	2.40040E-001	7.55985E-001	3.57670E+000	9	...........
	53	0.72	7.61482E-001	4.00425E-004	0.00000E+000	3.04916E-004	2.40040E-001	7.61729E-001	3.57670E+000	9	...........
	54	0.733333	7.67157E-001	4.01513E-004	0.00000E+000	3.08024E-004	2.40040E-001	7.67442E-001	3.57670E+000	9	...........
	55	0.746667	7.72856E-001	3.99881E-004	0.00000E+000	3.09051E-004	2.40040E-001	7.73116E-001	3.57670E+000	9	...........
	56	0.76	7.78457E-001	4.00508E-004	0.00000E+000	3.11778E-004	2.40040E-001	7.78724E-001	3.57670E+000	9	...........
	57	0.773333	7.84132E-001	4.01362E-004	0.00000E+000	3.14721E-004	2.40040E-001	7.84421E-001	3.57670E+000	9	...........
	58	0.786667	7.89658E-001	4.01343E-004	0.00000E+000	3.16924E-004	2.40040E-001	7.89946E-001	3.57670E+000	9	...........
	59	0.8	7.95183E-001	4.00679E-004	0.00000E+000	3.18613E-004	2.40040E-001	7.95475E-001	3.57670E+000	9	...........
	60	0.813333	8.00676E-001	4.00263E-004	0.00000E+000	3.20481E-004	2.40040E-001	8.00975E-001	3.57670E+000	9	...........
	61	0.826667	8.06083E-001	4.00916E-004	0.00000E+000	3.23171E-004	2.40040E-001	8.06353E-001	3.57670E+000	9	...........
	62	0.84	8.11499E-001	4.00732E-004	0.00000E+000	3.25194E-004	2.40040E-001	8.11781E-001	3.57670E+000	9	...........
	63	0.853333	8.16911E-001	4.01090E-004	0.00000E+000	3.27655E-004	2.40040E-001	8.17212E-001	3.57670E+000	9	...........
	64	0.866667	8.22224E-001	4.01738E-004	0.00000E+000	3.30319E-004	2.40040E-001	8.22517E-001	3.57670E+000	9	...........
	65	0.88	8.27491E-001	4.02583E-004	0.00000E+000	3.33134E-004	2.40040E-001	8.27760E-001	3.57670E+000	9	...........
	66	0.893333	8.32739E-001	4.01146E-004	0.00000E+000	3.34050E-004	2.40040E-001	8.33062E-001	3.57670E+000	9	...........
	67	0.906667	8.37941E-001	4.01194E-004	0.00000E+000	3.36177E-004	2.40040E-001	8.38257E-001	3.57670E+000	9	...........
	68	0.92	8.43182E-001	4.01538E-004	0.00000E+000	3.38569E-004	2.40040E-001	8.43437E-001	3.57670E+000	9	...........
	69	0.933333	8.48296E-001	4.01538E-004	0.00000E+000	3.40623E-004	2.40040E-001	8.48583E-001	3.57670E+000	9	...........
	70	0.946667	8.53433E-001	4.00319E-004	0.00000E+000	3.41645E-004	2.40040E-001	8.53686E-001	3.57670E+000	9	...........
	71	0.96	8.58451E-001	4.01036E-004	0.00000E+000	3.44270E-004	2.40040E-001	8.58723E-001	3.57670E+000	9	...........
	72	0.97333	8.63471E-001	4.02405E-004	0.00000E+000	3.47465E-004	2.40040E-001	8.63752E-001	3.57670E+000	9	...........
	73	0.98667	8.68474E-001	4.01028E-004	0.00000E+000	3.48283E-004	2.40040E-001	8.68767E-001	3.57670E+000	9	...........
	74	1	8.73375E-001	4.00059E-004	0.00000E+000	3.49402E-004	2.40040E-001	8.73662E-001	3.57670E+000	9	...........
	75	1.01333	8.78225E-001	4.00151E-004	0.00000E+000	3.51423E-004	2.40040E-001	8.78506E-001	3.57670E+000	9	...........
	76	1.02667	8.83105E-001	4.00352E-004	0.00000E+000	3.53553E-004	2.40040E-001	8.83417E-001	3.57670E+000	9	...........
	77	1.04	8.87915E-001	4.00820E-004	0.00000E+000	3.55894E-004	2.40040E-001	8.88217E-001	3.57670E+000	9	...........
	78	1.05333	8.92664E-001	4.00925E-004	0.00000E+000	3.57891E-004	2.40040E-001	8.92995E-001	3.57670E+000	9	...........
	79	1.06667	8.97346E-001	4.00310E-004	0.00000E+000	3.59217E-004	2.40040E-001	8.97670E-001	3.57670E+000	9	...........
	80	1.08	9.02040E-001	4.00217E-004	0.00000E+000	3.61011E-004	2.40040E-001	9.02367E-001	3.57670E+000	9	...........
	81	1.09333	9.06720E-001	4.01374E-004	0.00000E+000	3.63934E-004	2.40040E-001	9.07078E-001	3.57670E+000	9	...........
	82	1.10667	9.11386E-001	4.01341E-004	0.00000E+000	3.65776E-004	2.40040E-001	9.11700E-001	3.57670E+000	9	...........
	83	1.12	9.15922E-001	4.01593E-004	0.00000E+000	3.67828E-004	2.40040E-001	9.16265E-001	3.57670E+000	9	...........
	84	1.13333	9.20475E-001	4.00802E-004	0.00000E+000	3.68929E-004	2.40040E-001	9.20792E-001	3.57670E+000	9	...........
	85	1.14667	9.25022E-001	4.01523E-004	0.00000E+000	3.71418E-004	2.40040E-001	9.25303E-001	3.57670E+000	9	...........
	86	1.16	9.29506E-001	4.01917E-004	0.00000E+000	3.73584E-004	2.40040E-001	9.29760E-001	3.57670E+000	9	...........
	87	1.17333	9.33895E-001	4.00641E-004	0.00000E+000	3.74157E-004	2.40040E-001	9.34149E-001	3.57670E+000	9	...........
	88	1.18667	9.38263E-001	4.00855E-004	0.00000E+000	3.76108E-004	2.40040E-001	9.38500E-001	3.57670E+000	9	...........
	89	1.2	9.42527E-001	4.01291E-004	0.00000E+000	3.78228E-004	2.40040E-001	9.42793E-001	3.57670E+000	9	...........
	90	1.21333	9.46799E-001	4.00325E-004	0.00000E+000	3.79027E-004	2.40040E-001	9.47095E-001	3.57670E+000	9	...........
	91	1.22667	9.51054E-001	4.00729E-004	0.00000E+000	3.81115E-004	2.40040E-001	9.51354E-001	3.57670E+000	9	...........
	92	1.24	9.55286E-001	4.01707E-004	0.00000E+000	3.83745E-004	2.40040E-001	9.55559E-001	3.57670E+000	9	...........
	93	1.25333	9.59421E-001	4.00694E-004	0.00000E+000	3.84434E-004	2.40040E-001	9.59725E-001	3.57670E+000	9	...........
	94	1.26667	9.63501E-001	4.02081E-004	0.00000E+000	3.87405E-004	2.40040E-001	9.63835E-001	3.57670E+000	9	...........
	95	1.28	9.67542E-001	4.01304E-004	0.00000E+000	3.88279E-004	2.40040E-001	9.67865E-001	3.57670E+000	9	...........
	96	1.29333	9.71497E-001	3.99894E-004	0.00000E+000	3.88495E-004	2.40040E-001	9.71843E-001	3.57670E+000	9	...........
	97	1.30667	9.75529E-001	4.01338E-004	0.00000E+000	3.91517E-004	2.40040E-001	9.75840E-001	3.57670E+000	9	...........
	98	1.32	9.79462E-001	4.01282E-004	0.00000E+000	3.93040E-004	2.40040E-001	9.79760E-001	3.57670E+000	9	...........
	99	1.33333	9.83365E-001	4.02932E-004	0.00000E+000	3.96229E-004	2.40040E-001	9.83679E-001	3.57670E+000	9	...........
	100	1.34667	9.87228E-001	4.00940E-004	0.00000E+000	3.95819E-004	2.40040E-001	9.87530E-001	3.57670E+000	9	...........
	101	1.36	9.90981E-001	4.00330E-004	0.00000E+000	3.96720E-004	2.40040E-001	9.91306E-001	3.57670E+000	9	...........
	102	1.37333	9.94682E-001	4.00868E-004	0.00000E+000	3.98736E-004	2.40040E-001	9.94992E-001	3.57670E+000	9	...........
	103	1.38667	9.98453E-001	4.01514E-004	0.00000E+000	4.00893E-004	2.40040E-001	9.98777E-001	3.57640E+000	9	...........
STARTTIMEOFFSET	QUANT	3085.501	Start Time Offset (s)
