EXPLAIN
TAG	PWR800_CHARGE
TITLE	LABEL	PWR Cyclic Charge Discharge (Cell) - Charge Step	Test &Identifier
DATE	LABEL	12-7-2017	Date
TIME	LABEL	14:55:36	Time
NOTES	NOTES	3	&Notes...
	supercap test cell
	0.4mg
	6M KOH
PSTAT	PSTAT	IFC5000-01520	Potentiostat
CAPACITY	QUANT	1.00000E-003	Capacity (A-hr)
CELLTYPE	SELECTOR	1	&Cell Type
WORKINGCONNECTION	SELECTOR	0	&Working Lead
MAXCHARGETIME	VARIABLEANDUNITS	1.00000E+002	s	1.00000E+002	second(s)	Max &Charge Time
CHARGECURRENT	QUANT	4.00000E-004	&Charge Current (A) 
VOLTAGEFINISH	TWOPARAM	F	1.00000E-003	3.60000E+003	&Voltage Finish	 I (A) < 	Max Time(s)
SAMPLETIME	QUANT	1.00000E-002	Sa&mple Period (s)
CHARGESTOPAT1	MULTIPARAM	4	1.00000E+000	Charge Stop At &1	Voltage > Limit	V
CHARGESTOPAT2	MULTIPARAM	0	0.00000E+000	Charge Stop At &2	None	N/A
AESBHCSELECTOR	TOGGLE	F	Save Both Half Cells
IRCOMP	TOGGLE	F	IR &Measure
EOC	QUANT	0	Open Circuit (V)
SEQUENCER	TOGGLE	TRUE	Run as Sequence
PSTATMODEL	IQUANT	53	Pstat Model
PSTATSECTION	LABEL	IFC5000-01520	Pstat Section
PSTATSERIALNO	LABEL	01520	Pstat Serial Number
CTRLMODE	IQUANT	0	Control Mode
ELECTROMETER	IQUANT	1	RE=0 or CS=1
IESTAB	IQUANT	0	I/E Stability
CASPEED	IQUANT	4	Control Amp Speed
CONVENTION	IQUANT	1	Current Convention
ICHRANGE	IQUANT	2	Ich Range
ICHRANGEMODE	TOGGLE	T	Ich Auto Range
ICHOFFSETENABLE	TOGGLE	F	Ich Offset Enable
ICHOFFSET	QUANT	0	Ich Offset (V)
ICHFILTER	IQUANT	1	Ich Filter
VCHRANGE	IQUANT	2	Vch Range
VCHRANGEMODE	TOGGLE	T	Vch Auto Range
VCHOFFSETENABLE	TOGGLE	F	Vch Offset Enable
VCHOFFSET	QUANT	0	Vch Offset (V)
VCHFILTER	IQUANT	1	Vch Filter
IERANGELOWERLIMIT	IQUANT	9	I/E Range Lower Limit
IERANGEMODE	TOGGLE	F	I/E AutoRange
IERANGE	IQUANT	9	I/E Range
ACHSELECT	IQUANT	1	Ach Select
ACHRANGE	IQUANT	2	Ach Range
ACHOFFSETENABLE	TOGGLE	F	Ach Offset Enable
ACHOFFSET	QUANT	0	Ach Offset (V)
ACHFILTER	IQUANT	1	Ach Filter
CABLEID	IQUANT	14	Cable ID
DCCALDATE	LABEL	5-7-2017	DC Calibration Date
ACCALDATE	LABEL	12/3/2015	AC Calibration Date
FRAMEWORKVERSION	QUANT	7.01	Framework Version
INSTRUMENTVERSION	LABEL	4.00	Instrument Version
CURVE	TABLE	116
	Pt	T	Vf	Im	Vu	Pwr	Sig	Ach	Temp	IERange	Over
	#	s	V	A	V	W	V	V	deg C	#	bits
	0	0.013333	3.68845E-001	4.00572E-004	0.00000E+000	1.47749E-004	2.40040E-001	3.68941E-001	3.57660E+000	9	...........
	1	0.026667	3.80647E-001	4.01299E-004	0.00000E+000	1.52753E-004	2.40040E-001	3.80719E-001	3.57660E+000	9	...........
	2	0.04	3.90838E-001	4.01364E-004	0.00000E+000	1.56868E-004	2.40040E-001	3.90910E-001	3.57660E+000	9	...........
	3	0.053333	4.00059E-001	4.01657E-004	0.00000E+000	1.60686E-004	2.40040E-001	4.00135E-001	3.57660E+000	9	...........
	4	0.066667	4.08700E-001	4.00671E-004	0.00000E+000	1.63754E-004	2.40040E-001	4.08778E-001	3.57660E+000	9	...........
	5	0.08	4.16936E-001	4.01210E-004	0.00000E+000	1.67279E-004	2.40040E-001	4.17016E-001	3.57660E+000	9	...........
	6	0.093333	4.24743E-001	4.00210E-004	0.00000E+000	1.69987E-004	2.40040E-001	4.24831E-001	3.57660E+000	9	...........
	7	0.106667	4.32329E-001	4.01745E-004	0.00000E+000	1.73686E-004	2.40040E-001	4.32418E-001	3.57660E+000	9	...........
	8	0.12	4.39723E-001	4.01056E-004	0.00000E+000	1.76354E-004	2.40040E-001	4.39810E-001	3.57660E+000	9	...........
	9	0.133333	4.47026E-001	4.00431E-004	0.00000E+000	1.79003E-004	2.40040E-001	4.47117E-001	3.57660E+000	9	...........
	10	0.146667	4.54181E-001	4.01652E-004	0.00000E+000	1.82423E-004	2.40040E-001	4.54266E-001	3.57660E+000	9	...........
	11	0.16	4.61239E-001	3.99891E-004	0.00000E+000	1.84445E-004	2.40040E-001	4.61323E-001	3.57660E+000	9	...........
	12	0.173333	4.68148E-001	4.01883E-004	0.00000E+000	1.88141E-004	2.40040E-001	4.68246E-001	3.57660E+000	9	...........
	13	0.186667	4.74953E-001	3.99966E-004	0.00000E+000	1.89965E-004	2.40040E-001	4.75046E-001	3.57660E+000	9	...........
	14	0.2	4.81667E-001	4.00939E-004	0.00000E+000	1.93119E-004	2.40040E-001	4.81762E-001	3.57660E+000	9	...........
	15	0.213333	4.88253E-001	4.01442E-004	0.00000E+000	1.96005E-004	2.40040E-001	4.88347E-001	3.57660E+000	9	...........
	16	0.226667	4.94779E-001	4.01272E-004	0.00000E+000	1.98541E-004	2.40040E-001	4.94887E-001	3.57660E+000	9	...........
	17	0.24	5.01265E-001	4.01466E-004	0.00000E+000	2.01241E-004	2.40040E-001	5.01367E-001	3.57660E+000	9	...........
	18	0.253333	5.07824E-001	3.99717E-004	0.00000E+000	2.02986E-004	2.40040E-001	5.07925E-001	3.57660E+000	9	...........
	19	0.266667	5.14200E-001	4.00324E-004	0.00000E+000	2.05847E-004	2.40040E-001	5.14312E-001	3.57660E+000	9	...........
	20	0.28	5.20590E-001	4.00871E-004	0.00000E+000	2.08689E-004	2.40040E-001	5.20697E-001	3.57660E+000	9	...........
	21	0.293333	5.26905E-001	4.00888E-004	0.00000E+000	2.11230E-004	2.40040E-001	5.27011E-001	3.57660E+000	9	...........
	22	0.306667	5.33128E-001	4.00289E-004	0.00000E+000	2.13405E-004	2.40040E-001	5.33256E-001	3.57660E+000	9	...........
	23	0.32	5.39244E-001	4.01502E-004	0.00000E+000	2.16508E-004	2.40040E-001	5.39470E-001	3.57660E+000	9	...........
	24	0.333333	5.45437E-001	4.00539E-004	0.00000E+000	2.18469E-004	2.40040E-001	5.45639E-001	3.57660E+000	9	...........
	25	0.346667	5.51622E-001	4.01793E-004	0.00000E+000	2.21638E-004	2.40040E-001	5.51840E-001	3.57660E+000	9	...........
	26	0.36	5.57721E-001	3.99246E-004	0.00000E+000	2.22668E-004	2.40040E-001	5.57932E-001	3.57660E+000	9	...........
	27	0.373333	5.63856E-001	4.01062E-004	0.00000E+000	2.26141E-004	2.40040E-001	5.64071E-001	3.57660E+000	9	...........
	28	0.386667	5.70006E-001	4.01013E-004	0.00000E+000	2.28580E-004	2.40040E-001	5.70210E-001	3.57660E+000	9	...........
	29	0.4	5.76058E-001	4.00182E-004	0.00000E+000	2.30528E-004	2.40040E-001	5.76293E-001	3.57660E+000	9	...........
	30	0.413333	5.82093E-001	4.01155E-004	0.00000E+000	2.33510E-004	2.40040E-001	5.82350E-001	3.57660E+000	9	...........
	31	0.426667	5.88015E-001	4.00283E-004	0.00000E+000	2.35373E-004	2.40040E-001	5.88270E-001	3.57660E+000	9	...........
	32	0.44	5.94043E-001	3.99980E-004	0.00000E+000	2.37606E-004	2.40040E-001	5.94257E-001	3.57660E+000	9	...........
	33	0.453333	5.99997E-001	4.01292E-004	0.00000E+000	2.40774E-004	2.40040E-001	6.00215E-001	3.57660E+000	9	...........
	34	0.466667	6.05943E-001	4.01168E-004	0.00000E+000	2.43085E-004	2.40040E-001	6.06160E-001	3.57660E+000	9	...........
	35	0.48	6.11839E-001	4.01442E-004	0.00000E+000	2.45618E-004	2.40040E-001	6.12062E-001	3.57660E+000	9	...........
	36	0.493333	6.17810E-001	4.00323E-004	0.00000E+000	2.47323E-004	2.40040E-001	6.17983E-001	3.57660E+000	9	...........
	37	0.506667	6.23702E-001	4.00737E-004	0.00000E+000	2.49940E-004	2.40040E-001	6.23877E-001	3.57660E+000	9	...........
	38	0.52	6.29533E-001	4.00264E-004	0.00000E+000	2.51979E-004	2.40040E-001	6.29731E-001	3.57660E+000	9	...........
	39	0.533333	6.35312E-001	4.01167E-004	0.00000E+000	2.54866E-004	2.40040E-001	6.35523E-001	3.57660E+000	9	...........
	40	0.546667	6.41187E-001	4.01409E-004	0.00000E+000	2.57378E-004	2.40040E-001	6.41411E-001	3.57660E+000	9	...........
	41	0.56	6.46991E-001	4.00158E-004	0.00000E+000	2.58899E-004	2.40040E-001	6.47221E-001	3.57660E+000	9	...........
	42	0.573333	6.52770E-001	4.00745E-004	0.00000E+000	2.61594E-004	2.40040E-001	6.53008E-001	3.57660E+000	9	...........
	43	0.586667	6.58581E-001	3.99877E-004	0.00000E+000	2.63351E-004	2.40040E-001	6.58778E-001	3.57660E+000	9	...........
	44	0.6	6.64283E-001	4.01078E-004	0.00000E+000	2.66430E-004	2.40040E-001	6.64539E-001	3.57660E+000	9	...........
	45	0.613333	6.70057E-001	4.02495E-004	0.00000E+000	2.69695E-004	2.40040E-001	6.70264E-001	3.57660E+000	9	...........
	46	0.626667	6.75694E-001	4.00028E-004	0.00000E+000	2.70296E-004	2.40040E-001	6.75934E-001	3.57660E+000	9	...........
	47	0.64	6.81352E-001	4.01843E-004	0.00000E+000	2.73797E-004	2.40040E-001	6.81602E-001	3.57660E+000	9	...........
	48	0.653333	6.87008E-001	4.00018E-004	0.00000E+000	2.74815E-004	2.40040E-001	6.87254E-001	3.57660E+000	9	...........
	49	0.666667	6.92712E-001	3.99952E-004	0.00000E+000	2.77052E-004	2.40040E-001	6.92938E-001	3.57660E+000	9	...........
	50	0.68	6.98338E-001	4.00966E-004	0.00000E+000	2.80010E-004	2.40040E-001	6.98593E-001	3.57660E+000	9	...........
	51	0.693333	7.03888E-001	4.02010E-004	0.00000E+000	2.82970E-004	2.40040E-001	7.04128E-001	3.57660E+000	9	...........
	52	0.706667	7.09447E-001	4.01420E-004	0.00000E+000	2.84786E-004	2.40040E-001	7.09683E-001	3.57660E+000	9	...........
	53	0.72	7.14969E-001	4.01575E-004	0.00000E+000	2.87114E-004	2.40040E-001	7.15214E-001	3.57660E+000	9	...........
	54	0.733333	7.20504E-001	4.01684E-004	0.00000E+000	2.89415E-004	2.40040E-001	7.20719E-001	3.57660E+000	9	...........
	55	0.746667	7.25999E-001	4.00835E-004	0.00000E+000	2.91005E-004	2.40040E-001	7.26211E-001	3.57660E+000	9	...........
	56	0.76	7.31504E-001	4.00885E-004	0.00000E+000	2.93249E-004	2.40040E-001	7.31723E-001	3.57660E+000	9	...........
	57	0.773333	7.36954E-001	4.00925E-004	0.00000E+000	2.95463E-004	2.40040E-001	7.37151E-001	3.57660E+000	9	...........
	58	0.786667	7.42368E-001	4.00309E-004	0.00000E+000	2.97177E-004	2.40040E-001	7.42601E-001	3.57660E+000	9	...........
	59	0.8	7.47842E-001	4.01024E-004	0.00000E+000	2.99903E-004	2.40040E-001	7.48030E-001	3.57660E+000	9	...........
	60	0.813333	7.53237E-001	4.01192E-004	0.00000E+000	3.02193E-004	2.40040E-001	7.53462E-001	3.57660E+000	9	...........
	61	0.826667	7.58683E-001	4.01767E-004	0.00000E+000	3.04814E-004	2.40040E-001	7.58906E-001	3.57660E+000	9	...........
	62	0.84	7.64068E-001	3.99854E-004	0.00000E+000	3.05516E-004	2.40040E-001	7.64304E-001	3.57660E+000	9	...........
	63	0.853333	7.69368E-001	4.00364E-004	0.00000E+000	3.08027E-004	2.40040E-001	7.69622E-001	3.57660E+000	9	...........
	64	0.866667	7.74638E-001	4.00867E-004	0.00000E+000	3.10527E-004	2.40040E-001	7.74881E-001	3.57660E+000	9	...........
	65	0.88	7.79852E-001	4.00605E-004	0.00000E+000	3.12413E-004	2.40040E-001	7.80114E-001	3.57660E+000	9	...........
	66	0.893333	7.85082E-001	4.00893E-004	0.00000E+000	3.14734E-004	2.40040E-001	7.85347E-001	3.57660E+000	9	...........
	67	0.906667	7.90235E-001	4.01005E-004	0.00000E+000	3.16888E-004	2.40040E-001	7.90526E-001	3.57660E+000	9	...........
	68	0.92	7.95459E-001	4.01550E-004	0.00000E+000	3.19417E-004	2.40040E-001	7.95705E-001	3.57660E+000	9	...........
	69	0.933333	8.00601E-001	4.01086E-004	0.00000E+000	3.21110E-004	2.40040E-001	8.00891E-001	3.57660E+000	9	...........
	70	0.946667	8.05667E-001	4.01426E-004	0.00000E+000	3.23416E-004	2.40040E-001	8.05956E-001	3.57660E+000	9	...........
	71	0.96	8.10739E-001	4.01473E-004	0.00000E+000	3.25490E-004	2.40040E-001	8.11046E-001	3.57660E+000	9	...........
	72	0.97333	8.15765E-001	3.99938E-004	0.00000E+000	3.26255E-004	2.40040E-001	8.16083E-001	3.57660E+000	9	...........
	73	0.98667	8.20861E-001	4.01005E-004	0.00000E+000	3.29170E-004	2.40040E-001	8.21193E-001	3.57660E+000	9	...........
	74	1	8.25898E-001	4.01338E-004	0.00000E+000	3.31464E-004	2.40040E-001	8.26218E-001	3.57641E+000	9	...........
	75	1.01333	8.30810E-001	4.00837E-004	0.00000E+000	3.33019E-004	2.40040E-001	8.31131E-001	3.57640E+000	9	...........
	76	1.02667	8.35743E-001	4.00750E-004	0.00000E+000	3.34924E-004	2.40040E-001	8.36081E-001	3.57640E+000	9	...........
	77	1.04	8.40717E-001	4.00586E-004	0.00000E+000	3.36779E-004	2.40040E-001	8.41020E-001	3.57640E+000	9	...........
	78	1.05333	8.45561E-001	3.99859E-004	0.00000E+000	3.38106E-004	2.40040E-001	8.45878E-001	3.57640E+000	9	...........
	79	1.06667	8.50362E-001	4.00169E-004	0.00000E+000	3.40288E-004	2.40040E-001	8.50668E-001	3.57640E+000	9	...........
	80	1.08	8.55150E-001	4.01508E-004	0.00000E+000	3.43349E-004	2.40040E-001	8.55469E-001	3.57640E+000	9	...........
	81	1.09333	8.59910E-001	4.02110E-004	0.00000E+000	3.45778E-004	2.40040E-001	8.60222E-001	3.57640E+000	9	...........
	82	1.10667	8.64621E-001	4.01001E-004	0.00000E+000	3.46714E-004	2.40040E-001	8.64938E-001	3.57640E+000	9	...........
	83	1.12	8.69402E-001	4.00077E-004	0.00000E+000	3.47828E-004	2.40040E-001	8.69706E-001	3.57640E+000	9	...........
	84	1.13333	8.74104E-001	4.01174E-004	0.00000E+000	3.50668E-004	2.40040E-001	8.74419E-001	3.57640E+000	9	...........
	85	1.14667	8.78741E-001	4.01137E-004	0.00000E+000	3.52495E-004	2.40040E-001	8.79044E-001	3.57640E+000	9	...........
	86	1.16	8.83387E-001	4.01210E-004	0.00000E+000	3.54423E-004	2.40040E-001	8.83681E-001	3.57640E+000	9	...........
	87	1.17333	8.87946E-001	4.01686E-004	0.00000E+000	3.56675E-004	2.40040E-001	8.88231E-001	3.57640E+000	9	...........
	88	1.18667	8.92361E-001	4.02274E-004	0.00000E+000	3.58974E-004	2.40040E-001	8.92657E-001	3.57640E+000	9	...........
	89	1.2	8.96848E-001	4.00181E-004	0.00000E+000	3.58902E-004	2.40040E-001	8.97153E-001	3.57640E+000	9	...........
	90	1.21333	9.01272E-001	4.00805E-004	0.00000E+000	3.61235E-004	2.40040E-001	9.01550E-001	3.57640E+000	9	...........
	91	1.22667	9.05667E-001	4.00601E-004	0.00000E+000	3.62811E-004	2.40040E-001	9.05952E-001	3.57640E+000	9	...........
	92	1.24	9.10049E-001	4.01146E-004	0.00000E+000	3.65063E-004	2.40040E-001	9.10314E-001	3.57640E+000	9	...........
	93	1.25333	9.14447E-001	4.02010E-004	0.00000E+000	3.67617E-004	2.40040E-001	9.14724E-001	3.57640E+000	9	...........
	94	1.26667	9.18737E-001	4.00612E-004	0.00000E+000	3.68057E-004	2.40040E-001	9.19037E-001	3.57640E+000	9	...........
	95	1.28	9.23059E-001	4.01072E-004	0.00000E+000	3.70213E-004	2.40040E-001	9.23308E-001	3.57640E+000	9	...........
	96	1.29333	9.27315E-001	4.00886E-004	0.00000E+000	3.71747E-004	2.40040E-001	9.27577E-001	3.57640E+000	9	...........
	97	1.30667	9.31514E-001	3.99536E-004	0.00000E+000	3.72174E-004	2.40040E-001	9.31774E-001	3.57640E+000	9	...........
	98	1.32	9.35704E-001	4.00768E-004	0.00000E+000	3.75000E-004	2.40040E-001	9.35983E-001	3.57640E+000	9	...........
	99	1.33333	9.39861E-001	4.01241E-004	0.00000E+000	3.77111E-004	2.40040E-001	9.40116E-001	3.57640E+000	9	...........
	100	1.34667	9.43908E-001	4.01004E-004	0.00000E+000	3.78511E-004	2.40040E-001	9.44191E-001	3.57640E+000	9	...........
	101	1.36	9.47984E-001	4.00599E-004	0.00000E+000	3.79762E-004	2.40040E-001	9.48248E-001	3.57640E+000	9	...........
	102	1.37333	9.51977E-001	4.02882E-004	0.00000E+000	3.83534E-004	2.40040E-001	9.52259E-001	3.57640E+000	9	...........
	103	1.38667	9.55946E-001	4.01178E-004	0.00000E+000	3.83505E-004	2.40040E-001	9.56234E-001	3.57640E+000	9	...........
	104	1.4	9.59844E-001	4.00239E-004	0.00000E+000	3.84167E-004	2.40040E-001	9.60153E-001	3.57640E+000	9	...........
	105	1.41333	9.63776E-001	4.01035E-004	0.00000E+000	3.86508E-004	2.40040E-001	9.64094E-001	3.57640E+000	9	...........
	106	1.42667	9.67627E-001	4.00812E-004	0.00000E+000	3.87836E-004	2.40040E-001	9.67919E-001	3.57640E+000	9	...........
	107	1.44	9.71473E-001	3.99395E-004	0.00000E+000	3.88001E-004	2.40040E-001	9.71798E-001	3.57640E+000	9	...........
	108	1.45333	9.75376E-001	4.01821E-004	0.00000E+000	3.91927E-004	2.40040E-001	9.75671E-001	3.57640E+000	9	...........
	109	1.46667	9.79146E-001	4.00398E-004	0.00000E+000	3.92048E-004	2.40040E-001	9.79430E-001	3.57640E+000	9	...........
	110	1.48	9.82893E-001	3.99434E-004	0.00000E+000	3.92601E-004	2.40040E-001	9.83229E-001	3.57640E+000	9	...........
	111	1.49333	9.86569E-001	3.99422E-004	0.00000E+000	3.94057E-004	2.40040E-001	9.86914E-001	3.57640E+000	9	...........
	112	1.50667	9.90177E-001	4.01551E-004	0.00000E+000	3.97607E-004	2.40040E-001	9.90500E-001	3.57640E+000	9	...........
	113	1.52	9.93778E-001	4.00933E-004	0.00000E+000	3.98438E-004	2.40040E-001	9.94096E-001	3.57640E+000	9	...........
	114	1.53333	9.97350E-001	4.00946E-004	0.00000E+000	3.99884E-004	2.40040E-001	9.97657E-001	3.57640E+000	9	...........
	115	1.53833	9.99783E-001	4.01366E-004	0.00000E+000	4.01279E-004	2.40040E-001	1.00007E+000	3.57640E+000	9	...........
STARTTIMEOFFSET	QUANT	1766.713	Start Time Offset (s)
