EXPLAIN
TAG	PWR800_CHARGE
TITLE	LABEL	PWR Cyclic Charge Discharge (Cell) - Charge Step	Test &Identifier
DATE	LABEL	12-7-2017	Date
TIME	LABEL	14:40:48	Time
NOTES	NOTES	3	&Notes...
	supercap test cell
	0.4mg
	6M KOH
PSTAT	PSTAT	IFC5000-01520	Potentiostat
CAPACITY	QUANT	1.00000E-003	Capacity (A-hr)
CELLTYPE	SELECTOR	1	&Cell Type
WORKINGCONNECTION	SELECTOR	0	&Working Lead
MAXCHARGETIME	VARIABLEANDUNITS	1.00000E+002	s	1.00000E+002	second(s)	Max &Charge Time
CHARGECURRENT	QUANT	4.00000E-004	&Charge Current (A) 
VOLTAGEFINISH	TWOPARAM	F	1.00000E-003	3.60000E+003	&Voltage Finish	 I (A) < 	Max Time(s)
SAMPLETIME	QUANT	1.00000E-002	Sa&mple Period (s)
CHARGESTOPAT1	MULTIPARAM	4	1.00000E+000	Charge Stop At &1	Voltage > Limit	V
CHARGESTOPAT2	MULTIPARAM	0	0.00000E+000	Charge Stop At &2	None	N/A
AESBHCSELECTOR	TOGGLE	F	Save Both Half Cells
IRCOMP	TOGGLE	F	IR &Measure
EOC	QUANT	0	Open Circuit (V)
SEQUENCER	TOGGLE	TRUE	Run as Sequence
PSTATMODEL	IQUANT	53	Pstat Model
PSTATSECTION	LABEL	IFC5000-01520	Pstat Section
PSTATSERIALNO	LABEL	01520	Pstat Serial Number
CTRLMODE	IQUANT	0	Control Mode
ELECTROMETER	IQUANT	1	RE=0 or CS=1
IESTAB	IQUANT	0	I/E Stability
CASPEED	IQUANT	4	Control Amp Speed
CONVENTION	IQUANT	1	Current Convention
ICHRANGE	IQUANT	2	Ich Range
ICHRANGEMODE	TOGGLE	T	Ich Auto Range
ICHOFFSETENABLE	TOGGLE	F	Ich Offset Enable
ICHOFFSET	QUANT	0	Ich Offset (V)
ICHFILTER	IQUANT	1	Ich Filter
VCHRANGE	IQUANT	2	Vch Range
VCHRANGEMODE	TOGGLE	T	Vch Auto Range
VCHOFFSETENABLE	TOGGLE	F	Vch Offset Enable
VCHOFFSET	QUANT	0	Vch Offset (V)
VCHFILTER	IQUANT	1	Vch Filter
IERANGELOWERLIMIT	IQUANT	9	I/E Range Lower Limit
IERANGEMODE	TOGGLE	F	I/E AutoRange
IERANGE	IQUANT	9	I/E Range
ACHSELECT	IQUANT	1	Ach Select
ACHRANGE	IQUANT	2	Ach Range
ACHOFFSETENABLE	TOGGLE	F	Ach Offset Enable
ACHOFFSET	QUANT	0	Ach Offset (V)
ACHFILTER	IQUANT	1	Ach Filter
CABLEID	IQUANT	14	Cable ID
DCCALDATE	LABEL	5-7-2017	DC Calibration Date
ACCALDATE	LABEL	12/3/2015	AC Calibration Date
FRAMEWORKVERSION	QUANT	7.01	Framework Version
INSTRUMENTVERSION	LABEL	4.00	Instrument Version
CURVE	TABLE	124
	Pt	T	Vf	Im	Vu	Pwr	Sig	Ach	Temp	IERange	Over
	#	s	V	A	V	W	V	V	deg C	#	bits
	0	0.013333	3.54180E-001	4.01552E-004	0.00000E+000	1.42222E-004	2.40040E-001	3.54275E-001	3.57630E+000	9	...........
	1	0.026667	3.65214E-001	4.00916E-004	0.00000E+000	1.46420E-004	2.40040E-001	3.65284E-001	3.57630E+000	9	...........
	2	0.04	3.74739E-001	4.00858E-004	0.00000E+000	1.50217E-004	2.40040E-001	3.74816E-001	3.57634E+000	9	...........
	3	0.053333	3.83380E-001	4.01173E-004	0.00000E+000	1.53802E-004	2.40040E-001	3.83459E-001	3.57640E+000	9	...........
	4	0.066667	3.91452E-001	4.01677E-004	0.00000E+000	1.57238E-004	2.40040E-001	3.91529E-001	3.57640E+000	9	...........
	5	0.08	3.99154E-001	4.00968E-004	0.00000E+000	1.60048E-004	2.40040E-001	3.99235E-001	3.57640E+000	9	...........
	6	0.093333	4.06526E-001	4.00397E-004	0.00000E+000	1.62772E-004	2.40040E-001	4.06605E-001	3.57640E+000	9	...........
	7	0.106667	4.13703E-001	4.01821E-004	0.00000E+000	1.66235E-004	2.40040E-001	4.13795E-001	3.57640E+000	9	...........
	8	0.12	4.20759E-001	4.00648E-004	0.00000E+000	1.68576E-004	2.40040E-001	4.20850E-001	3.57640E+000	9	...........
	9	0.133333	4.27650E-001	4.01140E-004	0.00000E+000	1.71547E-004	2.40040E-001	4.27742E-001	3.57640E+000	9	...........
	10	0.146667	4.34388E-001	4.01546E-004	0.00000E+000	1.74427E-004	2.40040E-001	4.34477E-001	3.57640E+000	9	...........
	11	0.16	4.40994E-001	4.01605E-004	0.00000E+000	1.77105E-004	2.40040E-001	4.41086E-001	3.57640E+000	9	...........
	12	0.173333	4.47603E-001	3.99764E-004	0.00000E+000	1.78935E-004	2.40040E-001	4.47701E-001	3.57640E+000	9	...........
	13	0.186667	4.54057E-001	4.00506E-004	0.00000E+000	1.81853E-004	2.40040E-001	4.54153E-001	3.57640E+000	9	...........
	14	0.2	4.60416E-001	4.00587E-004	0.00000E+000	1.84436E-004	2.40040E-001	4.60512E-001	3.57640E+000	9	...........
	15	0.213333	4.66725E-001	4.01996E-004	0.00000E+000	1.87622E-004	2.40040E-001	4.66827E-001	3.57640E+000	9	...........
	16	0.226667	4.73011E-001	4.01723E-004	0.00000E+000	1.90019E-004	2.40040E-001	4.73107E-001	3.57640E+000	9	...........
	17	0.24	4.79213E-001	4.00730E-004	0.00000E+000	1.92035E-004	2.40040E-001	4.79311E-001	3.57640E+000	9	...........
	18	0.253333	4.85400E-001	4.01869E-004	0.00000E+000	1.95067E-004	2.40040E-001	4.85503E-001	3.57640E+000	9	...........
	19	0.266667	4.91496E-001	3.99924E-004	0.00000E+000	1.96561E-004	2.40040E-001	4.91602E-001	3.57640E+000	9	...........
	20	0.28	4.97535E-001	4.01290E-004	0.00000E+000	1.99656E-004	2.40040E-001	4.97641E-001	3.57640E+000	9	...........
	21	0.293333	5.03538E-001	4.02186E-004	0.00000E+000	2.02516E-004	2.40040E-001	5.03640E-001	3.57640E+000	9	...........
	22	0.306667	5.09497E-001	4.03283E-004	0.00000E+000	2.05472E-004	2.40040E-001	5.09607E-001	3.57640E+000	9	...........
	23	0.32	5.15435E-001	3.99787E-004	0.00000E+000	2.06064E-004	2.40040E-001	5.15541E-001	3.57640E+000	9	...........
	24	0.333333	5.21326E-001	4.00702E-004	0.00000E+000	2.08897E-004	2.40040E-001	5.21435E-001	3.57640E+000	9	...........
	25	0.346667	5.27219E-001	4.01710E-004	0.00000E+000	2.11789E-004	2.40040E-001	5.27329E-001	3.57640E+000	9	...........
	26	0.36	5.32993E-001	4.01159E-004	0.00000E+000	2.13815E-004	2.40040E-001	5.33127E-001	3.57640E+000	9	...........
	27	0.373333	5.38608E-001	4.01491E-004	0.00000E+000	2.16246E-004	2.40040E-001	5.38829E-001	3.57640E+000	9	...........
	28	0.386667	5.44398E-001	4.01318E-004	0.00000E+000	2.18477E-004	2.40040E-001	5.44627E-001	3.57640E+000	9	...........
	29	0.4	5.50211E-001	4.00442E-004	0.00000E+000	2.20327E-004	2.40040E-001	5.50441E-001	3.57640E+000	9	...........
	30	0.413333	5.55968E-001	4.01482E-004	0.00000E+000	2.23211E-004	2.40040E-001	5.56189E-001	3.57640E+000	9	...........
	31	0.426667	5.61599E-001	4.01512E-004	0.00000E+000	2.25489E-004	2.40040E-001	5.61830E-001	3.57640E+000	9	...........
	32	0.44	5.67354E-001	4.01363E-004	0.00000E+000	2.27715E-004	2.40040E-001	5.67575E-001	3.57640E+000	9	...........
	33	0.453333	5.73083E-001	4.01046E-004	0.00000E+000	2.29833E-004	2.40040E-001	5.73312E-001	3.57640E+000	9	...........
	34	0.466667	5.78688E-001	4.01132E-004	0.00000E+000	2.32130E-004	2.40040E-001	5.78915E-001	3.57640E+000	9	...........
	35	0.48	5.84296E-001	3.99764E-004	0.00000E+000	2.33580E-004	2.40040E-001	5.84528E-001	3.57640E+000	9	...........
	36	0.493333	5.90047E-001	4.01202E-004	0.00000E+000	2.36728E-004	2.40040E-001	5.90278E-001	3.57640E+000	9	...........
	37	0.506667	5.95647E-001	4.01697E-004	0.00000E+000	2.39270E-004	2.40040E-001	5.95895E-001	3.57640E+000	9	...........
	38	0.52	6.01165E-001	4.00332E-004	0.00000E+000	2.40666E-004	2.40040E-001	6.01440E-001	3.57640E+000	9	...........
	39	0.533333	6.06711E-001	4.01511E-004	0.00000E+000	2.43601E-004	2.40040E-001	6.06973E-001	3.57640E+000	9	...........
	40	0.546667	6.12226E-001	4.00788E-004	0.00000E+000	2.45373E-004	2.40040E-001	6.12507E-001	3.57640E+000	9	...........
	41	0.56	6.17831E-001	4.01005E-004	0.00000E+000	2.47754E-004	2.40040E-001	6.18053E-001	3.57640E+000	9	...........
	42	0.573333	6.23314E-001	4.01440E-004	0.00000E+000	2.50223E-004	2.40040E-001	6.23516E-001	3.57640E+000	9	...........
	43	0.586667	6.28830E-001	4.00583E-004	0.00000E+000	2.51899E-004	2.40040E-001	6.29076E-001	3.57640E+000	9	...........
	44	0.6	6.34296E-001	4.01913E-004	0.00000E+000	2.54932E-004	2.40040E-001	6.34536E-001	3.57640E+000	9	...........
	45	0.613333	6.39832E-001	4.01293E-004	0.00000E+000	2.56760E-004	2.40040E-001	6.40081E-001	3.57640E+000	9	...........
	46	0.626667	6.45271E-001	4.01959E-004	0.00000E+000	2.59372E-004	2.40040E-001	6.45516E-001	3.57640E+000	9	...........
	47	0.64	6.50733E-001	4.01263E-004	0.00000E+000	2.61115E-004	2.40040E-001	6.50990E-001	3.57640E+000	9	...........
	48	0.653333	6.56224E-001	4.00742E-004	0.00000E+000	2.62976E-004	2.40040E-001	6.56464E-001	3.57640E+000	9	...........
	49	0.666667	6.61653E-001	4.00569E-004	0.00000E+000	2.65038E-004	2.40040E-001	6.61872E-001	3.57640E+000	9	...........
	50	0.68	6.67050E-001	4.00838E-004	0.00000E+000	2.67379E-004	2.40040E-001	6.67264E-001	3.57640E+000	9	...........
	51	0.693333	6.72476E-001	4.01759E-004	0.00000E+000	2.70173E-004	2.40040E-001	6.72692E-001	3.57640E+000	9	...........
	52	0.706667	6.77859E-001	4.01495E-004	0.00000E+000	2.72157E-004	2.40040E-001	6.78043E-001	3.57640E+000	9	...........
	53	0.72	6.83226E-001	4.01781E-004	0.00000E+000	2.74507E-004	2.40040E-001	6.83428E-001	3.57640E+000	9	...........
	54	0.733333	6.88547E-001	4.01178E-004	0.00000E+000	2.76230E-004	2.40040E-001	6.88797E-001	3.57640E+000	9	...........
	55	0.746667	6.93917E-001	4.01430E-004	0.00000E+000	2.78559E-004	2.40040E-001	6.94110E-001	3.57640E+000	9	...........
	56	0.76	6.99210E-001	4.00703E-004	0.00000E+000	2.80176E-004	2.40040E-001	6.99427E-001	3.57640E+000	9	...........
	57	0.773333	7.04432E-001	4.01617E-004	0.00000E+000	2.82912E-004	2.40040E-001	7.04661E-001	3.57640E+000	9	...........
	58	0.786667	7.09712E-001	4.01160E-004	0.00000E+000	2.84708E-004	2.40040E-001	7.09947E-001	3.57640E+000	9	...........
	59	0.8	7.14986E-001	4.02032E-004	0.00000E+000	2.87447E-004	2.40040E-001	7.15211E-001	3.57640E+000	9	...........
	60	0.813333	7.20309E-001	4.01599E-004	0.00000E+000	2.89276E-004	2.40040E-001	7.20520E-001	3.57640E+000	9	...........
	61	0.826667	7.25531E-001	4.01249E-004	0.00000E+000	2.91119E-004	2.40040E-001	7.25739E-001	3.57640E+000	9	...........
	62	0.84	7.30683E-001	4.00320E-004	0.00000E+000	2.92507E-004	2.40040E-001	7.30926E-001	3.57640E+000	9	...........
	63	0.853333	7.35902E-001	4.00838E-004	0.00000E+000	2.94977E-004	2.40040E-001	7.36133E-001	3.57640E+000	9	...........
	64	0.866667	7.41124E-001	4.01299E-004	0.00000E+000	2.97413E-004	2.40040E-001	7.41381E-001	3.57640E+000	9	...........
	65	0.88	7.46278E-001	4.02175E-004	0.00000E+000	3.00135E-004	2.40040E-001	7.46513E-001	3.57640E+000	9	...........
	66	0.893333	7.51437E-001	4.00519E-004	0.00000E+000	3.00965E-004	2.40040E-001	7.51673E-001	3.57640E+000	9	...........
	67	0.906667	7.56601E-001	3.99683E-004	0.00000E+000	3.02401E-004	2.40040E-001	7.56832E-001	3.57640E+000	9	...........
	68	0.92	7.61717E-001	4.01214E-004	0.00000E+000	3.05611E-004	2.40040E-001	7.61939E-001	3.57640E+000	9	...........
	69	0.933333	7.66772E-001	4.01713E-004	0.00000E+000	3.08022E-004	2.40040E-001	7.67039E-001	3.57640E+000	9	...........
	70	0.946667	7.71750E-001	4.00324E-004	0.00000E+000	3.08950E-004	2.40040E-001	7.72024E-001	3.57640E+000	9	...........
	71	0.96	7.76785E-001	4.01906E-004	0.00000E+000	3.12194E-004	2.40040E-001	7.76987E-001	3.57640E+000	9	...........
	72	0.97333	7.81743E-001	4.00996E-004	0.00000E+000	3.13476E-004	2.40040E-001	7.82001E-001	3.57640E+000	9	...........
	73	0.98667	7.86700E-001	4.02376E-004	0.00000E+000	3.16549E-004	2.40040E-001	7.86895E-001	3.57640E+000	9	...........
	74	1	7.91586E-001	4.02017E-004	0.00000E+000	3.18231E-004	2.40040E-001	7.91850E-001	3.57640E+000	9	...........
	75	1.01333	7.96623E-001	4.01259E-004	0.00000E+000	3.19652E-004	2.40040E-001	7.96860E-001	3.57640E+000	9	...........
	76	1.02667	8.01539E-001	4.00353E-004	0.00000E+000	3.20899E-004	2.40040E-001	8.01802E-001	3.57640E+000	9	...........
	77	1.04	8.06426E-001	4.00270E-004	0.00000E+000	3.22788E-004	2.40040E-001	8.06701E-001	3.57644E+000	9	...........
	78	1.05333	8.11290E-001	4.00265E-004	0.00000E+000	3.24731E-004	2.40040E-001	8.11547E-001	3.57650E+000	9	...........
	79	1.06667	8.16158E-001	4.01235E-004	0.00000E+000	3.27471E-004	2.40040E-001	8.16432E-001	3.57650E+000	9	...........
	80	1.08	8.21026E-001	4.01917E-004	0.00000E+000	3.29984E-004	2.40040E-001	8.21283E-001	3.57650E+000	9	...........
	81	1.09333	8.25853E-001	3.99776E-004	0.00000E+000	3.30156E-004	2.40040E-001	8.26098E-001	3.57650E+000	9	...........
	82	1.10667	8.30618E-001	4.00223E-004	0.00000E+000	3.32433E-004	2.40040E-001	8.30867E-001	3.57650E+000	9	...........
	83	1.12	8.35346E-001	4.00654E-004	0.00000E+000	3.34685E-004	2.40040E-001	8.35631E-001	3.57650E+000	9	...........
	84	1.13333	8.40084E-001	4.01365E-004	0.00000E+000	3.37180E-004	2.40040E-001	8.40327E-001	3.57650E+000	9	...........
	85	1.14667	8.44754E-001	4.00886E-004	0.00000E+000	3.38650E-004	2.40040E-001	8.45012E-001	3.57650E+000	9	...........
	86	1.16	8.49382E-001	4.01342E-004	0.00000E+000	3.40892E-004	2.40040E-001	8.49644E-001	3.57650E+000	9	...........
	87	1.17333	8.53955E-001	4.00526E-004	0.00000E+000	3.42031E-004	2.40040E-001	8.54224E-001	3.57650E+000	9	...........
	88	1.18667	8.58564E-001	4.00242E-004	0.00000E+000	3.43633E-004	2.40040E-001	8.58871E-001	3.57650E+000	9	...........
	89	1.2	8.63184E-001	4.00269E-004	0.00000E+000	3.45506E-004	2.40040E-001	8.63474E-001	3.57650E+000	9	...........
	90	1.21333	8.67706E-001	3.99506E-004	0.00000E+000	3.46654E-004	2.40040E-001	8.68048E-001	3.57650E+000	9	...........
	91	1.22667	8.72210E-001	4.00197E-004	0.00000E+000	3.49056E-004	2.40040E-001	8.72526E-001	3.57650E+000	9	...........
	92	1.24	8.76633E-001	3.99804E-004	0.00000E+000	3.50481E-004	2.40040E-001	8.76957E-001	3.57650E+000	9	...........
	93	1.25333	8.81098E-001	3.99497E-004	0.00000E+000	3.51996E-004	2.40040E-001	8.81398E-001	3.57650E+000	9	...........
	94	1.26667	8.85530E-001	4.00842E-004	0.00000E+000	3.54958E-004	2.40040E-001	8.85828E-001	3.57650E+000	9	...........
	95	1.28	8.89863E-001	4.00552E-004	0.00000E+000	3.56437E-004	2.40040E-001	8.90164E-001	3.57650E+000	9	...........
	96	1.29333	8.94174E-001	4.01924E-004	0.00000E+000	3.59391E-004	2.40040E-001	8.94517E-001	3.57650E+000	9	...........
	97	1.30667	8.98525E-001	4.00402E-004	0.00000E+000	3.59771E-004	2.40040E-001	8.98834E-001	3.57650E+000	9	...........
	98	1.32	9.02785E-001	4.01583E-004	0.00000E+000	3.62543E-004	2.40040E-001	9.03109E-001	3.57650E+000	9	...........
	99	1.33333	9.06993E-001	4.00182E-004	0.00000E+000	3.62963E-004	2.40040E-001	9.07333E-001	3.57650E+000	9	...........
	100	1.34667	9.11236E-001	4.01491E-004	0.00000E+000	3.65853E-004	2.40040E-001	9.11552E-001	3.57650E+000	9	...........
	101	1.36	9.15374E-001	4.00419E-004	0.00000E+000	3.66533E-004	2.40040E-001	9.15720E-001	3.57650E+000	9	...........
	102	1.37333	9.19518E-001	4.02447E-004	0.00000E+000	3.70057E-004	2.40040E-001	9.19843E-001	3.57650E+000	9	...........
	103	1.38667	9.23679E-001	4.01299E-004	0.00000E+000	3.70672E-004	2.40040E-001	9.23975E-001	3.57650E+000	9	...........
	104	1.4	9.27771E-001	4.01603E-004	0.00000E+000	3.72596E-004	2.40040E-001	9.28064E-001	3.57650E+000	9	...........
	105	1.41333	9.31822E-001	4.01036E-004	0.00000E+000	3.73694E-004	2.40040E-001	9.32133E-001	3.57650E+000	9	...........
	106	1.42667	9.35851E-001	4.00302E-004	0.00000E+000	3.74623E-004	2.40040E-001	9.36169E-001	3.57650E+000	9	...........
	107	1.44	9.39767E-001	3.99435E-004	0.00000E+000	3.75376E-004	2.40040E-001	9.40100E-001	3.57650E+000	9	...........
	108	1.45333	9.43765E-001	4.02775E-004	0.00000E+000	3.80125E-004	2.40040E-001	9.44066E-001	3.57650E+000	9	...........
	109	1.46667	9.47757E-001	4.01507E-004	0.00000E+000	3.80531E-004	2.40040E-001	9.48093E-001	3.57650E+000	9	...........
	110	1.48	9.51637E-001	4.01918E-004	0.00000E+000	3.82480E-004	2.40040E-001	9.51948E-001	3.57650E+000	9	...........
	111	1.49333	9.55470E-001	4.00661E-004	0.00000E+000	3.82819E-004	2.40040E-001	9.55790E-001	3.57650E+000	9	...........
	112	1.50667	9.59180E-001	4.01421E-004	0.00000E+000	3.85035E-004	2.40040E-001	9.59506E-001	3.57650E+000	9	...........
	113	1.52	9.62844E-001	4.00722E-004	0.00000E+000	3.85833E-004	2.40040E-001	9.63173E-001	3.57650E+000	9	...........
	114	1.53333	9.66587E-001	4.01123E-004	0.00000E+000	3.87721E-004	2.40040E-001	9.66911E-001	3.57650E+000	9	...........
	115	1.54667	9.70246E-001	4.02105E-004	0.00000E+000	3.90141E-004	2.40040E-001	9.70623E-001	3.57650E+000	9	...........
	116	1.56	9.73924E-001	4.00931E-004	0.00000E+000	3.90477E-004	2.40040E-001	9.74253E-001	3.57650E+000	9	...........
	117	1.57333	9.77573E-001	4.02267E-004	0.00000E+000	3.93245E-004	2.40040E-001	9.77899E-001	3.57650E+000	9	...........
	118	1.58667	9.81184E-001	4.01966E-004	0.00000E+000	3.94403E-004	2.40040E-001	9.81518E-001	3.57650E+000	9	...........
	119	1.6	9.84744E-001	4.00642E-004	0.00000E+000	3.94530E-004	2.40040E-001	9.85102E-001	3.57650E+000	9	...........
	120	1.61333	9.88215E-001	4.00569E-004	0.00000E+000	3.95848E-004	2.40040E-001	9.88569E-001	3.57650E+000	9	...........
	121	1.62667	9.91659E-001	4.00351E-004	0.00000E+000	3.97012E-004	2.40040E-001	9.91987E-001	3.57650E+000	9	...........
	122	1.64	9.95095E-001	3.99901E-004	0.00000E+000	3.97940E-004	2.40040E-001	9.95425E-001	3.57650E+000	9	...........
	123	1.65333	9.98494E-001	4.02279E-004	0.00000E+000	4.01673E-004	2.40040E-001	9.98844E-001	3.57650E+000	9	...........
STARTTIMEOFFSET	QUANT	1066.157	Start Time Offset (s)
