EXPLAIN
TAG	PWR800_CHARGE
TITLE	LABEL	PWR Cyclic Charge Discharge (Cell) - Charge Step	Test &Identifier
DATE	LABEL	12-7-2017	Date
TIME	LABEL	14:22:50	Time
NOTES	NOTES	3	&Notes...
	supercap test cell
	0.4mg
	6M KOH
PSTAT	PSTAT	IFC5000-01520	Potentiostat
CAPACITY	QUANT	1.00000E-003	Capacity (A-hr)
CELLTYPE	SELECTOR	1	&Cell Type
WORKINGCONNECTION	SELECTOR	0	&Working Lead
MAXCHARGETIME	VARIABLEANDUNITS	1.00000E+002	s	1.00000E+002	second(s)	Max &Charge Time
CHARGECURRENT	QUANT	4.00000E-004	&Charge Current (A) 
VOLTAGEFINISH	TWOPARAM	F	1.00000E-003	3.60000E+003	&Voltage Finish	 I (A) < 	Max Time(s)
SAMPLETIME	QUANT	1.00000E-002	Sa&mple Period (s)
CHARGESTOPAT1	MULTIPARAM	4	1.00000E+000	Charge Stop At &1	Voltage > Limit	V
CHARGESTOPAT2	MULTIPARAM	0	0.00000E+000	Charge Stop At &2	None	N/A
AESBHCSELECTOR	TOGGLE	F	Save Both Half Cells
IRCOMP	TOGGLE	F	IR &Measure
EOC	QUANT	0	Open Circuit (V)
SEQUENCER	TOGGLE	TRUE	Run as Sequence
PSTATMODEL	IQUANT	53	Pstat Model
PSTATSECTION	LABEL	IFC5000-01520	Pstat Section
PSTATSERIALNO	LABEL	01520	Pstat Serial Number
CTRLMODE	IQUANT	0	Control Mode
ELECTROMETER	IQUANT	1	RE=0 or CS=1
IESTAB	IQUANT	0	I/E Stability
CASPEED	IQUANT	4	Control Amp Speed
CONVENTION	IQUANT	1	Current Convention
ICHRANGE	IQUANT	2	Ich Range
ICHRANGEMODE	TOGGLE	T	Ich Auto Range
ICHOFFSETENABLE	TOGGLE	F	Ich Offset Enable
ICHOFFSET	QUANT	0	Ich Offset (V)
ICHFILTER	IQUANT	1	Ich Filter
VCHRANGE	IQUANT	2	Vch Range
VCHRANGEMODE	TOGGLE	T	Vch Auto Range
VCHOFFSETENABLE	TOGGLE	F	Vch Offset Enable
VCHOFFSET	QUANT	0	Vch Offset (V)
VCHFILTER	IQUANT	1	Vch Filter
IERANGELOWERLIMIT	IQUANT	9	I/E Range Lower Limit
IERANGEMODE	TOGGLE	F	I/E AutoRange
IERANGE	IQUANT	9	I/E Range
ACHSELECT	IQUANT	1	Ach Select
ACHRANGE	IQUANT	2	Ach Range
ACHOFFSETENABLE	TOGGLE	F	Ach Offset Enable
ACHOFFSET	QUANT	0	Ach Offset (V)
ACHFILTER	IQUANT	1	Ach Filter
CABLEID	IQUANT	14	Cable ID
DCCALDATE	LABEL	5-7-2017	DC Calibration Date
ACCALDATE	LABEL	12/3/2015	AC Calibration Date
FRAMEWORKVERSION	QUANT	7.01	Framework Version
INSTRUMENTVERSION	LABEL	4.00	Instrument Version
CURVE	TABLE	145
	Pt	T	Vf	Im	Vu	Pwr	Sig	Ach	Temp	IERange	Over
	#	s	V	A	V	W	V	V	deg C	#	bits
	0	0.013333	3.28802E-001	4.01361E-004	0.00000E+000	1.31968E-004	2.40040E-001	3.28884E-001	3.57670E+000	9	...........
	1	0.026667	3.38409E-001	4.00802E-004	0.00000E+000	1.35635E-004	2.40040E-001	3.38473E-001	3.57670E+000	9	...........
	2	0.04	3.46827E-001	4.01162E-004	0.00000E+000	1.39134E-004	2.40040E-001	3.46889E-001	3.57670E+000	9	...........
	3	0.053333	3.54522E-001	4.00998E-004	0.00000E+000	1.42163E-004	2.40040E-001	3.54588E-001	3.57670E+000	9	...........
	4	0.066667	3.61862E-001	4.01026E-004	0.00000E+000	1.45116E-004	2.40040E-001	3.61927E-001	3.57670E+000	9	...........
	5	0.08	3.68707E-001	4.00908E-004	0.00000E+000	1.47817E-004	2.40040E-001	3.68776E-001	3.57670E+000	9	...........
	6	0.093333	3.75360E-001	3.99679E-004	0.00000E+000	1.50024E-004	2.40040E-001	3.75427E-001	3.57670E+000	9	...........
	7	0.106667	3.81793E-001	3.99954E-004	0.00000E+000	1.52700E-004	2.40040E-001	3.81857E-001	3.57670E+000	9	...........
	8	0.12	3.88073E-001	4.00742E-004	0.00000E+000	1.55517E-004	2.40040E-001	3.88141E-001	3.57670E+000	9	...........
	9	0.133333	3.94237E-001	4.01159E-004	0.00000E+000	1.58151E-004	2.40040E-001	3.94309E-001	3.57670E+000	9	...........
	10	0.146667	4.00365E-001	4.00016E-004	0.00000E+000	1.60152E-004	2.40040E-001	4.00435E-001	3.57670E+000	9	...........
	11	0.16	4.06388E-001	4.02395E-004	0.00000E+000	1.63529E-004	2.40040E-001	4.06467E-001	3.57670E+000	9	...........
	12	0.173333	4.12210E-001	4.00644E-004	0.00000E+000	1.65149E-004	2.40040E-001	4.12284E-001	3.57670E+000	9	...........
	13	0.186667	4.17933E-001	4.01687E-004	0.00000E+000	1.67878E-004	2.40040E-001	4.18007E-001	3.57670E+000	9	...........
	14	0.2	4.23643E-001	4.01668E-004	0.00000E+000	1.70164E-004	2.40040E-001	4.23726E-001	3.57670E+000	9	...........
	15	0.213333	4.29329E-001	4.01940E-004	0.00000E+000	1.72565E-004	2.40040E-001	4.29418E-001	3.57670E+000	9	...........
	16	0.226667	4.34961E-001	4.01549E-004	0.00000E+000	1.74658E-004	2.40040E-001	4.35044E-001	3.57670E+000	9	...........
	17	0.24	4.40559E-001	4.01098E-004	0.00000E+000	1.76707E-004	2.40040E-001	4.40648E-001	3.57670E+000	9	...........
	18	0.253333	4.46144E-001	4.00992E-004	0.00000E+000	1.78900E-004	2.40040E-001	4.46237E-001	3.57670E+000	9	...........
	19	0.266667	4.51660E-001	4.01241E-004	0.00000E+000	1.81224E-004	2.40040E-001	4.51752E-001	3.57670E+000	9	...........
	20	0.28	4.57098E-001	4.00022E-004	0.00000E+000	1.82849E-004	2.40040E-001	4.57187E-001	3.57670E+000	9	...........
	21	0.293333	4.62525E-001	4.01995E-004	0.00000E+000	1.85933E-004	2.40040E-001	4.62618E-001	3.57670E+000	9	...........
	22	0.306667	4.67913E-001	4.00500E-004	0.00000E+000	1.87399E-004	2.40040E-001	4.68005E-001	3.57670E+000	9	...........
	23	0.32	4.73340E-001	4.01407E-004	0.00000E+000	1.90002E-004	2.40040E-001	4.73428E-001	3.57670E+000	9	...........
	24	0.333333	4.78581E-001	4.00152E-004	0.00000E+000	1.91505E-004	2.40040E-001	4.78670E-001	3.57670E+000	9	...........
	25	0.346667	4.83885E-001	4.00893E-004	0.00000E+000	1.93986E-004	2.40040E-001	4.83978E-001	3.57670E+000	9	...........
	26	0.36	4.89126E-001	4.00955E-004	0.00000E+000	1.96118E-004	2.40040E-001	4.89218E-001	3.57670E+000	9	...........
	27	0.373333	4.94364E-001	4.00889E-004	0.00000E+000	1.98185E-004	2.40040E-001	4.94460E-001	3.57670E+000	9	...........
	28	0.386667	4.99524E-001	3.99675E-004	0.00000E+000	1.99647E-004	2.40040E-001	4.99621E-001	3.57670E+000	9	...........
	29	0.4	5.04726E-001	4.01446E-004	0.00000E+000	2.02620E-004	2.40040E-001	5.04826E-001	3.57670E+000	9	...........
	30	0.413333	5.09925E-001	3.98672E-004	0.00000E+000	2.03292E-004	2.40040E-001	5.10026E-001	3.57670E+000	9	...........
	31	0.426667	5.15164E-001	4.01852E-004	0.00000E+000	2.07020E-004	2.40040E-001	5.15261E-001	3.57670E+000	9	...........
	32	0.44	5.20308E-001	4.00753E-004	0.00000E+000	2.08515E-004	2.40040E-001	5.20410E-001	3.57670E+000	9	...........
	33	0.453333	5.25422E-001	4.01925E-004	0.00000E+000	2.11180E-004	2.40040E-001	5.25522E-001	3.57670E+000	9	...........
	34	0.466667	5.30496E-001	3.99967E-004	0.00000E+000	2.12181E-004	2.40040E-001	5.30600E-001	3.57670E+000	9	...........
	35	0.48	5.35349E-001	4.00943E-004	0.00000E+000	2.14644E-004	2.40040E-001	5.35485E-001	3.57670E+000	9	...........
	36	0.493333	5.40350E-001	4.00663E-004	0.00000E+000	2.16498E-004	2.40040E-001	5.40547E-001	3.57670E+000	9	...........
	37	0.506667	5.45388E-001	4.00134E-004	0.00000E+000	2.18229E-004	2.40040E-001	5.45575E-001	3.57670E+000	9	...........
	38	0.52	5.50444E-001	4.01885E-004	0.00000E+000	2.21215E-004	2.40040E-001	5.50640E-001	3.57670E+000	9	...........
	39	0.533333	5.55485E-001	4.01412E-004	0.00000E+000	2.22978E-004	2.40040E-001	5.55696E-001	3.57670E+000	9	...........
	40	0.546667	5.60490E-001	4.02287E-004	0.00000E+000	2.25478E-004	2.40040E-001	5.60707E-001	3.57670E+000	9	...........
	41	0.56	5.65517E-001	4.01858E-004	0.00000E+000	2.27257E-004	2.40040E-001	5.65754E-001	3.57670E+000	9	...........
	42	0.573333	5.70565E-001	4.01589E-004	0.00000E+000	2.29132E-004	2.40040E-001	5.70771E-001	3.57670E+000	9	...........
	43	0.586667	5.75454E-001	4.00963E-004	0.00000E+000	2.30736E-004	2.40040E-001	5.75686E-001	3.57670E+000	9	...........
	44	0.6	5.80331E-001	4.00987E-004	0.00000E+000	2.32705E-004	2.40040E-001	5.80566E-001	3.57670E+000	9	...........
	45	0.613333	5.85337E-001	4.02235E-004	0.00000E+000	2.35443E-004	2.40040E-001	5.85570E-001	3.57670E+000	9	...........
	46	0.626667	5.90315E-001	4.00867E-004	0.00000E+000	2.36638E-004	2.40040E-001	5.90576E-001	3.57670E+000	9	...........
	47	0.64	5.95259E-001	4.00726E-004	0.00000E+000	2.38536E-004	2.40040E-001	5.95487E-001	3.57670E+000	9	...........
	48	0.653333	6.00161E-001	4.01458E-004	0.00000E+000	2.40939E-004	2.40040E-001	6.00433E-001	3.57670E+000	9	...........
	49	0.666667	6.05013E-001	4.01566E-004	0.00000E+000	2.42952E-004	2.40040E-001	6.05280E-001	3.57670E+000	9	...........
	50	0.68	6.09971E-001	4.00549E-004	0.00000E+000	2.44323E-004	2.40040E-001	6.10258E-001	3.57670E+000	9	...........
	51	0.693333	6.14975E-001	4.00792E-004	0.00000E+000	2.46477E-004	2.40040E-001	6.15222E-001	3.57670E+000	9	...........
	52	0.706667	6.19852E-001	4.01312E-004	0.00000E+000	2.48754E-004	2.40040E-001	6.20082E-001	3.57670E+000	9	...........
	53	0.72	6.24707E-001	4.01611E-004	0.00000E+000	2.50889E-004	2.40040E-001	6.24903E-001	3.57670E+000	9	...........
	54	0.733333	6.29525E-001	4.00972E-004	0.00000E+000	2.52422E-004	2.40040E-001	6.29748E-001	3.57670E+000	9	...........
	55	0.746667	6.34388E-001	4.00089E-004	0.00000E+000	2.53812E-004	2.40040E-001	6.34587E-001	3.57670E+000	9	...........
	56	0.76	6.39258E-001	4.00736E-004	0.00000E+000	2.56173E-004	2.40040E-001	6.39466E-001	3.57670E+000	9	...........
	57	0.773333	6.44107E-001	4.01574E-004	0.00000E+000	2.58657E-004	2.40040E-001	6.44287E-001	3.57670E+000	9	...........
	58	0.786667	6.48931E-001	4.00595E-004	0.00000E+000	2.59959E-004	2.40040E-001	6.49107E-001	3.57670E+000	9	...........
	59	0.8	6.53738E-001	4.01787E-004	0.00000E+000	2.62663E-004	2.40040E-001	6.53907E-001	3.57696E+000	9	...........
	60	0.813333	6.58494E-001	4.01591E-004	0.00000E+000	2.64445E-004	2.40040E-001	6.58692E-001	3.57720E+000	9	...........
	61	0.826667	6.63262E-001	4.00376E-004	0.00000E+000	2.65554E-004	2.40040E-001	6.63487E-001	3.57720E+000	9	...........
	62	0.84	6.68055E-001	4.01643E-004	0.00000E+000	2.68320E-004	2.40040E-001	6.68270E-001	3.57720E+000	9	...........
	63	0.853333	6.72814E-001	4.02329E-004	0.00000E+000	2.70692E-004	2.40040E-001	6.73058E-001	3.57720E+000	9	...........
	64	0.866667	6.77588E-001	4.01272E-004	0.00000E+000	2.71897E-004	2.40040E-001	6.77814E-001	3.57720E+000	9	...........
	65	0.88	6.82279E-001	4.00580E-004	0.00000E+000	2.73307E-004	2.40040E-001	6.82482E-001	3.57720E+000	9	...........
	66	0.893333	6.86999E-001	4.00900E-004	0.00000E+000	2.75418E-004	2.40040E-001	6.87199E-001	3.57720E+000	9	...........
	67	0.906667	6.91782E-001	4.01487E-004	0.00000E+000	2.77741E-004	2.40040E-001	6.91978E-001	3.57720E+000	9	...........
	68	0.92	6.96476E-001	4.00106E-004	0.00000E+000	2.78665E-004	2.40040E-001	6.96683E-001	3.57720E+000	9	...........
	69	0.933333	7.01229E-001	4.01096E-004	0.00000E+000	2.81260E-004	2.40040E-001	7.01428E-001	3.57720E+000	9	...........
	70	0.946667	7.05914E-001	4.00870E-004	0.00000E+000	2.82980E-004	2.40040E-001	7.06145E-001	3.57720E+000	9	...........
	71	0.96	7.10595E-001	4.02389E-004	0.00000E+000	2.85936E-004	2.40040E-001	7.10830E-001	3.57720E+000	9	...........
	72	0.97333	7.15276E-001	4.01403E-004	0.00000E+000	2.87114E-004	2.40040E-001	7.15518E-001	3.57720E+000	9	...........
	73	0.98667	7.20015E-001	4.01585E-004	0.00000E+000	2.89147E-004	2.40040E-001	7.20241E-001	3.57720E+000	9	...........
	74	1	7.24663E-001	4.01349E-004	0.00000E+000	2.90843E-004	2.40040E-001	7.24864E-001	3.57720E+000	9	...........
	75	1.01333	7.29303E-001	4.01956E-004	0.00000E+000	2.93148E-004	2.40040E-001	7.29539E-001	3.57720E+000	9	...........
	76	1.02667	7.33921E-001	3.99398E-004	0.00000E+000	2.93127E-004	2.40040E-001	7.34159E-001	3.57720E+000	9	...........
	77	1.04	7.38562E-001	4.00901E-004	0.00000E+000	2.96090E-004	2.40040E-001	7.38788E-001	3.57720E+000	9	...........
	78	1.05333	7.43186E-001	4.01702E-004	0.00000E+000	2.98540E-004	2.40040E-001	7.43411E-001	3.57720E+000	9	...........
	79	1.06667	7.47777E-001	4.02020E-004	0.00000E+000	3.00621E-004	2.40040E-001	7.48009E-001	3.57720E+000	9	...........
	80	1.08	7.52301E-001	4.01414E-004	0.00000E+000	3.01984E-004	2.40040E-001	7.52531E-001	3.57720E+000	9	...........
	81	1.09333	7.56901E-001	4.01859E-004	0.00000E+000	3.04167E-004	2.40040E-001	7.57121E-001	3.57720E+000	9	...........
	82	1.10667	7.61477E-001	4.00886E-004	0.00000E+000	3.05265E-004	2.40040E-001	7.61695E-001	3.57720E+000	9	...........
	83	1.12	7.65962E-001	4.00020E-004	0.00000E+000	3.06400E-004	2.40040E-001	7.66207E-001	3.57720E+000	9	...........
	84	1.13333	7.70420E-001	4.00999E-004	0.00000E+000	3.08938E-004	2.40040E-001	7.70691E-001	3.57720E+000	9	...........
	85	1.14667	7.74884E-001	4.00558E-004	0.00000E+000	3.10386E-004	2.40040E-001	7.75125E-001	3.57720E+000	9	...........
	86	1.16	7.79451E-001	4.01178E-004	0.00000E+000	3.12699E-004	2.40040E-001	7.79705E-001	3.57720E+000	9	...........
	87	1.17333	7.83880E-001	4.01423E-004	0.00000E+000	3.14668E-004	2.40040E-001	7.84140E-001	3.57720E+000	9	...........
	88	1.18667	7.88327E-001	4.00678E-004	0.00000E+000	3.15865E-004	2.40040E-001	7.88586E-001	3.57720E+000	9	...........
	89	1.2	7.92718E-001	4.01197E-004	0.00000E+000	3.18036E-004	2.40040E-001	7.92987E-001	3.57720E+000	9	...........
	90	1.21333	7.97115E-001	4.00427E-004	0.00000E+000	3.19186E-004	2.40040E-001	7.97386E-001	3.57720E+000	9	...........
	91	1.22667	8.01494E-001	4.01872E-004	0.00000E+000	3.22098E-004	2.40040E-001	8.01787E-001	3.57720E+000	9	...........
	92	1.24	8.05913E-001	4.00682E-004	0.00000E+000	3.22915E-004	2.40040E-001	8.06187E-001	3.57720E+000	9	...........
	93	1.25333	8.10226E-001	3.99764E-004	0.00000E+000	3.23899E-004	2.40040E-001	8.10503E-001	3.57720E+000	9	...........
	94	1.26667	8.14565E-001	4.01071E-004	0.00000E+000	3.26698E-004	2.40040E-001	8.14833E-001	3.57720E+000	9	...........
	95	1.28	8.18968E-001	4.01164E-004	0.00000E+000	3.28540E-004	2.40040E-001	8.19241E-001	3.57720E+000	9	...........
	96	1.29333	8.23303E-001	4.00078E-004	0.00000E+000	3.29386E-004	2.40040E-001	8.23562E-001	3.57720E+000	9	...........
	97	1.30667	8.27597E-001	4.02236E-004	0.00000E+000	3.32889E-004	2.40040E-001	8.27853E-001	3.57720E+000	9	...........
	98	1.32	8.31855E-001	3.99337E-004	0.00000E+000	3.32191E-004	2.40040E-001	8.32090E-001	3.57720E+000	9	...........
	99	1.33333	8.36083E-001	4.00751E-004	0.00000E+000	3.35061E-004	2.40040E-001	8.36358E-001	3.57720E+000	9	...........
	100	1.34667	8.40293E-001	4.01147E-004	0.00000E+000	3.37081E-004	2.40040E-001	8.40536E-001	3.57720E+000	9	...........
	101	1.36	8.44484E-001	4.01099E-004	0.00000E+000	3.38722E-004	2.40040E-001	8.44747E-001	3.57720E+000	9	...........
	102	1.37333	8.48674E-001	3.99011E-004	0.00000E+000	3.38630E-004	2.40040E-001	8.48943E-001	3.57720E+000	9	...........
	103	1.38667	8.52819E-001	4.01324E-004	0.00000E+000	3.42257E-004	2.40040E-001	8.53073E-001	3.57720E+000	9	...........
	104	1.4	8.56882E-001	4.00545E-004	0.00000E+000	3.43220E-004	2.40040E-001	8.57168E-001	3.57720E+000	9	...........
	105	1.41333	8.60987E-001	4.00899E-004	0.00000E+000	3.45169E-004	2.40040E-001	8.61266E-001	3.57720E+000	9	...........
	106	1.42667	8.65041E-001	3.99276E-004	0.00000E+000	3.45390E-004	2.40040E-001	8.65323E-001	3.57720E+000	9	...........
	107	1.44	8.69109E-001	4.01830E-004	0.00000E+000	3.49234E-004	2.40040E-001	8.69396E-001	3.57720E+000	9	...........
	108	1.45333	8.73157E-001	3.99793E-004	0.00000E+000	3.49082E-004	2.40040E-001	8.73433E-001	3.57720E+000	9	...........
	109	1.46667	8.77171E-001	4.01329E-004	0.00000E+000	3.52034E-004	2.40040E-001	8.77456E-001	3.57720E+000	9	...........
	110	1.48	8.81097E-001	4.00491E-004	0.00000E+000	3.52871E-004	2.40040E-001	8.81404E-001	3.57720E+000	9	...........
	111	1.49333	8.85112E-001	4.01083E-004	0.00000E+000	3.55003E-004	2.40040E-001	8.85415E-001	3.57720E+000	9	...........
	112	1.50667	8.89019E-001	4.01214E-004	0.00000E+000	3.56687E-004	2.40040E-001	8.89332E-001	3.57720E+000	9	...........
	113	1.52	8.92926E-001	3.99471E-004	0.00000E+000	3.56698E-004	2.40040E-001	8.93255E-001	3.57720E+000	9	...........
	114	1.53333	8.96839E-001	4.02046E-004	0.00000E+000	3.60571E-004	2.40040E-001	8.97177E-001	3.57720E+000	9	...........
	115	1.54667	9.00671E-001	4.00629E-004	0.00000E+000	3.60835E-004	2.40040E-001	9.00994E-001	3.57720E+000	9	...........
	116	1.56	9.04457E-001	4.00347E-004	0.00000E+000	3.62097E-004	2.40040E-001	9.04804E-001	3.57720E+000	9	...........
	117	1.57333	9.08208E-001	4.01724E-004	0.00000E+000	3.64849E-004	2.40040E-001	9.08564E-001	3.57720E+000	9	...........
	118	1.58667	9.12044E-001	4.01432E-004	0.00000E+000	3.66123E-004	2.40040E-001	9.12362E-001	3.57720E+000	9	...........
	119	1.6	9.15781E-001	4.02437E-004	0.00000E+000	3.68544E-004	2.40040E-001	9.16128E-001	3.57720E+000	9	...........
	120	1.61333	9.19550E-001	4.01582E-004	0.00000E+000	3.69274E-004	2.40040E-001	9.19863E-001	3.57720E+000	9	...........
	121	1.62667	9.23281E-001	4.01328E-004	0.00000E+000	3.70539E-004	2.40040E-001	9.23563E-001	3.57720E+000	9	...........
	122	1.64	9.26880E-001	4.01033E-004	0.00000E+000	3.71709E-004	2.40040E-001	9.27155E-001	3.57720E+000	9	...........
	123	1.65333	9.30493E-001	4.01970E-004	0.00000E+000	3.74030E-004	2.40040E-001	9.30724E-001	3.57720E+000	9	...........
	124	1.66667	9.34097E-001	4.00966E-004	0.00000E+000	3.74541E-004	2.40040E-001	9.34381E-001	3.57720E+000	9	...........
	125	1.68	9.37684E-001	4.01390E-004	0.00000E+000	3.76377E-004	2.40040E-001	9.37964E-001	3.57720E+000	9	...........
	126	1.69333	9.41216E-001	4.02028E-004	0.00000E+000	3.78395E-004	2.40040E-001	9.41498E-001	3.57720E+000	9	...........
	127	1.70667	9.44746E-001	4.01243E-004	0.00000E+000	3.79073E-004	2.40040E-001	9.45036E-001	3.57720E+000	9	...........
	128	1.72	9.48293E-001	4.00580E-004	0.00000E+000	3.79868E-004	2.40040E-001	9.48541E-001	3.57720E+000	9	...........
	129	1.73333	9.51696E-001	4.00706E-004	0.00000E+000	3.81351E-004	2.40040E-001	9.51974E-001	3.57720E+000	9	...........
	130	1.74667	9.55112E-001	4.00464E-004	0.00000E+000	3.82488E-004	2.40040E-001	9.55364E-001	3.57720E+000	9	...........
	131	1.76	9.58507E-001	4.01622E-004	0.00000E+000	3.84958E-004	2.40040E-001	9.58749E-001	3.57720E+000	9	...........
	132	1.77333	9.61851E-001	4.01019E-004	0.00000E+000	3.85720E-004	2.40040E-001	9.62119E-001	3.57720E+000	9	...........
	133	1.78667	9.65194E-001	4.02701E-004	0.00000E+000	3.88684E-004	2.40040E-001	9.65483E-001	3.57720E+000	9	...........
	134	1.8	9.68527E-001	4.00884E-004	0.00000E+000	3.88267E-004	2.40040E-001	9.68805E-001	3.57643E+000	9	...........
	135	1.81333	9.71761E-001	4.01408E-004	0.00000E+000	3.90072E-004	2.40040E-001	9.72073E-001	3.57570E+000	9	...........
	136	1.82667	9.75024E-001	4.02535E-004	0.00000E+000	3.92481E-004	2.40040E-001	9.75291E-001	3.57570E+000	9	...........
	137	1.84	9.78199E-001	4.00098E-004	0.00000E+000	3.91376E-004	2.40040E-001	9.78471E-001	3.57570E+000	9	...........
	138	1.85333	9.81328E-001	4.01124E-004	0.00000E+000	3.93634E-004	2.40040E-001	9.81586E-001	3.57570E+000	9	...........
	139	1.86667	9.84470E-001	4.00304E-004	0.00000E+000	3.94088E-004	2.40040E-001	9.84749E-001	3.57570E+000	9	...........
	140	1.88	9.87578E-001	4.01810E-004	0.00000E+000	3.96818E-004	2.40040E-001	9.87855E-001	3.57570E+000	9	...........
	141	1.89333	9.90718E-001	4.02260E-004	0.00000E+000	3.98526E-004	2.40040E-001	9.91007E-001	3.57570E+000	9	...........
	142	1.90667	9.93734E-001	4.00737E-004	0.00000E+000	3.98226E-004	2.40040E-001	9.94037E-001	3.57570E+000	9	...........
	143	1.92	9.96722E-001	4.00140E-004	0.00000E+000	3.98828E-004	2.40040E-001	9.97045E-001	3.57570E+000	9	...........
	144	1.93	9.99351E-001	4.00456E-004	0.00000E+000	4.00196E-004	2.40040E-001	9.99644E-001	3.57570E+000	9	...........
STARTTIMEOFFSET	QUANT	202.955	Start Time Offset (s)
