EXPLAIN
TAG	PWR800_CHARGE
TITLE	LABEL	PWR Cyclic Charge Discharge (Cell) - Charge Step	Test &Identifier
DATE	LABEL	12-7-2017	Date
TIME	LABEL	14:45:35	Time
NOTES	NOTES	3	&Notes...
	supercap test cell
	0.4mg
	6M KOH
PSTAT	PSTAT	IFC5000-01520	Potentiostat
CAPACITY	QUANT	1.00000E-003	Capacity (A-hr)
CELLTYPE	SELECTOR	1	&Cell Type
WORKINGCONNECTION	SELECTOR	0	&Working Lead
MAXCHARGETIME	VARIABLEANDUNITS	1.00000E+002	s	1.00000E+002	second(s)	Max &Charge Time
CHARGECURRENT	QUANT	4.00000E-004	&Charge Current (A) 
VOLTAGEFINISH	TWOPARAM	F	1.00000E-003	3.60000E+003	&Voltage Finish	 I (A) < 	Max Time(s)
SAMPLETIME	QUANT	1.00000E-002	Sa&mple Period (s)
CHARGESTOPAT1	MULTIPARAM	4	1.00000E+000	Charge Stop At &1	Voltage > Limit	V
CHARGESTOPAT2	MULTIPARAM	0	0.00000E+000	Charge Stop At &2	None	N/A
AESBHCSELECTOR	TOGGLE	F	Save Both Half Cells
IRCOMP	TOGGLE	F	IR &Measure
EOC	QUANT	0	Open Circuit (V)
SEQUENCER	TOGGLE	TRUE	Run as Sequence
PSTATMODEL	IQUANT	53	Pstat Model
PSTATSECTION	LABEL	IFC5000-01520	Pstat Section
PSTATSERIALNO	LABEL	01520	Pstat Serial Number
CTRLMODE	IQUANT	0	Control Mode
ELECTROMETER	IQUANT	1	RE=0 or CS=1
IESTAB	IQUANT	0	I/E Stability
CASPEED	IQUANT	4	Control Amp Speed
CONVENTION	IQUANT	1	Current Convention
ICHRANGE	IQUANT	2	Ich Range
ICHRANGEMODE	TOGGLE	T	Ich Auto Range
ICHOFFSETENABLE	TOGGLE	F	Ich Offset Enable
ICHOFFSET	QUANT	0	Ich Offset (V)
ICHFILTER	IQUANT	1	Ich Filter
VCHRANGE	IQUANT	2	Vch Range
VCHRANGEMODE	TOGGLE	T	Vch Auto Range
VCHOFFSETENABLE	TOGGLE	F	Vch Offset Enable
VCHOFFSET	QUANT	0	Vch Offset (V)
VCHFILTER	IQUANT	1	Vch Filter
IERANGELOWERLIMIT	IQUANT	9	I/E Range Lower Limit
IERANGEMODE	TOGGLE	F	I/E AutoRange
IERANGE	IQUANT	9	I/E Range
ACHSELECT	IQUANT	1	Ach Select
ACHRANGE	IQUANT	2	Ach Range
ACHOFFSETENABLE	TOGGLE	F	Ach Offset Enable
ACHOFFSET	QUANT	0	Ach Offset (V)
ACHFILTER	IQUANT	1	Ach Filter
CABLEID	IQUANT	14	Cable ID
DCCALDATE	LABEL	5-7-2017	DC Calibration Date
ACCALDATE	LABEL	12/3/2015	AC Calibration Date
FRAMEWORKVERSION	QUANT	7.01	Framework Version
INSTRUMENTVERSION	LABEL	4.00	Instrument Version
CURVE	TABLE	121
	Pt	T	Vf	Im	Vu	Pwr	Sig	Ach	Temp	IERange	Over
	#	s	V	A	V	W	V	V	deg C	#	bits
	0	0.013333	3.60293E-001	4.01344E-004	0.00000E+000	1.44601E-004	2.40040E-001	3.60392E-001	3.57690E+000	9	...........
	1	0.026667	3.71606E-001	4.01545E-004	0.00000E+000	1.49216E-004	2.40040E-001	3.71676E-001	3.57690E+000	9	...........
	2	0.04	3.81346E-001	4.01864E-004	0.00000E+000	1.53249E-004	2.40040E-001	3.81423E-001	3.57690E+000	9	...........
	3	0.053333	3.90204E-001	4.00228E-004	0.00000E+000	1.56171E-004	2.40040E-001	3.90272E-001	3.57690E+000	9	...........
	4	0.066667	3.98464E-001	3.99631E-004	0.00000E+000	1.59239E-004	2.40040E-001	3.98535E-001	3.57690E+000	9	...........
	5	0.08	4.06380E-001	4.02136E-004	0.00000E+000	1.63420E-004	2.40040E-001	4.06459E-001	3.57690E+000	9	...........
	6	0.093333	4.14001E-001	4.00850E-004	0.00000E+000	1.65952E-004	2.40040E-001	4.14082E-001	3.57690E+000	9	...........
	7	0.106667	4.21323E-001	4.01553E-004	0.00000E+000	1.69184E-004	2.40040E-001	4.21405E-001	3.57690E+000	9	...........
	8	0.12	4.28475E-001	4.01484E-004	0.00000E+000	1.72026E-004	2.40040E-001	4.28556E-001	3.57690E+000	9	...........
	9	0.133333	4.35412E-001	4.00277E-004	0.00000E+000	1.74285E-004	2.40040E-001	4.35501E-001	3.57690E+000	9	...........
	10	0.146667	4.42284E-001	3.99755E-004	0.00000E+000	1.76805E-004	2.40040E-001	4.42378E-001	3.57690E+000	9	...........
	11	0.16	4.49069E-001	4.00753E-004	0.00000E+000	1.79966E-004	2.40040E-001	4.49168E-001	3.57690E+000	9	...........
	12	0.173333	4.55699E-001	4.01261E-004	0.00000E+000	1.82854E-004	2.40040E-001	4.55795E-001	3.57690E+000	9	...........
	13	0.186667	4.62295E-001	4.00804E-004	0.00000E+000	1.85290E-004	2.40040E-001	4.62391E-001	3.57690E+000	9	...........
	14	0.2	4.68787E-001	4.00916E-004	0.00000E+000	1.87944E-004	2.40040E-001	4.68881E-001	3.57690E+000	9	...........
	15	0.213333	4.75235E-001	4.00562E-004	0.00000E+000	1.90361E-004	2.40040E-001	4.75330E-001	3.57690E+000	9	...........
	16	0.226667	4.81542E-001	4.01070E-004	0.00000E+000	1.93132E-004	2.40040E-001	4.81640E-001	3.57690E+000	9	...........
	17	0.24	4.87858E-001	4.00138E-004	0.00000E+000	1.95211E-004	2.40040E-001	4.87958E-001	3.57690E+000	9	...........
	18	0.253333	4.94178E-001	4.00057E-004	0.00000E+000	1.97700E-004	2.40040E-001	4.94282E-001	3.57690E+000	9	...........
	19	0.266667	5.00355E-001	4.00383E-004	0.00000E+000	2.00334E-004	2.40040E-001	5.00459E-001	3.57690E+000	9	...........
	20	0.28	5.06500E-001	4.00710E-004	0.00000E+000	2.02960E-004	2.40040E-001	5.06612E-001	3.57690E+000	9	...........
	21	0.293333	5.12617E-001	3.99625E-004	0.00000E+000	2.04854E-004	2.40040E-001	5.12727E-001	3.57690E+000	9	...........
	22	0.306667	5.18755E-001	3.99635E-004	0.00000E+000	2.07313E-004	2.40040E-001	5.18867E-001	3.57690E+000	9	...........
	23	0.32	5.24863E-001	4.01545E-004	0.00000E+000	2.10756E-004	2.40040E-001	5.24967E-001	3.57690E+000	9	...........
	24	0.333333	5.30841E-001	4.00791E-004	0.00000E+000	2.12756E-004	2.40040E-001	5.30926E-001	3.57690E+000	9	...........
	25	0.346667	5.36501E-001	4.00983E-004	0.00000E+000	2.15127E-004	2.40040E-001	5.36692E-001	3.57690E+000	9	...........
	26	0.36	5.42411E-001	4.00382E-004	0.00000E+000	2.17172E-004	2.40040E-001	5.42612E-001	3.57690E+000	9	...........
	27	0.373333	5.48244E-001	4.00395E-004	0.00000E+000	2.19514E-004	2.40040E-001	5.48441E-001	3.57690E+000	9	...........
	28	0.386667	5.54142E-001	4.00624E-004	0.00000E+000	2.22003E-004	2.40040E-001	5.54317E-001	3.57690E+000	9	...........
	29	0.4	5.59977E-001	4.00689E-004	0.00000E+000	2.24377E-004	2.40040E-001	5.60174E-001	3.57690E+000	9	...........
	30	0.413333	5.65871E-001	4.01421E-004	0.00000E+000	2.27152E-004	2.40040E-001	5.66040E-001	3.57690E+000	9	...........
	31	0.426667	5.71696E-001	4.01837E-004	0.00000E+000	2.29729E-004	2.40040E-001	5.71862E-001	3.57690E+000	9	...........
	32	0.44	5.77507E-001	4.01497E-004	0.00000E+000	2.31868E-004	2.40040E-001	5.77732E-001	3.57690E+000	9	...........
	33	0.453333	5.83318E-001	4.01200E-004	0.00000E+000	2.34027E-004	2.40040E-001	5.83540E-001	3.57690E+000	9	...........
	34	0.466667	5.89115E-001	4.00175E-004	0.00000E+000	2.35749E-004	2.40040E-001	5.89346E-001	3.57690E+000	9	...........
	35	0.48	5.94804E-001	4.00565E-004	0.00000E+000	2.38257E-004	2.40040E-001	5.95062E-001	3.57690E+000	9	...........
	36	0.493333	6.00453E-001	4.00937E-004	0.00000E+000	2.40744E-004	2.40040E-001	6.00732E-001	3.57690E+000	9	...........
	37	0.506667	6.06195E-001	4.01051E-004	0.00000E+000	2.43115E-004	2.40040E-001	6.06467E-001	3.57690E+000	9	...........
	38	0.52	6.11915E-001	4.01347E-004	0.00000E+000	2.45590E-004	2.40040E-001	6.12189E-001	3.57690E+000	9	...........
	39	0.533333	6.17698E-001	4.02100E-004	0.00000E+000	2.48377E-004	2.40040E-001	6.17913E-001	3.57690E+000	9	...........
	40	0.546667	6.23329E-001	4.01122E-004	0.00000E+000	2.50031E-004	2.40040E-001	6.23553E-001	3.57690E+000	9	...........
	41	0.56	6.28945E-001	4.00351E-004	0.00000E+000	2.51799E-004	2.40040E-001	6.29181E-001	3.57690E+000	9	...........
	42	0.573333	6.34493E-001	4.01291E-004	0.00000E+000	2.54616E-004	2.40040E-001	6.34724E-001	3.57690E+000	9	...........
	43	0.586667	6.40019E-001	4.02249E-004	0.00000E+000	2.57447E-004	2.40040E-001	6.40278E-001	3.57820E+000	9	...........
	44	0.6	6.45535E-001	4.00173E-004	0.00000E+000	2.58326E-004	2.40040E-001	6.45768E-001	3.57950E+000	9	...........
	45	0.613333	6.51107E-001	4.00467E-004	0.00000E+000	2.60747E-004	2.40040E-001	6.51338E-001	3.57950E+000	9	...........
	46	0.626667	6.56679E-001	3.99762E-004	0.00000E+000	2.62516E-004	2.40040E-001	6.56892E-001	3.57950E+000	9	...........
	47	0.64	6.62227E-001	4.01190E-004	0.00000E+000	2.65679E-004	2.40040E-001	6.62432E-001	3.57950E+000	9	...........
	48	0.653333	6.67777E-001	4.00101E-004	0.00000E+000	2.67178E-004	2.40040E-001	6.67985E-001	3.57950E+000	9	...........
	49	0.666667	6.73284E-001	4.00316E-004	0.00000E+000	2.69526E-004	2.40040E-001	6.73505E-001	3.57950E+000	9	...........
	50	0.68	6.78744E-001	4.01096E-004	0.00000E+000	2.72241E-004	2.40040E-001	6.79005E-001	3.57950E+000	9	...........
	51	0.693333	6.84218E-001	4.00980E-004	0.00000E+000	2.74358E-004	2.40040E-001	6.84444E-001	3.57950E+000	9	...........
	52	0.706667	6.89629E-001	4.01145E-004	0.00000E+000	2.76641E-004	2.40040E-001	6.89863E-001	3.57950E+000	9	...........
	53	0.72	6.95045E-001	4.02380E-004	0.00000E+000	2.79672E-004	2.40040E-001	6.95300E-001	3.57950E+000	9	...........
	54	0.733333	7.00402E-001	4.01892E-004	0.00000E+000	2.81486E-004	2.40040E-001	7.00669E-001	3.57950E+000	9	...........
	55	0.746667	7.05767E-001	4.02124E-004	0.00000E+000	2.83806E-004	2.40040E-001	7.06018E-001	3.57950E+000	9	...........
	56	0.76	7.11108E-001	4.01496E-004	0.00000E+000	2.85507E-004	2.40040E-001	7.11361E-001	3.57950E+000	9	...........
	57	0.773333	7.16534E-001	4.00793E-004	0.00000E+000	2.87182E-004	2.40040E-001	7.16800E-001	3.57950E+000	9	...........
	58	0.786667	7.21934E-001	3.99809E-004	0.00000E+000	2.88636E-004	2.40040E-001	7.22175E-001	3.57950E+000	9	...........
	59	0.8	7.27229E-001	4.00665E-004	0.00000E+000	2.91375E-004	2.40040E-001	7.27465E-001	3.57950E+000	9	...........
	60	0.813333	7.32573E-001	3.99377E-004	0.00000E+000	2.92573E-004	2.40040E-001	7.32801E-001	3.57950E+000	9	...........
	61	0.826667	7.37843E-001	4.00329E-004	0.00000E+000	2.95380E-004	2.40040E-001	7.38088E-001	3.57950E+000	9	...........
	62	0.84	7.43159E-001	3.99550E-004	0.00000E+000	2.96929E-004	2.40040E-001	7.43428E-001	3.57950E+000	9	...........
	63	0.853333	7.48434E-001	4.01322E-004	0.00000E+000	3.00363E-004	2.40040E-001	7.48658E-001	3.57950E+000	9	...........
	64	0.866667	7.53597E-001	4.00109E-004	0.00000E+000	3.01521E-004	2.40040E-001	7.53819E-001	3.57950E+000	9	...........
	65	0.88	7.58726E-001	4.00746E-004	0.00000E+000	3.04056E-004	2.40040E-001	7.58939E-001	3.57950E+000	9	...........
	66	0.893333	7.63890E-001	4.00172E-004	0.00000E+000	3.05687E-004	2.40040E-001	7.64129E-001	3.57950E+000	9	...........
	67	0.906667	7.69108E-001	4.01724E-004	0.00000E+000	3.08969E-004	2.40040E-001	7.69351E-001	3.57950E+000	9	...........
	68	0.92	7.74259E-001	4.01506E-004	0.00000E+000	3.10869E-004	2.40040E-001	7.74519E-001	3.57950E+000	9	...........
	69	0.933333	7.79399E-001	4.00768E-004	0.00000E+000	3.12358E-004	2.40040E-001	7.79651E-001	3.57950E+000	9	...........
	70	0.946667	7.84495E-001	4.01333E-004	0.00000E+000	3.14843E-004	2.40040E-001	7.84714E-001	3.57950E+000	9	...........
	71	0.96	7.89459E-001	4.01075E-004	0.00000E+000	3.16633E-004	2.40040E-001	7.89687E-001	3.57950E+000	9	...........
	72	0.97333	7.94511E-001	4.00252E-004	0.00000E+000	3.18005E-004	2.40040E-001	7.94775E-001	3.57950E+000	9	...........
	73	0.98667	7.99578E-001	4.00387E-004	0.00000E+000	3.20140E-004	2.40040E-001	7.99814E-001	3.57950E+000	9	...........
	74	1	8.04591E-001	4.00640E-004	0.00000E+000	3.22351E-004	2.40040E-001	8.04830E-001	3.57950E+000	9	...........
	75	1.01333	8.09523E-001	4.00123E-004	0.00000E+000	3.23909E-004	2.40040E-001	8.09787E-001	3.57950E+000	9	...........
	76	1.02667	8.14484E-001	4.01474E-004	0.00000E+000	3.26994E-004	2.40040E-001	8.14741E-001	3.57950E+000	9	...........
	77	1.04	8.19428E-001	4.00639E-004	0.00000E+000	3.28295E-004	2.40040E-001	8.19681E-001	3.57950E+000	9	...........
	78	1.05333	8.24311E-001	4.01086E-004	0.00000E+000	3.30619E-004	2.40040E-001	8.24568E-001	3.57950E+000	9	...........
	79	1.06667	8.29115E-001	4.00912E-004	0.00000E+000	3.32402E-004	2.40040E-001	8.29365E-001	3.57950E+000	9	...........
	80	1.08	8.33898E-001	4.00532E-004	0.00000E+000	3.34003E-004	2.40040E-001	8.34157E-001	3.57950E+000	9	...........
	81	1.09333	8.38669E-001	4.00407E-004	0.00000E+000	3.35809E-004	2.40040E-001	8.38950E-001	3.57950E+000	9	...........
	82	1.10667	8.43441E-001	4.01651E-004	0.00000E+000	3.38769E-004	2.40040E-001	8.43723E-001	3.57950E+000	9	...........
	83	1.12	8.48165E-001	4.00159E-004	0.00000E+000	3.39401E-004	2.40040E-001	8.48443E-001	3.57950E+000	9	...........
	84	1.13333	8.52873E-001	4.01251E-004	0.00000E+000	3.42216E-004	2.40040E-001	8.53158E-001	3.57950E+000	9	...........
	85	1.14667	8.57588E-001	4.01266E-004	0.00000E+000	3.44121E-004	2.40040E-001	8.57906E-001	3.57950E+000	9	...........
	86	1.16	8.62184E-001	4.02214E-004	0.00000E+000	3.46782E-004	2.40040E-001	8.62499E-001	3.57950E+000	9	...........
	87	1.17333	8.66729E-001	4.00289E-004	0.00000E+000	3.46942E-004	2.40040E-001	8.67054E-001	3.57950E+000	9	...........
	88	1.18667	8.71347E-001	4.00601E-004	0.00000E+000	3.49063E-004	2.40040E-001	8.71662E-001	3.57950E+000	9	...........
	89	1.2	8.75916E-001	4.00464E-004	0.00000E+000	3.50773E-004	2.40040E-001	8.76259E-001	3.57950E+000	9	...........
	90	1.21333	8.80389E-001	4.00525E-004	0.00000E+000	3.52618E-004	2.40040E-001	8.80714E-001	3.57950E+000	9	...........
	91	1.22667	8.84940E-001	4.02420E-004	0.00000E+000	3.56118E-004	2.40040E-001	8.85259E-001	3.57950E+000	9	...........
	92	1.24	8.89393E-001	3.99528E-004	0.00000E+000	3.55337E-004	2.40040E-001	8.89712E-001	3.57950E+000	9	...........
	93	1.25333	8.93743E-001	4.00363E-004	0.00000E+000	3.57821E-004	2.40040E-001	8.94097E-001	3.57950E+000	9	...........
	94	1.26667	8.98156E-001	4.00472E-004	0.00000E+000	3.59686E-004	2.40040E-001	8.98482E-001	3.57950E+000	9	...........
	95	1.28	9.02485E-001	4.01874E-004	0.00000E+000	3.62686E-004	2.40040E-001	9.02834E-001	3.57950E+000	9	...........
	96	1.29333	9.06782E-001	4.01160E-004	0.00000E+000	3.63764E-004	2.40040E-001	9.07139E-001	3.57950E+000	9	...........
	97	1.30667	9.11114E-001	4.01512E-004	0.00000E+000	3.65823E-004	2.40040E-001	9.11444E-001	3.57950E+000	9	...........
	98	1.32	9.15379E-001	3.99177E-004	0.00000E+000	3.65398E-004	2.40040E-001	9.15720E-001	3.57950E+000	9	...........
	99	1.33333	9.19636E-001	4.00875E-004	0.00000E+000	3.68659E-004	2.40040E-001	9.19977E-001	3.57950E+000	9	...........
	100	1.34667	9.23875E-001	4.01379E-004	0.00000E+000	3.70825E-004	2.40040E-001	9.24158E-001	3.57950E+000	9	...........
	101	1.36	9.28042E-001	4.01286E-004	0.00000E+000	3.72410E-004	2.40040E-001	9.28360E-001	3.57950E+000	9	...........
	102	1.37333	9.32132E-001	4.00949E-004	0.00000E+000	3.73738E-004	2.40040E-001	9.32435E-001	3.57950E+000	9	...........
	103	1.38667	9.36162E-001	4.00953E-004	0.00000E+000	3.75357E-004	2.40040E-001	9.36479E-001	3.57950E+000	9	...........
	104	1.4	9.40200E-001	3.99566E-004	0.00000E+000	3.75672E-004	2.40040E-001	9.40505E-001	3.57950E+000	9	...........
	105	1.41333	9.44258E-001	4.01295E-004	0.00000E+000	3.78926E-004	2.40040E-001	9.44570E-001	3.57950E+000	9	...........
	106	1.42667	9.48289E-001	4.02535E-004	0.00000E+000	3.81720E-004	2.40040E-001	9.48603E-001	3.57950E+000	9	...........
	107	1.44	9.52240E-001	4.01256E-004	0.00000E+000	3.82091E-004	2.40040E-001	9.52545E-001	3.57950E+000	9	...........
	108	1.45333	9.56097E-001	4.01347E-004	0.00000E+000	3.83727E-004	2.40040E-001	9.56388E-001	3.57950E+000	9	...........
	109	1.46667	9.59929E-001	4.01337E-004	0.00000E+000	3.85255E-004	2.40040E-001	9.60263E-001	3.57950E+000	9	...........
	110	1.48	9.63733E-001	4.00523E-004	0.00000E+000	3.85997E-004	2.40040E-001	9.64060E-001	3.57950E+000	9	...........
	111	1.49333	9.67539E-001	4.00911E-004	0.00000E+000	3.87897E-004	2.40040E-001	9.67864E-001	3.57950E+000	9	...........
	112	1.50667	9.71320E-001	4.00243E-004	0.00000E+000	3.88764E-004	2.40040E-001	9.71646E-001	3.57950E+000	9	...........
	113	1.52	9.75089E-001	4.00604E-004	0.00000E+000	3.90625E-004	2.40040E-001	9.75400E-001	3.57950E+000	9	...........
	114	1.53333	9.78776E-001	4.01796E-004	0.00000E+000	3.93268E-004	2.40040E-001	9.79085E-001	3.57950E+000	9	...........
	115	1.54667	9.82334E-001	4.00736E-004	0.00000E+000	3.93656E-004	2.40040E-001	9.82623E-001	3.57950E+000	9	...........
	116	1.56	9.85905E-001	4.02204E-004	0.00000E+000	3.96534E-004	2.40040E-001	9.86242E-001	3.57950E+000	9	...........
	117	1.57333	9.89490E-001	4.00988E-004	0.00000E+000	3.96773E-004	2.40040E-001	9.89804E-001	3.57950E+000	9	...........
	118	1.58667	9.92942E-001	4.01139E-004	0.00000E+000	3.98308E-004	2.40040E-001	9.93272E-001	3.57800E+000	9	...........
	119	1.6	9.96423E-001	4.00462E-004	0.00000E+000	3.99029E-004	2.40040E-001	9.96777E-001	3.57650E+000	9	...........
	120	1.60833	9.99254E-001	4.02144E-004	0.00000E+000	4.01844E-004	2.40040E-001	9.99601E-001	3.57650E+000	9	...........
STARTTIMEOFFSET	QUANT	1292.584	Start Time Offset (s)
