EXPLAIN
TAG	PWR800_CHARGE
TITLE	LABEL	PWR Cyclic Charge Discharge (Cell) - Charge Step	Test &Identifier
DATE	LABEL	12-7-2017	Date
TIME	LABEL	14:53:29	Time
NOTES	NOTES	3	&Notes...
	supercap test cell
	0.4mg
	6M KOH
PSTAT	PSTAT	IFC5000-01520	Potentiostat
CAPACITY	QUANT	1.00000E-003	Capacity (A-hr)
CELLTYPE	SELECTOR	1	&Cell Type
WORKINGCONNECTION	SELECTOR	0	&Working Lead
MAXCHARGETIME	VARIABLEANDUNITS	1.00000E+002	s	1.00000E+002	second(s)	Max &Charge Time
CHARGECURRENT	QUANT	4.00000E-004	&Charge Current (A) 
VOLTAGEFINISH	TWOPARAM	F	1.00000E-003	3.60000E+003	&Voltage Finish	 I (A) < 	Max Time(s)
SAMPLETIME	QUANT	1.00000E-002	Sa&mple Period (s)
CHARGESTOPAT1	MULTIPARAM	4	1.00000E+000	Charge Stop At &1	Voltage > Limit	V
CHARGESTOPAT2	MULTIPARAM	0	0.00000E+000	Charge Stop At &2	None	N/A
AESBHCSELECTOR	TOGGLE	F	Save Both Half Cells
IRCOMP	TOGGLE	F	IR &Measure
EOC	QUANT	0	Open Circuit (V)
SEQUENCER	TOGGLE	TRUE	Run as Sequence
PSTATMODEL	IQUANT	53	Pstat Model
PSTATSECTION	LABEL	IFC5000-01520	Pstat Section
PSTATSERIALNO	LABEL	01520	Pstat Serial Number
CTRLMODE	IQUANT	0	Control Mode
ELECTROMETER	IQUANT	1	RE=0 or CS=1
IESTAB	IQUANT	0	I/E Stability
CASPEED	IQUANT	4	Control Amp Speed
CONVENTION	IQUANT	1	Current Convention
ICHRANGE	IQUANT	2	Ich Range
ICHRANGEMODE	TOGGLE	T	Ich Auto Range
ICHOFFSETENABLE	TOGGLE	F	Ich Offset Enable
ICHOFFSET	QUANT	0	Ich Offset (V)
ICHFILTER	IQUANT	1	Ich Filter
VCHRANGE	IQUANT	2	Vch Range
VCHRANGEMODE	TOGGLE	T	Vch Auto Range
VCHOFFSETENABLE	TOGGLE	F	Vch Offset Enable
VCHOFFSET	QUANT	0	Vch Offset (V)
VCHFILTER	IQUANT	1	Vch Filter
IERANGELOWERLIMIT	IQUANT	9	I/E Range Lower Limit
IERANGEMODE	TOGGLE	F	I/E AutoRange
IERANGE	IQUANT	9	I/E Range
ACHSELECT	IQUANT	1	Ach Select
ACHRANGE	IQUANT	2	Ach Range
ACHOFFSETENABLE	TOGGLE	F	Ach Offset Enable
ACHOFFSET	QUANT	0	Ach Offset (V)
ACHFILTER	IQUANT	1	Ach Filter
CABLEID	IQUANT	14	Cable ID
DCCALDATE	LABEL	5-7-2017	DC Calibration Date
ACCALDATE	LABEL	12/3/2015	AC Calibration Date
FRAMEWORKVERSION	QUANT	7.01	Framework Version
INSTRUMENTVERSION	LABEL	4.00	Instrument Version
CURVE	TABLE	117
	Pt	T	Vf	Im	Vu	Pwr	Sig	Ach	Temp	IERange	Over
	#	s	V	A	V	W	V	V	deg C	#	bits
	0	0.013333	3.67072E-001	4.01393E-004	0.00000E+000	1.47340E-004	2.40040E-001	3.67156E-001	3.57660E+000	9	...........
	1	0.026667	3.78794E-001	4.01199E-004	0.00000E+000	1.51972E-004	2.40040E-001	3.78858E-001	3.57660E+000	9	...........
	2	0.04	3.88802E-001	4.01033E-004	0.00000E+000	1.55922E-004	2.40040E-001	3.88874E-001	3.57660E+000	9	...........
	3	0.053333	3.97854E-001	4.01461E-004	0.00000E+000	1.59723E-004	2.40040E-001	3.97925E-001	3.57660E+000	9	...........
	4	0.066667	4.06335E-001	4.01415E-004	0.00000E+000	1.63109E-004	2.40040E-001	4.06411E-001	3.57660E+000	9	...........
	5	0.08	4.14367E-001	4.02083E-004	0.00000E+000	1.66610E-004	2.40040E-001	4.14454E-001	3.57660E+000	9	...........
	6	0.093333	4.22164E-001	4.00085E-004	0.00000E+000	1.68902E-004	2.40040E-001	4.22248E-001	3.57660E+000	9	...........
	7	0.106667	4.29792E-001	4.00718E-004	0.00000E+000	1.72225E-004	2.40040E-001	4.29879E-001	3.57660E+000	9	...........
	8	0.12	4.37192E-001	4.00502E-004	0.00000E+000	1.75096E-004	2.40040E-001	4.37276E-001	3.57660E+000	9	...........
	9	0.133333	4.44358E-001	4.00396E-004	0.00000E+000	1.77919E-004	2.40040E-001	4.44451E-001	3.57660E+000	9	...........
	10	0.146667	4.51352E-001	4.01556E-004	0.00000E+000	1.81243E-004	2.40040E-001	4.51445E-001	3.57660E+000	9	...........
	11	0.16	4.58261E-001	4.00404E-004	0.00000E+000	1.83490E-004	2.40040E-001	4.58354E-001	3.57660E+000	9	...........
	12	0.173333	4.65071E-001	4.00944E-004	0.00000E+000	1.86467E-004	2.40040E-001	4.65161E-001	3.57660E+000	9	...........
	13	0.186667	4.71830E-001	4.01339E-004	0.00000E+000	1.89364E-004	2.40040E-001	4.71926E-001	3.57660E+000	9	...........
	14	0.2	4.78517E-001	4.00868E-004	0.00000E+000	1.91822E-004	2.40040E-001	4.78612E-001	3.57660E+000	9	...........
	15	0.213333	4.85146E-001	4.00892E-004	0.00000E+000	1.94491E-004	2.40040E-001	4.85244E-001	3.57660E+000	9	...........
	16	0.226667	4.91654E-001	4.00681E-004	0.00000E+000	1.96997E-004	2.40040E-001	4.91758E-001	3.57660E+000	9	...........
	17	0.24	4.98133E-001	3.99218E-004	0.00000E+000	1.98863E-004	2.40040E-001	4.98232E-001	3.57660E+000	9	...........
	18	0.253333	5.04531E-001	3.99761E-004	0.00000E+000	2.01692E-004	2.40040E-001	5.04635E-001	3.57660E+000	9	...........
	19	0.266667	5.10905E-001	4.01136E-004	0.00000E+000	2.04942E-004	2.40040E-001	5.11013E-001	3.57660E+000	9	...........
	20	0.28	5.17199E-001	3.99975E-004	0.00000E+000	2.06867E-004	2.40040E-001	5.17305E-001	3.57660E+000	9	...........
	21	0.293333	5.23441E-001	4.01003E-004	0.00000E+000	2.09902E-004	2.40040E-001	5.23548E-001	3.57660E+000	9	...........
	22	0.306667	5.29749E-001	4.00611E-004	0.00000E+000	2.12223E-004	2.40040E-001	5.29856E-001	3.57660E+000	9	...........
	23	0.32	5.35713E-001	4.01505E-004	0.00000E+000	2.15091E-004	2.40040E-001	5.35865E-001	3.57660E+000	9	...........
	24	0.333333	5.41878E-001	4.00635E-004	0.00000E+000	2.17095E-004	2.40040E-001	5.42097E-001	3.57660E+000	9	...........
	25	0.346667	5.48003E-001	4.01899E-004	0.00000E+000	2.20242E-004	2.40040E-001	5.48221E-001	3.57660E+000	9	...........
	26	0.36	5.54099E-001	4.00837E-004	0.00000E+000	2.22103E-004	2.40040E-001	5.54340E-001	3.57660E+000	9	...........
	27	0.373333	5.60152E-001	4.00749E-004	0.00000E+000	2.24481E-004	2.40040E-001	5.60396E-001	3.57660E+000	9	...........
	28	0.386667	5.66217E-001	4.01341E-004	0.00000E+000	2.27246E-004	2.40040E-001	5.66445E-001	3.57660E+000	9	...........
	29	0.4	5.72180E-001	4.01550E-004	0.00000E+000	2.29759E-004	2.40040E-001	5.72405E-001	3.57660E+000	9	...........
	30	0.413333	5.78143E-001	4.00192E-004	0.00000E+000	2.31368E-004	2.40040E-001	5.78385E-001	3.57660E+000	9	...........
	31	0.426667	5.84066E-001	4.00382E-004	0.00000E+000	2.33850E-004	2.40040E-001	5.84298E-001	3.57660E+000	9	...........
	32	0.44	5.90033E-001	3.99928E-004	0.00000E+000	2.35971E-004	2.40040E-001	5.90271E-001	3.57660E+000	9	...........
	33	0.453333	5.95968E-001	3.99943E-004	0.00000E+000	2.38353E-004	2.40040E-001	5.96213E-001	3.57660E+000	9	...........
	34	0.466667	6.01835E-001	4.00719E-004	0.00000E+000	2.41167E-004	2.40040E-001	6.02077E-001	3.57660E+000	9	...........
	35	0.48	6.07687E-001	4.00452E-004	0.00000E+000	2.43350E-004	2.40040E-001	6.07939E-001	3.57660E+000	9	...........
	36	0.493333	6.13598E-001	4.01058E-004	0.00000E+000	2.46088E-004	2.40040E-001	6.13811E-001	3.57660E+000	9	...........
	37	0.506667	6.19474E-001	4.00474E-004	0.00000E+000	2.48083E-004	2.40040E-001	6.19648E-001	3.57660E+000	9	...........
	38	0.52	6.25279E-001	4.00203E-004	0.00000E+000	2.50239E-004	2.40040E-001	6.25457E-001	3.57660E+000	9	...........
	39	0.533333	6.31083E-001	4.01117E-004	0.00000E+000	2.53138E-004	2.40040E-001	6.31303E-001	3.57660E+000	9	...........
	40	0.546667	6.36909E-001	4.01234E-004	0.00000E+000	2.55549E-004	2.40040E-001	6.37127E-001	3.57660E+000	9	...........
	41	0.56	6.42711E-001	4.00372E-004	0.00000E+000	2.57324E-004	2.40040E-001	6.42938E-001	3.57660E+000	9	...........
	42	0.573333	6.48461E-001	4.00229E-004	0.00000E+000	2.59533E-004	2.40040E-001	6.48698E-001	3.57660E+000	9	...........
	43	0.586667	6.54187E-001	4.00769E-004	0.00000E+000	2.62178E-004	2.40040E-001	6.54404E-001	3.57660E+000	9	...........
	44	0.6	6.59894E-001	4.01210E-004	0.00000E+000	2.64756E-004	2.40040E-001	6.60125E-001	3.57660E+000	9	...........
	45	0.613333	6.65579E-001	4.01401E-004	0.00000E+000	2.67164E-004	2.40040E-001	6.65843E-001	3.57660E+000	9	...........
	46	0.626667	6.71263E-001	4.00184E-004	0.00000E+000	2.68629E-004	2.40040E-001	6.71492E-001	3.57660E+000	9	...........
	47	0.64	6.76865E-001	4.00864E-004	0.00000E+000	2.71331E-004	2.40040E-001	6.77104E-001	3.57660E+000	9	...........
	48	0.653333	6.82527E-001	4.01271E-004	0.00000E+000	2.73879E-004	2.40040E-001	6.82792E-001	3.57660E+000	9	...........
	49	0.666667	6.88166E-001	3.99895E-004	0.00000E+000	2.75194E-004	2.40040E-001	6.88419E-001	3.57660E+000	9	...........
	50	0.68	6.93717E-001	4.01707E-004	0.00000E+000	2.78671E-004	2.40040E-001	6.93955E-001	3.57660E+000	9	...........
	51	0.693333	6.99242E-001	4.00475E-004	0.00000E+000	2.80029E-004	2.40040E-001	6.99485E-001	3.57660E+000	9	...........
	52	0.706667	7.04849E-001	4.00458E-004	0.00000E+000	2.82263E-004	2.40040E-001	7.05103E-001	3.57660E+000	9	...........
	53	0.72	7.10408E-001	4.00058E-004	0.00000E+000	2.84205E-004	2.40040E-001	7.10651E-001	3.57660E+000	9	...........
	54	0.733333	7.15941E-001	3.99378E-004	0.00000E+000	2.85931E-004	2.40040E-001	7.16173E-001	3.57660E+000	9	...........
	55	0.746667	7.21492E-001	3.99832E-004	0.00000E+000	2.88476E-004	2.40040E-001	7.21714E-001	3.57660E+000	9	...........
	56	0.76	7.26946E-001	4.01289E-004	0.00000E+000	2.91715E-004	2.40040E-001	7.27188E-001	3.57660E+000	9	...........
	57	0.773333	7.32322E-001	4.01289E-004	0.00000E+000	2.93873E-004	2.40040E-001	7.32561E-001	3.57660E+000	9	...........
	58	0.786667	7.37722E-001	3.99913E-004	0.00000E+000	2.95024E-004	2.40040E-001	7.37960E-001	3.57660E+000	9	...........
	59	0.8	7.43162E-001	4.01403E-004	0.00000E+000	2.98308E-004	2.40040E-001	7.43395E-001	3.57660E+000	9	...........
	60	0.813333	7.48544E-001	4.01640E-004	0.00000E+000	3.00645E-004	2.40040E-001	7.48761E-001	3.57660E+000	9	...........
	61	0.826667	7.53841E-001	4.00638E-004	0.00000E+000	3.02017E-004	2.40040E-001	7.54062E-001	3.57660E+000	9	...........
	62	0.84	7.59161E-001	4.00928E-004	0.00000E+000	3.04369E-004	2.40040E-001	7.59381E-001	3.57660E+000	9	...........
	63	0.853333	7.64543E-001	4.01789E-004	0.00000E+000	3.07185E-004	2.40040E-001	7.64761E-001	3.57660E+000	9	...........
	64	0.866667	7.69838E-001	4.00674E-004	0.00000E+000	3.08454E-004	2.40040E-001	7.70087E-001	3.57701E+000	9	...........
	65	0.88	7.75162E-001	4.01232E-004	0.00000E+000	3.11019E-004	2.40040E-001	7.75392E-001	3.57770E+000	9	...........
	66	0.893333	7.80405E-001	4.01039E-004	0.00000E+000	3.12973E-004	2.40040E-001	7.80650E-001	3.57770E+000	9	...........
	67	0.906667	7.85614E-001	4.00259E-004	0.00000E+000	3.14450E-004	2.40040E-001	7.85834E-001	3.57770E+000	9	...........
	68	0.92	7.90706E-001	4.00450E-004	0.00000E+000	3.16638E-004	2.40040E-001	7.90955E-001	3.57770E+000	9	...........
	69	0.933333	7.95849E-001	3.99944E-004	0.00000E+000	3.18295E-004	2.40040E-001	7.96112E-001	3.57770E+000	9	...........
	70	0.946667	8.01040E-001	4.02060E-004	0.00000E+000	3.22066E-004	2.40040E-001	8.01280E-001	3.57770E+000	9	...........
	71	0.96	8.06093E-001	3.99882E-004	0.00000E+000	3.22342E-004	2.40040E-001	8.06355E-001	3.57770E+000	9	...........
	72	0.97333	8.11129E-001	4.01533E-004	0.00000E+000	3.25695E-004	2.40040E-001	8.11381E-001	3.57770E+000	9	...........
	73	0.98667	8.16182E-001	4.00669E-004	0.00000E+000	3.27019E-004	2.40040E-001	8.16463E-001	3.57770E+000	9	...........
	74	1	8.21225E-001	4.00635E-004	0.00000E+000	3.29011E-004	2.40040E-001	8.21491E-001	3.57770E+000	9	...........
	75	1.01333	8.26194E-001	4.00779E-004	0.00000E+000	3.31122E-004	2.40040E-001	8.26477E-001	3.57770E+000	9	...........
	76	1.02667	8.31132E-001	4.00377E-004	0.00000E+000	3.32766E-004	2.40040E-001	8.31401E-001	3.57770E+000	9	...........
	77	1.04	8.36034E-001	4.00755E-004	0.00000E+000	3.35045E-004	2.40040E-001	8.36346E-001	3.57770E+000	9	...........
	78	1.05333	8.40915E-001	4.00655E-004	0.00000E+000	3.36917E-004	2.40040E-001	8.41205E-001	3.57770E+000	9	...........
	79	1.06667	8.45842E-001	4.01643E-004	0.00000E+000	3.39726E-004	2.40040E-001	8.46138E-001	3.57770E+000	9	...........
	80	1.08	8.50648E-001	4.01221E-004	0.00000E+000	3.41298E-004	2.40040E-001	8.50961E-001	3.57770E+000	9	...........
	81	1.09333	8.55416E-001	4.01334E-004	0.00000E+000	3.43307E-004	2.40040E-001	8.55743E-001	3.57770E+000	9	...........
	82	1.10667	8.60122E-001	4.00533E-004	0.00000E+000	3.44508E-004	2.40040E-001	8.60459E-001	3.57770E+000	9	...........
	83	1.12	8.64880E-001	4.01098E-004	0.00000E+000	3.46902E-004	2.40040E-001	8.65219E-001	3.57770E+000	9	...........
	84	1.13333	8.69603E-001	4.01265E-004	0.00000E+000	3.48941E-004	2.40040E-001	8.69928E-001	3.57770E+000	9	...........
	85	1.14667	8.74261E-001	4.01113E-004	0.00000E+000	3.50677E-004	2.40040E-001	8.74603E-001	3.57770E+000	9	...........
	86	1.16	8.78845E-001	4.01054E-004	0.00000E+000	3.52465E-004	2.40040E-001	8.79197E-001	3.57770E+000	9	...........
	87	1.17333	8.83399E-001	4.00537E-004	0.00000E+000	3.53834E-004	2.40040E-001	8.83745E-001	3.57770E+000	9	...........
	88	1.18667	8.87908E-001	4.00828E-004	0.00000E+000	3.55899E-004	2.40040E-001	8.88232E-001	3.57770E+000	9	...........
	89	1.2	8.92428E-001	4.01424E-004	0.00000E+000	3.58242E-004	2.40040E-001	8.92758E-001	3.57770E+000	9	...........
	90	1.21333	8.96922E-001	4.00937E-004	0.00000E+000	3.59609E-004	2.40040E-001	8.97265E-001	3.57770E+000	9	...........
	91	1.22667	9.01335E-001	4.01150E-004	0.00000E+000	3.61571E-004	2.40040E-001	9.01694E-001	3.57770E+000	9	...........
	92	1.24	9.05704E-001	4.01313E-004	0.00000E+000	3.63470E-004	2.40040E-001	9.06067E-001	3.57770E+000	9	...........
	93	1.25333	9.10020E-001	4.01583E-004	0.00000E+000	3.65448E-004	2.40040E-001	9.10363E-001	3.57770E+000	9	...........
	94	1.26667	9.14273E-001	4.00893E-004	0.00000E+000	3.66526E-004	2.40040E-001	9.14644E-001	3.57770E+000	9	...........
	95	1.28	9.18606E-001	4.01524E-004	0.00000E+000	3.68843E-004	2.40040E-001	9.18935E-001	3.57770E+000	9	...........
	96	1.29333	9.22899E-001	4.00453E-004	0.00000E+000	3.69578E-004	2.40040E-001	9.23198E-001	3.57770E+000	9	...........
	97	1.30667	9.27217E-001	4.01619E-004	0.00000E+000	3.72388E-004	2.40040E-001	9.27493E-001	3.57770E+000	9	...........
	98	1.32	9.31411E-001	4.01200E-004	0.00000E+000	3.73682E-004	2.40040E-001	9.31732E-001	3.57770E+000	9	...........
	99	1.33333	9.35573E-001	4.00928E-004	0.00000E+000	3.75098E-004	2.40040E-001	9.35876E-001	3.57770E+000	9	...........
	100	1.34667	9.39711E-001	4.00743E-004	0.00000E+000	3.76583E-004	2.40040E-001	9.40051E-001	3.57770E+000	9	...........
	101	1.36	9.43815E-001	4.01197E-004	0.00000E+000	3.78656E-004	2.40040E-001	9.44111E-001	3.57770E+000	9	...........
	102	1.37333	9.47927E-001	3.99002E-004	0.00000E+000	3.78225E-004	2.40040E-001	9.48218E-001	3.57770E+000	9	...........
	103	1.38667	9.51973E-001	4.00465E-004	0.00000E+000	3.81232E-004	2.40040E-001	9.52286E-001	3.57770E+000	9	...........
	104	1.4	9.55952E-001	4.00671E-004	0.00000E+000	3.83022E-004	2.40040E-001	9.56256E-001	3.57770E+000	9	...........
	105	1.41333	9.59896E-001	4.00809E-004	0.00000E+000	3.84735E-004	2.40040E-001	9.60215E-001	3.57770E+000	9	...........
	106	1.42667	9.63738E-001	4.00782E-004	0.00000E+000	3.86249E-004	2.40040E-001	9.64083E-001	3.57770E+000	9	...........
	107	1.44	9.67562E-001	4.01915E-004	0.00000E+000	3.88878E-004	2.40040E-001	9.67890E-001	3.57770E+000	9	...........
	108	1.45333	9.71427E-001	4.00870E-004	0.00000E+000	3.89416E-004	2.40040E-001	9.71778E-001	3.57770E+000	9	...........
	109	1.46667	9.75247E-001	4.00652E-004	0.00000E+000	3.90735E-004	2.40040E-001	9.75559E-001	3.57770E+000	9	...........
	110	1.48	9.78958E-001	4.01979E-004	0.00000E+000	3.93520E-004	2.40040E-001	9.79268E-001	3.57770E+000	9	...........
	111	1.49333	9.82706E-001	4.00257E-004	0.00000E+000	3.93335E-004	2.40040E-001	9.83036E-001	3.57770E+000	9	...........
	112	1.50667	9.86363E-001	3.98682E-004	0.00000E+000	3.93245E-004	2.40040E-001	9.86719E-001	3.57770E+000	9	...........
	113	1.52	9.89971E-001	3.99821E-004	0.00000E+000	3.95811E-004	2.40040E-001	9.90275E-001	3.57770E+000	9	...........
	114	1.53333	9.93431E-001	4.00989E-004	0.00000E+000	3.98355E-004	2.40040E-001	9.93777E-001	3.57770E+000	9	...........
	115	1.54667	9.96996E-001	4.00520E-004	0.00000E+000	3.99317E-004	2.40040E-001	9.97314E-001	3.57770E+000	9	...........
	116	1.55333	9.99628E-001	4.00569E-004	0.00000E+000	4.00420E-004	2.40040E-001	9.99962E-001	3.57770E+000	9	...........
STARTTIMEOFFSET	QUANT	1666.776	Start Time Offset (s)
