EXPLAIN
TAG	PWR800_CHARGE
TITLE	LABEL	PWR Cyclic Charge Discharge (Cell) - Charge Step	Test &Identifier
DATE	LABEL	12-7-2017	Date
TIME	LABEL	15:00:17	Time
NOTES	NOTES	3	&Notes...
	supercap test cell
	0.4mg
	6M KOH
PSTAT	PSTAT	IFC5000-01520	Potentiostat
CAPACITY	QUANT	1.00000E-003	Capacity (A-hr)
CELLTYPE	SELECTOR	1	&Cell Type
WORKINGCONNECTION	SELECTOR	0	&Working Lead
MAXCHARGETIME	VARIABLEANDUNITS	1.00000E+002	s	1.00000E+002	second(s)	Max &Charge Time
CHARGECURRENT	QUANT	4.00000E-004	&Charge Current (A) 
VOLTAGEFINISH	TWOPARAM	F	1.00000E-003	3.60000E+003	&Voltage Finish	 I (A) < 	Max Time(s)
SAMPLETIME	QUANT	1.00000E-002	Sa&mple Period (s)
CHARGESTOPAT1	MULTIPARAM	4	1.00000E+000	Charge Stop At &1	Voltage > Limit	V
CHARGESTOPAT2	MULTIPARAM	0	0.00000E+000	Charge Stop At &2	None	N/A
AESBHCSELECTOR	TOGGLE	F	Save Both Half Cells
IRCOMP	TOGGLE	F	IR &Measure
EOC	QUANT	0	Open Circuit (V)
SEQUENCER	TOGGLE	TRUE	Run as Sequence
PSTATMODEL	IQUANT	53	Pstat Model
PSTATSECTION	LABEL	IFC5000-01520	Pstat Section
PSTATSERIALNO	LABEL	01520	Pstat Serial Number
CTRLMODE	IQUANT	0	Control Mode
ELECTROMETER	IQUANT	1	RE=0 or CS=1
IESTAB	IQUANT	0	I/E Stability
CASPEED	IQUANT	4	Control Amp Speed
CONVENTION	IQUANT	1	Current Convention
ICHRANGE	IQUANT	2	Ich Range
ICHRANGEMODE	TOGGLE	T	Ich Auto Range
ICHOFFSETENABLE	TOGGLE	F	Ich Offset Enable
ICHOFFSET	QUANT	0	Ich Offset (V)
ICHFILTER	IQUANT	1	Ich Filter
VCHRANGE	IQUANT	2	Vch Range
VCHRANGEMODE	TOGGLE	T	Vch Auto Range
VCHOFFSETENABLE	TOGGLE	F	Vch Offset Enable
VCHOFFSET	QUANT	0	Vch Offset (V)
VCHFILTER	IQUANT	1	Vch Filter
IERANGELOWERLIMIT	IQUANT	9	I/E Range Lower Limit
IERANGEMODE	TOGGLE	F	I/E AutoRange
IERANGE	IQUANT	9	I/E Range
ACHSELECT	IQUANT	1	Ach Select
ACHRANGE	IQUANT	2	Ach Range
ACHOFFSETENABLE	TOGGLE	F	Ach Offset Enable
ACHOFFSET	QUANT	0	Ach Offset (V)
ACHFILTER	IQUANT	1	Ach Filter
CABLEID	IQUANT	14	Cable ID
DCCALDATE	LABEL	5-7-2017	DC Calibration Date
ACCALDATE	LABEL	12/3/2015	AC Calibration Date
FRAMEWORKVERSION	QUANT	7.01	Framework Version
INSTRUMENTVERSION	LABEL	4.00	Instrument Version
CURVE	TABLE	113
	Pt	T	Vf	Im	Vu	Pwr	Sig	Ach	Temp	IERange	Over
	#	s	V	A	V	W	V	V	deg C	#	bits
	0	0.013333	3.72532E-001	4.01234E-004	0.00000E+000	1.49472E-004	2.40040E-001	3.72625E-001	3.57680E+000	9	...........
	1	0.026667	3.84615E-001	4.00761E-004	0.00000E+000	1.54138E-004	2.40040E-001	3.84689E-001	3.57680E+000	9	...........
	2	0.04	3.95039E-001	4.02083E-004	0.00000E+000	1.58838E-004	2.40040E-001	3.95110E-001	3.57680E+000	9	...........
	3	0.053333	4.04489E-001	4.01348E-004	0.00000E+000	1.62341E-004	2.40040E-001	4.04563E-001	3.57680E+000	9	...........
	4	0.066667	4.13286E-001	4.02504E-004	0.00000E+000	1.66349E-004	2.40040E-001	4.13368E-001	3.57680E+000	9	...........
	5	0.08	4.21618E-001	4.01084E-004	0.00000E+000	1.69104E-004	2.40040E-001	4.21705E-001	3.57680E+000	9	...........
	6	0.093333	4.29547E-001	4.00591E-004	0.00000E+000	1.72073E-004	2.40040E-001	4.29633E-001	3.57680E+000	9	...........
	7	0.106667	4.37308E-001	4.00057E-004	0.00000E+000	1.74948E-004	2.40040E-001	4.37396E-001	3.57680E+000	9	...........
	8	0.12	4.44877E-001	4.00337E-004	0.00000E+000	1.78100E-004	2.40040E-001	4.44967E-001	3.57680E+000	9	...........
	9	0.133333	4.52227E-001	4.01939E-004	0.00000E+000	1.81768E-004	2.40040E-001	4.52317E-001	3.57680E+000	9	...........
	10	0.146667	4.59535E-001	4.01221E-004	0.00000E+000	1.84375E-004	2.40040E-001	4.59622E-001	3.57680E+000	9	...........
	11	0.16	4.66606E-001	4.01293E-004	0.00000E+000	1.87246E-004	2.40040E-001	4.66697E-001	3.57680E+000	9	...........
	12	0.173333	4.73553E-001	4.00516E-004	0.00000E+000	1.89665E-004	2.40040E-001	4.73645E-001	3.57680E+000	9	...........
	13	0.186667	4.80444E-001	4.01400E-004	0.00000E+000	1.92850E-004	2.40040E-001	4.80539E-001	3.57680E+000	9	...........
	14	0.2	4.87282E-001	4.00185E-004	0.00000E+000	1.95003E-004	2.40040E-001	4.87373E-001	3.57680E+000	9	...........
	15	0.213333	4.93971E-001	4.00734E-004	0.00000E+000	1.97951E-004	2.40040E-001	4.94075E-001	3.57680E+000	9	...........
	16	0.226667	5.00651E-001	4.00345E-004	0.00000E+000	2.00433E-004	2.40040E-001	5.00751E-001	3.57680E+000	9	...........
	17	0.24	5.07291E-001	4.00392E-004	0.00000E+000	2.03115E-004	2.40040E-001	5.07395E-001	3.57680E+000	9	...........
	18	0.253333	5.13851E-001	3.99770E-004	0.00000E+000	2.05422E-004	2.40040E-001	5.13954E-001	3.57680E+000	9	...........
	19	0.266667	5.20370E-001	4.00474E-004	0.00000E+000	2.08395E-004	2.40040E-001	5.20474E-001	3.57680E+000	9	...........
	20	0.28	5.26853E-001	4.01031E-004	0.00000E+000	2.11285E-004	2.40040E-001	5.26965E-001	3.57680E+000	9	...........
	21	0.293333	5.33138E-001	4.01597E-004	0.00000E+000	2.14107E-004	2.40040E-001	5.33261E-001	3.57680E+000	9	...........
	22	0.306667	5.39382E-001	4.00966E-004	0.00000E+000	2.16274E-004	2.40040E-001	5.39611E-001	3.57680E+000	9	...........
	23	0.32	5.45693E-001	4.00152E-004	0.00000E+000	2.18360E-004	2.40040E-001	5.45934E-001	3.57680E+000	9	...........
	24	0.333333	5.52030E-001	4.02513E-004	0.00000E+000	2.22199E-004	2.40040E-001	5.52285E-001	3.57680E+000	9	...........
	25	0.346667	5.58291E-001	4.00750E-004	0.00000E+000	2.23735E-004	2.40040E-001	5.58516E-001	3.57680E+000	9	...........
	26	0.36	5.64551E-001	4.00486E-004	0.00000E+000	2.26095E-004	2.40040E-001	5.64789E-001	3.57680E+000	9	...........
	27	0.373333	5.70730E-001	4.00716E-004	0.00000E+000	2.28700E-004	2.40040E-001	5.70950E-001	3.57680E+000	9	...........
	28	0.386667	5.76990E-001	4.00317E-004	0.00000E+000	2.30979E-004	2.40040E-001	5.77242E-001	3.57680E+000	9	...........
	29	0.4	5.83182E-001	4.01183E-004	0.00000E+000	2.33962E-004	2.40040E-001	5.83411E-001	3.57680E+000	9	...........
	30	0.413333	5.89287E-001	4.02083E-004	0.00000E+000	2.36942E-004	2.40040E-001	5.89527E-001	3.57680E+000	9	...........
	31	0.426667	5.95315E-001	4.00251E-004	0.00000E+000	2.38276E-004	2.40040E-001	5.95556E-001	3.57680E+000	9	...........
	32	0.44	6.01325E-001	4.00365E-004	0.00000E+000	2.40749E-004	2.40040E-001	6.01608E-001	3.57680E+000	9	...........
	33	0.453333	6.07306E-001	4.00777E-004	0.00000E+000	2.43394E-004	2.40040E-001	6.07576E-001	3.57680E+000	9	...........
	34	0.466667	6.13373E-001	4.01039E-004	0.00000E+000	2.45986E-004	2.40040E-001	6.13630E-001	3.57680E+000	9	...........
	35	0.48	6.19449E-001	4.01097E-004	0.00000E+000	2.48459E-004	2.40040E-001	6.19663E-001	3.57680E+000	9	...........
	36	0.493333	6.25454E-001	4.01354E-004	0.00000E+000	2.51029E-004	2.40040E-001	6.25679E-001	3.57680E+000	9	...........
	37	0.506667	6.31425E-001	4.00884E-004	0.00000E+000	2.53128E-004	2.40040E-001	6.31658E-001	3.57680E+000	9	...........
	38	0.52	6.37334E-001	4.01739E-004	0.00000E+000	2.56042E-004	2.40040E-001	6.37589E-001	3.57680E+000	9	...........
	39	0.533333	6.43284E-001	4.01081E-004	0.00000E+000	2.58009E-004	2.40040E-001	6.43538E-001	3.57680E+000	9	...........
	40	0.546667	6.49158E-001	4.01718E-004	0.00000E+000	2.60778E-004	2.40040E-001	6.49423E-001	3.57680E+000	9	...........
	41	0.56	6.55002E-001	4.01241E-004	0.00000E+000	2.62814E-004	2.40040E-001	6.55250E-001	3.57680E+000	9	...........
	42	0.573333	6.60898E-001	3.99888E-004	0.00000E+000	2.64285E-004	2.40040E-001	6.61157E-001	3.57680E+000	9	...........
	43	0.586667	6.66725E-001	4.00749E-004	0.00000E+000	2.67190E-004	2.40040E-001	6.66983E-001	3.57680E+000	9	...........
	44	0.6	6.72559E-001	3.99337E-004	0.00000E+000	2.68578E-004	2.40040E-001	6.72782E-001	3.57680E+000	9	...........
	45	0.613333	6.78347E-001	4.00718E-004	0.00000E+000	2.71826E-004	2.40040E-001	6.78588E-001	3.57680E+000	9	...........
	46	0.626667	6.84111E-001	4.01070E-004	0.00000E+000	2.74376E-004	2.40040E-001	6.84335E-001	3.57680E+000	9	...........
	47	0.64	6.89850E-001	3.99969E-004	0.00000E+000	2.75918E-004	2.40040E-001	6.90074E-001	3.57680E+000	9	...........
	48	0.653333	6.95588E-001	4.00680E-004	0.00000E+000	2.78709E-004	2.40040E-001	6.95812E-001	3.57680E+000	9	...........
	49	0.666667	7.01234E-001	4.00412E-004	0.00000E+000	2.80782E-004	2.40040E-001	7.01489E-001	3.57680E+000	9	...........
	50	0.68	7.06964E-001	4.00904E-004	0.00000E+000	2.83425E-004	2.40040E-001	7.07221E-001	3.57680E+000	9	...........
	51	0.693333	7.12645E-001	4.01764E-004	0.00000E+000	2.86315E-004	2.40040E-001	7.12893E-001	3.57680E+000	9	...........
	52	0.706667	7.18401E-001	4.02118E-004	0.00000E+000	2.88882E-004	2.40040E-001	7.18644E-001	3.57714E+000	9	...........
	53	0.72	7.24034E-001	3.99694E-004	0.00000E+000	2.89392E-004	2.40040E-001	7.24264E-001	3.57770E+000	9	...........
	54	0.733333	7.29589E-001	4.01008E-004	0.00000E+000	2.92571E-004	2.40040E-001	7.29844E-001	3.57770E+000	9	...........
	55	0.746667	7.35149E-001	4.02538E-004	0.00000E+000	2.95926E-004	2.40040E-001	7.35394E-001	3.57770E+000	9	...........
	56	0.76	7.40671E-001	4.01159E-004	0.00000E+000	2.97127E-004	2.40040E-001	7.40906E-001	3.57770E+000	9	...........
	57	0.773333	7.46160E-001	4.01835E-004	0.00000E+000	2.99833E-004	2.40040E-001	7.46401E-001	3.57770E+000	9	...........
	58	0.786667	7.51660E-001	4.00333E-004	0.00000E+000	3.00915E-004	2.40040E-001	7.51906E-001	3.57770E+000	9	...........
	59	0.8	7.57119E-001	4.02478E-004	0.00000E+000	3.04723E-004	2.40040E-001	7.57339E-001	3.57770E+000	9	...........
	60	0.813333	7.62592E-001	4.01801E-004	0.00000E+000	3.06411E-004	2.40040E-001	7.62791E-001	3.57770E+000	9	...........
	61	0.826667	7.68005E-001	4.00978E-004	0.00000E+000	3.07953E-004	2.40040E-001	7.68241E-001	3.57770E+000	9	...........
	62	0.84	7.73406E-001	4.01851E-004	0.00000E+000	3.10794E-004	2.40040E-001	7.73647E-001	3.57770E+000	9	...........
	63	0.853333	7.78749E-001	3.99923E-004	0.00000E+000	3.11440E-004	2.40040E-001	7.79016E-001	3.57770E+000	9	...........
	64	0.866667	7.84102E-001	4.00728E-004	0.00000E+000	3.14212E-004	2.40040E-001	7.84355E-001	3.57770E+000	9	...........
	65	0.88	7.89364E-001	4.01737E-004	0.00000E+000	3.17117E-004	2.40040E-001	7.89626E-001	3.57770E+000	9	...........
	66	0.893333	7.94646E-001	4.00513E-004	0.00000E+000	3.18266E-004	2.40040E-001	7.94906E-001	3.57770E+000	9	...........
	67	0.906667	7.99866E-001	4.01361E-004	0.00000E+000	3.21035E-004	2.40040E-001	8.00119E-001	3.57770E+000	9	...........
	68	0.92	8.05041E-001	4.00504E-004	0.00000E+000	3.22423E-004	2.40040E-001	8.05320E-001	3.57770E+000	9	...........
	69	0.933333	8.10193E-001	4.01825E-004	0.00000E+000	3.25556E-004	2.40040E-001	8.10443E-001	3.57770E+000	9	...........
	70	0.946667	8.15254E-001	4.00707E-004	0.00000E+000	3.26678E-004	2.40040E-001	8.15532E-001	3.57770E+000	9	...........
	71	0.96	8.20352E-001	4.01140E-004	0.00000E+000	3.29076E-004	2.40040E-001	8.20633E-001	3.57770E+000	9	...........
	72	0.97333	8.25395E-001	4.01141E-004	0.00000E+000	3.31100E-004	2.40040E-001	8.25671E-001	3.57770E+000	9	...........
	73	0.98667	8.30446E-001	4.01300E-004	0.00000E+000	3.33258E-004	2.40040E-001	8.30722E-001	3.57770E+000	9	...........
	74	1	8.35463E-001	4.01785E-004	0.00000E+000	3.35676E-004	2.40040E-001	8.35781E-001	3.57770E+000	9	...........
	75	1.01333	8.40495E-001	4.00592E-004	0.00000E+000	3.36695E-004	2.40040E-001	8.40803E-001	3.57770E+000	9	...........
	76	1.02667	8.45418E-001	4.01776E-004	0.00000E+000	3.39669E-004	2.40040E-001	8.45717E-001	3.57770E+000	9	...........
	77	1.04	8.50297E-001	4.00719E-004	0.00000E+000	3.40730E-004	2.40040E-001	8.50588E-001	3.57770E+000	9	...........
	78	1.05333	8.55196E-001	4.01886E-004	0.00000E+000	3.43691E-004	2.40040E-001	8.55489E-001	3.57770E+000	9	...........
	79	1.06667	8.59974E-001	4.00495E-004	0.00000E+000	3.44415E-004	2.40040E-001	8.60274E-001	3.57770E+000	9	...........
	80	1.08	8.64769E-001	4.01328E-004	0.00000E+000	3.47056E-004	2.40040E-001	8.65078E-001	3.57770E+000	9	...........
	81	1.09333	8.69565E-001	4.01437E-004	0.00000E+000	3.49076E-004	2.40040E-001	8.69879E-001	3.57770E+000	9	...........
	82	1.10667	8.74260E-001	4.01940E-004	0.00000E+000	3.51400E-004	2.40040E-001	8.74563E-001	3.57770E+000	9	...........
	83	1.12	8.78923E-001	4.01166E-004	0.00000E+000	3.52594E-004	2.40040E-001	8.79223E-001	3.57770E+000	9	...........
	84	1.13333	8.83602E-001	4.01612E-004	0.00000E+000	3.54865E-004	2.40040E-001	8.83907E-001	3.57770E+000	9	...........
	85	1.14667	8.88230E-001	4.01484E-004	0.00000E+000	3.56610E-004	2.40040E-001	8.88553E-001	3.57770E+000	9	...........
	86	1.16	8.92793E-001	4.01148E-004	0.00000E+000	3.58142E-004	2.40040E-001	8.93120E-001	3.57770E+000	9	...........
	87	1.17333	8.97336E-001	3.99902E-004	0.00000E+000	3.58846E-004	2.40040E-001	8.97675E-001	3.57770E+000	9	...........
	88	1.18667	9.01877E-001	4.02036E-004	0.00000E+000	3.62587E-004	2.40040E-001	9.02209E-001	3.57770E+000	9	...........
	89	1.2	9.06341E-001	4.01645E-004	0.00000E+000	3.64028E-004	2.40040E-001	9.06664E-001	3.57770E+000	9	...........
	90	1.21333	9.10758E-001	4.01614E-004	0.00000E+000	3.65773E-004	2.40040E-001	9.11095E-001	3.57770E+000	9	...........
	91	1.22667	9.15166E-001	4.01427E-004	0.00000E+000	3.67373E-004	2.40040E-001	9.15512E-001	3.57770E+000	9	...........
	92	1.24	9.19550E-001	4.01664E-004	0.00000E+000	3.69350E-004	2.40040E-001	9.19889E-001	3.57770E+000	9	...........
	93	1.25333	9.23993E-001	4.00721E-004	0.00000E+000	3.70263E-004	2.40040E-001	9.24317E-001	3.57770E+000	9	...........
	94	1.26667	9.28306E-001	4.01857E-004	0.00000E+000	3.73046E-004	2.40040E-001	9.28609E-001	3.57770E+000	9	...........
	95	1.28	9.32545E-001	4.00243E-004	0.00000E+000	3.73244E-004	2.40040E-001	9.32849E-001	3.57770E+000	9	...........
	96	1.29333	9.36730E-001	3.99917E-004	0.00000E+000	3.74614E-004	2.40040E-001	9.37069E-001	3.57770E+000	9	...........
	97	1.30667	9.40902E-001	4.00093E-004	0.00000E+000	3.76448E-004	2.40040E-001	9.41220E-001	3.57770E+000	9	...........
	98	1.32	9.45044E-001	4.01391E-004	0.00000E+000	3.79332E-004	2.40040E-001	9.45367E-001	3.57770E+000	9	...........
	99	1.33333	9.49135E-001	4.00557E-004	0.00000E+000	3.80183E-004	2.40040E-001	9.49436E-001	3.57770E+000	9	...........
	100	1.34667	9.53204E-001	4.01472E-004	0.00000E+000	3.82685E-004	2.40040E-001	9.53501E-001	3.57770E+000	9	...........
	101	1.36	9.57222E-001	4.01402E-004	0.00000E+000	3.84231E-004	2.40040E-001	9.57529E-001	3.57770E+000	9	...........
	102	1.37333	9.61187E-001	4.00458E-004	0.00000E+000	3.84915E-004	2.40040E-001	9.61521E-001	3.57770E+000	9	...........
	103	1.38667	9.65114E-001	4.00638E-004	0.00000E+000	3.86661E-004	2.40040E-001	9.65445E-001	3.57770E+000	9	...........
	104	1.4	9.68993E-001	3.99940E-004	0.00000E+000	3.87539E-004	2.40040E-001	9.69346E-001	3.57770E+000	9	...........
	105	1.41333	9.72860E-001	4.01079E-004	0.00000E+000	3.90194E-004	2.40040E-001	9.73198E-001	3.57770E+000	9	...........
	106	1.42667	9.76686E-001	4.01945E-004	0.00000E+000	3.92574E-004	2.40040E-001	9.77048E-001	3.57770E+000	9	...........
	107	1.44	9.80420E-001	3.99898E-004	0.00000E+000	3.92068E-004	2.40040E-001	9.80734E-001	3.57770E+000	9	...........
	108	1.45333	9.84221E-001	4.01115E-004	0.00000E+000	3.94786E-004	2.40040E-001	9.84545E-001	3.57770E+000	9	...........
	109	1.46667	9.87952E-001	4.00082E-004	0.00000E+000	3.95262E-004	2.40040E-001	9.88281E-001	3.57770E+000	9	...........
	110	1.48	9.91567E-001	4.01027E-004	0.00000E+000	3.97645E-004	2.40040E-001	9.91896E-001	3.57770E+000	9	...........
	111	1.49333	9.95178E-001	4.00873E-004	0.00000E+000	3.98940E-004	2.40040E-001	9.95519E-001	3.57770E+000	9	...........
	112	1.50667	9.98743E-001	4.01585E-004	0.00000E+000	4.01080E-004	2.40040E-001	9.99095E-001	3.57770E+000	9	...........
STARTTIMEOFFSET	QUANT	1987.436	Start Time Offset (s)
