EXPLAIN
TAG	PWR800_CHARGE
TITLE	LABEL	PWR Cyclic Charge Discharge (Cell) - Charge Step	Test &Identifier
DATE	LABEL	12-7-2017	Date
TIME	LABEL	15:00:48	Time
NOTES	NOTES	3	&Notes...
	supercap test cell
	0.4mg
	6M KOH
PSTAT	PSTAT	IFC5000-01520	Potentiostat
CAPACITY	QUANT	1.00000E-003	Capacity (A-hr)
CELLTYPE	SELECTOR	1	&Cell Type
WORKINGCONNECTION	SELECTOR	0	&Working Lead
MAXCHARGETIME	VARIABLEANDUNITS	1.00000E+002	s	1.00000E+002	second(s)	Max &Charge Time
CHARGECURRENT	QUANT	4.00000E-004	&Charge Current (A) 
VOLTAGEFINISH	TWOPARAM	F	1.00000E-003	3.60000E+003	&Voltage Finish	 I (A) < 	Max Time(s)
SAMPLETIME	QUANT	1.00000E-002	Sa&mple Period (s)
CHARGESTOPAT1	MULTIPARAM	4	1.00000E+000	Charge Stop At &1	Voltage > Limit	V
CHARGESTOPAT2	MULTIPARAM	0	0.00000E+000	Charge Stop At &2	None	N/A
AESBHCSELECTOR	TOGGLE	F	Save Both Half Cells
IRCOMP	TOGGLE	F	IR &Measure
EOC	QUANT	0	Open Circuit (V)
SEQUENCER	TOGGLE	TRUE	Run as Sequence
PSTATMODEL	IQUANT	53	Pstat Model
PSTATSECTION	LABEL	IFC5000-01520	Pstat Section
PSTATSERIALNO	LABEL	01520	Pstat Serial Number
CTRLMODE	IQUANT	0	Control Mode
ELECTROMETER	IQUANT	1	RE=0 or CS=1
IESTAB	IQUANT	0	I/E Stability
CASPEED	IQUANT	4	Control Amp Speed
CONVENTION	IQUANT	1	Current Convention
ICHRANGE	IQUANT	2	Ich Range
ICHRANGEMODE	TOGGLE	T	Ich Auto Range
ICHOFFSETENABLE	TOGGLE	F	Ich Offset Enable
ICHOFFSET	QUANT	0	Ich Offset (V)
ICHFILTER	IQUANT	1	Ich Filter
VCHRANGE	IQUANT	2	Vch Range
VCHRANGEMODE	TOGGLE	T	Vch Auto Range
VCHOFFSETENABLE	TOGGLE	F	Vch Offset Enable
VCHOFFSET	QUANT	0	Vch Offset (V)
VCHFILTER	IQUANT	1	Vch Filter
IERANGELOWERLIMIT	IQUANT	9	I/E Range Lower Limit
IERANGEMODE	TOGGLE	F	I/E AutoRange
IERANGE	IQUANT	9	I/E Range
ACHSELECT	IQUANT	1	Ach Select
ACHRANGE	IQUANT	2	Ach Range
ACHOFFSETENABLE	TOGGLE	F	Ach Offset Enable
ACHOFFSET	QUANT	0	Ach Offset (V)
ACHFILTER	IQUANT	1	Ach Filter
CABLEID	IQUANT	14	Cable ID
DCCALDATE	LABEL	5-7-2017	DC Calibration Date
ACCALDATE	LABEL	12/3/2015	AC Calibration Date
FRAMEWORKVERSION	QUANT	7.01	Framework Version
INSTRUMENTVERSION	LABEL	4.00	Instrument Version
CURVE	TABLE	113
	Pt	T	Vf	Im	Vu	Pwr	Sig	Ach	Temp	IERange	Over
	#	s	V	A	V	W	V	V	deg C	#	bits
	0	0.013333	3.75523E-001	4.02544E-004	0.00000E+000	1.51165E-004	2.40040E-001	3.75608E-001	3.57660E+000	9	...........
	1	0.026667	3.87605E-001	4.01650E-004	0.00000E+000	1.55682E-004	2.40040E-001	3.87678E-001	3.57660E+000	9	...........
	2	0.04	3.97972E-001	4.00549E-004	0.00000E+000	1.59407E-004	2.40040E-001	3.98053E-001	3.57660E+000	9	...........
	3	0.053333	4.07360E-001	4.00153E-004	0.00000E+000	1.63007E-004	2.40040E-001	4.07440E-001	3.57660E+000	9	...........
	4	0.066667	4.16010E-001	3.99846E-004	0.00000E+000	1.66340E-004	2.40040E-001	4.16099E-001	3.57660E+000	9	...........
	5	0.08	4.24385E-001	4.00400E-004	0.00000E+000	1.69924E-004	2.40040E-001	4.24470E-001	3.57660E+000	9	...........
	6	0.093333	4.32341E-001	4.02511E-004	0.00000E+000	1.74022E-004	2.40040E-001	4.32428E-001	3.57660E+000	9	...........
	7	0.106667	4.39997E-001	4.01314E-004	0.00000E+000	1.76577E-004	2.40040E-001	4.40089E-001	3.57660E+000	9	...........
	8	0.12	4.47543E-001	4.00826E-004	0.00000E+000	1.79387E-004	2.40040E-001	4.47638E-001	3.57660E+000	9	...........
	9	0.133333	4.54883E-001	3.99965E-004	0.00000E+000	1.81937E-004	2.40040E-001	4.54973E-001	3.57660E+000	9	...........
	10	0.146667	4.62024E-001	3.99800E-004	0.00000E+000	1.84717E-004	2.40040E-001	4.62122E-001	3.57660E+000	9	...........
	11	0.16	4.69138E-001	4.01266E-004	0.00000E+000	1.88249E-004	2.40040E-001	4.69233E-001	3.57660E+000	9	...........
	12	0.173333	4.76122E-001	4.00291E-004	0.00000E+000	1.90587E-004	2.40040E-001	4.76217E-001	3.57660E+000	9	...........
	13	0.186667	4.83027E-001	4.01398E-004	0.00000E+000	1.93886E-004	2.40040E-001	4.83123E-001	3.57660E+000	9	...........
	14	0.2	4.89826E-001	4.00030E-004	0.00000E+000	1.95945E-004	2.40040E-001	4.89919E-001	3.57660E+000	9	...........
	15	0.213333	4.96503E-001	4.02374E-004	0.00000E+000	1.99780E-004	2.40040E-001	4.96600E-001	3.57660E+000	9	...........
	16	0.226667	5.03065E-001	4.01971E-004	0.00000E+000	2.02218E-004	2.40040E-001	5.03161E-001	3.57660E+000	9	...........
	17	0.24	5.09663E-001	4.01547E-004	0.00000E+000	2.04654E-004	2.40040E-001	5.09767E-001	3.57660E+000	9	...........
	18	0.253333	5.16228E-001	4.00918E-004	0.00000E+000	2.06965E-004	2.40040E-001	5.16333E-001	3.57660E+000	9	...........
	19	0.266667	5.22721E-001	4.01890E-004	0.00000E+000	2.10076E-004	2.40040E-001	5.22829E-001	3.57660E+000	9	...........
	20	0.28	5.29190E-001	4.00596E-004	0.00000E+000	2.11991E-004	2.40040E-001	5.29299E-001	3.57660E+000	9	...........
	21	0.293333	5.35349E-001	4.01581E-004	0.00000E+000	2.14986E-004	2.40040E-001	5.35516E-001	3.57660E+000	9	...........
	22	0.306667	5.41607E-001	4.00706E-004	0.00000E+000	2.17025E-004	2.40040E-001	5.41831E-001	3.57660E+000	9	...........
	23	0.32	5.47916E-001	4.00813E-004	0.00000E+000	2.19612E-004	2.40040E-001	5.48130E-001	3.57660E+000	9	...........
	24	0.333333	5.54220E-001	4.00815E-004	0.00000E+000	2.22140E-004	2.40040E-001	5.54442E-001	3.57660E+000	9	...........
	25	0.346667	5.60462E-001	4.01522E-004	0.00000E+000	2.25038E-004	2.40040E-001	5.60694E-001	3.57660E+000	9	...........
	26	0.36	5.66750E-001	4.01901E-004	0.00000E+000	2.27778E-004	2.40040E-001	5.66937E-001	3.57660E+000	9	...........
	27	0.373333	5.72926E-001	4.02089E-004	0.00000E+000	2.30367E-004	2.40040E-001	5.73112E-001	3.57660E+000	9	...........
	28	0.386667	5.79037E-001	4.01230E-004	0.00000E+000	2.32327E-004	2.40040E-001	5.79246E-001	3.57660E+000	9	...........
	29	0.4	5.85141E-001	4.00850E-004	0.00000E+000	2.34554E-004	2.40040E-001	5.85365E-001	3.57660E+000	9	...........
	30	0.413333	5.91364E-001	4.03340E-004	0.00000E+000	2.38521E-004	2.40040E-001	5.91577E-001	3.57660E+000	9	...........
	31	0.426667	5.97401E-001	4.01524E-004	0.00000E+000	2.39871E-004	2.40040E-001	5.97628E-001	3.57660E+000	9	...........
	32	0.44	6.03508E-001	4.00260E-004	0.00000E+000	2.41561E-004	2.40040E-001	6.03741E-001	3.57675E+000	9	...........
	33	0.453333	6.09560E-001	4.00427E-004	0.00000E+000	2.44085E-004	2.40040E-001	6.09796E-001	3.57780E+000	9	...........
	34	0.466667	6.15618E-001	4.01197E-004	0.00000E+000	2.46984E-004	2.40040E-001	6.15842E-001	3.57780E+000	9	...........
	35	0.48	6.21612E-001	4.00540E-004	0.00000E+000	2.48980E-004	2.40040E-001	6.21806E-001	3.57780E+000	9	...........
	36	0.493333	6.27641E-001	4.01643E-004	0.00000E+000	2.52088E-004	2.40040E-001	6.27867E-001	3.57780E+000	9	...........
	37	0.506667	6.33574E-001	4.01157E-004	0.00000E+000	2.54162E-004	2.40040E-001	6.33808E-001	3.57780E+000	9	...........
	38	0.52	6.39460E-001	4.02248E-004	0.00000E+000	2.57222E-004	2.40040E-001	6.39704E-001	3.57780E+000	9	...........
	39	0.533333	6.45362E-001	4.01273E-004	0.00000E+000	2.58967E-004	2.40040E-001	6.45596E-001	3.57780E+000	9	...........
	40	0.546667	6.51202E-001	4.00606E-004	0.00000E+000	2.60876E-004	2.40040E-001	6.51449E-001	3.57780E+000	9	...........
	41	0.56	6.57054E-001	4.01518E-004	0.00000E+000	2.63819E-004	2.40040E-001	6.57309E-001	3.57780E+000	9	...........
	42	0.573333	6.62878E-001	4.01459E-004	0.00000E+000	2.66118E-004	2.40040E-001	6.63163E-001	3.57780E+000	9	...........
	43	0.586667	6.68694E-001	4.01684E-004	0.00000E+000	2.68603E-004	2.40040E-001	6.68937E-001	3.57780E+000	9	...........
	44	0.6	6.74524E-001	4.00998E-004	0.00000E+000	2.70483E-004	2.40040E-001	6.74777E-001	3.57780E+000	9	...........
	45	0.613333	6.80289E-001	4.00428E-004	0.00000E+000	2.72407E-004	2.40040E-001	6.80534E-001	3.57780E+000	9	...........
	46	0.626667	6.86050E-001	4.01105E-004	0.00000E+000	2.75178E-004	2.40040E-001	6.86303E-001	3.57780E+000	9	...........
	47	0.64	6.91770E-001	4.01282E-004	0.00000E+000	2.77594E-004	2.40040E-001	6.92003E-001	3.57780E+000	9	...........
	48	0.653333	6.97540E-001	4.00554E-004	0.00000E+000	2.79403E-004	2.40040E-001	6.97750E-001	3.57780E+000	9	...........
	49	0.666667	7.03295E-001	4.00064E-004	0.00000E+000	2.81363E-004	2.40040E-001	7.03465E-001	3.57780E+000	9	...........
	50	0.68	7.08901E-001	4.00834E-004	0.00000E+000	2.84151E-004	2.40040E-001	7.09126E-001	3.57780E+000	9	...........
	51	0.693333	7.14566E-001	4.01248E-004	0.00000E+000	2.86718E-004	2.40040E-001	7.14788E-001	3.57780E+000	9	...........
	52	0.706667	7.20279E-001	4.01067E-004	0.00000E+000	2.88880E-004	2.40040E-001	7.20449E-001	3.57780E+000	9	...........
	53	0.72	7.25858E-001	4.01285E-004	0.00000E+000	2.91276E-004	2.40040E-001	7.26046E-001	3.57780E+000	9	...........
	54	0.733333	7.31492E-001	4.00680E-004	0.00000E+000	2.93094E-004	2.40040E-001	7.31676E-001	3.57780E+000	9	...........
	55	0.746667	7.37039E-001	4.00801E-004	0.00000E+000	2.95406E-004	2.40040E-001	7.37206E-001	3.57780E+000	9	...........
	56	0.76	7.42545E-001	4.01066E-004	0.00000E+000	2.97809E-004	2.40040E-001	7.42741E-001	3.57780E+000	9	...........
	57	0.773333	7.48053E-001	4.00442E-004	0.00000E+000	2.99552E-004	2.40040E-001	7.48264E-001	3.57780E+000	9	...........
	58	0.786667	7.53546E-001	4.00393E-004	0.00000E+000	3.01714E-004	2.40040E-001	7.53775E-001	3.57780E+000	9	...........
	59	0.8	7.59024E-001	3.99877E-004	0.00000E+000	3.03516E-004	2.40040E-001	7.59241E-001	3.57780E+000	9	...........
	60	0.813333	7.64419E-001	4.01030E-004	0.00000E+000	3.06555E-004	2.40040E-001	7.64645E-001	3.57780E+000	9	...........
	61	0.826667	7.69805E-001	4.00456E-004	0.00000E+000	3.08273E-004	2.40040E-001	7.70037E-001	3.57780E+000	9	...........
	62	0.84	7.75168E-001	4.01892E-004	0.00000E+000	3.11534E-004	2.40040E-001	7.75415E-001	3.57780E+000	9	...........
	63	0.853333	7.80426E-001	4.00310E-004	0.00000E+000	3.12413E-004	2.40040E-001	7.80711E-001	3.57780E+000	9	...........
	64	0.866667	7.85743E-001	4.00891E-004	0.00000E+000	3.14997E-004	2.40040E-001	7.85996E-001	3.57780E+000	9	...........
	65	0.88	7.91018E-001	4.00463E-004	0.00000E+000	3.16773E-004	2.40040E-001	7.91292E-001	3.57780E+000	9	...........
	66	0.893333	7.96386E-001	4.01459E-004	0.00000E+000	3.19716E-004	2.40040E-001	7.96616E-001	3.57780E+000	9	...........
	67	0.906667	8.01631E-001	4.01745E-004	0.00000E+000	3.22052E-004	2.40040E-001	8.01879E-001	3.57780E+000	9	...........
	68	0.92	8.06792E-001	4.00421E-004	0.00000E+000	3.23056E-004	2.40040E-001	8.07071E-001	3.57780E+000	9	...........
	69	0.933333	8.11921E-001	4.01365E-004	0.00000E+000	3.25877E-004	2.40040E-001	8.12183E-001	3.57780E+000	9	...........
	70	0.946667	8.17007E-001	4.01040E-004	0.00000E+000	3.27652E-004	2.40040E-001	8.17262E-001	3.57780E+000	9	...........
	71	0.96	8.22024E-001	4.01039E-004	0.00000E+000	3.29664E-004	2.40040E-001	8.22291E-001	3.57780E+000	9	...........
	72	0.97333	8.27082E-001	4.02628E-004	0.00000E+000	3.33006E-004	2.40040E-001	8.27342E-001	3.57780E+000	9	...........
	73	0.98667	8.32088E-001	4.00721E-004	0.00000E+000	3.33435E-004	2.40040E-001	8.32368E-001	3.57780E+000	9	...........
	74	1	8.37086E-001	4.00813E-004	0.00000E+000	3.35515E-004	2.40040E-001	8.37377E-001	3.57780E+000	9	...........
	75	1.01333	8.42118E-001	4.00625E-004	0.00000E+000	3.37374E-004	2.40040E-001	8.42399E-001	3.57780E+000	9	...........
	76	1.02667	8.47156E-001	4.01224E-004	0.00000E+000	3.39899E-004	2.40040E-001	8.47429E-001	3.57780E+000	9	...........
	77	1.04	8.52023E-001	4.01262E-004	0.00000E+000	3.41884E-004	2.40040E-001	8.52329E-001	3.57780E+000	9	...........
	78	1.05333	8.56863E-001	4.00279E-004	0.00000E+000	3.42985E-004	2.40040E-001	8.57179E-001	3.57780E+000	9	...........
	79	1.06667	8.61692E-001	4.00770E-004	0.00000E+000	3.45340E-004	2.40040E-001	8.62012E-001	3.57780E+000	9	...........
	80	1.08	8.66475E-001	4.01417E-004	0.00000E+000	3.47818E-004	2.40040E-001	8.66779E-001	3.57780E+000	9	...........
	81	1.09333	8.71221E-001	3.99609E-004	0.00000E+000	3.48148E-004	2.40040E-001	8.71517E-001	3.57780E+000	9	...........
	82	1.10667	8.75881E-001	4.01362E-004	0.00000E+000	3.51545E-004	2.40040E-001	8.76194E-001	3.57780E+000	9	...........
	83	1.12	8.80571E-001	4.00712E-004	0.00000E+000	3.52855E-004	2.40040E-001	8.80864E-001	3.57780E+000	9	...........
	84	1.13333	8.85246E-001	4.00497E-004	0.00000E+000	3.54538E-004	2.40040E-001	8.85566E-001	3.57780E+000	9	...........
	85	1.14667	8.89889E-001	4.01748E-004	0.00000E+000	3.57511E-004	2.40040E-001	8.90190E-001	3.57780E+000	9	...........
	86	1.16	8.94463E-001	4.01718E-004	0.00000E+000	3.59322E-004	2.40040E-001	8.94778E-001	3.57780E+000	9	...........
	87	1.17333	8.98996E-001	4.01870E-004	0.00000E+000	3.61280E-004	2.40040E-001	8.99315E-001	3.57780E+000	9	...........
	88	1.18667	9.03497E-001	4.01601E-004	0.00000E+000	3.62846E-004	2.40040E-001	9.03785E-001	3.57780E+000	9	...........
	89	1.2	9.07942E-001	4.00024E-004	0.00000E+000	3.63199E-004	2.40040E-001	9.08228E-001	3.57780E+000	9	...........
	90	1.21333	9.12349E-001	4.02650E-004	0.00000E+000	3.67357E-004	2.40040E-001	9.12627E-001	3.57780E+000	9	...........
	91	1.22667	9.16803E-001	4.01521E-004	0.00000E+000	3.68116E-004	2.40040E-001	9.17112E-001	3.57780E+000	9	...........
	92	1.24	9.21189E-001	4.01241E-004	0.00000E+000	3.69619E-004	2.40040E-001	9.21454E-001	3.57780E+000	9	...........
	93	1.25333	9.25503E-001	4.00561E-004	0.00000E+000	3.70720E-004	2.40040E-001	9.25760E-001	3.57780E+000	9	...........
	94	1.26667	9.29805E-001	4.01302E-004	0.00000E+000	3.73133E-004	2.40040E-001	9.30049E-001	3.57780E+000	9	...........
	95	1.28	9.34013E-001	4.01525E-004	0.00000E+000	3.75030E-004	2.40040E-001	9.34274E-001	3.57780E+000	9	...........
	96	1.29333	9.38176E-001	4.01368E-004	0.00000E+000	3.76554E-004	2.40040E-001	9.38465E-001	3.57780E+000	9	...........
	97	1.30667	9.42306E-001	4.00658E-004	0.00000E+000	3.77543E-004	2.40040E-001	9.42578E-001	3.57780E+000	9	...........
	98	1.32	9.46456E-001	4.01429E-004	0.00000E+000	3.79935E-004	2.40040E-001	9.46721E-001	3.57780E+000	9	...........
	99	1.33333	9.50617E-001	4.00686E-004	0.00000E+000	3.80898E-004	2.40040E-001	9.50921E-001	3.57780E+000	9	...........
	100	1.34667	9.54663E-001	4.01097E-004	0.00000E+000	3.82913E-004	2.40040E-001	9.54940E-001	3.57780E+000	9	...........
	101	1.36	9.58567E-001	4.01328E-004	0.00000E+000	3.84700E-004	2.40040E-001	9.58894E-001	3.57780E+000	9	...........
	102	1.37333	9.62525E-001	4.00798E-004	0.00000E+000	3.85778E-004	2.40040E-001	9.62881E-001	3.57780E+000	9	...........
	103	1.38667	9.66420E-001	4.01188E-004	0.00000E+000	3.87716E-004	2.40040E-001	9.66754E-001	3.57780E+000	9	...........
	104	1.4	9.70299E-001	4.01592E-004	0.00000E+000	3.89664E-004	2.40040E-001	9.70635E-001	3.57780E+000	9	...........
	105	1.41333	9.74149E-001	4.01438E-004	0.00000E+000	3.91060E-004	2.40040E-001	9.74447E-001	3.57780E+000	9	...........
	106	1.42667	9.77929E-001	4.00971E-004	0.00000E+000	3.92121E-004	2.40040E-001	9.78226E-001	3.57780E+000	9	...........
	107	1.44	9.81658E-001	4.01135E-004	0.00000E+000	3.93777E-004	2.40040E-001	9.81956E-001	3.57766E+000	9	...........
	108	1.45333	9.85372E-001	4.01707E-004	0.00000E+000	3.95830E-004	2.40040E-001	9.85714E-001	3.57670E+000	9	...........
	109	1.46667	9.89098E-001	4.01751E-004	0.00000E+000	3.97372E-004	2.40040E-001	9.89440E-001	3.57670E+000	9	...........
	110	1.48	9.92717E-001	4.00248E-004	0.00000E+000	3.97333E-004	2.40040E-001	9.93042E-001	3.57670E+000	9	...........
	111	1.49333	9.96388E-001	4.01113E-004	0.00000E+000	3.99664E-004	2.40040E-001	9.96727E-001	3.57670E+000	9	...........
	112	1.50167	9.99302E-001	4.02769E-004	0.00000E+000	4.02488E-004	2.40040E-001	9.99637E-001	3.57670E+000	9	...........
STARTTIMEOFFSET	QUANT	2011.02	Start Time Offset (s)
