EXPLAIN
TAG	PWR800_CHARGE
TITLE	LABEL	PWR Cyclic Charge Discharge (Cell) - Charge Step	Test &Identifier
DATE	LABEL	12-7-2017	Date
TIME	LABEL	14:49:56	Time
NOTES	NOTES	3	&Notes...
	supercap test cell
	0.4mg
	6M KOH
PSTAT	PSTAT	IFC5000-01520	Potentiostat
CAPACITY	QUANT	1.00000E-003	Capacity (A-hr)
CELLTYPE	SELECTOR	1	&Cell Type
WORKINGCONNECTION	SELECTOR	0	&Working Lead
MAXCHARGETIME	VARIABLEANDUNITS	1.00000E+002	s	1.00000E+002	second(s)	Max &Charge Time
CHARGECURRENT	QUANT	4.00000E-004	&Charge Current (A) 
VOLTAGEFINISH	TWOPARAM	F	1.00000E-003	3.60000E+003	&Voltage Finish	 I (A) < 	Max Time(s)
SAMPLETIME	QUANT	1.00000E-002	Sa&mple Period (s)
CHARGESTOPAT1	MULTIPARAM	4	1.00000E+000	Charge Stop At &1	Voltage > Limit	V
CHARGESTOPAT2	MULTIPARAM	0	0.00000E+000	Charge Stop At &2	None	N/A
AESBHCSELECTOR	TOGGLE	F	Save Both Half Cells
IRCOMP	TOGGLE	F	IR &Measure
EOC	QUANT	0	Open Circuit (V)
SEQUENCER	TOGGLE	TRUE	Run as Sequence
PSTATMODEL	IQUANT	53	Pstat Model
PSTATSECTION	LABEL	IFC5000-01520	Pstat Section
PSTATSERIALNO	LABEL	01520	Pstat Serial Number
CTRLMODE	IQUANT	0	Control Mode
ELECTROMETER	IQUANT	1	RE=0 or CS=1
IESTAB	IQUANT	0	I/E Stability
CASPEED	IQUANT	4	Control Amp Speed
CONVENTION	IQUANT	1	Current Convention
ICHRANGE	IQUANT	2	Ich Range
ICHRANGEMODE	TOGGLE	T	Ich Auto Range
ICHOFFSETENABLE	TOGGLE	F	Ich Offset Enable
ICHOFFSET	QUANT	0	Ich Offset (V)
ICHFILTER	IQUANT	1	Ich Filter
VCHRANGE	IQUANT	2	Vch Range
VCHRANGEMODE	TOGGLE	T	Vch Auto Range
VCHOFFSETENABLE	TOGGLE	F	Vch Offset Enable
VCHOFFSET	QUANT	0	Vch Offset (V)
VCHFILTER	IQUANT	1	Vch Filter
IERANGELOWERLIMIT	IQUANT	9	I/E Range Lower Limit
IERANGEMODE	TOGGLE	F	I/E AutoRange
IERANGE	IQUANT	9	I/E Range
ACHSELECT	IQUANT	1	Ach Select
ACHRANGE	IQUANT	2	Ach Range
ACHOFFSETENABLE	TOGGLE	F	Ach Offset Enable
ACHOFFSET	QUANT	0	Ach Offset (V)
ACHFILTER	IQUANT	1	Ach Filter
CABLEID	IQUANT	14	Cable ID
DCCALDATE	LABEL	5-7-2017	DC Calibration Date
ACCALDATE	LABEL	12/3/2015	AC Calibration Date
FRAMEWORKVERSION	QUANT	7.01	Framework Version
INSTRUMENTVERSION	LABEL	4.00	Instrument Version
CURVE	TABLE	119
	Pt	T	Vf	Im	Vu	Pwr	Sig	Ach	Temp	IERange	Over
	#	s	V	A	V	W	V	V	deg C	#	bits
	0	0.013333	3.63458E-001	4.00770E-004	0.00000E+000	1.45663E-004	2.40040E-001	3.63557E-001	3.57670E+000	9	...........
	1	0.026667	3.75058E-001	4.02008E-004	0.00000E+000	1.50776E-004	2.40040E-001	3.75135E-001	3.57670E+000	9	...........
	2	0.04	3.85008E-001	4.01530E-004	0.00000E+000	1.54592E-004	2.40040E-001	3.85085E-001	3.57670E+000	9	...........
	3	0.053333	3.94049E-001	4.00697E-004	0.00000E+000	1.57894E-004	2.40040E-001	3.94127E-001	3.57670E+000	9	...........
	4	0.066667	4.02531E-001	4.01128E-004	0.00000E+000	1.61467E-004	2.40040E-001	4.02607E-001	3.57670E+000	9	...........
	5	0.08	4.10603E-001	4.01937E-004	0.00000E+000	1.65036E-004	2.40040E-001	4.10686E-001	3.57670E+000	9	...........
	6	0.093333	4.18383E-001	4.00641E-004	0.00000E+000	1.67621E-004	2.40040E-001	4.18466E-001	3.57670E+000	9	...........
	7	0.106667	4.25845E-001	4.01244E-004	0.00000E+000	1.70868E-004	2.40040E-001	4.25935E-001	3.57670E+000	9	...........
	8	0.12	4.33135E-001	4.00595E-004	0.00000E+000	1.73512E-004	2.40040E-001	4.33222E-001	3.57670E+000	9	...........
	9	0.133333	4.40401E-001	4.01297E-004	0.00000E+000	1.76732E-004	2.40040E-001	4.40494E-001	3.57670E+000	9	...........
	10	0.146667	4.47445E-001	4.00912E-004	0.00000E+000	1.79386E-004	2.40040E-001	4.47537E-001	3.57670E+000	9	...........
	11	0.16	4.54349E-001	4.00973E-004	0.00000E+000	1.82182E-004	2.40040E-001	4.54442E-001	3.57670E+000	9	...........
	12	0.173333	4.61147E-001	4.01900E-004	0.00000E+000	1.85335E-004	2.40040E-001	4.61245E-001	3.57670E+000	9	...........
	13	0.186667	4.67878E-001	3.99716E-004	0.00000E+000	1.87018E-004	2.40040E-001	4.67972E-001	3.57670E+000	9	...........
	14	0.2	4.74465E-001	4.01017E-004	0.00000E+000	1.90269E-004	2.40040E-001	4.74558E-001	3.57670E+000	9	...........
	15	0.213333	4.81039E-001	4.01867E-004	0.00000E+000	1.93314E-004	2.40040E-001	4.81133E-001	3.57670E+000	9	...........
	16	0.226667	4.87563E-001	4.00915E-004	0.00000E+000	1.95471E-004	2.40040E-001	4.87660E-001	3.57670E+000	9	...........
	17	0.24	4.93945E-001	4.00467E-004	0.00000E+000	1.97809E-004	2.40040E-001	4.94039E-001	3.57670E+000	9	...........
	18	0.253333	5.00258E-001	4.00150E-004	0.00000E+000	2.00178E-004	2.40040E-001	5.00353E-001	3.57670E+000	9	...........
	19	0.266667	5.06560E-001	4.00805E-004	0.00000E+000	2.03032E-004	2.40040E-001	5.06663E-001	3.57670E+000	9	...........
	20	0.28	5.12828E-001	4.01844E-004	0.00000E+000	2.06077E-004	2.40040E-001	5.12936E-001	3.57670E+000	9	...........
	21	0.293333	5.19049E-001	3.99410E-004	0.00000E+000	2.07313E-004	2.40040E-001	5.19154E-001	3.57670E+000	9	...........
	22	0.306667	5.25212E-001	4.01346E-004	0.00000E+000	2.10792E-004	2.40040E-001	5.25323E-001	3.57670E+000	9	...........
	23	0.32	5.31218E-001	4.01348E-004	0.00000E+000	2.13203E-004	2.40040E-001	5.31338E-001	3.57670E+000	9	...........
	24	0.333333	5.37127E-001	4.01293E-004	0.00000E+000	2.15545E-004	2.40040E-001	5.37327E-001	3.57670E+000	9	...........
	25	0.346667	5.43207E-001	4.00648E-004	0.00000E+000	2.17635E-004	2.40040E-001	5.43381E-001	3.57670E+000	9	...........
	26	0.36	5.49286E-001	4.01672E-004	0.00000E+000	2.20633E-004	2.40040E-001	5.49474E-001	3.57670E+000	9	...........
	27	0.373333	5.55294E-001	4.01903E-004	0.00000E+000	2.23174E-004	2.40040E-001	5.55484E-001	3.57670E+000	9	...........
	28	0.386667	5.61255E-001	4.00101E-004	0.00000E+000	2.24559E-004	2.40040E-001	5.61466E-001	3.57670E+000	9	...........
	29	0.4	5.67265E-001	4.00171E-004	0.00000E+000	2.27003E-004	2.40040E-001	5.67471E-001	3.57670E+000	9	...........
	30	0.413333	5.73110E-001	4.00510E-004	0.00000E+000	2.29536E-004	2.40040E-001	5.73325E-001	3.57670E+000	9	...........
	31	0.426667	5.78987E-001	4.00113E-004	0.00000E+000	2.31660E-004	2.40040E-001	5.79213E-001	3.57670E+000	9	...........
	32	0.44	5.84856E-001	4.01138E-004	0.00000E+000	2.34608E-004	2.40040E-001	5.85085E-001	3.57670E+000	9	...........
	33	0.453333	5.90765E-001	3.99706E-004	0.00000E+000	2.36132E-004	2.40040E-001	5.91000E-001	3.57670E+000	9	...........
	34	0.466667	5.96554E-001	4.00711E-004	0.00000E+000	2.39046E-004	2.40040E-001	5.96813E-001	3.57670E+000	9	...........
	35	0.48	6.02334E-001	4.01059E-004	0.00000E+000	2.41571E-004	2.40040E-001	6.02607E-001	3.57670E+000	9	...........
	36	0.493333	6.08069E-001	3.99061E-004	0.00000E+000	2.42657E-004	2.40040E-001	6.08336E-001	3.57689E+000	9	...........
	37	0.506667	6.13890E-001	4.00321E-004	0.00000E+000	2.45753E-004	2.40040E-001	6.14146E-001	3.57690E+000	9	...........
	38	0.52	6.19733E-001	4.00536E-004	0.00000E+000	2.48225E-004	2.40040E-001	6.19951E-001	3.57690E+000	9	...........
	39	0.533333	6.25449E-001	4.00053E-004	0.00000E+000	2.50213E-004	2.40040E-001	6.25671E-001	3.57690E+000	9	...........
	40	0.546667	6.31161E-001	4.00645E-004	0.00000E+000	2.52871E-004	2.40040E-001	6.31392E-001	3.57690E+000	9	...........
	41	0.56	6.36851E-001	4.00815E-004	0.00000E+000	2.55259E-004	2.40040E-001	6.37083E-001	3.57690E+000	9	...........
	42	0.573333	6.42600E-001	4.00919E-004	0.00000E+000	2.57631E-004	2.40040E-001	6.42811E-001	3.57690E+000	9	...........
	43	0.586667	6.48240E-001	4.00682E-004	0.00000E+000	2.59738E-004	2.40040E-001	6.48438E-001	3.57690E+000	9	...........
	44	0.6	6.53898E-001	4.00412E-004	0.00000E+000	2.61828E-004	2.40040E-001	6.54103E-001	3.57690E+000	9	...........
	45	0.613333	6.59459E-001	4.01148E-004	0.00000E+000	2.64541E-004	2.40040E-001	6.59682E-001	3.57690E+000	9	...........
	46	0.626667	6.65088E-001	4.00331E-004	0.00000E+000	2.66256E-004	2.40040E-001	6.65327E-001	3.57690E+000	9	...........
	47	0.64	6.70736E-001	4.00764E-004	0.00000E+000	2.68806E-004	2.40040E-001	6.70922E-001	3.57690E+000	9	...........
	48	0.653333	6.76351E-001	4.01364E-004	0.00000E+000	2.71463E-004	2.40040E-001	6.76560E-001	3.57690E+000	9	...........
	49	0.666667	6.81928E-001	4.00516E-004	0.00000E+000	2.73123E-004	2.40040E-001	6.82118E-001	3.57690E+000	9	...........
	50	0.68	6.87412E-001	4.00549E-004	0.00000E+000	2.75342E-004	2.40040E-001	6.87625E-001	3.57690E+000	9	...........
	51	0.693333	6.92932E-001	4.00704E-004	0.00000E+000	2.77661E-004	2.40040E-001	6.93129E-001	3.57690E+000	9	...........
	52	0.706667	6.98370E-001	4.00699E-004	0.00000E+000	2.79836E-004	2.40040E-001	6.98595E-001	3.57690E+000	9	...........
	53	0.72	7.03828E-001	4.02440E-004	0.00000E+000	2.83249E-004	2.40040E-001	7.04059E-001	3.57690E+000	9	...........
	54	0.733333	7.09299E-001	4.00537E-004	0.00000E+000	2.84100E-004	2.40040E-001	7.09530E-001	3.57690E+000	9	...........
	55	0.746667	7.14724E-001	4.00281E-004	0.00000E+000	2.86091E-004	2.40040E-001	7.14953E-001	3.57690E+000	9	...........
	56	0.76	7.20198E-001	4.01030E-004	0.00000E+000	2.88821E-004	2.40040E-001	7.20416E-001	3.57690E+000	9	...........
	57	0.773333	7.25631E-001	3.99693E-004	0.00000E+000	2.90029E-004	2.40040E-001	7.25845E-001	3.57690E+000	9	...........
	58	0.786667	7.30993E-001	4.01610E-004	0.00000E+000	2.93574E-004	2.40040E-001	7.31238E-001	3.57690E+000	9	...........
	59	0.8	7.36417E-001	4.00619E-004	0.00000E+000	2.95023E-004	2.40040E-001	7.36621E-001	3.57690E+000	9	...........
	60	0.813333	7.41766E-001	4.01923E-004	0.00000E+000	2.98133E-004	2.40040E-001	7.41993E-001	3.57690E+000	9	...........
	61	0.826667	7.47154E-001	4.02597E-004	0.00000E+000	3.00802E-004	2.40040E-001	7.47354E-001	3.57690E+000	9	...........
	62	0.84	7.52436E-001	4.00302E-004	0.00000E+000	3.01202E-004	2.40040E-001	7.52644E-001	3.57690E+000	9	...........
	63	0.853333	7.57666E-001	4.01834E-004	0.00000E+000	3.04456E-004	2.40040E-001	7.57905E-001	3.57690E+000	9	...........
	64	0.866667	7.62923E-001	4.01139E-004	0.00000E+000	3.06038E-004	2.40040E-001	7.63152E-001	3.57690E+000	9	...........
	65	0.88	7.68140E-001	4.01165E-004	0.00000E+000	3.08151E-004	2.40040E-001	7.68407E-001	3.57690E+000	9	...........
	66	0.893333	7.73415E-001	4.00754E-004	0.00000E+000	3.09949E-004	2.40040E-001	7.73640E-001	3.57690E+000	9	...........
	67	0.906667	7.78583E-001	4.01306E-004	0.00000E+000	3.12450E-004	2.40040E-001	7.78859E-001	3.57690E+000	9	...........
	68	0.92	7.83875E-001	4.01509E-004	0.00000E+000	3.14733E-004	2.40040E-001	7.84110E-001	3.57690E+000	9	...........
	69	0.933333	7.88990E-001	4.01061E-004	0.00000E+000	3.16433E-004	2.40040E-001	7.89251E-001	3.57690E+000	9	...........
	70	0.946667	7.94091E-001	4.01490E-004	0.00000E+000	3.18820E-004	2.40040E-001	7.94358E-001	3.57690E+000	9	...........
	71	0.96	7.99182E-001	4.01576E-004	0.00000E+000	3.20933E-004	2.40040E-001	7.99455E-001	3.57690E+000	9	...........
	72	0.97333	8.04171E-001	4.00043E-004	0.00000E+000	3.21703E-004	2.40040E-001	8.04458E-001	3.57690E+000	9	...........
	73	0.98667	8.09163E-001	4.00695E-004	0.00000E+000	3.24228E-004	2.40040E-001	8.09452E-001	3.57690E+000	9	...........
	74	1	8.14155E-001	3.99642E-004	0.00000E+000	3.25370E-004	2.40040E-001	8.14471E-001	3.57690E+000	9	...........
	75	1.01333	8.19108E-001	4.01796E-004	0.00000E+000	3.29114E-004	2.40040E-001	8.19421E-001	3.57690E+000	9	...........
	76	1.02667	8.24087E-001	4.00744E-004	0.00000E+000	3.30248E-004	2.40040E-001	8.24371E-001	3.57690E+000	9	...........
	77	1.04	8.29018E-001	4.00664E-004	0.00000E+000	3.32157E-004	2.40040E-001	8.29282E-001	3.57690E+000	9	...........
	78	1.05333	8.33896E-001	4.00380E-004	0.00000E+000	3.33876E-004	2.40040E-001	8.34191E-001	3.57690E+000	9	...........
	79	1.06667	8.38700E-001	4.01455E-004	0.00000E+000	3.36700E-004	2.40040E-001	8.38993E-001	3.57690E+000	9	...........
	80	1.08	8.43509E-001	4.01014E-004	0.00000E+000	3.38259E-004	2.40040E-001	8.43797E-001	3.57690E+000	9	...........
	81	1.09333	8.48260E-001	4.01811E-004	0.00000E+000	3.40840E-004	2.40040E-001	8.48562E-001	3.57690E+000	9	...........
	82	1.10667	8.53097E-001	4.00396E-004	0.00000E+000	3.41576E-004	2.40040E-001	8.53391E-001	3.57690E+000	9	...........
	83	1.12	8.57805E-001	4.01512E-004	0.00000E+000	3.44419E-004	2.40040E-001	8.58141E-001	3.57690E+000	9	...........
	84	1.13333	8.62494E-001	4.01073E-004	0.00000E+000	3.45923E-004	2.40040E-001	8.62797E-001	3.57690E+000	9	...........
	85	1.14667	8.67149E-001	4.00361E-004	0.00000E+000	3.47172E-004	2.40040E-001	8.67466E-001	3.57690E+000	9	...........
	86	1.16	8.71797E-001	4.01644E-004	0.00000E+000	3.50152E-004	2.40040E-001	8.72098E-001	3.57690E+000	9	...........
	87	1.17333	8.76427E-001	4.01468E-004	0.00000E+000	3.51857E-004	2.40040E-001	8.76722E-001	3.57690E+000	9	...........
	88	1.18667	8.80975E-001	4.01271E-004	0.00000E+000	3.53510E-004	2.40040E-001	8.81274E-001	3.57690E+000	9	...........
	89	1.2	8.85521E-001	4.00992E-004	0.00000E+000	3.55087E-004	2.40040E-001	8.85826E-001	3.57690E+000	9	...........
	90	1.21333	8.90033E-001	4.00068E-004	0.00000E+000	3.56073E-004	2.40040E-001	8.90325E-001	3.57690E+000	9	...........
	91	1.22667	8.94473E-001	4.00122E-004	0.00000E+000	3.57898E-004	2.40040E-001	8.94799E-001	3.57690E+000	9	...........
	92	1.24	8.98890E-001	4.00917E-004	0.00000E+000	3.60380E-004	2.40040E-001	8.99220E-001	3.57690E+000	9	...........
	93	1.25333	9.03282E-001	4.00513E-004	0.00000E+000	3.61776E-004	2.40040E-001	9.03612E-001	3.57690E+000	9	...........
	94	1.26667	9.07598E-001	4.01586E-004	0.00000E+000	3.64479E-004	2.40040E-001	9.07942E-001	3.57690E+000	9	...........
	95	1.28	9.11940E-001	4.00533E-004	0.00000E+000	3.65262E-004	2.40040E-001	9.12269E-001	3.57690E+000	9	...........
	96	1.29333	9.16244E-001	4.00102E-004	0.00000E+000	3.66591E-004	2.40040E-001	9.16589E-001	3.57690E+000	9	...........
	97	1.30667	9.20577E-001	3.99641E-004	0.00000E+000	3.67900E-004	2.40040E-001	9.20889E-001	3.57690E+000	9	...........
	98	1.32	9.24827E-001	4.00810E-004	0.00000E+000	3.70680E-004	2.40040E-001	9.25107E-001	3.57690E+000	9	...........
	99	1.33333	9.29016E-001	4.01183E-004	0.00000E+000	3.72705E-004	2.40040E-001	9.29293E-001	3.57690E+000	9	...........
	100	1.34667	9.33073E-001	4.01962E-004	0.00000E+000	3.75060E-004	2.40040E-001	9.33367E-001	3.57690E+000	9	...........
	101	1.36	9.37159E-001	4.01188E-004	0.00000E+000	3.75977E-004	2.40040E-001	9.37458E-001	3.57690E+000	9	...........
	102	1.37333	9.41196E-001	4.00995E-004	0.00000E+000	3.77415E-004	2.40040E-001	9.41511E-001	3.57690E+000	9	...........
	103	1.38667	9.45307E-001	4.01278E-004	0.00000E+000	3.79331E-004	2.40040E-001	9.45585E-001	3.57690E+000	9	...........
	104	1.4	9.49305E-001	3.99955E-004	0.00000E+000	3.79679E-004	2.40040E-001	9.49573E-001	3.57690E+000	9	...........
	105	1.41333	9.53229E-001	4.00986E-004	0.00000E+000	3.82231E-004	2.40040E-001	9.53509E-001	3.57690E+000	9	...........
	106	1.42667	9.57089E-001	4.01384E-004	0.00000E+000	3.84160E-004	2.40040E-001	9.57371E-001	3.57690E+000	9	...........
	107	1.44	9.60983E-001	4.00597E-004	0.00000E+000	3.84967E-004	2.40040E-001	9.61294E-001	3.57690E+000	9	...........
	108	1.45333	9.64811E-001	4.00976E-004	0.00000E+000	3.86866E-004	2.40040E-001	9.65136E-001	3.57690E+000	9	...........
	109	1.46667	9.68644E-001	4.00876E-004	0.00000E+000	3.88307E-004	2.40040E-001	9.68946E-001	3.57690E+000	9	...........
	110	1.48	9.72373E-001	4.01079E-004	0.00000E+000	3.89999E-004	2.40040E-001	9.72670E-001	3.57690E+000	9	...........
	111	1.49333	9.76072E-001	4.01974E-004	0.00000E+000	3.92356E-004	2.40040E-001	9.76369E-001	3.57632E+000	9	...........
	112	1.50667	9.79815E-001	4.01377E-004	0.00000E+000	3.93276E-004	2.40040E-001	9.80088E-001	3.57630E+000	9	...........
	113	1.52	9.83484E-001	4.00909E-004	0.00000E+000	3.94287E-004	2.40040E-001	9.83779E-001	3.57630E+000	9	...........
	114	1.53333	9.87089E-001	4.01145E-004	0.00000E+000	3.95966E-004	2.40040E-001	9.87401E-001	3.57630E+000	9	...........
	115	1.54667	9.90701E-001	4.00711E-004	0.00000E+000	3.96985E-004	2.40040E-001	9.91004E-001	3.57630E+000	9	...........
	116	1.56	9.94225E-001	4.01734E-004	0.00000E+000	3.99414E-004	2.40040E-001	9.94566E-001	3.57630E+000	9	...........
	117	1.57333	9.97708E-001	4.01063E-004	0.00000E+000	4.00143E-004	2.40040E-001	9.98031E-001	3.57630E+000	9	...........
	118	1.57667	9.99916E-001	4.01082E-004	0.00000E+000	4.01048E-004	2.40040E-001	1.00024E+000	3.57630E+000	9	...........
STARTTIMEOFFSET	QUANT	1498.266	Start Time Offset (s)
