EXPLAIN
TAG	PWR800_CHARGE
TITLE	LABEL	PWR Cyclic Charge Discharge (Cell) - Charge Step	Test &Identifier
DATE	LABEL	12-7-2017	Date
TIME	LABEL	15:10:08	Time
NOTES	NOTES	3	&Notes...
	supercap test cell
	0.4mg
	6M KOH
PSTAT	PSTAT	IFC5000-01520	Potentiostat
CAPACITY	QUANT	1.00000E-003	Capacity (A-hr)
CELLTYPE	SELECTOR	1	&Cell Type
WORKINGCONNECTION	SELECTOR	0	&Working Lead
MAXCHARGETIME	VARIABLEANDUNITS	1.00000E+002	s	1.00000E+002	second(s)	Max &Charge Time
CHARGECURRENT	QUANT	4.00000E-004	&Charge Current (A) 
VOLTAGEFINISH	TWOPARAM	F	1.00000E-003	3.60000E+003	&Voltage Finish	 I (A) < 	Max Time(s)
SAMPLETIME	QUANT	1.00000E-002	Sa&mple Period (s)
CHARGESTOPAT1	MULTIPARAM	4	1.00000E+000	Charge Stop At &1	Voltage > Limit	V
CHARGESTOPAT2	MULTIPARAM	0	0.00000E+000	Charge Stop At &2	None	N/A
AESBHCSELECTOR	TOGGLE	F	Save Both Half Cells
IRCOMP	TOGGLE	F	IR &Measure
EOC	QUANT	0	Open Circuit (V)
SEQUENCER	TOGGLE	TRUE	Run as Sequence
PSTATMODEL	IQUANT	53	Pstat Model
PSTATSECTION	LABEL	IFC5000-01520	Pstat Section
PSTATSERIALNO	LABEL	01520	Pstat Serial Number
CTRLMODE	IQUANT	0	Control Mode
ELECTROMETER	IQUANT	1	RE=0 or CS=1
IESTAB	IQUANT	0	I/E Stability
CASPEED	IQUANT	4	Control Amp Speed
CONVENTION	IQUANT	1	Current Convention
ICHRANGE	IQUANT	2	Ich Range
ICHRANGEMODE	TOGGLE	T	Ich Auto Range
ICHOFFSETENABLE	TOGGLE	F	Ich Offset Enable
ICHOFFSET	QUANT	0	Ich Offset (V)
ICHFILTER	IQUANT	1	Ich Filter
VCHRANGE	IQUANT	2	Vch Range
VCHRANGEMODE	TOGGLE	T	Vch Auto Range
VCHOFFSETENABLE	TOGGLE	F	Vch Offset Enable
VCHOFFSET	QUANT	0	Vch Offset (V)
VCHFILTER	IQUANT	1	Vch Filter
IERANGELOWERLIMIT	IQUANT	9	I/E Range Lower Limit
IERANGEMODE	TOGGLE	F	I/E AutoRange
IERANGE	IQUANT	9	I/E Range
ACHSELECT	IQUANT	1	Ach Select
ACHRANGE	IQUANT	2	Ach Range
ACHOFFSETENABLE	TOGGLE	F	Ach Offset Enable
ACHOFFSET	QUANT	0	Ach Offset (V)
ACHFILTER	IQUANT	1	Ach Filter
CABLEID	IQUANT	14	Cable ID
DCCALDATE	LABEL	5-7-2017	DC Calibration Date
ACCALDATE	LABEL	12/3/2015	AC Calibration Date
FRAMEWORKVERSION	QUANT	7.01	Framework Version
INSTRUMENTVERSION	LABEL	4.00	Instrument Version
CURVE	TABLE	109
	Pt	T	Vf	Im	Vu	Pwr	Sig	Ach	Temp	IERange	Over
	#	s	V	A	V	W	V	V	deg C	#	bits
	0	0.013333	3.83771E-001	3.99846E-004	0.00000E+000	1.53449E-004	2.40040E-001	3.83861E-001	3.57720E+000	9	...........
	1	0.026667	3.96146E-001	4.00817E-004	0.00000E+000	1.58782E-004	2.40040E-001	3.96222E-001	3.57720E+000	9	...........
	2	0.04	4.06770E-001	4.01416E-004	0.00000E+000	1.63284E-004	2.40040E-001	4.06847E-001	3.57720E+000	9	...........
	3	0.053333	4.16327E-001	3.99802E-004	0.00000E+000	1.66448E-004	2.40040E-001	4.16409E-001	3.57720E+000	9	...........
	4	0.066667	4.25256E-001	4.00914E-004	0.00000E+000	1.70491E-004	2.40040E-001	4.25346E-001	3.57720E+000	9	...........
	5	0.08	4.33833E-001	4.00854E-004	0.00000E+000	1.73904E-004	2.40040E-001	4.33920E-001	3.57720E+000	9	...........
	6	0.093333	4.42019E-001	4.02091E-004	0.00000E+000	1.77732E-004	2.40040E-001	4.42109E-001	3.57720E+000	9	...........
	7	0.106667	4.49979E-001	4.01452E-004	0.00000E+000	1.80645E-004	2.40040E-001	4.50069E-001	3.57720E+000	9	...........
	8	0.12	4.57707E-001	4.00607E-004	0.00000E+000	1.83361E-004	2.40040E-001	4.57798E-001	3.57720E+000	9	...........
	9	0.133333	4.65210E-001	4.01020E-004	0.00000E+000	1.86558E-004	2.40040E-001	4.65300E-001	3.57720E+000	9	...........
	10	0.146667	4.72516E-001	4.01313E-004	0.00000E+000	1.89627E-004	2.40040E-001	4.72608E-001	3.57720E+000	9	...........
	11	0.16	4.79720E-001	4.00619E-004	0.00000E+000	1.92185E-004	2.40040E-001	4.79817E-001	3.57720E+000	9	...........
	12	0.173333	4.86870E-001	4.02544E-004	0.00000E+000	1.95987E-004	2.40040E-001	4.86960E-001	3.57720E+000	9	...........
	13	0.186667	4.93919E-001	4.00252E-004	0.00000E+000	1.97692E-004	2.40040E-001	4.94017E-001	3.57720E+000	9	...........
	14	0.2	5.00877E-001	4.00727E-004	0.00000E+000	2.00715E-004	2.40040E-001	5.00981E-001	3.57720E+000	9	...........
	15	0.213333	5.07684E-001	4.00647E-004	0.00000E+000	2.03402E-004	2.40040E-001	5.07788E-001	3.57720E+000	9	...........
	16	0.226667	5.14456E-001	4.00327E-004	0.00000E+000	2.05951E-004	2.40040E-001	5.14561E-001	3.57720E+000	9	...........
	17	0.24	5.21140E-001	4.00807E-004	0.00000E+000	2.08877E-004	2.40040E-001	5.21246E-001	3.57720E+000	9	...........
	18	0.253333	5.27803E-001	4.01043E-004	0.00000E+000	2.11672E-004	2.40040E-001	5.27911E-001	3.57720E+000	9	...........
	19	0.266667	5.34281E-001	4.01549E-004	0.00000E+000	2.14540E-004	2.40040E-001	5.34444E-001	3.57720E+000	9	...........
	20	0.28	5.40773E-001	4.01127E-004	0.00000E+000	2.16919E-004	2.40040E-001	5.40964E-001	3.57720E+000	9	...........
	21	0.293333	5.47319E-001	4.00964E-004	0.00000E+000	2.19455E-004	2.40040E-001	5.47491E-001	3.57720E+000	9	...........
	22	0.306667	5.53781E-001	4.00454E-004	0.00000E+000	2.21764E-004	2.40040E-001	5.53956E-001	3.57720E+000	9	...........
	23	0.32	5.60163E-001	4.00259E-004	0.00000E+000	2.24211E-004	2.40040E-001	5.60375E-001	3.57720E+000	9	...........
	24	0.333333	5.66617E-001	4.01800E-004	0.00000E+000	2.27667E-004	2.40040E-001	5.66795E-001	3.57720E+000	9	...........
	25	0.346667	5.72972E-001	4.01997E-004	0.00000E+000	2.30333E-004	2.40040E-001	5.73171E-001	3.57720E+000	9	...........
	26	0.36	5.79249E-001	3.99332E-004	0.00000E+000	2.31313E-004	2.40040E-001	5.79477E-001	3.57720E+000	9	...........
	27	0.373333	5.85568E-001	4.00374E-004	0.00000E+000	2.34446E-004	2.40040E-001	5.85792E-001	3.57720E+000	9	...........
	28	0.386667	5.91839E-001	4.00793E-004	0.00000E+000	2.37205E-004	2.40040E-001	5.92058E-001	3.57720E+000	9	...........
	29	0.4	5.98022E-001	4.01908E-004	0.00000E+000	2.40350E-004	2.40040E-001	5.98275E-001	3.57720E+000	9	...........
	30	0.413333	6.04221E-001	4.00461E-004	0.00000E+000	2.41967E-004	2.40040E-001	6.04482E-001	3.57720E+000	9	...........
	31	0.426667	6.10311E-001	4.00203E-004	0.00000E+000	2.44248E-004	2.40040E-001	6.10571E-001	3.57720E+000	9	...........
	32	0.44	6.16517E-001	3.99676E-004	0.00000E+000	2.46407E-004	2.40040E-001	6.16723E-001	3.57720E+000	9	...........
	33	0.453333	6.22642E-001	4.01568E-004	0.00000E+000	2.50033E-004	2.40040E-001	6.22841E-001	3.57720E+000	9	...........
	34	0.466667	6.28713E-001	4.01102E-004	0.00000E+000	2.52178E-004	2.40040E-001	6.28929E-001	3.57720E+000	9	...........
	35	0.48	6.34804E-001	4.00125E-004	0.00000E+000	2.54001E-004	2.40040E-001	6.34997E-001	3.57720E+000	9	...........
	36	0.493333	6.40861E-001	4.00599E-004	0.00000E+000	2.56728E-004	2.40040E-001	6.41049E-001	3.57720E+000	9	...........
	37	0.506667	6.46887E-001	4.00666E-004	0.00000E+000	2.59185E-004	2.40040E-001	6.47098E-001	3.57720E+000	9	...........
	38	0.52	6.52930E-001	4.00839E-004	0.00000E+000	2.61720E-004	2.40040E-001	6.53129E-001	3.57720E+000	9	...........
	39	0.533333	6.58936E-001	4.03010E-004	0.00000E+000	2.65558E-004	2.40040E-001	6.59150E-001	3.57720E+000	9	...........
	40	0.546667	6.64883E-001	4.00134E-004	0.00000E+000	2.66043E-004	2.40040E-001	6.65095E-001	3.57720E+000	9	...........
	41	0.56	6.70901E-001	4.00895E-004	0.00000E+000	2.68961E-004	2.40040E-001	6.71108E-001	3.57720E+000	9	...........
	42	0.573333	6.76848E-001	4.00436E-004	0.00000E+000	2.71034E-004	2.40040E-001	6.77088E-001	3.57720E+000	9	...........
	43	0.586667	6.82701E-001	4.01707E-004	0.00000E+000	2.74246E-004	2.40040E-001	6.82928E-001	3.57767E+000	9	...........
	44	0.6	6.88540E-001	4.00058E-004	0.00000E+000	2.75456E-004	2.40040E-001	6.88794E-001	3.57910E+000	9	...........
	45	0.613333	6.94461E-001	4.00387E-004	0.00000E+000	2.78053E-004	2.40040E-001	6.94688E-001	3.57910E+000	9	...........
	46	0.626667	7.00251E-001	4.00477E-004	0.00000E+000	2.80435E-004	2.40040E-001	7.00477E-001	3.57910E+000	9	...........
	47	0.64	7.06099E-001	4.00857E-004	0.00000E+000	2.83045E-004	2.40040E-001	7.06328E-001	3.57910E+000	9	...........
	48	0.653333	7.11811E-001	4.01518E-004	0.00000E+000	2.85805E-004	2.40040E-001	7.12056E-001	3.57910E+000	9	...........
	49	0.666667	7.17539E-001	4.01326E-004	0.00000E+000	2.87967E-004	2.40040E-001	7.17778E-001	3.57910E+000	9	...........
	50	0.68	7.23249E-001	4.00363E-004	0.00000E+000	2.89562E-004	2.40040E-001	7.23479E-001	3.57910E+000	9	...........
	51	0.693333	7.28883E-001	4.01005E-004	0.00000E+000	2.92286E-004	2.40040E-001	7.29100E-001	3.57910E+000	9	...........
	52	0.706667	7.34599E-001	4.00712E-004	0.00000E+000	2.94362E-004	2.40040E-001	7.34835E-001	3.57910E+000	9	...........
	53	0.72	7.40261E-001	4.00132E-004	0.00000E+000	2.96202E-004	2.40040E-001	7.40516E-001	3.57910E+000	9	...........
	54	0.733333	7.45928E-001	4.01578E-004	0.00000E+000	2.99549E-004	2.40040E-001	7.46165E-001	3.57910E+000	9	...........
	55	0.746667	7.51518E-001	4.00607E-004	0.00000E+000	3.01064E-004	2.40040E-001	7.51774E-001	3.57910E+000	9	...........
	56	0.76	7.57139E-001	4.00970E-004	0.00000E+000	3.03590E-004	2.40040E-001	7.57386E-001	3.57910E+000	9	...........
	57	0.773333	7.62706E-001	4.01924E-004	0.00000E+000	3.06550E-004	2.40040E-001	7.62951E-001	3.57910E+000	9	...........
	58	0.786667	7.68184E-001	4.00239E-004	0.00000E+000	3.07457E-004	2.40040E-001	7.68450E-001	3.57910E+000	9	...........
	59	0.8	7.73662E-001	4.00370E-004	0.00000E+000	3.09751E-004	2.40040E-001	7.73900E-001	3.57910E+000	9	...........
	60	0.813333	7.79121E-001	4.01220E-004	0.00000E+000	3.12599E-004	2.40040E-001	7.79357E-001	3.57910E+000	9	...........
	61	0.826667	7.84533E-001	4.01425E-004	0.00000E+000	3.14931E-004	2.40040E-001	7.84772E-001	3.57910E+000	9	...........
	62	0.84	7.89923E-001	4.01813E-004	0.00000E+000	3.17401E-004	2.40040E-001	7.90197E-001	3.57910E+000	9	...........
	63	0.853333	7.95334E-001	4.00263E-004	0.00000E+000	3.18342E-004	2.40040E-001	7.95595E-001	3.57910E+000	9	...........
	64	0.866667	8.00604E-001	4.01940E-004	0.00000E+000	3.21795E-004	2.40040E-001	8.00864E-001	3.57910E+000	9	...........
	65	0.88	8.05859E-001	4.00289E-004	0.00000E+000	3.22576E-004	2.40040E-001	8.06135E-001	3.57910E+000	9	...........
	66	0.893333	8.11121E-001	4.00631E-004	0.00000E+000	3.24961E-004	2.40040E-001	8.11395E-001	3.57910E+000	9	...........
	67	0.906667	8.16329E-001	4.01163E-004	0.00000E+000	3.27481E-004	2.40040E-001	8.16631E-001	3.57910E+000	9	...........
	68	0.92	8.21563E-001	4.01453E-004	0.00000E+000	3.29819E-004	2.40040E-001	8.21833E-001	3.57910E+000	9	...........
	69	0.933333	8.26696E-001	4.00652E-004	0.00000E+000	3.31218E-004	2.40040E-001	8.26991E-001	3.57910E+000	9	...........
	70	0.946667	8.31853E-001	3.99823E-004	0.00000E+000	3.32594E-004	2.40040E-001	8.32145E-001	3.57910E+000	9	...........
	71	0.96	8.36943E-001	4.00203E-004	0.00000E+000	3.34947E-004	2.40040E-001	8.37255E-001	3.57910E+000	9	...........
	72	0.97333	8.41996E-001	4.00987E-004	0.00000E+000	3.37629E-004	2.40040E-001	8.42272E-001	3.57910E+000	9	...........
	73	0.98667	8.47068E-001	4.01140E-004	0.00000E+000	3.39793E-004	2.40040E-001	8.47353E-001	3.57910E+000	9	...........
	74	1	8.52040E-001	4.00739E-004	0.00000E+000	3.41445E-004	2.40040E-001	8.52307E-001	3.57910E+000	9	...........
	75	1.01333	8.56893E-001	4.00737E-004	0.00000E+000	3.43388E-004	2.40040E-001	8.57192E-001	3.57910E+000	9	...........
	76	1.02667	8.61802E-001	4.02091E-004	0.00000E+000	3.46523E-004	2.40040E-001	8.62079E-001	3.57910E+000	9	...........
	77	1.04	8.66703E-001	4.00008E-004	0.00000E+000	3.46688E-004	2.40040E-001	8.66979E-001	3.57910E+000	9	...........
	78	1.05333	8.71617E-001	4.02428E-004	0.00000E+000	3.50763E-004	2.40040E-001	8.71896E-001	3.57910E+000	9	...........
	79	1.06667	8.76433E-001	4.00420E-004	0.00000E+000	3.50941E-004	2.40040E-001	8.76701E-001	3.57910E+000	9	...........
	80	1.08	8.81197E-001	4.01103E-004	0.00000E+000	3.53451E-004	2.40040E-001	8.81448E-001	3.57910E+000	9	...........
	81	1.09333	8.85920E-001	4.00479E-004	0.00000E+000	3.54793E-004	2.40040E-001	8.86199E-001	3.57910E+000	9	...........
	82	1.10667	8.90616E-001	4.01099E-004	0.00000E+000	3.57225E-004	2.40040E-001	8.90845E-001	3.57910E+000	9	...........
	83	1.12	8.95232E-001	4.00501E-004	0.00000E+000	3.58542E-004	2.40040E-001	8.95550E-001	3.57910E+000	9	...........
	84	1.13333	8.99803E-001	4.00246E-004	0.00000E+000	3.60142E-004	2.40040E-001	9.00100E-001	3.57910E+000	9	...........
	85	1.14667	9.04382E-001	4.01411E-004	0.00000E+000	3.63029E-004	2.40040E-001	9.04648E-001	3.57910E+000	9	...........
	86	1.16	9.08934E-001	4.00170E-004	0.00000E+000	3.63728E-004	2.40040E-001	9.09175E-001	3.57910E+000	9	...........
	87	1.17333	9.13378E-001	4.01508E-004	0.00000E+000	3.66728E-004	2.40040E-001	9.13665E-001	3.57910E+000	9	...........
	88	1.18667	9.17831E-001	4.00519E-004	0.00000E+000	3.67609E-004	2.40040E-001	9.18105E-001	3.57910E+000	9	...........
	89	1.2	9.22282E-001	4.01810E-004	0.00000E+000	3.70582E-004	2.40040E-001	9.22563E-001	3.57910E+000	9	...........
	90	1.21333	9.26659E-001	4.01391E-004	0.00000E+000	3.71953E-004	2.40040E-001	9.26943E-001	3.57910E+000	9	...........
	91	1.22667	9.30949E-001	4.01587E-004	0.00000E+000	3.73857E-004	2.40040E-001	9.31248E-001	3.57910E+000	9	...........
	92	1.24	9.35207E-001	4.01288E-004	0.00000E+000	3.75287E-004	2.40040E-001	9.35507E-001	3.57910E+000	9	...........
	93	1.25333	9.39419E-001	4.01034E-004	0.00000E+000	3.76738E-004	2.40040E-001	9.39721E-001	3.57910E+000	9	...........
	94	1.26667	9.43620E-001	4.00419E-004	0.00000E+000	3.77843E-004	2.40040E-001	9.43939E-001	3.57910E+000	9	...........
	95	1.28	9.47824E-001	4.00184E-004	0.00000E+000	3.79304E-004	2.40040E-001	9.48131E-001	3.57910E+000	9	...........
	96	1.29333	9.51931E-001	3.99859E-004	0.00000E+000	3.80638E-004	2.40040E-001	9.52263E-001	3.57910E+000	9	...........
	97	1.30667	9.56046E-001	4.02046E-004	0.00000E+000	3.84375E-004	2.40040E-001	9.56368E-001	3.57910E+000	9	...........
	98	1.32	9.60119E-001	3.99164E-004	0.00000E+000	3.83245E-004	2.40040E-001	9.60466E-001	3.57910E+000	9	...........
	99	1.33333	9.64170E-001	4.02529E-004	0.00000E+000	3.88106E-004	2.40040E-001	9.64535E-001	3.57910E+000	9	...........
	100	1.34667	9.68163E-001	4.01545E-004	0.00000E+000	3.88761E-004	2.40040E-001	9.68523E-001	3.57910E+000	9	...........
	101	1.36	9.72070E-001	4.01688E-004	0.00000E+000	3.90469E-004	2.40040E-001	9.72424E-001	3.57910E+000	9	...........
	102	1.37333	9.75968E-001	4.01140E-004	0.00000E+000	3.91500E-004	2.40040E-001	9.76287E-001	3.57910E+000	9	...........
	103	1.38667	9.79854E-001	4.00557E-004	0.00000E+000	3.92488E-004	2.40040E-001	9.80174E-001	3.57910E+000	9	...........
	104	1.4	9.83665E-001	4.01167E-004	0.00000E+000	3.94614E-004	2.40040E-001	9.84000E-001	3.57910E+000	9	...........
	105	1.41333	9.87449E-001	4.01991E-004	0.00000E+000	3.96946E-004	2.40040E-001	9.87782E-001	3.57910E+000	9	...........
	106	1.42667	9.91235E-001	4.00742E-004	0.00000E+000	3.97229E-004	2.40040E-001	9.91564E-001	3.57910E+000	9	...........
	107	1.44	9.94905E-001	4.01119E-004	0.00000E+000	3.99075E-004	2.40040E-001	9.95225E-001	3.57910E+000	9	...........
	108	1.45333	9.98547E-001	4.00762E-004	0.00000E+000	4.00179E-004	2.40040E-001	9.98865E-001	3.57910E+000	9	...........
STARTTIMEOFFSET	QUANT	2446.253	Start Time Offset (s)
