EXPLAIN
TAG	PWR800_CHARGE
TITLE	LABEL	PWR Cyclic Charge Discharge (Cell) - Charge Step	Test &Identifier
DATE	LABEL	12-7-2017	Date
TIME	LABEL	14:29:21	Time
NOTES	NOTES	3	&Notes...
	supercap test cell
	0.4mg
	6M KOH
PSTAT	PSTAT	IFC5000-01520	Potentiostat
CAPACITY	QUANT	1.00000E-003	Capacity (A-hr)
CELLTYPE	SELECTOR	1	&Cell Type
WORKINGCONNECTION	SELECTOR	0	&Working Lead
MAXCHARGETIME	VARIABLEANDUNITS	1.00000E+002	s	1.00000E+002	second(s)	Max &Charge Time
CHARGECURRENT	QUANT	4.00000E-004	&Charge Current (A) 
VOLTAGEFINISH	TWOPARAM	F	1.00000E-003	3.60000E+003	&Voltage Finish	 I (A) < 	Max Time(s)
SAMPLETIME	QUANT	1.00000E-002	Sa&mple Period (s)
CHARGESTOPAT1	MULTIPARAM	4	1.00000E+000	Charge Stop At &1	Voltage > Limit	V
CHARGESTOPAT2	MULTIPARAM	0	0.00000E+000	Charge Stop At &2	None	N/A
AESBHCSELECTOR	TOGGLE	F	Save Both Half Cells
IRCOMP	TOGGLE	F	IR &Measure
EOC	QUANT	0	Open Circuit (V)
SEQUENCER	TOGGLE	TRUE	Run as Sequence
PSTATMODEL	IQUANT	53	Pstat Model
PSTATSECTION	LABEL	IFC5000-01520	Pstat Section
PSTATSERIALNO	LABEL	01520	Pstat Serial Number
CTRLMODE	IQUANT	0	Control Mode
ELECTROMETER	IQUANT	1	RE=0 or CS=1
IESTAB	IQUANT	0	I/E Stability
CASPEED	IQUANT	4	Control Amp Speed
CONVENTION	IQUANT	1	Current Convention
ICHRANGE	IQUANT	2	Ich Range
ICHRANGEMODE	TOGGLE	T	Ich Auto Range
ICHOFFSETENABLE	TOGGLE	F	Ich Offset Enable
ICHOFFSET	QUANT	0	Ich Offset (V)
ICHFILTER	IQUANT	1	Ich Filter
VCHRANGE	IQUANT	2	Vch Range
VCHRANGEMODE	TOGGLE	T	Vch Auto Range
VCHOFFSETENABLE	TOGGLE	F	Vch Offset Enable
VCHOFFSET	QUANT	0	Vch Offset (V)
VCHFILTER	IQUANT	1	Vch Filter
IERANGELOWERLIMIT	IQUANT	9	I/E Range Lower Limit
IERANGEMODE	TOGGLE	F	I/E AutoRange
IERANGE	IQUANT	9	I/E Range
ACHSELECT	IQUANT	1	Ach Select
ACHRANGE	IQUANT	2	Ach Range
ACHOFFSETENABLE	TOGGLE	F	Ach Offset Enable
ACHOFFSET	QUANT	0	Ach Offset (V)
ACHFILTER	IQUANT	1	Ach Filter
CABLEID	IQUANT	14	Cable ID
DCCALDATE	LABEL	5-7-2017	DC Calibration Date
ACCALDATE	LABEL	12/3/2015	AC Calibration Date
FRAMEWORKVERSION	QUANT	7.01	Framework Version
INSTRUMENTVERSION	LABEL	4.00	Instrument Version
CURVE	TABLE	135
	Pt	T	Vf	Im	Vu	Pwr	Sig	Ach	Temp	IERange	Over
	#	s	V	A	V	W	V	V	deg C	#	bits
	0	0.013333	3.39669E-001	4.00408E-004	0.00000E+000	1.36006E-004	2.40040E-001	3.39753E-001	3.57590E+000	9	...........
	1	0.026667	3.49898E-001	4.01651E-004	0.00000E+000	1.40537E-004	2.40040E-001	3.49966E-001	3.57607E+000	9	...........
	2	0.04	3.58833E-001	4.01988E-004	0.00000E+000	1.44247E-004	2.40040E-001	3.58900E-001	3.57620E+000	9	...........
	3	0.053333	3.66921E-001	4.00929E-004	0.00000E+000	1.47109E-004	2.40040E-001	3.66995E-001	3.57620E+000	9	...........
	4	0.066667	3.74506E-001	4.01065E-004	0.00000E+000	1.50201E-004	2.40040E-001	3.74581E-001	3.57620E+000	9	...........
	5	0.08	3.81767E-001	4.01687E-004	0.00000E+000	1.53351E-004	2.40040E-001	3.81846E-001	3.57620E+000	9	...........
	6	0.093333	3.88744E-001	4.01458E-004	0.00000E+000	1.56064E-004	2.40040E-001	3.88827E-001	3.57620E+000	9	...........
	7	0.106667	3.95502E-001	4.01489E-004	0.00000E+000	1.58790E-004	2.40040E-001	3.95582E-001	3.57620E+000	9	...........
	8	0.12	4.02057E-001	4.01269E-004	0.00000E+000	1.61333E-004	2.40040E-001	4.02136E-001	3.57620E+000	9	...........
	9	0.133333	4.08485E-001	4.01829E-004	0.00000E+000	1.64141E-004	2.40040E-001	4.08567E-001	3.57620E+000	9	...........
	10	0.146667	4.14854E-001	4.00940E-004	0.00000E+000	1.66332E-004	2.40040E-001	4.14938E-001	3.57620E+000	9	...........
	11	0.16	4.21080E-001	4.01320E-004	0.00000E+000	1.68988E-004	2.40040E-001	4.21167E-001	3.57620E+000	9	...........
	12	0.173333	4.27280E-001	4.02309E-004	0.00000E+000	1.71898E-004	2.40040E-001	4.27362E-001	3.57620E+000	9	...........
	13	0.186667	4.33385E-001	4.01161E-004	0.00000E+000	1.73857E-004	2.40040E-001	4.33473E-001	3.57620E+000	9	...........
	14	0.2	4.39444E-001	4.01595E-004	0.00000E+000	1.76479E-004	2.40040E-001	4.39532E-001	3.57620E+000	9	...........
	15	0.213333	4.45444E-001	4.01691E-004	0.00000E+000	1.78931E-004	2.40040E-001	4.45530E-001	3.57620E+000	9	...........
	16	0.226667	4.51333E-001	4.01848E-004	0.00000E+000	1.81367E-004	2.40040E-001	4.51426E-001	3.57620E+000	9	...........
	17	0.24	4.57144E-001	4.00895E-004	0.00000E+000	1.83267E-004	2.40040E-001	4.57231E-001	3.57620E+000	9	...........
	18	0.253333	4.62929E-001	4.00990E-004	0.00000E+000	1.85630E-004	2.40040E-001	4.63019E-001	3.57620E+000	9	...........
	19	0.266667	4.68685E-001	4.00194E-004	0.00000E+000	1.87565E-004	2.40040E-001	4.68771E-001	3.57620E+000	9	...........
	20	0.28	4.74511E-001	4.01169E-004	0.00000E+000	1.90359E-004	2.40040E-001	4.74597E-001	3.57620E+000	9	...........
	21	0.293333	4.80238E-001	4.01126E-004	0.00000E+000	1.92636E-004	2.40040E-001	4.80330E-001	3.57620E+000	9	...........
	22	0.306667	4.85908E-001	4.00716E-004	0.00000E+000	1.94711E-004	2.40040E-001	4.85998E-001	3.57620E+000	9	...........
	23	0.32	4.91525E-001	4.00207E-004	0.00000E+000	1.96712E-004	2.40040E-001	4.91624E-001	3.57620E+000	9	...........
	24	0.333333	4.97123E-001	4.00891E-004	0.00000E+000	1.99292E-004	2.40040E-001	4.97217E-001	3.57620E+000	9	...........
	25	0.346667	5.02769E-001	4.01392E-004	0.00000E+000	2.01808E-004	2.40040E-001	5.02865E-001	3.57620E+000	9	...........
	26	0.36	5.08288E-001	4.00718E-004	0.00000E+000	2.03680E-004	2.40040E-001	5.08395E-001	3.57620E+000	9	...........
	27	0.373333	5.13790E-001	4.00752E-004	0.00000E+000	2.05903E-004	2.40040E-001	5.13893E-001	3.57620E+000	9	...........
	28	0.386667	5.19316E-001	4.01737E-004	0.00000E+000	2.08628E-004	2.40040E-001	5.19423E-001	3.57620E+000	9	...........
	29	0.4	5.24822E-001	4.01744E-004	0.00000E+000	2.10844E-004	2.40040E-001	5.24923E-001	3.57620E+000	9	...........
	30	0.413333	5.30292E-001	4.00473E-004	0.00000E+000	2.12368E-004	2.40040E-001	5.30397E-001	3.57620E+000	9	...........
	31	0.426667	5.35482E-001	4.00577E-004	0.00000E+000	2.14502E-004	2.40040E-001	5.35675E-001	3.57620E+000	9	...........
	32	0.44	5.40891E-001	4.00903E-004	0.00000E+000	2.16845E-004	2.40040E-001	5.41115E-001	3.57620E+000	9	...........
	33	0.453333	5.46271E-001	3.99917E-004	0.00000E+000	2.18463E-004	2.40040E-001	5.46516E-001	3.57620E+000	9	...........
	34	0.466667	5.51699E-001	4.01761E-004	0.00000E+000	2.21651E-004	2.40040E-001	5.51940E-001	3.57620E+000	9	...........
	35	0.48	5.57061E-001	4.00169E-004	0.00000E+000	2.22918E-004	2.40040E-001	5.57311E-001	3.57620E+000	9	...........
	36	0.493333	5.62451E-001	4.01049E-004	0.00000E+000	2.25570E-004	2.40040E-001	5.62710E-001	3.57620E+000	9	...........
	37	0.506667	5.67824E-001	4.00366E-004	0.00000E+000	2.27337E-004	2.40040E-001	5.68027E-001	3.57620E+000	9	...........
	38	0.52	5.73177E-001	4.02023E-004	0.00000E+000	2.30431E-004	2.40040E-001	5.73377E-001	3.57620E+000	9	...........
	39	0.533333	5.78431E-001	4.00713E-004	0.00000E+000	2.31785E-004	2.40040E-001	5.78645E-001	3.57620E+000	9	...........
	40	0.546667	5.83686E-001	4.00490E-004	0.00000E+000	2.33760E-004	2.40040E-001	5.83912E-001	3.57620E+000	9	...........
	41	0.56	5.88975E-001	3.99945E-004	0.00000E+000	2.35558E-004	2.40040E-001	5.89212E-001	3.57620E+000	9	...........
	42	0.573333	5.94239E-001	4.02208E-004	0.00000E+000	2.39007E-004	2.40040E-001	5.94468E-001	3.57620E+000	9	...........
	43	0.586667	5.99485E-001	4.01759E-004	0.00000E+000	2.40849E-004	2.40040E-001	5.99730E-001	3.57620E+000	9	...........
	44	0.6	6.04712E-001	4.01208E-004	0.00000E+000	2.42615E-004	2.40040E-001	6.04965E-001	3.57620E+000	9	...........
	45	0.613333	6.09896E-001	4.01425E-004	0.00000E+000	2.44828E-004	2.40040E-001	6.10147E-001	3.57620E+000	9	...........
	46	0.626667	6.15109E-001	4.00885E-004	0.00000E+000	2.46588E-004	2.40040E-001	6.15358E-001	3.57620E+000	9	...........
	47	0.64	6.20397E-001	4.01080E-004	0.00000E+000	2.48829E-004	2.40040E-001	6.20613E-001	3.57620E+000	9	...........
	48	0.653333	6.25598E-001	4.00928E-004	0.00000E+000	2.50820E-004	2.40040E-001	6.25811E-001	3.57620E+000	9	...........
	49	0.666667	6.30679E-001	4.00904E-004	0.00000E+000	2.52842E-004	2.40040E-001	6.30911E-001	3.57620E+000	9	...........
	50	0.68	6.35848E-001	4.00322E-004	0.00000E+000	2.54544E-004	2.40040E-001	6.36069E-001	3.57620E+000	9	...........
	51	0.693333	6.41073E-001	4.01425E-004	0.00000E+000	2.57343E-004	2.40040E-001	6.41296E-001	3.57620E+000	9	...........
	52	0.706667	6.46185E-001	4.00449E-004	0.00000E+000	2.58764E-004	2.40040E-001	6.46417E-001	3.57620E+000	9	...........
	53	0.72	6.51363E-001	4.01926E-004	0.00000E+000	2.61800E-004	2.40040E-001	6.51601E-001	3.57620E+000	9	...........
	54	0.733333	6.56504E-001	4.00886E-004	0.00000E+000	2.63183E-004	2.40040E-001	6.56738E-001	3.57620E+000	9	...........
	55	0.746667	6.61571E-001	3.99954E-004	0.00000E+000	2.64598E-004	2.40040E-001	6.61835E-001	3.57620E+000	9	...........
	56	0.76	6.66718E-001	4.01319E-004	0.00000E+000	2.67567E-004	2.40040E-001	6.66952E-001	3.57620E+000	9	...........
	57	0.773333	6.71781E-001	4.00181E-004	0.00000E+000	2.68834E-004	2.40040E-001	6.72038E-001	3.57620E+000	9	...........
	58	0.786667	6.76882E-001	4.01205E-004	0.00000E+000	2.71569E-004	2.40040E-001	6.77093E-001	3.57620E+000	9	...........
	59	0.8	6.81908E-001	4.00413E-004	0.00000E+000	2.73045E-004	2.40040E-001	6.82150E-001	3.57620E+000	9	...........
	60	0.813333	6.86904E-001	4.00979E-004	0.00000E+000	2.75434E-004	2.40040E-001	6.87137E-001	3.57620E+000	9	...........
	61	0.826667	6.91950E-001	4.01717E-004	0.00000E+000	2.77968E-004	2.40040E-001	6.92195E-001	3.57620E+000	9	...........
	62	0.84	6.96959E-001	4.00965E-004	0.00000E+000	2.79456E-004	2.40040E-001	6.97188E-001	3.57620E+000	9	...........
	63	0.853333	7.02011E-001	4.00241E-004	0.00000E+000	2.80973E-004	2.40040E-001	7.02235E-001	3.57620E+000	9	...........
	64	0.866667	7.06986E-001	4.01110E-004	0.00000E+000	2.83579E-004	2.40040E-001	7.07225E-001	3.57620E+000	9	...........
	65	0.88	7.11950E-001	4.02098E-004	0.00000E+000	2.86274E-004	2.40040E-001	7.12170E-001	3.57620E+000	9	...........
	66	0.893333	7.16901E-001	4.01028E-004	0.00000E+000	2.87498E-004	2.40040E-001	7.17133E-001	3.57620E+000	9	...........
	67	0.906667	7.21895E-001	4.01416E-004	0.00000E+000	2.89780E-004	2.40040E-001	7.22104E-001	3.57620E+000	9	...........
	68	0.92	7.26811E-001	4.00844E-004	0.00000E+000	2.91338E-004	2.40040E-001	7.27024E-001	3.57620E+000	9	...........
	69	0.933333	7.31678E-001	3.99840E-004	0.00000E+000	2.92554E-004	2.40040E-001	7.31945E-001	3.57620E+000	9	...........
	70	0.946667	7.36587E-001	4.03222E-004	0.00000E+000	2.97008E-004	2.40040E-001	7.36814E-001	3.57620E+000	9	...........
	71	0.96	7.41450E-001	4.01737E-004	0.00000E+000	2.97868E-004	2.40040E-001	7.41716E-001	3.57620E+000	9	...........
	72	0.97333	7.46362E-001	3.99510E-004	0.00000E+000	2.98179E-004	2.40040E-001	7.46605E-001	3.57620E+000	9	...........
	73	0.98667	7.51182E-001	4.01176E-004	0.00000E+000	3.01356E-004	2.40040E-001	7.51441E-001	3.57620E+000	9	...........
	74	1	7.56057E-001	4.00209E-004	0.00000E+000	3.02581E-004	2.40040E-001	7.56322E-001	3.57620E+000	9	...........
	75	1.01333	7.60861E-001	4.00467E-004	0.00000E+000	3.04700E-004	2.40040E-001	7.61125E-001	3.57620E+000	9	...........
	76	1.02667	7.65646E-001	4.01230E-004	0.00000E+000	3.07200E-004	2.40040E-001	7.65935E-001	3.57626E+000	9	...........
	77	1.04	7.70425E-001	4.00841E-004	0.00000E+000	3.08818E-004	2.40040E-001	7.70696E-001	3.57630E+000	9	...........
	78	1.05333	7.75177E-001	4.02561E-004	0.00000E+000	3.12056E-004	2.40040E-001	7.75461E-001	3.57630E+000	9	...........
	79	1.06667	7.79906E-001	4.00039E-004	0.00000E+000	3.11992E-004	2.40040E-001	7.80196E-001	3.57630E+000	9	...........
	80	1.08	7.84665E-001	4.01154E-004	0.00000E+000	3.14772E-004	2.40040E-001	7.84914E-001	3.57630E+000	9	...........
	81	1.09333	7.89408E-001	4.00967E-004	0.00000E+000	3.16527E-004	2.40040E-001	7.89691E-001	3.57630E+000	9	...........
	82	1.10667	7.94126E-001	4.01967E-004	0.00000E+000	3.19213E-004	2.40040E-001	7.94387E-001	3.57630E+000	9	...........
	83	1.12	7.98797E-001	4.01304E-004	0.00000E+000	3.20561E-004	2.40040E-001	7.99056E-001	3.57630E+000	9	...........
	84	1.13333	8.03370E-001	4.02341E-004	0.00000E+000	3.23229E-004	2.40040E-001	8.03622E-001	3.57630E+000	9	...........
	85	1.14667	8.07939E-001	3.99524E-004	0.00000E+000	3.22791E-004	2.40040E-001	8.08213E-001	3.57630E+000	9	...........
	86	1.16	8.12538E-001	4.02028E-004	0.00000E+000	3.26663E-004	2.40040E-001	8.12798E-001	3.57630E+000	9	...........
	87	1.17333	8.17162E-001	4.01064E-004	0.00000E+000	3.27734E-004	2.40040E-001	8.17431E-001	3.57630E+000	9	...........
	88	1.18667	8.21766E-001	4.01344E-004	0.00000E+000	3.29811E-004	2.40040E-001	8.22058E-001	3.57630E+000	9	...........
	89	1.2	8.26302E-001	4.02604E-004	0.00000E+000	3.32672E-004	2.40040E-001	8.26560E-001	3.57630E+000	9	...........
	90	1.21333	8.30817E-001	4.00614E-004	0.00000E+000	3.32837E-004	2.40040E-001	8.31077E-001	3.57630E+000	9	...........
	91	1.22667	8.35341E-001	4.02570E-004	0.00000E+000	3.36284E-004	2.40040E-001	8.35636E-001	3.57630E+000	9	...........
	92	1.24	8.39791E-001	4.01673E-004	0.00000E+000	3.37321E-004	2.40040E-001	8.40083E-001	3.57630E+000	9	...........
	93	1.25333	8.44185E-001	4.00092E-004	0.00000E+000	3.37751E-004	2.40040E-001	8.44492E-001	3.57630E+000	9	...........
	94	1.26667	8.48605E-001	4.00965E-004	0.00000E+000	3.40261E-004	2.40040E-001	8.48892E-001	3.57630E+000	9	...........
	95	1.28	8.52995E-001	4.02530E-004	0.00000E+000	3.43356E-004	2.40040E-001	8.53291E-001	3.57630E+000	9	...........
	96	1.29333	8.57363E-001	4.01984E-004	0.00000E+000	3.44646E-004	2.40040E-001	8.57662E-001	3.57630E+000	9	...........
	97	1.30667	8.61644E-001	4.01148E-004	0.00000E+000	3.45647E-004	2.40040E-001	8.61973E-001	3.57630E+000	9	...........
	98	1.32	8.65938E-001	4.01549E-004	0.00000E+000	3.47717E-004	2.40040E-001	8.66293E-001	3.57630E+000	9	...........
	99	1.33333	8.70336E-001	4.00013E-004	0.00000E+000	3.48145E-004	2.40040E-001	8.70649E-001	3.57630E+000	9	...........
	100	1.34667	8.74630E-001	4.02114E-004	0.00000E+000	3.51701E-004	2.40040E-001	8.74966E-001	3.57630E+000	9	...........
	101	1.36	8.78848E-001	4.00374E-004	0.00000E+000	3.51868E-004	2.40040E-001	8.79176E-001	3.57630E+000	9	...........
	102	1.37333	8.83057E-001	4.00849E-004	0.00000E+000	3.53972E-004	2.40040E-001	8.83357E-001	3.57630E+000	9	...........
	103	1.38667	8.87217E-001	4.01942E-004	0.00000E+000	3.56610E-004	2.40040E-001	8.87517E-001	3.57630E+000	9	...........
	104	1.4	8.91350E-001	4.01831E-004	0.00000E+000	3.58172E-004	2.40040E-001	8.91652E-001	3.57630E+000	9	...........
	105	1.41333	8.95500E-001	4.02238E-004	0.00000E+000	3.60204E-004	2.40040E-001	8.95800E-001	3.57630E+000	9	...........
	106	1.42667	8.99584E-001	4.00334E-004	0.00000E+000	3.60134E-004	2.40040E-001	8.99903E-001	3.57630E+000	9	...........
	107	1.44	9.03602E-001	4.01940E-004	0.00000E+000	3.63194E-004	2.40040E-001	9.03907E-001	3.57630E+000	9	...........
	108	1.45333	9.07616E-001	4.00614E-004	0.00000E+000	3.63603E-004	2.40040E-001	9.07897E-001	3.57630E+000	9	...........
	109	1.46667	9.11621E-001	4.02532E-004	0.00000E+000	3.66956E-004	2.40040E-001	9.11889E-001	3.57630E+000	9	...........
	110	1.48	9.15586E-001	4.01883E-004	0.00000E+000	3.67958E-004	2.40040E-001	9.15862E-001	3.57630E+000	9	...........
	111	1.49333	9.19525E-001	4.01619E-004	0.00000E+000	3.69299E-004	2.40040E-001	9.19798E-001	3.57630E+000	9	...........
	112	1.50667	9.23517E-001	4.01793E-004	0.00000E+000	3.71063E-004	2.40040E-001	9.23722E-001	3.57630E+000	9	...........
	113	1.52	9.27380E-001	3.99400E-004	0.00000E+000	3.70396E-004	2.40040E-001	9.27630E-001	3.57630E+000	9	...........
	114	1.53333	9.31274E-001	3.99998E-004	0.00000E+000	3.72508E-004	2.40040E-001	9.31514E-001	3.57630E+000	9	...........
	115	1.54667	9.35090E-001	3.99604E-004	0.00000E+000	3.73666E-004	2.40040E-001	9.35333E-001	3.57630E+000	9	...........
	116	1.56	9.38885E-001	4.00126E-004	0.00000E+000	3.75672E-004	2.40040E-001	9.39168E-001	3.57630E+000	9	...........
	117	1.57333	9.42649E-001	4.00316E-004	0.00000E+000	3.77357E-004	2.40040E-001	9.42918E-001	3.57630E+000	9	...........
	118	1.58667	9.46389E-001	4.01634E-004	0.00000E+000	3.80102E-004	2.40040E-001	9.46669E-001	3.57630E+000	9	...........
	119	1.6	9.50091E-001	4.00633E-004	0.00000E+000	3.80638E-004	2.40040E-001	9.50355E-001	3.57630E+000	9	...........
	120	1.61333	9.53710E-001	4.01889E-004	0.00000E+000	3.83286E-004	2.40040E-001	9.54000E-001	3.57630E+000	9	...........
	121	1.62667	9.57349E-001	4.01907E-004	0.00000E+000	3.84765E-004	2.40040E-001	9.57660E-001	3.57630E+000	9	...........
	122	1.64	9.60922E-001	3.99945E-004	0.00000E+000	3.84316E-004	2.40040E-001	9.61254E-001	3.57630E+000	9	...........
	123	1.65333	9.64492E-001	4.02371E-004	0.00000E+000	3.88084E-004	2.40040E-001	9.64809E-001	3.57630E+000	9	...........
	124	1.66667	9.68009E-001	4.00626E-004	0.00000E+000	3.87810E-004	2.40040E-001	9.68330E-001	3.57630E+000	9	...........
	125	1.68	9.71508E-001	4.02039E-004	0.00000E+000	3.90584E-004	2.40040E-001	9.71869E-001	3.57630E+000	9	...........
	126	1.69333	9.75007E-001	4.00653E-004	0.00000E+000	3.90640E-004	2.40040E-001	9.75339E-001	3.57630E+000	9	...........
	127	1.70667	9.78432E-001	4.00646E-004	0.00000E+000	3.92005E-004	2.40040E-001	9.78734E-001	3.57630E+000	9	...........
	128	1.72	9.81768E-001	4.00617E-004	0.00000E+000	3.93313E-004	2.40040E-001	9.82077E-001	3.57630E+000	9	...........
	129	1.73333	9.85083E-001	4.01017E-004	0.00000E+000	3.95035E-004	2.40040E-001	9.85410E-001	3.57630E+000	9	...........
	130	1.74667	9.88363E-001	3.99873E-004	0.00000E+000	3.95220E-004	2.40040E-001	9.88714E-001	3.57630E+000	9	...........
	131	1.76	9.91689E-001	4.01546E-004	0.00000E+000	3.98209E-004	2.40040E-001	9.92015E-001	3.57630E+000	9	...........
	132	1.77333	9.94902E-001	4.02196E-004	0.00000E+000	4.00146E-004	2.40040E-001	9.95240E-001	3.57630E+000	9	...........
	133	1.78667	9.98135E-001	3.99517E-004	0.00000E+000	3.98772E-004	2.40040E-001	9.98464E-001	3.57630E+000	9	...........
	134	1.79	1.00009E+000	4.00586E-004	0.00000E+000	4.00622E-004	2.40040E-001	1.00047E+000	3.57630E+000	9	...........
STARTTIMEOFFSET	QUANT	518.3384	Start Time Offset (s)
