EXPLAIN
TAG	PWR800_CHARGE
TITLE	LABEL	PWR Cyclic Charge Discharge (Cell) - Charge Step	Test &Identifier
DATE	LABEL	12-7-2017	Date
TIME	LABEL	15:02:45	Time
NOTES	NOTES	3	&Notes...
	supercap test cell
	0.4mg
	6M KOH
PSTAT	PSTAT	IFC5000-01520	Potentiostat
CAPACITY	QUANT	1.00000E-003	Capacity (A-hr)
CELLTYPE	SELECTOR	1	&Cell Type
WORKINGCONNECTION	SELECTOR	0	&Working Lead
MAXCHARGETIME	VARIABLEANDUNITS	1.00000E+002	s	1.00000E+002	second(s)	Max &Charge Time
CHARGECURRENT	QUANT	4.00000E-004	&Charge Current (A) 
VOLTAGEFINISH	TWOPARAM	F	1.00000E-003	3.60000E+003	&Voltage Finish	 I (A) < 	Max Time(s)
SAMPLETIME	QUANT	1.00000E-002	Sa&mple Period (s)
CHARGESTOPAT1	MULTIPARAM	4	1.00000E+000	Charge Stop At &1	Voltage > Limit	V
CHARGESTOPAT2	MULTIPARAM	0	0.00000E+000	Charge Stop At &2	None	N/A
AESBHCSELECTOR	TOGGLE	F	Save Both Half Cells
IRCOMP	TOGGLE	F	IR &Measure
EOC	QUANT	0	Open Circuit (V)
SEQUENCER	TOGGLE	TRUE	Run as Sequence
PSTATMODEL	IQUANT	53	Pstat Model
PSTATSECTION	LABEL	IFC5000-01520	Pstat Section
PSTATSERIALNO	LABEL	01520	Pstat Serial Number
CTRLMODE	IQUANT	0	Control Mode
ELECTROMETER	IQUANT	1	RE=0 or CS=1
IESTAB	IQUANT	0	I/E Stability
CASPEED	IQUANT	4	Control Amp Speed
CONVENTION	IQUANT	1	Current Convention
ICHRANGE	IQUANT	2	Ich Range
ICHRANGEMODE	TOGGLE	T	Ich Auto Range
ICHOFFSETENABLE	TOGGLE	F	Ich Offset Enable
ICHOFFSET	QUANT	0	Ich Offset (V)
ICHFILTER	IQUANT	1	Ich Filter
VCHRANGE	IQUANT	2	Vch Range
VCHRANGEMODE	TOGGLE	T	Vch Auto Range
VCHOFFSETENABLE	TOGGLE	F	Vch Offset Enable
VCHOFFSET	QUANT	0	Vch Offset (V)
VCHFILTER	IQUANT	1	Vch Filter
IERANGELOWERLIMIT	IQUANT	9	I/E Range Lower Limit
IERANGEMODE	TOGGLE	F	I/E AutoRange
IERANGE	IQUANT	9	I/E Range
ACHSELECT	IQUANT	1	Ach Select
ACHRANGE	IQUANT	2	Ach Range
ACHOFFSETENABLE	TOGGLE	F	Ach Offset Enable
ACHOFFSET	QUANT	0	Ach Offset (V)
ACHFILTER	IQUANT	1	Ach Filter
CABLEID	IQUANT	14	Cable ID
DCCALDATE	LABEL	5-7-2017	DC Calibration Date
ACCALDATE	LABEL	12/3/2015	AC Calibration Date
FRAMEWORKVERSION	QUANT	7.01	Framework Version
INSTRUMENTVERSION	LABEL	4.00	Instrument Version
CURVE	TABLE	112
	Pt	T	Vf	Im	Vu	Pwr	Sig	Ach	Temp	IERange	Over
	#	s	V	A	V	W	V	V	deg C	#	bits
	0	0.013333	3.76037E-001	4.01167E-004	0.00000E+000	1.50854E-004	2.40040E-001	3.76131E-001	3.57650E+000	9	...........
	1	0.026667	3.88210E-001	4.00987E-004	0.00000E+000	1.55667E-004	2.40040E-001	3.88284E-001	3.57650E+000	9	...........
	2	0.04	3.98688E-001	4.00815E-004	0.00000E+000	1.59800E-004	2.40040E-001	3.98762E-001	3.57650E+000	9	...........
	3	0.053333	4.08211E-001	3.99924E-004	0.00000E+000	1.63253E-004	2.40040E-001	4.08297E-001	3.57650E+000	9	...........
	4	0.066667	4.17116E-001	4.00434E-004	0.00000E+000	1.67028E-004	2.40040E-001	4.17201E-001	3.57650E+000	9	...........
	5	0.08	4.25475E-001	4.00822E-004	0.00000E+000	1.70540E-004	2.40040E-001	4.25568E-001	3.57650E+000	9	...........
	6	0.093333	4.33547E-001	4.01325E-004	0.00000E+000	1.73993E-004	2.40040E-001	4.33633E-001	3.57650E+000	9	...........
	7	0.106667	4.41359E-001	4.00880E-004	0.00000E+000	1.76932E-004	2.40040E-001	4.41452E-001	3.57650E+000	9	...........
	8	0.12	4.48948E-001	4.00276E-004	0.00000E+000	1.79703E-004	2.40040E-001	4.49039E-001	3.57650E+000	9	...........
	9	0.133333	4.56416E-001	4.00081E-004	0.00000E+000	1.82603E-004	2.40040E-001	4.56509E-001	3.57650E+000	9	...........
	10	0.146667	4.63684E-001	4.00935E-004	0.00000E+000	1.85907E-004	2.40040E-001	4.63771E-001	3.57650E+000	9	...........
	11	0.16	4.70761E-001	4.00759E-004	0.00000E+000	1.88662E-004	2.40040E-001	4.70858E-001	3.57650E+000	9	...........
	12	0.173333	4.77738E-001	4.00946E-004	0.00000E+000	1.91547E-004	2.40040E-001	4.77837E-001	3.57687E+000	9	...........
	13	0.186667	4.84649E-001	4.00912E-004	0.00000E+000	1.94301E-004	2.40040E-001	4.84744E-001	3.57700E+000	9	...........
	14	0.2	4.91581E-001	4.01469E-004	0.00000E+000	1.97354E-004	2.40040E-001	4.91678E-001	3.57700E+000	9	...........
	15	0.213333	4.98381E-001	4.00611E-004	0.00000E+000	1.99657E-004	2.40040E-001	4.98488E-001	3.57700E+000	9	...........
	16	0.226667	5.05123E-001	4.00644E-004	0.00000E+000	2.02375E-004	2.40040E-001	5.05225E-001	3.57700E+000	9	...........
	17	0.24	5.11822E-001	4.00627E-004	0.00000E+000	2.05050E-004	2.40040E-001	5.11931E-001	3.57700E+000	9	...........
	18	0.253333	5.18452E-001	4.00531E-004	0.00000E+000	2.07656E-004	2.40040E-001	5.18557E-001	3.57700E+000	9	...........
	19	0.266667	5.24997E-001	4.00123E-004	0.00000E+000	2.10063E-004	2.40040E-001	5.25100E-001	3.57700E+000	9	...........
	20	0.28	5.31441E-001	4.00549E-004	0.00000E+000	2.12868E-004	2.40040E-001	5.31532E-001	3.57700E+000	9	...........
	21	0.293333	5.37590E-001	4.00642E-004	0.00000E+000	2.15381E-004	2.40040E-001	5.37820E-001	3.57700E+000	9	...........
	22	0.306667	5.44037E-001	4.01364E-004	0.00000E+000	2.18357E-004	2.40040E-001	5.44259E-001	3.57700E+000	9	...........
	23	0.32	5.50367E-001	4.01187E-004	0.00000E+000	2.20800E-004	2.40040E-001	5.50600E-001	3.57700E+000	9	...........
	24	0.333333	5.56638E-001	4.00192E-004	0.00000E+000	2.22762E-004	2.40040E-001	5.56871E-001	3.57700E+000	9	...........
	25	0.346667	5.62909E-001	4.00104E-004	0.00000E+000	2.25222E-004	2.40040E-001	5.63160E-001	3.57700E+000	9	...........
	26	0.36	5.69158E-001	4.00939E-004	0.00000E+000	2.28198E-004	2.40040E-001	5.69358E-001	3.57700E+000	9	...........
	27	0.373333	5.75413E-001	4.00847E-004	0.00000E+000	2.30653E-004	2.40040E-001	5.75593E-001	3.57700E+000	9	...........
	28	0.386667	5.81518E-001	4.01056E-004	0.00000E+000	2.33221E-004	2.40040E-001	5.81722E-001	3.57700E+000	9	...........
	29	0.4	5.87711E-001	4.01141E-004	0.00000E+000	2.35755E-004	2.40040E-001	5.87908E-001	3.57700E+000	9	...........
	30	0.413333	5.93856E-001	4.00746E-004	0.00000E+000	2.37985E-004	2.40040E-001	5.94075E-001	3.57700E+000	9	...........
	31	0.426667	5.99914E-001	4.00869E-004	0.00000E+000	2.40487E-004	2.40040E-001	6.00152E-001	3.57700E+000	9	...........
	32	0.44	6.05977E-001	4.01396E-004	0.00000E+000	2.43237E-004	2.40040E-001	6.06231E-001	3.57700E+000	9	...........
	33	0.453333	6.12080E-001	4.01085E-004	0.00000E+000	2.45496E-004	2.40040E-001	6.12328E-001	3.57700E+000	9	...........
	34	0.466667	6.18184E-001	4.00184E-004	0.00000E+000	2.47387E-004	2.40040E-001	6.18373E-001	3.57700E+000	9	...........
	35	0.48	6.24191E-001	4.00943E-004	0.00000E+000	2.50265E-004	2.40040E-001	6.24378E-001	3.57700E+000	9	...........
	36	0.493333	6.30249E-001	4.01823E-004	0.00000E+000	2.53249E-004	2.40040E-001	6.30444E-001	3.57700E+000	9	...........
	37	0.506667	6.36208E-001	4.02284E-004	0.00000E+000	2.55936E-004	2.40040E-001	6.36409E-001	3.57700E+000	9	...........
	38	0.52	6.42151E-001	4.01495E-004	0.00000E+000	2.57821E-004	2.40040E-001	6.42371E-001	3.57700E+000	9	...........
	39	0.533333	6.48107E-001	4.00675E-004	0.00000E+000	2.59680E-004	2.40040E-001	6.48328E-001	3.57700E+000	9	...........
	40	0.546667	6.53996E-001	4.00627E-004	0.00000E+000	2.62008E-004	2.40040E-001	6.54214E-001	3.57700E+000	9	...........
	41	0.56	6.59907E-001	4.00866E-004	0.00000E+000	2.64534E-004	2.40040E-001	6.60109E-001	3.57700E+000	9	...........
	42	0.573333	6.65757E-001	4.01376E-004	0.00000E+000	2.67219E-004	2.40040E-001	6.65992E-001	3.57700E+000	9	...........
	43	0.586667	6.71596E-001	4.01244E-004	0.00000E+000	2.69474E-004	2.40040E-001	6.71797E-001	3.57700E+000	9	...........
	44	0.6	6.77412E-001	4.00512E-004	0.00000E+000	2.71311E-004	2.40040E-001	6.77622E-001	3.57700E+000	9	...........
	45	0.613333	6.83240E-001	4.01328E-004	0.00000E+000	2.74204E-004	2.40040E-001	6.83445E-001	3.57700E+000	9	...........
	46	0.626667	6.89052E-001	4.00516E-004	0.00000E+000	2.75976E-004	2.40040E-001	6.89264E-001	3.57700E+000	9	...........
	47	0.64	6.94883E-001	4.01607E-004	0.00000E+000	2.79070E-004	2.40040E-001	6.95093E-001	3.57700E+000	9	...........
	48	0.653333	7.00613E-001	4.00366E-004	0.00000E+000	2.80501E-004	2.40040E-001	7.00822E-001	3.57700E+000	9	...........
	49	0.666667	7.06289E-001	4.00141E-004	0.00000E+000	2.82615E-004	2.40040E-001	7.06505E-001	3.57700E+000	9	...........
	50	0.68	7.11953E-001	3.99980E-004	0.00000E+000	2.84767E-004	2.40040E-001	7.12178E-001	3.57700E+000	9	...........
	51	0.693333	7.17632E-001	3.98954E-004	0.00000E+000	2.86302E-004	2.40040E-001	7.17854E-001	3.57700E+000	9	...........
	52	0.706667	7.23275E-001	4.00924E-004	0.00000E+000	2.89978E-004	2.40040E-001	7.23511E-001	3.57700E+000	9	...........
	53	0.72	7.28885E-001	4.00482E-004	0.00000E+000	2.91905E-004	2.40040E-001	7.29106E-001	3.57700E+000	9	...........
	54	0.733333	7.34363E-001	4.01461E-004	0.00000E+000	2.94818E-004	2.40040E-001	7.34605E-001	3.57700E+000	9	...........
	55	0.746667	7.39951E-001	4.01045E-004	0.00000E+000	2.96754E-004	2.40040E-001	7.40194E-001	3.57700E+000	9	...........
	56	0.76	7.45526E-001	4.00777E-004	0.00000E+000	2.98790E-004	2.40040E-001	7.45736E-001	3.57700E+000	9	...........
	57	0.773333	7.51109E-001	3.99914E-004	0.00000E+000	3.00379E-004	2.40040E-001	7.51315E-001	3.57700E+000	9	...........
	58	0.786667	7.56631E-001	4.01242E-004	0.00000E+000	3.03592E-004	2.40040E-001	7.56837E-001	3.57700E+000	9	...........
	59	0.8	7.62053E-001	4.00702E-004	0.00000E+000	3.05356E-004	2.40040E-001	7.62309E-001	3.57700E+000	9	...........
	60	0.813333	7.67454E-001	4.00574E-004	0.00000E+000	3.07422E-004	2.40040E-001	7.67716E-001	3.57700E+000	9	...........
	61	0.826667	7.72911E-001	4.00000E-004	0.00000E+000	3.09164E-004	2.40040E-001	7.73169E-001	3.57700E+000	9	...........
	62	0.84	7.78343E-001	3.99976E-004	0.00000E+000	3.11319E-004	2.40040E-001	7.78594E-001	3.57700E+000	9	...........
	63	0.853333	7.83702E-001	4.00155E-004	0.00000E+000	3.13603E-004	2.40040E-001	7.83970E-001	3.57700E+000	9	...........
	64	0.866667	7.89006E-001	4.01395E-004	0.00000E+000	3.16703E-004	2.40040E-001	7.89249E-001	3.57700E+000	9	...........
	65	0.88	7.94310E-001	3.99765E-004	0.00000E+000	3.17537E-004	2.40040E-001	7.94576E-001	3.57700E+000	9	...........
	66	0.893333	7.99592E-001	4.01596E-004	0.00000E+000	3.21113E-004	2.40040E-001	7.99814E-001	3.57700E+000	9	...........
	67	0.906667	8.04815E-001	4.01071E-004	0.00000E+000	3.22788E-004	2.40040E-001	8.05066E-001	3.57700E+000	9	...........
	68	0.92	8.09902E-001	4.01460E-004	0.00000E+000	3.25143E-004	2.40040E-001	8.10165E-001	3.57700E+000	9	...........
	69	0.933333	8.15041E-001	4.00091E-004	0.00000E+000	3.26090E-004	2.40040E-001	8.15307E-001	3.57700E+000	9	...........
	70	0.946667	8.20236E-001	4.01878E-004	0.00000E+000	3.29634E-004	2.40040E-001	8.20507E-001	3.57700E+000	9	...........
	71	0.96	8.25330E-001	4.01329E-004	0.00000E+000	3.31229E-004	2.40040E-001	8.25583E-001	3.57700E+000	9	...........
	72	0.97333	8.30352E-001	4.02097E-004	0.00000E+000	3.33882E-004	2.40040E-001	8.30600E-001	3.57700E+000	9	...........
	73	0.98667	8.35344E-001	4.01924E-004	0.00000E+000	3.35745E-004	2.40040E-001	8.35591E-001	3.57700E+000	9	...........
	74	1	8.40352E-001	4.00088E-004	0.00000E+000	3.36214E-004	2.40040E-001	8.40572E-001	3.57700E+000	9	...........
	75	1.01333	8.45301E-001	4.01005E-004	0.00000E+000	3.38970E-004	2.40040E-001	8.45538E-001	3.57700E+000	9	...........
	76	1.02667	8.50264E-001	4.01935E-004	0.00000E+000	3.41751E-004	2.40040E-001	8.50471E-001	3.57700E+000	9	...........
	77	1.04	8.55147E-001	4.00688E-004	0.00000E+000	3.42647E-004	2.40040E-001	8.55413E-001	3.57700E+000	9	...........
	78	1.05333	8.60004E-001	4.00740E-004	0.00000E+000	3.44638E-004	2.40040E-001	8.60279E-001	3.57700E+000	9	...........
	79	1.06667	8.64767E-001	4.00152E-004	0.00000E+000	3.46038E-004	2.40040E-001	8.65048E-001	3.57700E+000	9	...........
	80	1.08	8.69550E-001	4.00046E-004	0.00000E+000	3.47860E-004	2.40040E-001	8.69818E-001	3.57700E+000	9	...........
	81	1.09333	8.74256E-001	4.00897E-004	0.00000E+000	3.50487E-004	2.40040E-001	8.74569E-001	3.57700E+000	9	...........
	82	1.10667	8.78961E-001	4.01800E-004	0.00000E+000	3.53167E-004	2.40040E-001	8.79263E-001	3.57700E+000	9	...........
	83	1.12	8.83672E-001	4.00528E-004	0.00000E+000	3.53935E-004	2.40040E-001	8.84011E-001	3.57700E+000	9	...........
	84	1.13333	8.88283E-001	3.99969E-004	0.00000E+000	3.55286E-004	2.40040E-001	8.88589E-001	3.57700E+000	9	...........
	85	1.14667	8.92893E-001	4.00987E-004	0.00000E+000	3.58038E-004	2.40040E-001	8.93213E-001	3.57700E+000	9	...........
	86	1.16	8.97506E-001	4.01000E-004	0.00000E+000	3.59900E-004	2.40040E-001	8.97825E-001	3.57700E+000	9	...........
	87	1.17333	9.01987E-001	4.01838E-004	0.00000E+000	3.62453E-004	2.40040E-001	9.02323E-001	3.57722E+000	9	...........
	88	1.18667	9.06455E-001	4.01739E-004	0.00000E+000	3.64158E-004	2.40040E-001	9.06795E-001	3.57730E+000	9	...........
	89	1.2	9.10913E-001	4.01834E-004	0.00000E+000	3.66036E-004	2.40040E-001	9.11224E-001	3.57730E+000	9	...........
	90	1.21333	9.15344E-001	4.00731E-004	0.00000E+000	3.66807E-004	2.40040E-001	9.15645E-001	3.57730E+000	9	...........
	91	1.22667	9.19706E-001	4.00538E-004	0.00000E+000	3.68377E-004	2.40040E-001	9.20000E-001	3.57730E+000	9	...........
	92	1.24	9.24059E-001	4.00338E-004	0.00000E+000	3.69936E-004	2.40040E-001	9.24352E-001	3.57730E+000	9	...........
	93	1.25333	9.28302E-001	4.00719E-004	0.00000E+000	3.71988E-004	2.40040E-001	9.28590E-001	3.57730E+000	9	...........
	94	1.26667	9.32544E-001	4.00950E-004	0.00000E+000	3.73904E-004	2.40040E-001	9.32842E-001	3.57730E+000	9	...........
	95	1.28	9.36754E-001	4.02476E-004	0.00000E+000	3.77021E-004	2.40040E-001	9.37040E-001	3.57730E+000	9	...........
	96	1.29333	9.40960E-001	4.00842E-004	0.00000E+000	3.77176E-004	2.40040E-001	9.41234E-001	3.57730E+000	9	...........
	97	1.30667	9.45102E-001	4.02032E-004	0.00000E+000	3.79961E-004	2.40040E-001	9.45421E-001	3.57730E+000	9	...........
	98	1.32	9.49244E-001	4.01381E-004	0.00000E+000	3.81008E-004	2.40040E-001	9.49544E-001	3.57730E+000	9	...........
	99	1.33333	9.53273E-001	4.01128E-004	0.00000E+000	3.82385E-004	2.40040E-001	9.53581E-001	3.57730E+000	9	...........
	100	1.34667	9.57294E-001	4.00962E-004	0.00000E+000	3.83838E-004	2.40040E-001	9.57606E-001	3.57730E+000	9	...........
	101	1.36	9.61280E-001	4.00608E-004	0.00000E+000	3.85097E-004	2.40040E-001	9.61616E-001	3.57730E+000	9	...........
	102	1.37333	9.65232E-001	4.01516E-004	0.00000E+000	3.87556E-004	2.40040E-001	9.65568E-001	3.57730E+000	9	...........
	103	1.38667	9.69138E-001	4.00969E-004	0.00000E+000	3.88594E-004	2.40040E-001	9.69499E-001	3.57730E+000	9	...........
	104	1.4	9.73037E-001	4.01026E-004	0.00000E+000	3.90214E-004	2.40040E-001	9.73389E-001	3.57730E+000	9	...........
	105	1.41333	9.76886E-001	4.01904E-004	0.00000E+000	3.92614E-004	2.40040E-001	9.77234E-001	3.57730E+000	9	...........
	106	1.42667	9.80678E-001	4.02604E-004	0.00000E+000	3.94824E-004	2.40040E-001	9.81016E-001	3.57730E+000	9	...........
	107	1.44	9.84422E-001	4.01684E-004	0.00000E+000	3.95426E-004	2.40040E-001	9.84771E-001	3.57730E+000	9	...........
	108	1.45333	9.88095E-001	4.00401E-004	0.00000E+000	3.95635E-004	2.40040E-001	9.88455E-001	3.57730E+000	9	...........
	109	1.46667	9.91774E-001	4.00374E-004	0.00000E+000	3.97081E-004	2.40040E-001	9.92115E-001	3.57730E+000	9	...........
	110	1.48	9.95406E-001	4.01128E-004	0.00000E+000	3.99285E-004	2.40040E-001	9.95751E-001	3.57730E+000	9	...........
	111	1.49167	9.98763E-001	4.01392E-004	0.00000E+000	4.00895E-004	2.40040E-001	9.99103E-001	3.57730E+000	9	...........
STARTTIMEOFFSET	QUANT	2102.033	Start Time Offset (s)
