EXPLAIN
TAG	PWR800_CHARGE
TITLE	LABEL	PWR Cyclic Charge Discharge (Cell) - Charge Step	Test &Identifier
DATE	LABEL	12-7-2017	Date
TIME	LABEL	14:48:14	Time
NOTES	NOTES	3	&Notes...
	supercap test cell
	0.4mg
	6M KOH
PSTAT	PSTAT	IFC5000-01520	Potentiostat
CAPACITY	QUANT	1.00000E-003	Capacity (A-hr)
CELLTYPE	SELECTOR	1	&Cell Type
WORKINGCONNECTION	SELECTOR	0	&Working Lead
MAXCHARGETIME	VARIABLEANDUNITS	1.00000E+002	s	1.00000E+002	second(s)	Max &Charge Time
CHARGECURRENT	QUANT	4.00000E-004	&Charge Current (A) 
VOLTAGEFINISH	TWOPARAM	F	1.00000E-003	3.60000E+003	&Voltage Finish	 I (A) < 	Max Time(s)
SAMPLETIME	QUANT	1.00000E-002	Sa&mple Period (s)
CHARGESTOPAT1	MULTIPARAM	4	1.00000E+000	Charge Stop At &1	Voltage > Limit	V
CHARGESTOPAT2	MULTIPARAM	0	0.00000E+000	Charge Stop At &2	None	N/A
AESBHCSELECTOR	TOGGLE	F	Save Both Half Cells
IRCOMP	TOGGLE	F	IR &Measure
EOC	QUANT	0	Open Circuit (V)
SEQUENCER	TOGGLE	TRUE	Run as Sequence
PSTATMODEL	IQUANT	53	Pstat Model
PSTATSECTION	LABEL	IFC5000-01520	Pstat Section
PSTATSERIALNO	LABEL	01520	Pstat Serial Number
CTRLMODE	IQUANT	0	Control Mode
ELECTROMETER	IQUANT	1	RE=0 or CS=1
IESTAB	IQUANT	0	I/E Stability
CASPEED	IQUANT	4	Control Amp Speed
CONVENTION	IQUANT	1	Current Convention
ICHRANGE	IQUANT	2	Ich Range
ICHRANGEMODE	TOGGLE	T	Ich Auto Range
ICHOFFSETENABLE	TOGGLE	F	Ich Offset Enable
ICHOFFSET	QUANT	0	Ich Offset (V)
ICHFILTER	IQUANT	1	Ich Filter
VCHRANGE	IQUANT	2	Vch Range
VCHRANGEMODE	TOGGLE	T	Vch Auto Range
VCHOFFSETENABLE	TOGGLE	F	Vch Offset Enable
VCHOFFSET	QUANT	0	Vch Offset (V)
VCHFILTER	IQUANT	1	Vch Filter
IERANGELOWERLIMIT	IQUANT	9	I/E Range Lower Limit
IERANGEMODE	TOGGLE	F	I/E AutoRange
IERANGE	IQUANT	9	I/E Range
ACHSELECT	IQUANT	1	Ach Select
ACHRANGE	IQUANT	2	Ach Range
ACHOFFSETENABLE	TOGGLE	F	Ach Offset Enable
ACHOFFSET	QUANT	0	Ach Offset (V)
ACHFILTER	IQUANT	1	Ach Filter
CABLEID	IQUANT	14	Cable ID
DCCALDATE	LABEL	5-7-2017	DC Calibration Date
ACCALDATE	LABEL	12/3/2015	AC Calibration Date
FRAMEWORKVERSION	QUANT	7.01	Framework Version
INSTRUMENTVERSION	LABEL	4.00	Instrument Version
CURVE	TABLE	120
	Pt	T	Vf	Im	Vu	Pwr	Sig	Ach	Temp	IERange	Over
	#	s	V	A	V	W	V	V	deg C	#	bits
	0	0.013333	3.63659E-001	3.99949E-004	0.00000E+000	1.45445E-004	2.40040E-001	3.63751E-001	3.57620E+000	9	...........
	1	0.026667	3.75102E-001	4.01482E-004	0.00000E+000	1.50597E-004	2.40040E-001	3.75175E-001	3.57620E+000	9	...........
	2	0.04	3.84807E-001	4.00800E-004	0.00000E+000	1.54231E-004	2.40040E-001	3.84881E-001	3.57620E+000	9	...........
	3	0.053333	3.93756E-001	4.00244E-004	0.00000E+000	1.57598E-004	2.40040E-001	3.93834E-001	3.57620E+000	9	...........
	4	0.066667	4.02135E-001	4.00241E-004	0.00000E+000	1.60951E-004	2.40040E-001	4.02215E-001	3.57620E+000	9	...........
	5	0.08	4.10096E-001	4.00394E-004	0.00000E+000	1.64200E-004	2.40040E-001	4.10176E-001	3.57620E+000	9	...........
	6	0.093333	4.17665E-001	4.01116E-004	0.00000E+000	1.67532E-004	2.40040E-001	4.17751E-001	3.57620E+000	9	...........
	7	0.106667	4.24981E-001	4.00742E-004	0.00000E+000	1.70308E-004	2.40040E-001	4.25063E-001	3.57620E+000	9	...........
	8	0.12	4.32180E-001	4.00695E-004	0.00000E+000	1.73173E-004	2.40040E-001	4.32268E-001	3.57620E+000	9	...........
	9	0.133333	4.39206E-001	3.99848E-004	0.00000E+000	1.75616E-004	2.40040E-001	4.39298E-001	3.57620E+000	9	...........
	10	0.146667	4.46127E-001	4.00950E-004	0.00000E+000	1.78875E-004	2.40040E-001	4.46217E-001	3.57620E+000	9	...........
	11	0.16	4.52993E-001	3.99913E-004	0.00000E+000	1.81157E-004	2.40040E-001	4.53083E-001	3.57620E+000	9	...........
	12	0.173333	4.59758E-001	4.00607E-004	0.00000E+000	1.84182E-004	2.40040E-001	4.59848E-001	3.57620E+000	9	...........
	13	0.186667	4.66406E-001	4.00602E-004	0.00000E+000	1.86843E-004	2.40040E-001	4.66501E-001	3.57620E+000	9	...........
	14	0.2	4.72972E-001	4.00734E-004	0.00000E+000	1.89536E-004	2.40040E-001	4.73063E-001	3.57620E+000	9	...........
	15	0.213333	4.79431E-001	4.00974E-004	0.00000E+000	1.92239E-004	2.40040E-001	4.79520E-001	3.57620E+000	9	...........
	16	0.226667	4.85869E-001	4.00974E-004	0.00000E+000	1.94821E-004	2.40040E-001	4.85954E-001	3.57646E+000	9	...........
	17	0.24	4.92248E-001	4.00811E-004	0.00000E+000	1.97298E-004	2.40040E-001	4.92343E-001	3.57680E+000	9	...........
	18	0.253333	4.98507E-001	4.01221E-004	0.00000E+000	2.00012E-004	2.40040E-001	4.98609E-001	3.57680E+000	9	...........
	19	0.266667	5.04720E-001	4.00611E-004	0.00000E+000	2.02196E-004	2.40040E-001	5.04824E-001	3.57680E+000	9	...........
	20	0.28	5.10921E-001	4.01240E-004	0.00000E+000	2.05002E-004	2.40040E-001	5.11024E-001	3.57680E+000	9	...........
	21	0.293333	5.17106E-001	4.00947E-004	0.00000E+000	2.07332E-004	2.40040E-001	5.17209E-001	3.57680E+000	9	...........
	22	0.306667	5.23223E-001	4.00900E-004	0.00000E+000	2.09760E-004	2.40040E-001	5.23327E-001	3.57680E+000	9	...........
	23	0.32	5.29353E-001	4.01499E-004	0.00000E+000	2.12535E-004	2.40040E-001	5.29457E-001	3.57680E+000	9	...........
	24	0.333333	5.35186E-001	4.01511E-004	0.00000E+000	2.14883E-004	2.40040E-001	5.35351E-001	3.57680E+000	9	...........
	25	0.346667	5.41059E-001	4.02174E-004	0.00000E+000	2.17600E-004	2.40040E-001	5.41277E-001	3.57680E+000	9	...........
	26	0.36	5.46937E-001	4.02781E-004	0.00000E+000	2.20296E-004	2.40040E-001	5.47161E-001	3.57680E+000	9	...........
	27	0.373333	5.52898E-001	4.00671E-004	0.00000E+000	2.21530E-004	2.40040E-001	5.53131E-001	3.57680E+000	9	...........
	28	0.386667	5.58813E-001	4.02150E-004	0.00000E+000	2.24727E-004	2.40040E-001	5.59045E-001	3.57680E+000	9	...........
	29	0.4	5.64744E-001	4.00610E-004	0.00000E+000	2.26242E-004	2.40040E-001	5.64977E-001	3.57680E+000	9	...........
	30	0.413333	5.70686E-001	3.99321E-004	0.00000E+000	2.27887E-004	2.40040E-001	5.70876E-001	3.57680E+000	9	...........
	31	0.426667	5.76575E-001	4.01006E-004	0.00000E+000	2.31210E-004	2.40040E-001	5.76767E-001	3.57680E+000	9	...........
	32	0.44	5.82352E-001	4.00987E-004	0.00000E+000	2.33515E-004	2.40040E-001	5.82552E-001	3.57680E+000	9	...........
	33	0.453333	5.88158E-001	4.00333E-004	0.00000E+000	2.35459E-004	2.40040E-001	5.88396E-001	3.57680E+000	9	...........
	34	0.466667	5.93995E-001	4.01553E-004	0.00000E+000	2.38521E-004	2.40040E-001	5.94192E-001	3.57680E+000	9	...........
	35	0.48	5.99756E-001	4.00725E-004	0.00000E+000	2.40337E-004	2.40040E-001	5.99983E-001	3.57680E+000	9	...........
	36	0.493333	6.05411E-001	4.01320E-004	0.00000E+000	2.42964E-004	2.40040E-001	6.05643E-001	3.57680E+000	9	...........
	37	0.506667	6.11149E-001	4.00366E-004	0.00000E+000	2.44683E-004	2.40040E-001	6.11396E-001	3.57680E+000	9	...........
	38	0.52	6.16947E-001	4.01746E-004	0.00000E+000	2.47856E-004	2.40040E-001	6.17157E-001	3.57680E+000	9	...........
	39	0.533333	6.22607E-001	4.01530E-004	0.00000E+000	2.49995E-004	2.40040E-001	6.22798E-001	3.57680E+000	9	...........
	40	0.546667	6.28251E-001	4.00750E-004	0.00000E+000	2.51772E-004	2.40040E-001	6.28499E-001	3.57680E+000	9	...........
	41	0.56	6.34019E-001	4.00537E-004	0.00000E+000	2.53948E-004	2.40040E-001	6.34271E-001	3.57680E+000	9	...........
	42	0.573333	6.39644E-001	4.00772E-004	0.00000E+000	2.56351E-004	2.40040E-001	6.39907E-001	3.57680E+000	9	...........
	43	0.586667	6.45282E-001	4.02369E-004	0.00000E+000	2.59642E-004	2.40040E-001	6.45537E-001	3.57680E+000	9	...........
	44	0.6	6.50843E-001	4.01707E-004	0.00000E+000	2.61448E-004	2.40040E-001	6.51128E-001	3.57680E+000	9	...........
	45	0.613333	6.56489E-001	4.01247E-004	0.00000E+000	2.63414E-004	2.40040E-001	6.56747E-001	3.57680E+000	9	...........
	46	0.626667	6.62092E-001	4.01471E-004	0.00000E+000	2.65811E-004	2.40040E-001	6.62369E-001	3.57680E+000	9	...........
	47	0.64	6.67702E-001	4.01490E-004	0.00000E+000	2.68076E-004	2.40040E-001	6.67972E-001	3.57680E+000	9	...........
	48	0.653333	6.73241E-001	4.01242E-004	0.00000E+000	2.70133E-004	2.40040E-001	6.73500E-001	3.57680E+000	9	...........
	49	0.666667	6.78677E-001	3.99868E-004	0.00000E+000	2.71381E-004	2.40040E-001	6.78972E-001	3.57680E+000	9	...........
	50	0.68	6.84164E-001	3.99932E-004	0.00000E+000	2.73619E-004	2.40040E-001	6.84434E-001	3.57680E+000	9	...........
	51	0.693333	6.89675E-001	4.00897E-004	0.00000E+000	2.76489E-004	2.40040E-001	6.89937E-001	3.57680E+000	9	...........
	52	0.706667	6.95158E-001	4.02087E-004	0.00000E+000	2.79514E-004	2.40040E-001	6.95413E-001	3.57680E+000	9	...........
	53	0.72	7.00632E-001	4.00986E-004	0.00000E+000	2.80943E-004	2.40040E-001	7.00875E-001	3.57680E+000	9	...........
	54	0.733333	7.05975E-001	4.01343E-004	0.00000E+000	2.83338E-004	2.40040E-001	7.06211E-001	3.57680E+000	9	...........
	55	0.746667	7.11333E-001	4.02075E-004	0.00000E+000	2.86010E-004	2.40040E-001	7.11575E-001	3.57680E+000	9	...........
	56	0.76	7.16834E-001	4.00978E-004	0.00000E+000	2.87435E-004	2.40040E-001	7.17066E-001	3.57680E+000	9	...........
	57	0.773333	7.22266E-001	4.00507E-004	0.00000E+000	2.89273E-004	2.40040E-001	7.22451E-001	3.57680E+000	9	...........
	58	0.786667	7.27614E-001	4.01842E-004	0.00000E+000	2.92386E-004	2.40040E-001	7.27825E-001	3.57680E+000	9	...........
	59	0.8	7.32880E-001	4.01616E-004	0.00000E+000	2.94336E-004	2.40040E-001	7.33129E-001	3.57680E+000	9	...........
	60	0.813333	7.38183E-001	4.00937E-004	0.00000E+000	2.95965E-004	2.40040E-001	7.38405E-001	3.57680E+000	9	...........
	61	0.826667	7.43506E-001	4.01589E-004	0.00000E+000	2.98584E-004	2.40040E-001	7.43728E-001	3.57680E+000	9	...........
	62	0.84	7.48737E-001	4.00529E-004	0.00000E+000	2.99891E-004	2.40040E-001	7.48966E-001	3.57680E+000	9	...........
	63	0.853333	7.54001E-001	4.01585E-004	0.00000E+000	3.02795E-004	2.40040E-001	7.54219E-001	3.57680E+000	9	...........
	64	0.866667	7.59245E-001	4.00833E-004	0.00000E+000	3.04330E-004	2.40040E-001	7.59490E-001	3.57680E+000	9	...........
	65	0.88	7.64519E-001	4.02585E-004	0.00000E+000	3.07784E-004	2.40040E-001	7.64782E-001	3.57680E+000	9	...........
	66	0.893333	7.69761E-001	4.01344E-004	0.00000E+000	3.08939E-004	2.40040E-001	7.70020E-001	3.57680E+000	9	...........
	67	0.906667	7.74873E-001	4.01773E-004	0.00000E+000	3.11323E-004	2.40040E-001	7.75144E-001	3.57680E+000	9	...........
	68	0.92	7.80017E-001	4.00316E-004	0.00000E+000	3.12253E-004	2.40040E-001	7.80291E-001	3.57680E+000	9	...........
	69	0.933333	7.85195E-001	4.00977E-004	0.00000E+000	3.14846E-004	2.40040E-001	7.85457E-001	3.57680E+000	9	...........
	70	0.946667	7.90316E-001	4.00601E-004	0.00000E+000	3.16602E-004	2.40040E-001	7.90605E-001	3.57680E+000	9	...........
	71	0.96	7.95402E-001	4.00444E-004	0.00000E+000	3.18514E-004	2.40040E-001	7.95651E-001	3.57680E+000	9	...........
	72	0.97333	8.00358E-001	4.01314E-004	0.00000E+000	3.21195E-004	2.40040E-001	8.00607E-001	3.57680E+000	9	...........
	73	0.98667	8.05299E-001	3.99304E-004	0.00000E+000	3.21559E-004	2.40040E-001	8.05571E-001	3.57680E+000	9	...........
	74	1	8.10328E-001	4.02057E-004	0.00000E+000	3.25798E-004	2.40040E-001	8.10578E-001	3.57680E+000	9	...........
	75	1.01333	8.15387E-001	4.01407E-004	0.00000E+000	3.27302E-004	2.40040E-001	8.15648E-001	3.57680E+000	9	...........
	76	1.02667	8.20365E-001	4.00160E-004	0.00000E+000	3.28277E-004	2.40040E-001	8.20636E-001	3.57680E+000	9	...........
	77	1.04	8.25254E-001	4.00262E-004	0.00000E+000	3.30317E-004	2.40040E-001	8.25533E-001	3.57680E+000	9	...........
	78	1.05333	8.30081E-001	3.99780E-004	0.00000E+000	3.31850E-004	2.40040E-001	8.30366E-001	3.57680E+000	9	...........
	79	1.06667	8.34911E-001	4.01043E-004	0.00000E+000	3.34835E-004	2.40040E-001	8.35218E-001	3.57680E+000	9	...........
	80	1.08	8.39778E-001	4.00555E-004	0.00000E+000	3.36378E-004	2.40040E-001	8.40061E-001	3.57680E+000	9	...........
	81	1.09333	8.44544E-001	4.00255E-004	0.00000E+000	3.38033E-004	2.40040E-001	8.44851E-001	3.57680E+000	9	...........
	82	1.10667	8.49252E-001	4.01097E-004	0.00000E+000	3.40632E-004	2.40040E-001	8.49566E-001	3.57680E+000	9	...........
	83	1.12	8.53960E-001	4.00577E-004	0.00000E+000	3.42077E-004	2.40040E-001	8.54259E-001	3.57680E+000	9	...........
	84	1.13333	8.58621E-001	4.02318E-004	0.00000E+000	3.45439E-004	2.40040E-001	8.58964E-001	3.57680E+000	9	...........
	85	1.14667	8.63289E-001	4.00820E-004	0.00000E+000	3.46024E-004	2.40040E-001	8.63622E-001	3.57680E+000	9	...........
	86	1.16	8.68000E-001	4.00456E-004	0.00000E+000	3.47596E-004	2.40040E-001	8.68316E-001	3.57680E+000	9	...........
	87	1.17333	8.72650E-001	4.01018E-004	0.00000E+000	3.49948E-004	2.40040E-001	8.72978E-001	3.57680E+000	9	...........
	88	1.18667	8.77214E-001	4.01336E-004	0.00000E+000	3.52057E-004	2.40040E-001	8.77532E-001	3.57680E+000	9	...........
	89	1.2	8.81701E-001	4.01699E-004	0.00000E+000	3.54179E-004	2.40040E-001	8.82011E-001	3.57680E+000	9	...........
	90	1.21333	8.86168E-001	4.01058E-004	0.00000E+000	3.55404E-004	2.40040E-001	8.86473E-001	3.57680E+000	9	...........
	91	1.22667	8.90671E-001	4.01895E-004	0.00000E+000	3.57956E-004	2.40040E-001	8.90970E-001	3.57676E+000	9	...........
	92	1.24	8.95083E-001	3.99694E-004	0.00000E+000	3.57759E-004	2.40040E-001	8.95413E-001	3.57670E+000	9	...........
	93	1.25333	8.99515E-001	4.01035E-004	0.00000E+000	3.60737E-004	2.40040E-001	8.99823E-001	3.57670E+000	9	...........
	94	1.26667	9.03843E-001	4.00859E-004	0.00000E+000	3.62313E-004	2.40040E-001	9.04167E-001	3.57670E+000	9	...........
	95	1.28	9.08172E-001	3.99718E-004	0.00000E+000	3.63012E-004	2.40040E-001	9.08483E-001	3.57670E+000	9	...........
	96	1.29333	9.12442E-001	4.00886E-004	0.00000E+000	3.65785E-004	2.40040E-001	9.12757E-001	3.57670E+000	9	...........
	97	1.30667	9.16730E-001	3.99723E-004	0.00000E+000	3.66438E-004	2.40040E-001	9.17067E-001	3.57670E+000	9	...........
	98	1.32	9.21038E-001	4.00748E-004	0.00000E+000	3.69104E-004	2.40040E-001	9.21332E-001	3.57670E+000	9	...........
	99	1.33333	9.25180E-001	4.00519E-004	0.00000E+000	3.70552E-004	2.40040E-001	9.25470E-001	3.57670E+000	9	...........
	100	1.34667	9.29362E-001	4.00526E-004	0.00000E+000	3.72234E-004	2.40040E-001	9.29622E-001	3.57670E+000	9	...........
	101	1.36	9.33473E-001	4.02084E-004	0.00000E+000	3.75334E-004	2.40040E-001	9.33783E-001	3.57670E+000	9	...........
	102	1.37333	9.37514E-001	4.01569E-004	0.00000E+000	3.76477E-004	2.40040E-001	9.37843E-001	3.57670E+000	9	...........
	103	1.38667	9.41547E-001	4.01015E-004	0.00000E+000	3.77574E-004	2.40040E-001	9.41845E-001	3.57670E+000	9	...........
	104	1.4	9.45556E-001	4.00308E-004	0.00000E+000	3.78514E-004	2.40040E-001	9.45879E-001	3.57670E+000	9	...........
	105	1.41333	9.49625E-001	4.01283E-004	0.00000E+000	3.81068E-004	2.40040E-001	9.49906E-001	3.57670E+000	9	...........
	106	1.42667	9.53568E-001	3.99989E-004	0.00000E+000	3.81416E-004	2.40040E-001	9.53855E-001	3.57670E+000	9	...........
	107	1.44	9.57424E-001	4.00801E-004	0.00000E+000	3.83737E-004	2.40040E-001	9.57736E-001	3.57670E+000	9	...........
	108	1.45333	9.61264E-001	4.00184E-004	0.00000E+000	3.84683E-004	2.40040E-001	9.61560E-001	3.57670E+000	9	...........
	109	1.46667	9.65079E-001	4.01556E-004	0.00000E+000	3.87533E-004	2.40040E-001	9.65415E-001	3.57670E+000	9	...........
	110	1.48	9.68880E-001	4.00396E-004	0.00000E+000	3.87935E-004	2.40040E-001	9.69228E-001	3.57670E+000	9	...........
	111	1.49333	9.72646E-001	4.01416E-004	0.00000E+000	3.90436E-004	2.40040E-001	9.72974E-001	3.57670E+000	9	...........
	112	1.50667	9.76426E-001	4.00766E-004	0.00000E+000	3.91318E-004	2.40040E-001	9.76749E-001	3.57670E+000	9	...........
	113	1.52	9.80175E-001	4.00272E-004	0.00000E+000	3.92337E-004	2.40040E-001	9.80450E-001	3.57670E+000	9	...........
	114	1.53333	9.83805E-001	4.00294E-004	0.00000E+000	3.93811E-004	2.40040E-001	9.84129E-001	3.57670E+000	9	...........
	115	1.54667	9.87411E-001	3.99331E-004	0.00000E+000	3.94304E-004	2.40040E-001	9.87754E-001	3.57670E+000	9	...........
	116	1.56	9.90989E-001	4.01374E-004	0.00000E+000	3.97757E-004	2.40040E-001	9.91306E-001	3.57670E+000	9	...........
	117	1.57333	9.94538E-001	4.00628E-004	0.00000E+000	3.98440E-004	2.40040E-001	9.94882E-001	3.57670E+000	9	...........
	118	1.58667	9.98040E-001	4.00978E-004	0.00000E+000	4.00193E-004	2.40040E-001	9.98401E-001	3.57670E+000	9	...........
	119	1.58833	1.00003E+000	4.01869E-004	0.00000E+000	4.01880E-004	2.40040E-001	1.00040E+000	3.57670E+000	9	...........
STARTTIMEOFFSET	QUANT	1417.659	Start Time Offset (s)
