EXPLAIN
TAG	PWR800_CHARGE
TITLE	LABEL	PWR Cyclic Charge Discharge (Cell) - Charge Step	Test &Identifier
DATE	LABEL	12-7-2017	Date
TIME	LABEL	15:06:44	Time
NOTES	NOTES	3	&Notes...
	supercap test cell
	0.4mg
	6M KOH
PSTAT	PSTAT	IFC5000-01520	Potentiostat
CAPACITY	QUANT	1.00000E-003	Capacity (A-hr)
CELLTYPE	SELECTOR	1	&Cell Type
WORKINGCONNECTION	SELECTOR	0	&Working Lead
MAXCHARGETIME	VARIABLEANDUNITS	1.00000E+002	s	1.00000E+002	second(s)	Max &Charge Time
CHARGECURRENT	QUANT	4.00000E-004	&Charge Current (A) 
VOLTAGEFINISH	TWOPARAM	F	1.00000E-003	3.60000E+003	&Voltage Finish	 I (A) < 	Max Time(s)
SAMPLETIME	QUANT	1.00000E-002	Sa&mple Period (s)
CHARGESTOPAT1	MULTIPARAM	4	1.00000E+000	Charge Stop At &1	Voltage > Limit	V
CHARGESTOPAT2	MULTIPARAM	0	0.00000E+000	Charge Stop At &2	None	N/A
AESBHCSELECTOR	TOGGLE	F	Save Both Half Cells
IRCOMP	TOGGLE	F	IR &Measure
EOC	QUANT	0	Open Circuit (V)
SEQUENCER	TOGGLE	TRUE	Run as Sequence
PSTATMODEL	IQUANT	53	Pstat Model
PSTATSECTION	LABEL	IFC5000-01520	Pstat Section
PSTATSERIALNO	LABEL	01520	Pstat Serial Number
CTRLMODE	IQUANT	0	Control Mode
ELECTROMETER	IQUANT	1	RE=0 or CS=1
IESTAB	IQUANT	0	I/E Stability
CASPEED	IQUANT	4	Control Amp Speed
CONVENTION	IQUANT	1	Current Convention
ICHRANGE	IQUANT	2	Ich Range
ICHRANGEMODE	TOGGLE	T	Ich Auto Range
ICHOFFSETENABLE	TOGGLE	F	Ich Offset Enable
ICHOFFSET	QUANT	0	Ich Offset (V)
ICHFILTER	IQUANT	1	Ich Filter
VCHRANGE	IQUANT	2	Vch Range
VCHRANGEMODE	TOGGLE	T	Vch Auto Range
VCHOFFSETENABLE	TOGGLE	F	Vch Offset Enable
VCHOFFSET	QUANT	0	Vch Offset (V)
VCHFILTER	IQUANT	1	Vch Filter
IERANGELOWERLIMIT	IQUANT	9	I/E Range Lower Limit
IERANGEMODE	TOGGLE	F	I/E AutoRange
IERANGE	IQUANT	9	I/E Range
ACHSELECT	IQUANT	1	Ach Select
ACHRANGE	IQUANT	2	Ach Range
ACHOFFSETENABLE	TOGGLE	F	Ach Offset Enable
ACHOFFSET	QUANT	0	Ach Offset (V)
ACHFILTER	IQUANT	1	Ach Filter
CABLEID	IQUANT	14	Cable ID
DCCALDATE	LABEL	5-7-2017	DC Calibration Date
ACCALDATE	LABEL	12/3/2015	AC Calibration Date
FRAMEWORKVERSION	QUANT	7.01	Framework Version
INSTRUMENTVERSION	LABEL	4.00	Instrument Version
CURVE	TABLE	111
	Pt	T	Vf	Im	Vu	Pwr	Sig	Ach	Temp	IERange	Over
	#	s	V	A	V	W	V	V	deg C	#	bits
	0	0.013333	3.77755E-001	4.02373E-004	0.00000E+000	1.51999E-004	2.40040E-001	3.77851E-001	3.57710E+000	9	...........
	1	0.026667	3.90095E-001	4.01384E-004	0.00000E+000	1.56578E-004	2.40040E-001	3.90169E-001	3.57710E+000	9	...........
	2	0.04	4.00640E-001	4.00326E-004	0.00000E+000	1.60387E-004	2.40040E-001	4.00719E-001	3.57710E+000	9	...........
	3	0.053333	4.10269E-001	3.99810E-004	0.00000E+000	1.64030E-004	2.40040E-001	4.10349E-001	3.57710E+000	9	...........
	4	0.066667	4.19211E-001	4.01423E-004	0.00000E+000	1.68281E-004	2.40040E-001	4.19295E-001	3.57710E+000	9	...........
	5	0.08	4.27671E-001	4.00469E-004	0.00000E+000	1.71269E-004	2.40040E-001	4.27757E-001	3.57710E+000	9	...........
	6	0.093333	4.35819E-001	4.01251E-004	0.00000E+000	1.74873E-004	2.40040E-001	4.35905E-001	3.57710E+000	9	...........
	7	0.106667	4.43716E-001	4.00776E-004	0.00000E+000	1.77831E-004	2.40040E-001	4.43803E-001	3.57710E+000	9	...........
	8	0.12	4.51436E-001	4.00755E-004	0.00000E+000	1.80915E-004	2.40040E-001	4.51521E-001	3.57710E+000	9	...........
	9	0.133333	4.59001E-001	4.01316E-004	0.00000E+000	1.84204E-004	2.40040E-001	4.59090E-001	3.57710E+000	9	...........
	10	0.146667	4.66382E-001	4.00588E-004	0.00000E+000	1.86827E-004	2.40040E-001	4.66476E-001	3.57710E+000	9	...........
	11	0.16	4.73623E-001	4.01351E-004	0.00000E+000	1.90089E-004	2.40040E-001	4.73714E-001	3.57710E+000	9	...........
	12	0.173333	4.80733E-001	4.02434E-004	0.00000E+000	1.93463E-004	2.40040E-001	4.80826E-001	3.57710E+000	9	...........
	13	0.186667	4.87773E-001	4.01288E-004	0.00000E+000	1.95737E-004	2.40040E-001	4.87866E-001	3.57710E+000	9	...........
	14	0.2	4.94776E-001	4.01510E-004	0.00000E+000	1.98657E-004	2.40040E-001	4.94877E-001	3.57710E+000	9	...........
	15	0.213333	5.01615E-001	4.00568E-004	0.00000E+000	2.00931E-004	2.40040E-001	5.01712E-001	3.57710E+000	9	...........
	16	0.226667	5.08335E-001	4.02243E-004	0.00000E+000	2.04474E-004	2.40040E-001	5.08437E-001	3.57710E+000	9	...........
	17	0.24	5.15044E-001	3.99625E-004	0.00000E+000	2.05824E-004	2.40040E-001	5.15142E-001	3.57710E+000	9	...........
	18	0.253333	5.21696E-001	4.00419E-004	0.00000E+000	2.08897E-004	2.40040E-001	5.21799E-001	3.57710E+000	9	...........
	19	0.266667	5.28317E-001	4.01326E-004	0.00000E+000	2.12027E-004	2.40040E-001	5.28425E-001	3.57710E+000	9	...........
	20	0.28	5.34658E-001	4.00137E-004	0.00000E+000	2.13936E-004	2.40040E-001	5.34802E-001	3.57710E+000	9	...........
	21	0.293333	5.41085E-001	4.01392E-004	0.00000E+000	2.17187E-004	2.40040E-001	5.41270E-001	3.57710E+000	9	...........
	22	0.306667	5.47455E-001	4.02094E-004	0.00000E+000	2.20128E-004	2.40040E-001	5.47657E-001	3.57710E+000	9	...........
	23	0.32	5.53834E-001	4.00743E-004	0.00000E+000	2.21945E-004	2.40040E-001	5.54049E-001	3.57710E+000	9	...........
	24	0.333333	5.60176E-001	4.00895E-004	0.00000E+000	2.24572E-004	2.40040E-001	5.60407E-001	3.57710E+000	9	...........
	25	0.346667	5.66523E-001	4.00887E-004	0.00000E+000	2.27112E-004	2.40040E-001	5.66738E-001	3.57710E+000	9	...........
	26	0.36	5.72839E-001	4.00861E-004	0.00000E+000	2.29629E-004	2.40040E-001	5.73027E-001	3.57710E+000	9	...........
	27	0.373333	5.79107E-001	4.01050E-004	0.00000E+000	2.32251E-004	2.40040E-001	5.79345E-001	3.57710E+000	9	...........
	28	0.386667	5.85354E-001	3.99758E-004	0.00000E+000	2.34000E-004	2.40040E-001	5.85580E-001	3.57710E+000	9	...........
	29	0.4	5.91590E-001	4.00608E-004	0.00000E+000	2.36996E-004	2.40040E-001	5.91816E-001	3.57710E+000	9	...........
	30	0.413333	5.97754E-001	4.01253E-004	0.00000E+000	2.39851E-004	2.40040E-001	5.97983E-001	3.57710E+000	9	...........
	31	0.426667	6.03920E-001	4.01192E-004	0.00000E+000	2.42288E-004	2.40040E-001	6.04177E-001	3.57710E+000	9	...........
	32	0.44	6.10091E-001	4.01166E-004	0.00000E+000	2.44748E-004	2.40040E-001	6.10347E-001	3.57710E+000	9	...........
	33	0.453333	6.16188E-001	4.02776E-004	0.00000E+000	2.48185E-004	2.40040E-001	6.16431E-001	3.57710E+000	9	...........
	34	0.466667	6.22276E-001	4.01535E-004	0.00000E+000	2.49866E-004	2.40040E-001	6.22496E-001	3.57710E+000	9	...........
	35	0.48	6.28336E-001	4.00981E-004	0.00000E+000	2.51951E-004	2.40040E-001	6.28584E-001	3.57710E+000	9	...........
	36	0.493333	6.34377E-001	4.02245E-004	0.00000E+000	2.55175E-004	2.40040E-001	6.34618E-001	3.57710E+000	9	...........
	37	0.506667	6.40393E-001	4.00757E-004	0.00000E+000	2.56642E-004	2.40040E-001	6.40642E-001	3.57710E+000	9	...........
	38	0.52	6.46345E-001	4.00481E-004	0.00000E+000	2.58849E-004	2.40040E-001	6.46589E-001	3.57710E+000	9	...........
	39	0.533333	6.52252E-001	4.00711E-004	0.00000E+000	2.61364E-004	2.40040E-001	6.52518E-001	3.57710E+000	9	...........
	40	0.546667	6.58201E-001	4.00987E-004	0.00000E+000	2.63930E-004	2.40040E-001	6.58436E-001	3.57710E+000	9	...........
	41	0.56	6.64121E-001	4.00595E-004	0.00000E+000	2.66043E-004	2.40040E-001	6.64387E-001	3.57710E+000	9	...........
	42	0.573333	6.70078E-001	4.01861E-004	0.00000E+000	2.69278E-004	2.40040E-001	6.70320E-001	3.57710E+000	9	...........
	43	0.586667	6.75980E-001	4.00519E-004	0.00000E+000	2.70743E-004	2.40040E-001	6.76230E-001	3.57710E+000	9	...........
	44	0.6	6.81885E-001	4.02632E-004	0.00000E+000	2.74548E-004	2.40040E-001	6.82128E-001	3.57710E+000	9	...........
	45	0.613333	6.87723E-001	4.01741E-004	0.00000E+000	2.76287E-004	2.40040E-001	6.87954E-001	3.57710E+000	9	...........
	46	0.626667	6.93527E-001	3.99632E-004	0.00000E+000	2.77156E-004	2.40040E-001	6.93770E-001	3.57710E+000	9	...........
	47	0.64	6.99330E-001	4.00301E-004	0.00000E+000	2.79943E-004	2.40040E-001	6.99554E-001	3.57710E+000	9	...........
	48	0.653333	7.05072E-001	4.02190E-004	0.00000E+000	2.83573E-004	2.40040E-001	7.05311E-001	3.57710E+000	9	...........
	49	0.666667	7.10762E-001	4.01707E-004	0.00000E+000	2.85518E-004	2.40040E-001	7.10991E-001	3.57710E+000	9	...........
	50	0.68	7.16477E-001	4.01861E-004	0.00000E+000	2.87924E-004	2.40040E-001	7.16700E-001	3.57710E+000	9	...........
	51	0.693333	7.22235E-001	3.99749E-004	0.00000E+000	2.88713E-004	2.40040E-001	7.22436E-001	3.57710E+000	9	...........
	52	0.706667	7.27933E-001	4.01418E-004	0.00000E+000	2.92205E-004	2.40040E-001	7.28156E-001	3.57710E+000	9	...........
	53	0.72	7.33544E-001	4.01297E-004	0.00000E+000	2.94369E-004	2.40040E-001	7.33766E-001	3.57710E+000	9	...........
	54	0.733333	7.39097E-001	4.01470E-004	0.00000E+000	2.96725E-004	2.40040E-001	7.39339E-001	3.57710E+000	9	...........
	55	0.746667	7.44719E-001	4.01211E-004	0.00000E+000	2.98789E-004	2.40040E-001	7.44958E-001	3.57710E+000	9	...........
	56	0.76	7.50282E-001	4.00649E-004	0.00000E+000	3.00600E-004	2.40040E-001	7.50510E-001	3.57710E+000	9	...........
	57	0.773333	7.55803E-001	4.00636E-004	0.00000E+000	3.02802E-004	2.40040E-001	7.56080E-001	3.57710E+000	9	...........
	58	0.786667	7.61287E-001	4.00806E-004	0.00000E+000	3.05129E-004	2.40040E-001	7.61544E-001	3.57710E+000	9	...........
	59	0.8	7.66800E-001	4.01311E-004	0.00000E+000	3.07725E-004	2.40040E-001	7.67067E-001	3.57710E+000	9	...........
	60	0.813333	7.72309E-001	4.01487E-004	0.00000E+000	3.10072E-004	2.40040E-001	7.72572E-001	3.57710E+000	9	...........
	61	0.826667	7.77721E-001	4.01376E-004	0.00000E+000	3.12159E-004	2.40040E-001	7.78019E-001	3.57710E+000	9	...........
	62	0.84	7.83117E-001	4.01826E-004	0.00000E+000	3.14677E-004	2.40040E-001	7.83390E-001	3.57710E+000	9	...........
	63	0.853333	7.88482E-001	4.01120E-004	0.00000E+000	3.16276E-004	2.40040E-001	7.88762E-001	3.57710E+000	9	...........
	64	0.866667	7.93861E-001	4.00898E-004	0.00000E+000	3.18257E-004	2.40040E-001	7.94119E-001	3.57710E+000	9	...........
	65	0.88	7.99112E-001	4.00382E-004	0.00000E+000	3.19950E-004	2.40040E-001	7.99372E-001	3.57710E+000	9	...........
	66	0.893333	8.04377E-001	4.02410E-004	0.00000E+000	3.23689E-004	2.40040E-001	8.04663E-001	3.57710E+000	9	...........
	67	0.906667	8.09581E-001	4.00860E-004	0.00000E+000	3.24528E-004	2.40040E-001	8.09847E-001	3.57770E+000	9	...........
	68	0.92	8.14703E-001	4.01662E-004	0.00000E+000	3.27235E-004	2.40040E-001	8.14978E-001	3.57770E+000	9	...........
	69	0.933333	8.19857E-001	4.00678E-004	0.00000E+000	3.28499E-004	2.40040E-001	8.20137E-001	3.57770E+000	9	...........
	70	0.946667	8.24969E-001	4.00503E-004	0.00000E+000	3.30403E-004	2.40040E-001	8.25225E-001	3.57770E+000	9	...........
	71	0.96	8.30022E-001	4.00899E-004	0.00000E+000	3.32755E-004	2.40040E-001	8.30272E-001	3.57770E+000	9	...........
	72	0.97333	8.35095E-001	4.00812E-004	0.00000E+000	3.34716E-004	2.40040E-001	8.35373E-001	3.57770E+000	9	...........
	73	0.98667	8.40146E-001	4.01296E-004	0.00000E+000	3.37147E-004	2.40040E-001	8.40401E-001	3.57770E+000	9	...........
	74	1	8.45148E-001	4.00538E-004	0.00000E+000	3.38513E-004	2.40040E-001	8.45436E-001	3.57770E+000	9	...........
	75	1.01333	8.50087E-001	4.01482E-004	0.00000E+000	3.41294E-004	2.40040E-001	8.50336E-001	3.57770E+000	9	...........
	76	1.02667	8.54901E-001	4.01368E-004	0.00000E+000	3.43130E-004	2.40040E-001	8.55182E-001	3.57770E+000	9	...........
	77	1.04	8.59809E-001	4.00090E-004	0.00000E+000	3.44001E-004	2.40040E-001	8.60091E-001	3.57770E+000	9	...........
	78	1.05333	8.64660E-001	4.00599E-004	0.00000E+000	3.46382E-004	2.40040E-001	8.64951E-001	3.57770E+000	9	...........
	79	1.06667	8.69543E-001	4.00690E-004	0.00000E+000	3.48417E-004	2.40040E-001	8.69808E-001	3.57770E+000	9	...........
	80	1.08	8.74343E-001	4.00042E-004	0.00000E+000	3.49774E-004	2.40040E-001	8.74636E-001	3.57770E+000	9	...........
	81	1.09333	8.79186E-001	4.00829E-004	0.00000E+000	3.52404E-004	2.40040E-001	8.79477E-001	3.57770E+000	9	...........
	82	1.10667	8.83888E-001	4.01164E-004	0.00000E+000	3.54584E-004	2.40040E-001	8.84190E-001	3.57770E+000	9	...........
	83	1.12	8.88564E-001	4.02152E-004	0.00000E+000	3.57337E-004	2.40040E-001	8.88857E-001	3.57770E+000	9	...........
	84	1.13333	8.93119E-001	4.00803E-004	0.00000E+000	3.57965E-004	2.40040E-001	8.93444E-001	3.57770E+000	9	...........
	85	1.14667	8.97742E-001	4.00570E-004	0.00000E+000	3.59608E-004	2.40040E-001	8.98062E-001	3.57770E+000	9	...........
	86	1.16	9.02277E-001	4.01871E-004	0.00000E+000	3.62599E-004	2.40040E-001	9.02599E-001	3.57770E+000	9	...........
	87	1.17333	9.06790E-001	4.00992E-004	0.00000E+000	3.63616E-004	2.40040E-001	9.07114E-001	3.57770E+000	9	...........
	88	1.18667	9.11277E-001	4.00080E-004	0.00000E+000	3.64584E-004	2.40040E-001	9.11572E-001	3.57770E+000	9	...........
	89	1.2	9.15740E-001	4.01933E-004	0.00000E+000	3.68066E-004	2.40040E-001	9.16049E-001	3.57770E+000	9	...........
	90	1.21333	9.20110E-001	4.00274E-004	0.00000E+000	3.68296E-004	2.40040E-001	9.20402E-001	3.57770E+000	9	...........
	91	1.22667	9.24512E-001	4.00096E-004	0.00000E+000	3.69893E-004	2.40040E-001	9.24763E-001	3.57770E+000	9	...........
	92	1.24	9.28842E-001	4.02157E-004	0.00000E+000	3.73540E-004	2.40040E-001	9.29109E-001	3.57770E+000	9	...........
	93	1.25333	9.33093E-001	4.01211E-004	0.00000E+000	3.74367E-004	2.40040E-001	9.33377E-001	3.57770E+000	9	...........
	94	1.26667	9.37350E-001	4.01350E-004	0.00000E+000	3.76206E-004	2.40040E-001	9.37642E-001	3.57770E+000	9	...........
	95	1.28	9.41576E-001	4.00590E-004	0.00000E+000	3.77186E-004	2.40040E-001	9.41861E-001	3.57770E+000	9	...........
	96	1.29333	9.45728E-001	4.00883E-004	0.00000E+000	3.79126E-004	2.40040E-001	9.46014E-001	3.57770E+000	9	...........
	97	1.30667	9.49857E-001	4.01450E-004	0.00000E+000	3.81321E-004	2.40040E-001	9.50133E-001	3.57770E+000	9	...........
	98	1.32	9.53885E-001	4.00894E-004	0.00000E+000	3.82407E-004	2.40040E-001	9.54173E-001	3.57770E+000	9	...........
	99	1.33333	9.57933E-001	4.01302E-004	0.00000E+000	3.84421E-004	2.40040E-001	9.58221E-001	3.57770E+000	9	...........
	100	1.34667	9.61966E-001	4.00204E-004	0.00000E+000	3.84983E-004	2.40040E-001	9.62278E-001	3.57770E+000	9	...........
	101	1.36	9.65980E-001	4.00604E-004	0.00000E+000	3.86976E-004	2.40040E-001	9.66275E-001	3.57770E+000	9	...........
	102	1.37333	9.69930E-001	4.00710E-004	0.00000E+000	3.88660E-004	2.40040E-001	9.70271E-001	3.57770E+000	9	...........
	103	1.38667	9.73848E-001	4.01087E-004	0.00000E+000	3.90597E-004	2.40040E-001	9.74147E-001	3.57770E+000	9	...........
	104	1.4	9.77732E-001	4.01302E-004	0.00000E+000	3.92366E-004	2.40040E-001	9.78049E-001	3.57770E+000	9	...........
	105	1.41333	9.81507E-001	3.99957E-004	0.00000E+000	3.92561E-004	2.40040E-001	9.81814E-001	3.57770E+000	9	...........
	106	1.42667	9.85258E-001	4.00579E-004	0.00000E+000	3.94674E-004	2.40040E-001	9.85581E-001	3.57770E+000	9	...........
	107	1.44	9.88949E-001	4.01844E-004	0.00000E+000	3.97404E-004	2.40040E-001	9.89282E-001	3.57770E+000	9	...........
	108	1.45333	9.92641E-001	4.00566E-004	0.00000E+000	3.97618E-004	2.40040E-001	9.92984E-001	3.57770E+000	9	...........
	109	1.46667	9.96336E-001	4.01198E-004	0.00000E+000	3.99728E-004	2.40040E-001	9.96647E-001	3.57770E+000	9	...........
	110	1.475	9.99244E-001	4.01054E-004	0.00000E+000	4.00751E-004	2.40040E-001	9.99553E-001	3.57770E+000	9	...........
STARTTIMEOFFSET	QUANT	2288.2	Start Time Offset (s)
