EXPLAIN
TAG	PWR800_CHARGE
TITLE	LABEL	PWR Cyclic Charge Discharge (Cell) - Charge Step	Test &Identifier
DATE	LABEL	12-7-2017	Date
TIME	LABEL	15:03:15	Time
NOTES	NOTES	3	&Notes...
	supercap test cell
	0.4mg
	6M KOH
PSTAT	PSTAT	IFC5000-01520	Potentiostat
CAPACITY	QUANT	1.00000E-003	Capacity (A-hr)
CELLTYPE	SELECTOR	1	&Cell Type
WORKINGCONNECTION	SELECTOR	0	&Working Lead
MAXCHARGETIME	VARIABLEANDUNITS	1.00000E+002	s	1.00000E+002	second(s)	Max &Charge Time
CHARGECURRENT	QUANT	4.00000E-004	&Charge Current (A) 
VOLTAGEFINISH	TWOPARAM	F	1.00000E-003	3.60000E+003	&Voltage Finish	 I (A) < 	Max Time(s)
SAMPLETIME	QUANT	1.00000E-002	Sa&mple Period (s)
CHARGESTOPAT1	MULTIPARAM	4	1.00000E+000	Charge Stop At &1	Voltage > Limit	V
CHARGESTOPAT2	MULTIPARAM	0	0.00000E+000	Charge Stop At &2	None	N/A
AESBHCSELECTOR	TOGGLE	F	Save Both Half Cells
IRCOMP	TOGGLE	F	IR &Measure
EOC	QUANT	0	Open Circuit (V)
SEQUENCER	TOGGLE	TRUE	Run as Sequence
PSTATMODEL	IQUANT	53	Pstat Model
PSTATSECTION	LABEL	IFC5000-01520	Pstat Section
PSTATSERIALNO	LABEL	01520	Pstat Serial Number
CTRLMODE	IQUANT	0	Control Mode
ELECTROMETER	IQUANT	1	RE=0 or CS=1
IESTAB	IQUANT	0	I/E Stability
CASPEED	IQUANT	4	Control Amp Speed
CONVENTION	IQUANT	1	Current Convention
ICHRANGE	IQUANT	2	Ich Range
ICHRANGEMODE	TOGGLE	T	Ich Auto Range
ICHOFFSETENABLE	TOGGLE	F	Ich Offset Enable
ICHOFFSET	QUANT	0	Ich Offset (V)
ICHFILTER	IQUANT	1	Ich Filter
VCHRANGE	IQUANT	2	Vch Range
VCHRANGEMODE	TOGGLE	T	Vch Auto Range
VCHOFFSETENABLE	TOGGLE	F	Vch Offset Enable
VCHOFFSET	QUANT	0	Vch Offset (V)
VCHFILTER	IQUANT	1	Vch Filter
IERANGELOWERLIMIT	IQUANT	9	I/E Range Lower Limit
IERANGEMODE	TOGGLE	F	I/E AutoRange
IERANGE	IQUANT	9	I/E Range
ACHSELECT	IQUANT	1	Ach Select
ACHRANGE	IQUANT	2	Ach Range
ACHOFFSETENABLE	TOGGLE	F	Ach Offset Enable
ACHOFFSET	QUANT	0	Ach Offset (V)
ACHFILTER	IQUANT	1	Ach Filter
CABLEID	IQUANT	14	Cable ID
DCCALDATE	LABEL	5-7-2017	DC Calibration Date
ACCALDATE	LABEL	12/3/2015	AC Calibration Date
FRAMEWORKVERSION	QUANT	7.01	Framework Version
INSTRUMENTVERSION	LABEL	4.00	Instrument Version
CURVE	TABLE	112
	Pt	T	Vf	Im	Vu	Pwr	Sig	Ach	Temp	IERange	Over
	#	s	V	A	V	W	V	V	deg C	#	bits
	0	0.013333	3.75529E-001	4.00827E-004	0.00000E+000	1.50522E-004	2.40040E-001	3.75617E-001	3.57730E+000	9	...........
	1	0.026667	3.87764E-001	4.00717E-004	0.00000E+000	1.55383E-004	2.40040E-001	3.87839E-001	3.57730E+000	9	...........
	2	0.04	3.98273E-001	4.01362E-004	0.00000E+000	1.59852E-004	2.40040E-001	3.98350E-001	3.57730E+000	9	...........
	3	0.053333	4.07735E-001	4.00257E-004	0.00000E+000	1.63199E-004	2.40040E-001	4.07811E-001	3.57730E+000	9	...........
	4	0.066667	4.16526E-001	4.00532E-004	0.00000E+000	1.66832E-004	2.40040E-001	4.16608E-001	3.57730E+000	9	...........
	5	0.08	4.24865E-001	4.01088E-004	0.00000E+000	1.70408E-004	2.40040E-001	4.24951E-001	3.57730E+000	9	...........
	6	0.093333	4.32901E-001	4.00879E-004	0.00000E+000	1.73541E-004	2.40040E-001	4.32988E-001	3.57730E+000	9	...........
	7	0.106667	4.40667E-001	4.00480E-004	0.00000E+000	1.76478E-004	2.40040E-001	4.40756E-001	3.57730E+000	9	...........
	8	0.12	4.48265E-001	4.00206E-004	0.00000E+000	1.79399E-004	2.40040E-001	4.48353E-001	3.57730E+000	9	...........
	9	0.133333	4.55712E-001	4.01560E-004	0.00000E+000	1.82996E-004	2.40040E-001	4.55802E-001	3.57730E+000	9	...........
	10	0.146667	4.63052E-001	4.00442E-004	0.00000E+000	1.85425E-004	2.40040E-001	4.63148E-001	3.57730E+000	9	...........
	11	0.16	4.70199E-001	4.00132E-004	0.00000E+000	1.88142E-004	2.40040E-001	4.70291E-001	3.57730E+000	9	...........
	12	0.173333	4.77212E-001	4.00563E-004	0.00000E+000	1.91153E-004	2.40040E-001	4.77301E-001	3.57730E+000	9	...........
	13	0.186667	4.84170E-001	4.01527E-004	0.00000E+000	1.94408E-004	2.40040E-001	4.84269E-001	3.57730E+000	9	...........
	14	0.2	4.91040E-001	4.00939E-004	0.00000E+000	1.96877E-004	2.40040E-001	4.91138E-001	3.57730E+000	9	...........
	15	0.213333	4.97868E-001	4.00793E-004	0.00000E+000	1.99542E-004	2.40040E-001	4.97966E-001	3.57730E+000	9	...........
	16	0.226667	5.04633E-001	4.01523E-004	0.00000E+000	2.02622E-004	2.40040E-001	5.04736E-001	3.57730E+000	9	...........
	17	0.24	5.11253E-001	4.01607E-004	0.00000E+000	2.05323E-004	2.40040E-001	5.11358E-001	3.57730E+000	9	...........
	18	0.253333	5.17857E-001	4.01277E-004	0.00000E+000	2.07804E-004	2.40040E-001	5.17962E-001	3.57730E+000	9	...........
	19	0.266667	5.24356E-001	4.00904E-004	0.00000E+000	2.10217E-004	2.40040E-001	5.24469E-001	3.57730E+000	9	...........
	20	0.28	5.30859E-001	4.01147E-004	0.00000E+000	2.12952E-004	2.40040E-001	5.30949E-001	3.57730E+000	9	...........
	21	0.293333	5.36989E-001	4.00536E-004	0.00000E+000	2.15083E-004	2.40040E-001	5.37221E-001	3.57730E+000	9	...........
	22	0.306667	5.43420E-001	4.01292E-004	0.00000E+000	2.18070E-004	2.40040E-001	5.43626E-001	3.57730E+000	9	...........
	23	0.32	5.49762E-001	4.00433E-004	0.00000E+000	2.20143E-004	2.40040E-001	5.50012E-001	3.57730E+000	9	...........
	24	0.333333	5.56063E-001	4.02078E-004	0.00000E+000	2.23581E-004	2.40040E-001	5.56300E-001	3.57730E+000	9	...........
	25	0.346667	5.62438E-001	4.00406E-004	0.00000E+000	2.25204E-004	2.40040E-001	5.62684E-001	3.57730E+000	9	...........
	26	0.36	5.68638E-001	4.00265E-004	0.00000E+000	2.27606E-004	2.40040E-001	5.68872E-001	3.57730E+000	9	...........
	27	0.373333	5.74898E-001	4.00216E-004	0.00000E+000	2.30083E-004	2.40040E-001	5.75147E-001	3.57730E+000	9	...........
	28	0.386667	5.81122E-001	4.00674E-004	0.00000E+000	2.32841E-004	2.40040E-001	5.81352E-001	3.57730E+000	9	...........
	29	0.4	5.87275E-001	4.02174E-004	0.00000E+000	2.36187E-004	2.40040E-001	5.87526E-001	3.57730E+000	9	...........
	30	0.413333	5.93478E-001	4.01860E-004	0.00000E+000	2.38495E-004	2.40040E-001	5.93726E-001	3.57730E+000	9	...........
	31	0.426667	5.99574E-001	4.01281E-004	0.00000E+000	2.40597E-004	2.40040E-001	5.99807E-001	3.57730E+000	9	...........
	32	0.44	6.05668E-001	4.01468E-004	0.00000E+000	2.43156E-004	2.40040E-001	6.05883E-001	3.57730E+000	9	...........
	33	0.453333	6.11622E-001	3.99999E-004	0.00000E+000	2.44648E-004	2.40040E-001	6.11839E-001	3.57730E+000	9	...........
	34	0.466667	6.17735E-001	4.01859E-004	0.00000E+000	2.48242E-004	2.40040E-001	6.17938E-001	3.57730E+000	9	...........
	35	0.48	6.23771E-001	4.00708E-004	0.00000E+000	2.49950E-004	2.40040E-001	6.23954E-001	3.57730E+000	9	...........
	36	0.493333	6.29778E-001	4.01321E-004	0.00000E+000	2.52743E-004	2.40040E-001	6.29989E-001	3.57730E+000	9	...........
	37	0.506667	6.35749E-001	4.00423E-004	0.00000E+000	2.54568E-004	2.40040E-001	6.35969E-001	3.57730E+000	9	...........
	38	0.52	6.41739E-001	4.01315E-004	0.00000E+000	2.57539E-004	2.40040E-001	6.41954E-001	3.57730E+000	9	...........
	39	0.533333	6.47690E-001	3.99973E-004	0.00000E+000	2.59058E-004	2.40040E-001	6.47922E-001	3.57730E+000	9	...........
	40	0.546667	6.53547E-001	4.00314E-004	0.00000E+000	2.61624E-004	2.40040E-001	6.53788E-001	3.57730E+000	9	...........
	41	0.56	6.59455E-001	4.00782E-004	0.00000E+000	2.64298E-004	2.40040E-001	6.59682E-001	3.57730E+000	9	...........
	42	0.573333	6.65374E-001	4.00447E-004	0.00000E+000	2.66447E-004	2.40040E-001	6.65622E-001	3.57730E+000	9	...........
	43	0.586667	6.71248E-001	3.99720E-004	0.00000E+000	2.68311E-004	2.40040E-001	6.71475E-001	3.57730E+000	9	...........
	44	0.6	6.77114E-001	4.00668E-004	0.00000E+000	2.71298E-004	2.40040E-001	6.77359E-001	3.57730E+000	9	...........
	45	0.613333	6.82954E-001	4.01662E-004	0.00000E+000	2.74316E-004	2.40040E-001	6.83189E-001	3.57730E+000	9	...........
	46	0.626667	6.88742E-001	4.00986E-004	0.00000E+000	2.76176E-004	2.40040E-001	6.88978E-001	3.57730E+000	9	...........
	47	0.64	6.94494E-001	4.00589E-004	0.00000E+000	2.78207E-004	2.40040E-001	6.94723E-001	3.57730E+000	9	...........
	48	0.653333	7.00208E-001	4.01769E-004	0.00000E+000	2.81322E-004	2.40040E-001	7.00455E-001	3.57730E+000	9	...........
	49	0.666667	7.05942E-001	4.02075E-004	0.00000E+000	2.83842E-004	2.40040E-001	7.06196E-001	3.57730E+000	9	...........
	50	0.68	7.11608E-001	4.00540E-004	0.00000E+000	2.85027E-004	2.40040E-001	7.11864E-001	3.57730E+000	9	...........
	51	0.693333	7.17328E-001	4.00540E-004	0.00000E+000	2.87318E-004	2.40040E-001	7.17575E-001	3.57730E+000	9	...........
	52	0.706667	7.22982E-001	4.01556E-004	0.00000E+000	2.90318E-004	2.40040E-001	7.23209E-001	3.57730E+000	9	...........
	53	0.72	7.28571E-001	3.99717E-004	0.00000E+000	2.91222E-004	2.40040E-001	7.28806E-001	3.57735E+000	9	...........
	54	0.733333	7.34225E-001	4.00307E-004	0.00000E+000	2.93916E-004	2.40040E-001	7.34463E-001	3.57770E+000	9	...........
	55	0.746667	7.39796E-001	4.01357E-004	0.00000E+000	2.96922E-004	2.40040E-001	7.40039E-001	3.57770E+000	9	...........
	56	0.76	7.45343E-001	4.01051E-004	0.00000E+000	2.98921E-004	2.40040E-001	7.45578E-001	3.57770E+000	9	...........
	57	0.773333	7.50940E-001	4.00529E-004	0.00000E+000	3.00774E-004	2.40040E-001	7.51169E-001	3.57770E+000	9	...........
	58	0.786667	7.56487E-001	4.00326E-004	0.00000E+000	3.02842E-004	2.40040E-001	7.56746E-001	3.57770E+000	9	...........
	59	0.8	7.61987E-001	4.01853E-004	0.00000E+000	3.06206E-004	2.40040E-001	7.62205E-001	3.57770E+000	9	...........
	60	0.813333	7.67440E-001	4.02028E-004	0.00000E+000	3.08532E-004	2.40040E-001	7.67731E-001	3.57770E+000	9	...........
	61	0.826667	7.72891E-001	4.00976E-004	0.00000E+000	3.09911E-004	2.40040E-001	7.73155E-001	3.57770E+000	9	...........
	62	0.84	7.78249E-001	4.01103E-004	0.00000E+000	3.12158E-004	2.40040E-001	7.78514E-001	3.57770E+000	9	...........
	63	0.853333	7.83645E-001	4.00732E-004	0.00000E+000	3.14032E-004	2.40040E-001	7.83932E-001	3.57770E+000	9	...........
	64	0.866667	7.88949E-001	4.00313E-004	0.00000E+000	3.15826E-004	2.40040E-001	7.89239E-001	3.57770E+000	9	...........
	65	0.88	7.94272E-001	4.01442E-004	0.00000E+000	3.18854E-004	2.40040E-001	7.94540E-001	3.57770E+000	9	...........
	66	0.893333	7.99523E-001	4.01123E-004	0.00000E+000	3.20707E-004	2.40040E-001	7.99778E-001	3.57770E+000	9	...........
	67	0.906667	8.04725E-001	4.00253E-004	0.00000E+000	3.22094E-004	2.40040E-001	8.04983E-001	3.57770E+000	9	...........
	68	0.92	8.09887E-001	4.00996E-004	0.00000E+000	3.24761E-004	2.40040E-001	8.10165E-001	3.57770E+000	9	...........
	69	0.933333	8.15129E-001	4.01095E-004	0.00000E+000	3.26944E-004	2.40040E-001	8.15402E-001	3.57770E+000	9	...........
	70	0.946667	8.20272E-001	4.01984E-004	0.00000E+000	3.29736E-004	2.40040E-001	8.20543E-001	3.57770E+000	9	...........
	71	0.96	8.25319E-001	4.01110E-004	0.00000E+000	3.31043E-004	2.40040E-001	8.25603E-001	3.57770E+000	9	...........
	72	0.97333	8.30336E-001	4.00511E-004	0.00000E+000	3.32558E-004	2.40040E-001	8.30610E-001	3.57770E+000	9	...........
	73	0.98667	8.35358E-001	4.01366E-004	0.00000E+000	3.35284E-004	2.40040E-001	8.35623E-001	3.57770E+000	9	...........
	74	1	8.40322E-001	4.00248E-004	0.00000E+000	3.36337E-004	2.40040E-001	8.40598E-001	3.57770E+000	9	...........
	75	1.01333	8.45325E-001	4.00207E-004	0.00000E+000	3.38305E-004	2.40040E-001	8.45602E-001	3.57770E+000	9	...........
	76	1.02667	8.50292E-001	4.00796E-004	0.00000E+000	3.40794E-004	2.40040E-001	8.50562E-001	3.57770E+000	9	...........
	77	1.04	8.55164E-001	4.00776E-004	0.00000E+000	3.42729E-004	2.40040E-001	8.55416E-001	3.57770E+000	9	...........
	78	1.05333	8.60005E-001	3.99608E-004	0.00000E+000	3.43665E-004	2.40040E-001	8.60284E-001	3.57770E+000	9	...........
	79	1.06667	8.64882E-001	4.01518E-004	0.00000E+000	3.47266E-004	2.40040E-001	8.65144E-001	3.57770E+000	9	...........
	80	1.08	8.69708E-001	4.01345E-004	0.00000E+000	3.49053E-004	2.40040E-001	8.69964E-001	3.57770E+000	9	...........
	81	1.09333	8.74476E-001	4.01324E-004	0.00000E+000	3.50948E-004	2.40040E-001	8.74758E-001	3.57770E+000	9	...........
	82	1.10667	8.79160E-001	4.00344E-004	0.00000E+000	3.51966E-004	2.40040E-001	8.79442E-001	3.57770E+000	9	...........
	83	1.12	8.83848E-001	4.00812E-004	0.00000E+000	3.54257E-004	2.40040E-001	8.84156E-001	3.57770E+000	9	...........
	84	1.13333	8.88474E-001	4.00615E-004	0.00000E+000	3.55936E-004	2.40040E-001	8.88774E-001	3.57770E+000	9	...........
	85	1.14667	8.93098E-001	4.00761E-004	0.00000E+000	3.57918E-004	2.40040E-001	8.93402E-001	3.57770E+000	9	...........
	86	1.16	8.97677E-001	4.01260E-004	0.00000E+000	3.60202E-004	2.40040E-001	8.98003E-001	3.57770E+000	9	...........
	87	1.17333	9.02157E-001	4.01865E-004	0.00000E+000	3.62545E-004	2.40040E-001	9.02484E-001	3.57770E+000	9	...........
	88	1.18667	9.06648E-001	4.00687E-004	0.00000E+000	3.63282E-004	2.40040E-001	9.06965E-001	3.57770E+000	9	...........
	89	1.2	9.11091E-001	4.00630E-004	0.00000E+000	3.65011E-004	2.40040E-001	9.11389E-001	3.57770E+000	9	...........
	90	1.21333	9.15509E-001	4.00500E-004	0.00000E+000	3.66661E-004	2.40040E-001	9.15844E-001	3.57770E+000	9	...........
	91	1.22667	9.19870E-001	4.01289E-004	0.00000E+000	3.69134E-004	2.40040E-001	9.20187E-001	3.57770E+000	9	...........
	92	1.24	9.24218E-001	4.01242E-004	0.00000E+000	3.70835E-004	2.40040E-001	9.24510E-001	3.57770E+000	9	...........
	93	1.25333	9.28497E-001	4.00395E-004	0.00000E+000	3.71765E-004	2.40040E-001	9.28788E-001	3.57770E+000	9	...........
	94	1.26667	9.32747E-001	4.01404E-004	0.00000E+000	3.74409E-004	2.40040E-001	9.33049E-001	3.57770E+000	9	...........
	95	1.28	9.36994E-001	4.00612E-004	0.00000E+000	3.75371E-004	2.40040E-001	9.37323E-001	3.57770E+000	9	...........
	96	1.29333	9.41217E-001	4.01459E-004	0.00000E+000	3.77860E-004	2.40040E-001	9.41530E-001	3.57770E+000	9	...........
	97	1.30667	9.45373E-001	4.01662E-004	0.00000E+000	3.79720E-004	2.40040E-001	9.45723E-001	3.57770E+000	9	...........
	98	1.32	9.49501E-001	4.00132E-004	0.00000E+000	3.79926E-004	2.40040E-001	9.49816E-001	3.57770E+000	9	...........
	99	1.33333	9.53568E-001	4.00596E-004	0.00000E+000	3.81995E-004	2.40040E-001	9.53884E-001	3.57770E+000	9	...........
	100	1.34667	9.57579E-001	4.00826E-004	0.00000E+000	3.83823E-004	2.40040E-001	9.57895E-001	3.57770E+000	9	...........
	101	1.36	9.61541E-001	4.01415E-004	0.00000E+000	3.85977E-004	2.40040E-001	9.61899E-001	3.57770E+000	9	...........
	102	1.37333	9.65531E-001	4.00084E-004	0.00000E+000	3.86294E-004	2.40040E-001	9.65875E-001	3.57770E+000	9	...........
	103	1.38667	9.69422E-001	4.01369E-004	0.00000E+000	3.89096E-004	2.40040E-001	9.69783E-001	3.57770E+000	9	...........
	104	1.4	9.73314E-001	4.00255E-004	0.00000E+000	3.89574E-004	2.40040E-001	9.73648E-001	3.57770E+000	9	...........
	105	1.41333	9.77120E-001	4.02215E-004	0.00000E+000	3.93012E-004	2.40040E-001	9.77438E-001	3.57770E+000	9	...........
	106	1.42667	9.80896E-001	4.01930E-004	0.00000E+000	3.94251E-004	2.40040E-001	9.81220E-001	3.57770E+000	9	...........
	107	1.44	9.84655E-001	4.01096E-004	0.00000E+000	3.94941E-004	2.40040E-001	9.85000E-001	3.57770E+000	9	...........
	108	1.45333	9.88365E-001	4.01364E-004	0.00000E+000	3.96694E-004	2.40040E-001	9.88725E-001	3.57770E+000	9	...........
	109	1.46667	9.92064E-001	4.00132E-004	0.00000E+000	3.96957E-004	2.40040E-001	9.92385E-001	3.57770E+000	9	...........
	110	1.48	9.95697E-001	4.00098E-004	0.00000E+000	3.98376E-004	2.40040E-001	9.96051E-001	3.57770E+000	9	...........
	111	1.49167	9.99073E-001	4.01777E-004	0.00000E+000	4.01405E-004	2.40040E-001	9.99415E-001	3.57770E+000	9	...........
STARTTIMEOFFSET	QUANT	2125.416	Start Time Offset (s)
