EXPLAIN
TAG	PWR800_CHARGE
TITLE	LABEL	PWR Cyclic Charge Discharge (Cell) - Charge Step	Test &Identifier
DATE	LABEL	12-7-2017	Date
TIME	LABEL	14:44:39	Time
NOTES	NOTES	3	&Notes...
	supercap test cell
	0.4mg
	6M KOH
PSTAT	PSTAT	IFC5000-01520	Potentiostat
CAPACITY	QUANT	1.00000E-003	Capacity (A-hr)
CELLTYPE	SELECTOR	1	&Cell Type
WORKINGCONNECTION	SELECTOR	0	&Working Lead
MAXCHARGETIME	VARIABLEANDUNITS	1.00000E+002	s	1.00000E+002	second(s)	Max &Charge Time
CHARGECURRENT	QUANT	4.00000E-004	&Charge Current (A) 
VOLTAGEFINISH	TWOPARAM	F	1.00000E-003	3.60000E+003	&Voltage Finish	 I (A) < 	Max Time(s)
SAMPLETIME	QUANT	1.00000E-002	Sa&mple Period (s)
CHARGESTOPAT1	MULTIPARAM	4	1.00000E+000	Charge Stop At &1	Voltage > Limit	V
CHARGESTOPAT2	MULTIPARAM	0	0.00000E+000	Charge Stop At &2	None	N/A
AESBHCSELECTOR	TOGGLE	F	Save Both Half Cells
IRCOMP	TOGGLE	F	IR &Measure
EOC	QUANT	0	Open Circuit (V)
SEQUENCER	TOGGLE	TRUE	Run as Sequence
PSTATMODEL	IQUANT	53	Pstat Model
PSTATSECTION	LABEL	IFC5000-01520	Pstat Section
PSTATSERIALNO	LABEL	01520	Pstat Serial Number
CTRLMODE	IQUANT	0	Control Mode
ELECTROMETER	IQUANT	1	RE=0 or CS=1
IESTAB	IQUANT	0	I/E Stability
CASPEED	IQUANT	4	Control Amp Speed
CONVENTION	IQUANT	1	Current Convention
ICHRANGE	IQUANT	2	Ich Range
ICHRANGEMODE	TOGGLE	T	Ich Auto Range
ICHOFFSETENABLE	TOGGLE	F	Ich Offset Enable
ICHOFFSET	QUANT	0	Ich Offset (V)
ICHFILTER	IQUANT	1	Ich Filter
VCHRANGE	IQUANT	2	Vch Range
VCHRANGEMODE	TOGGLE	T	Vch Auto Range
VCHOFFSETENABLE	TOGGLE	F	Vch Offset Enable
VCHOFFSET	QUANT	0	Vch Offset (V)
VCHFILTER	IQUANT	1	Vch Filter
IERANGELOWERLIMIT	IQUANT	9	I/E Range Lower Limit
IERANGEMODE	TOGGLE	F	I/E AutoRange
IERANGE	IQUANT	9	I/E Range
ACHSELECT	IQUANT	1	Ach Select
ACHRANGE	IQUANT	2	Ach Range
ACHOFFSETENABLE	TOGGLE	F	Ach Offset Enable
ACHOFFSET	QUANT	0	Ach Offset (V)
ACHFILTER	IQUANT	1	Ach Filter
CABLEID	IQUANT	14	Cable ID
DCCALDATE	LABEL	5-7-2017	DC Calibration Date
ACCALDATE	LABEL	12/3/2015	AC Calibration Date
FRAMEWORKVERSION	QUANT	7.01	Framework Version
INSTRUMENTVERSION	LABEL	4.00	Instrument Version
CURVE	TABLE	122
	Pt	T	Vf	Im	Vu	Pwr	Sig	Ach	Temp	IERange	Over
	#	s	V	A	V	W	V	V	deg C	#	bits
	0	0.013333	3.58483E-001	4.01368E-004	0.00000E+000	1.43884E-004	2.40040E-001	3.58579E-001	3.57620E+000	9	...........
	1	0.026667	3.69714E-001	4.00912E-004	0.00000E+000	1.48223E-004	2.40040E-001	3.69792E-001	3.57620E+000	9	...........
	2	0.04	3.79415E-001	4.00762E-004	0.00000E+000	1.52055E-004	2.40040E-001	3.79497E-001	3.57620E+000	9	...........
	3	0.053333	3.88176E-001	4.01707E-004	0.00000E+000	1.55933E-004	2.40040E-001	3.88247E-001	3.57620E+000	9	...........
	4	0.066667	3.96484E-001	4.01090E-004	0.00000E+000	1.59026E-004	2.40040E-001	3.96560E-001	3.57620E+000	9	...........
	5	0.08	4.04264E-001	4.01233E-004	0.00000E+000	1.62204E-004	2.40040E-001	4.04341E-001	3.57620E+000	9	...........
	6	0.093333	4.11768E-001	3.99835E-004	0.00000E+000	1.64639E-004	2.40040E-001	4.11855E-001	3.57620E+000	9	...........
	7	0.106667	4.19036E-001	4.00743E-004	0.00000E+000	1.67926E-004	2.40040E-001	4.19120E-001	3.57620E+000	9	...........
	8	0.12	4.26104E-001	4.01477E-004	0.00000E+000	1.71071E-004	2.40040E-001	4.26191E-001	3.57620E+000	9	...........
	9	0.133333	4.33091E-001	4.01009E-004	0.00000E+000	1.73673E-004	2.40040E-001	4.33185E-001	3.57620E+000	9	...........
	10	0.146667	4.40007E-001	4.01568E-004	0.00000E+000	1.76693E-004	2.40040E-001	4.40097E-001	3.57620E+000	9	...........
	11	0.16	4.46753E-001	4.00558E-004	0.00000E+000	1.78951E-004	2.40040E-001	4.46847E-001	3.57620E+000	9	...........
	12	0.173333	4.53357E-001	4.01437E-004	0.00000E+000	1.81994E-004	2.40040E-001	4.53446E-001	3.57633E+000	9	...........
	13	0.186667	4.59931E-001	4.01003E-004	0.00000E+000	1.84434E-004	2.40040E-001	4.60022E-001	3.57640E+000	9	...........
	14	0.2	4.66468E-001	4.01368E-004	0.00000E+000	1.87225E-004	2.40040E-001	4.66555E-001	3.57640E+000	9	...........
	15	0.213333	4.72843E-001	4.01117E-004	0.00000E+000	1.89665E-004	2.40040E-001	4.72936E-001	3.57640E+000	9	...........
	16	0.226667	4.79159E-001	4.01020E-004	0.00000E+000	1.92152E-004	2.40040E-001	4.79254E-001	3.57640E+000	9	...........
	17	0.24	4.85421E-001	4.02765E-004	0.00000E+000	1.95511E-004	2.40040E-001	4.85520E-001	3.57640E+000	9	...........
	18	0.253333	4.91647E-001	4.00909E-004	0.00000E+000	1.97106E-004	2.40040E-001	4.91740E-001	3.57640E+000	9	...........
	19	0.266667	4.97881E-001	4.00596E-004	0.00000E+000	1.99449E-004	2.40040E-001	4.97980E-001	3.57640E+000	9	...........
	20	0.28	5.04099E-001	3.99847E-004	0.00000E+000	2.01562E-004	2.40040E-001	5.04205E-001	3.57640E+000	9	...........
	21	0.293333	5.10128E-001	4.01626E-004	0.00000E+000	2.04881E-004	2.40040E-001	5.10233E-001	3.57640E+000	9	...........
	22	0.306667	5.16149E-001	4.00424E-004	0.00000E+000	2.06679E-004	2.40040E-001	5.16256E-001	3.57640E+000	9	...........
	23	0.32	5.22141E-001	4.00192E-004	0.00000E+000	2.08956E-004	2.40040E-001	5.22247E-001	3.57640E+000	9	...........
	24	0.333333	5.28146E-001	4.01644E-004	0.00000E+000	2.12127E-004	2.40040E-001	5.28252E-001	3.57640E+000	9	...........
	25	0.346667	5.34008E-001	4.01003E-004	0.00000E+000	2.14139E-004	2.40040E-001	5.34162E-001	3.57640E+000	9	...........
	26	0.36	5.39828E-001	4.00103E-004	0.00000E+000	2.15987E-004	2.40040E-001	5.40062E-001	3.57640E+000	9	...........
	27	0.373333	5.45718E-001	4.01159E-004	0.00000E+000	2.18919E-004	2.40040E-001	5.45955E-001	3.57640E+000	9	...........
	28	0.386667	5.51548E-001	4.02012E-004	0.00000E+000	2.21729E-004	2.40040E-001	5.51811E-001	3.57640E+000	9	...........
	29	0.4	5.57349E-001	4.01000E-004	0.00000E+000	2.23497E-004	2.40040E-001	5.57629E-001	3.57640E+000	9	...........
	30	0.413333	5.63165E-001	4.01544E-004	0.00000E+000	2.26135E-004	2.40040E-001	5.63411E-001	3.57640E+000	9	...........
	31	0.426667	5.68969E-001	4.00603E-004	0.00000E+000	2.27931E-004	2.40040E-001	5.69168E-001	3.57640E+000	9	...........
	32	0.44	5.74755E-001	4.02304E-004	0.00000E+000	2.31226E-004	2.40040E-001	5.74981E-001	3.57640E+000	9	...........
	33	0.453333	5.80440E-001	4.01382E-004	0.00000E+000	2.32978E-004	2.40040E-001	5.80690E-001	3.57640E+000	9	...........
	34	0.466667	5.86139E-001	4.01864E-004	0.00000E+000	2.35548E-004	2.40040E-001	5.86372E-001	3.57640E+000	9	...........
	35	0.48	5.91915E-001	4.00303E-004	0.00000E+000	2.36946E-004	2.40040E-001	5.92162E-001	3.57640E+000	9	...........
	36	0.493333	5.97591E-001	4.00555E-004	0.00000E+000	2.39368E-004	2.40040E-001	5.97842E-001	3.57640E+000	9	...........
	37	0.506667	6.03282E-001	4.01142E-004	0.00000E+000	2.42002E-004	2.40040E-001	6.03542E-001	3.57640E+000	9	...........
	38	0.52	6.08863E-001	4.00604E-004	0.00000E+000	2.43913E-004	2.40040E-001	6.09153E-001	3.57640E+000	9	...........
	39	0.533333	6.14604E-001	4.00679E-004	0.00000E+000	2.46259E-004	2.40040E-001	6.14867E-001	3.57640E+000	9	...........
	40	0.546667	6.20311E-001	4.01213E-004	0.00000E+000	2.48877E-004	2.40040E-001	6.20511E-001	3.57640E+000	9	...........
	41	0.56	6.25960E-001	4.00188E-004	0.00000E+000	2.50502E-004	2.40040E-001	6.26192E-001	3.57640E+000	9	...........
	42	0.573333	6.31521E-001	3.99938E-004	0.00000E+000	2.52569E-004	2.40040E-001	6.31751E-001	3.57640E+000	9	...........
	43	0.586667	6.37206E-001	4.01089E-004	0.00000E+000	2.55576E-004	2.40040E-001	6.37431E-001	3.57640E+000	9	...........
	44	0.6	6.42776E-001	3.99678E-004	0.00000E+000	2.56904E-004	2.40040E-001	6.43012E-001	3.57640E+000	9	...........
	45	0.613333	6.48309E-001	4.02166E-004	0.00000E+000	2.60728E-004	2.40040E-001	6.48511E-001	3.57640E+000	9	...........
	46	0.626667	6.53837E-001	4.00849E-004	0.00000E+000	2.62090E-004	2.40040E-001	6.54054E-001	3.57640E+000	9	...........
	47	0.64	6.59353E-001	4.01073E-004	0.00000E+000	2.64449E-004	2.40040E-001	6.59574E-001	3.57640E+000	9	...........
	48	0.653333	6.64857E-001	4.00283E-004	0.00000E+000	2.66131E-004	2.40040E-001	6.65070E-001	3.57640E+000	9	...........
	49	0.666667	6.70342E-001	3.99786E-004	0.00000E+000	2.67994E-004	2.40040E-001	6.70545E-001	3.57640E+000	9	...........
	50	0.68	6.75806E-001	4.00886E-004	0.00000E+000	2.70921E-004	2.40040E-001	6.76014E-001	3.57640E+000	9	...........
	51	0.693333	6.81266E-001	4.02973E-004	0.00000E+000	2.74531E-004	2.40040E-001	6.81462E-001	3.57640E+000	9	...........
	52	0.706667	6.86629E-001	3.99968E-004	0.00000E+000	2.74629E-004	2.40040E-001	6.86839E-001	3.57640E+000	9	...........
	53	0.72	6.92076E-001	4.00852E-004	0.00000E+000	2.77420E-004	2.40040E-001	6.92288E-001	3.57640E+000	9	...........
	54	0.733333	6.97468E-001	4.00617E-004	0.00000E+000	2.79417E-004	2.40040E-001	6.97707E-001	3.57640E+000	9	...........
	55	0.746667	7.02810E-001	4.01130E-004	0.00000E+000	2.81918E-004	2.40040E-001	7.03035E-001	3.57640E+000	9	...........
	56	0.76	7.08172E-001	4.00606E-004	0.00000E+000	2.83698E-004	2.40040E-001	7.08435E-001	3.57640E+000	9	...........
	57	0.773333	7.13568E-001	4.02388E-004	0.00000E+000	2.87131E-004	2.40040E-001	7.13809E-001	3.57640E+000	9	...........
	58	0.786667	7.18990E-001	4.00945E-004	0.00000E+000	2.88275E-004	2.40040E-001	7.19198E-001	3.57640E+000	9	...........
	59	0.8	7.24363E-001	4.01415E-004	0.00000E+000	2.90770E-004	2.40040E-001	7.24564E-001	3.57640E+000	9	...........
	60	0.813333	7.29619E-001	3.99966E-004	0.00000E+000	2.91822E-004	2.40040E-001	7.29861E-001	3.57640E+000	9	...........
	61	0.826667	7.34908E-001	4.01142E-004	0.00000E+000	2.94802E-004	2.40040E-001	7.35149E-001	3.57640E+000	9	...........
	62	0.84	7.40174E-001	4.02204E-004	0.00000E+000	2.97701E-004	2.40040E-001	7.40418E-001	3.57640E+000	9	...........
	63	0.853333	7.45411E-001	4.00483E-004	0.00000E+000	2.98525E-004	2.40040E-001	7.45659E-001	3.57640E+000	9	...........
	64	0.866667	7.50603E-001	4.01607E-004	0.00000E+000	3.01447E-004	2.40040E-001	7.50840E-001	3.57640E+000	9	...........
	65	0.88	7.55763E-001	4.00761E-004	0.00000E+000	3.02880E-004	2.40040E-001	7.56016E-001	3.57640E+000	9	...........
	66	0.893333	7.60913E-001	4.01250E-004	0.00000E+000	3.05316E-004	2.40040E-001	7.61155E-001	3.57640E+000	9	...........
	67	0.906667	7.66122E-001	4.01861E-004	0.00000E+000	3.07874E-004	2.40040E-001	7.66377E-001	3.57640E+000	9	...........
	68	0.92	7.71280E-001	4.00666E-004	0.00000E+000	3.09026E-004	2.40040E-001	7.71532E-001	3.57640E+000	9	...........
	69	0.933333	7.76337E-001	4.01512E-004	0.00000E+000	3.11708E-004	2.40040E-001	7.76570E-001	3.57640E+000	9	...........
	70	0.946667	7.81390E-001	4.02326E-004	0.00000E+000	3.14373E-004	2.40040E-001	7.81626E-001	3.57640E+000	9	...........
	71	0.96	7.86447E-001	4.01042E-004	0.00000E+000	3.15398E-004	2.40040E-001	7.86647E-001	3.57640E+000	9	...........
	72	0.97333	7.91494E-001	4.00773E-004	0.00000E+000	3.17209E-004	2.40040E-001	7.91701E-001	3.57640E+000	9	...........
	73	0.98667	7.96546E-001	4.00386E-004	0.00000E+000	3.18925E-004	2.40040E-001	7.96776E-001	3.57640E+000	9	...........
	74	1	8.01548E-001	4.01614E-004	0.00000E+000	3.21913E-004	2.40040E-001	8.01756E-001	3.57640E+000	9	...........
	75	1.01333	8.06483E-001	4.00788E-004	0.00000E+000	3.23229E-004	2.40040E-001	8.06727E-001	3.57640E+000	9	...........
	76	1.02667	8.11388E-001	4.01129E-004	0.00000E+000	3.25471E-004	2.40040E-001	8.11667E-001	3.57640E+000	9	...........
	77	1.04	8.16296E-001	4.00903E-004	0.00000E+000	3.27256E-004	2.40040E-001	8.16598E-001	3.57640E+000	9	...........
	78	1.05333	8.21207E-001	4.01379E-004	0.00000E+000	3.29616E-004	2.40040E-001	8.21472E-001	3.57640E+000	9	...........
	79	1.06667	8.26049E-001	3.99898E-004	0.00000E+000	3.30335E-004	2.40040E-001	8.26311E-001	3.57640E+000	9	...........
	80	1.08	8.30854E-001	4.01732E-004	0.00000E+000	3.33780E-004	2.40040E-001	8.31120E-001	3.57640E+000	9	...........
	81	1.09333	8.35644E-001	3.99890E-004	0.00000E+000	3.34165E-004	2.40040E-001	8.35947E-001	3.57640E+000	9	...........
	82	1.10667	8.40383E-001	4.00181E-004	0.00000E+000	3.36306E-004	2.40040E-001	8.40687E-001	3.57640E+000	9	...........
	83	1.12	8.45052E-001	4.01695E-004	0.00000E+000	3.39453E-004	2.40040E-001	8.45352E-001	3.57640E+000	9	...........
	84	1.13333	8.49766E-001	4.00680E-004	0.00000E+000	3.40484E-004	2.40040E-001	8.50058E-001	3.57640E+000	9	...........
	85	1.14667	8.54465E-001	4.01121E-004	0.00000E+000	3.42744E-004	2.40040E-001	8.54766E-001	3.57640E+000	9	...........
	86	1.16	8.59173E-001	4.00535E-004	0.00000E+000	3.44128E-004	2.40040E-001	8.59466E-001	3.57640E+000	9	...........
	87	1.17333	8.63766E-001	4.00205E-004	0.00000E+000	3.45684E-004	2.40040E-001	8.64079E-001	3.57653E+000	9	...........
	88	1.18667	8.68395E-001	4.01367E-004	0.00000E+000	3.48545E-004	2.40040E-001	8.68717E-001	3.57660E+000	9	...........
	89	1.2	8.72912E-001	4.00227E-004	0.00000E+000	3.49363E-004	2.40040E-001	8.73217E-001	3.57660E+000	9	...........
	90	1.21333	8.77486E-001	4.00849E-004	0.00000E+000	3.51739E-004	2.40040E-001	8.77792E-001	3.57660E+000	9	...........
	91	1.22667	8.81977E-001	4.00146E-004	0.00000E+000	3.52920E-004	2.40040E-001	8.82298E-001	3.57660E+000	9	...........
	92	1.24	8.86445E-001	4.01068E-004	0.00000E+000	3.55525E-004	2.40040E-001	8.86757E-001	3.57660E+000	9	...........
	93	1.25333	8.90866E-001	4.00521E-004	0.00000E+000	3.56810E-004	2.40040E-001	8.91172E-001	3.57660E+000	9	...........
	94	1.26667	8.95262E-001	4.01474E-004	0.00000E+000	3.59425E-004	2.40040E-001	8.95588E-001	3.57660E+000	9	...........
	95	1.28	8.99623E-001	4.03096E-004	0.00000E+000	3.62635E-004	2.40040E-001	8.99944E-001	3.57660E+000	9	...........
	96	1.29333	9.03972E-001	4.01632E-004	0.00000E+000	3.63064E-004	2.40040E-001	9.04310E-001	3.57660E+000	9	...........
	97	1.30667	9.08203E-001	4.00141E-004	0.00000E+000	3.63409E-004	2.40040E-001	9.08520E-001	3.57660E+000	9	...........
	98	1.32	9.12485E-001	4.01016E-004	0.00000E+000	3.65921E-004	2.40040E-001	9.12785E-001	3.57660E+000	9	...........
	99	1.33333	9.16726E-001	4.00188E-004	0.00000E+000	3.66863E-004	2.40040E-001	9.17060E-001	3.57660E+000	9	...........
	100	1.34667	9.20967E-001	4.00894E-004	0.00000E+000	3.69210E-004	2.40040E-001	9.21243E-001	3.57660E+000	9	...........
	101	1.36	9.25106E-001	4.00356E-004	0.00000E+000	3.70372E-004	2.40040E-001	9.25392E-001	3.57660E+000	9	...........
	102	1.37333	9.29266E-001	4.00309E-004	0.00000E+000	3.71994E-004	2.40040E-001	9.29524E-001	3.57660E+000	9	...........
	103	1.38667	9.33349E-001	4.00987E-004	0.00000E+000	3.74261E-004	2.40040E-001	9.33619E-001	3.57660E+000	9	...........
	104	1.4	9.37367E-001	4.00030E-004	0.00000E+000	3.74975E-004	2.40040E-001	9.37681E-001	3.57660E+000	9	...........
	105	1.41333	9.41347E-001	4.01447E-004	0.00000E+000	3.77901E-004	2.40040E-001	9.41650E-001	3.57660E+000	9	...........
	106	1.42667	9.45342E-001	4.01115E-004	0.00000E+000	3.79191E-004	2.40040E-001	9.45626E-001	3.57660E+000	9	...........
	107	1.44	9.49337E-001	4.00908E-004	0.00000E+000	3.80596E-004	2.40040E-001	9.49621E-001	3.57660E+000	9	...........
	108	1.45333	9.53255E-001	4.00298E-004	0.00000E+000	3.81586E-004	2.40040E-001	9.53548E-001	3.57660E+000	9	...........
	109	1.46667	9.57089E-001	3.99638E-004	0.00000E+000	3.82490E-004	2.40040E-001	9.57388E-001	3.57660E+000	9	...........
	110	1.48	9.60950E-001	4.01120E-004	0.00000E+000	3.85456E-004	2.40040E-001	9.61274E-001	3.57660E+000	9	...........
	111	1.49333	9.64755E-001	4.01617E-004	0.00000E+000	3.87462E-004	2.40040E-001	9.65083E-001	3.57660E+000	9	...........
	112	1.50667	9.68516E-001	4.02323E-004	0.00000E+000	3.89657E-004	2.40040E-001	9.68848E-001	3.57660E+000	9	...........
	113	1.52	9.72266E-001	4.02542E-004	0.00000E+000	3.91378E-004	2.40040E-001	9.72605E-001	3.57660E+000	9	...........
	114	1.53333	9.75945E-001	4.00344E-004	0.00000E+000	3.90713E-004	2.40040E-001	9.76280E-001	3.57660E+000	9	...........
	115	1.54667	9.79603E-001	4.01135E-004	0.00000E+000	3.92953E-004	2.40040E-001	9.79921E-001	3.57660E+000	9	...........
	116	1.56	9.83180E-001	4.00884E-004	0.00000E+000	3.94141E-004	2.40040E-001	9.83471E-001	3.57660E+000	9	...........
	117	1.57333	9.86756E-001	4.00797E-004	0.00000E+000	3.95489E-004	2.40040E-001	9.87079E-001	3.57660E+000	9	...........
	118	1.58667	9.90301E-001	4.01404E-004	0.00000E+000	3.97511E-004	2.40040E-001	9.90634E-001	3.57660E+000	9	...........
	119	1.6	9.93828E-001	4.00997E-004	0.00000E+000	3.98522E-004	2.40040E-001	9.94154E-001	3.57660E+000	9	...........
	120	1.61333	9.97346E-001	4.01179E-004	0.00000E+000	4.00115E-004	2.40040E-001	9.97670E-001	3.57660E+000	9	...........
	121	1.61833	9.99733E-001	4.01700E-004	0.00000E+000	4.01592E-004	2.40040E-001	1.00006E+000	3.57660E+000	9	...........
STARTTIMEOFFSET	QUANT	1248.442	Start Time Offset (s)
