EXPLAIN
TAG	PWR800_CHARGE
TITLE	LABEL	PWR Cyclic Charge Discharge (Cell) - Charge Step	Test &Identifier
DATE	LABEL	12-7-2017	Date
TIME	LABEL	15:08:35	Time
NOTES	NOTES	3	&Notes...
	supercap test cell
	0.4mg
	6M KOH
PSTAT	PSTAT	IFC5000-01520	Potentiostat
CAPACITY	QUANT	1.00000E-003	Capacity (A-hr)
CELLTYPE	SELECTOR	1	&Cell Type
WORKINGCONNECTION	SELECTOR	0	&Working Lead
MAXCHARGETIME	VARIABLEANDUNITS	1.00000E+002	s	1.00000E+002	second(s)	Max &Charge Time
CHARGECURRENT	QUANT	4.00000E-004	&Charge Current (A) 
VOLTAGEFINISH	TWOPARAM	F	1.00000E-003	3.60000E+003	&Voltage Finish	 I (A) < 	Max Time(s)
SAMPLETIME	QUANT	1.00000E-002	Sa&mple Period (s)
CHARGESTOPAT1	MULTIPARAM	4	1.00000E+000	Charge Stop At &1	Voltage > Limit	V
CHARGESTOPAT2	MULTIPARAM	0	0.00000E+000	Charge Stop At &2	None	N/A
AESBHCSELECTOR	TOGGLE	F	Save Both Half Cells
IRCOMP	TOGGLE	F	IR &Measure
EOC	QUANT	0	Open Circuit (V)
SEQUENCER	TOGGLE	TRUE	Run as Sequence
PSTATMODEL	IQUANT	53	Pstat Model
PSTATSECTION	LABEL	IFC5000-01520	Pstat Section
PSTATSERIALNO	LABEL	01520	Pstat Serial Number
CTRLMODE	IQUANT	0	Control Mode
ELECTROMETER	IQUANT	1	RE=0 or CS=1
IESTAB	IQUANT	0	I/E Stability
CASPEED	IQUANT	4	Control Amp Speed
CONVENTION	IQUANT	1	Current Convention
ICHRANGE	IQUANT	2	Ich Range
ICHRANGEMODE	TOGGLE	T	Ich Auto Range
ICHOFFSETENABLE	TOGGLE	F	Ich Offset Enable
ICHOFFSET	QUANT	0	Ich Offset (V)
ICHFILTER	IQUANT	1	Ich Filter
VCHRANGE	IQUANT	2	Vch Range
VCHRANGEMODE	TOGGLE	T	Vch Auto Range
VCHOFFSETENABLE	TOGGLE	F	Vch Offset Enable
VCHOFFSET	QUANT	0	Vch Offset (V)
VCHFILTER	IQUANT	1	Vch Filter
IERANGELOWERLIMIT	IQUANT	9	I/E Range Lower Limit
IERANGEMODE	TOGGLE	F	I/E AutoRange
IERANGE	IQUANT	9	I/E Range
ACHSELECT	IQUANT	1	Ach Select
ACHRANGE	IQUANT	2	Ach Range
ACHOFFSETENABLE	TOGGLE	F	Ach Offset Enable
ACHOFFSET	QUANT	0	Ach Offset (V)
ACHFILTER	IQUANT	1	Ach Filter
CABLEID	IQUANT	14	Cable ID
DCCALDATE	LABEL	5-7-2017	DC Calibration Date
ACCALDATE	LABEL	12/3/2015	AC Calibration Date
FRAMEWORKVERSION	QUANT	7.01	Framework Version
INSTRUMENTVERSION	LABEL	4.00	Instrument Version
CURVE	TABLE	110
	Pt	T	Vf	Im	Vu	Pwr	Sig	Ach	Temp	IERange	Over
	#	s	V	A	V	W	V	V	deg C	#	bits
	0	0.013333	3.80366E-001	4.00801E-004	0.00000E+000	1.52451E-004	2.40040E-001	3.80449E-001	3.57670E+000	9	...........
	1	0.026667	3.92808E-001	4.01655E-004	0.00000E+000	1.57773E-004	2.40040E-001	3.92881E-001	3.57670E+000	9	...........
	2	0.04	4.03479E-001	4.00376E-004	0.00000E+000	1.61544E-004	2.40040E-001	4.03554E-001	3.57670E+000	9	...........
	3	0.053333	4.13053E-001	4.01309E-004	0.00000E+000	1.65762E-004	2.40040E-001	4.13140E-001	3.57670E+000	9	...........
	4	0.066667	4.22008E-001	4.01176E-004	0.00000E+000	1.69300E-004	2.40040E-001	4.22089E-001	3.57670E+000	9	...........
	5	0.08	4.30505E-001	4.01091E-004	0.00000E+000	1.72672E-004	2.40040E-001	4.30593E-001	3.57670E+000	9	...........
	6	0.093333	4.38697E-001	4.01551E-004	0.00000E+000	1.76159E-004	2.40040E-001	4.38784E-001	3.57670E+000	9	...........
	7	0.106667	4.46670E-001	4.01039E-004	0.00000E+000	1.79132E-004	2.40040E-001	4.46762E-001	3.57670E+000	9	...........
	8	0.12	4.54382E-001	4.01402E-004	0.00000E+000	1.82390E-004	2.40040E-001	4.54475E-001	3.57670E+000	9	...........
	9	0.133333	4.61883E-001	4.02466E-004	0.00000E+000	1.85892E-004	2.40040E-001	4.61979E-001	3.57670E+000	9	...........
	10	0.146667	4.69320E-001	4.01011E-004	0.00000E+000	1.88203E-004	2.40040E-001	4.69411E-001	3.57670E+000	9	...........
	11	0.16	4.76598E-001	4.00837E-004	0.00000E+000	1.91038E-004	2.40040E-001	4.76693E-001	3.57670E+000	9	...........
	12	0.173333	4.83679E-001	4.00784E-004	0.00000E+000	1.93851E-004	2.40040E-001	4.83778E-001	3.57670E+000	9	...........
	13	0.186667	4.90748E-001	4.00364E-004	0.00000E+000	1.96478E-004	2.40040E-001	4.90849E-001	3.57670E+000	9	...........
	14	0.2	4.97655E-001	4.00627E-004	0.00000E+000	1.99374E-004	2.40040E-001	4.97756E-001	3.57670E+000	9	...........
	15	0.213333	5.04437E-001	4.02115E-004	0.00000E+000	2.02842E-004	2.40040E-001	5.04536E-001	3.57670E+000	9	...........
	16	0.226667	5.11195E-001	4.00809E-004	0.00000E+000	2.04891E-004	2.40040E-001	5.11292E-001	3.57670E+000	9	...........
	17	0.24	5.17986E-001	4.01513E-004	0.00000E+000	2.07978E-004	2.40040E-001	5.18089E-001	3.57670E+000	9	...........
	18	0.253333	5.24730E-001	3.99351E-004	0.00000E+000	2.09551E-004	2.40040E-001	5.24837E-001	3.57670E+000	9	...........
	19	0.266667	5.31292E-001	4.00687E-004	0.00000E+000	2.12882E-004	2.40040E-001	5.31397E-001	3.57670E+000	9	...........
	20	0.28	5.37583E-001	4.02111E-004	0.00000E+000	2.16168E-004	2.40040E-001	5.37795E-001	3.57670E+000	9	...........
	21	0.293333	5.44081E-001	4.00388E-004	0.00000E+000	2.17843E-004	2.40040E-001	5.44300E-001	3.57670E+000	9	...........
	22	0.306667	5.50552E-001	4.01082E-004	0.00000E+000	2.20816E-004	2.40040E-001	5.50760E-001	3.57670E+000	9	...........
	23	0.32	5.57042E-001	4.00852E-004	0.00000E+000	2.23292E-004	2.40040E-001	5.57287E-001	3.57670E+000	9	...........
	24	0.333333	5.63435E-001	4.01610E-004	0.00000E+000	2.26281E-004	2.40040E-001	5.63687E-001	3.57670E+000	9	...........
	25	0.346667	5.69821E-001	4.01684E-004	0.00000E+000	2.28888E-004	2.40040E-001	5.70047E-001	3.57670E+000	9	...........
	26	0.36	5.76113E-001	4.00249E-004	0.00000E+000	2.30589E-004	2.40040E-001	5.76353E-001	3.57670E+000	9	...........
	27	0.373333	5.82365E-001	4.01009E-004	0.00000E+000	2.33534E-004	2.40040E-001	5.82608E-001	3.57670E+000	9	...........
	28	0.386667	5.88626E-001	4.00967E-004	0.00000E+000	2.36020E-004	2.40040E-001	5.88886E-001	3.57670E+000	9	...........
	29	0.4	5.94826E-001	4.01573E-004	0.00000E+000	2.38866E-004	2.40040E-001	5.95080E-001	3.57670E+000	9	...........
	30	0.413333	6.01010E-001	4.01341E-004	0.00000E+000	2.41210E-004	2.40040E-001	6.01267E-001	3.57670E+000	9	...........
	31	0.426667	6.07127E-001	4.00567E-004	0.00000E+000	2.43195E-004	2.40040E-001	6.07372E-001	3.57670E+000	9	...........
	32	0.44	6.13326E-001	4.01052E-004	0.00000E+000	2.45976E-004	2.40040E-001	6.13543E-001	3.57670E+000	9	...........
	33	0.453333	6.19514E-001	4.00461E-004	0.00000E+000	2.48091E-004	2.40040E-001	6.19701E-001	3.57670E+000	9	...........
	34	0.466667	6.25550E-001	4.00772E-004	0.00000E+000	2.50703E-004	2.40040E-001	6.25754E-001	3.57670E+000	9	...........
	35	0.48	6.31564E-001	4.01506E-004	0.00000E+000	2.53576E-004	2.40040E-001	6.31797E-001	3.57670E+000	9	...........
	36	0.493333	6.37627E-001	4.00926E-004	0.00000E+000	2.55641E-004	2.40040E-001	6.37894E-001	3.57670E+000	9	...........
	37	0.506667	6.43723E-001	4.00829E-004	0.00000E+000	2.58023E-004	2.40040E-001	6.43951E-001	3.57670E+000	9	...........
	38	0.52	6.49733E-001	4.00650E-004	0.00000E+000	2.60316E-004	2.40040E-001	6.49998E-001	3.57670E+000	9	...........
	39	0.533333	6.55864E-001	4.00006E-004	0.00000E+000	2.62350E-004	2.40040E-001	6.56111E-001	3.57670E+000	9	...........
	40	0.546667	6.61821E-001	4.01646E-004	0.00000E+000	2.65818E-004	2.40040E-001	6.62072E-001	3.57670E+000	9	...........
	41	0.56	6.67793E-001	4.01111E-004	0.00000E+000	2.67859E-004	2.40040E-001	6.68044E-001	3.57670E+000	9	...........
	42	0.573333	6.73678E-001	4.01644E-004	0.00000E+000	2.70579E-004	2.40040E-001	6.73933E-001	3.57670E+000	9	...........
	43	0.586667	6.79564E-001	4.00926E-004	0.00000E+000	2.72455E-004	2.40040E-001	6.79845E-001	3.57670E+000	9	...........
	44	0.6	6.85484E-001	4.02699E-004	0.00000E+000	2.76043E-004	2.40040E-001	6.85722E-001	3.57670E+000	9	...........
	45	0.613333	6.91332E-001	4.00741E-004	0.00000E+000	2.77045E-004	2.40040E-001	6.91583E-001	3.57670E+000	9	...........
	46	0.626667	6.97163E-001	4.02648E-004	0.00000E+000	2.80712E-004	2.40040E-001	6.97395E-001	3.57670E+000	9	...........
	47	0.64	7.03023E-001	4.01289E-004	0.00000E+000	2.82115E-004	2.40040E-001	7.03237E-001	3.57670E+000	9	...........
	48	0.653333	7.08763E-001	4.00940E-004	0.00000E+000	2.84171E-004	2.40040E-001	7.09019E-001	3.57670E+000	9	...........
	49	0.666667	7.14538E-001	4.01060E-004	0.00000E+000	2.86572E-004	2.40040E-001	7.14808E-001	3.57670E+000	9	...........
	50	0.68	7.20354E-001	4.00915E-004	0.00000E+000	2.88801E-004	2.40040E-001	7.20565E-001	3.57670E+000	9	...........
	51	0.693333	7.26040E-001	4.00555E-004	0.00000E+000	2.90819E-004	2.40040E-001	7.26295E-001	3.57670E+000	9	...........
	52	0.706667	7.31736E-001	4.00183E-004	0.00000E+000	2.92828E-004	2.40040E-001	7.31998E-001	3.57670E+000	9	...........
	53	0.72	7.37438E-001	4.00267E-004	0.00000E+000	2.95172E-004	2.40040E-001	7.37670E-001	3.57670E+000	9	...........
	54	0.733333	7.43062E-001	4.00252E-004	0.00000E+000	2.97412E-004	2.40040E-001	7.43309E-001	3.57670E+000	9	...........
	55	0.746667	7.48688E-001	4.01263E-004	0.00000E+000	3.00421E-004	2.40040E-001	7.48931E-001	3.57670E+000	9	...........
	56	0.76	7.54261E-001	4.01083E-004	0.00000E+000	3.02521E-004	2.40040E-001	7.54445E-001	3.57670E+000	9	...........
	57	0.773333	7.59777E-001	4.00840E-004	0.00000E+000	3.04549E-004	2.40040E-001	7.59951E-001	3.57670E+000	9	...........
	58	0.786667	7.65249E-001	4.00426E-004	0.00000E+000	3.06426E-004	2.40040E-001	7.65450E-001	3.57670E+000	9	...........
	59	0.8	7.70743E-001	4.01490E-004	0.00000E+000	3.09445E-004	2.40040E-001	7.70944E-001	3.57695E+000	9	...........
	60	0.813333	7.76217E-001	4.00108E-004	0.00000E+000	3.10571E-004	2.40040E-001	7.76431E-001	3.57770E+000	9	...........
	61	0.826667	7.81692E-001	4.00049E-004	0.00000E+000	3.12715E-004	2.40040E-001	7.81917E-001	3.57770E+000	9	...........
	62	0.84	7.87036E-001	4.01227E-004	0.00000E+000	3.15780E-004	2.40040E-001	7.87255E-001	3.57770E+000	9	...........
	63	0.853333	7.92346E-001	4.01152E-004	0.00000E+000	3.17851E-004	2.40040E-001	7.92599E-001	3.57770E+000	9	...........
	64	0.866667	7.97640E-001	4.02276E-004	0.00000E+000	3.20871E-004	2.40040E-001	7.97867E-001	3.57770E+000	9	...........
	65	0.88	8.02941E-001	4.01630E-004	0.00000E+000	3.22485E-004	2.40040E-001	8.03166E-001	3.57770E+000	9	...........
	66	0.893333	8.08204E-001	3.99735E-004	0.00000E+000	3.23068E-004	2.40040E-001	8.08452E-001	3.57770E+000	9	...........
	67	0.906667	8.13433E-001	4.01450E-004	0.00000E+000	3.26553E-004	2.40040E-001	8.13702E-001	3.57770E+000	9	...........
	68	0.92	8.18654E-001	4.00339E-004	0.00000E+000	3.27739E-004	2.40040E-001	8.18922E-001	3.57770E+000	9	...........
	69	0.933333	8.23870E-001	3.99609E-004	0.00000E+000	3.29226E-004	2.40040E-001	8.24122E-001	3.57770E+000	9	...........
	70	0.946667	8.28958E-001	4.00371E-004	0.00000E+000	3.31891E-004	2.40040E-001	8.29205E-001	3.57770E+000	9	...........
	71	0.96	8.34031E-001	4.02337E-004	0.00000E+000	3.35561E-004	2.40040E-001	8.34290E-001	3.57770E+000	9	...........
	72	0.97333	8.39008E-001	4.01367E-004	0.00000E+000	3.36750E-004	2.40040E-001	8.39296E-001	3.57770E+000	9	...........
	73	0.98667	8.44088E-001	4.00778E-004	0.00000E+000	3.38292E-004	2.40040E-001	8.44364E-001	3.57770E+000	9	...........
	74	1	8.49089E-001	4.01871E-004	0.00000E+000	3.41224E-004	2.40040E-001	8.49372E-001	3.57770E+000	9	...........
	75	1.01333	8.54001E-001	4.02443E-004	0.00000E+000	3.43687E-004	2.40040E-001	8.54292E-001	3.57770E+000	9	...........
	76	1.02667	8.58908E-001	4.01015E-004	0.00000E+000	3.44435E-004	2.40040E-001	8.59202E-001	3.57770E+000	9	...........
	77	1.04	8.63793E-001	3.99851E-004	0.00000E+000	3.45389E-004	2.40040E-001	8.64086E-001	3.57770E+000	9	...........
	78	1.05333	8.68620E-001	4.01563E-004	0.00000E+000	3.48806E-004	2.40040E-001	8.68894E-001	3.57770E+000	9	...........
	79	1.06667	8.73410E-001	4.01034E-004	0.00000E+000	3.50267E-004	2.40040E-001	8.73724E-001	3.57770E+000	9	...........
	80	1.08	8.78152E-001	4.00322E-004	0.00000E+000	3.51544E-004	2.40040E-001	8.78422E-001	3.57770E+000	9	...........
	81	1.09333	8.82886E-001	4.00931E-004	0.00000E+000	3.53977E-004	2.40040E-001	8.83149E-001	3.57770E+000	9	...........
	82	1.10667	8.87552E-001	4.00727E-004	0.00000E+000	3.55666E-004	2.40040E-001	8.87806E-001	3.57770E+000	9	...........
	83	1.12	8.92190E-001	4.00330E-004	0.00000E+000	3.57171E-004	2.40040E-001	8.92438E-001	3.57770E+000	9	...........
	84	1.13333	8.96810E-001	4.01285E-004	0.00000E+000	3.59876E-004	2.40040E-001	8.97047E-001	3.57770E+000	9	...........
	85	1.14667	9.01373E-001	4.01410E-004	0.00000E+000	3.61820E-004	2.40040E-001	9.01627E-001	3.57770E+000	9	...........
	86	1.16	9.05856E-001	4.01390E-004	0.00000E+000	3.63602E-004	2.40040E-001	9.06134E-001	3.57770E+000	9	...........
	87	1.17333	9.10397E-001	4.01272E-004	0.00000E+000	3.65317E-004	2.40040E-001	9.10649E-001	3.57770E+000	9	...........
	88	1.18667	9.14828E-001	4.01710E-004	0.00000E+000	3.67495E-004	2.40040E-001	9.15120E-001	3.57770E+000	9	...........
	89	1.2	9.19212E-001	4.01702E-004	0.00000E+000	3.69250E-004	2.40040E-001	9.19523E-001	3.57770E+000	9	...........
	90	1.21333	9.23665E-001	3.99834E-004	0.00000E+000	3.69313E-004	2.40040E-001	9.23925E-001	3.57770E+000	9	...........
	91	1.22667	9.28026E-001	4.01593E-004	0.00000E+000	3.72689E-004	2.40040E-001	9.28283E-001	3.57770E+000	9	...........
	92	1.24	9.32316E-001	4.00699E-004	0.00000E+000	3.73578E-004	2.40040E-001	9.32591E-001	3.57770E+000	9	...........
	93	1.25333	9.36585E-001	3.99960E-004	0.00000E+000	3.74597E-004	2.40040E-001	9.36889E-001	3.57770E+000	9	...........
	94	1.26667	9.40779E-001	4.00869E-004	0.00000E+000	3.77129E-004	2.40040E-001	9.41081E-001	3.57770E+000	9	...........
	95	1.28	9.44934E-001	4.01751E-004	0.00000E+000	3.79629E-004	2.40040E-001	9.45270E-001	3.57770E+000	9	...........
	96	1.29333	9.49122E-001	4.02511E-004	0.00000E+000	3.82032E-004	2.40040E-001	9.49404E-001	3.57770E+000	9	...........
	97	1.30667	9.53244E-001	4.01286E-004	0.00000E+000	3.82523E-004	2.40040E-001	9.53526E-001	3.57770E+000	9	...........
	98	1.32	9.57339E-001	4.01702E-004	0.00000E+000	3.84565E-004	2.40040E-001	9.57641E-001	3.57770E+000	9	...........
	99	1.33333	9.61337E-001	4.01485E-004	0.00000E+000	3.85962E-004	2.40040E-001	9.61656E-001	3.57770E+000	9	...........
	100	1.34667	9.65309E-001	4.01236E-004	0.00000E+000	3.87317E-004	2.40040E-001	9.65645E-001	3.57770E+000	9	...........
	101	1.36	9.69237E-001	4.01390E-004	0.00000E+000	3.89042E-004	2.40040E-001	9.69566E-001	3.57770E+000	9	...........
	102	1.37333	9.73220E-001	4.01798E-004	0.00000E+000	3.91038E-004	2.40040E-001	9.73539E-001	3.57770E+000	9	...........
	103	1.38667	9.77046E-001	4.00900E-004	0.00000E+000	3.91698E-004	2.40040E-001	9.77368E-001	3.57770E+000	9	...........
	104	1.4	9.80843E-001	4.01036E-004	0.00000E+000	3.93353E-004	2.40040E-001	9.81149E-001	3.57770E+000	9	...........
	105	1.41333	9.84648E-001	4.00762E-004	0.00000E+000	3.94609E-004	2.40040E-001	9.84955E-001	3.57770E+000	9	...........
	106	1.42667	9.88403E-001	4.01425E-004	0.00000E+000	3.96770E-004	2.40040E-001	9.88716E-001	3.57770E+000	9	...........
	107	1.44	9.92094E-001	4.00158E-004	0.00000E+000	3.96995E-004	2.40040E-001	9.92435E-001	3.57770E+000	9	...........
	108	1.45333	9.95767E-001	4.00523E-004	0.00000E+000	3.98828E-004	2.40040E-001	9.96109E-001	3.57770E+000	9	...........
	109	1.465	9.99113E-001	4.01054E-004	0.00000E+000	4.00698E-004	2.40040E-001	9.99449E-001	3.57770E+000	9	...........
STARTTIMEOFFSET	QUANT	2374.615	Start Time Offset (s)
