EXPLAIN
TAG	PWR800_CHARGE
TITLE	LABEL	PWR Cyclic Charge Discharge (Cell) - Charge Step	Test &Identifier
DATE	LABEL	12-7-2017	Date
TIME	LABEL	14:29:08	Time
NOTES	NOTES	3	&Notes...
	supercap test cell
	0.4mg
	6M KOH
PSTAT	PSTAT	IFC5000-01520	Potentiostat
CAPACITY	QUANT	1.00000E-003	Capacity (A-hr)
CELLTYPE	SELECTOR	1	&Cell Type
WORKINGCONNECTION	SELECTOR	0	&Working Lead
MAXCHARGETIME	VARIABLEANDUNITS	1.00000E+002	s	1.00000E+002	second(s)	Max &Charge Time
CHARGECURRENT	QUANT	4.00000E-004	&Charge Current (A) 
VOLTAGEFINISH	TWOPARAM	F	1.00000E-003	3.60000E+003	&Voltage Finish	 I (A) < 	Max Time(s)
SAMPLETIME	QUANT	1.00000E-002	Sa&mple Period (s)
CHARGESTOPAT1	MULTIPARAM	4	1.00000E+000	Charge Stop At &1	Voltage > Limit	V
CHARGESTOPAT2	MULTIPARAM	0	0.00000E+000	Charge Stop At &2	None	N/A
AESBHCSELECTOR	TOGGLE	F	Save Both Half Cells
IRCOMP	TOGGLE	F	IR &Measure
EOC	QUANT	0	Open Circuit (V)
SEQUENCER	TOGGLE	TRUE	Run as Sequence
PSTATMODEL	IQUANT	53	Pstat Model
PSTATSECTION	LABEL	IFC5000-01520	Pstat Section
PSTATSERIALNO	LABEL	01520	Pstat Serial Number
CTRLMODE	IQUANT	0	Control Mode
ELECTROMETER	IQUANT	1	RE=0 or CS=1
IESTAB	IQUANT	0	I/E Stability
CASPEED	IQUANT	4	Control Amp Speed
CONVENTION	IQUANT	1	Current Convention
ICHRANGE	IQUANT	2	Ich Range
ICHRANGEMODE	TOGGLE	T	Ich Auto Range
ICHOFFSETENABLE	TOGGLE	F	Ich Offset Enable
ICHOFFSET	QUANT	0	Ich Offset (V)
ICHFILTER	IQUANT	1	Ich Filter
VCHRANGE	IQUANT	2	Vch Range
VCHRANGEMODE	TOGGLE	T	Vch Auto Range
VCHOFFSETENABLE	TOGGLE	F	Vch Offset Enable
VCHOFFSET	QUANT	0	Vch Offset (V)
VCHFILTER	IQUANT	1	Vch Filter
IERANGELOWERLIMIT	IQUANT	9	I/E Range Lower Limit
IERANGEMODE	TOGGLE	F	I/E AutoRange
IERANGE	IQUANT	9	I/E Range
ACHSELECT	IQUANT	1	Ach Select
ACHRANGE	IQUANT	2	Ach Range
ACHOFFSETENABLE	TOGGLE	F	Ach Offset Enable
ACHOFFSET	QUANT	0	Ach Offset (V)
ACHFILTER	IQUANT	1	Ach Filter
CABLEID	IQUANT	14	Cable ID
DCCALDATE	LABEL	5-7-2017	DC Calibration Date
ACCALDATE	LABEL	12/3/2015	AC Calibration Date
FRAMEWORKVERSION	QUANT	7.01	Framework Version
INSTRUMENTVERSION	LABEL	4.00	Instrument Version
CURVE	TABLE	135
	Pt	T	Vf	Im	Vu	Pwr	Sig	Ach	Temp	IERange	Over
	#	s	V	A	V	W	V	V	deg C	#	bits
	0	0.013333	3.39500E-001	4.02172E-004	0.00000E+000	1.36537E-004	2.40040E-001	3.39584E-001	3.57620E+000	9	...........
	1	0.026667	3.49658E-001	4.00229E-004	0.00000E+000	1.39943E-004	2.40040E-001	3.49727E-001	3.57620E+000	9	...........
	2	0.04	3.58477E-001	4.00852E-004	0.00000E+000	1.43696E-004	2.40040E-001	3.58548E-001	3.57620E+000	9	...........
	3	0.053333	3.66531E-001	4.00614E-004	0.00000E+000	1.46838E-004	2.40040E-001	3.66607E-001	3.57620E+000	9	...........
	4	0.066667	3.74090E-001	4.01072E-004	0.00000E+000	1.50037E-004	2.40040E-001	3.74158E-001	3.57620E+000	9	...........
	5	0.08	3.81334E-001	4.01337E-004	0.00000E+000	1.53043E-004	2.40040E-001	3.81409E-001	3.57620E+000	9	...........
	6	0.093333	3.88315E-001	4.00070E-004	0.00000E+000	1.55353E-004	2.40040E-001	3.88385E-001	3.57620E+000	9	...........
	7	0.106667	3.95045E-001	4.01858E-004	0.00000E+000	1.58752E-004	2.40040E-001	3.95121E-001	3.57620E+000	9	...........
	8	0.12	4.01591E-001	4.01991E-004	0.00000E+000	1.61436E-004	2.40040E-001	4.01668E-001	3.57620E+000	9	...........
	9	0.133333	4.08052E-001	4.01860E-004	0.00000E+000	1.63980E-004	2.40040E-001	4.08129E-001	3.57620E+000	9	...........
	10	0.146667	4.14378E-001	4.01781E-004	0.00000E+000	1.66489E-004	2.40040E-001	4.14455E-001	3.57620E+000	9	...........
	11	0.16	4.20563E-001	3.99949E-004	0.00000E+000	1.68204E-004	2.40040E-001	4.20644E-001	3.57620E+000	9	...........
	12	0.173333	4.26749E-001	4.00817E-004	0.00000E+000	1.71048E-004	2.40040E-001	4.26837E-001	3.57620E+000	9	...........
	13	0.186667	4.32906E-001	3.99913E-004	0.00000E+000	1.73124E-004	2.40040E-001	4.32994E-001	3.57620E+000	9	...........
	14	0.2	4.38968E-001	4.02087E-004	0.00000E+000	1.76503E-004	2.40040E-001	4.39056E-001	3.57620E+000	9	...........
	15	0.213333	4.44885E-001	3.99536E-004	0.00000E+000	1.77748E-004	2.40040E-001	4.44978E-001	3.57620E+000	9	...........
	16	0.226667	4.50818E-001	4.01536E-004	0.00000E+000	1.81020E-004	2.40040E-001	4.50910E-001	3.57620E+000	9	...........
	17	0.24	4.56739E-001	4.02274E-004	0.00000E+000	1.83734E-004	2.40040E-001	4.56830E-001	3.57620E+000	9	...........
	18	0.253333	4.62554E-001	4.00729E-004	0.00000E+000	1.85359E-004	2.40040E-001	4.62642E-001	3.57620E+000	9	...........
	19	0.266667	4.68320E-001	4.00809E-004	0.00000E+000	1.87707E-004	2.40040E-001	4.68411E-001	3.57620E+000	9	...........
	20	0.28	4.74052E-001	4.01660E-004	0.00000E+000	1.90408E-004	2.40040E-001	4.74147E-001	3.57620E+000	9	...........
	21	0.293333	4.79710E-001	4.00751E-004	0.00000E+000	1.92244E-004	2.40040E-001	4.79806E-001	3.57620E+000	9	...........
	22	0.306667	4.85419E-001	4.01302E-004	0.00000E+000	1.94800E-004	2.40040E-001	4.85517E-001	3.57620E+000	9	...........
	23	0.32	4.91122E-001	4.02173E-004	0.00000E+000	1.97516E-004	2.40040E-001	4.91224E-001	3.57620E+000	9	...........
	24	0.333333	4.96755E-001	4.01795E-004	0.00000E+000	1.99594E-004	2.40040E-001	4.96851E-001	3.57620E+000	9	...........
	25	0.346667	5.02274E-001	4.02271E-004	0.00000E+000	2.02050E-004	2.40040E-001	5.02376E-001	3.57620E+000	9	...........
	26	0.36	5.07814E-001	4.00574E-004	0.00000E+000	2.03417E-004	2.40040E-001	5.07923E-001	3.57620E+000	9	...........
	27	0.373333	5.13351E-001	4.02221E-004	0.00000E+000	2.06481E-004	2.40040E-001	5.13449E-001	3.57620E+000	9	...........
	28	0.386667	5.18843E-001	4.01595E-004	0.00000E+000	2.08365E-004	2.40040E-001	5.18948E-001	3.57620E+000	9	...........
	29	0.4	5.24351E-001	4.00122E-004	0.00000E+000	2.09805E-004	2.40040E-001	5.24453E-001	3.57620E+000	9	...........
	30	0.413333	5.29810E-001	4.01457E-004	0.00000E+000	2.12696E-004	2.40040E-001	5.29914E-001	3.57620E+000	9	...........
	31	0.426667	5.34924E-001	4.00980E-004	0.00000E+000	2.14494E-004	2.40040E-001	5.35099E-001	3.57620E+000	9	...........
	32	0.44	5.40334E-001	4.00886E-004	0.00000E+000	2.16612E-004	2.40040E-001	5.40560E-001	3.57620E+000	9	...........
	33	0.453333	5.45709E-001	4.00801E-004	0.00000E+000	2.18721E-004	2.40040E-001	5.45904E-001	3.57620E+000	9	...........
	34	0.466667	5.50995E-001	4.00742E-004	0.00000E+000	2.20807E-004	2.40040E-001	5.51237E-001	3.57620E+000	9	...........
	35	0.48	5.56367E-001	4.01491E-004	0.00000E+000	2.23376E-004	2.40040E-001	5.56574E-001	3.57620E+000	9	...........
	36	0.493333	5.61804E-001	4.01399E-004	0.00000E+000	2.25508E-004	2.40040E-001	5.62050E-001	3.57620E+000	9	...........
	37	0.506667	5.67109E-001	4.02141E-004	0.00000E+000	2.28058E-004	2.40040E-001	5.67331E-001	3.57620E+000	9	...........
	38	0.52	5.72412E-001	4.00927E-004	0.00000E+000	2.29495E-004	2.40040E-001	5.72621E-001	3.57620E+000	9	...........
	39	0.533333	5.77761E-001	4.00701E-004	0.00000E+000	2.31510E-004	2.40040E-001	5.78006E-001	3.57620E+000	9	...........
	40	0.546667	5.83026E-001	4.00652E-004	0.00000E+000	2.33591E-004	2.40040E-001	5.83253E-001	3.57620E+000	9	...........
	41	0.56	5.88353E-001	4.00994E-004	0.00000E+000	2.35926E-004	2.40040E-001	5.88602E-001	3.57620E+000	9	...........
	42	0.573333	5.93700E-001	4.00572E-004	0.00000E+000	2.37819E-004	2.40040E-001	5.93916E-001	3.57620E+000	9	...........
	43	0.586667	5.98939E-001	4.01027E-004	0.00000E+000	2.40191E-004	2.40040E-001	5.99176E-001	3.57620E+000	9	...........
	44	0.6	6.04166E-001	4.00780E-004	0.00000E+000	2.42138E-004	2.40040E-001	6.04422E-001	3.57620E+000	9	...........
	45	0.613333	6.09383E-001	4.01959E-004	0.00000E+000	2.44947E-004	2.40040E-001	6.09631E-001	3.57620E+000	9	...........
	46	0.626667	6.14564E-001	4.01368E-004	0.00000E+000	2.46666E-004	2.40040E-001	6.14762E-001	3.57620E+000	9	...........
	47	0.64	6.19749E-001	4.00839E-004	0.00000E+000	2.48419E-004	2.40040E-001	6.19936E-001	3.57620E+000	9	...........
	48	0.653333	6.24870E-001	4.00716E-004	0.00000E+000	2.50395E-004	2.40040E-001	6.25072E-001	3.57620E+000	9	...........
	49	0.666667	6.29946E-001	4.01400E-004	0.00000E+000	2.52860E-004	2.40040E-001	6.30158E-001	3.57620E+000	9	...........
	50	0.68	6.35092E-001	4.00593E-004	0.00000E+000	2.54413E-004	2.40040E-001	6.35312E-001	3.57620E+000	9	...........
	51	0.693333	6.40252E-001	4.03037E-004	0.00000E+000	2.58045E-004	2.40040E-001	6.40503E-001	3.57620E+000	9	...........
	52	0.706667	6.45402E-001	4.01619E-004	0.00000E+000	2.59206E-004	2.40040E-001	6.45632E-001	3.57620E+000	9	...........
	53	0.72	6.50469E-001	4.01409E-004	0.00000E+000	2.61104E-004	2.40040E-001	6.50708E-001	3.57620E+000	9	...........
	54	0.733333	6.55536E-001	4.01563E-004	0.00000E+000	2.63239E-004	2.40040E-001	6.55758E-001	3.57620E+000	9	...........
	55	0.746667	6.60584E-001	4.00856E-004	0.00000E+000	2.64799E-004	2.40040E-001	6.60808E-001	3.57620E+000	9	...........
	56	0.76	6.65602E-001	4.01089E-004	0.00000E+000	2.66966E-004	2.40040E-001	6.65840E-001	3.57620E+000	9	...........
	57	0.773333	6.70678E-001	4.00689E-004	0.00000E+000	2.68733E-004	2.40040E-001	6.70884E-001	3.57620E+000	9	...........
	58	0.786667	6.75804E-001	4.00942E-004	0.00000E+000	2.70958E-004	2.40040E-001	6.76017E-001	3.57620E+000	9	...........
	59	0.8	6.80856E-001	4.00754E-004	0.00000E+000	2.72856E-004	2.40040E-001	6.81054E-001	3.57620E+000	9	...........
	60	0.813333	6.85897E-001	4.01223E-004	0.00000E+000	2.75198E-004	2.40040E-001	6.86128E-001	3.57620E+000	9	...........
	61	0.826667	6.90902E-001	4.01283E-004	0.00000E+000	2.77247E-004	2.40040E-001	6.91137E-001	3.57620E+000	9	...........
	62	0.84	6.95929E-001	4.01187E-004	0.00000E+000	2.79197E-004	2.40040E-001	6.96152E-001	3.57620E+000	9	...........
	63	0.853333	7.00908E-001	4.00914E-004	0.00000E+000	2.81004E-004	2.40040E-001	7.01164E-001	3.57620E+000	9	...........
	64	0.866667	7.05849E-001	4.01418E-004	0.00000E+000	2.83340E-004	2.40040E-001	7.06091E-001	3.57620E+000	9	...........
	65	0.88	7.10764E-001	4.01517E-004	0.00000E+000	2.85384E-004	2.40040E-001	7.11026E-001	3.57620E+000	9	...........
	66	0.893333	7.15731E-001	4.01669E-004	0.00000E+000	2.87487E-004	2.40040E-001	7.15985E-001	3.57620E+000	9	...........
	67	0.906667	7.20748E-001	4.00706E-004	0.00000E+000	2.88808E-004	2.40040E-001	7.20969E-001	3.57620E+000	9	...........
	68	0.92	7.25627E-001	4.01194E-004	0.00000E+000	2.91117E-004	2.40040E-001	7.25836E-001	3.57620E+000	9	...........
	69	0.933333	7.30529E-001	4.00378E-004	0.00000E+000	2.92488E-004	2.40040E-001	7.30760E-001	3.57620E+000	9	...........
	70	0.946667	7.35424E-001	4.00596E-004	0.00000E+000	2.94608E-004	2.40040E-001	7.35615E-001	3.57620E+000	9	...........
	71	0.96	7.40299E-001	4.01351E-004	0.00000E+000	2.97120E-004	2.40040E-001	7.40543E-001	3.57620E+000	9	...........
	72	0.97333	7.45193E-001	4.02153E-004	0.00000E+000	2.99681E-004	2.40040E-001	7.45406E-001	3.57620E+000	9	...........
	73	0.98667	7.50045E-001	3.99750E-004	0.00000E+000	2.99830E-004	2.40040E-001	7.50282E-001	3.57620E+000	9	...........
	74	1	7.54882E-001	4.00813E-004	0.00000E+000	3.02566E-004	2.40040E-001	7.55102E-001	3.57611E+000	9	...........
	75	1.01333	7.59728E-001	4.00573E-004	0.00000E+000	3.04327E-004	2.40040E-001	7.59947E-001	3.57610E+000	9	...........
	76	1.02667	7.64536E-001	4.02739E-004	0.00000E+000	3.07909E-004	2.40040E-001	7.64771E-001	3.57610E+000	9	...........
	77	1.04	7.69360E-001	4.00260E-004	0.00000E+000	3.07944E-004	2.40040E-001	7.69600E-001	3.57610E+000	9	...........
	78	1.05333	7.74058E-001	4.00888E-004	0.00000E+000	3.10310E-004	2.40040E-001	7.74311E-001	3.57610E+000	9	...........
	79	1.06667	7.78828E-001	4.00306E-004	0.00000E+000	3.11770E-004	2.40040E-001	7.79081E-001	3.57610E+000	9	...........
	80	1.08	7.83595E-001	4.01913E-004	0.00000E+000	3.14937E-004	2.40040E-001	7.83829E-001	3.57610E+000	9	...........
	81	1.09333	7.88229E-001	4.00680E-004	0.00000E+000	3.15828E-004	2.40040E-001	7.88460E-001	3.57610E+000	9	...........
	82	1.10667	7.92952E-001	4.00324E-004	0.00000E+000	3.17438E-004	2.40040E-001	7.93165E-001	3.57610E+000	9	...........
	83	1.12	7.97650E-001	4.01187E-004	0.00000E+000	3.20007E-004	2.40040E-001	7.97847E-001	3.57610E+000	9	...........
	84	1.13333	8.02263E-001	4.01275E-004	0.00000E+000	3.21928E-004	2.40040E-001	8.02478E-001	3.57610E+000	9	...........
	85	1.14667	8.06892E-001	4.00105E-004	0.00000E+000	3.22842E-004	2.40040E-001	8.07126E-001	3.57610E+000	9	...........
	86	1.16	8.11524E-001	4.01273E-004	0.00000E+000	3.25643E-004	2.40040E-001	8.11758E-001	3.57610E+000	9	...........
	87	1.17333	8.16086E-001	4.00948E-004	0.00000E+000	3.27208E-004	2.40040E-001	8.16325E-001	3.57610E+000	9	...........
	88	1.18667	8.20662E-001	4.00447E-004	0.00000E+000	3.28632E-004	2.40040E-001	8.20932E-001	3.57610E+000	9	...........
	89	1.2	8.25170E-001	4.00908E-004	0.00000E+000	3.30817E-004	2.40040E-001	8.25436E-001	3.57610E+000	9	...........
	90	1.21333	8.29693E-001	4.02517E-004	0.00000E+000	3.33966E-004	2.40040E-001	8.29941E-001	3.57610E+000	9	...........
	91	1.22667	8.34128E-001	4.00844E-004	0.00000E+000	3.34355E-004	2.40040E-001	8.34437E-001	3.57610E+000	9	...........
	92	1.24	8.38645E-001	4.01103E-004	0.00000E+000	3.36383E-004	2.40040E-001	8.38944E-001	3.57610E+000	9	...........
	93	1.25333	8.43154E-001	4.00183E-004	0.00000E+000	3.37416E-004	2.40040E-001	8.43446E-001	3.57610E+000	9	...........
	94	1.26667	8.47651E-001	4.01133E-004	0.00000E+000	3.40020E-004	2.40040E-001	8.47927E-001	3.57610E+000	9	...........
	95	1.28	8.52099E-001	4.00875E-004	0.00000E+000	3.41585E-004	2.40040E-001	8.52384E-001	3.57610E+000	9	...........
	96	1.29333	8.56460E-001	4.00523E-004	0.00000E+000	3.43032E-004	2.40040E-001	8.56762E-001	3.57610E+000	9	...........
	97	1.30667	8.60751E-001	4.00375E-004	0.00000E+000	3.44623E-004	2.40040E-001	8.61047E-001	3.57610E+000	9	...........
	98	1.32	8.65027E-001	4.00706E-004	0.00000E+000	3.46622E-004	2.40040E-001	8.65316E-001	3.57610E+000	9	...........
	99	1.33333	8.69326E-001	4.01266E-004	0.00000E+000	3.48831E-004	2.40040E-001	8.69619E-001	3.57610E+000	9	...........
	100	1.34667	8.73566E-001	4.02094E-004	0.00000E+000	3.51256E-004	2.40040E-001	8.73833E-001	3.57610E+000	9	...........
	101	1.36	8.77793E-001	4.01525E-004	0.00000E+000	3.52456E-004	2.40040E-001	8.78049E-001	3.57610E+000	9	...........
	102	1.37333	8.82027E-001	4.00637E-004	0.00000E+000	3.53372E-004	2.40040E-001	8.82291E-001	3.57610E+000	9	...........
	103	1.38667	8.86184E-001	4.02353E-004	0.00000E+000	3.56558E-004	2.40040E-001	8.86448E-001	3.57610E+000	9	...........
	104	1.4	8.90270E-001	4.02081E-004	0.00000E+000	3.57961E-004	2.40040E-001	8.90568E-001	3.57610E+000	9	...........
	105	1.41333	8.94443E-001	4.00874E-004	0.00000E+000	3.58559E-004	2.40040E-001	8.94754E-001	3.57610E+000	9	...........
	106	1.42667	8.98575E-001	4.00710E-004	0.00000E+000	3.60067E-004	2.40040E-001	8.98853E-001	3.57610E+000	9	...........
	107	1.44	9.02621E-001	3.99967E-004	0.00000E+000	3.61018E-004	2.40040E-001	9.02929E-001	3.57610E+000	9	...........
	108	1.45333	9.06646E-001	4.00417E-004	0.00000E+000	3.63036E-004	2.40040E-001	9.06965E-001	3.57610E+000	9	...........
	109	1.46667	9.10684E-001	4.01311E-004	0.00000E+000	3.65467E-004	2.40040E-001	9.10974E-001	3.57610E+000	9	...........
	110	1.48	9.14682E-001	4.00978E-004	0.00000E+000	3.66768E-004	2.40040E-001	9.14972E-001	3.57610E+000	9	...........
	111	1.49333	9.18611E-001	4.01005E-004	0.00000E+000	3.68368E-004	2.40040E-001	9.18875E-001	3.57610E+000	9	...........
	112	1.50667	9.22591E-001	4.00079E-004	0.00000E+000	3.69110E-004	2.40040E-001	9.22802E-001	3.57610E+000	9	...........
	113	1.52	9.26460E-001	4.00824E-004	0.00000E+000	3.71348E-004	2.40040E-001	9.26687E-001	3.57610E+000	9	...........
	114	1.53333	9.30348E-001	4.02301E-004	0.00000E+000	3.74279E-004	2.40040E-001	9.30595E-001	3.57610E+000	9	...........
	115	1.54667	9.34165E-001	4.01216E-004	0.00000E+000	3.74802E-004	2.40040E-001	9.34455E-001	3.57610E+000	9	...........
	116	1.56	9.37914E-001	4.00371E-004	0.00000E+000	3.75514E-004	2.40040E-001	9.38204E-001	3.57610E+000	9	...........
	117	1.57333	9.41637E-001	4.01005E-004	0.00000E+000	3.77602E-004	2.40040E-001	9.41936E-001	3.57610E+000	9	...........
	118	1.58667	9.45393E-001	4.01463E-004	0.00000E+000	3.79540E-004	2.40040E-001	9.45668E-001	3.57610E+000	9	...........
	119	1.6	9.49110E-001	4.00763E-004	0.00000E+000	3.80368E-004	2.40040E-001	9.49386E-001	3.57610E+000	9	...........
	120	1.61333	9.52747E-001	4.00939E-004	0.00000E+000	3.81993E-004	2.40040E-001	9.53009E-001	3.57610E+000	9	...........
	121	1.62667	9.56382E-001	4.00280E-004	0.00000E+000	3.82821E-004	2.40040E-001	9.56640E-001	3.57610E+000	9	...........
	122	1.64	9.59960E-001	4.01120E-004	0.00000E+000	3.85059E-004	2.40040E-001	9.60271E-001	3.57610E+000	9	...........
	123	1.65333	9.63549E-001	4.00754E-004	0.00000E+000	3.86146E-004	2.40040E-001	9.63853E-001	3.57610E+000	9	...........
	124	1.66667	9.67065E-001	4.01083E-004	0.00000E+000	3.87873E-004	2.40040E-001	9.67400E-001	3.57610E+000	9	...........
	125	1.68	9.70558E-001	4.00853E-004	0.00000E+000	3.89051E-004	2.40040E-001	9.70926E-001	3.57610E+000	9	...........
	126	1.69333	9.74018E-001	4.00826E-004	0.00000E+000	3.90412E-004	2.40040E-001	9.74354E-001	3.57610E+000	9	...........
	127	1.70667	9.77429E-001	4.00855E-004	0.00000E+000	3.91808E-004	2.40040E-001	9.77751E-001	3.57610E+000	9	...........
	128	1.72	9.80815E-001	4.02207E-004	0.00000E+000	3.94490E-004	2.40040E-001	9.81136E-001	3.57610E+000	9	...........
	129	1.73333	9.84163E-001	4.01770E-004	0.00000E+000	3.95407E-004	2.40040E-001	9.84502E-001	3.57610E+000	9	...........
	130	1.74667	9.87439E-001	4.01767E-004	0.00000E+000	3.96720E-004	2.40040E-001	9.87770E-001	3.57610E+000	9	...........
	131	1.76	9.90766E-001	4.01145E-004	0.00000E+000	3.97441E-004	2.40040E-001	9.91086E-001	3.57610E+000	9	...........
	132	1.77333	9.94016E-001	4.00350E-004	0.00000E+000	3.97955E-004	2.40040E-001	9.94331E-001	3.57610E+000	9	...........
	133	1.78667	9.97279E-001	4.01859E-004	0.00000E+000	4.00765E-004	2.40040E-001	9.97579E-001	3.57610E+000	9	...........
	134	1.79333	9.99723E-001	4.02311E-004	0.00000E+000	4.02200E-004	2.40040E-001	1.00003E+000	3.57610E+000	9	...........
STARTTIMEOFFSET	QUANT	507.9018	Start Time Offset (s)
