EXPLAIN
TAG	PWR800_CHARGE
TITLE	LABEL	PWR Cyclic Charge Discharge (Cell) - Charge Step	Test &Identifier
DATE	LABEL	12-7-2017	Date
TIME	LABEL	14:20:49	Time
NOTES	NOTES	3	&Notes...
	supercap test cell
	0.4mg
	6M KOH
PSTAT	PSTAT	IFC5000-01520	Potentiostat
CAPACITY	QUANT	1.00000E-003	Capacity (A-hr)
CELLTYPE	SELECTOR	1	&Cell Type
WORKINGCONNECTION	SELECTOR	0	&Working Lead
MAXCHARGETIME	VARIABLEANDUNITS	1.00000E+002	s	1.00000E+002	second(s)	Max &Charge Time
CHARGECURRENT	QUANT	4.00000E-004	&Charge Current (A) 
VOLTAGEFINISH	TWOPARAM	F	1.00000E-003	3.60000E+003	&Voltage Finish	 I (A) < 	Max Time(s)
SAMPLETIME	QUANT	1.00000E-002	Sa&mple Period (s)
CHARGESTOPAT1	MULTIPARAM	4	1.00000E+000	Charge Stop At &1	Voltage > Limit	V
CHARGESTOPAT2	MULTIPARAM	0	0.00000E+000	Charge Stop At &2	None	N/A
AESBHCSELECTOR	TOGGLE	F	Save Both Half Cells
IRCOMP	TOGGLE	F	IR &Measure
EOC	QUANT	0	Open Circuit (V)
SEQUENCER	TOGGLE	TRUE	Run as Sequence
PSTATMODEL	IQUANT	53	Pstat Model
PSTATSECTION	LABEL	IFC5000-01520	Pstat Section
PSTATSERIALNO	LABEL	01520	Pstat Serial Number
CTRLMODE	IQUANT	0	Control Mode
ELECTROMETER	IQUANT	1	RE=0 or CS=1
IESTAB	IQUANT	0	I/E Stability
CASPEED	IQUANT	4	Control Amp Speed
CONVENTION	IQUANT	1	Current Convention
ICHRANGE	IQUANT	2	Ich Range
ICHRANGEMODE	TOGGLE	T	Ich Auto Range
ICHOFFSETENABLE	TOGGLE	F	Ich Offset Enable
ICHOFFSET	QUANT	0	Ich Offset (V)
ICHFILTER	IQUANT	1	Ich Filter
VCHRANGE	IQUANT	2	Vch Range
VCHRANGEMODE	TOGGLE	T	Vch Auto Range
VCHOFFSETENABLE	TOGGLE	F	Vch Offset Enable
VCHOFFSET	QUANT	0	Vch Offset (V)
VCHFILTER	IQUANT	1	Vch Filter
IERANGELOWERLIMIT	IQUANT	9	I/E Range Lower Limit
IERANGEMODE	TOGGLE	F	I/E AutoRange
IERANGE	IQUANT	9	I/E Range
ACHSELECT	IQUANT	1	Ach Select
ACHRANGE	IQUANT	2	Ach Range
ACHOFFSETENABLE	TOGGLE	F	Ach Offset Enable
ACHOFFSET	QUANT	0	Ach Offset (V)
ACHFILTER	IQUANT	1	Ach Filter
CABLEID	IQUANT	14	Cable ID
DCCALDATE	LABEL	5-7-2017	DC Calibration Date
ACCALDATE	LABEL	12/3/2015	AC Calibration Date
FRAMEWORKVERSION	QUANT	7.01	Framework Version
INSTRUMENTVERSION	LABEL	4.00	Instrument Version
CURVE	TABLE	151
	Pt	T	Vf	Im	Vu	Pwr	Sig	Ach	Temp	IERange	Over
	#	s	V	A	V	W	V	V	deg C	#	bits
	0	0.013333	3.26117E-001	4.00965E-004	0.00000E+000	1.30761E-004	2.40040E-001	3.26197E-001	3.57660E+000	9	...........
	1	0.026667	3.35500E-001	4.01841E-004	0.00000E+000	1.34818E-004	2.40040E-001	3.35563E-001	3.57660E+000	9	...........
	2	0.04	3.43605E-001	4.01932E-004	0.00000E+000	1.38106E-004	2.40040E-001	3.43668E-001	3.57660E+000	9	...........
	3	0.053333	3.51046E-001	3.99856E-004	0.00000E+000	1.40368E-004	2.40040E-001	3.51108E-001	3.57660E+000	9	...........
	4	0.066667	3.58066E-001	4.00288E-004	0.00000E+000	1.43330E-004	2.40040E-001	3.58137E-001	3.57660E+000	9	...........
	5	0.08	3.64683E-001	4.00717E-004	0.00000E+000	1.46135E-004	2.40040E-001	3.64756E-001	3.57660E+000	9	...........
	6	0.093333	3.71095E-001	4.02824E-004	0.00000E+000	1.49486E-004	2.40040E-001	3.71164E-001	3.57660E+000	9	...........
	7	0.106667	3.77338E-001	4.01395E-004	0.00000E+000	1.51462E-004	2.40040E-001	3.77404E-001	3.57660E+000	9	...........
	8	0.12	3.83496E-001	4.01503E-004	0.00000E+000	1.53975E-004	2.40040E-001	3.83563E-001	3.57660E+000	9	...........
	9	0.133333	3.89483E-001	4.01601E-004	0.00000E+000	1.56417E-004	2.40040E-001	3.89545E-001	3.57660E+000	9	...........
	10	0.146667	3.95329E-001	4.01581E-004	0.00000E+000	1.58756E-004	2.40040E-001	3.95397E-001	3.57660E+000	9	...........
	11	0.16	4.01092E-001	4.01535E-004	0.00000E+000	1.61052E-004	2.40040E-001	4.01167E-001	3.57660E+000	9	...........
	12	0.173333	4.06868E-001	4.01488E-004	0.00000E+000	1.63353E-004	2.40040E-001	4.06940E-001	3.57615E+000	9	...........
	13	0.186667	4.12540E-001	4.00406E-004	0.00000E+000	1.65184E-004	2.40040E-001	4.12620E-001	3.57600E+000	9	...........
	14	0.2	4.18103E-001	4.02575E-004	0.00000E+000	1.68318E-004	2.40040E-001	4.18187E-001	3.57600E+000	9	...........
	15	0.213333	4.23622E-001	4.00673E-004	0.00000E+000	1.69734E-004	2.40040E-001	4.23702E-001	3.57600E+000	9	...........
	16	0.226667	4.29001E-001	4.01844E-004	0.00000E+000	1.72392E-004	2.40040E-001	4.29086E-001	3.57600E+000	9	...........
	17	0.24	4.34361E-001	3.99482E-004	0.00000E+000	1.73520E-004	2.40040E-001	4.34446E-001	3.57600E+000	9	...........
	18	0.253333	4.39786E-001	4.01752E-004	0.00000E+000	1.76685E-004	2.40040E-001	4.39868E-001	3.57600E+000	9	...........
	19	0.266667	4.45212E-001	4.00706E-004	0.00000E+000	1.78399E-004	2.40040E-001	4.45298E-001	3.57600E+000	9	...........
	20	0.28	4.50495E-001	4.01064E-004	0.00000E+000	1.80677E-004	2.40040E-001	4.50579E-001	3.57600E+000	9	...........
	21	0.293333	4.55715E-001	4.01278E-004	0.00000E+000	1.82869E-004	2.40040E-001	4.55803E-001	3.57600E+000	9	...........
	22	0.306667	4.60819E-001	4.00299E-004	0.00000E+000	1.84465E-004	2.40040E-001	4.60908E-001	3.57600E+000	9	...........
	23	0.32	4.66041E-001	4.01704E-004	0.00000E+000	1.87210E-004	2.40040E-001	4.66126E-001	3.57600E+000	9	...........
	24	0.333333	4.71228E-001	4.00507E-004	0.00000E+000	1.88730E-004	2.40040E-001	4.71314E-001	3.57600E+000	9	...........
	25	0.346667	4.76289E-001	4.00594E-004	0.00000E+000	1.90798E-004	2.40040E-001	4.76375E-001	3.57600E+000	9	...........
	26	0.36	4.81318E-001	4.00790E-004	0.00000E+000	1.92907E-004	2.40040E-001	4.81405E-001	3.57600E+000	9	...........
	27	0.373333	4.86418E-001	4.00633E-004	0.00000E+000	1.94875E-004	2.40040E-001	4.86506E-001	3.57600E+000	9	...........
	28	0.386667	4.91447E-001	4.00565E-004	0.00000E+000	1.96856E-004	2.40040E-001	4.91537E-001	3.57600E+000	9	...........
	29	0.4	4.96574E-001	4.02980E-004	0.00000E+000	2.00109E-004	2.40040E-001	4.96664E-001	3.57600E+000	9	...........
	30	0.413333	5.01575E-001	4.01021E-004	0.00000E+000	2.01142E-004	2.40040E-001	5.01667E-001	3.57600E+000	9	...........
	31	0.426667	5.06559E-001	4.01968E-004	0.00000E+000	2.03621E-004	2.40040E-001	5.06657E-001	3.57600E+000	9	...........
	32	0.44	5.11503E-001	4.00817E-004	0.00000E+000	2.05019E-004	2.40040E-001	5.11598E-001	3.57600E+000	9	...........
	33	0.453333	5.16414E-001	4.00567E-004	0.00000E+000	2.06858E-004	2.40040E-001	5.16512E-001	3.57600E+000	9	...........
	34	0.466667	5.21389E-001	4.00732E-004	0.00000E+000	2.08938E-004	2.40040E-001	5.21490E-001	3.57600E+000	9	...........
	35	0.48	5.26261E-001	4.00153E-004	0.00000E+000	2.10585E-004	2.40040E-001	5.26363E-001	3.57600E+000	9	...........
	36	0.493333	5.31173E-001	4.00787E-004	0.00000E+000	2.12887E-004	2.40040E-001	5.31258E-001	3.57600E+000	9	...........
	37	0.506667	5.35828E-001	3.99467E-004	0.00000E+000	2.14045E-004	2.40040E-001	5.36049E-001	3.57600E+000	9	...........
	38	0.52	5.40811E-001	4.00803E-004	0.00000E+000	2.16759E-004	2.40040E-001	5.41035E-001	3.57600E+000	9	...........
	39	0.533333	5.45624E-001	4.03235E-004	0.00000E+000	2.20015E-004	2.40040E-001	5.45832E-001	3.57600E+000	9	...........
	40	0.546667	5.50429E-001	4.01438E-004	0.00000E+000	2.20963E-004	2.40040E-001	5.50642E-001	3.57600E+000	9	...........
	41	0.56	5.55287E-001	4.00176E-004	0.00000E+000	2.22212E-004	2.40040E-001	5.55499E-001	3.57600E+000	9	...........
	42	0.573333	5.60138E-001	4.00675E-004	0.00000E+000	2.24434E-004	2.40040E-001	5.60391E-001	3.57600E+000	9	...........
	43	0.586667	5.65080E-001	4.00390E-004	0.00000E+000	2.26252E-004	2.40040E-001	5.65302E-001	3.57600E+000	9	...........
	44	0.6	5.69862E-001	4.01225E-004	0.00000E+000	2.28643E-004	2.40040E-001	5.70071E-001	3.57600E+000	9	...........
	45	0.613333	5.74615E-001	4.01948E-004	0.00000E+000	2.30966E-004	2.40040E-001	5.74807E-001	3.57600E+000	9	...........
	46	0.626667	5.79397E-001	4.02035E-004	0.00000E+000	2.32938E-004	2.40040E-001	5.79616E-001	3.57600E+000	9	...........
	47	0.64	5.84225E-001	4.01251E-004	0.00000E+000	2.34421E-004	2.40040E-001	5.84413E-001	3.57600E+000	9	...........
	48	0.653333	5.89032E-001	4.01295E-004	0.00000E+000	2.36376E-004	2.40040E-001	5.89241E-001	3.57600E+000	9	...........
	49	0.666667	5.93862E-001	4.00312E-004	0.00000E+000	2.37730E-004	2.40040E-001	5.94046E-001	3.57600E+000	9	...........
	50	0.68	5.98668E-001	4.00744E-004	0.00000E+000	2.39912E-004	2.40040E-001	5.98863E-001	3.57600E+000	9	...........
	51	0.693333	6.03372E-001	4.00339E-004	0.00000E+000	2.41553E-004	2.40040E-001	6.03610E-001	3.57600E+000	9	...........
	52	0.706667	6.08055E-001	4.01298E-004	0.00000E+000	2.44011E-004	2.40040E-001	6.08287E-001	3.57600E+000	9	...........
	53	0.72	6.12808E-001	4.02606E-004	0.00000E+000	2.46720E-004	2.40040E-001	6.13028E-001	3.57600E+000	9	...........
	54	0.733333	6.17602E-001	4.00735E-004	0.00000E+000	2.47495E-004	2.40040E-001	6.17817E-001	3.57600E+000	9	...........
	55	0.746667	6.22336E-001	3.99777E-004	0.00000E+000	2.48796E-004	2.40040E-001	6.22507E-001	3.57600E+000	9	...........
	56	0.76	6.27019E-001	4.01600E-004	0.00000E+000	2.51811E-004	2.40040E-001	6.27232E-001	3.57600E+000	9	...........
	57	0.773333	6.31660E-001	4.01438E-004	0.00000E+000	2.53572E-004	2.40040E-001	6.31887E-001	3.57600E+000	9	...........
	58	0.786667	6.36302E-001	4.01114E-004	0.00000E+000	2.55229E-004	2.40040E-001	6.36532E-001	3.57600E+000	9	...........
	59	0.8	6.41063E-001	4.01525E-004	0.00000E+000	2.57403E-004	2.40040E-001	6.41279E-001	3.57600E+000	9	...........
	60	0.813333	6.45739E-001	4.00706E-004	0.00000E+000	2.58752E-004	2.40040E-001	6.45932E-001	3.57600E+000	9	...........
	61	0.826667	6.50368E-001	4.00854E-004	0.00000E+000	2.60703E-004	2.40040E-001	6.50588E-001	3.57600E+000	9	...........
	62	0.84	6.54998E-001	4.01112E-004	0.00000E+000	2.62728E-004	2.40040E-001	6.55214E-001	3.57600E+000	9	...........
	63	0.853333	6.59620E-001	3.99552E-004	0.00000E+000	2.63553E-004	2.40040E-001	6.59823E-001	3.57600E+000	9	...........
	64	0.866667	6.64229E-001	4.01905E-004	0.00000E+000	2.66957E-004	2.40040E-001	6.64479E-001	3.57600E+000	9	...........
	65	0.88	6.68876E-001	4.00776E-004	0.00000E+000	2.68070E-004	2.40040E-001	6.69105E-001	3.57600E+000	9	...........
	66	0.893333	6.73465E-001	4.01670E-004	0.00000E+000	2.70511E-004	2.40040E-001	6.73690E-001	3.57600E+000	9	...........
	67	0.906667	6.78066E-001	4.00507E-004	0.00000E+000	2.71570E-004	2.40040E-001	6.78308E-001	3.57600E+000	9	...........
	68	0.92	6.82721E-001	4.00279E-004	0.00000E+000	2.73279E-004	2.40040E-001	6.82945E-001	3.57600E+000	9	...........
	69	0.933333	6.87219E-001	4.01195E-004	0.00000E+000	2.75709E-004	2.40040E-001	6.87470E-001	3.57600E+000	9	...........
	70	0.946667	6.91743E-001	4.01070E-004	0.00000E+000	2.77438E-004	2.40040E-001	6.92010E-001	3.57600E+000	9	...........
	71	0.96	6.96343E-001	4.01179E-004	0.00000E+000	2.79358E-004	2.40040E-001	6.96585E-001	3.57600E+000	9	...........
	72	0.97333	7.00788E-001	4.00869E-004	0.00000E+000	2.80924E-004	2.40040E-001	7.01030E-001	3.57600E+000	9	...........
	73	0.98667	7.05262E-001	4.01396E-004	0.00000E+000	2.83089E-004	2.40040E-001	7.05476E-001	3.57600E+000	9	...........
	74	1	7.09779E-001	4.01064E-004	0.00000E+000	2.84667E-004	2.40040E-001	7.10010E-001	3.57600E+000	9	...........
	75	1.01333	7.14349E-001	3.99666E-004	0.00000E+000	2.85501E-004	2.40040E-001	7.14605E-001	3.57600E+000	9	...........
	76	1.02667	7.18877E-001	4.01655E-004	0.00000E+000	2.88740E-004	2.40040E-001	7.19119E-001	3.57600E+000	9	...........
	77	1.04	7.23351E-001	4.02292E-004	0.00000E+000	2.90999E-004	2.40040E-001	7.23568E-001	3.57600E+000	9	...........
	78	1.05333	7.27795E-001	4.00705E-004	0.00000E+000	2.91632E-004	2.40040E-001	7.28035E-001	3.57600E+000	9	...........
	79	1.06667	7.32272E-001	4.01119E-004	0.00000E+000	2.93728E-004	2.40040E-001	7.32530E-001	3.57600E+000	9	...........
	80	1.08	7.36659E-001	4.00520E-004	0.00000E+000	2.95046E-004	2.40040E-001	7.36904E-001	3.57600E+000	9	...........
	81	1.09333	7.41047E-001	4.01095E-004	0.00000E+000	2.97230E-004	2.40040E-001	7.41300E-001	3.57600E+000	9	...........
	82	1.10667	7.45461E-001	3.99164E-004	0.00000E+000	2.97561E-004	2.40040E-001	7.45731E-001	3.57600E+000	9	...........
	83	1.12	7.49924E-001	3.99723E-004	0.00000E+000	2.99762E-004	2.40040E-001	7.50170E-001	3.57600E+000	9	...........
	84	1.13333	7.54359E-001	4.00386E-004	0.00000E+000	3.02034E-004	2.40040E-001	7.54636E-001	3.57600E+000	9	...........
	85	1.14667	7.58814E-001	4.01202E-004	0.00000E+000	3.04438E-004	2.40040E-001	7.59061E-001	3.57600E+000	9	...........
	86	1.16	7.63156E-001	4.00321E-004	0.00000E+000	3.05507E-004	2.40040E-001	7.63412E-001	3.57600E+000	9	...........
	87	1.17333	7.67473E-001	3.99351E-004	0.00000E+000	3.06491E-004	2.40040E-001	7.67750E-001	3.57645E+000	9	...........
	88	1.18667	7.71839E-001	4.01549E-004	0.00000E+000	3.09931E-004	2.40040E-001	7.72102E-001	3.57660E+000	9	...........
	89	1.2	7.76178E-001	4.02088E-004	0.00000E+000	3.12092E-004	2.40040E-001	7.76449E-001	3.57660E+000	9	...........
	90	1.21333	7.80569E-001	4.00735E-004	0.00000E+000	3.12801E-004	2.40040E-001	7.80830E-001	3.57660E+000	9	...........
	91	1.22667	7.84829E-001	4.00239E-004	0.00000E+000	3.14119E-004	2.40040E-001	7.85069E-001	3.57660E+000	9	...........
	92	1.24	7.89031E-001	4.00875E-004	0.00000E+000	3.16303E-004	2.40040E-001	7.89284E-001	3.57660E+000	9	...........
	93	1.25333	7.93231E-001	4.00814E-004	0.00000E+000	3.17938E-004	2.40040E-001	7.93495E-001	3.57660E+000	9	...........
	94	1.26667	7.97479E-001	4.00799E-004	0.00000E+000	3.19629E-004	2.40040E-001	7.97678E-001	3.57660E+000	9	...........
	95	1.28	8.01645E-001	4.00675E-004	0.00000E+000	3.21199E-004	2.40040E-001	8.01851E-001	3.57660E+000	9	...........
	96	1.29333	8.05843E-001	4.01049E-004	0.00000E+000	3.23183E-004	2.40040E-001	8.06081E-001	3.57660E+000	9	...........
	97	1.30667	8.10037E-001	4.00004E-004	0.00000E+000	3.24018E-004	2.40040E-001	8.10270E-001	3.57660E+000	9	...........
	98	1.32	8.14199E-001	4.00811E-004	0.00000E+000	3.26339E-004	2.40040E-001	8.14411E-001	3.57660E+000	9	...........
	99	1.33333	8.18341E-001	4.01973E-004	0.00000E+000	3.28951E-004	2.40040E-001	8.18587E-001	3.57660E+000	9	...........
	100	1.34667	8.22492E-001	4.00700E-004	0.00000E+000	3.29573E-004	2.40040E-001	8.22740E-001	3.57660E+000	9	...........
	101	1.36	8.26653E-001	4.01492E-004	0.00000E+000	3.31895E-004	2.40040E-001	8.26896E-001	3.57660E+000	9	...........
	102	1.37333	8.30781E-001	4.01614E-004	0.00000E+000	3.33653E-004	2.40040E-001	8.31026E-001	3.57660E+000	9	...........
	103	1.38667	8.34850E-001	3.99906E-004	0.00000E+000	3.33862E-004	2.40040E-001	8.35108E-001	3.57660E+000	9	...........
	104	1.4	8.38948E-001	4.02087E-004	0.00000E+000	3.37330E-004	2.40040E-001	8.39192E-001	3.57660E+000	9	...........
	105	1.41333	8.43039E-001	4.01122E-004	0.00000E+000	3.38162E-004	2.40040E-001	8.43286E-001	3.57660E+000	9	...........
	106	1.42667	8.47021E-001	4.02066E-004	0.00000E+000	3.40558E-004	2.40040E-001	8.47291E-001	3.57660E+000	9	...........
	107	1.44	8.51067E-001	4.00304E-004	0.00000E+000	3.40686E-004	2.40040E-001	8.51338E-001	3.57660E+000	9	...........
	108	1.45333	8.55124E-001	4.00548E-004	0.00000E+000	3.42518E-004	2.40040E-001	8.55382E-001	3.57660E+000	9	...........
	109	1.46667	8.59104E-001	3.99680E-004	0.00000E+000	3.43367E-004	2.40040E-001	8.59369E-001	3.57660E+000	9	...........
	110	1.48	8.63054E-001	4.02060E-004	0.00000E+000	3.46999E-004	2.40040E-001	8.63321E-001	3.57660E+000	9	...........
	111	1.49333	8.66971E-001	4.01004E-004	0.00000E+000	3.47659E-004	2.40040E-001	8.67273E-001	3.57660E+000	9	...........
	112	1.50667	8.70862E-001	4.00777E-004	0.00000E+000	3.49022E-004	2.40040E-001	8.71148E-001	3.57660E+000	9	...........
	113	1.52	8.74675E-001	4.01583E-004	0.00000E+000	3.51254E-004	2.40040E-001	8.74963E-001	3.57660E+000	9	...........
	114	1.53333	8.78551E-001	3.99706E-004	0.00000E+000	3.51162E-004	2.40040E-001	8.78832E-001	3.57660E+000	9	...........
	115	1.54667	8.82399E-001	4.01390E-004	0.00000E+000	3.54186E-004	2.40040E-001	8.82699E-001	3.57660E+000	9	...........
	116	1.56	8.86254E-001	4.01391E-004	0.00000E+000	3.55734E-004	2.40040E-001	8.86538E-001	3.57660E+000	9	...........
	117	1.57333	8.90009E-001	4.01075E-004	0.00000E+000	3.56961E-004	2.40040E-001	8.90299E-001	3.57660E+000	9	...........
	118	1.58667	8.93766E-001	4.01004E-004	0.00000E+000	3.58404E-004	2.40040E-001	8.94074E-001	3.57660E+000	9	...........
	119	1.6	8.97483E-001	4.00471E-004	0.00000E+000	3.59416E-004	2.40040E-001	8.97778E-001	3.57660E+000	9	...........
	120	1.61333	9.01193E-001	4.00077E-004	0.00000E+000	3.60547E-004	2.40040E-001	9.01502E-001	3.57660E+000	9	...........
	121	1.62667	9.04885E-001	3.99967E-004	0.00000E+000	3.61924E-004	2.40040E-001	9.05193E-001	3.57660E+000	9	...........
	122	1.64	9.08563E-001	4.00436E-004	0.00000E+000	3.63821E-004	2.40040E-001	9.08889E-001	3.57660E+000	9	...........
	123	1.65333	9.12206E-001	4.00595E-004	0.00000E+000	3.65425E-004	2.40040E-001	9.12523E-001	3.57660E+000	9	...........
	124	1.66667	9.15764E-001	4.00264E-004	0.00000E+000	3.66547E-004	2.40040E-001	9.16085E-001	3.57660E+000	9	...........
	125	1.68	9.19354E-001	4.01074E-004	0.00000E+000	3.68729E-004	2.40040E-001	9.19667E-001	3.57660E+000	9	...........
	126	1.69333	9.22919E-001	4.00618E-004	0.00000E+000	3.69738E-004	2.40040E-001	9.23157E-001	3.57660E+000	9	...........
	127	1.70667	9.26439E-001	3.99656E-004	0.00000E+000	3.70257E-004	2.40040E-001	9.26730E-001	3.57660E+000	9	...........
	128	1.72	9.29923E-001	4.01496E-004	0.00000E+000	3.73360E-004	2.40040E-001	9.30188E-001	3.57660E+000	9	...........
	129	1.73333	9.33365E-001	4.00608E-004	0.00000E+000	3.73914E-004	2.40040E-001	9.33648E-001	3.57660E+000	9	...........
	130	1.74667	9.36743E-001	4.01287E-004	0.00000E+000	3.75902E-004	2.40040E-001	9.37048E-001	3.57660E+000	9	...........
	131	1.76	9.40203E-001	4.00382E-004	0.00000E+000	3.76441E-004	2.40040E-001	9.40516E-001	3.57660E+000	9	...........
	132	1.77333	9.43594E-001	4.00428E-004	0.00000E+000	3.77842E-004	2.40040E-001	9.43889E-001	3.57660E+000	9	...........
	133	1.78667	9.46988E-001	4.02150E-004	0.00000E+000	3.80832E-004	2.40040E-001	9.47258E-001	3.57660E+000	9	...........
	134	1.8	9.50331E-001	3.99696E-004	0.00000E+000	3.79843E-004	2.40040E-001	9.50598E-001	3.57660E+000	9	...........
	135	1.81333	9.53640E-001	4.01755E-004	0.00000E+000	3.83129E-004	2.40040E-001	9.53915E-001	3.57660E+000	9	...........
	136	1.82667	9.56879E-001	4.01398E-004	0.00000E+000	3.84089E-004	2.40040E-001	9.57148E-001	3.57660E+000	9	...........
	137	1.84	9.60156E-001	4.00648E-004	0.00000E+000	3.84685E-004	2.40040E-001	9.60451E-001	3.57660E+000	9	...........
	138	1.85333	9.63386E-001	4.00999E-004	0.00000E+000	3.86317E-004	2.40040E-001	9.63699E-001	3.57660E+000	9	...........
	139	1.86667	9.66585E-001	4.02308E-004	0.00000E+000	3.88865E-004	2.40040E-001	9.66884E-001	3.57660E+000	9	...........
	140	1.88	9.69774E-001	4.00239E-004	0.00000E+000	3.88141E-004	2.40040E-001	9.70078E-001	3.57660E+000	9	...........
	141	1.89333	9.72910E-001	3.99622E-004	0.00000E+000	3.88796E-004	2.40040E-001	9.73233E-001	3.57660E+000	9	...........
	142	1.90667	9.75956E-001	4.00954E-004	0.00000E+000	3.91314E-004	2.40040E-001	9.76266E-001	3.57660E+000	9	...........
	143	1.92	9.79033E-001	4.00863E-004	0.00000E+000	3.92458E-004	2.40040E-001	9.79336E-001	3.57660E+000	9	...........
	144	1.93333	9.82021E-001	4.00033E-004	0.00000E+000	3.92841E-004	2.40040E-001	9.82352E-001	3.57660E+000	9	...........
	145	1.94667	9.85037E-001	4.02152E-004	0.00000E+000	3.96134E-004	2.40040E-001	9.85365E-001	3.57660E+000	9	...........
	146	1.96	9.87938E-001	4.00739E-004	0.00000E+000	3.95905E-004	2.40040E-001	9.88272E-001	3.57660E+000	9	...........
	147	1.97333	9.90879E-001	4.00558E-004	0.00000E+000	3.96905E-004	2.40040E-001	9.91186E-001	3.57660E+000	9	...........
	148	1.98667	9.93781E-001	4.00740E-004	0.00000E+000	3.98248E-004	2.40040E-001	9.94114E-001	3.57660E+000	9	...........
	149	2	9.96620E-001	4.01755E-004	0.00000E+000	4.00397E-004	2.40040E-001	9.96994E-001	3.57660E+000	9	...........
	150	2.01	9.99152E-001	4.01534E-004	0.00000E+000	4.01194E-004	2.40040E-001	9.99487E-001	3.57660E+000	9	...........
STARTTIMEOFFSET	QUANT	104.56	Start Time Offset (s)
