EXPLAIN
TAG	PWR800_CHARGE
TITLE	LABEL	PWR Cyclic Charge Discharge (Cell) - Charge Step	Test &Identifier
DATE	LABEL	12-7-2017	Date
TIME	LABEL	14:39:27	Time
NOTES	NOTES	3	&Notes...
	supercap test cell
	0.4mg
	6M KOH
PSTAT	PSTAT	IFC5000-01520	Potentiostat
CAPACITY	QUANT	1.00000E-003	Capacity (A-hr)
CELLTYPE	SELECTOR	1	&Cell Type
WORKINGCONNECTION	SELECTOR	0	&Working Lead
MAXCHARGETIME	VARIABLEANDUNITS	1.00000E+002	s	1.00000E+002	second(s)	Max &Charge Time
CHARGECURRENT	QUANT	4.00000E-004	&Charge Current (A) 
VOLTAGEFINISH	TWOPARAM	F	1.00000E-003	3.60000E+003	&Voltage Finish	 I (A) < 	Max Time(s)
SAMPLETIME	QUANT	1.00000E-002	Sa&mple Period (s)
CHARGESTOPAT1	MULTIPARAM	4	1.00000E+000	Charge Stop At &1	Voltage > Limit	V
CHARGESTOPAT2	MULTIPARAM	0	0.00000E+000	Charge Stop At &2	None	N/A
AESBHCSELECTOR	TOGGLE	F	Save Both Half Cells
IRCOMP	TOGGLE	F	IR &Measure
EOC	QUANT	0	Open Circuit (V)
SEQUENCER	TOGGLE	TRUE	Run as Sequence
PSTATMODEL	IQUANT	53	Pstat Model
PSTATSECTION	LABEL	IFC5000-01520	Pstat Section
PSTATSERIALNO	LABEL	01520	Pstat Serial Number
CTRLMODE	IQUANT	0	Control Mode
ELECTROMETER	IQUANT	1	RE=0 or CS=1
IESTAB	IQUANT	0	I/E Stability
CASPEED	IQUANT	4	Control Amp Speed
CONVENTION	IQUANT	1	Current Convention
ICHRANGE	IQUANT	2	Ich Range
ICHRANGEMODE	TOGGLE	T	Ich Auto Range
ICHOFFSETENABLE	TOGGLE	F	Ich Offset Enable
ICHOFFSET	QUANT	0	Ich Offset (V)
ICHFILTER	IQUANT	1	Ich Filter
VCHRANGE	IQUANT	2	Vch Range
VCHRANGEMODE	TOGGLE	T	Vch Auto Range
VCHOFFSETENABLE	TOGGLE	F	Vch Offset Enable
VCHOFFSET	QUANT	0	Vch Offset (V)
VCHFILTER	IQUANT	1	Vch Filter
IERANGELOWERLIMIT	IQUANT	9	I/E Range Lower Limit
IERANGEMODE	TOGGLE	F	I/E AutoRange
IERANGE	IQUANT	9	I/E Range
ACHSELECT	IQUANT	1	Ach Select
ACHRANGE	IQUANT	2	Ach Range
ACHOFFSETENABLE	TOGGLE	F	Ach Offset Enable
ACHOFFSET	QUANT	0	Ach Offset (V)
ACHFILTER	IQUANT	1	Ach Filter
CABLEID	IQUANT	14	Cable ID
DCCALDATE	LABEL	5-7-2017	DC Calibration Date
ACCALDATE	LABEL	12/3/2015	AC Calibration Date
FRAMEWORKVERSION	QUANT	7.01	Framework Version
INSTRUMENTVERSION	LABEL	4.00	Instrument Version
CURVE	TABLE	125
	Pt	T	Vf	Im	Vu	Pwr	Sig	Ach	Temp	IERange	Over
	#	s	V	A	V	W	V	V	deg C	#	bits
	0	0.013333	3.51807E-001	3.99961E-004	0.00000E+000	1.40709E-004	2.40040E-001	3.51894E-001	3.57650E+000	9	...........
	1	0.026667	3.62713E-001	3.99226E-004	0.00000E+000	1.44804E-004	2.40040E-001	3.62781E-001	3.57650E+000	9	...........
	2	0.04	3.72156E-001	4.01537E-004	0.00000E+000	1.49434E-004	2.40040E-001	3.72226E-001	3.57650E+000	9	...........
	3	0.053333	3.80744E-001	4.01669E-004	0.00000E+000	1.52933E-004	2.40040E-001	3.80809E-001	3.57650E+000	9	...........
	4	0.066667	3.88802E-001	4.01336E-004	0.00000E+000	1.56040E-004	2.40040E-001	3.88874E-001	3.57650E+000	9	...........
	5	0.08	3.96465E-001	4.00297E-004	0.00000E+000	1.58704E-004	2.40040E-001	3.96540E-001	3.57650E+000	9	...........
	6	0.093333	4.03864E-001	4.01495E-004	0.00000E+000	1.62149E-004	2.40040E-001	4.03942E-001	3.57650E+000	9	...........
	7	0.106667	4.11094E-001	4.01266E-004	0.00000E+000	1.64958E-004	2.40040E-001	4.11177E-001	3.57650E+000	9	...........
	8	0.12	4.18135E-001	4.01044E-004	0.00000E+000	1.67691E-004	2.40040E-001	4.18224E-001	3.57650E+000	9	...........
	9	0.133333	4.24956E-001	4.01008E-004	0.00000E+000	1.70410E-004	2.40040E-001	4.25041E-001	3.57650E+000	9	...........
	10	0.146667	4.31682E-001	4.02318E-004	0.00000E+000	1.73674E-004	2.40040E-001	4.31770E-001	3.57650E+000	9	...........
	11	0.16	4.38336E-001	4.01931E-004	0.00000E+000	1.76181E-004	2.40040E-001	4.38423E-001	3.57650E+000	9	...........
	12	0.173333	4.44881E-001	4.00375E-004	0.00000E+000	1.78119E-004	2.40040E-001	4.44967E-001	3.57650E+000	9	...........
	13	0.186667	4.51358E-001	4.01559E-004	0.00000E+000	1.81247E-004	2.40040E-001	4.51450E-001	3.57650E+000	9	...........
	14	0.2	4.57797E-001	4.01346E-004	0.00000E+000	1.83735E-004	2.40040E-001	4.57885E-001	3.57650E+000	9	...........
	15	0.213333	4.64201E-001	4.01109E-004	0.00000E+000	1.86195E-004	2.40040E-001	4.64290E-001	3.57650E+000	9	...........
	16	0.226667	4.70392E-001	4.01720E-004	0.00000E+000	1.88966E-004	2.40040E-001	4.70481E-001	3.57650E+000	9	...........
	17	0.24	4.76532E-001	4.00545E-004	0.00000E+000	1.90873E-004	2.40040E-001	4.76628E-001	3.57650E+000	9	...........
	18	0.253333	4.82645E-001	4.01148E-004	0.00000E+000	1.93612E-004	2.40040E-001	4.82740E-001	3.57650E+000	9	...........
	19	0.266667	4.88758E-001	4.01756E-004	0.00000E+000	1.96361E-004	2.40040E-001	4.88857E-001	3.57650E+000	9	...........
	20	0.28	4.94794E-001	4.00681E-004	0.00000E+000	1.98255E-004	2.40040E-001	4.94898E-001	3.57650E+000	9	...........
	21	0.293333	5.00735E-001	4.00921E-004	0.00000E+000	2.00755E-004	2.40040E-001	5.00839E-001	3.57650E+000	9	...........
	22	0.306667	5.06711E-001	4.01295E-004	0.00000E+000	2.03341E-004	2.40040E-001	5.06819E-001	3.57650E+000	9	...........
	23	0.32	5.12640E-001	4.01294E-004	0.00000E+000	2.05719E-004	2.40040E-001	5.12745E-001	3.57650E+000	9	...........
	24	0.333333	5.18476E-001	4.01759E-004	0.00000E+000	2.08302E-004	2.40040E-001	5.18582E-001	3.57650E+000	9	...........
	25	0.346667	5.24296E-001	4.00117E-004	0.00000E+000	2.09780E-004	2.40040E-001	5.24406E-001	3.57650E+000	9	...........
	26	0.36	5.30108E-001	4.01504E-004	0.00000E+000	2.12841E-004	2.40040E-001	5.30218E-001	3.57650E+000	9	...........
	27	0.373333	5.35653E-001	4.00469E-004	0.00000E+000	2.14512E-004	2.40040E-001	5.35841E-001	3.57650E+000	9	...........
	28	0.386667	5.41393E-001	4.00843E-004	0.00000E+000	2.17013E-004	2.40040E-001	5.41607E-001	3.57650E+000	9	...........
	29	0.4	5.47110E-001	4.00724E-004	0.00000E+000	2.19240E-004	2.40040E-001	5.47309E-001	3.57650E+000	9	...........
	30	0.413333	5.52863E-001	4.01471E-004	0.00000E+000	2.21959E-004	2.40040E-001	5.53090E-001	3.57650E+000	9	...........
	31	0.426667	5.58577E-001	4.01587E-004	0.00000E+000	2.24317E-004	2.40040E-001	5.58791E-001	3.57650E+000	9	...........
	32	0.44	5.64270E-001	4.01535E-004	0.00000E+000	2.26574E-004	2.40040E-001	5.64517E-001	3.57650E+000	9	...........
	33	0.453333	5.69941E-001	4.01031E-004	0.00000E+000	2.28564E-004	2.40040E-001	5.70155E-001	3.57650E+000	9	...........
	34	0.466667	5.75582E-001	4.00057E-004	0.00000E+000	2.30266E-004	2.40040E-001	5.75817E-001	3.57650E+000	9	...........
	35	0.48	5.81208E-001	4.00619E-004	0.00000E+000	2.32843E-004	2.40040E-001	5.81466E-001	3.57650E+000	9	...........
	36	0.493333	5.86865E-001	3.99082E-004	0.00000E+000	2.34207E-004	2.40040E-001	5.87123E-001	3.57650E+000	9	...........
	37	0.506667	5.92414E-001	4.00276E-004	0.00000E+000	2.37129E-004	2.40040E-001	5.92655E-001	3.57650E+000	9	...........
	38	0.52	5.97905E-001	4.00681E-004	0.00000E+000	2.39569E-004	2.40040E-001	5.98142E-001	3.57650E+000	9	...........
	39	0.533333	6.03457E-001	4.00831E-004	0.00000E+000	2.41885E-004	2.40040E-001	6.03718E-001	3.57650E+000	9	...........
	40	0.546667	6.08969E-001	4.01224E-004	0.00000E+000	2.44333E-004	2.40040E-001	6.09223E-001	3.57660E+000	9	...........
	41	0.56	6.14516E-001	4.01770E-004	0.00000E+000	2.46894E-004	2.40040E-001	6.14747E-001	3.57670E+000	9	...........
	42	0.573333	6.20037E-001	4.01900E-004	0.00000E+000	2.49193E-004	2.40040E-001	6.20261E-001	3.57670E+000	9	...........
	43	0.586667	6.25515E-001	4.00964E-004	0.00000E+000	2.50809E-004	2.40040E-001	6.25729E-001	3.57670E+000	9	...........
	44	0.6	6.30987E-001	4.00842E-004	0.00000E+000	2.52926E-004	2.40040E-001	6.31188E-001	3.57670E+000	9	...........
	45	0.613333	6.36462E-001	4.01229E-004	0.00000E+000	2.55367E-004	2.40040E-001	6.36682E-001	3.57670E+000	9	...........
	46	0.626667	6.41910E-001	4.00341E-004	0.00000E+000	2.56983E-004	2.40040E-001	6.42148E-001	3.57670E+000	9	...........
	47	0.64	6.47319E-001	4.00996E-004	0.00000E+000	2.59573E-004	2.40040E-001	6.47546E-001	3.57670E+000	9	...........
	48	0.653333	6.52708E-001	4.01545E-004	0.00000E+000	2.62092E-004	2.40040E-001	6.52981E-001	3.57670E+000	9	...........
	49	0.666667	6.58136E-001	4.01332E-004	0.00000E+000	2.64131E-004	2.40040E-001	6.58387E-001	3.57670E+000	9	...........
	50	0.68	6.63457E-001	4.00347E-004	0.00000E+000	2.65613E-004	2.40040E-001	6.63713E-001	3.57670E+000	9	...........
	51	0.693333	6.68814E-001	4.00058E-004	0.00000E+000	2.67564E-004	2.40040E-001	6.69063E-001	3.57670E+000	9	...........
	52	0.706667	6.74141E-001	4.01296E-004	0.00000E+000	2.70530E-004	2.40040E-001	6.74384E-001	3.57670E+000	9	...........
	53	0.72	6.79463E-001	4.02538E-004	0.00000E+000	2.73510E-004	2.40040E-001	6.79719E-001	3.57670E+000	9	...........
	54	0.733333	6.84762E-001	4.00580E-004	0.00000E+000	2.74302E-004	2.40040E-001	6.85018E-001	3.57670E+000	9	...........
	55	0.746667	6.90049E-001	4.00736E-004	0.00000E+000	2.76527E-004	2.40040E-001	6.90325E-001	3.57670E+000	9	...........
	56	0.76	6.95383E-001	3.99983E-004	0.00000E+000	2.78142E-004	2.40040E-001	6.95665E-001	3.57670E+000	9	...........
	57	0.773333	7.00649E-001	4.01274E-004	0.00000E+000	2.81152E-004	2.40040E-001	7.00939E-001	3.57670E+000	9	...........
	58	0.786667	7.05907E-001	4.00359E-004	0.00000E+000	2.82617E-004	2.40040E-001	7.06185E-001	3.57670E+000	9	...........
	59	0.8	7.11152E-001	4.01496E-004	0.00000E+000	2.85525E-004	2.40040E-001	7.11416E-001	3.57670E+000	9	...........
	60	0.813333	7.16396E-001	3.99950E-004	0.00000E+000	2.86523E-004	2.40040E-001	7.16665E-001	3.57670E+000	9	...........
	61	0.826667	7.21604E-001	4.01325E-004	0.00000E+000	2.89598E-004	2.40040E-001	7.21830E-001	3.57670E+000	9	...........
	62	0.84	7.26800E-001	4.01160E-004	0.00000E+000	2.91563E-004	2.40040E-001	7.27044E-001	3.57670E+000	9	...........
	63	0.853333	7.31982E-001	4.02118E-004	0.00000E+000	2.94343E-004	2.40040E-001	7.32248E-001	3.57670E+000	9	...........
	64	0.866667	7.37204E-001	4.01070E-004	0.00000E+000	2.95670E-004	2.40040E-001	7.37446E-001	3.57670E+000	9	...........
	65	0.88	7.42367E-001	4.01716E-004	0.00000E+000	2.98221E-004	2.40040E-001	7.42624E-001	3.57670E+000	9	...........
	66	0.893333	7.47520E-001	4.02045E-004	0.00000E+000	3.00537E-004	2.40040E-001	7.47753E-001	3.57670E+000	9	...........
	67	0.906667	7.52607E-001	4.01915E-004	0.00000E+000	3.02484E-004	2.40040E-001	7.52866E-001	3.57670E+000	9	...........
	68	0.92	7.57720E-001	3.99941E-004	0.00000E+000	3.03043E-004	2.40040E-001	7.57961E-001	3.57670E+000	9	...........
	69	0.933333	7.62796E-001	4.01877E-004	0.00000E+000	3.06550E-004	2.40040E-001	7.63039E-001	3.57670E+000	9	...........
	70	0.946667	7.67831E-001	4.01239E-004	0.00000E+000	3.08084E-004	2.40040E-001	7.68091E-001	3.57670E+000	9	...........
	71	0.96	7.72895E-001	4.01930E-004	0.00000E+000	3.10649E-004	2.40040E-001	7.73152E-001	3.57670E+000	9	...........
	72	0.97333	7.77951E-001	4.00191E-004	0.00000E+000	3.11329E-004	2.40040E-001	7.78190E-001	3.57670E+000	9	...........
	73	0.98667	7.82921E-001	4.00738E-004	0.00000E+000	3.13746E-004	2.40040E-001	7.83207E-001	3.57670E+000	9	...........
	74	1	7.87929E-001	4.00869E-004	0.00000E+000	3.15856E-004	2.40040E-001	7.88184E-001	3.57670E+000	9	...........
	75	1.01333	7.92944E-001	4.01967E-004	0.00000E+000	3.18738E-004	2.40040E-001	7.93189E-001	3.57670E+000	9	...........
	76	1.02667	7.97935E-001	3.99997E-004	0.00000E+000	3.19172E-004	2.40040E-001	7.98163E-001	3.57670E+000	9	...........
	77	1.04	8.02834E-001	4.02056E-004	0.00000E+000	3.22784E-004	2.40040E-001	8.03095E-001	3.57670E+000	9	...........
	78	1.05333	8.07729E-001	4.01496E-004	0.00000E+000	3.24300E-004	2.40040E-001	8.07983E-001	3.57670E+000	9	...........
	79	1.06667	8.12571E-001	4.01075E-004	0.00000E+000	3.25902E-004	2.40040E-001	8.12822E-001	3.57670E+000	9	...........
	80	1.08	8.17375E-001	4.01426E-004	0.00000E+000	3.28116E-004	2.40040E-001	8.17656E-001	3.57670E+000	9	...........
	81	1.09333	8.22214E-001	4.01073E-004	0.00000E+000	3.29768E-004	2.40040E-001	8.22485E-001	3.57670E+000	9	...........
	82	1.10667	8.27026E-001	4.00065E-004	0.00000E+000	3.30864E-004	2.40040E-001	8.27271E-001	3.57670E+000	9	...........
	83	1.12	8.31731E-001	4.01254E-004	0.00000E+000	3.33736E-004	2.40040E-001	8.32006E-001	3.57670E+000	9	...........
	84	1.13333	8.36402E-001	4.01276E-004	0.00000E+000	3.35628E-004	2.40040E-001	8.36711E-001	3.57670E+000	9	...........
	85	1.14667	8.41031E-001	4.00169E-004	0.00000E+000	3.36554E-004	2.40040E-001	8.41322E-001	3.57670E+000	9	...........
	86	1.16	8.45716E-001	4.00195E-004	0.00000E+000	3.38451E-004	2.40040E-001	8.45998E-001	3.57670E+000	9	...........
	87	1.17333	8.50391E-001	4.00937E-004	0.00000E+000	3.40953E-004	2.40040E-001	8.50684E-001	3.57670E+000	9	...........
	88	1.18667	8.55044E-001	4.01559E-004	0.00000E+000	3.43350E-004	2.40040E-001	8.55317E-001	3.57670E+000	9	...........
	89	1.2	8.59594E-001	3.99953E-004	0.00000E+000	3.43797E-004	2.40040E-001	8.59876E-001	3.57670E+000	9	...........
	90	1.21333	8.64088E-001	4.00457E-004	0.00000E+000	3.46031E-004	2.40040E-001	8.64391E-001	3.57670E+000	9	...........
	91	1.22667	8.68630E-001	4.01026E-004	0.00000E+000	3.48343E-004	2.40040E-001	8.68928E-001	3.57670E+000	9	...........
	92	1.24	8.73164E-001	4.01158E-004	0.00000E+000	3.50276E-004	2.40040E-001	8.73466E-001	3.57670E+000	9	...........
	93	1.25333	8.77622E-001	4.01174E-004	0.00000E+000	3.52079E-004	2.40040E-001	8.77906E-001	3.57670E+000	9	...........
	94	1.26667	8.82077E-001	4.01590E-004	0.00000E+000	3.54233E-004	2.40040E-001	8.82378E-001	3.57670E+000	9	...........
	95	1.28	8.86452E-001	4.01129E-004	0.00000E+000	3.55582E-004	2.40040E-001	8.86752E-001	3.57670E+000	9	...........
	96	1.29333	8.90796E-001	4.02159E-004	0.00000E+000	3.58241E-004	2.40040E-001	8.91075E-001	3.57670E+000	9	...........
	97	1.30667	8.95126E-001	4.00244E-004	0.00000E+000	3.58269E-004	2.40040E-001	8.95455E-001	3.57670E+000	9	...........
	98	1.32	8.99336E-001	4.00927E-004	0.00000E+000	3.60568E-004	2.40040E-001	8.99677E-001	3.57670E+000	9	...........
	99	1.33333	9.03630E-001	4.00811E-004	0.00000E+000	3.62185E-004	2.40040E-001	9.03963E-001	3.57670E+000	9	...........
	100	1.34667	9.07837E-001	4.01610E-004	0.00000E+000	3.64596E-004	2.40040E-001	9.08173E-001	3.57670E+000	9	...........
	101	1.36	9.11999E-001	4.01633E-004	0.00000E+000	3.66288E-004	2.40040E-001	9.12319E-001	3.57670E+000	9	...........
	102	1.37333	9.16139E-001	4.01612E-004	0.00000E+000	3.67932E-004	2.40040E-001	9.16459E-001	3.57670E+000	9	...........
	103	1.38667	9.20285E-001	4.00454E-004	0.00000E+000	3.68532E-004	2.40040E-001	9.20604E-001	3.57670E+000	9	...........
	104	1.4	9.24379E-001	4.01193E-004	0.00000E+000	3.70854E-004	2.40040E-001	9.24635E-001	3.57670E+000	9	...........
	105	1.41333	9.28388E-001	4.00995E-004	0.00000E+000	3.72279E-004	2.40040E-001	9.28669E-001	3.57670E+000	9	...........
	106	1.42667	9.32432E-001	4.00729E-004	0.00000E+000	3.73653E-004	2.40040E-001	9.32728E-001	3.57670E+000	9	...........
	107	1.44	9.36493E-001	4.01995E-004	0.00000E+000	3.76466E-004	2.40040E-001	9.36782E-001	3.57670E+000	9	...........
	108	1.45333	9.40463E-001	4.00237E-004	0.00000E+000	3.76408E-004	2.40040E-001	9.40775E-001	3.57670E+000	9	...........
	109	1.46667	9.44417E-001	4.02024E-004	0.00000E+000	3.79679E-004	2.40040E-001	9.44726E-001	3.57670E+000	9	...........
	110	1.48	9.48339E-001	3.99264E-004	0.00000E+000	3.78638E-004	2.40040E-001	9.48620E-001	3.57670E+000	9	...........
	111	1.49333	9.52175E-001	4.00614E-004	0.00000E+000	3.81454E-004	2.40040E-001	9.52484E-001	3.57670E+000	9	...........
	112	1.50667	9.56014E-001	4.01626E-004	0.00000E+000	3.83960E-004	2.40040E-001	9.56274E-001	3.57670E+000	9	...........
	113	1.52	9.59797E-001	4.00790E-004	0.00000E+000	3.84677E-004	2.40040E-001	9.60093E-001	3.57670E+000	9	...........
	114	1.53333	9.63459E-001	4.00624E-004	0.00000E+000	3.85985E-004	2.40040E-001	9.63773E-001	3.57670E+000	9	...........
	115	1.54667	9.67134E-001	4.01435E-004	0.00000E+000	3.88241E-004	2.40040E-001	9.67421E-001	3.57635E+000	9	...........
	116	1.56	9.70789E-001	3.99476E-004	0.00000E+000	3.87807E-004	2.40040E-001	9.71109E-001	3.57600E+000	9	...........
	117	1.57333	9.74453E-001	4.00363E-004	0.00000E+000	3.90134E-004	2.40040E-001	9.74749E-001	3.57600E+000	9	...........
	118	1.58667	9.78052E-001	4.01009E-004	0.00000E+000	3.92207E-004	2.40040E-001	9.78359E-001	3.57600E+000	9	...........
	119	1.6	9.81667E-001	4.02579E-004	0.00000E+000	3.95198E-004	2.40040E-001	9.81964E-001	3.57600E+000	9	...........
	120	1.61333	9.85149E-001	4.00453E-004	0.00000E+000	3.94506E-004	2.40040E-001	9.85475E-001	3.57600E+000	9	...........
	121	1.62667	9.88607E-001	4.00275E-004	0.00000E+000	3.95715E-004	2.40040E-001	9.88952E-001	3.57600E+000	9	...........
	122	1.64	9.92086E-001	4.00428E-004	0.00000E+000	3.97259E-004	2.40040E-001	9.92399E-001	3.57600E+000	9	...........
	123	1.65333	9.95461E-001	4.02628E-004	0.00000E+000	4.00800E-004	2.40040E-001	9.95780E-001	3.57600E+000	9	...........
	124	1.66667	9.98861E-001	4.00662E-004	0.00000E+000	4.00205E-004	2.40040E-001	9.99196E-001	3.57600E+000	9	...........
STARTTIMEOFFSET	QUANT	1001.335	Start Time Offset (s)
