EXPLAIN
TAG	PWR800_CHARGE
TITLE	LABEL	PWR Cyclic Charge Discharge (Cell) - Charge Step	Test &Identifier
DATE	LABEL	12-7-2017	Date
TIME	LABEL	14:42:30	Time
NOTES	NOTES	3	&Notes...
	supercap test cell
	0.4mg
	6M KOH
PSTAT	PSTAT	IFC5000-01520	Potentiostat
CAPACITY	QUANT	1.00000E-003	Capacity (A-hr)
CELLTYPE	SELECTOR	1	&Cell Type
WORKINGCONNECTION	SELECTOR	0	&Working Lead
MAXCHARGETIME	VARIABLEANDUNITS	1.00000E+002	s	1.00000E+002	second(s)	Max &Charge Time
CHARGECURRENT	QUANT	4.00000E-004	&Charge Current (A) 
VOLTAGEFINISH	TWOPARAM	F	1.00000E-003	3.60000E+003	&Voltage Finish	 I (A) < 	Max Time(s)
SAMPLETIME	QUANT	1.00000E-002	Sa&mple Period (s)
CHARGESTOPAT1	MULTIPARAM	4	1.00000E+000	Charge Stop At &1	Voltage > Limit	V
CHARGESTOPAT2	MULTIPARAM	0	0.00000E+000	Charge Stop At &2	None	N/A
AESBHCSELECTOR	TOGGLE	F	Save Both Half Cells
IRCOMP	TOGGLE	F	IR &Measure
EOC	QUANT	0	Open Circuit (V)
SEQUENCER	TOGGLE	TRUE	Run as Sequence
PSTATMODEL	IQUANT	53	Pstat Model
PSTATSECTION	LABEL	IFC5000-01520	Pstat Section
PSTATSERIALNO	LABEL	01520	Pstat Serial Number
CTRLMODE	IQUANT	0	Control Mode
ELECTROMETER	IQUANT	1	RE=0 or CS=1
IESTAB	IQUANT	0	I/E Stability
CASPEED	IQUANT	4	Control Amp Speed
CONVENTION	IQUANT	1	Current Convention
ICHRANGE	IQUANT	2	Ich Range
ICHRANGEMODE	TOGGLE	T	Ich Auto Range
ICHOFFSETENABLE	TOGGLE	F	Ich Offset Enable
ICHOFFSET	QUANT	0	Ich Offset (V)
ICHFILTER	IQUANT	1	Ich Filter
VCHRANGE	IQUANT	2	Vch Range
VCHRANGEMODE	TOGGLE	T	Vch Auto Range
VCHOFFSETENABLE	TOGGLE	F	Vch Offset Enable
VCHOFFSET	QUANT	0	Vch Offset (V)
VCHFILTER	IQUANT	1	Vch Filter
IERANGELOWERLIMIT	IQUANT	9	I/E Range Lower Limit
IERANGEMODE	TOGGLE	F	I/E AutoRange
IERANGE	IQUANT	9	I/E Range
ACHSELECT	IQUANT	1	Ach Select
ACHRANGE	IQUANT	2	Ach Range
ACHOFFSETENABLE	TOGGLE	F	Ach Offset Enable
ACHOFFSET	QUANT	0	Ach Offset (V)
ACHFILTER	IQUANT	1	Ach Filter
CABLEID	IQUANT	14	Cable ID
DCCALDATE	LABEL	5-7-2017	DC Calibration Date
ACCALDATE	LABEL	12/3/2015	AC Calibration Date
FRAMEWORKVERSION	QUANT	7.01	Framework Version
INSTRUMENTVERSION	LABEL	4.00	Instrument Version
CURVE	TABLE	123
	Pt	T	Vf	Im	Vu	Pwr	Sig	Ach	Temp	IERange	Over
	#	s	V	A	V	W	V	V	deg C	#	bits
	0	0.013333	3.55944E-001	4.00473E-004	0.00000E+000	1.42546E-004	2.40040E-001	3.56035E-001	3.57670E+000	9	...........
	1	0.026667	3.67008E-001	4.01580E-004	0.00000E+000	1.47383E-004	2.40040E-001	3.67087E-001	3.57670E+000	9	...........
	2	0.04	3.76411E-001	4.00998E-004	0.00000E+000	1.50940E-004	2.40040E-001	3.76488E-001	3.57670E+000	9	...........
	3	0.053333	3.85045E-001	4.01338E-004	0.00000E+000	1.54533E-004	2.40040E-001	3.85120E-001	3.57670E+000	9	...........
	4	0.066667	3.93130E-001	4.01087E-004	0.00000E+000	1.57679E-004	2.40040E-001	3.93206E-001	3.57670E+000	9	...........
	5	0.08	4.00894E-001	4.01202E-004	0.00000E+000	1.60840E-004	2.40040E-001	4.00971E-001	3.57670E+000	9	...........
	6	0.093333	4.08395E-001	4.01968E-004	0.00000E+000	1.64162E-004	2.40040E-001	4.08475E-001	3.57670E+000	9	...........
	7	0.106667	4.15624E-001	4.00393E-004	0.00000E+000	1.66413E-004	2.40040E-001	4.15710E-001	3.57670E+000	9	...........
	8	0.12	4.22604E-001	4.00456E-004	0.00000E+000	1.69235E-004	2.40040E-001	4.22693E-001	3.57670E+000	9	...........
	9	0.133333	4.29520E-001	4.01590E-004	0.00000E+000	1.72491E-004	2.40040E-001	4.29615E-001	3.57670E+000	9	...........
	10	0.146667	4.36255E-001	4.01397E-004	0.00000E+000	1.75111E-004	2.40040E-001	4.36344E-001	3.57670E+000	9	...........
	11	0.16	4.42872E-001	4.01026E-004	0.00000E+000	1.77603E-004	2.40040E-001	4.42967E-001	3.57670E+000	9	...........
	12	0.173333	4.49439E-001	4.02370E-004	0.00000E+000	1.80841E-004	2.40040E-001	4.49536E-001	3.57670E+000	9	...........
	13	0.186667	4.55911E-001	4.02123E-004	0.00000E+000	1.83333E-004	2.40040E-001	4.56008E-001	3.57670E+000	9	...........
	14	0.2	4.62378E-001	4.01946E-004	0.00000E+000	1.85851E-004	2.40040E-001	4.62476E-001	3.57670E+000	9	...........
	15	0.213333	4.68730E-001	4.00219E-004	0.00000E+000	1.87595E-004	2.40040E-001	4.68828E-001	3.57670E+000	9	...........
	16	0.226667	4.74980E-001	3.99839E-004	0.00000E+000	1.89915E-004	2.40040E-001	4.75076E-001	3.57670E+000	9	...........
	17	0.24	4.81252E-001	4.02093E-004	0.00000E+000	1.93508E-004	2.40040E-001	4.81354E-001	3.57670E+000	9	...........
	18	0.253333	4.87533E-001	4.00835E-004	0.00000E+000	1.95420E-004	2.40040E-001	4.87632E-001	3.57670E+000	9	...........
	19	0.266667	4.93568E-001	4.00176E-004	0.00000E+000	1.97514E-004	2.40040E-001	4.93672E-001	3.57670E+000	9	...........
	20	0.28	4.99575E-001	4.01944E-004	0.00000E+000	2.00801E-004	2.40040E-001	4.99683E-001	3.57670E+000	9	...........
	21	0.293333	5.05592E-001	4.00632E-004	0.00000E+000	2.02557E-004	2.40040E-001	5.05701E-001	3.57670E+000	9	...........
	22	0.306667	5.11627E-001	4.00837E-004	0.00000E+000	2.05079E-004	2.40040E-001	5.11732E-001	3.57670E+000	9	...........
	23	0.32	5.17591E-001	4.00880E-004	0.00000E+000	2.07492E-004	2.40040E-001	5.17704E-001	3.57670E+000	9	...........
	24	0.333333	5.23523E-001	3.99844E-004	0.00000E+000	2.09327E-004	2.40040E-001	5.23635E-001	3.57670E+000	9	...........
	25	0.346667	5.29419E-001	4.01130E-004	0.00000E+000	2.12366E-004	2.40040E-001	5.29535E-001	3.57670E+000	9	...........
	26	0.36	5.35068E-001	4.00325E-004	0.00000E+000	2.14201E-004	2.40040E-001	5.35250E-001	3.57670E+000	9	...........
	27	0.373333	5.40888E-001	4.00616E-004	0.00000E+000	2.16688E-004	2.40040E-001	5.41144E-001	3.57670E+000	9	...........
	28	0.386667	5.46712E-001	4.00881E-004	0.00000E+000	2.19167E-004	2.40040E-001	5.46935E-001	3.57670E+000	9	...........
	29	0.4	5.52508E-001	4.00694E-004	0.00000E+000	2.21387E-004	2.40040E-001	5.52736E-001	3.57670E+000	9	...........
	30	0.413333	5.58283E-001	4.01714E-004	0.00000E+000	2.24270E-004	2.40040E-001	5.58529E-001	3.57670E+000	9	...........
	31	0.426667	5.64032E-001	4.02113E-004	0.00000E+000	2.26805E-004	2.40040E-001	5.64261E-001	3.57670E+000	9	...........
	32	0.44	5.69778E-001	4.02369E-004	0.00000E+000	2.29261E-004	2.40040E-001	5.69988E-001	3.57670E+000	9	...........
	33	0.453333	5.75467E-001	4.00571E-004	0.00000E+000	2.30515E-004	2.40040E-001	5.75716E-001	3.57670E+000	9	...........
	34	0.466667	5.81166E-001	4.01296E-004	0.00000E+000	2.33220E-004	2.40040E-001	5.81416E-001	3.57670E+000	9	...........
	35	0.48	5.86811E-001	4.00863E-004	0.00000E+000	2.35231E-004	2.40040E-001	5.87075E-001	3.57670E+000	9	...........
	36	0.493333	5.92388E-001	4.01147E-004	0.00000E+000	2.37635E-004	2.40040E-001	5.92631E-001	3.57670E+000	9	...........
	37	0.506667	5.97952E-001	4.01190E-004	0.00000E+000	2.39892E-004	2.40040E-001	5.98203E-001	3.57670E+000	9	...........
	38	0.52	6.03553E-001	4.01907E-004	0.00000E+000	2.42572E-004	2.40040E-001	6.03822E-001	3.57670E+000	9	...........
	39	0.533333	6.09173E-001	4.01373E-004	0.00000E+000	2.44506E-004	2.40040E-001	6.09443E-001	3.57670E+000	9	...........
	40	0.546667	6.14766E-001	4.00953E-004	0.00000E+000	2.46493E-004	2.40040E-001	6.15021E-001	3.57670E+000	9	...........
	41	0.56	6.20311E-001	4.00629E-004	0.00000E+000	2.48515E-004	2.40040E-001	6.20561E-001	3.57670E+000	9	...........
	42	0.573333	6.25841E-001	4.00819E-004	0.00000E+000	2.50849E-004	2.40040E-001	6.26096E-001	3.57670E+000	9	...........
	43	0.586667	6.31409E-001	4.01263E-004	0.00000E+000	2.53361E-004	2.40040E-001	6.31662E-001	3.57670E+000	9	...........
	44	0.6	6.36997E-001	4.00787E-004	0.00000E+000	2.55300E-004	2.40040E-001	6.37261E-001	3.57670E+000	9	...........
	45	0.613333	6.42634E-001	4.01164E-004	0.00000E+000	2.57801E-004	2.40040E-001	6.42887E-001	3.57670E+000	9	...........
	46	0.626667	6.48166E-001	4.01408E-004	0.00000E+000	2.60179E-004	2.40040E-001	6.48389E-001	3.57670E+000	9	...........
	47	0.64	6.53624E-001	4.00846E-004	0.00000E+000	2.62003E-004	2.40040E-001	6.53850E-001	3.57670E+000	9	...........
	48	0.653333	6.59084E-001	4.00893E-004	0.00000E+000	2.64222E-004	2.40040E-001	6.59288E-001	3.57670E+000	9	...........
	49	0.666667	6.64555E-001	4.00661E-004	0.00000E+000	2.66261E-004	2.40040E-001	6.64774E-001	3.57678E+000	9	...........
	50	0.68	6.70000E-001	4.00158E-004	0.00000E+000	2.68106E-004	2.40040E-001	6.70220E-001	3.57750E+000	9	...........
	51	0.693333	6.75394E-001	4.00011E-004	0.00000E+000	2.70165E-004	2.40040E-001	6.75613E-001	3.57750E+000	9	...........
	52	0.706667	6.80768E-001	4.00255E-004	0.00000E+000	2.72481E-004	2.40040E-001	6.80995E-001	3.57750E+000	9	...........
	53	0.72	6.86137E-001	3.98878E-004	0.00000E+000	2.73685E-004	2.40040E-001	6.86374E-001	3.57750E+000	9	...........
	54	0.733333	6.91518E-001	4.00464E-004	0.00000E+000	2.76928E-004	2.40040E-001	6.91753E-001	3.57750E+000	9	...........
	55	0.746667	6.96818E-001	4.01656E-004	0.00000E+000	2.79881E-004	2.40040E-001	6.97055E-001	3.57750E+000	9	...........
	56	0.76	7.02091E-001	4.01471E-004	0.00000E+000	2.81869E-004	2.40040E-001	7.02344E-001	3.57750E+000	9	...........
	57	0.773333	7.07374E-001	4.00755E-004	0.00000E+000	2.83484E-004	2.40040E-001	7.07666E-001	3.57750E+000	9	...........
	58	0.786667	7.12701E-001	4.00624E-004	0.00000E+000	2.85525E-004	2.40040E-001	7.12975E-001	3.57750E+000	9	...........
	59	0.8	7.18089E-001	4.00474E-004	0.00000E+000	2.87576E-004	2.40040E-001	7.18370E-001	3.57750E+000	9	...........
	60	0.813333	7.23368E-001	4.00095E-004	0.00000E+000	2.89416E-004	2.40040E-001	7.23624E-001	3.57750E+000	9	...........
	61	0.826667	7.28679E-001	4.00339E-004	0.00000E+000	2.91719E-004	2.40040E-001	7.28958E-001	3.57750E+000	9	...........
	62	0.84	7.33939E-001	3.99798E-004	0.00000E+000	2.93427E-004	2.40040E-001	7.34225E-001	3.57750E+000	9	...........
	63	0.853333	7.39198E-001	4.01440E-004	0.00000E+000	2.96744E-004	2.40040E-001	7.39473E-001	3.57750E+000	9	...........
	64	0.866667	7.44435E-001	4.01759E-004	0.00000E+000	2.99083E-004	2.40040E-001	7.44703E-001	3.57750E+000	9	...........
	65	0.88	7.49583E-001	4.00953E-004	0.00000E+000	3.00548E-004	2.40040E-001	7.49854E-001	3.57750E+000	9	...........
	66	0.893333	7.54654E-001	4.01127E-004	0.00000E+000	3.02712E-004	2.40040E-001	7.54919E-001	3.57750E+000	9	...........
	67	0.906667	7.59790E-001	4.00690E-004	0.00000E+000	3.04440E-004	2.40040E-001	7.60060E-001	3.57750E+000	9	...........
	68	0.92	7.64899E-001	4.01882E-004	0.00000E+000	3.07399E-004	2.40040E-001	7.65184E-001	3.57750E+000	9	...........
	69	0.933333	7.70074E-001	4.01483E-004	0.00000E+000	3.09171E-004	2.40040E-001	7.70352E-001	3.57750E+000	9	...........
	70	0.946667	7.75169E-001	3.99906E-004	0.00000E+000	3.09995E-004	2.40040E-001	7.75432E-001	3.57750E+000	9	...........
	71	0.96	7.80194E-001	4.01701E-004	0.00000E+000	3.13405E-004	2.40040E-001	7.80461E-001	3.57750E+000	9	...........
	72	0.97333	7.85145E-001	4.00477E-004	0.00000E+000	3.14433E-004	2.40040E-001	7.85382E-001	3.57750E+000	9	...........
	73	0.98667	7.90158E-001	4.00741E-004	0.00000E+000	3.16649E-004	2.40040E-001	7.90392E-001	3.57750E+000	9	...........
	74	1	7.95169E-001	4.01462E-004	0.00000E+000	3.19230E-004	2.40040E-001	7.95390E-001	3.57750E+000	9	...........
	75	1.01333	8.00158E-001	4.00914E-004	0.00000E+000	3.20794E-004	2.40040E-001	8.00388E-001	3.57750E+000	9	...........
	76	1.02667	8.05139E-001	4.00045E-004	0.00000E+000	3.22092E-004	2.40040E-001	8.05393E-001	3.57750E+000	9	...........
	77	1.04	8.09965E-001	4.00949E-004	0.00000E+000	3.24755E-004	2.40040E-001	8.10188E-001	3.57750E+000	9	...........
	78	1.05333	8.14805E-001	4.00666E-004	0.00000E+000	3.26465E-004	2.40040E-001	8.15075E-001	3.57750E+000	9	...........
	79	1.06667	8.19714E-001	4.00688E-004	0.00000E+000	3.28449E-004	2.40040E-001	8.19975E-001	3.57750E+000	9	...........
	80	1.08	8.24516E-001	4.00400E-004	0.00000E+000	3.30136E-004	2.40040E-001	8.24787E-001	3.57750E+000	9	...........
	81	1.09333	8.29230E-001	4.01606E-004	0.00000E+000	3.33024E-004	2.40040E-001	8.29506E-001	3.57750E+000	9	...........
	82	1.10667	8.33981E-001	4.00578E-004	0.00000E+000	3.34075E-004	2.40040E-001	8.34266E-001	3.57750E+000	9	...........
	83	1.12	8.38731E-001	4.00515E-004	0.00000E+000	3.35924E-004	2.40040E-001	8.39005E-001	3.57750E+000	9	...........
	84	1.13333	8.43492E-001	4.02043E-004	0.00000E+000	3.39120E-004	2.40040E-001	8.43751E-001	3.57750E+000	9	...........
	85	1.14667	8.48189E-001	4.02093E-004	0.00000E+000	3.41051E-004	2.40040E-001	8.48462E-001	3.57750E+000	9	...........
	86	1.16	8.52822E-001	4.01905E-004	0.00000E+000	3.42753E-004	2.40040E-001	8.53116E-001	3.57750E+000	9	...........
	87	1.17333	8.57460E-001	4.01581E-004	0.00000E+000	3.44339E-004	2.40040E-001	8.57737E-001	3.57750E+000	9	...........
	88	1.18667	8.62145E-001	3.99853E-004	0.00000E+000	3.44731E-004	2.40040E-001	8.62422E-001	3.57750E+000	9	...........
	89	1.2	8.66723E-001	4.01850E-004	0.00000E+000	3.48293E-004	2.40040E-001	8.67016E-001	3.57750E+000	9	...........
	90	1.21333	8.71291E-001	4.02156E-004	0.00000E+000	3.50395E-004	2.40040E-001	8.71587E-001	3.57750E+000	9	...........
	91	1.22667	8.75780E-001	4.02408E-004	0.00000E+000	3.52421E-004	2.40040E-001	8.76087E-001	3.57750E+000	9	...........
	92	1.24	8.80270E-001	4.00356E-004	0.00000E+000	3.52422E-004	2.40040E-001	8.80589E-001	3.57750E+000	9	...........
	93	1.25333	8.84727E-001	4.00749E-004	0.00000E+000	3.54554E-004	2.40040E-001	8.85051E-001	3.57750E+000	9	...........
	94	1.26667	8.89115E-001	3.98756E-004	0.00000E+000	3.54540E-004	2.40040E-001	8.89438E-001	3.57750E+000	9	...........
	95	1.28	8.93440E-001	4.00494E-004	0.00000E+000	3.57817E-004	2.40040E-001	8.93763E-001	3.57750E+000	9	...........
	96	1.29333	8.97776E-001	4.00752E-004	0.00000E+000	3.59786E-004	2.40040E-001	8.98132E-001	3.57750E+000	9	...........
	97	1.30667	9.02084E-001	3.99737E-004	0.00000E+000	3.60597E-004	2.40040E-001	9.02434E-001	3.57750E+000	9	...........
	98	1.32	9.06338E-001	4.01800E-004	0.00000E+000	3.64167E-004	2.40040E-001	9.06723E-001	3.57750E+000	9	...........
	99	1.33333	9.10607E-001	3.99976E-004	0.00000E+000	3.64221E-004	2.40040E-001	9.10939E-001	3.57750E+000	9	...........
	100	1.34667	9.14827E-001	4.00829E-004	0.00000E+000	3.66690E-004	2.40040E-001	9.15174E-001	3.57750E+000	9	...........
	101	1.36	9.18992E-001	4.00902E-004	0.00000E+000	3.68426E-004	2.40040E-001	9.19348E-001	3.57750E+000	9	...........
	102	1.37333	9.23221E-001	4.00248E-004	0.00000E+000	3.69518E-004	2.40040E-001	9.23524E-001	3.57750E+000	9	...........
	103	1.38667	9.27327E-001	4.00926E-004	0.00000E+000	3.71790E-004	2.40040E-001	9.27640E-001	3.57750E+000	9	...........
	104	1.4	9.31426E-001	4.01096E-004	0.00000E+000	3.73591E-004	2.40040E-001	9.31722E-001	3.57750E+000	9	...........
	105	1.41333	9.35437E-001	4.00330E-004	0.00000E+000	3.74484E-004	2.40040E-001	9.35754E-001	3.57750E+000	9	...........
	106	1.42667	9.39434E-001	4.00676E-004	0.00000E+000	3.76409E-004	2.40040E-001	9.39759E-001	3.57750E+000	9	...........
	107	1.44	9.43369E-001	4.01624E-004	0.00000E+000	3.78880E-004	2.40040E-001	9.43691E-001	3.57750E+000	9	...........
	108	1.45333	9.47388E-001	4.01012E-004	0.00000E+000	3.79914E-004	2.40040E-001	9.47686E-001	3.57750E+000	9	...........
	109	1.46667	9.51356E-001	4.01045E-004	0.00000E+000	3.81536E-004	2.40040E-001	9.51646E-001	3.57750E+000	9	...........
	110	1.48	9.55206E-001	4.01456E-004	0.00000E+000	3.83473E-004	2.40040E-001	9.55490E-001	3.57750E+000	9	...........
	111	1.49333	9.59007E-001	4.01008E-004	0.00000E+000	3.84569E-004	2.40040E-001	9.59291E-001	3.57750E+000	9	...........
	112	1.50667	9.62846E-001	4.01547E-004	0.00000E+000	3.86628E-004	2.40040E-001	9.63123E-001	3.57750E+000	9	...........
	113	1.52	9.66620E-001	4.02056E-004	0.00000E+000	3.88635E-004	2.40040E-001	9.66904E-001	3.57750E+000	9	...........
	114	1.53333	9.70321E-001	4.01389E-004	0.00000E+000	3.89476E-004	2.40040E-001	9.70650E-001	3.57750E+000	9	...........
	115	1.54667	9.74081E-001	4.01226E-004	0.00000E+000	3.90827E-004	2.40040E-001	9.74365E-001	3.57750E+000	9	...........
	116	1.56	9.77748E-001	4.02041E-004	0.00000E+000	3.93095E-004	2.40040E-001	9.78058E-001	3.57750E+000	9	...........
	117	1.57333	9.81355E-001	4.00757E-004	0.00000E+000	3.93286E-004	2.40040E-001	9.81639E-001	3.57750E+000	9	...........
	118	1.58667	9.84925E-001	4.01122E-004	0.00000E+000	3.95075E-004	2.40040E-001	9.85259E-001	3.57750E+000	9	...........
	119	1.6	9.88431E-001	4.01867E-004	0.00000E+000	3.97218E-004	2.40040E-001	9.88773E-001	3.57750E+000	9	...........
	120	1.61333	9.91913E-001	4.00174E-004	0.00000E+000	3.96938E-004	2.40040E-001	9.92274E-001	3.57750E+000	9	...........
	121	1.62667	9.95353E-001	4.00728E-004	0.00000E+000	3.98866E-004	2.40040E-001	9.95701E-001	3.57750E+000	9	...........
	122	1.64	9.98779E-001	4.01315E-004	0.00000E+000	4.00825E-004	2.40040E-001	9.99145E-001	3.57750E+000	9	...........
STARTTIMEOFFSET	QUANT	1146.546	Start Time Offset (s)
