EXPLAIN
TAG	PWR800_CHARGE
TITLE	LABEL	PWR Cyclic Charge Discharge (Cell) - Charge Step	Test &Identifier
DATE	LABEL	12-7-2017	Date
TIME	LABEL	15:05:23	Time
NOTES	NOTES	3	&Notes...
	supercap test cell
	0.4mg
	6M KOH
PSTAT	PSTAT	IFC5000-01520	Potentiostat
CAPACITY	QUANT	1.00000E-003	Capacity (A-hr)
CELLTYPE	SELECTOR	1	&Cell Type
WORKINGCONNECTION	SELECTOR	0	&Working Lead
MAXCHARGETIME	VARIABLEANDUNITS	1.00000E+002	s	1.00000E+002	second(s)	Max &Charge Time
CHARGECURRENT	QUANT	4.00000E-004	&Charge Current (A) 
VOLTAGEFINISH	TWOPARAM	F	1.00000E-003	3.60000E+003	&Voltage Finish	 I (A) < 	Max Time(s)
SAMPLETIME	QUANT	1.00000E-002	Sa&mple Period (s)
CHARGESTOPAT1	MULTIPARAM	4	1.00000E+000	Charge Stop At &1	Voltage > Limit	V
CHARGESTOPAT2	MULTIPARAM	0	0.00000E+000	Charge Stop At &2	None	N/A
AESBHCSELECTOR	TOGGLE	F	Save Both Half Cells
IRCOMP	TOGGLE	F	IR &Measure
EOC	QUANT	0	Open Circuit (V)
SEQUENCER	TOGGLE	TRUE	Run as Sequence
PSTATMODEL	IQUANT	53	Pstat Model
PSTATSECTION	LABEL	IFC5000-01520	Pstat Section
PSTATSERIALNO	LABEL	01520	Pstat Serial Number
CTRLMODE	IQUANT	0	Control Mode
ELECTROMETER	IQUANT	1	RE=0 or CS=1
IESTAB	IQUANT	0	I/E Stability
CASPEED	IQUANT	4	Control Amp Speed
CONVENTION	IQUANT	1	Current Convention
ICHRANGE	IQUANT	2	Ich Range
ICHRANGEMODE	TOGGLE	T	Ich Auto Range
ICHOFFSETENABLE	TOGGLE	F	Ich Offset Enable
ICHOFFSET	QUANT	0	Ich Offset (V)
ICHFILTER	IQUANT	1	Ich Filter
VCHRANGE	IQUANT	2	Vch Range
VCHRANGEMODE	TOGGLE	T	Vch Auto Range
VCHOFFSETENABLE	TOGGLE	F	Vch Offset Enable
VCHOFFSET	QUANT	0	Vch Offset (V)
VCHFILTER	IQUANT	1	Vch Filter
IERANGELOWERLIMIT	IQUANT	9	I/E Range Lower Limit
IERANGEMODE	TOGGLE	F	I/E AutoRange
IERANGE	IQUANT	9	I/E Range
ACHSELECT	IQUANT	1	Ach Select
ACHRANGE	IQUANT	2	Ach Range
ACHOFFSETENABLE	TOGGLE	F	Ach Offset Enable
ACHOFFSET	QUANT	0	Ach Offset (V)
ACHFILTER	IQUANT	1	Ach Filter
CABLEID	IQUANT	14	Cable ID
DCCALDATE	LABEL	5-7-2017	DC Calibration Date
ACCALDATE	LABEL	12/3/2015	AC Calibration Date
FRAMEWORKVERSION	QUANT	7.01	Framework Version
INSTRUMENTVERSION	LABEL	4.00	Instrument Version
CURVE	TABLE	111
	Pt	T	Vf	Im	Vu	Pwr	Sig	Ach	Temp	IERange	Over
	#	s	V	A	V	W	V	V	deg C	#	bits
	0	0.013333	3.79958E-001	4.01873E-004	0.00000E+000	1.52695E-004	2.40040E-001	3.80053E-001	3.57700E+000	9	...........
	1	0.026667	3.92157E-001	4.01371E-004	0.00000E+000	1.57401E-004	2.40040E-001	3.92227E-001	3.57700E+000	9	...........
	2	0.04	4.02674E-001	4.00676E-004	0.00000E+000	1.61342E-004	2.40040E-001	4.02754E-001	3.57700E+000	9	...........
	3	0.053333	4.12228E-001	3.99955E-004	0.00000E+000	1.64873E-004	2.40040E-001	4.12313E-001	3.57700E+000	9	...........
	4	0.066667	4.21008E-001	4.00658E-004	0.00000E+000	1.68680E-004	2.40040E-001	4.21090E-001	3.57700E+000	9	...........
	5	0.08	4.29454E-001	4.01708E-004	0.00000E+000	1.72515E-004	2.40040E-001	4.29546E-001	3.57700E+000	9	...........
	6	0.093333	4.37504E-001	4.00042E-004	0.00000E+000	1.75020E-004	2.40040E-001	4.37596E-001	3.57700E+000	9	...........
	7	0.106667	4.45328E-001	4.00836E-004	0.00000E+000	1.78503E-004	2.40040E-001	4.45419E-001	3.57700E+000	9	...........
	8	0.12	4.52962E-001	4.01133E-004	0.00000E+000	1.81698E-004	2.40040E-001	4.53049E-001	3.57700E+000	9	...........
	9	0.133333	4.60412E-001	4.01511E-004	0.00000E+000	1.84860E-004	2.40040E-001	4.60506E-001	3.57700E+000	9	...........
	10	0.146667	4.67721E-001	4.02024E-004	0.00000E+000	1.88035E-004	2.40040E-001	4.67816E-001	3.57700E+000	9	...........
	11	0.16	4.74958E-001	4.00339E-004	0.00000E+000	1.90144E-004	2.40040E-001	4.75051E-001	3.57700E+000	9	...........
	12	0.173333	4.81948E-001	4.00694E-004	0.00000E+000	1.93114E-004	2.40040E-001	4.82046E-001	3.57700E+000	9	...........
	13	0.186667	4.88925E-001	4.00481E-004	0.00000E+000	1.95806E-004	2.40040E-001	4.89029E-001	3.57700E+000	9	...........
	14	0.2	4.95918E-001	4.01678E-004	0.00000E+000	1.99200E-004	2.40040E-001	4.96026E-001	3.57700E+000	9	...........
	15	0.213333	5.02729E-001	4.00373E-004	0.00000E+000	2.01279E-004	2.40040E-001	5.02832E-001	3.57700E+000	9	...........
	16	0.226667	5.09496E-001	4.00680E-004	0.00000E+000	2.04145E-004	2.40040E-001	5.09602E-001	3.57700E+000	9	...........
	17	0.24	5.16136E-001	3.99835E-004	0.00000E+000	2.06369E-004	2.40040E-001	5.16244E-001	3.57700E+000	9	...........
	18	0.253333	5.22726E-001	4.02162E-004	0.00000E+000	2.10220E-004	2.40040E-001	5.22832E-001	3.57700E+000	9	...........
	19	0.266667	5.29277E-001	4.00474E-004	0.00000E+000	2.11962E-004	2.40040E-001	5.29388E-001	3.57700E+000	9	...........
	20	0.28	5.35590E-001	4.00871E-004	0.00000E+000	2.14703E-004	2.40040E-001	5.35750E-001	3.57700E+000	9	...........
	21	0.293333	5.41964E-001	4.00626E-004	0.00000E+000	2.17125E-004	2.40040E-001	5.42167E-001	3.57700E+000	9	...........
	22	0.306667	5.48343E-001	4.02177E-004	0.00000E+000	2.20531E-004	2.40040E-001	5.48559E-001	3.57700E+000	9	...........
	23	0.32	5.54754E-001	4.00920E-004	0.00000E+000	2.22412E-004	2.40040E-001	5.54974E-001	3.57700E+000	9	...........
	24	0.333333	5.61158E-001	4.00942E-004	0.00000E+000	2.24992E-004	2.40040E-001	5.61376E-001	3.57700E+000	9	...........
	25	0.346667	5.67481E-001	4.01100E-004	0.00000E+000	2.27617E-004	2.40040E-001	5.67663E-001	3.57700E+000	9	...........
	26	0.36	5.73758E-001	4.00118E-004	0.00000E+000	2.29571E-004	2.40040E-001	5.73957E-001	3.57700E+000	9	...........
	27	0.373333	5.79975E-001	4.01121E-004	0.00000E+000	2.32640E-004	2.40040E-001	5.80190E-001	3.57700E+000	9	...........
	28	0.386667	5.86149E-001	4.02122E-004	0.00000E+000	2.35704E-004	2.40040E-001	5.86397E-001	3.57700E+000	9	...........
	29	0.4	5.92367E-001	4.01050E-004	0.00000E+000	2.37569E-004	2.40040E-001	5.92617E-001	3.57700E+000	9	...........
	30	0.413333	5.98530E-001	4.00881E-004	0.00000E+000	2.39940E-004	2.40040E-001	5.98781E-001	3.57700E+000	9	...........
	31	0.426667	6.04602E-001	4.00088E-004	0.00000E+000	2.41894E-004	2.40040E-001	6.04840E-001	3.57700E+000	9	...........
	32	0.44	6.10668E-001	4.02117E-004	0.00000E+000	2.45560E-004	2.40040E-001	6.10923E-001	3.57700E+000	9	...........
	33	0.453333	6.16779E-001	4.01488E-004	0.00000E+000	2.47629E-004	2.40040E-001	6.16989E-001	3.57700E+000	9	...........
	34	0.466667	6.22839E-001	4.00714E-004	0.00000E+000	2.49580E-004	2.40040E-001	6.23042E-001	3.57700E+000	9	...........
	35	0.48	6.28859E-001	4.01129E-004	0.00000E+000	2.52254E-004	2.40040E-001	6.29074E-001	3.57700E+000	9	...........
	36	0.493333	6.34847E-001	3.99734E-004	0.00000E+000	2.53770E-004	2.40040E-001	6.35079E-001	3.57700E+000	9	...........
	37	0.506667	6.40868E-001	4.00924E-004	0.00000E+000	2.56940E-004	2.40040E-001	6.41098E-001	3.57700E+000	9	...........
	38	0.52	6.46832E-001	4.00563E-004	0.00000E+000	2.59097E-004	2.40040E-001	6.47036E-001	3.57700E+000	9	...........
	39	0.533333	6.52781E-001	4.00004E-004	0.00000E+000	2.61115E-004	2.40040E-001	6.52988E-001	3.57700E+000	9	...........
	40	0.546667	6.58665E-001	4.01432E-004	0.00000E+000	2.64409E-004	2.40040E-001	6.58875E-001	3.57700E+000	9	...........
	41	0.56	6.64606E-001	4.00561E-004	0.00000E+000	2.66215E-004	2.40040E-001	6.64820E-001	3.57700E+000	9	...........
	42	0.573333	6.70519E-001	4.02018E-004	0.00000E+000	2.69561E-004	2.40040E-001	6.70747E-001	3.57700E+000	9	...........
	43	0.586667	6.76433E-001	4.00644E-004	0.00000E+000	2.71009E-004	2.40040E-001	6.76649E-001	3.57700E+000	9	...........
	44	0.6	6.82301E-001	4.01291E-004	0.00000E+000	2.73801E-004	2.40040E-001	6.82528E-001	3.57700E+000	9	...........
	45	0.613333	6.88097E-001	4.01095E-004	0.00000E+000	2.75992E-004	2.40040E-001	6.88348E-001	3.57700E+000	9	...........
	46	0.626667	6.93894E-001	4.00736E-004	0.00000E+000	2.78068E-004	2.40040E-001	6.94124E-001	3.57700E+000	9	...........
	47	0.64	6.99693E-001	4.01586E-004	0.00000E+000	2.80987E-004	2.40040E-001	6.99919E-001	3.57700E+000	9	...........
	48	0.653333	7.05412E-001	4.00725E-004	0.00000E+000	2.82676E-004	2.40040E-001	7.05685E-001	3.57700E+000	9	...........
	49	0.666667	7.11143E-001	4.01752E-004	0.00000E+000	2.85703E-004	2.40040E-001	7.11403E-001	3.57717E+000	9	...........
	50	0.68	7.16930E-001	4.00257E-004	0.00000E+000	2.86957E-004	2.40040E-001	7.17163E-001	3.57770E+000	9	...........
	51	0.693333	7.22656E-001	4.01495E-004	0.00000E+000	2.90143E-004	2.40040E-001	7.22889E-001	3.57770E+000	9	...........
	52	0.706667	7.28324E-001	4.00383E-004	0.00000E+000	2.91609E-004	2.40040E-001	7.28560E-001	3.57770E+000	9	...........
	53	0.72	7.33971E-001	4.00677E-004	0.00000E+000	2.94086E-004	2.40040E-001	7.34216E-001	3.57770E+000	9	...........
	54	0.733333	7.39605E-001	4.00513E-004	0.00000E+000	2.96221E-004	2.40040E-001	7.39881E-001	3.57770E+000	9	...........
	55	0.746667	7.45136E-001	3.99839E-004	0.00000E+000	2.97934E-004	2.40040E-001	7.45398E-001	3.57770E+000	9	...........
	56	0.76	7.50748E-001	4.01351E-004	0.00000E+000	3.01314E-004	2.40040E-001	7.50981E-001	3.57770E+000	9	...........
	57	0.773333	7.56251E-001	4.01875E-004	0.00000E+000	3.03919E-004	2.40040E-001	7.56481E-001	3.57770E+000	9	...........
	58	0.786667	7.61644E-001	4.01049E-004	0.00000E+000	3.05457E-004	2.40040E-001	7.61884E-001	3.57770E+000	9	...........
	59	0.8	7.67086E-001	4.00566E-004	0.00000E+000	3.07268E-004	2.40040E-001	7.67352E-001	3.57770E+000	9	...........
	60	0.813333	7.72556E-001	4.00833E-004	0.00000E+000	3.09665E-004	2.40040E-001	7.72840E-001	3.57770E+000	9	...........
	61	0.826667	7.78018E-001	4.00283E-004	0.00000E+000	3.11428E-004	2.40040E-001	7.78290E-001	3.57770E+000	9	...........
	62	0.84	7.83455E-001	4.00436E-004	0.00000E+000	3.13723E-004	2.40040E-001	7.83710E-001	3.57770E+000	9	...........
	63	0.853333	7.88770E-001	4.00582E-004	0.00000E+000	3.15968E-004	2.40040E-001	7.88989E-001	3.57770E+000	9	...........
	64	0.866667	7.94160E-001	4.00964E-004	0.00000E+000	3.18429E-004	2.40040E-001	7.94385E-001	3.57770E+000	9	...........
	65	0.88	7.99392E-001	4.01295E-004	0.00000E+000	3.20792E-004	2.40040E-001	7.99599E-001	3.57770E+000	9	...........
	66	0.893333	8.04596E-001	4.01566E-004	0.00000E+000	3.23099E-004	2.40040E-001	8.04765E-001	3.57770E+000	9	...........
	67	0.906667	8.09761E-001	4.00227E-004	0.00000E+000	3.24088E-004	2.40040E-001	8.09923E-001	3.57770E+000	9	...........
	68	0.92	8.14976E-001	4.02070E-004	0.00000E+000	3.27678E-004	2.40040E-001	8.15160E-001	3.57770E+000	9	...........
	69	0.933333	8.20190E-001	4.01820E-004	0.00000E+000	3.29569E-004	2.40040E-001	8.20410E-001	3.57770E+000	9	...........
	70	0.946667	8.25313E-001	3.99753E-004	0.00000E+000	3.29921E-004	2.40040E-001	8.25536E-001	3.57770E+000	9	...........
	71	0.96	8.30388E-001	4.00530E-004	0.00000E+000	3.32596E-004	2.40040E-001	8.30657E-001	3.57770E+000	9	...........
	72	0.97333	8.35353E-001	4.01350E-004	0.00000E+000	3.35269E-004	2.40040E-001	8.35633E-001	3.57770E+000	9	...........
	73	0.98667	8.40389E-001	4.00787E-004	0.00000E+000	3.36817E-004	2.40040E-001	8.40642E-001	3.57770E+000	9	...........
	74	1	8.45398E-001	4.01541E-004	0.00000E+000	3.39462E-004	2.40040E-001	8.45652E-001	3.57770E+000	9	...........
	75	1.01333	8.50336E-001	4.01019E-004	0.00000E+000	3.41001E-004	2.40040E-001	8.50573E-001	3.57770E+000	9	...........
	76	1.02667	8.55229E-001	4.02646E-004	0.00000E+000	3.44355E-004	2.40040E-001	8.55504E-001	3.57770E+000	9	...........
	77	1.04	8.60053E-001	4.00945E-004	0.00000E+000	3.44834E-004	2.40040E-001	8.60342E-001	3.57770E+000	9	...........
	78	1.05333	8.64875E-001	4.01160E-004	0.00000E+000	3.46953E-004	2.40040E-001	8.65174E-001	3.57770E+000	9	...........
	79	1.06667	8.69735E-001	4.01697E-004	0.00000E+000	3.49370E-004	2.40040E-001	8.70044E-001	3.57770E+000	9	...........
	80	1.08	8.74488E-001	4.01630E-004	0.00000E+000	3.51220E-004	2.40040E-001	8.74796E-001	3.57770E+000	9	...........
	81	1.09333	8.79204E-001	4.01423E-004	0.00000E+000	3.52933E-004	2.40040E-001	8.79509E-001	3.57770E+000	9	...........
	82	1.10667	8.83899E-001	4.01316E-004	0.00000E+000	3.54723E-004	2.40040E-001	8.84196E-001	3.57770E+000	9	...........
	83	1.12	8.88575E-001	4.01538E-004	0.00000E+000	3.56796E-004	2.40040E-001	8.88870E-001	3.57770E+000	9	...........
	84	1.13333	8.93127E-001	4.01365E-004	0.00000E+000	3.58470E-004	2.40040E-001	8.93435E-001	3.57770E+000	9	...........
	85	1.14667	8.97716E-001	4.01250E-004	0.00000E+000	3.60209E-004	2.40040E-001	8.98023E-001	3.57770E+000	9	...........
	86	1.16	9.02245E-001	4.00448E-004	0.00000E+000	3.61302E-004	2.40040E-001	9.02550E-001	3.57770E+000	9	...........
	87	1.17333	9.06750E-001	4.00411E-004	0.00000E+000	3.63072E-004	2.40040E-001	9.07083E-001	3.57770E+000	9	...........
	88	1.18667	9.11266E-001	4.00841E-004	0.00000E+000	3.65273E-004	2.40040E-001	9.11570E-001	3.57770E+000	9	...........
	89	1.2	9.15707E-001	4.01522E-004	0.00000E+000	3.67677E-004	2.40040E-001	9.16017E-001	3.57770E+000	9	...........
	90	1.21333	9.20130E-001	4.01190E-004	0.00000E+000	3.69147E-004	2.40040E-001	9.20409E-001	3.57770E+000	9	...........
	91	1.22667	9.24468E-001	4.01378E-004	0.00000E+000	3.71062E-004	2.40040E-001	9.24705E-001	3.57770E+000	9	...........
	92	1.24	9.28816E-001	3.99598E-004	0.00000E+000	3.71153E-004	2.40040E-001	9.29053E-001	3.57770E+000	9	...........
	93	1.25333	9.33019E-001	4.03442E-004	0.00000E+000	3.76419E-004	2.40040E-001	9.33269E-001	3.57770E+000	9	...........
	94	1.26667	9.37257E-001	4.01474E-004	0.00000E+000	3.76284E-004	2.40040E-001	9.37535E-001	3.57770E+000	9	...........
	95	1.28	9.41433E-001	4.01110E-004	0.00000E+000	3.77618E-004	2.40040E-001	9.41704E-001	3.57770E+000	9	...........
	96	1.29333	9.45566E-001	3.99925E-004	0.00000E+000	3.78155E-004	2.40040E-001	9.45858E-001	3.57770E+000	9	...........
	97	1.30667	9.49749E-001	4.01029E-004	0.00000E+000	3.80877E-004	2.40040E-001	9.50006E-001	3.57770E+000	9	...........
	98	1.32	9.53775E-001	4.00991E-004	0.00000E+000	3.82455E-004	2.40040E-001	9.54044E-001	3.57770E+000	9	...........
	99	1.33333	9.57775E-001	4.00280E-004	0.00000E+000	3.83379E-004	2.40040E-001	9.58060E-001	3.57770E+000	9	...........
	100	1.34667	9.61823E-001	4.01547E-004	0.00000E+000	3.86217E-004	2.40040E-001	9.62120E-001	3.57770E+000	9	...........
	101	1.36	9.65811E-001	4.02965E-004	0.00000E+000	3.89188E-004	2.40040E-001	9.66120E-001	3.57770E+000	9	...........
	102	1.37333	9.69705E-001	3.99920E-004	0.00000E+000	3.87804E-004	2.40040E-001	9.70010E-001	3.57770E+000	9	...........
	103	1.38667	9.73594E-001	4.00538E-004	0.00000E+000	3.89961E-004	2.40040E-001	9.73875E-001	3.57770E+000	9	...........
	104	1.4	9.77450E-001	4.00621E-004	0.00000E+000	3.91587E-004	2.40040E-001	9.77754E-001	3.57770E+000	9	...........
	105	1.41333	9.81194E-001	4.01082E-004	0.00000E+000	3.93539E-004	2.40040E-001	9.81463E-001	3.57770E+000	9	...........
	106	1.42667	9.84910E-001	4.01394E-004	0.00000E+000	3.95337E-004	2.40040E-001	9.85200E-001	3.57770E+000	9	...........
	107	1.44	9.88619E-001	4.01472E-004	0.00000E+000	3.96903E-004	2.40040E-001	9.88932E-001	3.57770E+000	9	...........
	108	1.45333	9.92276E-001	4.01733E-004	0.00000E+000	3.98630E-004	2.40040E-001	9.92592E-001	3.57770E+000	9	...........
	109	1.46667	9.95943E-001	4.01314E-004	0.00000E+000	3.99686E-004	2.40040E-001	9.96274E-001	3.57770E+000	9	...........
	110	1.47667	9.99159E-001	4.01509E-004	0.00000E+000	4.01172E-004	2.40040E-001	9.99486E-001	3.57770E+000	9	...........
STARTTIMEOFFSET	QUANT	2224.456	Start Time Offset (s)
