EXPLAIN
TAG	PWR800_CHARGE
TITLE	LABEL	PWR Cyclic Charge Discharge (Cell) - Charge Step	Test &Identifier
DATE	LABEL	12-7-2017	Date
TIME	LABEL	15:00:52	Time
NOTES	NOTES	3	&Notes...
	supercap test cell
	0.4mg
	6M KOH
PSTAT	PSTAT	IFC5000-01520	Potentiostat
CAPACITY	QUANT	1.00000E-003	Capacity (A-hr)
CELLTYPE	SELECTOR	1	&Cell Type
WORKINGCONNECTION	SELECTOR	0	&Working Lead
MAXCHARGETIME	VARIABLEANDUNITS	1.00000E+002	s	1.00000E+002	second(s)	Max &Charge Time
CHARGECURRENT	QUANT	4.00000E-004	&Charge Current (A) 
VOLTAGEFINISH	TWOPARAM	F	1.00000E-003	3.60000E+003	&Voltage Finish	 I (A) < 	Max Time(s)
SAMPLETIME	QUANT	1.00000E-002	Sa&mple Period (s)
CHARGESTOPAT1	MULTIPARAM	4	1.00000E+000	Charge Stop At &1	Voltage > Limit	V
CHARGESTOPAT2	MULTIPARAM	0	0.00000E+000	Charge Stop At &2	None	N/A
AESBHCSELECTOR	TOGGLE	F	Save Both Half Cells
IRCOMP	TOGGLE	F	IR &Measure
EOC	QUANT	0	Open Circuit (V)
SEQUENCER	TOGGLE	TRUE	Run as Sequence
PSTATMODEL	IQUANT	53	Pstat Model
PSTATSECTION	LABEL	IFC5000-01520	Pstat Section
PSTATSERIALNO	LABEL	01520	Pstat Serial Number
CTRLMODE	IQUANT	0	Control Mode
ELECTROMETER	IQUANT	1	RE=0 or CS=1
IESTAB	IQUANT	0	I/E Stability
CASPEED	IQUANT	4	Control Amp Speed
CONVENTION	IQUANT	1	Current Convention
ICHRANGE	IQUANT	2	Ich Range
ICHRANGEMODE	TOGGLE	T	Ich Auto Range
ICHOFFSETENABLE	TOGGLE	F	Ich Offset Enable
ICHOFFSET	QUANT	0	Ich Offset (V)
ICHFILTER	IQUANT	1	Ich Filter
VCHRANGE	IQUANT	2	Vch Range
VCHRANGEMODE	TOGGLE	T	Vch Auto Range
VCHOFFSETENABLE	TOGGLE	F	Vch Offset Enable
VCHOFFSET	QUANT	0	Vch Offset (V)
VCHFILTER	IQUANT	1	Vch Filter
IERANGELOWERLIMIT	IQUANT	9	I/E Range Lower Limit
IERANGEMODE	TOGGLE	F	I/E AutoRange
IERANGE	IQUANT	9	I/E Range
ACHSELECT	IQUANT	1	Ach Select
ACHRANGE	IQUANT	2	Ach Range
ACHOFFSETENABLE	TOGGLE	F	Ach Offset Enable
ACHOFFSET	QUANT	0	Ach Offset (V)
ACHFILTER	IQUANT	1	Ach Filter
CABLEID	IQUANT	14	Cable ID
DCCALDATE	LABEL	5-7-2017	DC Calibration Date
ACCALDATE	LABEL	12/3/2015	AC Calibration Date
FRAMEWORKVERSION	QUANT	7.01	Framework Version
INSTRUMENTVERSION	LABEL	4.00	Instrument Version
CURVE	TABLE	113
	Pt	T	Vf	Im	Vu	Pwr	Sig	Ach	Temp	IERange	Over
	#	s	V	A	V	W	V	V	deg C	#	bits
	0	0.013333	3.75254E-001	4.00799E-004	0.00000E+000	1.50402E-004	2.40040E-001	3.75326E-001	3.57700E+000	9	...........
	1	0.026667	3.87319E-001	4.00343E-004	0.00000E+000	1.55060E-004	2.40040E-001	3.87389E-001	3.57700E+000	9	...........
	2	0.04	3.97597E-001	4.00992E-004	0.00000E+000	1.59433E-004	2.40040E-001	3.97672E-001	3.57700E+000	9	...........
	3	0.053333	4.06929E-001	4.01042E-004	0.00000E+000	1.63196E-004	2.40040E-001	4.07006E-001	3.57700E+000	9	...........
	4	0.066667	4.15700E-001	4.01734E-004	0.00000E+000	1.67001E-004	2.40040E-001	4.15784E-001	3.57700E+000	9	...........
	5	0.08	4.23995E-001	4.01111E-004	0.00000E+000	1.70069E-004	2.40040E-001	4.24084E-001	3.57700E+000	9	...........
	6	0.093333	4.31963E-001	4.00715E-004	0.00000E+000	1.73094E-004	2.40040E-001	4.32050E-001	3.57700E+000	9	...........
	7	0.106667	4.39648E-001	4.00696E-004	0.00000E+000	1.76165E-004	2.40040E-001	4.39739E-001	3.57700E+000	9	...........
	8	0.12	4.47159E-001	4.01586E-004	0.00000E+000	1.79573E-004	2.40040E-001	4.47248E-001	3.57700E+000	9	...........
	9	0.133333	4.54555E-001	3.99789E-004	0.00000E+000	1.81726E-004	2.40040E-001	4.54641E-001	3.57700E+000	9	...........
	10	0.146667	4.61737E-001	4.00763E-004	0.00000E+000	1.85047E-004	2.40040E-001	4.61826E-001	3.57700E+000	9	...........
	11	0.16	4.68830E-001	4.01641E-004	0.00000E+000	1.88301E-004	2.40040E-001	4.68921E-001	3.57700E+000	9	...........
	12	0.173333	4.75735E-001	4.00542E-004	0.00000E+000	1.90552E-004	2.40040E-001	4.75832E-001	3.57700E+000	9	...........
	13	0.186667	4.82642E-001	4.00823E-004	0.00000E+000	1.93454E-004	2.40040E-001	4.82738E-001	3.57700E+000	9	...........
	14	0.2	4.89429E-001	3.99748E-004	0.00000E+000	1.95648E-004	2.40040E-001	4.89527E-001	3.57700E+000	9	...........
	15	0.213333	4.96146E-001	4.02000E-004	0.00000E+000	1.99451E-004	2.40040E-001	4.96245E-001	3.57700E+000	9	...........
	16	0.226667	5.02820E-001	4.01523E-004	0.00000E+000	2.01894E-004	2.40040E-001	5.02916E-001	3.57700E+000	9	...........
	17	0.24	5.09471E-001	4.01010E-004	0.00000E+000	2.04303E-004	2.40040E-001	5.09572E-001	3.57700E+000	9	...........
	18	0.253333	5.15948E-001	4.01612E-004	0.00000E+000	2.07211E-004	2.40040E-001	5.16050E-001	3.57700E+000	9	...........
	19	0.266667	5.22446E-001	4.01786E-004	0.00000E+000	2.09911E-004	2.40040E-001	5.22550E-001	3.57700E+000	9	...........
	20	0.28	5.28804E-001	4.00121E-004	0.00000E+000	2.11586E-004	2.40040E-001	5.28914E-001	3.57700E+000	9	...........
	21	0.293333	5.34980E-001	4.01532E-004	0.00000E+000	2.14811E-004	2.40040E-001	5.35173E-001	3.57700E+000	9	...........
	22	0.306667	5.41276E-001	3.99298E-004	0.00000E+000	2.16131E-004	2.40040E-001	5.41482E-001	3.57700E+000	9	...........
	23	0.32	5.47606E-001	4.00354E-004	0.00000E+000	2.19237E-004	2.40040E-001	5.47846E-001	3.57700E+000	9	...........
	24	0.333333	5.53821E-001	4.00960E-004	0.00000E+000	2.22060E-004	2.40040E-001	5.54081E-001	3.57700E+000	9	...........
	25	0.346667	5.60060E-001	3.99841E-004	0.00000E+000	2.23935E-004	2.40040E-001	5.60312E-001	3.57700E+000	9	...........
	26	0.36	5.66358E-001	4.01359E-004	0.00000E+000	2.27313E-004	2.40040E-001	5.66602E-001	3.57700E+000	9	...........
	27	0.373333	5.72551E-001	4.02149E-004	0.00000E+000	2.30251E-004	2.40040E-001	5.72800E-001	3.57700E+000	9	...........
	28	0.386667	5.78648E-001	4.00745E-004	0.00000E+000	2.31890E-004	2.40040E-001	5.78932E-001	3.57700E+000	9	...........
	29	0.4	5.84738E-001	4.01237E-004	0.00000E+000	2.34618E-004	2.40040E-001	5.84993E-001	3.57700E+000	9	...........
	30	0.413333	5.90840E-001	4.01540E-004	0.00000E+000	2.37246E-004	2.40040E-001	5.91098E-001	3.57700E+000	9	...........
	31	0.426667	5.96933E-001	4.00434E-004	0.00000E+000	2.39033E-004	2.40040E-001	5.97187E-001	3.57700E+000	9	...........
	32	0.44	6.03007E-001	4.01544E-004	0.00000E+000	2.42134E-004	2.40040E-001	6.03271E-001	3.57700E+000	9	...........
	33	0.453333	6.08993E-001	4.00761E-004	0.00000E+000	2.44060E-004	2.40040E-001	6.09262E-001	3.57700E+000	9	...........
	34	0.466667	6.15122E-001	4.00477E-004	0.00000E+000	2.46343E-004	2.40040E-001	6.15356E-001	3.57700E+000	9	...........
	35	0.48	6.21181E-001	4.01488E-004	0.00000E+000	2.49397E-004	2.40040E-001	6.21407E-001	3.57700E+000	9	...........
	36	0.493333	6.27103E-001	4.01433E-004	0.00000E+000	2.51740E-004	2.40040E-001	6.27312E-001	3.57700E+000	9	...........
	37	0.506667	6.32968E-001	4.02345E-004	0.00000E+000	2.54672E-004	2.40040E-001	6.33178E-001	3.57700E+000	9	...........
	38	0.52	6.38826E-001	4.01309E-004	0.00000E+000	2.56367E-004	2.40040E-001	6.39038E-001	3.57700E+000	9	...........
	39	0.533333	6.44726E-001	4.00785E-004	0.00000E+000	2.58396E-004	2.40040E-001	6.44934E-001	3.57700E+000	9	...........
	40	0.546667	6.50624E-001	4.00756E-004	0.00000E+000	2.60742E-004	2.40040E-001	6.50842E-001	3.57700E+000	9	...........
	41	0.56	6.56442E-001	4.01916E-004	0.00000E+000	2.63834E-004	2.40040E-001	6.56672E-001	3.57700E+000	9	...........
	42	0.573333	6.62235E-001	4.01150E-004	0.00000E+000	2.65656E-004	2.40040E-001	6.62465E-001	3.57700E+000	9	...........
	43	0.586667	6.68082E-001	4.01501E-004	0.00000E+000	2.68236E-004	2.40040E-001	6.68284E-001	3.57700E+000	9	...........
	44	0.6	6.73924E-001	4.01396E-004	0.00000E+000	2.70511E-004	2.40040E-001	6.74113E-001	3.57700E+000	9	...........
	45	0.613333	6.79710E-001	4.01851E-004	0.00000E+000	2.73143E-004	2.40040E-001	6.79913E-001	3.57700E+000	9	...........
	46	0.626667	6.85475E-001	4.01816E-004	0.00000E+000	2.75435E-004	2.40040E-001	6.85687E-001	3.57700E+000	9	...........
	47	0.64	6.91227E-001	4.01162E-004	0.00000E+000	2.77294E-004	2.40040E-001	6.91447E-001	3.57700E+000	9	...........
	48	0.653333	6.96950E-001	3.99935E-004	0.00000E+000	2.78735E-004	2.40040E-001	6.97174E-001	3.57790E+000	9	...........
	49	0.666667	7.02672E-001	4.01762E-004	0.00000E+000	2.82307E-004	2.40040E-001	7.02878E-001	3.57820E+000	9	...........
	50	0.68	7.08279E-001	4.01322E-004	0.00000E+000	2.84248E-004	2.40040E-001	7.08504E-001	3.57820E+000	9	...........
	51	0.693333	7.13905E-001	3.99941E-004	0.00000E+000	2.85520E-004	2.40040E-001	7.14119E-001	3.57820E+000	9	...........
	52	0.706667	7.19665E-001	4.01826E-004	0.00000E+000	2.89180E-004	2.40040E-001	7.19889E-001	3.57820E+000	9	...........
	53	0.72	7.25277E-001	3.99605E-004	0.00000E+000	2.89824E-004	2.40040E-001	7.25471E-001	3.57820E+000	9	...........
	54	0.733333	7.30812E-001	4.01205E-004	0.00000E+000	2.93206E-004	2.40040E-001	7.31035E-001	3.57820E+000	9	...........
	55	0.746667	7.36335E-001	4.01671E-004	0.00000E+000	2.95764E-004	2.40040E-001	7.36559E-001	3.57820E+000	9	...........
	56	0.76	7.41876E-001	4.01688E-004	0.00000E+000	2.98002E-004	2.40040E-001	7.42116E-001	3.57820E+000	9	...........
	57	0.773333	7.47364E-001	4.01789E-004	0.00000E+000	3.00283E-004	2.40040E-001	7.47600E-001	3.57820E+000	9	...........
	58	0.786667	7.52871E-001	4.00927E-004	0.00000E+000	3.01847E-004	2.40040E-001	7.53122E-001	3.57820E+000	9	...........
	59	0.8	7.58318E-001	4.00203E-004	0.00000E+000	3.03481E-004	2.40040E-001	7.58577E-001	3.57820E+000	9	...........
	60	0.813333	7.63726E-001	4.01139E-004	0.00000E+000	3.06360E-004	2.40040E-001	7.63979E-001	3.57820E+000	9	...........
	61	0.826667	7.69132E-001	4.00958E-004	0.00000E+000	3.08389E-004	2.40040E-001	7.69407E-001	3.57820E+000	9	...........
	62	0.84	7.74543E-001	4.01008E-004	0.00000E+000	3.10597E-004	2.40040E-001	7.74825E-001	3.57820E+000	9	...........
	63	0.853333	7.79857E-001	4.00066E-004	0.00000E+000	3.11994E-004	2.40040E-001	7.80137E-001	3.57820E+000	9	...........
	64	0.866667	7.85145E-001	4.00293E-004	0.00000E+000	3.14288E-004	2.40040E-001	7.85409E-001	3.57820E+000	9	...........
	65	0.88	7.90416E-001	4.00487E-004	0.00000E+000	3.16551E-004	2.40040E-001	7.90689E-001	3.57820E+000	9	...........
	66	0.893333	7.95748E-001	4.00695E-004	0.00000E+000	3.18852E-004	2.40040E-001	7.95990E-001	3.57820E+000	9	...........
	67	0.906667	8.00990E-001	4.01745E-004	0.00000E+000	3.21794E-004	2.40040E-001	8.01253E-001	3.57820E+000	9	...........
	68	0.92	8.06208E-001	4.00565E-004	0.00000E+000	3.22939E-004	2.40040E-001	8.06456E-001	3.57820E+000	9	...........
	69	0.933333	8.11312E-001	4.01873E-004	0.00000E+000	3.26045E-004	2.40040E-001	8.11585E-001	3.57820E+000	9	...........
	70	0.946667	8.16446E-001	4.01124E-004	0.00000E+000	3.27496E-004	2.40040E-001	8.16712E-001	3.57820E+000	9	...........
	71	0.96	8.21569E-001	4.00496E-004	0.00000E+000	3.29035E-004	2.40040E-001	8.21833E-001	3.57820E+000	9	...........
	72	0.97333	8.26626E-001	4.01794E-004	0.00000E+000	3.32133E-004	2.40040E-001	8.26890E-001	3.57820E+000	9	...........
	73	0.98667	8.31650E-001	4.00478E-004	0.00000E+000	3.33058E-004	2.40040E-001	8.31917E-001	3.57820E+000	9	...........
	74	1	8.36667E-001	4.00497E-004	0.00000E+000	3.35083E-004	2.40040E-001	8.36951E-001	3.57820E+000	9	...........
	75	1.01333	8.41689E-001	4.01812E-004	0.00000E+000	3.38201E-004	2.40040E-001	8.41982E-001	3.57820E+000	9	...........
	76	1.02667	8.46674E-001	4.01254E-004	0.00000E+000	3.39732E-004	2.40040E-001	8.46963E-001	3.57820E+000	9	...........
	77	1.04	8.51540E-001	4.01530E-004	0.00000E+000	3.41918E-004	2.40040E-001	8.51854E-001	3.57820E+000	9	...........
	78	1.05333	8.56445E-001	4.01793E-004	0.00000E+000	3.44114E-004	2.40040E-001	8.56751E-001	3.57820E+000	9	...........
	79	1.06667	8.61257E-001	4.00999E-004	0.00000E+000	3.45363E-004	2.40040E-001	8.61593E-001	3.57820E+000	9	...........
	80	1.08	8.66020E-001	4.01381E-004	0.00000E+000	3.47604E-004	2.40040E-001	8.66349E-001	3.57820E+000	9	...........
	81	1.09333	8.70816E-001	4.00594E-004	0.00000E+000	3.48843E-004	2.40040E-001	8.71131E-001	3.57820E+000	9	...........
	82	1.10667	8.75489E-001	4.01495E-004	0.00000E+000	3.51504E-004	2.40040E-001	8.75794E-001	3.57820E+000	9	...........
	83	1.12	8.80172E-001	4.01862E-004	0.00000E+000	3.53707E-004	2.40040E-001	8.80499E-001	3.57820E+000	9	...........
	84	1.13333	8.84875E-001	4.01184E-004	0.00000E+000	3.54997E-004	2.40040E-001	8.85175E-001	3.57820E+000	9	...........
	85	1.14667	8.89484E-001	4.01589E-004	0.00000E+000	3.57207E-004	2.40040E-001	8.89796E-001	3.57820E+000	9	...........
	86	1.16	8.94036E-001	4.01461E-004	0.00000E+000	3.58920E-004	2.40040E-001	8.94364E-001	3.57820E+000	9	...........
	87	1.17333	8.98569E-001	4.03039E-004	0.00000E+000	3.62158E-004	2.40040E-001	8.98899E-001	3.57820E+000	9	...........
	88	1.18667	9.03135E-001	4.00995E-004	0.00000E+000	3.62153E-004	2.40040E-001	9.03475E-001	3.57820E+000	9	...........
	89	1.2	9.07562E-001	4.00374E-004	0.00000E+000	3.63364E-004	2.40040E-001	9.07889E-001	3.57820E+000	9	...........
	90	1.21333	9.11965E-001	3.99464E-004	0.00000E+000	3.64298E-004	2.40040E-001	9.12287E-001	3.57820E+000	9	...........
	91	1.22667	9.16409E-001	4.01199E-004	0.00000E+000	3.67663E-004	2.40040E-001	9.16747E-001	3.57820E+000	9	...........
	92	1.24	9.20744E-001	4.00518E-004	0.00000E+000	3.68774E-004	2.40040E-001	9.21075E-001	3.57820E+000	9	...........
	93	1.25333	9.25050E-001	4.01980E-004	0.00000E+000	3.71851E-004	2.40040E-001	9.25354E-001	3.57820E+000	9	...........
	94	1.26667	9.29327E-001	4.01377E-004	0.00000E+000	3.73011E-004	2.40040E-001	9.29608E-001	3.57820E+000	9	...........
	95	1.28	9.33523E-001	4.00953E-004	0.00000E+000	3.74299E-004	2.40040E-001	9.33838E-001	3.57820E+000	9	...........
	96	1.29333	9.37786E-001	4.02714E-004	0.00000E+000	3.77659E-004	2.40040E-001	9.38132E-001	3.57820E+000	9	...........
	97	1.30667	9.41956E-001	4.00644E-004	0.00000E+000	3.77389E-004	2.40040E-001	9.42279E-001	3.57820E+000	9	...........
	98	1.32	9.46087E-001	3.99469E-004	0.00000E+000	3.77932E-004	2.40040E-001	9.46435E-001	3.57820E+000	9	...........
	99	1.33333	9.50231E-001	4.01228E-004	0.00000E+000	3.81260E-004	2.40040E-001	9.50565E-001	3.57820E+000	9	...........
	100	1.34667	9.54245E-001	4.00066E-004	0.00000E+000	3.81761E-004	2.40040E-001	9.54588E-001	3.57820E+000	9	...........
	101	1.36	9.58317E-001	4.00992E-004	0.00000E+000	3.84277E-004	2.40040E-001	9.58644E-001	3.57820E+000	9	...........
	102	1.37333	9.62243E-001	4.01083E-004	0.00000E+000	3.85939E-004	2.40040E-001	9.62604E-001	3.57820E+000	9	...........
	103	1.38667	9.66091E-001	4.00540E-004	0.00000E+000	3.86958E-004	2.40040E-001	9.66461E-001	3.57820E+000	9	...........
	104	1.4	9.69967E-001	4.00883E-004	0.00000E+000	3.88843E-004	2.40040E-001	9.70340E-001	3.57820E+000	9	...........
	105	1.41333	9.73858E-001	4.02253E-004	0.00000E+000	3.91737E-004	2.40040E-001	9.74173E-001	3.57820E+000	9	...........
	106	1.42667	9.77621E-001	4.00731E-004	0.00000E+000	3.91764E-004	2.40040E-001	9.77955E-001	3.57820E+000	9	...........
	107	1.44	9.81359E-001	4.01382E-004	0.00000E+000	3.93899E-004	2.40040E-001	9.81670E-001	3.57820E+000	9	...........
	108	1.45333	9.85130E-001	4.00241E-004	0.00000E+000	3.94289E-004	2.40040E-001	9.85452E-001	3.57820E+000	9	...........
	109	1.46667	9.88821E-001	4.00606E-004	0.00000E+000	3.96128E-004	2.40040E-001	9.89154E-001	3.57820E+000	9	...........
	110	1.48	9.92414E-001	4.00885E-004	0.00000E+000	3.97844E-004	2.40040E-001	9.92766E-001	3.57820E+000	9	...........
	111	1.49333	9.96041E-001	4.00660E-004	0.00000E+000	3.99073E-004	2.40040E-001	9.96384E-001	3.57820E+000	9	...........
	112	1.50333	9.99172E-001	4.01719E-004	0.00000E+000	4.01387E-004	2.40040E-001	9.99514E-001	3.57820E+000	9	...........
STARTTIMEOFFSET	QUANT	2013.966	Start Time Offset (s)
