EXPLAIN
TAG	PWR800_CHARGE
TITLE	LABEL	PWR Cyclic Charge Discharge (Cell) - Charge Step	Test &Identifier
DATE	LABEL	12-7-2017	Date
TIME	LABEL	15:06:33	Time
NOTES	NOTES	3	&Notes...
	supercap test cell
	0.4mg
	6M KOH
PSTAT	PSTAT	IFC5000-01520	Potentiostat
CAPACITY	QUANT	1.00000E-003	Capacity (A-hr)
CELLTYPE	SELECTOR	1	&Cell Type
WORKINGCONNECTION	SELECTOR	0	&Working Lead
MAXCHARGETIME	VARIABLEANDUNITS	1.00000E+002	s	1.00000E+002	second(s)	Max &Charge Time
CHARGECURRENT	QUANT	4.00000E-004	&Charge Current (A) 
VOLTAGEFINISH	TWOPARAM	F	1.00000E-003	3.60000E+003	&Voltage Finish	 I (A) < 	Max Time(s)
SAMPLETIME	QUANT	1.00000E-002	Sa&mple Period (s)
CHARGESTOPAT1	MULTIPARAM	4	1.00000E+000	Charge Stop At &1	Voltage > Limit	V
CHARGESTOPAT2	MULTIPARAM	0	0.00000E+000	Charge Stop At &2	None	N/A
AESBHCSELECTOR	TOGGLE	F	Save Both Half Cells
IRCOMP	TOGGLE	F	IR &Measure
EOC	QUANT	0	Open Circuit (V)
SEQUENCER	TOGGLE	TRUE	Run as Sequence
PSTATMODEL	IQUANT	53	Pstat Model
PSTATSECTION	LABEL	IFC5000-01520	Pstat Section
PSTATSERIALNO	LABEL	01520	Pstat Serial Number
CTRLMODE	IQUANT	0	Control Mode
ELECTROMETER	IQUANT	1	RE=0 or CS=1
IESTAB	IQUANT	0	I/E Stability
CASPEED	IQUANT	4	Control Amp Speed
CONVENTION	IQUANT	1	Current Convention
ICHRANGE	IQUANT	2	Ich Range
ICHRANGEMODE	TOGGLE	T	Ich Auto Range
ICHOFFSETENABLE	TOGGLE	F	Ich Offset Enable
ICHOFFSET	QUANT	0	Ich Offset (V)
ICHFILTER	IQUANT	1	Ich Filter
VCHRANGE	IQUANT	2	Vch Range
VCHRANGEMODE	TOGGLE	T	Vch Auto Range
VCHOFFSETENABLE	TOGGLE	F	Vch Offset Enable
VCHOFFSET	QUANT	0	Vch Offset (V)
VCHFILTER	IQUANT	1	Vch Filter
IERANGELOWERLIMIT	IQUANT	9	I/E Range Lower Limit
IERANGEMODE	TOGGLE	F	I/E AutoRange
IERANGE	IQUANT	9	I/E Range
ACHSELECT	IQUANT	1	Ach Select
ACHRANGE	IQUANT	2	Ach Range
ACHOFFSETENABLE	TOGGLE	F	Ach Offset Enable
ACHOFFSET	QUANT	0	Ach Offset (V)
ACHFILTER	IQUANT	1	Ach Filter
CABLEID	IQUANT	14	Cable ID
DCCALDATE	LABEL	5-7-2017	DC Calibration Date
ACCALDATE	LABEL	12/3/2015	AC Calibration Date
FRAMEWORKVERSION	QUANT	7.01	Framework Version
INSTRUMENTVERSION	LABEL	4.00	Instrument Version
CURVE	TABLE	111
	Pt	T	Vf	Im	Vu	Pwr	Sig	Ach	Temp	IERange	Over
	#	s	V	A	V	W	V	V	deg C	#	bits
	0	0.013333	3.78865E-001	4.00841E-004	0.00000E+000	1.51865E-004	2.40040E-001	3.78960E-001	3.57670E+000	9	...........
	1	0.026667	3.91118E-001	4.00836E-004	0.00000E+000	1.56774E-004	2.40040E-001	3.91194E-001	3.57670E+000	9	...........
	2	0.04	4.01710E-001	4.00805E-004	0.00000E+000	1.61008E-004	2.40040E-001	4.01789E-001	3.57670E+000	9	...........
	3	0.053333	4.11292E-001	4.01835E-004	0.00000E+000	1.65271E-004	2.40040E-001	4.11381E-001	3.57670E+000	9	...........
	4	0.066667	4.20160E-001	4.01251E-004	0.00000E+000	1.68590E-004	2.40040E-001	4.20249E-001	3.57670E+000	9	...........
	5	0.08	4.28622E-001	4.00292E-004	0.00000E+000	1.71574E-004	2.40040E-001	4.28709E-001	3.57670E+000	9	...........
	6	0.093333	4.36852E-001	4.00419E-004	0.00000E+000	1.74924E-004	2.40040E-001	4.36936E-001	3.57670E+000	9	...........
	7	0.106667	4.44747E-001	4.00510E-004	0.00000E+000	1.78125E-004	2.40040E-001	4.44842E-001	3.57670E+000	9	...........
	8	0.12	4.52428E-001	4.00658E-004	0.00000E+000	1.81269E-004	2.40040E-001	4.52520E-001	3.57670E+000	9	...........
	9	0.133333	4.59978E-001	4.00033E-004	0.00000E+000	1.84007E-004	2.40040E-001	4.60075E-001	3.57670E+000	9	...........
	10	0.146667	4.67350E-001	4.00144E-004	0.00000E+000	1.87007E-004	2.40040E-001	4.67444E-001	3.57670E+000	9	...........
	11	0.16	4.74537E-001	3.99988E-004	0.00000E+000	1.89809E-004	2.40040E-001	4.74634E-001	3.57670E+000	9	...........
	12	0.173333	4.81730E-001	4.02514E-004	0.00000E+000	1.93903E-004	2.40040E-001	4.81827E-001	3.57670E+000	9	...........
	13	0.186667	4.88755E-001	4.02305E-004	0.00000E+000	1.96628E-004	2.40040E-001	4.88850E-001	3.57670E+000	9	...........
	14	0.2	4.95619E-001	4.01015E-004	0.00000E+000	1.98751E-004	2.40040E-001	4.95715E-001	3.57670E+000	9	...........
	15	0.213333	5.02449E-001	4.01064E-004	0.00000E+000	2.01514E-004	2.40040E-001	5.02553E-001	3.57670E+000	9	...........
	16	0.226667	5.09296E-001	4.01431E-004	0.00000E+000	2.04447E-004	2.40040E-001	5.09403E-001	3.57670E+000	9	...........
	17	0.24	5.15943E-001	4.00750E-004	0.00000E+000	2.06764E-004	2.40040E-001	5.16046E-001	3.57670E+000	9	...........
	18	0.253333	5.22632E-001	4.01613E-004	0.00000E+000	2.09896E-004	2.40040E-001	5.22745E-001	3.57670E+000	9	...........
	19	0.266667	5.29235E-001	4.01152E-004	0.00000E+000	2.12304E-004	2.40040E-001	5.29346E-001	3.57670E+000	9	...........
	20	0.28	5.35572E-001	4.02772E-004	0.00000E+000	2.15713E-004	2.40040E-001	5.35750E-001	3.57670E+000	9	...........
	21	0.293333	5.42086E-001	4.01531E-004	0.00000E+000	2.17664E-004	2.40040E-001	5.42309E-001	3.57670E+000	9	...........
	22	0.306667	5.48554E-001	4.00314E-004	0.00000E+000	2.19594E-004	2.40040E-001	5.48766E-001	3.57670E+000	9	...........
	23	0.32	5.54990E-001	4.00272E-004	0.00000E+000	2.22147E-004	2.40040E-001	5.55244E-001	3.57670E+000	9	...........
	24	0.333333	5.61289E-001	4.01167E-004	0.00000E+000	2.25171E-004	2.40040E-001	5.61539E-001	3.57670E+000	9	...........
	25	0.346667	5.67652E-001	4.01648E-004	0.00000E+000	2.27997E-004	2.40040E-001	5.67881E-001	3.57670E+000	9	...........
	26	0.36	5.73955E-001	4.02439E-004	0.00000E+000	2.30982E-004	2.40040E-001	5.74180E-001	3.57670E+000	9	...........
	27	0.373333	5.80182E-001	4.00143E-004	0.00000E+000	2.32156E-004	2.40040E-001	5.80436E-001	3.57670E+000	9	...........
	28	0.386667	5.86442E-001	4.00925E-004	0.00000E+000	2.35119E-004	2.40040E-001	5.86677E-001	3.57670E+000	9	...........
	29	0.4	5.92733E-001	4.00502E-004	0.00000E+000	2.37391E-004	2.40040E-001	5.92957E-001	3.57670E+000	9	...........
	30	0.413333	5.98846E-001	4.01733E-004	0.00000E+000	2.40576E-004	2.40040E-001	5.99093E-001	3.57670E+000	9	...........
	31	0.426667	6.04975E-001	3.99737E-004	0.00000E+000	2.41831E-004	2.40040E-001	6.05229E-001	3.57670E+000	9	...........
	32	0.44	6.11037E-001	4.00715E-004	0.00000E+000	2.44852E-004	2.40040E-001	6.11292E-001	3.57670E+000	9	...........
	33	0.453333	6.17226E-001	4.00911E-004	0.00000E+000	2.47452E-004	2.40040E-001	6.17419E-001	3.57670E+000	9	...........
	34	0.466667	6.23256E-001	4.01474E-004	0.00000E+000	2.50221E-004	2.40040E-001	6.23467E-001	3.57670E+000	9	...........
	35	0.48	6.29254E-001	4.01026E-004	0.00000E+000	2.52347E-004	2.40040E-001	6.29487E-001	3.57670E+000	9	...........
	36	0.493333	6.35245E-001	3.99995E-004	0.00000E+000	2.54095E-004	2.40040E-001	6.35481E-001	3.57670E+000	9	...........
	37	0.506667	6.41286E-001	4.01332E-004	0.00000E+000	2.57368E-004	2.40040E-001	6.41526E-001	3.57670E+000	9	...........
	38	0.52	6.47352E-001	4.01086E-004	0.00000E+000	2.59644E-004	2.40040E-001	6.47588E-001	3.57670E+000	9	...........
	39	0.533333	6.53328E-001	4.01370E-004	0.00000E+000	2.62226E-004	2.40040E-001	6.53578E-001	3.57670E+000	9	...........
	40	0.546667	6.59264E-001	4.00467E-004	0.00000E+000	2.64013E-004	2.40040E-001	6.59490E-001	3.57670E+000	9	...........
	41	0.56	6.65186E-001	4.01278E-004	0.00000E+000	2.66925E-004	2.40040E-001	6.65443E-001	3.57670E+000	9	...........
	42	0.573333	6.71123E-001	4.00500E-004	0.00000E+000	2.68785E-004	2.40040E-001	6.71382E-001	3.57670E+000	9	...........
	43	0.586667	6.77010E-001	4.01319E-004	0.00000E+000	2.71697E-004	2.40040E-001	6.77268E-001	3.57670E+000	9	...........
	44	0.6	6.82860E-001	4.01022E-004	0.00000E+000	2.73842E-004	2.40040E-001	6.83104E-001	3.57670E+000	9	...........
	45	0.613333	6.88608E-001	4.00409E-004	0.00000E+000	2.75725E-004	2.40040E-001	6.88872E-001	3.57670E+000	9	...........
	46	0.626667	6.94434E-001	4.00015E-004	0.00000E+000	2.77784E-004	2.40040E-001	6.94700E-001	3.57670E+000	9	...........
	47	0.64	7.00225E-001	4.02270E-004	0.00000E+000	2.81680E-004	2.40040E-001	7.00500E-001	3.57670E+000	9	...........
	48	0.653333	7.05945E-001	4.01648E-004	0.00000E+000	2.83542E-004	2.40040E-001	7.06196E-001	3.57670E+000	9	...........
	49	0.666667	7.11688E-001	4.01997E-004	0.00000E+000	2.86097E-004	2.40040E-001	7.11936E-001	3.57670E+000	9	...........
	50	0.68	7.17423E-001	4.01318E-004	0.00000E+000	2.87915E-004	2.40040E-001	7.17684E-001	3.57670E+000	9	...........
	51	0.693333	7.23106E-001	4.00378E-004	0.00000E+000	2.89516E-004	2.40040E-001	7.23369E-001	3.57670E+000	9	...........
	52	0.706667	7.28830E-001	4.02154E-004	0.00000E+000	2.93101E-004	2.40040E-001	7.29089E-001	3.57670E+000	9	...........
	53	0.72	7.34398E-001	4.00369E-004	0.00000E+000	2.94030E-004	2.40040E-001	7.34693E-001	3.57670E+000	9	...........
	54	0.733333	7.40021E-001	4.01539E-004	0.00000E+000	2.97147E-004	2.40040E-001	7.40285E-001	3.57670E+000	9	...........
	55	0.746667	7.45637E-001	3.99620E-004	0.00000E+000	2.97971E-004	2.40040E-001	7.45915E-001	3.57670E+000	9	...........
	56	0.76	7.51180E-001	4.00989E-004	0.00000E+000	3.01215E-004	2.40040E-001	7.51444E-001	3.57670E+000	9	...........
	57	0.773333	7.56746E-001	3.99710E-004	0.00000E+000	3.02479E-004	2.40040E-001	7.56996E-001	3.57670E+000	9	...........
	58	0.786667	7.62249E-001	4.02376E-004	0.00000E+000	3.06711E-004	2.40040E-001	7.62502E-001	3.57670E+000	9	...........
	59	0.8	7.67663E-001	4.01395E-004	0.00000E+000	3.08136E-004	2.40040E-001	7.67932E-001	3.57670E+000	9	...........
	60	0.813333	7.73146E-001	4.00158E-004	0.00000E+000	3.09381E-004	2.40040E-001	7.73401E-001	3.57670E+000	9	...........
	61	0.826667	7.78568E-001	4.00720E-004	0.00000E+000	3.11988E-004	2.40040E-001	7.78829E-001	3.57670E+000	9	...........
	62	0.84	7.84046E-001	4.00105E-004	0.00000E+000	3.13701E-004	2.40040E-001	7.84296E-001	3.57670E+000	9	...........
	63	0.853333	7.89411E-001	4.01734E-004	0.00000E+000	3.17133E-004	2.40040E-001	7.89641E-001	3.57670E+000	9	...........
	64	0.866667	7.94729E-001	4.02442E-004	0.00000E+000	3.19832E-004	2.40040E-001	7.94967E-001	3.57670E+000	9	...........
	65	0.88	8.00036E-001	4.00690E-004	0.00000E+000	3.20566E-004	2.40040E-001	8.00280E-001	3.57670E+000	9	...........
	66	0.893333	8.05344E-001	4.00836E-004	0.00000E+000	3.22811E-004	2.40040E-001	8.05593E-001	3.57670E+000	9	...........
	67	0.906667	8.10513E-001	4.00794E-004	0.00000E+000	3.24849E-004	2.40040E-001	8.10768E-001	3.57670E+000	9	...........
	68	0.92	8.15703E-001	4.02467E-004	0.00000E+000	3.28294E-004	2.40040E-001	8.15968E-001	3.57670E+000	9	...........
	69	0.933333	8.20862E-001	4.02136E-004	0.00000E+000	3.30098E-004	2.40040E-001	8.21128E-001	3.57670E+000	9	...........
	70	0.946667	8.25932E-001	4.00065E-004	0.00000E+000	3.30426E-004	2.40040E-001	8.26208E-001	3.57670E+000	9	...........
	71	0.96	8.31029E-001	4.00960E-004	0.00000E+000	3.33209E-004	2.40040E-001	8.31303E-001	3.57670E+000	9	...........
	72	0.97333	8.36010E-001	3.99974E-004	0.00000E+000	3.34382E-004	2.40040E-001	8.36337E-001	3.57670E+000	9	...........
	73	0.98667	8.41081E-001	4.02120E-004	0.00000E+000	3.38216E-004	2.40040E-001	8.41406E-001	3.57655E+000	9	...........
	74	1	8.46187E-001	4.02655E-004	0.00000E+000	3.40721E-004	2.40040E-001	8.46487E-001	3.57630E+000	9	...........
	75	1.01333	8.51142E-001	4.01620E-004	0.00000E+000	3.41836E-004	2.40040E-001	8.51457E-001	3.57630E+000	9	...........
	76	1.02667	8.56070E-001	3.99991E-004	0.00000E+000	3.42420E-004	2.40040E-001	8.56368E-001	3.57630E+000	9	...........
	77	1.04	8.60912E-001	4.01863E-004	0.00000E+000	3.45969E-004	2.40040E-001	8.61209E-001	3.57630E+000	9	...........
	78	1.05333	8.65654E-001	3.99015E-004	0.00000E+000	3.45409E-004	2.40040E-001	8.65964E-001	3.57630E+000	9	...........
	79	1.06667	8.70519E-001	4.02017E-004	0.00000E+000	3.49964E-004	2.40040E-001	8.70814E-001	3.57630E+000	9	...........
	80	1.08	8.75300E-001	4.02467E-004	0.00000E+000	3.52280E-004	2.40040E-001	8.75612E-001	3.57630E+000	9	...........
	81	1.09333	8.79987E-001	3.99164E-004	0.00000E+000	3.51259E-004	2.40040E-001	8.80271E-001	3.57630E+000	9	...........
	82	1.10667	8.84726E-001	3.99664E-004	0.00000E+000	3.53593E-004	2.40040E-001	8.85020E-001	3.57630E+000	9	...........
	83	1.12	8.89333E-001	4.00512E-004	0.00000E+000	3.56188E-004	2.40040E-001	8.89613E-001	3.57630E+000	9	...........
	84	1.13333	8.93948E-001	4.01866E-004	0.00000E+000	3.59247E-004	2.40040E-001	8.94260E-001	3.57630E+000	9	...........
	85	1.14667	8.98537E-001	4.01699E-004	0.00000E+000	3.60942E-004	2.40040E-001	8.98854E-001	3.57630E+000	9	...........
	86	1.16	9.03118E-001	4.01905E-004	0.00000E+000	3.62967E-004	2.40040E-001	9.03435E-001	3.57630E+000	9	...........
	87	1.17333	9.07688E-001	4.02609E-004	0.00000E+000	3.65443E-004	2.40040E-001	9.08007E-001	3.57630E+000	9	...........
	88	1.18667	9.12200E-001	4.00602E-004	0.00000E+000	3.65429E-004	2.40040E-001	9.12484E-001	3.57630E+000	9	...........
	89	1.2	9.16645E-001	4.01474E-004	0.00000E+000	3.68009E-004	2.40040E-001	9.16953E-001	3.57630E+000	9	...........
	90	1.21333	9.21076E-001	4.01728E-004	0.00000E+000	3.70022E-004	2.40040E-001	9.21332E-001	3.57630E+000	9	...........
	91	1.22667	9.25386E-001	4.00677E-004	0.00000E+000	3.70781E-004	2.40040E-001	9.25670E-001	3.57630E+000	9	...........
	92	1.24	9.29724E-001	4.02706E-004	0.00000E+000	3.74405E-004	2.40040E-001	9.29983E-001	3.57630E+000	9	...........
	93	1.25333	9.34017E-001	4.01336E-004	0.00000E+000	3.74854E-004	2.40040E-001	9.34298E-001	3.57630E+000	9	...........
	94	1.26667	9.38237E-001	4.00425E-004	0.00000E+000	3.75694E-004	2.40040E-001	9.38556E-001	3.57630E+000	9	...........
	95	1.28	9.42482E-001	4.00284E-004	0.00000E+000	3.77261E-004	2.40040E-001	9.42746E-001	3.57630E+000	9	...........
	96	1.29333	9.46655E-001	4.01234E-004	0.00000E+000	3.79830E-004	2.40040E-001	9.46949E-001	3.57630E+000	9	...........
	97	1.30667	9.50723E-001	4.01134E-004	0.00000E+000	3.81367E-004	2.40040E-001	9.51023E-001	3.57630E+000	9	...........
	98	1.32	9.54794E-001	4.01887E-004	0.00000E+000	3.83719E-004	2.40040E-001	9.55089E-001	3.57630E+000	9	...........
	99	1.33333	9.58758E-001	4.00600E-004	0.00000E+000	3.84079E-004	2.40040E-001	9.59078E-001	3.57630E+000	9	...........
	100	1.34667	9.62723E-001	4.01812E-004	0.00000E+000	3.86834E-004	2.40040E-001	9.63041E-001	3.57630E+000	9	...........
	101	1.36	9.66677E-001	4.01842E-004	0.00000E+000	3.88452E-004	2.40040E-001	9.67030E-001	3.57630E+000	9	...........
	102	1.37333	9.70645E-001	4.01411E-004	0.00000E+000	3.89627E-004	2.40040E-001	9.71006E-001	3.57630E+000	9	...........
	103	1.38667	9.74632E-001	4.01873E-004	0.00000E+000	3.91678E-004	2.40040E-001	9.74955E-001	3.57630E+000	9	...........
	104	1.4	9.78517E-001	4.01622E-004	0.00000E+000	3.92994E-004	2.40040E-001	9.78819E-001	3.57630E+000	9	...........
	105	1.41333	9.82289E-001	3.99866E-004	0.00000E+000	3.92784E-004	2.40040E-001	9.82602E-001	3.57630E+000	9	...........
	106	1.42667	9.86032E-001	4.01687E-004	0.00000E+000	3.96076E-004	2.40040E-001	9.86359E-001	3.57630E+000	9	...........
	107	1.44	9.89732E-001	4.01005E-004	0.00000E+000	3.96888E-004	2.40040E-001	9.90039E-001	3.57630E+000	9	...........
	108	1.45333	9.93344E-001	4.01097E-004	0.00000E+000	3.98427E-004	2.40040E-001	9.93662E-001	3.57630E+000	9	...........
	109	1.46667	9.96966E-001	4.01033E-004	0.00000E+000	3.99816E-004	2.40040E-001	9.97290E-001	3.57630E+000	9	...........
	110	1.47333	9.99668E-001	3.99362E-004	0.00000E+000	3.99230E-004	2.40040E-001	9.99997E-001	3.57630E+000	9	...........
STARTTIMEOFFSET	QUANT	2279.518	Start Time Offset (s)
