EXPLAIN
TAG	PWR800_CHARGE
TITLE	LABEL	PWR Cyclic Charge Discharge (Cell) - Charge Step	Test &Identifier
DATE	LABEL	12-7-2017	Date
TIME	LABEL	14:39:51	Time
NOTES	NOTES	3	&Notes...
	supercap test cell
	0.4mg
	6M KOH
PSTAT	PSTAT	IFC5000-01520	Potentiostat
CAPACITY	QUANT	1.00000E-003	Capacity (A-hr)
CELLTYPE	SELECTOR	1	&Cell Type
WORKINGCONNECTION	SELECTOR	0	&Working Lead
MAXCHARGETIME	VARIABLEANDUNITS	1.00000E+002	s	1.00000E+002	second(s)	Max &Charge Time
CHARGECURRENT	QUANT	4.00000E-004	&Charge Current (A) 
VOLTAGEFINISH	TWOPARAM	F	1.00000E-003	3.60000E+003	&Voltage Finish	 I (A) < 	Max Time(s)
SAMPLETIME	QUANT	1.00000E-002	Sa&mple Period (s)
CHARGESTOPAT1	MULTIPARAM	4	1.00000E+000	Charge Stop At &1	Voltage > Limit	V
CHARGESTOPAT2	MULTIPARAM	0	0.00000E+000	Charge Stop At &2	None	N/A
AESBHCSELECTOR	TOGGLE	F	Save Both Half Cells
IRCOMP	TOGGLE	F	IR &Measure
EOC	QUANT	0	Open Circuit (V)
SEQUENCER	TOGGLE	TRUE	Run as Sequence
PSTATMODEL	IQUANT	53	Pstat Model
PSTATSECTION	LABEL	IFC5000-01520	Pstat Section
PSTATSERIALNO	LABEL	01520	Pstat Serial Number
CTRLMODE	IQUANT	0	Control Mode
ELECTROMETER	IQUANT	1	RE=0 or CS=1
IESTAB	IQUANT	0	I/E Stability
CASPEED	IQUANT	4	Control Amp Speed
CONVENTION	IQUANT	1	Current Convention
ICHRANGE	IQUANT	2	Ich Range
ICHRANGEMODE	TOGGLE	T	Ich Auto Range
ICHOFFSETENABLE	TOGGLE	F	Ich Offset Enable
ICHOFFSET	QUANT	0	Ich Offset (V)
ICHFILTER	IQUANT	1	Ich Filter
VCHRANGE	IQUANT	2	Vch Range
VCHRANGEMODE	TOGGLE	T	Vch Auto Range
VCHOFFSETENABLE	TOGGLE	F	Vch Offset Enable
VCHOFFSET	QUANT	0	Vch Offset (V)
VCHFILTER	IQUANT	1	Vch Filter
IERANGELOWERLIMIT	IQUANT	9	I/E Range Lower Limit
IERANGEMODE	TOGGLE	F	I/E AutoRange
IERANGE	IQUANT	9	I/E Range
ACHSELECT	IQUANT	1	Ach Select
ACHRANGE	IQUANT	2	Ach Range
ACHOFFSETENABLE	TOGGLE	F	Ach Offset Enable
ACHOFFSET	QUANT	0	Ach Offset (V)
ACHFILTER	IQUANT	1	Ach Filter
CABLEID	IQUANT	14	Cable ID
DCCALDATE	LABEL	5-7-2017	DC Calibration Date
ACCALDATE	LABEL	12/3/2015	AC Calibration Date
FRAMEWORKVERSION	QUANT	7.01	Framework Version
INSTRUMENTVERSION	LABEL	4.00	Instrument Version
CURVE	TABLE	125
	Pt	T	Vf	Im	Vu	Pwr	Sig	Ach	Temp	IERange	Over
	#	s	V	A	V	W	V	V	deg C	#	bits
	0	0.013333	3.52247E-001	4.00709E-004	0.00000E+000	1.41148E-004	2.40040E-001	3.52343E-001	3.57610E+000	9	...........
	1	0.026667	3.63206E-001	4.01192E-004	0.00000E+000	1.45715E-004	2.40040E-001	3.63282E-001	3.57610E+000	9	...........
	2	0.04	3.72688E-001	4.00145E-004	0.00000E+000	1.49129E-004	2.40040E-001	3.72761E-001	3.57610E+000	9	...........
	3	0.053333	3.81338E-001	4.01716E-004	0.00000E+000	1.53189E-004	2.40040E-001	3.81419E-001	3.57610E+000	9	...........
	4	0.066667	3.89440E-001	4.00323E-004	0.00000E+000	1.55902E-004	2.40040E-001	3.89516E-001	3.57640E+000	9	...........
	5	0.08	3.97126E-001	4.01279E-004	0.00000E+000	1.59358E-004	2.40040E-001	3.97200E-001	3.57690E+000	9	...........
	6	0.093333	4.04550E-001	4.02363E-004	0.00000E+000	1.62776E-004	2.40040E-001	4.04632E-001	3.57690E+000	9	...........
	7	0.106667	4.11661E-001	4.00934E-004	0.00000E+000	1.65049E-004	2.40040E-001	4.11744E-001	3.57690E+000	9	...........
	8	0.12	4.18699E-001	4.00812E-004	0.00000E+000	1.67820E-004	2.40040E-001	4.18789E-001	3.57690E+000	9	...........
	9	0.133333	4.25610E-001	4.00271E-004	0.00000E+000	1.70359E-004	2.40040E-001	4.25698E-001	3.57690E+000	9	...........
	10	0.146667	4.32345E-001	4.01663E-004	0.00000E+000	1.73657E-004	2.40040E-001	4.32440E-001	3.57690E+000	9	...........
	11	0.16	4.38949E-001	4.02463E-004	0.00000E+000	1.76661E-004	2.40040E-001	4.39044E-001	3.57690E+000	9	...........
	12	0.173333	4.45396E-001	4.00416E-004	0.00000E+000	1.78344E-004	2.40040E-001	4.45490E-001	3.57690E+000	9	...........
	13	0.186667	4.51917E-001	4.01136E-004	0.00000E+000	1.81280E-004	2.40040E-001	4.52013E-001	3.57690E+000	9	...........
	14	0.2	4.58324E-001	4.00437E-004	0.00000E+000	1.83530E-004	2.40040E-001	4.58418E-001	3.57690E+000	9	...........
	15	0.213333	4.64606E-001	4.01188E-004	0.00000E+000	1.86394E-004	2.40040E-001	4.64702E-001	3.57690E+000	9	...........
	16	0.226667	4.70807E-001	4.01392E-004	0.00000E+000	1.88978E-004	2.40040E-001	4.70906E-001	3.57690E+000	9	...........
	17	0.24	4.76991E-001	4.00828E-004	0.00000E+000	1.91192E-004	2.40040E-001	4.77092E-001	3.57690E+000	9	...........
	18	0.253333	4.83174E-001	4.01808E-004	0.00000E+000	1.94143E-004	2.40040E-001	4.83268E-001	3.57690E+000	9	...........
	19	0.266667	4.89295E-001	4.01804E-004	0.00000E+000	1.96600E-004	2.40040E-001	4.89394E-001	3.57690E+000	9	...........
	20	0.28	4.95275E-001	3.99998E-004	0.00000E+000	1.98109E-004	2.40040E-001	4.95374E-001	3.57690E+000	9	...........
	21	0.293333	5.01255E-001	4.00745E-004	0.00000E+000	2.00875E-004	2.40040E-001	5.01359E-001	3.57690E+000	9	...........
	22	0.306667	5.07275E-001	4.00366E-004	0.00000E+000	2.03096E-004	2.40040E-001	5.07381E-001	3.57690E+000	9	...........
	23	0.32	5.13207E-001	4.01343E-004	0.00000E+000	2.05972E-004	2.40040E-001	5.13313E-001	3.57690E+000	9	...........
	24	0.333333	5.19138E-001	4.02411E-004	0.00000E+000	2.08907E-004	2.40040E-001	5.19247E-001	3.57690E+000	9	...........
	25	0.346667	5.24977E-001	4.00999E-004	0.00000E+000	2.10515E-004	2.40040E-001	5.25088E-001	3.57690E+000	9	...........
	26	0.36	5.30809E-001	4.01122E-004	0.00000E+000	2.12919E-004	2.40040E-001	5.30903E-001	3.57690E+000	9	...........
	27	0.373333	5.36345E-001	4.00442E-004	0.00000E+000	2.14775E-004	2.40040E-001	5.36581E-001	3.57690E+000	9	...........
	28	0.386667	5.42191E-001	4.02634E-004	0.00000E+000	2.18304E-004	2.40040E-001	5.42415E-001	3.57690E+000	9	...........
	29	0.4	5.47980E-001	4.01660E-004	0.00000E+000	2.20102E-004	2.40040E-001	5.48214E-001	3.57690E+000	9	...........
	30	0.413333	5.53699E-001	4.01832E-004	0.00000E+000	2.22494E-004	2.40040E-001	5.53942E-001	3.57690E+000	9	...........
	31	0.426667	5.59381E-001	4.00498E-004	0.00000E+000	2.24031E-004	2.40040E-001	5.59639E-001	3.57690E+000	9	...........
	32	0.44	5.65115E-001	4.00986E-004	0.00000E+000	2.26603E-004	2.40040E-001	5.65330E-001	3.57690E+000	9	...........
	33	0.453333	5.70834E-001	3.99963E-004	0.00000E+000	2.28312E-004	2.40040E-001	5.71056E-001	3.57690E+000	9	...........
	34	0.466667	5.76423E-001	4.01377E-004	0.00000E+000	2.31363E-004	2.40040E-001	5.76662E-001	3.57690E+000	9	...........
	35	0.48	5.81929E-001	4.02232E-004	0.00000E+000	2.34070E-004	2.40040E-001	5.82163E-001	3.57690E+000	9	...........
	36	0.493333	5.87519E-001	4.01409E-004	0.00000E+000	2.35835E-004	2.40040E-001	5.87761E-001	3.57690E+000	9	...........
	37	0.506667	5.93118E-001	4.00525E-004	0.00000E+000	2.37559E-004	2.40040E-001	5.93348E-001	3.57690E+000	9	...........
	38	0.52	5.98690E-001	4.00871E-004	0.00000E+000	2.39998E-004	2.40040E-001	5.98931E-001	3.57690E+000	9	...........
	39	0.533333	6.04255E-001	4.01372E-004	0.00000E+000	2.42531E-004	2.40040E-001	6.04543E-001	3.57690E+000	9	...........
	40	0.546667	6.09778E-001	4.00645E-004	0.00000E+000	2.44305E-004	2.40040E-001	6.10012E-001	3.57690E+000	9	...........
	41	0.56	6.15311E-001	4.00002E-004	0.00000E+000	2.46126E-004	2.40040E-001	6.15541E-001	3.57690E+000	9	...........
	42	0.573333	6.20803E-001	4.00312E-004	0.00000E+000	2.48515E-004	2.40040E-001	6.20998E-001	3.57690E+000	9	...........
	43	0.586667	6.26274E-001	4.01245E-004	0.00000E+000	2.51289E-004	2.40040E-001	6.26466E-001	3.57690E+000	9	...........
	44	0.6	6.31844E-001	4.01535E-004	0.00000E+000	2.53707E-004	2.40040E-001	6.32054E-001	3.57690E+000	9	...........
	45	0.613333	6.37299E-001	4.00366E-004	0.00000E+000	2.55153E-004	2.40040E-001	6.37529E-001	3.57690E+000	9	...........
	46	0.626667	6.42764E-001	4.01697E-004	0.00000E+000	2.58197E-004	2.40040E-001	6.42947E-001	3.57690E+000	9	...........
	47	0.64	6.48226E-001	4.00587E-004	0.00000E+000	2.59671E-004	2.40040E-001	6.48427E-001	3.57690E+000	9	...........
	48	0.653333	6.53722E-001	4.01923E-004	0.00000E+000	2.62746E-004	2.40040E-001	6.53919E-001	3.57690E+000	9	...........
	49	0.666667	6.59100E-001	4.01441E-004	0.00000E+000	2.64590E-004	2.40040E-001	6.59302E-001	3.57690E+000	9	...........
	50	0.68	6.64447E-001	4.00880E-004	0.00000E+000	2.66364E-004	2.40040E-001	6.64683E-001	3.57690E+000	9	...........
	51	0.693333	6.69867E-001	3.99739E-004	0.00000E+000	2.67771E-004	2.40040E-001	6.70060E-001	3.57690E+000	9	...........
	52	0.706667	6.75197E-001	4.01350E-004	0.00000E+000	2.70991E-004	2.40040E-001	6.75422E-001	3.57690E+000	9	...........
	53	0.72	6.80553E-001	4.00645E-004	0.00000E+000	2.72660E-004	2.40040E-001	6.80774E-001	3.57690E+000	9	...........
	54	0.733333	6.85884E-001	4.01335E-004	0.00000E+000	2.75269E-004	2.40040E-001	6.86138E-001	3.57690E+000	9	...........
	55	0.746667	6.91217E-001	4.00470E-004	0.00000E+000	2.76812E-004	2.40040E-001	6.91449E-001	3.57690E+000	9	...........
	56	0.76	6.96601E-001	4.00952E-004	0.00000E+000	2.79304E-004	2.40040E-001	6.96823E-001	3.57690E+000	9	...........
	57	0.773333	7.01872E-001	4.01095E-004	0.00000E+000	2.81517E-004	2.40040E-001	7.02090E-001	3.57690E+000	9	...........
	58	0.786667	7.07188E-001	4.02894E-004	0.00000E+000	2.84922E-004	2.40040E-001	7.07420E-001	3.57690E+000	9	...........
	59	0.8	7.12418E-001	4.01832E-004	0.00000E+000	2.86272E-004	2.40040E-001	7.12661E-001	3.57690E+000	9	...........
	60	0.813333	7.17705E-001	4.00448E-004	0.00000E+000	2.87404E-004	2.40040E-001	7.17966E-001	3.57690E+000	9	...........
	61	0.826667	7.22922E-001	4.01428E-004	0.00000E+000	2.90202E-004	2.40040E-001	7.23149E-001	3.57690E+000	9	...........
	62	0.84	7.28113E-001	4.02531E-004	0.00000E+000	2.93088E-004	2.40040E-001	7.28329E-001	3.57690E+000	9	...........
	63	0.853333	7.33325E-001	3.99860E-004	0.00000E+000	2.93228E-004	2.40040E-001	7.33548E-001	3.57690E+000	9	...........
	64	0.866667	7.38554E-001	4.00153E-004	0.00000E+000	2.95535E-004	2.40040E-001	7.38781E-001	3.57690E+000	9	...........
	65	0.88	7.43724E-001	4.01256E-004	0.00000E+000	2.98423E-004	2.40040E-001	7.43955E-001	3.57690E+000	9	...........
	66	0.893333	7.48828E-001	4.00622E-004	0.00000E+000	2.99997E-004	2.40040E-001	7.49053E-001	3.57690E+000	9	...........
	67	0.906667	7.53956E-001	4.03136E-004	0.00000E+000	3.03947E-004	2.40040E-001	7.54186E-001	3.57690E+000	9	...........
	68	0.92	7.59018E-001	3.99532E-004	0.00000E+000	3.03252E-004	2.40040E-001	7.59247E-001	3.57690E+000	9	...........
	69	0.933333	7.64105E-001	4.00474E-004	0.00000E+000	3.06004E-004	2.40040E-001	7.64347E-001	3.57690E+000	9	...........
	70	0.946667	7.69187E-001	4.01410E-004	0.00000E+000	3.08759E-004	2.40040E-001	7.69444E-001	3.57690E+000	9	...........
	71	0.96	7.74205E-001	4.01434E-004	0.00000E+000	3.10792E-004	2.40040E-001	7.74451E-001	3.57690E+000	9	...........
	72	0.97333	7.79204E-001	3.99907E-004	0.00000E+000	3.11610E-004	2.40040E-001	7.79475E-001	3.57690E+000	9	...........
	73	0.98667	7.84236E-001	4.01254E-004	0.00000E+000	3.14678E-004	2.40040E-001	7.84501E-001	3.57690E+000	9	...........
	74	1	7.89212E-001	3.99960E-004	0.00000E+000	3.15654E-004	2.40040E-001	7.89500E-001	3.57690E+000	9	...........
	75	1.01333	7.94166E-001	3.99796E-004	0.00000E+000	3.17504E-004	2.40040E-001	7.94435E-001	3.57690E+000	9	...........
	76	1.02667	7.99112E-001	4.00065E-004	0.00000E+000	3.19696E-004	2.40040E-001	7.99367E-001	3.57690E+000	9	...........
	77	1.04	8.04024E-001	4.01223E-004	0.00000E+000	3.22593E-004	2.40040E-001	8.04277E-001	3.57690E+000	9	...........
	78	1.05333	8.08918E-001	4.00505E-004	0.00000E+000	3.23976E-004	2.40040E-001	8.09198E-001	3.57690E+000	9	...........
	79	1.06667	8.13772E-001	4.00649E-004	0.00000E+000	3.26037E-004	2.40040E-001	8.14027E-001	3.57675E+000	9	...........
	80	1.08	8.18624E-001	4.00427E-004	0.00000E+000	3.27799E-004	2.40040E-001	8.18892E-001	3.57650E+000	9	...........
	81	1.09333	8.23485E-001	4.02318E-004	0.00000E+000	3.31303E-004	2.40040E-001	8.23760E-001	3.57650E+000	9	...........
	82	1.10667	8.28261E-001	4.01466E-004	0.00000E+000	3.32519E-004	2.40040E-001	8.28533E-001	3.57650E+000	9	...........
	83	1.12	8.32979E-001	4.00557E-004	0.00000E+000	3.33656E-004	2.40040E-001	8.33251E-001	3.57650E+000	9	...........
	84	1.13333	8.37591E-001	4.00943E-004	0.00000E+000	3.35826E-004	2.40040E-001	8.37907E-001	3.57650E+000	9	...........
	85	1.14667	8.42225E-001	3.99986E-004	0.00000E+000	3.36879E-004	2.40040E-001	8.42519E-001	3.57650E+000	9	...........
	86	1.16	8.46898E-001	4.00393E-004	0.00000E+000	3.39092E-004	2.40040E-001	8.47182E-001	3.57650E+000	9	...........
	87	1.17333	8.51475E-001	3.99606E-004	0.00000E+000	3.40255E-004	2.40040E-001	8.51773E-001	3.57650E+000	9	...........
	88	1.18667	8.56023E-001	4.00656E-004	0.00000E+000	3.42971E-004	2.40040E-001	8.56333E-001	3.57650E+000	9	...........
	89	1.2	8.60563E-001	4.00819E-004	0.00000E+000	3.44930E-004	2.40040E-001	8.60824E-001	3.57650E+000	9	...........
	90	1.21333	8.65037E-001	3.99706E-004	0.00000E+000	3.45761E-004	2.40040E-001	8.65304E-001	3.57650E+000	9	...........
	91	1.22667	8.69563E-001	4.00820E-004	0.00000E+000	3.48538E-004	2.40040E-001	8.69836E-001	3.57650E+000	9	...........
	92	1.24	8.74120E-001	4.01618E-004	0.00000E+000	3.51062E-004	2.40040E-001	8.74398E-001	3.57650E+000	9	...........
	93	1.25333	8.78534E-001	4.02253E-004	0.00000E+000	3.53392E-004	2.40040E-001	8.78796E-001	3.57650E+000	9	...........
	94	1.26667	8.82910E-001	4.00724E-004	0.00000E+000	3.53803E-004	2.40040E-001	8.83163E-001	3.57650E+000	9	...........
	95	1.28	8.87332E-001	4.01694E-004	0.00000E+000	3.56436E-004	2.40040E-001	8.87604E-001	3.57650E+000	9	...........
	96	1.29333	8.91720E-001	4.00594E-004	0.00000E+000	3.57218E-004	2.40040E-001	8.91984E-001	3.57650E+000	9	...........
	97	1.30667	8.95989E-001	3.99895E-004	0.00000E+000	3.58301E-004	2.40040E-001	8.96279E-001	3.57650E+000	9	...........
	98	1.32	9.00318E-001	4.02234E-004	0.00000E+000	3.62138E-004	2.40040E-001	9.00570E-001	3.57650E+000	9	...........
	99	1.33333	9.04501E-001	4.00567E-004	0.00000E+000	3.62313E-004	2.40040E-001	9.04768E-001	3.57650E+000	9	...........
	100	1.34667	9.08747E-001	4.01173E-004	0.00000E+000	3.64565E-004	2.40040E-001	9.09020E-001	3.57650E+000	9	...........
	101	1.36	9.12921E-001	4.01633E-004	0.00000E+000	3.66659E-004	2.40040E-001	9.13222E-001	3.57650E+000	9	...........
	102	1.37333	9.17035E-001	4.01533E-004	0.00000E+000	3.68220E-004	2.40040E-001	9.17347E-001	3.57650E+000	9	...........
	103	1.38667	9.21216E-001	4.01505E-004	0.00000E+000	3.69872E-004	2.40040E-001	9.21485E-001	3.57650E+000	9	...........
	104	1.4	9.25360E-001	4.00530E-004	0.00000E+000	3.70635E-004	2.40040E-001	9.25634E-001	3.57650E+000	9	...........
	105	1.41333	9.29421E-001	4.01928E-004	0.00000E+000	3.73560E-004	2.40040E-001	9.29692E-001	3.57650E+000	9	...........
	106	1.42667	9.33445E-001	4.01061E-004	0.00000E+000	3.74368E-004	2.40040E-001	9.33752E-001	3.57650E+000	9	...........
	107	1.44	9.37417E-001	4.01114E-004	0.00000E+000	3.76011E-004	2.40040E-001	9.37771E-001	3.57650E+000	9	...........
	108	1.45333	9.41398E-001	4.00886E-004	0.00000E+000	3.77393E-004	2.40040E-001	9.41696E-001	3.57650E+000	9	...........
	109	1.46667	9.45287E-001	4.01608E-004	0.00000E+000	3.79635E-004	2.40040E-001	9.45614E-001	3.57650E+000	9	...........
	110	1.48	9.49227E-001	4.01237E-004	0.00000E+000	3.80865E-004	2.40040E-001	9.49538E-001	3.57650E+000	9	...........
	111	1.49333	9.53040E-001	4.01839E-004	0.00000E+000	3.82969E-004	2.40040E-001	9.53368E-001	3.57650E+000	9	...........
	112	1.50667	9.56881E-001	4.01347E-004	0.00000E+000	3.84042E-004	2.40040E-001	9.57205E-001	3.57650E+000	9	...........
	113	1.52	9.60630E-001	4.01035E-004	0.00000E+000	3.85246E-004	2.40040E-001	9.60983E-001	3.57650E+000	9	...........
	114	1.53333	9.64419E-001	4.00822E-004	0.00000E+000	3.86560E-004	2.40040E-001	9.64760E-001	3.57650E+000	9	...........
	115	1.54667	9.68094E-001	4.01361E-004	0.00000E+000	3.88555E-004	2.40040E-001	9.68448E-001	3.57650E+000	9	...........
	116	1.56	9.71764E-001	4.00641E-004	0.00000E+000	3.89328E-004	2.40040E-001	9.72139E-001	3.57650E+000	9	...........
	117	1.57333	9.75427E-001	4.01450E-004	0.00000E+000	3.91585E-004	2.40040E-001	9.75731E-001	3.57650E+000	9	...........
	118	1.58667	9.79022E-001	4.01120E-004	0.00000E+000	3.92705E-004	2.40040E-001	9.79339E-001	3.57650E+000	9	...........
	119	1.6	9.82595E-001	4.00439E-004	0.00000E+000	3.93469E-004	2.40040E-001	9.82927E-001	3.57650E+000	9	...........
	120	1.61333	9.86117E-001	4.01190E-004	0.00000E+000	3.95620E-004	2.40040E-001	9.86451E-001	3.57650E+000	9	...........
	121	1.62667	9.89512E-001	3.99955E-004	0.00000E+000	3.95761E-004	2.40040E-001	9.89820E-001	3.57650E+000	9	...........
	122	1.64	9.92928E-001	4.02326E-004	0.00000E+000	3.99480E-004	2.40040E-001	9.93234E-001	3.57650E+000	9	...........
	123	1.65333	9.96306E-001	4.00796E-004	0.00000E+000	3.99315E-004	2.40040E-001	9.96615E-001	3.57650E+000	9	...........
	124	1.66333	9.99334E-001	4.00515E-004	0.00000E+000	4.00248E-004	2.40040E-001	9.99672E-001	3.57650E+000	9	...........
STARTTIMEOFFSET	QUANT	1020.834	Start Time Offset (s)
