EXPLAIN
TAG	PWR800_CHARGE
TITLE	LABEL	PWR Cyclic Charge Discharge (Cell) - Charge Step	Test &Identifier
DATE	LABEL	12-7-2017	Date
TIME	LABEL	14:23:27	Time
NOTES	NOTES	3	&Notes...
	supercap test cell
	0.4mg
	6M KOH
PSTAT	PSTAT	IFC5000-01520	Potentiostat
CAPACITY	QUANT	1.00000E-003	Capacity (A-hr)
CELLTYPE	SELECTOR	1	&Cell Type
WORKINGCONNECTION	SELECTOR	0	&Working Lead
MAXCHARGETIME	VARIABLEANDUNITS	1.00000E+002	s	1.00000E+002	second(s)	Max &Charge Time
CHARGECURRENT	QUANT	4.00000E-004	&Charge Current (A) 
VOLTAGEFINISH	TWOPARAM	F	1.00000E-003	3.60000E+003	&Voltage Finish	 I (A) < 	Max Time(s)
SAMPLETIME	QUANT	1.00000E-002	Sa&mple Period (s)
CHARGESTOPAT1	MULTIPARAM	4	1.00000E+000	Charge Stop At &1	Voltage > Limit	V
CHARGESTOPAT2	MULTIPARAM	0	0.00000E+000	Charge Stop At &2	None	N/A
AESBHCSELECTOR	TOGGLE	F	Save Both Half Cells
IRCOMP	TOGGLE	F	IR &Measure
EOC	QUANT	0	Open Circuit (V)
SEQUENCER	TOGGLE	TRUE	Run as Sequence
PSTATMODEL	IQUANT	53	Pstat Model
PSTATSECTION	LABEL	IFC5000-01520	Pstat Section
PSTATSERIALNO	LABEL	01520	Pstat Serial Number
CTRLMODE	IQUANT	0	Control Mode
ELECTROMETER	IQUANT	1	RE=0 or CS=1
IESTAB	IQUANT	0	I/E Stability
CASPEED	IQUANT	4	Control Amp Speed
CONVENTION	IQUANT	1	Current Convention
ICHRANGE	IQUANT	2	Ich Range
ICHRANGEMODE	TOGGLE	T	Ich Auto Range
ICHOFFSETENABLE	TOGGLE	F	Ich Offset Enable
ICHOFFSET	QUANT	0	Ich Offset (V)
ICHFILTER	IQUANT	1	Ich Filter
VCHRANGE	IQUANT	2	Vch Range
VCHRANGEMODE	TOGGLE	T	Vch Auto Range
VCHOFFSETENABLE	TOGGLE	F	Vch Offset Enable
VCHOFFSET	QUANT	0	Vch Offset (V)
VCHFILTER	IQUANT	1	Vch Filter
IERANGELOWERLIMIT	IQUANT	9	I/E Range Lower Limit
IERANGEMODE	TOGGLE	F	I/E AutoRange
IERANGE	IQUANT	9	I/E Range
ACHSELECT	IQUANT	1	Ach Select
ACHRANGE	IQUANT	2	Ach Range
ACHOFFSETENABLE	TOGGLE	F	Ach Offset Enable
ACHOFFSET	QUANT	0	Ach Offset (V)
ACHFILTER	IQUANT	1	Ach Filter
CABLEID	IQUANT	14	Cable ID
DCCALDATE	LABEL	5-7-2017	DC Calibration Date
ACCALDATE	LABEL	12/3/2015	AC Calibration Date
FRAMEWORKVERSION	QUANT	7.01	Framework Version
INSTRUMENTVERSION	LABEL	4.00	Instrument Version
CURVE	TABLE	144
	Pt	T	Vf	Im	Vu	Pwr	Sig	Ach	Temp	IERange	Over
	#	s	V	A	V	W	V	V	deg C	#	bits
	0	0.013333	3.31579E-001	4.00463E-004	0.00000E+000	1.32785E-004	2.40040E-001	3.31647E-001	3.57730E+000	9	...........
	1	0.026667	3.41168E-001	4.01639E-004	0.00000E+000	1.37026E-004	2.40040E-001	3.41229E-001	3.57730E+000	9	...........
	2	0.04	3.49477E-001	4.01295E-004	0.00000E+000	1.40243E-004	2.40040E-001	3.49542E-001	3.57730E+000	9	...........
	3	0.053333	3.57204E-001	4.01219E-004	0.00000E+000	1.43317E-004	2.40040E-001	3.57263E-001	3.57730E+000	9	...........
	4	0.066667	3.64398E-001	4.00946E-004	0.00000E+000	1.46104E-004	2.40040E-001	3.64462E-001	3.57730E+000	9	...........
	5	0.08	3.71343E-001	4.01158E-004	0.00000E+000	1.48967E-004	2.40040E-001	3.71409E-001	3.57730E+000	9	...........
	6	0.093333	3.77996E-001	4.01431E-004	0.00000E+000	1.51739E-004	2.40040E-001	3.78064E-001	3.57730E+000	9	...........
	7	0.106667	3.84440E-001	4.00655E-004	0.00000E+000	1.54028E-004	2.40040E-001	3.84511E-001	3.57730E+000	9	...........
	8	0.12	3.90678E-001	4.01178E-004	0.00000E+000	1.56731E-004	2.40040E-001	3.90750E-001	3.57730E+000	9	...........
	9	0.133333	3.96851E-001	4.00496E-004	0.00000E+000	1.58937E-004	2.40040E-001	3.96927E-001	3.57730E+000	9	...........
	10	0.146667	4.02969E-001	4.01685E-004	0.00000E+000	1.61866E-004	2.40040E-001	4.03044E-001	3.57730E+000	9	...........
	11	0.16	4.08889E-001	4.00377E-004	0.00000E+000	1.63710E-004	2.40040E-001	4.08965E-001	3.57730E+000	9	...........
	12	0.173333	4.14822E-001	4.02072E-004	0.00000E+000	1.66788E-004	2.40040E-001	4.14906E-001	3.57730E+000	9	...........
	13	0.186667	4.20631E-001	4.01354E-004	0.00000E+000	1.68822E-004	2.40040E-001	4.20713E-001	3.57730E+000	9	...........
	14	0.2	4.26446E-001	4.02577E-004	0.00000E+000	1.71677E-004	2.40040E-001	4.26526E-001	3.57730E+000	9	...........
	15	0.213333	4.32094E-001	4.01670E-004	0.00000E+000	1.73559E-004	2.40040E-001	4.32173E-001	3.57730E+000	9	...........
	16	0.226667	4.37752E-001	4.01602E-004	0.00000E+000	1.75802E-004	2.40040E-001	4.37829E-001	3.57730E+000	9	...........
	17	0.24	4.43353E-001	3.99900E-004	0.00000E+000	1.77297E-004	2.40040E-001	4.43436E-001	3.57730E+000	9	...........
	18	0.253333	4.48994E-001	4.02105E-004	0.00000E+000	1.80542E-004	2.40040E-001	4.49083E-001	3.57730E+000	9	...........
	19	0.266667	4.54425E-001	4.00973E-004	0.00000E+000	1.82212E-004	2.40040E-001	4.54514E-001	3.57663E+000	9	...........
	20	0.28	4.59892E-001	4.00927E-004	0.00000E+000	1.84383E-004	2.40040E-001	4.59978E-001	3.57620E+000	9	...........
	21	0.293333	4.65385E-001	4.01561E-004	0.00000E+000	1.86880E-004	2.40040E-001	4.65473E-001	3.57620E+000	9	...........
	22	0.306667	4.70844E-001	4.01288E-004	0.00000E+000	1.88944E-004	2.40040E-001	4.70939E-001	3.57620E+000	9	...........
	23	0.32	4.76207E-001	4.00572E-004	0.00000E+000	1.90755E-004	2.40040E-001	4.76298E-001	3.57620E+000	9	...........
	24	0.333333	4.81551E-001	4.01218E-004	0.00000E+000	1.93207E-004	2.40040E-001	4.81643E-001	3.57620E+000	9	...........
	25	0.346667	4.86885E-001	3.99934E-004	0.00000E+000	1.94722E-004	2.40040E-001	4.86981E-001	3.57620E+000	9	...........
	26	0.36	4.92214E-001	4.01560E-004	0.00000E+000	1.97653E-004	2.40040E-001	4.92310E-001	3.57620E+000	9	...........
	27	0.373333	4.97464E-001	4.00750E-004	0.00000E+000	1.99359E-004	2.40040E-001	4.97559E-001	3.57620E+000	9	...........
	28	0.386667	5.02711E-001	4.01102E-004	0.00000E+000	2.01639E-004	2.40040E-001	5.02808E-001	3.57620E+000	9	...........
	29	0.4	5.08033E-001	4.01794E-004	0.00000E+000	2.04125E-004	2.40040E-001	5.08135E-001	3.57620E+000	9	...........
	30	0.413333	5.13249E-001	4.02156E-004	0.00000E+000	2.06406E-004	2.40040E-001	5.13347E-001	3.57620E+000	9	...........
	31	0.426667	5.18416E-001	4.01002E-004	0.00000E+000	2.07886E-004	2.40040E-001	5.18524E-001	3.57620E+000	9	...........
	32	0.44	5.23615E-001	3.99969E-004	0.00000E+000	2.09429E-004	2.40040E-001	5.23719E-001	3.57620E+000	9	...........
	33	0.453333	5.28777E-001	4.01714E-004	0.00000E+000	2.12417E-004	2.40040E-001	5.28880E-001	3.57620E+000	9	...........
	34	0.466667	5.33749E-001	4.01142E-004	0.00000E+000	2.14109E-004	2.40040E-001	5.33868E-001	3.57620E+000	9	...........
	35	0.48	5.38742E-001	4.01297E-004	0.00000E+000	2.16196E-004	2.40040E-001	5.38949E-001	3.57620E+000	9	...........
	36	0.493333	5.43904E-001	3.99625E-004	0.00000E+000	2.17357E-004	2.40040E-001	5.44111E-001	3.57620E+000	9	...........
	37	0.506667	5.49067E-001	4.02563E-004	0.00000E+000	2.21034E-004	2.40040E-001	5.49274E-001	3.57620E+000	9	...........
	38	0.52	5.54176E-001	4.00498E-004	0.00000E+000	2.21946E-004	2.40040E-001	5.54396E-001	3.57620E+000	9	...........
	39	0.533333	5.59156E-001	4.00883E-004	0.00000E+000	2.24156E-004	2.40040E-001	5.59397E-001	3.57620E+000	9	...........
	40	0.546667	5.64222E-001	4.01391E-004	0.00000E+000	2.26474E-004	2.40040E-001	5.64427E-001	3.57620E+000	9	...........
	41	0.56	5.69283E-001	4.00779E-004	0.00000E+000	2.28157E-004	2.40040E-001	5.69510E-001	3.57620E+000	9	...........
	42	0.573333	5.74276E-001	4.00550E-004	0.00000E+000	2.30026E-004	2.40040E-001	5.74490E-001	3.57620E+000	9	...........
	43	0.586667	5.79292E-001	4.01653E-004	0.00000E+000	2.32675E-004	2.40040E-001	5.79531E-001	3.57620E+000	9	...........
	44	0.6	5.84235E-001	4.00143E-004	0.00000E+000	2.33777E-004	2.40040E-001	5.84465E-001	3.57620E+000	9	...........
	45	0.613333	5.89270E-001	4.02180E-004	0.00000E+000	2.36993E-004	2.40040E-001	5.89495E-001	3.57620E+000	9	...........
	46	0.626667	5.94202E-001	4.01350E-004	0.00000E+000	2.38483E-004	2.40040E-001	5.94436E-001	3.57620E+000	9	...........
	47	0.64	5.99109E-001	4.01641E-004	0.00000E+000	2.40627E-004	2.40040E-001	5.99355E-001	3.57620E+000	9	...........
	48	0.653333	6.04073E-001	4.01148E-004	0.00000E+000	2.42323E-004	2.40040E-001	6.04343E-001	3.57620E+000	9	...........
	49	0.666667	6.08992E-001	4.01010E-004	0.00000E+000	2.44211E-004	2.40040E-001	6.09257E-001	3.57620E+000	9	...........
	50	0.68	6.13962E-001	4.01907E-004	0.00000E+000	2.46755E-004	2.40040E-001	6.14209E-001	3.57620E+000	9	...........
	51	0.693333	6.18940E-001	4.00047E-004	0.00000E+000	2.47605E-004	2.40040E-001	6.19126E-001	3.57620E+000	9	...........
	52	0.706667	6.23826E-001	3.99916E-004	0.00000E+000	2.49478E-004	2.40040E-001	6.24021E-001	3.57620E+000	9	...........
	53	0.72	6.28620E-001	4.01438E-004	0.00000E+000	2.52352E-004	2.40040E-001	6.28834E-001	3.57620E+000	9	...........
	54	0.733333	6.33437E-001	4.01166E-004	0.00000E+000	2.54113E-004	2.40040E-001	6.33646E-001	3.57620E+000	9	...........
	55	0.746667	6.38364E-001	4.01462E-004	0.00000E+000	2.56279E-004	2.40040E-001	6.38597E-001	3.57620E+000	9	...........
	56	0.76	6.43277E-001	4.00411E-004	0.00000E+000	2.57575E-004	2.40040E-001	6.43499E-001	3.57620E+000	9	...........
	57	0.773333	6.48140E-001	4.00900E-004	0.00000E+000	2.59839E-004	2.40040E-001	6.48348E-001	3.57620E+000	9	...........
	58	0.786667	6.53020E-001	4.00641E-004	0.00000E+000	2.61627E-004	2.40040E-001	6.53258E-001	3.57620E+000	9	...........
	59	0.8	6.57857E-001	4.01192E-004	0.00000E+000	2.63927E-004	2.40040E-001	6.58059E-001	3.57620E+000	9	...........
	60	0.813333	6.62690E-001	4.00965E-004	0.00000E+000	2.65715E-004	2.40040E-001	6.62952E-001	3.57620E+000	9	...........
	61	0.826667	6.67537E-001	4.00985E-004	0.00000E+000	2.67672E-004	2.40040E-001	6.67789E-001	3.57620E+000	9	...........
	62	0.84	6.72284E-001	4.01453E-004	0.00000E+000	2.69891E-004	2.40040E-001	6.72523E-001	3.57620E+000	9	...........
	63	0.853333	6.77058E-001	4.00279E-004	0.00000E+000	2.71012E-004	2.40040E-001	6.77269E-001	3.57620E+000	9	...........
	64	0.866667	6.81741E-001	4.00919E-004	0.00000E+000	2.73323E-004	2.40040E-001	6.81980E-001	3.57620E+000	9	...........
	65	0.88	6.86519E-001	4.00566E-004	0.00000E+000	2.74996E-004	2.40040E-001	6.86767E-001	3.57620E+000	9	...........
	66	0.893333	6.91321E-001	4.00679E-004	0.00000E+000	2.76998E-004	2.40040E-001	6.91572E-001	3.57620E+000	9	...........
	67	0.906667	6.96086E-001	4.01581E-004	0.00000E+000	2.79535E-004	2.40040E-001	6.96337E-001	3.57620E+000	9	...........
	68	0.92	7.00795E-001	4.00442E-004	0.00000E+000	2.80628E-004	2.40040E-001	7.01030E-001	3.57620E+000	9	...........
	69	0.933333	7.05545E-001	3.98935E-004	0.00000E+000	2.81467E-004	2.40040E-001	7.05801E-001	3.57620E+000	9	...........
	70	0.946667	7.10298E-001	4.02476E-004	0.00000E+000	2.85877E-004	2.40040E-001	7.10545E-001	3.57620E+000	9	...........
	71	0.96	7.15024E-001	4.01072E-004	0.00000E+000	2.86776E-004	2.40040E-001	7.15293E-001	3.57620E+000	9	...........
	72	0.97333	7.19740E-001	4.01136E-004	0.00000E+000	2.88713E-004	2.40040E-001	7.19963E-001	3.57620E+000	9	...........
	73	0.98667	7.24423E-001	4.01059E-004	0.00000E+000	2.90536E-004	2.40040E-001	7.24638E-001	3.57620E+000	9	...........
	74	1	7.29056E-001	4.00184E-004	0.00000E+000	2.91757E-004	2.40040E-001	7.29319E-001	3.57620E+000	9	...........
	75	1.01333	7.33639E-001	4.01466E-004	0.00000E+000	2.94531E-004	2.40040E-001	7.33889E-001	3.57620E+000	9	...........
	76	1.02667	7.38268E-001	4.00035E-004	0.00000E+000	2.95333E-004	2.40040E-001	7.38525E-001	3.57620E+000	9	...........
	77	1.04	7.42926E-001	4.00457E-004	0.00000E+000	2.97510E-004	2.40040E-001	7.43199E-001	3.57620E+000	9	...........
	78	1.05333	7.47544E-001	4.01278E-004	0.00000E+000	2.99973E-004	2.40040E-001	7.47791E-001	3.57620E+000	9	...........
	79	1.06667	7.52137E-001	4.02170E-004	0.00000E+000	3.02487E-004	2.40040E-001	7.52406E-001	3.57620E+000	9	...........
	80	1.08	7.56845E-001	4.01064E-004	0.00000E+000	3.03543E-004	2.40040E-001	7.57082E-001	3.57620E+000	9	...........
	81	1.09333	7.61394E-001	4.02211E-004	0.00000E+000	3.06241E-004	2.40040E-001	7.61636E-001	3.57620E+000	9	...........
	82	1.10667	7.65956E-001	4.01749E-004	0.00000E+000	3.07722E-004	2.40040E-001	7.66182E-001	3.57620E+000	9	...........
	83	1.12	7.70485E-001	4.00022E-004	0.00000E+000	3.08211E-004	2.40040E-001	7.70749E-001	3.57620E+000	9	...........
	84	1.13333	7.75014E-001	4.00656E-004	0.00000E+000	3.10514E-004	2.40040E-001	7.75249E-001	3.57620E+000	9	...........
	85	1.14667	7.79525E-001	4.00551E-004	0.00000E+000	3.12239E-004	2.40040E-001	7.79775E-001	3.57620E+000	9	...........
	86	1.16	7.84014E-001	4.00732E-004	0.00000E+000	3.14180E-004	2.40040E-001	7.84275E-001	3.57620E+000	9	...........
	87	1.17333	7.88512E-001	4.01359E-004	0.00000E+000	3.16476E-004	2.40040E-001	7.88782E-001	3.57620E+000	9	...........
	88	1.18667	7.93037E-001	3.99551E-004	0.00000E+000	3.16859E-004	2.40040E-001	7.93303E-001	3.57620E+000	9	...........
	89	1.2	7.97437E-001	4.00831E-004	0.00000E+000	3.19638E-004	2.40040E-001	7.97683E-001	3.57620E+000	9	...........
	90	1.21333	8.01869E-001	4.01134E-004	0.00000E+000	3.21657E-004	2.40040E-001	8.02122E-001	3.57620E+000	9	...........
	91	1.22667	8.06271E-001	4.01022E-004	0.00000E+000	3.23332E-004	2.40040E-001	8.06558E-001	3.57620E+000	9	...........
	92	1.24	8.10651E-001	4.01561E-004	0.00000E+000	3.25526E-004	2.40040E-001	8.10922E-001	3.57620E+000	9	...........
	93	1.25333	8.14970E-001	4.00618E-004	0.00000E+000	3.26492E-004	2.40040E-001	8.15221E-001	3.57620E+000	9	...........
	94	1.26667	8.19357E-001	3.99070E-004	0.00000E+000	3.26980E-004	2.40040E-001	8.19635E-001	3.57638E+000	9	...........
	95	1.28	8.23791E-001	4.00594E-004	0.00000E+000	3.30006E-004	2.40040E-001	8.24056E-001	3.57650E+000	9	...........
	96	1.29333	8.28066E-001	4.01580E-004	0.00000E+000	3.32534E-004	2.40040E-001	8.28322E-001	3.57650E+000	9	...........
	97	1.30667	8.32352E-001	4.01446E-004	0.00000E+000	3.34144E-004	2.40040E-001	8.32632E-001	3.57650E+000	9	...........
	98	1.32	8.36577E-001	4.00930E-004	0.00000E+000	3.35409E-004	2.40040E-001	8.36855E-001	3.57650E+000	9	...........
	99	1.33333	8.40778E-001	4.01262E-004	0.00000E+000	3.37372E-004	2.40040E-001	8.41043E-001	3.57650E+000	9	...........
	100	1.34667	8.44940E-001	4.02286E-004	0.00000E+000	3.39907E-004	2.40040E-001	8.45214E-001	3.57650E+000	9	...........
	101	1.36	8.49101E-001	4.01225E-004	0.00000E+000	3.40681E-004	2.40040E-001	8.49378E-001	3.57650E+000	9	...........
	102	1.37333	8.53343E-001	4.00349E-004	0.00000E+000	3.41635E-004	2.40040E-001	8.53607E-001	3.57650E+000	9	...........
	103	1.38667	8.57560E-001	4.01084E-004	0.00000E+000	3.43953E-004	2.40040E-001	8.57853E-001	3.57650E+000	9	...........
	104	1.4	8.61657E-001	4.00527E-004	0.00000E+000	3.45117E-004	2.40040E-001	8.61961E-001	3.57650E+000	9	...........
	105	1.41333	8.65824E-001	4.01451E-004	0.00000E+000	3.47586E-004	2.40040E-001	8.66152E-001	3.57650E+000	9	...........
	106	1.42667	8.70012E-001	4.00214E-004	0.00000E+000	3.48191E-004	2.40040E-001	8.70316E-001	3.57650E+000	9	...........
	107	1.44	8.74088E-001	4.01152E-004	0.00000E+000	3.50643E-004	2.40040E-001	8.74372E-001	3.57650E+000	9	...........
	108	1.45333	8.78130E-001	4.00147E-004	0.00000E+000	3.51381E-004	2.40040E-001	8.78441E-001	3.57650E+000	9	...........
	109	1.46667	8.82092E-001	4.00919E-004	0.00000E+000	3.53648E-004	2.40040E-001	8.82393E-001	3.57650E+000	9	...........
	110	1.48	8.86126E-001	4.00800E-004	0.00000E+000	3.55160E-004	2.40040E-001	8.86442E-001	3.57650E+000	9	...........
	111	1.49333	8.90068E-001	4.00987E-004	0.00000E+000	3.56905E-004	2.40040E-001	8.90394E-001	3.57650E+000	9	...........
	112	1.50667	8.94029E-001	4.00642E-004	0.00000E+000	3.58186E-004	2.40040E-001	8.94369E-001	3.57650E+000	9	...........
	113	1.52	8.97963E-001	4.01433E-004	0.00000E+000	3.60472E-004	2.40040E-001	8.98289E-001	3.57650E+000	9	...........
	114	1.53333	9.01871E-001	4.00082E-004	0.00000E+000	3.60823E-004	2.40040E-001	9.02180E-001	3.57650E+000	9	...........
	115	1.54667	9.05695E-001	4.00934E-004	0.00000E+000	3.63123E-004	2.40040E-001	9.06015E-001	3.57650E+000	9	...........
	116	1.56	9.09553E-001	4.00397E-004	0.00000E+000	3.64182E-004	2.40040E-001	9.09858E-001	3.57650E+000	9	...........
	117	1.57333	9.13355E-001	4.00830E-004	0.00000E+000	3.66101E-004	2.40040E-001	9.13669E-001	3.57650E+000	9	...........
	118	1.58667	9.17103E-001	4.03643E-004	0.00000E+000	3.70183E-004	2.40040E-001	9.17424E-001	3.57650E+000	9	...........
	119	1.6	9.20851E-001	4.00550E-004	0.00000E+000	3.68847E-004	2.40040E-001	9.21110E-001	3.57650E+000	9	...........
	120	1.61333	9.24639E-001	4.01220E-004	0.00000E+000	3.70984E-004	2.40040E-001	9.24910E-001	3.57650E+000	9	...........
	121	1.62667	9.28366E-001	4.00700E-004	0.00000E+000	3.71996E-004	2.40040E-001	9.28640E-001	3.57650E+000	9	...........
	122	1.64	9.32038E-001	4.00807E-004	0.00000E+000	3.73568E-004	2.40040E-001	9.32318E-001	3.57650E+000	9	...........
	123	1.65333	9.35626E-001	4.02349E-004	0.00000E+000	3.76449E-004	2.40040E-001	9.35919E-001	3.57650E+000	9	...........
	124	1.66667	9.39215E-001	4.01243E-004	0.00000E+000	3.76853E-004	2.40040E-001	9.39525E-001	3.57650E+000	9	...........
	125	1.68	9.42815E-001	4.00465E-004	0.00000E+000	3.77564E-004	2.40040E-001	9.43135E-001	3.57650E+000	9	...........
	126	1.69333	9.46295E-001	4.00262E-004	0.00000E+000	3.78765E-004	2.40040E-001	9.46611E-001	3.57650E+000	9	...........
	127	1.70667	9.49761E-001	4.01058E-004	0.00000E+000	3.80909E-004	2.40040E-001	9.50045E-001	3.57650E+000	9	...........
	128	1.72	9.53223E-001	4.01329E-004	0.00000E+000	3.82556E-004	2.40040E-001	9.53499E-001	3.57650E+000	9	...........
	129	1.73333	9.56667E-001	4.00296E-004	0.00000E+000	3.82950E-004	2.40040E-001	9.56943E-001	3.57650E+000	9	...........
	130	1.74667	9.60106E-001	4.01258E-004	0.00000E+000	3.85250E-004	2.40040E-001	9.60401E-001	3.57650E+000	9	...........
	131	1.76	9.63478E-001	4.01145E-004	0.00000E+000	3.86494E-004	2.40040E-001	9.63755E-001	3.57650E+000	9	...........
	132	1.77333	9.66826E-001	4.01699E-004	0.00000E+000	3.88373E-004	2.40040E-001	9.67124E-001	3.57650E+000	9	...........
	133	1.78667	9.70150E-001	4.00397E-004	0.00000E+000	3.88445E-004	2.40040E-001	9.70454E-001	3.57650E+000	9	...........
	134	1.8	9.73489E-001	4.01308E-004	0.00000E+000	3.90668E-004	2.40040E-001	9.73781E-001	3.57650E+000	9	...........
	135	1.81333	9.76760E-001	4.00281E-004	0.00000E+000	3.90979E-004	2.40040E-001	9.77069E-001	3.57650E+000	9	...........
	136	1.82667	9.79950E-001	4.00773E-004	0.00000E+000	3.92738E-004	2.40040E-001	9.80247E-001	3.57650E+000	9	...........
	137	1.84	9.83132E-001	4.01828E-004	0.00000E+000	3.95050E-004	2.40040E-001	9.83435E-001	3.57650E+000	9	...........
	138	1.85333	9.86301E-001	4.01770E-004	0.00000E+000	3.96266E-004	2.40040E-001	9.86602E-001	3.57650E+000	9	...........
	139	1.86667	9.89387E-001	4.01056E-004	0.00000E+000	3.96800E-004	2.40040E-001	9.89671E-001	3.57650E+000	9	...........
	140	1.88	9.92448E-001	4.00851E-004	0.00000E+000	3.97824E-004	2.40040E-001	9.92726E-001	3.57650E+000	9	...........
	141	1.89333	9.95456E-001	4.02356E-004	0.00000E+000	4.00527E-004	2.40040E-001	9.95731E-001	3.57650E+000	9	...........
	142	1.90667	9.98459E-001	4.02655E-004	0.00000E+000	4.02034E-004	2.40040E-001	9.98755E-001	3.57650E+000	9	...........
	143	1.90833	1.00010E+000	4.01986E-004	0.00000E+000	4.02024E-004	2.40040E-001	1.00042E+000	3.57650E+000	9	...........
STARTTIMEOFFSET	QUANT	232.5699	Start Time Offset (s)
