EXPLAIN
TAG	PWR800_CHARGE
TITLE	LABEL	PWR Cyclic Charge Discharge (Cell) - Charge Step	Test &Identifier
DATE	LABEL	12-7-2017	Date
TIME	LABEL	14:44:19	Time
NOTES	NOTES	3	&Notes...
	supercap test cell
	0.4mg
	6M KOH
PSTAT	PSTAT	IFC5000-01520	Potentiostat
CAPACITY	QUANT	1.00000E-003	Capacity (A-hr)
CELLTYPE	SELECTOR	1	&Cell Type
WORKINGCONNECTION	SELECTOR	0	&Working Lead
MAXCHARGETIME	VARIABLEANDUNITS	1.00000E+002	s	1.00000E+002	second(s)	Max &Charge Time
CHARGECURRENT	QUANT	4.00000E-004	&Charge Current (A) 
VOLTAGEFINISH	TWOPARAM	F	1.00000E-003	3.60000E+003	&Voltage Finish	 I (A) < 	Max Time(s)
SAMPLETIME	QUANT	1.00000E-002	Sa&mple Period (s)
CHARGESTOPAT1	MULTIPARAM	4	1.00000E+000	Charge Stop At &1	Voltage > Limit	V
CHARGESTOPAT2	MULTIPARAM	0	0.00000E+000	Charge Stop At &2	None	N/A
AESBHCSELECTOR	TOGGLE	F	Save Both Half Cells
IRCOMP	TOGGLE	F	IR &Measure
EOC	QUANT	0	Open Circuit (V)
SEQUENCER	TOGGLE	TRUE	Run as Sequence
PSTATMODEL	IQUANT	53	Pstat Model
PSTATSECTION	LABEL	IFC5000-01520	Pstat Section
PSTATSERIALNO	LABEL	01520	Pstat Serial Number
CTRLMODE	IQUANT	0	Control Mode
ELECTROMETER	IQUANT	1	RE=0 or CS=1
IESTAB	IQUANT	0	I/E Stability
CASPEED	IQUANT	4	Control Amp Speed
CONVENTION	IQUANT	1	Current Convention
ICHRANGE	IQUANT	2	Ich Range
ICHRANGEMODE	TOGGLE	T	Ich Auto Range
ICHOFFSETENABLE	TOGGLE	F	Ich Offset Enable
ICHOFFSET	QUANT	0	Ich Offset (V)
ICHFILTER	IQUANT	1	Ich Filter
VCHRANGE	IQUANT	2	Vch Range
VCHRANGEMODE	TOGGLE	T	Vch Auto Range
VCHOFFSETENABLE	TOGGLE	F	Vch Offset Enable
VCHOFFSET	QUANT	0	Vch Offset (V)
VCHFILTER	IQUANT	1	Vch Filter
IERANGELOWERLIMIT	IQUANT	9	I/E Range Lower Limit
IERANGEMODE	TOGGLE	F	I/E AutoRange
IERANGE	IQUANT	9	I/E Range
ACHSELECT	IQUANT	1	Ach Select
ACHRANGE	IQUANT	2	Ach Range
ACHOFFSETENABLE	TOGGLE	F	Ach Offset Enable
ACHOFFSET	QUANT	0	Ach Offset (V)
ACHFILTER	IQUANT	1	Ach Filter
CABLEID	IQUANT	14	Cable ID
DCCALDATE	LABEL	5-7-2017	DC Calibration Date
ACCALDATE	LABEL	12/3/2015	AC Calibration Date
FRAMEWORKVERSION	QUANT	7.01	Framework Version
INSTRUMENTVERSION	LABEL	4.00	Instrument Version
CURVE	TABLE	122
	Pt	T	Vf	Im	Vu	Pwr	Sig	Ach	Temp	IERange	Over
	#	s	V	A	V	W	V	V	deg C	#	bits
	0	0.013333	3.56832E-001	4.00354E-004	0.00000E+000	1.42859E-004	2.40040E-001	3.56928E-001	3.57610E+000	9	...........
	1	0.026667	3.68128E-001	4.00705E-004	0.00000E+000	1.47511E-004	2.40040E-001	3.68204E-001	3.57610E+000	9	...........
	2	0.04	3.77769E-001	3.99742E-004	0.00000E+000	1.51010E-004	2.40040E-001	3.77840E-001	3.57610E+000	9	...........
	3	0.053333	3.86518E-001	4.00854E-004	0.00000E+000	1.54938E-004	2.40040E-001	3.86596E-001	3.57610E+000	9	...........
	4	0.066667	3.94787E-001	4.01034E-004	0.00000E+000	1.58323E-004	2.40040E-001	3.94871E-001	3.57610E+000	9	...........
	5	0.08	4.02630E-001	4.00227E-004	0.00000E+000	1.61143E-004	2.40040E-001	4.02711E-001	3.57610E+000	9	...........
	6	0.093333	4.10136E-001	4.01597E-004	0.00000E+000	1.64710E-004	2.40040E-001	4.10224E-001	3.57610E+000	9	...........
	7	0.106667	4.17496E-001	4.00897E-004	0.00000E+000	1.67373E-004	2.40040E-001	4.17582E-001	3.57610E+000	9	...........
	8	0.12	4.24622E-001	4.00597E-004	0.00000E+000	1.70102E-004	2.40040E-001	4.24712E-001	3.57610E+000	9	...........
	9	0.133333	4.31626E-001	4.00698E-004	0.00000E+000	1.72952E-004	2.40040E-001	4.31714E-001	3.57610E+000	9	...........
	10	0.146667	4.38541E-001	4.01560E-004	0.00000E+000	1.76100E-004	2.40040E-001	4.38637E-001	3.57610E+000	9	...........
	11	0.16	4.45334E-001	4.01399E-004	0.00000E+000	1.78757E-004	2.40040E-001	4.45427E-001	3.57610E+000	9	...........
	12	0.173333	4.52036E-001	4.00903E-004	0.00000E+000	1.81223E-004	2.40040E-001	4.52127E-001	3.57610E+000	9	...........
	13	0.186667	4.58579E-001	4.01253E-004	0.00000E+000	1.84006E-004	2.40040E-001	4.58670E-001	3.57610E+000	9	...........
	14	0.2	4.65103E-001	4.01460E-004	0.00000E+000	1.86720E-004	2.40040E-001	4.65191E-001	3.57610E+000	9	...........
	15	0.213333	4.71524E-001	4.01095E-004	0.00000E+000	1.89126E-004	2.40040E-001	4.71616E-001	3.57610E+000	9	...........
	16	0.226667	4.77825E-001	4.00483E-004	0.00000E+000	1.91361E-004	2.40040E-001	4.77921E-001	3.57610E+000	9	...........
	17	0.24	4.84137E-001	4.00363E-004	0.00000E+000	1.93831E-004	2.40040E-001	4.84237E-001	3.57610E+000	9	...........
	18	0.253333	4.90352E-001	4.00635E-004	0.00000E+000	1.96452E-004	2.40040E-001	4.90452E-001	3.57610E+000	9	...........
	19	0.266667	4.96618E-001	4.00777E-004	0.00000E+000	1.99033E-004	2.40040E-001	4.96733E-001	3.57640E+000	9	...........
	20	0.28	5.02754E-001	4.00762E-004	0.00000E+000	2.01484E-004	2.40040E-001	5.02859E-001	3.57650E+000	9	...........
	21	0.293333	5.08839E-001	3.99370E-004	0.00000E+000	2.03215E-004	2.40040E-001	5.08947E-001	3.57650E+000	9	...........
	22	0.306667	5.14874E-001	4.00664E-004	0.00000E+000	2.06291E-004	2.40040E-001	5.14984E-001	3.57650E+000	9	...........
	23	0.32	5.20935E-001	4.00942E-004	0.00000E+000	2.08865E-004	2.40040E-001	5.21039E-001	3.57650E+000	9	...........
	24	0.333333	5.26936E-001	4.00448E-004	0.00000E+000	2.11011E-004	2.40040E-001	5.27048E-001	3.57650E+000	9	...........
	25	0.346667	5.32785E-001	4.01578E-004	0.00000E+000	2.13955E-004	2.40040E-001	5.32902E-001	3.57650E+000	9	...........
	26	0.36	5.38548E-001	3.99568E-004	0.00000E+000	2.15186E-004	2.40040E-001	5.38742E-001	3.57650E+000	9	...........
	27	0.373333	5.44426E-001	4.01954E-004	0.00000E+000	2.18834E-004	2.40040E-001	5.44636E-001	3.57650E+000	9	...........
	28	0.386667	5.50296E-001	4.01121E-004	0.00000E+000	2.20735E-004	2.40040E-001	5.50512E-001	3.57650E+000	9	...........
	29	0.4	5.56126E-001	4.01826E-004	0.00000E+000	2.23466E-004	2.40040E-001	5.56365E-001	3.57650E+000	9	...........
	30	0.413333	5.61949E-001	4.00989E-004	0.00000E+000	2.25335E-004	2.40040E-001	5.62216E-001	3.57650E+000	9	...........
	31	0.426667	5.67803E-001	4.01458E-004	0.00000E+000	2.27949E-004	2.40040E-001	5.68028E-001	3.57650E+000	9	...........
	32	0.44	5.73613E-001	3.99181E-004	0.00000E+000	2.28976E-004	2.40040E-001	5.73815E-001	3.57650E+000	9	...........
	33	0.453333	5.79273E-001	3.99804E-004	0.00000E+000	2.31596E-004	2.40040E-001	5.79531E-001	3.57650E+000	9	...........
	34	0.466667	5.84936E-001	4.01593E-004	0.00000E+000	2.34906E-004	2.40040E-001	5.85213E-001	3.57650E+000	9	...........
	35	0.48	5.90686E-001	4.01285E-004	0.00000E+000	2.37033E-004	2.40040E-001	5.90911E-001	3.57650E+000	9	...........
	36	0.493333	5.96387E-001	4.00371E-004	0.00000E+000	2.38776E-004	2.40040E-001	5.96623E-001	3.57650E+000	9	...........
	37	0.506667	6.01990E-001	4.02523E-004	0.00000E+000	2.42315E-004	2.40040E-001	6.02273E-001	3.57650E+000	9	...........
	38	0.52	6.07627E-001	4.01912E-004	0.00000E+000	2.44213E-004	2.40040E-001	6.07913E-001	3.57650E+000	9	...........
	39	0.533333	6.13282E-001	3.99767E-004	0.00000E+000	2.45170E-004	2.40040E-001	6.13543E-001	3.57650E+000	9	...........
	40	0.546667	6.18913E-001	4.01039E-004	0.00000E+000	2.48208E-004	2.40040E-001	6.19119E-001	3.57650E+000	9	...........
	41	0.56	6.24465E-001	4.01432E-004	0.00000E+000	2.50680E-004	2.40040E-001	6.24661E-001	3.57650E+000	9	...........
	42	0.573333	6.30067E-001	4.01061E-004	0.00000E+000	2.52695E-004	2.40040E-001	6.30293E-001	3.57650E+000	9	...........
	43	0.586667	6.35663E-001	4.01076E-004	0.00000E+000	2.54949E-004	2.40040E-001	6.35883E-001	3.57650E+000	9	...........
	44	0.6	6.41231E-001	4.01565E-004	0.00000E+000	2.57496E-004	2.40040E-001	6.41481E-001	3.57650E+000	9	...........
	45	0.613333	6.46763E-001	4.00744E-004	0.00000E+000	2.59186E-004	2.40040E-001	6.46996E-001	3.57650E+000	9	...........
	46	0.626667	6.52260E-001	4.00046E-004	0.00000E+000	2.60934E-004	2.40040E-001	6.52513E-001	3.57650E+000	9	...........
	47	0.64	6.57698E-001	4.00849E-004	0.00000E+000	2.63638E-004	2.40040E-001	6.57949E-001	3.57650E+000	9	...........
	48	0.653333	6.63235E-001	4.02427E-004	0.00000E+000	2.66904E-004	2.40040E-001	6.63487E-001	3.57650E+000	9	...........
	49	0.666667	6.68734E-001	4.00356E-004	0.00000E+000	2.67732E-004	2.40040E-001	6.68959E-001	3.57650E+000	9	...........
	50	0.68	6.74193E-001	4.01130E-004	0.00000E+000	2.70439E-004	2.40040E-001	6.74449E-001	3.57650E+000	9	...........
	51	0.693333	6.79699E-001	4.00147E-004	0.00000E+000	2.71979E-004	2.40040E-001	6.79927E-001	3.57650E+000	9	...........
	52	0.706667	6.85123E-001	4.00997E-004	0.00000E+000	2.74733E-004	2.40040E-001	6.85364E-001	3.57650E+000	9	...........
	53	0.72	6.90582E-001	4.01979E-004	0.00000E+000	2.77599E-004	2.40040E-001	6.90810E-001	3.57650E+000	9	...........
	54	0.733333	6.95985E-001	4.01619E-004	0.00000E+000	2.79521E-004	2.40040E-001	6.96243E-001	3.57650E+000	9	...........
	55	0.746667	7.01351E-001	4.00866E-004	0.00000E+000	2.81148E-004	2.40040E-001	7.01592E-001	3.57650E+000	9	...........
	56	0.76	7.06745E-001	4.00551E-004	0.00000E+000	2.83088E-004	2.40040E-001	7.06979E-001	3.57650E+000	9	...........
	57	0.773333	7.12131E-001	4.01671E-004	0.00000E+000	2.86042E-004	2.40040E-001	7.12366E-001	3.57650E+000	9	...........
	58	0.786667	7.17464E-001	4.00180E-004	0.00000E+000	2.87115E-004	2.40040E-001	7.17731E-001	3.57650E+000	9	...........
	59	0.8	7.22781E-001	4.00567E-004	0.00000E+000	2.89522E-004	2.40040E-001	7.23025E-001	3.57650E+000	9	...........
	60	0.813333	7.28064E-001	4.02639E-004	0.00000E+000	2.93147E-004	2.40040E-001	7.28329E-001	3.57650E+000	9	...........
	61	0.826667	7.33284E-001	4.00874E-004	0.00000E+000	2.93954E-004	2.40040E-001	7.33524E-001	3.57650E+000	9	...........
	62	0.84	7.38543E-001	4.01083E-004	0.00000E+000	2.96217E-004	2.40040E-001	7.38801E-001	3.57650E+000	9	...........
	63	0.853333	7.43714E-001	4.00413E-004	0.00000E+000	2.97792E-004	2.40040E-001	7.43999E-001	3.57650E+000	9	...........
	64	0.866667	7.48898E-001	3.99988E-004	0.00000E+000	2.99550E-004	2.40040E-001	7.49154E-001	3.57650E+000	9	...........
	65	0.88	7.54069E-001	4.01180E-004	0.00000E+000	3.02518E-004	2.40040E-001	7.54332E-001	3.57650E+000	9	...........
	66	0.893333	7.59281E-001	4.00954E-004	0.00000E+000	3.04437E-004	2.40040E-001	7.59512E-001	3.57650E+000	9	...........
	67	0.906667	7.64464E-001	4.00525E-004	0.00000E+000	3.06187E-004	2.40040E-001	7.64719E-001	3.57650E+000	9	...........
	68	0.92	7.69571E-001	3.98766E-004	0.00000E+000	3.06879E-004	2.40040E-001	7.69840E-001	3.57650E+000	9	...........
	69	0.933333	7.74704E-001	4.01568E-004	0.00000E+000	3.11096E-004	2.40040E-001	7.74974E-001	3.57650E+000	9	...........
	70	0.946667	7.79785E-001	4.00685E-004	0.00000E+000	3.12448E-004	2.40040E-001	7.80075E-001	3.57650E+000	9	...........
	71	0.96	7.84907E-001	4.01462E-004	0.00000E+000	3.15110E-004	2.40040E-001	7.85172E-001	3.57650E+000	9	...........
	72	0.97333	7.89977E-001	4.00548E-004	0.00000E+000	3.16424E-004	2.40040E-001	7.90236E-001	3.57650E+000	9	...........
	73	0.98667	7.95035E-001	4.01573E-004	0.00000E+000	3.19265E-004	2.40040E-001	7.95291E-001	3.57650E+000	9	...........
	74	1	8.00075E-001	4.00868E-004	0.00000E+000	3.20724E-004	2.40040E-001	8.00332E-001	3.57650E+000	9	...........
	75	1.01333	8.05003E-001	4.01157E-004	0.00000E+000	3.22932E-004	2.40040E-001	8.05270E-001	3.57650E+000	9	...........
	76	1.02667	8.09874E-001	4.01218E-004	0.00000E+000	3.24936E-004	2.40040E-001	8.10147E-001	3.57650E+000	9	...........
	77	1.04	8.14798E-001	4.00722E-004	0.00000E+000	3.26507E-004	2.40040E-001	8.15093E-001	3.57650E+000	9	...........
	78	1.05333	8.19696E-001	4.01259E-004	0.00000E+000	3.28910E-004	2.40040E-001	8.20001E-001	3.57650E+000	9	...........
	79	1.06667	8.24574E-001	3.99515E-004	0.00000E+000	3.29429E-004	2.40040E-001	8.24860E-001	3.57650E+000	9	...........
	80	1.08	8.29477E-001	3.99567E-004	0.00000E+000	3.31431E-004	2.40040E-001	8.29732E-001	3.57650E+000	9	...........
	81	1.09333	8.34255E-001	4.00716E-004	0.00000E+000	3.34299E-004	2.40040E-001	8.34558E-001	3.57650E+000	9	...........
	82	1.10667	8.38966E-001	4.01718E-004	0.00000E+000	3.37028E-004	2.40040E-001	8.39256E-001	3.57650E+000	9	...........
	83	1.12	8.43721E-001	4.01083E-004	0.00000E+000	3.38402E-004	2.40040E-001	8.44018E-001	3.57650E+000	9	...........
	84	1.13333	8.48381E-001	4.00831E-004	0.00000E+000	3.40058E-004	2.40040E-001	8.48702E-001	3.57650E+000	9	...........
	85	1.14667	8.53014E-001	4.01464E-004	0.00000E+000	3.42454E-004	2.40040E-001	8.53306E-001	3.57650E+000	9	...........
	86	1.16	8.57608E-001	4.02448E-004	0.00000E+000	3.45143E-004	2.40040E-001	8.57922E-001	3.57650E+000	9	...........
	87	1.17333	8.62279E-001	4.01881E-004	0.00000E+000	3.46533E-004	2.40040E-001	8.62569E-001	3.57650E+000	9	...........
	88	1.18667	8.66829E-001	3.99998E-004	0.00000E+000	3.46730E-004	2.40040E-001	8.67123E-001	3.57650E+000	9	...........
	89	1.2	8.71449E-001	4.00921E-004	0.00000E+000	3.49382E-004	2.40040E-001	8.71718E-001	3.57650E+000	9	...........
	90	1.21333	8.75949E-001	4.00638E-004	0.00000E+000	3.50938E-004	2.40040E-001	8.76208E-001	3.57650E+000	9	...........
	91	1.22667	8.80451E-001	4.01310E-004	0.00000E+000	3.53333E-004	2.40040E-001	8.80688E-001	3.57650E+000	9	...........
	92	1.24	8.85024E-001	4.01562E-004	0.00000E+000	3.55392E-004	2.40040E-001	8.85273E-001	3.57650E+000	9	...........
	93	1.25333	8.89468E-001	4.01103E-004	0.00000E+000	3.56768E-004	2.40040E-001	8.89736E-001	3.57650E+000	9	...........
	94	1.26667	8.93897E-001	4.00321E-004	0.00000E+000	3.57846E-004	2.40040E-001	8.94147E-001	3.57657E+000	9	...........
	95	1.28	8.98207E-001	4.00629E-004	0.00000E+000	3.59848E-004	2.40040E-001	8.98483E-001	3.57660E+000	9	...........
	96	1.29333	9.02492E-001	4.00947E-004	0.00000E+000	3.61852E-004	2.40040E-001	9.02757E-001	3.57660E+000	9	...........
	97	1.30667	9.06792E-001	4.00557E-004	0.00000E+000	3.63222E-004	2.40040E-001	9.07079E-001	3.57660E+000	9	...........
	98	1.32	9.11077E-001	4.00738E-004	0.00000E+000	3.65103E-004	2.40040E-001	9.11338E-001	3.57660E+000	9	...........
	99	1.33333	9.15316E-001	3.99888E-004	0.00000E+000	3.66023E-004	2.40040E-001	9.15589E-001	3.57660E+000	9	...........
	100	1.34667	9.19506E-001	4.00628E-004	0.00000E+000	3.68380E-004	2.40040E-001	9.19810E-001	3.57660E+000	9	...........
	101	1.36	9.23729E-001	3.99737E-004	0.00000E+000	3.69249E-004	2.40040E-001	9.23967E-001	3.57660E+000	9	...........
	102	1.37333	9.27836E-001	4.01673E-004	0.00000E+000	3.72687E-004	2.40040E-001	9.28107E-001	3.57660E+000	9	...........
	103	1.38667	9.32012E-001	3.99677E-004	0.00000E+000	3.72504E-004	2.40040E-001	9.32283E-001	3.57660E+000	9	...........
	104	1.4	9.36065E-001	3.99986E-004	0.00000E+000	3.74413E-004	2.40040E-001	9.36348E-001	3.57660E+000	9	...........
	105	1.41333	9.40040E-001	3.99911E-004	0.00000E+000	3.75933E-004	2.40040E-001	9.40318E-001	3.57660E+000	9	...........
	106	1.42667	9.44020E-001	4.01503E-004	0.00000E+000	3.79027E-004	2.40040E-001	9.44311E-001	3.57660E+000	9	...........
	107	1.44	9.47976E-001	4.00301E-004	0.00000E+000	3.79476E-004	2.40040E-001	9.48285E-001	3.57660E+000	9	...........
	108	1.45333	9.51893E-001	4.00450E-004	0.00000E+000	3.81186E-004	2.40040E-001	9.52190E-001	3.57660E+000	9	...........
	109	1.46667	9.55773E-001	4.01536E-004	0.00000E+000	3.83777E-004	2.40040E-001	9.56064E-001	3.57660E+000	9	...........
	110	1.48	9.59577E-001	4.01382E-004	0.00000E+000	3.85157E-004	2.40040E-001	9.59911E-001	3.57660E+000	9	...........
	111	1.49333	9.63360E-001	4.01335E-004	0.00000E+000	3.86630E-004	2.40040E-001	9.63696E-001	3.57660E+000	9	...........
	112	1.50667	9.67205E-001	4.02266E-004	0.00000E+000	3.89074E-004	2.40040E-001	9.67545E-001	3.57660E+000	9	...........
	113	1.52	9.70909E-001	3.99838E-004	0.00000E+000	3.88206E-004	2.40040E-001	9.71266E-001	3.57660E+000	9	...........
	114	1.53333	9.74637E-001	4.01140E-004	0.00000E+000	3.90966E-004	2.40040E-001	9.74946E-001	3.57660E+000	9	...........
	115	1.54667	9.78302E-001	4.01636E-004	0.00000E+000	3.92921E-004	2.40040E-001	9.78629E-001	3.57660E+000	9	...........
	116	1.56	9.81897E-001	4.00910E-004	0.00000E+000	3.93652E-004	2.40040E-001	9.82207E-001	3.57660E+000	9	...........
	117	1.57333	9.85446E-001	3.99682E-004	0.00000E+000	3.93865E-004	2.40040E-001	9.85781E-001	3.57660E+000	9	...........
	118	1.58667	9.88973E-001	4.02379E-004	0.00000E+000	3.97942E-004	2.40040E-001	9.89291E-001	3.57660E+000	9	...........
	119	1.6	9.92429E-001	4.00817E-004	0.00000E+000	3.97782E-004	2.40040E-001	9.92741E-001	3.57660E+000	9	...........
	120	1.61333	9.95921E-001	4.01010E-004	0.00000E+000	3.99374E-004	2.40040E-001	9.96224E-001	3.57660E+000	9	...........
	121	1.62333	9.98972E-001	4.00509E-004	0.00000E+000	4.00098E-004	2.40040E-001	9.99276E-001	3.57660E+000	9	...........
STARTTIMEOFFSET	QUANT	1232.637	Start Time Offset (s)
