EXPLAIN
TAG	PWR800_CHARGE
TITLE	LABEL	PWR Cyclic Charge Discharge (Cell) - Charge Step	Test &Identifier
DATE	LABEL	12-7-2017	Date
TIME	LABEL	14:38:46	Time
NOTES	NOTES	3	&Notes...
	supercap test cell
	0.4mg
	6M KOH
PSTAT	PSTAT	IFC5000-01520	Potentiostat
CAPACITY	QUANT	1.00000E-003	Capacity (A-hr)
CELLTYPE	SELECTOR	1	&Cell Type
WORKINGCONNECTION	SELECTOR	0	&Working Lead
MAXCHARGETIME	VARIABLEANDUNITS	1.00000E+002	s	1.00000E+002	second(s)	Max &Charge Time
CHARGECURRENT	QUANT	4.00000E-004	&Charge Current (A) 
VOLTAGEFINISH	TWOPARAM	F	1.00000E-003	3.60000E+003	&Voltage Finish	 I (A) < 	Max Time(s)
SAMPLETIME	QUANT	1.00000E-002	Sa&mple Period (s)
CHARGESTOPAT1	MULTIPARAM	4	1.00000E+000	Charge Stop At &1	Voltage > Limit	V
CHARGESTOPAT2	MULTIPARAM	0	0.00000E+000	Charge Stop At &2	None	N/A
AESBHCSELECTOR	TOGGLE	F	Save Both Half Cells
IRCOMP	TOGGLE	F	IR &Measure
EOC	QUANT	0	Open Circuit (V)
SEQUENCER	TOGGLE	TRUE	Run as Sequence
PSTATMODEL	IQUANT	53	Pstat Model
PSTATSECTION	LABEL	IFC5000-01520	Pstat Section
PSTATSERIALNO	LABEL	01520	Pstat Serial Number
CTRLMODE	IQUANT	0	Control Mode
ELECTROMETER	IQUANT	1	RE=0 or CS=1
IESTAB	IQUANT	0	I/E Stability
CASPEED	IQUANT	4	Control Amp Speed
CONVENTION	IQUANT	1	Current Convention
ICHRANGE	IQUANT	2	Ich Range
ICHRANGEMODE	TOGGLE	T	Ich Auto Range
ICHOFFSETENABLE	TOGGLE	F	Ich Offset Enable
ICHOFFSET	QUANT	0	Ich Offset (V)
ICHFILTER	IQUANT	1	Ich Filter
VCHRANGE	IQUANT	2	Vch Range
VCHRANGEMODE	TOGGLE	T	Vch Auto Range
VCHOFFSETENABLE	TOGGLE	F	Vch Offset Enable
VCHOFFSET	QUANT	0	Vch Offset (V)
VCHFILTER	IQUANT	1	Vch Filter
IERANGELOWERLIMIT	IQUANT	9	I/E Range Lower Limit
IERANGEMODE	TOGGLE	F	I/E AutoRange
IERANGE	IQUANT	9	I/E Range
ACHSELECT	IQUANT	1	Ach Select
ACHRANGE	IQUANT	2	Ach Range
ACHOFFSETENABLE	TOGGLE	F	Ach Offset Enable
ACHOFFSET	QUANT	0	Ach Offset (V)
ACHFILTER	IQUANT	1	Ach Filter
CABLEID	IQUANT	14	Cable ID
DCCALDATE	LABEL	5-7-2017	DC Calibration Date
ACCALDATE	LABEL	12/3/2015	AC Calibration Date
FRAMEWORKVERSION	QUANT	7.01	Framework Version
INSTRUMENTVERSION	LABEL	4.00	Instrument Version
CURVE	TABLE	126
	Pt	T	Vf	Im	Vu	Pwr	Sig	Ach	Temp	IERange	Over
	#	s	V	A	V	W	V	V	deg C	#	bits
	0	0.013333	3.51348E-001	4.00536E-004	0.00000E+000	1.40727E-004	2.40040E-001	3.51436E-001	3.57650E+000	9	...........
	1	0.026667	3.62196E-001	4.00066E-004	0.00000E+000	1.44902E-004	2.40040E-001	3.62271E-001	3.57650E+000	9	...........
	2	0.04	3.71635E-001	4.00827E-004	0.00000E+000	1.48961E-004	2.40040E-001	3.71706E-001	3.57650E+000	9	...........
	3	0.053333	3.80196E-001	4.01484E-004	0.00000E+000	1.52643E-004	2.40040E-001	3.80274E-001	3.57650E+000	9	...........
	4	0.066667	3.88196E-001	4.01978E-004	0.00000E+000	1.56046E-004	2.40040E-001	3.88270E-001	3.57650E+000	9	...........
	5	0.08	3.95856E-001	3.99599E-004	0.00000E+000	1.58183E-004	2.40040E-001	3.95935E-001	3.57650E+000	9	...........
	6	0.093333	4.03226E-001	4.01383E-004	0.00000E+000	1.61848E-004	2.40040E-001	4.03304E-001	3.57650E+000	9	...........
	7	0.106667	4.10404E-001	3.99810E-004	0.00000E+000	1.64084E-004	2.40040E-001	4.10485E-001	3.57650E+000	9	...........
	8	0.12	4.17423E-001	4.01475E-004	0.00000E+000	1.67585E-004	2.40040E-001	4.17503E-001	3.57650E+000	9	...........
	9	0.133333	4.24208E-001	4.01184E-004	0.00000E+000	1.70185E-004	2.40040E-001	4.24293E-001	3.57650E+000	9	...........
	10	0.146667	4.30897E-001	4.02451E-004	0.00000E+000	1.73415E-004	2.40040E-001	4.30989E-001	3.57650E+000	9	...........
	11	0.16	4.37488E-001	4.00822E-004	0.00000E+000	1.75355E-004	2.40040E-001	4.37579E-001	3.57650E+000	9	...........
	12	0.173333	4.43943E-001	4.01419E-004	0.00000E+000	1.78207E-004	2.40040E-001	4.44027E-001	3.57650E+000	9	...........
	13	0.186667	4.50329E-001	4.01433E-004	0.00000E+000	1.80777E-004	2.40040E-001	4.50420E-001	3.57650E+000	9	...........
	14	0.2	4.56701E-001	4.02129E-004	0.00000E+000	1.83652E-004	2.40040E-001	4.56788E-001	3.57650E+000	9	...........
	15	0.213333	4.62925E-001	4.00479E-004	0.00000E+000	1.85392E-004	2.40040E-001	4.63014E-001	3.57650E+000	9	...........
	16	0.226667	4.69144E-001	3.99948E-004	0.00000E+000	1.87633E-004	2.40040E-001	4.69239E-001	3.57650E+000	9	...........
	17	0.24	4.75331E-001	4.00599E-004	0.00000E+000	1.90417E-004	2.40040E-001	4.75426E-001	3.57650E+000	9	...........
	18	0.253333	4.81407E-001	4.02503E-004	0.00000E+000	1.93767E-004	2.40040E-001	4.81499E-001	3.57650E+000	9	...........
	19	0.266667	4.87499E-001	4.00801E-004	0.00000E+000	1.95390E-004	2.40040E-001	4.87595E-001	3.57650E+000	9	...........
	20	0.28	4.93548E-001	4.00872E-004	0.00000E+000	1.97850E-004	2.40040E-001	4.93643E-001	3.57650E+000	9	...........
	21	0.293333	4.99521E-001	4.01396E-004	0.00000E+000	2.00506E-004	2.40040E-001	4.99621E-001	3.57650E+000	9	...........
	22	0.306667	5.05442E-001	4.00827E-004	0.00000E+000	2.02595E-004	2.40040E-001	5.05543E-001	3.57650E+000	9	...........
	23	0.32	5.11244E-001	4.01736E-004	0.00000E+000	2.05385E-004	2.40040E-001	5.11352E-001	3.57650E+000	9	...........
	24	0.333333	5.17125E-001	4.01920E-004	0.00000E+000	2.07843E-004	2.40040E-001	5.17229E-001	3.57650E+000	9	...........
	25	0.346667	5.22989E-001	4.00216E-004	0.00000E+000	2.09308E-004	2.40040E-001	5.23095E-001	3.57650E+000	9	...........
	26	0.36	5.28789E-001	4.01315E-004	0.00000E+000	2.12211E-004	2.40040E-001	5.28897E-001	3.57650E+000	9	...........
	27	0.373333	5.34431E-001	4.00197E-004	0.00000E+000	2.13878E-004	2.40040E-001	5.34591E-001	3.57650E+000	9	...........
	28	0.386667	5.40144E-001	4.01002E-004	0.00000E+000	2.16599E-004	2.40040E-001	5.40379E-001	3.57650E+000	9	...........
	29	0.4	5.45842E-001	4.00515E-004	0.00000E+000	2.18618E-004	2.40040E-001	5.46060E-001	3.57650E+000	9	...........
	30	0.413333	5.51559E-001	4.00216E-004	0.00000E+000	2.20743E-004	2.40040E-001	5.51769E-001	3.57650E+000	9	...........
	31	0.426667	5.57171E-001	4.00072E-004	0.00000E+000	2.22909E-004	2.40040E-001	5.57396E-001	3.57650E+000	9	...........
	32	0.44	5.62862E-001	4.01744E-004	0.00000E+000	2.26126E-004	2.40040E-001	5.63093E-001	3.57650E+000	9	...........
	33	0.453333	5.68589E-001	4.01054E-004	0.00000E+000	2.28035E-004	2.40040E-001	5.68798E-001	3.57650E+000	9	...........
	34	0.466667	5.74266E-001	4.01402E-004	0.00000E+000	2.30512E-004	2.40040E-001	5.74490E-001	3.57650E+000	9	...........
	35	0.48	5.79872E-001	4.00860E-004	0.00000E+000	2.32447E-004	2.40040E-001	5.80088E-001	3.57650E+000	9	...........
	36	0.493333	5.85433E-001	4.00666E-004	0.00000E+000	2.34563E-004	2.40040E-001	5.85687E-001	3.57650E+000	9	...........
	37	0.506667	5.91070E-001	3.99859E-004	0.00000E+000	2.36345E-004	2.40040E-001	5.91310E-001	3.57650E+000	9	...........
	38	0.52	5.96543E-001	4.01541E-004	0.00000E+000	2.39537E-004	2.40040E-001	5.96786E-001	3.57650E+000	9	...........
	39	0.533333	6.02080E-001	4.00578E-004	0.00000E+000	2.41180E-004	2.40040E-001	6.02340E-001	3.57650E+000	9	...........
	40	0.546667	6.07572E-001	4.00823E-004	0.00000E+000	2.43529E-004	2.40040E-001	6.07809E-001	3.57650E+000	9	...........
	41	0.56	6.13114E-001	4.00998E-004	0.00000E+000	2.45858E-004	2.40040E-001	6.13374E-001	3.57650E+000	9	...........
	42	0.573333	6.18640E-001	3.99986E-004	0.00000E+000	2.47448E-004	2.40040E-001	6.18872E-001	3.57650E+000	9	...........
	43	0.586667	6.24136E-001	4.01325E-004	0.00000E+000	2.50482E-004	2.40040E-001	6.24346E-001	3.57650E+000	9	...........
	44	0.6	6.29527E-001	4.00954E-004	0.00000E+000	2.52411E-004	2.40040E-001	6.29759E-001	3.57650E+000	9	...........
	45	0.613333	6.34926E-001	4.00296E-004	0.00000E+000	2.54158E-004	2.40040E-001	6.35161E-001	3.57650E+000	9	...........
	46	0.626667	6.40334E-001	4.01070E-004	0.00000E+000	2.56819E-004	2.40040E-001	6.40559E-001	3.57650E+000	9	...........
	47	0.64	6.45766E-001	4.00487E-004	0.00000E+000	2.58621E-004	2.40040E-001	6.46021E-001	3.58000E+000	9	...........
	48	0.653333	6.51150E-001	4.01167E-004	0.00000E+000	2.61220E-004	2.40040E-001	6.51358E-001	3.58000E+000	9	...........
	49	0.666667	6.56512E-001	4.00441E-004	0.00000E+000	2.62894E-004	2.40040E-001	6.56747E-001	3.58000E+000	9	...........
	50	0.68	6.61880E-001	4.01340E-004	0.00000E+000	2.65639E-004	2.40040E-001	6.62134E-001	3.58000E+000	9	...........
	51	0.693333	6.67333E-001	3.99930E-004	0.00000E+000	2.66887E-004	2.40040E-001	6.67547E-001	3.58000E+000	9	...........
	52	0.706667	6.72708E-001	4.01811E-004	0.00000E+000	2.70301E-004	2.40040E-001	6.72933E-001	3.58000E+000	9	...........
	53	0.72	6.78111E-001	4.01610E-004	0.00000E+000	2.72336E-004	2.40040E-001	6.78348E-001	3.58000E+000	9	...........
	54	0.733333	6.83493E-001	4.01390E-004	0.00000E+000	2.74347E-004	2.40040E-001	6.83695E-001	3.58000E+000	9	...........
	55	0.746667	6.88808E-001	4.01218E-004	0.00000E+000	2.76362E-004	2.40040E-001	6.89039E-001	3.58000E+000	9	...........
	56	0.76	6.94087E-001	4.01578E-004	0.00000E+000	2.78730E-004	2.40040E-001	6.94308E-001	3.58000E+000	9	...........
	57	0.773333	6.99362E-001	4.01034E-004	0.00000E+000	2.80468E-004	2.40040E-001	6.99603E-001	3.58000E+000	9	...........
	58	0.786667	7.04681E-001	4.00467E-004	0.00000E+000	2.82201E-004	2.40040E-001	7.04896E-001	3.58000E+000	9	...........
	59	0.8	7.09904E-001	4.00996E-004	0.00000E+000	2.84669E-004	2.40040E-001	7.10126E-001	3.58000E+000	9	...........
	60	0.813333	7.15086E-001	4.00454E-004	0.00000E+000	2.86359E-004	2.40040E-001	7.15325E-001	3.58000E+000	9	...........
	61	0.826667	7.20286E-001	4.00470E-004	0.00000E+000	2.88453E-004	2.40040E-001	7.20506E-001	3.58000E+000	9	...........
	62	0.84	7.25420E-001	4.01411E-004	0.00000E+000	2.91191E-004	2.40040E-001	7.25638E-001	3.58000E+000	9	...........
	63	0.853333	7.30491E-001	4.00756E-004	0.00000E+000	2.92749E-004	2.40040E-001	7.30726E-001	3.58000E+000	9	...........
	64	0.866667	7.35668E-001	4.01334E-004	0.00000E+000	2.95248E-004	2.40040E-001	7.35909E-001	3.58000E+000	9	...........
	65	0.88	7.40815E-001	4.00727E-004	0.00000E+000	2.96865E-004	2.40040E-001	7.41058E-001	3.58000E+000	9	...........
	66	0.893333	7.46025E-001	4.00673E-004	0.00000E+000	2.98912E-004	2.40040E-001	7.46253E-001	3.58000E+000	9	...........
	67	0.906667	7.51130E-001	4.00535E-004	0.00000E+000	3.00854E-004	2.40040E-001	7.51360E-001	3.58000E+000	9	...........
	68	0.92	7.56221E-001	4.02026E-004	0.00000E+000	3.04021E-004	2.40040E-001	7.56470E-001	3.58000E+000	9	...........
	69	0.933333	7.61290E-001	4.01527E-004	0.00000E+000	3.05679E-004	2.40040E-001	7.61506E-001	3.58000E+000	9	...........
	70	0.946667	7.66301E-001	3.99621E-004	0.00000E+000	3.06230E-004	2.40040E-001	7.66545E-001	3.58000E+000	9	...........
	71	0.96	7.71358E-001	4.01655E-004	0.00000E+000	3.09819E-004	2.40040E-001	7.71584E-001	3.58000E+000	9	...........
	72	0.97333	7.76372E-001	4.01603E-004	0.00000E+000	3.11794E-004	2.40040E-001	7.76621E-001	3.58000E+000	9	...........
	73	0.98667	7.81409E-001	4.01628E-004	0.00000E+000	3.13836E-004	2.40040E-001	7.81667E-001	3.58000E+000	9	...........
	74	1	7.86393E-001	4.01338E-004	0.00000E+000	3.15609E-004	2.40040E-001	7.86644E-001	3.58000E+000	9	...........
	75	1.01333	7.91331E-001	4.00736E-004	0.00000E+000	3.17115E-004	2.40040E-001	7.91569E-001	3.58000E+000	9	...........
	76	1.02667	7.96284E-001	4.00246E-004	0.00000E+000	3.18710E-004	2.40040E-001	7.96510E-001	3.58000E+000	9	...........
	77	1.04	8.01285E-001	4.02387E-004	0.00000E+000	3.22427E-004	2.40040E-001	8.01537E-001	3.58000E+000	9	...........
	78	1.05333	8.06057E-001	4.01680E-004	0.00000E+000	3.23777E-004	2.40040E-001	8.06317E-001	3.58000E+000	9	...........
	79	1.06667	8.10915E-001	4.00642E-004	0.00000E+000	3.24886E-004	2.40040E-001	8.11155E-001	3.58000E+000	9	...........
	80	1.08	8.15685E-001	4.00822E-004	0.00000E+000	3.26945E-004	2.40040E-001	8.15947E-001	3.58000E+000	9	...........
	81	1.09333	8.20520E-001	3.99666E-004	0.00000E+000	3.27933E-004	2.40040E-001	8.20776E-001	3.58000E+000	9	...........
	82	1.10667	8.25273E-001	4.01970E-004	0.00000E+000	3.31735E-004	2.40040E-001	8.25503E-001	3.58000E+000	9	...........
	83	1.12	8.30031E-001	4.00789E-004	0.00000E+000	3.32667E-004	2.40040E-001	8.30283E-001	3.58000E+000	9	...........
	84	1.13333	8.34715E-001	4.01352E-004	0.00000E+000	3.35015E-004	2.40040E-001	8.34993E-001	3.58000E+000	9	...........
	85	1.14667	8.39345E-001	4.01223E-004	0.00000E+000	3.36765E-004	2.40040E-001	8.39606E-001	3.58000E+000	9	...........
	86	1.16	8.43983E-001	3.99881E-004	0.00000E+000	3.37493E-004	2.40040E-001	8.44275E-001	3.58000E+000	9	...........
	87	1.17333	8.48645E-001	4.01049E-004	0.00000E+000	3.40348E-004	2.40040E-001	8.48914E-001	3.58000E+000	9	...........
	88	1.18667	8.53242E-001	4.00126E-004	0.00000E+000	3.41404E-004	2.40040E-001	8.53513E-001	3.58000E+000	9	...........
	89	1.2	8.57765E-001	4.01795E-004	0.00000E+000	3.44646E-004	2.40040E-001	8.58068E-001	3.58000E+000	9	...........
	90	1.21333	8.62288E-001	3.99176E-004	0.00000E+000	3.44204E-004	2.40040E-001	8.62576E-001	3.58000E+000	9	...........
	91	1.22667	8.66833E-001	4.00610E-004	0.00000E+000	3.47262E-004	2.40040E-001	8.67146E-001	3.58000E+000	9	...........
	92	1.24	8.71401E-001	4.01542E-004	0.00000E+000	3.49904E-004	2.40040E-001	8.71683E-001	3.58000E+000	9	...........
	93	1.25333	8.75889E-001	4.01555E-004	0.00000E+000	3.51717E-004	2.40040E-001	8.76221E-001	3.58000E+000	9	...........
	94	1.26667	8.80398E-001	4.01244E-004	0.00000E+000	3.53254E-004	2.40040E-001	8.80718E-001	3.58000E+000	9	...........
	95	1.28	8.84770E-001	4.00730E-004	0.00000E+000	3.54554E-004	2.40040E-001	8.85053E-001	3.58000E+000	9	...........
	96	1.29333	8.89042E-001	4.00213E-004	0.00000E+000	3.55806E-004	2.40040E-001	8.89325E-001	3.58000E+000	9	...........
	97	1.30667	8.93308E-001	4.00153E-004	0.00000E+000	3.57460E-004	2.40040E-001	8.93634E-001	3.58000E+000	9	...........
	98	1.32	8.97663E-001	4.01406E-004	0.00000E+000	3.60327E-004	2.40040E-001	8.97994E-001	3.58000E+000	9	...........
	99	1.33333	9.01940E-001	4.00027E-004	0.00000E+000	3.60800E-004	2.40040E-001	9.02249E-001	3.58000E+000	9	...........
	100	1.34667	9.06151E-001	4.01118E-004	0.00000E+000	3.63474E-004	2.40040E-001	9.06463E-001	3.58000E+000	9	...........
	101	1.36	9.10358E-001	4.00342E-004	0.00000E+000	3.64454E-004	2.40040E-001	9.10650E-001	3.58000E+000	9	...........
	102	1.37333	9.14467E-001	4.01588E-004	0.00000E+000	3.67239E-004	2.40040E-001	9.14780E-001	3.58000E+000	9	...........
	103	1.38667	9.18555E-001	4.01328E-004	0.00000E+000	3.68642E-004	2.40040E-001	9.18867E-001	3.58000E+000	9	...........
	104	1.4	9.22711E-001	4.00760E-004	0.00000E+000	3.69785E-004	2.40040E-001	9.22965E-001	3.58000E+000	9	...........
	105	1.41333	9.26775E-001	4.00034E-004	0.00000E+000	3.70742E-004	2.40040E-001	9.27053E-001	3.58000E+000	9	...........
	106	1.42667	9.30810E-001	4.01082E-004	0.00000E+000	3.73331E-004	2.40040E-001	9.31080E-001	3.58000E+000	9	...........
	107	1.44	9.34833E-001	4.01229E-004	0.00000E+000	3.75083E-004	2.40040E-001	9.35130E-001	3.58000E+000	9	...........
	108	1.45333	9.38808E-001	4.01949E-004	0.00000E+000	3.77353E-004	2.40040E-001	9.39111E-001	3.58000E+000	9	...........
	109	1.46667	9.42719E-001	4.01123E-004	0.00000E+000	3.78146E-004	2.40040E-001	9.43014E-001	3.58000E+000	9	...........
	110	1.48	9.46649E-001	4.00281E-004	0.00000E+000	3.78926E-004	2.40040E-001	9.46944E-001	3.58000E+000	9	...........
	111	1.49333	9.50502E-001	4.01081E-004	0.00000E+000	3.81229E-004	2.40040E-001	9.50811E-001	3.58000E+000	9	...........
	112	1.50667	9.54340E-001	4.00893E-004	0.00000E+000	3.82588E-004	2.40040E-001	9.54641E-001	3.58000E+000	9	...........
	113	1.52	9.58132E-001	4.00469E-004	0.00000E+000	3.83702E-004	2.40040E-001	9.58418E-001	3.58000E+000	9	...........
	114	1.53333	9.61851E-001	4.01514E-004	0.00000E+000	3.86196E-004	2.40040E-001	9.62153E-001	3.58000E+000	9	...........
	115	1.54667	9.65581E-001	4.01245E-004	0.00000E+000	3.87435E-004	2.40040E-001	9.65883E-001	3.58000E+000	9	...........
	116	1.56	9.69288E-001	4.01275E-004	0.00000E+000	3.88951E-004	2.40040E-001	9.69615E-001	3.58000E+000	9	...........
	117	1.57333	9.72976E-001	4.00578E-004	0.00000E+000	3.89753E-004	2.40040E-001	9.73295E-001	3.58000E+000	9	...........
	118	1.58667	9.76560E-001	4.00139E-004	0.00000E+000	3.90759E-004	2.40040E-001	9.76878E-001	3.58000E+000	9	...........
	119	1.6	9.80127E-001	4.00926E-004	0.00000E+000	3.92959E-004	2.40040E-001	9.80444E-001	3.58000E+000	9	...........
	120	1.61333	9.83646E-001	4.01183E-004	0.00000E+000	3.94622E-004	2.40040E-001	9.83950E-001	3.58000E+000	9	...........
	121	1.62667	9.87186E-001	4.02507E-004	0.00000E+000	3.97349E-004	2.40040E-001	9.87501E-001	3.58000E+000	9	...........
	122	1.64	9.90614E-001	4.01559E-004	0.00000E+000	3.97790E-004	2.40040E-001	9.90935E-001	3.57600E+000	9	...........
	123	1.65333	9.94031E-001	3.99688E-004	0.00000E+000	3.97303E-004	2.40040E-001	9.94371E-001	3.57600E+000	9	...........
	124	1.66667	9.97434E-001	4.01240E-004	0.00000E+000	4.00210E-004	2.40040E-001	9.97769E-001	3.57600E+000	9	...........
	125	1.67167	9.99723E-001	4.01508E-004	0.00000E+000	4.01397E-004	2.40040E-001	1.00004E+000	3.57600E+000	9	...........
STARTTIMEOFFSET	QUANT	968.743	Start Time Offset (s)
