EXPLAIN
TAG	PWR800_CHARGE
TITLE	LABEL	PWR Cyclic Charge Discharge (Cell) - Charge Step	Test &Identifier
DATE	LABEL	12-7-2017	Date
TIME	LABEL	15:17:13	Time
NOTES	NOTES	3	&Notes...
	supercap test cell
	0.4mg
	6M KOH
PSTAT	PSTAT	IFC5000-01520	Potentiostat
CAPACITY	QUANT	1.00000E-003	Capacity (A-hr)
CELLTYPE	SELECTOR	1	&Cell Type
WORKINGCONNECTION	SELECTOR	0	&Working Lead
MAXCHARGETIME	VARIABLEANDUNITS	1.00000E+002	s	1.00000E+002	second(s)	Max &Charge Time
CHARGECURRENT	QUANT	4.00000E-004	&Charge Current (A) 
VOLTAGEFINISH	TWOPARAM	F	1.00000E-003	3.60000E+003	&Voltage Finish	 I (A) < 	Max Time(s)
SAMPLETIME	QUANT	1.00000E-002	Sa&mple Period (s)
CHARGESTOPAT1	MULTIPARAM	4	1.00000E+000	Charge Stop At &1	Voltage > Limit	V
CHARGESTOPAT2	MULTIPARAM	0	0.00000E+000	Charge Stop At &2	None	N/A
AESBHCSELECTOR	TOGGLE	F	Save Both Half Cells
IRCOMP	TOGGLE	F	IR &Measure
EOC	QUANT	0	Open Circuit (V)
SEQUENCER	TOGGLE	TRUE	Run as Sequence
PSTATMODEL	IQUANT	53	Pstat Model
PSTATSECTION	LABEL	IFC5000-01520	Pstat Section
PSTATSERIALNO	LABEL	01520	Pstat Serial Number
CTRLMODE	IQUANT	0	Control Mode
ELECTROMETER	IQUANT	1	RE=0 or CS=1
IESTAB	IQUANT	0	I/E Stability
CASPEED	IQUANT	4	Control Amp Speed
CONVENTION	IQUANT	1	Current Convention
ICHRANGE	IQUANT	2	Ich Range
ICHRANGEMODE	TOGGLE	T	Ich Auto Range
ICHOFFSETENABLE	TOGGLE	F	Ich Offset Enable
ICHOFFSET	QUANT	0	Ich Offset (V)
ICHFILTER	IQUANT	1	Ich Filter
VCHRANGE	IQUANT	2	Vch Range
VCHRANGEMODE	TOGGLE	T	Vch Auto Range
VCHOFFSETENABLE	TOGGLE	F	Vch Offset Enable
VCHOFFSET	QUANT	0	Vch Offset (V)
VCHFILTER	IQUANT	1	Vch Filter
IERANGELOWERLIMIT	IQUANT	9	I/E Range Lower Limit
IERANGEMODE	TOGGLE	F	I/E AutoRange
IERANGE	IQUANT	9	I/E Range
ACHSELECT	IQUANT	1	Ach Select
ACHRANGE	IQUANT	2	Ach Range
ACHOFFSETENABLE	TOGGLE	F	Ach Offset Enable
ACHOFFSET	QUANT	0	Ach Offset (V)
ACHFILTER	IQUANT	1	Ach Filter
CABLEID	IQUANT	14	Cable ID
DCCALDATE	LABEL	5-7-2017	DC Calibration Date
ACCALDATE	LABEL	12/3/2015	AC Calibration Date
FRAMEWORKVERSION	QUANT	7.01	Framework Version
INSTRUMENTVERSION	LABEL	4.00	Instrument Version
CURVE	TABLE	107
	Pt	T	Vf	Im	Vu	Pwr	Sig	Ach	Temp	IERange	Over
	#	s	V	A	V	W	V	V	deg C	#	bits
	0	0.013333	3.87139E-001	4.00708E-004	0.00000E+000	1.55130E-004	2.40040E-001	3.87234E-001	3.57650E+000	9	...........
	1	0.026667	3.99780E-001	3.98843E-004	0.00000E+000	1.59449E-004	2.40040E-001	3.99858E-001	3.57650E+000	9	...........
	2	0.04	4.10711E-001	4.02242E-004	0.00000E+000	1.65205E-004	2.40040E-001	4.10797E-001	3.57650E+000	9	...........
	3	0.053333	4.20590E-001	4.01749E-004	0.00000E+000	1.68972E-004	2.40040E-001	4.20675E-001	3.57650E+000	9	...........
	4	0.066667	4.29777E-001	4.00853E-004	0.00000E+000	1.72278E-004	2.40040E-001	4.29863E-001	3.57650E+000	9	...........
	5	0.08	4.38436E-001	4.01919E-004	0.00000E+000	1.76216E-004	2.40040E-001	4.38526E-001	3.57650E+000	9	...........
	6	0.093333	4.46846E-001	4.00498E-004	0.00000E+000	1.78961E-004	2.40040E-001	4.46945E-001	3.57650E+000	9	...........
	7	0.106667	4.54886E-001	4.00083E-004	0.00000E+000	1.81992E-004	2.40040E-001	4.54976E-001	3.57650E+000	9	...........
	8	0.12	4.62692E-001	4.00444E-004	0.00000E+000	1.85282E-004	2.40040E-001	4.62781E-001	3.57650E+000	9	...........
	9	0.133333	4.70322E-001	4.01273E-004	0.00000E+000	1.88727E-004	2.40040E-001	4.70420E-001	3.57650E+000	9	...........
	10	0.146667	4.77818E-001	4.02060E-004	0.00000E+000	1.92111E-004	2.40040E-001	4.77917E-001	3.57650E+000	9	...........
	11	0.16	4.85158E-001	4.01720E-004	0.00000E+000	1.94898E-004	2.40040E-001	4.85254E-001	3.57650E+000	9	...........
	12	0.173333	4.92423E-001	4.00034E-004	0.00000E+000	1.96986E-004	2.40040E-001	4.92528E-001	3.57650E+000	9	...........
	13	0.186667	4.99639E-001	4.00747E-004	0.00000E+000	2.00229E-004	2.40040E-001	4.99736E-001	3.57650E+000	9	...........
	14	0.2	5.06751E-001	4.01367E-004	0.00000E+000	2.03393E-004	2.40040E-001	5.06858E-001	3.57650E+000	9	...........
	15	0.213333	5.13730E-001	4.01164E-004	0.00000E+000	2.06090E-004	2.40040E-001	5.13837E-001	3.57650E+000	9	...........
	16	0.226667	5.20638E-001	4.01289E-004	0.00000E+000	2.08926E-004	2.40040E-001	5.20746E-001	3.57650E+000	9	...........
	17	0.24	5.27531E-001	4.01563E-004	0.00000E+000	2.11837E-004	2.40040E-001	5.27641E-001	3.57650E+000	9	...........
	18	0.253333	5.34175E-001	4.00526E-004	0.00000E+000	2.13951E-004	2.40040E-001	5.34337E-001	3.57650E+000	9	...........
	19	0.266667	5.40874E-001	4.00177E-004	0.00000E+000	2.16445E-004	2.40040E-001	5.41087E-001	3.57650E+000	9	...........
	20	0.28	5.47583E-001	4.01403E-004	0.00000E+000	2.19802E-004	2.40040E-001	5.47814E-001	3.57650E+000	9	...........
	21	0.293333	5.54249E-001	4.01096E-004	0.00000E+000	2.22307E-004	2.40040E-001	5.54439E-001	3.57650E+000	9	...........
	22	0.306667	5.60870E-001	4.01207E-004	0.00000E+000	2.25025E-004	2.40040E-001	5.61092E-001	3.57650E+000	9	...........
	23	0.32	5.67404E-001	4.01747E-004	0.00000E+000	2.27953E-004	2.40040E-001	5.67620E-001	3.57650E+000	9	...........
	24	0.333333	5.73930E-001	4.02716E-004	0.00000E+000	2.31131E-004	2.40040E-001	5.74127E-001	3.57650E+000	9	...........
	25	0.346667	5.80408E-001	4.01415E-004	0.00000E+000	2.32985E-004	2.40040E-001	5.80627E-001	3.57650E+000	9	...........
	26	0.36	5.86853E-001	4.01022E-004	0.00000E+000	2.35341E-004	2.40040E-001	5.87063E-001	3.57650E+000	9	...........
	27	0.373333	5.93267E-001	4.00801E-004	0.00000E+000	2.37782E-004	2.40040E-001	5.93503E-001	3.57650E+000	9	...........
	28	0.386667	5.99676E-001	4.00793E-004	0.00000E+000	2.40346E-004	2.40040E-001	5.99930E-001	3.57650E+000	9	...........
	29	0.4	6.06023E-001	4.02037E-004	0.00000E+000	2.43644E-004	2.40040E-001	6.06277E-001	3.57650E+000	9	...........
	30	0.413333	6.12344E-001	4.01235E-004	0.00000E+000	2.45694E-004	2.40040E-001	6.12582E-001	3.57650E+000	9	...........
	31	0.426667	6.18683E-001	4.01829E-004	0.00000E+000	2.48604E-004	2.40040E-001	6.18904E-001	3.57650E+000	9	...........
	32	0.44	6.25024E-001	4.02010E-004	0.00000E+000	2.51266E-004	2.40040E-001	6.25219E-001	3.57650E+000	9	...........
	33	0.453333	6.31252E-001	4.00884E-004	0.00000E+000	2.53059E-004	2.40040E-001	6.31487E-001	3.57650E+000	9	...........
	34	0.466667	6.37492E-001	4.00674E-004	0.00000E+000	2.55427E-004	2.40040E-001	6.37727E-001	3.57650E+000	9	...........
	35	0.48	6.43686E-001	4.02811E-004	0.00000E+000	2.59284E-004	2.40040E-001	6.43889E-001	3.57762E+000	9	...........
	36	0.493333	6.49813E-001	4.00910E-004	0.00000E+000	2.60516E-004	2.40040E-001	6.50027E-001	3.57800E+000	9	...........
	37	0.506667	6.55984E-001	4.00703E-004	0.00000E+000	2.62855E-004	2.40040E-001	6.56197E-001	3.57800E+000	9	...........
	38	0.52	6.62104E-001	4.00805E-004	0.00000E+000	2.65375E-004	2.40040E-001	6.62334E-001	3.57800E+000	9	...........
	39	0.533333	6.68212E-001	4.00899E-004	0.00000E+000	2.67886E-004	2.40040E-001	6.68423E-001	3.57800E+000	9	...........
	40	0.546667	6.74304E-001	4.00404E-004	0.00000E+000	2.69994E-004	2.40040E-001	6.74540E-001	3.57800E+000	9	...........
	41	0.56	6.80437E-001	4.01012E-004	0.00000E+000	2.72863E-004	2.40040E-001	6.80685E-001	3.57800E+000	9	...........
	42	0.573333	6.86489E-001	4.01182E-004	0.00000E+000	2.75407E-004	2.40040E-001	6.86740E-001	3.57800E+000	9	...........
	43	0.586667	6.92496E-001	4.00461E-004	0.00000E+000	2.77317E-004	2.40040E-001	6.92758E-001	3.57800E+000	9	...........
	44	0.6	6.98417E-001	4.01220E-004	0.00000E+000	2.80219E-004	2.40040E-001	6.98658E-001	3.57800E+000	9	...........
	45	0.613333	7.04262E-001	4.00903E-004	0.00000E+000	2.82341E-004	2.40040E-001	7.04508E-001	3.57800E+000	9	...........
	46	0.626667	7.10163E-001	4.00616E-004	0.00000E+000	2.84502E-004	2.40040E-001	7.10409E-001	3.57800E+000	9	...........
	47	0.64	7.16061E-001	4.00851E-004	0.00000E+000	2.87034E-004	2.40040E-001	7.16324E-001	3.57800E+000	9	...........
	48	0.653333	7.21916E-001	4.01577E-004	0.00000E+000	2.89905E-004	2.40040E-001	7.22138E-001	3.57800E+000	9	...........
	49	0.666667	7.27720E-001	4.00697E-004	0.00000E+000	2.91595E-004	2.40040E-001	7.27981E-001	3.57800E+000	9	...........
	50	0.68	7.33535E-001	4.02817E-004	0.00000E+000	2.95481E-004	2.40040E-001	7.33793E-001	3.57800E+000	9	...........
	51	0.693333	7.39221E-001	4.01472E-004	0.00000E+000	2.96777E-004	2.40040E-001	7.39506E-001	3.57800E+000	9	...........
	52	0.706667	7.45026E-001	4.01931E-004	0.00000E+000	2.99449E-004	2.40040E-001	7.45280E-001	3.57800E+000	9	...........
	53	0.72	7.50754E-001	4.01349E-004	0.00000E+000	3.01315E-004	2.40040E-001	7.51014E-001	3.57800E+000	9	...........
	54	0.733333	7.56440E-001	4.01128E-004	0.00000E+000	3.03429E-004	2.40040E-001	7.56680E-001	3.57800E+000	9	...........
	55	0.746667	7.62052E-001	4.02048E-004	0.00000E+000	3.06382E-004	2.40040E-001	7.62299E-001	3.57800E+000	9	...........
	56	0.76	7.67695E-001	4.01445E-004	0.00000E+000	3.08187E-004	2.40040E-001	7.67939E-001	3.57800E+000	9	...........
	57	0.773333	7.73315E-001	4.00998E-004	0.00000E+000	3.10098E-004	2.40040E-001	7.73572E-001	3.57800E+000	9	...........
	58	0.786667	7.78828E-001	4.00454E-004	0.00000E+000	3.11885E-004	2.40040E-001	7.79080E-001	3.57800E+000	9	...........
	59	0.8	7.84399E-001	4.01497E-004	0.00000E+000	3.14934E-004	2.40040E-001	7.84622E-001	3.57800E+000	9	...........
	60	0.813333	7.89881E-001	4.01099E-004	0.00000E+000	3.16821E-004	2.40040E-001	7.90154E-001	3.57800E+000	9	...........
	61	0.826667	7.95403E-001	3.99991E-004	0.00000E+000	3.18154E-004	2.40040E-001	7.95660E-001	3.57800E+000	9	...........
	62	0.84	8.00799E-001	4.00856E-004	0.00000E+000	3.21005E-004	2.40040E-001	8.01046E-001	3.57800E+000	9	...........
	63	0.853333	8.06198E-001	4.01452E-004	0.00000E+000	3.23650E-004	2.40040E-001	8.06451E-001	3.57800E+000	9	...........
	64	0.866667	8.11515E-001	3.99653E-004	0.00000E+000	3.24325E-004	2.40040E-001	8.11775E-001	3.57800E+000	9	...........
	65	0.88	8.16818E-001	4.00734E-004	0.00000E+000	3.27326E-004	2.40040E-001	8.17096E-001	3.57800E+000	9	...........
	66	0.893333	8.22084E-001	4.01066E-004	0.00000E+000	3.29710E-004	2.40040E-001	8.22376E-001	3.57800E+000	9	...........
	67	0.906667	8.27375E-001	4.00154E-004	0.00000E+000	3.31078E-004	2.40040E-001	8.27662E-001	3.57800E+000	9	...........
	68	0.92	8.32508E-001	4.00993E-004	0.00000E+000	3.33830E-004	2.40040E-001	8.32810E-001	3.57800E+000	9	...........
	69	0.933333	8.37646E-001	4.01190E-004	0.00000E+000	3.36055E-004	2.40040E-001	8.37942E-001	3.57800E+000	9	...........
	70	0.946667	8.42743E-001	3.99731E-004	0.00000E+000	3.36871E-004	2.40040E-001	8.43037E-001	3.57800E+000	9	...........
	71	0.96	8.47857E-001	4.01374E-004	0.00000E+000	3.40308E-004	2.40040E-001	8.48152E-001	3.57800E+000	9	...........
	72	0.97333	8.52903E-001	4.01078E-004	0.00000E+000	3.42081E-004	2.40040E-001	8.53194E-001	3.57800E+000	9	...........
	73	0.98667	8.57925E-001	4.00140E-004	0.00000E+000	3.43290E-004	2.40040E-001	8.58222E-001	3.57800E+000	9	...........
	74	1	8.62899E-001	3.99971E-004	0.00000E+000	3.45134E-004	2.40040E-001	8.63192E-001	3.57800E+000	9	...........
	75	1.01333	8.67868E-001	4.00541E-004	0.00000E+000	3.47617E-004	2.40040E-001	8.68159E-001	3.57800E+000	9	...........
	76	1.02667	8.72768E-001	4.01992E-004	0.00000E+000	3.50846E-004	2.40040E-001	8.73061E-001	3.57800E+000	9	...........
	77	1.04	8.77563E-001	4.01741E-004	0.00000E+000	3.52553E-004	2.40040E-001	8.77857E-001	3.57800E+000	9	...........
	78	1.05333	8.82401E-001	4.01949E-004	0.00000E+000	3.54681E-004	2.40040E-001	8.82687E-001	3.57800E+000	9	...........
	79	1.06667	8.87121E-001	4.00656E-004	0.00000E+000	3.55431E-004	2.40040E-001	8.87412E-001	3.57800E+000	9	...........
	80	1.08	8.91890E-001	4.01787E-004	0.00000E+000	3.58350E-004	2.40040E-001	8.92172E-001	3.57800E+000	9	...........
	81	1.09333	8.96640E-001	4.01262E-004	0.00000E+000	3.59787E-004	2.40040E-001	8.96933E-001	3.57800E+000	9	...........
	82	1.10667	9.01288E-001	4.02613E-004	0.00000E+000	3.62870E-004	2.40040E-001	9.01580E-001	3.57800E+000	9	...........
	83	1.12	9.05866E-001	4.01940E-004	0.00000E+000	3.64104E-004	2.40040E-001	9.06160E-001	3.57800E+000	9	...........
	84	1.13333	9.10392E-001	3.99995E-004	0.00000E+000	3.64152E-004	2.40040E-001	9.10697E-001	3.57800E+000	9	...........
	85	1.14667	9.14908E-001	4.01876E-004	0.00000E+000	3.67680E-004	2.40040E-001	9.15189E-001	3.57800E+000	9	...........
	86	1.16	9.19452E-001	4.01732E-004	0.00000E+000	3.69373E-004	2.40040E-001	9.19753E-001	3.57800E+000	9	...........
	87	1.17333	9.23999E-001	4.02097E-004	0.00000E+000	3.71538E-004	2.40040E-001	9.24242E-001	3.57800E+000	9	...........
	88	1.18667	9.28378E-001	4.01546E-004	0.00000E+000	3.72787E-004	2.40040E-001	9.28643E-001	3.57800E+000	9	...........
	89	1.2	9.32721E-001	4.00713E-004	0.00000E+000	3.73753E-004	2.40040E-001	9.33015E-001	3.57800E+000	9	...........
	90	1.21333	9.37053E-001	4.00691E-004	0.00000E+000	3.75468E-004	2.40040E-001	9.37353E-001	3.57800E+000	9	...........
	91	1.22667	9.41323E-001	4.00822E-004	0.00000E+000	3.77303E-004	2.40040E-001	9.41621E-001	3.57800E+000	9	...........
	92	1.24	9.45571E-001	4.00155E-004	0.00000E+000	3.78375E-004	2.40040E-001	9.45850E-001	3.57800E+000	9	...........
	93	1.25333	9.49781E-001	4.00965E-004	0.00000E+000	3.80829E-004	2.40040E-001	9.50071E-001	3.57800E+000	9	...........
	94	1.26667	9.53961E-001	4.01154E-004	0.00000E+000	3.82686E-004	2.40040E-001	9.54233E-001	3.57800E+000	9	...........
	95	1.28	9.58042E-001	4.00716E-004	0.00000E+000	3.83902E-004	2.40040E-001	9.58330E-001	3.57800E+000	9	...........
	96	1.29333	9.62091E-001	4.01425E-004	0.00000E+000	3.86208E-004	2.40040E-001	9.62404E-001	3.57800E+000	9	...........
	97	1.30667	9.66107E-001	4.00292E-004	0.00000E+000	3.86725E-004	2.40040E-001	9.66426E-001	3.57800E+000	9	...........
	98	1.32	9.70050E-001	4.01633E-004	0.00000E+000	3.89604E-004	2.40040E-001	9.70393E-001	3.57800E+000	9	...........
	99	1.33333	9.74088E-001	4.01819E-004	0.00000E+000	3.91407E-004	2.40040E-001	9.74368E-001	3.57800E+000	9	...........
	100	1.34667	9.77975E-001	4.00638E-004	0.00000E+000	3.91814E-004	2.40040E-001	9.78274E-001	3.57800E+000	9	...........
	101	1.36	9.81818E-001	4.01614E-004	0.00000E+000	3.94312E-004	2.40040E-001	9.82106E-001	3.57800E+000	9	...........
	102	1.37333	9.85646E-001	4.00326E-004	0.00000E+000	3.94580E-004	2.40040E-001	9.85947E-001	3.57800E+000	9	...........
	103	1.38667	9.89392E-001	4.02157E-004	0.00000E+000	3.97891E-004	2.40040E-001	9.89700E-001	3.57800E+000	9	...........
	104	1.4	9.93055E-001	4.00661E-004	0.00000E+000	3.97878E-004	2.40040E-001	9.93370E-001	3.57800E+000	9	...........
	105	1.41333	9.96735E-001	4.01771E-004	0.00000E+000	4.00459E-004	2.40040E-001	9.97054E-001	3.57800E+000	9	...........
	106	1.42	9.99513E-001	4.00085E-004	0.00000E+000	3.99891E-004	2.40040E-001	9.99835E-001	3.57800E+000	9	...........
STARTTIMEOFFSET	QUANT	2776.282	Start Time Offset (s)
