EXPLAIN
TAG	PWR800_CHARGE
TITLE	LABEL	PWR Cyclic Charge Discharge (Cell) - Charge Step	Test &Identifier
DATE	LABEL	12-7-2017	Date
TIME	LABEL	14:46:50	Time
NOTES	NOTES	3	&Notes...
	supercap test cell
	0.4mg
	6M KOH
PSTAT	PSTAT	IFC5000-01520	Potentiostat
CAPACITY	QUANT	1.00000E-003	Capacity (A-hr)
CELLTYPE	SELECTOR	1	&Cell Type
WORKINGCONNECTION	SELECTOR	0	&Working Lead
MAXCHARGETIME	VARIABLEANDUNITS	1.00000E+002	s	1.00000E+002	second(s)	Max &Charge Time
CHARGECURRENT	QUANT	4.00000E-004	&Charge Current (A) 
VOLTAGEFINISH	TWOPARAM	F	1.00000E-003	3.60000E+003	&Voltage Finish	 I (A) < 	Max Time(s)
SAMPLETIME	QUANT	1.00000E-002	Sa&mple Period (s)
CHARGESTOPAT1	MULTIPARAM	4	1.00000E+000	Charge Stop At &1	Voltage > Limit	V
CHARGESTOPAT2	MULTIPARAM	0	0.00000E+000	Charge Stop At &2	None	N/A
AESBHCSELECTOR	TOGGLE	F	Save Both Half Cells
IRCOMP	TOGGLE	F	IR &Measure
EOC	QUANT	0	Open Circuit (V)
SEQUENCER	TOGGLE	TRUE	Run as Sequence
PSTATMODEL	IQUANT	53	Pstat Model
PSTATSECTION	LABEL	IFC5000-01520	Pstat Section
PSTATSERIALNO	LABEL	01520	Pstat Serial Number
CTRLMODE	IQUANT	0	Control Mode
ELECTROMETER	IQUANT	1	RE=0 or CS=1
IESTAB	IQUANT	0	I/E Stability
CASPEED	IQUANT	4	Control Amp Speed
CONVENTION	IQUANT	1	Current Convention
ICHRANGE	IQUANT	2	Ich Range
ICHRANGEMODE	TOGGLE	T	Ich Auto Range
ICHOFFSETENABLE	TOGGLE	F	Ich Offset Enable
ICHOFFSET	QUANT	0	Ich Offset (V)
ICHFILTER	IQUANT	1	Ich Filter
VCHRANGE	IQUANT	2	Vch Range
VCHRANGEMODE	TOGGLE	T	Vch Auto Range
VCHOFFSETENABLE	TOGGLE	F	Vch Offset Enable
VCHOFFSET	QUANT	0	Vch Offset (V)
VCHFILTER	IQUANT	1	Vch Filter
IERANGELOWERLIMIT	IQUANT	9	I/E Range Lower Limit
IERANGEMODE	TOGGLE	F	I/E AutoRange
IERANGE	IQUANT	9	I/E Range
ACHSELECT	IQUANT	1	Ach Select
ACHRANGE	IQUANT	2	Ach Range
ACHOFFSETENABLE	TOGGLE	F	Ach Offset Enable
ACHOFFSET	QUANT	0	Ach Offset (V)
ACHFILTER	IQUANT	1	Ach Filter
CABLEID	IQUANT	14	Cable ID
DCCALDATE	LABEL	5-7-2017	DC Calibration Date
ACCALDATE	LABEL	12/3/2015	AC Calibration Date
FRAMEWORKVERSION	QUANT	7.01	Framework Version
INSTRUMENTVERSION	LABEL	4.00	Instrument Version
CURVE	TABLE	120
	Pt	T	Vf	Im	Vu	Pwr	Sig	Ach	Temp	IERange	Over
	#	s	V	A	V	W	V	V	deg C	#	bits
	0	0.013333	3.62038E-001	3.99879E-004	0.00000E+000	1.44771E-004	2.40040E-001	3.62122E-001	3.57660E+000	9	...........
	1	0.026667	3.73349E-001	4.02474E-004	0.00000E+000	1.50263E-004	2.40040E-001	3.73425E-001	3.57660E+000	9	...........
	2	0.04	3.83135E-001	4.01595E-004	0.00000E+000	1.53865E-004	2.40040E-001	3.83206E-001	3.57660E+000	9	...........
	3	0.053333	3.92070E-001	4.00159E-004	0.00000E+000	1.56890E-004	2.40040E-001	3.92151E-001	3.57660E+000	9	...........
	4	0.066667	4.00457E-001	4.01477E-004	0.00000E+000	1.60775E-004	2.40040E-001	4.00533E-001	3.57660E+000	9	...........
	5	0.08	4.08429E-001	4.00545E-004	0.00000E+000	1.63594E-004	2.40040E-001	4.08511E-001	3.57660E+000	9	...........
	6	0.093333	4.15985E-001	4.00513E-004	0.00000E+000	1.66607E-004	2.40040E-001	4.16072E-001	3.57660E+000	9	...........
	7	0.106667	4.23329E-001	4.01739E-004	0.00000E+000	1.70068E-004	2.40040E-001	4.23421E-001	3.57660E+000	9	...........
	8	0.12	4.30526E-001	4.01498E-004	0.00000E+000	1.72856E-004	2.40040E-001	4.30613E-001	3.57660E+000	9	...........
	9	0.133333	4.37606E-001	4.00818E-004	0.00000E+000	1.75400E-004	2.40040E-001	4.37696E-001	3.57660E+000	9	...........
	10	0.146667	4.44527E-001	4.01488E-004	0.00000E+000	1.78472E-004	2.40040E-001	4.44613E-001	3.57660E+000	9	...........
	11	0.16	4.51280E-001	4.01261E-004	0.00000E+000	1.81081E-004	2.40040E-001	4.51368E-001	3.57660E+000	9	...........
	12	0.173333	4.57936E-001	4.01005E-004	0.00000E+000	1.83635E-004	2.40040E-001	4.58025E-001	3.57660E+000	9	...........
	13	0.186667	4.64520E-001	3.99927E-004	0.00000E+000	1.85774E-004	2.40040E-001	4.64612E-001	3.57660E+000	9	...........
	14	0.2	4.71055E-001	4.00011E-004	0.00000E+000	1.88427E-004	2.40040E-001	4.71152E-001	3.57660E+000	9	...........
	15	0.213333	4.77488E-001	4.00577E-004	0.00000E+000	1.91271E-004	2.40040E-001	4.77586E-001	3.57660E+000	9	...........
	16	0.226667	4.83900E-001	4.01055E-004	0.00000E+000	1.94071E-004	2.40040E-001	4.83997E-001	3.57660E+000	9	...........
	17	0.24	4.90209E-001	4.00656E-004	0.00000E+000	1.96405E-004	2.40040E-001	4.90308E-001	3.57660E+000	9	...........
	18	0.253333	4.96531E-001	4.00074E-004	0.00000E+000	1.98649E-004	2.40040E-001	4.96631E-001	3.57660E+000	9	...........
	19	0.266667	5.02749E-001	4.00433E-004	0.00000E+000	2.01318E-004	2.40040E-001	5.02854E-001	3.57660E+000	9	...........
	20	0.28	5.08975E-001	4.00349E-004	0.00000E+000	2.03768E-004	2.40040E-001	5.09080E-001	3.57660E+000	9	...........
	21	0.293333	5.15093E-001	4.01502E-004	0.00000E+000	2.06811E-004	2.40040E-001	5.15201E-001	3.57660E+000	9	...........
	22	0.306667	5.21204E-001	4.00080E-004	0.00000E+000	2.08524E-004	2.40040E-001	5.21309E-001	3.57660E+000	9	...........
	23	0.32	5.27246E-001	3.99860E-004	0.00000E+000	2.10825E-004	2.40040E-001	5.27353E-001	3.57660E+000	9	...........
	24	0.333333	5.33125E-001	3.99278E-004	0.00000E+000	2.12865E-004	2.40040E-001	5.33249E-001	3.57660E+000	9	...........
	25	0.346667	5.39039E-001	4.00129E-004	0.00000E+000	2.15685E-004	2.40040E-001	5.39221E-001	3.57660E+000	9	...........
	26	0.36	5.44997E-001	3.99864E-004	0.00000E+000	2.17924E-004	2.40040E-001	5.45220E-001	3.57660E+000	9	...........
	27	0.373333	5.50953E-001	4.00774E-004	0.00000E+000	2.20808E-004	2.40040E-001	5.51185E-001	3.57660E+000	9	...........
	28	0.386667	5.56813E-001	4.01526E-004	0.00000E+000	2.23575E-004	2.40040E-001	5.57032E-001	3.57660E+000	9	...........
	29	0.4	5.62678E-001	3.99995E-004	0.00000E+000	2.25068E-004	2.40040E-001	5.62907E-001	3.57660E+000	9	...........
	30	0.413333	5.68544E-001	3.99510E-004	0.00000E+000	2.27139E-004	2.40040E-001	5.68731E-001	3.57660E+000	9	...........
	31	0.426667	5.74390E-001	4.02823E-004	0.00000E+000	2.31377E-004	2.40040E-001	5.74598E-001	3.57660E+000	9	...........
	32	0.44	5.80163E-001	4.01060E-004	0.00000E+000	2.32680E-004	2.40040E-001	5.80376E-001	3.57660E+000	9	...........
	33	0.453333	5.85948E-001	4.00768E-004	0.00000E+000	2.34829E-004	2.40040E-001	5.86165E-001	3.57660E+000	9	...........
	34	0.466667	5.91674E-001	4.00106E-004	0.00000E+000	2.36732E-004	2.40040E-001	5.91900E-001	3.57660E+000	9	...........
	35	0.48	5.97445E-001	4.01397E-004	0.00000E+000	2.39813E-004	2.40040E-001	5.97673E-001	3.57660E+000	9	...........
	36	0.493333	6.03186E-001	4.01768E-004	0.00000E+000	2.42341E-004	2.40040E-001	6.03451E-001	3.57660E+000	9	...........
	37	0.506667	6.08864E-001	4.00904E-004	0.00000E+000	2.44096E-004	2.40040E-001	6.09142E-001	3.57660E+000	9	...........
	38	0.52	6.14526E-001	4.00408E-004	0.00000E+000	2.46061E-004	2.40040E-001	6.14779E-001	3.57660E+000	9	...........
	39	0.533333	6.20272E-001	4.01341E-004	0.00000E+000	2.48941E-004	2.40040E-001	6.20497E-001	3.57660E+000	9	...........
	40	0.546667	6.25921E-001	4.01383E-004	0.00000E+000	2.51234E-004	2.40040E-001	6.26142E-001	3.57660E+000	9	...........
	41	0.56	6.31567E-001	4.01797E-004	0.00000E+000	2.53762E-004	2.40040E-001	6.31787E-001	3.57660E+000	9	...........
	42	0.573333	6.37211E-001	4.00498E-004	0.00000E+000	2.55202E-004	2.40040E-001	6.37404E-001	3.57660E+000	9	...........
	43	0.586667	6.42875E-001	4.01946E-004	0.00000E+000	2.58401E-004	2.40040E-001	6.43084E-001	3.57660E+000	9	...........
	44	0.6	6.48472E-001	4.01306E-004	0.00000E+000	2.60236E-004	2.40040E-001	6.48667E-001	3.57660E+000	9	...........
	45	0.613333	6.54056E-001	4.02327E-004	0.00000E+000	2.63144E-004	2.40040E-001	6.54278E-001	3.57660E+000	9	...........
	46	0.626667	6.59576E-001	4.02224E-004	0.00000E+000	2.65298E-004	2.40040E-001	6.59796E-001	3.57660E+000	9	...........
	47	0.64	6.65096E-001	4.00603E-004	0.00000E+000	2.66440E-004	2.40040E-001	6.65348E-001	3.57660E+000	9	...........
	48	0.653333	6.70628E-001	4.01319E-004	0.00000E+000	2.69136E-004	2.40040E-001	6.70838E-001	3.57660E+000	9	...........
	49	0.666667	6.76131E-001	4.00994E-004	0.00000E+000	2.71125E-004	2.40040E-001	6.76345E-001	3.57660E+000	9	...........
	50	0.68	6.81621E-001	4.00133E-004	0.00000E+000	2.72739E-004	2.40040E-001	6.81813E-001	3.57660E+000	9	...........
	51	0.693333	6.87053E-001	3.99360E-004	0.00000E+000	2.74382E-004	2.40040E-001	6.87272E-001	3.57660E+000	9	...........
	52	0.706667	6.92570E-001	4.01587E-004	0.00000E+000	2.78127E-004	2.40040E-001	6.92773E-001	3.57660E+000	9	...........
	53	0.72	6.97961E-001	4.01372E-004	0.00000E+000	2.80142E-004	2.40040E-001	6.98175E-001	3.57660E+000	9	...........
	54	0.733333	7.03385E-001	4.02116E-004	0.00000E+000	2.82842E-004	2.40040E-001	7.03584E-001	3.57660E+000	9	...........
	55	0.746667	7.08757E-001	4.01412E-004	0.00000E+000	2.84503E-004	2.40040E-001	7.08988E-001	3.57660E+000	9	...........
	56	0.76	7.14129E-001	4.00629E-004	0.00000E+000	2.86101E-004	2.40040E-001	7.14358E-001	3.57660E+000	9	...........
	57	0.773333	7.19590E-001	4.01406E-004	0.00000E+000	2.88847E-004	2.40040E-001	7.19796E-001	3.57660E+000	9	...........
	58	0.786667	7.25024E-001	4.01760E-004	0.00000E+000	2.91286E-004	2.40040E-001	7.25233E-001	3.57739E+000	9	...........
	59	0.8	7.30255E-001	4.00129E-004	0.00000E+000	2.92196E-004	2.40040E-001	7.30528E-001	3.57760E+000	9	...........
	60	0.813333	7.35543E-001	4.00109E-004	0.00000E+000	2.94298E-004	2.40040E-001	7.35765E-001	3.57760E+000	9	...........
	61	0.826667	7.40882E-001	3.99999E-004	0.00000E+000	2.96352E-004	2.40040E-001	7.41123E-001	3.57760E+000	9	...........
	62	0.84	7.46153E-001	4.00695E-004	0.00000E+000	2.98980E-004	2.40040E-001	7.46396E-001	3.57760E+000	9	...........
	63	0.853333	7.51434E-001	4.01034E-004	0.00000E+000	3.01350E-004	2.40040E-001	7.51647E-001	3.57760E+000	9	...........
	64	0.866667	7.56647E-001	3.99995E-004	0.00000E+000	3.02655E-004	2.40040E-001	7.56877E-001	3.57760E+000	9	...........
	65	0.88	7.61807E-001	3.99986E-004	0.00000E+000	3.04712E-004	2.40040E-001	7.62022E-001	3.57760E+000	9	...........
	66	0.893333	7.66995E-001	4.01351E-004	0.00000E+000	3.07834E-004	2.40040E-001	7.67241E-001	3.57760E+000	9	...........
	67	0.906667	7.72222E-001	3.99949E-004	0.00000E+000	3.08849E-004	2.40040E-001	7.72452E-001	3.57760E+000	9	...........
	68	0.92	7.77367E-001	4.01001E-004	0.00000E+000	3.11725E-004	2.40040E-001	7.77590E-001	3.57760E+000	9	...........
	69	0.933333	7.82556E-001	4.02368E-004	0.00000E+000	3.14876E-004	2.40040E-001	7.82777E-001	3.57760E+000	9	...........
	70	0.946667	7.87661E-001	4.00480E-004	0.00000E+000	3.15443E-004	2.40040E-001	7.87885E-001	3.57760E+000	9	...........
	71	0.96	7.92748E-001	4.01685E-004	0.00000E+000	3.18435E-004	2.40040E-001	7.92980E-001	3.57760E+000	9	...........
	72	0.97333	7.97774E-001	4.01561E-004	0.00000E+000	3.20355E-004	2.40040E-001	7.97980E-001	3.57760E+000	9	...........
	73	0.98667	8.02743E-001	4.00458E-004	0.00000E+000	3.21465E-004	2.40040E-001	8.03013E-001	3.57760E+000	9	...........
	74	1	8.07757E-001	4.00257E-004	0.00000E+000	3.23311E-004	2.40040E-001	8.08018E-001	3.57760E+000	9	...........
	75	1.01333	8.12699E-001	4.01289E-004	0.00000E+000	3.26127E-004	2.40040E-001	8.12977E-001	3.57760E+000	9	...........
	76	1.02667	8.17640E-001	3.99677E-004	0.00000E+000	3.26792E-004	2.40040E-001	8.17927E-001	3.57760E+000	9	...........
	77	1.04	8.22558E-001	4.01763E-004	0.00000E+000	3.30473E-004	2.40040E-001	8.22855E-001	3.57760E+000	9	...........
	78	1.05333	8.27430E-001	4.01080E-004	0.00000E+000	3.31866E-004	2.40040E-001	8.27716E-001	3.57760E+000	9	...........
	79	1.06667	8.32251E-001	4.01303E-004	0.00000E+000	3.33985E-004	2.40040E-001	8.32542E-001	3.57760E+000	9	...........
	80	1.08	8.37105E-001	4.01122E-004	0.00000E+000	3.35781E-004	2.40040E-001	8.37381E-001	3.57760E+000	9	...........
	81	1.09333	8.41904E-001	4.01023E-004	0.00000E+000	3.37623E-004	2.40040E-001	8.42168E-001	3.57760E+000	9	...........
	82	1.10667	8.46674E-001	4.00548E-004	0.00000E+000	3.39134E-004	2.40040E-001	8.46928E-001	3.57760E+000	9	...........
	83	1.12	8.51412E-001	4.00854E-004	0.00000E+000	3.41292E-004	2.40040E-001	8.51682E-001	3.57760E+000	9	...........
	84	1.13333	8.56153E-001	4.02021E-004	0.00000E+000	3.44192E-004	2.40040E-001	8.56416E-001	3.57760E+000	9	...........
	85	1.14667	8.60810E-001	4.02083E-004	0.00000E+000	3.46117E-004	2.40040E-001	8.61101E-001	3.57760E+000	9	...........
	86	1.16	8.65428E-001	4.00369E-004	0.00000E+000	3.46490E-004	2.40040E-001	8.65744E-001	3.57760E+000	9	...........
	87	1.17333	8.70087E-001	3.99505E-004	0.00000E+000	3.47604E-004	2.40040E-001	8.70373E-001	3.57760E+000	9	...........
	88	1.18667	8.74666E-001	4.00830E-004	0.00000E+000	3.50593E-004	2.40040E-001	8.74948E-001	3.57760E+000	9	...........
	89	1.2	8.79211E-001	4.01055E-004	0.00000E+000	3.52613E-004	2.40040E-001	8.79493E-001	3.57760E+000	9	...........
	90	1.21333	8.83736E-001	4.00423E-004	0.00000E+000	3.53868E-004	2.40040E-001	8.84019E-001	3.57760E+000	9	...........
	91	1.22667	8.88201E-001	4.00342E-004	0.00000E+000	3.55584E-004	2.40040E-001	8.88498E-001	3.57760E+000	9	...........
	92	1.24	8.92630E-001	4.01088E-004	0.00000E+000	3.58023E-004	2.40040E-001	8.92927E-001	3.57760E+000	9	...........
	93	1.25333	8.97053E-001	4.01411E-004	0.00000E+000	3.60087E-004	2.40040E-001	8.97385E-001	3.57760E+000	9	...........
	94	1.26667	9.01411E-001	4.02447E-004	0.00000E+000	3.62770E-004	2.40040E-001	9.01743E-001	3.57760E+000	9	...........
	95	1.28	9.05764E-001	4.00972E-004	0.00000E+000	3.63186E-004	2.40040E-001	9.06080E-001	3.57760E+000	9	...........
	96	1.29333	9.10107E-001	3.99531E-004	0.00000E+000	3.63616E-004	2.40040E-001	9.10380E-001	3.57760E+000	9	...........
	97	1.30667	9.14353E-001	4.02072E-004	0.00000E+000	3.67636E-004	2.40040E-001	9.14663E-001	3.57760E+000	9	...........
	98	1.32	9.18616E-001	4.00840E-004	0.00000E+000	3.68218E-004	2.40040E-001	9.18897E-001	3.57760E+000	9	...........
	99	1.33333	9.22905E-001	4.00871E-004	0.00000E+000	3.69966E-004	2.40040E-001	9.23145E-001	3.57760E+000	9	...........
	100	1.34667	9.27022E-001	4.01775E-004	0.00000E+000	3.72454E-004	2.40040E-001	9.27294E-001	3.57760E+000	9	...........
	101	1.36	9.31169E-001	4.00699E-004	0.00000E+000	3.73119E-004	2.40040E-001	9.31463E-001	3.57760E+000	9	...........
	102	1.37333	9.35268E-001	4.00240E-004	0.00000E+000	3.74331E-004	2.40040E-001	9.35582E-001	3.57760E+000	9	...........
	103	1.38667	9.39250E-001	4.01154E-004	0.00000E+000	3.76784E-004	2.40040E-001	9.39559E-001	3.57760E+000	9	...........
	104	1.4	9.43223E-001	4.00505E-004	0.00000E+000	3.77766E-004	2.40040E-001	9.43543E-001	3.57760E+000	9	...........
	105	1.41333	9.47203E-001	4.00877E-004	0.00000E+000	3.79712E-004	2.40040E-001	9.47534E-001	3.57760E+000	9	...........
	106	1.42667	9.51152E-001	4.00543E-004	0.00000E+000	3.80977E-004	2.40040E-001	9.51505E-001	3.57760E+000	9	...........
	107	1.44	9.55083E-001	4.00330E-004	0.00000E+000	3.82349E-004	2.40040E-001	9.55393E-001	3.57760E+000	9	...........
	108	1.45333	9.58955E-001	4.01547E-004	0.00000E+000	3.85066E-004	2.40040E-001	9.59279E-001	3.57760E+000	9	...........
	109	1.46667	9.62799E-001	4.01534E-004	0.00000E+000	3.86596E-004	2.40040E-001	9.63133E-001	3.57760E+000	9	...........
	110	1.48	9.66652E-001	4.01870E-004	0.00000E+000	3.88469E-004	2.40040E-001	9.66986E-001	3.57760E+000	9	...........
	111	1.49333	9.70425E-001	4.00614E-004	0.00000E+000	3.88766E-004	2.40040E-001	9.70768E-001	3.57760E+000	9	...........
	112	1.50667	9.74234E-001	4.00927E-004	0.00000E+000	3.90597E-004	2.40040E-001	9.74528E-001	3.57760E+000	9	...........
	113	1.52	9.77863E-001	4.01815E-004	0.00000E+000	3.92920E-004	2.40040E-001	9.78160E-001	3.57760E+000	9	...........
	114	1.53333	9.81507E-001	4.01428E-004	0.00000E+000	3.94005E-004	2.40040E-001	9.81806E-001	3.57760E+000	9	...........
	115	1.54667	9.85058E-001	4.00613E-004	0.00000E+000	3.94627E-004	2.40040E-001	9.85377E-001	3.57760E+000	9	...........
	116	1.56	9.88644E-001	4.01003E-004	0.00000E+000	3.96450E-004	2.40040E-001	9.88952E-001	3.57760E+000	9	...........
	117	1.57333	9.92199E-001	3.99526E-004	0.00000E+000	3.96409E-004	2.40040E-001	9.92535E-001	3.57760E+000	9	...........
	118	1.58667	9.95693E-001	4.01204E-004	0.00000E+000	3.99477E-004	2.40040E-001	9.96045E-001	3.57760E+000	9	...........
	119	1.59833	9.98947E-001	4.01131E-004	0.00000E+000	4.00709E-004	2.40040E-001	9.99292E-001	3.57760E+000	9	...........
STARTTIMEOFFSET	QUANT	1352.154	Start Time Offset (s)
