EXPLAIN
TAG	PWR800_CHARGE
TITLE	LABEL	PWR Cyclic Charge Discharge (Cell) - Charge Step	Test &Identifier
DATE	LABEL	12-7-2017	Date
TIME	LABEL	14:47:06	Time
NOTES	NOTES	3	&Notes...
	supercap test cell
	0.4mg
	6M KOH
PSTAT	PSTAT	IFC5000-01520	Potentiostat
CAPACITY	QUANT	1.00000E-003	Capacity (A-hr)
CELLTYPE	SELECTOR	1	&Cell Type
WORKINGCONNECTION	SELECTOR	0	&Working Lead
MAXCHARGETIME	VARIABLEANDUNITS	1.00000E+002	s	1.00000E+002	second(s)	Max &Charge Time
CHARGECURRENT	QUANT	4.00000E-004	&Charge Current (A) 
VOLTAGEFINISH	TWOPARAM	F	1.00000E-003	3.60000E+003	&Voltage Finish	 I (A) < 	Max Time(s)
SAMPLETIME	QUANT	1.00000E-002	Sa&mple Period (s)
CHARGESTOPAT1	MULTIPARAM	4	1.00000E+000	Charge Stop At &1	Voltage > Limit	V
CHARGESTOPAT2	MULTIPARAM	0	0.00000E+000	Charge Stop At &2	None	N/A
AESBHCSELECTOR	TOGGLE	F	Save Both Half Cells
IRCOMP	TOGGLE	F	IR &Measure
EOC	QUANT	0	Open Circuit (V)
SEQUENCER	TOGGLE	TRUE	Run as Sequence
PSTATMODEL	IQUANT	53	Pstat Model
PSTATSECTION	LABEL	IFC5000-01520	Pstat Section
PSTATSERIALNO	LABEL	01520	Pstat Serial Number
CTRLMODE	IQUANT	0	Control Mode
ELECTROMETER	IQUANT	1	RE=0 or CS=1
IESTAB	IQUANT	0	I/E Stability
CASPEED	IQUANT	4	Control Amp Speed
CONVENTION	IQUANT	1	Current Convention
ICHRANGE	IQUANT	2	Ich Range
ICHRANGEMODE	TOGGLE	T	Ich Auto Range
ICHOFFSETENABLE	TOGGLE	F	Ich Offset Enable
ICHOFFSET	QUANT	0	Ich Offset (V)
ICHFILTER	IQUANT	1	Ich Filter
VCHRANGE	IQUANT	2	Vch Range
VCHRANGEMODE	TOGGLE	T	Vch Auto Range
VCHOFFSETENABLE	TOGGLE	F	Vch Offset Enable
VCHOFFSET	QUANT	0	Vch Offset (V)
VCHFILTER	IQUANT	1	Vch Filter
IERANGELOWERLIMIT	IQUANT	9	I/E Range Lower Limit
IERANGEMODE	TOGGLE	F	I/E AutoRange
IERANGE	IQUANT	9	I/E Range
ACHSELECT	IQUANT	1	Ach Select
ACHRANGE	IQUANT	2	Ach Range
ACHOFFSETENABLE	TOGGLE	F	Ach Offset Enable
ACHOFFSET	QUANT	0	Ach Offset (V)
ACHFILTER	IQUANT	1	Ach Filter
CABLEID	IQUANT	14	Cable ID
DCCALDATE	LABEL	5-7-2017	DC Calibration Date
ACCALDATE	LABEL	12/3/2015	AC Calibration Date
FRAMEWORKVERSION	QUANT	7.01	Framework Version
INSTRUMENTVERSION	LABEL	4.00	Instrument Version
CURVE	TABLE	120
	Pt	T	Vf	Im	Vu	Pwr	Sig	Ach	Temp	IERange	Over
	#	s	V	A	V	W	V	V	deg C	#	bits
	0	0.013333	3.61411E-001	4.01620E-004	0.00000E+000	1.45150E-004	2.40040E-001	3.61505E-001	3.57624E+000	9	...........
	1	0.026667	3.72741E-001	4.01520E-004	0.00000E+000	1.49663E-004	2.40040E-001	3.72808E-001	3.57650E+000	9	...........
	2	0.04	3.82505E-001	3.99396E-004	0.00000E+000	1.52771E-004	2.40040E-001	3.82577E-001	3.57650E+000	9	...........
	3	0.053333	3.91375E-001	4.01868E-004	0.00000E+000	1.57281E-004	2.40040E-001	3.91443E-001	3.57650E+000	9	...........
	4	0.066667	3.99690E-001	4.01988E-004	0.00000E+000	1.60670E-004	2.40040E-001	3.99766E-001	3.57650E+000	9	...........
	5	0.08	4.07627E-001	4.01789E-004	0.00000E+000	1.63780E-004	2.40040E-001	4.07708E-001	3.57650E+000	9	...........
	6	0.093333	4.15269E-001	4.01480E-004	0.00000E+000	1.66722E-004	2.40040E-001	4.15358E-001	3.57650E+000	9	...........
	7	0.106667	4.22674E-001	4.01701E-004	0.00000E+000	1.69789E-004	2.40040E-001	4.22765E-001	3.57650E+000	9	...........
	8	0.12	4.29880E-001	4.00183E-004	0.00000E+000	1.72031E-004	2.40040E-001	4.29971E-001	3.57650E+000	9	...........
	9	0.133333	4.36884E-001	4.01052E-004	0.00000E+000	1.75213E-004	2.40040E-001	4.36976E-001	3.57650E+000	9	...........
	10	0.146667	4.43857E-001	4.02146E-004	0.00000E+000	1.78495E-004	2.40040E-001	4.43951E-001	3.57650E+000	9	...........
	11	0.16	4.50700E-001	4.01148E-004	0.00000E+000	1.80797E-004	2.40040E-001	4.50796E-001	3.57650E+000	9	...........
	12	0.173333	4.57346E-001	4.00515E-004	0.00000E+000	1.83174E-004	2.40040E-001	4.57437E-001	3.57650E+000	9	...........
	13	0.186667	4.63987E-001	4.01696E-004	0.00000E+000	1.86382E-004	2.40040E-001	4.64080E-001	3.57650E+000	9	...........
	14	0.2	4.70507E-001	4.01896E-004	0.00000E+000	1.89095E-004	2.40040E-001	4.70601E-001	3.57650E+000	9	...........
	15	0.213333	4.76943E-001	4.01038E-004	0.00000E+000	1.91272E-004	2.40040E-001	4.77034E-001	3.57650E+000	9	...........
	16	0.226667	4.83341E-001	4.01092E-004	0.00000E+000	1.93864E-004	2.40040E-001	4.83435E-001	3.57650E+000	9	...........
	17	0.24	4.89677E-001	4.00552E-004	0.00000E+000	1.96141E-004	2.40040E-001	4.89775E-001	3.57650E+000	9	...........
	18	0.253333	4.95999E-001	4.02385E-004	0.00000E+000	1.99583E-004	2.40040E-001	4.96098E-001	3.57650E+000	9	...........
	19	0.266667	5.02266E-001	4.00476E-004	0.00000E+000	2.01146E-004	2.40040E-001	5.02368E-001	3.57650E+000	9	...........
	20	0.28	5.08436E-001	4.01002E-004	0.00000E+000	2.03884E-004	2.40040E-001	5.08536E-001	3.57650E+000	9	...........
	21	0.293333	5.14639E-001	4.00637E-004	0.00000E+000	2.06183E-004	2.40040E-001	5.14738E-001	3.57650E+000	9	...........
	22	0.306667	5.20726E-001	4.00229E-004	0.00000E+000	2.08410E-004	2.40040E-001	5.20829E-001	3.57650E+000	9	...........
	23	0.32	5.26746E-001	4.00142E-004	0.00000E+000	2.10773E-004	2.40040E-001	5.26850E-001	3.57650E+000	9	...........
	24	0.333333	5.32701E-001	4.01693E-004	0.00000E+000	2.13982E-004	2.40040E-001	5.32821E-001	3.57650E+000	9	...........
	25	0.346667	5.38522E-001	4.00654E-004	0.00000E+000	2.15761E-004	2.40040E-001	5.38681E-001	3.57650E+000	9	...........
	26	0.36	5.44446E-001	4.01003E-004	0.00000E+000	2.18325E-004	2.40040E-001	5.44599E-001	3.57650E+000	9	...........
	27	0.373333	5.50397E-001	4.00953E-004	0.00000E+000	2.20684E-004	2.40040E-001	5.50547E-001	3.57650E+000	9	...........
	28	0.386667	5.56295E-001	4.00213E-004	0.00000E+000	2.22636E-004	2.40040E-001	5.56446E-001	3.57650E+000	9	...........
	29	0.4	5.62247E-001	4.00712E-004	0.00000E+000	2.25299E-004	2.40040E-001	5.62432E-001	3.57650E+000	9	...........
	30	0.413333	5.68119E-001	4.00983E-004	0.00000E+000	2.27806E-004	2.40040E-001	5.68294E-001	3.57650E+000	9	...........
	31	0.426667	5.73927E-001	3.99757E-004	0.00000E+000	2.29432E-004	2.40040E-001	5.74113E-001	3.57650E+000	9	...........
	32	0.44	5.79782E-001	4.01213E-004	0.00000E+000	2.32616E-004	2.40040E-001	5.79966E-001	3.57650E+000	9	...........
	33	0.453333	5.85615E-001	4.01561E-004	0.00000E+000	2.35160E-004	2.40040E-001	5.85825E-001	3.57650E+000	9	...........
	34	0.466667	5.91414E-001	4.02055E-004	0.00000E+000	2.37781E-004	2.40040E-001	5.91630E-001	3.57650E+000	9	...........
	35	0.48	5.97098E-001	4.00729E-004	0.00000E+000	2.39275E-004	2.40040E-001	5.97311E-001	3.57650E+000	9	...........
	36	0.493333	6.02813E-001	4.01059E-004	0.00000E+000	2.41763E-004	2.40040E-001	6.03052E-001	3.57650E+000	9	...........
	37	0.506667	6.08631E-001	4.01421E-004	0.00000E+000	2.44318E-004	2.40040E-001	6.08846E-001	3.57650E+000	9	...........
	38	0.52	6.14449E-001	4.00713E-004	0.00000E+000	2.46217E-004	2.40040E-001	6.14637E-001	3.57650E+000	9	...........
	39	0.533333	6.20164E-001	4.00724E-004	0.00000E+000	2.48515E-004	2.40040E-001	6.20311E-001	3.57650E+000	9	...........
	40	0.546667	6.25840E-001	4.00327E-004	0.00000E+000	2.50541E-004	2.40040E-001	6.25997E-001	3.57650E+000	9	...........
	41	0.56	6.31509E-001	3.99522E-004	0.00000E+000	2.52301E-004	2.40040E-001	6.31663E-001	3.57650E+000	9	...........
	42	0.573333	6.37184E-001	4.00706E-004	0.00000E+000	2.55324E-004	2.40040E-001	6.37353E-001	3.57650E+000	9	...........
	43	0.586667	6.42834E-001	4.00130E-004	0.00000E+000	2.57217E-004	2.40040E-001	6.43031E-001	3.57650E+000	9	...........
	44	0.6	6.48460E-001	4.00563E-004	0.00000E+000	2.59749E-004	2.40040E-001	6.48619E-001	3.57650E+000	9	...........
	45	0.613333	6.54033E-001	4.00362E-004	0.00000E+000	2.61850E-004	2.40040E-001	6.54212E-001	3.57650E+000	9	...........
	46	0.626667	6.59619E-001	4.01117E-004	0.00000E+000	2.64584E-004	2.40040E-001	6.59827E-001	3.57650E+000	9	...........
	47	0.64	6.65205E-001	4.02482E-004	0.00000E+000	2.67733E-004	2.40040E-001	6.65400E-001	3.57650E+000	9	...........
	48	0.653333	6.70748E-001	3.99895E-004	0.00000E+000	2.68229E-004	2.40040E-001	6.70919E-001	3.57650E+000	9	...........
	49	0.666667	6.76295E-001	4.01331E-004	0.00000E+000	2.71418E-004	2.40040E-001	6.76482E-001	3.57650E+000	9	...........
	50	0.68	6.81831E-001	4.01130E-004	0.00000E+000	2.73503E-004	2.40040E-001	6.82023E-001	3.57650E+000	9	...........
	51	0.693333	6.87258E-001	4.00896E-004	0.00000E+000	2.75519E-004	2.40040E-001	6.87468E-001	3.57650E+000	9	...........
	52	0.706667	6.92747E-001	4.02655E-004	0.00000E+000	2.78938E-004	2.40040E-001	6.92958E-001	3.57650E+000	9	...........
	53	0.72	6.98207E-001	4.00944E-004	0.00000E+000	2.79942E-004	2.40040E-001	6.98436E-001	3.57650E+000	9	...........
	54	0.733333	7.03634E-001	4.01193E-004	0.00000E+000	2.82293E-004	2.40040E-001	7.03861E-001	3.57650E+000	9	...........
	55	0.746667	7.09010E-001	4.00040E-004	0.00000E+000	2.83632E-004	2.40040E-001	7.09238E-001	3.57650E+000	9	...........
	56	0.76	7.14449E-001	4.01609E-004	0.00000E+000	2.86929E-004	2.40040E-001	7.14688E-001	3.57650E+000	9	...........
	57	0.773333	7.19805E-001	4.01223E-004	0.00000E+000	2.88802E-004	2.40040E-001	7.20048E-001	3.57650E+000	9	...........
	58	0.786667	7.25091E-001	3.99752E-004	0.00000E+000	2.89856E-004	2.40040E-001	7.25323E-001	3.57650E+000	9	...........
	59	0.8	7.30418E-001	3.99265E-004	0.00000E+000	2.91631E-004	2.40040E-001	7.30673E-001	3.57650E+000	9	...........
	60	0.813333	7.35681E-001	4.01496E-004	0.00000E+000	2.95373E-004	2.40040E-001	7.35933E-001	3.57650E+000	9	...........
	61	0.826667	7.40965E-001	4.01741E-004	0.00000E+000	2.97676E-004	2.40040E-001	7.41249E-001	3.57650E+000	9	...........
	62	0.84	7.46297E-001	4.01138E-004	0.00000E+000	2.99368E-004	2.40040E-001	7.46566E-001	3.57650E+000	9	...........
	63	0.853333	7.51513E-001	4.00810E-004	0.00000E+000	3.01214E-004	2.40040E-001	7.51771E-001	3.57650E+000	9	...........
	64	0.866667	7.56732E-001	4.00443E-004	0.00000E+000	3.03028E-004	2.40040E-001	7.56981E-001	3.57650E+000	9	...........
	65	0.88	7.61893E-001	4.00992E-004	0.00000E+000	3.05513E-004	2.40040E-001	7.62119E-001	3.57650E+000	9	...........
	66	0.893333	7.67091E-001	4.00643E-004	0.00000E+000	3.07330E-004	2.40040E-001	7.67352E-001	3.57650E+000	9	...........
	67	0.906667	7.72273E-001	4.01502E-004	0.00000E+000	3.10070E-004	2.40040E-001	7.72546E-001	3.57650E+000	9	...........
	68	0.92	7.77444E-001	4.00297E-004	0.00000E+000	3.11208E-004	2.40040E-001	7.77724E-001	3.57650E+000	9	...........
	69	0.933333	7.82609E-001	4.01639E-004	0.00000E+000	3.14326E-004	2.40040E-001	7.82891E-001	3.57650E+000	9	...........
	70	0.946667	7.87688E-001	4.00401E-004	0.00000E+000	3.15391E-004	2.40040E-001	7.87961E-001	3.57650E+000	9	...........
	71	0.96	7.92822E-001	4.00032E-004	0.00000E+000	3.17154E-004	2.40040E-001	7.93104E-001	3.57650E+000	9	...........
	72	0.97333	7.97869E-001	4.01325E-004	0.00000E+000	3.20205E-004	2.40040E-001	7.98108E-001	3.57650E+000	9	...........
	73	0.98667	8.02839E-001	4.01995E-004	0.00000E+000	3.22738E-004	2.40040E-001	8.03106E-001	3.57650E+000	9	...........
	74	1	8.07855E-001	4.02509E-004	0.00000E+000	3.25169E-004	2.40040E-001	8.08142E-001	3.57650E+000	9	...........
	75	1.01333	8.12866E-001	3.99843E-004	0.00000E+000	3.25018E-004	2.40040E-001	8.13122E-001	3.57661E+000	9	...........
	76	1.02667	8.17830E-001	4.01291E-004	0.00000E+000	3.28188E-004	2.40040E-001	8.18111E-001	3.57740E+000	9	...........
	77	1.04	8.22669E-001	3.98790E-004	0.00000E+000	3.28073E-004	2.40040E-001	8.22950E-001	3.57740E+000	9	...........
	78	1.05333	8.27547E-001	4.00557E-004	0.00000E+000	3.31480E-004	2.40040E-001	8.27817E-001	3.57740E+000	9	...........
	79	1.06667	8.32394E-001	4.01009E-004	0.00000E+000	3.33797E-004	2.40040E-001	8.32680E-001	3.57740E+000	9	...........
	80	1.08	8.37206E-001	4.01327E-004	0.00000E+000	3.35994E-004	2.40040E-001	8.37470E-001	3.57740E+000	9	...........
	81	1.09333	8.42014E-001	4.01385E-004	0.00000E+000	3.37971E-004	2.40040E-001	8.42282E-001	3.57740E+000	9	...........
	82	1.10667	8.46848E-001	3.99986E-004	0.00000E+000	3.38728E-004	2.40040E-001	8.47093E-001	3.57740E+000	9	...........
	83	1.12	8.51552E-001	4.01299E-004	0.00000E+000	3.41727E-004	2.40040E-001	8.51851E-001	3.57740E+000	9	...........
	84	1.13333	8.56203E-001	4.01072E-004	0.00000E+000	3.43399E-004	2.40040E-001	8.56472E-001	3.57740E+000	9	...........
	85	1.14667	8.60877E-001	4.01764E-004	0.00000E+000	3.45869E-004	2.40040E-001	8.61159E-001	3.57740E+000	9	...........
	86	1.16	8.65493E-001	4.01088E-004	0.00000E+000	3.47138E-004	2.40040E-001	8.65763E-001	3.57740E+000	9	...........
	87	1.17333	8.70111E-001	4.00164E-004	0.00000E+000	3.48187E-004	2.40040E-001	8.70393E-001	3.57740E+000	9	...........
	88	1.18667	8.74705E-001	4.00667E-004	0.00000E+000	3.50465E-004	2.40040E-001	8.74994E-001	3.57740E+000	9	...........
	89	1.2	8.79230E-001	4.00757E-004	0.00000E+000	3.52358E-004	2.40040E-001	8.79522E-001	3.57740E+000	9	...........
	90	1.21333	8.83767E-001	4.01858E-004	0.00000E+000	3.55148E-004	2.40040E-001	8.84042E-001	3.57740E+000	9	...........
	91	1.22667	8.88241E-001	4.00589E-004	0.00000E+000	3.55819E-004	2.40040E-001	8.88535E-001	3.57740E+000	9	...........
	92	1.24	8.92670E-001	4.01182E-004	0.00000E+000	3.58123E-004	2.40040E-001	8.92970E-001	3.57740E+000	9	...........
	93	1.25333	8.97015E-001	4.01417E-004	0.00000E+000	3.60077E-004	2.40040E-001	8.97347E-001	3.57740E+000	9	...........
	94	1.26667	9.01433E-001	4.01258E-004	0.00000E+000	3.61707E-004	2.40040E-001	9.01733E-001	3.57740E+000	9	...........
	95	1.28	9.05836E-001	4.01063E-004	0.00000E+000	3.63297E-004	2.40040E-001	9.06134E-001	3.57740E+000	9	...........
	96	1.29333	9.10148E-001	4.01836E-004	0.00000E+000	3.65730E-004	2.40040E-001	9.10437E-001	3.57740E+000	9	...........
	97	1.30667	9.14434E-001	4.00686E-004	0.00000E+000	3.66401E-004	2.40040E-001	9.14742E-001	3.57740E+000	9	...........
	98	1.32	9.18655E-001	4.01052E-004	0.00000E+000	3.68429E-004	2.40040E-001	9.18963E-001	3.57740E+000	9	...........
	99	1.33333	9.22880E-001	4.00195E-004	0.00000E+000	3.69332E-004	2.40040E-001	9.23125E-001	3.57740E+000	9	...........
	100	1.34667	9.27007E-001	3.99665E-004	0.00000E+000	3.70492E-004	2.40040E-001	9.27264E-001	3.57740E+000	9	...........
	101	1.36	9.31096E-001	4.01042E-004	0.00000E+000	3.73408E-004	2.40040E-001	9.31337E-001	3.57740E+000	9	...........
	102	1.37333	9.35158E-001	4.00377E-004	0.00000E+000	3.74416E-004	2.40040E-001	9.35436E-001	3.57740E+000	9	...........
	103	1.38667	9.39224E-001	3.99548E-004	0.00000E+000	3.75265E-004	2.40040E-001	9.39499E-001	3.57740E+000	9	...........
	104	1.4	9.43201E-001	4.00522E-004	0.00000E+000	3.77773E-004	2.40040E-001	9.43454E-001	3.57740E+000	9	...........
	105	1.41333	9.47255E-001	4.01942E-004	0.00000E+000	3.80742E-004	2.40040E-001	9.47491E-001	3.57740E+000	9	...........
	106	1.42667	9.51203E-001	4.01965E-004	0.00000E+000	3.82350E-004	2.40040E-001	9.51464E-001	3.57740E+000	9	...........
	107	1.44	9.55086E-001	4.01793E-004	0.00000E+000	3.83747E-004	2.40040E-001	9.55366E-001	3.57740E+000	9	...........
	108	1.45333	9.58976E-001	4.00970E-004	0.00000E+000	3.84521E-004	2.40040E-001	9.59276E-001	3.57740E+000	9	...........
	109	1.46667	9.62800E-001	4.00315E-004	0.00000E+000	3.85423E-004	2.40040E-001	9.63130E-001	3.57740E+000	9	...........
	110	1.48	9.66636E-001	4.00420E-004	0.00000E+000	3.87060E-004	2.40040E-001	9.66949E-001	3.57740E+000	9	...........
	111	1.49333	9.70354E-001	4.00274E-004	0.00000E+000	3.88407E-004	2.40040E-001	9.70719E-001	3.57740E+000	9	...........
	112	1.50667	9.74154E-001	4.01362E-004	0.00000E+000	3.90988E-004	2.40040E-001	9.74423E-001	3.57740E+000	9	...........
	113	1.52	9.77804E-001	4.01312E-004	0.00000E+000	3.92404E-004	2.40040E-001	9.78115E-001	3.57740E+000	9	...........
	114	1.53333	9.81478E-001	4.00779E-004	0.00000E+000	3.93356E-004	2.40040E-001	9.81748E-001	3.57740E+000	9	...........
	115	1.54667	9.85098E-001	4.00433E-004	0.00000E+000	3.94466E-004	2.40040E-001	9.85371E-001	3.57740E+000	9	...........
	116	1.56	9.88682E-001	4.00192E-004	0.00000E+000	3.95662E-004	2.40040E-001	9.88966E-001	3.57740E+000	9	...........
	117	1.57333	9.92244E-001	4.00676E-004	0.00000E+000	3.97569E-004	2.40040E-001	9.92516E-001	3.57740E+000	9	...........
	118	1.58667	9.95763E-001	4.01134E-004	0.00000E+000	3.99434E-004	2.40040E-001	9.96040E-001	3.57740E+000	9	...........
	119	1.59833	9.99031E-001	4.01708E-004	0.00000E+000	4.01319E-004	2.40040E-001	9.99332E-001	3.57740E+000	9	...........
STARTTIMEOFFSET	QUANT	1364.659	Start Time Offset (s)
