EXPLAIN
TAG	PWR800_CHARGE
TITLE	LABEL	PWR Cyclic Charge Discharge (Cell) - Charge Step	Test &Identifier
DATE	LABEL	12-7-2017	Date
TIME	LABEL	15:13:51	Time
NOTES	NOTES	3	&Notes...
	supercap test cell
	0.4mg
	6M KOH
PSTAT	PSTAT	IFC5000-01520	Potentiostat
CAPACITY	QUANT	1.00000E-003	Capacity (A-hr)
CELLTYPE	SELECTOR	1	&Cell Type
WORKINGCONNECTION	SELECTOR	0	&Working Lead
MAXCHARGETIME	VARIABLEANDUNITS	1.00000E+002	s	1.00000E+002	second(s)	Max &Charge Time
CHARGECURRENT	QUANT	4.00000E-004	&Charge Current (A) 
VOLTAGEFINISH	TWOPARAM	F	1.00000E-003	3.60000E+003	&Voltage Finish	 I (A) < 	Max Time(s)
SAMPLETIME	QUANT	1.00000E-002	Sa&mple Period (s)
CHARGESTOPAT1	MULTIPARAM	4	1.00000E+000	Charge Stop At &1	Voltage > Limit	V
CHARGESTOPAT2	MULTIPARAM	0	0.00000E+000	Charge Stop At &2	None	N/A
AESBHCSELECTOR	TOGGLE	F	Save Both Half Cells
IRCOMP	TOGGLE	F	IR &Measure
EOC	QUANT	0	Open Circuit (V)
SEQUENCER	TOGGLE	TRUE	Run as Sequence
PSTATMODEL	IQUANT	53	Pstat Model
PSTATSECTION	LABEL	IFC5000-01520	Pstat Section
PSTATSERIALNO	LABEL	01520	Pstat Serial Number
CTRLMODE	IQUANT	0	Control Mode
ELECTROMETER	IQUANT	1	RE=0 or CS=1
IESTAB	IQUANT	0	I/E Stability
CASPEED	IQUANT	4	Control Amp Speed
CONVENTION	IQUANT	1	Current Convention
ICHRANGE	IQUANT	2	Ich Range
ICHRANGEMODE	TOGGLE	T	Ich Auto Range
ICHOFFSETENABLE	TOGGLE	F	Ich Offset Enable
ICHOFFSET	QUANT	0	Ich Offset (V)
ICHFILTER	IQUANT	1	Ich Filter
VCHRANGE	IQUANT	2	Vch Range
VCHRANGEMODE	TOGGLE	T	Vch Auto Range
VCHOFFSETENABLE	TOGGLE	F	Vch Offset Enable
VCHOFFSET	QUANT	0	Vch Offset (V)
VCHFILTER	IQUANT	1	Vch Filter
IERANGELOWERLIMIT	IQUANT	9	I/E Range Lower Limit
IERANGEMODE	TOGGLE	F	I/E AutoRange
IERANGE	IQUANT	9	I/E Range
ACHSELECT	IQUANT	1	Ach Select
ACHRANGE	IQUANT	2	Ach Range
ACHOFFSETENABLE	TOGGLE	F	Ach Offset Enable
ACHOFFSET	QUANT	0	Ach Offset (V)
ACHFILTER	IQUANT	1	Ach Filter
CABLEID	IQUANT	14	Cable ID
DCCALDATE	LABEL	5-7-2017	DC Calibration Date
ACCALDATE	LABEL	12/3/2015	AC Calibration Date
FRAMEWORKVERSION	QUANT	7.01	Framework Version
INSTRUMENTVERSION	LABEL	4.00	Instrument Version
CURVE	TABLE	108
	Pt	T	Vf	Im	Vu	Pwr	Sig	Ach	Temp	IERange	Over
	#	s	V	A	V	W	V	V	deg C	#	bits
	0	0.013333	3.85651E-001	4.01393E-004	0.00000E+000	1.54798E-004	2.40040E-001	3.85743E-001	3.57650E+000	9	...........
	1	0.026667	3.98416E-001	4.00428E-004	0.00000E+000	1.59537E-004	2.40040E-001	3.98494E-001	3.57650E+000	9	...........
	2	0.04	4.09316E-001	4.00933E-004	0.00000E+000	1.64108E-004	2.40040E-001	4.09395E-001	3.57650E+000	9	...........
	3	0.053333	4.19158E-001	4.00167E-004	0.00000E+000	1.67733E-004	2.40040E-001	4.19241E-001	3.57650E+000	9	...........
	4	0.066667	4.28309E-001	4.00426E-004	0.00000E+000	1.71506E-004	2.40040E-001	4.28394E-001	3.57650E+000	9	...........
	5	0.08	4.36991E-001	4.01362E-004	0.00000E+000	1.75392E-004	2.40040E-001	4.37085E-001	3.57650E+000	9	...........
	6	0.093333	4.45322E-001	4.01623E-004	0.00000E+000	1.78852E-004	2.40040E-001	4.45411E-001	3.57650E+000	9	...........
	7	0.106667	4.53321E-001	3.99919E-004	0.00000E+000	1.81291E-004	2.40040E-001	4.53411E-001	3.57650E+000	9	...........
	8	0.12	4.61111E-001	4.01213E-004	0.00000E+000	1.85004E-004	2.40040E-001	4.61202E-001	3.57650E+000	9	...........
	9	0.133333	4.68760E-001	4.00964E-004	0.00000E+000	1.87956E-004	2.40040E-001	4.68857E-001	3.57650E+000	9	...........
	10	0.146667	4.76182E-001	4.00824E-004	0.00000E+000	1.90865E-004	2.40040E-001	4.76274E-001	3.57650E+000	9	...........
	11	0.16	4.83535E-001	4.00533E-004	0.00000E+000	1.93672E-004	2.40040E-001	4.83633E-001	3.57650E+000	9	...........
	12	0.173333	4.90799E-001	4.01399E-004	0.00000E+000	1.97006E-004	2.40040E-001	4.90898E-001	3.57650E+000	9	...........
	13	0.186667	4.97878E-001	4.00572E-004	0.00000E+000	1.99436E-004	2.40040E-001	4.97977E-001	3.57650E+000	9	...........
	14	0.2	5.04833E-001	4.00879E-004	0.00000E+000	2.02377E-004	2.40040E-001	5.04938E-001	3.57650E+000	9	...........
	15	0.213333	5.11710E-001	4.00077E-004	0.00000E+000	2.04724E-004	2.40040E-001	5.11822E-001	3.57650E+000	9	...........
	16	0.226667	5.18600E-001	4.00356E-004	0.00000E+000	2.07625E-004	2.40040E-001	5.18713E-001	3.57650E+000	9	...........
	17	0.24	5.25452E-001	4.01810E-004	0.00000E+000	2.11132E-004	2.40040E-001	5.25556E-001	3.57650E+000	9	...........
	18	0.253333	5.32157E-001	4.01369E-004	0.00000E+000	2.13591E-004	2.40040E-001	5.32267E-001	3.57650E+000	9	...........
	19	0.266667	5.38638E-001	4.00412E-004	0.00000E+000	2.15677E-004	2.40040E-001	5.38852E-001	3.57650E+000	9	...........
	20	0.28	5.45267E-001	4.00626E-004	0.00000E+000	2.18448E-004	2.40040E-001	5.45485E-001	3.57650E+000	9	...........
	21	0.293333	5.51872E-001	4.00779E-004	0.00000E+000	2.21179E-004	2.40040E-001	5.52096E-001	3.57650E+000	9	...........
	22	0.306667	5.58415E-001	4.01576E-004	0.00000E+000	2.24246E-004	2.40040E-001	5.58656E-001	3.57650E+000	9	...........
	23	0.32	5.64961E-001	4.00942E-004	0.00000E+000	2.26517E-004	2.40040E-001	5.65214E-001	3.57650E+000	9	...........
	24	0.333333	5.71441E-001	4.01319E-004	0.00000E+000	2.29330E-004	2.40040E-001	5.71681E-001	3.57650E+000	9	...........
	25	0.346667	5.77885E-001	4.01010E-004	0.00000E+000	2.31737E-004	2.40040E-001	5.78148E-001	3.57655E+000	9	...........
	26	0.36	5.84260E-001	4.01498E-004	0.00000E+000	2.34579E-004	2.40040E-001	5.84535E-001	3.57670E+000	9	...........
	27	0.373333	5.90671E-001	4.00421E-004	0.00000E+000	2.36517E-004	2.40040E-001	5.90955E-001	3.57670E+000	9	...........
	28	0.386667	5.97006E-001	4.00068E-004	0.00000E+000	2.38843E-004	2.40040E-001	5.97260E-001	3.57670E+000	9	...........
	29	0.4	6.03334E-001	4.02484E-004	0.00000E+000	2.42832E-004	2.40040E-001	6.03620E-001	3.57670E+000	9	...........
	30	0.413333	6.09578E-001	4.00846E-004	0.00000E+000	2.44347E-004	2.40040E-001	6.09847E-001	3.57670E+000	9	...........
	31	0.426667	6.15888E-001	4.00686E-004	0.00000E+000	2.46777E-004	2.40040E-001	6.16111E-001	3.57670E+000	9	...........
	32	0.44	6.22140E-001	4.00317E-004	0.00000E+000	2.49053E-004	2.40040E-001	6.22341E-001	3.57670E+000	9	...........
	33	0.453333	6.28315E-001	4.00813E-004	0.00000E+000	2.51837E-004	2.40040E-001	6.28541E-001	3.57670E+000	9	...........
	34	0.466667	6.34480E-001	4.01865E-004	0.00000E+000	2.54975E-004	2.40040E-001	6.34678E-001	3.57670E+000	9	...........
	35	0.48	6.40654E-001	4.00735E-004	0.00000E+000	2.56732E-004	2.40040E-001	6.40863E-001	3.57670E+000	9	...........
	36	0.493333	6.46775E-001	4.01285E-004	0.00000E+000	2.59541E-004	2.40040E-001	6.46991E-001	3.57670E+000	9	...........
	37	0.506667	6.52864E-001	4.00487E-004	0.00000E+000	2.61463E-004	2.40040E-001	6.53082E-001	3.57670E+000	9	...........
	38	0.52	6.58925E-001	4.00462E-004	0.00000E+000	2.63874E-004	2.40040E-001	6.59137E-001	3.57670E+000	9	...........
	39	0.533333	6.65036E-001	3.99732E-004	0.00000E+000	2.65836E-004	2.40040E-001	6.65238E-001	3.57670E+000	9	...........
	40	0.546667	6.71078E-001	4.00582E-004	0.00000E+000	2.68822E-004	2.40040E-001	6.71282E-001	3.57670E+000	9	...........
	41	0.56	6.77130E-001	4.00754E-004	0.00000E+000	2.71363E-004	2.40040E-001	6.77357E-001	3.57670E+000	9	...........
	42	0.573333	6.83089E-001	4.01761E-004	0.00000E+000	2.74438E-004	2.40040E-001	6.83333E-001	3.57670E+000	9	...........
	43	0.586667	6.89009E-001	4.00433E-004	0.00000E+000	2.75902E-004	2.40040E-001	6.89233E-001	3.57670E+000	9	...........
	44	0.6	6.95001E-001	4.00926E-004	0.00000E+000	2.78644E-004	2.40040E-001	6.95228E-001	3.57670E+000	9	...........
	45	0.613333	7.00878E-001	4.00264E-004	0.00000E+000	2.80536E-004	2.40040E-001	7.01124E-001	3.57670E+000	9	...........
	46	0.626667	7.06783E-001	4.00681E-004	0.00000E+000	2.83195E-004	2.40040E-001	7.07049E-001	3.57670E+000	9	...........
	47	0.64	7.12630E-001	4.00874E-004	0.00000E+000	2.85675E-004	2.40040E-001	7.12900E-001	3.57670E+000	9	...........
	48	0.653333	7.18533E-001	4.00493E-004	0.00000E+000	2.87767E-004	2.40040E-001	7.18774E-001	3.57670E+000	9	...........
	49	0.666667	7.24344E-001	4.01759E-004	0.00000E+000	2.91012E-004	2.40040E-001	7.24556E-001	3.57670E+000	9	...........
	50	0.68	7.30075E-001	4.00166E-004	0.00000E+000	2.92151E-004	2.40040E-001	7.30306E-001	3.57670E+000	9	...........
	51	0.693333	7.35785E-001	3.99446E-004	0.00000E+000	2.93906E-004	2.40040E-001	7.36024E-001	3.57670E+000	9	...........
	52	0.706667	7.41474E-001	4.01694E-004	0.00000E+000	2.97846E-004	2.40040E-001	7.41726E-001	3.57670E+000	9	...........
	53	0.72	7.47168E-001	4.01031E-004	0.00000E+000	2.99638E-004	2.40040E-001	7.47408E-001	3.57670E+000	9	...........
	54	0.733333	7.52775E-001	4.01040E-004	0.00000E+000	3.01893E-004	2.40040E-001	7.52996E-001	3.57670E+000	9	...........
	55	0.746667	7.58427E-001	4.01476E-004	0.00000E+000	3.04490E-004	2.40040E-001	7.58655E-001	3.57670E+000	9	...........
	56	0.76	7.64021E-001	4.01425E-004	0.00000E+000	3.06698E-004	2.40040E-001	7.64252E-001	3.57670E+000	9	...........
	57	0.773333	7.69557E-001	4.00771E-004	0.00000E+000	3.08416E-004	2.40040E-001	7.69817E-001	3.57670E+000	9	...........
	58	0.786667	7.75105E-001	4.02226E-004	0.00000E+000	3.11767E-004	2.40040E-001	7.75346E-001	3.57670E+000	9	...........
	59	0.8	7.80572E-001	4.00499E-004	0.00000E+000	3.12619E-004	2.40040E-001	7.80826E-001	3.57670E+000	9	...........
	60	0.813333	7.85996E-001	4.00235E-004	0.00000E+000	3.14583E-004	2.40040E-001	7.86240E-001	3.57670E+000	9	...........
	61	0.826667	7.91479E-001	4.00740E-004	0.00000E+000	3.17177E-004	2.40040E-001	7.91736E-001	3.57670E+000	9	...........
	62	0.84	7.96936E-001	4.00545E-004	0.00000E+000	3.19209E-004	2.40040E-001	7.97168E-001	3.57670E+000	9	...........
	63	0.853333	8.02328E-001	4.01628E-004	0.00000E+000	3.22238E-004	2.40040E-001	8.02566E-001	3.57670E+000	9	...........
	64	0.866667	8.07667E-001	4.01428E-004	0.00000E+000	3.24221E-004	2.40040E-001	8.07925E-001	3.57670E+000	9	...........
	65	0.88	8.12909E-001	4.01926E-004	0.00000E+000	3.26730E-004	2.40040E-001	8.13178E-001	3.57670E+000	9	...........
	66	0.893333	8.18108E-001	4.00600E-004	0.00000E+000	3.27734E-004	2.40040E-001	8.18403E-001	3.57670E+000	9	...........
	67	0.906667	8.23330E-001	4.00129E-004	0.00000E+000	3.29438E-004	2.40040E-001	8.23620E-001	3.57670E+000	9	...........
	68	0.92	8.28459E-001	4.00844E-004	0.00000E+000	3.32083E-004	2.40040E-001	8.28732E-001	3.57670E+000	9	...........
	69	0.933333	8.33667E-001	4.01982E-004	0.00000E+000	3.35119E-004	2.40040E-001	8.33957E-001	3.57670E+000	9	...........
	70	0.946667	8.38739E-001	4.02208E-004	0.00000E+000	3.37347E-004	2.40040E-001	8.39015E-001	3.57670E+000	9	...........
	71	0.96	8.43750E-001	4.00281E-004	0.00000E+000	3.37737E-004	2.40040E-001	8.44050E-001	3.57670E+000	9	...........
	72	0.97333	8.48841E-001	4.00928E-004	0.00000E+000	3.40325E-004	2.40040E-001	8.49134E-001	3.57670E+000	9	...........
	73	0.98667	8.53807E-001	4.00070E-004	0.00000E+000	3.41582E-004	2.40040E-001	8.54096E-001	3.57670E+000	9	...........
	74	1	8.58768E-001	4.00331E-004	0.00000E+000	3.43792E-004	2.40040E-001	8.59066E-001	3.57670E+000	9	...........
	75	1.01333	8.63724E-001	3.99528E-004	0.00000E+000	3.45082E-004	2.40040E-001	8.64029E-001	3.57670E+000	9	...........
	76	1.02667	8.68641E-001	4.01664E-004	0.00000E+000	3.48902E-004	2.40040E-001	8.68973E-001	3.57670E+000	9	...........
	77	1.04	8.73504E-001	4.00806E-004	0.00000E+000	3.50106E-004	2.40040E-001	8.73803E-001	3.57670E+000	9	...........
	78	1.05333	8.78306E-001	4.01572E-004	0.00000E+000	3.52703E-004	2.40040E-001	8.78613E-001	3.57670E+000	9	...........
	79	1.06667	8.83079E-001	4.02858E-004	0.00000E+000	3.55755E-004	2.40040E-001	8.83399E-001	3.57670E+000	9	...........
	80	1.08	8.87773E-001	4.01516E-004	0.00000E+000	3.56455E-004	2.40040E-001	8.88088E-001	3.57670E+000	9	...........
	81	1.09333	8.92453E-001	4.00184E-004	0.00000E+000	3.57146E-004	2.40040E-001	8.92777E-001	3.57670E+000	9	...........
	82	1.10667	8.97037E-001	3.99910E-004	0.00000E+000	3.58734E-004	2.40040E-001	8.97375E-001	3.57670E+000	9	...........
	83	1.12	9.01656E-001	4.00329E-004	0.00000E+000	3.60959E-004	2.40040E-001	9.01968E-001	3.57670E+000	9	...........
	84	1.13333	9.06199E-001	4.00673E-004	0.00000E+000	3.63089E-004	2.40040E-001	9.06515E-001	3.57670E+000	9	...........
	85	1.14667	9.10774E-001	4.01041E-004	0.00000E+000	3.65258E-004	2.40040E-001	9.11053E-001	3.57670E+000	9	...........
	86	1.16	9.15221E-001	4.00750E-004	0.00000E+000	3.66775E-004	2.40040E-001	9.15530E-001	3.57670E+000	9	...........
	87	1.17333	9.19685E-001	4.01379E-004	0.00000E+000	3.69143E-004	2.40040E-001	9.19984E-001	3.57670E+000	9	...........
	88	1.18667	9.24101E-001	4.00968E-004	0.00000E+000	3.70535E-004	2.40040E-001	9.24377E-001	3.57670E+000	9	...........
	89	1.2	9.28485E-001	4.00794E-004	0.00000E+000	3.72131E-004	2.40040E-001	9.28783E-001	3.57670E+000	9	...........
	90	1.21333	9.32826E-001	4.00447E-004	0.00000E+000	3.73547E-004	2.40040E-001	9.33120E-001	3.57670E+000	9	...........
	91	1.22667	9.37104E-001	4.00085E-004	0.00000E+000	3.74922E-004	2.40040E-001	9.37416E-001	3.57670E+000	9	...........
	92	1.24	9.41313E-001	4.00544E-004	0.00000E+000	3.77037E-004	2.40040E-001	9.41623E-001	3.57670E+000	9	...........
	93	1.25333	9.45515E-001	4.00614E-004	0.00000E+000	3.78786E-004	2.40040E-001	9.45816E-001	3.57670E+000	9	...........
	94	1.26667	9.49737E-001	4.02136E-004	0.00000E+000	3.81924E-004	2.40040E-001	9.50043E-001	3.57670E+000	9	...........
	95	1.28	9.53783E-001	4.01634E-004	0.00000E+000	3.83071E-004	2.40040E-001	9.54091E-001	3.57670E+000	9	...........
	96	1.29333	9.57837E-001	4.00147E-004	0.00000E+000	3.83275E-004	2.40040E-001	9.58169E-001	3.57670E+000	9	...........
	97	1.30667	9.61811E-001	4.00669E-004	0.00000E+000	3.85368E-004	2.40040E-001	9.62135E-001	3.57670E+000	9	...........
	98	1.32	9.65807E-001	3.99970E-004	0.00000E+000	3.86294E-004	2.40040E-001	9.66156E-001	3.57670E+000	9	...........
	99	1.33333	9.69832E-001	4.00240E-004	0.00000E+000	3.88165E-004	2.40040E-001	9.70180E-001	3.57670E+000	9	...........
	100	1.34667	9.73835E-001	4.01025E-004	0.00000E+000	3.90532E-004	2.40040E-001	9.74171E-001	3.57661E+000	9	...........
	101	1.36	9.77772E-001	4.01199E-004	0.00000E+000	3.92281E-004	2.40040E-001	9.78083E-001	3.57630E+000	9	...........
	102	1.37333	9.81578E-001	4.00712E-004	0.00000E+000	3.93330E-004	2.40040E-001	9.81905E-001	3.57630E+000	9	...........
	103	1.38667	9.85299E-001	4.02226E-004	0.00000E+000	3.96313E-004	2.40040E-001	9.85661E-001	3.57630E+000	9	...........
	104	1.4	9.89043E-001	4.00270E-004	0.00000E+000	3.95884E-004	2.40040E-001	9.89399E-001	3.57630E+000	9	...........
	105	1.41333	9.92761E-001	4.00983E-004	0.00000E+000	3.98080E-004	2.40040E-001	9.93114E-001	3.57630E+000	9	...........
	106	1.42667	9.96465E-001	4.01496E-004	0.00000E+000	4.00077E-004	2.40040E-001	9.96822E-001	3.57630E+000	9	...........
	107	1.435	9.99426E-001	4.01646E-004	0.00000E+000	4.01415E-004	2.40040E-001	9.99771E-001	3.57630E+000	9	...........
STARTTIMEOFFSET	QUANT	2619.31	Start Time Offset (s)
