EXPLAIN
TAG	PWR800_CHARGE
TITLE	LABEL	PWR Cyclic Charge Discharge (Cell) - Charge Step	Test &Identifier
DATE	LABEL	12-7-2017	Date
TIME	LABEL	15:14:34	Time
NOTES	NOTES	3	&Notes...
	supercap test cell
	0.4mg
	6M KOH
PSTAT	PSTAT	IFC5000-01520	Potentiostat
CAPACITY	QUANT	1.00000E-003	Capacity (A-hr)
CELLTYPE	SELECTOR	1	&Cell Type
WORKINGCONNECTION	SELECTOR	0	&Working Lead
MAXCHARGETIME	VARIABLEANDUNITS	1.00000E+002	s	1.00000E+002	second(s)	Max &Charge Time
CHARGECURRENT	QUANT	4.00000E-004	&Charge Current (A) 
VOLTAGEFINISH	TWOPARAM	F	1.00000E-003	3.60000E+003	&Voltage Finish	 I (A) < 	Max Time(s)
SAMPLETIME	QUANT	1.00000E-002	Sa&mple Period (s)
CHARGESTOPAT1	MULTIPARAM	4	1.00000E+000	Charge Stop At &1	Voltage > Limit	V
CHARGESTOPAT2	MULTIPARAM	0	0.00000E+000	Charge Stop At &2	None	N/A
AESBHCSELECTOR	TOGGLE	F	Save Both Half Cells
IRCOMP	TOGGLE	F	IR &Measure
EOC	QUANT	0	Open Circuit (V)
SEQUENCER	TOGGLE	TRUE	Run as Sequence
PSTATMODEL	IQUANT	53	Pstat Model
PSTATSECTION	LABEL	IFC5000-01520	Pstat Section
PSTATSERIALNO	LABEL	01520	Pstat Serial Number
CTRLMODE	IQUANT	0	Control Mode
ELECTROMETER	IQUANT	1	RE=0 or CS=1
IESTAB	IQUANT	0	I/E Stability
CASPEED	IQUANT	4	Control Amp Speed
CONVENTION	IQUANT	1	Current Convention
ICHRANGE	IQUANT	2	Ich Range
ICHRANGEMODE	TOGGLE	T	Ich Auto Range
ICHOFFSETENABLE	TOGGLE	F	Ich Offset Enable
ICHOFFSET	QUANT	0	Ich Offset (V)
ICHFILTER	IQUANT	1	Ich Filter
VCHRANGE	IQUANT	2	Vch Range
VCHRANGEMODE	TOGGLE	T	Vch Auto Range
VCHOFFSETENABLE	TOGGLE	F	Vch Offset Enable
VCHOFFSET	QUANT	0	Vch Offset (V)
VCHFILTER	IQUANT	1	Vch Filter
IERANGELOWERLIMIT	IQUANT	9	I/E Range Lower Limit
IERANGEMODE	TOGGLE	F	I/E AutoRange
IERANGE	IQUANT	9	I/E Range
ACHSELECT	IQUANT	1	Ach Select
ACHRANGE	IQUANT	2	Ach Range
ACHOFFSETENABLE	TOGGLE	F	Ach Offset Enable
ACHOFFSET	QUANT	0	Ach Offset (V)
ACHFILTER	IQUANT	1	Ach Filter
CABLEID	IQUANT	14	Cable ID
DCCALDATE	LABEL	5-7-2017	DC Calibration Date
ACCALDATE	LABEL	12/3/2015	AC Calibration Date
FRAMEWORKVERSION	QUANT	7.01	Framework Version
INSTRUMENTVERSION	LABEL	4.00	Instrument Version
CURVE	TABLE	108
	Pt	T	Vf	Im	Vu	Pwr	Sig	Ach	Temp	IERange	Over
	#	s	V	A	V	W	V	V	deg C	#	bits
	0	0.013333	3.86252E-001	4.01171E-004	0.00000E+000	1.54953E-004	2.40040E-001	3.86353E-001	3.57710E+000	9	...........
	1	0.026667	3.99009E-001	4.02479E-004	0.00000E+000	1.60593E-004	2.40040E-001	3.99084E-001	3.57710E+000	9	...........
	2	0.04	4.09929E-001	4.00669E-004	0.00000E+000	1.64246E-004	2.40040E-001	4.10015E-001	3.57710E+000	9	...........
	3	0.053333	4.19770E-001	4.01974E-004	0.00000E+000	1.68737E-004	2.40040E-001	4.19860E-001	3.57710E+000	9	...........
	4	0.066667	4.28902E-001	4.00436E-004	0.00000E+000	1.71748E-004	2.40040E-001	4.28994E-001	3.57710E+000	9	...........
	5	0.08	4.37631E-001	4.01506E-004	0.00000E+000	1.75711E-004	2.40040E-001	4.37726E-001	3.57710E+000	9	...........
	6	0.093333	4.45925E-001	4.00191E-004	0.00000E+000	1.78455E-004	2.40040E-001	4.46022E-001	3.57710E+000	9	...........
	7	0.106667	4.53953E-001	4.00837E-004	0.00000E+000	1.81961E-004	2.40040E-001	4.54043E-001	3.57710E+000	9	...........
	8	0.12	4.61789E-001	4.00778E-004	0.00000E+000	1.85075E-004	2.40040E-001	4.61879E-001	3.57710E+000	9	...........
	9	0.133333	4.69402E-001	4.01427E-004	0.00000E+000	1.88431E-004	2.40040E-001	4.69496E-001	3.57710E+000	9	...........
	10	0.146667	4.76919E-001	4.00576E-004	0.00000E+000	1.91042E-004	2.40040E-001	4.77012E-001	3.57710E+000	9	...........
	11	0.16	4.84299E-001	4.01219E-004	0.00000E+000	1.94310E-004	2.40040E-001	4.84397E-001	3.57710E+000	9	...........
	12	0.173333	4.91545E-001	4.01833E-004	0.00000E+000	1.97519E-004	2.40040E-001	4.91646E-001	3.57710E+000	9	...........
	13	0.186667	4.98608E-001	3.99551E-004	0.00000E+000	1.99219E-004	2.40040E-001	4.98709E-001	3.57710E+000	9	...........
	14	0.2	5.05624E-001	4.00947E-004	0.00000E+000	2.02728E-004	2.40040E-001	5.05722E-001	3.57710E+000	9	...........
	15	0.213333	5.12559E-001	4.01077E-004	0.00000E+000	2.05576E-004	2.40040E-001	5.12662E-001	3.57710E+000	9	...........
	16	0.226667	5.19465E-001	4.01915E-004	0.00000E+000	2.08781E-004	2.40040E-001	5.19575E-001	3.57710E+000	9	...........
	17	0.24	5.26295E-001	4.00771E-004	0.00000E+000	2.10924E-004	2.40040E-001	5.26403E-001	3.57710E+000	9	...........
	18	0.253333	5.32940E-001	4.00651E-004	0.00000E+000	2.13523E-004	2.40040E-001	5.33069E-001	3.57710E+000	9	...........
	19	0.266667	5.39478E-001	4.00620E-004	0.00000E+000	2.16126E-004	2.40040E-001	5.39715E-001	3.57710E+000	9	...........
	20	0.28	5.46149E-001	4.01018E-004	0.00000E+000	2.19016E-004	2.40040E-001	5.46375E-001	3.57710E+000	9	...........
	21	0.293333	5.52802E-001	4.00653E-004	0.00000E+000	2.21482E-004	2.40040E-001	5.53046E-001	3.57710E+000	9	...........
	22	0.306667	5.59361E-001	4.00472E-004	0.00000E+000	2.24008E-004	2.40040E-001	5.59609E-001	3.57710E+000	9	...........
	23	0.32	5.65917E-001	4.00033E-004	0.00000E+000	2.26386E-004	2.40040E-001	5.66166E-001	3.57710E+000	9	...........
	24	0.333333	5.72410E-001	4.00741E-004	0.00000E+000	2.29388E-004	2.40040E-001	5.72618E-001	3.57710E+000	9	...........
	25	0.346667	5.78779E-001	4.01075E-004	0.00000E+000	2.32134E-004	2.40040E-001	5.79005E-001	3.57710E+000	9	...........
	26	0.36	5.85104E-001	4.02060E-004	0.00000E+000	2.35247E-004	2.40040E-001	5.85320E-001	3.57710E+000	9	...........
	27	0.373333	5.91489E-001	4.00487E-004	0.00000E+000	2.36883E-004	2.40040E-001	5.91685E-001	3.57710E+000	9	...........
	28	0.386667	5.97820E-001	4.00744E-004	0.00000E+000	2.39573E-004	2.40040E-001	5.98035E-001	3.57710E+000	9	...........
	29	0.4	6.04120E-001	4.01163E-004	0.00000E+000	2.42350E-004	2.40040E-001	6.04351E-001	3.57710E+000	9	...........
	30	0.413333	6.10433E-001	4.01189E-004	0.00000E+000	2.44899E-004	2.40040E-001	6.10683E-001	3.57710E+000	9	...........
	31	0.426667	6.16708E-001	4.00594E-004	0.00000E+000	2.47050E-004	2.40040E-001	6.16962E-001	3.57710E+000	9	...........
	32	0.44	6.22944E-001	4.00988E-004	0.00000E+000	2.49793E-004	2.40040E-001	6.23147E-001	3.57710E+000	9	...........
	33	0.453333	6.29083E-001	4.00822E-004	0.00000E+000	2.52150E-004	2.40040E-001	6.29324E-001	3.57710E+000	9	...........
	34	0.466667	6.35221E-001	3.99850E-004	0.00000E+000	2.53993E-004	2.40040E-001	6.35444E-001	3.57710E+000	9	...........
	35	0.48	6.41386E-001	4.00464E-004	0.00000E+000	2.56852E-004	2.40040E-001	6.41617E-001	3.57710E+000	9	...........
	36	0.493333	6.47514E-001	4.00739E-004	0.00000E+000	2.59484E-004	2.40040E-001	6.47746E-001	3.57710E+000	9	...........
	37	0.506667	6.53659E-001	4.00200E-004	0.00000E+000	2.61594E-004	2.40040E-001	6.53898E-001	3.57710E+000	9	...........
	38	0.52	6.59701E-001	4.00164E-004	0.00000E+000	2.63989E-004	2.40040E-001	6.59932E-001	3.57710E+000	9	...........
	39	0.533333	6.65765E-001	4.01478E-004	0.00000E+000	2.67290E-004	2.40040E-001	6.66019E-001	3.57710E+000	9	...........
	40	0.546667	6.71842E-001	4.01117E-004	0.00000E+000	2.69487E-004	2.40040E-001	6.72074E-001	3.57710E+000	9	...........
	41	0.56	6.77868E-001	4.00480E-004	0.00000E+000	2.71473E-004	2.40040E-001	6.78102E-001	3.57710E+000	9	...........
	42	0.573333	6.83864E-001	4.01114E-004	0.00000E+000	2.74307E-004	2.40040E-001	6.84105E-001	3.57710E+000	9	...........
	43	0.586667	6.89754E-001	4.00414E-004	0.00000E+000	2.76187E-004	2.40040E-001	6.90008E-001	3.57710E+000	9	...........
	44	0.6	6.95720E-001	4.01064E-004	0.00000E+000	2.79028E-004	2.40040E-001	6.95973E-001	3.57710E+000	9	...........
	45	0.613333	7.01656E-001	4.01458E-004	0.00000E+000	2.81685E-004	2.40040E-001	7.01903E-001	3.57710E+000	9	...........
	46	0.626667	7.07492E-001	4.00148E-004	0.00000E+000	2.83101E-004	2.40040E-001	7.07765E-001	3.57710E+000	9	...........
	47	0.64	7.13373E-001	4.00312E-004	0.00000E+000	2.85571E-004	2.40040E-001	7.13629E-001	3.57710E+000	9	...........
	48	0.653333	7.19245E-001	4.00770E-004	0.00000E+000	2.88252E-004	2.40040E-001	7.19500E-001	3.57710E+000	9	...........
	49	0.666667	7.25027E-001	4.01216E-004	0.00000E+000	2.90892E-004	2.40040E-001	7.25260E-001	3.57710E+000	9	...........
	50	0.68	7.30756E-001	4.01984E-004	0.00000E+000	2.93752E-004	2.40040E-001	7.31028E-001	3.57710E+000	9	...........
	51	0.693333	7.36507E-001	4.01195E-004	0.00000E+000	2.95483E-004	2.40040E-001	7.36781E-001	3.57710E+000	9	...........
	52	0.706667	7.42257E-001	4.00396E-004	0.00000E+000	2.97197E-004	2.40040E-001	7.42560E-001	3.57710E+000	9	...........
	53	0.72	7.47973E-001	4.02135E-004	0.00000E+000	3.00786E-004	2.40040E-001	7.48260E-001	3.57710E+000	9	...........
	54	0.733333	7.53627E-001	4.01063E-004	0.00000E+000	3.02252E-004	2.40040E-001	7.53900E-001	3.57710E+000	9	...........
	55	0.746667	7.59291E-001	4.01510E-004	0.00000E+000	3.04863E-004	2.40040E-001	7.59564E-001	3.57710E+000	9	...........
	56	0.76	7.64833E-001	4.00743E-004	0.00000E+000	3.06501E-004	2.40040E-001	7.65111E-001	3.57710E+000	9	...........
	57	0.773333	7.70390E-001	4.00590E-004	0.00000E+000	3.08610E-004	2.40040E-001	7.70644E-001	3.57710E+000	9	...........
	58	0.786667	7.75938E-001	4.01224E-004	0.00000E+000	3.11325E-004	2.40040E-001	7.76179E-001	3.57710E+000	9	...........
	59	0.8	7.81459E-001	4.00527E-004	0.00000E+000	3.12996E-004	2.40040E-001	7.81690E-001	3.57710E+000	9	...........
	60	0.813333	7.86936E-001	3.99965E-004	0.00000E+000	3.14747E-004	2.40040E-001	7.87159E-001	3.57710E+000	9	...........
	61	0.826667	7.92384E-001	4.00089E-004	0.00000E+000	3.17024E-004	2.40040E-001	7.92652E-001	3.57710E+000	9	...........
	62	0.84	7.97833E-001	4.00900E-004	0.00000E+000	3.19851E-004	2.40040E-001	7.98051E-001	3.57710E+000	9	...........
	63	0.853333	8.03167E-001	4.01341E-004	0.00000E+000	3.22344E-004	2.40040E-001	8.03427E-001	3.57710E+000	9	...........
	64	0.866667	8.08469E-001	4.00976E-004	0.00000E+000	3.24177E-004	2.40040E-001	8.08712E-001	3.57710E+000	9	...........
	65	0.88	8.13806E-001	4.01100E-004	0.00000E+000	3.26418E-004	2.40040E-001	8.14057E-001	3.57710E+000	9	...........
	66	0.893333	8.19125E-001	4.00287E-004	0.00000E+000	3.27885E-004	2.40040E-001	8.19408E-001	3.57710E+000	9	...........
	67	0.906667	8.24347E-001	4.01383E-004	0.00000E+000	3.30879E-004	2.40040E-001	8.24616E-001	3.57710E+000	9	...........
	68	0.92	8.29524E-001	4.00453E-004	0.00000E+000	3.32186E-004	2.40040E-001	8.29782E-001	3.57710E+000	9	...........
	69	0.933333	8.34666E-001	4.00696E-004	0.00000E+000	3.34447E-004	2.40040E-001	8.34956E-001	3.57710E+000	9	...........
	70	0.946667	8.39771E-001	3.99942E-004	0.00000E+000	3.35859E-004	2.40040E-001	8.40055E-001	3.57772E+000	9	...........
	71	0.96	8.44867E-001	4.00200E-004	0.00000E+000	3.38116E-004	2.40040E-001	8.45171E-001	3.57780E+000	9	...........
	72	0.97333	8.49934E-001	4.01074E-004	0.00000E+000	3.40887E-004	2.40040E-001	8.50231E-001	3.57780E+000	9	...........
	73	0.98667	8.54947E-001	4.00762E-004	0.00000E+000	3.42630E-004	2.40040E-001	8.55266E-001	3.57780E+000	9	...........
	74	1	8.59968E-001	3.99753E-004	0.00000E+000	3.43775E-004	2.40040E-001	8.60264E-001	3.57780E+000	9	...........
	75	1.01333	8.64887E-001	4.00455E-004	0.00000E+000	3.46349E-004	2.40040E-001	8.65208E-001	3.57780E+000	9	...........
	76	1.02667	8.69849E-001	4.00202E-004	0.00000E+000	3.48116E-004	2.40040E-001	8.70141E-001	3.57780E+000	9	...........
	77	1.04	8.74713E-001	4.01233E-004	0.00000E+000	3.50964E-004	2.40040E-001	8.75023E-001	3.57780E+000	9	...........
	78	1.05333	8.79498E-001	4.00291E-004	0.00000E+000	3.52055E-004	2.40040E-001	8.79789E-001	3.57780E+000	9	...........
	79	1.06667	8.84214E-001	4.00567E-004	0.00000E+000	3.54187E-004	2.40040E-001	8.84525E-001	3.57780E+000	9	...........
	80	1.08	8.88894E-001	4.01434E-004	0.00000E+000	3.56832E-004	2.40040E-001	8.89198E-001	3.57780E+000	9	...........
	81	1.09333	8.93554E-001	4.01000E-004	0.00000E+000	3.58315E-004	2.40040E-001	8.93895E-001	3.57780E+000	9	...........
	82	1.10667	8.98206E-001	4.01585E-004	0.00000E+000	3.60706E-004	2.40040E-001	8.98560E-001	3.57780E+000	9	...........
	83	1.12	9.02809E-001	4.01245E-004	0.00000E+000	3.62248E-004	2.40040E-001	9.03155E-001	3.57780E+000	9	...........
	84	1.13333	9.07347E-001	4.01314E-004	0.00000E+000	3.64131E-004	2.40040E-001	9.07682E-001	3.57780E+000	9	...........
	85	1.14667	9.11897E-001	4.01734E-004	0.00000E+000	3.66340E-004	2.40040E-001	9.12220E-001	3.57780E+000	9	...........
	86	1.16	9.16364E-001	4.01492E-004	0.00000E+000	3.67913E-004	2.40040E-001	9.16718E-001	3.57780E+000	9	...........
	87	1.17333	9.20833E-001	4.01726E-004	0.00000E+000	3.69923E-004	2.40040E-001	9.21125E-001	3.57780E+000	9	...........
	88	1.18667	9.25281E-001	4.02263E-004	0.00000E+000	3.72206E-004	2.40040E-001	9.25545E-001	3.57780E+000	9	...........
	89	1.2	9.29624E-001	4.00017E-004	0.00000E+000	3.71865E-004	2.40040E-001	9.29900E-001	3.57780E+000	9	...........
	90	1.21333	9.33927E-001	4.01075E-004	0.00000E+000	3.74575E-004	2.40040E-001	9.34243E-001	3.57780E+000	9	...........
	91	1.22667	9.38217E-001	4.00304E-004	0.00000E+000	3.75572E-004	2.40040E-001	9.38525E-001	3.57780E+000	9	...........
	92	1.24	9.42462E-001	4.00203E-004	0.00000E+000	3.77176E-004	2.40040E-001	9.42766E-001	3.57780E+000	9	...........
	93	1.25333	9.46730E-001	4.01506E-004	0.00000E+000	3.80117E-004	2.40040E-001	9.47016E-001	3.57780E+000	9	...........
	94	1.26667	9.50855E-001	4.01683E-004	0.00000E+000	3.81942E-004	2.40040E-001	9.51141E-001	3.57780E+000	9	...........
	95	1.28	9.54917E-001	4.01583E-004	0.00000E+000	3.83478E-004	2.40040E-001	9.55223E-001	3.57780E+000	9	...........
	96	1.29333	9.59032E-001	4.01574E-004	0.00000E+000	3.85123E-004	2.40040E-001	9.59350E-001	3.57780E+000	9	...........
	97	1.30667	9.63102E-001	4.02512E-004	0.00000E+000	3.87660E-004	2.40040E-001	9.63439E-001	3.57780E+000	9	...........
	98	1.32	9.67113E-001	4.01698E-004	0.00000E+000	3.88488E-004	2.40040E-001	9.67443E-001	3.57780E+000	9	...........
	99	1.33333	9.71037E-001	4.01383E-004	0.00000E+000	3.89757E-004	2.40040E-001	9.71379E-001	3.57780E+000	9	...........
	100	1.34667	9.75002E-001	4.01239E-004	0.00000E+000	3.91209E-004	2.40040E-001	9.75299E-001	3.57780E+000	9	...........
	101	1.36	9.78839E-001	3.99867E-004	0.00000E+000	3.91405E-004	2.40040E-001	9.79158E-001	3.57780E+000	9	...........
	102	1.37333	9.82696E-001	4.01577E-004	0.00000E+000	3.94629E-004	2.40040E-001	9.83002E-001	3.57780E+000	9	...........
	103	1.38667	9.86472E-001	4.01889E-004	0.00000E+000	3.96452E-004	2.40040E-001	9.86829E-001	3.57780E+000	9	...........
	104	1.4	9.90211E-001	4.00818E-004	0.00000E+000	3.96894E-004	2.40040E-001	9.90562E-001	3.57780E+000	9	...........
	105	1.41333	9.93856E-001	4.01473E-004	0.00000E+000	3.99007E-004	2.40040E-001	9.94197E-001	3.57780E+000	9	...........
	106	1.42667	9.97494E-001	4.02072E-004	0.00000E+000	4.01065E-004	2.40040E-001	9.97827E-001	3.57780E+000	9	...........
	107	1.43	9.99786E-001	4.02023E-004	0.00000E+000	4.01937E-004	2.40040E-001	1.00011E+000	3.57780E+000	9	...........
STARTTIMEOFFSET	QUANT	2653.091	Start Time Offset (s)
