EXPLAIN
TAG	PWR800_CHARGE
TITLE	LABEL	PWR Cyclic Charge Discharge (Cell) - Charge Step	Test &Identifier
DATE	LABEL	12-7-2017	Date
TIME	LABEL	14:38:04	Time
NOTES	NOTES	3	&Notes...
	supercap test cell
	0.4mg
	6M KOH
PSTAT	PSTAT	IFC5000-01520	Potentiostat
CAPACITY	QUANT	1.00000E-003	Capacity (A-hr)
CELLTYPE	SELECTOR	1	&Cell Type
WORKINGCONNECTION	SELECTOR	0	&Working Lead
MAXCHARGETIME	VARIABLEANDUNITS	1.00000E+002	s	1.00000E+002	second(s)	Max &Charge Time
CHARGECURRENT	QUANT	4.00000E-004	&Charge Current (A) 
VOLTAGEFINISH	TWOPARAM	F	1.00000E-003	3.60000E+003	&Voltage Finish	 I (A) < 	Max Time(s)
SAMPLETIME	QUANT	1.00000E-002	Sa&mple Period (s)
CHARGESTOPAT1	MULTIPARAM	4	1.00000E+000	Charge Stop At &1	Voltage > Limit	V
CHARGESTOPAT2	MULTIPARAM	0	0.00000E+000	Charge Stop At &2	None	N/A
AESBHCSELECTOR	TOGGLE	F	Save Both Half Cells
IRCOMP	TOGGLE	F	IR &Measure
EOC	QUANT	0	Open Circuit (V)
SEQUENCER	TOGGLE	TRUE	Run as Sequence
PSTATMODEL	IQUANT	53	Pstat Model
PSTATSECTION	LABEL	IFC5000-01520	Pstat Section
PSTATSERIALNO	LABEL	01520	Pstat Serial Number
CTRLMODE	IQUANT	0	Control Mode
ELECTROMETER	IQUANT	1	RE=0 or CS=1
IESTAB	IQUANT	0	I/E Stability
CASPEED	IQUANT	4	Control Amp Speed
CONVENTION	IQUANT	1	Current Convention
ICHRANGE	IQUANT	2	Ich Range
ICHRANGEMODE	TOGGLE	T	Ich Auto Range
ICHOFFSETENABLE	TOGGLE	F	Ich Offset Enable
ICHOFFSET	QUANT	0	Ich Offset (V)
ICHFILTER	IQUANT	1	Ich Filter
VCHRANGE	IQUANT	2	Vch Range
VCHRANGEMODE	TOGGLE	T	Vch Auto Range
VCHOFFSETENABLE	TOGGLE	F	Vch Offset Enable
VCHOFFSET	QUANT	0	Vch Offset (V)
VCHFILTER	IQUANT	1	Vch Filter
IERANGELOWERLIMIT	IQUANT	9	I/E Range Lower Limit
IERANGEMODE	TOGGLE	F	I/E AutoRange
IERANGE	IQUANT	9	I/E Range
ACHSELECT	IQUANT	1	Ach Select
ACHRANGE	IQUANT	2	Ach Range
ACHOFFSETENABLE	TOGGLE	F	Ach Offset Enable
ACHOFFSET	QUANT	0	Ach Offset (V)
ACHFILTER	IQUANT	1	Ach Filter
CABLEID	IQUANT	14	Cable ID
DCCALDATE	LABEL	5-7-2017	DC Calibration Date
ACCALDATE	LABEL	12/3/2015	AC Calibration Date
FRAMEWORKVERSION	QUANT	7.01	Framework Version
INSTRUMENTVERSION	LABEL	4.00	Instrument Version
CURVE	TABLE	126
	Pt	T	Vf	Im	Vu	Pwr	Sig	Ach	Temp	IERange	Over
	#	s	V	A	V	W	V	V	deg C	#	bits
	0	0.013333	3.51123E-001	4.01482E-004	0.00000E+000	1.40969E-004	2.40040E-001	3.51209E-001	3.57640E+000	9	...........
	1	0.026667	3.61960E-001	4.00137E-004	0.00000E+000	1.44833E-004	2.40040E-001	3.62033E-001	3.57640E+000	9	...........
	2	0.04	3.71323E-001	4.00877E-004	0.00000E+000	1.48855E-004	2.40040E-001	3.71389E-001	3.57640E+000	9	...........
	3	0.053333	3.79903E-001	4.00953E-004	0.00000E+000	1.52323E-004	2.40040E-001	3.79979E-001	3.57640E+000	9	...........
	4	0.066667	3.87958E-001	4.00138E-004	0.00000E+000	1.55237E-004	2.40040E-001	3.88031E-001	3.57640E+000	9	...........
	5	0.08	3.95560E-001	4.01966E-004	0.00000E+000	1.59002E-004	2.40040E-001	3.95640E-001	3.57640E+000	9	...........
	6	0.093333	4.02900E-001	4.01120E-004	0.00000E+000	1.61611E-004	2.40040E-001	4.02973E-001	3.57640E+000	9	...........
	7	0.106667	4.10001E-001	4.00580E-004	0.00000E+000	1.64239E-004	2.40040E-001	4.10079E-001	3.57640E+000	9	...........
	8	0.12	4.16922E-001	4.01577E-004	0.00000E+000	1.67427E-004	2.40040E-001	4.17005E-001	3.57640E+000	9	...........
	9	0.133333	4.23752E-001	4.00149E-004	0.00000E+000	1.69564E-004	2.40040E-001	4.23839E-001	3.57640E+000	9	...........
	10	0.146667	4.30367E-001	4.00567E-004	0.00000E+000	1.72391E-004	2.40040E-001	4.30459E-001	3.57640E+000	9	...........
	11	0.16	4.36907E-001	4.00296E-004	0.00000E+000	1.74892E-004	2.40040E-001	4.36994E-001	3.57640E+000	9	...........
	12	0.173333	4.43349E-001	4.00596E-004	0.00000E+000	1.77604E-004	2.40040E-001	4.43435E-001	3.57640E+000	9	...........
	13	0.186667	4.49688E-001	4.01978E-004	0.00000E+000	1.80764E-004	2.40040E-001	4.49777E-001	3.57640E+000	9	...........
	14	0.2	4.55992E-001	4.02082E-004	0.00000E+000	1.83346E-004	2.40040E-001	4.56078E-001	3.57640E+000	9	...........
	15	0.213333	4.62300E-001	4.00058E-004	0.00000E+000	1.84947E-004	2.40040E-001	4.62392E-001	3.57640E+000	9	...........
	16	0.226667	4.68513E-001	4.00066E-004	0.00000E+000	1.87436E-004	2.40040E-001	4.68600E-001	3.57640E+000	9	...........
	17	0.24	4.74697E-001	4.01241E-004	0.00000E+000	1.90468E-004	2.40040E-001	4.74792E-001	3.57640E+000	9	...........
	18	0.253333	4.80764E-001	3.99367E-004	0.00000E+000	1.92001E-004	2.40040E-001	4.80855E-001	3.57640E+000	9	...........
	19	0.266667	4.86801E-001	4.01926E-004	0.00000E+000	1.95658E-004	2.40040E-001	4.86901E-001	3.57640E+000	9	...........
	20	0.28	4.92799E-001	4.01917E-004	0.00000E+000	1.98064E-004	2.40040E-001	4.92899E-001	3.57640E+000	9	...........
	21	0.293333	4.98750E-001	4.00893E-004	0.00000E+000	1.99945E-004	2.40040E-001	4.98850E-001	3.57640E+000	9	...........
	22	0.306667	5.04690E-001	3.99675E-004	0.00000E+000	2.01712E-004	2.40040E-001	5.04794E-001	3.57640E+000	9	...........
	23	0.32	5.10598E-001	4.00995E-004	0.00000E+000	2.04747E-004	2.40040E-001	5.10699E-001	3.57640E+000	9	...........
	24	0.333333	5.16434E-001	4.02405E-004	0.00000E+000	2.07815E-004	2.40040E-001	5.16534E-001	3.57640E+000	9	...........
	25	0.346667	5.22227E-001	3.99930E-004	0.00000E+000	2.08854E-004	2.40040E-001	5.22331E-001	3.57640E+000	9	...........
	26	0.36	5.28026E-001	4.02406E-004	0.00000E+000	2.12481E-004	2.40040E-001	5.28132E-001	3.57640E+000	9	...........
	27	0.373333	5.33636E-001	4.00621E-004	0.00000E+000	2.13786E-004	2.40040E-001	5.33756E-001	3.57640E+000	9	...........
	28	0.386667	5.39289E-001	4.01486E-004	0.00000E+000	2.16517E-004	2.40040E-001	5.39467E-001	3.57640E+000	9	...........
	29	0.4	5.44970E-001	4.01030E-004	0.00000E+000	2.18550E-004	2.40040E-001	5.45175E-001	3.57640E+000	9	...........
	30	0.413333	5.50681E-001	3.99283E-004	0.00000E+000	2.19878E-004	2.40040E-001	5.50870E-001	3.57640E+000	9	...........
	31	0.426667	5.56368E-001	4.01601E-004	0.00000E+000	2.23438E-004	2.40040E-001	5.56561E-001	3.57640E+000	9	...........
	32	0.44	5.61918E-001	4.01713E-004	0.00000E+000	2.25730E-004	2.40040E-001	5.62121E-001	3.57640E+000	9	...........
	33	0.453333	5.67512E-001	4.01483E-004	0.00000E+000	2.27846E-004	2.40040E-001	5.67701E-001	3.57640E+000	9	...........
	34	0.466667	5.73033E-001	4.00102E-004	0.00000E+000	2.29272E-004	2.40040E-001	5.73230E-001	3.57640E+000	9	...........
	35	0.48	5.78635E-001	4.02203E-004	0.00000E+000	2.32729E-004	2.40040E-001	5.78850E-001	3.57640E+000	9	...........
	36	0.493333	5.84235E-001	3.99908E-004	0.00000E+000	2.33640E-004	2.40040E-001	5.84462E-001	3.57640E+000	9	...........
	37	0.506667	5.89838E-001	4.00316E-004	0.00000E+000	2.36121E-004	2.40040E-001	5.90078E-001	3.57640E+000	9	...........
	38	0.52	5.95354E-001	4.00661E-004	0.00000E+000	2.38535E-004	2.40040E-001	5.95585E-001	3.57640E+000	9	...........
	39	0.533333	6.00902E-001	4.02013E-004	0.00000E+000	2.41571E-004	2.40040E-001	6.01153E-001	3.57640E+000	9	...........
	40	0.546667	6.06362E-001	4.01547E-004	0.00000E+000	2.43483E-004	2.40040E-001	6.06627E-001	3.57640E+000	9	...........
	41	0.56	6.11843E-001	4.01158E-004	0.00000E+000	2.45445E-004	2.40040E-001	6.12103E-001	3.57640E+000	9	...........
	42	0.573333	6.17393E-001	4.01497E-004	0.00000E+000	2.47882E-004	2.40040E-001	6.17611E-001	3.57640E+000	9	...........
	43	0.586667	6.22868E-001	4.01167E-004	0.00000E+000	2.49874E-004	2.40040E-001	6.23043E-001	3.57640E+000	9	...........
	44	0.6	6.28299E-001	4.00407E-004	0.00000E+000	2.51575E-004	2.40040E-001	6.28498E-001	3.57640E+000	9	...........
	45	0.613333	6.33693E-001	4.00395E-004	0.00000E+000	2.53727E-004	2.40040E-001	6.33876E-001	3.57640E+000	9	...........
	46	0.626667	6.39146E-001	4.00824E-004	0.00000E+000	2.56185E-004	2.40040E-001	6.39358E-001	3.57640E+000	9	...........
	47	0.64	6.44582E-001	4.02393E-004	0.00000E+000	2.59375E-004	2.40040E-001	6.44786E-001	3.57640E+000	9	...........
	48	0.653333	6.49894E-001	4.00048E-004	0.00000E+000	2.59989E-004	2.40040E-001	6.50107E-001	3.57640E+000	9	...........
	49	0.666667	6.55229E-001	4.00611E-004	0.00000E+000	2.62491E-004	2.40040E-001	6.55432E-001	3.57640E+000	9	...........
	50	0.68	6.60551E-001	4.00496E-004	0.00000E+000	2.64548E-004	2.40040E-001	6.60768E-001	3.57640E+000	9	...........
	51	0.693333	6.65938E-001	4.01427E-004	0.00000E+000	2.67326E-004	2.40040E-001	6.66168E-001	3.57640E+000	9	...........
	52	0.706667	6.71328E-001	4.01674E-004	0.00000E+000	2.69655E-004	2.40040E-001	6.71549E-001	3.57640E+000	9	...........
	53	0.72	6.76674E-001	4.00672E-004	0.00000E+000	2.71124E-004	2.40040E-001	6.76908E-001	3.57640E+000	9	...........
	54	0.733333	6.81927E-001	3.99965E-004	0.00000E+000	2.72747E-004	2.40040E-001	6.82168E-001	3.57640E+000	9	...........
	55	0.746667	6.87198E-001	4.00384E-004	0.00000E+000	2.75143E-004	2.40040E-001	6.87464E-001	3.57640E+000	9	...........
	56	0.76	6.92506E-001	4.01807E-004	0.00000E+000	2.78254E-004	2.40040E-001	6.92737E-001	3.57640E+000	9	...........
	57	0.773333	6.97692E-001	4.01861E-004	0.00000E+000	2.80375E-004	2.40040E-001	6.97948E-001	3.57640E+000	9	...........
	58	0.786667	7.02966E-001	4.00775E-004	0.00000E+000	2.81731E-004	2.40040E-001	7.03175E-001	3.57640E+000	9	...........
	59	0.8	7.08216E-001	4.01165E-004	0.00000E+000	2.84111E-004	2.40040E-001	7.08465E-001	3.57653E+000	9	...........
	60	0.813333	7.13419E-001	4.01675E-004	0.00000E+000	2.86563E-004	2.40040E-001	7.13670E-001	3.57740E+000	9	...........
	61	0.826667	7.18693E-001	4.00356E-004	0.00000E+000	2.87733E-004	2.40040E-001	7.18920E-001	3.57740E+000	9	...........
	62	0.84	7.23876E-001	4.02116E-004	0.00000E+000	2.91082E-004	2.40040E-001	7.24106E-001	3.57740E+000	9	...........
	63	0.853333	7.28965E-001	4.01791E-004	0.00000E+000	2.92891E-004	2.40040E-001	7.29203E-001	3.57740E+000	9	...........
	64	0.866667	7.34080E-001	4.02095E-004	0.00000E+000	2.95170E-004	2.40040E-001	7.34314E-001	3.57740E+000	9	...........
	65	0.88	7.39248E-001	4.00998E-004	0.00000E+000	2.96437E-004	2.40040E-001	7.39454E-001	3.57740E+000	9	...........
	66	0.893333	7.44413E-001	4.02141E-004	0.00000E+000	2.99359E-004	2.40040E-001	7.44614E-001	3.57740E+000	9	...........
	67	0.906667	7.49501E-001	3.99744E-004	0.00000E+000	2.99608E-004	2.40040E-001	7.49689E-001	3.57740E+000	9	...........
	68	0.92	7.54625E-001	4.00826E-004	0.00000E+000	3.02474E-004	2.40040E-001	7.54837E-001	3.57740E+000	9	...........
	69	0.933333	7.59753E-001	4.00287E-004	0.00000E+000	3.04119E-004	2.40040E-001	7.59952E-001	3.57740E+000	9	...........
	70	0.946667	7.64742E-001	4.01919E-004	0.00000E+000	3.07364E-004	2.40040E-001	7.64956E-001	3.57740E+000	9	...........
	71	0.96	7.69735E-001	4.01235E-004	0.00000E+000	3.08844E-004	2.40040E-001	7.69955E-001	3.57740E+000	9	...........
	72	0.97333	7.74747E-001	4.01549E-004	0.00000E+000	3.11099E-004	2.40040E-001	7.74960E-001	3.57740E+000	9	...........
	73	0.98667	7.79712E-001	4.00885E-004	0.00000E+000	3.12575E-004	2.40040E-001	7.79946E-001	3.57740E+000	9	...........
	74	1	7.84664E-001	4.01000E-004	0.00000E+000	3.14650E-004	2.40040E-001	7.84895E-001	3.57740E+000	9	...........
	75	1.01333	7.89463E-001	4.01261E-004	0.00000E+000	3.16781E-004	2.40040E-001	7.89704E-001	3.57740E+000	9	...........
	76	1.02667	7.94380E-001	4.01437E-004	0.00000E+000	3.18893E-004	2.40040E-001	7.94637E-001	3.57740E+000	9	...........
	77	1.04	7.99339E-001	4.00815E-004	0.00000E+000	3.20387E-004	2.40040E-001	7.99583E-001	3.57740E+000	9	...........
	78	1.05333	8.04186E-001	3.99885E-004	0.00000E+000	3.21582E-004	2.40040E-001	8.04430E-001	3.57740E+000	9	...........
	79	1.06667	8.08838E-001	3.99986E-004	0.00000E+000	3.23524E-004	2.40040E-001	8.09105E-001	3.57740E+000	9	...........
	80	1.08	8.13608E-001	4.01031E-004	0.00000E+000	3.26283E-004	2.40040E-001	8.13893E-001	3.57740E+000	9	...........
	81	1.09333	8.18380E-001	4.00650E-004	0.00000E+000	3.27884E-004	2.40040E-001	8.18660E-001	3.57740E+000	9	...........
	82	1.10667	8.23159E-001	4.00263E-004	0.00000E+000	3.29480E-004	2.40040E-001	8.23453E-001	3.57740E+000	9	...........
	83	1.12	8.27934E-001	4.00056E-004	0.00000E+000	3.31220E-004	2.40040E-001	8.28207E-001	3.57740E+000	9	...........
	84	1.13333	8.32638E-001	4.00548E-004	0.00000E+000	3.33511E-004	2.40040E-001	8.32941E-001	3.57740E+000	9	...........
	85	1.14667	8.37386E-001	4.01244E-004	0.00000E+000	3.35996E-004	2.40040E-001	8.37700E-001	3.57740E+000	9	...........
	86	1.16	8.42010E-001	4.01318E-004	0.00000E+000	3.37914E-004	2.40040E-001	8.42312E-001	3.57740E+000	9	...........
	87	1.17333	8.46592E-001	4.01266E-004	0.00000E+000	3.39708E-004	2.40040E-001	8.46888E-001	3.57740E+000	9	...........
	88	1.18667	8.51240E-001	4.01478E-004	0.00000E+000	3.41754E-004	2.40040E-001	8.51544E-001	3.57740E+000	9	...........
	89	1.2	8.55748E-001	4.00365E-004	0.00000E+000	3.42611E-004	2.40040E-001	8.56059E-001	3.57740E+000	9	...........
	90	1.21333	8.60268E-001	4.01912E-004	0.00000E+000	3.45752E-004	2.40040E-001	8.60588E-001	3.57740E+000	9	...........
	91	1.22667	8.64755E-001	4.00627E-004	0.00000E+000	3.46444E-004	2.40040E-001	8.65056E-001	3.57740E+000	9	...........
	92	1.24	8.69326E-001	4.00361E-004	0.00000E+000	3.48044E-004	2.40040E-001	8.69631E-001	3.57740E+000	9	...........
	93	1.25333	8.73779E-001	4.01230E-004	0.00000E+000	3.50587E-004	2.40040E-001	8.74089E-001	3.57740E+000	9	...........
	94	1.26667	8.78171E-001	4.00044E-004	0.00000E+000	3.51307E-004	2.40040E-001	8.78472E-001	3.57740E+000	9	...........
	95	1.28	8.82534E-001	4.01159E-004	0.00000E+000	3.54036E-004	2.40040E-001	8.82833E-001	3.57740E+000	9	...........
	96	1.29333	8.86923E-001	4.01695E-004	0.00000E+000	3.56273E-004	2.40040E-001	8.87244E-001	3.57740E+000	9	...........
	97	1.30667	8.91215E-001	4.01595E-004	0.00000E+000	3.57907E-004	2.40040E-001	8.91512E-001	3.57740E+000	9	...........
	98	1.32	8.95492E-001	3.99968E-004	0.00000E+000	3.58168E-004	2.40040E-001	8.95834E-001	3.57740E+000	9	...........
	99	1.33333	8.99729E-001	4.00274E-004	0.00000E+000	3.60138E-004	2.40040E-001	9.00052E-001	3.57740E+000	9	...........
	100	1.34667	9.03959E-001	4.01945E-004	0.00000E+000	3.63342E-004	2.40040E-001	9.04290E-001	3.57740E+000	9	...........
	101	1.36	9.08120E-001	4.01465E-004	0.00000E+000	3.64578E-004	2.40040E-001	9.08455E-001	3.57740E+000	9	...........
	102	1.37333	9.12251E-001	4.00694E-004	0.00000E+000	3.65533E-004	2.40040E-001	9.12548E-001	3.57740E+000	9	...........
	103	1.38667	9.16383E-001	4.01576E-004	0.00000E+000	3.67998E-004	2.40040E-001	9.16702E-001	3.57740E+000	9	...........
	104	1.4	9.20552E-001	4.01451E-004	0.00000E+000	3.69557E-004	2.40040E-001	9.20845E-001	3.57740E+000	9	...........
	105	1.41333	9.24662E-001	4.02205E-004	0.00000E+000	3.71903E-004	2.40040E-001	9.24954E-001	3.57740E+000	9	...........
	106	1.42667	9.28802E-001	4.01386E-004	0.00000E+000	3.72808E-004	2.40040E-001	9.29081E-001	3.57740E+000	9	...........
	107	1.44	9.32775E-001	4.02948E-004	0.00000E+000	3.75859E-004	2.40040E-001	9.33080E-001	3.57740E+000	9	...........
	108	1.45333	9.36754E-001	4.02714E-004	0.00000E+000	3.77244E-004	2.40040E-001	9.37099E-001	3.57740E+000	9	...........
	109	1.46667	9.40693E-001	4.00331E-004	0.00000E+000	3.76589E-004	2.40040E-001	9.40993E-001	3.57740E+000	9	...........
	110	1.48	9.44506E-001	4.00775E-004	0.00000E+000	3.78534E-004	2.40040E-001	9.44831E-001	3.57740E+000	9	...........
	111	1.49333	9.48426E-001	4.00222E-004	0.00000E+000	3.79581E-004	2.40040E-001	9.48729E-001	3.57740E+000	9	...........
	112	1.50667	9.52256E-001	4.01361E-004	0.00000E+000	3.82198E-004	2.40040E-001	9.52585E-001	3.57740E+000	9	...........
	113	1.52	9.56000E-001	4.01849E-004	0.00000E+000	3.84168E-004	2.40040E-001	9.56294E-001	3.57740E+000	9	...........
	114	1.53333	9.59744E-001	4.01795E-004	0.00000E+000	3.85620E-004	2.40040E-001	9.60058E-001	3.57740E+000	9	...........
	115	1.54667	9.63427E-001	4.00623E-004	0.00000E+000	3.85971E-004	2.40040E-001	9.63754E-001	3.57740E+000	9	...........
	116	1.56	9.67185E-001	4.00590E-004	0.00000E+000	3.87444E-004	2.40040E-001	9.67496E-001	3.57740E+000	9	...........
	117	1.57333	9.70814E-001	4.01332E-004	0.00000E+000	3.89618E-004	2.40040E-001	9.71161E-001	3.57740E+000	9	...........
	118	1.58667	9.74562E-001	4.00048E-004	0.00000E+000	3.89871E-004	2.40040E-001	9.74846E-001	3.57740E+000	9	...........
	119	1.6	9.78149E-001	4.00604E-004	0.00000E+000	3.91851E-004	2.40040E-001	9.78479E-001	3.57740E+000	9	...........
	120	1.61333	9.81624E-001	4.01239E-004	0.00000E+000	3.93866E-004	2.40040E-001	9.81947E-001	3.57740E+000	9	...........
	121	1.62667	9.85101E-001	4.00052E-004	0.00000E+000	3.94092E-004	2.40040E-001	9.85430E-001	3.57740E+000	9	...........
	122	1.64	9.88559E-001	4.00759E-004	0.00000E+000	3.96174E-004	2.40040E-001	9.88868E-001	3.57740E+000	9	...........
	123	1.65333	9.91921E-001	4.01365E-004	0.00000E+000	3.98122E-004	2.40040E-001	9.92225E-001	3.57740E+000	9	...........
	124	1.66667	9.95312E-001	4.00820E-004	0.00000E+000	3.98941E-004	2.40040E-001	9.95616E-001	3.57740E+000	9	...........
	125	1.68	9.98753E-001	4.01800E-004	0.00000E+000	4.01299E-004	2.40040E-001	9.99057E-001	3.57740E+000	9	...........
STARTTIMEOFFSET	QUANT	936.0301	Start Time Offset (s)
