EXPLAIN
TAG	PWR800_CHARGE
TITLE	LABEL	PWR Cyclic Charge Discharge (Cell) - Charge Step	Test &Identifier
DATE	LABEL	12-7-2017	Date
TIME	LABEL	14:55:59	Time
NOTES	NOTES	3	&Notes...
	supercap test cell
	0.4mg
	6M KOH
PSTAT	PSTAT	IFC5000-01520	Potentiostat
CAPACITY	QUANT	1.00000E-003	Capacity (A-hr)
CELLTYPE	SELECTOR	1	&Cell Type
WORKINGCONNECTION	SELECTOR	0	&Working Lead
MAXCHARGETIME	VARIABLEANDUNITS	1.00000E+002	s	1.00000E+002	second(s)	Max &Charge Time
CHARGECURRENT	QUANT	4.00000E-004	&Charge Current (A) 
VOLTAGEFINISH	TWOPARAM	F	1.00000E-003	3.60000E+003	&Voltage Finish	 I (A) < 	Max Time(s)
SAMPLETIME	QUANT	1.00000E-002	Sa&mple Period (s)
CHARGESTOPAT1	MULTIPARAM	4	1.00000E+000	Charge Stop At &1	Voltage > Limit	V
CHARGESTOPAT2	MULTIPARAM	0	0.00000E+000	Charge Stop At &2	None	N/A
AESBHCSELECTOR	TOGGLE	F	Save Both Half Cells
IRCOMP	TOGGLE	F	IR &Measure
EOC	QUANT	0	Open Circuit (V)
SEQUENCER	TOGGLE	TRUE	Run as Sequence
PSTATMODEL	IQUANT	53	Pstat Model
PSTATSECTION	LABEL	IFC5000-01520	Pstat Section
PSTATSERIALNO	LABEL	01520	Pstat Serial Number
CTRLMODE	IQUANT	0	Control Mode
ELECTROMETER	IQUANT	1	RE=0 or CS=1
IESTAB	IQUANT	0	I/E Stability
CASPEED	IQUANT	4	Control Amp Speed
CONVENTION	IQUANT	1	Current Convention
ICHRANGE	IQUANT	2	Ich Range
ICHRANGEMODE	TOGGLE	T	Ich Auto Range
ICHOFFSETENABLE	TOGGLE	F	Ich Offset Enable
ICHOFFSET	QUANT	0	Ich Offset (V)
ICHFILTER	IQUANT	1	Ich Filter
VCHRANGE	IQUANT	2	Vch Range
VCHRANGEMODE	TOGGLE	T	Vch Auto Range
VCHOFFSETENABLE	TOGGLE	F	Vch Offset Enable
VCHOFFSET	QUANT	0	Vch Offset (V)
VCHFILTER	IQUANT	1	Vch Filter
IERANGELOWERLIMIT	IQUANT	9	I/E Range Lower Limit
IERANGEMODE	TOGGLE	F	I/E AutoRange
IERANGE	IQUANT	9	I/E Range
ACHSELECT	IQUANT	1	Ach Select
ACHRANGE	IQUANT	2	Ach Range
ACHOFFSETENABLE	TOGGLE	F	Ach Offset Enable
ACHOFFSET	QUANT	0	Ach Offset (V)
ACHFILTER	IQUANT	1	Ach Filter
CABLEID	IQUANT	14	Cable ID
DCCALDATE	LABEL	5-7-2017	DC Calibration Date
ACCALDATE	LABEL	12/3/2015	AC Calibration Date
FRAMEWORKVERSION	QUANT	7.01	Framework Version
INSTRUMENTVERSION	LABEL	4.00	Instrument Version
CURVE	TABLE	116
	Pt	T	Vf	Im	Vu	Pwr	Sig	Ach	Temp	IERange	Over
	#	s	V	A	V	W	V	V	deg C	#	bits
	0	0.013333	3.69724E-001	4.01180E-004	0.00000E+000	1.48326E-004	2.40040E-001	3.69824E-001	3.57760E+000	9	...........
	1	0.026667	3.81534E-001	4.01590E-004	0.00000E+000	1.53220E-004	2.40040E-001	3.81605E-001	3.57760E+000	9	...........
	2	0.04	3.91741E-001	4.00002E-004	0.00000E+000	1.56697E-004	2.40040E-001	3.91818E-001	3.57760E+000	9	...........
	3	0.053333	4.01029E-001	4.01439E-004	0.00000E+000	1.60989E-004	2.40040E-001	4.01110E-001	3.57760E+000	9	...........
	4	0.066667	4.09630E-001	4.00843E-004	0.00000E+000	1.64197E-004	2.40040E-001	4.09719E-001	3.57763E+000	9	...........
	5	0.08	4.17770E-001	4.00597E-004	0.00000E+000	1.67358E-004	2.40040E-001	4.17862E-001	3.57770E+000	9	...........
	6	0.093333	4.25655E-001	4.01293E-004	0.00000E+000	1.70813E-004	2.40040E-001	4.25744E-001	3.57770E+000	9	...........
	7	0.106667	4.33305E-001	4.00502E-004	0.00000E+000	1.73540E-004	2.40040E-001	4.33393E-001	3.57770E+000	9	...........
	8	0.12	4.40775E-001	4.00501E-004	0.00000E+000	1.76531E-004	2.40040E-001	4.40864E-001	3.57770E+000	9	...........
	9	0.133333	4.48142E-001	4.01169E-004	0.00000E+000	1.79781E-004	2.40040E-001	4.48239E-001	3.57770E+000	9	...........
	10	0.146667	4.55235E-001	4.00320E-004	0.00000E+000	1.82240E-004	2.40040E-001	4.55328E-001	3.57770E+000	9	...........
	11	0.16	4.62204E-001	4.01024E-004	0.00000E+000	1.85355E-004	2.40040E-001	4.62296E-001	3.57770E+000	9	...........
	12	0.173333	4.69121E-001	4.01047E-004	0.00000E+000	1.88139E-004	2.40040E-001	4.69212E-001	3.57770E+000	9	...........
	13	0.186667	4.75998E-001	3.99676E-004	0.00000E+000	1.90245E-004	2.40040E-001	4.76091E-001	3.57770E+000	9	...........
	14	0.2	4.82645E-001	4.00438E-004	0.00000E+000	1.93269E-004	2.40040E-001	4.82744E-001	3.57770E+000	9	...........
	15	0.213333	4.89323E-001	4.01109E-004	0.00000E+000	1.96272E-004	2.40040E-001	4.89420E-001	3.57770E+000	9	...........
	16	0.226667	4.95865E-001	4.00977E-004	0.00000E+000	1.98830E-004	2.40040E-001	4.95967E-001	3.57770E+000	9	...........
	17	0.24	5.02379E-001	3.99850E-004	0.00000E+000	2.00876E-004	2.40040E-001	5.02477E-001	3.57770E+000	9	...........
	18	0.253333	5.08877E-001	4.01482E-004	0.00000E+000	2.04305E-004	2.40040E-001	5.08981E-001	3.57770E+000	9	...........
	19	0.266667	5.15229E-001	3.99502E-004	0.00000E+000	2.05835E-004	2.40040E-001	5.15332E-001	3.57770E+000	9	...........
	20	0.28	5.21652E-001	4.00951E-004	0.00000E+000	2.09157E-004	2.40040E-001	5.21752E-001	3.57770E+000	9	...........
	21	0.293333	5.28010E-001	4.00589E-004	0.00000E+000	2.11515E-004	2.40040E-001	5.28113E-001	3.57770E+000	9	...........
	22	0.306667	5.34104E-001	4.00444E-004	0.00000E+000	2.13879E-004	2.40040E-001	5.34299E-001	3.57770E+000	9	...........
	23	0.32	5.40340E-001	4.01435E-004	0.00000E+000	2.16911E-004	2.40040E-001	5.40570E-001	3.57770E+000	9	...........
	24	0.333333	5.46473E-001	4.01767E-004	0.00000E+000	2.19555E-004	2.40040E-001	5.46709E-001	3.57770E+000	9	...........
	25	0.346667	5.52584E-001	4.01043E-004	0.00000E+000	2.21610E-004	2.40040E-001	5.52826E-001	3.57770E+000	9	...........
	26	0.36	5.58713E-001	4.01100E-004	0.00000E+000	2.24100E-004	2.40040E-001	5.58960E-001	3.57770E+000	9	...........
	27	0.373333	5.64908E-001	3.99935E-004	0.00000E+000	2.25927E-004	2.40040E-001	5.65135E-001	3.57770E+000	9	...........
	28	0.386667	5.71054E-001	4.02456E-004	0.00000E+000	2.29824E-004	2.40040E-001	5.71296E-001	3.57770E+000	9	...........
	29	0.4	5.77098E-001	3.99560E-004	0.00000E+000	2.30586E-004	2.40040E-001	5.77355E-001	3.57770E+000	9	...........
	30	0.413333	5.83133E-001	4.00038E-004	0.00000E+000	2.33275E-004	2.40040E-001	5.83390E-001	3.57770E+000	9	...........
	31	0.426667	5.89177E-001	4.00143E-004	0.00000E+000	2.35755E-004	2.40040E-001	5.89432E-001	3.57770E+000	9	...........
	32	0.44	5.95165E-001	4.01743E-004	0.00000E+000	2.39103E-004	2.40040E-001	5.95398E-001	3.57770E+000	9	...........
	33	0.453333	6.01105E-001	4.00541E-004	0.00000E+000	2.40767E-004	2.40040E-001	6.01363E-001	3.57770E+000	9	...........
	34	0.466667	6.07005E-001	4.01581E-004	0.00000E+000	2.43761E-004	2.40040E-001	6.07265E-001	3.57770E+000	9	...........
	35	0.48	6.12953E-001	4.00757E-004	0.00000E+000	2.45645E-004	2.40040E-001	6.13198E-001	3.57770E+000	9	...........
	36	0.493333	6.18836E-001	4.00927E-004	0.00000E+000	2.48108E-004	2.40040E-001	6.19057E-001	3.57770E+000	9	...........
	37	0.506667	6.24685E-001	4.01471E-004	0.00000E+000	2.50793E-004	2.40040E-001	6.24893E-001	3.57770E+000	9	...........
	38	0.52	6.30512E-001	4.00132E-004	0.00000E+000	2.52288E-004	2.40040E-001	6.30759E-001	3.57770E+000	9	...........
	39	0.533333	6.36314E-001	4.01205E-004	0.00000E+000	2.55293E-004	2.40040E-001	6.36542E-001	3.57770E+000	9	...........
	40	0.546667	6.42173E-001	4.00690E-004	0.00000E+000	2.57312E-004	2.40040E-001	6.42374E-001	3.57770E+000	9	...........
	41	0.56	6.47901E-001	4.00788E-004	0.00000E+000	2.59671E-004	2.40040E-001	6.48127E-001	3.57770E+000	9	...........
	42	0.573333	6.53683E-001	4.01242E-004	0.00000E+000	2.62285E-004	2.40040E-001	6.53895E-001	3.57770E+000	9	...........
	43	0.586667	6.59451E-001	4.00755E-004	0.00000E+000	2.64279E-004	2.40040E-001	6.59649E-001	3.57770E+000	9	...........
	44	0.6	6.65206E-001	4.01040E-004	0.00000E+000	2.66774E-004	2.40040E-001	6.65449E-001	3.57770E+000	9	...........
	45	0.613333	6.70936E-001	4.01905E-004	0.00000E+000	2.69652E-004	2.40040E-001	6.71158E-001	3.57770E+000	9	...........
	46	0.626667	6.76717E-001	3.99709E-004	0.00000E+000	2.70490E-004	2.40040E-001	6.76925E-001	3.57770E+000	9	...........
	47	0.64	6.82355E-001	4.01750E-004	0.00000E+000	2.74136E-004	2.40040E-001	6.82562E-001	3.57770E+000	9	...........
	48	0.653333	6.87963E-001	4.01410E-004	0.00000E+000	2.76155E-004	2.40040E-001	6.88175E-001	3.57770E+000	9	...........
	49	0.666667	6.93548E-001	4.00592E-004	0.00000E+000	2.77830E-004	2.40040E-001	6.93762E-001	3.57770E+000	9	...........
	50	0.68	6.99099E-001	4.01659E-004	0.00000E+000	2.80799E-004	2.40040E-001	6.99340E-001	3.57770E+000	9	...........
	51	0.693333	7.04724E-001	4.00010E-004	0.00000E+000	2.81897E-004	2.40040E-001	7.04945E-001	3.57770E+000	9	...........
	52	0.706667	7.10299E-001	4.01751E-004	0.00000E+000	2.85364E-004	2.40040E-001	7.10545E-001	3.57770E+000	9	...........
	53	0.72	7.15880E-001	4.00157E-004	0.00000E+000	2.86465E-004	2.40040E-001	7.16081E-001	3.57770E+000	9	...........
	54	0.733333	7.21427E-001	4.00204E-004	0.00000E+000	2.88718E-004	2.40040E-001	7.21604E-001	3.57770E+000	9	...........
	55	0.746667	7.26911E-001	4.00302E-004	0.00000E+000	2.90984E-004	2.40040E-001	7.27114E-001	3.57770E+000	9	...........
	56	0.76	7.32353E-001	4.00202E-004	0.00000E+000	2.93089E-004	2.40040E-001	7.32584E-001	3.57770E+000	9	...........
	57	0.773333	7.37784E-001	4.01105E-004	0.00000E+000	2.95929E-004	2.40040E-001	7.38013E-001	3.57770E+000	9	...........
	58	0.786667	7.43240E-001	4.01557E-004	0.00000E+000	2.98453E-004	2.40040E-001	7.43481E-001	3.57770E+000	9	...........
	59	0.8	7.48687E-001	4.00301E-004	0.00000E+000	2.99700E-004	2.40040E-001	7.48900E-001	3.57770E+000	9	...........
	60	0.813333	7.54071E-001	4.00564E-004	0.00000E+000	3.02054E-004	2.40040E-001	7.54317E-001	3.57770E+000	9	...........
	61	0.826667	7.59458E-001	4.01542E-004	0.00000E+000	3.04954E-004	2.40040E-001	7.59704E-001	3.57770E+000	9	...........
	62	0.84	7.64800E-001	4.01860E-004	0.00000E+000	3.07342E-004	2.40040E-001	7.65042E-001	3.57770E+000	9	...........
	63	0.853333	7.70134E-001	4.01899E-004	0.00000E+000	3.09516E-004	2.40040E-001	7.70395E-001	3.57770E+000	9	...........
	64	0.866667	7.75426E-001	4.01467E-004	0.00000E+000	3.11308E-004	2.40040E-001	7.75629E-001	3.57770E+000	9	...........
	65	0.88	7.80679E-001	4.01075E-004	0.00000E+000	3.13111E-004	2.40040E-001	7.80940E-001	3.57770E+000	9	...........
	66	0.893333	7.85911E-001	4.01555E-004	0.00000E+000	3.15586E-004	2.40040E-001	7.86154E-001	3.57770E+000	9	...........
	67	0.906667	7.91153E-001	4.01779E-004	0.00000E+000	3.17868E-004	2.40040E-001	7.91430E-001	3.57770E+000	9	...........
	68	0.92	7.96371E-001	4.01325E-004	0.00000E+000	3.19604E-004	2.40040E-001	7.96607E-001	3.57770E+000	9	...........
	69	0.933333	8.01500E-001	4.00752E-004	0.00000E+000	3.21203E-004	2.40040E-001	8.01760E-001	3.57770E+000	9	...........
	70	0.946667	8.06565E-001	4.00828E-004	0.00000E+000	3.23294E-004	2.40040E-001	8.06842E-001	3.57770E+000	9	...........
	71	0.96	8.11705E-001	4.00880E-004	0.00000E+000	3.25397E-004	2.40040E-001	8.11983E-001	3.57770E+000	9	...........
	72	0.97333	8.16761E-001	4.00617E-004	0.00000E+000	3.27208E-004	2.40040E-001	8.17058E-001	3.57770E+000	9	...........
	73	0.98667	8.21879E-001	4.00292E-004	0.00000E+000	3.28991E-004	2.40040E-001	8.22147E-001	3.57770E+000	9	...........
	74	1	8.26820E-001	4.00661E-004	0.00000E+000	3.31274E-004	2.40040E-001	8.27095E-001	3.57770E+000	9	...........
	75	1.01333	8.31725E-001	4.00798E-004	0.00000E+000	3.33354E-004	2.40040E-001	8.32011E-001	3.57770E+000	9	...........
	76	1.02667	8.36707E-001	4.01668E-004	0.00000E+000	3.36078E-004	2.40040E-001	8.37007E-001	3.57770E+000	9	...........
	77	1.04	8.41595E-001	4.00885E-004	0.00000E+000	3.37382E-004	2.40040E-001	8.41901E-001	3.57770E+000	9	...........
	78	1.05333	8.46501E-001	4.00851E-004	0.00000E+000	3.39321E-004	2.40040E-001	8.46810E-001	3.57770E+000	9	...........
	79	1.06667	8.51297E-001	4.01894E-004	0.00000E+000	3.42131E-004	2.40040E-001	8.51592E-001	3.57759E+000	9	...........
	80	1.08	8.56184E-001	4.00377E-004	0.00000E+000	3.42797E-004	2.40040E-001	8.56462E-001	3.57730E+000	9	...........
	81	1.09333	8.60995E-001	4.00195E-004	0.00000E+000	3.44566E-004	2.40040E-001	8.61287E-001	3.57730E+000	9	...........
	82	1.10667	8.65680E-001	4.00983E-004	0.00000E+000	3.47123E-004	2.40040E-001	8.65968E-001	3.57730E+000	9	...........
	83	1.12	8.70413E-001	4.01799E-004	0.00000E+000	3.49731E-004	2.40040E-001	8.70719E-001	3.57730E+000	9	...........
	84	1.13333	8.75070E-001	4.01745E-004	0.00000E+000	3.51555E-004	2.40040E-001	8.75368E-001	3.57730E+000	9	...........
	85	1.14667	8.79703E-001	4.00538E-004	0.00000E+000	3.52354E-004	2.40040E-001	8.79998E-001	3.57730E+000	9	...........
	86	1.16	8.84274E-001	4.00912E-004	0.00000E+000	3.54516E-004	2.40040E-001	8.84588E-001	3.57730E+000	9	...........
	87	1.17333	8.88791E-001	4.02230E-004	0.00000E+000	3.57498E-004	2.40040E-001	8.89108E-001	3.57730E+000	9	...........
	88	1.18667	8.93310E-001	4.00357E-004	0.00000E+000	3.57643E-004	2.40040E-001	8.93627E-001	3.57730E+000	9	...........
	89	1.2	8.97817E-001	4.00894E-004	0.00000E+000	3.59929E-004	2.40040E-001	8.98152E-001	3.57730E+000	9	...........
	90	1.21333	9.02239E-001	4.00020E-004	0.00000E+000	3.60913E-004	2.40040E-001	9.02565E-001	3.57730E+000	9	...........
	91	1.22667	9.06672E-001	4.00930E-004	0.00000E+000	3.63512E-004	2.40040E-001	9.07025E-001	3.57730E+000	9	...........
	92	1.24	9.11054E-001	4.00341E-004	0.00000E+000	3.64732E-004	2.40040E-001	9.11374E-001	3.57730E+000	9	...........
	93	1.25333	9.15377E-001	4.01820E-004	0.00000E+000	3.67817E-004	2.40040E-001	9.15742E-001	3.57730E+000	9	...........
	94	1.26667	9.19723E-001	4.00891E-004	0.00000E+000	3.68708E-004	2.40040E-001	9.20063E-001	3.57730E+000	9	...........
	95	1.28	9.24087E-001	4.01435E-004	0.00000E+000	3.70960E-004	2.40040E-001	9.24369E-001	3.57730E+000	9	...........
	96	1.29333	9.28331E-001	4.01188E-004	0.00000E+000	3.72435E-004	2.40040E-001	9.28629E-001	3.57730E+000	9	...........
	97	1.30667	9.32452E-001	4.00633E-004	0.00000E+000	3.73572E-004	2.40040E-001	9.32784E-001	3.57730E+000	9	...........
	98	1.32	9.36595E-001	4.00452E-004	0.00000E+000	3.75062E-004	2.40040E-001	9.36920E-001	3.57730E+000	9	...........
	99	1.33333	9.40707E-001	4.00053E-004	0.00000E+000	3.76333E-004	2.40040E-001	9.41031E-001	3.57730E+000	9	...........
	100	1.34667	9.44756E-001	4.00850E-004	0.00000E+000	3.78705E-004	2.40040E-001	9.45073E-001	3.57730E+000	9	...........
	101	1.36	9.48803E-001	4.01732E-004	0.00000E+000	3.81164E-004	2.40040E-001	9.49126E-001	3.57730E+000	9	...........
	102	1.37333	9.52857E-001	4.01958E-004	0.00000E+000	3.83008E-004	2.40040E-001	9.53190E-001	3.57730E+000	9	...........
	103	1.38667	9.56856E-001	4.01017E-004	0.00000E+000	3.83716E-004	2.40040E-001	9.57173E-001	3.57730E+000	9	...........
	104	1.4	9.60739E-001	4.02144E-004	0.00000E+000	3.86356E-004	2.40040E-001	9.61058E-001	3.57730E+000	9	...........
	105	1.41333	9.64664E-001	4.01318E-004	0.00000E+000	3.87137E-004	2.40040E-001	9.64990E-001	3.57730E+000	9	...........
	106	1.42667	9.68544E-001	4.01835E-004	0.00000E+000	3.89195E-004	2.40040E-001	9.68879E-001	3.57730E+000	9	...........
	107	1.44	9.72350E-001	4.00132E-004	0.00000E+000	3.89068E-004	2.40040E-001	9.72693E-001	3.57730E+000	9	...........
	108	1.45333	9.76196E-001	4.00670E-004	0.00000E+000	3.91132E-004	2.40040E-001	9.76514E-001	3.57730E+000	9	...........
	109	1.46667	9.79911E-001	4.00642E-004	0.00000E+000	3.92593E-004	2.40040E-001	9.80208E-001	3.57730E+000	9	...........
	110	1.48	9.83629E-001	4.00797E-004	0.00000E+000	3.94236E-004	2.40040E-001	9.83934E-001	3.57730E+000	9	...........
	111	1.49333	9.87315E-001	4.00398E-004	0.00000E+000	3.95319E-004	2.40040E-001	9.87647E-001	3.57730E+000	9	...........
	112	1.50667	9.90996E-001	4.00795E-004	0.00000E+000	3.97186E-004	2.40040E-001	9.91300E-001	3.57730E+000	9	...........
	113	1.52	9.94555E-001	4.00235E-004	0.00000E+000	3.98056E-004	2.40040E-001	9.94889E-001	3.57730E+000	9	...........
	114	1.53333	9.98133E-001	4.00064E-004	0.00000E+000	3.99317E-004	2.40040E-001	9.98446E-001	3.57730E+000	9	...........
	115	1.535	1.00007E+000	4.00536E-004	0.00000E+000	4.00562E-004	2.40040E-001	1.00039E+000	3.57730E+000	9	...........
STARTTIMEOFFSET	QUANT	1784.79	Start Time Offset (s)
