EXPLAIN
TAG	PWR800_CHARGE
TITLE	LABEL	PWR Cyclic Charge Discharge (Cell) - Charge Step	Test &Identifier
DATE	LABEL	12-7-2017	Date
TIME	LABEL	14:51:22	Time
NOTES	NOTES	3	&Notes...
	supercap test cell
	0.4mg
	6M KOH
PSTAT	PSTAT	IFC5000-01520	Potentiostat
CAPACITY	QUANT	1.00000E-003	Capacity (A-hr)
CELLTYPE	SELECTOR	1	&Cell Type
WORKINGCONNECTION	SELECTOR	0	&Working Lead
MAXCHARGETIME	VARIABLEANDUNITS	1.00000E+002	s	1.00000E+002	second(s)	Max &Charge Time
CHARGECURRENT	QUANT	4.00000E-004	&Charge Current (A) 
VOLTAGEFINISH	TWOPARAM	F	1.00000E-003	3.60000E+003	&Voltage Finish	 I (A) < 	Max Time(s)
SAMPLETIME	QUANT	1.00000E-002	Sa&mple Period (s)
CHARGESTOPAT1	MULTIPARAM	4	1.00000E+000	Charge Stop At &1	Voltage > Limit	V
CHARGESTOPAT2	MULTIPARAM	0	0.00000E+000	Charge Stop At &2	None	N/A
AESBHCSELECTOR	TOGGLE	F	Save Both Half Cells
IRCOMP	TOGGLE	F	IR &Measure
EOC	QUANT	0	Open Circuit (V)
SEQUENCER	TOGGLE	TRUE	Run as Sequence
PSTATMODEL	IQUANT	53	Pstat Model
PSTATSECTION	LABEL	IFC5000-01520	Pstat Section
PSTATSERIALNO	LABEL	01520	Pstat Serial Number
CTRLMODE	IQUANT	0	Control Mode
ELECTROMETER	IQUANT	1	RE=0 or CS=1
IESTAB	IQUANT	0	I/E Stability
CASPEED	IQUANT	4	Control Amp Speed
CONVENTION	IQUANT	1	Current Convention
ICHRANGE	IQUANT	2	Ich Range
ICHRANGEMODE	TOGGLE	T	Ich Auto Range
ICHOFFSETENABLE	TOGGLE	F	Ich Offset Enable
ICHOFFSET	QUANT	0	Ich Offset (V)
ICHFILTER	IQUANT	1	Ich Filter
VCHRANGE	IQUANT	2	Vch Range
VCHRANGEMODE	TOGGLE	T	Vch Auto Range
VCHOFFSETENABLE	TOGGLE	F	Vch Offset Enable
VCHOFFSET	QUANT	0	Vch Offset (V)
VCHFILTER	IQUANT	1	Vch Filter
IERANGELOWERLIMIT	IQUANT	9	I/E Range Lower Limit
IERANGEMODE	TOGGLE	F	I/E AutoRange
IERANGE	IQUANT	9	I/E Range
ACHSELECT	IQUANT	1	Ach Select
ACHRANGE	IQUANT	2	Ach Range
ACHOFFSETENABLE	TOGGLE	F	Ach Offset Enable
ACHOFFSET	QUANT	0	Ach Offset (V)
ACHFILTER	IQUANT	1	Ach Filter
CABLEID	IQUANT	14	Cable ID
DCCALDATE	LABEL	5-7-2017	DC Calibration Date
ACCALDATE	LABEL	12/3/2015	AC Calibration Date
FRAMEWORKVERSION	QUANT	7.01	Framework Version
INSTRUMENTVERSION	LABEL	4.00	Instrument Version
CURVE	TABLE	118
	Pt	T	Vf	Im	Vu	Pwr	Sig	Ach	Temp	IERange	Over
	#	s	V	A	V	W	V	V	deg C	#	bits
	0	0.013333	3.65114E-001	4.01132E-004	0.00000E+000	1.46459E-004	2.40040E-001	3.65215E-001	3.57640E+000	9	...........
	1	0.026667	3.76739E-001	4.00457E-004	0.00000E+000	1.50868E-004	2.40040E-001	3.76812E-001	3.57640E+000	9	...........
	2	0.04	3.86745E-001	4.00492E-004	0.00000E+000	1.54888E-004	2.40040E-001	3.86816E-001	3.57640E+000	9	...........
	3	0.053333	3.95808E-001	4.01030E-004	0.00000E+000	1.58731E-004	2.40040E-001	3.95881E-001	3.57640E+000	9	...........
	4	0.066667	4.04379E-001	4.00237E-004	0.00000E+000	1.61847E-004	2.40040E-001	4.04451E-001	3.57640E+000	9	...........
	5	0.08	4.12420E-001	4.00970E-004	0.00000E+000	1.65368E-004	2.40040E-001	4.12505E-001	3.57640E+000	9	...........
	6	0.093333	4.20116E-001	4.01115E-004	0.00000E+000	1.68515E-004	2.40040E-001	4.20204E-001	3.57640E+000	9	...........
	7	0.106667	4.27677E-001	4.00463E-004	0.00000E+000	1.71269E-004	2.40040E-001	4.27766E-001	3.57640E+000	9	...........
	8	0.12	4.34984E-001	4.01259E-004	0.00000E+000	1.74541E-004	2.40040E-001	4.35069E-001	3.57640E+000	9	...........
	9	0.133333	4.42083E-001	4.01688E-004	0.00000E+000	1.77579E-004	2.40040E-001	4.42172E-001	3.57640E+000	9	...........
	10	0.146667	4.49088E-001	4.01346E-004	0.00000E+000	1.80240E-004	2.40040E-001	4.49178E-001	3.57640E+000	9	...........
	11	0.16	4.56012E-001	4.00527E-004	0.00000E+000	1.82645E-004	2.40040E-001	4.56105E-001	3.57640E+000	9	...........
	12	0.173333	4.62876E-001	4.01055E-004	0.00000E+000	1.85639E-004	2.40040E-001	4.62967E-001	3.57640E+000	9	...........
	13	0.186667	4.69618E-001	4.00370E-004	0.00000E+000	1.88021E-004	2.40040E-001	4.69713E-001	3.57640E+000	9	...........
	14	0.2	4.76220E-001	4.00279E-004	0.00000E+000	1.90621E-004	2.40040E-001	4.76315E-001	3.57640E+000	9	...........
	15	0.213333	4.82817E-001	4.00694E-004	0.00000E+000	1.93462E-004	2.40040E-001	4.82910E-001	3.57640E+000	9	...........
	16	0.226667	4.89349E-001	4.00594E-004	0.00000E+000	1.96030E-004	2.40040E-001	4.89449E-001	3.57640E+000	9	...........
	17	0.24	4.95803E-001	4.00678E-004	0.00000E+000	1.98658E-004	2.40040E-001	4.95903E-001	3.57646E+000	9	...........
	18	0.253333	5.02223E-001	4.00361E-004	0.00000E+000	2.01070E-004	2.40040E-001	5.02329E-001	3.57650E+000	9	...........
	19	0.266667	5.08480E-001	4.00781E-004	0.00000E+000	2.03789E-004	2.40040E-001	5.08588E-001	3.57650E+000	9	...........
	20	0.28	5.14758E-001	4.01659E-004	0.00000E+000	2.06757E-004	2.40040E-001	5.14864E-001	3.57650E+000	9	...........
	21	0.293333	5.21011E-001	4.02001E-004	0.00000E+000	2.09447E-004	2.40040E-001	5.21115E-001	3.57650E+000	9	...........
	22	0.306667	5.27218E-001	4.01691E-004	0.00000E+000	2.11779E-004	2.40040E-001	5.27325E-001	3.57650E+000	9	...........
	23	0.32	5.33307E-001	4.00652E-004	0.00000E+000	2.13670E-004	2.40040E-001	5.33429E-001	3.57650E+000	9	...........
	24	0.333333	5.39302E-001	3.99918E-004	0.00000E+000	2.15676E-004	2.40040E-001	5.39520E-001	3.57650E+000	9	...........
	25	0.346667	5.45360E-001	3.99900E-004	0.00000E+000	2.18090E-004	2.40040E-001	5.45572E-001	3.57650E+000	9	...........
	26	0.36	5.51376E-001	4.01144E-004	0.00000E+000	2.21181E-004	2.40040E-001	5.51586E-001	3.57650E+000	9	...........
	27	0.373333	5.57361E-001	4.01561E-004	0.00000E+000	2.23814E-004	2.40040E-001	5.57581E-001	3.57650E+000	9	...........
	28	0.386667	5.63425E-001	4.00841E-004	0.00000E+000	2.25844E-004	2.40040E-001	5.63641E-001	3.57650E+000	9	...........
	29	0.4	5.69472E-001	4.01158E-004	0.00000E+000	2.28448E-004	2.40040E-001	5.69692E-001	3.57650E+000	9	...........
	30	0.413333	5.75445E-001	4.00357E-004	0.00000E+000	2.30384E-004	2.40040E-001	5.75662E-001	3.57650E+000	9	...........
	31	0.426667	5.81346E-001	4.00632E-004	0.00000E+000	2.32906E-004	2.40040E-001	5.81581E-001	3.57650E+000	9	...........
	32	0.44	5.87276E-001	4.01929E-004	0.00000E+000	2.36043E-004	2.40040E-001	5.87501E-001	3.57650E+000	9	...........
	33	0.453333	5.93202E-001	4.00667E-004	0.00000E+000	2.37676E-004	2.40040E-001	5.93441E-001	3.57650E+000	9	...........
	34	0.466667	5.99073E-001	4.01411E-004	0.00000E+000	2.40474E-004	2.40040E-001	5.99325E-001	3.57650E+000	9	...........
	35	0.48	6.04870E-001	4.00230E-004	0.00000E+000	2.42087E-004	2.40040E-001	6.05153E-001	3.57650E+000	9	...........
	36	0.493333	6.10703E-001	4.00653E-004	0.00000E+000	2.44680E-004	2.40040E-001	6.10973E-001	3.57650E+000	9	...........
	37	0.506667	6.16592E-001	4.01775E-004	0.00000E+000	2.47731E-004	2.40040E-001	6.16844E-001	3.57650E+000	9	...........
	38	0.52	6.22350E-001	4.00667E-004	0.00000E+000	2.49355E-004	2.40040E-001	6.22552E-001	3.57650E+000	9	...........
	39	0.533333	6.28094E-001	4.00185E-004	0.00000E+000	2.51354E-004	2.40040E-001	6.28344E-001	3.57650E+000	9	...........
	40	0.546667	6.33833E-001	4.00429E-004	0.00000E+000	2.53805E-004	2.40040E-001	6.34061E-001	3.57650E+000	9	...........
	41	0.56	6.39549E-001	4.00268E-004	0.00000E+000	2.55991E-004	2.40040E-001	6.39784E-001	3.57650E+000	9	...........
	42	0.573333	6.45272E-001	4.02209E-004	0.00000E+000	2.59534E-004	2.40040E-001	6.45504E-001	3.57650E+000	9	...........
	43	0.586667	6.50957E-001	4.00642E-004	0.00000E+000	2.60801E-004	2.40040E-001	6.51178E-001	3.57650E+000	9	...........
	44	0.6	6.56678E-001	4.01793E-004	0.00000E+000	2.63849E-004	2.40040E-001	6.56883E-001	3.57650E+000	9	...........
	45	0.613333	6.62284E-001	4.01249E-004	0.00000E+000	2.65741E-004	2.40040E-001	6.62513E-001	3.57650E+000	9	...........
	46	0.626667	6.68036E-001	4.01185E-004	0.00000E+000	2.68006E-004	2.40040E-001	6.68238E-001	3.57650E+000	9	...........
	47	0.64	6.73684E-001	4.00815E-004	0.00000E+000	2.70023E-004	2.40040E-001	6.73897E-001	3.57650E+000	9	...........
	48	0.653333	6.79301E-001	4.01522E-004	0.00000E+000	2.72755E-004	2.40040E-001	6.79498E-001	3.57650E+000	9	...........
	49	0.666667	6.84928E-001	4.02173E-004	0.00000E+000	2.75460E-004	2.40040E-001	6.85142E-001	3.57650E+000	9	...........
	50	0.68	6.90478E-001	4.00648E-004	0.00000E+000	2.76639E-004	2.40040E-001	6.90698E-001	3.57650E+000	9	...........
	51	0.693333	6.96060E-001	4.01943E-004	0.00000E+000	2.79777E-004	2.40040E-001	6.96285E-001	3.57650E+000	9	...........
	52	0.706667	7.01596E-001	3.99725E-004	0.00000E+000	2.80445E-004	2.40040E-001	7.01790E-001	3.57650E+000	9	...........
	53	0.72	7.07083E-001	4.00918E-004	0.00000E+000	2.83482E-004	2.40040E-001	7.07276E-001	3.57650E+000	9	...........
	54	0.733333	7.12584E-001	4.00709E-004	0.00000E+000	2.85538E-004	2.40040E-001	7.12768E-001	3.57650E+000	9	...........
	55	0.746667	7.18069E-001	3.99073E-004	0.00000E+000	2.86562E-004	2.40040E-001	7.18269E-001	3.57650E+000	9	...........
	56	0.76	7.23501E-001	4.00321E-004	0.00000E+000	2.89633E-004	2.40040E-001	7.23699E-001	3.57650E+000	9	...........
	57	0.773333	7.28991E-001	4.01656E-004	0.00000E+000	2.92803E-004	2.40040E-001	7.29205E-001	3.57650E+000	9	...........
	58	0.786667	7.34373E-001	4.00885E-004	0.00000E+000	2.94399E-004	2.40040E-001	7.34601E-001	3.57650E+000	9	...........
	59	0.8	7.39781E-001	4.01199E-004	0.00000E+000	2.96800E-004	2.40040E-001	7.39985E-001	3.57650E+000	9	...........
	60	0.813333	7.45057E-001	3.99864E-004	0.00000E+000	2.97921E-004	2.40040E-001	7.45299E-001	3.57650E+000	9	...........
	61	0.826667	7.50256E-001	4.01382E-004	0.00000E+000	3.01139E-004	2.40040E-001	7.50501E-001	3.57650E+000	9	...........
	62	0.84	7.55626E-001	4.00162E-004	0.00000E+000	3.02372E-004	2.40040E-001	7.55889E-001	3.57650E+000	9	...........
	63	0.853333	7.60956E-001	3.99463E-004	0.00000E+000	3.03974E-004	2.40040E-001	7.61195E-001	3.57650E+000	9	...........
	64	0.866667	7.66231E-001	4.00695E-004	0.00000E+000	3.07025E-004	2.40040E-001	7.66471E-001	3.57650E+000	9	...........
	65	0.88	7.71505E-001	4.01160E-004	0.00000E+000	3.09497E-004	2.40040E-001	7.71766E-001	3.57650E+000	9	...........
	66	0.893333	7.76711E-001	4.00624E-004	0.00000E+000	3.11169E-004	2.40040E-001	7.76962E-001	3.57650E+000	9	...........
	67	0.906667	7.81933E-001	4.00541E-004	0.00000E+000	3.13196E-004	2.40040E-001	7.82157E-001	3.57650E+000	9	...........
	68	0.92	7.87116E-001	4.00950E-004	0.00000E+000	3.15594E-004	2.40040E-001	7.87311E-001	3.57650E+000	9	...........
	69	0.933333	7.92292E-001	4.00787E-004	0.00000E+000	3.17540E-004	2.40040E-001	7.92499E-001	3.57650E+000	9	...........
	70	0.946667	7.97374E-001	4.01140E-004	0.00000E+000	3.19858E-004	2.40040E-001	7.97557E-001	3.57650E+000	9	...........
	71	0.96	8.02417E-001	4.01447E-004	0.00000E+000	3.22128E-004	2.40040E-001	8.02631E-001	3.57650E+000	9	...........
	72	0.97333	8.07469E-001	4.01365E-004	0.00000E+000	3.24090E-004	2.40040E-001	8.07680E-001	3.57650E+000	9	...........
	73	0.98667	8.12531E-001	4.00864E-004	0.00000E+000	3.25714E-004	2.40040E-001	8.12763E-001	3.57650E+000	9	...........
	74	1	8.17544E-001	4.00731E-004	0.00000E+000	3.27615E-004	2.40040E-001	8.17813E-001	3.57650E+000	9	...........
	75	1.01333	8.22522E-001	4.01509E-004	0.00000E+000	3.30250E-004	2.40040E-001	8.22790E-001	3.57650E+000	9	...........
	76	1.02667	8.27460E-001	4.00264E-004	0.00000E+000	3.31202E-004	2.40040E-001	8.27706E-001	3.57650E+000	9	...........
	77	1.04	8.32360E-001	4.00926E-004	0.00000E+000	3.33715E-004	2.40040E-001	8.32661E-001	3.57650E+000	9	...........
	78	1.05333	8.37176E-001	4.01068E-004	0.00000E+000	3.35764E-004	2.40040E-001	8.37473E-001	3.57650E+000	9	...........
	79	1.06667	8.41974E-001	3.99811E-004	0.00000E+000	3.36631E-004	2.40040E-001	8.42297E-001	3.57650E+000	9	...........
	80	1.08	8.46873E-001	4.00915E-004	0.00000E+000	3.39524E-004	2.40040E-001	8.47167E-001	3.57650E+000	9	...........
	81	1.09333	8.51657E-001	4.02344E-004	0.00000E+000	3.42660E-004	2.40040E-001	8.51973E-001	3.57650E+000	9	...........
	82	1.10667	8.56380E-001	4.00658E-004	0.00000E+000	3.43116E-004	2.40040E-001	8.56697E-001	3.57650E+000	9	...........
	83	1.12	8.61150E-001	4.00683E-004	0.00000E+000	3.45048E-004	2.40040E-001	8.61436E-001	3.57650E+000	9	...........
	84	1.13333	8.65810E-001	3.99263E-004	0.00000E+000	3.45686E-004	2.40040E-001	8.66072E-001	3.57650E+000	9	...........
	85	1.14667	8.70474E-001	4.00177E-004	0.00000E+000	3.48344E-004	2.40040E-001	8.70738E-001	3.57650E+000	9	...........
	86	1.16	8.75149E-001	3.99880E-004	0.00000E+000	3.49955E-004	2.40040E-001	8.75408E-001	3.57650E+000	9	...........
	87	1.17333	8.79750E-001	4.00443E-004	0.00000E+000	3.52290E-004	2.40040E-001	8.80031E-001	3.57650E+000	9	...........
	88	1.18667	8.84268E-001	3.99901E-004	0.00000E+000	3.53620E-004	2.40040E-001	8.84552E-001	3.57650E+000	9	...........
	89	1.2	8.88736E-001	4.01117E-004	0.00000E+000	3.56487E-004	2.40040E-001	8.89038E-001	3.57650E+000	9	...........
	90	1.21333	8.93274E-001	3.99942E-004	0.00000E+000	3.57258E-004	2.40040E-001	8.93574E-001	3.57650E+000	9	...........
	91	1.22667	8.97776E-001	4.01332E-004	0.00000E+000	3.60306E-004	2.40040E-001	8.98075E-001	3.57650E+000	9	...........
	92	1.24	9.02087E-001	3.99964E-004	0.00000E+000	3.60802E-004	2.40040E-001	9.02389E-001	3.57663E+000	9	...........
	93	1.25333	9.06461E-001	4.01154E-004	0.00000E+000	3.63631E-004	2.40040E-001	9.06759E-001	3.57670E+000	9	...........
	94	1.26667	9.10836E-001	4.01761E-004	0.00000E+000	3.65938E-004	2.40040E-001	9.11139E-001	3.57670E+000	9	...........
	95	1.28	9.15123E-001	4.00520E-004	0.00000E+000	3.66525E-004	2.40040E-001	9.15443E-001	3.57670E+000	9	...........
	96	1.29333	9.19389E-001	4.02546E-004	0.00000E+000	3.70097E-004	2.40040E-001	9.19695E-001	3.57670E+000	9	...........
	97	1.30667	9.23763E-001	4.00369E-004	0.00000E+000	3.69846E-004	2.40040E-001	9.24023E-001	3.57670E+000	9	...........
	98	1.32	9.27973E-001	4.00639E-004	0.00000E+000	3.71782E-004	2.40040E-001	9.28229E-001	3.57670E+000	9	...........
	99	1.33333	9.32091E-001	4.01404E-004	0.00000E+000	3.74145E-004	2.40040E-001	9.32350E-001	3.57670E+000	9	...........
	100	1.34667	9.36169E-001	4.00339E-004	0.00000E+000	3.74784E-004	2.40040E-001	9.36454E-001	3.57670E+000	9	...........
	101	1.36	9.40229E-001	4.00612E-004	0.00000E+000	3.76667E-004	2.40040E-001	9.40551E-001	3.57670E+000	9	...........
	102	1.37333	9.44240E-001	4.01098E-004	0.00000E+000	3.78733E-004	2.40040E-001	9.44559E-001	3.57670E+000	9	...........
	103	1.38667	9.48272E-001	4.00120E-004	0.00000E+000	3.79422E-004	2.40040E-001	9.48544E-001	3.57670E+000	9	...........
	104	1.4	9.52195E-001	4.01513E-004	0.00000E+000	3.82318E-004	2.40040E-001	9.52484E-001	3.57670E+000	9	...........
	105	1.41333	9.56162E-001	4.01635E-004	0.00000E+000	3.84028E-004	2.40040E-001	9.56456E-001	3.57670E+000	9	...........
	106	1.42667	9.60075E-001	4.00837E-004	0.00000E+000	3.84833E-004	2.40040E-001	9.60376E-001	3.57670E+000	9	...........
	107	1.44	9.63924E-001	4.00208E-004	0.00000E+000	3.85770E-004	2.40040E-001	9.64245E-001	3.57670E+000	9	...........
	108	1.45333	9.67807E-001	4.01166E-004	0.00000E+000	3.88251E-004	2.40040E-001	9.68125E-001	3.57670E+000	9	...........
	109	1.46667	9.71582E-001	4.01580E-004	0.00000E+000	3.90167E-004	2.40040E-001	9.71913E-001	3.57670E+000	9	...........
	110	1.48	9.75402E-001	4.01577E-004	0.00000E+000	3.91699E-004	2.40040E-001	9.75691E-001	3.57670E+000	9	...........
	111	1.49333	9.79171E-001	4.01436E-004	0.00000E+000	3.93074E-004	2.40040E-001	9.79471E-001	3.57670E+000	9	...........
	112	1.50667	9.82873E-001	4.01312E-004	0.00000E+000	3.94439E-004	2.40040E-001	9.83170E-001	3.57670E+000	9	...........
	113	1.52	9.86532E-001	4.00777E-004	0.00000E+000	3.95380E-004	2.40040E-001	9.86846E-001	3.57670E+000	9	...........
	114	1.53333	9.90126E-001	4.01485E-004	0.00000E+000	3.97521E-004	2.40040E-001	9.90412E-001	3.57670E+000	9	...........
	115	1.54667	9.93627E-001	4.01722E-004	0.00000E+000	3.99162E-004	2.40040E-001	9.93955E-001	3.57670E+000	9	...........
	116	1.56	9.97220E-001	4.00989E-004	0.00000E+000	3.99874E-004	2.40040E-001	9.97521E-001	3.57670E+000	9	...........
	117	1.565	9.99613E-001	4.03622E-004	0.00000E+000	4.03466E-004	2.40040E-001	9.99941E-001	3.57670E+000	9	...........
STARTTIMEOFFSET	QUANT	1565.989	Start Time Offset (s)
