EXPLAIN
TAG	PWR800_CHARGE
TITLE	LABEL	PWR Cyclic Charge Discharge (Cell) - Charge Step	Test &Identifier
DATE	LABEL	12-7-2017	Date
TIME	LABEL	15:20:04	Time
NOTES	NOTES	3	&Notes...
	supercap test cell
	0.4mg
	6M KOH
PSTAT	PSTAT	IFC5000-01520	Potentiostat
CAPACITY	QUANT	1.00000E-003	Capacity (A-hr)
CELLTYPE	SELECTOR	1	&Cell Type
WORKINGCONNECTION	SELECTOR	0	&Working Lead
MAXCHARGETIME	VARIABLEANDUNITS	1.00000E+002	s	1.00000E+002	second(s)	Max &Charge Time
CHARGECURRENT	QUANT	4.00000E-004	&Charge Current (A) 
VOLTAGEFINISH	TWOPARAM	F	1.00000E-003	3.60000E+003	&Voltage Finish	 I (A) < 	Max Time(s)
SAMPLETIME	QUANT	1.00000E-002	Sa&mple Period (s)
CHARGESTOPAT1	MULTIPARAM	4	1.00000E+000	Charge Stop At &1	Voltage > Limit	V
CHARGESTOPAT2	MULTIPARAM	0	0.00000E+000	Charge Stop At &2	None	N/A
AESBHCSELECTOR	TOGGLE	F	Save Both Half Cells
IRCOMP	TOGGLE	F	IR &Measure
EOC	QUANT	0	Open Circuit (V)
SEQUENCER	TOGGLE	TRUE	Run as Sequence
PSTATMODEL	IQUANT	53	Pstat Model
PSTATSECTION	LABEL	IFC5000-01520	Pstat Section
PSTATSERIALNO	LABEL	01520	Pstat Serial Number
CTRLMODE	IQUANT	0	Control Mode
ELECTROMETER	IQUANT	1	RE=0 or CS=1
IESTAB	IQUANT	0	I/E Stability
CASPEED	IQUANT	4	Control Amp Speed
CONVENTION	IQUANT	1	Current Convention
ICHRANGE	IQUANT	2	Ich Range
ICHRANGEMODE	TOGGLE	T	Ich Auto Range
ICHOFFSETENABLE	TOGGLE	F	Ich Offset Enable
ICHOFFSET	QUANT	0	Ich Offset (V)
ICHFILTER	IQUANT	1	Ich Filter
VCHRANGE	IQUANT	2	Vch Range
VCHRANGEMODE	TOGGLE	T	Vch Auto Range
VCHOFFSETENABLE	TOGGLE	F	Vch Offset Enable
VCHOFFSET	QUANT	0	Vch Offset (V)
VCHFILTER	IQUANT	1	Vch Filter
IERANGELOWERLIMIT	IQUANT	9	I/E Range Lower Limit
IERANGEMODE	TOGGLE	F	I/E AutoRange
IERANGE	IQUANT	9	I/E Range
ACHSELECT	IQUANT	1	Ach Select
ACHRANGE	IQUANT	2	Ach Range
ACHOFFSETENABLE	TOGGLE	F	Ach Offset Enable
ACHOFFSET	QUANT	0	Ach Offset (V)
ACHFILTER	IQUANT	1	Ach Filter
CABLEID	IQUANT	14	Cable ID
DCCALDATE	LABEL	5-7-2017	DC Calibration Date
ACCALDATE	LABEL	12/3/2015	AC Calibration Date
FRAMEWORKVERSION	QUANT	7.01	Framework Version
INSTRUMENTVERSION	LABEL	4.00	Instrument Version
CURVE	TABLE	106
	Pt	T	Vf	Im	Vu	Pwr	Sig	Ach	Temp	IERange	Over
	#	s	V	A	V	W	V	V	deg C	#	bits
	0	0.013333	3.90102E-001	4.00962E-004	0.00000E+000	1.56416E-004	2.40040E-001	3.90201E-001	3.57680E+000	9	...........
	1	0.026667	4.03072E-001	4.01337E-004	0.00000E+000	1.61768E-004	2.40040E-001	4.03148E-001	3.57680E+000	9	...........
	2	0.04	4.14052E-001	4.00467E-004	0.00000E+000	1.65814E-004	2.40040E-001	4.14131E-001	3.57680E+000	9	...........
	3	0.053333	4.23976E-001	4.01291E-004	0.00000E+000	1.70138E-004	2.40040E-001	4.24058E-001	3.57680E+000	9	...........
	4	0.066667	4.33235E-001	4.00852E-004	0.00000E+000	1.73663E-004	2.40040E-001	4.33322E-001	3.57680E+000	9	...........
	5	0.08	4.41928E-001	4.02013E-004	0.00000E+000	1.77661E-004	2.40040E-001	4.42021E-001	3.57680E+000	9	...........
	6	0.093333	4.50332E-001	4.00706E-004	0.00000E+000	1.80451E-004	2.40040E-001	4.50430E-001	3.57680E+000	9	...........
	7	0.106667	4.58432E-001	4.01530E-004	0.00000E+000	1.84074E-004	2.40040E-001	4.58527E-001	3.57680E+000	9	...........
	8	0.12	4.66345E-001	4.02459E-004	0.00000E+000	1.87685E-004	2.40040E-001	4.66443E-001	3.57680E+000	9	...........
	9	0.133333	4.74149E-001	4.00868E-004	0.00000E+000	1.90071E-004	2.40040E-001	4.74241E-001	3.57680E+000	9	...........
	10	0.146667	4.81771E-001	4.01062E-004	0.00000E+000	1.93220E-004	2.40040E-001	4.81871E-001	3.57680E+000	9	...........
	11	0.16	4.89212E-001	4.00625E-004	0.00000E+000	1.95991E-004	2.40040E-001	4.89312E-001	3.57680E+000	9	...........
	12	0.173333	4.96561E-001	3.99346E-004	0.00000E+000	1.98299E-004	2.40040E-001	4.96660E-001	3.57680E+000	9	...........
	13	0.186667	5.03814E-001	4.02733E-004	0.00000E+000	2.02902E-004	2.40040E-001	5.03916E-001	3.57680E+000	9	...........
	14	0.2	5.10969E-001	4.01235E-004	0.00000E+000	2.05018E-004	2.40040E-001	5.11069E-001	3.57680E+000	9	...........
	15	0.213333	5.17975E-001	4.00057E-004	0.00000E+000	2.07220E-004	2.40040E-001	5.18075E-001	3.57680E+000	9	...........
	16	0.226667	5.24909E-001	4.00842E-004	0.00000E+000	2.10406E-004	2.40040E-001	5.25012E-001	3.57680E+000	9	...........
	17	0.24	5.31720E-001	4.01852E-004	0.00000E+000	2.13673E-004	2.40040E-001	5.31848E-001	3.57680E+000	9	...........
	18	0.253333	5.38297E-001	4.01300E-004	0.00000E+000	2.16019E-004	2.40040E-001	5.38525E-001	3.57680E+000	9	...........
	19	0.266667	5.45044E-001	4.01128E-004	0.00000E+000	2.18633E-004	2.40040E-001	5.45276E-001	3.57680E+000	9	...........
	20	0.28	5.51794E-001	4.01751E-004	0.00000E+000	2.21684E-004	2.40040E-001	5.52037E-001	3.57680E+000	9	...........
	21	0.293333	5.58495E-001	3.99874E-004	0.00000E+000	2.23328E-004	2.40040E-001	5.58739E-001	3.57680E+000	9	...........
	22	0.306667	5.65133E-001	4.01046E-004	0.00000E+000	2.26644E-004	2.40040E-001	5.65369E-001	3.57680E+000	9	...........
	23	0.32	5.71728E-001	4.01870E-004	0.00000E+000	2.29760E-004	2.40040E-001	5.71936E-001	3.57680E+000	9	...........
	24	0.333333	5.78170E-001	4.01166E-004	0.00000E+000	2.31942E-004	2.40040E-001	5.78401E-001	3.57680E+000	9	...........
	25	0.346667	5.84654E-001	4.01541E-004	0.00000E+000	2.34762E-004	2.40040E-001	5.84871E-001	3.57680E+000	9	...........
	26	0.36	5.91165E-001	4.01910E-004	0.00000E+000	2.37595E-004	2.40040E-001	5.91378E-001	3.57680E+000	9	...........
	27	0.373333	5.97595E-001	4.01088E-004	0.00000E+000	2.39688E-004	2.40040E-001	5.97795E-001	3.57680E+000	9	...........
	28	0.386667	6.04000E-001	4.00797E-004	0.00000E+000	2.42081E-004	2.40040E-001	6.04237E-001	3.57680E+000	9	...........
	29	0.4	6.10392E-001	4.01025E-004	0.00000E+000	2.44783E-004	2.40040E-001	6.10633E-001	3.57680E+000	9	...........
	30	0.413333	6.16777E-001	4.01403E-004	0.00000E+000	2.47576E-004	2.40040E-001	6.16982E-001	3.57680E+000	9	...........
	31	0.426667	6.23120E-001	4.01285E-004	0.00000E+000	2.50049E-004	2.40040E-001	6.23304E-001	3.57677E+000	9	...........
	32	0.44	6.29397E-001	4.01400E-004	0.00000E+000	2.52640E-004	2.40040E-001	6.29606E-001	3.57670E+000	9	...........
	33	0.453333	6.35649E-001	4.00380E-004	0.00000E+000	2.54501E-004	2.40040E-001	6.35893E-001	3.57670E+000	9	...........
	34	0.466667	6.42010E-001	4.00791E-004	0.00000E+000	2.57312E-004	2.40040E-001	6.42222E-001	3.57670E+000	9	...........
	35	0.48	6.48212E-001	4.02010E-004	0.00000E+000	2.60588E-004	2.40040E-001	6.48409E-001	3.57670E+000	9	...........
	36	0.493333	6.54433E-001	4.00480E-004	0.00000E+000	2.62088E-004	2.40040E-001	6.54649E-001	3.57670E+000	9	...........
	37	0.506667	6.60601E-001	4.01494E-004	0.00000E+000	2.65227E-004	2.40040E-001	6.60808E-001	3.57670E+000	9	...........
	38	0.52	6.66768E-001	3.99760E-004	0.00000E+000	2.66547E-004	2.40040E-001	6.67004E-001	3.57670E+000	9	...........
	39	0.533333	6.72893E-001	4.00852E-004	0.00000E+000	2.69731E-004	2.40040E-001	6.73127E-001	3.57670E+000	9	...........
	40	0.546667	6.78997E-001	4.00474E-004	0.00000E+000	2.71921E-004	2.40040E-001	6.79224E-001	3.57670E+000	9	...........
	41	0.56	6.85002E-001	3.99483E-004	0.00000E+000	2.73647E-004	2.40040E-001	6.85238E-001	3.57670E+000	9	...........
	42	0.573333	6.90981E-001	4.00092E-004	0.00000E+000	2.76456E-004	2.40040E-001	6.91238E-001	3.57670E+000	9	...........
	43	0.586667	6.97047E-001	4.02432E-004	0.00000E+000	2.80514E-004	2.40040E-001	6.97291E-001	3.57670E+000	9	...........
	44	0.6	7.03022E-001	4.00529E-004	0.00000E+000	2.81581E-004	2.40040E-001	7.03290E-001	3.57670E+000	9	...........
	45	0.613333	7.08953E-001	4.00685E-004	0.00000E+000	2.84067E-004	2.40040E-001	7.09238E-001	3.57670E+000	9	...........
	46	0.626667	7.14849E-001	4.00866E-004	0.00000E+000	2.86559E-004	2.40040E-001	7.15128E-001	3.57670E+000	9	...........
	47	0.64	7.20767E-001	3.99159E-004	0.00000E+000	2.87701E-004	2.40040E-001	7.21036E-001	3.57670E+000	9	...........
	48	0.653333	7.26622E-001	4.00785E-004	0.00000E+000	2.91219E-004	2.40040E-001	7.26880E-001	3.57670E+000	9	...........
	49	0.666667	7.32470E-001	4.01298E-004	0.00000E+000	2.93939E-004	2.40040E-001	7.32731E-001	3.57670E+000	9	...........
	50	0.68	7.38296E-001	4.01550E-004	0.00000E+000	2.96463E-004	2.40040E-001	7.38583E-001	3.57670E+000	9	...........
	51	0.693333	7.44046E-001	4.01560E-004	0.00000E+000	2.98779E-004	2.40040E-001	7.44324E-001	3.57670E+000	9	...........
	52	0.706667	7.49784E-001	4.00560E-004	0.00000E+000	3.00333E-004	2.40040E-001	7.50049E-001	3.57670E+000	9	...........
	53	0.72	7.55514E-001	4.02097E-004	0.00000E+000	3.03790E-004	2.40040E-001	7.55769E-001	3.57670E+000	9	...........
	54	0.733333	7.61204E-001	4.01377E-004	0.00000E+000	3.05530E-004	2.40040E-001	7.61451E-001	3.57670E+000	9	...........
	55	0.746667	7.66862E-001	4.00812E-004	0.00000E+000	3.07367E-004	2.40040E-001	7.67140E-001	3.57670E+000	9	...........
	56	0.76	7.72529E-001	4.00079E-004	0.00000E+000	3.09073E-004	2.40040E-001	7.72771E-001	3.57670E+000	9	...........
	57	0.773333	7.78094E-001	4.00383E-004	0.00000E+000	3.11536E-004	2.40040E-001	7.78370E-001	3.57670E+000	9	...........
	58	0.786667	7.83669E-001	4.00793E-004	0.00000E+000	3.14089E-004	2.40040E-001	7.83909E-001	3.57670E+000	9	...........
	59	0.8	7.89182E-001	4.01741E-004	0.00000E+000	3.17047E-004	2.40040E-001	7.89435E-001	3.57670E+000	9	...........
	60	0.813333	7.94641E-001	4.00506E-004	0.00000E+000	3.18259E-004	2.40040E-001	7.94873E-001	3.57670E+000	9	...........
	61	0.826667	8.00000E-001	4.00399E-004	0.00000E+000	3.20319E-004	2.40040E-001	8.00260E-001	3.57670E+000	9	...........
	62	0.84	8.05332E-001	4.02159E-004	0.00000E+000	3.23871E-004	2.40040E-001	8.05598E-001	3.57670E+000	9	...........
	63	0.853333	8.10657E-001	3.99791E-004	0.00000E+000	3.24093E-004	2.40040E-001	8.10908E-001	3.57670E+000	9	...........
	64	0.866667	8.15973E-001	4.00146E-004	0.00000E+000	3.26508E-004	2.40040E-001	8.16236E-001	3.57670E+000	9	...........
	65	0.88	8.21369E-001	4.00234E-004	0.00000E+000	3.28740E-004	2.40040E-001	8.21626E-001	3.57670E+000	9	...........
	66	0.893333	8.26673E-001	4.01364E-004	0.00000E+000	3.31797E-004	2.40040E-001	8.26933E-001	3.57670E+000	9	...........
	67	0.906667	8.31898E-001	3.99990E-004	0.00000E+000	3.32750E-004	2.40040E-001	8.32180E-001	3.57670E+000	9	...........
	68	0.92	8.37080E-001	4.00846E-004	0.00000E+000	3.35540E-004	2.40040E-001	8.37398E-001	3.57670E+000	9	...........
	69	0.933333	8.42225E-001	3.99858E-004	0.00000E+000	3.36771E-004	2.40040E-001	8.42510E-001	3.57670E+000	9	...........
	70	0.946667	8.47308E-001	4.00707E-004	0.00000E+000	3.39523E-004	2.40040E-001	8.47632E-001	3.57670E+000	9	...........
	71	0.96	8.52436E-001	4.00113E-004	0.00000E+000	3.41071E-004	2.40040E-001	8.52747E-001	3.57670E+000	9	...........
	72	0.97333	8.57485E-001	4.02284E-004	0.00000E+000	3.44952E-004	2.40040E-001	8.57798E-001	3.57670E+000	9	...........
	73	0.98667	8.62456E-001	4.00835E-004	0.00000E+000	3.45702E-004	2.40040E-001	8.62801E-001	3.57670E+000	9	...........
	74	1	8.67462E-001	4.00971E-004	0.00000E+000	3.47827E-004	2.40040E-001	8.67764E-001	3.57670E+000	9	...........
	75	1.01333	8.72358E-001	4.00637E-004	0.00000E+000	3.49498E-004	2.40040E-001	8.72672E-001	3.57670E+000	9	...........
	76	1.02667	8.77209E-001	4.00026E-004	0.00000E+000	3.50907E-004	2.40040E-001	8.77556E-001	3.57670E+000	9	...........
	77	1.04	8.82092E-001	4.01616E-004	0.00000E+000	3.54262E-004	2.40040E-001	8.82442E-001	3.57670E+000	9	...........
	78	1.05333	8.86888E-001	4.00879E-004	0.00000E+000	3.55535E-004	2.40040E-001	8.87209E-001	3.57670E+000	9	...........
	79	1.06667	8.91618E-001	4.00413E-004	0.00000E+000	3.57015E-004	2.40040E-001	8.91937E-001	3.57670E+000	9	...........
	80	1.08	8.96269E-001	4.01208E-004	0.00000E+000	3.59590E-004	2.40040E-001	8.96608E-001	3.57670E+000	9	...........
	81	1.09333	9.00951E-001	3.99451E-004	0.00000E+000	3.59886E-004	2.40040E-001	9.01264E-001	3.57670E+000	9	...........
	82	1.10667	9.05621E-001	4.00826E-004	0.00000E+000	3.62997E-004	2.40040E-001	9.05959E-001	3.57670E+000	9	...........
	83	1.12	9.10244E-001	4.01395E-004	0.00000E+000	3.65368E-004	2.40040E-001	9.10512E-001	3.57670E+000	9	...........
	84	1.13333	9.14739E-001	4.00784E-004	0.00000E+000	3.66613E-004	2.40040E-001	9.15047E-001	3.57670E+000	9	...........
	85	1.14667	9.19264E-001	4.01759E-004	0.00000E+000	3.69322E-004	2.40040E-001	9.19559E-001	3.57670E+000	9	...........
	86	1.16	9.23739E-001	4.01385E-004	0.00000E+000	3.70775E-004	2.40040E-001	9.24017E-001	3.57670E+000	9	...........
	87	1.17333	9.28121E-001	4.00796E-004	0.00000E+000	3.71987E-004	2.40040E-001	9.28402E-001	3.57670E+000	9	...........
	88	1.18667	9.32461E-001	3.99943E-004	0.00000E+000	3.72931E-004	2.40040E-001	9.32718E-001	3.57670E+000	9	...........
	89	1.2	9.36803E-001	4.00334E-004	0.00000E+000	3.75034E-004	2.40040E-001	9.37094E-001	3.57670E+000	9	...........
	90	1.21333	9.41083E-001	4.00384E-004	0.00000E+000	3.76795E-004	2.40040E-001	9.41401E-001	3.57670E+000	9	...........
	91	1.22667	9.45351E-001	4.00426E-004	0.00000E+000	3.78543E-004	2.40040E-001	9.45658E-001	3.57670E+000	9	...........
	92	1.24	9.49601E-001	4.01304E-004	0.00000E+000	3.81079E-004	2.40040E-001	9.49938E-001	3.57670E+000	9	...........
	93	1.25333	9.53793E-001	4.00533E-004	0.00000E+000	3.82026E-004	2.40040E-001	9.54108E-001	3.57670E+000	9	...........
	94	1.26667	9.57877E-001	4.00948E-004	0.00000E+000	3.84059E-004	2.40040E-001	9.58198E-001	3.57670E+000	9	...........
	95	1.28	9.61991E-001	4.01503E-004	0.00000E+000	3.86243E-004	2.40040E-001	9.62320E-001	3.57670E+000	9	...........
	96	1.29333	9.66033E-001	4.01537E-004	0.00000E+000	3.87898E-004	2.40040E-001	9.66359E-001	3.57670E+000	9	...........
	97	1.30667	9.69996E-001	4.00388E-004	0.00000E+000	3.88374E-004	2.40040E-001	9.70340E-001	3.57670E+000	9	...........
	98	1.32	9.73966E-001	4.00863E-004	0.00000E+000	3.90427E-004	2.40040E-001	9.74279E-001	3.57670E+000	9	...........
	99	1.33333	9.77845E-001	4.00451E-004	0.00000E+000	3.91579E-004	2.40040E-001	9.78164E-001	3.57670E+000	9	...........
	100	1.34667	9.81657E-001	4.00592E-004	0.00000E+000	3.93244E-004	2.40040E-001	9.81984E-001	3.57670E+000	9	...........
	101	1.36	9.85483E-001	4.00570E-004	0.00000E+000	3.94755E-004	2.40040E-001	9.85816E-001	3.57670E+000	9	...........
	102	1.37333	9.89310E-001	4.02313E-004	0.00000E+000	3.98012E-004	2.40040E-001	9.89615E-001	3.57670E+000	9	...........
	103	1.38667	9.93056E-001	4.02589E-004	0.00000E+000	3.99793E-004	2.40040E-001	9.93360E-001	3.57670E+000	9	...........
	104	1.4	9.96779E-001	4.00595E-004	0.00000E+000	3.99304E-004	2.40040E-001	9.97106E-001	3.57670E+000	9	...........
	105	1.40667	9.99563E-001	4.02678E-004	0.00000E+000	4.02502E-004	2.40040E-001	9.99885E-001	3.57670E+000	9	...........
STARTTIMEOFFSET	QUANT	2909.643	Start Time Offset (s)
