EXPLAIN
TAG	PWR800_CHARGE
TITLE	LABEL	PWR Cyclic Charge Discharge (Cell) - Charge Step	Test &Identifier
DATE	LABEL	12-7-2017	Date
TIME	LABEL	15:05:30	Time
NOTES	NOTES	3	&Notes...
	supercap test cell
	0.4mg
	6M KOH
PSTAT	PSTAT	IFC5000-01520	Potentiostat
CAPACITY	QUANT	1.00000E-003	Capacity (A-hr)
CELLTYPE	SELECTOR	1	&Cell Type
WORKINGCONNECTION	SELECTOR	0	&Working Lead
MAXCHARGETIME	VARIABLEANDUNITS	1.00000E+002	s	1.00000E+002	second(s)	Max &Charge Time
CHARGECURRENT	QUANT	4.00000E-004	&Charge Current (A) 
VOLTAGEFINISH	TWOPARAM	F	1.00000E-003	3.60000E+003	&Voltage Finish	 I (A) < 	Max Time(s)
SAMPLETIME	QUANT	1.00000E-002	Sa&mple Period (s)
CHARGESTOPAT1	MULTIPARAM	4	1.00000E+000	Charge Stop At &1	Voltage > Limit	V
CHARGESTOPAT2	MULTIPARAM	0	0.00000E+000	Charge Stop At &2	None	N/A
AESBHCSELECTOR	TOGGLE	F	Save Both Half Cells
IRCOMP	TOGGLE	F	IR &Measure
EOC	QUANT	0	Open Circuit (V)
SEQUENCER	TOGGLE	TRUE	Run as Sequence
PSTATMODEL	IQUANT	53	Pstat Model
PSTATSECTION	LABEL	IFC5000-01520	Pstat Section
PSTATSERIALNO	LABEL	01520	Pstat Serial Number
CTRLMODE	IQUANT	0	Control Mode
ELECTROMETER	IQUANT	1	RE=0 or CS=1
IESTAB	IQUANT	0	I/E Stability
CASPEED	IQUANT	4	Control Amp Speed
CONVENTION	IQUANT	1	Current Convention
ICHRANGE	IQUANT	2	Ich Range
ICHRANGEMODE	TOGGLE	T	Ich Auto Range
ICHOFFSETENABLE	TOGGLE	F	Ich Offset Enable
ICHOFFSET	QUANT	0	Ich Offset (V)
ICHFILTER	IQUANT	1	Ich Filter
VCHRANGE	IQUANT	2	Vch Range
VCHRANGEMODE	TOGGLE	T	Vch Auto Range
VCHOFFSETENABLE	TOGGLE	F	Vch Offset Enable
VCHOFFSET	QUANT	0	Vch Offset (V)
VCHFILTER	IQUANT	1	Vch Filter
IERANGELOWERLIMIT	IQUANT	9	I/E Range Lower Limit
IERANGEMODE	TOGGLE	F	I/E AutoRange
IERANGE	IQUANT	9	I/E Range
ACHSELECT	IQUANT	1	Ach Select
ACHRANGE	IQUANT	2	Ach Range
ACHOFFSETENABLE	TOGGLE	F	Ach Offset Enable
ACHOFFSET	QUANT	0	Ach Offset (V)
ACHFILTER	IQUANT	1	Ach Filter
CABLEID	IQUANT	14	Cable ID
DCCALDATE	LABEL	5-7-2017	DC Calibration Date
ACCALDATE	LABEL	12/3/2015	AC Calibration Date
FRAMEWORKVERSION	QUANT	7.01	Framework Version
INSTRUMENTVERSION	LABEL	4.00	Instrument Version
CURVE	TABLE	111
	Pt	T	Vf	Im	Vu	Pwr	Sig	Ach	Temp	IERange	Over
	#	s	V	A	V	W	V	V	deg C	#	bits
	0	0.013333	3.78709E-001	4.01575E-004	0.00000E+000	1.52080E-004	2.40040E-001	3.78799E-001	3.57630E+000	9	...........
	1	0.026667	3.90975E-001	4.02284E-004	0.00000E+000	1.57283E-004	2.40040E-001	3.91057E-001	3.57630E+000	9	...........
	2	0.04	4.01456E-001	4.00888E-004	0.00000E+000	1.60939E-004	2.40040E-001	4.01531E-001	3.57630E+000	9	...........
	3	0.053333	4.10987E-001	4.01194E-004	0.00000E+000	1.64886E-004	2.40040E-001	4.11066E-001	3.57630E+000	9	...........
	4	0.066667	4.19910E-001	4.00486E-004	0.00000E+000	1.68168E-004	2.40040E-001	4.20000E-001	3.57630E+000	9	...........
	5	0.08	4.28348E-001	4.00550E-004	0.00000E+000	1.71575E-004	2.40040E-001	4.28441E-001	3.57630E+000	9	...........
	6	0.093333	4.36461E-001	4.00830E-004	0.00000E+000	1.74947E-004	2.40040E-001	4.36553E-001	3.57630E+000	9	...........
	7	0.106667	4.44344E-001	4.01145E-004	0.00000E+000	1.78246E-004	2.40040E-001	4.44435E-001	3.57630E+000	9	...........
	8	0.12	4.52024E-001	3.99773E-004	0.00000E+000	1.80707E-004	2.40040E-001	4.52116E-001	3.57630E+000	9	...........
	9	0.133333	4.59576E-001	4.01135E-004	0.00000E+000	1.84352E-004	2.40040E-001	4.59673E-001	3.57630E+000	9	...........
	10	0.146667	4.66935E-001	4.00190E-004	0.00000E+000	1.86862E-004	2.40040E-001	4.67036E-001	3.57630E+000	9	...........
	11	0.16	4.74189E-001	4.01353E-004	0.00000E+000	1.90317E-004	2.40040E-001	4.74285E-001	3.57630E+000	9	...........
	12	0.173333	4.81300E-001	4.00297E-004	0.00000E+000	1.92663E-004	2.40040E-001	4.81400E-001	3.57630E+000	9	...........
	13	0.186667	4.88281E-001	4.01979E-004	0.00000E+000	1.96279E-004	2.40040E-001	4.88377E-001	3.57630E+000	9	...........
	14	0.2	4.95195E-001	4.00123E-004	0.00000E+000	1.98139E-004	2.40040E-001	4.95295E-001	3.57630E+000	9	...........
	15	0.213333	5.02059E-001	4.01279E-004	0.00000E+000	2.01466E-004	2.40040E-001	5.02164E-001	3.57630E+000	9	...........
	16	0.226667	5.08818E-001	4.02006E-004	0.00000E+000	2.04548E-004	2.40040E-001	5.08926E-001	3.57630E+000	9	...........
	17	0.24	5.15494E-001	4.00856E-004	0.00000E+000	2.06639E-004	2.40040E-001	5.15601E-001	3.57650E+000	9	...........
	18	0.253333	5.22118E-001	4.01802E-004	0.00000E+000	2.09788E-004	2.40040E-001	5.22225E-001	3.57670E+000	9	...........
	19	0.266667	5.28621E-001	4.01184E-004	0.00000E+000	2.12074E-004	2.40040E-001	5.28731E-001	3.57670E+000	9	...........
	20	0.28	5.34915E-001	4.01229E-004	0.00000E+000	2.14624E-004	2.40040E-001	5.35098E-001	3.57670E+000	9	...........
	21	0.293333	5.41330E-001	4.01436E-004	0.00000E+000	2.17309E-004	2.40040E-001	5.41529E-001	3.57670E+000	9	...........
	22	0.306667	5.47741E-001	4.00639E-004	0.00000E+000	2.19446E-004	2.40040E-001	5.47954E-001	3.57670E+000	9	...........
	23	0.32	5.54171E-001	4.01814E-004	0.00000E+000	2.22674E-004	2.40040E-001	5.54402E-001	3.57670E+000	9	...........
	24	0.333333	5.60574E-001	4.01329E-004	0.00000E+000	2.24975E-004	2.40040E-001	5.60797E-001	3.57670E+000	9	...........
	25	0.346667	5.66972E-001	4.01002E-004	0.00000E+000	2.27357E-004	2.40040E-001	5.67195E-001	3.57670E+000	9	...........
	26	0.36	5.73275E-001	4.01705E-004	0.00000E+000	2.30287E-004	2.40040E-001	5.73492E-001	3.57670E+000	9	...........
	27	0.373333	5.79441E-001	4.00637E-004	0.00000E+000	2.32145E-004	2.40040E-001	5.79687E-001	3.57670E+000	9	...........
	28	0.386667	5.85655E-001	4.01944E-004	0.00000E+000	2.35401E-004	2.40040E-001	5.85908E-001	3.57670E+000	9	...........
	29	0.4	5.91945E-001	4.01378E-004	0.00000E+000	2.37594E-004	2.40040E-001	5.92182E-001	3.57670E+000	9	...........
	30	0.413333	5.98101E-001	4.01108E-004	0.00000E+000	2.39903E-004	2.40040E-001	5.98346E-001	3.57670E+000	9	...........
	31	0.426667	6.04201E-001	4.01205E-004	0.00000E+000	2.42409E-004	2.40040E-001	6.04448E-001	3.57670E+000	9	...........
	32	0.44	6.10269E-001	4.01264E-004	0.00000E+000	2.44879E-004	2.40040E-001	6.10526E-001	3.57670E+000	9	...........
	33	0.453333	6.16486E-001	4.00865E-004	0.00000E+000	2.47127E-004	2.40040E-001	6.16684E-001	3.57670E+000	9	...........
	34	0.466667	6.22564E-001	4.00580E-004	0.00000E+000	2.49387E-004	2.40040E-001	6.22749E-001	3.57670E+000	9	...........
	35	0.48	6.28604E-001	4.00977E-004	0.00000E+000	2.52056E-004	2.40040E-001	6.28839E-001	3.57670E+000	9	...........
	36	0.493333	6.34633E-001	4.00908E-004	0.00000E+000	2.54429E-004	2.40040E-001	6.34854E-001	3.57670E+000	9	...........
	37	0.506667	6.40633E-001	4.00740E-004	0.00000E+000	2.56727E-004	2.40040E-001	6.40872E-001	3.57670E+000	9	...........
	38	0.52	6.46614E-001	4.00713E-004	0.00000E+000	2.59106E-004	2.40040E-001	6.46823E-001	3.57670E+000	9	...........
	39	0.533333	6.52590E-001	4.00746E-004	0.00000E+000	2.61523E-004	2.40040E-001	6.52809E-001	3.57670E+000	9	...........
	40	0.546667	6.58489E-001	4.01618E-004	0.00000E+000	2.64461E-004	2.40040E-001	6.58710E-001	3.57670E+000	9	...........
	41	0.56	6.64291E-001	4.00558E-004	0.00000E+000	2.66087E-004	2.40040E-001	6.64526E-001	3.57670E+000	9	...........
	42	0.573333	6.70238E-001	3.99897E-004	0.00000E+000	2.68026E-004	2.40040E-001	6.70458E-001	3.57670E+000	9	...........
	43	0.586667	6.76091E-001	4.00807E-004	0.00000E+000	2.70982E-004	2.40040E-001	6.76302E-001	3.57670E+000	9	...........
	44	0.6	6.81877E-001	4.01171E-004	0.00000E+000	2.73549E-004	2.40040E-001	6.82119E-001	3.57670E+000	9	...........
	45	0.613333	6.87676E-001	4.00228E-004	0.00000E+000	2.75227E-004	2.40040E-001	6.87909E-001	3.57670E+000	9	...........
	46	0.626667	6.93560E-001	3.99750E-004	0.00000E+000	2.77251E-004	2.40040E-001	6.93800E-001	3.57670E+000	9	...........
	47	0.64	6.99341E-001	4.01469E-004	0.00000E+000	2.80764E-004	2.40040E-001	6.99580E-001	3.57670E+000	9	...........
	48	0.653333	7.05101E-001	4.00140E-004	0.00000E+000	2.82139E-004	2.40040E-001	7.05361E-001	3.57670E+000	9	...........
	49	0.666667	7.10809E-001	4.01060E-004	0.00000E+000	2.85077E-004	2.40040E-001	7.11060E-001	3.57670E+000	9	...........
	50	0.68	7.16513E-001	4.01287E-004	0.00000E+000	2.87527E-004	2.40040E-001	7.16784E-001	3.57670E+000	9	...........
	51	0.693333	7.22262E-001	4.01650E-004	0.00000E+000	2.90097E-004	2.40040E-001	7.22518E-001	3.57670E+000	9	...........
	52	0.706667	7.27945E-001	4.01103E-004	0.00000E+000	2.91981E-004	2.40040E-001	7.28191E-001	3.57670E+000	9	...........
	53	0.72	7.33581E-001	4.01490E-004	0.00000E+000	2.94525E-004	2.40040E-001	7.33836E-001	3.57670E+000	9	...........
	54	0.733333	7.39176E-001	4.00226E-004	0.00000E+000	2.95837E-004	2.40040E-001	7.39435E-001	3.57670E+000	9	...........
	55	0.746667	7.44770E-001	4.01459E-004	0.00000E+000	2.98995E-004	2.40040E-001	7.45023E-001	3.57670E+000	9	...........
	56	0.76	7.50320E-001	4.00930E-004	0.00000E+000	3.00826E-004	2.40040E-001	7.50566E-001	3.57670E+000	9	...........
	57	0.773333	7.55821E-001	4.00260E-004	0.00000E+000	3.02525E-004	2.40040E-001	7.56075E-001	3.57670E+000	9	...........
	58	0.786667	7.61305E-001	4.01182E-004	0.00000E+000	3.05422E-004	2.40040E-001	7.61531E-001	3.57670E+000	9	...........
	59	0.8	7.66769E-001	4.00984E-004	0.00000E+000	3.07462E-004	2.40040E-001	7.67024E-001	3.57670E+000	9	...........
	60	0.813333	7.72231E-001	4.00710E-004	0.00000E+000	3.09440E-004	2.40040E-001	7.72477E-001	3.57670E+000	9	...........
	61	0.826667	7.77629E-001	4.00938E-004	0.00000E+000	3.11781E-004	2.40040E-001	7.77901E-001	3.57670E+000	9	...........
	62	0.84	7.83037E-001	4.00818E-004	0.00000E+000	3.13855E-004	2.40040E-001	7.83321E-001	3.57670E+000	9	...........
	63	0.853333	7.88395E-001	4.01109E-004	0.00000E+000	3.16232E-004	2.40040E-001	7.88657E-001	3.57670E+000	9	...........
	64	0.866667	7.93677E-001	4.00687E-004	0.00000E+000	3.18016E-004	2.40040E-001	7.93945E-001	3.57670E+000	9	...........
	65	0.88	7.98977E-001	4.01236E-004	0.00000E+000	3.20578E-004	2.40040E-001	7.99213E-001	3.57670E+000	9	...........
	66	0.893333	8.04307E-001	4.01058E-004	0.00000E+000	3.22574E-004	2.40040E-001	8.04550E-001	3.57670E+000	9	...........
	67	0.906667	8.09592E-001	4.01368E-004	0.00000E+000	3.24944E-004	2.40040E-001	8.09821E-001	3.57670E+000	9	...........
	68	0.92	8.14719E-001	4.01882E-004	0.00000E+000	3.27421E-004	2.40040E-001	8.14972E-001	3.57670E+000	9	...........
	69	0.933333	8.19882E-001	4.00821E-004	0.00000E+000	3.28626E-004	2.40040E-001	8.20136E-001	3.57670E+000	9	...........
	70	0.946667	8.25093E-001	4.01707E-004	0.00000E+000	3.31445E-004	2.40040E-001	8.25372E-001	3.57670E+000	9	...........
	71	0.96	8.30233E-001	4.00767E-004	0.00000E+000	3.32730E-004	2.40040E-001	8.30487E-001	3.57670E+000	9	...........
	72	0.97333	8.35308E-001	4.01179E-004	0.00000E+000	3.35108E-004	2.40040E-001	8.35596E-001	3.57670E+000	9	...........
	73	0.98667	8.40390E-001	4.01475E-004	0.00000E+000	3.37396E-004	2.40040E-001	8.40672E-001	3.57670E+000	9	...........
	74	1	8.45365E-001	4.00458E-004	0.00000E+000	3.38534E-004	2.40040E-001	8.45677E-001	3.57670E+000	9	...........
	75	1.01333	8.50294E-001	4.01186E-004	0.00000E+000	3.41126E-004	2.40040E-001	8.50588E-001	3.57670E+000	9	...........
	76	1.02667	8.55156E-001	4.01247E-004	0.00000E+000	3.43129E-004	2.40040E-001	8.55453E-001	3.57670E+000	9	...........
	77	1.04	8.60017E-001	4.01341E-004	0.00000E+000	3.45160E-004	2.40040E-001	8.60301E-001	3.57670E+000	9	...........
	78	1.05333	8.64811E-001	3.99567E-004	0.00000E+000	3.45550E-004	2.40040E-001	8.65059E-001	3.57670E+000	9	...........
	79	1.06667	8.69613E-001	4.01392E-004	0.00000E+000	3.49056E-004	2.40040E-001	8.69883E-001	3.57670E+000	9	...........
	80	1.08	8.74430E-001	4.01799E-004	0.00000E+000	3.51345E-004	2.40040E-001	8.74694E-001	3.57670E+000	9	...........
	81	1.09333	8.79183E-001	4.00690E-004	0.00000E+000	3.52279E-004	2.40040E-001	8.79437E-001	3.57670E+000	9	...........
	82	1.10667	8.83876E-001	4.00422E-004	0.00000E+000	3.53923E-004	2.40040E-001	8.84159E-001	3.57670E+000	9	...........
	83	1.12	8.88514E-001	4.00763E-004	0.00000E+000	3.56083E-004	2.40040E-001	8.88803E-001	3.57670E+000	9	...........
	84	1.13333	8.93152E-001	4.00399E-004	0.00000E+000	3.57617E-004	2.40040E-001	8.93455E-001	3.57670E+000	9	...........
	85	1.14667	8.97753E-001	4.00694E-004	0.00000E+000	3.59724E-004	2.40040E-001	8.98049E-001	3.57670E+000	9	...........
	86	1.16	9.02320E-001	4.02586E-004	0.00000E+000	3.63261E-004	2.40040E-001	9.02627E-001	3.57670E+000	9	...........
	87	1.17333	9.06794E-001	4.00575E-004	0.00000E+000	3.63239E-004	2.40040E-001	9.07130E-001	3.57670E+000	9	...........
	88	1.18667	9.11288E-001	4.01189E-004	0.00000E+000	3.65599E-004	2.40040E-001	9.11580E-001	3.57670E+000	9	...........
	89	1.2	9.15687E-001	4.01698E-004	0.00000E+000	3.67830E-004	2.40040E-001	9.15999E-001	3.57670E+000	9	...........
	90	1.21333	9.20116E-001	4.00569E-004	0.00000E+000	3.68570E-004	2.40040E-001	9.20392E-001	3.57670E+000	9	...........
	91	1.22667	9.24514E-001	3.99919E-004	0.00000E+000	3.69731E-004	2.40040E-001	9.24769E-001	3.57670E+000	9	...........
	92	1.24	9.28823E-001	4.00770E-004	0.00000E+000	3.72245E-004	2.40040E-001	9.29076E-001	3.57675E+000	9	...........
	93	1.25333	9.33059E-001	4.01717E-004	0.00000E+000	3.74826E-004	2.40040E-001	9.33338E-001	3.57680E+000	9	...........
	94	1.26667	9.37288E-001	4.01310E-004	0.00000E+000	3.76143E-004	2.40040E-001	9.37599E-001	3.57680E+000	9	...........
	95	1.28	9.41498E-001	4.01473E-004	0.00000E+000	3.77986E-004	2.40040E-001	9.41798E-001	3.57680E+000	9	...........
	96	1.29333	9.45641E-001	4.00780E-004	0.00000E+000	3.78994E-004	2.40040E-001	9.45951E-001	3.57680E+000	9	...........
	97	1.30667	9.49742E-001	4.01695E-004	0.00000E+000	3.81507E-004	2.40040E-001	9.50059E-001	3.57680E+000	9	...........
	98	1.32	9.53860E-001	4.01584E-004	0.00000E+000	3.83055E-004	2.40040E-001	9.54194E-001	3.57680E+000	9	...........
	99	1.33333	9.57939E-001	4.01547E-004	0.00000E+000	3.84658E-004	2.40040E-001	9.58274E-001	3.57680E+000	9	...........
	100	1.34667	9.61911E-001	4.00539E-004	0.00000E+000	3.85282E-004	2.40040E-001	9.62259E-001	3.57680E+000	9	...........
	101	1.36	9.65843E-001	4.01066E-004	0.00000E+000	3.87367E-004	2.40040E-001	9.66201E-001	3.57680E+000	9	...........
	102	1.37333	9.69715E-001	4.00640E-004	0.00000E+000	3.88506E-004	2.40040E-001	9.70089E-001	3.57680E+000	9	...........
	103	1.38667	9.73681E-001	4.00930E-004	0.00000E+000	3.90378E-004	2.40040E-001	9.74012E-001	3.57680E+000	9	...........
	104	1.4	9.77523E-001	4.00319E-004	0.00000E+000	3.91321E-004	2.40040E-001	9.77881E-001	3.57680E+000	9	...........
	105	1.41333	9.81299E-001	4.01028E-004	0.00000E+000	3.93529E-004	2.40040E-001	9.81636E-001	3.57680E+000	9	...........
	106	1.42667	9.85045E-001	4.01668E-004	0.00000E+000	3.95661E-004	2.40040E-001	9.85377E-001	3.57680E+000	9	...........
	107	1.44	9.88779E-001	4.00586E-004	0.00000E+000	3.96091E-004	2.40040E-001	9.89134E-001	3.57680E+000	9	...........
	108	1.45333	9.92450E-001	4.00174E-004	0.00000E+000	3.97153E-004	2.40040E-001	9.92805E-001	3.57680E+000	9	...........
	109	1.46667	9.96120E-001	3.99836E-004	0.00000E+000	3.98285E-004	2.40040E-001	9.96462E-001	3.57680E+000	9	...........
	110	1.47667	9.99272E-001	3.99834E-004	0.00000E+000	3.99543E-004	2.40040E-001	9.99582E-001	3.57680E+000	9	...........
STARTTIMEOFFSET	QUANT	2230.253	Start Time Offset (s)
