EXPLAIN
TAG	PWR800_CHARGE
TITLE	LABEL	PWR Cyclic Charge Discharge (Cell) - Charge Step	Test &Identifier
DATE	LABEL	12-7-2017	Date
TIME	LABEL	15:01:41	Time
NOTES	NOTES	3	&Notes...
	supercap test cell
	0.4mg
	6M KOH
PSTAT	PSTAT	IFC5000-01520	Potentiostat
CAPACITY	QUANT	1.00000E-003	Capacity (A-hr)
CELLTYPE	SELECTOR	1	&Cell Type
WORKINGCONNECTION	SELECTOR	0	&Working Lead
MAXCHARGETIME	VARIABLEANDUNITS	1.00000E+002	s	1.00000E+002	second(s)	Max &Charge Time
CHARGECURRENT	QUANT	4.00000E-004	&Charge Current (A) 
VOLTAGEFINISH	TWOPARAM	F	1.00000E-003	3.60000E+003	&Voltage Finish	 I (A) < 	Max Time(s)
SAMPLETIME	QUANT	1.00000E-002	Sa&mple Period (s)
CHARGESTOPAT1	MULTIPARAM	4	1.00000E+000	Charge Stop At &1	Voltage > Limit	V
CHARGESTOPAT2	MULTIPARAM	0	0.00000E+000	Charge Stop At &2	None	N/A
AESBHCSELECTOR	TOGGLE	F	Save Both Half Cells
IRCOMP	TOGGLE	F	IR &Measure
EOC	QUANT	0	Open Circuit (V)
SEQUENCER	TOGGLE	TRUE	Run as Sequence
PSTATMODEL	IQUANT	53	Pstat Model
PSTATSECTION	LABEL	IFC5000-01520	Pstat Section
PSTATSERIALNO	LABEL	01520	Pstat Serial Number
CTRLMODE	IQUANT	0	Control Mode
ELECTROMETER	IQUANT	1	RE=0 or CS=1
IESTAB	IQUANT	0	I/E Stability
CASPEED	IQUANT	4	Control Amp Speed
CONVENTION	IQUANT	1	Current Convention
ICHRANGE	IQUANT	2	Ich Range
ICHRANGEMODE	TOGGLE	T	Ich Auto Range
ICHOFFSETENABLE	TOGGLE	F	Ich Offset Enable
ICHOFFSET	QUANT	0	Ich Offset (V)
ICHFILTER	IQUANT	1	Ich Filter
VCHRANGE	IQUANT	2	Vch Range
VCHRANGEMODE	TOGGLE	T	Vch Auto Range
VCHOFFSETENABLE	TOGGLE	F	Vch Offset Enable
VCHOFFSET	QUANT	0	Vch Offset (V)
VCHFILTER	IQUANT	1	Vch Filter
IERANGELOWERLIMIT	IQUANT	9	I/E Range Lower Limit
IERANGEMODE	TOGGLE	F	I/E AutoRange
IERANGE	IQUANT	9	I/E Range
ACHSELECT	IQUANT	1	Ach Select
ACHRANGE	IQUANT	2	Ach Range
ACHOFFSETENABLE	TOGGLE	F	Ach Offset Enable
ACHOFFSET	QUANT	0	Ach Offset (V)
ACHFILTER	IQUANT	1	Ach Filter
CABLEID	IQUANT	14	Cable ID
DCCALDATE	LABEL	5-7-2017	DC Calibration Date
ACCALDATE	LABEL	12/3/2015	AC Calibration Date
FRAMEWORKVERSION	QUANT	7.01	Framework Version
INSTRUMENTVERSION	LABEL	4.00	Instrument Version
CURVE	TABLE	113
	Pt	T	Vf	Im	Vu	Pwr	Sig	Ach	Temp	IERange	Over
	#	s	V	A	V	W	V	V	deg C	#	bits
	0	0.013333	3.76310E-001	4.01337E-004	0.00000E+000	1.51027E-004	2.40040E-001	3.76414E-001	3.57770E+000	9	...........
	1	0.026667	3.88328E-001	4.01276E-004	0.00000E+000	1.55827E-004	2.40040E-001	3.88412E-001	3.57770E+000	9	...........
	2	0.04	3.98713E-001	4.00612E-004	0.00000E+000	1.59729E-004	2.40040E-001	3.98790E-001	3.57701E+000	9	...........
	3	0.053333	4.08181E-001	4.00171E-004	0.00000E+000	1.63342E-004	2.40040E-001	4.08264E-001	3.57660E+000	9	...........
	4	0.066667	4.16989E-001	4.00874E-004	0.00000E+000	1.67160E-004	2.40040E-001	4.17077E-001	3.57660E+000	9	...........
	5	0.08	4.25334E-001	4.01044E-004	0.00000E+000	1.70577E-004	2.40040E-001	4.25420E-001	3.57660E+000	9	...........
	6	0.093333	4.33291E-001	4.00626E-004	0.00000E+000	1.73588E-004	2.40040E-001	4.33376E-001	3.57660E+000	9	...........
	7	0.106667	4.41064E-001	4.01037E-004	0.00000E+000	1.76883E-004	2.40040E-001	4.41150E-001	3.57660E+000	9	...........
	8	0.12	4.48619E-001	4.00753E-004	0.00000E+000	1.79786E-004	2.40040E-001	4.48706E-001	3.57660E+000	9	...........
	9	0.133333	4.55993E-001	4.00067E-004	0.00000E+000	1.82428E-004	2.40040E-001	4.56087E-001	3.57660E+000	9	...........
	10	0.146667	4.63278E-001	4.02089E-004	0.00000E+000	1.86279E-004	2.40040E-001	4.63368E-001	3.57660E+000	9	...........
	11	0.16	4.70382E-001	3.99931E-004	0.00000E+000	1.88120E-004	2.40040E-001	4.70478E-001	3.57660E+000	9	...........
	12	0.173333	4.77352E-001	4.00174E-004	0.00000E+000	1.91024E-004	2.40040E-001	4.77441E-001	3.57660E+000	9	...........
	13	0.186667	4.84292E-001	3.99498E-004	0.00000E+000	1.93474E-004	2.40040E-001	4.84384E-001	3.57660E+000	9	...........
	14	0.2	4.91112E-001	4.00738E-004	0.00000E+000	1.96807E-004	2.40040E-001	4.91215E-001	3.57660E+000	9	...........
	15	0.213333	4.97866E-001	4.01410E-004	0.00000E+000	1.99848E-004	2.40040E-001	4.97965E-001	3.57660E+000	9	...........
	16	0.226667	5.04554E-001	4.00588E-004	0.00000E+000	2.02118E-004	2.40040E-001	5.04656E-001	3.57660E+000	9	...........
	17	0.24	5.11169E-001	4.01626E-004	0.00000E+000	2.05299E-004	2.40040E-001	5.11277E-001	3.57660E+000	9	...........
	18	0.253333	5.17751E-001	4.01368E-004	0.00000E+000	2.07809E-004	2.40040E-001	5.17849E-001	3.57660E+000	9	...........
	19	0.266667	5.24220E-001	4.01571E-004	0.00000E+000	2.10512E-004	2.40040E-001	5.24321E-001	3.57660E+000	9	...........
	20	0.28	5.30676E-001	4.00929E-004	0.00000E+000	2.12764E-004	2.40040E-001	5.30756E-001	3.57660E+000	9	...........
	21	0.293333	5.36791E-001	4.00440E-004	0.00000E+000	2.14952E-004	2.40040E-001	5.37014E-001	3.57660E+000	9	...........
	22	0.306667	5.43230E-001	4.02097E-004	0.00000E+000	2.18431E-004	2.40040E-001	5.43451E-001	3.57660E+000	9	...........
	23	0.32	5.49570E-001	4.02431E-004	0.00000E+000	2.21164E-004	2.40040E-001	5.49786E-001	3.57660E+000	9	...........
	24	0.333333	5.55808E-001	4.00432E-004	0.00000E+000	2.22564E-004	2.40040E-001	5.56040E-001	3.57660E+000	9	...........
	25	0.346667	5.61988E-001	4.00577E-004	0.00000E+000	2.25120E-004	2.40040E-001	5.62241E-001	3.57660E+000	9	...........
	26	0.36	5.68218E-001	4.00612E-004	0.00000E+000	2.27635E-004	2.40040E-001	5.68450E-001	3.57660E+000	9	...........
	27	0.373333	5.74455E-001	4.00157E-004	0.00000E+000	2.29872E-004	2.40040E-001	5.74700E-001	3.57660E+000	9	...........
	28	0.386667	5.80581E-001	4.00615E-004	0.00000E+000	2.32589E-004	2.40040E-001	5.80867E-001	3.57660E+000	9	...........
	29	0.4	5.86666E-001	4.02302E-004	0.00000E+000	2.36017E-004	2.40040E-001	5.86946E-001	3.57660E+000	9	...........
	30	0.413333	5.92769E-001	4.01325E-004	0.00000E+000	2.37893E-004	2.40040E-001	5.93042E-001	3.57660E+000	9	...........
	31	0.426667	5.98826E-001	4.01872E-004	0.00000E+000	2.40652E-004	2.40040E-001	5.99097E-001	3.57660E+000	9	...........
	32	0.44	6.04867E-001	4.00638E-004	0.00000E+000	2.42333E-004	2.40040E-001	6.05151E-001	3.57660E+000	9	...........
	33	0.453333	6.10916E-001	4.01427E-004	0.00000E+000	2.45238E-004	2.40040E-001	6.11193E-001	3.57660E+000	9	...........
	34	0.466667	6.17069E-001	4.01967E-004	0.00000E+000	2.48042E-004	2.40040E-001	6.17286E-001	3.57660E+000	9	...........
	35	0.48	6.23055E-001	4.01798E-004	0.00000E+000	2.50343E-004	2.40040E-001	6.23278E-001	3.57660E+000	9	...........
	36	0.493333	6.29010E-001	4.01134E-004	0.00000E+000	2.52317E-004	2.40040E-001	6.29271E-001	3.57660E+000	9	...........
	37	0.506667	6.34890E-001	4.01809E-004	0.00000E+000	2.55104E-004	2.40040E-001	6.35147E-001	3.57660E+000	9	...........
	38	0.52	6.40812E-001	4.01456E-004	0.00000E+000	2.57258E-004	2.40040E-001	6.41078E-001	3.57660E+000	9	...........
	39	0.533333	6.46718E-001	4.01262E-004	0.00000E+000	2.59503E-004	2.40040E-001	6.46941E-001	3.57660E+000	9	...........
	40	0.546667	6.52595E-001	3.99946E-004	0.00000E+000	2.61003E-004	2.40040E-001	6.52829E-001	3.57660E+000	9	...........
	41	0.56	6.58474E-001	4.01261E-004	0.00000E+000	2.64220E-004	2.40040E-001	6.58696E-001	3.57660E+000	9	...........
	42	0.573333	6.64353E-001	4.01139E-004	0.00000E+000	2.66498E-004	2.40040E-001	6.64573E-001	3.57660E+000	9	...........
	43	0.586667	6.70140E-001	4.01391E-004	0.00000E+000	2.68988E-004	2.40040E-001	6.70368E-001	3.57660E+000	9	...........
	44	0.6	6.75939E-001	4.00490E-004	0.00000E+000	2.70707E-004	2.40040E-001	6.76157E-001	3.57660E+000	9	...........
	45	0.613333	6.81745E-001	3.99894E-004	0.00000E+000	2.72625E-004	2.40040E-001	6.81988E-001	3.57660E+000	9	...........
	46	0.626667	6.87574E-001	4.01357E-004	0.00000E+000	2.75962E-004	2.40040E-001	6.87815E-001	3.57660E+000	9	...........
	47	0.64	6.93250E-001	4.00600E-004	0.00000E+000	2.77716E-004	2.40040E-001	6.93478E-001	3.57660E+000	9	...........
	48	0.653333	6.98949E-001	4.00407E-004	0.00000E+000	2.79864E-004	2.40040E-001	6.99173E-001	3.57660E+000	9	...........
	49	0.666667	7.04666E-001	4.00542E-004	0.00000E+000	2.82248E-004	2.40040E-001	7.04866E-001	3.57660E+000	9	...........
	50	0.68	7.10356E-001	4.01177E-004	0.00000E+000	2.84979E-004	2.40040E-001	7.10550E-001	3.57660E+000	9	...........
	51	0.693333	7.16032E-001	4.01216E-004	0.00000E+000	2.87284E-004	2.40040E-001	7.16251E-001	3.57660E+000	9	...........
	52	0.706667	7.21753E-001	4.01741E-004	0.00000E+000	2.89958E-004	2.40040E-001	7.21928E-001	3.57660E+000	9	...........
	53	0.72	7.27358E-001	4.01208E-004	0.00000E+000	2.91821E-004	2.40040E-001	7.27545E-001	3.57660E+000	9	...........
	54	0.733333	7.32890E-001	4.02219E-004	0.00000E+000	2.94782E-004	2.40040E-001	7.33095E-001	3.57660E+000	9	...........
	55	0.746667	7.38424E-001	4.01211E-004	0.00000E+000	2.96264E-004	2.40040E-001	7.38628E-001	3.57660E+000	9	...........
	56	0.76	7.44001E-001	4.02703E-004	0.00000E+000	2.99611E-004	2.40040E-001	7.44226E-001	3.57660E+000	9	...........
	57	0.773333	7.49507E-001	4.00947E-004	0.00000E+000	3.00513E-004	2.40040E-001	7.49722E-001	3.57660E+000	9	...........
	58	0.786667	7.54997E-001	4.00486E-004	0.00000E+000	3.02365E-004	2.40040E-001	7.55206E-001	3.57660E+000	9	...........
	59	0.8	7.60459E-001	4.01096E-004	0.00000E+000	3.05017E-004	2.40040E-001	7.60701E-001	3.57660E+000	9	...........
	60	0.813333	7.65898E-001	4.00317E-004	0.00000E+000	3.06602E-004	2.40040E-001	7.66184E-001	3.57660E+000	9	...........
	61	0.826667	7.71334E-001	4.00852E-004	0.00000E+000	3.09191E-004	2.40040E-001	7.71605E-001	3.57660E+000	9	...........
	62	0.84	7.76681E-001	4.00639E-004	0.00000E+000	3.11168E-004	2.40040E-001	7.76937E-001	3.57660E+000	9	...........
	63	0.853333	7.82058E-001	4.01012E-004	0.00000E+000	3.13614E-004	2.40040E-001	7.82304E-001	3.57660E+000	9	...........
	64	0.866667	7.87365E-001	4.01088E-004	0.00000E+000	3.15802E-004	2.40040E-001	7.87607E-001	3.57660E+000	9	...........
	65	0.88	7.92711E-001	4.01726E-004	0.00000E+000	3.18453E-004	2.40040E-001	7.92964E-001	3.57660E+000	9	...........
	66	0.893333	7.97991E-001	4.02371E-004	0.00000E+000	3.21089E-004	2.40040E-001	7.98265E-001	3.57660E+000	9	...........
	67	0.906667	8.03210E-001	4.01419E-004	0.00000E+000	3.22424E-004	2.40040E-001	8.03475E-001	3.57660E+000	9	...........
	68	0.92	8.08393E-001	4.00846E-004	0.00000E+000	3.24041E-004	2.40040E-001	8.08656E-001	3.57660E+000	9	...........
	69	0.933333	8.13563E-001	4.00476E-004	0.00000E+000	3.25813E-004	2.40040E-001	8.13853E-001	3.57660E+000	9	...........
	70	0.946667	8.18662E-001	4.00546E-004	0.00000E+000	3.27912E-004	2.40040E-001	8.18960E-001	3.57660E+000	9	...........
	71	0.96	8.23768E-001	4.00272E-004	0.00000E+000	3.29731E-004	2.40040E-001	8.24040E-001	3.57660E+000	9	...........
	72	0.97333	8.28774E-001	4.01423E-004	0.00000E+000	3.32689E-004	2.40040E-001	8.29041E-001	3.57660E+000	9	...........
	73	0.98667	8.33785E-001	4.01443E-004	0.00000E+000	3.34717E-004	2.40040E-001	8.34065E-001	3.57660E+000	9	...........
	74	1	8.38768E-001	4.01415E-004	0.00000E+000	3.36694E-004	2.40040E-001	8.39046E-001	3.57660E+000	9	...........
	75	1.01333	8.43679E-001	4.00591E-004	0.00000E+000	3.37970E-004	2.40040E-001	8.43979E-001	3.57660E+000	9	...........
	76	1.02667	8.48643E-001	4.00031E-004	0.00000E+000	3.39484E-004	2.40040E-001	8.48922E-001	3.57660E+000	9	...........
	77	1.04	8.53518E-001	4.01025E-004	0.00000E+000	3.42282E-004	2.40040E-001	8.53804E-001	3.57666E+000	9	...........
	78	1.05333	8.58414E-001	4.01016E-004	0.00000E+000	3.44238E-004	2.40040E-001	8.58712E-001	3.57670E+000	9	...........
	79	1.06667	8.63239E-001	4.01326E-004	0.00000E+000	3.46441E-004	2.40040E-001	8.63514E-001	3.57670E+000	9	...........
	80	1.08	8.68051E-001	4.00305E-004	0.00000E+000	3.47485E-004	2.40040E-001	8.68356E-001	3.57670E+000	9	...........
	81	1.09333	8.72817E-001	4.00843E-004	0.00000E+000	3.49862E-004	2.40040E-001	8.73114E-001	3.57670E+000	9	...........
	82	1.10667	8.77477E-001	4.02065E-004	0.00000E+000	3.52803E-004	2.40040E-001	8.77768E-001	3.57670E+000	9	...........
	83	1.12	8.82155E-001	4.00894E-004	0.00000E+000	3.53651E-004	2.40040E-001	8.82459E-001	3.57670E+000	9	...........
	84	1.13333	8.86788E-001	4.00292E-004	0.00000E+000	3.54974E-004	2.40040E-001	8.87058E-001	3.57670E+000	9	...........
	85	1.14667	8.91411E-001	4.00433E-004	0.00000E+000	3.56951E-004	2.40040E-001	8.91693E-001	3.57670E+000	9	...........
	86	1.16	8.95934E-001	4.00171E-004	0.00000E+000	3.58527E-004	2.40040E-001	8.96248E-001	3.57670E+000	9	...........
	87	1.17333	9.00460E-001	4.00694E-004	0.00000E+000	3.60809E-004	2.40040E-001	9.00760E-001	3.57670E+000	9	...........
	88	1.18667	9.04945E-001	4.00850E-004	0.00000E+000	3.62747E-004	2.40040E-001	9.05259E-001	3.57670E+000	9	...........
	89	1.2	9.09460E-001	4.01515E-004	0.00000E+000	3.65162E-004	2.40040E-001	9.09767E-001	3.57670E+000	9	...........
	90	1.21333	9.13923E-001	4.01436E-004	0.00000E+000	3.66881E-004	2.40040E-001	9.14227E-001	3.57670E+000	9	...........
	91	1.22667	9.18251E-001	4.01183E-004	0.00000E+000	3.68386E-004	2.40040E-001	9.18563E-001	3.57670E+000	9	...........
	92	1.24	9.22632E-001	4.01365E-004	0.00000E+000	3.70312E-004	2.40040E-001	9.22905E-001	3.57670E+000	9	...........
	93	1.25333	9.26920E-001	4.00751E-004	0.00000E+000	3.71464E-004	2.40040E-001	9.27224E-001	3.57670E+000	9	...........
	94	1.26667	9.31154E-001	4.01071E-004	0.00000E+000	3.73459E-004	2.40040E-001	9.31463E-001	3.57670E+000	9	...........
	95	1.28	9.35361E-001	4.00568E-004	0.00000E+000	3.74676E-004	2.40040E-001	9.35677E-001	3.57670E+000	9	...........
	96	1.29333	9.39489E-001	4.01414E-004	0.00000E+000	3.77124E-004	2.40040E-001	9.39823E-001	3.57670E+000	9	...........
	97	1.30667	9.43604E-001	3.99377E-004	0.00000E+000	3.76854E-004	2.40040E-001	9.43914E-001	3.57670E+000	9	...........
	98	1.32	9.47772E-001	4.00917E-004	0.00000E+000	3.79978E-004	2.40040E-001	9.48084E-001	3.57670E+000	9	...........
	99	1.33333	9.51886E-001	4.00462E-004	0.00000E+000	3.81194E-004	2.40040E-001	9.52165E-001	3.57670E+000	9	...........
	100	1.34667	9.55907E-001	4.01608E-004	0.00000E+000	3.83900E-004	2.40040E-001	9.56199E-001	3.57670E+000	9	...........
	101	1.36	9.59899E-001	4.00763E-004	0.00000E+000	3.84692E-004	2.40040E-001	9.60214E-001	3.57670E+000	9	...........
	102	1.37333	9.63824E-001	4.00336E-004	0.00000E+000	3.85853E-004	2.40040E-001	9.64163E-001	3.57670E+000	9	...........
	103	1.38667	9.67718E-001	4.01300E-004	0.00000E+000	3.88345E-004	2.40040E-001	9.68019E-001	3.57670E+000	9	...........
	104	1.4	9.71617E-001	3.99713E-004	0.00000E+000	3.88368E-004	2.40040E-001	9.71978E-001	3.57670E+000	9	...........
	105	1.41333	9.75521E-001	4.00462E-004	0.00000E+000	3.90659E-004	2.40040E-001	9.75856E-001	3.57670E+000	9	...........
	106	1.42667	9.79282E-001	4.01715E-004	0.00000E+000	3.93392E-004	2.40040E-001	9.79598E-001	3.57670E+000	9	...........
	107	1.44	9.82995E-001	4.00962E-004	0.00000E+000	3.94143E-004	2.40040E-001	9.83314E-001	3.57670E+000	9	...........
	108	1.45333	9.86692E-001	4.01505E-004	0.00000E+000	3.96161E-004	2.40040E-001	9.87027E-001	3.57670E+000	9	...........
	109	1.46667	9.90360E-001	4.01286E-004	0.00000E+000	3.97417E-004	2.40040E-001	9.90660E-001	3.57670E+000	9	...........
	110	1.48	9.93989E-001	4.01053E-004	0.00000E+000	3.98643E-004	2.40040E-001	9.94300E-001	3.57670E+000	9	...........
	111	1.49333	9.97618E-001	4.00886E-004	0.00000E+000	3.99931E-004	2.40040E-001	9.97919E-001	3.57670E+000	9	...........
	112	1.49667	9.99866E-001	3.98693E-004	0.00000E+000	3.98640E-004	2.40040E-001	1.00015E+000	3.57670E+000	9	...........
STARTTIMEOFFSET	QUANT	2052.201	Start Time Offset (s)
