EXPLAIN
TAG	PWR800_CHARGE
TITLE	LABEL	PWR Cyclic Charge Discharge (Cell) - Charge Step	Test &Identifier
DATE	LABEL	12-7-2017	Date
TIME	LABEL	14:22:55	Time
NOTES	NOTES	3	&Notes...
	supercap test cell
	0.4mg
	6M KOH
PSTAT	PSTAT	IFC5000-01520	Potentiostat
CAPACITY	QUANT	1.00000E-003	Capacity (A-hr)
CELLTYPE	SELECTOR	1	&Cell Type
WORKINGCONNECTION	SELECTOR	0	&Working Lead
MAXCHARGETIME	VARIABLEANDUNITS	1.00000E+002	s	1.00000E+002	second(s)	Max &Charge Time
CHARGECURRENT	QUANT	4.00000E-004	&Charge Current (A) 
VOLTAGEFINISH	TWOPARAM	F	1.00000E-003	3.60000E+003	&Voltage Finish	 I (A) < 	Max Time(s)
SAMPLETIME	QUANT	1.00000E-002	Sa&mple Period (s)
CHARGESTOPAT1	MULTIPARAM	4	1.00000E+000	Charge Stop At &1	Voltage > Limit	V
CHARGESTOPAT2	MULTIPARAM	0	0.00000E+000	Charge Stop At &2	None	N/A
AESBHCSELECTOR	TOGGLE	F	Save Both Half Cells
IRCOMP	TOGGLE	F	IR &Measure
EOC	QUANT	0	Open Circuit (V)
SEQUENCER	TOGGLE	TRUE	Run as Sequence
PSTATMODEL	IQUANT	53	Pstat Model
PSTATSECTION	LABEL	IFC5000-01520	Pstat Section
PSTATSERIALNO	LABEL	01520	Pstat Serial Number
CTRLMODE	IQUANT	0	Control Mode
ELECTROMETER	IQUANT	1	RE=0 or CS=1
IESTAB	IQUANT	0	I/E Stability
CASPEED	IQUANT	4	Control Amp Speed
CONVENTION	IQUANT	1	Current Convention
ICHRANGE	IQUANT	2	Ich Range
ICHRANGEMODE	TOGGLE	T	Ich Auto Range
ICHOFFSETENABLE	TOGGLE	F	Ich Offset Enable
ICHOFFSET	QUANT	0	Ich Offset (V)
ICHFILTER	IQUANT	1	Ich Filter
VCHRANGE	IQUANT	2	Vch Range
VCHRANGEMODE	TOGGLE	T	Vch Auto Range
VCHOFFSETENABLE	TOGGLE	F	Vch Offset Enable
VCHOFFSET	QUANT	0	Vch Offset (V)
VCHFILTER	IQUANT	1	Vch Filter
IERANGELOWERLIMIT	IQUANT	9	I/E Range Lower Limit
IERANGEMODE	TOGGLE	F	I/E AutoRange
IERANGE	IQUANT	9	I/E Range
ACHSELECT	IQUANT	1	Ach Select
ACHRANGE	IQUANT	2	Ach Range
ACHOFFSETENABLE	TOGGLE	F	Ach Offset Enable
ACHOFFSET	QUANT	0	Ach Offset (V)
ACHFILTER	IQUANT	1	Ach Filter
CABLEID	IQUANT	14	Cable ID
DCCALDATE	LABEL	5-7-2017	DC Calibration Date
ACCALDATE	LABEL	12/3/2015	AC Calibration Date
FRAMEWORKVERSION	QUANT	7.01	Framework Version
INSTRUMENTVERSION	LABEL	4.00	Instrument Version
CURVE	TABLE	145
	Pt	T	Vf	Im	Vu	Pwr	Sig	Ach	Temp	IERange	Over
	#	s	V	A	V	W	V	V	deg C	#	bits
	0	0.013333	3.29298E-001	4.01147E-004	0.00000E+000	1.32097E-004	2.40040E-001	3.29374E-001	3.57580E+000	9	...........
	1	0.026667	3.39022E-001	4.01217E-004	0.00000E+000	1.36021E-004	2.40040E-001	3.39092E-001	3.57580E+000	9	...........
	2	0.04	3.47382E-001	4.00831E-004	0.00000E+000	1.39242E-004	2.40040E-001	3.47449E-001	3.57580E+000	9	...........
	3	0.053333	3.55006E-001	4.00518E-004	0.00000E+000	1.42186E-004	2.40040E-001	3.55075E-001	3.57580E+000	9	...........
	4	0.066667	3.62235E-001	4.01972E-004	0.00000E+000	1.45608E-004	2.40040E-001	3.62307E-001	3.57580E+000	9	...........
	5	0.08	3.69171E-001	4.01362E-004	0.00000E+000	1.48171E-004	2.40040E-001	3.69244E-001	3.57580E+000	9	...........
	6	0.093333	3.75809E-001	4.00840E-004	0.00000E+000	1.50639E-004	2.40040E-001	3.75875E-001	3.57580E+000	9	...........
	7	0.106667	3.82117E-001	4.01615E-004	0.00000E+000	1.53464E-004	2.40040E-001	3.82188E-001	3.57580E+000	9	...........
	8	0.12	3.88381E-001	4.00858E-004	0.00000E+000	1.55685E-004	2.40040E-001	3.88452E-001	3.57580E+000	9	...........
	9	0.133333	3.94501E-001	4.01042E-004	0.00000E+000	1.58212E-004	2.40040E-001	3.94572E-001	3.57580E+000	9	...........
	10	0.146667	4.00563E-001	4.01203E-004	0.00000E+000	1.60707E-004	2.40040E-001	4.00642E-001	3.57580E+000	9	...........
	11	0.16	4.06487E-001	4.01089E-004	0.00000E+000	1.63037E-004	2.40040E-001	4.06567E-001	3.57580E+000	9	...........
	12	0.173333	4.12318E-001	3.99957E-004	0.00000E+000	1.64910E-004	2.40040E-001	4.12405E-001	3.57580E+000	9	...........
	13	0.186667	4.18017E-001	4.01893E-004	0.00000E+000	1.67998E-004	2.40040E-001	4.18105E-001	3.57580E+000	9	...........
	14	0.2	4.23738E-001	4.01256E-004	0.00000E+000	1.70027E-004	2.40040E-001	4.23821E-001	3.57610E+000	9	...........
	15	0.213333	4.29396E-001	4.02472E-004	0.00000E+000	1.72820E-004	2.40040E-001	4.29478E-001	3.57620E+000	9	...........
	16	0.226667	4.35088E-001	3.99776E-004	0.00000E+000	1.73938E-004	2.40040E-001	4.35178E-001	3.57620E+000	9	...........
	17	0.24	4.40704E-001	4.01709E-004	0.00000E+000	1.77035E-004	2.40040E-001	4.40793E-001	3.57620E+000	9	...........
	18	0.253333	4.46159E-001	4.00898E-004	0.00000E+000	1.78864E-004	2.40040E-001	4.46248E-001	3.57620E+000	9	...........
	19	0.266667	4.51599E-001	4.01125E-004	0.00000E+000	1.81148E-004	2.40040E-001	4.51686E-001	3.57620E+000	9	...........
	20	0.28	4.57118E-001	4.01091E-004	0.00000E+000	1.83346E-004	2.40040E-001	4.57210E-001	3.57620E+000	9	...........
	21	0.293333	4.62570E-001	4.01349E-004	0.00000E+000	1.85652E-004	2.40040E-001	4.62653E-001	3.57620E+000	9	...........
	22	0.306667	4.67978E-001	4.00909E-004	0.00000E+000	1.87616E-004	2.40040E-001	4.68065E-001	3.57620E+000	9	...........
	23	0.32	4.73302E-001	3.99814E-004	0.00000E+000	1.89233E-004	2.40040E-001	4.73393E-001	3.57620E+000	9	...........
	24	0.333333	4.78672E-001	4.01747E-004	0.00000E+000	1.92305E-004	2.40040E-001	4.78759E-001	3.57620E+000	9	...........
	25	0.346667	4.83903E-001	4.01088E-004	0.00000E+000	1.94087E-004	2.40040E-001	4.83993E-001	3.57620E+000	9	...........
	26	0.36	4.89141E-001	4.00842E-004	0.00000E+000	1.96068E-004	2.40040E-001	4.89238E-001	3.57620E+000	9	...........
	27	0.373333	4.94372E-001	4.01360E-004	0.00000E+000	1.98421E-004	2.40040E-001	4.94468E-001	3.57620E+000	9	...........
	28	0.386667	4.99627E-001	4.01650E-004	0.00000E+000	2.00676E-004	2.40040E-001	4.99728E-001	3.57620E+000	9	...........
	29	0.4	5.04865E-001	4.01272E-004	0.00000E+000	2.02588E-004	2.40040E-001	5.04959E-001	3.57620E+000	9	...........
	30	0.413333	5.10033E-001	4.00602E-004	0.00000E+000	2.04321E-004	2.40040E-001	5.10139E-001	3.57620E+000	9	...........
	31	0.426667	5.15202E-001	4.03059E-004	0.00000E+000	2.07657E-004	2.40040E-001	5.15298E-001	3.57620E+000	9	...........
	32	0.44	5.20286E-001	4.02351E-004	0.00000E+000	2.09337E-004	2.40040E-001	5.20394E-001	3.57620E+000	9	...........
	33	0.453333	5.25392E-001	4.00926E-004	0.00000E+000	2.10643E-004	2.40040E-001	5.25501E-001	3.57620E+000	9	...........
	34	0.466667	5.30492E-001	4.00591E-004	0.00000E+000	2.12510E-004	2.40040E-001	5.30602E-001	3.57620E+000	9	...........
	35	0.48	5.35307E-001	4.01482E-004	0.00000E+000	2.14916E-004	2.40040E-001	5.35532E-001	3.57620E+000	9	...........
	36	0.493333	5.40387E-001	4.00663E-004	0.00000E+000	2.16513E-004	2.40040E-001	5.40625E-001	3.57620E+000	9	...........
	37	0.506667	5.45569E-001	4.01388E-004	0.00000E+000	2.18985E-004	2.40040E-001	5.45804E-001	3.57620E+000	9	...........
	38	0.52	5.50606E-001	4.01055E-004	0.00000E+000	2.20824E-004	2.40040E-001	5.50854E-001	3.57620E+000	9	...........
	39	0.533333	5.55607E-001	3.99963E-004	0.00000E+000	2.22222E-004	2.40040E-001	5.55881E-001	3.57620E+000	9	...........
	40	0.546667	5.60675E-001	4.01777E-004	0.00000E+000	2.25267E-004	2.40040E-001	5.60914E-001	3.57620E+000	9	...........
	41	0.56	5.65757E-001	4.00577E-004	0.00000E+000	2.26629E-004	2.40040E-001	5.65976E-001	3.57620E+000	9	...........
	42	0.573333	5.70752E-001	4.00974E-004	0.00000E+000	2.28857E-004	2.40040E-001	5.70958E-001	3.57620E+000	9	...........
	43	0.586667	5.75752E-001	4.01662E-004	0.00000E+000	2.31257E-004	2.40040E-001	5.76006E-001	3.57620E+000	9	...........
	44	0.6	5.80721E-001	4.00361E-004	0.00000E+000	2.32498E-004	2.40040E-001	5.80967E-001	3.57620E+000	9	...........
	45	0.613333	5.85653E-001	4.00526E-004	0.00000E+000	2.34569E-004	2.40040E-001	5.85895E-001	3.57620E+000	9	...........
	46	0.626667	5.90575E-001	4.01102E-004	0.00000E+000	2.36881E-004	2.40040E-001	5.90831E-001	3.57620E+000	9	...........
	47	0.64	5.95498E-001	4.01049E-004	0.00000E+000	2.38824E-004	2.40040E-001	5.95708E-001	3.57620E+000	9	...........
	48	0.653333	6.00400E-001	4.00673E-004	0.00000E+000	2.40564E-004	2.40040E-001	6.00643E-001	3.57620E+000	9	...........
	49	0.666667	6.05313E-001	4.00939E-004	0.00000E+000	2.42693E-004	2.40040E-001	6.05575E-001	3.57620E+000	9	...........
	50	0.68	6.10187E-001	4.01841E-004	0.00000E+000	2.45198E-004	2.40040E-001	6.10470E-001	3.57620E+000	9	...........
	51	0.693333	6.15143E-001	4.01236E-004	0.00000E+000	2.46817E-004	2.40040E-001	6.15396E-001	3.57620E+000	9	...........
	52	0.706667	6.19954E-001	4.00392E-004	0.00000E+000	2.48225E-004	2.40040E-001	6.20162E-001	3.57620E+000	9	...........
	53	0.72	6.24847E-001	4.00206E-004	0.00000E+000	2.50068E-004	2.40040E-001	6.25057E-001	3.57620E+000	9	...........
	54	0.733333	6.29707E-001	4.01357E-004	0.00000E+000	2.52737E-004	2.40040E-001	6.29908E-001	3.57620E+000	9	...........
	55	0.746667	6.34528E-001	4.01980E-004	0.00000E+000	2.55067E-004	2.40040E-001	6.34744E-001	3.57620E+000	9	...........
	56	0.76	6.39336E-001	3.99944E-004	0.00000E+000	2.55699E-004	2.40040E-001	6.39527E-001	3.57620E+000	9	...........
	57	0.773333	6.44153E-001	4.00195E-004	0.00000E+000	2.57787E-004	2.40040E-001	6.44368E-001	3.57620E+000	9	...........
	58	0.786667	6.49053E-001	4.01363E-004	0.00000E+000	2.60506E-004	2.40040E-001	6.49253E-001	3.57620E+000	9	...........
	59	0.8	6.53874E-001	4.00958E-004	0.00000E+000	2.62176E-004	2.40040E-001	6.54070E-001	3.57620E+000	9	...........
	60	0.813333	6.58680E-001	4.00652E-004	0.00000E+000	2.63902E-004	2.40040E-001	6.58862E-001	3.57620E+000	9	...........
	61	0.826667	6.63525E-001	4.00535E-004	0.00000E+000	2.65765E-004	2.40040E-001	6.63747E-001	3.57620E+000	9	...........
	62	0.84	6.68423E-001	4.00419E-004	0.00000E+000	2.67649E-004	2.40040E-001	6.68620E-001	3.57620E+000	9	...........
	63	0.853333	6.73220E-001	4.01155E-004	0.00000E+000	2.70066E-004	2.40040E-001	6.73434E-001	3.57620E+000	9	...........
	64	0.866667	6.77967E-001	4.01002E-004	0.00000E+000	2.71866E-004	2.40040E-001	6.78198E-001	3.57620E+000	9	...........
	65	0.88	6.82718E-001	3.99948E-004	0.00000E+000	2.73051E-004	2.40040E-001	6.82915E-001	3.57620E+000	9	...........
	66	0.893333	6.87465E-001	4.02084E-004	0.00000E+000	2.76419E-004	2.40040E-001	6.87654E-001	3.57620E+000	9	...........
	67	0.906667	6.92259E-001	4.01286E-004	0.00000E+000	2.77793E-004	2.40040E-001	6.92467E-001	3.57620E+000	9	...........
	68	0.92	6.96997E-001	4.00352E-004	0.00000E+000	2.79044E-004	2.40040E-001	6.97178E-001	3.57620E+000	9	...........
	69	0.933333	7.01699E-001	4.01028E-004	0.00000E+000	2.81401E-004	2.40040E-001	7.01894E-001	3.57620E+000	9	...........
	70	0.946667	7.06406E-001	4.00368E-004	0.00000E+000	2.82822E-004	2.40040E-001	7.06634E-001	3.57620E+000	9	...........
	71	0.96	7.11083E-001	4.00393E-004	0.00000E+000	2.84713E-004	2.40040E-001	7.11328E-001	3.57620E+000	9	...........
	72	0.97333	7.15707E-001	4.01616E-004	0.00000E+000	2.87439E-004	2.40040E-001	7.15979E-001	3.57620E+000	9	...........
	73	0.98667	7.20474E-001	4.00917E-004	0.00000E+000	2.88850E-004	2.40040E-001	7.20704E-001	3.57620E+000	9	...........
	74	1	7.25123E-001	4.00356E-004	0.00000E+000	2.90308E-004	2.40040E-001	7.25334E-001	3.57620E+000	9	...........
	75	1.01333	7.29801E-001	3.99795E-004	0.00000E+000	2.91771E-004	2.40040E-001	7.30025E-001	3.57620E+000	9	...........
	76	1.02667	7.34465E-001	4.02100E-004	0.00000E+000	2.95329E-004	2.40040E-001	7.34696E-001	3.57620E+000	9	...........
	77	1.04	7.39065E-001	4.01326E-004	0.00000E+000	2.96606E-004	2.40040E-001	7.39301E-001	3.57620E+000	9	...........
	78	1.05333	7.43761E-001	4.02316E-004	0.00000E+000	2.99227E-004	2.40040E-001	7.44004E-001	3.57620E+000	9	...........
	79	1.06667	7.48302E-001	4.00328E-004	0.00000E+000	2.99566E-004	2.40040E-001	7.48518E-001	3.57620E+000	9	...........
	80	1.08	7.52811E-001	4.01054E-004	0.00000E+000	3.01918E-004	2.40040E-001	7.53042E-001	3.57620E+000	9	...........
	81	1.09333	7.57363E-001	4.01282E-004	0.00000E+000	3.03916E-004	2.40040E-001	7.57559E-001	3.57620E+000	9	...........
	82	1.10667	7.61987E-001	4.02152E-004	0.00000E+000	3.06434E-004	2.40040E-001	7.62172E-001	3.57620E+000	9	...........
	83	1.12	7.66521E-001	4.00306E-004	0.00000E+000	3.06843E-004	2.40040E-001	7.66714E-001	3.57620E+000	9	...........
	84	1.13333	7.71108E-001	4.00476E-004	0.00000E+000	3.08810E-004	2.40040E-001	7.71302E-001	3.57620E+000	9	...........
	85	1.14667	7.75639E-001	4.00526E-004	0.00000E+000	3.10664E-004	2.40040E-001	7.75821E-001	3.57620E+000	9	...........
	86	1.16	7.80187E-001	4.00391E-004	0.00000E+000	3.12380E-004	2.40040E-001	7.80396E-001	3.57620E+000	9	...........
	87	1.17333	7.84621E-001	4.00535E-004	0.00000E+000	3.14268E-004	2.40040E-001	7.84855E-001	3.57620E+000	9	...........
	88	1.18667	7.89034E-001	3.99268E-004	0.00000E+000	3.15036E-004	2.40040E-001	7.89265E-001	3.57620E+000	9	...........
	89	1.2	7.93492E-001	4.01752E-004	0.00000E+000	3.18787E-004	2.40040E-001	7.93757E-001	3.57620E+000	9	...........
	90	1.21333	7.97875E-001	4.01237E-004	0.00000E+000	3.20137E-004	2.40040E-001	7.98118E-001	3.57620E+000	9	...........
	91	1.22667	8.02342E-001	4.01434E-004	0.00000E+000	3.22087E-004	2.40040E-001	8.02580E-001	3.57620E+000	9	...........
	92	1.24	8.06595E-001	4.00754E-004	0.00000E+000	3.23246E-004	2.40040E-001	8.06853E-001	3.57620E+000	9	...........
	93	1.25333	8.10940E-001	4.02038E-004	0.00000E+000	3.26029E-004	2.40040E-001	8.11198E-001	3.57620E+000	9	...........
	94	1.26667	8.15263E-001	4.01497E-004	0.00000E+000	3.27326E-004	2.40040E-001	8.15547E-001	3.57620E+000	9	...........
	95	1.28	8.19651E-001	4.00895E-004	0.00000E+000	3.28594E-004	2.40040E-001	8.19921E-001	3.57620E+000	9	...........
	96	1.29333	8.23907E-001	4.01696E-004	0.00000E+000	3.30960E-004	2.40040E-001	8.24203E-001	3.57620E+000	9	...........
	97	1.30667	8.28176E-001	4.02051E-004	0.00000E+000	3.32970E-004	2.40040E-001	8.28430E-001	3.57620E+000	9	...........
	98	1.32	8.32482E-001	4.01099E-004	0.00000E+000	3.33908E-004	2.40040E-001	8.32760E-001	3.57620E+000	9	...........
	99	1.33333	8.36731E-001	4.00335E-004	0.00000E+000	3.34973E-004	2.40040E-001	8.37030E-001	3.57620E+000	9	...........
	100	1.34667	8.40941E-001	4.01444E-004	0.00000E+000	3.37591E-004	2.40040E-001	8.41227E-001	3.57620E+000	9	...........
	101	1.36	8.45110E-001	4.00960E-004	0.00000E+000	3.38855E-004	2.40040E-001	8.45399E-001	3.57620E+000	9	...........
	102	1.37333	8.49247E-001	4.01436E-004	0.00000E+000	3.40918E-004	2.40040E-001	8.49532E-001	3.57620E+000	9	...........
	103	1.38667	8.53446E-001	4.00539E-004	0.00000E+000	3.41838E-004	2.40040E-001	8.53708E-001	3.57620E+000	9	...........
	104	1.4	8.57532E-001	4.00175E-004	0.00000E+000	3.43163E-004	2.40040E-001	8.57796E-001	3.57620E+000	9	...........
	105	1.41333	8.61679E-001	4.01556E-004	0.00000E+000	3.46012E-004	2.40040E-001	8.61959E-001	3.57620E+000	9	...........
	106	1.42667	8.65755E-001	4.00796E-004	0.00000E+000	3.46991E-004	2.40040E-001	8.66056E-001	3.57620E+000	9	...........
	107	1.44	8.69799E-001	4.00492E-004	0.00000E+000	3.48347E-004	2.40040E-001	8.70079E-001	3.57620E+000	9	...........
	108	1.45333	8.73823E-001	4.00494E-004	0.00000E+000	3.49961E-004	2.40040E-001	8.74116E-001	3.57620E+000	9	...........
	109	1.46667	8.77761E-001	3.99922E-004	0.00000E+000	3.51036E-004	2.40040E-001	8.78038E-001	3.57620E+000	9	...........
	110	1.48	8.81750E-001	4.01331E-004	0.00000E+000	3.53873E-004	2.40040E-001	8.82047E-001	3.57620E+000	9	...........
	111	1.49333	8.85658E-001	4.01021E-004	0.00000E+000	3.55167E-004	2.40040E-001	8.85976E-001	3.57620E+000	9	...........
	112	1.50667	8.89595E-001	4.01725E-004	0.00000E+000	3.57373E-004	2.40040E-001	8.89890E-001	3.57620E+000	9	...........
	113	1.52	8.93507E-001	4.00590E-004	0.00000E+000	3.57930E-004	2.40040E-001	8.93799E-001	3.57620E+000	9	...........
	114	1.53333	8.97392E-001	4.01895E-004	0.00000E+000	3.60657E-004	2.40040E-001	8.97685E-001	3.57620E+000	9	...........
	115	1.54667	9.01235E-001	3.98998E-004	0.00000E+000	3.59591E-004	2.40040E-001	9.01553E-001	3.57620E+000	9	...........
	116	1.56	9.05067E-001	4.01191E-004	0.00000E+000	3.63105E-004	2.40040E-001	9.05410E-001	3.57620E+000	9	...........
	117	1.57333	9.08870E-001	4.00983E-004	0.00000E+000	3.64441E-004	2.40040E-001	9.09185E-001	3.57620E+000	9	...........
	118	1.58667	9.12618E-001	4.02129E-004	0.00000E+000	3.66990E-004	2.40040E-001	9.12932E-001	3.57620E+000	9	...........
	119	1.6	9.16411E-001	4.01645E-004	0.00000E+000	3.68072E-004	2.40040E-001	9.16719E-001	3.57620E+000	9	...........
	120	1.61333	9.20205E-001	4.00730E-004	0.00000E+000	3.68754E-004	2.40040E-001	9.20487E-001	3.57620E+000	9	...........
	121	1.62667	9.23943E-001	4.02555E-004	0.00000E+000	3.71938E-004	2.40040E-001	9.24202E-001	3.57620E+000	9	...........
	122	1.64	9.27584E-001	4.01193E-004	0.00000E+000	3.72140E-004	2.40040E-001	9.27859E-001	3.57620E+000	9	...........
	123	1.65333	9.31206E-001	4.00359E-004	0.00000E+000	3.72817E-004	2.40040E-001	9.31474E-001	3.57620E+000	9	...........
	124	1.66667	9.34831E-001	4.00155E-004	0.00000E+000	3.74077E-004	2.40040E-001	9.35128E-001	3.57620E+000	9	...........
	125	1.68	9.38338E-001	4.00107E-004	0.00000E+000	3.75436E-004	2.40040E-001	9.38630E-001	3.57620E+000	9	...........
	126	1.69333	9.41880E-001	4.02355E-004	0.00000E+000	3.78970E-004	2.40040E-001	9.42199E-001	3.57620E+000	9	...........
	127	1.70667	9.45412E-001	4.00543E-004	0.00000E+000	3.78678E-004	2.40040E-001	9.45713E-001	3.57620E+000	9	...........
	128	1.72	9.48947E-001	4.00305E-004	0.00000E+000	3.79869E-004	2.40040E-001	9.49233E-001	3.57620E+000	9	...........
	129	1.73333	9.52372E-001	4.00067E-004	0.00000E+000	3.81012E-004	2.40040E-001	9.52684E-001	3.57620E+000	9	...........
	130	1.74667	9.55827E-001	4.00552E-004	0.00000E+000	3.82859E-004	2.40040E-001	9.56120E-001	3.57620E+000	9	...........
	131	1.76	9.59271E-001	4.00730E-004	0.00000E+000	3.84409E-004	2.40040E-001	9.59586E-001	3.57620E+000	9	...........
	132	1.77333	9.62592E-001	4.00408E-004	0.00000E+000	3.85430E-004	2.40040E-001	9.62903E-001	3.57620E+000	9	...........
	133	1.78667	9.65945E-001	3.99741E-004	0.00000E+000	3.86127E-004	2.40040E-001	9.66249E-001	3.57620E+000	9	...........
	134	1.8	9.69222E-001	4.01444E-004	0.00000E+000	3.89088E-004	2.40040E-001	9.69543E-001	3.57620E+000	9	...........
	135	1.81333	9.72498E-001	4.01837E-004	0.00000E+000	3.90786E-004	2.40040E-001	9.72833E-001	3.57620E+000	9	...........
	136	1.82667	9.75732E-001	4.01022E-004	0.00000E+000	3.91290E-004	2.40040E-001	9.76054E-001	3.57620E+000	9	...........
	137	1.84	9.78904E-001	4.00999E-004	0.00000E+000	3.92540E-004	2.40040E-001	9.79215E-001	3.57620E+000	9	...........
	138	1.85333	9.82018E-001	4.01307E-004	0.00000E+000	3.94090E-004	2.40040E-001	9.82322E-001	3.57620E+000	9	...........
	139	1.86667	9.85107E-001	4.01347E-004	0.00000E+000	3.95370E-004	2.40040E-001	9.85421E-001	3.57620E+000	9	...........
	140	1.88	9.88193E-001	4.01726E-004	0.00000E+000	3.96983E-004	2.40040E-001	9.88501E-001	3.57620E+000	9	...........
	141	1.89333	9.91250E-001	4.00722E-004	0.00000E+000	3.97216E-004	2.40040E-001	9.91569E-001	3.57620E+000	9	...........
	142	1.90667	9.94288E-001	4.02272E-004	0.00000E+000	3.99974E-004	2.40040E-001	9.94607E-001	3.57620E+000	9	...........
	143	1.92	9.97263E-001	4.01019E-004	0.00000E+000	3.99921E-004	2.40040E-001	9.97600E-001	3.57620E+000	9	...........
	144	1.92667	9.99511E-001	4.00977E-004	0.00000E+000	4.00781E-004	2.40040E-001	9.99832E-001	3.57620E+000	9	...........
STARTTIMEOFFSET	QUANT	206.6766	Start Time Offset (s)
