EXPLAIN
TAG	PWR800_CHARGE
TITLE	LABEL	PWR Cyclic Charge Discharge (Cell) - Charge Step	Test &Identifier
DATE	LABEL	12-7-2017	Date
TIME	LABEL	14:59:47	Time
NOTES	NOTES	3	&Notes...
	supercap test cell
	0.4mg
	6M KOH
PSTAT	PSTAT	IFC5000-01520	Potentiostat
CAPACITY	QUANT	1.00000E-003	Capacity (A-hr)
CELLTYPE	SELECTOR	1	&Cell Type
WORKINGCONNECTION	SELECTOR	0	&Working Lead
MAXCHARGETIME	VARIABLEANDUNITS	1.00000E+002	s	1.00000E+002	second(s)	Max &Charge Time
CHARGECURRENT	QUANT	4.00000E-004	&Charge Current (A) 
VOLTAGEFINISH	TWOPARAM	F	1.00000E-003	3.60000E+003	&Voltage Finish	 I (A) < 	Max Time(s)
SAMPLETIME	QUANT	1.00000E-002	Sa&mple Period (s)
CHARGESTOPAT1	MULTIPARAM	4	1.00000E+000	Charge Stop At &1	Voltage > Limit	V
CHARGESTOPAT2	MULTIPARAM	0	0.00000E+000	Charge Stop At &2	None	N/A
AESBHCSELECTOR	TOGGLE	F	Save Both Half Cells
IRCOMP	TOGGLE	F	IR &Measure
EOC	QUANT	0	Open Circuit (V)
SEQUENCER	TOGGLE	TRUE	Run as Sequence
PSTATMODEL	IQUANT	53	Pstat Model
PSTATSECTION	LABEL	IFC5000-01520	Pstat Section
PSTATSERIALNO	LABEL	01520	Pstat Serial Number
CTRLMODE	IQUANT	0	Control Mode
ELECTROMETER	IQUANT	1	RE=0 or CS=1
IESTAB	IQUANT	0	I/E Stability
CASPEED	IQUANT	4	Control Amp Speed
CONVENTION	IQUANT	1	Current Convention
ICHRANGE	IQUANT	2	Ich Range
ICHRANGEMODE	TOGGLE	T	Ich Auto Range
ICHOFFSETENABLE	TOGGLE	F	Ich Offset Enable
ICHOFFSET	QUANT	0	Ich Offset (V)
ICHFILTER	IQUANT	1	Ich Filter
VCHRANGE	IQUANT	2	Vch Range
VCHRANGEMODE	TOGGLE	T	Vch Auto Range
VCHOFFSETENABLE	TOGGLE	F	Vch Offset Enable
VCHOFFSET	QUANT	0	Vch Offset (V)
VCHFILTER	IQUANT	1	Vch Filter
IERANGELOWERLIMIT	IQUANT	9	I/E Range Lower Limit
IERANGEMODE	TOGGLE	F	I/E AutoRange
IERANGE	IQUANT	9	I/E Range
ACHSELECT	IQUANT	1	Ach Select
ACHRANGE	IQUANT	2	Ach Range
ACHOFFSETENABLE	TOGGLE	F	Ach Offset Enable
ACHOFFSET	QUANT	0	Ach Offset (V)
ACHFILTER	IQUANT	1	Ach Filter
CABLEID	IQUANT	14	Cable ID
DCCALDATE	LABEL	5-7-2017	DC Calibration Date
ACCALDATE	LABEL	12/3/2015	AC Calibration Date
FRAMEWORKVERSION	QUANT	7.01	Framework Version
INSTRUMENTVERSION	LABEL	4.00	Instrument Version
CURVE	TABLE	114
	Pt	T	Vf	Im	Vu	Pwr	Sig	Ach	Temp	IERange	Over
	#	s	V	A	V	W	V	V	deg C	#	bits
	0	0.013333	3.72710E-001	4.01628E-004	0.00000E+000	1.49691E-004	2.40040E-001	3.72809E-001	3.57660E+000	9	...........
	1	0.026667	3.84804E-001	4.01447E-004	0.00000E+000	1.54479E-004	2.40040E-001	3.84878E-001	3.57660E+000	9	...........
	2	0.04	3.95172E-001	4.01339E-004	0.00000E+000	1.58598E-004	2.40040E-001	3.95247E-001	3.57660E+000	9	...........
	3	0.053333	4.04581E-001	4.01492E-004	0.00000E+000	1.62436E-004	2.40040E-001	4.04660E-001	3.57660E+000	9	...........
	4	0.066667	4.13401E-001	4.00884E-004	0.00000E+000	1.65725E-004	2.40040E-001	4.13480E-001	3.57660E+000	9	...........
	5	0.08	4.21738E-001	4.02140E-004	0.00000E+000	1.69598E-004	2.40040E-001	4.21825E-001	3.57660E+000	9	...........
	6	0.093333	4.29789E-001	4.00210E-004	0.00000E+000	1.72006E-004	2.40040E-001	4.29874E-001	3.57660E+000	9	...........
	7	0.106667	4.37532E-001	4.01253E-004	0.00000E+000	1.75561E-004	2.40040E-001	4.37623E-001	3.57660E+000	9	...........
	8	0.12	4.45053E-001	4.00710E-004	0.00000E+000	1.78337E-004	2.40040E-001	4.45141E-001	3.57660E+000	9	...........
	9	0.133333	4.52387E-001	4.00794E-004	0.00000E+000	1.81314E-004	2.40040E-001	4.52474E-001	3.57660E+000	9	...........
	10	0.146667	4.59532E-001	4.01555E-004	0.00000E+000	1.84527E-004	2.40040E-001	4.59621E-001	3.57660E+000	9	...........
	11	0.16	4.66591E-001	4.00612E-004	0.00000E+000	1.86922E-004	2.40040E-001	4.66686E-001	3.57660E+000	9	...........
	12	0.173333	4.73596E-001	4.01435E-004	0.00000E+000	1.90118E-004	2.40040E-001	4.73688E-001	3.57660E+000	9	...........
	13	0.186667	4.80574E-001	4.01103E-004	0.00000E+000	1.92760E-004	2.40040E-001	4.80672E-001	3.57660E+000	9	...........
	14	0.2	4.87409E-001	4.00495E-004	0.00000E+000	1.95205E-004	2.40040E-001	4.87505E-001	3.57660E+000	9	...........
	15	0.213333	4.94141E-001	4.00863E-004	0.00000E+000	1.98083E-004	2.40040E-001	4.94244E-001	3.57660E+000	9	...........
	16	0.226667	5.00887E-001	4.00579E-004	0.00000E+000	2.00645E-004	2.40040E-001	5.00985E-001	3.57660E+000	9	...........
	17	0.24	5.07453E-001	4.00050E-004	0.00000E+000	2.03006E-004	2.40040E-001	5.07559E-001	3.57660E+000	9	...........
	18	0.253333	5.13963E-001	4.00941E-004	0.00000E+000	2.06069E-004	2.40040E-001	5.14067E-001	3.57660E+000	9	...........
	19	0.266667	5.20452E-001	4.00019E-004	0.00000E+000	2.08191E-004	2.40040E-001	5.20557E-001	3.57660E+000	9	...........
	20	0.28	5.26943E-001	4.00654E-004	0.00000E+000	2.11122E-004	2.40040E-001	5.27053E-001	3.57660E+000	9	...........
	21	0.293333	5.33233E-001	4.01722E-004	0.00000E+000	2.14211E-004	2.40040E-001	5.33348E-001	3.57660E+000	9	...........
	22	0.306667	5.39445E-001	4.00748E-004	0.00000E+000	2.16181E-004	2.40040E-001	5.39662E-001	3.57660E+000	9	...........
	23	0.32	5.45754E-001	4.01833E-004	0.00000E+000	2.19302E-004	2.40040E-001	5.45937E-001	3.57660E+000	9	...........
	24	0.333333	5.52053E-001	4.00091E-004	0.00000E+000	2.20871E-004	2.40040E-001	5.52246E-001	3.57660E+000	9	...........
	25	0.346667	5.58328E-001	4.00505E-004	0.00000E+000	2.23613E-004	2.40040E-001	5.58511E-001	3.57660E+000	9	...........
	26	0.36	5.64528E-001	4.00226E-004	0.00000E+000	2.25939E-004	2.40040E-001	5.64750E-001	3.57660E+000	9	...........
	27	0.373333	5.70692E-001	4.00495E-004	0.00000E+000	2.28559E-004	2.40040E-001	5.70896E-001	3.57660E+000	9	...........
	28	0.386667	5.76763E-001	4.00913E-004	0.00000E+000	2.31232E-004	2.40040E-001	5.76940E-001	3.57660E+000	9	...........
	29	0.4	5.82907E-001	4.01437E-004	0.00000E+000	2.34000E-004	2.40040E-001	5.83090E-001	3.57660E+000	9	...........
	30	0.413333	5.89063E-001	3.99691E-004	0.00000E+000	2.35443E-004	2.40040E-001	5.89261E-001	3.57660E+000	9	...........
	31	0.426667	5.95191E-001	4.01209E-004	0.00000E+000	2.38796E-004	2.40040E-001	5.95411E-001	3.57660E+000	9	...........
	32	0.44	6.01239E-001	4.01935E-004	0.00000E+000	2.41659E-004	2.40040E-001	6.01451E-001	3.57660E+000	9	...........
	33	0.453333	6.07210E-001	4.01501E-004	0.00000E+000	2.43795E-004	2.40040E-001	6.07432E-001	3.57660E+000	9	...........
	34	0.466667	6.13278E-001	4.00583E-004	0.00000E+000	2.45669E-004	2.40040E-001	6.13481E-001	3.57660E+000	9	...........
	35	0.48	6.19338E-001	4.02200E-004	0.00000E+000	2.49098E-004	2.40040E-001	6.19503E-001	3.57660E+000	9	...........
	36	0.493333	6.25294E-001	4.00332E-004	0.00000E+000	2.50325E-004	2.40040E-001	6.25477E-001	3.57660E+000	9	...........
	37	0.506667	6.31225E-001	4.01435E-004	0.00000E+000	2.53395E-004	2.40040E-001	6.31418E-001	3.57660E+000	9	...........
	38	0.52	6.37129E-001	4.00860E-004	0.00000E+000	2.55399E-004	2.40040E-001	6.37336E-001	3.57660E+000	9	...........
	39	0.533333	6.43164E-001	4.00827E-004	0.00000E+000	2.57798E-004	2.40040E-001	6.43367E-001	3.57660E+000	9	...........
	40	0.546667	6.49023E-001	4.00407E-004	0.00000E+000	2.59873E-004	2.40040E-001	6.49257E-001	3.57660E+000	9	...........
	41	0.56	6.54856E-001	4.00724E-004	0.00000E+000	2.62417E-004	2.40040E-001	6.55079E-001	3.57660E+000	9	...........
	42	0.573333	6.60642E-001	4.00927E-004	0.00000E+000	2.64869E-004	2.40040E-001	6.60888E-001	3.57660E+000	9	...........
	43	0.586667	6.66458E-001	4.00295E-004	0.00000E+000	2.66780E-004	2.40040E-001	6.66709E-001	3.57660E+000	9	...........
	44	0.6	6.72261E-001	4.00752E-004	0.00000E+000	2.69410E-004	2.40040E-001	6.72463E-001	3.57660E+000	9	...........
	45	0.613333	6.78031E-001	4.00198E-004	0.00000E+000	2.71347E-004	2.40040E-001	6.78234E-001	3.57660E+000	9	...........
	46	0.626667	6.83804E-001	4.01384E-004	0.00000E+000	2.74468E-004	2.40040E-001	6.84013E-001	3.57660E+000	9	...........
	47	0.64	6.89549E-001	4.01547E-004	0.00000E+000	2.76886E-004	2.40040E-001	6.89790E-001	3.57660E+000	9	...........
	48	0.653333	6.95312E-001	3.99392E-004	0.00000E+000	2.77702E-004	2.40040E-001	6.95544E-001	3.57660E+000	9	...........
	49	0.666667	7.00997E-001	4.01120E-004	0.00000E+000	2.81184E-004	2.40040E-001	7.01253E-001	3.57660E+000	9	...........
	50	0.68	7.06705E-001	4.02668E-004	0.00000E+000	2.84568E-004	2.40040E-001	7.06959E-001	3.57660E+000	9	...........
	51	0.693333	7.12310E-001	3.99957E-004	0.00000E+000	2.84893E-004	2.40040E-001	7.12550E-001	3.57660E+000	9	...........
	52	0.706667	7.17974E-001	4.00312E-004	0.00000E+000	2.87413E-004	2.40040E-001	7.18225E-001	3.57660E+000	9	...........
	53	0.72	7.23714E-001	4.00636E-004	0.00000E+000	2.89946E-004	2.40040E-001	7.23916E-001	3.57660E+000	9	...........
	54	0.733333	7.29303E-001	4.01389E-004	0.00000E+000	2.92734E-004	2.40040E-001	7.29530E-001	3.57660E+000	9	...........
	55	0.746667	7.34856E-001	4.00457E-004	0.00000E+000	2.94278E-004	2.40040E-001	7.35073E-001	3.57660E+000	9	...........
	56	0.76	7.40334E-001	4.00762E-004	0.00000E+000	2.96697E-004	2.40040E-001	7.40573E-001	3.57660E+000	9	...........
	57	0.773333	7.45865E-001	4.00505E-004	0.00000E+000	2.98723E-004	2.40040E-001	7.46084E-001	3.57660E+000	9	...........
	58	0.786667	7.51365E-001	4.00672E-004	0.00000E+000	3.01051E-004	2.40040E-001	7.51589E-001	3.57660E+000	9	...........
	59	0.8	7.56799E-001	3.99929E-004	0.00000E+000	3.02666E-004	2.40040E-001	7.57045E-001	3.57660E+000	9	...........
	60	0.813333	7.62208E-001	4.02062E-004	0.00000E+000	3.06455E-004	2.40040E-001	7.62461E-001	3.57660E+000	9	...........
	61	0.826667	7.67560E-001	4.00462E-004	0.00000E+000	3.07378E-004	2.40040E-001	7.67814E-001	3.57660E+000	9	...........
	62	0.84	7.72913E-001	4.00673E-004	0.00000E+000	3.09686E-004	2.40040E-001	7.73142E-001	3.57660E+000	9	...........
	63	0.853333	7.78225E-001	4.01641E-004	0.00000E+000	3.12567E-004	2.40040E-001	7.78454E-001	3.57660E+000	9	...........
	64	0.866667	7.83545E-001	4.00651E-004	0.00000E+000	3.13928E-004	2.40040E-001	7.83772E-001	3.57660E+000	9	...........
	65	0.88	7.88847E-001	4.00895E-004	0.00000E+000	3.16245E-004	2.40040E-001	7.89076E-001	3.57660E+000	9	...........
	66	0.893333	7.94100E-001	4.01659E-004	0.00000E+000	3.18957E-004	2.40040E-001	7.94325E-001	3.57660E+000	9	...........
	67	0.906667	7.99301E-001	4.01575E-004	0.00000E+000	3.20979E-004	2.40040E-001	7.99530E-001	3.57660E+000	9	...........
	68	0.92	8.04513E-001	4.00777E-004	0.00000E+000	3.22430E-004	2.40040E-001	8.04775E-001	3.57660E+000	9	...........
	69	0.933333	8.09702E-001	4.01214E-004	0.00000E+000	3.24864E-004	2.40040E-001	8.09946E-001	3.57672E+000	9	...........
	70	0.946667	8.14845E-001	4.01697E-004	0.00000E+000	3.27321E-004	2.40040E-001	8.15110E-001	3.57760E+000	9	...........
	71	0.96	8.19974E-001	4.00958E-004	0.00000E+000	3.28775E-004	2.40040E-001	8.20258E-001	3.57760E+000	9	...........
	72	0.97333	8.25009E-001	4.00814E-004	0.00000E+000	3.30675E-004	2.40040E-001	8.25270E-001	3.57760E+000	9	...........
	73	0.98667	8.30046E-001	4.01383E-004	0.00000E+000	3.33166E-004	2.40040E-001	8.30318E-001	3.57760E+000	9	...........
	74	1	8.35068E-001	4.01950E-004	0.00000E+000	3.35656E-004	2.40040E-001	8.35376E-001	3.57760E+000	9	...........
	75	1.01333	8.40079E-001	4.01344E-004	0.00000E+000	3.37161E-004	2.40040E-001	8.40358E-001	3.57760E+000	9	...........
	76	1.02667	8.45056E-001	4.01857E-004	0.00000E+000	3.39591E-004	2.40040E-001	8.45354E-001	3.57760E+000	9	...........
	77	1.04	8.49967E-001	4.01250E-004	0.00000E+000	3.41049E-004	2.40040E-001	8.50247E-001	3.57760E+000	9	...........
	78	1.05333	8.54770E-001	4.00863E-004	0.00000E+000	3.42645E-004	2.40040E-001	8.55096E-001	3.57760E+000	9	...........
	79	1.06667	8.59589E-001	4.01760E-004	0.00000E+000	3.45348E-004	2.40040E-001	8.59913E-001	3.57760E+000	9	...........
	80	1.08	8.64385E-001	4.01095E-004	0.00000E+000	3.46700E-004	2.40040E-001	8.64678E-001	3.57760E+000	9	...........
	81	1.09333	8.69184E-001	4.00739E-004	0.00000E+000	3.48316E-004	2.40040E-001	8.69492E-001	3.57760E+000	9	...........
	82	1.10667	8.73957E-001	4.00323E-004	0.00000E+000	3.49865E-004	2.40040E-001	8.74244E-001	3.57760E+000	9	...........
	83	1.12	8.78630E-001	4.01799E-004	0.00000E+000	3.53033E-004	2.40040E-001	8.78909E-001	3.57760E+000	9	...........
	84	1.13333	8.83297E-001	4.01072E-004	0.00000E+000	3.54266E-004	2.40040E-001	8.83587E-001	3.57760E+000	9	...........
	85	1.14667	8.87935E-001	4.00929E-004	0.00000E+000	3.55999E-004	2.40040E-001	8.88225E-001	3.57760E+000	9	...........
	86	1.16	8.92506E-001	4.00732E-004	0.00000E+000	3.57656E-004	2.40040E-001	8.92818E-001	3.57760E+000	9	...........
	87	1.17333	8.97040E-001	4.00707E-004	0.00000E+000	3.59451E-004	2.40040E-001	8.97385E-001	3.57760E+000	9	...........
	88	1.18667	9.01558E-001	4.00569E-004	0.00000E+000	3.61136E-004	2.40040E-001	9.01888E-001	3.57760E+000	9	...........
	89	1.2	9.05946E-001	4.01229E-004	0.00000E+000	3.63492E-004	2.40040E-001	9.06285E-001	3.57760E+000	9	...........
	90	1.21333	9.10385E-001	4.01189E-004	0.00000E+000	3.65236E-004	2.40040E-001	9.10735E-001	3.57760E+000	9	...........
	91	1.22667	9.14762E-001	4.00382E-004	0.00000E+000	3.66255E-004	2.40040E-001	9.15104E-001	3.57760E+000	9	...........
	92	1.24	9.19137E-001	4.00811E-004	0.00000E+000	3.68400E-004	2.40040E-001	9.19487E-001	3.57760E+000	9	...........
	93	1.25333	9.23537E-001	3.99822E-004	0.00000E+000	3.69250E-004	2.40040E-001	9.23845E-001	3.57760E+000	9	...........
	94	1.26667	9.27831E-001	4.00085E-004	0.00000E+000	3.71212E-004	2.40040E-001	9.28145E-001	3.57760E+000	9	...........
	95	1.28	9.32093E-001	4.01336E-004	0.00000E+000	3.74082E-004	2.40040E-001	9.32394E-001	3.57760E+000	9	...........
	96	1.29333	9.36285E-001	4.01265E-004	0.00000E+000	3.75698E-004	2.40040E-001	9.36598E-001	3.57760E+000	9	...........
	97	1.30667	9.40473E-001	4.00881E-004	0.00000E+000	3.77018E-004	2.40040E-001	9.40794E-001	3.57760E+000	9	...........
	98	1.32	9.44631E-001	4.02337E-004	0.00000E+000	3.80060E-004	2.40040E-001	9.44949E-001	3.57760E+000	9	...........
	99	1.33333	9.48741E-001	4.00598E-004	0.00000E+000	3.80064E-004	2.40040E-001	9.49044E-001	3.57760E+000	9	...........
	100	1.34667	9.52751E-001	4.00366E-004	0.00000E+000	3.81449E-004	2.40040E-001	9.53044E-001	3.57760E+000	9	...........
	101	1.36	9.56718E-001	4.00123E-004	0.00000E+000	3.82805E-004	2.40040E-001	9.57035E-001	3.57760E+000	9	...........
	102	1.37333	9.60683E-001	4.00643E-004	0.00000E+000	3.84891E-004	2.40040E-001	9.60995E-001	3.57760E+000	9	...........
	103	1.38667	9.64602E-001	4.00614E-004	0.00000E+000	3.86433E-004	2.40040E-001	9.64926E-001	3.57760E+000	9	...........
	104	1.4	9.68511E-001	4.01283E-004	0.00000E+000	3.88646E-004	2.40040E-001	9.68848E-001	3.57760E+000	9	...........
	105	1.41333	9.72391E-001	4.00617E-004	0.00000E+000	3.89556E-004	2.40040E-001	9.72754E-001	3.57760E+000	9	...........
	106	1.42667	9.76227E-001	4.01477E-004	0.00000E+000	3.91933E-004	2.40040E-001	9.76559E-001	3.57760E+000	9	...........
	107	1.44	9.80024E-001	3.99956E-004	0.00000E+000	3.91967E-004	2.40040E-001	9.80335E-001	3.57760E+000	9	...........
	108	1.45333	9.83746E-001	4.01152E-004	0.00000E+000	3.94632E-004	2.40040E-001	9.84080E-001	3.57760E+000	9	...........
	109	1.46667	9.87420E-001	4.00900E-004	0.00000E+000	3.95857E-004	2.40040E-001	9.87754E-001	3.57760E+000	9	...........
	110	1.48	9.91059E-001	4.00339E-004	0.00000E+000	3.96759E-004	2.40040E-001	9.91398E-001	3.57760E+000	9	...........
	111	1.49333	9.94668E-001	4.00959E-004	0.00000E+000	3.98821E-004	2.40040E-001	9.95022E-001	3.57760E+000	9	...........
	112	1.50667	9.98267E-001	4.01524E-004	0.00000E+000	4.00828E-004	2.40040E-001	9.98620E-001	3.57760E+000	9	...........
	113	1.50833	1.00025E+000	4.00652E-004	0.00000E+000	4.00751E-004	2.40040E-001	1.00061E+000	3.57760E+000	9	...........
STARTTIMEOFFSET	QUANT	1963.792	Start Time Offset (s)
