EXPLAIN
TAG	PWR800_CHARGE
TITLE	LABEL	PWR Cyclic Charge Discharge (Cell) - Charge Step	Test &Identifier
DATE	LABEL	12-7-2017	Date
TIME	LABEL	14:40:28	Time
NOTES	NOTES	3	&Notes...
	supercap test cell
	0.4mg
	6M KOH
PSTAT	PSTAT	IFC5000-01520	Potentiostat
CAPACITY	QUANT	1.00000E-003	Capacity (A-hr)
CELLTYPE	SELECTOR	1	&Cell Type
WORKINGCONNECTION	SELECTOR	0	&Working Lead
MAXCHARGETIME	VARIABLEANDUNITS	1.00000E+002	s	1.00000E+002	second(s)	Max &Charge Time
CHARGECURRENT	QUANT	4.00000E-004	&Charge Current (A) 
VOLTAGEFINISH	TWOPARAM	F	1.00000E-003	3.60000E+003	&Voltage Finish	 I (A) < 	Max Time(s)
SAMPLETIME	QUANT	1.00000E-002	Sa&mple Period (s)
CHARGESTOPAT1	MULTIPARAM	4	1.00000E+000	Charge Stop At &1	Voltage > Limit	V
CHARGESTOPAT2	MULTIPARAM	0	0.00000E+000	Charge Stop At &2	None	N/A
AESBHCSELECTOR	TOGGLE	F	Save Both Half Cells
IRCOMP	TOGGLE	F	IR &Measure
EOC	QUANT	0	Open Circuit (V)
SEQUENCER	TOGGLE	TRUE	Run as Sequence
PSTATMODEL	IQUANT	53	Pstat Model
PSTATSECTION	LABEL	IFC5000-01520	Pstat Section
PSTATSERIALNO	LABEL	01520	Pstat Serial Number
CTRLMODE	IQUANT	0	Control Mode
ELECTROMETER	IQUANT	1	RE=0 or CS=1
IESTAB	IQUANT	0	I/E Stability
CASPEED	IQUANT	4	Control Amp Speed
CONVENTION	IQUANT	1	Current Convention
ICHRANGE	IQUANT	2	Ich Range
ICHRANGEMODE	TOGGLE	T	Ich Auto Range
ICHOFFSETENABLE	TOGGLE	F	Ich Offset Enable
ICHOFFSET	QUANT	0	Ich Offset (V)
ICHFILTER	IQUANT	1	Ich Filter
VCHRANGE	IQUANT	2	Vch Range
VCHRANGEMODE	TOGGLE	T	Vch Auto Range
VCHOFFSETENABLE	TOGGLE	F	Vch Offset Enable
VCHOFFSET	QUANT	0	Vch Offset (V)
VCHFILTER	IQUANT	1	Vch Filter
IERANGELOWERLIMIT	IQUANT	9	I/E Range Lower Limit
IERANGEMODE	TOGGLE	F	I/E AutoRange
IERANGE	IQUANT	9	I/E Range
ACHSELECT	IQUANT	1	Ach Select
ACHRANGE	IQUANT	2	Ach Range
ACHOFFSETENABLE	TOGGLE	F	Ach Offset Enable
ACHOFFSET	QUANT	0	Ach Offset (V)
ACHFILTER	IQUANT	1	Ach Filter
CABLEID	IQUANT	14	Cable ID
DCCALDATE	LABEL	5-7-2017	DC Calibration Date
ACCALDATE	LABEL	12/3/2015	AC Calibration Date
FRAMEWORKVERSION	QUANT	7.01	Framework Version
INSTRUMENTVERSION	LABEL	4.00	Instrument Version
CURVE	TABLE	125
	Pt	T	Vf	Im	Vu	Pwr	Sig	Ach	Temp	IERange	Over
	#	s	V	A	V	W	V	V	deg C	#	bits
	0	0.013333	3.54654E-001	4.02748E-004	0.00000E+000	1.42836E-004	2.40040E-001	3.54738E-001	3.57660E+000	9	...........
	1	0.026667	3.65594E-001	4.01721E-004	0.00000E+000	1.46867E-004	2.40040E-001	3.65661E-001	3.57660E+000	9	...........
	2	0.04	3.75071E-001	4.01994E-004	0.00000E+000	1.50776E-004	2.40040E-001	3.75141E-001	3.57660E+000	9	...........
	3	0.053333	3.83653E-001	4.00411E-004	0.00000E+000	1.53619E-004	2.40040E-001	3.83726E-001	3.57660E+000	9	...........
	4	0.066667	3.91728E-001	4.01651E-004	0.00000E+000	1.57338E-004	2.40040E-001	3.91798E-001	3.57660E+000	9	...........
	5	0.08	3.99472E-001	4.00493E-004	0.00000E+000	1.59986E-004	2.40040E-001	3.99549E-001	3.57660E+000	9	...........
	6	0.093333	4.06879E-001	4.00481E-004	0.00000E+000	1.62948E-004	2.40040E-001	4.06956E-001	3.57660E+000	9	...........
	7	0.106667	4.13984E-001	4.01696E-004	0.00000E+000	1.66296E-004	2.40040E-001	4.14070E-001	3.57660E+000	9	...........
	8	0.12	4.20986E-001	4.00057E-004	0.00000E+000	1.68418E-004	2.40040E-001	4.21073E-001	3.57660E+000	9	...........
	9	0.133333	4.27824E-001	3.99511E-004	0.00000E+000	1.70920E-004	2.40040E-001	4.27915E-001	3.57660E+000	9	...........
	10	0.146667	4.34624E-001	4.01804E-004	0.00000E+000	1.74634E-004	2.40040E-001	4.34715E-001	3.57660E+000	9	...........
	11	0.16	4.41160E-001	4.00652E-004	0.00000E+000	1.76752E-004	2.40040E-001	4.41253E-001	3.57660E+000	9	...........
	12	0.173333	4.47711E-001	4.00206E-004	0.00000E+000	1.79177E-004	2.40040E-001	4.47804E-001	3.57660E+000	9	...........
	13	0.186667	4.54178E-001	4.00489E-004	0.00000E+000	1.81893E-004	2.40040E-001	4.54267E-001	3.57660E+000	9	...........
	14	0.2	4.60522E-001	4.01561E-004	0.00000E+000	1.84928E-004	2.40040E-001	4.60617E-001	3.57660E+000	9	...........
	15	0.213333	4.66786E-001	4.01661E-004	0.00000E+000	1.87490E-004	2.40040E-001	4.66880E-001	3.57660E+000	9	...........
	16	0.226667	4.73012E-001	4.00949E-004	0.00000E+000	1.89654E-004	2.40040E-001	4.73108E-001	3.57660E+000	9	...........
	17	0.24	4.79182E-001	4.01521E-004	0.00000E+000	1.92402E-004	2.40040E-001	4.79277E-001	3.57660E+000	9	...........
	18	0.253333	4.85315E-001	4.00972E-004	0.00000E+000	1.94598E-004	2.40040E-001	4.85409E-001	3.57660E+000	9	...........
	19	0.266667	4.91370E-001	4.00326E-004	0.00000E+000	1.96708E-004	2.40040E-001	4.91465E-001	3.57660E+000	9	...........
	20	0.28	4.97346E-001	4.00976E-004	0.00000E+000	1.99424E-004	2.40040E-001	4.97443E-001	3.57660E+000	9	...........
	21	0.293333	5.03349E-001	4.01116E-004	0.00000E+000	2.01901E-004	2.40040E-001	5.03448E-001	3.57660E+000	9	...........
	22	0.306667	5.09300E-001	4.01675E-004	0.00000E+000	2.04573E-004	2.40040E-001	5.09404E-001	3.57660E+000	9	...........
	23	0.32	5.15185E-001	4.00908E-004	0.00000E+000	2.06542E-004	2.40040E-001	5.15290E-001	3.57660E+000	9	...........
	24	0.333333	5.21109E-001	4.00966E-004	0.00000E+000	2.08947E-004	2.40040E-001	5.21213E-001	3.57660E+000	9	...........
	25	0.346667	5.27059E-001	4.01375E-004	0.00000E+000	2.11549E-004	2.40040E-001	5.27166E-001	3.57660E+000	9	...........
	26	0.36	5.32731E-001	4.01386E-004	0.00000E+000	2.13830E-004	2.40040E-001	5.32863E-001	3.57660E+000	9	...........
	27	0.373333	5.38335E-001	4.01939E-004	0.00000E+000	2.16378E-004	2.40040E-001	5.38570E-001	3.57660E+000	9	...........
	28	0.386667	5.44085E-001	4.02678E-004	0.00000E+000	2.19091E-004	2.40040E-001	5.44322E-001	3.57660E+000	9	...........
	29	0.4	5.49800E-001	3.99713E-004	0.00000E+000	2.19762E-004	2.40040E-001	5.50054E-001	3.57660E+000	9	...........
	30	0.413333	5.55586E-001	4.00265E-004	0.00000E+000	2.22381E-004	2.40040E-001	5.55846E-001	3.57660E+000	9	...........
	31	0.426667	5.61389E-001	4.00538E-004	0.00000E+000	2.24857E-004	2.40040E-001	5.61632E-001	3.57670E+000	9	...........
	32	0.44	5.67156E-001	4.01119E-004	0.00000E+000	2.27497E-004	2.40040E-001	5.67362E-001	3.57670E+000	9	...........
	33	0.453333	5.72858E-001	4.00721E-004	0.00000E+000	2.29556E-004	2.40040E-001	5.73061E-001	3.57670E+000	9	...........
	34	0.466667	5.78391E-001	4.00577E-004	0.00000E+000	2.31690E-004	2.40040E-001	5.78618E-001	3.57670E+000	9	...........
	35	0.48	5.84040E-001	4.00230E-004	0.00000E+000	2.33750E-004	2.40040E-001	5.84240E-001	3.57670E+000	9	...........
	36	0.493333	5.89659E-001	4.02227E-004	0.00000E+000	2.37177E-004	2.40040E-001	5.89883E-001	3.57670E+000	9	...........
	37	0.506667	5.95278E-001	4.01031E-004	0.00000E+000	2.38725E-004	2.40040E-001	5.95495E-001	3.57670E+000	9	...........
	38	0.52	6.00841E-001	4.00323E-004	0.00000E+000	2.40530E-004	2.40040E-001	6.01090E-001	3.57670E+000	9	...........
	39	0.533333	6.06403E-001	4.00912E-004	0.00000E+000	2.43114E-004	2.40040E-001	6.06673E-001	3.57670E+000	9	...........
	40	0.546667	6.11930E-001	4.01763E-004	0.00000E+000	2.45851E-004	2.40040E-001	6.12183E-001	3.57670E+000	9	...........
	41	0.56	6.17402E-001	3.99843E-004	0.00000E+000	2.46864E-004	2.40040E-001	6.17614E-001	3.57670E+000	9	...........
	42	0.573333	6.22910E-001	4.00744E-004	0.00000E+000	2.49628E-004	2.40040E-001	6.23103E-001	3.57670E+000	9	...........
	43	0.586667	6.28456E-001	3.98938E-004	0.00000E+000	2.50715E-004	2.40040E-001	6.28673E-001	3.57670E+000	9	...........
	44	0.6	6.33874E-001	4.00650E-004	0.00000E+000	2.53962E-004	2.40040E-001	6.34094E-001	3.57670E+000	9	...........
	45	0.613333	6.39350E-001	4.00055E-004	0.00000E+000	2.55775E-004	2.40040E-001	6.39599E-001	3.57670E+000	9	...........
	46	0.626667	6.44907E-001	4.01252E-004	0.00000E+000	2.58771E-004	2.40040E-001	6.45128E-001	3.57670E+000	9	...........
	47	0.64	6.50399E-001	4.01388E-004	0.00000E+000	2.61062E-004	2.40040E-001	6.50608E-001	3.57670E+000	9	...........
	48	0.653333	6.55733E-001	4.00109E-004	0.00000E+000	2.62365E-004	2.40040E-001	6.55948E-001	3.57670E+000	9	...........
	49	0.666667	6.61105E-001	4.01620E-004	0.00000E+000	2.65513E-004	2.40040E-001	6.61314E-001	3.57670E+000	9	...........
	50	0.68	6.66514E-001	4.00552E-004	0.00000E+000	2.66974E-004	2.40040E-001	6.66742E-001	3.57670E+000	9	...........
	51	0.693333	6.71999E-001	4.00835E-004	0.00000E+000	2.69360E-004	2.40040E-001	6.72214E-001	3.57670E+000	9	...........
	52	0.706667	6.77379E-001	4.01295E-004	0.00000E+000	2.71829E-004	2.40040E-001	6.77610E-001	3.57670E+000	9	...........
	53	0.72	6.82768E-001	4.01567E-004	0.00000E+000	2.74177E-004	2.40040E-001	6.82989E-001	3.57670E+000	9	...........
	54	0.733333	6.88098E-001	4.00346E-004	0.00000E+000	2.75477E-004	2.40040E-001	6.88319E-001	3.57670E+000	9	...........
	55	0.746667	6.93446E-001	4.01402E-004	0.00000E+000	2.78351E-004	2.40040E-001	6.93638E-001	3.57670E+000	9	...........
	56	0.76	6.98745E-001	4.00923E-004	0.00000E+000	2.80143E-004	2.40040E-001	6.98955E-001	3.57670E+000	9	...........
	57	0.773333	7.03998E-001	4.01309E-004	0.00000E+000	2.82520E-004	2.40040E-001	7.04200E-001	3.57670E+000	9	...........
	58	0.786667	7.09195E-001	4.01810E-004	0.00000E+000	2.84961E-004	2.40040E-001	7.09411E-001	3.57670E+000	9	...........
	59	0.8	7.14413E-001	4.00842E-004	0.00000E+000	2.86367E-004	2.40040E-001	7.14654E-001	3.57670E+000	9	...........
	60	0.813333	7.19671E-001	4.00301E-004	0.00000E+000	2.88085E-004	2.40040E-001	7.19859E-001	3.57670E+000	9	...........
	61	0.826667	7.24858E-001	4.00613E-004	0.00000E+000	2.90387E-004	2.40040E-001	7.25040E-001	3.57670E+000	9	...........
	62	0.84	7.30138E-001	4.00628E-004	0.00000E+000	2.92514E-004	2.40040E-001	7.30318E-001	3.57670E+000	9	...........
	63	0.853333	7.35286E-001	4.01700E-004	0.00000E+000	2.95365E-004	2.40040E-001	7.35451E-001	3.57670E+000	9	...........
	64	0.866667	7.40409E-001	3.99848E-004	0.00000E+000	2.96051E-004	2.40040E-001	7.40594E-001	3.57670E+000	9	...........
	65	0.88	7.45566E-001	4.00774E-004	0.00000E+000	2.98803E-004	2.40040E-001	7.45748E-001	3.57670E+000	9	...........
	66	0.893333	7.50680E-001	3.99935E-004	0.00000E+000	3.00224E-004	2.40040E-001	7.50877E-001	3.57670E+000	9	...........
	67	0.906667	7.55835E-001	4.01411E-004	0.00000E+000	3.03400E-004	2.40040E-001	7.56061E-001	3.57670E+000	9	...........
	68	0.92	7.60965E-001	4.01143E-004	0.00000E+000	3.05256E-004	2.40040E-001	7.61175E-001	3.57670E+000	9	...........
	69	0.933333	7.66055E-001	4.01934E-004	0.00000E+000	3.07903E-004	2.40040E-001	7.66340E-001	3.57670E+000	9	...........
	70	0.946667	7.71135E-001	4.00267E-004	0.00000E+000	3.08660E-004	2.40040E-001	7.71385E-001	3.57670E+000	9	...........
	71	0.96	7.76143E-001	4.00970E-004	0.00000E+000	3.11210E-004	2.40040E-001	7.76392E-001	3.57670E+000	9	...........
	72	0.97333	7.81195E-001	4.01574E-004	0.00000E+000	3.13708E-004	2.40040E-001	7.81436E-001	3.57670E+000	9	...........
	73	0.98667	7.86171E-001	4.01075E-004	0.00000E+000	3.15314E-004	2.40040E-001	7.86402E-001	3.57670E+000	9	...........
	74	1	7.91060E-001	4.00633E-004	0.00000E+000	3.16925E-004	2.40040E-001	7.91329E-001	3.57670E+000	9	...........
	75	1.01333	7.96014E-001	4.00925E-004	0.00000E+000	3.19142E-004	2.40040E-001	7.96268E-001	3.57670E+000	9	...........
	76	1.02667	8.01014E-001	4.00075E-004	0.00000E+000	3.20466E-004	2.40040E-001	8.01257E-001	3.57670E+000	9	...........
	77	1.04	8.05889E-001	4.01892E-004	0.00000E+000	3.23881E-004	2.40040E-001	8.06160E-001	3.57670E+000	9	...........
	78	1.05333	8.10784E-001	4.00984E-004	0.00000E+000	3.25111E-004	2.40040E-001	8.11015E-001	3.57670E+000	9	...........
	79	1.06667	8.15613E-001	4.00365E-004	0.00000E+000	3.26543E-004	2.40040E-001	8.15858E-001	3.57670E+000	9	...........
	80	1.08	8.20451E-001	4.00694E-004	0.00000E+000	3.28750E-004	2.40040E-001	8.20692E-001	3.57670E+000	9	...........
	81	1.09333	8.25278E-001	4.01190E-004	0.00000E+000	3.31093E-004	2.40040E-001	8.25531E-001	3.57670E+000	9	...........
	82	1.10667	8.30019E-001	4.00284E-004	0.00000E+000	3.32244E-004	2.40040E-001	8.30277E-001	3.57670E+000	9	...........
	83	1.12	8.34749E-001	4.01083E-004	0.00000E+000	3.34803E-004	2.40040E-001	8.35017E-001	3.57670E+000	9	...........
	84	1.13333	8.39412E-001	4.00563E-004	0.00000E+000	3.36237E-004	2.40040E-001	8.39658E-001	3.57670E+000	9	...........
	85	1.14667	8.44077E-001	4.01559E-004	0.00000E+000	3.38946E-004	2.40040E-001	8.44327E-001	3.57670E+000	9	...........
	86	1.16	8.48784E-001	4.02141E-004	0.00000E+000	3.41331E-004	2.40040E-001	8.49053E-001	3.57670E+000	9	...........
	87	1.17333	8.53472E-001	4.02071E-004	0.00000E+000	3.43157E-004	2.40040E-001	8.53751E-001	3.57670E+000	9	...........
	88	1.18667	8.58067E-001	4.01626E-004	0.00000E+000	3.44623E-004	2.40040E-001	8.58388E-001	3.57670E+000	9	...........
	89	1.2	8.62602E-001	3.99940E-004	0.00000E+000	3.44989E-004	2.40040E-001	8.62888E-001	3.57670E+000	9	...........
	90	1.21333	8.67118E-001	4.00721E-004	0.00000E+000	3.47472E-004	2.40040E-001	8.67448E-001	3.57670E+000	9	...........
	91	1.22667	8.71666E-001	4.00541E-004	0.00000E+000	3.49138E-004	2.40040E-001	8.71998E-001	3.57670E+000	9	...........
	92	1.24	8.76199E-001	4.01758E-004	0.00000E+000	3.52020E-004	2.40040E-001	8.76502E-001	3.57670E+000	9	...........
	93	1.25333	8.80688E-001	4.00552E-004	0.00000E+000	3.52762E-004	2.40040E-001	8.80997E-001	3.57670E+000	9	...........
	94	1.26667	8.85032E-001	3.99435E-004	0.00000E+000	3.53513E-004	2.40040E-001	8.85370E-001	3.57670E+000	9	...........
	95	1.28	8.89401E-001	4.00934E-004	0.00000E+000	3.56591E-004	2.40040E-001	8.89703E-001	3.57670E+000	9	...........
	96	1.29333	8.93690E-001	4.00719E-004	0.00000E+000	3.58119E-004	2.40040E-001	8.94033E-001	3.57670E+000	9	...........
	97	1.30667	8.98033E-001	4.02063E-004	0.00000E+000	3.61066E-004	2.40040E-001	8.98374E-001	3.57670E+000	9	...........
	98	1.32	9.02310E-001	4.00427E-004	0.00000E+000	3.61309E-004	2.40040E-001	9.02669E-001	3.57670E+000	9	...........
	99	1.33333	9.06538E-001	4.00933E-004	0.00000E+000	3.63460E-004	2.40040E-001	9.06894E-001	3.57670E+000	9	...........
	100	1.34667	9.10733E-001	3.99954E-004	0.00000E+000	3.64251E-004	2.40040E-001	9.11059E-001	3.57670E+000	9	...........
	101	1.36	9.14857E-001	4.00871E-004	0.00000E+000	3.66740E-004	2.40040E-001	9.15220E-001	3.57670E+000	9	...........
	102	1.37333	9.19041E-001	3.99312E-004	0.00000E+000	3.66984E-004	2.40040E-001	9.19398E-001	3.57670E+000	9	...........
	103	1.38667	9.23274E-001	4.01296E-004	0.00000E+000	3.70506E-004	2.40040E-001	9.23562E-001	3.57670E+000	9	...........
	104	1.4	9.27335E-001	4.00959E-004	0.00000E+000	3.71823E-004	2.40040E-001	9.27644E-001	3.57670E+000	9	...........
	105	1.41333	9.31413E-001	4.01138E-004	0.00000E+000	3.73625E-004	2.40040E-001	9.31699E-001	3.57670E+000	9	...........
	106	1.42667	9.35391E-001	3.99794E-004	0.00000E+000	3.73963E-004	2.40040E-001	9.35710E-001	3.57600E+000	9	...........
	107	1.44	9.39337E-001	3.99697E-004	0.00000E+000	3.75450E-004	2.40040E-001	9.39659E-001	3.57600E+000	9	...........
	108	1.45333	9.43298E-001	4.01510E-004	0.00000E+000	3.78743E-004	2.40040E-001	9.43616E-001	3.57600E+000	9	...........
	109	1.46667	9.47181E-001	4.00546E-004	0.00000E+000	3.79390E-004	2.40040E-001	9.47496E-001	3.57600E+000	9	...........
	110	1.48	9.51005E-001	4.00694E-004	0.00000E+000	3.81062E-004	2.40040E-001	9.51321E-001	3.57600E+000	9	...........
	111	1.49333	9.54821E-001	4.01439E-004	0.00000E+000	3.83302E-004	2.40040E-001	9.55135E-001	3.57600E+000	9	...........
	112	1.50667	9.58629E-001	4.01259E-004	0.00000E+000	3.84658E-004	2.40040E-001	9.58974E-001	3.57600E+000	9	...........
	113	1.52	9.62370E-001	4.00394E-004	0.00000E+000	3.85327E-004	2.40040E-001	9.62739E-001	3.57600E+000	9	...........
	114	1.53333	9.66076E-001	4.00924E-004	0.00000E+000	3.87323E-004	2.40040E-001	9.66434E-001	3.57600E+000	9	...........
	115	1.54667	9.69749E-001	4.02412E-004	0.00000E+000	3.90238E-004	2.40040E-001	9.70103E-001	3.57600E+000	9	...........
	116	1.56	9.73465E-001	3.99959E-004	0.00000E+000	3.89346E-004	2.40040E-001	9.73805E-001	3.57600E+000	9	...........
	117	1.57333	9.77118E-001	4.01112E-004	0.00000E+000	3.91933E-004	2.40040E-001	9.77436E-001	3.57600E+000	9	...........
	118	1.58667	9.80698E-001	4.00421E-004	0.00000E+000	3.92692E-004	2.40040E-001	9.81006E-001	3.57600E+000	9	...........
	119	1.6	9.84193E-001	4.01393E-004	0.00000E+000	3.95048E-004	2.40040E-001	9.84512E-001	3.57600E+000	9	...........
	120	1.61333	9.87708E-001	4.00620E-004	0.00000E+000	3.95695E-004	2.40040E-001	9.88026E-001	3.57600E+000	9	...........
	121	1.62667	9.91178E-001	4.01605E-004	0.00000E+000	3.98061E-004	2.40040E-001	9.91502E-001	3.57600E+000	9	...........
	122	1.64	9.94594E-001	4.01127E-004	0.00000E+000	3.98959E-004	2.40040E-001	9.94929E-001	3.57600E+000	9	...........
	123	1.65333	9.98005E-001	4.00542E-004	0.00000E+000	3.99743E-004	2.40040E-001	9.98351E-001	3.57600E+000	9	...........
	124	1.65667	1.00015E+000	3.99723E-004	0.00000E+000	3.99781E-004	2.40040E-001	1.00044E+000	3.57600E+000	9	...........
STARTTIMEOFFSET	QUANT	1049.999	Start Time Offset (s)
