EXPLAIN
TAG	PWR800_CHARGE
TITLE	LABEL	PWR Cyclic Charge Discharge (Cell) - Charge Step	Test &Identifier
DATE	LABEL	12-7-2017	Date
TIME	LABEL	15:13:00	Time
NOTES	NOTES	3	&Notes...
	supercap test cell
	0.4mg
	6M KOH
PSTAT	PSTAT	IFC5000-01520	Potentiostat
CAPACITY	QUANT	1.00000E-003	Capacity (A-hr)
CELLTYPE	SELECTOR	1	&Cell Type
WORKINGCONNECTION	SELECTOR	0	&Working Lead
MAXCHARGETIME	VARIABLEANDUNITS	1.00000E+002	s	1.00000E+002	second(s)	Max &Charge Time
CHARGECURRENT	QUANT	4.00000E-004	&Charge Current (A) 
VOLTAGEFINISH	TWOPARAM	F	1.00000E-003	3.60000E+003	&Voltage Finish	 I (A) < 	Max Time(s)
SAMPLETIME	QUANT	1.00000E-002	Sa&mple Period (s)
CHARGESTOPAT1	MULTIPARAM	4	1.00000E+000	Charge Stop At &1	Voltage > Limit	V
CHARGESTOPAT2	MULTIPARAM	0	0.00000E+000	Charge Stop At &2	None	N/A
AESBHCSELECTOR	TOGGLE	F	Save Both Half Cells
IRCOMP	TOGGLE	F	IR &Measure
EOC	QUANT	0	Open Circuit (V)
SEQUENCER	TOGGLE	TRUE	Run as Sequence
PSTATMODEL	IQUANT	53	Pstat Model
PSTATSECTION	LABEL	IFC5000-01520	Pstat Section
PSTATSERIALNO	LABEL	01520	Pstat Serial Number
CTRLMODE	IQUANT	0	Control Mode
ELECTROMETER	IQUANT	1	RE=0 or CS=1
IESTAB	IQUANT	0	I/E Stability
CASPEED	IQUANT	4	Control Amp Speed
CONVENTION	IQUANT	1	Current Convention
ICHRANGE	IQUANT	2	Ich Range
ICHRANGEMODE	TOGGLE	T	Ich Auto Range
ICHOFFSETENABLE	TOGGLE	F	Ich Offset Enable
ICHOFFSET	QUANT	0	Ich Offset (V)
ICHFILTER	IQUANT	1	Ich Filter
VCHRANGE	IQUANT	2	Vch Range
VCHRANGEMODE	TOGGLE	T	Vch Auto Range
VCHOFFSETENABLE	TOGGLE	F	Vch Offset Enable
VCHOFFSET	QUANT	0	Vch Offset (V)
VCHFILTER	IQUANT	1	Vch Filter
IERANGELOWERLIMIT	IQUANT	9	I/E Range Lower Limit
IERANGEMODE	TOGGLE	F	I/E AutoRange
IERANGE	IQUANT	9	I/E Range
ACHSELECT	IQUANT	1	Ach Select
ACHRANGE	IQUANT	2	Ach Range
ACHOFFSETENABLE	TOGGLE	F	Ach Offset Enable
ACHOFFSET	QUANT	0	Ach Offset (V)
ACHFILTER	IQUANT	1	Ach Filter
CABLEID	IQUANT	14	Cable ID
DCCALDATE	LABEL	5-7-2017	DC Calibration Date
ACCALDATE	LABEL	12/3/2015	AC Calibration Date
FRAMEWORKVERSION	QUANT	7.01	Framework Version
INSTRUMENTVERSION	LABEL	4.00	Instrument Version
CURVE	TABLE	108
	Pt	T	Vf	Im	Vu	Pwr	Sig	Ach	Temp	IERange	Over
	#	s	V	A	V	W	V	V	deg C	#	bits
	0	0.013333	3.85517E-001	4.01036E-004	0.00000E+000	1.54606E-004	2.40040E-001	3.85604E-001	3.57670E+000	9	...........
	1	0.026667	3.98156E-001	4.01417E-004	0.00000E+000	1.59827E-004	2.40040E-001	3.98233E-001	3.57670E+000	9	...........
	2	0.04	4.08972E-001	4.02006E-004	0.00000E+000	1.64409E-004	2.40040E-001	4.09052E-001	3.57670E+000	9	...........
	3	0.053333	4.18728E-001	4.00897E-004	0.00000E+000	1.67867E-004	2.40040E-001	4.18815E-001	3.57670E+000	9	...........
	4	0.066667	4.27810E-001	4.00469E-004	0.00000E+000	1.71325E-004	2.40040E-001	4.27896E-001	3.57670E+000	9	...........
	5	0.08	4.36384E-001	4.00160E-004	0.00000E+000	1.74624E-004	2.40040E-001	4.36476E-001	3.57670E+000	9	...........
	6	0.093333	4.44680E-001	4.01188E-004	0.00000E+000	1.78400E-004	2.40040E-001	4.44771E-001	3.57670E+000	9	...........
	7	0.106667	4.52621E-001	4.01901E-004	0.00000E+000	1.81909E-004	2.40040E-001	4.52716E-001	3.57670E+000	9	...........
	8	0.12	4.60452E-001	4.01241E-004	0.00000E+000	1.84752E-004	2.40040E-001	4.60542E-001	3.57670E+000	9	...........
	9	0.133333	4.68074E-001	4.02473E-004	0.00000E+000	1.88387E-004	2.40040E-001	4.68165E-001	3.57670E+000	9	...........
	10	0.146667	4.75541E-001	4.01650E-004	0.00000E+000	1.91001E-004	2.40040E-001	4.75635E-001	3.57670E+000	9	...........
	11	0.16	4.82870E-001	4.00828E-004	0.00000E+000	1.93548E-004	2.40040E-001	4.82964E-001	3.57670E+000	9	...........
	12	0.173333	4.90104E-001	4.02259E-004	0.00000E+000	1.97149E-004	2.40040E-001	4.90207E-001	3.57670E+000	9	...........
	13	0.186667	4.97172E-001	4.01810E-004	0.00000E+000	1.99769E-004	2.40040E-001	4.97279E-001	3.57670E+000	9	...........
	14	0.2	5.04138E-001	4.00980E-004	0.00000E+000	2.02149E-004	2.40040E-001	5.04240E-001	3.57670E+000	9	...........
	15	0.213333	5.11047E-001	4.01559E-004	0.00000E+000	2.05215E-004	2.40040E-001	5.11153E-001	3.57670E+000	9	...........
	16	0.226667	5.17922E-001	3.99741E-004	0.00000E+000	2.07034E-004	2.40040E-001	5.18028E-001	3.57670E+000	9	...........
	17	0.24	5.24750E-001	3.99580E-004	0.00000E+000	2.09680E-004	2.40040E-001	5.24861E-001	3.57670E+000	9	...........
	18	0.253333	5.31409E-001	4.00577E-004	0.00000E+000	2.12870E-004	2.40040E-001	5.31512E-001	3.57670E+000	9	...........
	19	0.266667	5.37848E-001	4.00943E-004	0.00000E+000	2.15646E-004	2.40040E-001	5.38104E-001	3.57670E+000	9	...........
	20	0.28	5.44449E-001	4.00935E-004	0.00000E+000	2.18288E-004	2.40040E-001	5.44684E-001	3.57670E+000	9	...........
	21	0.293333	5.51048E-001	3.99916E-004	0.00000E+000	2.20373E-004	2.40040E-001	5.51277E-001	3.57670E+000	9	...........
	22	0.306667	5.57520E-001	4.01595E-004	0.00000E+000	2.23897E-004	2.40040E-001	5.57770E-001	3.57670E+000	9	...........
	23	0.32	5.64095E-001	4.01733E-004	0.00000E+000	2.26615E-004	2.40040E-001	5.64325E-001	3.57670E+000	9	...........
	24	0.333333	5.70540E-001	4.00669E-004	0.00000E+000	2.28598E-004	2.40040E-001	5.70762E-001	3.57670E+000	9	...........
	25	0.346667	5.76913E-001	4.00966E-004	0.00000E+000	2.31323E-004	2.40040E-001	5.77156E-001	3.57670E+000	9	...........
	26	0.36	5.83239E-001	4.00307E-004	0.00000E+000	2.33475E-004	2.40040E-001	5.83481E-001	3.57670E+000	9	...........
	27	0.373333	5.89669E-001	4.00436E-004	0.00000E+000	2.36125E-004	2.40040E-001	5.89926E-001	3.57670E+000	9	...........
	28	0.386667	5.96003E-001	4.01601E-004	0.00000E+000	2.39356E-004	2.40040E-001	5.96223E-001	3.57670E+000	9	...........
	29	0.4	6.02268E-001	3.99960E-004	0.00000E+000	2.40883E-004	2.40040E-001	6.02512E-001	3.57670E+000	9	...........
	30	0.413333	6.08509E-001	4.01599E-004	0.00000E+000	2.44377E-004	2.40040E-001	6.08766E-001	3.57670E+000	9	...........
	31	0.426667	6.14737E-001	4.00476E-004	0.00000E+000	2.46188E-004	2.40040E-001	6.14963E-001	3.57670E+000	9	...........
	32	0.44	6.21001E-001	3.99770E-004	0.00000E+000	2.48257E-004	2.40040E-001	6.21228E-001	3.57670E+000	9	...........
	33	0.453333	6.27172E-001	4.01545E-004	0.00000E+000	2.51838E-004	2.40040E-001	6.27382E-001	3.57670E+000	9	...........
	34	0.466667	6.33328E-001	4.01258E-004	0.00000E+000	2.54128E-004	2.40040E-001	6.33554E-001	3.57670E+000	9	...........
	35	0.48	6.39522E-001	4.01734E-004	0.00000E+000	2.56917E-004	2.40040E-001	6.39761E-001	3.57670E+000	9	...........
	36	0.493333	6.45599E-001	4.00466E-004	0.00000E+000	2.58540E-004	2.40040E-001	6.45828E-001	3.57670E+000	9	...........
	37	0.506667	6.51730E-001	4.01805E-004	0.00000E+000	2.61868E-004	2.40040E-001	6.51965E-001	3.57670E+000	9	...........
	38	0.52	6.57785E-001	4.01632E-004	0.00000E+000	2.64187E-004	2.40040E-001	6.57991E-001	3.57670E+000	9	...........
	39	0.533333	6.63814E-001	4.00965E-004	0.00000E+000	2.66166E-004	2.40040E-001	6.64034E-001	3.57670E+000	9	...........
	40	0.546667	6.69846E-001	4.02358E-004	0.00000E+000	2.69518E-004	2.40040E-001	6.70044E-001	3.57670E+000	9	...........
	41	0.56	6.75834E-001	4.00822E-004	0.00000E+000	2.70889E-004	2.40040E-001	6.76038E-001	3.57670E+000	9	...........
	42	0.573333	6.81796E-001	4.00173E-004	0.00000E+000	2.72836E-004	2.40040E-001	6.82008E-001	3.57670E+000	9	...........
	43	0.586667	6.87733E-001	4.00673E-004	0.00000E+000	2.75556E-004	2.40040E-001	6.87947E-001	3.57670E+000	9	...........
	44	0.6	6.93678E-001	4.01155E-004	0.00000E+000	2.78273E-004	2.40040E-001	6.93869E-001	3.57670E+000	9	...........
	45	0.613333	6.99564E-001	4.01316E-004	0.00000E+000	2.80746E-004	2.40040E-001	6.99790E-001	3.57670E+000	9	...........
	46	0.626667	7.05458E-001	4.01410E-004	0.00000E+000	2.83178E-004	2.40040E-001	7.05694E-001	3.57670E+000	9	...........
	47	0.64	7.11254E-001	4.02415E-004	0.00000E+000	2.86219E-004	2.40040E-001	7.11490E-001	3.57670E+000	9	...........
	48	0.653333	7.17094E-001	3.99744E-004	0.00000E+000	2.86654E-004	2.40040E-001	7.17364E-001	3.57670E+000	9	...........
	49	0.666667	7.22936E-001	4.01059E-004	0.00000E+000	2.89940E-004	2.40040E-001	7.23140E-001	3.57670E+000	9	...........
	50	0.68	7.28609E-001	4.00791E-004	0.00000E+000	2.92020E-004	2.40040E-001	7.28864E-001	3.57670E+000	9	...........
	51	0.693333	7.34338E-001	4.01894E-004	0.00000E+000	2.95126E-004	2.40040E-001	7.34573E-001	3.57670E+000	9	...........
	52	0.706667	7.40106E-001	3.99668E-004	0.00000E+000	2.95797E-004	2.40040E-001	7.40389E-001	3.57670E+000	9	...........
	53	0.72	7.45810E-001	4.02540E-004	0.00000E+000	3.00218E-004	2.40040E-001	7.46078E-001	3.57670E+000	9	...........
	54	0.733333	7.51508E-001	4.03130E-004	0.00000E+000	3.02955E-004	2.40040E-001	7.51756E-001	3.57670E+000	9	...........
	55	0.746667	7.57134E-001	4.00965E-004	0.00000E+000	3.03584E-004	2.40040E-001	7.57375E-001	3.57670E+000	9	...........
	56	0.76	7.62758E-001	4.01282E-004	0.00000E+000	3.06081E-004	2.40040E-001	7.63011E-001	3.57670E+000	9	...........
	57	0.773333	7.68359E-001	4.01055E-004	0.00000E+000	3.08155E-004	2.40040E-001	7.68611E-001	3.57670E+000	9	...........
	58	0.786667	7.73875E-001	4.00884E-004	0.00000E+000	3.10234E-004	2.40040E-001	7.74130E-001	3.57670E+000	9	...........
	59	0.8	7.79297E-001	4.00811E-004	0.00000E+000	3.12350E-004	2.40040E-001	7.79557E-001	3.57670E+000	9	...........
	60	0.813333	7.84730E-001	4.00377E-004	0.00000E+000	3.14188E-004	2.40040E-001	7.84981E-001	3.57670E+000	9	...........
	61	0.826667	7.90173E-001	4.00720E-004	0.00000E+000	3.16638E-004	2.40040E-001	7.90422E-001	3.57670E+000	9	...........
	62	0.84	7.95593E-001	3.99754E-004	0.00000E+000	3.18042E-004	2.40040E-001	7.95848E-001	3.57670E+000	9	...........
	63	0.853333	8.01001E-001	4.00523E-004	0.00000E+000	3.20819E-004	2.40040E-001	8.01263E-001	3.57670E+000	9	...........
	64	0.866667	8.06327E-001	4.01317E-004	0.00000E+000	3.23593E-004	2.40040E-001	8.06575E-001	3.57670E+000	9	...........
	65	0.88	8.11554E-001	4.00448E-004	0.00000E+000	3.24985E-004	2.40040E-001	8.11826E-001	3.57727E+000	9	...........
	66	0.893333	8.16871E-001	3.99560E-004	0.00000E+000	3.26389E-004	2.40040E-001	8.17163E-001	3.57770E+000	9	...........
	67	0.906667	8.22142E-001	4.01667E-004	0.00000E+000	3.30227E-004	2.40040E-001	8.22432E-001	3.57770E+000	9	...........
	68	0.92	8.27341E-001	4.00641E-004	0.00000E+000	3.31467E-004	2.40040E-001	8.27641E-001	3.57770E+000	9	...........
	69	0.933333	8.32499E-001	4.00347E-004	0.00000E+000	3.33289E-004	2.40040E-001	8.32773E-001	3.57770E+000	9	...........
	70	0.946667	8.37511E-001	4.00902E-004	0.00000E+000	3.35760E-004	2.40040E-001	8.37796E-001	3.57770E+000	9	...........
	71	0.96	8.42608E-001	4.01389E-004	0.00000E+000	3.38213E-004	2.40040E-001	8.42916E-001	3.57770E+000	9	...........
	72	0.97333	8.47718E-001	4.01974E-004	0.00000E+000	3.40761E-004	2.40040E-001	8.48006E-001	3.57770E+000	9	...........
	73	0.98667	8.52629E-001	4.01474E-004	0.00000E+000	3.42309E-004	2.40040E-001	8.52929E-001	3.57770E+000	9	...........
	74	1	8.57607E-001	4.00085E-004	0.00000E+000	3.43116E-004	2.40040E-001	8.57936E-001	3.57770E+000	9	...........
	75	1.01333	8.62535E-001	4.02242E-004	0.00000E+000	3.46948E-004	2.40040E-001	8.62863E-001	3.57770E+000	9	...........
	76	1.02667	8.67431E-001	4.00653E-004	0.00000E+000	3.47539E-004	2.40040E-001	8.67754E-001	3.57770E+000	9	...........
	77	1.04	8.72260E-001	4.01301E-004	0.00000E+000	3.50039E-004	2.40040E-001	8.72571E-001	3.57770E+000	9	...........
	78	1.05333	8.77041E-001	4.02142E-004	0.00000E+000	3.52695E-004	2.40040E-001	8.77362E-001	3.57770E+000	9	...........
	79	1.06667	8.81870E-001	4.01392E-004	0.00000E+000	3.53976E-004	2.40040E-001	8.82191E-001	3.57770E+000	9	...........
	80	1.08	8.86602E-001	4.00384E-004	0.00000E+000	3.54982E-004	2.40040E-001	8.86909E-001	3.57770E+000	9	...........
	81	1.09333	8.91288E-001	4.00203E-004	0.00000E+000	3.56696E-004	2.40040E-001	8.91604E-001	3.57770E+000	9	...........
	82	1.10667	8.95965E-001	4.00293E-004	0.00000E+000	3.58648E-004	2.40040E-001	8.96314E-001	3.57770E+000	9	...........
	83	1.12	9.00618E-001	4.01428E-004	0.00000E+000	3.61534E-004	2.40040E-001	9.00930E-001	3.57770E+000	9	...........
	84	1.13333	9.05135E-001	4.01261E-004	0.00000E+000	3.63195E-004	2.40040E-001	9.05443E-001	3.57770E+000	9	...........
	85	1.14667	9.09680E-001	4.01402E-004	0.00000E+000	3.65148E-004	2.40040E-001	9.09989E-001	3.57770E+000	9	...........
	86	1.16	9.14191E-001	4.01315E-004	0.00000E+000	3.66878E-004	2.40040E-001	9.14505E-001	3.57770E+000	9	...........
	87	1.17333	9.18653E-001	4.01187E-004	0.00000E+000	3.68552E-004	2.40040E-001	9.18960E-001	3.57770E+000	9	...........
	88	1.18667	9.23184E-001	4.02721E-004	0.00000E+000	3.71786E-004	2.40040E-001	9.23439E-001	3.57770E+000	9	...........
	89	1.2	9.27529E-001	4.00363E-004	0.00000E+000	3.71348E-004	2.40040E-001	9.27812E-001	3.57770E+000	9	...........
	90	1.21333	9.31818E-001	4.01348E-004	0.00000E+000	3.73984E-004	2.40040E-001	9.32094E-001	3.57770E+000	9	...........
	91	1.22667	9.36124E-001	4.00290E-004	0.00000E+000	3.74721E-004	2.40040E-001	9.36430E-001	3.57770E+000	9	...........
	92	1.24	9.40340E-001	4.01740E-004	0.00000E+000	3.77772E-004	2.40040E-001	9.40654E-001	3.57770E+000	9	...........
	93	1.25333	9.44562E-001	4.00579E-004	0.00000E+000	3.78372E-004	2.40040E-001	9.44866E-001	3.57770E+000	9	...........
	94	1.26667	9.48786E-001	4.01399E-004	0.00000E+000	3.80842E-004	2.40040E-001	9.49099E-001	3.57770E+000	9	...........
	95	1.28	9.52915E-001	4.01257E-004	0.00000E+000	3.82363E-004	2.40040E-001	9.53226E-001	3.57770E+000	9	...........
	96	1.29333	9.57010E-001	4.00926E-004	0.00000E+000	3.83690E-004	2.40040E-001	9.57313E-001	3.57770E+000	9	...........
	97	1.30667	9.61054E-001	4.01384E-004	0.00000E+000	3.85751E-004	2.40040E-001	9.61401E-001	3.57770E+000	9	...........
	98	1.32	9.65136E-001	4.02081E-004	0.00000E+000	3.88062E-004	2.40040E-001	9.65449E-001	3.57770E+000	9	...........
	99	1.33333	9.69115E-001	4.00181E-004	0.00000E+000	3.87822E-004	2.40040E-001	9.69460E-001	3.57770E+000	9	...........
	100	1.34667	9.73071E-001	4.01233E-004	0.00000E+000	3.90428E-004	2.40040E-001	9.73390E-001	3.57770E+000	9	...........
	101	1.36	9.76925E-001	4.01879E-004	0.00000E+000	3.92605E-004	2.40040E-001	9.77221E-001	3.57770E+000	9	...........
	102	1.37333	9.80725E-001	4.01145E-004	0.00000E+000	3.93413E-004	2.40040E-001	9.81046E-001	3.57770E+000	9	...........
	103	1.38667	9.84567E-001	4.01907E-004	0.00000E+000	3.95704E-004	2.40040E-001	9.84854E-001	3.57770E+000	9	...........
	104	1.4	9.88329E-001	4.00615E-004	0.00000E+000	3.95939E-004	2.40040E-001	9.88655E-001	3.57770E+000	9	...........
	105	1.41333	9.92037E-001	4.01747E-004	0.00000E+000	3.98548E-004	2.40040E-001	9.92350E-001	3.57770E+000	9	...........
	106	1.42667	9.95651E-001	4.01603E-004	0.00000E+000	3.99857E-004	2.40040E-001	9.95979E-001	3.57770E+000	9	...........
	107	1.43833	9.99066E-001	4.01012E-004	0.00000E+000	4.00637E-004	2.40040E-001	9.99366E-001	3.57770E+000	9	...........
STARTTIMEOFFSET	QUANT	2579.815	Start Time Offset (s)
