EXPLAIN
TAG	PWR800_CHARGE
TITLE	LABEL	PWR Cyclic Charge Discharge (Cell) - Charge Step	Test &Identifier
DATE	LABEL	12-7-2017	Date
TIME	LABEL	15:17:31	Time
NOTES	NOTES	3	&Notes...
	supercap test cell
	0.4mg
	6M KOH
PSTAT	PSTAT	IFC5000-01520	Potentiostat
CAPACITY	QUANT	1.00000E-003	Capacity (A-hr)
CELLTYPE	SELECTOR	1	&Cell Type
WORKINGCONNECTION	SELECTOR	0	&Working Lead
MAXCHARGETIME	VARIABLEANDUNITS	1.00000E+002	s	1.00000E+002	second(s)	Max &Charge Time
CHARGECURRENT	QUANT	4.00000E-004	&Charge Current (A) 
VOLTAGEFINISH	TWOPARAM	F	1.00000E-003	3.60000E+003	&Voltage Finish	 I (A) < 	Max Time(s)
SAMPLETIME	QUANT	1.00000E-002	Sa&mple Period (s)
CHARGESTOPAT1	MULTIPARAM	4	1.00000E+000	Charge Stop At &1	Voltage > Limit	V
CHARGESTOPAT2	MULTIPARAM	0	0.00000E+000	Charge Stop At &2	None	N/A
AESBHCSELECTOR	TOGGLE	F	Save Both Half Cells
IRCOMP	TOGGLE	F	IR &Measure
EOC	QUANT	0	Open Circuit (V)
SEQUENCER	TOGGLE	TRUE	Run as Sequence
PSTATMODEL	IQUANT	53	Pstat Model
PSTATSECTION	LABEL	IFC5000-01520	Pstat Section
PSTATSERIALNO	LABEL	01520	Pstat Serial Number
CTRLMODE	IQUANT	0	Control Mode
ELECTROMETER	IQUANT	1	RE=0 or CS=1
IESTAB	IQUANT	0	I/E Stability
CASPEED	IQUANT	4	Control Amp Speed
CONVENTION	IQUANT	1	Current Convention
ICHRANGE	IQUANT	2	Ich Range
ICHRANGEMODE	TOGGLE	T	Ich Auto Range
ICHOFFSETENABLE	TOGGLE	F	Ich Offset Enable
ICHOFFSET	QUANT	0	Ich Offset (V)
ICHFILTER	IQUANT	1	Ich Filter
VCHRANGE	IQUANT	2	Vch Range
VCHRANGEMODE	TOGGLE	T	Vch Auto Range
VCHOFFSETENABLE	TOGGLE	F	Vch Offset Enable
VCHOFFSET	QUANT	0	Vch Offset (V)
VCHFILTER	IQUANT	1	Vch Filter
IERANGELOWERLIMIT	IQUANT	9	I/E Range Lower Limit
IERANGEMODE	TOGGLE	F	I/E AutoRange
IERANGE	IQUANT	9	I/E Range
ACHSELECT	IQUANT	1	Ach Select
ACHRANGE	IQUANT	2	Ach Range
ACHOFFSETENABLE	TOGGLE	F	Ach Offset Enable
ACHOFFSET	QUANT	0	Ach Offset (V)
ACHFILTER	IQUANT	1	Ach Filter
CABLEID	IQUANT	14	Cable ID
DCCALDATE	LABEL	5-7-2017	DC Calibration Date
ACCALDATE	LABEL	12/3/2015	AC Calibration Date
FRAMEWORKVERSION	QUANT	7.01	Framework Version
INSTRUMENTVERSION	LABEL	4.00	Instrument Version
CURVE	TABLE	107
	Pt	T	Vf	Im	Vu	Pwr	Sig	Ach	Temp	IERange	Over
	#	s	V	A	V	W	V	V	deg C	#	bits
	0	0.013333	3.86811E-001	4.00047E-004	0.00000E+000	1.54742E-004	2.40040E-001	3.86907E-001	3.57690E+000	9	...........
	1	0.026667	3.99602E-001	4.00473E-004	0.00000E+000	1.60030E-004	2.40040E-001	3.99691E-001	3.57690E+000	9	...........
	2	0.04	4.10527E-001	4.02063E-004	0.00000E+000	1.65058E-004	2.40040E-001	4.10621E-001	3.57690E+000	9	...........
	3	0.053333	4.20408E-001	4.00704E-004	0.00000E+000	1.68459E-004	2.40040E-001	4.20502E-001	3.57690E+000	9	...........
	4	0.066667	4.29588E-001	4.00816E-004	0.00000E+000	1.72186E-004	2.40040E-001	4.29685E-001	3.57690E+000	9	...........
	5	0.08	4.38336E-001	4.00885E-004	0.00000E+000	1.75722E-004	2.40040E-001	4.38434E-001	3.57690E+000	9	...........
	6	0.093333	4.46754E-001	4.01453E-004	0.00000E+000	1.79351E-004	2.40040E-001	4.46854E-001	3.57690E+000	9	...........
	7	0.106667	4.54844E-001	3.99521E-004	0.00000E+000	1.81720E-004	2.40040E-001	4.54942E-001	3.57690E+000	9	...........
	8	0.12	4.62693E-001	4.00412E-004	0.00000E+000	1.85268E-004	2.40040E-001	4.62793E-001	3.57690E+000	9	...........
	9	0.133333	4.70352E-001	4.02260E-004	0.00000E+000	1.89204E-004	2.40040E-001	4.70446E-001	3.57690E+000	9	...........
	10	0.146667	4.77814E-001	4.01332E-004	0.00000E+000	1.91762E-004	2.40040E-001	4.77912E-001	3.57690E+000	9	...........
	11	0.16	4.85216E-001	4.00742E-004	0.00000E+000	1.94446E-004	2.40040E-001	4.85315E-001	3.57690E+000	9	...........
	12	0.173333	4.92481E-001	4.00381E-004	0.00000E+000	1.97180E-004	2.40040E-001	4.92583E-001	3.57690E+000	9	...........
	13	0.186667	4.99673E-001	4.01015E-004	0.00000E+000	2.00376E-004	2.40040E-001	4.99776E-001	3.57690E+000	9	...........
	14	0.2	5.06767E-001	4.01286E-004	0.00000E+000	2.03358E-004	2.40040E-001	5.06875E-001	3.57690E+000	9	...........
	15	0.213333	5.13743E-001	4.00688E-004	0.00000E+000	2.05850E-004	2.40040E-001	5.13851E-001	3.57690E+000	9	...........
	16	0.226667	5.20638E-001	4.00627E-004	0.00000E+000	2.08582E-004	2.40040E-001	5.20747E-001	3.57690E+000	9	...........
	17	0.24	5.27519E-001	4.00341E-004	0.00000E+000	2.11187E-004	2.40040E-001	5.27637E-001	3.57690E+000	9	...........
	18	0.253333	5.34140E-001	4.01268E-004	0.00000E+000	2.14333E-004	2.40040E-001	5.34286E-001	3.57690E+000	9	...........
	19	0.266667	5.40680E-001	4.01500E-004	0.00000E+000	2.17083E-004	2.40040E-001	5.40920E-001	3.57690E+000	9	...........
	20	0.28	5.47364E-001	4.01235E-004	0.00000E+000	2.19621E-004	2.40040E-001	5.47580E-001	3.57690E+000	9	...........
	21	0.293333	5.54047E-001	4.00859E-004	0.00000E+000	2.22095E-004	2.40040E-001	5.54287E-001	3.57690E+000	9	...........
	22	0.306667	5.60725E-001	4.00006E-004	0.00000E+000	2.24293E-004	2.40040E-001	5.60979E-001	3.57690E+000	9	...........
	23	0.32	5.67300E-001	4.01537E-004	0.00000E+000	2.27792E-004	2.40040E-001	5.67528E-001	3.57690E+000	9	...........
	24	0.333333	5.73791E-001	4.00513E-004	0.00000E+000	2.29811E-004	2.40040E-001	5.74036E-001	3.57690E+000	9	...........
	25	0.346667	5.80308E-001	4.00863E-004	0.00000E+000	2.32624E-004	2.40040E-001	5.80560E-001	3.57690E+000	9	...........
	26	0.36	5.86702E-001	4.01011E-004	0.00000E+000	2.35274E-004	2.40040E-001	5.86938E-001	3.57690E+000	9	...........
	27	0.373333	5.93183E-001	4.00824E-004	0.00000E+000	2.37762E-004	2.40040E-001	5.93398E-001	3.57690E+000	9	...........
	28	0.386667	5.99564E-001	3.99856E-004	0.00000E+000	2.39740E-004	2.40040E-001	5.99788E-001	3.57690E+000	9	...........
	29	0.4	6.05917E-001	4.00670E-004	0.00000E+000	2.42773E-004	2.40040E-001	6.06165E-001	3.57690E+000	9	...........
	30	0.413333	6.12260E-001	4.00828E-004	0.00000E+000	2.45411E-004	2.40040E-001	6.12491E-001	3.57690E+000	9	...........
	31	0.426667	6.18683E-001	4.00737E-004	0.00000E+000	2.47929E-004	2.40040E-001	6.18869E-001	3.57690E+000	9	...........
	32	0.44	6.24987E-001	4.01949E-004	0.00000E+000	2.51213E-004	2.40040E-001	6.25178E-001	3.57690E+000	9	...........
	33	0.453333	6.31162E-001	4.01390E-004	0.00000E+000	2.53342E-004	2.40040E-001	6.31396E-001	3.57690E+000	9	...........
	34	0.466667	6.37394E-001	4.01265E-004	0.00000E+000	2.55764E-004	2.40040E-001	6.37622E-001	3.57690E+000	9	...........
	35	0.48	6.43667E-001	4.01637E-004	0.00000E+000	2.58520E-004	2.40040E-001	6.43878E-001	3.57690E+000	9	...........
	36	0.493333	6.49772E-001	4.00461E-004	0.00000E+000	2.60208E-004	2.40040E-001	6.50008E-001	3.57690E+000	9	...........
	37	0.506667	6.55878E-001	4.01990E-004	0.00000E+000	2.63656E-004	2.40040E-001	6.56113E-001	3.57690E+000	9	...........
	38	0.52	6.62060E-001	4.02575E-004	0.00000E+000	2.66528E-004	2.40040E-001	6.62299E-001	3.57690E+000	9	...........
	39	0.533333	6.68212E-001	4.01136E-004	0.00000E+000	2.68044E-004	2.40040E-001	6.68444E-001	3.57690E+000	9	...........
	40	0.546667	6.74253E-001	4.00202E-004	0.00000E+000	2.69838E-004	2.40040E-001	6.74464E-001	3.57690E+000	9	...........
	41	0.56	6.80355E-001	4.01288E-004	0.00000E+000	2.73018E-004	2.40040E-001	6.80579E-001	3.57690E+000	9	...........
	42	0.573333	6.86343E-001	4.02482E-004	0.00000E+000	2.76240E-004	2.40040E-001	6.86589E-001	3.57690E+000	9	...........
	43	0.586667	6.92432E-001	4.00942E-004	0.00000E+000	2.77625E-004	2.40040E-001	6.92672E-001	3.57690E+000	9	...........
	44	0.6	6.98403E-001	3.99927E-004	0.00000E+000	2.79310E-004	2.40040E-001	6.98653E-001	3.57690E+000	9	...........
	45	0.613333	7.04398E-001	4.01083E-004	0.00000E+000	2.82522E-004	2.40040E-001	7.04643E-001	3.57690E+000	9	...........
	46	0.626667	7.10221E-001	4.00258E-004	0.00000E+000	2.84272E-004	2.40040E-001	7.10479E-001	3.57690E+000	9	...........
	47	0.64	7.16140E-001	4.00017E-004	0.00000E+000	2.86468E-004	2.40040E-001	7.16423E-001	3.57690E+000	9	...........
	48	0.653333	7.22046E-001	4.00529E-004	0.00000E+000	2.89201E-004	2.40040E-001	7.22286E-001	3.57690E+000	9	...........
	49	0.666667	7.27875E-001	4.00941E-004	0.00000E+000	2.91835E-004	2.40040E-001	7.28115E-001	3.57690E+000	9	...........
	50	0.68	7.33695E-001	4.00454E-004	0.00000E+000	2.93811E-004	2.40040E-001	7.33930E-001	3.57713E+000	9	...........
	51	0.693333	7.39516E-001	3.99864E-004	0.00000E+000	2.95705E-004	2.40040E-001	7.39778E-001	3.57780E+000	9	...........
	52	0.706667	7.45376E-001	4.01573E-004	0.00000E+000	2.99323E-004	2.40040E-001	7.45603E-001	3.57780E+000	9	...........
	53	0.72	7.51045E-001	4.00842E-004	0.00000E+000	3.01050E-004	2.40040E-001	7.51277E-001	3.57780E+000	9	...........
	54	0.733333	7.56781E-001	4.00560E-004	0.00000E+000	3.03136E-004	2.40040E-001	7.56991E-001	3.57780E+000	9	...........
	55	0.746667	7.62419E-001	4.01193E-004	0.00000E+000	3.05877E-004	2.40040E-001	7.62641E-001	3.57780E+000	9	...........
	56	0.76	7.68045E-001	4.01967E-004	0.00000E+000	3.08729E-004	2.40040E-001	7.68306E-001	3.57780E+000	9	...........
	57	0.773333	7.73651E-001	4.00855E-004	0.00000E+000	3.10122E-004	2.40040E-001	7.73885E-001	3.57780E+000	9	...........
	58	0.786667	7.79197E-001	4.00291E-004	0.00000E+000	3.11905E-004	2.40040E-001	7.79450E-001	3.57780E+000	9	...........
	59	0.8	7.84726E-001	4.01296E-004	0.00000E+000	3.14908E-004	2.40040E-001	7.84982E-001	3.57780E+000	9	...........
	60	0.813333	7.90222E-001	3.99703E-004	0.00000E+000	3.15854E-004	2.40040E-001	7.90505E-001	3.57780E+000	9	...........
	61	0.826667	7.95756E-001	4.00331E-004	0.00000E+000	3.18566E-004	2.40040E-001	7.96013E-001	3.57780E+000	9	...........
	62	0.84	8.01189E-001	4.01477E-004	0.00000E+000	3.21659E-004	2.40040E-001	8.01473E-001	3.57780E+000	9	...........
	63	0.853333	8.06481E-001	4.00307E-004	0.00000E+000	3.22840E-004	2.40040E-001	8.06781E-001	3.57780E+000	9	...........
	64	0.866667	8.11830E-001	4.00700E-004	0.00000E+000	3.25300E-004	2.40040E-001	8.12135E-001	3.57780E+000	9	...........
	65	0.88	8.17118E-001	4.00011E-004	0.00000E+000	3.26857E-004	2.40040E-001	8.17390E-001	3.57780E+000	9	...........
	66	0.893333	8.22364E-001	4.00689E-004	0.00000E+000	3.29512E-004	2.40040E-001	8.22642E-001	3.57780E+000	9	...........
	67	0.906667	8.27665E-001	4.00814E-004	0.00000E+000	3.31739E-004	2.40040E-001	8.27931E-001	3.57780E+000	9	...........
	68	0.92	8.32878E-001	4.01370E-004	0.00000E+000	3.34292E-004	2.40040E-001	8.33142E-001	3.57780E+000	9	...........
	69	0.933333	8.38021E-001	4.00639E-004	0.00000E+000	3.35744E-004	2.40040E-001	8.38315E-001	3.57780E+000	9	...........
	70	0.946667	8.43201E-001	4.00685E-004	0.00000E+000	3.37857E-004	2.40040E-001	8.43483E-001	3.57780E+000	9	...........
	71	0.96	8.48261E-001	4.01878E-004	0.00000E+000	3.40897E-004	2.40040E-001	8.48571E-001	3.57780E+000	9	...........
	72	0.97333	8.53294E-001	4.02117E-004	0.00000E+000	3.43124E-004	2.40040E-001	8.53579E-001	3.57780E+000	9	...........
	73	0.98667	8.58285E-001	4.00373E-004	0.00000E+000	3.43634E-004	2.40040E-001	8.58601E-001	3.57780E+000	9	...........
	74	1	8.63230E-001	4.01564E-004	0.00000E+000	3.46642E-004	2.40040E-001	8.63573E-001	3.57780E+000	9	...........
	75	1.01333	8.68227E-001	4.01761E-004	0.00000E+000	3.48820E-004	2.40040E-001	8.68529E-001	3.57780E+000	9	...........
	76	1.02667	8.73084E-001	4.01956E-004	0.00000E+000	3.50941E-004	2.40040E-001	8.73403E-001	3.57780E+000	9	...........
	77	1.04	8.77946E-001	4.01248E-004	0.00000E+000	3.52274E-004	2.40040E-001	8.78237E-001	3.57780E+000	9	...........
	78	1.05333	8.82709E-001	4.00924E-004	0.00000E+000	3.53899E-004	2.40040E-001	8.83016E-001	3.57780E+000	9	...........
	79	1.06667	8.87438E-001	4.01211E-004	0.00000E+000	3.56050E-004	2.40040E-001	8.87717E-001	3.57780E+000	9	...........
	80	1.08	8.92191E-001	4.00102E-004	0.00000E+000	3.56968E-004	2.40040E-001	8.92454E-001	3.57780E+000	9	...........
	81	1.09333	8.96857E-001	4.01246E-004	0.00000E+000	3.59860E-004	2.40040E-001	8.97179E-001	3.57780E+000	9	...........
	82	1.10667	9.01522E-001	4.01751E-004	0.00000E+000	3.62188E-004	2.40040E-001	9.01829E-001	3.57780E+000	9	...........
	83	1.12	9.06125E-001	4.00139E-004	0.00000E+000	3.62576E-004	2.40040E-001	9.06432E-001	3.57780E+000	9	...........
	84	1.13333	9.10699E-001	3.99943E-004	0.00000E+000	3.64228E-004	2.40040E-001	9.11027E-001	3.57780E+000	9	...........
	85	1.14667	9.15251E-001	4.03052E-004	0.00000E+000	3.68893E-004	2.40040E-001	9.15558E-001	3.57780E+000	9	...........
	86	1.16	9.19713E-001	4.01729E-004	0.00000E+000	3.69475E-004	2.40040E-001	9.20028E-001	3.57780E+000	9	...........
	87	1.17333	9.24124E-001	4.00501E-004	0.00000E+000	3.70113E-004	2.40040E-001	9.24423E-001	3.57780E+000	9	...........
	88	1.18667	9.28471E-001	4.00598E-004	0.00000E+000	3.71944E-004	2.40040E-001	9.28764E-001	3.57780E+000	9	...........
	89	1.2	9.32830E-001	4.00050E-004	0.00000E+000	3.73179E-004	2.40040E-001	9.33119E-001	3.57780E+000	9	...........
	90	1.21333	9.37175E-001	4.00091E-004	0.00000E+000	3.74955E-004	2.40040E-001	9.37499E-001	3.57780E+000	9	...........
	91	1.22667	9.41441E-001	3.99496E-004	0.00000E+000	3.76102E-004	2.40040E-001	9.41744E-001	3.57780E+000	9	...........
	92	1.24	9.45750E-001	4.01118E-004	0.00000E+000	3.79357E-004	2.40040E-001	9.46038E-001	3.57780E+000	9	...........
	93	1.25333	9.50043E-001	4.00853E-004	0.00000E+000	3.80828E-004	2.40040E-001	9.50305E-001	3.57780E+000	9	...........
	94	1.26667	9.54169E-001	4.02165E-004	0.00000E+000	3.83733E-004	2.40040E-001	9.54469E-001	3.57780E+000	9	...........
	95	1.28	9.58242E-001	4.00716E-004	0.00000E+000	3.83983E-004	2.40040E-001	9.58530E-001	3.57780E+000	9	...........
	96	1.29333	9.62330E-001	3.99754E-004	0.00000E+000	3.84695E-004	2.40040E-001	9.62648E-001	3.57780E+000	9	...........
	97	1.30667	9.66336E-001	4.00755E-004	0.00000E+000	3.87264E-004	2.40040E-001	9.66676E-001	3.57780E+000	9	...........
	98	1.32	9.70324E-001	4.01193E-004	0.00000E+000	3.89287E-004	2.40040E-001	9.70703E-001	3.57780E+000	9	...........
	99	1.33333	9.74337E-001	4.01831E-004	0.00000E+000	3.91518E-004	2.40040E-001	9.74646E-001	3.57780E+000	9	...........
	100	1.34667	9.78248E-001	4.01134E-004	0.00000E+000	3.92408E-004	2.40040E-001	9.78575E-001	3.57780E+000	9	...........
	101	1.36	9.82058E-001	4.02308E-004	0.00000E+000	3.95090E-004	2.40040E-001	9.82385E-001	3.57780E+000	9	...........
	102	1.37333	9.85870E-001	4.00594E-004	0.00000E+000	3.94933E-004	2.40040E-001	9.86197E-001	3.57780E+000	9	...........
	103	1.38667	9.89668E-001	4.00526E-004	0.00000E+000	3.96388E-004	2.40040E-001	9.90000E-001	3.57780E+000	9	...........
	104	1.4	9.93430E-001	4.01953E-004	0.00000E+000	3.99312E-004	2.40040E-001	9.93765E-001	3.57780E+000	9	...........
	105	1.41333	9.97134E-001	4.00710E-004	0.00000E+000	3.99561E-004	2.40040E-001	9.97464E-001	3.57780E+000	9	...........
	106	1.41833	9.99599E-001	4.01069E-004	0.00000E+000	4.00908E-004	2.40040E-001	9.99954E-001	3.57780E+000	9	...........
STARTTIMEOFFSET	QUANT	2790.233	Start Time Offset (s)
