EXPLAIN
TAG	PWR800_CHARGE
TITLE	LABEL	PWR Cyclic Charge Discharge (Cell) - Charge Step	Test &Identifier
DATE	LABEL	12-7-2017	Date
TIME	LABEL	15:23:01	Time
NOTES	NOTES	3	&Notes...
	supercap test cell
	0.4mg
	6M KOH
PSTAT	PSTAT	IFC5000-01520	Potentiostat
CAPACITY	QUANT	1.00000E-003	Capacity (A-hr)
CELLTYPE	SELECTOR	1	&Cell Type
WORKINGCONNECTION	SELECTOR	0	&Working Lead
MAXCHARGETIME	VARIABLEANDUNITS	1.00000E+002	s	1.00000E+002	second(s)	Max &Charge Time
CHARGECURRENT	QUANT	4.00000E-004	&Charge Current (A) 
VOLTAGEFINISH	TWOPARAM	F	1.00000E-003	3.60000E+003	&Voltage Finish	 I (A) < 	Max Time(s)
SAMPLETIME	QUANT	1.00000E-002	Sa&mple Period (s)
CHARGESTOPAT1	MULTIPARAM	4	1.00000E+000	Charge Stop At &1	Voltage > Limit	V
CHARGESTOPAT2	MULTIPARAM	0	0.00000E+000	Charge Stop At &2	None	N/A
AESBHCSELECTOR	TOGGLE	F	Save Both Half Cells
IRCOMP	TOGGLE	F	IR &Measure
EOC	QUANT	0	Open Circuit (V)
SEQUENCER	TOGGLE	TRUE	Run as Sequence
PSTATMODEL	IQUANT	53	Pstat Model
PSTATSECTION	LABEL	IFC5000-01520	Pstat Section
PSTATSERIALNO	LABEL	01520	Pstat Serial Number
CTRLMODE	IQUANT	0	Control Mode
ELECTROMETER	IQUANT	1	RE=0 or CS=1
IESTAB	IQUANT	0	I/E Stability
CASPEED	IQUANT	4	Control Amp Speed
CONVENTION	IQUANT	1	Current Convention
ICHRANGE	IQUANT	2	Ich Range
ICHRANGEMODE	TOGGLE	T	Ich Auto Range
ICHOFFSETENABLE	TOGGLE	F	Ich Offset Enable
ICHOFFSET	QUANT	0	Ich Offset (V)
ICHFILTER	IQUANT	1	Ich Filter
VCHRANGE	IQUANT	2	Vch Range
VCHRANGEMODE	TOGGLE	T	Vch Auto Range
VCHOFFSETENABLE	TOGGLE	F	Vch Offset Enable
VCHOFFSET	QUANT	0	Vch Offset (V)
VCHFILTER	IQUANT	1	Vch Filter
IERANGELOWERLIMIT	IQUANT	9	I/E Range Lower Limit
IERANGEMODE	TOGGLE	F	I/E AutoRange
IERANGE	IQUANT	9	I/E Range
ACHSELECT	IQUANT	1	Ach Select
ACHRANGE	IQUANT	2	Ach Range
ACHOFFSETENABLE	TOGGLE	F	Ach Offset Enable
ACHOFFSET	QUANT	0	Ach Offset (V)
ACHFILTER	IQUANT	1	Ach Filter
CABLEID	IQUANT	14	Cable ID
DCCALDATE	LABEL	5-7-2017	DC Calibration Date
ACCALDATE	LABEL	12/3/2015	AC Calibration Date
FRAMEWORKVERSION	QUANT	7.01	Framework Version
INSTRUMENTVERSION	LABEL	4.00	Instrument Version
CURVE	TABLE	105
	Pt	T	Vf	Im	Vu	Pwr	Sig	Ach	Temp	IERange	Over
	#	s	V	A	V	W	V	V	deg C	#	bits
	0	0.013333	3.91105E-001	4.01469E-004	0.00000E+000	1.57017E-004	2.40040E-001	3.91198E-001	3.57720E+000	9	...........
	1	0.026667	4.04209E-001	4.00623E-004	0.00000E+000	1.61935E-004	2.40040E-001	4.04284E-001	3.57720E+000	9	...........
	2	0.04	4.15413E-001	4.01764E-004	0.00000E+000	1.66898E-004	2.40040E-001	4.15496E-001	3.57720E+000	9	...........
	3	0.053333	4.25510E-001	4.00607E-004	0.00000E+000	1.70462E-004	2.40040E-001	4.25593E-001	3.57720E+000	9	...........
	4	0.066667	4.34936E-001	4.01046E-004	0.00000E+000	1.74429E-004	2.40040E-001	4.35023E-001	3.57720E+000	9	...........
	5	0.08	4.43836E-001	4.00065E-004	0.00000E+000	1.77563E-004	2.40040E-001	4.43925E-001	3.57720E+000	9	...........
	6	0.093333	4.52327E-001	4.01178E-004	0.00000E+000	1.81464E-004	2.40040E-001	4.52415E-001	3.57720E+000	9	...........
	7	0.106667	4.60566E-001	4.01069E-004	0.00000E+000	1.84719E-004	2.40040E-001	4.60655E-001	3.57720E+000	9	...........
	8	0.12	4.68538E-001	4.01633E-004	0.00000E+000	1.88180E-004	2.40040E-001	4.68629E-001	3.57720E+000	9	...........
	9	0.133333	4.76379E-001	4.02719E-004	0.00000E+000	1.91847E-004	2.40040E-001	4.76471E-001	3.57720E+000	9	...........
	10	0.146667	4.84007E-001	4.02121E-004	0.00000E+000	1.94629E-004	2.40040E-001	4.84102E-001	3.57720E+000	9	...........
	11	0.16	4.91565E-001	4.02206E-004	0.00000E+000	1.97710E-004	2.40040E-001	4.91664E-001	3.57720E+000	9	...........
	12	0.173333	4.98928E-001	4.01289E-004	0.00000E+000	2.00214E-004	2.40040E-001	4.99033E-001	3.57720E+000	9	...........
	13	0.186667	5.06204E-001	4.00262E-004	0.00000E+000	2.02614E-004	2.40040E-001	5.06310E-001	3.57720E+000	9	...........
	14	0.2	5.13476E-001	4.02270E-004	0.00000E+000	2.06556E-004	2.40040E-001	5.13581E-001	3.57720E+000	9	...........
	15	0.213333	5.20588E-001	4.01223E-004	0.00000E+000	2.08872E-004	2.40040E-001	5.20699E-001	3.57720E+000	9	...........
	16	0.226667	5.27611E-001	4.01651E-004	0.00000E+000	2.11916E-004	2.40040E-001	5.27721E-001	3.57720E+000	9	...........
	17	0.24	5.34372E-001	4.01105E-004	0.00000E+000	2.14339E-004	2.40040E-001	5.34555E-001	3.57720E+000	9	...........
	18	0.253333	5.41199E-001	4.01152E-004	0.00000E+000	2.17103E-004	2.40040E-001	5.41451E-001	3.57720E+000	9	...........
	19	0.266667	5.48058E-001	4.00668E-004	0.00000E+000	2.19589E-004	2.40040E-001	5.48302E-001	3.57720E+000	9	...........
	20	0.28	5.54818E-001	4.00397E-004	0.00000E+000	2.22147E-004	2.40040E-001	5.55074E-001	3.57720E+000	9	...........
	21	0.293333	5.61545E-001	4.00451E-004	0.00000E+000	2.24871E-004	2.40040E-001	5.61776E-001	3.57720E+000	9	...........
	22	0.306667	5.68304E-001	4.01125E-004	0.00000E+000	2.27961E-004	2.40040E-001	5.68540E-001	3.57720E+000	9	...........
	23	0.32	5.74985E-001	4.01710E-004	0.00000E+000	2.30977E-004	2.40040E-001	5.75218E-001	3.57720E+000	9	...........
	24	0.333333	5.81555E-001	3.99973E-004	0.00000E+000	2.32606E-004	2.40040E-001	5.81798E-001	3.57720E+000	9	...........
	25	0.346667	5.88130E-001	4.01112E-004	0.00000E+000	2.35906E-004	2.40040E-001	5.88402E-001	3.57720E+000	9	...........
	26	0.36	5.94724E-001	4.01062E-004	0.00000E+000	2.38521E-004	2.40040E-001	5.94970E-001	3.57720E+000	9	...........
	27	0.373333	6.01225E-001	4.00416E-004	0.00000E+000	2.40740E-004	2.40040E-001	6.01467E-001	3.57720E+000	9	...........
	28	0.386667	6.07666E-001	4.00912E-004	0.00000E+000	2.43620E-004	2.40040E-001	6.07928E-001	3.57720E+000	9	...........
	29	0.4	6.14111E-001	4.00541E-004	0.00000E+000	2.45976E-004	2.40040E-001	6.14337E-001	3.57720E+000	9	...........
	30	0.413333	6.20447E-001	4.00873E-004	0.00000E+000	2.48721E-004	2.40040E-001	6.20663E-001	3.57720E+000	9	...........
	31	0.426667	6.26779E-001	4.01069E-004	0.00000E+000	2.51382E-004	2.40040E-001	6.26997E-001	3.57720E+000	9	...........
	32	0.44	6.33092E-001	4.01661E-004	0.00000E+000	2.54288E-004	2.40040E-001	6.33324E-001	3.57720E+000	9	...........
	33	0.453333	6.39353E-001	4.01223E-004	0.00000E+000	2.56523E-004	2.40040E-001	6.39579E-001	3.57720E+000	9	...........
	34	0.466667	6.45654E-001	4.00790E-004	0.00000E+000	2.58771E-004	2.40040E-001	6.45877E-001	3.57720E+000	9	...........
	35	0.48	6.51896E-001	4.00618E-004	0.00000E+000	2.61161E-004	2.40040E-001	6.52134E-001	3.57720E+000	9	...........
	36	0.493333	6.58161E-001	4.00964E-004	0.00000E+000	2.63899E-004	2.40040E-001	6.58401E-001	3.57720E+000	9	...........
	37	0.506667	6.64397E-001	4.01906E-004	0.00000E+000	2.67025E-004	2.40040E-001	6.64653E-001	3.57720E+000	9	...........
	38	0.52	6.70563E-001	4.00587E-004	0.00000E+000	2.68619E-004	2.40040E-001	6.70778E-001	3.57720E+000	9	...........
	39	0.533333	6.76715E-001	3.99737E-004	0.00000E+000	2.70508E-004	2.40040E-001	6.76955E-001	3.57720E+000	9	...........
	40	0.546667	6.82825E-001	3.99802E-004	0.00000E+000	2.72995E-004	2.40040E-001	6.83077E-001	3.57720E+000	9	...........
	41	0.56	6.88954E-001	4.00235E-004	0.00000E+000	2.75744E-004	2.40040E-001	6.89205E-001	3.57720E+000	9	...........
	42	0.573333	6.95060E-001	4.01410E-004	0.00000E+000	2.79004E-004	2.40040E-001	6.95280E-001	3.57720E+000	9	...........
	43	0.586667	7.01088E-001	4.02343E-004	0.00000E+000	2.82078E-004	2.40040E-001	7.01318E-001	3.57720E+000	9	...........
	44	0.6	7.07070E-001	4.00793E-004	0.00000E+000	2.83389E-004	2.40040E-001	7.07303E-001	3.57720E+000	9	...........
	45	0.613333	7.13048E-001	4.01864E-004	0.00000E+000	2.86548E-004	2.40040E-001	7.13270E-001	3.57720E+000	9	...........
	46	0.626667	7.19048E-001	4.00990E-004	0.00000E+000	2.88331E-004	2.40040E-001	7.19264E-001	3.57720E+000	9	...........
	47	0.64	7.24871E-001	4.00846E-004	0.00000E+000	2.90561E-004	2.40040E-001	7.25083E-001	3.57851E+000	9	...........
	48	0.653333	7.30755E-001	4.01037E-004	0.00000E+000	2.93060E-004	2.40040E-001	7.30996E-001	3.58070E+000	9	...........
	49	0.666667	7.36597E-001	4.01721E-004	0.00000E+000	2.95907E-004	2.40040E-001	7.36834E-001	3.58070E+000	9	...........
	50	0.68	7.42432E-001	4.00199E-004	0.00000E+000	2.97121E-004	2.40040E-001	7.42688E-001	3.58070E+000	9	...........
	51	0.693333	7.48214E-001	3.99497E-004	0.00000E+000	2.98909E-004	2.40040E-001	7.48451E-001	3.58070E+000	9	...........
	52	0.706667	7.53953E-001	4.00326E-004	0.00000E+000	3.01827E-004	2.40040E-001	7.54200E-001	3.58070E+000	9	...........
	53	0.72	7.59657E-001	4.01480E-004	0.00000E+000	3.04987E-004	2.40040E-001	7.59922E-001	3.58070E+000	9	...........
	54	0.733333	7.65319E-001	4.01356E-004	0.00000E+000	3.07165E-004	2.40040E-001	7.65574E-001	3.58070E+000	9	...........
	55	0.746667	7.71008E-001	4.01716E-004	0.00000E+000	3.09726E-004	2.40040E-001	7.71292E-001	3.58070E+000	9	...........
	56	0.76	7.76627E-001	4.00700E-004	0.00000E+000	3.11195E-004	2.40040E-001	7.76881E-001	3.58070E+000	9	...........
	57	0.773333	7.82202E-001	4.00740E-004	0.00000E+000	3.13459E-004	2.40040E-001	7.82456E-001	3.58070E+000	9	...........
	58	0.786667	7.87763E-001	4.00350E-004	0.00000E+000	3.15381E-004	2.40040E-001	7.88030E-001	3.58070E+000	9	...........
	59	0.8	7.93292E-001	4.01058E-004	0.00000E+000	3.18156E-004	2.40040E-001	7.93570E-001	3.58070E+000	9	...........
	60	0.813333	7.98814E-001	4.00887E-004	0.00000E+000	3.20234E-004	2.40040E-001	7.99072E-001	3.58070E+000	9	...........
	61	0.826667	8.04280E-001	4.00248E-004	0.00000E+000	3.21911E-004	2.40040E-001	8.04532E-001	3.58070E+000	9	...........
	62	0.84	8.09689E-001	4.00680E-004	0.00000E+000	3.24427E-004	2.40040E-001	8.09990E-001	3.58070E+000	9	...........
	63	0.853333	8.15069E-001	4.00930E-004	0.00000E+000	3.26786E-004	2.40040E-001	8.15351E-001	3.58070E+000	9	...........
	64	0.866667	8.20467E-001	4.00958E-004	0.00000E+000	3.28972E-004	2.40040E-001	8.20755E-001	3.58070E+000	9	...........
	65	0.88	8.25790E-001	4.01143E-004	0.00000E+000	3.31260E-004	2.40040E-001	8.26088E-001	3.58070E+000	9	...........
	66	0.893333	8.30991E-001	4.00811E-004	0.00000E+000	3.33070E-004	2.40040E-001	8.31275E-001	3.58070E+000	9	...........
	67	0.906667	8.36130E-001	4.00251E-004	0.00000E+000	3.34662E-004	2.40040E-001	8.36456E-001	3.58070E+000	9	...........
	68	0.92	8.41346E-001	4.00778E-004	0.00000E+000	3.37193E-004	2.40040E-001	8.41657E-001	3.58070E+000	9	...........
	69	0.933333	8.46511E-001	4.01534E-004	0.00000E+000	3.39902E-004	2.40040E-001	8.46807E-001	3.58070E+000	9	...........
	70	0.946667	8.51586E-001	3.99907E-004	0.00000E+000	3.40556E-004	2.40040E-001	8.51873E-001	3.58070E+000	9	...........
	71	0.96	8.56653E-001	4.00493E-004	0.00000E+000	3.43083E-004	2.40040E-001	8.56959E-001	3.58070E+000	9	...........
	72	0.97333	8.61676E-001	4.00967E-004	0.00000E+000	3.45504E-004	2.40040E-001	8.61994E-001	3.58070E+000	9	...........
	73	0.98667	8.66650E-001	4.01545E-004	0.00000E+000	3.47999E-004	2.40040E-001	8.66973E-001	3.58070E+000	9	...........
	74	1	8.71657E-001	4.01055E-004	0.00000E+000	3.49583E-004	2.40040E-001	8.71973E-001	3.58070E+000	9	...........
	75	1.01333	8.76492E-001	3.99797E-004	0.00000E+000	3.50419E-004	2.40040E-001	8.76807E-001	3.58070E+000	9	...........
	76	1.02667	8.81393E-001	4.02661E-004	0.00000E+000	3.54903E-004	2.40040E-001	8.81699E-001	3.58070E+000	9	...........
	77	1.04	8.86233E-001	4.01953E-004	0.00000E+000	3.56223E-004	2.40040E-001	8.86517E-001	3.58070E+000	9	...........
	78	1.05333	8.91002E-001	3.99730E-004	0.00000E+000	3.56160E-004	2.40040E-001	8.91316E-001	3.58070E+000	9	...........
	79	1.06667	8.95719E-001	4.01535E-004	0.00000E+000	3.59662E-004	2.40040E-001	8.96040E-001	3.58070E+000	9	...........
	80	1.08	9.00444E-001	4.00390E-004	0.00000E+000	3.60529E-004	2.40040E-001	9.00750E-001	3.58070E+000	9	...........
	81	1.09333	9.05101E-001	4.00692E-004	0.00000E+000	3.62667E-004	2.40040E-001	9.05449E-001	3.58070E+000	9	...........
	82	1.10667	9.09673E-001	4.01999E-004	0.00000E+000	3.65688E-004	2.40040E-001	9.10017E-001	3.58070E+000	9	...........
	83	1.12	9.14202E-001	4.01548E-004	0.00000E+000	3.67096E-004	2.40040E-001	9.14537E-001	3.58070E+000	9	...........
	84	1.13333	9.18727E-001	4.01367E-004	0.00000E+000	3.68747E-004	2.40040E-001	9.19042E-001	3.58070E+000	9	...........
	85	1.14667	9.23254E-001	4.01444E-004	0.00000E+000	3.70635E-004	2.40040E-001	9.23562E-001	3.58070E+000	9	...........
	86	1.16	9.27728E-001	4.01468E-004	0.00000E+000	3.72453E-004	2.40040E-001	9.28017E-001	3.58070E+000	9	...........
	87	1.17333	9.32127E-001	4.00359E-004	0.00000E+000	3.73186E-004	2.40040E-001	9.32413E-001	3.58070E+000	9	...........
	88	1.18667	9.36495E-001	4.01090E-004	0.00000E+000	3.75619E-004	2.40040E-001	9.36784E-001	3.58070E+000	9	...........
	89	1.2	9.40817E-001	4.00275E-004	0.00000E+000	3.76585E-004	2.40040E-001	9.41128E-001	3.58070E+000	9	...........
	90	1.21333	9.45048E-001	4.00854E-004	0.00000E+000	3.78827E-004	2.40040E-001	9.45359E-001	3.58070E+000	9	...........
	91	1.22667	9.49292E-001	4.01385E-004	0.00000E+000	3.81031E-004	2.40040E-001	9.49581E-001	3.58070E+000	9	...........
	92	1.24	9.53498E-001	3.98953E-004	0.00000E+000	3.80401E-004	2.40040E-001	9.53781E-001	3.58070E+000	9	...........
	93	1.25333	9.57684E-001	4.01390E-004	0.00000E+000	3.84405E-004	2.40040E-001	9.57980E-001	3.58070E+000	9	...........
	94	1.26667	9.61786E-001	4.00700E-004	0.00000E+000	3.85388E-004	2.40040E-001	9.62098E-001	3.58070E+000	9	...........
	95	1.28	9.65865E-001	4.01535E-004	0.00000E+000	3.87828E-004	2.40040E-001	9.66195E-001	3.58070E+000	9	...........
	96	1.29333	9.69867E-001	4.00955E-004	0.00000E+000	3.88874E-004	2.40040E-001	9.70184E-001	3.58070E+000	9	...........
	97	1.30667	9.73839E-001	4.01236E-004	0.00000E+000	3.90739E-004	2.40040E-001	9.74138E-001	3.58070E+000	9	...........
	98	1.32	9.77797E-001	4.01636E-004	0.00000E+000	3.92718E-004	2.40040E-001	9.78100E-001	3.58070E+000	9	...........
	99	1.33333	9.81712E-001	4.01329E-004	0.00000E+000	3.93990E-004	2.40040E-001	9.82034E-001	3.58070E+000	9	...........
	100	1.34667	9.85552E-001	4.00047E-004	0.00000E+000	3.94267E-004	2.40040E-001	9.85890E-001	3.58070E+000	9	...........
	101	1.36	9.89396E-001	4.01224E-004	0.00000E+000	3.96970E-004	2.40040E-001	9.89724E-001	3.58070E+000	9	...........
	102	1.37333	9.93152E-001	4.00969E-004	0.00000E+000	3.98223E-004	2.40040E-001	9.93475E-001	3.58070E+000	9	...........
	103	1.38667	9.96889E-001	3.99653E-004	0.00000E+000	3.98410E-004	2.40040E-001	9.97219E-001	3.58070E+000	9	...........
	104	1.39333	9.99661E-001	4.00067E-004	0.00000E+000	3.99931E-004	2.40040E-001	1.00000E+000	3.58070E+000	9	...........
STARTTIMEOFFSET	QUANT	3047.226	Start Time Offset (s)
