EXPLAIN
TAG	PWR800_CHARGE
TITLE	LABEL	PWR Cyclic Charge Discharge (Cell) - Charge Step	Test &Identifier
DATE	LABEL	12-7-2017	Date
TIME	LABEL	15:00:25	Time
NOTES	NOTES	3	&Notes...
	supercap test cell
	0.4mg
	6M KOH
PSTAT	PSTAT	IFC5000-01520	Potentiostat
CAPACITY	QUANT	1.00000E-003	Capacity (A-hr)
CELLTYPE	SELECTOR	1	&Cell Type
WORKINGCONNECTION	SELECTOR	0	&Working Lead
MAXCHARGETIME	VARIABLEANDUNITS	1.00000E+002	s	1.00000E+002	second(s)	Max &Charge Time
CHARGECURRENT	QUANT	4.00000E-004	&Charge Current (A) 
VOLTAGEFINISH	TWOPARAM	F	1.00000E-003	3.60000E+003	&Voltage Finish	 I (A) < 	Max Time(s)
SAMPLETIME	QUANT	1.00000E-002	Sa&mple Period (s)
CHARGESTOPAT1	MULTIPARAM	4	1.00000E+000	Charge Stop At &1	Voltage > Limit	V
CHARGESTOPAT2	MULTIPARAM	0	0.00000E+000	Charge Stop At &2	None	N/A
AESBHCSELECTOR	TOGGLE	F	Save Both Half Cells
IRCOMP	TOGGLE	F	IR &Measure
EOC	QUANT	0	Open Circuit (V)
SEQUENCER	TOGGLE	TRUE	Run as Sequence
PSTATMODEL	IQUANT	53	Pstat Model
PSTATSECTION	LABEL	IFC5000-01520	Pstat Section
PSTATSERIALNO	LABEL	01520	Pstat Serial Number
CTRLMODE	IQUANT	0	Control Mode
ELECTROMETER	IQUANT	1	RE=0 or CS=1
IESTAB	IQUANT	0	I/E Stability
CASPEED	IQUANT	4	Control Amp Speed
CONVENTION	IQUANT	1	Current Convention
ICHRANGE	IQUANT	2	Ich Range
ICHRANGEMODE	TOGGLE	T	Ich Auto Range
ICHOFFSETENABLE	TOGGLE	F	Ich Offset Enable
ICHOFFSET	QUANT	0	Ich Offset (V)
ICHFILTER	IQUANT	1	Ich Filter
VCHRANGE	IQUANT	2	Vch Range
VCHRANGEMODE	TOGGLE	T	Vch Auto Range
VCHOFFSETENABLE	TOGGLE	F	Vch Offset Enable
VCHOFFSET	QUANT	0	Vch Offset (V)
VCHFILTER	IQUANT	1	Vch Filter
IERANGELOWERLIMIT	IQUANT	9	I/E Range Lower Limit
IERANGEMODE	TOGGLE	F	I/E AutoRange
IERANGE	IQUANT	9	I/E Range
ACHSELECT	IQUANT	1	Ach Select
ACHRANGE	IQUANT	2	Ach Range
ACHOFFSETENABLE	TOGGLE	F	Ach Offset Enable
ACHOFFSET	QUANT	0	Ach Offset (V)
ACHFILTER	IQUANT	1	Ach Filter
CABLEID	IQUANT	14	Cable ID
DCCALDATE	LABEL	5-7-2017	DC Calibration Date
ACCALDATE	LABEL	12/3/2015	AC Calibration Date
FRAMEWORKVERSION	QUANT	7.01	Framework Version
INSTRUMENTVERSION	LABEL	4.00	Instrument Version
CURVE	TABLE	113
	Pt	T	Vf	Im	Vu	Pwr	Sig	Ach	Temp	IERange	Over
	#	s	V	A	V	W	V	V	deg C	#	bits
	0	0.013333	3.74388E-001	4.01360E-004	0.00000E+000	1.50264E-004	2.40040E-001	3.74468E-001	3.57630E+000	9	...........
	1	0.026667	3.86503E-001	4.01964E-004	0.00000E+000	1.55360E-004	2.40040E-001	3.86574E-001	3.57630E+000	9	...........
	2	0.04	3.96880E-001	4.00949E-004	0.00000E+000	1.59129E-004	2.40040E-001	3.96949E-001	3.57630E+000	9	...........
	3	0.053333	4.06308E-001	4.00942E-004	0.00000E+000	1.62906E-004	2.40040E-001	4.06392E-001	3.57630E+000	9	...........
	4	0.066667	4.15129E-001	4.01147E-004	0.00000E+000	1.66528E-004	2.40040E-001	4.15207E-001	3.57630E+000	9	...........
	5	0.08	4.23496E-001	4.00514E-004	0.00000E+000	1.69616E-004	2.40040E-001	4.23582E-001	3.57630E+000	9	...........
	6	0.093333	4.31568E-001	4.01086E-004	0.00000E+000	1.73096E-004	2.40040E-001	4.31651E-001	3.57630E+000	9	...........
	7	0.106667	4.39306E-001	4.02086E-004	0.00000E+000	1.76639E-004	2.40040E-001	4.39395E-001	3.57630E+000	9	...........
	8	0.12	4.46861E-001	4.00725E-004	0.00000E+000	1.79069E-004	2.40040E-001	4.46951E-001	3.57630E+000	9	...........
	9	0.133333	4.54172E-001	4.01835E-004	0.00000E+000	1.82502E-004	2.40040E-001	4.54265E-001	3.57630E+000	9	...........
	10	0.146667	4.61481E-001	4.01974E-004	0.00000E+000	1.85503E-004	2.40040E-001	4.61565E-001	3.57630E+000	9	...........
	11	0.16	4.68541E-001	4.01125E-004	0.00000E+000	1.87944E-004	2.40040E-001	4.68634E-001	3.57630E+000	9	...........
	12	0.173333	4.75524E-001	4.00929E-004	0.00000E+000	1.90652E-004	2.40040E-001	4.75615E-001	3.57630E+000	9	...........
	13	0.186667	4.82397E-001	4.02268E-004	0.00000E+000	1.94053E-004	2.40040E-001	4.82487E-001	3.57630E+000	9	...........
	14	0.2	4.89229E-001	4.00921E-004	0.00000E+000	1.96142E-004	2.40040E-001	4.89323E-001	3.57630E+000	9	...........
	15	0.213333	4.95956E-001	4.00518E-004	0.00000E+000	1.98639E-004	2.40040E-001	4.96058E-001	3.57630E+000	9	...........
	16	0.226667	5.02662E-001	4.00098E-004	0.00000E+000	2.01114E-004	2.40040E-001	5.02762E-001	3.57667E+000	9	...........
	17	0.24	5.09225E-001	4.00669E-004	0.00000E+000	2.04031E-004	2.40040E-001	5.09335E-001	3.57680E+000	9	...........
	18	0.253333	5.15768E-001	4.00756E-004	0.00000E+000	2.06697E-004	2.40040E-001	5.15868E-001	3.57680E+000	9	...........
	19	0.266667	5.22249E-001	4.00931E-004	0.00000E+000	2.09386E-004	2.40040E-001	5.22352E-001	3.57680E+000	9	...........
	20	0.28	5.28653E-001	4.00466E-004	0.00000E+000	2.11708E-004	2.40040E-001	5.28761E-001	3.57680E+000	9	...........
	21	0.293333	5.34832E-001	3.99584E-004	0.00000E+000	2.13711E-004	2.40040E-001	5.35022E-001	3.57680E+000	9	...........
	22	0.306667	5.41155E-001	4.01238E-004	0.00000E+000	2.17132E-004	2.40040E-001	5.41384E-001	3.57680E+000	9	...........
	23	0.32	5.47404E-001	4.00644E-004	0.00000E+000	2.19314E-004	2.40040E-001	5.47622E-001	3.57680E+000	9	...........
	24	0.333333	5.53629E-001	4.01390E-004	0.00000E+000	2.22221E-004	2.40040E-001	5.53852E-001	3.57680E+000	9	...........
	25	0.346667	5.59911E-001	4.01004E-004	0.00000E+000	2.24527E-004	2.40040E-001	5.60150E-001	3.57680E+000	9	...........
	26	0.36	5.66176E-001	4.01508E-004	0.00000E+000	2.27324E-004	2.40040E-001	5.66397E-001	3.57680E+000	9	...........
	27	0.373333	5.72387E-001	4.00376E-004	0.00000E+000	2.29170E-004	2.40040E-001	5.72605E-001	3.57680E+000	9	...........
	28	0.386667	5.78445E-001	4.01158E-004	0.00000E+000	2.32048E-004	2.40040E-001	5.78712E-001	3.57680E+000	9	...........
	29	0.4	5.84495E-001	4.00910E-004	0.00000E+000	2.34330E-004	2.40040E-001	5.84780E-001	3.57680E+000	9	...........
	30	0.413333	5.90626E-001	4.02090E-004	0.00000E+000	2.37485E-004	2.40040E-001	5.90898E-001	3.57680E+000	9	...........
	31	0.426667	5.96812E-001	4.01186E-004	0.00000E+000	2.39432E-004	2.40040E-001	5.97068E-001	3.57680E+000	9	...........
	32	0.44	6.02874E-001	4.01080E-004	0.00000E+000	2.41801E-004	2.40040E-001	6.03168E-001	3.57680E+000	9	...........
	33	0.453333	6.08968E-001	4.00863E-004	0.00000E+000	2.44112E-004	2.40040E-001	6.09240E-001	3.57680E+000	9	...........
	34	0.466667	6.14986E-001	4.00941E-004	0.00000E+000	2.46573E-004	2.40040E-001	6.15208E-001	3.57680E+000	9	...........
	35	0.48	6.20872E-001	4.00551E-004	0.00000E+000	2.48691E-004	2.40040E-001	6.21071E-001	3.57680E+000	9	...........
	36	0.493333	6.26818E-001	4.00423E-004	0.00000E+000	2.50992E-004	2.40040E-001	6.27018E-001	3.57680E+000	9	...........
	37	0.506667	6.32689E-001	4.00782E-004	0.00000E+000	2.53571E-004	2.40040E-001	6.32881E-001	3.57680E+000	9	...........
	38	0.52	6.38614E-001	4.02008E-004	0.00000E+000	2.56728E-004	2.40040E-001	6.38809E-001	3.57680E+000	9	...........
	39	0.533333	6.44536E-001	4.01086E-004	0.00000E+000	2.58514E-004	2.40040E-001	6.44697E-001	3.57680E+000	9	...........
	40	0.546667	6.50438E-001	4.01254E-004	0.00000E+000	2.60991E-004	2.40040E-001	6.50642E-001	3.57680E+000	9	...........
	41	0.56	6.56271E-001	4.02138E-004	0.00000E+000	2.63912E-004	2.40040E-001	6.56464E-001	3.57680E+000	9	...........
	42	0.573333	6.62132E-001	4.01537E-004	0.00000E+000	2.65871E-004	2.40040E-001	6.62353E-001	3.57680E+000	9	...........
	43	0.586667	6.68000E-001	3.99098E-004	0.00000E+000	2.66597E-004	2.40040E-001	6.68240E-001	3.57680E+000	9	...........
	44	0.6	6.73845E-001	4.00391E-004	0.00000E+000	2.69801E-004	2.40040E-001	6.74035E-001	3.57680E+000	9	...........
	45	0.613333	6.79616E-001	4.02064E-004	0.00000E+000	2.73249E-004	2.40040E-001	6.79880E-001	3.57680E+000	9	...........
	46	0.626667	6.85414E-001	4.00403E-004	0.00000E+000	2.74442E-004	2.40040E-001	6.85662E-001	3.57680E+000	9	...........
	47	0.64	6.91151E-001	4.00876E-004	0.00000E+000	2.77066E-004	2.40040E-001	6.91415E-001	3.57680E+000	9	...........
	48	0.653333	6.96785E-001	4.01394E-004	0.00000E+000	2.79685E-004	2.40040E-001	6.97038E-001	3.57680E+000	9	...........
	49	0.666667	7.02494E-001	4.00438E-004	0.00000E+000	2.81305E-004	2.40040E-001	7.02742E-001	3.57680E+000	9	...........
	50	0.68	7.08167E-001	4.02244E-004	0.00000E+000	2.84856E-004	2.40040E-001	7.08428E-001	3.57680E+000	9	...........
	51	0.693333	7.13774E-001	4.00521E-004	0.00000E+000	2.85881E-004	2.40040E-001	7.14055E-001	3.57680E+000	9	...........
	52	0.706667	7.19429E-001	4.00642E-004	0.00000E+000	2.88233E-004	2.40040E-001	7.19681E-001	3.57680E+000	9	...........
	53	0.72	7.25066E-001	4.01423E-004	0.00000E+000	2.91058E-004	2.40040E-001	7.25321E-001	3.57680E+000	9	...........
	54	0.733333	7.30674E-001	4.00568E-004	0.00000E+000	2.92685E-004	2.40040E-001	7.30961E-001	3.57680E+000	9	...........
	55	0.746667	7.36253E-001	4.00752E-004	0.00000E+000	2.95055E-004	2.40040E-001	7.36500E-001	3.57680E+000	9	...........
	56	0.76	7.41828E-001	4.00170E-004	0.00000E+000	2.96857E-004	2.40040E-001	7.42083E-001	3.57680E+000	9	...........
	57	0.773333	7.47350E-001	4.00748E-004	0.00000E+000	2.99499E-004	2.40040E-001	7.47619E-001	3.57680E+000	9	...........
	58	0.786667	7.52837E-001	4.02512E-004	0.00000E+000	3.03026E-004	2.40040E-001	7.53089E-001	3.57680E+000	9	...........
	59	0.8	7.58268E-001	4.01705E-004	0.00000E+000	3.04600E-004	2.40040E-001	7.58507E-001	3.57680E+000	9	...........
	60	0.813333	7.63747E-001	4.00032E-004	0.00000E+000	3.05524E-004	2.40040E-001	7.63975E-001	3.57680E+000	9	...........
	61	0.826667	7.69146E-001	4.01852E-004	0.00000E+000	3.09083E-004	2.40040E-001	7.69399E-001	3.57680E+000	9	...........
	62	0.84	7.74529E-001	4.00635E-004	0.00000E+000	3.10303E-004	2.40040E-001	7.74776E-001	3.57680E+000	9	...........
	63	0.853333	7.79926E-001	4.01481E-004	0.00000E+000	3.13125E-004	2.40040E-001	7.80151E-001	3.57680E+000	9	...........
	64	0.866667	7.85244E-001	4.00596E-004	0.00000E+000	3.14566E-004	2.40040E-001	7.85464E-001	3.57680E+000	9	...........
	65	0.88	7.90554E-001	4.01433E-004	0.00000E+000	3.17354E-004	2.40040E-001	7.90791E-001	3.57680E+000	9	...........
	66	0.893333	7.95798E-001	4.01965E-004	0.00000E+000	3.19883E-004	2.40040E-001	7.96036E-001	3.57680E+000	9	...........
	67	0.906667	8.00996E-001	4.00844E-004	0.00000E+000	3.21074E-004	2.40040E-001	8.01248E-001	3.57680E+000	9	...........
	68	0.92	8.06216E-001	4.00465E-004	0.00000E+000	3.22861E-004	2.40040E-001	8.06493E-001	3.57680E+000	9	...........
	69	0.933333	8.11365E-001	4.00499E-004	0.00000E+000	3.24951E-004	2.40040E-001	8.11658E-001	3.57680E+000	9	...........
	70	0.946667	8.16513E-001	4.02215E-004	0.00000E+000	3.28414E-004	2.40040E-001	8.16796E-001	3.57680E+000	9	...........
	71	0.96	8.21611E-001	4.00128E-004	0.00000E+000	3.28750E-004	2.40040E-001	8.21890E-001	3.57680E+000	9	...........
	72	0.97333	8.26696E-001	4.01837E-004	0.00000E+000	3.32197E-004	2.40040E-001	8.26960E-001	3.57680E+000	9	...........
	73	0.98667	8.31734E-001	4.01472E-004	0.00000E+000	3.33918E-004	2.40040E-001	8.31983E-001	3.57680E+000	9	...........
	74	1	8.36721E-001	4.01096E-004	0.00000E+000	3.35605E-004	2.40040E-001	8.36971E-001	3.57680E+000	9	...........
	75	1.01333	8.41701E-001	4.00975E-004	0.00000E+000	3.37501E-004	2.40040E-001	8.41973E-001	3.57680E+000	9	...........
	76	1.02667	8.46663E-001	4.01101E-004	0.00000E+000	3.39598E-004	2.40040E-001	8.46928E-001	3.57680E+000	9	...........
	77	1.04	8.51526E-001	4.00272E-004	0.00000E+000	3.40842E-004	2.40040E-001	8.51819E-001	3.57680E+000	9	...........
	78	1.05333	8.56318E-001	4.01811E-004	0.00000E+000	3.44078E-004	2.40040E-001	8.56626E-001	3.57680E+000	9	...........
	79	1.06667	8.61161E-001	4.01459E-004	0.00000E+000	3.45721E-004	2.40040E-001	8.61479E-001	3.57680E+000	9	...........
	80	1.08	8.65930E-001	4.01494E-004	0.00000E+000	3.47666E-004	2.40040E-001	8.66254E-001	3.57680E+000	9	...........
	81	1.09333	8.70742E-001	4.01228E-004	0.00000E+000	3.49366E-004	2.40040E-001	8.71081E-001	3.57680E+000	9	...........
	82	1.10667	8.75496E-001	4.00762E-004	0.00000E+000	3.50865E-004	2.40040E-001	8.75788E-001	3.57680E+000	9	...........
	83	1.12	8.80164E-001	3.99500E-004	0.00000E+000	3.51626E-004	2.40040E-001	8.80474E-001	3.57680E+000	9	...........
	84	1.13333	8.84812E-001	4.02381E-004	0.00000E+000	3.56031E-004	2.40040E-001	8.85123E-001	3.57680E+000	9	...........
	85	1.14667	8.89393E-001	4.02409E-004	0.00000E+000	3.57899E-004	2.40040E-001	8.89687E-001	3.57680E+000	9	...........
	86	1.16	8.94003E-001	3.99980E-004	0.00000E+000	3.57584E-004	2.40040E-001	8.94297E-001	3.57680E+000	9	...........
	87	1.17333	8.98566E-001	3.99928E-004	0.00000E+000	3.59362E-004	2.40040E-001	8.98855E-001	3.57680E+000	9	...........
	88	1.18667	9.03075E-001	4.00647E-004	0.00000E+000	3.61814E-004	2.40040E-001	9.03399E-001	3.57680E+000	9	...........
	89	1.2	9.07534E-001	3.99654E-004	0.00000E+000	3.62700E-004	2.40040E-001	9.07845E-001	3.57680E+000	9	...........
	90	1.21333	9.11912E-001	4.01553E-004	0.00000E+000	3.66182E-004	2.40040E-001	9.12218E-001	3.57680E+000	9	...........
	91	1.22667	9.16230E-001	4.00575E-004	0.00000E+000	3.67019E-004	2.40040E-001	9.16582E-001	3.57680E+000	9	...........
	92	1.24	9.20568E-001	4.01452E-004	0.00000E+000	3.69564E-004	2.40040E-001	9.20854E-001	3.57680E+000	9	...........
	93	1.25333	9.24896E-001	4.00418E-004	0.00000E+000	3.70345E-004	2.40040E-001	9.25195E-001	3.57680E+000	9	...........
	94	1.26667	9.29206E-001	4.01614E-004	0.00000E+000	3.73182E-004	2.40040E-001	9.29484E-001	3.57680E+000	9	...........
	95	1.28	9.33398E-001	4.01062E-004	0.00000E+000	3.74350E-004	2.40040E-001	9.33710E-001	3.57680E+000	9	...........
	96	1.29333	9.37637E-001	4.01253E-004	0.00000E+000	3.76230E-004	2.40040E-001	9.37949E-001	3.57680E+000	9	...........
	97	1.30667	9.41769E-001	4.00666E-004	0.00000E+000	3.77335E-004	2.40040E-001	9.42071E-001	3.57680E+000	9	...........
	98	1.32	9.45935E-001	4.00483E-004	0.00000E+000	3.78831E-004	2.40040E-001	9.46215E-001	3.57680E+000	9	...........
	99	1.33333	9.50045E-001	4.02491E-004	0.00000E+000	3.82385E-004	2.40040E-001	9.50346E-001	3.57680E+000	9	...........
	100	1.34667	9.54063E-001	3.99721E-004	0.00000E+000	3.81359E-004	2.40040E-001	9.54379E-001	3.57680E+000	9	...........
	101	1.36	9.58128E-001	4.00929E-004	0.00000E+000	3.84142E-004	2.40040E-001	9.58435E-001	3.57680E+000	9	...........
	102	1.37333	9.62095E-001	4.00781E-004	0.00000E+000	3.85590E-004	2.40040E-001	9.62408E-001	3.57680E+000	9	...........
	103	1.38667	9.65965E-001	4.00629E-004	0.00000E+000	3.86994E-004	2.40040E-001	9.66278E-001	3.57680E+000	9	...........
	104	1.4	9.69816E-001	4.02236E-004	0.00000E+000	3.90095E-004	2.40040E-001	9.70151E-001	3.57680E+000	9	...........
	105	1.41333	9.73719E-001	4.02028E-004	0.00000E+000	3.91462E-004	2.40040E-001	9.74036E-001	3.57680E+000	9	...........
	106	1.42667	9.77560E-001	4.00876E-004	0.00000E+000	3.91881E-004	2.40040E-001	9.77891E-001	3.57680E+000	9	...........
	107	1.44	9.81354E-001	4.02738E-004	0.00000E+000	3.95229E-004	2.40040E-001	9.81666E-001	3.57680E+000	9	...........
	108	1.45333	9.85112E-001	4.00830E-004	0.00000E+000	3.94863E-004	2.40040E-001	9.85440E-001	3.57680E+000	9	...........
	109	1.46667	9.88797E-001	3.99829E-004	0.00000E+000	3.95350E-004	2.40040E-001	9.89119E-001	3.57680E+000	9	...........
	110	1.48	9.92432E-001	4.01168E-004	0.00000E+000	3.98132E-004	2.40040E-001	9.92760E-001	3.57680E+000	9	...........
	111	1.49333	9.96076E-001	4.01867E-004	0.00000E+000	4.00290E-004	2.40040E-001	9.96384E-001	3.57680E+000	9	...........
	112	1.50333	9.99184E-001	4.01989E-004	0.00000E+000	4.01661E-004	2.40040E-001	9.99509E-001	3.57680E+000	9	...........
STARTTIMEOFFSET	QUANT	1993.335	Start Time Offset (s)
