EXPLAIN
TAG	PWR800_CHARGE
TITLE	LABEL	PWR Cyclic Charge Discharge (Cell) - Charge Step	Test &Identifier
DATE	LABEL	12-7-2017	Date
TIME	LABEL	15:13:18	Time
NOTES	NOTES	3	&Notes...
	supercap test cell
	0.4mg
	6M KOH
PSTAT	PSTAT	IFC5000-01520	Potentiostat
CAPACITY	QUANT	1.00000E-003	Capacity (A-hr)
CELLTYPE	SELECTOR	1	&Cell Type
WORKINGCONNECTION	SELECTOR	0	&Working Lead
MAXCHARGETIME	VARIABLEANDUNITS	1.00000E+002	s	1.00000E+002	second(s)	Max &Charge Time
CHARGECURRENT	QUANT	4.00000E-004	&Charge Current (A) 
VOLTAGEFINISH	TWOPARAM	F	1.00000E-003	3.60000E+003	&Voltage Finish	 I (A) < 	Max Time(s)
SAMPLETIME	QUANT	1.00000E-002	Sa&mple Period (s)
CHARGESTOPAT1	MULTIPARAM	4	1.00000E+000	Charge Stop At &1	Voltage > Limit	V
CHARGESTOPAT2	MULTIPARAM	0	0.00000E+000	Charge Stop At &2	None	N/A
AESBHCSELECTOR	TOGGLE	F	Save Both Half Cells
IRCOMP	TOGGLE	F	IR &Measure
EOC	QUANT	0	Open Circuit (V)
SEQUENCER	TOGGLE	TRUE	Run as Sequence
PSTATMODEL	IQUANT	53	Pstat Model
PSTATSECTION	LABEL	IFC5000-01520	Pstat Section
PSTATSERIALNO	LABEL	01520	Pstat Serial Number
CTRLMODE	IQUANT	0	Control Mode
ELECTROMETER	IQUANT	1	RE=0 or CS=1
IESTAB	IQUANT	0	I/E Stability
CASPEED	IQUANT	4	Control Amp Speed
CONVENTION	IQUANT	1	Current Convention
ICHRANGE	IQUANT	2	Ich Range
ICHRANGEMODE	TOGGLE	T	Ich Auto Range
ICHOFFSETENABLE	TOGGLE	F	Ich Offset Enable
ICHOFFSET	QUANT	0	Ich Offset (V)
ICHFILTER	IQUANT	1	Ich Filter
VCHRANGE	IQUANT	2	Vch Range
VCHRANGEMODE	TOGGLE	T	Vch Auto Range
VCHOFFSETENABLE	TOGGLE	F	Vch Offset Enable
VCHOFFSET	QUANT	0	Vch Offset (V)
VCHFILTER	IQUANT	1	Vch Filter
IERANGELOWERLIMIT	IQUANT	9	I/E Range Lower Limit
IERANGEMODE	TOGGLE	F	I/E AutoRange
IERANGE	IQUANT	9	I/E Range
ACHSELECT	IQUANT	1	Ach Select
ACHRANGE	IQUANT	2	Ach Range
ACHOFFSETENABLE	TOGGLE	F	Ach Offset Enable
ACHOFFSET	QUANT	0	Ach Offset (V)
ACHFILTER	IQUANT	1	Ach Filter
CABLEID	IQUANT	14	Cable ID
DCCALDATE	LABEL	5-7-2017	DC Calibration Date
ACCALDATE	LABEL	12/3/2015	AC Calibration Date
FRAMEWORKVERSION	QUANT	7.01	Framework Version
INSTRUMENTVERSION	LABEL	4.00	Instrument Version
CURVE	TABLE	108
	Pt	T	Vf	Im	Vu	Pwr	Sig	Ach	Temp	IERange	Over
	#	s	V	A	V	W	V	V	deg C	#	bits
	0	0.013333	3.84179E-001	4.00881E-004	0.00000E+000	1.54010E-004	2.40040E-001	3.84266E-001	3.57690E+000	9	...........
	1	0.026667	3.96894E-001	4.00629E-004	0.00000E+000	1.59007E-004	2.40040E-001	3.96975E-001	3.57690E+000	9	...........
	2	0.04	4.07808E-001	4.01720E-004	0.00000E+000	1.63825E-004	2.40040E-001	4.07889E-001	3.57690E+000	9	...........
	3	0.053333	4.17694E-001	4.00429E-004	0.00000E+000	1.67257E-004	2.40040E-001	4.17776E-001	3.57690E+000	9	...........
	4	0.066667	4.26821E-001	4.00496E-004	0.00000E+000	1.70940E-004	2.40040E-001	4.26908E-001	3.57690E+000	9	...........
	5	0.08	4.35526E-001	4.01123E-004	0.00000E+000	1.74700E-004	2.40040E-001	4.35616E-001	3.57690E+000	9	...........
	6	0.093333	4.43818E-001	4.01301E-004	0.00000E+000	1.78105E-004	2.40040E-001	4.43910E-001	3.57690E+000	9	...........
	7	0.106667	4.51843E-001	4.01008E-004	0.00000E+000	1.81192E-004	2.40040E-001	4.51937E-001	3.57690E+000	9	...........
	8	0.12	4.59634E-001	4.01403E-004	0.00000E+000	1.84499E-004	2.40040E-001	4.59723E-001	3.57690E+000	9	...........
	9	0.133333	4.67314E-001	4.01544E-004	0.00000E+000	1.87647E-004	2.40040E-001	4.67407E-001	3.57690E+000	9	...........
	10	0.146667	4.74771E-001	4.01499E-004	0.00000E+000	1.90620E-004	2.40040E-001	4.74863E-001	3.57690E+000	9	...........
	11	0.16	4.82103E-001	4.01914E-004	0.00000E+000	1.93764E-004	2.40040E-001	4.82200E-001	3.57690E+000	9	...........
	12	0.173333	4.89355E-001	4.01497E-004	0.00000E+000	1.96475E-004	2.40040E-001	4.89449E-001	3.57690E+000	9	...........
	13	0.186667	4.96541E-001	4.02451E-004	0.00000E+000	1.99833E-004	2.40040E-001	4.96638E-001	3.57690E+000	9	...........
	14	0.2	5.03577E-001	4.00810E-004	0.00000E+000	2.01838E-004	2.40040E-001	5.03682E-001	3.57690E+000	9	...........
	15	0.213333	5.10549E-001	4.00017E-004	0.00000E+000	2.04228E-004	2.40040E-001	5.10650E-001	3.57690E+000	9	...........
	16	0.226667	5.17399E-001	4.00469E-004	0.00000E+000	2.07202E-004	2.40040E-001	5.17499E-001	3.57690E+000	9	...........
	17	0.24	5.24207E-001	4.01172E-004	0.00000E+000	2.10297E-004	2.40040E-001	5.24309E-001	3.57690E+000	9	...........
	18	0.253333	5.30969E-001	4.02112E-004	0.00000E+000	2.13509E-004	2.40040E-001	5.31048E-001	3.57690E+000	9	...........
	19	0.266667	5.37358E-001	4.01146E-004	0.00000E+000	2.15559E-004	2.40040E-001	5.37576E-001	3.57690E+000	9	...........
	20	0.28	5.44039E-001	4.01035E-004	0.00000E+000	2.18178E-004	2.40040E-001	5.44259E-001	3.57690E+000	9	...........
	21	0.293333	5.50659E-001	4.00234E-004	0.00000E+000	2.20393E-004	2.40040E-001	5.50896E-001	3.57690E+000	9	...........
	22	0.306667	5.57165E-001	4.01452E-004	0.00000E+000	2.23675E-004	2.40040E-001	5.57380E-001	3.57690E+000	9	...........
	23	0.32	5.63682E-001	4.02071E-004	0.00000E+000	2.26640E-004	2.40040E-001	5.63918E-001	3.57690E+000	9	...........
	24	0.333333	5.70178E-001	4.01376E-004	0.00000E+000	2.28856E-004	2.40040E-001	5.70403E-001	3.57690E+000	9	...........
	25	0.346667	5.76552E-001	4.00190E-004	0.00000E+000	2.30730E-004	2.40040E-001	5.76790E-001	3.57690E+000	9	...........
	26	0.36	5.82967E-001	4.00241E-004	0.00000E+000	2.33327E-004	2.40040E-001	5.83228E-001	3.57690E+000	9	...........
	27	0.373333	5.89277E-001	4.00656E-004	0.00000E+000	2.36097E-004	2.40040E-001	5.89518E-001	3.57690E+000	9	...........
	28	0.386667	5.95628E-001	4.01343E-004	0.00000E+000	2.39051E-004	2.40040E-001	5.95863E-001	3.57690E+000	9	...........
	29	0.4	6.01893E-001	4.01668E-004	0.00000E+000	2.41761E-004	2.40040E-001	6.02163E-001	3.57690E+000	9	...........
	30	0.413333	6.08245E-001	4.01232E-004	0.00000E+000	2.44047E-004	2.40040E-001	6.08505E-001	3.57690E+000	9	...........
	31	0.426667	6.14521E-001	4.00436E-004	0.00000E+000	2.46076E-004	2.40040E-001	6.14764E-001	3.57690E+000	9	...........
	32	0.44	6.20818E-001	4.01320E-004	0.00000E+000	2.49147E-004	2.40040E-001	6.21023E-001	3.57690E+000	9	...........
	33	0.453333	6.27012E-001	4.00677E-004	0.00000E+000	2.51229E-004	2.40040E-001	6.27237E-001	3.57690E+000	9	...........
	34	0.466667	6.33194E-001	4.01363E-004	0.00000E+000	2.54141E-004	2.40040E-001	6.33424E-001	3.57690E+000	9	...........
	35	0.48	6.39358E-001	4.00540E-004	0.00000E+000	2.56088E-004	2.40040E-001	6.39583E-001	3.57690E+000	9	...........
	36	0.493333	6.45484E-001	4.01843E-004	0.00000E+000	2.59383E-004	2.40040E-001	6.45702E-001	3.57690E+000	9	...........
	37	0.506667	6.51561E-001	4.00602E-004	0.00000E+000	2.61017E-004	2.40040E-001	6.51808E-001	3.57690E+000	9	...........
	38	0.52	6.57669E-001	4.01677E-004	0.00000E+000	2.64171E-004	2.40040E-001	6.57902E-001	3.57690E+000	9	...........
	39	0.533333	6.63777E-001	4.00180E-004	0.00000E+000	2.65630E-004	2.40040E-001	6.64009E-001	3.57690E+000	9	...........
	40	0.546667	6.69776E-001	4.00674E-004	0.00000E+000	2.68362E-004	2.40040E-001	6.69998E-001	3.57690E+000	9	...........
	41	0.56	6.75804E-001	4.01742E-004	0.00000E+000	2.71499E-004	2.40040E-001	6.75997E-001	3.57690E+000	9	...........
	42	0.573333	6.81696E-001	4.00574E-004	0.00000E+000	2.73070E-004	2.40040E-001	6.81914E-001	3.57690E+000	9	...........
	43	0.586667	6.87609E-001	4.01322E-004	0.00000E+000	2.75953E-004	2.40040E-001	6.87814E-001	3.57690E+000	9	...........
	44	0.6	6.93604E-001	3.99934E-004	0.00000E+000	2.77396E-004	2.40040E-001	6.93807E-001	3.57690E+000	9	...........
	45	0.613333	6.99430E-001	4.00744E-004	0.00000E+000	2.80292E-004	2.40040E-001	6.99635E-001	3.57690E+000	9	...........
	46	0.626667	7.05338E-001	4.01440E-004	0.00000E+000	2.83151E-004	2.40040E-001	7.05559E-001	3.57690E+000	9	...........
	47	0.64	7.11204E-001	4.00931E-004	0.00000E+000	2.85144E-004	2.40040E-001	7.11423E-001	3.57690E+000	9	...........
	48	0.653333	7.17016E-001	4.01113E-004	0.00000E+000	2.87604E-004	2.40040E-001	7.17266E-001	3.57690E+000	9	...........
	49	0.666667	7.22845E-001	4.02107E-004	0.00000E+000	2.90661E-004	2.40040E-001	7.23063E-001	3.57690E+000	9	...........
	50	0.68	7.28627E-001	4.02223E-004	0.00000E+000	2.93071E-004	2.40040E-001	7.28883E-001	3.57690E+000	9	...........
	51	0.693333	7.34379E-001	4.01190E-004	0.00000E+000	2.94625E-004	2.40040E-001	7.34613E-001	3.57690E+000	9	...........
	52	0.706667	7.40096E-001	4.01188E-004	0.00000E+000	2.96918E-004	2.40040E-001	7.40339E-001	3.57690E+000	9	...........
	53	0.72	7.45813E-001	4.00865E-004	0.00000E+000	2.98970E-004	2.40040E-001	7.46086E-001	3.57690E+000	9	...........
	54	0.733333	7.51524E-001	4.02195E-004	0.00000E+000	3.02259E-004	2.40040E-001	7.51786E-001	3.57690E+000	9	...........
	55	0.746667	7.57193E-001	4.00947E-004	0.00000E+000	3.03594E-004	2.40040E-001	7.57439E-001	3.57731E+000	9	...........
	56	0.76	7.62767E-001	4.00941E-004	0.00000E+000	3.05824E-004	2.40040E-001	7.63037E-001	3.57770E+000	9	...........
	57	0.773333	7.68352E-001	4.01453E-004	0.00000E+000	3.08457E-004	2.40040E-001	7.68656E-001	3.57770E+000	9	...........
	58	0.786667	7.73936E-001	4.01091E-004	0.00000E+000	3.10419E-004	2.40040E-001	7.74196E-001	3.57770E+000	9	...........
	59	0.8	7.79468E-001	4.01067E-004	0.00000E+000	3.12619E-004	2.40040E-001	7.79719E-001	3.57770E+000	9	...........
	60	0.813333	7.84927E-001	4.00928E-004	0.00000E+000	3.14699E-004	2.40040E-001	7.85192E-001	3.57770E+000	9	...........
	61	0.826667	7.90372E-001	4.00616E-004	0.00000E+000	3.16636E-004	2.40040E-001	7.90626E-001	3.57770E+000	9	...........
	62	0.84	7.95793E-001	4.00937E-004	0.00000E+000	3.19063E-004	2.40040E-001	7.96035E-001	3.57770E+000	9	...........
	63	0.853333	8.01164E-001	4.00755E-004	0.00000E+000	3.21071E-004	2.40040E-001	8.01401E-001	3.57770E+000	9	...........
	64	0.866667	8.06466E-001	4.00647E-004	0.00000E+000	3.23108E-004	2.40040E-001	8.06732E-001	3.57770E+000	9	...........
	65	0.88	8.11816E-001	4.01965E-004	0.00000E+000	3.26322E-004	2.40040E-001	8.12066E-001	3.57770E+000	9	...........
	66	0.893333	8.17068E-001	4.00449E-004	0.00000E+000	3.27194E-004	2.40040E-001	8.17341E-001	3.57770E+000	9	...........
	67	0.906667	8.22252E-001	4.00669E-004	0.00000E+000	3.29451E-004	2.40040E-001	8.22531E-001	3.57770E+000	9	...........
	68	0.92	8.27453E-001	4.01076E-004	0.00000E+000	3.31872E-004	2.40040E-001	8.27707E-001	3.57770E+000	9	...........
	69	0.933333	8.32630E-001	4.01524E-004	0.00000E+000	3.34321E-004	2.40040E-001	8.32923E-001	3.57770E+000	9	...........
	70	0.946667	8.37712E-001	3.99702E-004	0.00000E+000	3.34835E-004	2.40040E-001	8.37991E-001	3.57770E+000	9	...........
	71	0.96	8.42820E-001	4.00867E-004	0.00000E+000	3.37859E-004	2.40040E-001	8.43113E-001	3.57770E+000	9	...........
	72	0.97333	8.47944E-001	4.00887E-004	0.00000E+000	3.39929E-004	2.40040E-001	8.48236E-001	3.57770E+000	9	...........
	73	0.98667	8.52934E-001	4.00437E-004	0.00000E+000	3.41546E-004	2.40040E-001	8.53223E-001	3.57770E+000	9	...........
	74	1	8.57920E-001	4.01621E-004	0.00000E+000	3.44559E-004	2.40040E-001	8.58214E-001	3.57770E+000	9	...........
	75	1.01333	8.62799E-001	4.00073E-004	0.00000E+000	3.45183E-004	2.40040E-001	8.63082E-001	3.57770E+000	9	...........
	76	1.02667	8.67703E-001	4.01615E-004	0.00000E+000	3.48483E-004	2.40040E-001	8.68004E-001	3.57770E+000	9	...........
	77	1.04	8.72563E-001	4.00875E-004	0.00000E+000	3.49789E-004	2.40040E-001	8.72862E-001	3.57770E+000	9	...........
	78	1.05333	8.77371E-001	4.00822E-004	0.00000E+000	3.51670E-004	2.40040E-001	8.77701E-001	3.57770E+000	9	...........
	79	1.06667	8.82217E-001	3.99406E-004	0.00000E+000	3.52363E-004	2.40040E-001	8.82538E-001	3.57770E+000	9	...........
	80	1.08	8.86987E-001	4.01113E-004	0.00000E+000	3.55782E-004	2.40040E-001	8.87313E-001	3.57770E+000	9	...........
	81	1.09333	8.91668E-001	4.01790E-004	0.00000E+000	3.58263E-004	2.40040E-001	8.91994E-001	3.57770E+000	9	...........
	82	1.10667	8.96296E-001	4.01631E-004	0.00000E+000	3.59980E-004	2.40040E-001	8.96629E-001	3.57770E+000	9	...........
	83	1.12	9.00964E-001	4.00110E-004	0.00000E+000	3.60485E-004	2.40040E-001	9.01285E-001	3.57770E+000	9	...........
	84	1.13333	9.05604E-001	4.00166E-004	0.00000E+000	3.62391E-004	2.40040E-001	9.05937E-001	3.57770E+000	9	...........
	85	1.14667	9.10134E-001	4.00456E-004	0.00000E+000	3.64469E-004	2.40040E-001	9.10458E-001	3.57770E+000	9	...........
	86	1.16	9.14632E-001	3.99884E-004	0.00000E+000	3.65747E-004	2.40040E-001	9.14949E-001	3.57770E+000	9	...........
	87	1.17333	9.19065E-001	4.01864E-004	0.00000E+000	3.69339E-004	2.40040E-001	9.19377E-001	3.57770E+000	9	...........
	88	1.18667	9.23513E-001	4.00639E-004	0.00000E+000	3.69995E-004	2.40040E-001	9.23749E-001	3.57770E+000	9	...........
	89	1.2	9.27876E-001	4.00601E-004	0.00000E+000	3.71708E-004	2.40040E-001	9.28173E-001	3.57770E+000	9	...........
	90	1.21333	9.32215E-001	4.00605E-004	0.00000E+000	3.73450E-004	2.40040E-001	9.32490E-001	3.57770E+000	9	...........
	91	1.22667	9.36476E-001	4.00329E-004	0.00000E+000	3.74899E-004	2.40040E-001	9.36770E-001	3.57770E+000	9	...........
	92	1.24	9.40770E-001	3.99690E-004	0.00000E+000	3.76016E-004	2.40040E-001	9.41056E-001	3.57770E+000	9	...........
	93	1.25333	9.44993E-001	4.01054E-004	0.00000E+000	3.78994E-004	2.40040E-001	9.45290E-001	3.57770E+000	9	...........
	94	1.26667	9.49257E-001	4.01109E-004	0.00000E+000	3.80755E-004	2.40040E-001	9.49530E-001	3.57770E+000	9	...........
	95	1.28	9.53376E-001	4.01063E-004	0.00000E+000	3.82364E-004	2.40040E-001	9.53655E-001	3.57770E+000	9	...........
	96	1.29333	9.57450E-001	4.00232E-004	0.00000E+000	3.83203E-004	2.40040E-001	9.57740E-001	3.57770E+000	9	...........
	97	1.30667	9.61533E-001	4.00789E-004	0.00000E+000	3.85372E-004	2.40040E-001	9.61853E-001	3.57770E+000	9	...........
	98	1.32	9.65547E-001	4.01266E-004	0.00000E+000	3.87441E-004	2.40040E-001	9.65874E-001	3.57770E+000	9	...........
	99	1.33333	9.69505E-001	4.01672E-004	0.00000E+000	3.89423E-004	2.40040E-001	9.69845E-001	3.57770E+000	9	...........
	100	1.34667	9.73467E-001	4.01437E-004	0.00000E+000	3.90786E-004	2.40040E-001	9.73779E-001	3.57770E+000	9	...........
	101	1.36	9.77361E-001	4.00735E-004	0.00000E+000	3.91662E-004	2.40040E-001	9.77675E-001	3.57770E+000	9	...........
	102	1.37333	9.81197E-001	4.01222E-004	0.00000E+000	3.93678E-004	2.40040E-001	9.81501E-001	3.57770E+000	9	...........
	103	1.38667	9.84870E-001	4.00616E-004	0.00000E+000	3.94555E-004	2.40040E-001	9.85207E-001	3.57770E+000	9	...........
	104	1.4	9.88641E-001	4.00199E-004	0.00000E+000	3.95653E-004	2.40040E-001	9.88964E-001	3.57770E+000	9	...........
	105	1.41333	9.92386E-001	4.00113E-004	0.00000E+000	3.97066E-004	2.40040E-001	9.92724E-001	3.57770E+000	9	...........
	106	1.42667	9.96090E-001	4.01283E-004	0.00000E+000	3.99713E-004	2.40040E-001	9.96445E-001	3.57770E+000	9	...........
	107	1.435	9.99138E-001	3.99694E-004	0.00000E+000	3.99349E-004	2.40040E-001	9.99493E-001	3.57770E+000	9	...........
STARTTIMEOFFSET	QUANT	2593.927	Start Time Offset (s)
