EXPLAIN
TAG	PWR800_CHARGE
TITLE	LABEL	PWR Cyclic Charge Discharge (Cell) - Charge Step	Test &Identifier
DATE	LABEL	12-7-2017	Date
TIME	LABEL	14:58:58	Time
NOTES	NOTES	3	&Notes...
	supercap test cell
	0.4mg
	6M KOH
PSTAT	PSTAT	IFC5000-01520	Potentiostat
CAPACITY	QUANT	1.00000E-003	Capacity (A-hr)
CELLTYPE	SELECTOR	1	&Cell Type
WORKINGCONNECTION	SELECTOR	0	&Working Lead
MAXCHARGETIME	VARIABLEANDUNITS	1.00000E+002	s	1.00000E+002	second(s)	Max &Charge Time
CHARGECURRENT	QUANT	4.00000E-004	&Charge Current (A) 
VOLTAGEFINISH	TWOPARAM	F	1.00000E-003	3.60000E+003	&Voltage Finish	 I (A) < 	Max Time(s)
SAMPLETIME	QUANT	1.00000E-002	Sa&mple Period (s)
CHARGESTOPAT1	MULTIPARAM	4	1.00000E+000	Charge Stop At &1	Voltage > Limit	V
CHARGESTOPAT2	MULTIPARAM	0	0.00000E+000	Charge Stop At &2	None	N/A
AESBHCSELECTOR	TOGGLE	F	Save Both Half Cells
IRCOMP	TOGGLE	F	IR &Measure
EOC	QUANT	0	Open Circuit (V)
SEQUENCER	TOGGLE	TRUE	Run as Sequence
PSTATMODEL	IQUANT	53	Pstat Model
PSTATSECTION	LABEL	IFC5000-01520	Pstat Section
PSTATSERIALNO	LABEL	01520	Pstat Serial Number
CTRLMODE	IQUANT	0	Control Mode
ELECTROMETER	IQUANT	1	RE=0 or CS=1
IESTAB	IQUANT	0	I/E Stability
CASPEED	IQUANT	4	Control Amp Speed
CONVENTION	IQUANT	1	Current Convention
ICHRANGE	IQUANT	2	Ich Range
ICHRANGEMODE	TOGGLE	T	Ich Auto Range
ICHOFFSETENABLE	TOGGLE	F	Ich Offset Enable
ICHOFFSET	QUANT	0	Ich Offset (V)
ICHFILTER	IQUANT	1	Ich Filter
VCHRANGE	IQUANT	2	Vch Range
VCHRANGEMODE	TOGGLE	T	Vch Auto Range
VCHOFFSETENABLE	TOGGLE	F	Vch Offset Enable
VCHOFFSET	QUANT	0	Vch Offset (V)
VCHFILTER	IQUANT	1	Vch Filter
IERANGELOWERLIMIT	IQUANT	9	I/E Range Lower Limit
IERANGEMODE	TOGGLE	F	I/E AutoRange
IERANGE	IQUANT	9	I/E Range
ACHSELECT	IQUANT	1	Ach Select
ACHRANGE	IQUANT	2	Ach Range
ACHOFFSETENABLE	TOGGLE	F	Ach Offset Enable
ACHOFFSET	QUANT	0	Ach Offset (V)
ACHFILTER	IQUANT	1	Ach Filter
CABLEID	IQUANT	14	Cable ID
DCCALDATE	LABEL	5-7-2017	DC Calibration Date
ACCALDATE	LABEL	12/3/2015	AC Calibration Date
FRAMEWORKVERSION	QUANT	7.01	Framework Version
INSTRUMENTVERSION	LABEL	4.00	Instrument Version
CURVE	TABLE	114
	Pt	T	Vf	Im	Vu	Pwr	Sig	Ach	Temp	IERange	Over
	#	s	V	A	V	W	V	V	deg C	#	bits
	0	0.013333	3.73692E-001	3.99825E-004	0.00000E+000	1.49411E-004	2.40040E-001	3.73777E-001	3.57750E+000	9	...........
	1	0.026667	3.85650E-001	4.01759E-004	0.00000E+000	1.54938E-004	2.40040E-001	3.85721E-001	3.57750E+000	9	...........
	2	0.04	3.95834E-001	4.01741E-004	0.00000E+000	1.59023E-004	2.40040E-001	3.95903E-001	3.57750E+000	9	...........
	3	0.053333	4.05108E-001	4.00699E-004	0.00000E+000	1.62326E-004	2.40040E-001	4.05181E-001	3.57750E+000	9	...........
	4	0.066667	4.13764E-001	4.01425E-004	0.00000E+000	1.66095E-004	2.40040E-001	4.13845E-001	3.57750E+000	9	...........
	5	0.08	4.22009E-001	4.02072E-004	0.00000E+000	1.69678E-004	2.40040E-001	4.22091E-001	3.57750E+000	9	...........
	6	0.093333	4.29987E-001	4.01836E-004	0.00000E+000	1.72784E-004	2.40040E-001	4.30068E-001	3.57750E+000	9	...........
	7	0.106667	4.37632E-001	4.00784E-004	0.00000E+000	1.75396E-004	2.40040E-001	4.37712E-001	3.57750E+000	9	...........
	8	0.12	4.45148E-001	4.01138E-004	0.00000E+000	1.78566E-004	2.40040E-001	4.45234E-001	3.57690E+000	9	...........
	9	0.133333	4.52493E-001	4.00351E-004	0.00000E+000	1.81156E-004	2.40040E-001	4.52581E-001	3.57670E+000	9	...........
	10	0.146667	4.59650E-001	4.01422E-004	0.00000E+000	1.84514E-004	2.40040E-001	4.59740E-001	3.57670E+000	9	...........
	11	0.16	4.66710E-001	4.00355E-004	0.00000E+000	1.86850E-004	2.40040E-001	4.66804E-001	3.57670E+000	9	...........
	12	0.173333	4.73676E-001	4.01275E-004	0.00000E+000	1.90074E-004	2.40040E-001	4.73766E-001	3.57670E+000	9	...........
	13	0.186667	4.80513E-001	4.01610E-004	0.00000E+000	1.92979E-004	2.40040E-001	4.80605E-001	3.57670E+000	9	...........
	14	0.2	4.87339E-001	4.02471E-004	0.00000E+000	1.96140E-004	2.40040E-001	4.87435E-001	3.57670E+000	9	...........
	15	0.213333	4.93991E-001	4.01284E-004	0.00000E+000	1.98230E-004	2.40040E-001	4.94094E-001	3.57670E+000	9	...........
	16	0.226667	5.00650E-001	4.00151E-004	0.00000E+000	2.00336E-004	2.40040E-001	5.00751E-001	3.57670E+000	9	...........
	17	0.24	5.07265E-001	3.99508E-004	0.00000E+000	2.02656E-004	2.40040E-001	5.07374E-001	3.57670E+000	9	...........
	18	0.253333	5.13804E-001	4.00518E-004	0.00000E+000	2.05788E-004	2.40040E-001	5.13908E-001	3.57670E+000	9	...........
	19	0.266667	5.20310E-001	4.00748E-004	0.00000E+000	2.08513E-004	2.40040E-001	5.20414E-001	3.57670E+000	9	...........
	20	0.28	5.26738E-001	4.00552E-004	0.00000E+000	2.10986E-004	2.40040E-001	5.26843E-001	3.57670E+000	9	...........
	21	0.293333	5.32986E-001	4.00227E-004	0.00000E+000	2.13315E-004	2.40040E-001	5.33106E-001	3.57670E+000	9	...........
	22	0.306667	5.39191E-001	4.00392E-004	0.00000E+000	2.15888E-004	2.40040E-001	5.39420E-001	3.57670E+000	9	...........
	23	0.32	5.45493E-001	4.01714E-004	0.00000E+000	2.19132E-004	2.40040E-001	5.45704E-001	3.57670E+000	9	...........
	24	0.333333	5.51730E-001	4.01333E-004	0.00000E+000	2.21427E-004	2.40040E-001	5.51974E-001	3.57670E+000	9	...........
	25	0.346667	5.57971E-001	4.01010E-004	0.00000E+000	2.23752E-004	2.40040E-001	5.58200E-001	3.57670E+000	9	...........
	26	0.36	5.64161E-001	4.00741E-004	0.00000E+000	2.26082E-004	2.40040E-001	5.64397E-001	3.57670E+000	9	...........
	27	0.373333	5.70278E-001	4.01323E-004	0.00000E+000	2.28866E-004	2.40040E-001	5.70517E-001	3.57670E+000	9	...........
	28	0.386667	5.76373E-001	4.02247E-004	0.00000E+000	2.31845E-004	2.40040E-001	5.76607E-001	3.57670E+000	9	...........
	29	0.4	5.82398E-001	4.02166E-004	0.00000E+000	2.34221E-004	2.40040E-001	5.82636E-001	3.57670E+000	9	...........
	30	0.413333	5.88470E-001	4.01660E-004	0.00000E+000	2.36365E-004	2.40040E-001	5.88730E-001	3.57670E+000	9	...........
	31	0.426667	5.94525E-001	4.00237E-004	0.00000E+000	2.37951E-004	2.40040E-001	5.94785E-001	3.57670E+000	9	...........
	32	0.44	6.00560E-001	4.00937E-004	0.00000E+000	2.40786E-004	2.40040E-001	6.00843E-001	3.57670E+000	9	...........
	33	0.453333	6.06562E-001	4.00206E-004	0.00000E+000	2.42750E-004	2.40040E-001	6.06828E-001	3.57670E+000	9	...........
	34	0.466667	6.12593E-001	4.00927E-004	0.00000E+000	2.45605E-004	2.40040E-001	6.12870E-001	3.57670E+000	9	...........
	35	0.48	6.18609E-001	4.02545E-004	0.00000E+000	2.49018E-004	2.40040E-001	6.18813E-001	3.57670E+000	9	...........
	36	0.493333	6.24561E-001	4.01683E-004	0.00000E+000	2.50875E-004	2.40040E-001	6.24801E-001	3.57670E+000	9	...........
	37	0.506667	6.30478E-001	4.01625E-004	0.00000E+000	2.53216E-004	2.40040E-001	6.30712E-001	3.57670E+000	9	...........
	38	0.52	6.36339E-001	4.00768E-004	0.00000E+000	2.55024E-004	2.40040E-001	6.36608E-001	3.57670E+000	9	...........
	39	0.533333	6.42239E-001	4.00358E-004	0.00000E+000	2.57126E-004	2.40040E-001	6.42458E-001	3.57670E+000	9	...........
	40	0.546667	6.48045E-001	4.00818E-004	0.00000E+000	2.59748E-004	2.40040E-001	6.48272E-001	3.57670E+000	9	...........
	41	0.56	6.53842E-001	4.00819E-004	0.00000E+000	2.62072E-004	2.40040E-001	6.54073E-001	3.57670E+000	9	...........
	42	0.573333	6.59661E-001	4.01306E-004	0.00000E+000	2.64726E-004	2.40040E-001	6.59885E-001	3.57670E+000	9	...........
	43	0.586667	6.65450E-001	4.01228E-004	0.00000E+000	2.66997E-004	2.40040E-001	6.65679E-001	3.57670E+000	9	...........
	44	0.6	6.71255E-001	4.00873E-004	0.00000E+000	2.69088E-004	2.40040E-001	6.71454E-001	3.57670E+000	9	...........
	45	0.613333	6.77054E-001	4.00898E-004	0.00000E+000	2.71430E-004	2.40040E-001	6.77264E-001	3.57670E+000	9	...........
	46	0.626667	6.82757E-001	4.00740E-004	0.00000E+000	2.73608E-004	2.40040E-001	6.83008E-001	3.57670E+000	9	...........
	47	0.64	6.88430E-001	4.01813E-004	0.00000E+000	2.76620E-004	2.40040E-001	6.88664E-001	3.57670E+000	9	...........
	48	0.653333	6.94118E-001	3.99852E-004	0.00000E+000	2.77545E-004	2.40040E-001	6.94338E-001	3.57670E+000	9	...........
	49	0.666667	6.99784E-001	4.01532E-004	0.00000E+000	2.80985E-004	2.40040E-001	7.00062E-001	3.57670E+000	9	...........
	50	0.68	7.05433E-001	4.00785E-004	0.00000E+000	2.82727E-004	2.40040E-001	7.05704E-001	3.57670E+000	9	...........
	51	0.693333	7.11025E-001	4.00948E-004	0.00000E+000	2.85084E-004	2.40040E-001	7.11276E-001	3.57670E+000	9	...........
	52	0.706667	7.16630E-001	4.00914E-004	0.00000E+000	2.87307E-004	2.40040E-001	7.16858E-001	3.57670E+000	9	...........
	53	0.72	7.22236E-001	4.01383E-004	0.00000E+000	2.89893E-004	2.40040E-001	7.22426E-001	3.57670E+000	9	...........
	54	0.733333	7.27804E-001	3.99366E-004	0.00000E+000	2.90660E-004	2.40040E-001	7.28015E-001	3.57670E+000	9	...........
	55	0.746667	7.33275E-001	3.99762E-004	0.00000E+000	2.93136E-004	2.40040E-001	7.33534E-001	3.57670E+000	9	...........
	56	0.76	7.38802E-001	4.01025E-004	0.00000E+000	2.96278E-004	2.40040E-001	7.39043E-001	3.57670E+000	9	...........
	57	0.773333	7.44256E-001	4.01804E-004	0.00000E+000	2.99045E-004	2.40040E-001	7.44450E-001	3.57670E+000	9	...........
	58	0.786667	7.49660E-001	4.01521E-004	0.00000E+000	3.01004E-004	2.40040E-001	7.49842E-001	3.57670E+000	9	...........
	59	0.8	7.55156E-001	4.01264E-004	0.00000E+000	3.03017E-004	2.40040E-001	7.55344E-001	3.57670E+000	9	...........
	60	0.813333	7.60532E-001	4.00391E-004	0.00000E+000	3.04510E-004	2.40040E-001	7.60709E-001	3.57670E+000	9	...........
	61	0.826667	7.65901E-001	4.01611E-004	0.00000E+000	3.07594E-004	2.40040E-001	7.66136E-001	3.57670E+000	9	...........
	62	0.84	7.71328E-001	4.00492E-004	0.00000E+000	3.08910E-004	2.40040E-001	7.71536E-001	3.57670E+000	9	...........
	63	0.853333	7.76640E-001	4.01046E-004	0.00000E+000	3.11468E-004	2.40040E-001	7.76832E-001	3.57670E+000	9	...........
	64	0.866667	7.81882E-001	4.01277E-004	0.00000E+000	3.13751E-004	2.40040E-001	7.82081E-001	3.57670E+000	9	...........
	65	0.88	7.87149E-001	4.01079E-004	0.00000E+000	3.15709E-004	2.40040E-001	7.87316E-001	3.57670E+000	9	...........
	66	0.893333	7.92407E-001	4.00469E-004	0.00000E+000	3.17334E-004	2.40040E-001	7.92584E-001	3.57670E+000	9	...........
	67	0.906667	7.97689E-001	3.99958E-004	0.00000E+000	3.19042E-004	2.40040E-001	7.97896E-001	3.57670E+000	9	...........
	68	0.92	8.02842E-001	4.01312E-004	0.00000E+000	3.22190E-004	2.40040E-001	8.03072E-001	3.57670E+000	9	...........
	69	0.933333	8.07945E-001	4.00426E-004	0.00000E+000	3.23522E-004	2.40040E-001	8.08205E-001	3.57670E+000	9	...........
	70	0.946667	8.13086E-001	4.01386E-004	0.00000E+000	3.26361E-004	2.40040E-001	8.13351E-001	3.57670E+000	9	...........
	71	0.96	8.18181E-001	4.01029E-004	0.00000E+000	3.28115E-004	2.40040E-001	8.18456E-001	3.57670E+000	9	...........
	72	0.97333	8.23276E-001	4.01397E-004	0.00000E+000	3.30461E-004	2.40040E-001	8.23557E-001	3.57670E+000	9	...........
	73	0.98667	8.28274E-001	4.01871E-004	0.00000E+000	3.32859E-004	2.40040E-001	8.28520E-001	3.57670E+000	9	...........
	74	1	8.33201E-001	4.01901E-004	0.00000E+000	3.34865E-004	2.40040E-001	8.33492E-001	3.57670E+000	9	...........
	75	1.01333	8.38140E-001	4.01584E-004	0.00000E+000	3.36583E-004	2.40040E-001	8.38445E-001	3.57670E+000	9	...........
	76	1.02667	8.43081E-001	3.99585E-004	0.00000E+000	3.36883E-004	2.40040E-001	8.43377E-001	3.57670E+000	9	...........
	77	1.04	8.48045E-001	4.02020E-004	0.00000E+000	3.40931E-004	2.40040E-001	8.48333E-001	3.57670E+000	9	...........
	78	1.05333	8.52889E-001	3.99916E-004	0.00000E+000	3.41084E-004	2.40040E-001	8.53186E-001	3.57670E+000	9	...........
	79	1.06667	8.57733E-001	4.00700E-004	0.00000E+000	3.43694E-004	2.40040E-001	8.58058E-001	3.57670E+000	9	...........
	80	1.08	8.62524E-001	4.01818E-004	0.00000E+000	3.46578E-004	2.40040E-001	8.62821E-001	3.57670E+000	9	...........
	81	1.09333	8.67273E-001	4.01319E-004	0.00000E+000	3.48053E-004	2.40040E-001	8.67589E-001	3.57670E+000	9	...........
	82	1.10667	8.71994E-001	4.01693E-004	0.00000E+000	3.50274E-004	2.40040E-001	8.72308E-001	3.57670E+000	9	...........
	83	1.12	8.76662E-001	4.00441E-004	0.00000E+000	3.51051E-004	2.40040E-001	8.76977E-001	3.57708E+000	9	...........
	84	1.13333	8.81242E-001	4.00023E-004	0.00000E+000	3.52517E-004	2.40040E-001	8.81568E-001	3.57720E+000	9	...........
	85	1.14667	8.85876E-001	3.99926E-004	0.00000E+000	3.54285E-004	2.40040E-001	8.86192E-001	3.57720E+000	9	...........
	86	1.16	8.90473E-001	4.01038E-004	0.00000E+000	3.57113E-004	2.40040E-001	8.90805E-001	3.57720E+000	9	...........
	87	1.17333	8.95072E-001	4.00742E-004	0.00000E+000	3.58693E-004	2.40040E-001	8.95408E-001	3.57720E+000	9	...........
	88	1.18667	8.99609E-001	4.00837E-004	0.00000E+000	3.60596E-004	2.40040E-001	8.99927E-001	3.57720E+000	9	...........
	89	1.2	9.04079E-001	4.01107E-004	0.00000E+000	3.62632E-004	2.40040E-001	9.04402E-001	3.57720E+000	9	...........
	90	1.21333	9.08487E-001	4.00555E-004	0.00000E+000	3.63899E-004	2.40040E-001	9.08797E-001	3.57720E+000	9	...........
	91	1.22667	9.12844E-001	4.00976E-004	0.00000E+000	3.66029E-004	2.40040E-001	9.13177E-001	3.57720E+000	9	...........
	92	1.24	9.17208E-001	4.01388E-004	0.00000E+000	3.68156E-004	2.40040E-001	9.17567E-001	3.57720E+000	9	...........
	93	1.25333	9.21571E-001	4.00503E-004	0.00000E+000	3.69092E-004	2.40040E-001	9.21883E-001	3.57720E+000	9	...........
	94	1.26667	9.25911E-001	4.02105E-004	0.00000E+000	3.72313E-004	2.40040E-001	9.26213E-001	3.57720E+000	9	...........
	95	1.28	9.30165E-001	4.00453E-004	0.00000E+000	3.72488E-004	2.40040E-001	9.30460E-001	3.57720E+000	9	...........
	96	1.29333	9.34353E-001	4.00491E-004	0.00000E+000	3.74200E-004	2.40040E-001	9.34655E-001	3.57720E+000	9	...........
	97	1.30667	9.38488E-001	4.01044E-004	0.00000E+000	3.76375E-004	2.40040E-001	9.38818E-001	3.57720E+000	9	...........
	98	1.32	9.42620E-001	4.01163E-004	0.00000E+000	3.78144E-004	2.40040E-001	9.42930E-001	3.57720E+000	9	...........
	99	1.33333	9.46769E-001	4.00196E-004	0.00000E+000	3.78893E-004	2.40040E-001	9.47071E-001	3.57720E+000	9	...........
	100	1.34667	9.50815E-001	4.00816E-004	0.00000E+000	3.81102E-004	2.40040E-001	9.51138E-001	3.57720E+000	9	...........
	101	1.36	9.54843E-001	4.01943E-004	0.00000E+000	3.83793E-004	2.40040E-001	9.55150E-001	3.57720E+000	9	...........
	102	1.37333	9.58862E-001	4.01919E-004	0.00000E+000	3.85385E-004	2.40040E-001	9.59174E-001	3.57720E+000	9	...........
	103	1.38667	9.62755E-001	4.00812E-004	0.00000E+000	3.85883E-004	2.40040E-001	9.63064E-001	3.57720E+000	9	...........
	104	1.4	9.66669E-001	4.01118E-004	0.00000E+000	3.87748E-004	2.40040E-001	9.66975E-001	3.57720E+000	9	...........
	105	1.41333	9.70501E-001	4.01243E-004	0.00000E+000	3.89407E-004	2.40040E-001	9.70814E-001	3.57720E+000	9	...........
	106	1.42667	9.74340E-001	4.01222E-004	0.00000E+000	3.90927E-004	2.40040E-001	9.74628E-001	3.57720E+000	9	...........
	107	1.44	9.78100E-001	3.99602E-004	0.00000E+000	3.90851E-004	2.40040E-001	9.78396E-001	3.57720E+000	9	...........
	108	1.45333	9.81879E-001	4.00360E-004	0.00000E+000	3.93105E-004	2.40040E-001	9.82164E-001	3.57720E+000	9	...........
	109	1.46667	9.85598E-001	3.99697E-004	0.00000E+000	3.93940E-004	2.40040E-001	9.85915E-001	3.57720E+000	9	...........
	110	1.48	9.89248E-001	4.01845E-004	0.00000E+000	3.97525E-004	2.40040E-001	9.89557E-001	3.57720E+000	9	...........
	111	1.49333	9.92858E-001	4.01340E-004	0.00000E+000	3.98474E-004	2.40040E-001	9.93176E-001	3.57720E+000	9	...........
	112	1.50667	9.96446E-001	3.99949E-004	0.00000E+000	3.98528E-004	2.40040E-001	9.96774E-001	3.57720E+000	9	...........
	113	1.515	9.99344E-001	4.00859E-004	0.00000E+000	4.00596E-004	2.40040E-001	9.99657E-001	3.57720E+000	9	...........
STARTTIMEOFFSET	QUANT	1925.253	Start Time Offset (s)
