EXPLAIN
TAG	PWR800_CHARGE
TITLE	LABEL	PWR Cyclic Charge Discharge (Cell) - Charge Step	Test &Identifier
DATE	LABEL	12-7-2017	Date
TIME	LABEL	15:01:45	Time
NOTES	NOTES	3	&Notes...
	supercap test cell
	0.4mg
	6M KOH
PSTAT	PSTAT	IFC5000-01520	Potentiostat
CAPACITY	QUANT	1.00000E-003	Capacity (A-hr)
CELLTYPE	SELECTOR	1	&Cell Type
WORKINGCONNECTION	SELECTOR	0	&Working Lead
MAXCHARGETIME	VARIABLEANDUNITS	1.00000E+002	s	1.00000E+002	second(s)	Max &Charge Time
CHARGECURRENT	QUANT	4.00000E-004	&Charge Current (A) 
VOLTAGEFINISH	TWOPARAM	F	1.00000E-003	3.60000E+003	&Voltage Finish	 I (A) < 	Max Time(s)
SAMPLETIME	QUANT	1.00000E-002	Sa&mple Period (s)
CHARGESTOPAT1	MULTIPARAM	4	1.00000E+000	Charge Stop At &1	Voltage > Limit	V
CHARGESTOPAT2	MULTIPARAM	0	0.00000E+000	Charge Stop At &2	None	N/A
AESBHCSELECTOR	TOGGLE	F	Save Both Half Cells
IRCOMP	TOGGLE	F	IR &Measure
EOC	QUANT	0	Open Circuit (V)
SEQUENCER	TOGGLE	TRUE	Run as Sequence
PSTATMODEL	IQUANT	53	Pstat Model
PSTATSECTION	LABEL	IFC5000-01520	Pstat Section
PSTATSERIALNO	LABEL	01520	Pstat Serial Number
CTRLMODE	IQUANT	0	Control Mode
ELECTROMETER	IQUANT	1	RE=0 or CS=1
IESTAB	IQUANT	0	I/E Stability
CASPEED	IQUANT	4	Control Amp Speed
CONVENTION	IQUANT	1	Current Convention
ICHRANGE	IQUANT	2	Ich Range
ICHRANGEMODE	TOGGLE	T	Ich Auto Range
ICHOFFSETENABLE	TOGGLE	F	Ich Offset Enable
ICHOFFSET	QUANT	0	Ich Offset (V)
ICHFILTER	IQUANT	1	Ich Filter
VCHRANGE	IQUANT	2	Vch Range
VCHRANGEMODE	TOGGLE	T	Vch Auto Range
VCHOFFSETENABLE	TOGGLE	F	Vch Offset Enable
VCHOFFSET	QUANT	0	Vch Offset (V)
VCHFILTER	IQUANT	1	Vch Filter
IERANGELOWERLIMIT	IQUANT	9	I/E Range Lower Limit
IERANGEMODE	TOGGLE	F	I/E AutoRange
IERANGE	IQUANT	9	I/E Range
ACHSELECT	IQUANT	1	Ach Select
ACHRANGE	IQUANT	2	Ach Range
ACHOFFSETENABLE	TOGGLE	F	Ach Offset Enable
ACHOFFSET	QUANT	0	Ach Offset (V)
ACHFILTER	IQUANT	1	Ach Filter
CABLEID	IQUANT	14	Cable ID
DCCALDATE	LABEL	5-7-2017	DC Calibration Date
ACCALDATE	LABEL	12/3/2015	AC Calibration Date
FRAMEWORKVERSION	QUANT	7.01	Framework Version
INSTRUMENTVERSION	LABEL	4.00	Instrument Version
CURVE	TABLE	113
	Pt	T	Vf	Im	Vu	Pwr	Sig	Ach	Temp	IERange	Over
	#	s	V	A	V	W	V	V	deg C	#	bits
	0	0.013333	3.75981E-001	4.01276E-004	0.00000E+000	1.50872E-004	2.40040E-001	3.76079E-001	3.57630E+000	9	...........
	1	0.026667	3.88098E-001	4.01443E-004	0.00000E+000	1.55799E-004	2.40040E-001	3.88175E-001	3.57630E+000	9	...........
	2	0.04	3.98554E-001	4.01361E-004	0.00000E+000	1.59964E-004	2.40040E-001	3.98626E-001	3.57630E+000	9	...........
	3	0.053333	4.08042E-001	4.02253E-004	0.00000E+000	1.64136E-004	2.40040E-001	4.08118E-001	3.57630E+000	9	...........
	4	0.066667	4.16804E-001	4.01220E-004	0.00000E+000	1.67230E-004	2.40040E-001	4.16898E-001	3.57630E+000	9	...........
	5	0.08	4.25197E-001	4.00631E-004	0.00000E+000	1.70347E-004	2.40040E-001	4.25288E-001	3.57630E+000	9	...........
	6	0.093333	4.33225E-001	4.00917E-004	0.00000E+000	1.73687E-004	2.40040E-001	4.33310E-001	3.57630E+000	9	...........
	7	0.106667	4.41073E-001	4.00699E-004	0.00000E+000	1.76738E-004	2.40040E-001	4.41167E-001	3.57630E+000	9	...........
	8	0.12	4.48649E-001	4.00313E-004	0.00000E+000	1.79600E-004	2.40040E-001	4.48745E-001	3.57630E+000	9	...........
	9	0.133333	4.55986E-001	4.01411E-004	0.00000E+000	1.83038E-004	2.40040E-001	4.56081E-001	3.57630E+000	9	...........
	10	0.146667	4.63247E-001	4.01334E-004	0.00000E+000	1.85917E-004	2.40040E-001	4.63337E-001	3.57630E+000	9	...........
	11	0.16	4.70377E-001	4.01630E-004	0.00000E+000	1.88917E-004	2.40040E-001	4.70469E-001	3.57630E+000	9	...........
	12	0.173333	4.77314E-001	4.01367E-004	0.00000E+000	1.91578E-004	2.40040E-001	4.77406E-001	3.57630E+000	9	...........
	13	0.186667	4.84246E-001	4.00759E-004	0.00000E+000	1.94066E-004	2.40040E-001	4.84339E-001	3.57630E+000	9	...........
	14	0.2	4.91066E-001	4.00883E-004	0.00000E+000	1.96860E-004	2.40040E-001	4.91166E-001	3.57630E+000	9	...........
	15	0.213333	4.97832E-001	4.00606E-004	0.00000E+000	1.99435E-004	2.40040E-001	4.97934E-001	3.57630E+000	9	...........
	16	0.226667	5.04574E-001	4.00472E-004	0.00000E+000	2.02068E-004	2.40040E-001	5.04674E-001	3.57630E+000	9	...........
	17	0.24	5.11160E-001	4.00480E-004	0.00000E+000	2.04709E-004	2.40040E-001	5.11265E-001	3.57630E+000	9	...........
	18	0.253333	5.17767E-001	4.00740E-004	0.00000E+000	2.07490E-004	2.40040E-001	5.17867E-001	3.57630E+000	9	...........
	19	0.266667	5.24332E-001	4.01916E-004	0.00000E+000	2.10737E-004	2.40040E-001	5.24437E-001	3.57653E+000	9	...........
	20	0.28	5.30746E-001	4.01449E-004	0.00000E+000	2.13068E-004	2.40040E-001	5.30833E-001	3.57690E+000	9	...........
	21	0.293333	5.36907E-001	4.02136E-004	0.00000E+000	2.15910E-004	2.40040E-001	5.37114E-001	3.57690E+000	9	...........
	22	0.306667	5.43302E-001	4.01203E-004	0.00000E+000	2.17975E-004	2.40040E-001	5.43539E-001	3.57690E+000	9	...........
	23	0.32	5.49661E-001	4.01685E-004	0.00000E+000	2.20790E-004	2.40040E-001	5.49861E-001	3.57690E+000	9	...........
	24	0.333333	5.55962E-001	4.00976E-004	0.00000E+000	2.22928E-004	2.40040E-001	5.56157E-001	3.57690E+000	9	...........
	25	0.346667	5.62244E-001	4.00933E-004	0.00000E+000	2.25422E-004	2.40040E-001	5.62438E-001	3.57690E+000	9	...........
	26	0.36	5.68465E-001	4.01483E-004	0.00000E+000	2.28229E-004	2.40040E-001	5.68637E-001	3.57690E+000	9	...........
	27	0.373333	5.74681E-001	4.01483E-004	0.00000E+000	2.30725E-004	2.40040E-001	5.74863E-001	3.57690E+000	9	...........
	28	0.386667	5.80874E-001	4.00405E-004	0.00000E+000	2.32585E-004	2.40040E-001	5.81063E-001	3.57690E+000	9	...........
	29	0.4	5.86980E-001	4.00989E-004	0.00000E+000	2.35372E-004	2.40040E-001	5.87202E-001	3.57690E+000	9	...........
	30	0.413333	5.93112E-001	4.00813E-004	0.00000E+000	2.37727E-004	2.40040E-001	5.93306E-001	3.57690E+000	9	...........
	31	0.426667	5.99175E-001	4.00088E-004	0.00000E+000	2.39723E-004	2.40040E-001	5.99381E-001	3.57690E+000	9	...........
	32	0.44	6.05211E-001	4.00266E-004	0.00000E+000	2.42245E-004	2.40040E-001	6.05437E-001	3.57690E+000	9	...........
	33	0.453333	6.11294E-001	4.02035E-004	0.00000E+000	2.45761E-004	2.40040E-001	6.11546E-001	3.57690E+000	9	...........
	34	0.466667	6.17431E-001	4.00804E-004	0.00000E+000	2.47469E-004	2.40040E-001	6.17639E-001	3.57690E+000	9	...........
	35	0.48	6.23389E-001	4.01754E-004	0.00000E+000	2.50449E-004	2.40040E-001	6.23612E-001	3.57690E+000	9	...........
	36	0.493333	6.29372E-001	4.01154E-004	0.00000E+000	2.52475E-004	2.40040E-001	6.29564E-001	3.57690E+000	9	...........
	37	0.506667	6.35275E-001	4.00263E-004	0.00000E+000	2.54277E-004	2.40040E-001	6.35492E-001	3.57690E+000	9	...........
	38	0.52	6.41245E-001	4.00849E-004	0.00000E+000	2.57042E-004	2.40040E-001	6.41477E-001	3.57690E+000	9	...........
	39	0.533333	6.47121E-001	4.00736E-004	0.00000E+000	2.59324E-004	2.40040E-001	6.47336E-001	3.57690E+000	9	...........
	40	0.546667	6.52977E-001	4.00188E-004	0.00000E+000	2.61313E-004	2.40040E-001	6.53212E-001	3.57690E+000	9	...........
	41	0.56	6.58845E-001	4.00699E-004	0.00000E+000	2.63999E-004	2.40040E-001	6.59074E-001	3.57690E+000	9	...........
	42	0.573333	6.64737E-001	4.01228E-004	0.00000E+000	2.66711E-004	2.40040E-001	6.65000E-001	3.57690E+000	9	...........
	43	0.586667	6.70609E-001	4.01939E-004	0.00000E+000	2.69544E-004	2.40040E-001	6.70833E-001	3.57690E+000	9	...........
	44	0.6	6.76454E-001	4.01147E-004	0.00000E+000	2.71358E-004	2.40040E-001	6.76697E-001	3.57690E+000	9	...........
	45	0.613333	6.82265E-001	4.02212E-004	0.00000E+000	2.74415E-004	2.40040E-001	6.82502E-001	3.57690E+000	9	...........
	46	0.626667	6.87977E-001	4.00501E-004	0.00000E+000	2.75536E-004	2.40040E-001	6.88248E-001	3.57690E+000	9	...........
	47	0.64	6.93764E-001	4.00923E-004	0.00000E+000	2.78146E-004	2.40040E-001	6.93998E-001	3.57690E+000	9	...........
	48	0.653333	6.99522E-001	4.02276E-004	0.00000E+000	2.81401E-004	2.40040E-001	6.99778E-001	3.57690E+000	9	...........
	49	0.666667	7.05193E-001	4.00874E-004	0.00000E+000	2.82694E-004	2.40040E-001	7.05449E-001	3.57690E+000	9	...........
	50	0.68	7.10889E-001	4.00944E-004	0.00000E+000	2.85027E-004	2.40040E-001	7.11133E-001	3.57690E+000	9	...........
	51	0.693333	7.16525E-001	4.00237E-004	0.00000E+000	2.86779E-004	2.40040E-001	7.16781E-001	3.57690E+000	9	...........
	52	0.706667	7.22171E-001	4.01922E-004	0.00000E+000	2.90257E-004	2.40040E-001	7.22401E-001	3.57690E+000	9	...........
	53	0.72	7.27787E-001	4.01633E-004	0.00000E+000	2.92303E-004	2.40040E-001	7.28031E-001	3.57690E+000	9	...........
	54	0.733333	7.33381E-001	4.02198E-004	0.00000E+000	2.94965E-004	2.40040E-001	7.33640E-001	3.57690E+000	9	...........
	55	0.746667	7.38966E-001	3.99707E-004	0.00000E+000	2.95370E-004	2.40040E-001	7.39219E-001	3.57690E+000	9	...........
	56	0.76	7.44537E-001	4.00177E-004	0.00000E+000	2.97947E-004	2.40040E-001	7.44773E-001	3.57690E+000	9	...........
	57	0.773333	7.49981E-001	4.01328E-004	0.00000E+000	3.00989E-004	2.40040E-001	7.50212E-001	3.57690E+000	9	...........
	58	0.786667	7.55463E-001	4.00979E-004	0.00000E+000	3.02925E-004	2.40040E-001	7.55677E-001	3.57690E+000	9	...........
	59	0.8	7.60898E-001	4.00812E-004	0.00000E+000	3.04977E-004	2.40040E-001	7.61074E-001	3.57690E+000	9	...........
	60	0.813333	7.66302E-001	4.01487E-004	0.00000E+000	3.07660E-004	2.40040E-001	7.66532E-001	3.57690E+000	9	...........
	61	0.826667	7.71694E-001	4.01720E-004	0.00000E+000	3.10005E-004	2.40040E-001	7.71902E-001	3.57690E+000	9	...........
	62	0.84	7.77062E-001	4.01151E-004	0.00000E+000	3.11720E-004	2.40040E-001	7.77295E-001	3.57690E+000	9	...........
	63	0.853333	7.82428E-001	4.01473E-004	0.00000E+000	3.14124E-004	2.40040E-001	7.82659E-001	3.57690E+000	9	...........
	64	0.866667	7.87734E-001	4.01451E-004	0.00000E+000	3.16237E-004	2.40040E-001	7.87950E-001	3.57690E+000	9	...........
	65	0.88	7.93016E-001	4.00564E-004	0.00000E+000	3.17653E-004	2.40040E-001	7.93234E-001	3.57690E+000	9	...........
	66	0.893333	7.98283E-001	4.02584E-004	0.00000E+000	3.21376E-004	2.40040E-001	7.98506E-001	3.57690E+000	9	...........
	67	0.906667	8.03461E-001	3.99992E-004	0.00000E+000	3.21378E-004	2.40040E-001	8.03727E-001	3.57690E+000	9	...........
	68	0.92	8.08693E-001	4.00792E-004	0.00000E+000	3.24117E-004	2.40040E-001	8.08951E-001	3.57690E+000	9	...........
	69	0.933333	8.13840E-001	4.01174E-004	0.00000E+000	3.26492E-004	2.40040E-001	8.14115E-001	3.57690E+000	9	...........
	70	0.946667	8.18942E-001	4.00532E-004	0.00000E+000	3.28013E-004	2.40040E-001	8.19223E-001	3.57690E+000	9	...........
	71	0.96	8.24045E-001	4.00740E-004	0.00000E+000	3.30227E-004	2.40040E-001	8.24316E-001	3.57690E+000	9	...........
	72	0.97333	8.29158E-001	4.01087E-004	0.00000E+000	3.32564E-004	2.40040E-001	8.29433E-001	3.57690E+000	9	...........
	73	0.98667	8.34201E-001	4.00930E-004	0.00000E+000	3.34457E-004	2.40040E-001	8.34510E-001	3.57690E+000	9	...........
	74	1	8.39207E-001	4.01346E-004	0.00000E+000	3.36812E-004	2.40040E-001	8.39501E-001	3.57690E+000	9	...........
	75	1.01333	8.44151E-001	4.01624E-004	0.00000E+000	3.39032E-004	2.40040E-001	8.44454E-001	3.57690E+000	9	...........
	76	1.02667	8.49129E-001	4.00725E-004	0.00000E+000	3.40267E-004	2.40040E-001	8.49388E-001	3.57690E+000	9	...........
	77	1.04	8.54020E-001	4.00230E-004	0.00000E+000	3.41804E-004	2.40040E-001	8.54302E-001	3.57690E+000	9	...........
	78	1.05333	8.58949E-001	4.00777E-004	0.00000E+000	3.44247E-004	2.40040E-001	8.59253E-001	3.57690E+000	9	...........
	79	1.06667	8.63734E-001	4.01004E-004	0.00000E+000	3.46361E-004	2.40040E-001	8.64052E-001	3.57690E+000	9	...........
	80	1.08	8.68477E-001	4.00767E-004	0.00000E+000	3.48057E-004	2.40040E-001	8.68787E-001	3.57690E+000	9	...........
	81	1.09333	8.73205E-001	4.00776E-004	0.00000E+000	3.49960E-004	2.40040E-001	8.73516E-001	3.57690E+000	9	...........
	82	1.10667	8.77903E-001	4.00814E-004	0.00000E+000	3.51876E-004	2.40040E-001	8.78181E-001	3.57690E+000	9	...........
	83	1.12	8.82564E-001	4.00963E-004	0.00000E+000	3.53875E-004	2.40040E-001	8.82861E-001	3.57690E+000	9	...........
	84	1.13333	8.87151E-001	4.00719E-004	0.00000E+000	3.55498E-004	2.40040E-001	8.87444E-001	3.57690E+000	9	...........
	85	1.14667	8.91786E-001	4.01781E-004	0.00000E+000	3.58302E-004	2.40040E-001	8.92062E-001	3.57690E+000	9	...........
	86	1.16	8.96370E-001	4.02031E-004	0.00000E+000	3.60368E-004	2.40040E-001	8.96684E-001	3.57690E+000	9	...........
	87	1.17333	9.00866E-001	4.00575E-004	0.00000E+000	3.60864E-004	2.40040E-001	9.01127E-001	3.57690E+000	9	...........
	88	1.18667	9.05320E-001	4.01150E-004	0.00000E+000	3.63169E-004	2.40040E-001	9.05634E-001	3.57690E+000	9	...........
	89	1.2	9.09825E-001	4.01104E-004	0.00000E+000	3.64935E-004	2.40040E-001	9.10148E-001	3.57690E+000	9	...........
	90	1.21333	9.14278E-001	4.01441E-004	0.00000E+000	3.67029E-004	2.40040E-001	9.14588E-001	3.57690E+000	9	...........
	91	1.22667	9.18625E-001	4.01939E-004	0.00000E+000	3.69231E-004	2.40040E-001	9.18963E-001	3.57690E+000	9	...........
	92	1.24	9.22979E-001	4.01586E-004	0.00000E+000	3.70655E-004	2.40040E-001	9.23275E-001	3.57690E+000	9	...........
	93	1.25333	9.27234E-001	4.01370E-004	0.00000E+000	3.72164E-004	2.40040E-001	9.27528E-001	3.57690E+000	9	...........
	94	1.26667	9.31433E-001	4.00454E-004	0.00000E+000	3.72996E-004	2.40040E-001	9.31723E-001	3.57709E+000	9	...........
	95	1.28	9.35665E-001	4.01361E-004	0.00000E+000	3.75539E-004	2.40040E-001	9.35970E-001	3.57740E+000	9	...........
	96	1.29333	9.39881E-001	4.00507E-004	0.00000E+000	3.76429E-004	2.40040E-001	9.40184E-001	3.57740E+000	9	...........
	97	1.30667	9.44039E-001	4.00628E-004	0.00000E+000	3.78209E-004	2.40040E-001	9.44325E-001	3.57740E+000	9	...........
	98	1.32	9.48246E-001	4.02257E-004	0.00000E+000	3.81438E-004	2.40040E-001	9.48549E-001	3.57740E+000	9	...........
	99	1.33333	9.52277E-001	4.01384E-004	0.00000E+000	3.82228E-004	2.40040E-001	9.52574E-001	3.57740E+000	9	...........
	100	1.34667	9.56287E-001	4.00664E-004	0.00000E+000	3.83150E-004	2.40040E-001	9.56560E-001	3.57740E+000	9	...........
	101	1.36	9.60280E-001	4.01089E-004	0.00000E+000	3.85158E-004	2.40040E-001	9.60578E-001	3.57740E+000	9	...........
	102	1.37333	9.64192E-001	4.00821E-004	0.00000E+000	3.86468E-004	2.40040E-001	9.64464E-001	3.57740E+000	9	...........
	103	1.38667	9.68067E-001	4.00869E-004	0.00000E+000	3.88068E-004	2.40040E-001	9.68354E-001	3.57740E+000	9	...........
	104	1.4	9.71937E-001	4.01165E-004	0.00000E+000	3.89907E-004	2.40040E-001	9.72239E-001	3.57740E+000	9	...........
	105	1.41333	9.75806E-001	4.01164E-004	0.00000E+000	3.91458E-004	2.40040E-001	9.76101E-001	3.57740E+000	9	...........
	106	1.42667	9.79570E-001	4.01722E-004	0.00000E+000	3.93515E-004	2.40040E-001	9.79875E-001	3.57740E+000	9	...........
	107	1.44	9.83341E-001	4.00149E-004	0.00000E+000	3.93483E-004	2.40040E-001	9.83666E-001	3.57740E+000	9	...........
	108	1.45333	9.87104E-001	4.01026E-004	0.00000E+000	3.95855E-004	2.40040E-001	9.87464E-001	3.57740E+000	9	...........
	109	1.46667	9.90763E-001	4.01446E-004	0.00000E+000	3.97738E-004	2.40040E-001	9.91091E-001	3.57740E+000	9	...........
	110	1.48	9.94366E-001	4.01532E-004	0.00000E+000	3.99270E-004	2.40040E-001	9.94679E-001	3.57740E+000	9	...........
	111	1.49333	9.97901E-001	4.00423E-004	0.00000E+000	3.99583E-004	2.40040E-001	9.98247E-001	3.57740E+000	9	...........
	112	1.49667	1.00011E+000	4.00156E-004	0.00000E+000	4.00199E-004	2.40040E-001	1.00042E+000	3.57740E+000	9	...........
STARTTIMEOFFSET	QUANT	2055.134	Start Time Offset (s)
