EXPLAIN
TAG	PWR800_CHARGE
TITLE	LABEL	PWR Cyclic Charge Discharge (Cell) - Charge Step	Test &Identifier
DATE	LABEL	12-7-2017	Date
TIME	LABEL	14:29:47	Time
NOTES	NOTES	3	&Notes...
	supercap test cell
	0.4mg
	6M KOH
PSTAT	PSTAT	IFC5000-01520	Potentiostat
CAPACITY	QUANT	1.00000E-003	Capacity (A-hr)
CELLTYPE	SELECTOR	1	&Cell Type
WORKINGCONNECTION	SELECTOR	0	&Working Lead
MAXCHARGETIME	VARIABLEANDUNITS	1.00000E+002	s	1.00000E+002	second(s)	Max &Charge Time
CHARGECURRENT	QUANT	4.00000E-004	&Charge Current (A) 
VOLTAGEFINISH	TWOPARAM	F	1.00000E-003	3.60000E+003	&Voltage Finish	 I (A) < 	Max Time(s)
SAMPLETIME	QUANT	1.00000E-002	Sa&mple Period (s)
CHARGESTOPAT1	MULTIPARAM	4	1.00000E+000	Charge Stop At &1	Voltage > Limit	V
CHARGESTOPAT2	MULTIPARAM	0	0.00000E+000	Charge Stop At &2	None	N/A
AESBHCSELECTOR	TOGGLE	F	Save Both Half Cells
IRCOMP	TOGGLE	F	IR &Measure
EOC	QUANT	0	Open Circuit (V)
SEQUENCER	TOGGLE	TRUE	Run as Sequence
PSTATMODEL	IQUANT	53	Pstat Model
PSTATSECTION	LABEL	IFC5000-01520	Pstat Section
PSTATSERIALNO	LABEL	01520	Pstat Serial Number
CTRLMODE	IQUANT	0	Control Mode
ELECTROMETER	IQUANT	1	RE=0 or CS=1
IESTAB	IQUANT	0	I/E Stability
CASPEED	IQUANT	4	Control Amp Speed
CONVENTION	IQUANT	1	Current Convention
ICHRANGE	IQUANT	2	Ich Range
ICHRANGEMODE	TOGGLE	T	Ich Auto Range
ICHOFFSETENABLE	TOGGLE	F	Ich Offset Enable
ICHOFFSET	QUANT	0	Ich Offset (V)
ICHFILTER	IQUANT	1	Ich Filter
VCHRANGE	IQUANT	2	Vch Range
VCHRANGEMODE	TOGGLE	T	Vch Auto Range
VCHOFFSETENABLE	TOGGLE	F	Vch Offset Enable
VCHOFFSET	QUANT	0	Vch Offset (V)
VCHFILTER	IQUANT	1	Vch Filter
IERANGELOWERLIMIT	IQUANT	9	I/E Range Lower Limit
IERANGEMODE	TOGGLE	F	I/E AutoRange
IERANGE	IQUANT	9	I/E Range
ACHSELECT	IQUANT	1	Ach Select
ACHRANGE	IQUANT	2	Ach Range
ACHOFFSETENABLE	TOGGLE	F	Ach Offset Enable
ACHOFFSET	QUANT	0	Ach Offset (V)
ACHFILTER	IQUANT	1	Ach Filter
CABLEID	IQUANT	14	Cable ID
DCCALDATE	LABEL	5-7-2017	DC Calibration Date
ACCALDATE	LABEL	12/3/2015	AC Calibration Date
FRAMEWORKVERSION	QUANT	7.01	Framework Version
INSTRUMENTVERSION	LABEL	4.00	Instrument Version
CURVE	TABLE	134
	Pt	T	Vf	Im	Vu	Pwr	Sig	Ach	Temp	IERange	Over
	#	s	V	A	V	W	V	V	deg C	#	bits
	0	0.013333	3.40837E-001	4.00705E-004	0.00000E+000	1.36575E-004	2.40040E-001	3.40926E-001	3.57600E+000	9	...........
	1	0.026667	3.51065E-001	4.00900E-004	0.00000E+000	1.40742E-004	2.40040E-001	3.51134E-001	3.57600E+000	9	...........
	2	0.04	3.59981E-001	4.01805E-004	0.00000E+000	1.44642E-004	2.40040E-001	3.60051E-001	3.57600E+000	9	...........
	3	0.053333	3.68090E-001	3.99536E-004	0.00000E+000	1.47065E-004	2.40040E-001	3.68167E-001	3.57600E+000	9	...........
	4	0.066667	3.75612E-001	4.01356E-004	0.00000E+000	1.50754E-004	2.40040E-001	3.75685E-001	3.57600E+000	9	...........
	5	0.08	3.82844E-001	4.00956E-004	0.00000E+000	1.53504E-004	2.40040E-001	3.82922E-001	3.57600E+000	9	...........
	6	0.093333	3.89920E-001	4.00760E-004	0.00000E+000	1.56264E-004	2.40040E-001	3.89995E-001	3.57600E+000	9	...........
	7	0.106667	3.96695E-001	4.01029E-004	0.00000E+000	1.59086E-004	2.40040E-001	3.96768E-001	3.57600E+000	9	...........
	8	0.12	4.03312E-001	4.01114E-004	0.00000E+000	1.61774E-004	2.40040E-001	4.03389E-001	3.57600E+000	9	...........
	9	0.133333	4.09780E-001	4.02710E-004	0.00000E+000	1.65022E-004	2.40040E-001	4.09857E-001	3.57600E+000	9	...........
	10	0.146667	4.16066E-001	4.00630E-004	0.00000E+000	1.66689E-004	2.40040E-001	4.16146E-001	3.57600E+000	9	...........
	11	0.16	4.22321E-001	4.01861E-004	0.00000E+000	1.69714E-004	2.40040E-001	4.22406E-001	3.57600E+000	9	...........
	12	0.173333	4.28499E-001	4.00102E-004	0.00000E+000	1.71443E-004	2.40040E-001	4.28584E-001	3.57607E+000	9	...........
	13	0.186667	4.34643E-001	4.00692E-004	0.00000E+000	1.74158E-004	2.40040E-001	4.34727E-001	3.57620E+000	9	...........
	14	0.2	4.40763E-001	4.01544E-004	0.00000E+000	1.76986E-004	2.40040E-001	4.40854E-001	3.57620E+000	9	...........
	15	0.213333	4.46701E-001	4.01227E-004	0.00000E+000	1.79229E-004	2.40040E-001	4.46789E-001	3.57620E+000	9	...........
	16	0.226667	4.52602E-001	4.01427E-004	0.00000E+000	1.81687E-004	2.40040E-001	4.52692E-001	3.57620E+000	9	...........
	17	0.24	4.58469E-001	4.01484E-004	0.00000E+000	1.84068E-004	2.40040E-001	4.58557E-001	3.57620E+000	9	...........
	18	0.253333	4.64230E-001	4.01517E-004	0.00000E+000	1.86396E-004	2.40040E-001	4.64318E-001	3.57620E+000	9	...........
	19	0.266667	4.70076E-001	4.01042E-004	0.00000E+000	1.88520E-004	2.40040E-001	4.70169E-001	3.57620E+000	9	...........
	20	0.28	4.75797E-001	4.00927E-004	0.00000E+000	1.90760E-004	2.40040E-001	4.75892E-001	3.57620E+000	9	...........
	21	0.293333	4.81448E-001	4.00675E-004	0.00000E+000	1.92904E-004	2.40040E-001	4.81539E-001	3.57620E+000	9	...........
	22	0.306667	4.87121E-001	4.01364E-004	0.00000E+000	1.95513E-004	2.40040E-001	4.87216E-001	3.57620E+000	9	...........
	23	0.32	4.92801E-001	4.00495E-004	0.00000E+000	1.97364E-004	2.40040E-001	4.92897E-001	3.57620E+000	9	...........
	24	0.333333	4.98408E-001	4.00952E-004	0.00000E+000	1.99838E-004	2.40040E-001	4.98504E-001	3.57620E+000	9	...........
	25	0.346667	5.04030E-001	4.00962E-004	0.00000E+000	2.02097E-004	2.40040E-001	5.04128E-001	3.57620E+000	9	...........
	26	0.36	5.09610E-001	4.01066E-004	0.00000E+000	2.04387E-004	2.40040E-001	5.09709E-001	3.57620E+000	9	...........
	27	0.373333	5.15134E-001	4.00230E-004	0.00000E+000	2.06172E-004	2.40040E-001	5.15233E-001	3.57620E+000	9	...........
	28	0.386667	5.20587E-001	4.01313E-004	0.00000E+000	2.08918E-004	2.40040E-001	5.20684E-001	3.57620E+000	9	...........
	29	0.4	5.26055E-001	4.01801E-004	0.00000E+000	2.11370E-004	2.40040E-001	5.26162E-001	3.57620E+000	9	...........
	30	0.413333	5.31457E-001	4.00941E-004	0.00000E+000	2.13083E-004	2.40040E-001	5.31548E-001	3.57620E+000	9	...........
	31	0.426667	5.36635E-001	4.00588E-004	0.00000E+000	2.14969E-004	2.40040E-001	5.36854E-001	3.57620E+000	9	...........
	32	0.44	5.42081E-001	4.00442E-004	0.00000E+000	2.17072E-004	2.40040E-001	5.42264E-001	3.57620E+000	9	...........
	33	0.453333	5.47496E-001	4.00924E-004	0.00000E+000	2.19504E-004	2.40040E-001	5.47694E-001	3.57620E+000	9	...........
	34	0.466667	5.52869E-001	4.00610E-004	0.00000E+000	2.21485E-004	2.40040E-001	5.53067E-001	3.57620E+000	9	...........
	35	0.48	5.58226E-001	4.01730E-004	0.00000E+000	2.24256E-004	2.40040E-001	5.58441E-001	3.57620E+000	9	...........
	36	0.493333	5.63685E-001	3.99724E-004	0.00000E+000	2.25318E-004	2.40040E-001	5.63886E-001	3.57620E+000	9	...........
	37	0.506667	5.69033E-001	4.00692E-004	0.00000E+000	2.28007E-004	2.40040E-001	5.69210E-001	3.57620E+000	9	...........
	38	0.52	5.74322E-001	4.01432E-004	0.00000E+000	2.30551E-004	2.40040E-001	5.74526E-001	3.57620E+000	9	...........
	39	0.533333	5.79716E-001	4.01471E-004	0.00000E+000	2.32739E-004	2.40040E-001	5.79917E-001	3.57620E+000	9	...........
	40	0.546667	5.85003E-001	4.00518E-004	0.00000E+000	2.34304E-004	2.40040E-001	5.85246E-001	3.57620E+000	9	...........
	41	0.56	5.90360E-001	4.00720E-004	0.00000E+000	2.36569E-004	2.40040E-001	5.90588E-001	3.57620E+000	9	...........
	42	0.573333	5.95694E-001	4.00421E-004	0.00000E+000	2.38528E-004	2.40040E-001	5.95912E-001	3.57620E+000	9	...........
	43	0.586667	6.00956E-001	4.00282E-004	0.00000E+000	2.40552E-004	2.40040E-001	6.01197E-001	3.57620E+000	9	...........
	44	0.6	6.06159E-001	3.99571E-004	0.00000E+000	2.42204E-004	2.40040E-001	6.06414E-001	3.57620E+000	9	...........
	45	0.613333	6.11296E-001	4.01209E-004	0.00000E+000	2.45257E-004	2.40040E-001	6.11549E-001	3.57620E+000	9	...........
	46	0.626667	6.16571E-001	4.00639E-004	0.00000E+000	2.47022E-004	2.40040E-001	6.16762E-001	3.57620E+000	9	...........
	47	0.64	6.21817E-001	4.02346E-004	0.00000E+000	2.50186E-004	2.40040E-001	6.21963E-001	3.57620E+000	9	...........
	48	0.653333	6.27053E-001	4.01161E-004	0.00000E+000	2.51549E-004	2.40040E-001	6.27227E-001	3.57620E+000	9	...........
	49	0.666667	6.32235E-001	4.00699E-004	0.00000E+000	2.53336E-004	2.40040E-001	6.32413E-001	3.57620E+000	9	...........
	50	0.68	6.37426E-001	4.00169E-004	0.00000E+000	2.55078E-004	2.40040E-001	6.37637E-001	3.57620E+000	9	...........
	51	0.693333	6.42591E-001	4.01476E-004	0.00000E+000	2.57985E-004	2.40040E-001	6.42803E-001	3.57620E+000	9	...........
	52	0.706667	6.47765E-001	4.00226E-004	0.00000E+000	2.59252E-004	2.40040E-001	6.47958E-001	3.57620E+000	9	...........
	53	0.72	6.52958E-001	4.01045E-004	0.00000E+000	2.61865E-004	2.40040E-001	6.53179E-001	3.57620E+000	9	...........
	54	0.733333	6.58112E-001	4.01965E-004	0.00000E+000	2.64538E-004	2.40040E-001	6.58329E-001	3.57620E+000	9	...........
	55	0.746667	6.63213E-001	4.00725E-004	0.00000E+000	2.65766E-004	2.40040E-001	6.63468E-001	3.57620E+000	9	...........
	56	0.76	6.68372E-001	4.01151E-004	0.00000E+000	2.68118E-004	2.40040E-001	6.68623E-001	3.57620E+000	9	...........
	57	0.773333	6.73439E-001	4.01467E-004	0.00000E+000	2.70364E-004	2.40040E-001	6.73673E-001	3.57620E+000	9	...........
	58	0.786667	6.78513E-001	4.00121E-004	0.00000E+000	2.71487E-004	2.40040E-001	6.78750E-001	3.57620E+000	9	...........
	59	0.8	6.83497E-001	4.02179E-004	0.00000E+000	2.74888E-004	2.40040E-001	6.83735E-001	3.57620E+000	9	...........
	60	0.813333	6.88546E-001	4.00825E-004	0.00000E+000	2.75987E-004	2.40040E-001	6.88818E-001	3.57620E+000	9	...........
	61	0.826667	6.93617E-001	4.01712E-004	0.00000E+000	2.78634E-004	2.40040E-001	6.93858E-001	3.57620E+000	9	...........
	62	0.84	6.98621E-001	4.00439E-004	0.00000E+000	2.79755E-004	2.40040E-001	6.98890E-001	3.57620E+000	9	...........
	63	0.853333	7.03609E-001	4.00952E-004	0.00000E+000	2.82114E-004	2.40040E-001	7.03871E-001	3.57620E+000	9	...........
	64	0.866667	7.08625E-001	4.00676E-004	0.00000E+000	2.83929E-004	2.40040E-001	7.08890E-001	3.57620E+000	9	...........
	65	0.88	7.13605E-001	4.02149E-004	0.00000E+000	2.86976E-004	2.40040E-001	7.13889E-001	3.57620E+000	9	...........
	66	0.893333	7.18615E-001	4.02049E-004	0.00000E+000	2.88919E-004	2.40040E-001	7.18858E-001	3.57620E+000	9	...........
	67	0.906667	7.23551E-001	4.02046E-004	0.00000E+000	2.90901E-004	2.40040E-001	7.23780E-001	3.57620E+000	9	...........
	68	0.92	7.28478E-001	4.01004E-004	0.00000E+000	2.92123E-004	2.40040E-001	7.28726E-001	3.57620E+000	9	...........
	69	0.933333	7.33447E-001	4.01259E-004	0.00000E+000	2.94302E-004	2.40040E-001	7.33708E-001	3.57620E+000	9	...........
	70	0.946667	7.38318E-001	4.01594E-004	0.00000E+000	2.96504E-004	2.40040E-001	7.38565E-001	3.57620E+000	9	...........
	71	0.96	7.43242E-001	4.00309E-004	0.00000E+000	2.97527E-004	2.40040E-001	7.43491E-001	3.57620E+000	9	...........
	72	0.97333	7.48182E-001	4.00661E-004	0.00000E+000	2.99767E-004	2.40040E-001	7.48407E-001	3.57620E+000	9	...........
	73	0.98667	7.53036E-001	4.00456E-004	0.00000E+000	3.01558E-004	2.40040E-001	7.53269E-001	3.57620E+000	9	...........
	74	1	7.57860E-001	4.00746E-004	0.00000E+000	3.03710E-004	2.40040E-001	7.58101E-001	3.57620E+000	9	...........
	75	1.01333	7.62675E-001	4.01507E-004	0.00000E+000	3.06219E-004	2.40040E-001	7.62904E-001	3.57620E+000	9	...........
	76	1.02667	7.67493E-001	4.01446E-004	0.00000E+000	3.08107E-004	2.40040E-001	7.67751E-001	3.57620E+000	9	...........
	77	1.04	7.72344E-001	4.00949E-004	0.00000E+000	3.09671E-004	2.40040E-001	7.72571E-001	3.57620E+000	9	...........
	78	1.05333	7.77136E-001	4.00120E-004	0.00000E+000	3.10948E-004	2.40040E-001	7.77390E-001	3.57620E+000	9	...........
	79	1.06667	7.81903E-001	4.01439E-004	0.00000E+000	3.13886E-004	2.40040E-001	7.82147E-001	3.57620E+000	9	...........
	80	1.08	7.86612E-001	4.00591E-004	0.00000E+000	3.15110E-004	2.40040E-001	7.86850E-001	3.57620E+000	9	...........
	81	1.09333	7.91340E-001	4.01293E-004	0.00000E+000	3.17559E-004	2.40040E-001	7.91589E-001	3.57620E+000	9	...........
	82	1.10667	7.96107E-001	4.01223E-004	0.00000E+000	3.19417E-004	2.40040E-001	7.96320E-001	3.57620E+000	9	...........
	83	1.12	8.00757E-001	4.00462E-004	0.00000E+000	3.20673E-004	2.40040E-001	8.00985E-001	3.57620E+000	9	...........
	84	1.13333	8.05400E-001	4.00537E-004	0.00000E+000	3.22592E-004	2.40040E-001	8.05643E-001	3.57620E+000	9	...........
	85	1.14667	8.10008E-001	4.00580E-004	0.00000E+000	3.24473E-004	2.40040E-001	8.10262E-001	3.57620E+000	9	...........
	86	1.16	8.14646E-001	4.00656E-004	0.00000E+000	3.26393E-004	2.40040E-001	8.14910E-001	3.57620E+000	9	...........
	87	1.17333	8.19303E-001	4.00600E-004	0.00000E+000	3.28213E-004	2.40040E-001	8.19566E-001	3.57627E+000	9	...........
	88	1.18667	8.23858E-001	3.99779E-004	0.00000E+000	3.29361E-004	2.40040E-001	8.24102E-001	3.57640E+000	9	...........
	89	1.2	8.28360E-001	4.01723E-004	0.00000E+000	3.32772E-004	2.40040E-001	8.28626E-001	3.57640E+000	9	...........
	90	1.21333	8.32931E-001	4.00195E-004	0.00000E+000	3.33334E-004	2.40040E-001	8.33215E-001	3.57640E+000	9	...........
	91	1.22667	8.37393E-001	4.01637E-004	0.00000E+000	3.36328E-004	2.40040E-001	8.37662E-001	3.57640E+000	9	...........
	92	1.24	8.41816E-001	4.00774E-004	0.00000E+000	3.37378E-004	2.40040E-001	8.42103E-001	3.57640E+000	9	...........
	93	1.25333	8.46365E-001	4.00786E-004	0.00000E+000	3.39211E-004	2.40040E-001	8.46647E-001	3.57640E+000	9	...........
	94	1.26667	8.50725E-001	4.00345E-004	0.00000E+000	3.40583E-004	2.40040E-001	8.50993E-001	3.57640E+000	9	...........
	95	1.28	8.55061E-001	4.00827E-004	0.00000E+000	3.42732E-004	2.40040E-001	8.55326E-001	3.57640E+000	9	...........
	96	1.29333	8.59419E-001	4.01650E-004	0.00000E+000	3.45186E-004	2.40040E-001	8.59693E-001	3.57640E+000	9	...........
	97	1.30667	8.63709E-001	4.00429E-004	0.00000E+000	3.45855E-004	2.40040E-001	8.64006E-001	3.57640E+000	9	...........
	98	1.32	8.68074E-001	4.00469E-004	0.00000E+000	3.47636E-004	2.40040E-001	8.68391E-001	3.57640E+000	9	...........
	99	1.33333	8.72435E-001	4.01209E-004	0.00000E+000	3.50028E-004	2.40040E-001	8.72746E-001	3.57640E+000	9	...........
	100	1.34667	8.76594E-001	4.01124E-004	0.00000E+000	3.51623E-004	2.40040E-001	8.76889E-001	3.57640E+000	9	...........
	101	1.36	8.80801E-001	4.00414E-004	0.00000E+000	3.52685E-004	2.40040E-001	8.81108E-001	3.57640E+000	9	...........
	102	1.37333	8.85014E-001	4.01444E-004	0.00000E+000	3.55283E-004	2.40040E-001	8.85321E-001	3.57640E+000	9	...........
	103	1.38667	8.89214E-001	3.99868E-004	0.00000E+000	3.55568E-004	2.40040E-001	8.89512E-001	3.57640E+000	9	...........
	104	1.4	8.93419E-001	4.02369E-004	0.00000E+000	3.59484E-004	2.40040E-001	8.93703E-001	3.57640E+000	9	...........
	105	1.41333	8.97547E-001	4.01521E-004	0.00000E+000	3.60384E-004	2.40040E-001	8.97867E-001	3.57640E+000	9	...........
	106	1.42667	9.01612E-001	4.00910E-004	0.00000E+000	3.61465E-004	2.40040E-001	9.01937E-001	3.57640E+000	9	...........
	107	1.44	9.05642E-001	4.00708E-004	0.00000E+000	3.62899E-004	2.40040E-001	9.05972E-001	3.57640E+000	9	...........
	108	1.45333	9.09711E-001	3.99749E-004	0.00000E+000	3.63656E-004	2.40040E-001	9.10027E-001	3.57640E+000	9	...........
	109	1.46667	9.13700E-001	4.00363E-004	0.00000E+000	3.65811E-004	2.40040E-001	9.14012E-001	3.57640E+000	9	...........
	110	1.48	9.17651E-001	4.01205E-004	0.00000E+000	3.68166E-004	2.40040E-001	9.17979E-001	3.57640E+000	9	...........
	111	1.49333	9.21670E-001	4.01252E-004	0.00000E+000	3.69822E-004	2.40040E-001	9.21973E-001	3.57640E+000	9	...........
	112	1.50667	9.25682E-001	4.03145E-004	0.00000E+000	3.73185E-004	2.40040E-001	9.25967E-001	3.57640E+000	9	...........
	113	1.52	9.29581E-001	4.01749E-004	0.00000E+000	3.73459E-004	2.40040E-001	9.29877E-001	3.57640E+000	9	...........
	114	1.53333	9.33376E-001	3.99956E-004	0.00000E+000	3.73310E-004	2.40040E-001	9.33693E-001	3.57640E+000	9	...........
	115	1.54667	9.37214E-001	4.01785E-004	0.00000E+000	3.76558E-004	2.40040E-001	9.37534E-001	3.57640E+000	9	...........
	116	1.56	9.41013E-001	4.00188E-004	0.00000E+000	3.76582E-004	2.40040E-001	9.41319E-001	3.57640E+000	9	...........
	117	1.57333	9.44702E-001	4.01597E-004	0.00000E+000	3.79390E-004	2.40040E-001	9.45025E-001	3.57640E+000	9	...........
	118	1.58667	9.48391E-001	4.00640E-004	0.00000E+000	3.79963E-004	2.40040E-001	9.48684E-001	3.57640E+000	9	...........
	119	1.6	9.52048E-001	4.00593E-004	0.00000E+000	3.81384E-004	2.40040E-001	9.52374E-001	3.57640E+000	9	...........
	120	1.61333	9.55712E-001	4.01219E-004	0.00000E+000	3.83450E-004	2.40040E-001	9.56033E-001	3.57640E+000	9	...........
	121	1.62667	9.59309E-001	4.01916E-004	0.00000E+000	3.85561E-004	2.40040E-001	9.59646E-001	3.57640E+000	9	...........
	122	1.64	9.62827E-001	4.01736E-004	0.00000E+000	3.86802E-004	2.40040E-001	9.63184E-001	3.57640E+000	9	...........
	123	1.65333	9.66382E-001	4.01469E-004	0.00000E+000	3.87973E-004	2.40040E-001	9.66734E-001	3.57640E+000	9	...........
	124	1.66667	9.69912E-001	4.01071E-004	0.00000E+000	3.89004E-004	2.40040E-001	9.70285E-001	3.57640E+000	9	...........
	125	1.68	9.73441E-001	3.99487E-004	0.00000E+000	3.88878E-004	2.40040E-001	9.73773E-001	3.57640E+000	9	...........
	126	1.69333	9.76923E-001	4.01932E-004	0.00000E+000	3.92656E-004	2.40040E-001	9.77273E-001	3.57640E+000	9	...........
	127	1.70667	9.80307E-001	4.00273E-004	0.00000E+000	3.92391E-004	2.40040E-001	9.80638E-001	3.57640E+000	9	...........
	128	1.72	9.83700E-001	4.00648E-004	0.00000E+000	3.94118E-004	2.40040E-001	9.84037E-001	3.57640E+000	9	...........
	129	1.73333	9.87037E-001	4.01363E-004	0.00000E+000	3.96160E-004	2.40040E-001	9.87381E-001	3.57640E+000	9	...........
	130	1.74667	9.90294E-001	4.00666E-004	0.00000E+000	3.96777E-004	2.40040E-001	9.90626E-001	3.57640E+000	9	...........
	131	1.76	9.93586E-001	4.01309E-004	0.00000E+000	3.98735E-004	2.40040E-001	9.93914E-001	3.57640E+000	9	...........
	132	1.77333	9.96882E-001	4.01137E-004	0.00000E+000	3.99886E-004	2.40040E-001	9.97192E-001	3.57640E+000	9	...........
	133	1.78167	9.99446E-001	4.01244E-004	0.00000E+000	4.01022E-004	2.40040E-001	9.99777E-001	3.57640E+000	9	...........
STARTTIMEOFFSET	QUANT	539.1616	Start Time Offset (s)
