EXPLAIN
TAG	PWR800_CHARGE
TITLE	LABEL	PWR Cyclic Charge Discharge (Cell) - Charge Step	Test &Identifier
DATE	LABEL	12-7-2017	Date
TIME	LABEL	15:15:50	Time
NOTES	NOTES	3	&Notes...
	supercap test cell
	0.4mg
	6M KOH
PSTAT	PSTAT	IFC5000-01520	Potentiostat
CAPACITY	QUANT	1.00000E-003	Capacity (A-hr)
CELLTYPE	SELECTOR	1	&Cell Type
WORKINGCONNECTION	SELECTOR	0	&Working Lead
MAXCHARGETIME	VARIABLEANDUNITS	1.00000E+002	s	1.00000E+002	second(s)	Max &Charge Time
CHARGECURRENT	QUANT	4.00000E-004	&Charge Current (A) 
VOLTAGEFINISH	TWOPARAM	F	1.00000E-003	3.60000E+003	&Voltage Finish	 I (A) < 	Max Time(s)
SAMPLETIME	QUANT	1.00000E-002	Sa&mple Period (s)
CHARGESTOPAT1	MULTIPARAM	4	1.00000E+000	Charge Stop At &1	Voltage > Limit	V
CHARGESTOPAT2	MULTIPARAM	0	0.00000E+000	Charge Stop At &2	None	N/A
AESBHCSELECTOR	TOGGLE	F	Save Both Half Cells
IRCOMP	TOGGLE	F	IR &Measure
EOC	QUANT	0	Open Circuit (V)
SEQUENCER	TOGGLE	TRUE	Run as Sequence
PSTATMODEL	IQUANT	53	Pstat Model
PSTATSECTION	LABEL	IFC5000-01520	Pstat Section
PSTATSERIALNO	LABEL	01520	Pstat Serial Number
CTRLMODE	IQUANT	0	Control Mode
ELECTROMETER	IQUANT	1	RE=0 or CS=1
IESTAB	IQUANT	0	I/E Stability
CASPEED	IQUANT	4	Control Amp Speed
CONVENTION	IQUANT	1	Current Convention
ICHRANGE	IQUANT	2	Ich Range
ICHRANGEMODE	TOGGLE	T	Ich Auto Range
ICHOFFSETENABLE	TOGGLE	F	Ich Offset Enable
ICHOFFSET	QUANT	0	Ich Offset (V)
ICHFILTER	IQUANT	1	Ich Filter
VCHRANGE	IQUANT	2	Vch Range
VCHRANGEMODE	TOGGLE	T	Vch Auto Range
VCHOFFSETENABLE	TOGGLE	F	Vch Offset Enable
VCHOFFSET	QUANT	0	Vch Offset (V)
VCHFILTER	IQUANT	1	Vch Filter
IERANGELOWERLIMIT	IQUANT	9	I/E Range Lower Limit
IERANGEMODE	TOGGLE	F	I/E AutoRange
IERANGE	IQUANT	9	I/E Range
ACHSELECT	IQUANT	1	Ach Select
ACHRANGE	IQUANT	2	Ach Range
ACHOFFSETENABLE	TOGGLE	F	Ach Offset Enable
ACHOFFSET	QUANT	0	Ach Offset (V)
ACHFILTER	IQUANT	1	Ach Filter
CABLEID	IQUANT	14	Cable ID
DCCALDATE	LABEL	5-7-2017	DC Calibration Date
ACCALDATE	LABEL	12/3/2015	AC Calibration Date
FRAMEWORKVERSION	QUANT	7.01	Framework Version
INSTRUMENTVERSION	LABEL	4.00	Instrument Version
CURVE	TABLE	107
	Pt	T	Vf	Im	Vu	Pwr	Sig	Ach	Temp	IERange	Over
	#	s	V	A	V	W	V	V	deg C	#	bits
	0	0.013333	3.86045E-001	4.02044E-004	0.00000E+000	1.55207E-004	2.40040E-001	3.86147E-001	3.57780E+000	9	...........
	1	0.026667	3.98768E-001	4.00331E-004	0.00000E+000	1.59639E-004	2.40040E-001	3.98846E-001	3.57780E+000	9	...........
	2	0.04	4.09686E-001	4.00394E-004	0.00000E+000	1.64036E-004	2.40040E-001	4.09768E-001	3.57780E+000	9	...........
	3	0.053333	4.19572E-001	4.01520E-004	0.00000E+000	1.68467E-004	2.40040E-001	4.19659E-001	3.57739E+000	9	...........
	4	0.066667	4.28747E-001	4.02180E-004	0.00000E+000	1.72433E-004	2.40040E-001	4.28835E-001	3.57670E+000	9	...........
	5	0.08	4.37391E-001	4.00905E-004	0.00000E+000	1.75352E-004	2.40040E-001	4.37479E-001	3.57670E+000	9	...........
	6	0.093333	4.45677E-001	4.01291E-004	0.00000E+000	1.78846E-004	2.40040E-001	4.45766E-001	3.57670E+000	9	...........
	7	0.106667	4.53710E-001	4.01185E-004	0.00000E+000	1.82022E-004	2.40040E-001	4.53802E-001	3.57670E+000	9	...........
	8	0.12	4.61616E-001	3.99812E-004	0.00000E+000	1.84560E-004	2.40040E-001	4.61708E-001	3.57670E+000	9	...........
	9	0.133333	4.69228E-001	4.00333E-004	0.00000E+000	1.87848E-004	2.40040E-001	4.69322E-001	3.57670E+000	9	...........
	10	0.146667	4.76717E-001	4.02144E-004	0.00000E+000	1.91709E-004	2.40040E-001	4.76815E-001	3.57670E+000	9	...........
	11	0.16	4.84125E-001	4.02601E-004	0.00000E+000	1.94909E-004	2.40040E-001	4.84220E-001	3.57670E+000	9	...........
	12	0.173333	4.91432E-001	4.00052E-004	0.00000E+000	1.96598E-004	2.40040E-001	4.91529E-001	3.57670E+000	9	...........
	13	0.186667	4.98576E-001	3.99533E-004	0.00000E+000	1.99198E-004	2.40040E-001	4.98676E-001	3.57670E+000	9	...........
	14	0.2	5.05663E-001	4.01087E-004	0.00000E+000	2.02815E-004	2.40040E-001	5.05763E-001	3.57670E+000	9	...........
	15	0.213333	5.12607E-001	4.01043E-004	0.00000E+000	2.05578E-004	2.40040E-001	5.12715E-001	3.57670E+000	9	...........
	16	0.226667	5.19570E-001	4.01598E-004	0.00000E+000	2.08659E-004	2.40040E-001	5.19675E-001	3.57670E+000	9	...........
	17	0.24	5.26492E-001	4.01415E-004	0.00000E+000	2.11342E-004	2.40040E-001	5.26596E-001	3.57670E+000	9	...........
	18	0.253333	5.33174E-001	4.00479E-004	0.00000E+000	2.13525E-004	2.40040E-001	5.33285E-001	3.57670E+000	9	...........
	19	0.266667	5.39783E-001	4.00832E-004	0.00000E+000	2.16363E-004	2.40040E-001	5.39991E-001	3.57670E+000	9	...........
	20	0.28	5.46458E-001	4.00163E-004	0.00000E+000	2.18672E-004	2.40040E-001	5.46667E-001	3.57670E+000	9	...........
	21	0.293333	5.53051E-001	4.01415E-004	0.00000E+000	2.22003E-004	2.40040E-001	5.53261E-001	3.57670E+000	9	...........
	22	0.306667	5.59635E-001	4.00759E-004	0.00000E+000	2.24278E-004	2.40040E-001	5.59857E-001	3.57670E+000	9	...........
	23	0.32	5.66172E-001	4.01564E-004	0.00000E+000	2.27354E-004	2.40040E-001	5.66399E-001	3.57670E+000	9	...........
	24	0.333333	5.72678E-001	4.01328E-004	0.00000E+000	2.29832E-004	2.40040E-001	5.72898E-001	3.57670E+000	9	...........
	25	0.346667	5.79084E-001	4.01064E-004	0.00000E+000	2.32250E-004	2.40040E-001	5.79322E-001	3.57670E+000	9	...........
	26	0.36	5.85568E-001	4.01621E-004	0.00000E+000	2.35176E-004	2.40040E-001	5.85805E-001	3.57670E+000	9	...........
	27	0.373333	5.91988E-001	3.99480E-004	0.00000E+000	2.36487E-004	2.40040E-001	5.92208E-001	3.57670E+000	9	...........
	28	0.386667	5.98396E-001	4.02561E-004	0.00000E+000	2.40891E-004	2.40040E-001	5.98620E-001	3.57670E+000	9	...........
	29	0.4	6.04706E-001	4.01666E-004	0.00000E+000	2.42890E-004	2.40040E-001	6.04978E-001	3.57670E+000	9	...........
	30	0.413333	6.11020E-001	4.01121E-004	0.00000E+000	2.45093E-004	2.40040E-001	6.11274E-001	3.57670E+000	9	...........
	31	0.426667	6.17396E-001	4.02191E-004	0.00000E+000	2.48311E-004	2.40040E-001	6.17599E-001	3.57670E+000	9	...........
	32	0.44	6.23658E-001	3.99976E-004	0.00000E+000	2.49448E-004	2.40040E-001	6.23879E-001	3.57670E+000	9	...........
	33	0.453333	6.29905E-001	4.00381E-004	0.00000E+000	2.52202E-004	2.40040E-001	6.30147E-001	3.57670E+000	9	...........
	34	0.466667	6.36165E-001	4.02004E-004	0.00000E+000	2.55741E-004	2.40040E-001	6.36416E-001	3.57670E+000	9	...........
	35	0.48	6.42331E-001	3.99980E-004	0.00000E+000	2.56920E-004	2.40040E-001	6.42554E-001	3.57670E+000	9	...........
	36	0.493333	6.48414E-001	4.01595E-004	0.00000E+000	2.60400E-004	2.40040E-001	6.48661E-001	3.57670E+000	9	...........
	37	0.506667	6.54550E-001	4.00913E-004	0.00000E+000	2.62417E-004	2.40040E-001	6.54793E-001	3.57670E+000	9	...........
	38	0.52	6.60602E-001	4.01655E-004	0.00000E+000	2.65334E-004	2.40040E-001	6.60832E-001	3.57670E+000	9	...........
	39	0.533333	6.66693E-001	4.01205E-004	0.00000E+000	2.67481E-004	2.40040E-001	6.66970E-001	3.57670E+000	9	...........
	40	0.546667	6.72719E-001	4.01869E-004	0.00000E+000	2.70345E-004	2.40040E-001	6.72968E-001	3.57670E+000	9	...........
	41	0.56	6.78715E-001	3.98747E-004	0.00000E+000	2.70635E-004	2.40040E-001	6.79003E-001	3.57670E+000	9	...........
	42	0.573333	6.84751E-001	4.01572E-004	0.00000E+000	2.74977E-004	2.40040E-001	6.85019E-001	3.57670E+000	9	...........
	43	0.586667	6.90712E-001	4.00572E-004	0.00000E+000	2.76680E-004	2.40040E-001	6.90999E-001	3.57670E+000	9	...........
	44	0.6	6.96656E-001	4.02138E-004	0.00000E+000	2.80152E-004	2.40040E-001	6.96944E-001	3.57670E+000	9	...........
	45	0.613333	7.02570E-001	4.01866E-004	0.00000E+000	2.82339E-004	2.40040E-001	7.02829E-001	3.57670E+000	9	...........
	46	0.626667	7.08436E-001	4.01737E-004	0.00000E+000	2.84605E-004	2.40040E-001	7.08708E-001	3.57670E+000	9	...........
	47	0.64	7.14278E-001	4.01451E-004	0.00000E+000	2.86748E-004	2.40040E-001	7.14543E-001	3.57670E+000	9	...........
	48	0.653333	7.20199E-001	4.00626E-004	0.00000E+000	2.88531E-004	2.40040E-001	7.20443E-001	3.57670E+000	9	...........
	49	0.666667	7.26012E-001	4.00335E-004	0.00000E+000	2.90648E-004	2.40040E-001	7.26261E-001	3.57670E+000	9	...........
	50	0.68	7.31801E-001	4.01097E-004	0.00000E+000	2.93523E-004	2.40040E-001	7.32044E-001	3.57670E+000	9	...........
	51	0.693333	7.37504E-001	4.00729E-004	0.00000E+000	2.95539E-004	2.40040E-001	7.37763E-001	3.57670E+000	9	...........
	52	0.706667	7.43254E-001	4.02689E-004	0.00000E+000	2.99300E-004	2.40040E-001	7.43543E-001	3.57670E+000	9	...........
	53	0.72	7.48937E-001	4.00549E-004	0.00000E+000	2.99986E-004	2.40040E-001	7.49188E-001	3.57670E+000	9	...........
	54	0.733333	7.54670E-001	4.01091E-004	0.00000E+000	3.02691E-004	2.40040E-001	7.54911E-001	3.57670E+000	9	...........
	55	0.746667	7.60327E-001	4.00358E-004	0.00000E+000	3.04404E-004	2.40040E-001	7.60599E-001	3.57670E+000	9	...........
	56	0.76	7.65926E-001	4.01622E-004	0.00000E+000	3.07613E-004	2.40040E-001	7.66196E-001	3.57670E+000	9	...........
	57	0.773333	7.71549E-001	4.01545E-004	0.00000E+000	3.09812E-004	2.40040E-001	7.71817E-001	3.57670E+000	9	...........
	58	0.786667	7.77114E-001	4.00507E-004	0.00000E+000	3.11240E-004	2.40040E-001	7.77369E-001	3.57670E+000	9	...........
	59	0.8	7.82607E-001	4.01041E-004	0.00000E+000	3.13857E-004	2.40040E-001	7.82875E-001	3.57670E+000	9	...........
	60	0.813333	7.88140E-001	4.00785E-004	0.00000E+000	3.15874E-004	2.40040E-001	7.88426E-001	3.57670E+000	9	...........
	61	0.826667	7.93607E-001	4.00225E-004	0.00000E+000	3.17621E-004	2.40040E-001	7.93871E-001	3.57670E+000	9	...........
	62	0.84	7.99022E-001	4.02032E-004	0.00000E+000	3.21232E-004	2.40040E-001	7.99317E-001	3.57670E+000	9	...........
	63	0.853333	8.04417E-001	4.00130E-004	0.00000E+000	3.21872E-004	2.40040E-001	8.04722E-001	3.57670E+000	9	...........
	64	0.866667	8.09708E-001	4.01687E-004	0.00000E+000	3.25249E-004	2.40040E-001	8.10010E-001	3.57670E+000	9	...........
	65	0.88	8.15029E-001	3.99156E-004	0.00000E+000	3.25324E-004	2.40040E-001	8.15335E-001	3.57670E+000	9	...........
	66	0.893333	8.20310E-001	4.02229E-004	0.00000E+000	3.29952E-004	2.40040E-001	8.20630E-001	3.57670E+000	9	...........
	67	0.906667	8.25542E-001	4.00630E-004	0.00000E+000	3.30737E-004	2.40040E-001	8.25851E-001	3.57670E+000	9	...........
	68	0.92	8.30708E-001	4.02047E-004	0.00000E+000	3.33984E-004	2.40040E-001	8.31037E-001	3.57670E+000	9	...........
	69	0.933333	8.35893E-001	4.00082E-004	0.00000E+000	3.34426E-004	2.40040E-001	8.36217E-001	3.57670E+000	9	...........
	70	0.946667	8.41009E-001	4.00838E-004	0.00000E+000	3.37108E-004	2.40040E-001	8.41349E-001	3.57670E+000	9	...........
	71	0.96	8.46112E-001	4.00633E-004	0.00000E+000	3.38981E-004	2.40040E-001	8.46430E-001	3.57670E+000	9	...........
	72	0.97333	8.51088E-001	4.01299E-004	0.00000E+000	3.41541E-004	2.40040E-001	8.51424E-001	3.57670E+000	9	...........
	73	0.98667	8.56140E-001	4.02923E-004	0.00000E+000	3.44958E-004	2.40040E-001	8.56467E-001	3.57670E+000	9	...........
	74	1	8.61207E-001	4.01095E-004	0.00000E+000	3.45426E-004	2.40040E-001	8.61524E-001	3.57670E+000	9	...........
	75	1.01333	8.66095E-001	4.01115E-004	0.00000E+000	3.47404E-004	2.40040E-001	8.66426E-001	3.57670E+000	9	...........
	76	1.02667	8.70975E-001	4.00153E-004	0.00000E+000	3.48523E-004	2.40040E-001	8.71262E-001	3.57670E+000	9	...........
	77	1.04	8.75824E-001	4.01372E-004	0.00000E+000	3.51531E-004	2.40040E-001	8.76112E-001	3.57670E+000	9	...........
	78	1.05333	8.80684E-001	4.00347E-004	0.00000E+000	3.52579E-004	2.40040E-001	8.80942E-001	3.57678E+000	9	...........
	79	1.06667	8.85536E-001	4.00610E-004	0.00000E+000	3.54754E-004	2.40040E-001	8.85779E-001	3.57690E+000	9	...........
	80	1.08	8.90264E-001	4.00835E-004	0.00000E+000	3.56849E-004	2.40040E-001	8.90502E-001	3.57690E+000	9	...........
	81	1.09333	8.94911E-001	4.02443E-004	0.00000E+000	3.60151E-004	2.40040E-001	8.95184E-001	3.57690E+000	9	...........
	82	1.10667	8.99579E-001	4.02682E-004	0.00000E+000	3.62244E-004	2.40040E-001	8.99854E-001	3.57690E+000	9	...........
	83	1.12	9.04196E-001	4.00838E-004	0.00000E+000	3.62436E-004	2.40040E-001	9.04495E-001	3.57690E+000	9	...........
	84	1.13333	9.08689E-001	4.01565E-004	0.00000E+000	3.64897E-004	2.40040E-001	9.08980E-001	3.57690E+000	9	...........
	85	1.14667	9.13209E-001	4.01201E-004	0.00000E+000	3.66381E-004	2.40040E-001	9.13532E-001	3.57690E+000	9	...........
	86	1.16	9.17704E-001	4.02081E-004	0.00000E+000	3.68991E-004	2.40040E-001	9.18018E-001	3.57690E+000	9	...........
	87	1.17333	9.22167E-001	4.01190E-004	0.00000E+000	3.69964E-004	2.40040E-001	9.22435E-001	3.57690E+000	9	...........
	88	1.18667	9.26566E-001	4.01528E-004	0.00000E+000	3.72043E-004	2.40040E-001	9.26863E-001	3.57690E+000	9	...........
	89	1.2	9.30938E-001	4.01413E-004	0.00000E+000	3.73690E-004	2.40040E-001	9.31230E-001	3.57690E+000	9	...........
	90	1.21333	9.35185E-001	4.01467E-004	0.00000E+000	3.75446E-004	2.40040E-001	9.35528E-001	3.57690E+000	9	...........
	91	1.22667	9.39504E-001	4.01956E-004	0.00000E+000	3.77639E-004	2.40040E-001	9.39844E-001	3.57690E+000	9	...........
	92	1.24	9.43740E-001	3.99798E-004	0.00000E+000	3.77305E-004	2.40040E-001	9.44080E-001	3.57690E+000	9	...........
	93	1.25333	9.47939E-001	4.02031E-004	0.00000E+000	3.81101E-004	2.40040E-001	9.48276E-001	3.57690E+000	9	...........
	94	1.26667	9.52058E-001	4.00680E-004	0.00000E+000	3.81471E-004	2.40040E-001	9.52413E-001	3.57690E+000	9	...........
	95	1.28	9.56252E-001	4.00737E-004	0.00000E+000	3.83205E-004	2.40040E-001	9.56571E-001	3.57690E+000	9	...........
	96	1.29333	9.60308E-001	4.00620E-004	0.00000E+000	3.84718E-004	2.40040E-001	9.60661E-001	3.57690E+000	9	...........
	97	1.30667	9.64335E-001	4.00923E-004	0.00000E+000	3.86624E-004	2.40040E-001	9.64661E-001	3.57690E+000	9	...........
	98	1.32	9.68327E-001	4.01804E-004	0.00000E+000	3.89077E-004	2.40040E-001	9.68683E-001	3.57690E+000	9	...........
	99	1.33333	9.72296E-001	4.00927E-004	0.00000E+000	3.89820E-004	2.40040E-001	9.72641E-001	3.57690E+000	9	...........
	100	1.34667	9.76247E-001	4.00714E-004	0.00000E+000	3.91196E-004	2.40040E-001	9.76579E-001	3.57690E+000	9	...........
	101	1.36	9.80117E-001	4.01520E-004	0.00000E+000	3.93537E-004	2.40040E-001	9.80425E-001	3.57690E+000	9	...........
	102	1.37333	9.83948E-001	4.00182E-004	0.00000E+000	3.93758E-004	2.40040E-001	9.84285E-001	3.57690E+000	9	...........
	103	1.38667	9.87754E-001	4.00779E-004	0.00000E+000	3.95871E-004	2.40040E-001	9.88070E-001	3.57690E+000	9	...........
	104	1.4	9.91480E-001	4.01133E-004	0.00000E+000	3.97715E-004	2.40040E-001	9.91782E-001	3.57690E+000	9	...........
	105	1.41333	9.95150E-001	4.01929E-004	0.00000E+000	3.99979E-004	2.40040E-001	9.95456E-001	3.57690E+000	9	...........
	106	1.42667	9.98804E-001	4.01153E-004	0.00000E+000	4.00674E-004	2.40040E-001	9.99127E-001	3.57690E+000	9	...........
STARTTIMEOFFSET	QUANT	2711.998	Start Time Offset (s)
