EXPLAIN
TAG	PWR800_CHARGE
TITLE	LABEL	PWR Cyclic Charge Discharge (Cell) - Charge Step	Test &Identifier
DATE	LABEL	12-7-2017	Date
TIME	LABEL	14:35:39	Time
NOTES	NOTES	3	&Notes...
	supercap test cell
	0.4mg
	6M KOH
PSTAT	PSTAT	IFC5000-01520	Potentiostat
CAPACITY	QUANT	1.00000E-003	Capacity (A-hr)
CELLTYPE	SELECTOR	1	&Cell Type
WORKINGCONNECTION	SELECTOR	0	&Working Lead
MAXCHARGETIME	VARIABLEANDUNITS	1.00000E+002	s	1.00000E+002	second(s)	Max &Charge Time
CHARGECURRENT	QUANT	4.00000E-004	&Charge Current (A) 
VOLTAGEFINISH	TWOPARAM	F	1.00000E-003	3.60000E+003	&Voltage Finish	 I (A) < 	Max Time(s)
SAMPLETIME	QUANT	1.00000E-002	Sa&mple Period (s)
CHARGESTOPAT1	MULTIPARAM	4	1.00000E+000	Charge Stop At &1	Voltage > Limit	V
CHARGESTOPAT2	MULTIPARAM	0	0.00000E+000	Charge Stop At &2	None	N/A
AESBHCSELECTOR	TOGGLE	F	Save Both Half Cells
IRCOMP	TOGGLE	F	IR &Measure
EOC	QUANT	0	Open Circuit (V)
SEQUENCER	TOGGLE	TRUE	Run as Sequence
PSTATMODEL	IQUANT	53	Pstat Model
PSTATSECTION	LABEL	IFC5000-01520	Pstat Section
PSTATSERIALNO	LABEL	01520	Pstat Serial Number
CTRLMODE	IQUANT	0	Control Mode
ELECTROMETER	IQUANT	1	RE=0 or CS=1
IESTAB	IQUANT	0	I/E Stability
CASPEED	IQUANT	4	Control Amp Speed
CONVENTION	IQUANT	1	Current Convention
ICHRANGE	IQUANT	2	Ich Range
ICHRANGEMODE	TOGGLE	T	Ich Auto Range
ICHOFFSETENABLE	TOGGLE	F	Ich Offset Enable
ICHOFFSET	QUANT	0	Ich Offset (V)
ICHFILTER	IQUANT	1	Ich Filter
VCHRANGE	IQUANT	2	Vch Range
VCHRANGEMODE	TOGGLE	T	Vch Auto Range
VCHOFFSETENABLE	TOGGLE	F	Vch Offset Enable
VCHOFFSET	QUANT	0	Vch Offset (V)
VCHFILTER	IQUANT	1	Vch Filter
IERANGELOWERLIMIT	IQUANT	9	I/E Range Lower Limit
IERANGEMODE	TOGGLE	F	I/E AutoRange
IERANGE	IQUANT	9	I/E Range
ACHSELECT	IQUANT	1	Ach Select
ACHRANGE	IQUANT	2	Ach Range
ACHOFFSETENABLE	TOGGLE	F	Ach Offset Enable
ACHOFFSET	QUANT	0	Ach Offset (V)
ACHFILTER	IQUANT	1	Ach Filter
CABLEID	IQUANT	14	Cable ID
DCCALDATE	LABEL	5-7-2017	DC Calibration Date
ACCALDATE	LABEL	12/3/2015	AC Calibration Date
FRAMEWORKVERSION	QUANT	7.01	Framework Version
INSTRUMENTVERSION	LABEL	4.00	Instrument Version
CURVE	TABLE	128
	Pt	T	Vf	Im	Vu	Pwr	Sig	Ach	Temp	IERange	Over
	#	s	V	A	V	W	V	V	deg C	#	bits
	0	0.013333	3.47364E-001	3.99055E-004	0.00000E+000	1.38617E-004	2.40040E-001	3.47450E-001	3.57630E+000	9	...........
	1	0.026667	3.58072E-001	4.01107E-004	0.00000E+000	1.43625E-004	2.40040E-001	3.58143E-001	3.57630E+000	9	...........
	2	0.04	3.67312E-001	4.01528E-004	0.00000E+000	1.47486E-004	2.40040E-001	3.67385E-001	3.57630E+000	9	...........
	3	0.053333	3.75792E-001	4.02110E-004	0.00000E+000	1.51110E-004	2.40040E-001	3.75864E-001	3.57630E+000	9	...........
	4	0.066667	3.83691E-001	4.00736E-004	0.00000E+000	1.53758E-004	2.40040E-001	3.83765E-001	3.57630E+000	9	...........
	5	0.08	3.91271E-001	3.99136E-004	0.00000E+000	1.56170E-004	2.40040E-001	3.91352E-001	3.57630E+000	9	...........
	6	0.093333	3.98579E-001	4.00569E-004	0.00000E+000	1.59659E-004	2.40040E-001	3.98654E-001	3.57630E+000	9	...........
	7	0.106667	4.05628E-001	4.00904E-004	0.00000E+000	1.62618E-004	2.40040E-001	4.05703E-001	3.57630E+000	9	...........
	8	0.12	4.12570E-001	4.02087E-004	0.00000E+000	1.65889E-004	2.40040E-001	4.12651E-001	3.57630E+000	9	...........
	9	0.133333	4.19312E-001	4.02099E-004	0.00000E+000	1.68605E-004	2.40040E-001	4.19398E-001	3.57630E+000	9	...........
	10	0.146667	4.25874E-001	4.00101E-004	0.00000E+000	1.70393E-004	2.40040E-001	4.25957E-001	3.57630E+000	9	...........
	11	0.16	4.32330E-001	4.02187E-004	0.00000E+000	1.73878E-004	2.40040E-001	4.32416E-001	3.57630E+000	9	...........
	12	0.173333	4.38747E-001	4.00648E-004	0.00000E+000	1.75783E-004	2.40040E-001	4.38838E-001	3.57630E+000	9	...........
	13	0.186667	4.45120E-001	4.00901E-004	0.00000E+000	1.78449E-004	2.40040E-001	4.45212E-001	3.57630E+000	9	...........
	14	0.2	4.51378E-001	3.99995E-004	0.00000E+000	1.80549E-004	2.40040E-001	4.51470E-001	3.57630E+000	9	...........
	15	0.213333	4.57560E-001	4.02044E-004	0.00000E+000	1.83960E-004	2.40040E-001	4.57652E-001	3.57630E+000	9	...........
	16	0.226667	4.63725E-001	4.01125E-004	0.00000E+000	1.86012E-004	2.40040E-001	4.63817E-001	3.57630E+000	9	...........
	17	0.24	4.69850E-001	4.01387E-004	0.00000E+000	1.88591E-004	2.40040E-001	4.69946E-001	3.57630E+000	9	...........
	18	0.253333	4.75822E-001	4.00690E-004	0.00000E+000	1.90657E-004	2.40040E-001	4.75919E-001	3.57630E+000	9	...........
	19	0.266667	4.81823E-001	4.01049E-004	0.00000E+000	1.93235E-004	2.40040E-001	4.81921E-001	3.57630E+000	9	...........
	20	0.28	4.87717E-001	4.00367E-004	0.00000E+000	1.95265E-004	2.40040E-001	4.87809E-001	3.57630E+000	9	...........
	21	0.293333	4.93572E-001	4.00372E-004	0.00000E+000	1.97612E-004	2.40040E-001	4.93674E-001	3.57630E+000	9	...........
	22	0.306667	4.99496E-001	3.99790E-004	0.00000E+000	1.99693E-004	2.40040E-001	4.99601E-001	3.57630E+000	9	...........
	23	0.32	5.05319E-001	4.00196E-004	0.00000E+000	2.02226E-004	2.40040E-001	5.05419E-001	3.57630E+000	9	...........
	24	0.333333	5.11093E-001	4.00780E-004	0.00000E+000	2.04836E-004	2.40040E-001	5.11198E-001	3.57630E+000	9	...........
	25	0.346667	5.16843E-001	4.02000E-004	0.00000E+000	2.07771E-004	2.40040E-001	5.16942E-001	3.57630E+000	9	...........
	26	0.36	5.22520E-001	4.01670E-004	0.00000E+000	2.09881E-004	2.40040E-001	5.22622E-001	3.57630E+000	9	...........
	27	0.373333	5.28223E-001	4.00055E-004	0.00000E+000	2.11318E-004	2.40040E-001	5.28326E-001	3.57630E+000	9	...........
	28	0.386667	5.33687E-001	4.01180E-004	0.00000E+000	2.14105E-004	2.40040E-001	5.33803E-001	3.57630E+000	9	...........
	29	0.4	5.39258E-001	4.01078E-004	0.00000E+000	2.16285E-004	2.40040E-001	5.39470E-001	3.57630E+000	9	...........
	30	0.413333	5.44930E-001	4.00551E-004	0.00000E+000	2.18273E-004	2.40040E-001	5.45152E-001	3.57630E+000	9	...........
	31	0.426667	5.50545E-001	4.00339E-004	0.00000E+000	2.20404E-004	2.40040E-001	5.50767E-001	3.57630E+000	9	...........
	32	0.44	5.56139E-001	3.99839E-004	0.00000E+000	2.22366E-004	2.40040E-001	5.56375E-001	3.57630E+000	9	...........
	33	0.453333	5.61697E-001	4.00578E-004	0.00000E+000	2.25003E-004	2.40040E-001	5.61929E-001	3.57630E+000	9	...........
	34	0.466667	5.67314E-001	4.02197E-004	0.00000E+000	2.28172E-004	2.40040E-001	5.67556E-001	3.57630E+000	9	...........
	35	0.48	5.72837E-001	4.01804E-004	0.00000E+000	2.30168E-004	2.40040E-001	5.73091E-001	3.57630E+000	9	...........
	36	0.493333	5.78290E-001	4.02058E-004	0.00000E+000	2.32506E-004	2.40040E-001	5.78556E-001	3.57630E+000	9	...........
	37	0.506667	5.83747E-001	4.01713E-004	0.00000E+000	2.34499E-004	2.40040E-001	5.84016E-001	3.57630E+000	9	...........
	38	0.52	5.89204E-001	4.00991E-004	0.00000E+000	2.36265E-004	2.40040E-001	5.89470E-001	3.57630E+000	9	...........
	39	0.533333	5.94729E-001	4.01326E-004	0.00000E+000	2.38680E-004	2.40040E-001	5.94975E-001	3.57630E+000	9	...........
	40	0.546667	6.00158E-001	4.01463E-004	0.00000E+000	2.40941E-004	2.40040E-001	6.00443E-001	3.57630E+000	9	...........
	41	0.56	6.05634E-001	4.00558E-004	0.00000E+000	2.42592E-004	2.40040E-001	6.05935E-001	3.57630E+000	9	...........
	42	0.573333	6.11031E-001	4.01849E-004	0.00000E+000	2.45542E-004	2.40040E-001	6.11328E-001	3.57630E+000	9	...........
	43	0.586667	6.16526E-001	3.99863E-004	0.00000E+000	2.46525E-004	2.40040E-001	6.16776E-001	3.57630E+000	9	...........
	44	0.6	6.21930E-001	4.00599E-004	0.00000E+000	2.49145E-004	2.40040E-001	6.22156E-001	3.57630E+000	9	...........
	45	0.613333	6.27257E-001	4.00149E-004	0.00000E+000	2.50996E-004	2.40040E-001	6.27496E-001	3.57630E+000	9	...........
	46	0.626667	6.32588E-001	4.01856E-004	0.00000E+000	2.54209E-004	2.40040E-001	6.32809E-001	3.57630E+000	9	...........
	47	0.64	6.37915E-001	4.00355E-004	0.00000E+000	2.55393E-004	2.40040E-001	6.38152E-001	3.57630E+000	9	...........
	48	0.653333	6.43313E-001	4.00568E-004	0.00000E+000	2.57690E-004	2.40040E-001	6.43521E-001	3.57630E+000	9	...........
	49	0.666667	6.48704E-001	4.00171E-004	0.00000E+000	2.59592E-004	2.40040E-001	6.48898E-001	3.57630E+000	9	...........
	50	0.68	6.54057E-001	4.00685E-004	0.00000E+000	2.62071E-004	2.40040E-001	6.54272E-001	3.57630E+000	9	...........
	51	0.693333	6.59263E-001	4.00370E-004	0.00000E+000	2.63949E-004	2.40040E-001	6.59495E-001	3.57630E+000	9	...........
	52	0.706667	6.64511E-001	4.00544E-004	0.00000E+000	2.66166E-004	2.40040E-001	6.64758E-001	3.57630E+000	9	...........
	53	0.72	6.69825E-001	4.00558E-004	0.00000E+000	2.68304E-004	2.40040E-001	6.70049E-001	3.57630E+000	9	...........
	54	0.733333	6.75136E-001	4.00845E-004	0.00000E+000	2.70625E-004	2.40040E-001	6.75367E-001	3.57630E+000	9	...........
	55	0.746667	6.80408E-001	4.01127E-004	0.00000E+000	2.72930E-004	2.40040E-001	6.80597E-001	3.57630E+000	9	...........
	56	0.76	6.85589E-001	4.01656E-004	0.00000E+000	2.75370E-004	2.40040E-001	6.85799E-001	3.57630E+000	9	...........
	57	0.773333	6.90833E-001	3.99834E-004	0.00000E+000	2.76219E-004	2.40040E-001	6.91070E-001	3.57630E+000	9	...........
	58	0.786667	6.96045E-001	4.00788E-004	0.00000E+000	2.78966E-004	2.40040E-001	6.96288E-001	3.57630E+000	9	...........
	59	0.8	7.01239E-001	4.00515E-004	0.00000E+000	2.80857E-004	2.40040E-001	7.01450E-001	3.57630E+000	9	...........
	60	0.813333	7.06389E-001	4.01262E-004	0.00000E+000	2.83447E-004	2.40040E-001	7.06610E-001	3.57630E+000	9	...........
	61	0.826667	7.11536E-001	4.00667E-004	0.00000E+000	2.85089E-004	2.40040E-001	7.11745E-001	3.57630E+000	9	...........
	62	0.84	7.16661E-001	4.01565E-004	0.00000E+000	2.87786E-004	2.40040E-001	7.16880E-001	3.57630E+000	9	...........
	63	0.853333	7.21817E-001	4.00713E-004	0.00000E+000	2.89241E-004	2.40040E-001	7.22006E-001	3.57630E+000	9	...........
	64	0.866667	7.26981E-001	4.00094E-004	0.00000E+000	2.90861E-004	2.40040E-001	7.27161E-001	3.57630E+000	9	...........
	65	0.88	7.32040E-001	4.01170E-004	0.00000E+000	2.93672E-004	2.40040E-001	7.32288E-001	3.57630E+000	9	...........
	66	0.893333	7.37110E-001	4.00457E-004	0.00000E+000	2.95181E-004	2.40040E-001	7.37334E-001	3.57630E+000	9	...........
	67	0.906667	7.42181E-001	4.01871E-004	0.00000E+000	2.98261E-004	2.40040E-001	7.42410E-001	3.57630E+000	9	...........
	68	0.92	7.47256E-001	4.00442E-004	0.00000E+000	2.99233E-004	2.40040E-001	7.47470E-001	3.57630E+000	9	...........
	69	0.933333	7.52343E-001	4.01563E-004	0.00000E+000	3.02113E-004	2.40040E-001	7.52593E-001	3.57630E+000	9	...........
	70	0.946667	7.57376E-001	4.00685E-004	0.00000E+000	3.03469E-004	2.40040E-001	7.57587E-001	3.57630E+000	9	...........
	71	0.96	7.62298E-001	3.99969E-004	0.00000E+000	3.04895E-004	2.40040E-001	7.62544E-001	3.57630E+000	9	...........
	72	0.97333	7.67279E-001	4.00451E-004	0.00000E+000	3.07258E-004	2.40040E-001	7.67531E-001	3.57630E+000	9	...........
	73	0.98667	7.72298E-001	4.00531E-004	0.00000E+000	3.09330E-004	2.40040E-001	7.72574E-001	3.57630E+000	9	...........
	74	1	7.77190E-001	4.01767E-004	0.00000E+000	3.12249E-004	2.40040E-001	7.77464E-001	3.57630E+000	9	...........
	75	1.01333	7.82127E-001	4.02059E-004	0.00000E+000	3.14461E-004	2.40040E-001	7.82405E-001	3.57630E+000	9	...........
	76	1.02667	7.87016E-001	3.99532E-004	0.00000E+000	3.14438E-004	2.40040E-001	7.87260E-001	3.57630E+000	9	...........
	77	1.04	7.91850E-001	4.01154E-004	0.00000E+000	3.17654E-004	2.40040E-001	7.92111E-001	3.57630E+000	9	...........
	78	1.05333	7.96721E-001	4.01322E-004	0.00000E+000	3.19742E-004	2.40040E-001	7.96933E-001	3.57630E+000	9	...........
	79	1.06667	8.01508E-001	4.00329E-004	0.00000E+000	3.20867E-004	2.40040E-001	8.01749E-001	3.57630E+000	9	...........
	80	1.08	8.06247E-001	4.00721E-004	0.00000E+000	3.23080E-004	2.40040E-001	8.06492E-001	3.57630E+000	9	...........
	81	1.09333	8.10970E-001	4.01200E-004	0.00000E+000	3.25361E-004	2.40040E-001	8.11246E-001	3.57647E+000	9	...........
	82	1.10667	8.15743E-001	4.01659E-004	0.00000E+000	3.27650E-004	2.40040E-001	8.16045E-001	3.57650E+000	9	...........
	83	1.12	8.20482E-001	4.01187E-004	0.00000E+000	3.29167E-004	2.40040E-001	8.20737E-001	3.57650E+000	9	...........
	84	1.13333	8.25220E-001	4.00273E-004	0.00000E+000	3.30313E-004	2.40040E-001	8.25493E-001	3.57650E+000	9	...........
	85	1.14667	8.29793E-001	4.01582E-004	0.00000E+000	3.33230E-004	2.40040E-001	8.30062E-001	3.57650E+000	9	...........
	86	1.16	8.34396E-001	4.01204E-004	0.00000E+000	3.34763E-004	2.40040E-001	8.34717E-001	3.57650E+000	9	...........
	87	1.17333	8.39045E-001	4.00653E-004	0.00000E+000	3.36166E-004	2.40040E-001	8.39346E-001	3.57650E+000	9	...........
	88	1.18667	8.43677E-001	4.00429E-004	0.00000E+000	3.37833E-004	2.40040E-001	8.43968E-001	3.57650E+000	9	...........
	89	1.2	8.48246E-001	4.01101E-004	0.00000E+000	3.40233E-004	2.40040E-001	8.48554E-001	3.57650E+000	9	...........
	90	1.21333	8.52809E-001	4.00384E-004	0.00000E+000	3.41452E-004	2.40040E-001	8.53112E-001	3.57650E+000	9	...........
	91	1.22667	8.57301E-001	4.00849E-004	0.00000E+000	3.43648E-004	2.40040E-001	8.57626E-001	3.57650E+000	9	...........
	92	1.24	8.61802E-001	4.01974E-004	0.00000E+000	3.46423E-004	2.40040E-001	8.62094E-001	3.57650E+000	9	...........
	93	1.25333	8.66277E-001	4.00605E-004	0.00000E+000	3.47035E-004	2.40040E-001	8.66558E-001	3.57650E+000	9	...........
	94	1.26667	8.70761E-001	4.00583E-004	0.00000E+000	3.48812E-004	2.40040E-001	8.71084E-001	3.57650E+000	9	...........
	95	1.28	8.75116E-001	4.01298E-004	0.00000E+000	3.51183E-004	2.40040E-001	8.75449E-001	3.57650E+000	9	...........
	96	1.29333	8.79454E-001	4.01088E-004	0.00000E+000	3.52738E-004	2.40040E-001	8.79783E-001	3.57650E+000	9	...........
	97	1.30667	8.83756E-001	4.01441E-004	0.00000E+000	3.54776E-004	2.40040E-001	8.84095E-001	3.57650E+000	9	...........
	98	1.32	8.88070E-001	4.00462E-004	0.00000E+000	3.55638E-004	2.40040E-001	8.88421E-001	3.57650E+000	9	...........
	99	1.33333	8.92338E-001	4.01424E-004	0.00000E+000	3.58206E-004	2.40040E-001	8.92648E-001	3.57650E+000	9	...........
	100	1.34667	8.96563E-001	4.01461E-004	0.00000E+000	3.59935E-004	2.40040E-001	8.96915E-001	3.57650E+000	9	...........
	101	1.36	9.00842E-001	4.00926E-004	0.00000E+000	3.61171E-004	2.40040E-001	9.01174E-001	3.57650E+000	9	...........
	102	1.37333	9.05047E-001	4.01314E-004	0.00000E+000	3.63208E-004	2.40040E-001	9.05380E-001	3.57650E+000	9	...........
	103	1.38667	9.09179E-001	4.00295E-004	0.00000E+000	3.63940E-004	2.40040E-001	9.09510E-001	3.57650E+000	9	...........
	104	1.4	9.13283E-001	4.00650E-004	0.00000E+000	3.65907E-004	2.40040E-001	9.13613E-001	3.57650E+000	9	...........
	105	1.41333	9.17359E-001	4.00643E-004	0.00000E+000	3.67533E-004	2.40040E-001	9.17693E-001	3.57650E+000	9	...........
	106	1.42667	9.21517E-001	4.00040E-004	0.00000E+000	3.68643E-004	2.40040E-001	9.21764E-001	3.57650E+000	9	...........
	107	1.44	9.25537E-001	4.00887E-004	0.00000E+000	3.71036E-004	2.40040E-001	9.25803E-001	3.57650E+000	9	...........
	108	1.45333	9.29531E-001	4.00573E-004	0.00000E+000	3.72345E-004	2.40040E-001	9.29784E-001	3.57650E+000	9	...........
	109	1.46667	9.33436E-001	4.00941E-004	0.00000E+000	3.74253E-004	2.40040E-001	9.33719E-001	3.57650E+000	9	...........
	110	1.48	9.37439E-001	4.01424E-004	0.00000E+000	3.76311E-004	2.40040E-001	9.37719E-001	3.57650E+000	9	...........
	111	1.49333	9.41323E-001	4.01076E-004	0.00000E+000	3.77542E-004	2.40040E-001	9.41578E-001	3.57650E+000	9	...........
	112	1.50667	9.45167E-001	4.00179E-004	0.00000E+000	3.78236E-004	2.40040E-001	9.45453E-001	3.57650E+000	9	...........
	113	1.52	9.48997E-001	4.01984E-004	0.00000E+000	3.81481E-004	2.40040E-001	9.49301E-001	3.57650E+000	9	...........
	114	1.53333	9.52786E-001	4.01138E-004	0.00000E+000	3.82198E-004	2.40040E-001	9.53096E-001	3.57650E+000	9	...........
	115	1.54667	9.56496E-001	4.01473E-004	0.00000E+000	3.84008E-004	2.40040E-001	9.56806E-001	3.57650E+000	9	...........
	116	1.56	9.60255E-001	4.00207E-004	0.00000E+000	3.84301E-004	2.40040E-001	9.60543E-001	3.57650E+000	9	...........
	117	1.57333	9.63938E-001	4.00883E-004	0.00000E+000	3.86426E-004	2.40040E-001	9.64215E-001	3.57650E+000	9	...........
	118	1.58667	9.67514E-001	4.00707E-004	0.00000E+000	3.87690E-004	2.40040E-001	9.67788E-001	3.57650E+000	9	...........
	119	1.6	9.71138E-001	4.00552E-004	0.00000E+000	3.88991E-004	2.40040E-001	9.71423E-001	3.57650E+000	9	...........
	120	1.61333	9.74758E-001	3.98879E-004	0.00000E+000	3.88810E-004	2.40040E-001	9.75026E-001	3.57650E+000	9	...........
	121	1.62667	9.78314E-001	4.00543E-004	0.00000E+000	3.91857E-004	2.40040E-001	9.78604E-001	3.57650E+000	9	...........
	122	1.64	9.81786E-001	4.02937E-004	0.00000E+000	3.95598E-004	2.40040E-001	9.82063E-001	3.57650E+000	9	...........
	123	1.65333	9.85223E-001	4.01974E-004	0.00000E+000	3.96034E-004	2.40040E-001	9.85531E-001	3.57650E+000	9	...........
	124	1.66667	9.88643E-001	3.99838E-004	0.00000E+000	3.95297E-004	2.40040E-001	9.88949E-001	3.57650E+000	9	...........
	125	1.68	9.92026E-001	4.00901E-004	0.00000E+000	3.97704E-004	2.40040E-001	9.92342E-001	3.57650E+000	9	...........
	126	1.69333	9.95333E-001	3.99634E-004	0.00000E+000	3.97769E-004	2.40040E-001	9.95670E-001	3.57650E+000	9	...........
	127	1.70667	9.98699E-001	4.01546E-004	0.00000E+000	4.01024E-004	2.40040E-001	9.99052E-001	3.57650E+000	9	...........
STARTTIMEOFFSET	QUANT	820.3903	Start Time Offset (s)
