EXPLAIN
TAG	PWR800_CHARGE
TITLE	LABEL	PWR Cyclic Charge Discharge (Cell) - Charge Step	Test &Identifier
DATE	LABEL	12-7-2017	Date
TIME	LABEL	15:21:04	Time
NOTES	NOTES	3	&Notes...
	supercap test cell
	0.4mg
	6M KOH
PSTAT	PSTAT	IFC5000-01520	Potentiostat
CAPACITY	QUANT	1.00000E-003	Capacity (A-hr)
CELLTYPE	SELECTOR	1	&Cell Type
WORKINGCONNECTION	SELECTOR	0	&Working Lead
MAXCHARGETIME	VARIABLEANDUNITS	1.00000E+002	s	1.00000E+002	second(s)	Max &Charge Time
CHARGECURRENT	QUANT	4.00000E-004	&Charge Current (A) 
VOLTAGEFINISH	TWOPARAM	F	1.00000E-003	3.60000E+003	&Voltage Finish	 I (A) < 	Max Time(s)
SAMPLETIME	QUANT	1.00000E-002	Sa&mple Period (s)
CHARGESTOPAT1	MULTIPARAM	4	1.00000E+000	Charge Stop At &1	Voltage > Limit	V
CHARGESTOPAT2	MULTIPARAM	0	0.00000E+000	Charge Stop At &2	None	N/A
AESBHCSELECTOR	TOGGLE	F	Save Both Half Cells
IRCOMP	TOGGLE	F	IR &Measure
EOC	QUANT	0	Open Circuit (V)
SEQUENCER	TOGGLE	TRUE	Run as Sequence
PSTATMODEL	IQUANT	53	Pstat Model
PSTATSECTION	LABEL	IFC5000-01520	Pstat Section
PSTATSERIALNO	LABEL	01520	Pstat Serial Number
CTRLMODE	IQUANT	0	Control Mode
ELECTROMETER	IQUANT	1	RE=0 or CS=1
IESTAB	IQUANT	0	I/E Stability
CASPEED	IQUANT	4	Control Amp Speed
CONVENTION	IQUANT	1	Current Convention
ICHRANGE	IQUANT	2	Ich Range
ICHRANGEMODE	TOGGLE	T	Ich Auto Range
ICHOFFSETENABLE	TOGGLE	F	Ich Offset Enable
ICHOFFSET	QUANT	0	Ich Offset (V)
ICHFILTER	IQUANT	1	Ich Filter
VCHRANGE	IQUANT	2	Vch Range
VCHRANGEMODE	TOGGLE	T	Vch Auto Range
VCHOFFSETENABLE	TOGGLE	F	Vch Offset Enable
VCHOFFSET	QUANT	0	Vch Offset (V)
VCHFILTER	IQUANT	1	Vch Filter
IERANGELOWERLIMIT	IQUANT	9	I/E Range Lower Limit
IERANGEMODE	TOGGLE	F	I/E AutoRange
IERANGE	IQUANT	9	I/E Range
ACHSELECT	IQUANT	1	Ach Select
ACHRANGE	IQUANT	2	Ach Range
ACHOFFSETENABLE	TOGGLE	F	Ach Offset Enable
ACHOFFSET	QUANT	0	Ach Offset (V)
ACHFILTER	IQUANT	1	Ach Filter
CABLEID	IQUANT	14	Cable ID
DCCALDATE	LABEL	5-7-2017	DC Calibration Date
ACCALDATE	LABEL	12/3/2015	AC Calibration Date
FRAMEWORKVERSION	QUANT	7.01	Framework Version
INSTRUMENTVERSION	LABEL	4.00	Instrument Version
CURVE	TABLE	106
	Pt	T	Vf	Im	Vu	Pwr	Sig	Ach	Temp	IERange	Over
	#	s	V	A	V	W	V	V	deg C	#	bits
	0	0.013333	3.90244E-001	4.00320E-004	0.00000E+000	1.56222E-004	2.40040E-001	3.90338E-001	3.57650E+000	9	...........
	1	0.026667	4.03135E-001	4.00946E-004	0.00000E+000	1.61635E-004	2.40040E-001	4.03211E-001	3.57650E+000	9	...........
	2	0.04	4.14121E-001	4.00831E-004	0.00000E+000	1.65993E-004	2.40040E-001	4.14205E-001	3.57650E+000	9	...........
	3	0.053333	4.24096E-001	4.01566E-004	0.00000E+000	1.70303E-004	2.40040E-001	4.24183E-001	3.57650E+000	9	...........
	4	0.066667	4.33375E-001	3.99642E-004	0.00000E+000	1.73195E-004	2.40040E-001	4.33459E-001	3.57650E+000	9	...........
	5	0.08	4.42133E-001	4.01564E-004	0.00000E+000	1.77545E-004	2.40040E-001	4.42221E-001	3.57650E+000	9	...........
	6	0.093333	4.50571E-001	4.00073E-004	0.00000E+000	1.80261E-004	2.40040E-001	4.50665E-001	3.57650E+000	9	...........
	7	0.106667	4.58711E-001	3.99434E-004	0.00000E+000	1.83225E-004	2.40040E-001	4.58797E-001	3.57650E+000	9	...........
	8	0.12	4.66610E-001	4.00409E-004	0.00000E+000	1.86835E-004	2.40040E-001	4.66699E-001	3.57650E+000	9	...........
	9	0.133333	4.74359E-001	4.01669E-004	0.00000E+000	1.90536E-004	2.40040E-001	4.74443E-001	3.57650E+000	9	...........
	10	0.146667	4.81966E-001	4.01421E-004	0.00000E+000	1.93471E-004	2.40040E-001	4.82053E-001	3.57650E+000	9	...........
	11	0.16	4.89421E-001	4.01618E-004	0.00000E+000	1.96560E-004	2.40040E-001	4.89518E-001	3.57650E+000	9	...........
	12	0.173333	4.96740E-001	4.00619E-004	0.00000E+000	1.99003E-004	2.40040E-001	4.96837E-001	3.57650E+000	9	...........
	13	0.186667	5.03981E-001	4.00108E-004	0.00000E+000	2.01647E-004	2.40040E-001	5.04079E-001	3.57650E+000	9	...........
	14	0.2	5.11108E-001	4.00113E-004	0.00000E+000	2.04501E-004	2.40040E-001	5.11211E-001	3.57687E+000	9	...........
	15	0.213333	5.18220E-001	3.99737E-004	0.00000E+000	2.07152E-004	2.40040E-001	5.18326E-001	3.57700E+000	9	...........
	16	0.226667	5.25168E-001	4.01261E-004	0.00000E+000	2.10729E-004	2.40040E-001	5.25279E-001	3.57700E+000	9	...........
	17	0.24	5.31959E-001	4.00784E-004	0.00000E+000	2.13200E-004	2.40040E-001	5.32094E-001	3.57700E+000	9	...........
	18	0.253333	5.38664E-001	4.01020E-004	0.00000E+000	2.16015E-004	2.40040E-001	5.38834E-001	3.57700E+000	9	...........
	19	0.266667	5.45542E-001	4.01035E-004	0.00000E+000	2.18781E-004	2.40040E-001	5.45720E-001	3.57700E+000	9	...........
	20	0.28	5.52332E-001	4.00662E-004	0.00000E+000	2.21298E-004	2.40040E-001	5.52519E-001	3.57700E+000	9	...........
	21	0.293333	5.58948E-001	4.00470E-004	0.00000E+000	2.23842E-004	2.40040E-001	5.59147E-001	3.57700E+000	9	...........
	22	0.306667	5.65590E-001	4.01295E-004	0.00000E+000	2.26969E-004	2.40040E-001	5.65776E-001	3.57700E+000	9	...........
	23	0.32	5.72142E-001	4.00924E-004	0.00000E+000	2.29385E-004	2.40040E-001	5.72336E-001	3.57700E+000	9	...........
	24	0.333333	5.78673E-001	4.00761E-004	0.00000E+000	2.31909E-004	2.40040E-001	5.78905E-001	3.57700E+000	9	...........
	25	0.346667	5.85239E-001	4.01229E-004	0.00000E+000	2.34815E-004	2.40040E-001	5.85456E-001	3.57700E+000	9	...........
	26	0.36	5.91751E-001	4.01005E-004	0.00000E+000	2.37296E-004	2.40040E-001	5.91988E-001	3.57700E+000	9	...........
	27	0.373333	5.98189E-001	4.01587E-004	0.00000E+000	2.40225E-004	2.40040E-001	5.98413E-001	3.57700E+000	9	...........
	28	0.386667	6.04535E-001	4.01361E-004	0.00000E+000	2.42637E-004	2.40040E-001	6.04808E-001	3.57700E+000	9	...........
	29	0.4	6.10850E-001	4.01422E-004	0.00000E+000	2.45209E-004	2.40040E-001	6.11128E-001	3.57700E+000	9	...........
	30	0.413333	6.17342E-001	4.02140E-004	0.00000E+000	2.48258E-004	2.40040E-001	6.17532E-001	3.57700E+000	9	...........
	31	0.426667	6.23654E-001	4.02420E-004	0.00000E+000	2.50971E-004	2.40040E-001	6.23818E-001	3.57700E+000	9	...........
	32	0.44	6.29930E-001	4.00202E-004	0.00000E+000	2.52100E-004	2.40040E-001	6.30138E-001	3.57700E+000	9	...........
	33	0.453333	6.36200E-001	4.00041E-004	0.00000E+000	2.54506E-004	2.40040E-001	6.36421E-001	3.57700E+000	9	...........
	34	0.466667	6.42513E-001	4.01021E-004	0.00000E+000	2.57661E-004	2.40040E-001	6.42747E-001	3.57700E+000	9	...........
	35	0.48	6.48732E-001	4.01294E-004	0.00000E+000	2.60332E-004	2.40040E-001	6.48964E-001	3.57700E+000	9	...........
	36	0.493333	6.54903E-001	3.99694E-004	0.00000E+000	2.61761E-004	2.40040E-001	6.55156E-001	3.57700E+000	9	...........
	37	0.506667	6.61065E-001	4.00952E-004	0.00000E+000	2.65055E-004	2.40040E-001	6.61315E-001	3.57700E+000	9	...........
	38	0.52	6.67203E-001	4.00803E-004	0.00000E+000	2.67417E-004	2.40040E-001	6.67435E-001	3.57700E+000	9	...........
	39	0.533333	6.73350E-001	4.01871E-004	0.00000E+000	2.70600E-004	2.40040E-001	6.73578E-001	3.57700E+000	9	...........
	40	0.546667	6.79389E-001	4.00887E-004	0.00000E+000	2.72358E-004	2.40040E-001	6.79627E-001	3.57700E+000	9	...........
	41	0.56	6.85400E-001	4.00419E-004	0.00000E+000	2.74447E-004	2.40040E-001	6.85649E-001	3.57700E+000	9	...........
	42	0.573333	6.91472E-001	4.00761E-004	0.00000E+000	2.77115E-004	2.40040E-001	6.91727E-001	3.57700E+000	9	...........
	43	0.586667	6.97510E-001	4.02291E-004	0.00000E+000	2.80602E-004	2.40040E-001	6.97762E-001	3.57700E+000	9	...........
	44	0.6	7.03464E-001	4.01225E-004	0.00000E+000	2.82248E-004	2.40040E-001	7.03695E-001	3.57700E+000	9	...........
	45	0.613333	7.09431E-001	4.00854E-004	0.00000E+000	2.84379E-004	2.40040E-001	7.09685E-001	3.57700E+000	9	...........
	46	0.626667	7.15423E-001	4.01259E-004	0.00000E+000	2.87070E-004	2.40040E-001	7.15693E-001	3.57700E+000	9	...........
	47	0.64	7.21357E-001	4.00491E-004	0.00000E+000	2.88897E-004	2.40040E-001	7.21579E-001	3.57700E+000	9	...........
	48	0.653333	7.27184E-001	4.01354E-004	0.00000E+000	2.91859E-004	2.40040E-001	7.27403E-001	3.57700E+000	9	...........
	49	0.666667	7.32972E-001	4.00405E-004	0.00000E+000	2.93486E-004	2.40040E-001	7.33245E-001	3.57700E+000	9	...........
	50	0.68	7.38809E-001	4.00444E-004	0.00000E+000	2.95852E-004	2.40040E-001	7.39054E-001	3.57700E+000	9	...........
	51	0.693333	7.44619E-001	3.99965E-004	0.00000E+000	2.97821E-004	2.40040E-001	7.44784E-001	3.57700E+000	9	...........
	52	0.706667	7.50295E-001	4.00596E-004	0.00000E+000	3.00565E-004	2.40040E-001	7.50484E-001	3.57700E+000	9	...........
	53	0.72	7.56060E-001	4.01070E-004	0.00000E+000	3.03233E-004	2.40040E-001	7.56245E-001	3.57700E+000	9	...........
	54	0.733333	7.61730E-001	4.00553E-004	0.00000E+000	3.05114E-004	2.40040E-001	7.61939E-001	3.57700E+000	9	...........
	55	0.746667	7.67401E-001	3.99973E-004	0.00000E+000	3.06940E-004	2.40040E-001	7.67631E-001	3.57700E+000	9	...........
	56	0.76	7.73106E-001	4.00885E-004	0.00000E+000	3.09926E-004	2.40040E-001	7.73331E-001	3.57700E+000	9	...........
	57	0.773333	7.78708E-001	4.00179E-004	0.00000E+000	3.11623E-004	2.40040E-001	7.78979E-001	3.57700E+000	9	...........
	58	0.786667	7.84284E-001	4.00616E-004	0.00000E+000	3.14196E-004	2.40040E-001	7.84521E-001	3.57700E+000	9	...........
	59	0.8	7.89772E-001	4.01257E-004	0.00000E+000	3.16901E-004	2.40040E-001	7.90034E-001	3.57700E+000	9	...........
	60	0.813333	7.95328E-001	4.01343E-004	0.00000E+000	3.19199E-004	2.40040E-001	7.95585E-001	3.57700E+000	9	...........
	61	0.826667	8.00797E-001	4.01685E-004	0.00000E+000	3.21668E-004	2.40040E-001	8.01067E-001	3.57700E+000	9	...........
	62	0.84	8.06218E-001	4.02303E-004	0.00000E+000	3.24344E-004	2.40040E-001	8.06480E-001	3.57700E+000	9	...........
	63	0.853333	8.11609E-001	4.01502E-004	0.00000E+000	3.25863E-004	2.40040E-001	8.11857E-001	3.57700E+000	9	...........
	64	0.866667	8.16876E-001	4.00266E-004	0.00000E+000	3.26967E-004	2.40040E-001	8.17158E-001	3.57700E+000	9	...........
	65	0.88	8.22195E-001	4.02026E-004	0.00000E+000	3.30544E-004	2.40040E-001	8.22481E-001	3.57700E+000	9	...........
	66	0.893333	8.27562E-001	4.00173E-004	0.00000E+000	3.31168E-004	2.40040E-001	8.27836E-001	3.57700E+000	9	...........
	67	0.906667	8.32813E-001	4.00109E-004	0.00000E+000	3.33216E-004	2.40040E-001	8.33085E-001	3.57700E+000	9	...........
	68	0.92	8.38044E-001	4.00627E-004	0.00000E+000	3.35743E-004	2.40040E-001	8.38341E-001	3.57700E+000	9	...........
	69	0.933333	8.43182E-001	4.00563E-004	0.00000E+000	3.37747E-004	2.40040E-001	8.43502E-001	3.57700E+000	9	...........
	70	0.946667	8.48329E-001	4.01891E-004	0.00000E+000	3.40936E-004	2.40040E-001	8.48624E-001	3.57700E+000	9	...........
	71	0.96	8.53408E-001	4.00479E-004	0.00000E+000	3.41772E-004	2.40040E-001	8.53701E-001	3.57700E+000	9	...........
	72	0.97333	8.58454E-001	4.01023E-004	0.00000E+000	3.44260E-004	2.40040E-001	8.58746E-001	3.57700E+000	9	...........
	73	0.98667	8.63402E-001	4.01232E-004	0.00000E+000	3.46424E-004	2.40040E-001	8.63723E-001	3.57700E+000	9	...........
	74	1	8.68312E-001	4.00823E-004	0.00000E+000	3.48040E-004	2.40040E-001	8.68597E-001	3.57700E+000	9	...........
	75	1.01333	8.73237E-001	4.00996E-004	0.00000E+000	3.50164E-004	2.40040E-001	8.73551E-001	3.57700E+000	9	...........
	76	1.02667	8.78115E-001	4.00467E-004	0.00000E+000	3.51656E-004	2.40040E-001	8.78439E-001	3.57700E+000	9	...........
	77	1.04	8.82951E-001	4.01359E-004	0.00000E+000	3.54380E-004	2.40040E-001	8.83259E-001	3.57700E+000	9	...........
	78	1.05333	8.87745E-001	4.00976E-004	0.00000E+000	3.55964E-004	2.40040E-001	8.88056E-001	3.57700E+000	9	...........
	79	1.06667	8.92523E-001	4.02576E-004	0.00000E+000	3.59308E-004	2.40040E-001	8.92843E-001	3.57700E+000	9	...........
	80	1.08	8.97268E-001	4.01074E-004	0.00000E+000	3.59871E-004	2.40040E-001	8.97599E-001	3.57700E+000	9	...........
	81	1.09333	9.01912E-001	4.01549E-004	0.00000E+000	3.62162E-004	2.40040E-001	9.02254E-001	3.57700E+000	9	...........
	82	1.10667	9.06559E-001	4.00588E-004	0.00000E+000	3.63156E-004	2.40040E-001	9.06903E-001	3.57700E+000	9	...........
	83	1.12	9.11151E-001	4.01222E-004	0.00000E+000	3.65574E-004	2.40040E-001	9.11482E-001	3.57700E+000	9	...........
	84	1.13333	9.15755E-001	4.01008E-004	0.00000E+000	3.67225E-004	2.40040E-001	9.16078E-001	3.57700E+000	9	...........
	85	1.14667	9.20282E-001	4.00964E-004	0.00000E+000	3.69000E-004	2.40040E-001	9.20589E-001	3.57700E+000	9	...........
	86	1.16	9.24738E-001	4.00241E-004	0.00000E+000	3.70118E-004	2.40040E-001	9.25038E-001	3.57700E+000	9	...........
	87	1.17333	9.29164E-001	4.00873E-004	0.00000E+000	3.72477E-004	2.40040E-001	9.29455E-001	3.57700E+000	9	...........
	88	1.18667	9.33533E-001	4.00228E-004	0.00000E+000	3.73626E-004	2.40040E-001	9.33873E-001	3.57700E+000	9	...........
	89	1.2	9.37869E-001	4.00348E-004	0.00000E+000	3.75474E-004	2.40040E-001	9.38189E-001	3.57693E+000	9	...........
	90	1.21333	9.42115E-001	4.00270E-004	0.00000E+000	3.77100E-004	2.40040E-001	9.42440E-001	3.57690E+000	9	...........
	91	1.22667	9.46394E-001	3.99036E-004	0.00000E+000	3.77645E-004	2.40040E-001	9.46725E-001	3.57690E+000	9	...........
	92	1.24	9.50614E-001	4.01089E-004	0.00000E+000	3.81281E-004	2.40040E-001	9.50965E-001	3.57690E+000	9	...........
	93	1.25333	9.54822E-001	4.00915E-004	0.00000E+000	3.82802E-004	2.40040E-001	9.55144E-001	3.57690E+000	9	...........
	94	1.26667	9.58982E-001	4.01431E-004	0.00000E+000	3.84965E-004	2.40040E-001	9.59314E-001	3.57690E+000	9	...........
	95	1.28	9.63047E-001	4.02163E-004	0.00000E+000	3.87302E-004	2.40040E-001	9.63391E-001	3.57690E+000	9	...........
	96	1.29333	9.67143E-001	4.00685E-004	0.00000E+000	3.87519E-004	2.40040E-001	9.67488E-001	3.57690E+000	9	...........
	97	1.30667	9.71175E-001	4.00825E-004	0.00000E+000	3.89272E-004	2.40040E-001	9.71521E-001	3.57690E+000	9	...........
	98	1.32	9.75174E-001	4.00180E-004	0.00000E+000	3.90246E-004	2.40040E-001	9.75474E-001	3.57690E+000	9	...........
	99	1.33333	9.79097E-001	4.01318E-004	0.00000E+000	3.92929E-004	2.40040E-001	9.79413E-001	3.57690E+000	9	...........
	100	1.34667	9.82945E-001	4.01015E-004	0.00000E+000	3.94175E-004	2.40040E-001	9.83274E-001	3.57690E+000	9	...........
	101	1.36	9.86741E-001	4.01092E-004	0.00000E+000	3.95774E-004	2.40040E-001	9.87091E-001	3.57690E+000	9	...........
	102	1.37333	9.90551E-001	3.99012E-004	0.00000E+000	3.95242E-004	2.40040E-001	9.90886E-001	3.57690E+000	9	...........
	103	1.38667	9.94223E-001	4.01597E-004	0.00000E+000	3.99277E-004	2.40040E-001	9.94587E-001	3.57690E+000	9	...........
	104	1.4	9.97920E-001	4.01820E-004	0.00000E+000	4.00985E-004	2.40040E-001	9.98284E-001	3.57690E+000	9	...........
	105	1.40333	1.00019E+000	3.99485E-004	0.00000E+000	3.99562E-004	2.40040E-001	1.00058E+000	3.57690E+000	9	...........
STARTTIMEOFFSET	QUANT	2956.554	Start Time Offset (s)
