EXPLAIN
TAG	PWR800_CHARGE
TITLE	LABEL	PWR Cyclic Charge Discharge (Cell) - Charge Step	Test &Identifier
DATE	LABEL	12-7-2017	Date
TIME	LABEL	15:19:21	Time
NOTES	NOTES	3	&Notes...
	supercap test cell
	0.4mg
	6M KOH
PSTAT	PSTAT	IFC5000-01520	Potentiostat
CAPACITY	QUANT	1.00000E-003	Capacity (A-hr)
CELLTYPE	SELECTOR	1	&Cell Type
WORKINGCONNECTION	SELECTOR	0	&Working Lead
MAXCHARGETIME	VARIABLEANDUNITS	1.00000E+002	s	1.00000E+002	second(s)	Max &Charge Time
CHARGECURRENT	QUANT	4.00000E-004	&Charge Current (A) 
VOLTAGEFINISH	TWOPARAM	F	1.00000E-003	3.60000E+003	&Voltage Finish	 I (A) < 	Max Time(s)
SAMPLETIME	QUANT	1.00000E-002	Sa&mple Period (s)
CHARGESTOPAT1	MULTIPARAM	4	1.00000E+000	Charge Stop At &1	Voltage > Limit	V
CHARGESTOPAT2	MULTIPARAM	0	0.00000E+000	Charge Stop At &2	None	N/A
AESBHCSELECTOR	TOGGLE	F	Save Both Half Cells
IRCOMP	TOGGLE	F	IR &Measure
EOC	QUANT	0	Open Circuit (V)
SEQUENCER	TOGGLE	TRUE	Run as Sequence
PSTATMODEL	IQUANT	53	Pstat Model
PSTATSECTION	LABEL	IFC5000-01520	Pstat Section
PSTATSERIALNO	LABEL	01520	Pstat Serial Number
CTRLMODE	IQUANT	0	Control Mode
ELECTROMETER	IQUANT	1	RE=0 or CS=1
IESTAB	IQUANT	0	I/E Stability
CASPEED	IQUANT	4	Control Amp Speed
CONVENTION	IQUANT	1	Current Convention
ICHRANGE	IQUANT	2	Ich Range
ICHRANGEMODE	TOGGLE	T	Ich Auto Range
ICHOFFSETENABLE	TOGGLE	F	Ich Offset Enable
ICHOFFSET	QUANT	0	Ich Offset (V)
ICHFILTER	IQUANT	1	Ich Filter
VCHRANGE	IQUANT	2	Vch Range
VCHRANGEMODE	TOGGLE	T	Vch Auto Range
VCHOFFSETENABLE	TOGGLE	F	Vch Offset Enable
VCHOFFSET	QUANT	0	Vch Offset (V)
VCHFILTER	IQUANT	1	Vch Filter
IERANGELOWERLIMIT	IQUANT	9	I/E Range Lower Limit
IERANGEMODE	TOGGLE	F	I/E AutoRange
IERANGE	IQUANT	9	I/E Range
ACHSELECT	IQUANT	1	Ach Select
ACHRANGE	IQUANT	2	Ach Range
ACHOFFSETENABLE	TOGGLE	F	Ach Offset Enable
ACHOFFSET	QUANT	0	Ach Offset (V)
ACHFILTER	IQUANT	1	Ach Filter
CABLEID	IQUANT	14	Cable ID
DCCALDATE	LABEL	5-7-2017	DC Calibration Date
ACCALDATE	LABEL	12/3/2015	AC Calibration Date
FRAMEWORKVERSION	QUANT	7.01	Framework Version
INSTRUMENTVERSION	LABEL	4.00	Instrument Version
CURVE	TABLE	106
	Pt	T	Vf	Im	Vu	Pwr	Sig	Ach	Temp	IERange	Over
	#	s	V	A	V	W	V	V	deg C	#	bits
	0	0.013333	3.89000E-001	4.00541E-004	0.00000E+000	1.55810E-004	2.40040E-001	3.89094E-001	3.57780E+000	9	...........
	1	0.026667	4.01879E-001	4.00394E-004	0.00000E+000	1.60910E-004	2.40040E-001	4.01959E-001	3.57780E+000	9	...........
	2	0.04	4.12885E-001	4.00778E-004	0.00000E+000	1.65475E-004	2.40040E-001	4.12974E-001	3.57780E+000	9	...........
	3	0.053333	4.22852E-001	3.99709E-004	0.00000E+000	1.69018E-004	2.40040E-001	4.22941E-001	3.57762E+000	9	...........
	4	0.066667	4.32112E-001	4.00338E-004	0.00000E+000	1.72991E-004	2.40040E-001	4.32199E-001	3.57680E+000	9	...........
	5	0.08	4.40897E-001	4.00085E-004	0.00000E+000	1.76396E-004	2.40040E-001	4.40985E-001	3.57680E+000	9	...........
	6	0.093333	4.49303E-001	4.01921E-004	0.00000E+000	1.80584E-004	2.40040E-001	4.49394E-001	3.57680E+000	9	...........
	7	0.106667	4.57507E-001	4.00613E-004	0.00000E+000	1.83283E-004	2.40040E-001	4.57601E-001	3.57680E+000	9	...........
	8	0.12	4.65390E-001	3.99809E-004	0.00000E+000	1.86067E-004	2.40040E-001	4.65482E-001	3.57680E+000	9	...........
	9	0.133333	4.73084E-001	4.00324E-004	0.00000E+000	1.89387E-004	2.40040E-001	4.73179E-001	3.57680E+000	9	...........
	10	0.146667	4.80653E-001	4.01555E-004	0.00000E+000	1.93008E-004	2.40040E-001	4.80745E-001	3.57680E+000	9	...........
	11	0.16	4.88092E-001	4.01276E-004	0.00000E+000	1.95860E-004	2.40040E-001	4.88189E-001	3.57680E+000	9	...........
	12	0.173333	4.95369E-001	4.00243E-004	0.00000E+000	1.98268E-004	2.40040E-001	4.95471E-001	3.57680E+000	9	...........
	13	0.186667	5.02606E-001	4.00496E-004	0.00000E+000	2.01292E-004	2.40040E-001	5.02715E-001	3.57680E+000	9	...........
	14	0.2	5.09704E-001	4.00370E-004	0.00000E+000	2.04070E-004	2.40040E-001	5.09806E-001	3.57680E+000	9	...........
	15	0.213333	5.16713E-001	4.00625E-004	0.00000E+000	2.07008E-004	2.40040E-001	5.16821E-001	3.57680E+000	9	...........
	16	0.226667	5.23690E-001	4.00948E-004	0.00000E+000	2.09972E-004	2.40040E-001	5.23804E-001	3.57680E+000	9	...........
	17	0.24	5.30582E-001	4.00674E-004	0.00000E+000	2.12590E-004	2.40040E-001	5.30670E-001	3.57680E+000	9	...........
	18	0.253333	5.37207E-001	4.01039E-004	0.00000E+000	2.15441E-004	2.40040E-001	5.37439E-001	3.57680E+000	9	...........
	19	0.266667	5.43937E-001	4.01752E-004	0.00000E+000	2.18528E-004	2.40040E-001	5.44161E-001	3.57680E+000	9	...........
	20	0.28	5.50674E-001	4.01144E-004	0.00000E+000	2.20899E-004	2.40040E-001	5.50892E-001	3.57680E+000	9	...........
	21	0.293333	5.57326E-001	4.00655E-004	0.00000E+000	2.23296E-004	2.40040E-001	5.57559E-001	3.57680E+000	9	...........
	22	0.306667	5.63985E-001	4.01157E-004	0.00000E+000	2.26246E-004	2.40040E-001	5.64219E-001	3.57680E+000	9	...........
	23	0.32	5.70557E-001	3.99896E-004	0.00000E+000	2.28163E-004	2.40040E-001	5.70780E-001	3.57680E+000	9	...........
	24	0.333333	5.77093E-001	4.00301E-004	0.00000E+000	2.31011E-004	2.40040E-001	5.77348E-001	3.57680E+000	9	...........
	25	0.346667	5.83552E-001	4.00210E-004	0.00000E+000	2.33544E-004	2.40040E-001	5.83820E-001	3.57680E+000	9	...........
	26	0.36	5.90043E-001	4.00494E-004	0.00000E+000	2.36309E-004	2.40040E-001	5.90300E-001	3.57680E+000	9	...........
	27	0.373333	5.96486E-001	4.01532E-004	0.00000E+000	2.39508E-004	2.40040E-001	5.96737E-001	3.57680E+000	9	...........
	28	0.386667	6.02902E-001	4.00104E-004	0.00000E+000	2.41224E-004	2.40040E-001	6.03176E-001	3.57680E+000	9	...........
	29	0.4	6.09330E-001	4.00832E-004	0.00000E+000	2.44239E-004	2.40040E-001	6.09592E-001	3.57680E+000	9	...........
	30	0.413333	6.15658E-001	4.00017E-004	0.00000E+000	2.46273E-004	2.40040E-001	6.15894E-001	3.57680E+000	9	...........
	31	0.426667	6.21954E-001	4.01204E-004	0.00000E+000	2.49531E-004	2.40040E-001	6.22169E-001	3.57680E+000	9	...........
	32	0.44	6.28237E-001	4.01288E-004	0.00000E+000	2.52104E-004	2.40040E-001	6.28463E-001	3.57680E+000	9	...........
	33	0.453333	6.34527E-001	4.00321E-004	0.00000E+000	2.54015E-004	2.40040E-001	6.34729E-001	3.57680E+000	9	...........
	34	0.466667	6.40745E-001	4.01724E-004	0.00000E+000	2.57403E-004	2.40040E-001	6.40979E-001	3.57680E+000	9	...........
	35	0.48	6.46962E-001	4.01940E-004	0.00000E+000	2.60040E-004	2.40040E-001	6.47171E-001	3.57680E+000	9	...........
	36	0.493333	6.53143E-001	4.02124E-004	0.00000E+000	2.62645E-004	2.40040E-001	6.53376E-001	3.57680E+000	9	...........
	37	0.506667	6.59314E-001	4.01187E-004	0.00000E+000	2.64508E-004	2.40040E-001	6.59517E-001	3.57680E+000	9	...........
	38	0.52	6.65402E-001	4.01571E-004	0.00000E+000	2.67206E-004	2.40040E-001	6.65637E-001	3.57680E+000	9	...........
	39	0.533333	6.71487E-001	4.01178E-004	0.00000E+000	2.69386E-004	2.40040E-001	6.71702E-001	3.57680E+000	9	...........
	40	0.546667	6.77519E-001	4.00648E-004	0.00000E+000	2.71447E-004	2.40040E-001	6.77729E-001	3.57680E+000	9	...........
	41	0.56	6.83535E-001	4.01806E-004	0.00000E+000	2.74648E-004	2.40040E-001	6.83784E-001	3.57680E+000	9	...........
	42	0.573333	6.89613E-001	4.00764E-004	0.00000E+000	2.76372E-004	2.40040E-001	6.89850E-001	3.57680E+000	9	...........
	43	0.586667	6.95621E-001	4.00051E-004	0.00000E+000	2.78284E-004	2.40040E-001	6.95839E-001	3.57680E+000	9	...........
	44	0.6	7.01628E-001	4.00379E-004	0.00000E+000	2.80917E-004	2.40040E-001	7.01830E-001	3.57680E+000	9	...........
	45	0.613333	7.07555E-001	4.02197E-004	0.00000E+000	2.84577E-004	2.40040E-001	7.07736E-001	3.57680E+000	9	...........
	46	0.626667	7.13436E-001	4.00772E-004	0.00000E+000	2.85925E-004	2.40040E-001	7.13664E-001	3.57680E+000	9	...........
	47	0.64	7.19335E-001	4.01616E-004	0.00000E+000	2.88896E-004	2.40040E-001	7.19569E-001	3.57680E+000	9	...........
	48	0.653333	7.25257E-001	3.99811E-004	0.00000E+000	2.89966E-004	2.40040E-001	7.25465E-001	3.57680E+000	9	...........
	49	0.666667	7.31088E-001	4.01268E-004	0.00000E+000	2.93362E-004	2.40040E-001	7.31331E-001	3.57680E+000	9	...........
	50	0.68	7.36890E-001	4.01951E-004	0.00000E+000	2.96194E-004	2.40040E-001	7.37155E-001	3.57680E+000	9	...........
	51	0.693333	7.42651E-001	4.02256E-004	0.00000E+000	2.98736E-004	2.40040E-001	7.42914E-001	3.57680E+000	9	...........
	52	0.706667	7.48413E-001	4.00610E-004	0.00000E+000	2.99821E-004	2.40040E-001	7.48662E-001	3.57680E+000	9	...........
	53	0.72	7.54128E-001	4.00002E-004	0.00000E+000	3.01653E-004	2.40040E-001	7.54391E-001	3.57680E+000	9	...........
	54	0.733333	7.59837E-001	4.00423E-004	0.00000E+000	3.04256E-004	2.40040E-001	7.60037E-001	3.57680E+000	9	...........
	55	0.746667	7.65426E-001	4.01163E-004	0.00000E+000	3.07060E-004	2.40040E-001	7.65661E-001	3.57680E+000	9	...........
	56	0.76	7.70978E-001	4.00934E-004	0.00000E+000	3.09111E-004	2.40040E-001	7.71236E-001	3.57680E+000	9	...........
	57	0.773333	7.76580E-001	4.00076E-004	0.00000E+000	3.10691E-004	2.40040E-001	7.76832E-001	3.57680E+000	9	...........
	58	0.786667	7.82138E-001	4.00630E-004	0.00000E+000	3.13348E-004	2.40040E-001	7.82367E-001	3.57680E+000	9	...........
	59	0.8	7.87633E-001	4.01012E-004	0.00000E+000	3.15850E-004	2.40040E-001	7.87867E-001	3.57680E+000	9	...........
	60	0.813333	7.93173E-001	4.00904E-004	0.00000E+000	3.17987E-004	2.40040E-001	7.93425E-001	3.57680E+000	9	...........
	61	0.826667	7.98595E-001	3.99668E-004	0.00000E+000	3.19173E-004	2.40040E-001	7.98852E-001	3.57680E+000	9	...........
	62	0.84	8.04014E-001	4.01600E-004	0.00000E+000	3.22892E-004	2.40040E-001	8.04255E-001	3.57680E+000	9	...........
	63	0.853333	8.09369E-001	4.00480E-004	0.00000E+000	3.24137E-004	2.40040E-001	8.09635E-001	3.57680E+000	9	...........
	64	0.866667	8.14730E-001	4.00931E-004	0.00000E+000	3.26651E-004	2.40040E-001	8.15002E-001	3.57680E+000	9	...........
	65	0.88	8.20048E-001	4.02336E-004	0.00000E+000	3.29935E-004	2.40040E-001	8.20331E-001	3.57680E+000	9	...........
	66	0.893333	8.25308E-001	4.01017E-004	0.00000E+000	3.30962E-004	2.40040E-001	8.25602E-001	3.57680E+000	9	...........
	67	0.906667	8.30487E-001	4.00291E-004	0.00000E+000	3.32436E-004	2.40040E-001	8.30786E-001	3.57680E+000	9	...........
	68	0.92	8.35664E-001	4.01834E-004	0.00000E+000	3.35798E-004	2.40040E-001	8.35961E-001	3.57680E+000	9	...........
	69	0.933333	8.40793E-001	4.00967E-004	0.00000E+000	3.37130E-004	2.40040E-001	8.41089E-001	3.57680E+000	9	...........
	70	0.946667	8.46000E-001	4.01450E-004	0.00000E+000	3.39627E-004	2.40040E-001	8.46266E-001	3.57680E+000	9	...........
	71	0.96	8.51047E-001	4.00490E-004	0.00000E+000	3.40836E-004	2.40040E-001	8.51334E-001	3.57680E+000	9	...........
	72	0.97333	8.56055E-001	4.00738E-004	0.00000E+000	3.43054E-004	2.40040E-001	8.56376E-001	3.57680E+000	9	...........
	73	0.98667	8.61076E-001	4.01582E-004	0.00000E+000	3.45792E-004	2.40040E-001	8.61402E-001	3.57680E+000	9	...........
	74	1	8.65965E-001	4.00294E-004	0.00000E+000	3.46641E-004	2.40040E-001	8.66303E-001	3.57680E+000	9	...........
	75	1.01333	8.70935E-001	4.00527E-004	0.00000E+000	3.48833E-004	2.40040E-001	8.71259E-001	3.57680E+000	9	...........
	76	1.02667	8.75791E-001	4.00307E-004	0.00000E+000	3.50586E-004	2.40040E-001	8.76144E-001	3.57680E+000	9	...........
	77	1.04	8.80611E-001	4.01492E-004	0.00000E+000	3.53558E-004	2.40040E-001	8.80964E-001	3.57680E+000	9	...........
	78	1.05333	8.85429E-001	4.00162E-004	0.00000E+000	3.54314E-004	2.40040E-001	8.85794E-001	3.57682E+000	9	...........
	79	1.06667	8.90240E-001	4.01523E-004	0.00000E+000	3.57452E-004	2.40040E-001	8.90554E-001	3.57690E+000	9	...........
	80	1.08	8.94925E-001	4.00203E-004	0.00000E+000	3.58152E-004	2.40040E-001	8.95252E-001	3.57690E+000	9	...........
	81	1.09333	8.99609E-001	4.02933E-004	0.00000E+000	3.62482E-004	2.40040E-001	8.99934E-001	3.57690E+000	9	...........
	82	1.10667	9.04226E-001	4.01397E-004	0.00000E+000	3.62954E-004	2.40040E-001	9.04560E-001	3.57690E+000	9	...........
	83	1.12	9.08834E-001	4.01320E-004	0.00000E+000	3.64733E-004	2.40040E-001	9.09164E-001	3.57690E+000	9	...........
	84	1.13333	9.13357E-001	4.00701E-004	0.00000E+000	3.65983E-004	2.40040E-001	9.13678E-001	3.57690E+000	9	...........
	85	1.14667	9.17788E-001	4.00964E-004	0.00000E+000	3.68000E-004	2.40040E-001	9.18139E-001	3.57690E+000	9	...........
	86	1.16	9.22341E-001	4.01455E-004	0.00000E+000	3.70278E-004	2.40040E-001	9.22612E-001	3.57690E+000	9	...........
	87	1.17333	9.26853E-001	4.00032E-004	0.00000E+000	3.70771E-004	2.40040E-001	9.27139E-001	3.57690E+000	9	...........
	88	1.18667	9.31218E-001	4.00327E-004	0.00000E+000	3.72792E-004	2.40040E-001	9.31514E-001	3.57690E+000	9	...........
	89	1.2	9.35502E-001	4.00981E-004	0.00000E+000	3.75119E-004	2.40040E-001	9.35848E-001	3.57690E+000	9	...........
	90	1.21333	9.39781E-001	3.99606E-004	0.00000E+000	3.75542E-004	2.40040E-001	9.40124E-001	3.57690E+000	9	...........
	91	1.22667	9.44084E-001	4.01406E-004	0.00000E+000	3.78961E-004	2.40040E-001	9.44400E-001	3.57690E+000	9	...........
	92	1.24	9.48331E-001	4.00088E-004	0.00000E+000	3.79415E-004	2.40040E-001	9.48654E-001	3.57690E+000	9	...........
	93	1.25333	9.52521E-001	4.00838E-004	0.00000E+000	3.81806E-004	2.40040E-001	9.52831E-001	3.57690E+000	9	...........
	94	1.26667	9.56590E-001	4.01352E-004	0.00000E+000	3.83930E-004	2.40040E-001	9.56918E-001	3.57690E+000	9	...........
	95	1.28	9.60680E-001	4.01427E-004	0.00000E+000	3.85643E-004	2.40040E-001	9.60983E-001	3.57690E+000	9	...........
	96	1.29333	9.64710E-001	4.01110E-004	0.00000E+000	3.86955E-004	2.40040E-001	9.65033E-001	3.57690E+000	9	...........
	97	1.30667	9.68759E-001	4.01391E-004	0.00000E+000	3.88851E-004	2.40040E-001	9.69055E-001	3.57690E+000	9	...........
	98	1.32	9.72701E-001	4.00134E-004	0.00000E+000	3.89211E-004	2.40040E-001	9.73056E-001	3.57690E+000	9	...........
	99	1.33333	9.76630E-001	4.00383E-004	0.00000E+000	3.91026E-004	2.40040E-001	9.76954E-001	3.57690E+000	9	...........
	100	1.34667	9.80525E-001	3.99771E-004	0.00000E+000	3.91985E-004	2.40040E-001	9.80838E-001	3.57690E+000	9	...........
	101	1.36	9.84349E-001	4.01420E-004	0.00000E+000	3.95137E-004	2.40040E-001	9.84694E-001	3.57690E+000	9	...........
	102	1.37333	9.88140E-001	4.01063E-004	0.00000E+000	3.96306E-004	2.40040E-001	9.88494E-001	3.57690E+000	9	...........
	103	1.38667	9.91853E-001	4.00688E-004	0.00000E+000	3.97423E-004	2.40040E-001	9.92205E-001	3.57690E+000	9	...........
	104	1.4	9.95566E-001	4.00969E-004	0.00000E+000	3.99191E-004	2.40040E-001	9.95941E-001	3.57690E+000	9	...........
	105	1.41167	9.99049E-001	4.00145E-004	0.00000E+000	3.99764E-004	2.40040E-001	9.99395E-001	3.57690E+000	9	...........
STARTTIMEOFFSET	QUANT	2876.42	Start Time Offset (s)
