EXPLAIN
TAG	PWR800_CHARGE
TITLE	LABEL	PWR Cyclic Charge Discharge (Cell) - Charge Step	Test &Identifier
DATE	LABEL	12-7-2017	Date
TIME	LABEL	15:19:10	Time
NOTES	NOTES	3	&Notes...
	supercap test cell
	0.4mg
	6M KOH
PSTAT	PSTAT	IFC5000-01520	Potentiostat
CAPACITY	QUANT	1.00000E-003	Capacity (A-hr)
CELLTYPE	SELECTOR	1	&Cell Type
WORKINGCONNECTION	SELECTOR	0	&Working Lead
MAXCHARGETIME	VARIABLEANDUNITS	1.00000E+002	s	1.00000E+002	second(s)	Max &Charge Time
CHARGECURRENT	QUANT	4.00000E-004	&Charge Current (A) 
VOLTAGEFINISH	TWOPARAM	F	1.00000E-003	3.60000E+003	&Voltage Finish	 I (A) < 	Max Time(s)
SAMPLETIME	QUANT	1.00000E-002	Sa&mple Period (s)
CHARGESTOPAT1	MULTIPARAM	4	1.00000E+000	Charge Stop At &1	Voltage > Limit	V
CHARGESTOPAT2	MULTIPARAM	0	0.00000E+000	Charge Stop At &2	None	N/A
AESBHCSELECTOR	TOGGLE	F	Save Both Half Cells
IRCOMP	TOGGLE	F	IR &Measure
EOC	QUANT	0	Open Circuit (V)
SEQUENCER	TOGGLE	TRUE	Run as Sequence
PSTATMODEL	IQUANT	53	Pstat Model
PSTATSECTION	LABEL	IFC5000-01520	Pstat Section
PSTATSERIALNO	LABEL	01520	Pstat Serial Number
CTRLMODE	IQUANT	0	Control Mode
ELECTROMETER	IQUANT	1	RE=0 or CS=1
IESTAB	IQUANT	0	I/E Stability
CASPEED	IQUANT	4	Control Amp Speed
CONVENTION	IQUANT	1	Current Convention
ICHRANGE	IQUANT	2	Ich Range
ICHRANGEMODE	TOGGLE	T	Ich Auto Range
ICHOFFSETENABLE	TOGGLE	F	Ich Offset Enable
ICHOFFSET	QUANT	0	Ich Offset (V)
ICHFILTER	IQUANT	1	Ich Filter
VCHRANGE	IQUANT	2	Vch Range
VCHRANGEMODE	TOGGLE	T	Vch Auto Range
VCHOFFSETENABLE	TOGGLE	F	Vch Offset Enable
VCHOFFSET	QUANT	0	Vch Offset (V)
VCHFILTER	IQUANT	1	Vch Filter
IERANGELOWERLIMIT	IQUANT	9	I/E Range Lower Limit
IERANGEMODE	TOGGLE	F	I/E AutoRange
IERANGE	IQUANT	9	I/E Range
ACHSELECT	IQUANT	1	Ach Select
ACHRANGE	IQUANT	2	Ach Range
ACHOFFSETENABLE	TOGGLE	F	Ach Offset Enable
ACHOFFSET	QUANT	0	Ach Offset (V)
ACHFILTER	IQUANT	1	Ach Filter
CABLEID	IQUANT	14	Cable ID
DCCALDATE	LABEL	5-7-2017	DC Calibration Date
ACCALDATE	LABEL	12/3/2015	AC Calibration Date
FRAMEWORKVERSION	QUANT	7.01	Framework Version
INSTRUMENTVERSION	LABEL	4.00	Instrument Version
CURVE	TABLE	106
	Pt	T	Vf	Im	Vu	Pwr	Sig	Ach	Temp	IERange	Over
	#	s	V	A	V	W	V	V	deg C	#	bits
	0	0.013333	3.89230E-001	4.01853E-004	0.00000E+000	1.56413E-004	2.40040E-001	3.89329E-001	3.57690E+000	9	...........
	1	0.026667	4.02159E-001	3.99335E-004	0.00000E+000	1.60596E-004	2.40040E-001	4.02238E-001	3.57690E+000	9	...........
	2	0.04	4.13141E-001	4.01476E-004	0.00000E+000	1.65866E-004	2.40040E-001	4.13227E-001	3.57690E+000	9	...........
	3	0.053333	4.23078E-001	4.01641E-004	0.00000E+000	1.69925E-004	2.40040E-001	4.23166E-001	3.57690E+000	9	...........
	4	0.066667	4.32287E-001	4.00910E-004	0.00000E+000	1.73308E-004	2.40040E-001	4.32379E-001	3.57690E+000	9	...........
	5	0.08	4.41096E-001	4.01411E-004	0.00000E+000	1.77061E-004	2.40040E-001	4.41189E-001	3.57690E+000	9	...........
	6	0.093333	4.49558E-001	4.02426E-004	0.00000E+000	1.80914E-004	2.40040E-001	4.49657E-001	3.57690E+000	9	...........
	7	0.106667	4.57752E-001	4.00002E-004	0.00000E+000	1.83102E-004	2.40040E-001	4.57845E-001	3.57690E+000	9	...........
	8	0.12	4.65670E-001	4.01230E-004	0.00000E+000	1.86841E-004	2.40040E-001	4.65763E-001	3.57690E+000	9	...........
	9	0.133333	4.73371E-001	4.01158E-004	0.00000E+000	1.89896E-004	2.40040E-001	4.73465E-001	3.57690E+000	9	...........
	10	0.146667	4.80891E-001	4.00593E-004	0.00000E+000	1.92642E-004	2.40040E-001	4.80989E-001	3.57690E+000	9	...........
	11	0.16	4.88266E-001	4.01396E-004	0.00000E+000	1.95988E-004	2.40040E-001	4.88369E-001	3.57690E+000	9	...........
	12	0.173333	4.95632E-001	4.00574E-004	0.00000E+000	1.98537E-004	2.40040E-001	4.95734E-001	3.57690E+000	9	...........
	13	0.186667	5.02920E-001	4.01673E-004	0.00000E+000	2.02009E-004	2.40040E-001	5.03024E-001	3.57690E+000	9	...........
	14	0.2	5.10086E-001	4.02953E-004	0.00000E+000	2.05541E-004	2.40040E-001	5.10188E-001	3.57690E+000	9	...........
	15	0.213333	5.17110E-001	4.01000E-004	0.00000E+000	2.07361E-004	2.40040E-001	5.17215E-001	3.57690E+000	9	...........
	16	0.226667	5.24073E-001	4.00753E-004	0.00000E+000	2.10024E-004	2.40040E-001	5.24183E-001	3.57690E+000	9	...........
	17	0.24	5.30930E-001	4.00714E-004	0.00000E+000	2.12751E-004	2.40040E-001	5.31049E-001	3.57690E+000	9	...........
	18	0.253333	5.37484E-001	4.00174E-004	0.00000E+000	2.15087E-004	2.40040E-001	5.37710E-001	3.57690E+000	9	...........
	19	0.266667	5.44229E-001	4.00839E-004	0.00000E+000	2.18148E-004	2.40040E-001	5.44466E-001	3.57690E+000	9	...........
	20	0.28	5.50935E-001	4.01575E-004	0.00000E+000	2.21242E-004	2.40040E-001	5.51165E-001	3.57690E+000	9	...........
	21	0.293333	5.57582E-001	4.00669E-004	0.00000E+000	2.23406E-004	2.40040E-001	5.57814E-001	3.57690E+000	9	...........
	22	0.306667	5.64236E-001	4.01854E-004	0.00000E+000	2.26740E-004	2.40040E-001	5.64472E-001	3.57690E+000	9	...........
	23	0.32	5.70846E-001	4.01258E-004	0.00000E+000	2.29056E-004	2.40040E-001	5.71075E-001	3.57690E+000	9	...........
	24	0.333333	5.77389E-001	4.01266E-004	0.00000E+000	2.31686E-004	2.40040E-001	5.77630E-001	3.57690E+000	9	...........
	25	0.346667	5.83812E-001	4.02288E-004	0.00000E+000	2.34861E-004	2.40040E-001	5.84061E-001	3.57690E+000	9	...........
	26	0.36	5.90290E-001	4.01888E-004	0.00000E+000	2.37230E-004	2.40040E-001	5.90540E-001	3.57690E+000	9	...........
	27	0.373333	5.96777E-001	4.00961E-004	0.00000E+000	2.39284E-004	2.40040E-001	5.96995E-001	3.57690E+000	9	...........
	28	0.386667	6.03159E-001	4.00070E-004	0.00000E+000	2.41306E-004	2.40040E-001	6.03403E-001	3.57690E+000	9	...........
	29	0.4	6.09523E-001	4.01012E-004	0.00000E+000	2.44426E-004	2.40040E-001	6.09784E-001	3.57690E+000	9	...........
	30	0.413333	6.15978E-001	4.01085E-004	0.00000E+000	2.47059E-004	2.40040E-001	6.16206E-001	3.57690E+000	9	...........
	31	0.426667	6.22344E-001	4.00084E-004	0.00000E+000	2.48990E-004	2.40040E-001	6.22552E-001	3.57690E+000	9	...........
	32	0.44	6.28629E-001	4.00528E-004	0.00000E+000	2.51784E-004	2.40040E-001	6.28843E-001	3.57690E+000	9	...........
	33	0.453333	6.34862E-001	4.01081E-004	0.00000E+000	2.54632E-004	2.40040E-001	6.35098E-001	3.57690E+000	9	...........
	34	0.466667	6.41076E-001	4.02385E-004	0.00000E+000	2.57959E-004	2.40040E-001	6.41284E-001	3.57690E+000	9	...........
	35	0.48	6.47263E-001	3.99787E-004	0.00000E+000	2.58768E-004	2.40040E-001	6.47492E-001	3.57690E+000	9	...........
	36	0.493333	6.53468E-001	4.00988E-004	0.00000E+000	2.62033E-004	2.40040E-001	6.53712E-001	3.57690E+000	9	...........
	37	0.506667	6.59589E-001	4.00566E-004	0.00000E+000	2.64209E-004	2.40040E-001	6.59833E-001	3.57690E+000	9	...........
	38	0.52	6.65720E-001	4.01077E-004	0.00000E+000	2.67005E-004	2.40040E-001	6.65977E-001	3.57690E+000	9	...........
	39	0.533333	6.71832E-001	4.01171E-004	0.00000E+000	2.69520E-004	2.40040E-001	6.72075E-001	3.57690E+000	9	...........
	40	0.546667	6.77958E-001	4.02087E-004	0.00000E+000	2.72598E-004	2.40040E-001	6.78207E-001	3.57690E+000	9	...........
	41	0.56	6.84019E-001	3.99293E-004	0.00000E+000	2.73124E-004	2.40040E-001	6.84224E-001	3.57690E+000	9	...........
	42	0.573333	6.89999E-001	4.01520E-004	0.00000E+000	2.77048E-004	2.40040E-001	6.90207E-001	3.57690E+000	9	...........
	43	0.586667	6.96029E-001	4.02129E-004	0.00000E+000	2.79893E-004	2.40040E-001	6.96235E-001	3.57690E+000	9	...........
	44	0.6	7.02040E-001	4.01780E-004	0.00000E+000	2.82065E-004	2.40040E-001	7.02258E-001	3.57690E+000	9	...........
	45	0.613333	7.07947E-001	4.00110E-004	0.00000E+000	2.83257E-004	2.40040E-001	7.08208E-001	3.57690E+000	9	...........
	46	0.626667	7.13893E-001	4.00804E-004	0.00000E+000	2.86131E-004	2.40040E-001	7.14156E-001	3.57690E+000	9	...........
	47	0.64	7.19853E-001	4.01041E-004	0.00000E+000	2.88690E-004	2.40040E-001	7.20101E-001	3.57690E+000	9	...........
	48	0.653333	7.25632E-001	4.01317E-004	0.00000E+000	2.91208E-004	2.40040E-001	7.25874E-001	3.57690E+000	9	...........
	49	0.666667	7.31407E-001	3.99607E-004	0.00000E+000	2.92275E-004	2.40040E-001	7.31680E-001	3.57690E+000	9	...........
	50	0.68	7.37165E-001	4.02749E-004	0.00000E+000	2.96892E-004	2.40040E-001	7.37440E-001	3.57690E+000	9	...........
	51	0.693333	7.42952E-001	4.01242E-004	0.00000E+000	2.98104E-004	2.40040E-001	7.43224E-001	3.57690E+000	9	...........
	52	0.706667	7.48693E-001	4.01876E-004	0.00000E+000	3.00882E-004	2.40040E-001	7.48958E-001	3.57690E+000	9	...........
	53	0.72	7.54461E-001	4.01797E-004	0.00000E+000	3.03141E-004	2.40040E-001	7.54725E-001	3.57724E+000	9	...........
	54	0.733333	7.60101E-001	4.00838E-004	0.00000E+000	3.04677E-004	2.40040E-001	7.60376E-001	3.57780E+000	9	...........
	55	0.746667	7.65704E-001	4.01370E-004	0.00000E+000	3.07331E-004	2.40040E-001	7.65992E-001	3.57780E+000	9	...........
	56	0.76	7.71289E-001	4.00836E-004	0.00000E+000	3.09160E-004	2.40040E-001	7.71566E-001	3.57780E+000	9	...........
	57	0.773333	7.76835E-001	4.00536E-004	0.00000E+000	3.11150E-004	2.40040E-001	7.77107E-001	3.57780E+000	9	...........
	58	0.786667	7.82408E-001	4.01309E-004	0.00000E+000	3.13987E-004	2.40040E-001	7.82696E-001	3.57780E+000	9	...........
	59	0.8	7.87900E-001	4.02185E-004	0.00000E+000	3.16881E-004	2.40040E-001	7.88170E-001	3.57780E+000	9	...........
	60	0.813333	7.93403E-001	4.01284E-004	0.00000E+000	3.18380E-004	2.40040E-001	7.93685E-001	3.57780E+000	9	...........
	61	0.826667	7.98758E-001	4.01537E-004	0.00000E+000	3.20731E-004	2.40040E-001	7.99036E-001	3.57780E+000	9	...........
	62	0.84	8.04115E-001	4.01245E-004	0.00000E+000	3.22647E-004	2.40040E-001	8.04405E-001	3.57780E+000	9	...........
	63	0.853333	8.09514E-001	4.01833E-004	0.00000E+000	3.25289E-004	2.40040E-001	8.09770E-001	3.57780E+000	9	...........
	64	0.866667	8.14866E-001	4.00798E-004	0.00000E+000	3.26597E-004	2.40040E-001	8.15122E-001	3.57780E+000	9	...........
	65	0.88	8.20193E-001	4.00106E-004	0.00000E+000	3.28164E-004	2.40040E-001	8.20463E-001	3.57780E+000	9	...........
	66	0.893333	8.25445E-001	4.01744E-004	0.00000E+000	3.31618E-004	2.40040E-001	8.25731E-001	3.57780E+000	9	...........
	67	0.906667	8.30700E-001	4.01121E-004	0.00000E+000	3.33211E-004	2.40040E-001	8.30976E-001	3.57780E+000	9	...........
	68	0.92	8.35893E-001	4.01792E-004	0.00000E+000	3.35855E-004	2.40040E-001	8.36198E-001	3.57780E+000	9	...........
	69	0.933333	8.41063E-001	4.01911E-004	0.00000E+000	3.38033E-004	2.40040E-001	8.41373E-001	3.57780E+000	9	...........
	70	0.946667	8.46233E-001	4.01916E-004	0.00000E+000	3.40115E-004	2.40040E-001	8.46531E-001	3.57780E+000	9	...........
	71	0.96	8.51286E-001	4.01788E-004	0.00000E+000	3.42036E-004	2.40040E-001	8.51561E-001	3.57780E+000	9	...........
	72	0.97333	8.56268E-001	4.01601E-004	0.00000E+000	3.43878E-004	2.40040E-001	8.56569E-001	3.57780E+000	9	...........
	73	0.98667	8.61187E-001	4.01037E-004	0.00000E+000	3.45368E-004	2.40040E-001	8.61482E-001	3.57780E+000	9	...........
	74	1	8.66154E-001	4.00612E-004	0.00000E+000	3.46991E-004	2.40040E-001	8.66453E-001	3.57780E+000	9	...........
	75	1.01333	8.71106E-001	4.00102E-004	0.00000E+000	3.48531E-004	2.40040E-001	8.71391E-001	3.57780E+000	9	...........
	76	1.02667	8.75990E-001	4.01011E-004	0.00000E+000	3.51281E-004	2.40040E-001	8.76266E-001	3.57780E+000	9	...........
	77	1.04	8.80814E-001	4.01603E-004	0.00000E+000	3.53738E-004	2.40040E-001	8.81099E-001	3.57780E+000	9	...........
	78	1.05333	8.85616E-001	4.01009E-004	0.00000E+000	3.55140E-004	2.40040E-001	8.85921E-001	3.57780E+000	9	...........
	79	1.06667	8.90408E-001	4.01349E-004	0.00000E+000	3.57365E-004	2.40040E-001	8.90694E-001	3.57780E+000	9	...........
	80	1.08	8.95070E-001	4.01950E-004	0.00000E+000	3.59774E-004	2.40040E-001	8.95382E-001	3.57780E+000	9	...........
	81	1.09333	8.99751E-001	4.00526E-004	0.00000E+000	3.60374E-004	2.40040E-001	9.00063E-001	3.57780E+000	9	...........
	82	1.10667	9.04339E-001	4.00624E-004	0.00000E+000	3.62300E-004	2.40040E-001	9.04662E-001	3.57780E+000	9	...........
	83	1.12	9.08935E-001	4.01346E-004	0.00000E+000	3.64798E-004	2.40040E-001	9.09253E-001	3.57780E+000	9	...........
	84	1.13333	9.13473E-001	4.01179E-004	0.00000E+000	3.66466E-004	2.40040E-001	9.13799E-001	3.57780E+000	9	...........
	85	1.14667	9.18013E-001	4.02248E-004	0.00000E+000	3.69269E-004	2.40040E-001	9.18357E-001	3.57780E+000	9	...........
	86	1.16	9.22571E-001	4.01246E-004	0.00000E+000	3.70178E-004	2.40040E-001	9.22878E-001	3.57780E+000	9	...........
	87	1.17333	9.27053E-001	4.00661E-004	0.00000E+000	3.71434E-004	2.40040E-001	9.27344E-001	3.57780E+000	9	...........
	88	1.18667	9.31447E-001	4.00628E-004	0.00000E+000	3.73164E-004	2.40040E-001	9.31714E-001	3.57780E+000	9	...........
	89	1.2	9.35800E-001	4.00916E-004	0.00000E+000	3.75177E-004	2.40040E-001	9.36098E-001	3.57780E+000	9	...........
	90	1.21333	9.40058E-001	4.03156E-004	0.00000E+000	3.78990E-004	2.40040E-001	9.40359E-001	3.57780E+000	9	...........
	91	1.22667	9.44347E-001	3.99209E-004	0.00000E+000	3.76992E-004	2.40040E-001	9.44639E-001	3.57780E+000	9	...........
	92	1.24	9.48680E-001	4.01880E-004	0.00000E+000	3.81255E-004	2.40040E-001	9.48974E-001	3.57780E+000	9	...........
	93	1.25333	9.52855E-001	3.99574E-004	0.00000E+000	3.80736E-004	2.40040E-001	9.53145E-001	3.57780E+000	9	...........
	94	1.26667	9.56940E-001	4.02652E-004	0.00000E+000	3.85313E-004	2.40040E-001	9.57250E-001	3.57780E+000	9	...........
	95	1.28	9.61007E-001	4.01923E-004	0.00000E+000	3.86251E-004	2.40040E-001	9.61319E-001	3.57780E+000	9	...........
	96	1.29333	9.65092E-001	4.00782E-004	0.00000E+000	3.86792E-004	2.40040E-001	9.65398E-001	3.57780E+000	9	...........
	97	1.30667	9.69083E-001	4.00876E-004	0.00000E+000	3.88482E-004	2.40040E-001	9.69400E-001	3.57780E+000	9	...........
	98	1.32	9.73096E-001	4.01531E-004	0.00000E+000	3.90728E-004	2.40040E-001	9.73389E-001	3.57780E+000	9	...........
	99	1.33333	9.76955E-001	4.01660E-004	0.00000E+000	3.92404E-004	2.40040E-001	9.77256E-001	3.57780E+000	9	...........
	100	1.34667	9.80774E-001	4.00813E-004	0.00000E+000	3.93107E-004	2.40040E-001	9.81061E-001	3.57780E+000	9	...........
	101	1.36	9.84565E-001	4.01716E-004	0.00000E+000	3.95516E-004	2.40040E-001	9.84887E-001	3.57780E+000	9	...........
	102	1.37333	9.88354E-001	4.01388E-004	0.00000E+000	3.96713E-004	2.40040E-001	9.88720E-001	3.57780E+000	9	...........
	103	1.38667	9.92131E-001	4.02314E-004	0.00000E+000	3.99148E-004	2.40040E-001	9.92472E-001	3.57780E+000	9	...........
	104	1.4	9.95868E-001	4.01855E-004	0.00000E+000	4.00194E-004	2.40040E-001	9.96200E-001	3.57780E+000	9	...........
	105	1.41	9.99089E-001	4.00736E-004	0.00000E+000	4.00371E-004	2.40040E-001	9.99446E-001	3.57780E+000	9	...........
STARTTIMEOFFSET	QUANT	2868.095	Start Time Offset (s)
