EXPLAIN
TAG	PWR800_CHARGE
TITLE	LABEL	PWR Cyclic Charge Discharge (Cell) - Charge Step	Test &Identifier
DATE	LABEL	12-7-2017	Date
TIME	LABEL	14:45:55	Time
NOTES	NOTES	3	&Notes...
	supercap test cell
	0.4mg
	6M KOH
PSTAT	PSTAT	IFC5000-01520	Potentiostat
CAPACITY	QUANT	1.00000E-003	Capacity (A-hr)
CELLTYPE	SELECTOR	1	&Cell Type
WORKINGCONNECTION	SELECTOR	0	&Working Lead
MAXCHARGETIME	VARIABLEANDUNITS	1.00000E+002	s	1.00000E+002	second(s)	Max &Charge Time
CHARGECURRENT	QUANT	4.00000E-004	&Charge Current (A) 
VOLTAGEFINISH	TWOPARAM	F	1.00000E-003	3.60000E+003	&Voltage Finish	 I (A) < 	Max Time(s)
SAMPLETIME	QUANT	1.00000E-002	Sa&mple Period (s)
CHARGESTOPAT1	MULTIPARAM	4	1.00000E+000	Charge Stop At &1	Voltage > Limit	V
CHARGESTOPAT2	MULTIPARAM	0	0.00000E+000	Charge Stop At &2	None	N/A
AESBHCSELECTOR	TOGGLE	F	Save Both Half Cells
IRCOMP	TOGGLE	F	IR &Measure
EOC	QUANT	0	Open Circuit (V)
SEQUENCER	TOGGLE	TRUE	Run as Sequence
PSTATMODEL	IQUANT	53	Pstat Model
PSTATSECTION	LABEL	IFC5000-01520	Pstat Section
PSTATSERIALNO	LABEL	01520	Pstat Serial Number
CTRLMODE	IQUANT	0	Control Mode
ELECTROMETER	IQUANT	1	RE=0 or CS=1
IESTAB	IQUANT	0	I/E Stability
CASPEED	IQUANT	4	Control Amp Speed
CONVENTION	IQUANT	1	Current Convention
ICHRANGE	IQUANT	2	Ich Range
ICHRANGEMODE	TOGGLE	T	Ich Auto Range
ICHOFFSETENABLE	TOGGLE	F	Ich Offset Enable
ICHOFFSET	QUANT	0	Ich Offset (V)
ICHFILTER	IQUANT	1	Ich Filter
VCHRANGE	IQUANT	2	Vch Range
VCHRANGEMODE	TOGGLE	T	Vch Auto Range
VCHOFFSETENABLE	TOGGLE	F	Vch Offset Enable
VCHOFFSET	QUANT	0	Vch Offset (V)
VCHFILTER	IQUANT	1	Vch Filter
IERANGELOWERLIMIT	IQUANT	9	I/E Range Lower Limit
IERANGEMODE	TOGGLE	F	I/E AutoRange
IERANGE	IQUANT	9	I/E Range
ACHSELECT	IQUANT	1	Ach Select
ACHRANGE	IQUANT	2	Ach Range
ACHOFFSETENABLE	TOGGLE	F	Ach Offset Enable
ACHOFFSET	QUANT	0	Ach Offset (V)
ACHFILTER	IQUANT	1	Ach Filter
CABLEID	IQUANT	14	Cable ID
DCCALDATE	LABEL	5-7-2017	DC Calibration Date
ACCALDATE	LABEL	12/3/2015	AC Calibration Date
FRAMEWORKVERSION	QUANT	7.01	Framework Version
INSTRUMENTVERSION	LABEL	4.00	Instrument Version
CURVE	TABLE	121
	Pt	T	Vf	Im	Vu	Pwr	Sig	Ach	Temp	IERange	Over
	#	s	V	A	V	W	V	V	deg C	#	bits
	0	0.013333	3.59446E-001	4.00471E-004	0.00000E+000	1.43948E-004	2.40040E-001	3.59535E-001	3.57660E+000	9	...........
	1	0.026667	3.70697E-001	4.01331E-004	0.00000E+000	1.48772E-004	2.40040E-001	3.70766E-001	3.57660E+000	9	...........
	2	0.04	3.80339E-001	3.99876E-004	0.00000E+000	1.52088E-004	2.40040E-001	3.80406E-001	3.57660E+000	9	...........
	3	0.053333	3.89201E-001	4.01080E-004	0.00000E+000	1.56101E-004	2.40040E-001	3.89276E-001	3.57660E+000	9	...........
	4	0.066667	3.97452E-001	4.01205E-004	0.00000E+000	1.59460E-004	2.40040E-001	3.97523E-001	3.57660E+000	9	...........
	5	0.08	4.05351E-001	4.00732E-004	0.00000E+000	1.62437E-004	2.40040E-001	4.05426E-001	3.57660E+000	9	...........
	6	0.093333	4.12952E-001	4.00827E-004	0.00000E+000	1.65523E-004	2.40040E-001	4.13036E-001	3.57660E+000	9	...........
	7	0.106667	4.20378E-001	3.99716E-004	0.00000E+000	1.68032E-004	2.40040E-001	4.20464E-001	3.57660E+000	9	...........
	8	0.12	4.27599E-001	4.00177E-004	0.00000E+000	1.71115E-004	2.40040E-001	4.27684E-001	3.57660E+000	9	...........
	9	0.133333	4.34579E-001	4.00892E-004	0.00000E+000	1.74219E-004	2.40040E-001	4.34667E-001	3.57660E+000	9	...........
	10	0.146667	4.41476E-001	4.02154E-004	0.00000E+000	1.77541E-004	2.40040E-001	4.41566E-001	3.57660E+000	9	...........
	11	0.16	4.48329E-001	4.01048E-004	0.00000E+000	1.79802E-004	2.40040E-001	4.48417E-001	3.57660E+000	9	...........
	12	0.173333	4.54986E-001	3.99941E-004	0.00000E+000	1.81967E-004	2.40040E-001	4.55081E-001	3.57660E+000	9	...........
	13	0.186667	4.61513E-001	4.01096E-004	0.00000E+000	1.85111E-004	2.40040E-001	4.61603E-001	3.57660E+000	9	...........
	14	0.2	4.68033E-001	4.01086E-004	0.00000E+000	1.87721E-004	2.40040E-001	4.68129E-001	3.57660E+000	9	...........
	15	0.213333	4.74449E-001	4.01954E-004	0.00000E+000	1.90706E-004	2.40040E-001	4.74545E-001	3.57660E+000	9	...........
	16	0.226667	4.80828E-001	4.01074E-004	0.00000E+000	1.92848E-004	2.40040E-001	4.80929E-001	3.57660E+000	9	...........
	17	0.24	4.87212E-001	4.00638E-004	0.00000E+000	1.95195E-004	2.40040E-001	4.87314E-001	3.57660E+000	9	...........
	18	0.253333	4.93490E-001	4.01073E-004	0.00000E+000	1.97926E-004	2.40040E-001	4.93596E-001	3.57660E+000	9	...........
	19	0.266667	4.99715E-001	4.01401E-004	0.00000E+000	2.00586E-004	2.40040E-001	4.99816E-001	3.57660E+000	9	...........
	20	0.28	5.05876E-001	4.00580E-004	0.00000E+000	2.02644E-004	2.40040E-001	5.05981E-001	3.57660E+000	9	...........
	21	0.293333	5.12002E-001	4.01116E-004	0.00000E+000	2.05372E-004	2.40040E-001	5.12110E-001	3.57660E+000	9	...........
	22	0.306667	5.18138E-001	4.01541E-004	0.00000E+000	2.08054E-004	2.40040E-001	5.18244E-001	3.57660E+000	9	...........
	23	0.32	5.24129E-001	4.00858E-004	0.00000E+000	2.10101E-004	2.40040E-001	5.24234E-001	3.57660E+000	9	...........
	24	0.333333	5.30148E-001	4.01172E-004	0.00000E+000	2.12681E-004	2.40040E-001	5.30258E-001	3.57660E+000	9	...........
	25	0.346667	5.35895E-001	4.01185E-004	0.00000E+000	2.14993E-004	2.40040E-001	5.36102E-001	3.57660E+000	9	...........
	26	0.36	5.41857E-001	4.01373E-004	0.00000E+000	2.17487E-004	2.40040E-001	5.42072E-001	3.57660E+000	9	...........
	27	0.373333	5.47850E-001	4.00405E-004	0.00000E+000	2.19362E-004	2.40040E-001	5.48064E-001	3.57660E+000	9	...........
	28	0.386667	5.53776E-001	3.99811E-004	0.00000E+000	2.21406E-004	2.40040E-001	5.54002E-001	3.57660E+000	9	...........
	29	0.4	5.59638E-001	4.00520E-004	0.00000E+000	2.24146E-004	2.40040E-001	5.59884E-001	3.57660E+000	9	...........
	30	0.413333	5.65515E-001	4.01124E-004	0.00000E+000	2.26842E-004	2.40040E-001	5.65716E-001	3.57660E+000	9	...........
	31	0.426667	5.71328E-001	3.99208E-004	0.00000E+000	2.28079E-004	2.40040E-001	5.71545E-001	3.57660E+000	9	...........
	32	0.44	5.77092E-001	3.99372E-004	0.00000E+000	2.30474E-004	2.40040E-001	5.77326E-001	3.57660E+000	9	...........
	33	0.453333	5.82857E-001	4.01463E-004	0.00000E+000	2.33995E-004	2.40040E-001	5.83097E-001	3.57660E+000	9	...........
	34	0.466667	5.88608E-001	3.99695E-004	0.00000E+000	2.35263E-004	2.40040E-001	5.88837E-001	3.57660E+000	9	...........
	35	0.48	5.94271E-001	4.00671E-004	0.00000E+000	2.38107E-004	2.40040E-001	5.94537E-001	3.57660E+000	9	...........
	36	0.493333	6.00037E-001	3.99907E-004	0.00000E+000	2.39959E-004	2.40040E-001	6.00292E-001	3.57660E+000	9	...........
	37	0.506667	6.05767E-001	4.00092E-004	0.00000E+000	2.42362E-004	2.40040E-001	6.06008E-001	3.57660E+000	9	...........
	38	0.52	6.11451E-001	4.01678E-004	0.00000E+000	2.45607E-004	2.40040E-001	6.11738E-001	3.57660E+000	9	...........
	39	0.533333	6.17212E-001	4.01139E-004	0.00000E+000	2.47588E-004	2.40040E-001	6.17443E-001	3.57660E+000	9	...........
	40	0.546667	6.22874E-001	4.00898E-004	0.00000E+000	2.49709E-004	2.40040E-001	6.23119E-001	3.57660E+000	9	...........
	41	0.56	6.28556E-001	4.01063E-004	0.00000E+000	2.52090E-004	2.40040E-001	6.28804E-001	3.57660E+000	9	...........
	42	0.573333	6.34258E-001	4.00416E-004	0.00000E+000	2.53967E-004	2.40040E-001	6.34497E-001	3.57660E+000	9	...........
	43	0.586667	6.39880E-001	4.00693E-004	0.00000E+000	2.56396E-004	2.40040E-001	6.40128E-001	3.57660E+000	9	...........
	44	0.6	6.45384E-001	4.01387E-004	0.00000E+000	2.59048E-004	2.40040E-001	6.45598E-001	3.57660E+000	9	...........
	45	0.613333	6.50958E-001	4.01565E-004	0.00000E+000	2.61402E-004	2.40040E-001	6.51178E-001	3.57660E+000	9	...........
	46	0.626667	6.56514E-001	3.99810E-004	0.00000E+000	2.62481E-004	2.40040E-001	6.56754E-001	3.57660E+000	9	...........
	47	0.64	6.62107E-001	4.01024E-004	0.00000E+000	2.65521E-004	2.40040E-001	6.62339E-001	3.57660E+000	9	...........
	48	0.653333	6.67616E-001	4.01858E-004	0.00000E+000	2.68287E-004	2.40040E-001	6.67849E-001	3.57660E+000	9	...........
	49	0.666667	6.73094E-001	3.99928E-004	0.00000E+000	2.69189E-004	2.40040E-001	6.73337E-001	3.57710E+000	9	...........
	50	0.68	6.78586E-001	4.00173E-004	0.00000E+000	2.71552E-004	2.40040E-001	6.78835E-001	3.57760E+000	9	...........
	51	0.693333	6.84051E-001	3.99330E-004	0.00000E+000	2.73162E-004	2.40040E-001	6.84293E-001	3.57760E+000	9	...........
	52	0.706667	6.89506E-001	3.99830E-004	0.00000E+000	2.75685E-004	2.40040E-001	6.89764E-001	3.57760E+000	9	...........
	53	0.72	6.94986E-001	4.00189E-004	0.00000E+000	2.78125E-004	2.40040E-001	6.95227E-001	3.57760E+000	9	...........
	54	0.733333	7.00369E-001	4.00383E-004	0.00000E+000	2.80416E-004	2.40040E-001	7.00608E-001	3.57760E+000	9	...........
	55	0.746667	7.05733E-001	4.00696E-004	0.00000E+000	2.82785E-004	2.40040E-001	7.05948E-001	3.57760E+000	9	...........
	56	0.76	7.11141E-001	4.02750E-004	0.00000E+000	2.86412E-004	2.40040E-001	7.11361E-001	3.57760E+000	9	...........
	57	0.773333	7.16539E-001	4.01054E-004	0.00000E+000	2.87371E-004	2.40040E-001	7.16791E-001	3.57760E+000	9	...........
	58	0.786667	7.21891E-001	4.00126E-004	0.00000E+000	2.88847E-004	2.40040E-001	7.22116E-001	3.57760E+000	9	...........
	59	0.8	7.27159E-001	4.01238E-004	0.00000E+000	2.91764E-004	2.40040E-001	7.27388E-001	3.57760E+000	9	...........
	60	0.813333	7.32473E-001	4.02316E-004	0.00000E+000	2.94686E-004	2.40040E-001	7.32716E-001	3.57760E+000	9	...........
	61	0.826667	7.37772E-001	4.01450E-004	0.00000E+000	2.96179E-004	2.40040E-001	7.37998E-001	3.57760E+000	9	...........
	62	0.84	7.43047E-001	4.01043E-004	0.00000E+000	2.97994E-004	2.40040E-001	7.43259E-001	3.57760E+000	9	...........
	63	0.853333	7.48312E-001	4.00220E-004	0.00000E+000	2.99489E-004	2.40040E-001	7.48518E-001	3.57760E+000	9	...........
	64	0.866667	7.53505E-001	3.99991E-004	0.00000E+000	3.01395E-004	2.40040E-001	7.53741E-001	3.57760E+000	9	...........
	65	0.88	7.58791E-001	4.00997E-004	0.00000E+000	3.04273E-004	2.40040E-001	7.58985E-001	3.57760E+000	9	...........
	66	0.893333	7.63981E-001	4.01368E-004	0.00000E+000	3.06638E-004	2.40040E-001	7.64194E-001	3.57760E+000	9	...........
	67	0.906667	7.69142E-001	4.00944E-004	0.00000E+000	3.08383E-004	2.40040E-001	7.69401E-001	3.57760E+000	9	...........
	68	0.92	7.74274E-001	4.00528E-004	0.00000E+000	3.10119E-004	2.40040E-001	7.74506E-001	3.57760E+000	9	...........
	69	0.933333	7.79391E-001	4.01120E-004	0.00000E+000	3.12629E-004	2.40040E-001	7.79651E-001	3.57760E+000	9	...........
	70	0.946667	7.84526E-001	4.01363E-004	0.00000E+000	3.14880E-004	2.40040E-001	7.84770E-001	3.57760E+000	9	...........
	71	0.96	7.89632E-001	4.00940E-004	0.00000E+000	3.16595E-004	2.40040E-001	7.89847E-001	3.57760E+000	9	...........
	72	0.97333	7.94714E-001	4.00775E-004	0.00000E+000	3.18502E-004	2.40040E-001	7.94954E-001	3.57760E+000	9	...........
	73	0.98667	7.99719E-001	4.01385E-004	0.00000E+000	3.20995E-004	2.40040E-001	7.99966E-001	3.57760E+000	9	...........
	74	1	8.04746E-001	4.01981E-004	0.00000E+000	3.23492E-004	2.40040E-001	8.04998E-001	3.57760E+000	9	...........
	75	1.01333	8.09731E-001	4.02100E-004	0.00000E+000	3.25593E-004	2.40040E-001	8.10006E-001	3.57760E+000	9	...........
	76	1.02667	8.14644E-001	3.99943E-004	0.00000E+000	3.25811E-004	2.40040E-001	8.14931E-001	3.57760E+000	9	...........
	77	1.04	8.19602E-001	4.01802E-004	0.00000E+000	3.29318E-004	2.40040E-001	8.19877E-001	3.57760E+000	9	...........
	78	1.05333	8.24484E-001	4.00948E-004	0.00000E+000	3.30575E-004	2.40040E-001	8.24797E-001	3.57760E+000	9	...........
	79	1.06667	8.29389E-001	4.00768E-004	0.00000E+000	3.32393E-004	2.40040E-001	8.29646E-001	3.57760E+000	9	...........
	80	1.08	8.34198E-001	4.01845E-004	0.00000E+000	3.35219E-004	2.40040E-001	8.34481E-001	3.57760E+000	9	...........
	81	1.09333	8.38994E-001	4.00393E-004	0.00000E+000	3.35927E-004	2.40040E-001	8.39283E-001	3.57760E+000	9	...........
	82	1.10667	8.43736E-001	4.01649E-004	0.00000E+000	3.38886E-004	2.40040E-001	8.44018E-001	3.57760E+000	9	...........
	83	1.12	8.48406E-001	4.00619E-004	0.00000E+000	3.39888E-004	2.40040E-001	8.48726E-001	3.57760E+000	9	...........
	84	1.13333	8.53159E-001	4.02391E-004	0.00000E+000	3.43304E-004	2.40040E-001	8.53439E-001	3.57760E+000	9	...........
	85	1.14667	8.57900E-001	4.01348E-004	0.00000E+000	3.44317E-004	2.40040E-001	8.58207E-001	3.57760E+000	9	...........
	86	1.16	8.62559E-001	4.00420E-004	0.00000E+000	3.45386E-004	2.40040E-001	8.62863E-001	3.57760E+000	9	...........
	87	1.17333	8.67123E-001	4.00834E-004	0.00000E+000	3.47572E-004	2.40040E-001	8.67427E-001	3.57760E+000	9	...........
	88	1.18667	8.71765E-001	4.00530E-004	0.00000E+000	3.49168E-004	2.40040E-001	8.72058E-001	3.57760E+000	9	...........
	89	1.2	8.76354E-001	4.00091E-004	0.00000E+000	3.50621E-004	2.40040E-001	8.76659E-001	3.57760E+000	9	...........
	90	1.21333	8.80863E-001	4.00773E-004	0.00000E+000	3.53026E-004	2.40040E-001	8.81186E-001	3.57760E+000	9	...........
	91	1.22667	8.85409E-001	4.01385E-004	0.00000E+000	3.55389E-004	2.40040E-001	8.85706E-001	3.57760E+000	9	...........
	92	1.24	8.89852E-001	4.02100E-004	0.00000E+000	3.57810E-004	2.40040E-001	8.90154E-001	3.57760E+000	9	...........
	93	1.25333	8.94281E-001	4.00232E-004	0.00000E+000	3.57920E-004	2.40040E-001	8.94623E-001	3.57760E+000	9	...........
	94	1.26667	8.98707E-001	4.01522E-004	0.00000E+000	3.60851E-004	2.40040E-001	8.99025E-001	3.57760E+000	9	...........
	95	1.28	9.03104E-001	4.01697E-004	0.00000E+000	3.62774E-004	2.40040E-001	9.03447E-001	3.57760E+000	9	...........
	96	1.29333	9.07422E-001	4.01351E-004	0.00000E+000	3.64195E-004	2.40040E-001	9.07754E-001	3.57760E+000	9	...........
	97	1.30667	9.11696E-001	4.01010E-004	0.00000E+000	3.65599E-004	2.40040E-001	9.12034E-001	3.57760E+000	9	...........
	98	1.32	9.15941E-001	4.01233E-004	0.00000E+000	3.67505E-004	2.40040E-001	9.16297E-001	3.57760E+000	9	...........
	99	1.33333	9.20173E-001	3.99593E-004	0.00000E+000	3.67694E-004	2.40040E-001	9.20475E-001	3.57760E+000	9	...........
	100	1.34667	9.24318E-001	4.00838E-004	0.00000E+000	3.70502E-004	2.40040E-001	9.24630E-001	3.57760E+000	9	...........
	101	1.36	9.28531E-001	4.02343E-004	0.00000E+000	3.73588E-004	2.40040E-001	9.28825E-001	3.57760E+000	9	...........
	102	1.37333	9.32632E-001	3.99959E-004	0.00000E+000	3.73015E-004	2.40040E-001	9.32920E-001	3.57760E+000	9	...........
	103	1.38667	9.36714E-001	4.00622E-004	0.00000E+000	3.75268E-004	2.40040E-001	9.37069E-001	3.57760E+000	9	...........
	104	1.4	9.40778E-001	4.02108E-004	0.00000E+000	3.78294E-004	2.40040E-001	9.41104E-001	3.57760E+000	9	...........
	105	1.41333	9.44731E-001	4.01694E-004	0.00000E+000	3.79493E-004	2.40040E-001	9.45074E-001	3.57760E+000	9	...........
	106	1.42667	9.48722E-001	4.00798E-004	0.00000E+000	3.80246E-004	2.40040E-001	9.49036E-001	3.57760E+000	9	...........
	107	1.44	9.52611E-001	4.00497E-004	0.00000E+000	3.81518E-004	2.40040E-001	9.52913E-001	3.57760E+000	9	...........
	108	1.45333	9.56487E-001	4.01403E-004	0.00000E+000	3.83937E-004	2.40040E-001	9.56788E-001	3.57760E+000	9	...........
	109	1.46667	9.60341E-001	4.01062E-004	0.00000E+000	3.85156E-004	2.40040E-001	9.60651E-001	3.57760E+000	9	...........
	110	1.48	9.64183E-001	3.99468E-004	0.00000E+000	3.85160E-004	2.40040E-001	9.64523E-001	3.57760E+000	9	...........
	111	1.49333	9.67960E-001	4.01473E-004	0.00000E+000	3.88610E-004	2.40040E-001	9.68290E-001	3.57760E+000	9	...........
	112	1.50667	9.71781E-001	4.00754E-004	0.00000E+000	3.89445E-004	2.40040E-001	9.72094E-001	3.57760E+000	9	...........
	113	1.52	9.75498E-001	4.00076E-004	0.00000E+000	3.90274E-004	2.40040E-001	9.75813E-001	3.57760E+000	9	...........
	114	1.53333	9.79113E-001	4.01073E-004	0.00000E+000	3.92696E-004	2.40040E-001	9.79421E-001	3.57760E+000	9	...........
	115	1.54667	9.82738E-001	4.01645E-004	0.00000E+000	3.94712E-004	2.40040E-001	9.83041E-001	3.57760E+000	9	...........
	116	1.56	9.86271E-001	4.00178E-004	0.00000E+000	3.94684E-004	2.40040E-001	9.86577E-001	3.57760E+000	9	...........
	117	1.57333	9.89815E-001	4.00469E-004	0.00000E+000	3.96390E-004	2.40040E-001	9.90104E-001	3.57760E+000	9	...........
	118	1.58667	9.93360E-001	4.00693E-004	0.00000E+000	3.98032E-004	2.40040E-001	9.93676E-001	3.57760E+000	9	...........
	119	1.6	9.96862E-001	3.99736E-004	0.00000E+000	3.98482E-004	2.40040E-001	9.97166E-001	3.57760E+000	9	...........
	120	1.60667	9.99386E-001	3.99375E-004	0.00000E+000	3.99130E-004	2.40040E-001	9.99725E-001	3.57760E+000	9	...........
STARTTIMEOFFSET	QUANT	1308.292	Start Time Offset (s)
