EXPLAIN
TAG	PWR800_CHARGE
TITLE	LABEL	PWR Cyclic Charge Discharge (Cell) - Charge Step	Test &Identifier
DATE	LABEL	12-7-2017	Date
TIME	LABEL	14:42:46	Time
NOTES	NOTES	3	&Notes...
	supercap test cell
	0.4mg
	6M KOH
PSTAT	PSTAT	IFC5000-01520	Potentiostat
CAPACITY	QUANT	1.00000E-003	Capacity (A-hr)
CELLTYPE	SELECTOR	1	&Cell Type
WORKINGCONNECTION	SELECTOR	0	&Working Lead
MAXCHARGETIME	VARIABLEANDUNITS	1.00000E+002	s	1.00000E+002	second(s)	Max &Charge Time
CHARGECURRENT	QUANT	4.00000E-004	&Charge Current (A) 
VOLTAGEFINISH	TWOPARAM	F	1.00000E-003	3.60000E+003	&Voltage Finish	 I (A) < 	Max Time(s)
SAMPLETIME	QUANT	1.00000E-002	Sa&mple Period (s)
CHARGESTOPAT1	MULTIPARAM	4	1.00000E+000	Charge Stop At &1	Voltage > Limit	V
CHARGESTOPAT2	MULTIPARAM	0	0.00000E+000	Charge Stop At &2	None	N/A
AESBHCSELECTOR	TOGGLE	F	Save Both Half Cells
IRCOMP	TOGGLE	F	IR &Measure
EOC	QUANT	0	Open Circuit (V)
SEQUENCER	TOGGLE	TRUE	Run as Sequence
PSTATMODEL	IQUANT	53	Pstat Model
PSTATSECTION	LABEL	IFC5000-01520	Pstat Section
PSTATSERIALNO	LABEL	01520	Pstat Serial Number
CTRLMODE	IQUANT	0	Control Mode
ELECTROMETER	IQUANT	1	RE=0 or CS=1
IESTAB	IQUANT	0	I/E Stability
CASPEED	IQUANT	4	Control Amp Speed
CONVENTION	IQUANT	1	Current Convention
ICHRANGE	IQUANT	2	Ich Range
ICHRANGEMODE	TOGGLE	T	Ich Auto Range
ICHOFFSETENABLE	TOGGLE	F	Ich Offset Enable
ICHOFFSET	QUANT	0	Ich Offset (V)
ICHFILTER	IQUANT	1	Ich Filter
VCHRANGE	IQUANT	2	Vch Range
VCHRANGEMODE	TOGGLE	T	Vch Auto Range
VCHOFFSETENABLE	TOGGLE	F	Vch Offset Enable
VCHOFFSET	QUANT	0	Vch Offset (V)
VCHFILTER	IQUANT	1	Vch Filter
IERANGELOWERLIMIT	IQUANT	9	I/E Range Lower Limit
IERANGEMODE	TOGGLE	F	I/E AutoRange
IERANGE	IQUANT	9	I/E Range
ACHSELECT	IQUANT	1	Ach Select
ACHRANGE	IQUANT	2	Ach Range
ACHOFFSETENABLE	TOGGLE	F	Ach Offset Enable
ACHOFFSET	QUANT	0	Ach Offset (V)
ACHFILTER	IQUANT	1	Ach Filter
CABLEID	IQUANT	14	Cable ID
DCCALDATE	LABEL	5-7-2017	DC Calibration Date
ACCALDATE	LABEL	12/3/2015	AC Calibration Date
FRAMEWORKVERSION	QUANT	7.01	Framework Version
INSTRUMENTVERSION	LABEL	4.00	Instrument Version
CURVE	TABLE	123
	Pt	T	Vf	Im	Vu	Pwr	Sig	Ach	Temp	IERange	Over
	#	s	V	A	V	W	V	V	deg C	#	bits
	0	0.013333	3.55824E-001	4.00428E-004	0.00000E+000	1.42482E-004	2.40040E-001	3.55909E-001	3.57660E+000	9	...........
	1	0.026667	3.66893E-001	4.00581E-004	0.00000E+000	1.46970E-004	2.40040E-001	3.66970E-001	3.57660E+000	9	...........
	2	0.04	3.76460E-001	4.01313E-004	0.00000E+000	1.51078E-004	2.40040E-001	3.76531E-001	3.57660E+000	9	...........
	3	0.053333	3.85142E-001	3.99512E-004	0.00000E+000	1.53869E-004	2.40040E-001	3.85209E-001	3.57660E+000	9	...........
	4	0.066667	3.93255E-001	4.01465E-004	0.00000E+000	1.57878E-004	2.40040E-001	3.93327E-001	3.57660E+000	9	...........
	5	0.08	4.01078E-001	4.01177E-004	0.00000E+000	1.60903E-004	2.40040E-001	4.01153E-001	3.57660E+000	9	...........
	6	0.093333	4.08615E-001	4.01256E-004	0.00000E+000	1.63959E-004	2.40040E-001	4.08692E-001	3.57660E+000	9	...........
	7	0.106667	4.15883E-001	4.01470E-004	0.00000E+000	1.66965E-004	2.40040E-001	4.15963E-001	3.57660E+000	9	...........
	8	0.12	4.22958E-001	4.01176E-004	0.00000E+000	1.69681E-004	2.40040E-001	4.23045E-001	3.57660E+000	9	...........
	9	0.133333	4.29825E-001	4.01252E-004	0.00000E+000	1.72468E-004	2.40040E-001	4.29905E-001	3.57660E+000	9	...........
	10	0.146667	4.36629E-001	4.01081E-004	0.00000E+000	1.75124E-004	2.40040E-001	4.36716E-001	3.57660E+000	9	...........
	11	0.16	4.43332E-001	4.00318E-004	0.00000E+000	1.77474E-004	2.40040E-001	4.43418E-001	3.57660E+000	9	...........
	12	0.173333	4.49919E-001	4.02280E-004	0.00000E+000	1.80993E-004	2.40040E-001	4.50007E-001	3.57660E+000	9	...........
	13	0.186667	4.56390E-001	4.00313E-004	0.00000E+000	1.82699E-004	2.40040E-001	4.56477E-001	3.57660E+000	9	...........
	14	0.2	4.62754E-001	4.00602E-004	0.00000E+000	1.85380E-004	2.40040E-001	4.62847E-001	3.57660E+000	9	...........
	15	0.213333	4.69105E-001	4.00392E-004	0.00000E+000	1.87826E-004	2.40040E-001	4.69196E-001	3.57660E+000	9	...........
	16	0.226667	4.75373E-001	4.00637E-004	0.00000E+000	1.90452E-004	2.40040E-001	4.75467E-001	3.57660E+000	9	...........
	17	0.24	4.81599E-001	4.01132E-004	0.00000E+000	1.93184E-004	2.40040E-001	4.81688E-001	3.57660E+000	9	...........
	18	0.253333	4.87731E-001	4.00951E-004	0.00000E+000	1.95556E-004	2.40040E-001	4.87825E-001	3.57660E+000	9	...........
	19	0.266667	4.93868E-001	4.01367E-004	0.00000E+000	1.98222E-004	2.40040E-001	4.93970E-001	3.57660E+000	9	...........
	20	0.28	5.00008E-001	4.00220E-004	0.00000E+000	2.00113E-004	2.40040E-001	5.00111E-001	3.57660E+000	9	...........
	21	0.293333	5.06058E-001	4.02436E-004	0.00000E+000	2.03656E-004	2.40040E-001	5.06166E-001	3.57660E+000	9	...........
	22	0.306667	5.12054E-001	4.00902E-004	0.00000E+000	2.05284E-004	2.40040E-001	5.12158E-001	3.57660E+000	9	...........
	23	0.32	5.18134E-001	4.01176E-004	0.00000E+000	2.07863E-004	2.40040E-001	5.18244E-001	3.57660E+000	9	...........
	24	0.333333	5.24074E-001	4.01413E-004	0.00000E+000	2.10370E-004	2.40040E-001	5.24185E-001	3.57660E+000	9	...........
	25	0.346667	5.29967E-001	4.00685E-004	0.00000E+000	2.12350E-004	2.40040E-001	5.30076E-001	3.57660E+000	9	...........
	26	0.36	5.35649E-001	4.00899E-004	0.00000E+000	2.14741E-004	2.40040E-001	5.35859E-001	3.57660E+000	9	...........
	27	0.373333	5.41527E-001	4.01194E-004	0.00000E+000	2.17257E-004	2.40040E-001	5.41749E-001	3.57660E+000	9	...........
	28	0.386667	5.47360E-001	4.01114E-004	0.00000E+000	2.19554E-004	2.40040E-001	5.47601E-001	3.57660E+000	9	...........
	29	0.4	5.53176E-001	4.01192E-004	0.00000E+000	2.21930E-004	2.40040E-001	5.53410E-001	3.57660E+000	9	...........
	30	0.413333	5.58967E-001	4.01533E-004	0.00000E+000	2.24443E-004	2.40040E-001	5.59169E-001	3.57660E+000	9	...........
	31	0.426667	5.64776E-001	4.01924E-004	0.00000E+000	2.26997E-004	2.40040E-001	5.64956E-001	3.57660E+000	9	...........
	32	0.44	5.70500E-001	4.00635E-004	0.00000E+000	2.28562E-004	2.40040E-001	5.70673E-001	3.57660E+000	9	...........
	33	0.453333	5.76176E-001	4.01195E-004	0.00000E+000	2.31159E-004	2.40040E-001	5.76382E-001	3.57660E+000	9	...........
	34	0.466667	5.81804E-001	4.00275E-004	0.00000E+000	2.32882E-004	2.40040E-001	5.82018E-001	3.57660E+000	9	...........
	35	0.48	5.87529E-001	4.01422E-004	0.00000E+000	2.35847E-004	2.40040E-001	5.87757E-001	3.57660E+000	9	...........
	36	0.493333	5.93236E-001	4.00805E-004	0.00000E+000	2.37772E-004	2.40040E-001	5.93430E-001	3.57660E+000	9	...........
	37	0.506667	5.98808E-001	4.01387E-004	0.00000E+000	2.40354E-004	2.40040E-001	5.99037E-001	3.57660E+000	9	...........
	38	0.52	6.04377E-001	4.01645E-004	0.00000E+000	2.42745E-004	2.40040E-001	6.04638E-001	3.57662E+000	9	...........
	39	0.533333	6.10001E-001	4.00411E-004	0.00000E+000	2.44251E-004	2.40040E-001	6.10229E-001	3.57710E+000	9	...........
	40	0.546667	6.15626E-001	4.00896E-004	0.00000E+000	2.46802E-004	2.40040E-001	6.15893E-001	3.57710E+000	9	...........
	41	0.56	6.21184E-001	4.01690E-004	0.00000E+000	2.49523E-004	2.40040E-001	6.21412E-001	3.57710E+000	9	...........
	42	0.573333	6.26757E-001	4.01499E-004	0.00000E+000	2.51642E-004	2.40040E-001	6.27004E-001	3.57710E+000	9	...........
	43	0.586667	6.32316E-001	3.99630E-004	0.00000E+000	2.52693E-004	2.40040E-001	6.32554E-001	3.57710E+000	9	...........
	44	0.6	6.37797E-001	4.01071E-004	0.00000E+000	2.55802E-004	2.40040E-001	6.38041E-001	3.57710E+000	9	...........
	45	0.613333	6.43319E-001	3.98923E-004	0.00000E+000	2.56635E-004	2.40040E-001	6.43576E-001	3.57710E+000	9	...........
	46	0.626667	6.48796E-001	4.01223E-004	0.00000E+000	2.60312E-004	2.40040E-001	6.49047E-001	3.57710E+000	9	...........
	47	0.64	6.54320E-001	4.01432E-004	0.00000E+000	2.62665E-004	2.40040E-001	6.54554E-001	3.57710E+000	9	...........
	48	0.653333	6.59767E-001	4.00671E-004	0.00000E+000	2.64349E-004	2.40040E-001	6.60018E-001	3.57710E+000	9	...........
	49	0.666667	6.65250E-001	4.00541E-004	0.00000E+000	2.66460E-004	2.40040E-001	6.65518E-001	3.57710E+000	9	...........
	50	0.68	6.70697E-001	4.01357E-004	0.00000E+000	2.69189E-004	2.40040E-001	6.70942E-001	3.57710E+000	9	...........
	51	0.693333	6.76183E-001	4.00664E-004	0.00000E+000	2.70922E-004	2.40040E-001	6.76440E-001	3.57710E+000	9	...........
	52	0.706667	6.81581E-001	4.01931E-004	0.00000E+000	2.73948E-004	2.40040E-001	6.81817E-001	3.57710E+000	9	...........
	53	0.72	6.86900E-001	3.99827E-004	0.00000E+000	2.74641E-004	2.40040E-001	6.87169E-001	3.57710E+000	9	...........
	54	0.733333	6.92257E-001	3.99454E-004	0.00000E+000	2.76525E-004	2.40040E-001	6.92527E-001	3.57710E+000	9	...........
	55	0.746667	6.97593E-001	4.01044E-004	0.00000E+000	2.79765E-004	2.40040E-001	6.97870E-001	3.57710E+000	9	...........
	56	0.76	7.02945E-001	4.02307E-004	0.00000E+000	2.82800E-004	2.40040E-001	7.03202E-001	3.57710E+000	9	...........
	57	0.773333	7.08301E-001	4.01161E-004	0.00000E+000	2.84142E-004	2.40040E-001	7.08546E-001	3.57710E+000	9	...........
	58	0.786667	7.13578E-001	4.00869E-004	0.00000E+000	2.86051E-004	2.40040E-001	7.13823E-001	3.57710E+000	9	...........
	59	0.8	7.18925E-001	4.01271E-004	0.00000E+000	2.88484E-004	2.40040E-001	7.19159E-001	3.57710E+000	9	...........
	60	0.813333	7.24262E-001	4.00577E-004	0.00000E+000	2.90123E-004	2.40040E-001	7.24469E-001	3.57710E+000	9	...........
	61	0.826667	7.29529E-001	4.01782E-004	0.00000E+000	2.93111E-004	2.40040E-001	7.29751E-001	3.57710E+000	9	...........
	62	0.84	7.34789E-001	4.00799E-004	0.00000E+000	2.94503E-004	2.40040E-001	7.35023E-001	3.57710E+000	9	...........
	63	0.853333	7.39996E-001	4.01036E-004	0.00000E+000	2.96765E-004	2.40040E-001	7.40238E-001	3.57710E+000	9	...........
	64	0.866667	7.45251E-001	4.01658E-004	0.00000E+000	2.99336E-004	2.40040E-001	7.45505E-001	3.57710E+000	9	...........
	65	0.88	7.50464E-001	4.00052E-004	0.00000E+000	3.00225E-004	2.40040E-001	7.50711E-001	3.57710E+000	9	...........
	66	0.893333	7.55636E-001	4.00013E-004	0.00000E+000	3.02264E-004	2.40040E-001	7.55877E-001	3.57710E+000	9	...........
	67	0.906667	7.60816E-001	3.99630E-004	0.00000E+000	3.04045E-004	2.40040E-001	7.61039E-001	3.57710E+000	9	...........
	68	0.92	7.65920E-001	4.02142E-004	0.00000E+000	3.08009E-004	2.40040E-001	7.66196E-001	3.57710E+000	9	...........
	69	0.933333	7.71056E-001	4.01421E-004	0.00000E+000	3.09518E-004	2.40040E-001	7.71312E-001	3.57710E+000	9	...........
	70	0.946667	7.76077E-001	4.01082E-004	0.00000E+000	3.11270E-004	2.40040E-001	7.76345E-001	3.57710E+000	9	...........
	71	0.96	7.81183E-001	4.01139E-004	0.00000E+000	3.13363E-004	2.40040E-001	7.81459E-001	3.57710E+000	9	...........
	72	0.97333	7.86232E-001	4.01383E-004	0.00000E+000	3.15580E-004	2.40040E-001	7.86506E-001	3.57710E+000	9	...........
	73	0.98667	7.91305E-001	4.00809E-004	0.00000E+000	3.17162E-004	2.40040E-001	7.91601E-001	3.57710E+000	9	...........
	74	1	7.96332E-001	4.01969E-004	0.00000E+000	3.20101E-004	2.40040E-001	7.96616E-001	3.57710E+000	9	...........
	75	1.01333	8.01295E-001	4.00989E-004	0.00000E+000	3.21310E-004	2.40040E-001	8.01560E-001	3.57710E+000	9	...........
	76	1.02667	8.06206E-001	4.03040E-004	0.00000E+000	3.24933E-004	2.40040E-001	8.06450E-001	3.57710E+000	9	...........
	77	1.04	8.11109E-001	4.01569E-004	0.00000E+000	3.25716E-004	2.40040E-001	8.11367E-001	3.57710E+000	9	...........
	78	1.05333	8.16002E-001	4.00927E-004	0.00000E+000	3.27157E-004	2.40040E-001	8.16251E-001	3.57710E+000	9	...........
	79	1.06667	8.20909E-001	4.00999E-004	0.00000E+000	3.29184E-004	2.40040E-001	8.21153E-001	3.57710E+000	9	...........
	80	1.08	8.25708E-001	4.00703E-004	0.00000E+000	3.30864E-004	2.40040E-001	8.25967E-001	3.57710E+000	9	...........
	81	1.09333	8.30501E-001	4.01362E-004	0.00000E+000	3.33331E-004	2.40040E-001	8.30780E-001	3.57710E+000	9	...........
	82	1.10667	8.35250E-001	4.00315E-004	0.00000E+000	3.34363E-004	2.40040E-001	8.35577E-001	3.57710E+000	9	...........
	83	1.12	8.39994E-001	4.02556E-004	0.00000E+000	3.38145E-004	2.40040E-001	8.40286E-001	3.57710E+000	9	...........
	84	1.13333	8.44779E-001	4.01395E-004	0.00000E+000	3.39090E-004	2.40040E-001	8.45091E-001	3.57710E+000	9	...........
	85	1.14667	8.49442E-001	4.01588E-004	0.00000E+000	3.41125E-004	2.40040E-001	8.49767E-001	3.57710E+000	9	...........
	86	1.16	8.54060E-001	4.00457E-004	0.00000E+000	3.42014E-004	2.40040E-001	8.54361E-001	3.57710E+000	9	...........
	87	1.17333	8.58729E-001	4.00006E-004	0.00000E+000	3.43497E-004	2.40040E-001	8.59072E-001	3.57710E+000	9	...........
	88	1.18667	8.63364E-001	4.00095E-004	0.00000E+000	3.45428E-004	2.40040E-001	8.63689E-001	3.57710E+000	9	...........
	89	1.2	8.67948E-001	4.01229E-004	0.00000E+000	3.48246E-004	2.40040E-001	8.68281E-001	3.57710E+000	9	...........
	90	1.21333	8.72504E-001	4.01023E-004	0.00000E+000	3.49894E-004	2.40040E-001	8.72817E-001	3.57710E+000	9	...........
	91	1.22667	8.76983E-001	4.01115E-004	0.00000E+000	3.51771E-004	2.40040E-001	8.77311E-001	3.57710E+000	9	...........
	92	1.24	8.81442E-001	4.01062E-004	0.00000E+000	3.53513E-004	2.40040E-001	8.81764E-001	3.57710E+000	9	...........
	93	1.25333	8.85863E-001	4.00397E-004	0.00000E+000	3.54697E-004	2.40040E-001	8.86187E-001	3.57710E+000	9	...........
	94	1.26667	8.90240E-001	4.00283E-004	0.00000E+000	3.56348E-004	2.40040E-001	8.90559E-001	3.57710E+000	9	...........
	95	1.28	8.94588E-001	4.01558E-004	0.00000E+000	3.59229E-004	2.40040E-001	8.94922E-001	3.57710E+000	9	...........
	96	1.29333	8.98909E-001	4.01569E-004	0.00000E+000	3.60974E-004	2.40040E-001	8.99227E-001	3.57710E+000	9	...........
	97	1.30667	9.03170E-001	4.00367E-004	0.00000E+000	3.61599E-004	2.40040E-001	9.03514E-001	3.57710E+000	9	...........
	98	1.32	9.07461E-001	4.01253E-004	0.00000E+000	3.64122E-004	2.40040E-001	9.07799E-001	3.57710E+000	9	...........
	99	1.33333	9.11666E-001	4.00869E-004	0.00000E+000	3.65459E-004	2.40040E-001	9.11995E-001	3.57710E+000	9	...........
	100	1.34667	9.15916E-001	4.01273E-004	0.00000E+000	3.67533E-004	2.40040E-001	9.16272E-001	3.57710E+000	9	...........
	101	1.36	9.20130E-001	4.01539E-004	0.00000E+000	3.69468E-004	2.40040E-001	9.20444E-001	3.57710E+000	9	...........
	102	1.37333	9.24278E-001	4.01749E-004	0.00000E+000	3.71328E-004	2.40040E-001	9.24580E-001	3.57710E+000	9	...........
	103	1.38667	9.28345E-001	4.01222E-004	0.00000E+000	3.72472E-004	2.40040E-001	9.28673E-001	3.57710E+000	9	...........
	104	1.4	9.32461E-001	4.02437E-004	0.00000E+000	3.75257E-004	2.40040E-001	9.32773E-001	3.57710E+000	9	...........
	105	1.41333	9.36533E-001	4.00727E-004	0.00000E+000	3.75294E-004	2.40040E-001	9.36852E-001	3.57710E+000	9	...........
	106	1.42667	9.40592E-001	4.02903E-004	0.00000E+000	3.78967E-004	2.40040E-001	9.40924E-001	3.57710E+000	9	...........
	107	1.44	9.44524E-001	4.00883E-004	0.00000E+000	3.78643E-004	2.40040E-001	9.44835E-001	3.57710E+000	9	...........
	108	1.45333	9.48460E-001	3.99723E-004	0.00000E+000	3.79121E-004	2.40040E-001	9.48769E-001	3.57710E+000	9	...........
	109	1.46667	9.52336E-001	4.01254E-004	0.00000E+000	3.82129E-004	2.40040E-001	9.52643E-001	3.57710E+000	9	...........
	110	1.48	9.56210E-001	4.00368E-004	0.00000E+000	3.82836E-004	2.40040E-001	9.56520E-001	3.57710E+000	9	...........
	111	1.49333	9.59987E-001	4.01155E-004	0.00000E+000	3.85104E-004	2.40040E-001	9.60288E-001	3.57710E+000	9	...........
	112	1.50667	9.63706E-001	4.00396E-004	0.00000E+000	3.85864E-004	2.40040E-001	9.64036E-001	3.57710E+000	9	...........
	113	1.52	9.67518E-001	4.00407E-004	0.00000E+000	3.87401E-004	2.40040E-001	9.67850E-001	3.57707E+000	9	...........
	114	1.53333	9.71215E-001	3.99051E-004	0.00000E+000	3.87564E-004	2.40040E-001	9.71551E-001	3.57630E+000	9	...........
	115	1.54667	9.74919E-001	4.00298E-004	0.00000E+000	3.90258E-004	2.40040E-001	9.75215E-001	3.57630E+000	9	...........
	116	1.56	9.78503E-001	4.00225E-004	0.00000E+000	3.91621E-004	2.40040E-001	9.78809E-001	3.57630E+000	9	...........
	117	1.57333	9.82156E-001	4.00171E-004	0.00000E+000	3.93030E-004	2.40040E-001	9.82454E-001	3.57630E+000	9	...........
	118	1.58667	9.85691E-001	4.00888E-004	0.00000E+000	3.95151E-004	2.40040E-001	9.86021E-001	3.57630E+000	9	...........
	119	1.6	9.89232E-001	4.01133E-004	0.00000E+000	3.96813E-004	2.40040E-001	9.89555E-001	3.57630E+000	9	...........
	120	1.61333	9.92696E-001	4.00856E-004	0.00000E+000	3.97929E-004	2.40040E-001	9.93029E-001	3.57630E+000	9	...........
	121	1.62667	9.96215E-001	4.01664E-004	0.00000E+000	4.00143E-004	2.40040E-001	9.96535E-001	3.57630E+000	9	...........
	122	1.63667	9.99234E-001	4.01009E-004	0.00000E+000	4.00702E-004	2.40040E-001	9.99559E-001	3.57630E+000	9	...........
STARTTIMEOFFSET	QUANT	1159.346	Start Time Offset (s)
