EXPLAIN
TAG	PWR800_CHARGE
TITLE	LABEL	PWR Cyclic Charge Discharge (Cell) - Charge Step	Test &Identifier
DATE	LABEL	12-7-2017	Date
TIME	LABEL	14:29:34	Time
NOTES	NOTES	3	&Notes...
	supercap test cell
	0.4mg
	6M KOH
PSTAT	PSTAT	IFC5000-01520	Potentiostat
CAPACITY	QUANT	1.00000E-003	Capacity (A-hr)
CELLTYPE	SELECTOR	1	&Cell Type
WORKINGCONNECTION	SELECTOR	0	&Working Lead
MAXCHARGETIME	VARIABLEANDUNITS	1.00000E+002	s	1.00000E+002	second(s)	Max &Charge Time
CHARGECURRENT	QUANT	4.00000E-004	&Charge Current (A) 
VOLTAGEFINISH	TWOPARAM	F	1.00000E-003	3.60000E+003	&Voltage Finish	 I (A) < 	Max Time(s)
SAMPLETIME	QUANT	1.00000E-002	Sa&mple Period (s)
CHARGESTOPAT1	MULTIPARAM	4	1.00000E+000	Charge Stop At &1	Voltage > Limit	V
CHARGESTOPAT2	MULTIPARAM	0	0.00000E+000	Charge Stop At &2	None	N/A
AESBHCSELECTOR	TOGGLE	F	Save Both Half Cells
IRCOMP	TOGGLE	F	IR &Measure
EOC	QUANT	0	Open Circuit (V)
SEQUENCER	TOGGLE	TRUE	Run as Sequence
PSTATMODEL	IQUANT	53	Pstat Model
PSTATSECTION	LABEL	IFC5000-01520	Pstat Section
PSTATSERIALNO	LABEL	01520	Pstat Serial Number
CTRLMODE	IQUANT	0	Control Mode
ELECTROMETER	IQUANT	1	RE=0 or CS=1
IESTAB	IQUANT	0	I/E Stability
CASPEED	IQUANT	4	Control Amp Speed
CONVENTION	IQUANT	1	Current Convention
ICHRANGE	IQUANT	2	Ich Range
ICHRANGEMODE	TOGGLE	T	Ich Auto Range
ICHOFFSETENABLE	TOGGLE	F	Ich Offset Enable
ICHOFFSET	QUANT	0	Ich Offset (V)
ICHFILTER	IQUANT	1	Ich Filter
VCHRANGE	IQUANT	2	Vch Range
VCHRANGEMODE	TOGGLE	T	Vch Auto Range
VCHOFFSETENABLE	TOGGLE	F	Vch Offset Enable
VCHOFFSET	QUANT	0	Vch Offset (V)
VCHFILTER	IQUANT	1	Vch Filter
IERANGELOWERLIMIT	IQUANT	9	I/E Range Lower Limit
IERANGEMODE	TOGGLE	F	I/E AutoRange
IERANGE	IQUANT	9	I/E Range
ACHSELECT	IQUANT	1	Ach Select
ACHRANGE	IQUANT	2	Ach Range
ACHOFFSETENABLE	TOGGLE	F	Ach Offset Enable
ACHOFFSET	QUANT	0	Ach Offset (V)
ACHFILTER	IQUANT	1	Ach Filter
CABLEID	IQUANT	14	Cable ID
DCCALDATE	LABEL	5-7-2017	DC Calibration Date
ACCALDATE	LABEL	12/3/2015	AC Calibration Date
FRAMEWORKVERSION	QUANT	7.01	Framework Version
INSTRUMENTVERSION	LABEL	4.00	Instrument Version
CURVE	TABLE	134
	Pt	T	Vf	Im	Vu	Pwr	Sig	Ach	Temp	IERange	Over
	#	s	V	A	V	W	V	V	deg C	#	bits
	0	0.013333	3.42201E-001	4.01685E-004	0.00000E+000	1.37457E-004	2.40040E-001	3.42291E-001	3.57590E+000	9	...........
	1	0.026667	3.52344E-001	4.00078E-004	0.00000E+000	1.40965E-004	2.40040E-001	3.52414E-001	3.57590E+000	9	...........
	2	0.04	3.61126E-001	4.01595E-004	0.00000E+000	1.45027E-004	2.40040E-001	3.61196E-001	3.57590E+000	9	...........
	3	0.053333	3.69104E-001	4.01586E-004	0.00000E+000	1.48227E-004	2.40040E-001	3.69180E-001	3.57658E+000	9	...........
	4	0.066667	3.76656E-001	3.99690E-004	0.00000E+000	1.50545E-004	2.40040E-001	3.76731E-001	3.57660E+000	9	...........
	5	0.08	3.83861E-001	4.01336E-004	0.00000E+000	1.54057E-004	2.40040E-001	3.83943E-001	3.57660E+000	9	...........
	6	0.093333	3.90794E-001	3.98817E-004	0.00000E+000	1.55856E-004	2.40040E-001	3.90873E-001	3.57660E+000	9	...........
	7	0.106667	3.97571E-001	4.02520E-004	0.00000E+000	1.60030E-004	2.40040E-001	3.97652E-001	3.57660E+000	9	...........
	8	0.12	4.04114E-001	4.01186E-004	0.00000E+000	1.62125E-004	2.40040E-001	4.04195E-001	3.57660E+000	9	...........
	9	0.133333	4.10558E-001	4.00470E-004	0.00000E+000	1.64416E-004	2.40040E-001	4.10646E-001	3.57660E+000	9	...........
	10	0.146667	4.16881E-001	4.00237E-004	0.00000E+000	1.66851E-004	2.40040E-001	4.16967E-001	3.57660E+000	9	...........
	11	0.16	4.23123E-001	4.00577E-004	0.00000E+000	1.69493E-004	2.40040E-001	4.23208E-001	3.57660E+000	9	...........
	12	0.173333	4.29279E-001	4.01653E-004	0.00000E+000	1.72421E-004	2.40040E-001	4.29365E-001	3.57660E+000	9	...........
	13	0.186667	4.35341E-001	4.00052E-004	0.00000E+000	1.74159E-004	2.40040E-001	4.35428E-001	3.57660E+000	9	...........
	14	0.2	4.41359E-001	4.01238E-004	0.00000E+000	1.77090E-004	2.40040E-001	4.41443E-001	3.57660E+000	9	...........
	15	0.213333	4.47313E-001	4.01152E-004	0.00000E+000	1.79441E-004	2.40040E-001	4.47400E-001	3.57660E+000	9	...........
	16	0.226667	4.53125E-001	4.01628E-004	0.00000E+000	1.81988E-004	2.40040E-001	4.53214E-001	3.57660E+000	9	...........
	17	0.24	4.58960E-001	4.00698E-004	0.00000E+000	1.83905E-004	2.40040E-001	4.59051E-001	3.57660E+000	9	...........
	18	0.253333	4.64713E-001	4.00042E-004	0.00000E+000	1.85904E-004	2.40040E-001	4.64804E-001	3.57660E+000	9	...........
	19	0.266667	4.70468E-001	4.00304E-004	0.00000E+000	1.88330E-004	2.40040E-001	4.70560E-001	3.57660E+000	9	...........
	20	0.28	4.76173E-001	4.00354E-004	0.00000E+000	1.90638E-004	2.40040E-001	4.76264E-001	3.57660E+000	9	...........
	21	0.293333	4.81855E-001	4.01069E-004	0.00000E+000	1.93257E-004	2.40040E-001	4.81952E-001	3.57660E+000	9	...........
	22	0.306667	4.87483E-001	4.00913E-004	0.00000E+000	1.95438E-004	2.40040E-001	4.87579E-001	3.57660E+000	9	...........
	23	0.32	4.93065E-001	4.00401E-004	0.00000E+000	1.97424E-004	2.40040E-001	4.93169E-001	3.57660E+000	9	...........
	24	0.333333	4.98701E-001	4.00573E-004	0.00000E+000	1.99766E-004	2.40040E-001	4.98805E-001	3.57660E+000	9	...........
	25	0.346667	5.04227E-001	4.00540E-004	0.00000E+000	2.01963E-004	2.40040E-001	5.04331E-001	3.57660E+000	9	...........
	26	0.36	5.09721E-001	4.00569E-004	0.00000E+000	2.04179E-004	2.40040E-001	5.09827E-001	3.57660E+000	9	...........
	27	0.373333	5.15235E-001	4.00464E-004	0.00000E+000	2.06333E-004	2.40040E-001	5.15342E-001	3.57660E+000	9	...........
	28	0.386667	5.20737E-001	4.01773E-004	0.00000E+000	2.09218E-004	2.40040E-001	5.20852E-001	3.57660E+000	9	...........
	29	0.4	5.26143E-001	4.01030E-004	0.00000E+000	2.10999E-004	2.40040E-001	5.26244E-001	3.57660E+000	9	...........
	30	0.413333	5.31546E-001	4.00960E-004	0.00000E+000	2.13128E-004	2.40040E-001	5.31656E-001	3.57660E+000	9	...........
	31	0.426667	5.36784E-001	4.01688E-004	0.00000E+000	2.15619E-004	2.40040E-001	5.37035E-001	3.57660E+000	9	...........
	32	0.44	5.42254E-001	4.00387E-004	0.00000E+000	2.17111E-004	2.40040E-001	5.42495E-001	3.57660E+000	9	...........
	33	0.453333	5.47578E-001	4.01767E-004	0.00000E+000	2.19999E-004	2.40040E-001	5.47789E-001	3.57660E+000	9	...........
	34	0.466667	5.52935E-001	3.99916E-004	0.00000E+000	2.21127E-004	2.40040E-001	5.53162E-001	3.57660E+000	9	...........
	35	0.48	5.58270E-001	3.99647E-004	0.00000E+000	2.23111E-004	2.40040E-001	5.58516E-001	3.57660E+000	9	...........
	36	0.493333	5.63695E-001	4.01674E-004	0.00000E+000	2.26422E-004	2.40040E-001	5.63936E-001	3.57660E+000	9	...........
	37	0.506667	5.69010E-001	4.01295E-004	0.00000E+000	2.28341E-004	2.40040E-001	5.69242E-001	3.57660E+000	9	...........
	38	0.52	5.74311E-001	4.00939E-004	0.00000E+000	2.30264E-004	2.40040E-001	5.74553E-001	3.57660E+000	9	...........
	39	0.533333	5.79563E-001	4.00539E-004	0.00000E+000	2.32137E-004	2.40040E-001	5.79812E-001	3.57660E+000	9	...........
	40	0.546667	5.84863E-001	4.01838E-004	0.00000E+000	2.35020E-004	2.40040E-001	5.85095E-001	3.57660E+000	9	...........
	41	0.56	5.90119E-001	4.02576E-004	0.00000E+000	2.37568E-004	2.40040E-001	5.90387E-001	3.57660E+000	9	...........
	42	0.573333	5.95446E-001	4.00827E-004	0.00000E+000	2.38671E-004	2.40040E-001	5.95671E-001	3.57660E+000	9	...........
	43	0.586667	6.00718E-001	4.02239E-004	0.00000E+000	2.41632E-004	2.40040E-001	6.00943E-001	3.57660E+000	9	...........
	44	0.6	6.05987E-001	4.01049E-004	0.00000E+000	2.43030E-004	2.40040E-001	6.06245E-001	3.57660E+000	9	...........
	45	0.613333	6.11201E-001	4.01688E-004	0.00000E+000	2.45512E-004	2.40040E-001	6.11477E-001	3.57660E+000	9	...........
	46	0.626667	6.16456E-001	4.02159E-004	0.00000E+000	2.47913E-004	2.40040E-001	6.16678E-001	3.57660E+000	9	...........
	47	0.64	6.21607E-001	4.01478E-004	0.00000E+000	2.49562E-004	2.40040E-001	6.21828E-001	3.57660E+000	9	...........
	48	0.653333	6.26773E-001	4.02356E-004	0.00000E+000	2.52186E-004	2.40040E-001	6.27009E-001	3.57660E+000	9	...........
	49	0.666667	6.31960E-001	4.01251E-004	0.00000E+000	2.53575E-004	2.40040E-001	6.32218E-001	3.57660E+000	9	...........
	50	0.68	6.37156E-001	4.01765E-004	0.00000E+000	2.55987E-004	2.40040E-001	6.37402E-001	3.57660E+000	9	...........
	51	0.693333	6.42295E-001	4.00822E-004	0.00000E+000	2.57446E-004	2.40040E-001	6.42543E-001	3.57660E+000	9	...........
	52	0.706667	6.47472E-001	4.01269E-004	0.00000E+000	2.59810E-004	2.40040E-001	6.47717E-001	3.57660E+000	9	...........
	53	0.72	6.52629E-001	4.00924E-004	0.00000E+000	2.61655E-004	2.40040E-001	6.52878E-001	3.57660E+000	9	...........
	54	0.733333	6.57713E-001	4.01378E-004	0.00000E+000	2.63992E-004	2.40040E-001	6.57954E-001	3.57660E+000	9	...........
	55	0.746667	6.62851E-001	4.01666E-004	0.00000E+000	2.66245E-004	2.40040E-001	6.63103E-001	3.57660E+000	9	...........
	56	0.76	6.67965E-001	4.01042E-004	0.00000E+000	2.67882E-004	2.40040E-001	6.68183E-001	3.57660E+000	9	...........
	57	0.773333	6.72981E-001	4.01526E-004	0.00000E+000	2.70220E-004	2.40040E-001	6.73198E-001	3.57660E+000	9	...........
	58	0.786667	6.78031E-001	4.01237E-004	0.00000E+000	2.72051E-004	2.40040E-001	6.78254E-001	3.57660E+000	9	...........
	59	0.8	6.83040E-001	4.01489E-004	0.00000E+000	2.74233E-004	2.40040E-001	6.83262E-001	3.57660E+000	9	...........
	60	0.813333	6.88122E-001	4.00694E-004	0.00000E+000	2.75726E-004	2.40040E-001	6.88354E-001	3.57660E+000	9	...........
	61	0.826667	6.93188E-001	4.00215E-004	0.00000E+000	2.77424E-004	2.40040E-001	6.93404E-001	3.57660E+000	9	...........
	62	0.84	6.98228E-001	4.00805E-004	0.00000E+000	2.79854E-004	2.40040E-001	6.98455E-001	3.57660E+000	9	...........
	63	0.853333	7.03230E-001	4.01027E-004	0.00000E+000	2.82014E-004	2.40040E-001	7.03452E-001	3.57660E+000	9	...........
	64	0.866667	7.08222E-001	4.00552E-004	0.00000E+000	2.83680E-004	2.40040E-001	7.08480E-001	3.57660E+000	9	...........
	65	0.88	7.13199E-001	4.00191E-004	0.00000E+000	2.85416E-004	2.40040E-001	7.13449E-001	3.57660E+000	9	...........
	66	0.893333	7.18228E-001	4.00254E-004	0.00000E+000	2.87474E-004	2.40040E-001	7.18480E-001	3.57660E+000	9	...........
	67	0.906667	7.23142E-001	4.01458E-004	0.00000E+000	2.90311E-004	2.40040E-001	7.23373E-001	3.57660E+000	9	...........
	68	0.92	7.28041E-001	4.00590E-004	0.00000E+000	2.91646E-004	2.40040E-001	7.28254E-001	3.57660E+000	9	...........
	69	0.933333	7.32932E-001	4.01836E-004	0.00000E+000	2.94518E-004	2.40040E-001	7.33191E-001	3.57660E+000	9	...........
	70	0.946667	7.37895E-001	4.01709E-004	0.00000E+000	2.96419E-004	2.40040E-001	7.38136E-001	3.57660E+000	9	...........
	71	0.96	7.42817E-001	4.01445E-004	0.00000E+000	2.98200E-004	2.40040E-001	7.43044E-001	3.57660E+000	9	...........
	72	0.97333	7.47655E-001	4.01680E-004	0.00000E+000	3.00318E-004	2.40040E-001	7.47892E-001	3.57660E+000	9	...........
	73	0.98667	7.52565E-001	4.01239E-004	0.00000E+000	3.01958E-004	2.40040E-001	7.52784E-001	3.57660E+000	9	...........
	74	1	7.57480E-001	4.02541E-004	0.00000E+000	3.04917E-004	2.40040E-001	7.57677E-001	3.57660E+000	9	...........
	75	1.01333	7.62336E-001	4.01025E-004	0.00000E+000	3.05716E-004	2.40040E-001	7.62552E-001	3.57660E+000	9	...........
	76	1.02667	7.67077E-001	4.01302E-004	0.00000E+000	3.07830E-004	2.40040E-001	7.67326E-001	3.57660E+000	9	...........
	77	1.04	7.71835E-001	4.01686E-004	0.00000E+000	3.10035E-004	2.40040E-001	7.72067E-001	3.57660E+000	9	...........
	78	1.05333	7.76567E-001	4.00944E-004	0.00000E+000	3.11360E-004	2.40040E-001	7.76789E-001	3.57650E+000	9	...........
	79	1.06667	7.81345E-001	4.01000E-004	0.00000E+000	3.13320E-004	2.40040E-001	7.81586E-001	3.57650E+000	9	...........
	80	1.08	7.86071E-001	3.99752E-004	0.00000E+000	3.14233E-004	2.40040E-001	7.86299E-001	3.57650E+000	9	...........
	81	1.09333	7.90825E-001	4.01670E-004	0.00000E+000	3.17651E-004	2.40040E-001	7.91082E-001	3.57650E+000	9	...........
	82	1.10667	7.95485E-001	4.00822E-004	0.00000E+000	3.18848E-004	2.40040E-001	7.95729E-001	3.57650E+000	9	...........
	83	1.12	8.00127E-001	4.02167E-004	0.00000E+000	3.21785E-004	2.40040E-001	8.00353E-001	3.57650E+000	9	...........
	84	1.13333	8.04686E-001	4.01385E-004	0.00000E+000	3.22989E-004	2.40040E-001	8.04948E-001	3.57650E+000	9	...........
	85	1.14667	8.09317E-001	4.01086E-004	0.00000E+000	3.24605E-004	2.40040E-001	8.09593E-001	3.57650E+000	9	...........
	86	1.16	8.13960E-001	4.00904E-004	0.00000E+000	3.26320E-004	2.40040E-001	8.14258E-001	3.57650E+000	9	...........
	87	1.17333	8.18520E-001	4.01266E-004	0.00000E+000	3.28444E-004	2.40040E-001	8.18803E-001	3.57650E+000	9	...........
	88	1.18667	8.23073E-001	4.01850E-004	0.00000E+000	3.30752E-004	2.40040E-001	8.23358E-001	3.57650E+000	9	...........
	89	1.2	8.27570E-001	4.01241E-004	0.00000E+000	3.32055E-004	2.40040E-001	8.27846E-001	3.57650E+000	9	...........
	90	1.21333	8.32018E-001	4.00427E-004	0.00000E+000	3.33163E-004	2.40040E-001	8.32298E-001	3.57650E+000	9	...........
	91	1.22667	8.36548E-001	3.99986E-004	0.00000E+000	3.34608E-004	2.40040E-001	8.36848E-001	3.57650E+000	9	...........
	92	1.24	8.41050E-001	4.00568E-004	0.00000E+000	3.36898E-004	2.40040E-001	8.41346E-001	3.57650E+000	9	...........
	93	1.25333	8.45569E-001	4.01847E-004	0.00000E+000	3.39790E-004	2.40040E-001	8.45871E-001	3.57650E+000	9	...........
	94	1.26667	8.50029E-001	4.00718E-004	0.00000E+000	3.40622E-004	2.40040E-001	8.50301E-001	3.57650E+000	9	...........
	95	1.28	8.54413E-001	3.99598E-004	0.00000E+000	3.41422E-004	2.40040E-001	8.54661E-001	3.57650E+000	9	...........
	96	1.29333	8.58701E-001	4.00651E-004	0.00000E+000	3.44040E-004	2.40040E-001	8.58969E-001	3.57650E+000	9	...........
	97	1.30667	8.63012E-001	4.01223E-004	0.00000E+000	3.46260E-004	2.40040E-001	8.63271E-001	3.57650E+000	9	...........
	98	1.32	8.67298E-001	4.01128E-004	0.00000E+000	3.47898E-004	2.40040E-001	8.67588E-001	3.57650E+000	9	...........
	99	1.33333	8.71567E-001	4.00060E-004	0.00000E+000	3.48680E-004	2.40040E-001	8.71829E-001	3.57650E+000	9	...........
	100	1.34667	8.75838E-001	4.01248E-004	0.00000E+000	3.51428E-004	2.40040E-001	8.76119E-001	3.57650E+000	9	...........
	101	1.36	8.80040E-001	4.00927E-004	0.00000E+000	3.52832E-004	2.40040E-001	8.80322E-001	3.57650E+000	9	...........
	102	1.37333	8.84243E-001	4.01648E-004	0.00000E+000	3.55155E-004	2.40040E-001	8.84519E-001	3.57650E+000	9	...........
	103	1.38667	8.88360E-001	4.00493E-004	0.00000E+000	3.55782E-004	2.40040E-001	8.88658E-001	3.57650E+000	9	...........
	104	1.4	8.92471E-001	4.01661E-004	0.00000E+000	3.58471E-004	2.40040E-001	8.92772E-001	3.57650E+000	9	...........
	105	1.41333	8.96610E-001	4.01350E-004	0.00000E+000	3.59855E-004	2.40040E-001	8.96915E-001	3.57650E+000	9	...........
	106	1.42667	9.00704E-001	4.00751E-004	0.00000E+000	3.60958E-004	2.40040E-001	9.01013E-001	3.57650E+000	9	...........
	107	1.44	9.04745E-001	4.00910E-004	0.00000E+000	3.62721E-004	2.40040E-001	9.05075E-001	3.57650E+000	9	...........
	108	1.45333	9.08804E-001	4.00294E-004	0.00000E+000	3.63788E-004	2.40040E-001	9.09105E-001	3.57650E+000	9	...........
	109	1.46667	9.12790E-001	4.00851E-004	0.00000E+000	3.65893E-004	2.40040E-001	9.13104E-001	3.57650E+000	9	...........
	110	1.48	9.16732E-001	4.00896E-004	0.00000E+000	3.67514E-004	2.40040E-001	9.17040E-001	3.57650E+000	9	...........
	111	1.49333	9.20735E-001	3.99863E-004	0.00000E+000	3.68168E-004	2.40040E-001	9.20988E-001	3.57650E+000	9	...........
	112	1.50667	9.24649E-001	4.01104E-004	0.00000E+000	3.70881E-004	2.40040E-001	9.24898E-001	3.57650E+000	9	...........
	113	1.52	9.28501E-001	4.01274E-004	0.00000E+000	3.72583E-004	2.40040E-001	9.28771E-001	3.57650E+000	9	...........
	114	1.53333	9.32387E-001	4.00008E-004	0.00000E+000	3.72963E-004	2.40040E-001	9.32620E-001	3.57650E+000	9	...........
	115	1.54667	9.36185E-001	4.01478E-004	0.00000E+000	3.75858E-004	2.40040E-001	9.36460E-001	3.57650E+000	9	...........
	116	1.56	9.39951E-001	4.01250E-004	0.00000E+000	3.77156E-004	2.40040E-001	9.40220E-001	3.57650E+000	9	...........
	117	1.57333	9.43684E-001	4.01382E-004	0.00000E+000	3.78777E-004	2.40040E-001	9.43965E-001	3.57650E+000	9	...........
	118	1.58667	9.47409E-001	4.01419E-004	0.00000E+000	3.80308E-004	2.40040E-001	9.47709E-001	3.57650E+000	9	...........
	119	1.6	9.51012E-001	4.02410E-004	0.00000E+000	3.82697E-004	2.40040E-001	9.51316E-001	3.57650E+000	9	...........
	120	1.61333	9.54732E-001	4.01291E-004	0.00000E+000	3.83125E-004	2.40040E-001	9.55029E-001	3.57650E+000	9	...........
	121	1.62667	9.58342E-001	4.01247E-004	0.00000E+000	3.84532E-004	2.40040E-001	9.58669E-001	3.57650E+000	9	...........
	122	1.64	9.61902E-001	4.01266E-004	0.00000E+000	3.85978E-004	2.40040E-001	9.62219E-001	3.57650E+000	9	...........
	123	1.65333	9.65455E-001	4.00986E-004	0.00000E+000	3.87133E-004	2.40040E-001	9.65774E-001	3.57650E+000	9	...........
	124	1.66667	9.68950E-001	4.01865E-004	0.00000E+000	3.89387E-004	2.40040E-001	9.69275E-001	3.57650E+000	9	...........
	125	1.68	9.72430E-001	4.00578E-004	0.00000E+000	3.89534E-004	2.40040E-001	9.72728E-001	3.57650E+000	9	...........
	126	1.69333	9.75842E-001	4.01298E-004	0.00000E+000	3.91604E-004	2.40040E-001	9.76114E-001	3.57650E+000	9	...........
	127	1.70667	9.79276E-001	4.00766E-004	0.00000E+000	3.92460E-004	2.40040E-001	9.79545E-001	3.57650E+000	9	...........
	128	1.72	9.82681E-001	4.01228E-004	0.00000E+000	3.94279E-004	2.40040E-001	9.82949E-001	3.57650E+000	9	...........
	129	1.73333	9.86073E-001	4.00351E-004	0.00000E+000	3.94776E-004	2.40040E-001	9.86336E-001	3.57650E+000	9	...........
	130	1.74667	9.89443E-001	4.01229E-004	0.00000E+000	3.96994E-004	2.40040E-001	9.89714E-001	3.57650E+000	9	...........
	131	1.76	9.92671E-001	4.01182E-004	0.00000E+000	3.98241E-004	2.40040E-001	9.92967E-001	3.57650E+000	9	...........
	132	1.77333	9.95905E-001	3.99377E-004	0.00000E+000	3.97741E-004	2.40040E-001	9.96194E-001	3.57650E+000	9	...........
	133	1.785	9.98903E-001	4.00827E-004	0.00000E+000	4.00387E-004	2.40040E-001	9.99216E-001	3.57650E+000	9	...........
STARTTIMEOFFSET	QUANT	528.7617	Start Time Offset (s)
