EXPLAIN
TAG	PWR800_CHARGE
TITLE	LABEL	PWR Cyclic Charge Discharge (Cell) - Charge Step	Test &Identifier
DATE	LABEL	12-7-2017	Date
TIME	LABEL	15:04:53	Time
NOTES	NOTES	3	&Notes...
	supercap test cell
	0.4mg
	6M KOH
PSTAT	PSTAT	IFC5000-01520	Potentiostat
CAPACITY	QUANT	1.00000E-003	Capacity (A-hr)
CELLTYPE	SELECTOR	1	&Cell Type
WORKINGCONNECTION	SELECTOR	0	&Working Lead
MAXCHARGETIME	VARIABLEANDUNITS	1.00000E+002	s	1.00000E+002	second(s)	Max &Charge Time
CHARGECURRENT	QUANT	4.00000E-004	&Charge Current (A) 
VOLTAGEFINISH	TWOPARAM	F	1.00000E-003	3.60000E+003	&Voltage Finish	 I (A) < 	Max Time(s)
SAMPLETIME	QUANT	1.00000E-002	Sa&mple Period (s)
CHARGESTOPAT1	MULTIPARAM	4	1.00000E+000	Charge Stop At &1	Voltage > Limit	V
CHARGESTOPAT2	MULTIPARAM	0	0.00000E+000	Charge Stop At &2	None	N/A
AESBHCSELECTOR	TOGGLE	F	Save Both Half Cells
IRCOMP	TOGGLE	F	IR &Measure
EOC	QUANT	0	Open Circuit (V)
SEQUENCER	TOGGLE	TRUE	Run as Sequence
PSTATMODEL	IQUANT	53	Pstat Model
PSTATSECTION	LABEL	IFC5000-01520	Pstat Section
PSTATSERIALNO	LABEL	01520	Pstat Serial Number
CTRLMODE	IQUANT	0	Control Mode
ELECTROMETER	IQUANT	1	RE=0 or CS=1
IESTAB	IQUANT	0	I/E Stability
CASPEED	IQUANT	4	Control Amp Speed
CONVENTION	IQUANT	1	Current Convention
ICHRANGE	IQUANT	2	Ich Range
ICHRANGEMODE	TOGGLE	T	Ich Auto Range
ICHOFFSETENABLE	TOGGLE	F	Ich Offset Enable
ICHOFFSET	QUANT	0	Ich Offset (V)
ICHFILTER	IQUANT	1	Ich Filter
VCHRANGE	IQUANT	2	Vch Range
VCHRANGEMODE	TOGGLE	T	Vch Auto Range
VCHOFFSETENABLE	TOGGLE	F	Vch Offset Enable
VCHOFFSET	QUANT	0	Vch Offset (V)
VCHFILTER	IQUANT	1	Vch Filter
IERANGELOWERLIMIT	IQUANT	9	I/E Range Lower Limit
IERANGEMODE	TOGGLE	F	I/E AutoRange
IERANGE	IQUANT	9	I/E Range
ACHSELECT	IQUANT	1	Ach Select
ACHRANGE	IQUANT	2	Ach Range
ACHOFFSETENABLE	TOGGLE	F	Ach Offset Enable
ACHOFFSET	QUANT	0	Ach Offset (V)
ACHFILTER	IQUANT	1	Ach Filter
CABLEID	IQUANT	14	Cable ID
DCCALDATE	LABEL	5-7-2017	DC Calibration Date
ACCALDATE	LABEL	12/3/2015	AC Calibration Date
FRAMEWORKVERSION	QUANT	7.01	Framework Version
INSTRUMENTVERSION	LABEL	4.00	Instrument Version
CURVE	TABLE	112
	Pt	T	Vf	Im	Vu	Pwr	Sig	Ach	Temp	IERange	Over
	#	s	V	A	V	W	V	V	deg C	#	bits
	0	0.013333	3.77580E-001	4.00665E-004	0.00000E+000	1.51283E-004	2.40040E-001	3.77681E-001	3.57680E+000	9	...........
	1	0.026667	3.89791E-001	4.00626E-004	0.00000E+000	1.56161E-004	2.40040E-001	3.89875E-001	3.57680E+000	9	...........
	2	0.04	4.00351E-001	4.01811E-004	0.00000E+000	1.60865E-004	2.40040E-001	4.00430E-001	3.57680E+000	9	...........
	3	0.053333	4.09825E-001	4.00256E-004	0.00000E+000	1.64035E-004	2.40040E-001	4.09910E-001	3.57680E+000	9	...........
	4	0.066667	4.18690E-001	4.00862E-004	0.00000E+000	1.67837E-004	2.40040E-001	4.18778E-001	3.57680E+000	9	...........
	5	0.08	4.27174E-001	4.00554E-004	0.00000E+000	1.71107E-004	2.40040E-001	4.27263E-001	3.57680E+000	9	...........
	6	0.093333	4.35294E-001	4.01259E-004	0.00000E+000	1.74666E-004	2.40040E-001	4.35383E-001	3.57680E+000	9	...........
	7	0.106667	4.43105E-001	4.01259E-004	0.00000E+000	1.77800E-004	2.40040E-001	4.43201E-001	3.57680E+000	9	...........
	8	0.12	4.50741E-001	4.01078E-004	0.00000E+000	1.80782E-004	2.40040E-001	4.50831E-001	3.57680E+000	9	...........
	9	0.133333	4.58225E-001	4.01237E-004	0.00000E+000	1.83857E-004	2.40040E-001	4.58316E-001	3.57680E+000	9	...........
	10	0.146667	4.65534E-001	4.01148E-004	0.00000E+000	1.86748E-004	2.40040E-001	4.65630E-001	3.57680E+000	9	...........
	11	0.16	4.72715E-001	4.00414E-004	0.00000E+000	1.89281E-004	2.40040E-001	4.72807E-001	3.57680E+000	9	...........
	12	0.173333	4.79744E-001	4.00885E-004	0.00000E+000	1.92322E-004	2.40040E-001	4.79838E-001	3.57680E+000	9	...........
	13	0.186667	4.86718E-001	4.00303E-004	0.00000E+000	1.94835E-004	2.40040E-001	4.86817E-001	3.57680E+000	9	...........
	14	0.2	4.93588E-001	4.00487E-004	0.00000E+000	1.97675E-004	2.40040E-001	4.93686E-001	3.57680E+000	9	...........
	15	0.213333	5.00415E-001	3.99591E-004	0.00000E+000	1.99961E-004	2.40040E-001	5.00517E-001	3.57680E+000	9	...........
	16	0.226667	5.07179E-001	4.01781E-004	0.00000E+000	2.03775E-004	2.40040E-001	5.07283E-001	3.57680E+000	9	...........
	17	0.24	5.13793E-001	4.00427E-004	0.00000E+000	2.05737E-004	2.40040E-001	5.13896E-001	3.57680E+000	9	...........
	18	0.253333	5.20413E-001	4.02231E-004	0.00000E+000	2.09326E-004	2.40040E-001	5.20516E-001	3.57680E+000	9	...........
	19	0.266667	5.26995E-001	3.99109E-004	0.00000E+000	2.10329E-004	2.40040E-001	5.27106E-001	3.57680E+000	9	...........
	20	0.28	5.33373E-001	4.00452E-004	0.00000E+000	2.13591E-004	2.40040E-001	5.33526E-001	3.57680E+000	9	...........
	21	0.293333	5.39778E-001	3.99780E-004	0.00000E+000	2.15793E-004	2.40040E-001	5.39986E-001	3.57680E+000	9	...........
	22	0.306667	5.46180E-001	4.01349E-004	0.00000E+000	2.19209E-004	2.40040E-001	5.46381E-001	3.57680E+000	9	...........
	23	0.32	5.52529E-001	4.00904E-004	0.00000E+000	2.21511E-004	2.40040E-001	5.52742E-001	3.57680E+000	9	...........
	24	0.333333	5.58793E-001	4.00836E-004	0.00000E+000	2.23984E-004	2.40040E-001	5.59021E-001	3.57680E+000	9	...........
	25	0.346667	5.65178E-001	4.01024E-004	0.00000E+000	2.26650E-004	2.40040E-001	5.65392E-001	3.57680E+000	9	...........
	26	0.36	5.71475E-001	4.00433E-004	0.00000E+000	2.28838E-004	2.40040E-001	5.71672E-001	3.57680E+000	9	...........
	27	0.373333	5.77710E-001	4.01936E-004	0.00000E+000	2.32202E-004	2.40040E-001	5.77965E-001	3.57680E+000	9	...........
	28	0.386667	5.83903E-001	4.01299E-004	0.00000E+000	2.34320E-004	2.40040E-001	5.84135E-001	3.57680E+000	9	...........
	29	0.4	5.90084E-001	4.00734E-004	0.00000E+000	2.36467E-004	2.40040E-001	5.90305E-001	3.57680E+000	9	...........
	30	0.413333	5.96249E-001	4.01456E-004	0.00000E+000	2.39368E-004	2.40040E-001	5.96495E-001	3.57680E+000	9	...........
	31	0.426667	6.02338E-001	4.01086E-004	0.00000E+000	2.41589E-004	2.40040E-001	6.02625E-001	3.57680E+000	9	...........
	32	0.44	6.08419E-001	4.01041E-004	0.00000E+000	2.44001E-004	2.40040E-001	6.08711E-001	3.57680E+000	9	...........
	33	0.453333	6.14549E-001	4.01617E-004	0.00000E+000	2.46813E-004	2.40040E-001	6.14798E-001	3.57680E+000	9	...........
	34	0.466667	6.20593E-001	4.02594E-004	0.00000E+000	2.49847E-004	2.40040E-001	6.20807E-001	3.57680E+000	9	...........
	35	0.48	6.26661E-001	4.00929E-004	0.00000E+000	2.51247E-004	2.40040E-001	6.26868E-001	3.57680E+000	9	...........
	36	0.493333	6.32678E-001	4.00806E-004	0.00000E+000	2.53581E-004	2.40040E-001	6.32899E-001	3.57680E+000	9	...........
	37	0.506667	6.38717E-001	4.01140E-004	0.00000E+000	2.56215E-004	2.40040E-001	6.38913E-001	3.57680E+000	9	...........
	38	0.52	6.44690E-001	4.00772E-004	0.00000E+000	2.58374E-004	2.40040E-001	6.44881E-001	3.57680E+000	9	...........
	39	0.533333	6.50628E-001	4.01910E-004	0.00000E+000	2.61494E-004	2.40040E-001	6.50811E-001	3.57680E+000	9	...........
	40	0.546667	6.56587E-001	4.00627E-004	0.00000E+000	2.63047E-004	2.40040E-001	6.56754E-001	3.57680E+000	9	...........
	41	0.56	6.62523E-001	4.01283E-004	0.00000E+000	2.65859E-004	2.40040E-001	6.62707E-001	3.57680E+000	9	...........
	42	0.573333	6.68397E-001	3.99488E-004	0.00000E+000	2.67017E-004	2.40040E-001	6.68588E-001	3.57680E+000	9	...........
	43	0.586667	6.74264E-001	4.00831E-004	0.00000E+000	2.70266E-004	2.40040E-001	6.74455E-001	3.57755E+000	9	...........
	44	0.6	6.80079E-001	4.01716E-004	0.00000E+000	2.73199E-004	2.40040E-001	6.80304E-001	3.57780E+000	9	...........
	45	0.613333	6.85934E-001	4.00127E-004	0.00000E+000	2.74461E-004	2.40040E-001	6.86142E-001	3.57780E+000	9	...........
	46	0.626667	6.91762E-001	4.01494E-004	0.00000E+000	2.77738E-004	2.40040E-001	6.91988E-001	3.57780E+000	9	...........
	47	0.64	6.97554E-001	4.00672E-004	0.00000E+000	2.79490E-004	2.40040E-001	6.97788E-001	3.57780E+000	9	...........
	48	0.653333	7.03358E-001	4.00151E-004	0.00000E+000	2.81449E-004	2.40040E-001	7.03604E-001	3.57780E+000	9	...........
	49	0.666667	7.09070E-001	4.01804E-004	0.00000E+000	2.84907E-004	2.40040E-001	7.09300E-001	3.57780E+000	9	...........
	50	0.68	7.14759E-001	4.00430E-004	0.00000E+000	2.86211E-004	2.40040E-001	7.15014E-001	3.57780E+000	9	...........
	51	0.693333	7.20503E-001	4.00728E-004	0.00000E+000	2.88726E-004	2.40040E-001	7.20759E-001	3.57780E+000	9	...........
	52	0.706667	7.26139E-001	4.01336E-004	0.00000E+000	2.91425E-004	2.40040E-001	7.26350E-001	3.57780E+000	9	...........
	53	0.72	7.31779E-001	4.00960E-004	0.00000E+000	2.93414E-004	2.40040E-001	7.32015E-001	3.57780E+000	9	...........
	54	0.733333	7.37363E-001	4.01735E-004	0.00000E+000	2.96224E-004	2.40040E-001	7.37591E-001	3.57780E+000	9	...........
	55	0.746667	7.42986E-001	4.01687E-004	0.00000E+000	2.98448E-004	2.40040E-001	7.43226E-001	3.57780E+000	9	...........
	56	0.76	7.48522E-001	4.00442E-004	0.00000E+000	2.99739E-004	2.40040E-001	7.48762E-001	3.57780E+000	9	...........
	57	0.773333	7.54054E-001	4.01349E-004	0.00000E+000	3.02639E-004	2.40040E-001	7.54291E-001	3.57780E+000	9	...........
	58	0.786667	7.59527E-001	4.01311E-004	0.00000E+000	3.04806E-004	2.40040E-001	7.59779E-001	3.57780E+000	9	...........
	59	0.8	7.65005E-001	4.01155E-004	0.00000E+000	3.06886E-004	2.40040E-001	7.65269E-001	3.57780E+000	9	...........
	60	0.813333	7.70431E-001	4.01415E-004	0.00000E+000	3.09263E-004	2.40040E-001	7.70700E-001	3.57780E+000	9	...........
	61	0.826667	7.75823E-001	4.01472E-004	0.00000E+000	3.11471E-004	2.40040E-001	7.76107E-001	3.57780E+000	9	...........
	62	0.84	7.81249E-001	4.01684E-004	0.00000E+000	3.13815E-004	2.40040E-001	7.81550E-001	3.57780E+000	9	...........
	63	0.853333	7.86627E-001	4.01567E-004	0.00000E+000	3.15884E-004	2.40040E-001	7.86922E-001	3.57780E+000	9	...........
	64	0.866667	7.91960E-001	4.00682E-004	0.00000E+000	3.17325E-004	2.40040E-001	7.92259E-001	3.57780E+000	9	...........
	65	0.88	7.97222E-001	3.99211E-004	0.00000E+000	3.18260E-004	2.40040E-001	7.97505E-001	3.57780E+000	9	...........
	66	0.893333	8.02497E-001	4.02044E-004	0.00000E+000	3.22639E-004	2.40040E-001	8.02776E-001	3.57780E+000	9	...........
	67	0.906667	8.07709E-001	4.00154E-004	0.00000E+000	3.23208E-004	2.40040E-001	8.08005E-001	3.57780E+000	9	...........
	68	0.92	8.12882E-001	4.00430E-004	0.00000E+000	3.25503E-004	2.40040E-001	8.13150E-001	3.57780E+000	9	...........
	69	0.933333	8.18039E-001	4.01906E-004	0.00000E+000	3.28774E-004	2.40040E-001	8.18323E-001	3.57780E+000	9	...........
	70	0.946667	8.23197E-001	4.00635E-004	0.00000E+000	3.29801E-004	2.40040E-001	8.23478E-001	3.57780E+000	9	...........
	71	0.96	8.28250E-001	4.02527E-004	0.00000E+000	3.33393E-004	2.40040E-001	8.28531E-001	3.57780E+000	9	...........
	72	0.97333	8.33287E-001	4.01265E-004	0.00000E+000	3.34369E-004	2.40040E-001	8.33557E-001	3.57780E+000	9	...........
	73	0.98667	8.38281E-001	4.01239E-004	0.00000E+000	3.36351E-004	2.40040E-001	8.38575E-001	3.57780E+000	9	...........
	74	1	8.43359E-001	4.00632E-004	0.00000E+000	3.37877E-004	2.40040E-001	8.43647E-001	3.57780E+000	9	...........
	75	1.01333	8.48309E-001	4.02044E-004	0.00000E+000	3.41058E-004	2.40040E-001	8.48582E-001	3.57780E+000	9	...........
	76	1.02667	8.53216E-001	4.00170E-004	0.00000E+000	3.41431E-004	2.40040E-001	8.53497E-001	3.57780E+000	9	...........
	77	1.04	8.58170E-001	4.00394E-004	0.00000E+000	3.43606E-004	2.40040E-001	8.58487E-001	3.57780E+000	9	...........
	78	1.05333	8.63070E-001	4.01625E-004	0.00000E+000	3.46631E-004	2.40040E-001	8.63384E-001	3.57780E+000	9	...........
	79	1.06667	8.67893E-001	4.00806E-004	0.00000E+000	3.47857E-004	2.40040E-001	8.68216E-001	3.57780E+000	9	...........
	80	1.08	8.72658E-001	4.00561E-004	0.00000E+000	3.49552E-004	2.40040E-001	8.72951E-001	3.57780E+000	9	...........
	81	1.09333	8.77348E-001	4.01598E-004	0.00000E+000	3.52342E-004	2.40040E-001	8.77652E-001	3.57780E+000	9	...........
	82	1.10667	8.82072E-001	4.01567E-004	0.00000E+000	3.54211E-004	2.40040E-001	8.82369E-001	3.57780E+000	9	...........
	83	1.12	8.86693E-001	3.99611E-004	0.00000E+000	3.54333E-004	2.40040E-001	8.87012E-001	3.57780E+000	9	...........
	84	1.13333	8.91350E-001	4.00480E-004	0.00000E+000	3.56968E-004	2.40040E-001	8.91664E-001	3.57780E+000	9	...........
	85	1.14667	8.95989E-001	4.00766E-004	0.00000E+000	3.59082E-004	2.40040E-001	8.96315E-001	3.57780E+000	9	...........
	86	1.16	9.00522E-001	4.01348E-004	0.00000E+000	3.61423E-004	2.40040E-001	9.00839E-001	3.57780E+000	9	...........
	87	1.17333	9.05005E-001	4.01495E-004	0.00000E+000	3.63355E-004	2.40040E-001	9.05340E-001	3.57780E+000	9	...........
	88	1.18667	9.09533E-001	4.01446E-004	0.00000E+000	3.65128E-004	2.40040E-001	9.09860E-001	3.57780E+000	9	...........
	89	1.2	9.13989E-001	4.01541E-004	0.00000E+000	3.67004E-004	2.40040E-001	9.14302E-001	3.57780E+000	9	...........
	90	1.21333	9.18397E-001	4.01433E-004	0.00000E+000	3.68675E-004	2.40040E-001	9.18729E-001	3.57780E+000	9	...........
	91	1.22667	9.22837E-001	4.01199E-004	0.00000E+000	3.70242E-004	2.40040E-001	9.23117E-001	3.57780E+000	9	...........
	92	1.24	9.27149E-001	4.01150E-004	0.00000E+000	3.71926E-004	2.40040E-001	9.27427E-001	3.57780E+000	9	...........
	93	1.25333	9.31462E-001	4.00483E-004	0.00000E+000	3.73035E-004	2.40040E-001	9.31756E-001	3.57780E+000	9	...........
	94	1.26667	9.35735E-001	4.00464E-004	0.00000E+000	3.74728E-004	2.40040E-001	9.36051E-001	3.57780E+000	9	...........
	95	1.28	9.39909E-001	4.00994E-004	0.00000E+000	3.76898E-004	2.40040E-001	9.40221E-001	3.57780E+000	9	...........
	96	1.29333	9.44065E-001	4.00688E-004	0.00000E+000	3.78275E-004	2.40040E-001	9.44368E-001	3.57780E+000	9	...........
	97	1.30667	9.48219E-001	4.00259E-004	0.00000E+000	3.79534E-004	2.40040E-001	9.48524E-001	3.57780E+000	9	...........
	98	1.32	9.52335E-001	4.01323E-004	0.00000E+000	3.82194E-004	2.40040E-001	9.52648E-001	3.57780E+000	9	...........
	99	1.33333	9.56347E-001	4.02258E-004	0.00000E+000	3.84698E-004	2.40040E-001	9.56651E-001	3.57780E+000	9	...........
	100	1.34667	9.60333E-001	3.99506E-004	0.00000E+000	3.83659E-004	2.40040E-001	9.60661E-001	3.57780E+000	9	...........
	101	1.36	9.64323E-001	4.00283E-004	0.00000E+000	3.86002E-004	2.40040E-001	9.64649E-001	3.57780E+000	9	...........
	102	1.37333	9.68189E-001	4.00172E-004	0.00000E+000	3.87442E-004	2.40040E-001	9.68521E-001	3.57780E+000	9	...........
	103	1.38667	9.72152E-001	4.01517E-004	0.00000E+000	3.90336E-004	2.40040E-001	9.72501E-001	3.57780E+000	9	...........
	104	1.4	9.76042E-001	4.00070E-004	0.00000E+000	3.90485E-004	2.40040E-001	9.76386E-001	3.57780E+000	9	...........
	105	1.41333	9.79931E-001	4.01552E-004	0.00000E+000	3.93494E-004	2.40040E-001	9.80246E-001	3.57780E+000	9	...........
	106	1.42667	9.83680E-001	4.01204E-004	0.00000E+000	3.94657E-004	2.40040E-001	9.83999E-001	3.57780E+000	9	...........
	107	1.44	9.87401E-001	4.01981E-004	0.00000E+000	3.96916E-004	2.40040E-001	9.87719E-001	3.57780E+000	9	...........
	108	1.45333	9.91083E-001	3.99661E-004	0.00000E+000	3.96098E-004	2.40040E-001	9.91400E-001	3.57780E+000	9	...........
	109	1.46667	9.94714E-001	4.00762E-004	0.00000E+000	3.98643E-004	2.40040E-001	9.95040E-001	3.57780E+000	9	...........
	110	1.48	9.98348E-001	4.00544E-004	0.00000E+000	3.99882E-004	2.40040E-001	9.98670E-001	3.57780E+000	9	...........
	111	1.48167	1.00035E+000	3.99452E-004	0.00000E+000	3.99590E-004	2.40040E-001	1.00072E+000	3.57780E+000	9	...........
STARTTIMEOFFSET	QUANT	2201.231	Start Time Offset (s)
