EXPLAIN
TAG	PWR800_CHARGE
TITLE	LABEL	PWR Cyclic Charge Discharge (Cell) - Charge Step	Test &Identifier
DATE	LABEL	12-7-2017	Date
TIME	LABEL	14:57:12	Time
NOTES	NOTES	3	&Notes...
	supercap test cell
	0.4mg
	6M KOH
PSTAT	PSTAT	IFC5000-01520	Potentiostat
CAPACITY	QUANT	1.00000E-003	Capacity (A-hr)
CELLTYPE	SELECTOR	1	&Cell Type
WORKINGCONNECTION	SELECTOR	0	&Working Lead
MAXCHARGETIME	VARIABLEANDUNITS	1.00000E+002	s	1.00000E+002	second(s)	Max &Charge Time
CHARGECURRENT	QUANT	4.00000E-004	&Charge Current (A) 
VOLTAGEFINISH	TWOPARAM	F	1.00000E-003	3.60000E+003	&Voltage Finish	 I (A) < 	Max Time(s)
SAMPLETIME	QUANT	1.00000E-002	Sa&mple Period (s)
CHARGESTOPAT1	MULTIPARAM	4	1.00000E+000	Charge Stop At &1	Voltage > Limit	V
CHARGESTOPAT2	MULTIPARAM	0	0.00000E+000	Charge Stop At &2	None	N/A
AESBHCSELECTOR	TOGGLE	F	Save Both Half Cells
IRCOMP	TOGGLE	F	IR &Measure
EOC	QUANT	0	Open Circuit (V)
SEQUENCER	TOGGLE	TRUE	Run as Sequence
PSTATMODEL	IQUANT	53	Pstat Model
PSTATSECTION	LABEL	IFC5000-01520	Pstat Section
PSTATSERIALNO	LABEL	01520	Pstat Serial Number
CTRLMODE	IQUANT	0	Control Mode
ELECTROMETER	IQUANT	1	RE=0 or CS=1
IESTAB	IQUANT	0	I/E Stability
CASPEED	IQUANT	4	Control Amp Speed
CONVENTION	IQUANT	1	Current Convention
ICHRANGE	IQUANT	2	Ich Range
ICHRANGEMODE	TOGGLE	T	Ich Auto Range
ICHOFFSETENABLE	TOGGLE	F	Ich Offset Enable
ICHOFFSET	QUANT	0	Ich Offset (V)
ICHFILTER	IQUANT	1	Ich Filter
VCHRANGE	IQUANT	2	Vch Range
VCHRANGEMODE	TOGGLE	T	Vch Auto Range
VCHOFFSETENABLE	TOGGLE	F	Vch Offset Enable
VCHOFFSET	QUANT	0	Vch Offset (V)
VCHFILTER	IQUANT	1	Vch Filter
IERANGELOWERLIMIT	IQUANT	9	I/E Range Lower Limit
IERANGEMODE	TOGGLE	F	I/E AutoRange
IERANGE	IQUANT	9	I/E Range
ACHSELECT	IQUANT	1	Ach Select
ACHRANGE	IQUANT	2	Ach Range
ACHOFFSETENABLE	TOGGLE	F	Ach Offset Enable
ACHOFFSET	QUANT	0	Ach Offset (V)
ACHFILTER	IQUANT	1	Ach Filter
CABLEID	IQUANT	14	Cable ID
DCCALDATE	LABEL	5-7-2017	DC Calibration Date
ACCALDATE	LABEL	12/3/2015	AC Calibration Date
FRAMEWORKVERSION	QUANT	7.01	Framework Version
INSTRUMENTVERSION	LABEL	4.00	Instrument Version
CURVE	TABLE	115
	Pt	T	Vf	Im	Vu	Pwr	Sig	Ach	Temp	IERange	Over
	#	s	V	A	V	W	V	V	deg C	#	bits
	0	0.013333	3.71400E-001	4.01223E-004	0.00000E+000	1.49014E-004	2.40040E-001	3.71484E-001	3.57680E+000	9	...........
	1	0.026667	3.83197E-001	4.00391E-004	0.00000E+000	1.53429E-004	2.40040E-001	3.83271E-001	3.57680E+000	9	...........
	2	0.04	3.93382E-001	4.00258E-004	0.00000E+000	1.57455E-004	2.40040E-001	3.93452E-001	3.57680E+000	9	...........
	3	0.053333	4.02627E-001	4.01795E-004	0.00000E+000	1.61774E-004	2.40040E-001	4.02706E-001	3.57680E+000	9	...........
	4	0.066667	4.11324E-001	4.00357E-004	0.00000E+000	1.64677E-004	2.40040E-001	4.11405E-001	3.57680E+000	9	...........
	5	0.08	4.19570E-001	4.01544E-004	0.00000E+000	1.68476E-004	2.40040E-001	4.19654E-001	3.57680E+000	9	...........
	6	0.093333	4.27448E-001	4.01969E-004	0.00000E+000	1.71821E-004	2.40040E-001	4.27536E-001	3.57680E+000	9	...........
	7	0.106667	4.35124E-001	4.01650E-004	0.00000E+000	1.74768E-004	2.40040E-001	4.35210E-001	3.57680E+000	9	...........
	8	0.12	4.42551E-001	4.00925E-004	0.00000E+000	1.77430E-004	2.40040E-001	4.42642E-001	3.57680E+000	9	...........
	9	0.133333	4.49883E-001	4.01407E-004	0.00000E+000	1.80586E-004	2.40040E-001	4.49972E-001	3.57680E+000	9	...........
	10	0.146667	4.57075E-001	4.01474E-004	0.00000E+000	1.83504E-004	2.40040E-001	4.57167E-001	3.57680E+000	9	...........
	11	0.16	4.64132E-001	4.01105E-004	0.00000E+000	1.86166E-004	2.40040E-001	4.64223E-001	3.57680E+000	9	...........
	12	0.173333	4.71091E-001	4.00921E-004	0.00000E+000	1.88870E-004	2.40040E-001	4.71182E-001	3.57680E+000	9	...........
	13	0.186667	4.77909E-001	4.00418E-004	0.00000E+000	1.91363E-004	2.40040E-001	4.78005E-001	3.57680E+000	9	...........
	14	0.2	4.84672E-001	4.01000E-004	0.00000E+000	1.94354E-004	2.40040E-001	4.84768E-001	3.57680E+000	9	...........
	15	0.213333	4.91284E-001	4.00049E-004	0.00000E+000	1.96537E-004	2.40040E-001	4.91379E-001	3.57680E+000	9	...........
	16	0.226667	4.97795E-001	4.01432E-004	0.00000E+000	1.99831E-004	2.40040E-001	4.97892E-001	3.57680E+000	9	...........
	17	0.24	5.04351E-001	4.02071E-004	0.00000E+000	2.02785E-004	2.40040E-001	5.04444E-001	3.57680E+000	9	...........
	18	0.253333	5.10856E-001	4.01008E-004	0.00000E+000	2.04857E-004	2.40040E-001	5.10957E-001	3.57680E+000	9	...........
	19	0.266667	5.17299E-001	4.00712E-004	0.00000E+000	2.07288E-004	2.40040E-001	5.17395E-001	3.57680E+000	9	...........
	20	0.28	5.23678E-001	4.00625E-004	0.00000E+000	2.09798E-004	2.40040E-001	5.23779E-001	3.57680E+000	9	...........
	21	0.293333	5.30059E-001	4.01182E-004	0.00000E+000	2.12650E-004	2.40040E-001	5.30167E-001	3.57680E+000	9	...........
	22	0.306667	5.36096E-001	4.00866E-004	0.00000E+000	2.14902E-004	2.40040E-001	5.36270E-001	3.57680E+000	9	...........
	23	0.32	5.42319E-001	4.01614E-004	0.00000E+000	2.17803E-004	2.40040E-001	5.42527E-001	3.57680E+000	9	...........
	24	0.333333	5.48533E-001	4.00403E-004	0.00000E+000	2.19634E-004	2.40040E-001	5.48736E-001	3.57680E+000	9	...........
	25	0.346667	5.54685E-001	4.00763E-004	0.00000E+000	2.22297E-004	2.40040E-001	5.54931E-001	3.57680E+000	9	...........
	26	0.36	5.60855E-001	4.00864E-004	0.00000E+000	2.24826E-004	2.40040E-001	5.61110E-001	3.57680E+000	9	...........
	27	0.373333	5.67077E-001	4.01467E-004	0.00000E+000	2.27663E-004	2.40040E-001	5.67315E-001	3.57680E+000	9	...........
	28	0.386667	5.73126E-001	4.01816E-004	0.00000E+000	2.30291E-004	2.40040E-001	5.73347E-001	3.57680E+000	9	...........
	29	0.4	5.79108E-001	4.00777E-004	0.00000E+000	2.32093E-004	2.40040E-001	5.79353E-001	3.57680E+000	9	...........
	30	0.413333	5.85075E-001	4.01721E-004	0.00000E+000	2.35037E-004	2.40040E-001	5.85336E-001	3.57680E+000	9	...........
	31	0.426667	5.91146E-001	4.00616E-004	0.00000E+000	2.36822E-004	2.40040E-001	5.91396E-001	3.57680E+000	9	...........
	32	0.44	5.97180E-001	4.02880E-004	0.00000E+000	2.40592E-004	2.40040E-001	5.97401E-001	3.57680E+000	9	...........
	33	0.453333	6.03118E-001	4.01097E-004	0.00000E+000	2.41909E-004	2.40040E-001	6.03391E-001	3.57680E+000	9	...........
	34	0.466667	6.09019E-001	4.01371E-004	0.00000E+000	2.44443E-004	2.40040E-001	6.09285E-001	3.57689E+000	9	...........
	35	0.48	6.15017E-001	4.01653E-004	0.00000E+000	2.47024E-004	2.40040E-001	6.15278E-001	3.57690E+000	9	...........
	36	0.493333	6.20982E-001	4.01486E-004	0.00000E+000	2.49316E-004	2.40040E-001	6.21188E-001	3.57690E+000	9	...........
	37	0.506667	6.26846E-001	4.00541E-004	0.00000E+000	2.51077E-004	2.40040E-001	6.27069E-001	3.57690E+000	9	...........
	38	0.52	6.32635E-001	4.00476E-004	0.00000E+000	2.53355E-004	2.40040E-001	6.32864E-001	3.57690E+000	9	...........
	39	0.533333	6.38461E-001	3.99631E-004	0.00000E+000	2.55149E-004	2.40040E-001	6.38687E-001	3.57690E+000	9	...........
	40	0.546667	6.44311E-001	3.99957E-004	0.00000E+000	2.57697E-004	2.40040E-001	6.44526E-001	3.57690E+000	9	...........
	41	0.56	6.50188E-001	4.01288E-004	0.00000E+000	2.60912E-004	2.40040E-001	6.50401E-001	3.57690E+000	9	...........
	42	0.573333	6.56020E-001	4.01019E-004	0.00000E+000	2.63077E-004	2.40040E-001	6.56247E-001	3.57690E+000	9	...........
	43	0.586667	6.61837E-001	4.01575E-004	0.00000E+000	2.65778E-004	2.40040E-001	6.62065E-001	3.57690E+000	9	...........
	44	0.6	6.67601E-001	4.00262E-004	0.00000E+000	2.67215E-004	2.40040E-001	6.67833E-001	3.57690E+000	9	...........
	45	0.613333	6.73331E-001	4.00536E-004	0.00000E+000	2.69693E-004	2.40040E-001	6.73563E-001	3.57690E+000	9	...........
	46	0.626667	6.79067E-001	4.00726E-004	0.00000E+000	2.72120E-004	2.40040E-001	6.79324E-001	3.57690E+000	9	...........
	47	0.64	6.84770E-001	4.00831E-004	0.00000E+000	2.74477E-004	2.40040E-001	6.85043E-001	3.57690E+000	9	...........
	48	0.653333	6.90475E-001	3.99160E-004	0.00000E+000	2.75610E-004	2.40040E-001	6.90735E-001	3.57690E+000	9	...........
	49	0.666667	6.96090E-001	4.00637E-004	0.00000E+000	2.78879E-004	2.40040E-001	6.96345E-001	3.57690E+000	9	...........
	50	0.68	7.01705E-001	4.00929E-004	0.00000E+000	2.81334E-004	2.40040E-001	7.01985E-001	3.57690E+000	9	...........
	51	0.693333	7.07323E-001	4.01718E-004	0.00000E+000	2.84144E-004	2.40040E-001	7.07613E-001	3.57690E+000	9	...........
	52	0.706667	7.12920E-001	3.99248E-004	0.00000E+000	2.84632E-004	2.40040E-001	7.13166E-001	3.57690E+000	9	...........
	53	0.72	7.18464E-001	4.00522E-004	0.00000E+000	2.87761E-004	2.40040E-001	7.18721E-001	3.57690E+000	9	...........
	54	0.733333	7.24010E-001	4.00592E-004	0.00000E+000	2.90033E-004	2.40040E-001	7.24254E-001	3.57690E+000	9	...........
	55	0.746667	7.29546E-001	4.02667E-004	0.00000E+000	2.93764E-004	2.40040E-001	7.29818E-001	3.57690E+000	9	...........
	56	0.76	7.35042E-001	4.00285E-004	0.00000E+000	2.94227E-004	2.40040E-001	7.35298E-001	3.57690E+000	9	...........
	57	0.773333	7.40491E-001	4.00119E-004	0.00000E+000	2.96285E-004	2.40040E-001	7.40761E-001	3.57690E+000	9	...........
	58	0.786667	7.45933E-001	4.00291E-004	0.00000E+000	2.98590E-004	2.40040E-001	7.46161E-001	3.57690E+000	9	...........
	59	0.8	7.51377E-001	4.01128E-004	0.00000E+000	3.01398E-004	2.40040E-001	7.51604E-001	3.57690E+000	9	...........
	60	0.813333	7.56792E-001	4.01565E-004	0.00000E+000	3.03901E-004	2.40040E-001	7.57024E-001	3.57690E+000	9	...........
	61	0.826667	7.62176E-001	4.00233E-004	0.00000E+000	3.05048E-004	2.40040E-001	7.62395E-001	3.57690E+000	9	...........
	62	0.84	7.67566E-001	4.01843E-004	0.00000E+000	3.08441E-004	2.40040E-001	7.67855E-001	3.57690E+000	9	...........
	63	0.853333	7.72972E-001	4.00826E-004	0.00000E+000	3.09828E-004	2.40040E-001	7.73219E-001	3.57690E+000	9	...........
	64	0.866667	7.78329E-001	4.00927E-004	0.00000E+000	3.12053E-004	2.40040E-001	7.78547E-001	3.57690E+000	9	...........
	65	0.88	7.83516E-001	4.00962E-004	0.00000E+000	3.14160E-004	2.40040E-001	7.83757E-001	3.57690E+000	9	...........
	66	0.893333	7.88743E-001	3.99881E-004	0.00000E+000	3.15404E-004	2.40040E-001	7.88976E-001	3.57690E+000	9	...........
	67	0.906667	7.93932E-001	4.01155E-004	0.00000E+000	3.18490E-004	2.40040E-001	7.94186E-001	3.57690E+000	9	...........
	68	0.92	7.99159E-001	4.01522E-004	0.00000E+000	3.20880E-004	2.40040E-001	7.99387E-001	3.57690E+000	9	...........
	69	0.933333	8.04372E-001	4.00637E-004	0.00000E+000	3.22261E-004	2.40040E-001	8.04622E-001	3.57690E+000	9	...........
	70	0.946667	8.09436E-001	4.01163E-004	0.00000E+000	3.24715E-004	2.40040E-001	8.09663E-001	3.57690E+000	9	...........
	71	0.96	8.14544E-001	4.00427E-004	0.00000E+000	3.26165E-004	2.40040E-001	8.14781E-001	3.57690E+000	9	...........
	72	0.97333	8.19643E-001	4.00346E-004	0.00000E+000	3.28141E-004	2.40040E-001	8.19856E-001	3.57690E+000	9	...........
	73	0.98667	8.24690E-001	4.00281E-004	0.00000E+000	3.30108E-004	2.40040E-001	8.24901E-001	3.57690E+000	9	...........
	74	1	8.29714E-001	4.02257E-004	0.00000E+000	3.33758E-004	2.40040E-001	8.29957E-001	3.57690E+000	9	...........
	75	1.01333	8.34656E-001	4.01576E-004	0.00000E+000	3.35178E-004	2.40040E-001	8.34940E-001	3.57690E+000	9	...........
	76	1.02667	8.39575E-001	4.01090E-004	0.00000E+000	3.36745E-004	2.40040E-001	8.39875E-001	3.57690E+000	9	...........
	77	1.04	8.44505E-001	4.00986E-004	0.00000E+000	3.38634E-004	2.40040E-001	8.44796E-001	3.57690E+000	9	...........
	78	1.05333	8.49375E-001	4.01053E-004	0.00000E+000	3.40645E-004	2.40040E-001	8.49672E-001	3.57690E+000	9	...........
	79	1.06667	8.54242E-001	4.01126E-004	0.00000E+000	3.42659E-004	2.40040E-001	8.54498E-001	3.57690E+000	9	...........
	80	1.08	8.59056E-001	4.00753E-004	0.00000E+000	3.44270E-004	2.40040E-001	8.59339E-001	3.57690E+000	9	...........
	81	1.09333	8.63799E-001	3.99938E-004	0.00000E+000	3.45466E-004	2.40040E-001	8.64078E-001	3.57690E+000	9	...........
	82	1.10667	8.68575E-001	4.01444E-004	0.00000E+000	3.48684E-004	2.40040E-001	8.68838E-001	3.57690E+000	9	...........
	83	1.12	8.73315E-001	4.00083E-004	0.00000E+000	3.49399E-004	2.40040E-001	8.73589E-001	3.57690E+000	9	...........
	84	1.13333	8.77898E-001	4.01037E-004	0.00000E+000	3.52069E-004	2.40040E-001	8.78201E-001	3.57690E+000	9	...........
	85	1.14667	8.82553E-001	4.01227E-004	0.00000E+000	3.54104E-004	2.40040E-001	8.82842E-001	3.57690E+000	9	...........
	86	1.16	8.87179E-001	4.00831E-004	0.00000E+000	3.55609E-004	2.40040E-001	8.87486E-001	3.57690E+000	9	...........
	87	1.17333	8.91724E-001	4.00430E-004	0.00000E+000	3.57073E-004	2.40040E-001	8.92019E-001	3.57690E+000	9	...........
	88	1.18667	8.96261E-001	4.00304E-004	0.00000E+000	3.58777E-004	2.40040E-001	8.96585E-001	3.57690E+000	9	...........
	89	1.2	9.00726E-001	3.99852E-004	0.00000E+000	3.60157E-004	2.40040E-001	9.01042E-001	3.57690E+000	9	...........
	90	1.21333	9.05177E-001	4.00966E-004	0.00000E+000	3.62945E-004	2.40040E-001	9.05498E-001	3.57690E+000	9	...........
	91	1.22667	9.09626E-001	4.01630E-004	0.00000E+000	3.65333E-004	2.40040E-001	9.09922E-001	3.57690E+000	9	...........
	92	1.24	9.13970E-001	4.00824E-004	0.00000E+000	3.66341E-004	2.40040E-001	9.14269E-001	3.57690E+000	9	...........
	93	1.25333	9.18310E-001	4.01085E-004	0.00000E+000	3.68320E-004	2.40040E-001	9.18608E-001	3.57690E+000	9	...........
	94	1.26667	9.22631E-001	4.00886E-004	0.00000E+000	3.69870E-004	2.40040E-001	9.22899E-001	3.57690E+000	9	...........
	95	1.28	9.26906E-001	4.00863E-004	0.00000E+000	3.71562E-004	2.40040E-001	9.27144E-001	3.57690E+000	9	...........
	96	1.29333	9.31101E-001	4.02017E-004	0.00000E+000	3.74318E-004	2.40040E-001	9.31364E-001	3.57690E+000	9	...........
	97	1.30667	9.35280E-001	4.01214E-004	0.00000E+000	3.75247E-004	2.40040E-001	9.35573E-001	3.57690E+000	9	...........
	98	1.32	9.39446E-001	3.99306E-004	0.00000E+000	3.75127E-004	2.40040E-001	9.39746E-001	3.57690E+000	9	...........
	99	1.33333	9.43558E-001	4.01023E-004	0.00000E+000	3.78388E-004	2.40040E-001	9.43859E-001	3.57690E+000	9	...........
	100	1.34667	9.47652E-001	4.01365E-004	0.00000E+000	3.80354E-004	2.40040E-001	9.47956E-001	3.57690E+000	9	...........
	101	1.36	9.51662E-001	4.00569E-004	0.00000E+000	3.81206E-004	2.40040E-001	9.51940E-001	3.57690E+000	9	...........
	102	1.37333	9.55668E-001	4.00768E-004	0.00000E+000	3.83001E-004	2.40040E-001	9.55971E-001	3.57690E+000	9	...........
	103	1.38667	9.59656E-001	4.02494E-004	0.00000E+000	3.86256E-004	2.40040E-001	9.59975E-001	3.57690E+000	9	...........
	104	1.4	9.63574E-001	4.00538E-004	0.00000E+000	3.85948E-004	2.40040E-001	9.63911E-001	3.57690E+000	9	...........
	105	1.41333	9.67436E-001	4.00792E-004	0.00000E+000	3.87741E-004	2.40040E-001	9.67783E-001	3.57690E+000	9	...........
	106	1.42667	9.71299E-001	4.00995E-004	0.00000E+000	3.89486E-004	2.40040E-001	9.71635E-001	3.57690E+000	9	...........
	107	1.44	9.75148E-001	4.02081E-004	0.00000E+000	3.92088E-004	2.40040E-001	9.75450E-001	3.57690E+000	9	...........
	108	1.45333	9.78913E-001	4.00215E-004	0.00000E+000	3.91775E-004	2.40040E-001	9.79224E-001	3.57690E+000	9	...........
	109	1.46667	9.82617E-001	4.00678E-004	0.00000E+000	3.93713E-004	2.40040E-001	9.82942E-001	3.57629E+000	9	...........
	110	1.48	9.86261E-001	4.01002E-004	0.00000E+000	3.95493E-004	2.40040E-001	9.86594E-001	3.57620E+000	9	...........
	111	1.49333	9.89912E-001	4.01897E-004	0.00000E+000	3.97843E-004	2.40040E-001	9.90242E-001	3.57620E+000	9	...........
	112	1.50667	9.93486E-001	4.01406E-004	0.00000E+000	3.98791E-004	2.40040E-001	9.93816E-001	3.57620E+000	9	...........
	113	1.52	9.97056E-001	4.00450E-004	0.00000E+000	3.99271E-004	2.40040E-001	9.97382E-001	3.57620E+000	9	...........
	114	1.52667	9.99688E-001	4.02401E-004	0.00000E+000	4.02275E-004	2.40040E-001	1.00005E+000	3.57620E+000	9	...........
STARTTIMEOFFSET	QUANT	1841.806	Start Time Offset (s)
