EXPLAIN
TAG	PWR800_CHARGE
TITLE	LABEL	PWR Cyclic Charge Discharge (Cell) - Charge Step	Test &Identifier
DATE	LABEL	12-7-2017	Date
TIME	LABEL	15:04:00	Time
NOTES	NOTES	3	&Notes...
	supercap test cell
	0.4mg
	6M KOH
PSTAT	PSTAT	IFC5000-01520	Potentiostat
CAPACITY	QUANT	1.00000E-003	Capacity (A-hr)
CELLTYPE	SELECTOR	1	&Cell Type
WORKINGCONNECTION	SELECTOR	0	&Working Lead
MAXCHARGETIME	VARIABLEANDUNITS	1.00000E+002	s	1.00000E+002	second(s)	Max &Charge Time
CHARGECURRENT	QUANT	4.00000E-004	&Charge Current (A) 
VOLTAGEFINISH	TWOPARAM	F	1.00000E-003	3.60000E+003	&Voltage Finish	 I (A) < 	Max Time(s)
SAMPLETIME	QUANT	1.00000E-002	Sa&mple Period (s)
CHARGESTOPAT1	MULTIPARAM	4	1.00000E+000	Charge Stop At &1	Voltage > Limit	V
CHARGESTOPAT2	MULTIPARAM	0	0.00000E+000	Charge Stop At &2	None	N/A
AESBHCSELECTOR	TOGGLE	F	Save Both Half Cells
IRCOMP	TOGGLE	F	IR &Measure
EOC	QUANT	0	Open Circuit (V)
SEQUENCER	TOGGLE	TRUE	Run as Sequence
PSTATMODEL	IQUANT	53	Pstat Model
PSTATSECTION	LABEL	IFC5000-01520	Pstat Section
PSTATSERIALNO	LABEL	01520	Pstat Serial Number
CTRLMODE	IQUANT	0	Control Mode
ELECTROMETER	IQUANT	1	RE=0 or CS=1
IESTAB	IQUANT	0	I/E Stability
CASPEED	IQUANT	4	Control Amp Speed
CONVENTION	IQUANT	1	Current Convention
ICHRANGE	IQUANT	2	Ich Range
ICHRANGEMODE	TOGGLE	T	Ich Auto Range
ICHOFFSETENABLE	TOGGLE	F	Ich Offset Enable
ICHOFFSET	QUANT	0	Ich Offset (V)
ICHFILTER	IQUANT	1	Ich Filter
VCHRANGE	IQUANT	2	Vch Range
VCHRANGEMODE	TOGGLE	T	Vch Auto Range
VCHOFFSETENABLE	TOGGLE	F	Vch Offset Enable
VCHOFFSET	QUANT	0	Vch Offset (V)
VCHFILTER	IQUANT	1	Vch Filter
IERANGELOWERLIMIT	IQUANT	9	I/E Range Lower Limit
IERANGEMODE	TOGGLE	F	I/E AutoRange
IERANGE	IQUANT	9	I/E Range
ACHSELECT	IQUANT	1	Ach Select
ACHRANGE	IQUANT	2	Ach Range
ACHOFFSETENABLE	TOGGLE	F	Ach Offset Enable
ACHOFFSET	QUANT	0	Ach Offset (V)
ACHFILTER	IQUANT	1	Ach Filter
CABLEID	IQUANT	14	Cable ID
DCCALDATE	LABEL	5-7-2017	DC Calibration Date
ACCALDATE	LABEL	12/3/2015	AC Calibration Date
FRAMEWORKVERSION	QUANT	7.01	Framework Version
INSTRUMENTVERSION	LABEL	4.00	Instrument Version
CURVE	TABLE	112
	Pt	T	Vf	Im	Vu	Pwr	Sig	Ach	Temp	IERange	Over
	#	s	V	A	V	W	V	V	deg C	#	bits
	0	0.013333	3.76464E-001	4.00859E-004	0.00000E+000	1.50909E-004	2.40040E-001	3.76555E-001	3.57700E+000	9	...........
	1	0.026667	3.88678E-001	4.00845E-004	0.00000E+000	1.55799E-004	2.40040E-001	3.88751E-001	3.57700E+000	9	...........
	2	0.04	3.99142E-001	4.01394E-004	0.00000E+000	1.60213E-004	2.40040E-001	3.99214E-001	3.57700E+000	9	...........
	3	0.053333	4.08623E-001	4.01153E-004	0.00000E+000	1.63920E-004	2.40040E-001	4.08707E-001	3.57700E+000	9	...........
	4	0.066667	4.17458E-001	4.00472E-004	0.00000E+000	1.67180E-004	2.40040E-001	4.17539E-001	3.57700E+000	9	...........
	5	0.08	4.25834E-001	4.00328E-004	0.00000E+000	1.70473E-004	2.40040E-001	4.25916E-001	3.57700E+000	9	...........
	6	0.093333	4.33902E-001	4.01946E-004	0.00000E+000	1.74405E-004	2.40040E-001	4.33985E-001	3.57700E+000	9	...........
	7	0.106667	4.41667E-001	4.00996E-004	0.00000E+000	1.77107E-004	2.40040E-001	4.41752E-001	3.57700E+000	9	...........
	8	0.12	4.49262E-001	4.01054E-004	0.00000E+000	1.80179E-004	2.40040E-001	4.49350E-001	3.57700E+000	9	...........
	9	0.133333	4.56695E-001	4.01232E-004	0.00000E+000	1.83240E-004	2.40040E-001	4.56786E-001	3.57700E+000	9	...........
	10	0.146667	4.63983E-001	3.99752E-004	0.00000E+000	1.85478E-004	2.40040E-001	4.64069E-001	3.57700E+000	9	...........
	11	0.16	4.71099E-001	4.01546E-004	0.00000E+000	1.89168E-004	2.40040E-001	4.71195E-001	3.57700E+000	9	...........
	12	0.173333	4.78132E-001	4.00353E-004	0.00000E+000	1.91422E-004	2.40040E-001	4.78228E-001	3.57700E+000	9	...........
	13	0.186667	4.85110E-001	3.99697E-004	0.00000E+000	1.93897E-004	2.40040E-001	4.85206E-001	3.57700E+000	9	...........
	14	0.2	4.92008E-001	4.00946E-004	0.00000E+000	1.97269E-004	2.40040E-001	4.92106E-001	3.57700E+000	9	...........
	15	0.213333	4.98795E-001	4.00000E-004	0.00000E+000	1.99518E-004	2.40040E-001	4.98899E-001	3.57700E+000	9	...........
	16	0.226667	5.05538E-001	4.00267E-004	0.00000E+000	2.02350E-004	2.40040E-001	5.05636E-001	3.57700E+000	9	...........
	17	0.24	5.12214E-001	4.02790E-004	0.00000E+000	2.06315E-004	2.40040E-001	5.12319E-001	3.57700E+000	9	...........
	18	0.253333	5.18705E-001	4.00581E-004	0.00000E+000	2.07784E-004	2.40040E-001	5.18808E-001	3.57700E+000	9	...........
	19	0.266667	5.25241E-001	4.02212E-004	0.00000E+000	2.11258E-004	2.40040E-001	5.25347E-001	3.57700E+000	9	...........
	20	0.28	5.31732E-001	4.00643E-004	0.00000E+000	2.13035E-004	2.40040E-001	5.31834E-001	3.57700E+000	9	...........
	21	0.293333	5.37926E-001	4.00752E-004	0.00000E+000	2.15575E-004	2.40040E-001	5.38155E-001	3.57700E+000	9	...........
	22	0.306667	5.44301E-001	4.01170E-004	0.00000E+000	2.18357E-004	2.40040E-001	5.44542E-001	3.57700E+000	9	...........
	23	0.32	5.50662E-001	4.00451E-004	0.00000E+000	2.20513E-004	2.40040E-001	5.50861E-001	3.57700E+000	9	...........
	24	0.333333	5.56979E-001	4.00400E-004	0.00000E+000	2.23014E-004	2.40040E-001	5.57157E-001	3.57700E+000	9	...........
	25	0.346667	5.63278E-001	4.00595E-004	0.00000E+000	2.25646E-004	2.40040E-001	5.63469E-001	3.57700E+000	9	...........
	26	0.36	5.69498E-001	4.00289E-004	0.00000E+000	2.27964E-004	2.40040E-001	5.69688E-001	3.57700E+000	9	...........
	27	0.373333	5.75763E-001	4.00863E-004	0.00000E+000	2.30802E-004	2.40040E-001	5.75972E-001	3.57700E+000	9	...........
	28	0.386667	5.81940E-001	4.00450E-004	0.00000E+000	2.33038E-004	2.40040E-001	5.82145E-001	3.57700E+000	9	...........
	29	0.4	5.88084E-001	4.01507E-004	0.00000E+000	2.36120E-004	2.40040E-001	5.88310E-001	3.57700E+000	9	...........
	30	0.413333	5.94240E-001	4.00579E-004	0.00000E+000	2.38040E-004	2.40040E-001	5.94468E-001	3.57700E+000	9	...........
	31	0.426667	6.00348E-001	4.00717E-004	0.00000E+000	2.40570E-004	2.40040E-001	6.00603E-001	3.57700E+000	9	...........
	32	0.44	6.06511E-001	4.01190E-004	0.00000E+000	2.43326E-004	2.40040E-001	6.06747E-001	3.57700E+000	9	...........
	33	0.453333	6.12609E-001	4.00224E-004	0.00000E+000	2.45181E-004	2.40040E-001	6.12821E-001	3.57700E+000	9	...........
	34	0.466667	6.18718E-001	4.00366E-004	0.00000E+000	2.47713E-004	2.40040E-001	6.18884E-001	3.57700E+000	9	...........
	35	0.48	6.24712E-001	4.01110E-004	0.00000E+000	2.50578E-004	2.40040E-001	6.24863E-001	3.57700E+000	9	...........
	36	0.493333	6.30678E-001	4.01394E-004	0.00000E+000	2.53151E-004	2.40040E-001	6.30873E-001	3.57700E+000	9	...........
	37	0.506667	6.36689E-001	4.00167E-004	0.00000E+000	2.54782E-004	2.40040E-001	6.36893E-001	3.57700E+000	9	...........
	38	0.52	6.42705E-001	4.01826E-004	0.00000E+000	2.58256E-004	2.40040E-001	6.42929E-001	3.57700E+000	9	...........
	39	0.533333	6.48660E-001	4.00184E-004	0.00000E+000	2.59584E-004	2.40040E-001	6.48882E-001	3.57700E+000	9	...........
	40	0.546667	6.54605E-001	4.00693E-004	0.00000E+000	2.62295E-004	2.40040E-001	6.54822E-001	3.57700E+000	9	...........
	41	0.56	6.60504E-001	4.00499E-004	0.00000E+000	2.64531E-004	2.40040E-001	6.60693E-001	3.57700E+000	9	...........
	42	0.573333	6.66396E-001	4.01158E-004	0.00000E+000	2.67330E-004	2.40040E-001	6.66608E-001	3.57700E+000	9	...........
	43	0.586667	6.72231E-001	4.00776E-004	0.00000E+000	2.69414E-004	2.40040E-001	6.72429E-001	3.57700E+000	9	...........
	44	0.6	6.78053E-001	4.01566E-004	0.00000E+000	2.72283E-004	2.40040E-001	6.78280E-001	3.57700E+000	9	...........
	45	0.613333	6.83785E-001	4.02200E-004	0.00000E+000	2.75019E-004	2.40040E-001	6.83995E-001	3.57700E+000	9	...........
	46	0.626667	6.89496E-001	4.01067E-004	0.00000E+000	2.76534E-004	2.40040E-001	6.89753E-001	3.57700E+000	9	...........
	47	0.64	6.95381E-001	4.00889E-004	0.00000E+000	2.78770E-004	2.40040E-001	6.95605E-001	3.57700E+000	9	...........
	48	0.653333	7.01079E-001	4.00822E-004	0.00000E+000	2.81008E-004	2.40040E-001	7.01299E-001	3.57700E+000	9	...........
	49	0.666667	7.06806E-001	4.00222E-004	0.00000E+000	2.82879E-004	2.40040E-001	7.07035E-001	3.57700E+000	9	...........
	50	0.68	7.12512E-001	4.00703E-004	0.00000E+000	2.85506E-004	2.40040E-001	7.12760E-001	3.57700E+000	9	...........
	51	0.693333	7.18213E-001	4.00746E-004	0.00000E+000	2.87821E-004	2.40040E-001	7.18445E-001	3.57700E+000	9	...........
	52	0.706667	7.23886E-001	4.00313E-004	0.00000E+000	2.89781E-004	2.40040E-001	7.24100E-001	3.57700E+000	9	...........
	53	0.72	7.29516E-001	4.00321E-004	0.00000E+000	2.92041E-004	2.40040E-001	7.29763E-001	3.57700E+000	9	...........
	54	0.733333	7.35112E-001	4.00772E-004	0.00000E+000	2.94612E-004	2.40040E-001	7.35365E-001	3.57700E+000	9	...........
	55	0.746667	7.40695E-001	4.00700E-004	0.00000E+000	2.96797E-004	2.40040E-001	7.40954E-001	3.57700E+000	9	...........
	56	0.76	7.46309E-001	4.01303E-004	0.00000E+000	2.99496E-004	2.40040E-001	7.46539E-001	3.57700E+000	9	...........
	57	0.773333	7.51798E-001	4.00521E-004	0.00000E+000	3.01111E-004	2.40040E-001	7.52062E-001	3.57700E+000	9	...........
	58	0.786667	7.57341E-001	4.01413E-004	0.00000E+000	3.04007E-004	2.40040E-001	7.57581E-001	3.57700E+000	9	...........
	59	0.8	7.62830E-001	4.01312E-004	0.00000E+000	3.06132E-004	2.40040E-001	7.63072E-001	3.57700E+000	9	...........
	60	0.813333	7.68303E-001	4.01910E-004	0.00000E+000	3.08788E-004	2.40040E-001	7.68585E-001	3.57700E+000	9	...........
	61	0.826667	7.73732E-001	4.01655E-004	0.00000E+000	3.10773E-004	2.40040E-001	7.74012E-001	3.57700E+000	9	...........
	62	0.84	7.79156E-001	4.01527E-004	0.00000E+000	3.12852E-004	2.40040E-001	7.79425E-001	3.57700E+000	9	...........
	63	0.853333	7.84509E-001	3.99716E-004	0.00000E+000	3.13580E-004	2.40040E-001	7.84749E-001	3.57700E+000	9	...........
	64	0.866667	7.89822E-001	4.00287E-004	0.00000E+000	3.16155E-004	2.40040E-001	7.90074E-001	3.57720E+000	9	...........
	65	0.88	7.95207E-001	4.00563E-004	0.00000E+000	3.18530E-004	2.40040E-001	7.95446E-001	3.57770E+000	9	...........
	66	0.893333	8.00430E-001	4.01273E-004	0.00000E+000	3.21191E-004	2.40040E-001	8.00652E-001	3.57770E+000	9	...........
	67	0.906667	8.05644E-001	4.00092E-004	0.00000E+000	3.22332E-004	2.40040E-001	8.05893E-001	3.57770E+000	9	...........
	68	0.92	8.10797E-001	4.02479E-004	0.00000E+000	3.26329E-004	2.40040E-001	8.11045E-001	3.57770E+000	9	...........
	69	0.933333	8.15982E-001	3.99959E-004	0.00000E+000	3.26360E-004	2.40040E-001	8.16250E-001	3.57770E+000	9	...........
	70	0.946667	8.21177E-001	4.02256E-004	0.00000E+000	3.30323E-004	2.40040E-001	8.21441E-001	3.57770E+000	9	...........
	71	0.96	8.26253E-001	4.00122E-004	0.00000E+000	3.30602E-004	2.40040E-001	8.26517E-001	3.57770E+000	9	...........
	72	0.97333	8.31306E-001	4.00780E-004	0.00000E+000	3.33171E-004	2.40040E-001	8.31596E-001	3.57770E+000	9	...........
	73	0.98667	8.36338E-001	4.00776E-004	0.00000E+000	3.35184E-004	2.40040E-001	8.36668E-001	3.57770E+000	9	...........
	74	1	8.41277E-001	4.00713E-004	0.00000E+000	3.37111E-004	2.40040E-001	8.41579E-001	3.57770E+000	9	...........
	75	1.01333	8.46302E-001	4.02111E-004	0.00000E+000	3.40307E-004	2.40040E-001	8.46584E-001	3.57770E+000	9	...........
	76	1.02667	8.51265E-001	3.99765E-004	0.00000E+000	3.40306E-004	2.40040E-001	8.51569E-001	3.57770E+000	9	...........
	77	1.04	8.56152E-001	4.00945E-004	0.00000E+000	3.43270E-004	2.40040E-001	8.56442E-001	3.57770E+000	9	...........
	78	1.05333	8.61013E-001	4.01289E-004	0.00000E+000	3.45515E-004	2.40040E-001	8.61283E-001	3.57770E+000	9	...........
	79	1.06667	8.65844E-001	4.00501E-004	0.00000E+000	3.46771E-004	2.40040E-001	8.66146E-001	3.57770E+000	9	...........
	80	1.08	8.70653E-001	4.01325E-004	0.00000E+000	3.49415E-004	2.40040E-001	8.70962E-001	3.57770E+000	9	...........
	81	1.09333	8.75437E-001	4.02246E-004	0.00000E+000	3.52142E-004	2.40040E-001	8.75743E-001	3.57770E+000	9	...........
	82	1.10667	8.80145E-001	4.00055E-004	0.00000E+000	3.52107E-004	2.40040E-001	8.80434E-001	3.57770E+000	9	...........
	83	1.12	8.84887E-001	4.00862E-004	0.00000E+000	3.54717E-004	2.40040E-001	8.85167E-001	3.57770E+000	9	...........
	84	1.13333	8.89526E-001	4.00618E-004	0.00000E+000	3.56360E-004	2.40040E-001	8.89811E-001	3.57770E+000	9	...........
	85	1.14667	8.94158E-001	4.00046E-004	0.00000E+000	3.57704E-004	2.40040E-001	8.94468E-001	3.57770E+000	9	...........
	86	1.16	8.98665E-001	4.00708E-004	0.00000E+000	3.60103E-004	2.40040E-001	8.98985E-001	3.57770E+000	9	...........
	87	1.17333	9.03149E-001	4.00294E-004	0.00000E+000	3.61525E-004	2.40040E-001	9.03463E-001	3.57770E+000	9	...........
	88	1.18667	9.07684E-001	4.01222E-004	0.00000E+000	3.64183E-004	2.40040E-001	9.07979E-001	3.57770E+000	9	...........
	89	1.2	9.12085E-001	4.00768E-004	0.00000E+000	3.65534E-004	2.40040E-001	9.12418E-001	3.57770E+000	9	...........
	90	1.21333	9.16471E-001	4.01531E-004	0.00000E+000	3.67991E-004	2.40040E-001	9.16820E-001	3.57770E+000	9	...........
	91	1.22667	9.20897E-001	4.00654E-004	0.00000E+000	3.68961E-004	2.40040E-001	9.21187E-001	3.57770E+000	9	...........
	92	1.24	9.25295E-001	4.01526E-004	0.00000E+000	3.71530E-004	2.40040E-001	9.25584E-001	3.57770E+000	9	...........
	93	1.25333	9.29613E-001	4.01189E-004	0.00000E+000	3.72950E-004	2.40040E-001	9.29888E-001	3.57770E+000	9	...........
	94	1.26667	9.33835E-001	4.01001E-004	0.00000E+000	3.74469E-004	2.40040E-001	9.34113E-001	3.57770E+000	9	...........
	95	1.28	9.38077E-001	4.00748E-004	0.00000E+000	3.75933E-004	2.40040E-001	9.38344E-001	3.57770E+000	9	...........
	96	1.29333	9.42231E-001	4.02009E-004	0.00000E+000	3.78785E-004	2.40040E-001	9.42489E-001	3.57770E+000	9	...........
	97	1.30667	9.46395E-001	4.02117E-004	0.00000E+000	3.80562E-004	2.40040E-001	9.46689E-001	3.57770E+000	9	...........
	98	1.32	9.50496E-001	4.00710E-004	0.00000E+000	3.80873E-004	2.40040E-001	9.50795E-001	3.57770E+000	9	...........
	99	1.33333	9.54570E-001	4.01386E-004	0.00000E+000	3.83151E-004	2.40040E-001	9.54869E-001	3.57770E+000	9	...........
	100	1.34667	9.58574E-001	4.01826E-004	0.00000E+000	3.85181E-004	2.40040E-001	9.58866E-001	3.57770E+000	9	...........
	101	1.36	9.62560E-001	4.01998E-004	0.00000E+000	3.86947E-004	2.40040E-001	9.62863E-001	3.57770E+000	9	...........
	102	1.37333	9.66492E-001	4.01098E-004	0.00000E+000	3.87658E-004	2.40040E-001	9.66838E-001	3.57770E+000	9	...........
	103	1.38667	9.70393E-001	3.99491E-004	0.00000E+000	3.87663E-004	2.40040E-001	9.70751E-001	3.57770E+000	9	...........
	104	1.4	9.74283E-001	4.00959E-004	0.00000E+000	3.90647E-004	2.40040E-001	9.74604E-001	3.57770E+000	9	...........
	105	1.41333	9.78108E-001	4.00732E-004	0.00000E+000	3.91960E-004	2.40040E-001	9.78430E-001	3.57770E+000	9	...........
	106	1.42667	9.81896E-001	4.01618E-004	0.00000E+000	3.94347E-004	2.40040E-001	9.82210E-001	3.57770E+000	9	...........
	107	1.44	9.85646E-001	4.00403E-004	0.00000E+000	3.94656E-004	2.40040E-001	9.85977E-001	3.57770E+000	9	...........
	108	1.45333	9.89372E-001	4.00587E-004	0.00000E+000	3.96329E-004	2.40040E-001	9.89689E-001	3.57770E+000	9	...........
	109	1.46667	9.92986E-001	4.00706E-004	0.00000E+000	3.97896E-004	2.40040E-001	9.93319E-001	3.57770E+000	9	...........
	110	1.48	9.96602E-001	4.01352E-004	0.00000E+000	3.99989E-004	2.40040E-001	9.96944E-001	3.57770E+000	9	...........
	111	1.48833	9.99518E-001	4.02534E-004	0.00000E+000	4.02340E-004	2.40040E-001	9.99855E-001	3.57770E+000	9	...........
STARTTIMEOFFSET	QUANT	2160.456	Start Time Offset (s)
