EXPLAIN
TAG	PWR800_CHARGE
TITLE	LABEL	PWR Cyclic Charge Discharge (Cell) - Charge Step	Test &Identifier
DATE	LABEL	12-7-2017	Date
TIME	LABEL	14:57:19	Time
NOTES	NOTES	3	&Notes...
	supercap test cell
	0.4mg
	6M KOH
PSTAT	PSTAT	IFC5000-01520	Potentiostat
CAPACITY	QUANT	1.00000E-003	Capacity (A-hr)
CELLTYPE	SELECTOR	1	&Cell Type
WORKINGCONNECTION	SELECTOR	0	&Working Lead
MAXCHARGETIME	VARIABLEANDUNITS	1.00000E+002	s	1.00000E+002	second(s)	Max &Charge Time
CHARGECURRENT	QUANT	4.00000E-004	&Charge Current (A) 
VOLTAGEFINISH	TWOPARAM	F	1.00000E-003	3.60000E+003	&Voltage Finish	 I (A) < 	Max Time(s)
SAMPLETIME	QUANT	1.00000E-002	Sa&mple Period (s)
CHARGESTOPAT1	MULTIPARAM	4	1.00000E+000	Charge Stop At &1	Voltage > Limit	V
CHARGESTOPAT2	MULTIPARAM	0	0.00000E+000	Charge Stop At &2	None	N/A
AESBHCSELECTOR	TOGGLE	F	Save Both Half Cells
IRCOMP	TOGGLE	F	IR &Measure
EOC	QUANT	0	Open Circuit (V)
SEQUENCER	TOGGLE	TRUE	Run as Sequence
PSTATMODEL	IQUANT	53	Pstat Model
PSTATSECTION	LABEL	IFC5000-01520	Pstat Section
PSTATSERIALNO	LABEL	01520	Pstat Serial Number
CTRLMODE	IQUANT	0	Control Mode
ELECTROMETER	IQUANT	1	RE=0 or CS=1
IESTAB	IQUANT	0	I/E Stability
CASPEED	IQUANT	4	Control Amp Speed
CONVENTION	IQUANT	1	Current Convention
ICHRANGE	IQUANT	2	Ich Range
ICHRANGEMODE	TOGGLE	T	Ich Auto Range
ICHOFFSETENABLE	TOGGLE	F	Ich Offset Enable
ICHOFFSET	QUANT	0	Ich Offset (V)
ICHFILTER	IQUANT	1	Ich Filter
VCHRANGE	IQUANT	2	Vch Range
VCHRANGEMODE	TOGGLE	T	Vch Auto Range
VCHOFFSETENABLE	TOGGLE	F	Vch Offset Enable
VCHOFFSET	QUANT	0	Vch Offset (V)
VCHFILTER	IQUANT	1	Vch Filter
IERANGELOWERLIMIT	IQUANT	9	I/E Range Lower Limit
IERANGEMODE	TOGGLE	F	I/E AutoRange
IERANGE	IQUANT	9	I/E Range
ACHSELECT	IQUANT	1	Ach Select
ACHRANGE	IQUANT	2	Ach Range
ACHOFFSETENABLE	TOGGLE	F	Ach Offset Enable
ACHOFFSET	QUANT	0	Ach Offset (V)
ACHFILTER	IQUANT	1	Ach Filter
CABLEID	IQUANT	14	Cable ID
DCCALDATE	LABEL	5-7-2017	DC Calibration Date
ACCALDATE	LABEL	12/3/2015	AC Calibration Date
FRAMEWORKVERSION	QUANT	7.01	Framework Version
INSTRUMENTVERSION	LABEL	4.00	Instrument Version
CURVE	TABLE	115
	Pt	T	Vf	Im	Vu	Pwr	Sig	Ach	Temp	IERange	Over
	#	s	V	A	V	W	V	V	deg C	#	bits
	0	0.013333	3.71051E-001	4.01087E-004	0.00000E+000	1.48823E-004	2.40040E-001	3.71140E-001	3.57700E+000	9	...........
	1	0.026667	3.82921E-001	3.99889E-004	0.00000E+000	1.53126E-004	2.40040E-001	3.82984E-001	3.57700E+000	9	...........
	2	0.04	3.93146E-001	4.01382E-004	0.00000E+000	1.57802E-004	2.40040E-001	3.93220E-001	3.57700E+000	9	...........
	3	0.053333	4.02414E-001	4.00202E-004	0.00000E+000	1.61047E-004	2.40040E-001	4.02491E-001	3.57700E+000	9	...........
	4	0.066667	4.11044E-001	4.00749E-004	0.00000E+000	1.64726E-004	2.40040E-001	4.11127E-001	3.57700E+000	9	...........
	5	0.08	4.19250E-001	4.01533E-004	0.00000E+000	1.68343E-004	2.40040E-001	4.19336E-001	3.57700E+000	9	...........
	6	0.093333	4.27132E-001	3.99722E-004	0.00000E+000	1.70734E-004	2.40040E-001	4.27219E-001	3.57700E+000	9	...........
	7	0.106667	4.34870E-001	4.01136E-004	0.00000E+000	1.74442E-004	2.40040E-001	4.34958E-001	3.57700E+000	9	...........
	8	0.12	4.42302E-001	4.00983E-004	0.00000E+000	1.77355E-004	2.40040E-001	4.42390E-001	3.57700E+000	9	...........
	9	0.133333	4.49595E-001	4.01191E-004	0.00000E+000	1.80373E-004	2.40040E-001	4.49686E-001	3.57700E+000	9	...........
	10	0.146667	4.56751E-001	3.99743E-004	0.00000E+000	1.82583E-004	2.40040E-001	4.56840E-001	3.57700E+000	9	...........
	11	0.16	4.63726E-001	4.01922E-004	0.00000E+000	1.86382E-004	2.40040E-001	4.63821E-001	3.57700E+000	9	...........
	12	0.173333	4.70632E-001	4.00818E-004	0.00000E+000	1.88638E-004	2.40040E-001	4.70724E-001	3.57700E+000	9	...........
	13	0.186667	4.77475E-001	4.01026E-004	0.00000E+000	1.91480E-004	2.40040E-001	4.77568E-001	3.57700E+000	9	...........
	14	0.2	4.84236E-001	4.01599E-004	0.00000E+000	1.94469E-004	2.40040E-001	4.84328E-001	3.57700E+000	9	...........
	15	0.213333	4.90920E-001	4.02177E-004	0.00000E+000	1.97436E-004	2.40040E-001	4.91017E-001	3.57700E+000	9	...........
	16	0.226667	4.97550E-001	4.03083E-004	0.00000E+000	2.00554E-004	2.40040E-001	4.97648E-001	3.57700E+000	9	...........
	17	0.24	5.04142E-001	4.02387E-004	0.00000E+000	2.02860E-004	2.40040E-001	5.04243E-001	3.57700E+000	9	...........
	18	0.253333	5.10637E-001	4.00734E-004	0.00000E+000	2.04629E-004	2.40040E-001	5.10736E-001	3.57700E+000	9	...........
	19	0.266667	5.17010E-001	4.01732E-004	0.00000E+000	2.07699E-004	2.40040E-001	5.17117E-001	3.57700E+000	9	...........
	20	0.28	5.23316E-001	3.99785E-004	0.00000E+000	2.09214E-004	2.40040E-001	5.23427E-001	3.57700E+000	9	...........
	21	0.293333	5.29668E-001	4.01277E-004	0.00000E+000	2.12544E-004	2.40040E-001	5.29777E-001	3.57700E+000	9	...........
	22	0.306667	5.35761E-001	4.00103E-004	0.00000E+000	2.14360E-004	2.40040E-001	5.35934E-001	3.57700E+000	9	...........
	23	0.32	5.41919E-001	4.01365E-004	0.00000E+000	2.17507E-004	2.40040E-001	5.42144E-001	3.57700E+000	9	...........
	24	0.333333	5.48135E-001	4.00690E-004	0.00000E+000	2.19632E-004	2.40040E-001	5.48362E-001	3.57700E+000	9	...........
	25	0.346667	5.54304E-001	4.01659E-004	0.00000E+000	2.22641E-004	2.40040E-001	5.54534E-001	3.57700E+000	9	...........
	26	0.36	5.60444E-001	4.01276E-004	0.00000E+000	2.24893E-004	2.40040E-001	5.60679E-001	3.57700E+000	9	...........
	27	0.373333	5.66612E-001	4.01004E-004	0.00000E+000	2.27214E-004	2.40040E-001	5.66818E-001	3.57700E+000	9	...........
	28	0.386667	5.72719E-001	4.01002E-004	0.00000E+000	2.29662E-004	2.40040E-001	5.72935E-001	3.57700E+000	9	...........
	29	0.4	5.78795E-001	3.99769E-004	0.00000E+000	2.31384E-004	2.40040E-001	5.79036E-001	3.57700E+000	9	...........
	30	0.413333	5.84835E-001	4.00985E-004	0.00000E+000	2.34510E-004	2.40040E-001	5.85088E-001	3.57700E+000	9	...........
	31	0.426667	5.90849E-001	4.00493E-004	0.00000E+000	2.36631E-004	2.40040E-001	5.91103E-001	3.57700E+000	9	...........
	32	0.44	5.96778E-001	4.00711E-004	0.00000E+000	2.39135E-004	2.40040E-001	5.97036E-001	3.57700E+000	9	...........
	33	0.453333	6.02735E-001	4.00993E-004	0.00000E+000	2.41693E-004	2.40040E-001	6.03005E-001	3.57700E+000	9	...........
	34	0.466667	6.08665E-001	4.02592E-004	0.00000E+000	2.45044E-004	2.40040E-001	6.08927E-001	3.57700E+000	9	...........
	35	0.48	6.14620E-001	4.02605E-004	0.00000E+000	2.47449E-004	2.40040E-001	6.14893E-001	3.57700E+000	9	...........
	36	0.493333	6.20539E-001	4.01563E-004	0.00000E+000	2.49186E-004	2.40040E-001	6.20766E-001	3.57700E+000	9	...........
	37	0.506667	6.26404E-001	4.00025E-004	0.00000E+000	2.50577E-004	2.40040E-001	6.26647E-001	3.57700E+000	9	...........
	38	0.52	6.32253E-001	4.01469E-004	0.00000E+000	2.53830E-004	2.40040E-001	6.32486E-001	3.57700E+000	9	...........
	39	0.533333	6.38131E-001	4.00931E-004	0.00000E+000	2.55847E-004	2.40040E-001	6.38356E-001	3.57700E+000	9	...........
	40	0.546667	6.43919E-001	4.00747E-004	0.00000E+000	2.58049E-004	2.40040E-001	6.44133E-001	3.57700E+000	9	...........
	41	0.56	6.49704E-001	4.01551E-004	0.00000E+000	2.60890E-004	2.40040E-001	6.49913E-001	3.57700E+000	9	...........
	42	0.573333	6.55496E-001	4.02191E-004	0.00000E+000	2.63635E-004	2.40040E-001	6.55713E-001	3.57700E+000	9	...........
	43	0.586667	6.61216E-001	4.00641E-004	0.00000E+000	2.64910E-004	2.40040E-001	6.61422E-001	3.57700E+000	9	...........
	44	0.6	6.66980E-001	4.02079E-004	0.00000E+000	2.68179E-004	2.40040E-001	6.67192E-001	3.57700E+000	9	...........
	45	0.613333	6.72718E-001	4.01527E-004	0.00000E+000	2.70115E-004	2.40040E-001	6.72938E-001	3.57700E+000	9	...........
	46	0.626667	6.78407E-001	4.01399E-004	0.00000E+000	2.72312E-004	2.40040E-001	6.78654E-001	3.57700E+000	9	...........
	47	0.64	6.84119E-001	4.00976E-004	0.00000E+000	2.74316E-004	2.40040E-001	6.84345E-001	3.57700E+000	9	...........
	48	0.653333	6.89791E-001	4.01896E-004	0.00000E+000	2.77225E-004	2.40040E-001	6.90020E-001	3.57700E+000	9	...........
	49	0.666667	6.95415E-001	4.00525E-004	0.00000E+000	2.78531E-004	2.40040E-001	6.95659E-001	3.57700E+000	9	...........
	50	0.68	7.00962E-001	4.01208E-004	0.00000E+000	2.81231E-004	2.40040E-001	7.01224E-001	3.57700E+000	9	...........
	51	0.693333	7.06635E-001	4.01172E-004	0.00000E+000	2.83482E-004	2.40040E-001	7.06899E-001	3.57700E+000	9	...........
	52	0.706667	7.12210E-001	4.01512E-004	0.00000E+000	2.85961E-004	2.40040E-001	7.12450E-001	3.57700E+000	9	...........
	53	0.72	7.17793E-001	4.01519E-004	0.00000E+000	2.88208E-004	2.40040E-001	7.18048E-001	3.57700E+000	9	...........
	54	0.733333	7.23419E-001	4.01320E-004	0.00000E+000	2.90322E-004	2.40040E-001	7.23623E-001	3.57700E+000	9	...........
	55	0.746667	7.28981E-001	3.99658E-004	0.00000E+000	2.91343E-004	2.40040E-001	7.29195E-001	3.57700E+000	9	...........
	56	0.76	7.34477E-001	4.00266E-004	0.00000E+000	2.93986E-004	2.40040E-001	7.34706E-001	3.57700E+000	9	...........
	57	0.773333	7.39914E-001	4.00238E-004	0.00000E+000	2.96141E-004	2.40040E-001	7.40161E-001	3.57700E+000	9	...........
	58	0.786667	7.45379E-001	4.00489E-004	0.00000E+000	2.98516E-004	2.40040E-001	7.45624E-001	3.57700E+000	9	...........
	59	0.8	7.50888E-001	4.00797E-004	0.00000E+000	3.00954E-004	2.40040E-001	7.51136E-001	3.57700E+000	9	...........
	60	0.813333	7.56350E-001	4.00875E-004	0.00000E+000	3.03202E-004	2.40040E-001	7.56590E-001	3.57744E+000	9	...........
	61	0.826667	7.61737E-001	4.01809E-004	0.00000E+000	3.06072E-004	2.40040E-001	7.61986E-001	3.57770E+000	9	...........
	62	0.84	7.67094E-001	4.00784E-004	0.00000E+000	3.07439E-004	2.40040E-001	7.67347E-001	3.57770E+000	9	...........
	63	0.853333	7.72414E-001	4.00625E-004	0.00000E+000	3.09449E-004	2.40040E-001	7.72667E-001	3.57770E+000	9	...........
	64	0.866667	7.77761E-001	4.01281E-004	0.00000E+000	3.12100E-004	2.40040E-001	7.78019E-001	3.57770E+000	9	...........
	65	0.88	7.83013E-001	4.00113E-004	0.00000E+000	3.13293E-004	2.40040E-001	7.83247E-001	3.57770E+000	9	...........
	66	0.893333	7.88174E-001	4.02446E-004	0.00000E+000	3.17198E-004	2.40040E-001	7.88420E-001	3.57770E+000	9	...........
	67	0.906667	7.93447E-001	4.01151E-004	0.00000E+000	3.18292E-004	2.40040E-001	7.93692E-001	3.57770E+000	9	...........
	68	0.92	7.98673E-001	4.01010E-004	0.00000E+000	3.20275E-004	2.40040E-001	7.98885E-001	3.57770E+000	9	...........
	69	0.933333	8.03790E-001	4.00673E-004	0.00000E+000	3.22057E-004	2.40040E-001	8.04029E-001	3.57770E+000	9	...........
	70	0.946667	8.08890E-001	4.01737E-004	0.00000E+000	3.24961E-004	2.40040E-001	8.09163E-001	3.57770E+000	9	...........
	71	0.96	8.13975E-001	4.01004E-004	0.00000E+000	3.26407E-004	2.40040E-001	8.14231E-001	3.57770E+000	9	...........
	72	0.97333	8.19064E-001	4.00668E-004	0.00000E+000	3.28173E-004	2.40040E-001	8.19351E-001	3.57770E+000	9	...........
	73	0.98667	8.24132E-001	4.01788E-004	0.00000E+000	3.31126E-004	2.40040E-001	8.24417E-001	3.57770E+000	9	...........
	74	1	8.29120E-001	4.01676E-004	0.00000E+000	3.33038E-004	2.40040E-001	8.29411E-001	3.57770E+000	9	...........
	75	1.01333	8.34111E-001	4.00613E-004	0.00000E+000	3.34155E-004	2.40040E-001	8.34387E-001	3.57770E+000	9	...........
	76	1.02667	8.39014E-001	4.01426E-004	0.00000E+000	3.36802E-004	2.40040E-001	8.39318E-001	3.57770E+000	9	...........
	77	1.04	8.43925E-001	4.01219E-004	0.00000E+000	3.38599E-004	2.40040E-001	8.44244E-001	3.57770E+000	9	...........
	78	1.05333	8.48770E-001	4.01959E-004	0.00000E+000	3.41171E-004	2.40040E-001	8.49063E-001	3.57770E+000	9	...........
	79	1.06667	8.53626E-001	4.00346E-004	0.00000E+000	3.41746E-004	2.40040E-001	8.53916E-001	3.57770E+000	9	...........
	80	1.08	8.58442E-001	4.01367E-004	0.00000E+000	3.44550E-004	2.40040E-001	8.58759E-001	3.57770E+000	9	...........
	81	1.09333	8.63168E-001	4.00801E-004	0.00000E+000	3.45959E-004	2.40040E-001	8.63503E-001	3.57770E+000	9	...........
	82	1.10667	8.67883E-001	4.01328E-004	0.00000E+000	3.48306E-004	2.40040E-001	8.68192E-001	3.57770E+000	9	...........
	83	1.12	8.72618E-001	4.00050E-004	0.00000E+000	3.49091E-004	2.40040E-001	8.72907E-001	3.57770E+000	9	...........
	84	1.13333	8.77251E-001	4.01335E-004	0.00000E+000	3.52071E-004	2.40040E-001	8.77548E-001	3.57770E+000	9	...........
	85	1.14667	8.81864E-001	4.01471E-004	0.00000E+000	3.54043E-004	2.40040E-001	8.82181E-001	3.57770E+000	9	...........
	86	1.16	8.86440E-001	4.01495E-004	0.00000E+000	3.55901E-004	2.40040E-001	8.86743E-001	3.57770E+000	9	...........
	87	1.17333	8.91058E-001	4.02122E-004	0.00000E+000	3.58314E-004	2.40040E-001	8.91343E-001	3.57770E+000	9	...........
	88	1.18667	8.95599E-001	4.01367E-004	0.00000E+000	3.59464E-004	2.40040E-001	8.95902E-001	3.57770E+000	9	...........
	89	1.2	9.00082E-001	4.00538E-004	0.00000E+000	3.60517E-004	2.40040E-001	9.00365E-001	3.57770E+000	9	...........
	90	1.21333	9.04513E-001	4.00859E-004	0.00000E+000	3.62582E-004	2.40040E-001	9.04830E-001	3.57770E+000	9	...........
	91	1.22667	9.08950E-001	4.00395E-004	0.00000E+000	3.63939E-004	2.40040E-001	9.09248E-001	3.57770E+000	9	...........
	92	1.24	9.13276E-001	4.01559E-004	0.00000E+000	3.66734E-004	2.40040E-001	9.13597E-001	3.57770E+000	9	...........
	93	1.25333	9.17576E-001	3.99811E-004	0.00000E+000	3.66857E-004	2.40040E-001	9.17908E-001	3.57770E+000	9	...........
	94	1.26667	9.21930E-001	4.00466E-004	0.00000E+000	3.69201E-004	2.40040E-001	9.22187E-001	3.57770E+000	9	...........
	95	1.28	9.26179E-001	4.01227E-004	0.00000E+000	3.71608E-004	2.40040E-001	9.26470E-001	3.57770E+000	9	...........
	96	1.29333	9.30465E-001	4.00087E-004	0.00000E+000	3.72267E-004	2.40040E-001	9.30738E-001	3.57770E+000	9	...........
	97	1.30667	9.34667E-001	4.00465E-004	0.00000E+000	3.74301E-004	2.40040E-001	9.34950E-001	3.57770E+000	9	...........
	98	1.32	9.38771E-001	3.99163E-004	0.00000E+000	3.74723E-004	2.40040E-001	9.39094E-001	3.57770E+000	9	...........
	99	1.33333	9.42929E-001	4.00989E-004	0.00000E+000	3.78104E-004	2.40040E-001	9.43236E-001	3.57770E+000	9	...........
	100	1.34667	9.47069E-001	4.00717E-004	0.00000E+000	3.79506E-004	2.40040E-001	9.47378E-001	3.57770E+000	9	...........
	101	1.36	9.51093E-001	4.01348E-004	0.00000E+000	3.81719E-004	2.40040E-001	9.51364E-001	3.57770E+000	9	...........
	102	1.37333	9.55034E-001	4.00842E-004	0.00000E+000	3.82818E-004	2.40040E-001	9.55330E-001	3.57770E+000	9	...........
	103	1.38667	9.58966E-001	4.00017E-004	0.00000E+000	3.83602E-004	2.40040E-001	9.59278E-001	3.57770E+000	9	...........
	104	1.4	9.62902E-001	4.00507E-004	0.00000E+000	3.85650E-004	2.40040E-001	9.63223E-001	3.57770E+000	9	...........
	105	1.41333	9.66861E-001	4.01789E-004	0.00000E+000	3.88474E-004	2.40040E-001	9.67145E-001	3.57770E+000	9	...........
	106	1.42667	9.70715E-001	4.00782E-004	0.00000E+000	3.89046E-004	2.40040E-001	9.71035E-001	3.57770E+000	9	...........
	107	1.44	9.74594E-001	4.01406E-004	0.00000E+000	3.91207E-004	2.40040E-001	9.74892E-001	3.57770E+000	9	...........
	108	1.45333	9.78398E-001	4.00655E-004	0.00000E+000	3.92000E-004	2.40040E-001	9.78693E-001	3.57770E+000	9	...........
	109	1.46667	9.82129E-001	4.00606E-004	0.00000E+000	3.93447E-004	2.40040E-001	9.82429E-001	3.57770E+000	9	...........
	110	1.48	9.85797E-001	4.02344E-004	0.00000E+000	3.96630E-004	2.40040E-001	9.86134E-001	3.57770E+000	9	...........
	111	1.49333	9.89476E-001	4.00892E-004	0.00000E+000	3.96673E-004	2.40040E-001	9.89787E-001	3.57770E+000	9	...........
	112	1.50667	9.93035E-001	4.00854E-004	0.00000E+000	3.98062E-004	2.40040E-001	9.93352E-001	3.57770E+000	9	...........
	113	1.52	9.96687E-001	4.01914E-004	0.00000E+000	4.00583E-004	2.40040E-001	9.97001E-001	3.57770E+000	9	...........
	114	1.52833	9.99550E-001	4.01234E-004	0.00000E+000	4.01053E-004	2.40040E-001	9.99867E-001	3.57770E+000	9	...........
STARTTIMEOFFSET	QUANT	1847.791	Start Time Offset (s)
