EXPLAIN
TAG	PWR800_CHARGE
TITLE	LABEL	PWR Cyclic Charge Discharge (Cell) - Charge Step	Test &Identifier
DATE	LABEL	12-7-2017	Date
TIME	LABEL	14:43:34	Time
NOTES	NOTES	3	&Notes...
	supercap test cell
	0.4mg
	6M KOH
PSTAT	PSTAT	IFC5000-01520	Potentiostat
CAPACITY	QUANT	1.00000E-003	Capacity (A-hr)
CELLTYPE	SELECTOR	1	&Cell Type
WORKINGCONNECTION	SELECTOR	0	&Working Lead
MAXCHARGETIME	VARIABLEANDUNITS	1.00000E+002	s	1.00000E+002	second(s)	Max &Charge Time
CHARGECURRENT	QUANT	4.00000E-004	&Charge Current (A) 
VOLTAGEFINISH	TWOPARAM	F	1.00000E-003	3.60000E+003	&Voltage Finish	 I (A) < 	Max Time(s)
SAMPLETIME	QUANT	1.00000E-002	Sa&mple Period (s)
CHARGESTOPAT1	MULTIPARAM	4	1.00000E+000	Charge Stop At &1	Voltage > Limit	V
CHARGESTOPAT2	MULTIPARAM	0	0.00000E+000	Charge Stop At &2	None	N/A
AESBHCSELECTOR	TOGGLE	F	Save Both Half Cells
IRCOMP	TOGGLE	F	IR &Measure
EOC	QUANT	0	Open Circuit (V)
SEQUENCER	TOGGLE	TRUE	Run as Sequence
PSTATMODEL	IQUANT	53	Pstat Model
PSTATSECTION	LABEL	IFC5000-01520	Pstat Section
PSTATSERIALNO	LABEL	01520	Pstat Serial Number
CTRLMODE	IQUANT	0	Control Mode
ELECTROMETER	IQUANT	1	RE=0 or CS=1
IESTAB	IQUANT	0	I/E Stability
CASPEED	IQUANT	4	Control Amp Speed
CONVENTION	IQUANT	1	Current Convention
ICHRANGE	IQUANT	2	Ich Range
ICHRANGEMODE	TOGGLE	T	Ich Auto Range
ICHOFFSETENABLE	TOGGLE	F	Ich Offset Enable
ICHOFFSET	QUANT	0	Ich Offset (V)
ICHFILTER	IQUANT	1	Ich Filter
VCHRANGE	IQUANT	2	Vch Range
VCHRANGEMODE	TOGGLE	T	Vch Auto Range
VCHOFFSETENABLE	TOGGLE	F	Vch Offset Enable
VCHOFFSET	QUANT	0	Vch Offset (V)
VCHFILTER	IQUANT	1	Vch Filter
IERANGELOWERLIMIT	IQUANT	9	I/E Range Lower Limit
IERANGEMODE	TOGGLE	F	I/E AutoRange
IERANGE	IQUANT	9	I/E Range
ACHSELECT	IQUANT	1	Ach Select
ACHRANGE	IQUANT	2	Ach Range
ACHOFFSETENABLE	TOGGLE	F	Ach Offset Enable
ACHOFFSET	QUANT	0	Ach Offset (V)
ACHFILTER	IQUANT	1	Ach Filter
CABLEID	IQUANT	14	Cable ID
DCCALDATE	LABEL	5-7-2017	DC Calibration Date
ACCALDATE	LABEL	12/3/2015	AC Calibration Date
FRAMEWORKVERSION	QUANT	7.01	Framework Version
INSTRUMENTVERSION	LABEL	4.00	Instrument Version
CURVE	TABLE	123
	Pt	T	Vf	Im	Vu	Pwr	Sig	Ach	Temp	IERange	Over
	#	s	V	A	V	W	V	V	deg C	#	bits
	0	0.013333	3.55801E-001	4.00800E-004	0.00000E+000	1.42605E-004	2.40040E-001	3.55902E-001	3.57630E+000	9	...........
	1	0.026667	3.66905E-001	4.01268E-004	0.00000E+000	1.47227E-004	2.40040E-001	3.66983E-001	3.57630E+000	9	...........
	2	0.04	3.76560E-001	4.01784E-004	0.00000E+000	1.51296E-004	2.40040E-001	3.76639E-001	3.57630E+000	9	...........
	3	0.053333	3.85321E-001	4.01079E-004	0.00000E+000	1.54544E-004	2.40040E-001	3.85400E-001	3.57637E+000	9	...........
	4	0.066667	3.93526E-001	4.00723E-004	0.00000E+000	1.57695E-004	2.40040E-001	3.93602E-001	3.57660E+000	9	...........
	5	0.08	4.01325E-001	3.99550E-004	0.00000E+000	1.60350E-004	2.40040E-001	4.01404E-001	3.57660E+000	9	...........
	6	0.093333	4.08851E-001	4.02600E-004	0.00000E+000	1.64603E-004	2.40040E-001	4.08941E-001	3.57660E+000	9	...........
	7	0.106667	4.16166E-001	4.01293E-004	0.00000E+000	1.67004E-004	2.40040E-001	4.16257E-001	3.57660E+000	9	...........
	8	0.12	4.23231E-001	4.01348E-004	0.00000E+000	1.69863E-004	2.40040E-001	4.23324E-001	3.57660E+000	9	...........
	9	0.133333	4.30224E-001	4.02255E-004	0.00000E+000	1.73060E-004	2.40040E-001	4.30314E-001	3.57660E+000	9	...........
	10	0.146667	4.37091E-001	4.00747E-004	0.00000E+000	1.75163E-004	2.40040E-001	4.37185E-001	3.57660E+000	9	...........
	11	0.16	4.43752E-001	4.02768E-004	0.00000E+000	1.78729E-004	2.40040E-001	4.43848E-001	3.57660E+000	9	...........
	12	0.173333	4.50311E-001	3.99409E-004	0.00000E+000	1.79858E-004	2.40040E-001	4.50405E-001	3.57660E+000	9	...........
	13	0.186667	4.56864E-001	4.01484E-004	0.00000E+000	1.83423E-004	2.40040E-001	4.56959E-001	3.57660E+000	9	...........
	14	0.2	4.63304E-001	4.00323E-004	0.00000E+000	1.85471E-004	2.40040E-001	4.63402E-001	3.57660E+000	9	...........
	15	0.213333	4.69683E-001	4.01940E-004	0.00000E+000	1.88784E-004	2.40040E-001	4.69781E-001	3.57660E+000	9	...........
	16	0.226667	4.75994E-001	4.00879E-004	0.00000E+000	1.90816E-004	2.40040E-001	4.76088E-001	3.57660E+000	9	...........
	17	0.24	4.82273E-001	4.01137E-004	0.00000E+000	1.93458E-004	2.40040E-001	4.82372E-001	3.57660E+000	9	...........
	18	0.253333	4.88542E-001	4.00418E-004	0.00000E+000	1.95621E-004	2.40040E-001	4.88636E-001	3.57660E+000	9	...........
	19	0.266667	4.94717E-001	3.99476E-004	0.00000E+000	1.97628E-004	2.40040E-001	4.94820E-001	3.57660E+000	9	...........
	20	0.28	5.00757E-001	4.00880E-004	0.00000E+000	2.00744E-004	2.40040E-001	5.00859E-001	3.57660E+000	9	...........
	21	0.293333	5.06842E-001	4.01141E-004	0.00000E+000	2.03315E-004	2.40040E-001	5.06943E-001	3.57660E+000	9	...........
	22	0.306667	5.12881E-001	4.01145E-004	0.00000E+000	2.05740E-004	2.40040E-001	5.12985E-001	3.57660E+000	9	...........
	23	0.32	5.18892E-001	4.02058E-004	0.00000E+000	2.08624E-004	2.40040E-001	5.19000E-001	3.57660E+000	9	...........
	24	0.333333	5.24861E-001	4.00853E-004	0.00000E+000	2.10392E-004	2.40040E-001	5.24971E-001	3.57660E+000	9	...........
	25	0.346667	5.30860E-001	4.01058E-004	0.00000E+000	2.12906E-004	2.40040E-001	5.30948E-001	3.57660E+000	9	...........
	26	0.36	5.36527E-001	4.01524E-004	0.00000E+000	2.15429E-004	2.40040E-001	5.36731E-001	3.57660E+000	9	...........
	27	0.373333	5.42442E-001	4.01199E-004	0.00000E+000	2.17627E-004	2.40040E-001	5.42674E-001	3.57660E+000	9	...........
	28	0.386667	5.48280E-001	4.01586E-004	0.00000E+000	2.20182E-004	2.40040E-001	5.48480E-001	3.57660E+000	9	...........
	29	0.4	5.54173E-001	4.00273E-004	0.00000E+000	2.21820E-004	2.40040E-001	5.54396E-001	3.57660E+000	9	...........
	30	0.413333	5.59963E-001	4.01429E-004	0.00000E+000	2.24786E-004	2.40040E-001	5.60216E-001	3.57660E+000	9	...........
	31	0.426667	5.65747E-001	4.01581E-004	0.00000E+000	2.27193E-004	2.40040E-001	5.65990E-001	3.57660E+000	9	...........
	32	0.44	5.71501E-001	4.00871E-004	0.00000E+000	2.29098E-004	2.40040E-001	5.71712E-001	3.57660E+000	9	...........
	33	0.453333	5.77212E-001	4.00674E-004	0.00000E+000	2.31274E-004	2.40040E-001	5.77440E-001	3.57660E+000	9	...........
	34	0.466667	5.82919E-001	4.01429E-004	0.00000E+000	2.34001E-004	2.40040E-001	5.83152E-001	3.57660E+000	9	...........
	35	0.48	5.88648E-001	4.01251E-004	0.00000E+000	2.36196E-004	2.40040E-001	5.88873E-001	3.57660E+000	9	...........
	36	0.493333	5.94412E-001	4.02770E-004	0.00000E+000	2.39412E-004	2.40040E-001	5.94645E-001	3.57660E+000	9	...........
	37	0.506667	5.99983E-001	4.01620E-004	0.00000E+000	2.40965E-004	2.40040E-001	6.00231E-001	3.57660E+000	9	...........
	38	0.52	6.05544E-001	4.00837E-004	0.00000E+000	2.42724E-004	2.40040E-001	6.05795E-001	3.57660E+000	9	...........
	39	0.533333	6.11150E-001	4.01492E-004	0.00000E+000	2.45372E-004	2.40040E-001	6.11397E-001	3.57660E+000	9	...........
	40	0.546667	6.16793E-001	4.01702E-004	0.00000E+000	2.47767E-004	2.40040E-001	6.17003E-001	3.57660E+000	9	...........
	41	0.56	6.22419E-001	4.00359E-004	0.00000E+000	2.49191E-004	2.40040E-001	6.22603E-001	3.57660E+000	9	...........
	42	0.573333	6.28032E-001	4.00899E-004	0.00000E+000	2.51778E-004	2.40040E-001	6.28233E-001	3.57660E+000	9	...........
	43	0.586667	6.33537E-001	4.01040E-004	0.00000E+000	2.54073E-004	2.40040E-001	6.33748E-001	3.57660E+000	9	...........
	44	0.6	6.39115E-001	4.01183E-004	0.00000E+000	2.56402E-004	2.40040E-001	6.39382E-001	3.57660E+000	9	...........
	45	0.613333	6.44751E-001	4.01438E-004	0.00000E+000	2.58827E-004	2.40040E-001	6.44976E-001	3.57660E+000	9	...........
	46	0.626667	6.50273E-001	4.01417E-004	0.00000E+000	2.61031E-004	2.40040E-001	6.50523E-001	3.57660E+000	9	...........
	47	0.64	6.55770E-001	4.01486E-004	0.00000E+000	2.63282E-004	2.40040E-001	6.56018E-001	3.57660E+000	9	...........
	48	0.653333	6.61228E-001	4.00407E-004	0.00000E+000	2.64761E-004	2.40040E-001	6.61454E-001	3.57660E+000	9	...........
	49	0.666667	6.66702E-001	4.01442E-004	0.00000E+000	2.67642E-004	2.40040E-001	6.66942E-001	3.57660E+000	9	...........
	50	0.68	6.72196E-001	4.01816E-004	0.00000E+000	2.70099E-004	2.40040E-001	6.72413E-001	3.57660E+000	9	...........
	51	0.693333	6.77642E-001	4.00853E-004	0.00000E+000	2.71635E-004	2.40040E-001	6.77890E-001	3.57660E+000	9	...........
	52	0.706667	6.83053E-001	4.02368E-004	0.00000E+000	2.74839E-004	2.40040E-001	6.83294E-001	3.57660E+000	9	...........
	53	0.72	6.88441E-001	4.00693E-004	0.00000E+000	2.75853E-004	2.40040E-001	6.88687E-001	3.57660E+000	9	...........
	54	0.733333	6.93795E-001	4.00562E-004	0.00000E+000	2.77908E-004	2.40040E-001	6.94040E-001	3.57660E+000	9	...........
	55	0.746667	6.99260E-001	4.00137E-004	0.00000E+000	2.79799E-004	2.40040E-001	6.99484E-001	3.57660E+000	9	...........
	56	0.76	7.04623E-001	4.00712E-004	0.00000E+000	2.82351E-004	2.40040E-001	7.04866E-001	3.57660E+000	9	...........
	57	0.773333	7.09998E-001	4.00823E-004	0.00000E+000	2.84583E-004	2.40040E-001	7.10235E-001	3.57660E+000	9	...........
	58	0.786667	7.15328E-001	4.00712E-004	0.00000E+000	2.86640E-004	2.40040E-001	7.15573E-001	3.57660E+000	9	...........
	59	0.8	7.20655E-001	4.01308E-004	0.00000E+000	2.89204E-004	2.40040E-001	7.20885E-001	3.57660E+000	9	...........
	60	0.813333	7.26013E-001	4.00294E-004	0.00000E+000	2.90619E-004	2.40040E-001	7.26260E-001	3.57660E+000	9	...........
	61	0.826667	7.31304E-001	4.00968E-004	0.00000E+000	2.93230E-004	2.40040E-001	7.31584E-001	3.57660E+000	9	...........
	62	0.84	7.36532E-001	4.01788E-004	0.00000E+000	2.95930E-004	2.40040E-001	7.36800E-001	3.57660E+000	9	...........
	63	0.853333	7.41772E-001	4.01992E-004	0.00000E+000	2.98186E-004	2.40040E-001	7.42065E-001	3.57660E+000	9	...........
	64	0.866667	7.47004E-001	4.01372E-004	0.00000E+000	2.99827E-004	2.40040E-001	7.47256E-001	3.57660E+000	9	...........
	65	0.88	7.52189E-001	4.01027E-004	0.00000E+000	3.01649E-004	2.40040E-001	7.52442E-001	3.57660E+000	9	...........
	66	0.893333	7.57420E-001	4.00796E-004	0.00000E+000	3.03571E-004	2.40040E-001	7.57664E-001	3.57660E+000	9	...........
	67	0.906667	7.62600E-001	4.01458E-004	0.00000E+000	3.06151E-004	2.40040E-001	7.62855E-001	3.57660E+000	9	...........
	68	0.92	7.67665E-001	3.99538E-004	0.00000E+000	3.06712E-004	2.40040E-001	7.67932E-001	3.57660E+000	9	...........
	69	0.933333	7.72772E-001	4.01719E-004	0.00000E+000	3.10437E-004	2.40040E-001	7.73037E-001	3.57660E+000	9	...........
	70	0.946667	7.77801E-001	4.00541E-004	0.00000E+000	3.11541E-004	2.40040E-001	7.78085E-001	3.57660E+000	9	...........
	71	0.96	7.82921E-001	4.00644E-004	0.00000E+000	3.13672E-004	2.40040E-001	7.83186E-001	3.57660E+000	9	...........
	72	0.97333	7.87968E-001	4.01099E-004	0.00000E+000	3.16053E-004	2.40040E-001	7.88232E-001	3.57660E+000	9	...........
	73	0.98667	7.92965E-001	4.00302E-004	0.00000E+000	3.17425E-004	2.40040E-001	7.93235E-001	3.57660E+000	9	...........
	74	1	7.97935E-001	4.00606E-004	0.00000E+000	3.19658E-004	2.40040E-001	7.98180E-001	3.57660E+000	9	...........
	75	1.01333	8.03002E-001	4.01071E-004	0.00000E+000	3.22061E-004	2.40040E-001	8.03243E-001	3.57660E+000	9	...........
	76	1.02667	8.07930E-001	4.01163E-004	0.00000E+000	3.24111E-004	2.40040E-001	8.08177E-001	3.57660E+000	9	...........
	77	1.04	8.12824E-001	3.98821E-004	0.00000E+000	3.24171E-004	2.40040E-001	8.13100E-001	3.57660E+000	9	...........
	78	1.05333	8.17756E-001	4.00504E-004	0.00000E+000	3.27515E-004	2.40040E-001	8.18008E-001	3.57675E+000	9	...........
	79	1.06667	8.22568E-001	4.00699E-004	0.00000E+000	3.29602E-004	2.40040E-001	8.22818E-001	3.57720E+000	9	...........
	80	1.08	8.27365E-001	4.01270E-004	0.00000E+000	3.31997E-004	2.40040E-001	8.27635E-001	3.57720E+000	9	...........
	81	1.09333	8.32170E-001	4.01514E-004	0.00000E+000	3.34128E-004	2.40040E-001	8.32445E-001	3.57720E+000	9	...........
	82	1.10667	8.36924E-001	4.01281E-004	0.00000E+000	3.35841E-004	2.40040E-001	8.37223E-001	3.57720E+000	9	...........
	83	1.12	8.41636E-001	3.99845E-004	0.00000E+000	3.36524E-004	2.40040E-001	8.41918E-001	3.57720E+000	9	...........
	84	1.13333	8.46384E-001	4.02379E-004	0.00000E+000	3.40567E-004	2.40040E-001	8.46660E-001	3.57720E+000	9	...........
	85	1.14667	8.51135E-001	4.00099E-004	0.00000E+000	3.40538E-004	2.40040E-001	8.51426E-001	3.57720E+000	9	...........
	86	1.16	8.55796E-001	4.01854E-004	0.00000E+000	3.43905E-004	2.40040E-001	8.56102E-001	3.57720E+000	9	...........
	87	1.17333	8.60403E-001	4.01981E-004	0.00000E+000	3.45865E-004	2.40040E-001	8.60692E-001	3.57720E+000	9	...........
	88	1.18667	8.64957E-001	4.01518E-004	0.00000E+000	3.47296E-004	2.40040E-001	8.65299E-001	3.57720E+000	9	...........
	89	1.2	8.69488E-001	4.01566E-004	0.00000E+000	3.49157E-004	2.40040E-001	8.69808E-001	3.57720E+000	9	...........
	90	1.21333	8.74026E-001	4.01152E-004	0.00000E+000	3.50617E-004	2.40040E-001	8.74334E-001	3.57720E+000	9	...........
	91	1.22667	8.78496E-001	4.01634E-004	0.00000E+000	3.52834E-004	2.40040E-001	8.78797E-001	3.57720E+000	9	...........
	92	1.24	8.82933E-001	4.00755E-004	0.00000E+000	3.53840E-004	2.40040E-001	8.83260E-001	3.57720E+000	9	...........
	93	1.25333	8.87298E-001	3.99106E-004	0.00000E+000	3.54126E-004	2.40040E-001	8.87592E-001	3.57720E+000	9	...........
	94	1.26667	8.91729E-001	4.00723E-004	0.00000E+000	3.57336E-004	2.40040E-001	8.92034E-001	3.57720E+000	9	...........
	95	1.28	8.96098E-001	4.00748E-004	0.00000E+000	3.59109E-004	2.40040E-001	8.96434E-001	3.57720E+000	9	...........
	96	1.29333	9.00412E-001	4.00632E-004	0.00000E+000	3.60734E-004	2.40040E-001	9.00723E-001	3.57720E+000	9	...........
	97	1.30667	9.04667E-001	4.00656E-004	0.00000E+000	3.62461E-004	2.40040E-001	9.05009E-001	3.57720E+000	9	...........
	98	1.32	9.08912E-001	4.01537E-004	0.00000E+000	3.64962E-004	2.40040E-001	9.09224E-001	3.57720E+000	9	...........
	99	1.33333	9.13181E-001	4.00614E-004	0.00000E+000	3.65833E-004	2.40040E-001	9.13485E-001	3.57720E+000	9	...........
	100	1.34667	9.17368E-001	4.01618E-004	0.00000E+000	3.68432E-004	2.40040E-001	9.17688E-001	3.57720E+000	9	...........
	101	1.36	9.21625E-001	4.00430E-004	0.00000E+000	3.69046E-004	2.40040E-001	9.21872E-001	3.57720E+000	9	...........
	102	1.37333	9.25714E-001	4.00531E-004	0.00000E+000	3.70777E-004	2.40040E-001	9.25959E-001	3.57720E+000	9	...........
	103	1.38667	9.29810E-001	4.01797E-004	0.00000E+000	3.73595E-004	2.40040E-001	9.30055E-001	3.57720E+000	9	...........
	104	1.4	9.33902E-001	4.00620E-004	0.00000E+000	3.74140E-004	2.40040E-001	9.34173E-001	3.57720E+000	9	...........
	105	1.41333	9.37934E-001	4.01443E-004	0.00000E+000	3.76527E-004	2.40040E-001	9.38218E-001	3.57720E+000	9	...........
	106	1.42667	9.41960E-001	4.02414E-004	0.00000E+000	3.79058E-004	2.40040E-001	9.42228E-001	3.57720E+000	9	...........
	107	1.44	9.45942E-001	4.00581E-004	0.00000E+000	3.78927E-004	2.40040E-001	9.46223E-001	3.57720E+000	9	...........
	108	1.45333	9.49872E-001	4.00997E-004	0.00000E+000	3.80896E-004	2.40040E-001	9.50155E-001	3.57720E+000	9	...........
	109	1.46667	9.53771E-001	4.01333E-004	0.00000E+000	3.82780E-004	2.40040E-001	9.54074E-001	3.57720E+000	9	...........
	110	1.48	9.57648E-001	4.00456E-004	0.00000E+000	3.83496E-004	2.40040E-001	9.57953E-001	3.57720E+000	9	...........
	111	1.49333	9.61432E-001	4.00901E-004	0.00000E+000	3.85439E-004	2.40040E-001	9.61735E-001	3.57720E+000	9	...........
	112	1.50667	9.65224E-001	4.01426E-004	0.00000E+000	3.87467E-004	2.40040E-001	9.65554E-001	3.57720E+000	9	...........
	113	1.52	9.68935E-001	4.00622E-004	0.00000E+000	3.88177E-004	2.40040E-001	9.69276E-001	3.57720E+000	9	...........
	114	1.53333	9.72635E-001	4.00575E-004	0.00000E+000	3.89613E-004	2.40040E-001	9.72995E-001	3.57720E+000	9	...........
	115	1.54667	9.76333E-001	4.01262E-004	0.00000E+000	3.91765E-004	2.40040E-001	9.76669E-001	3.57720E+000	9	...........
	116	1.56	9.79980E-001	4.00118E-004	0.00000E+000	3.92107E-004	2.40040E-001	9.80310E-001	3.57720E+000	9	...........
	117	1.57333	9.83541E-001	4.02684E-004	0.00000E+000	3.96056E-004	2.40040E-001	9.83861E-001	3.57720E+000	9	...........
	118	1.58667	9.87094E-001	4.00630E-004	0.00000E+000	3.95460E-004	2.40040E-001	9.87405E-001	3.57720E+000	9	...........
	119	1.6	9.90525E-001	4.01089E-004	0.00000E+000	3.97288E-004	2.40040E-001	9.90849E-001	3.57720E+000	9	...........
	120	1.61333	9.94039E-001	4.00133E-004	0.00000E+000	3.97748E-004	2.40040E-001	9.94370E-001	3.57720E+000	9	...........
	121	1.62667	9.97505E-001	3.99832E-004	0.00000E+000	3.98835E-004	2.40040E-001	9.97849E-001	3.57720E+000	9	...........
	122	1.63167	9.99879E-001	4.01566E-004	0.00000E+000	4.01518E-004	2.40040E-001	1.00018E+000	3.57720E+000	9	...........
STARTTIMEOFFSET	QUANT	1197.67	Start Time Offset (s)
