EXPLAIN
TAG	PWR800_CHARGE
TITLE	LABEL	PWR Cyclic Charge Discharge (Cell) - Charge Step	Test &Identifier
DATE	LABEL	12-7-2017	Date
TIME	LABEL	15:00:33	Time
NOTES	NOTES	3	&Notes...
	supercap test cell
	0.4mg
	6M KOH
PSTAT	PSTAT	IFC5000-01520	Potentiostat
CAPACITY	QUANT	1.00000E-003	Capacity (A-hr)
CELLTYPE	SELECTOR	1	&Cell Type
WORKINGCONNECTION	SELECTOR	0	&Working Lead
MAXCHARGETIME	VARIABLEANDUNITS	1.00000E+002	s	1.00000E+002	second(s)	Max &Charge Time
CHARGECURRENT	QUANT	4.00000E-004	&Charge Current (A) 
VOLTAGEFINISH	TWOPARAM	F	1.00000E-003	3.60000E+003	&Voltage Finish	 I (A) < 	Max Time(s)
SAMPLETIME	QUANT	1.00000E-002	Sa&mple Period (s)
CHARGESTOPAT1	MULTIPARAM	4	1.00000E+000	Charge Stop At &1	Voltage > Limit	V
CHARGESTOPAT2	MULTIPARAM	0	0.00000E+000	Charge Stop At &2	None	N/A
AESBHCSELECTOR	TOGGLE	F	Save Both Half Cells
IRCOMP	TOGGLE	F	IR &Measure
EOC	QUANT	0	Open Circuit (V)
SEQUENCER	TOGGLE	TRUE	Run as Sequence
PSTATMODEL	IQUANT	53	Pstat Model
PSTATSECTION	LABEL	IFC5000-01520	Pstat Section
PSTATSERIALNO	LABEL	01520	Pstat Serial Number
CTRLMODE	IQUANT	0	Control Mode
ELECTROMETER	IQUANT	1	RE=0 or CS=1
IESTAB	IQUANT	0	I/E Stability
CASPEED	IQUANT	4	Control Amp Speed
CONVENTION	IQUANT	1	Current Convention
ICHRANGE	IQUANT	2	Ich Range
ICHRANGEMODE	TOGGLE	T	Ich Auto Range
ICHOFFSETENABLE	TOGGLE	F	Ich Offset Enable
ICHOFFSET	QUANT	0	Ich Offset (V)
ICHFILTER	IQUANT	1	Ich Filter
VCHRANGE	IQUANT	2	Vch Range
VCHRANGEMODE	TOGGLE	T	Vch Auto Range
VCHOFFSETENABLE	TOGGLE	F	Vch Offset Enable
VCHOFFSET	QUANT	0	Vch Offset (V)
VCHFILTER	IQUANT	1	Vch Filter
IERANGELOWERLIMIT	IQUANT	9	I/E Range Lower Limit
IERANGEMODE	TOGGLE	F	I/E AutoRange
IERANGE	IQUANT	9	I/E Range
ACHSELECT	IQUANT	1	Ach Select
ACHRANGE	IQUANT	2	Ach Range
ACHOFFSETENABLE	TOGGLE	F	Ach Offset Enable
ACHOFFSET	QUANT	0	Ach Offset (V)
ACHFILTER	IQUANT	1	Ach Filter
CABLEID	IQUANT	14	Cable ID
DCCALDATE	LABEL	5-7-2017	DC Calibration Date
ACCALDATE	LABEL	12/3/2015	AC Calibration Date
FRAMEWORKVERSION	QUANT	7.01	Framework Version
INSTRUMENTVERSION	LABEL	4.00	Instrument Version
CURVE	TABLE	112
	Pt	T	Vf	Im	Vu	Pwr	Sig	Ach	Temp	IERange	Over
	#	s	V	A	V	W	V	V	deg C	#	bits
	0	0.013333	3.88508E-001	4.01648E-004	0.00000E+000	1.56044E-004	2.40040E-001	3.88603E-001	3.57670E+000	9	...........
	1	0.026667	3.98689E-001	4.02344E-004	0.00000E+000	1.60410E-004	2.40040E-001	3.98760E-001	3.57670E+000	9	...........
	2	0.04	4.07925E-001	4.01857E-004	0.00000E+000	1.63928E-004	2.40040E-001	4.08000E-001	3.57670E+000	9	...........
	3	0.053333	4.16620E-001	4.01835E-004	0.00000E+000	1.67412E-004	2.40040E-001	4.16706E-001	3.57670E+000	9	...........
	4	0.066667	4.24881E-001	4.00528E-004	0.00000E+000	1.70177E-004	2.40040E-001	4.24967E-001	3.57670E+000	9	...........
	5	0.08	4.32821E-001	4.01693E-004	0.00000E+000	1.73861E-004	2.40040E-001	4.32908E-001	3.57670E+000	9	...........
	6	0.093333	4.40423E-001	3.99994E-004	0.00000E+000	1.76166E-004	2.40040E-001	4.40509E-001	3.57670E+000	9	...........
	7	0.106667	4.47907E-001	4.00163E-004	0.00000E+000	1.79236E-004	2.40040E-001	4.47989E-001	3.57670E+000	9	...........
	8	0.12	4.55219E-001	3.99890E-004	0.00000E+000	1.82037E-004	2.40040E-001	4.55302E-001	3.57670E+000	9	...........
	9	0.133333	4.62416E-001	4.01534E-004	0.00000E+000	1.85676E-004	2.40040E-001	4.62499E-001	3.57670E+000	9	...........
	10	0.146667	4.69449E-001	4.00912E-004	0.00000E+000	1.88208E-004	2.40040E-001	4.69537E-001	3.57670E+000	9	...........
	11	0.16	4.76502E-001	4.00541E-004	0.00000E+000	1.90858E-004	2.40040E-001	4.76594E-001	3.57670E+000	9	...........
	12	0.173333	4.83454E-001	4.00598E-004	0.00000E+000	1.93671E-004	2.40040E-001	4.83547E-001	3.57670E+000	9	...........
	13	0.186667	4.90245E-001	4.01971E-004	0.00000E+000	1.97064E-004	2.40040E-001	4.90337E-001	3.57670E+000	9	...........
	14	0.2	4.96906E-001	4.01228E-004	0.00000E+000	1.99373E-004	2.40040E-001	4.97005E-001	3.57670E+000	9	...........
	15	0.213333	5.03516E-001	4.01066E-004	0.00000E+000	2.01943E-004	2.40040E-001	5.03619E-001	3.57670E+000	9	...........
	16	0.226667	5.10121E-001	4.01395E-004	0.00000E+000	2.04760E-004	2.40040E-001	5.10227E-001	3.57670E+000	9	...........
	17	0.24	5.16721E-001	4.00760E-004	0.00000E+000	2.07081E-004	2.40040E-001	5.16828E-001	3.57670E+000	9	...........
	18	0.253333	5.23116E-001	3.99650E-004	0.00000E+000	2.09063E-004	2.40040E-001	5.23223E-001	3.57670E+000	9	...........
	19	0.266667	5.29549E-001	4.01695E-004	0.00000E+000	2.12717E-004	2.40040E-001	5.29656E-001	3.57670E+000	9	...........
	20	0.28	5.35770E-001	4.01196E-004	0.00000E+000	2.14949E-004	2.40040E-001	5.35960E-001	3.57670E+000	9	...........
	21	0.293333	5.42111E-001	4.01743E-004	0.00000E+000	2.17789E-004	2.40040E-001	5.42345E-001	3.57670E+000	9	...........
	22	0.306667	5.48412E-001	4.02121E-004	0.00000E+000	2.20528E-004	2.40040E-001	5.48637E-001	3.57670E+000	9	...........
	23	0.32	5.54676E-001	4.01472E-004	0.00000E+000	2.22687E-004	2.40040E-001	5.54906E-001	3.57670E+000	9	...........
	24	0.333333	5.60926E-001	4.02148E-004	0.00000E+000	2.25576E-004	2.40040E-001	5.61159E-001	3.57670E+000	9	...........
	25	0.346667	5.67185E-001	4.00591E-004	0.00000E+000	2.27209E-004	2.40040E-001	5.67397E-001	3.57670E+000	9	...........
	26	0.36	5.73398E-001	4.00967E-004	0.00000E+000	2.29914E-004	2.40040E-001	5.73628E-001	3.57670E+000	9	...........
	27	0.373333	5.79546E-001	4.00073E-004	0.00000E+000	2.31861E-004	2.40040E-001	5.79766E-001	3.57670E+000	9	...........
	28	0.386667	5.85627E-001	3.99828E-004	0.00000E+000	2.34150E-004	2.40040E-001	5.85877E-001	3.57670E+000	9	...........
	29	0.4	5.91761E-001	4.01566E-004	0.00000E+000	2.37631E-004	2.40040E-001	5.92020E-001	3.57670E+000	9	...........
	30	0.413333	5.97784E-001	4.00471E-004	0.00000E+000	2.39395E-004	2.40040E-001	5.98022E-001	3.57670E+000	9	...........
	31	0.426667	6.03818E-001	4.01409E-004	0.00000E+000	2.42378E-004	2.40040E-001	6.04063E-001	3.57670E+000	9	...........
	32	0.44	6.09799E-001	4.02088E-004	0.00000E+000	2.45193E-004	2.40040E-001	6.10059E-001	3.57670E+000	9	...........
	33	0.453333	6.15852E-001	4.00801E-004	0.00000E+000	2.46834E-004	2.40040E-001	6.16082E-001	3.57670E+000	9	...........
	34	0.466667	6.21840E-001	4.00555E-004	0.00000E+000	2.49081E-004	2.40040E-001	6.22067E-001	3.57670E+000	9	...........
	35	0.48	6.27858E-001	4.00780E-004	0.00000E+000	2.51633E-004	2.40040E-001	6.28077E-001	3.57670E+000	9	...........
	36	0.493333	6.33813E-001	4.01500E-004	0.00000E+000	2.54476E-004	2.40040E-001	6.34038E-001	3.57670E+000	9	...........
	37	0.506667	6.39809E-001	4.00678E-004	0.00000E+000	2.56358E-004	2.40040E-001	6.40033E-001	3.57670E+000	9	...........
	38	0.52	6.45674E-001	4.00812E-004	0.00000E+000	2.58794E-004	2.40040E-001	6.45916E-001	3.57670E+000	9	...........
	39	0.533333	6.51555E-001	4.00639E-004	0.00000E+000	2.61038E-004	2.40040E-001	6.51796E-001	3.57670E+000	9	...........
	40	0.546667	6.57424E-001	4.00006E-004	0.00000E+000	2.62974E-004	2.40040E-001	6.57644E-001	3.57670E+000	9	...........
	41	0.56	6.63213E-001	4.00595E-004	0.00000E+000	2.65680E-004	2.40040E-001	6.63455E-001	3.57670E+000	9	...........
	42	0.573333	6.69072E-001	4.01366E-004	0.00000E+000	2.68543E-004	2.40040E-001	6.69317E-001	3.57670E+000	9	...........
	43	0.586667	6.74862E-001	4.01569E-004	0.00000E+000	2.71004E-004	2.40040E-001	6.75119E-001	3.57670E+000	9	...........
	44	0.6	6.80683E-001	4.00512E-004	0.00000E+000	2.72621E-004	2.40040E-001	6.80927E-001	3.57670E+000	9	...........
	45	0.613333	6.86381E-001	4.00467E-004	0.00000E+000	2.74873E-004	2.40040E-001	6.86624E-001	3.57670E+000	9	...........
	46	0.626667	6.92145E-001	4.01045E-004	0.00000E+000	2.77581E-004	2.40040E-001	6.92382E-001	3.57670E+000	9	...........
	47	0.64	6.97907E-001	4.01171E-004	0.00000E+000	2.79980E-004	2.40040E-001	6.98135E-001	3.57670E+000	9	...........
	48	0.653333	7.03611E-001	4.02619E-004	0.00000E+000	2.83288E-004	2.40040E-001	7.03839E-001	3.57695E+000	9	...........
	49	0.666667	7.09234E-001	4.01123E-004	0.00000E+000	2.84490E-004	2.40040E-001	7.09473E-001	3.57770E+000	9	...........
	50	0.68	7.14864E-001	4.00936E-004	0.00000E+000	2.86615E-004	2.40040E-001	7.15124E-001	3.57770E+000	9	...........
	51	0.693333	7.20545E-001	4.00610E-004	0.00000E+000	2.88657E-004	2.40040E-001	7.20758E-001	3.57770E+000	9	...........
	52	0.706667	7.26122E-001	4.02709E-004	0.00000E+000	2.92416E-004	2.40040E-001	7.26361E-001	3.57770E+000	9	...........
	53	0.72	7.31649E-001	4.00990E-004	0.00000E+000	2.93384E-004	2.40040E-001	7.31906E-001	3.57770E+000	9	...........
	54	0.733333	7.37256E-001	4.01398E-004	0.00000E+000	2.95933E-004	2.40040E-001	7.37491E-001	3.57770E+000	9	...........
	55	0.746667	7.42797E-001	4.01734E-004	0.00000E+000	2.98407E-004	2.40040E-001	7.43036E-001	3.57770E+000	9	...........
	56	0.76	7.48304E-001	4.00262E-004	0.00000E+000	2.99517E-004	2.40040E-001	7.48554E-001	3.57770E+000	9	...........
	57	0.773333	7.53756E-001	4.00539E-004	0.00000E+000	3.01909E-004	2.40040E-001	7.53999E-001	3.57770E+000	9	...........
	58	0.786667	7.59251E-001	4.01477E-004	0.00000E+000	3.04822E-004	2.40040E-001	7.59496E-001	3.57770E+000	9	...........
	59	0.8	7.64677E-001	4.00916E-004	0.00000E+000	3.06571E-004	2.40040E-001	7.64930E-001	3.57770E+000	9	...........
	60	0.813333	7.70119E-001	4.00896E-004	0.00000E+000	3.08737E-004	2.40040E-001	7.70364E-001	3.57770E+000	9	...........
	61	0.826667	7.75464E-001	4.00125E-004	0.00000E+000	3.10283E-004	2.40040E-001	7.75691E-001	3.57770E+000	9	...........
	62	0.84	7.80761E-001	4.01542E-004	0.00000E+000	3.13508E-004	2.40040E-001	7.81012E-001	3.57770E+000	9	...........
	63	0.853333	7.86084E-001	4.00491E-004	0.00000E+000	3.14820E-004	2.40040E-001	7.86315E-001	3.57770E+000	9	...........
	64	0.866667	7.91333E-001	4.01519E-004	0.00000E+000	3.17735E-004	2.40040E-001	7.91575E-001	3.57770E+000	9	...........
	65	0.88	7.96595E-001	3.99086E-004	0.00000E+000	3.17910E-004	2.40040E-001	7.96855E-001	3.57770E+000	9	...........
	66	0.893333	8.01872E-001	4.01176E-004	0.00000E+000	3.21692E-004	2.40040E-001	8.02120E-001	3.57770E+000	9	...........
	67	0.906667	8.07038E-001	4.00885E-004	0.00000E+000	3.23529E-004	2.40040E-001	8.07326E-001	3.57770E+000	9	...........
	68	0.92	8.12133E-001	4.01593E-004	0.00000E+000	3.26147E-004	2.40040E-001	8.12408E-001	3.57770E+000	9	...........
	69	0.933333	8.17265E-001	4.00364E-004	0.00000E+000	3.27203E-004	2.40040E-001	8.17520E-001	3.57770E+000	9	...........
	70	0.946667	8.22422E-001	4.01985E-004	0.00000E+000	3.30601E-004	2.40040E-001	8.22690E-001	3.57770E+000	9	...........
	71	0.96	8.27496E-001	4.01471E-004	0.00000E+000	3.32216E-004	2.40040E-001	8.27743E-001	3.57770E+000	9	...........
	72	0.97333	8.32468E-001	4.01425E-004	0.00000E+000	3.34174E-004	2.40040E-001	8.32755E-001	3.57770E+000	9	...........
	73	0.98667	8.37475E-001	4.01499E-004	0.00000E+000	3.36246E-004	2.40040E-001	8.37740E-001	3.57770E+000	9	...........
	74	1	8.42422E-001	4.02079E-004	0.00000E+000	3.38720E-004	2.40040E-001	8.42678E-001	3.57770E+000	9	...........
	75	1.01333	8.47355E-001	4.00590E-004	0.00000E+000	3.39442E-004	2.40040E-001	8.47603E-001	3.57770E+000	9	...........
	76	1.02667	8.52258E-001	4.02213E-004	0.00000E+000	3.42789E-004	2.40040E-001	8.52513E-001	3.57770E+000	9	...........
	77	1.04	8.57059E-001	4.02795E-004	0.00000E+000	3.45220E-004	2.40040E-001	8.57338E-001	3.57770E+000	9	...........
	78	1.05333	8.61895E-001	4.01681E-004	0.00000E+000	3.46206E-004	2.40040E-001	8.62167E-001	3.57770E+000	9	...........
	79	1.06667	8.66647E-001	4.00730E-004	0.00000E+000	3.47292E-004	2.40040E-001	8.66932E-001	3.57770E+000	9	...........
	80	1.08	8.71454E-001	4.01485E-004	0.00000E+000	3.49875E-004	2.40040E-001	8.71716E-001	3.57770E+000	9	...........
	81	1.09333	8.76165E-001	4.01143E-004	0.00000E+000	3.51468E-004	2.40040E-001	8.76456E-001	3.57770E+000	9	...........
	82	1.10667	8.80807E-001	4.01614E-004	0.00000E+000	3.53744E-004	2.40040E-001	8.81094E-001	3.57770E+000	9	...........
	83	1.12	8.85456E-001	4.00785E-004	0.00000E+000	3.54877E-004	2.40040E-001	8.85759E-001	3.57770E+000	9	...........
	84	1.13333	8.90112E-001	3.99701E-004	0.00000E+000	3.55779E-004	2.40040E-001	8.90422E-001	3.57770E+000	9	...........
	85	1.14667	8.94667E-001	4.02530E-004	0.00000E+000	3.60130E-004	2.40040E-001	8.95010E-001	3.57770E+000	9	...........
	86	1.16	8.99205E-001	4.00564E-004	0.00000E+000	3.60189E-004	2.40040E-001	8.99539E-001	3.57770E+000	9	...........
	87	1.17333	9.03705E-001	4.01339E-004	0.00000E+000	3.62692E-004	2.40040E-001	9.04049E-001	3.57770E+000	9	...........
	88	1.18667	9.08165E-001	4.02435E-004	0.00000E+000	3.65477E-004	2.40040E-001	9.08490E-001	3.57770E+000	9	...........
	89	1.2	9.12606E-001	3.99509E-004	0.00000E+000	3.64595E-004	2.40040E-001	9.12914E-001	3.57770E+000	9	...........
	90	1.21333	9.16958E-001	4.00714E-004	0.00000E+000	3.67438E-004	2.40040E-001	9.17299E-001	3.57770E+000	9	...........
	91	1.22667	9.21363E-001	4.00621E-004	0.00000E+000	3.69117E-004	2.40040E-001	9.21688E-001	3.57770E+000	9	...........
	92	1.24	9.25674E-001	4.01943E-004	0.00000E+000	3.72068E-004	2.40040E-001	9.25948E-001	3.57770E+000	9	...........
	93	1.25333	9.29935E-001	4.00124E-004	0.00000E+000	3.72089E-004	2.40040E-001	9.30203E-001	3.57770E+000	9	...........
	94	1.26667	9.34135E-001	4.00317E-004	0.00000E+000	3.73950E-004	2.40040E-001	9.34424E-001	3.57770E+000	9	...........
	95	1.28	9.38324E-001	4.00275E-004	0.00000E+000	3.75588E-004	2.40040E-001	9.38603E-001	3.57770E+000	9	...........
	96	1.29333	9.42491E-001	4.02078E-004	0.00000E+000	3.78954E-004	2.40040E-001	9.42744E-001	3.57770E+000	9	...........
	97	1.30667	9.46675E-001	4.00432E-004	0.00000E+000	3.79079E-004	2.40040E-001	9.46929E-001	3.57770E+000	9	...........
	98	1.32	9.50728E-001	4.01047E-004	0.00000E+000	3.81287E-004	2.40040E-001	9.51000E-001	3.57770E+000	9	...........
	99	1.33333	9.54707E-001	4.00260E-004	0.00000E+000	3.82131E-004	2.40040E-001	9.54971E-001	3.57770E+000	9	...........
	100	1.34667	9.58665E-001	4.00525E-004	0.00000E+000	3.83969E-004	2.40040E-001	9.58964E-001	3.57770E+000	9	...........
	101	1.36	9.62623E-001	4.01309E-004	0.00000E+000	3.86309E-004	2.40040E-001	9.62950E-001	3.57770E+000	9	...........
	102	1.37333	9.66524E-001	4.01245E-004	0.00000E+000	3.87813E-004	2.40040E-001	9.66844E-001	3.57770E+000	9	...........
	103	1.38667	9.70399E-001	4.01731E-004	0.00000E+000	3.89839E-004	2.40040E-001	9.70758E-001	3.57770E+000	9	...........
	104	1.4	9.74367E-001	4.01467E-004	0.00000E+000	3.91176E-004	2.40040E-001	9.74666E-001	3.57770E+000	9	...........
	105	1.41333	9.78211E-001	4.01534E-004	0.00000E+000	3.92784E-004	2.40040E-001	9.78550E-001	3.57770E+000	9	...........
	106	1.42667	9.81998E-001	4.01054E-004	0.00000E+000	3.93835E-004	2.40040E-001	9.82320E-001	3.57770E+000	9	...........
	107	1.44	9.85623E-001	4.00241E-004	0.00000E+000	3.94487E-004	2.40040E-001	9.85969E-001	3.57770E+000	9	...........
	108	1.45333	9.89298E-001	4.02059E-004	0.00000E+000	3.97756E-004	2.40040E-001	9.89626E-001	3.57770E+000	9	...........
	109	1.46667	9.92937E-001	4.00921E-004	0.00000E+000	3.98089E-004	2.40040E-001	9.93261E-001	3.57770E+000	9	...........
	110	1.48	9.96560E-001	4.00065E-004	0.00000E+000	3.98688E-004	2.40040E-001	9.96872E-001	3.57770E+000	9	...........
	111	1.48833	9.99476E-001	4.01286E-004	0.00000E+000	4.01075E-004	2.40040E-001	9.99803E-001	3.57770E+000	9	...........
STARTTIMEOFFSET	QUANT	1999.238	Start Time Offset (s)
