EXPLAIN
TAG	PWR800_CHARGE
TITLE	LABEL	PWR Cyclic Charge Discharge (Cell) - Charge Step	Test &Identifier
DATE	LABEL	12-7-2017	Date
TIME	LABEL	15:09:53	Time
NOTES	NOTES	3	&Notes...
	supercap test cell
	0.4mg
	6M KOH
PSTAT	PSTAT	IFC5000-01520	Potentiostat
CAPACITY	QUANT	1.00000E-003	Capacity (A-hr)
CELLTYPE	SELECTOR	1	&Cell Type
WORKINGCONNECTION	SELECTOR	0	&Working Lead
MAXCHARGETIME	VARIABLEANDUNITS	1.00000E+002	s	1.00000E+002	second(s)	Max &Charge Time
CHARGECURRENT	QUANT	4.00000E-004	&Charge Current (A) 
VOLTAGEFINISH	TWOPARAM	F	1.00000E-003	3.60000E+003	&Voltage Finish	 I (A) < 	Max Time(s)
SAMPLETIME	QUANT	1.00000E-002	Sa&mple Period (s)
CHARGESTOPAT1	MULTIPARAM	4	1.00000E+000	Charge Stop At &1	Voltage > Limit	V
CHARGESTOPAT2	MULTIPARAM	0	0.00000E+000	Charge Stop At &2	None	N/A
AESBHCSELECTOR	TOGGLE	F	Save Both Half Cells
IRCOMP	TOGGLE	F	IR &Measure
EOC	QUANT	0	Open Circuit (V)
SEQUENCER	TOGGLE	TRUE	Run as Sequence
PSTATMODEL	IQUANT	53	Pstat Model
PSTATSECTION	LABEL	IFC5000-01520	Pstat Section
PSTATSERIALNO	LABEL	01520	Pstat Serial Number
CTRLMODE	IQUANT	0	Control Mode
ELECTROMETER	IQUANT	1	RE=0 or CS=1
IESTAB	IQUANT	0	I/E Stability
CASPEED	IQUANT	4	Control Amp Speed
CONVENTION	IQUANT	1	Current Convention
ICHRANGE	IQUANT	2	Ich Range
ICHRANGEMODE	TOGGLE	T	Ich Auto Range
ICHOFFSETENABLE	TOGGLE	F	Ich Offset Enable
ICHOFFSET	QUANT	0	Ich Offset (V)
ICHFILTER	IQUANT	1	Ich Filter
VCHRANGE	IQUANT	2	Vch Range
VCHRANGEMODE	TOGGLE	T	Vch Auto Range
VCHOFFSETENABLE	TOGGLE	F	Vch Offset Enable
VCHOFFSET	QUANT	0	Vch Offset (V)
VCHFILTER	IQUANT	1	Vch Filter
IERANGELOWERLIMIT	IQUANT	9	I/E Range Lower Limit
IERANGEMODE	TOGGLE	F	I/E AutoRange
IERANGE	IQUANT	9	I/E Range
ACHSELECT	IQUANT	1	Ach Select
ACHRANGE	IQUANT	2	Ach Range
ACHOFFSETENABLE	TOGGLE	F	Ach Offset Enable
ACHOFFSET	QUANT	0	Ach Offset (V)
ACHFILTER	IQUANT	1	Ach Filter
CABLEID	IQUANT	14	Cable ID
DCCALDATE	LABEL	5-7-2017	DC Calibration Date
ACCALDATE	LABEL	12/3/2015	AC Calibration Date
FRAMEWORKVERSION	QUANT	7.01	Framework Version
INSTRUMENTVERSION	LABEL	4.00	Instrument Version
CURVE	TABLE	110
	Pt	T	Vf	Im	Vu	Pwr	Sig	Ach	Temp	IERange	Over
	#	s	V	A	V	W	V	V	deg C	#	bits
	0	0.013333	3.82285E-001	4.00325E-004	0.00000E+000	1.53038E-004	2.40040E-001	3.82370E-001	3.57630E+000	9	...........
	1	0.026667	3.94761E-001	4.00576E-004	0.00000E+000	1.58132E-004	2.40040E-001	3.94832E-001	3.57630E+000	9	...........
	2	0.04	4.05389E-001	4.01175E-004	0.00000E+000	1.62632E-004	2.40040E-001	4.05467E-001	3.57630E+000	9	...........
	3	0.053333	4.15002E-001	4.00345E-004	0.00000E+000	1.66144E-004	2.40040E-001	4.15080E-001	3.57630E+000	9	...........
	4	0.066667	4.24001E-001	4.00930E-004	0.00000E+000	1.69995E-004	2.40040E-001	4.24088E-001	3.57630E+000	9	...........
	5	0.08	4.32538E-001	4.01265E-004	0.00000E+000	1.73562E-004	2.40040E-001	4.32625E-001	3.57630E+000	9	...........
	6	0.093333	4.40759E-001	4.01161E-004	0.00000E+000	1.76815E-004	2.40040E-001	4.40850E-001	3.57630E+000	9	...........
	7	0.106667	4.48672E-001	4.01590E-004	0.00000E+000	1.80182E-004	2.40040E-001	4.48765E-001	3.57630E+000	9	...........
	8	0.12	4.56302E-001	4.01376E-004	0.00000E+000	1.83149E-004	2.40040E-001	4.56386E-001	3.57630E+000	9	...........
	9	0.133333	4.63799E-001	4.00015E-004	0.00000E+000	1.85526E-004	2.40040E-001	4.63891E-001	3.57630E+000	9	...........
	10	0.146667	4.71193E-001	4.00184E-004	0.00000E+000	1.88564E-004	2.40040E-001	4.71286E-001	3.57630E+000	9	...........
	11	0.16	4.78377E-001	4.01547E-004	0.00000E+000	1.92091E-004	2.40040E-001	4.78466E-001	3.57630E+000	9	...........
	12	0.173333	4.85492E-001	4.01559E-004	0.00000E+000	1.94953E-004	2.40040E-001	4.85577E-001	3.57630E+000	9	...........
	13	0.186667	4.92512E-001	4.01674E-004	0.00000E+000	1.97830E-004	2.40040E-001	4.92611E-001	3.57630E+000	9	...........
	14	0.2	4.99386E-001	4.02227E-004	0.00000E+000	2.00866E-004	2.40040E-001	4.99486E-001	3.57630E+000	9	...........
	15	0.213333	5.06276E-001	4.01996E-004	0.00000E+000	2.03521E-004	2.40040E-001	5.06372E-001	3.57630E+000	9	...........
	16	0.226667	5.13078E-001	4.00636E-004	0.00000E+000	2.05557E-004	2.40040E-001	5.13174E-001	3.57630E+000	9	...........
	17	0.24	5.19796E-001	4.01179E-004	0.00000E+000	2.08531E-004	2.40040E-001	5.19894E-001	3.57630E+000	9	...........
	18	0.253333	5.26490E-001	4.01177E-004	0.00000E+000	2.11216E-004	2.40040E-001	5.26591E-001	3.57630E+000	9	...........
	19	0.266667	5.33000E-001	4.02090E-004	0.00000E+000	2.14314E-004	2.40040E-001	5.33125E-001	3.57630E+000	9	...........
	20	0.28	5.39468E-001	4.01700E-004	0.00000E+000	2.16705E-004	2.40040E-001	5.39706E-001	3.57630E+000	9	...........
	21	0.293333	5.45979E-001	4.00813E-004	0.00000E+000	2.18835E-004	2.40040E-001	5.46214E-001	3.57630E+000	9	...........
	22	0.306667	5.52466E-001	4.00024E-004	0.00000E+000	2.20999E-004	2.40040E-001	5.52709E-001	3.57639E+000	9	...........
	23	0.32	5.58935E-001	4.01510E-004	0.00000E+000	2.24418E-004	2.40040E-001	5.59177E-001	3.57700E+000	9	...........
	24	0.333333	5.65283E-001	4.00700E-004	0.00000E+000	2.26509E-004	2.40040E-001	5.65530E-001	3.57700E+000	9	...........
	25	0.346667	5.71674E-001	4.00839E-004	0.00000E+000	2.29149E-004	2.40040E-001	5.71927E-001	3.57700E+000	9	...........
	26	0.36	5.78011E-001	4.01235E-004	0.00000E+000	2.31918E-004	2.40040E-001	5.78296E-001	3.57700E+000	9	...........
	27	0.373333	5.84322E-001	4.01590E-004	0.00000E+000	2.34658E-004	2.40040E-001	5.84617E-001	3.57700E+000	9	...........
	28	0.386667	5.90568E-001	4.01908E-004	0.00000E+000	2.37354E-004	2.40040E-001	5.90891E-001	3.57700E+000	9	...........
	29	0.4	5.96853E-001	4.01868E-004	0.00000E+000	2.39856E-004	2.40040E-001	5.97141E-001	3.57700E+000	9	...........
	30	0.413333	6.03073E-001	4.02242E-004	0.00000E+000	2.42581E-004	2.40040E-001	6.03387E-001	3.57700E+000	9	...........
	31	0.426667	6.09267E-001	4.00640E-004	0.00000E+000	2.44096E-004	2.40040E-001	6.09558E-001	3.57700E+000	9	...........
	32	0.44	6.15464E-001	4.00330E-004	0.00000E+000	2.46389E-004	2.40040E-001	6.15719E-001	3.57700E+000	9	...........
	33	0.453333	6.21565E-001	4.01188E-004	0.00000E+000	2.49364E-004	2.40040E-001	6.21819E-001	3.57700E+000	9	...........
	34	0.466667	6.27637E-001	4.00841E-004	0.00000E+000	2.51583E-004	2.40040E-001	6.27873E-001	3.57700E+000	9	...........
	35	0.48	6.33682E-001	4.01998E-004	0.00000E+000	2.54739E-004	2.40040E-001	6.33921E-001	3.57700E+000	9	...........
	36	0.493333	6.39755E-001	4.01994E-004	0.00000E+000	2.57178E-004	2.40040E-001	6.39988E-001	3.57700E+000	9	...........
	37	0.506667	6.45749E-001	4.00661E-004	0.00000E+000	2.58726E-004	2.40040E-001	6.45981E-001	3.57700E+000	9	...........
	38	0.52	6.51776E-001	4.00592E-004	0.00000E+000	2.61096E-004	2.40040E-001	6.52019E-001	3.57700E+000	9	...........
	39	0.533333	6.57782E-001	4.00254E-004	0.00000E+000	2.63280E-004	2.40040E-001	6.58020E-001	3.57700E+000	9	...........
	40	0.546667	6.63762E-001	4.00254E-004	0.00000E+000	2.65673E-004	2.40040E-001	6.64032E-001	3.57700E+000	9	...........
	41	0.56	6.69761E-001	4.01087E-004	0.00000E+000	2.68632E-004	2.40040E-001	6.69989E-001	3.57700E+000	9	...........
	42	0.573333	6.75742E-001	4.01403E-004	0.00000E+000	2.71245E-004	2.40040E-001	6.75972E-001	3.57700E+000	9	...........
	43	0.586667	6.81638E-001	4.01743E-004	0.00000E+000	2.73843E-004	2.40040E-001	6.81859E-001	3.57700E+000	9	...........
	44	0.6	6.87474E-001	4.00872E-004	0.00000E+000	2.75589E-004	2.40040E-001	6.87750E-001	3.57700E+000	9	...........
	45	0.613333	6.93446E-001	4.00176E-004	0.00000E+000	2.77501E-004	2.40040E-001	6.93674E-001	3.57700E+000	9	...........
	46	0.626667	6.99306E-001	4.02129E-004	0.00000E+000	2.81211E-004	2.40040E-001	6.99568E-001	3.57700E+000	9	...........
	47	0.64	7.05097E-001	4.01225E-004	0.00000E+000	2.82903E-004	2.40040E-001	7.05338E-001	3.57700E+000	9	...........
	48	0.653333	7.10917E-001	4.01341E-004	0.00000E+000	2.85320E-004	2.40040E-001	7.11133E-001	3.57700E+000	9	...........
	49	0.666667	7.16713E-001	4.00956E-004	0.00000E+000	2.87371E-004	2.40040E-001	7.16958E-001	3.57700E+000	9	...........
	50	0.68	7.22517E-001	4.00851E-004	0.00000E+000	2.89622E-004	2.40040E-001	7.22736E-001	3.57700E+000	9	...........
	51	0.693333	7.28224E-001	4.01439E-004	0.00000E+000	2.92338E-004	2.40040E-001	7.28440E-001	3.57700E+000	9	...........
	52	0.706667	7.33896E-001	4.01374E-004	0.00000E+000	2.94567E-004	2.40040E-001	7.34139E-001	3.57700E+000	9	...........
	53	0.72	7.39488E-001	4.00959E-004	0.00000E+000	2.96504E-004	2.40040E-001	7.39713E-001	3.57700E+000	9	...........
	54	0.733333	7.45151E-001	4.00200E-004	0.00000E+000	2.98209E-004	2.40040E-001	7.45398E-001	3.57700E+000	9	...........
	55	0.746667	7.50741E-001	4.00148E-004	0.00000E+000	3.00408E-004	2.40040E-001	7.50989E-001	3.57700E+000	9	...........
	56	0.76	7.56308E-001	4.01410E-004	0.00000E+000	3.03590E-004	2.40040E-001	7.56561E-001	3.57700E+000	9	...........
	57	0.773333	7.61882E-001	4.00888E-004	0.00000E+000	3.05429E-004	2.40040E-001	7.62149E-001	3.57700E+000	9	...........
	58	0.786667	7.67419E-001	4.00294E-004	0.00000E+000	3.07193E-004	2.40040E-001	7.67702E-001	3.57700E+000	9	...........
	59	0.8	7.72947E-001	3.99972E-004	0.00000E+000	3.09157E-004	2.40040E-001	7.73211E-001	3.57700E+000	9	...........
	60	0.813333	7.78413E-001	4.01582E-004	0.00000E+000	3.12596E-004	2.40040E-001	7.78664E-001	3.57700E+000	9	...........
	61	0.826667	7.83777E-001	4.01517E-004	0.00000E+000	3.14700E-004	2.40040E-001	7.84022E-001	3.57700E+000	9	...........
	62	0.84	7.89129E-001	4.01396E-004	0.00000E+000	3.16753E-004	2.40040E-001	7.89386E-001	3.57700E+000	9	...........
	63	0.853333	7.94578E-001	4.01460E-004	0.00000E+000	3.18991E-004	2.40040E-001	7.94831E-001	3.57700E+000	9	...........
	64	0.866667	7.99965E-001	4.00628E-004	0.00000E+000	3.20488E-004	2.40040E-001	8.00185E-001	3.57700E+000	9	...........
	65	0.88	8.05289E-001	4.00646E-004	0.00000E+000	3.22636E-004	2.40040E-001	8.05523E-001	3.57700E+000	9	...........
	66	0.893333	8.10516E-001	4.01067E-004	0.00000E+000	3.25071E-004	2.40040E-001	8.10765E-001	3.57700E+000	9	...........
	67	0.906667	8.15789E-001	4.01371E-004	0.00000E+000	3.27434E-004	2.40040E-001	8.16055E-001	3.57700E+000	9	...........
	68	0.92	8.21024E-001	4.00573E-004	0.00000E+000	3.28880E-004	2.40040E-001	8.21303E-001	3.57700E+000	9	...........
	69	0.933333	8.26212E-001	3.99923E-004	0.00000E+000	3.30421E-004	2.40040E-001	8.26486E-001	3.57700E+000	9	...........
	70	0.946667	8.31320E-001	4.00624E-004	0.00000E+000	3.33047E-004	2.40040E-001	8.31616E-001	3.57700E+000	9	...........
	71	0.96	8.36387E-001	4.01093E-004	0.00000E+000	3.35469E-004	2.40040E-001	8.36690E-001	3.57700E+000	9	...........
	72	0.97333	8.41392E-001	4.00775E-004	0.00000E+000	3.37209E-004	2.40040E-001	8.41709E-001	3.57700E+000	9	...........
	73	0.98667	8.46464E-001	4.01015E-004	0.00000E+000	3.39445E-004	2.40040E-001	8.46766E-001	3.57700E+000	9	...........
	74	1	8.51357E-001	4.00447E-004	0.00000E+000	3.40923E-004	2.40040E-001	8.51656E-001	3.57700E+000	9	...........
	75	1.01333	8.56268E-001	4.01822E-004	0.00000E+000	3.44067E-004	2.40040E-001	8.56574E-001	3.57700E+000	9	...........
	76	1.02667	8.61188E-001	4.02047E-004	0.00000E+000	3.46239E-004	2.40040E-001	8.61501E-001	3.57700E+000	9	...........
	77	1.04	8.66100E-001	4.02483E-004	0.00000E+000	3.48591E-004	2.40040E-001	8.66424E-001	3.57700E+000	9	...........
	78	1.05333	8.70980E-001	4.01324E-004	0.00000E+000	3.49545E-004	2.40040E-001	8.71292E-001	3.57700E+000	9	...........
	79	1.06667	8.75731E-001	4.00713E-004	0.00000E+000	3.50917E-004	2.40040E-001	8.76011E-001	3.57700E+000	9	...........
	80	1.08	8.80421E-001	4.02437E-004	0.00000E+000	3.54314E-004	2.40040E-001	8.80698E-001	3.57700E+000	9	...........
	81	1.09333	8.85187E-001	4.01333E-004	0.00000E+000	3.55255E-004	2.40040E-001	8.85444E-001	3.57700E+000	9	...........
	82	1.10667	8.89882E-001	4.01571E-004	0.00000E+000	3.57351E-004	2.40040E-001	8.90122E-001	3.57700E+000	9	...........
	83	1.12	8.94440E-001	4.00803E-004	0.00000E+000	3.58494E-004	2.40040E-001	8.94732E-001	3.57700E+000	9	...........
	84	1.13333	8.99000E-001	4.01115E-004	0.00000E+000	3.60602E-004	2.40040E-001	8.99295E-001	3.57700E+000	9	...........
	85	1.14667	9.03560E-001	3.99754E-004	0.00000E+000	3.61202E-004	2.40040E-001	9.03859E-001	3.57700E+000	9	...........
	86	1.16	9.08142E-001	4.00806E-004	0.00000E+000	3.63989E-004	2.40040E-001	9.08457E-001	3.57700E+000	9	...........
	87	1.17333	9.12602E-001	4.02701E-004	0.00000E+000	3.67506E-004	2.40040E-001	9.12927E-001	3.57700E+000	9	...........
	88	1.18667	9.17043E-001	4.01051E-004	0.00000E+000	3.67781E-004	2.40040E-001	9.17378E-001	3.57700E+000	9	...........
	89	1.2	9.21503E-001	4.01027E-004	0.00000E+000	3.69548E-004	2.40040E-001	9.21804E-001	3.57700E+000	9	...........
	90	1.21333	9.25965E-001	4.01888E-004	0.00000E+000	3.72134E-004	2.40040E-001	9.26259E-001	3.57700E+000	9	...........
	91	1.22667	9.30282E-001	4.00620E-004	0.00000E+000	3.72689E-004	2.40040E-001	9.30593E-001	3.57700E+000	9	...........
	92	1.24	9.34511E-001	4.00645E-004	0.00000E+000	3.74407E-004	2.40040E-001	9.34850E-001	3.57700E+000	9	...........
	93	1.25333	9.38701E-001	4.01208E-004	0.00000E+000	3.76614E-004	2.40040E-001	9.39050E-001	3.57700E+000	9	...........
	94	1.26667	9.42896E-001	4.00960E-004	0.00000E+000	3.78063E-004	2.40040E-001	9.43221E-001	3.57700E+000	9	...........
	95	1.28	9.47078E-001	4.01478E-004	0.00000E+000	3.80231E-004	2.40040E-001	9.47389E-001	3.57700E+000	9	...........
	96	1.29333	9.51237E-001	4.01472E-004	0.00000E+000	3.81895E-004	2.40040E-001	9.51561E-001	3.57700E+000	9	...........
	97	1.30667	9.55327E-001	4.00683E-004	0.00000E+000	3.82784E-004	2.40040E-001	9.55633E-001	3.57695E+000	9	...........
	98	1.32	9.59340E-001	4.01912E-004	0.00000E+000	3.85570E-004	2.40040E-001	9.59664E-001	3.57660E+000	9	...........
	99	1.33333	9.63310E-001	4.01453E-004	0.00000E+000	3.86724E-004	2.40040E-001	9.63660E-001	3.57660E+000	9	...........
	100	1.34667	9.67280E-001	4.01366E-004	0.00000E+000	3.88233E-004	2.40040E-001	9.67611E-001	3.57660E+000	9	...........
	101	1.36	9.71223E-001	4.01655E-004	0.00000E+000	3.90096E-004	2.40040E-001	9.71575E-001	3.57660E+000	9	...........
	102	1.37333	9.75159E-001	4.00475E-004	0.00000E+000	3.90527E-004	2.40040E-001	9.75438E-001	3.57660E+000	9	...........
	103	1.38667	9.78974E-001	4.00622E-004	0.00000E+000	3.92199E-004	2.40040E-001	9.79288E-001	3.57660E+000	9	...........
	104	1.4	9.82783E-001	4.00036E-004	0.00000E+000	3.93149E-004	2.40040E-001	9.83091E-001	3.57660E+000	9	...........
	105	1.41333	9.86641E-001	4.01570E-004	0.00000E+000	3.96206E-004	2.40040E-001	9.86939E-001	3.57660E+000	9	...........
	106	1.42667	9.90377E-001	4.01866E-004	0.00000E+000	3.97999E-004	2.40040E-001	9.90691E-001	3.57660E+000	9	...........
	107	1.44	9.94031E-001	4.01799E-004	0.00000E+000	3.99401E-004	2.40040E-001	9.94354E-001	3.57660E+000	9	...........
	108	1.45333	9.97656E-001	4.00885E-004	0.00000E+000	3.99945E-004	2.40040E-001	9.98015E-001	3.57660E+000	9	...........
	109	1.45667	9.99856E-001	4.00048E-004	0.00000E+000	3.99990E-004	2.40040E-001	1.00029E+000	3.57660E+000	9	...........
STARTTIMEOFFSET	QUANT	2434.818	Start Time Offset (s)
