EXPLAIN
TAG	PWR800_CHARGE
TITLE	LABEL	PWR Cyclic Charge Discharge (Cell) - Charge Step	Test &Identifier
DATE	LABEL	12-7-2017	Date
TIME	LABEL	15:11:25	Time
NOTES	NOTES	3	&Notes...
	supercap test cell
	0.4mg
	6M KOH
PSTAT	PSTAT	IFC5000-01520	Potentiostat
CAPACITY	QUANT	1.00000E-003	Capacity (A-hr)
CELLTYPE	SELECTOR	1	&Cell Type
WORKINGCONNECTION	SELECTOR	0	&Working Lead
MAXCHARGETIME	VARIABLEANDUNITS	1.00000E+002	s	1.00000E+002	second(s)	Max &Charge Time
CHARGECURRENT	QUANT	4.00000E-004	&Charge Current (A) 
VOLTAGEFINISH	TWOPARAM	F	1.00000E-003	3.60000E+003	&Voltage Finish	 I (A) < 	Max Time(s)
SAMPLETIME	QUANT	1.00000E-002	Sa&mple Period (s)
CHARGESTOPAT1	MULTIPARAM	4	1.00000E+000	Charge Stop At &1	Voltage > Limit	V
CHARGESTOPAT2	MULTIPARAM	0	0.00000E+000	Charge Stop At &2	None	N/A
AESBHCSELECTOR	TOGGLE	F	Save Both Half Cells
IRCOMP	TOGGLE	F	IR &Measure
EOC	QUANT	0	Open Circuit (V)
SEQUENCER	TOGGLE	TRUE	Run as Sequence
PSTATMODEL	IQUANT	53	Pstat Model
PSTATSECTION	LABEL	IFC5000-01520	Pstat Section
PSTATSERIALNO	LABEL	01520	Pstat Serial Number
CTRLMODE	IQUANT	0	Control Mode
ELECTROMETER	IQUANT	1	RE=0 or CS=1
IESTAB	IQUANT	0	I/E Stability
CASPEED	IQUANT	4	Control Amp Speed
CONVENTION	IQUANT	1	Current Convention
ICHRANGE	IQUANT	2	Ich Range
ICHRANGEMODE	TOGGLE	T	Ich Auto Range
ICHOFFSETENABLE	TOGGLE	F	Ich Offset Enable
ICHOFFSET	QUANT	0	Ich Offset (V)
ICHFILTER	IQUANT	1	Ich Filter
VCHRANGE	IQUANT	2	Vch Range
VCHRANGEMODE	TOGGLE	T	Vch Auto Range
VCHOFFSETENABLE	TOGGLE	F	Vch Offset Enable
VCHOFFSET	QUANT	0	Vch Offset (V)
VCHFILTER	IQUANT	1	Vch Filter
IERANGELOWERLIMIT	IQUANT	9	I/E Range Lower Limit
IERANGEMODE	TOGGLE	F	I/E AutoRange
IERANGE	IQUANT	9	I/E Range
ACHSELECT	IQUANT	1	Ach Select
ACHRANGE	IQUANT	2	Ach Range
ACHOFFSETENABLE	TOGGLE	F	Ach Offset Enable
ACHOFFSET	QUANT	0	Ach Offset (V)
ACHFILTER	IQUANT	1	Ach Filter
CABLEID	IQUANT	14	Cable ID
DCCALDATE	LABEL	5-7-2017	DC Calibration Date
ACCALDATE	LABEL	12/3/2015	AC Calibration Date
FRAMEWORKVERSION	QUANT	7.01	Framework Version
INSTRUMENTVERSION	LABEL	4.00	Instrument Version
CURVE	TABLE	109
	Pt	T	Vf	Im	Vu	Pwr	Sig	Ach	Temp	IERange	Over
	#	s	V	A	V	W	V	V	deg C	#	bits
	0	0.013333	3.82940E-001	4.01040E-004	0.00000E+000	1.53574E-004	2.40040E-001	3.83020E-001	3.57700E+000	9	...........
	1	0.026667	3.95459E-001	4.01666E-004	0.00000E+000	1.58843E-004	2.40040E-001	3.95531E-001	3.57700E+000	9	...........
	2	0.04	4.06096E-001	4.00445E-004	0.00000E+000	1.62619E-004	2.40040E-001	4.06169E-001	3.57700E+000	9	...........
	3	0.053333	4.15729E-001	4.00605E-004	0.00000E+000	1.66543E-004	2.40040E-001	4.15811E-001	3.57700E+000	9	...........
	4	0.066667	4.24692E-001	4.01022E-004	0.00000E+000	1.70311E-004	2.40040E-001	4.24769E-001	3.57700E+000	9	...........
	5	0.08	4.33211E-001	4.00096E-004	0.00000E+000	1.73326E-004	2.40040E-001	4.33294E-001	3.57700E+000	9	...........
	6	0.093333	4.41417E-001	4.01029E-004	0.00000E+000	1.77021E-004	2.40040E-001	4.41506E-001	3.57700E+000	9	...........
	7	0.106667	4.49366E-001	3.99527E-004	0.00000E+000	1.79534E-004	2.40040E-001	4.49451E-001	3.57700E+000	9	...........
	8	0.12	4.57123E-001	4.01456E-004	0.00000E+000	1.83515E-004	2.40040E-001	4.57214E-001	3.57700E+000	9	...........
	9	0.133333	4.64694E-001	4.01006E-004	0.00000E+000	1.86345E-004	2.40040E-001	4.64782E-001	3.57700E+000	9	...........
	10	0.146667	4.72116E-001	4.01567E-004	0.00000E+000	1.89586E-004	2.40040E-001	4.72207E-001	3.57700E+000	9	...........
	11	0.16	4.79446E-001	4.01466E-004	0.00000E+000	1.92481E-004	2.40040E-001	4.79536E-001	3.57700E+000	9	...........
	12	0.173333	4.86592E-001	3.99922E-004	0.00000E+000	1.94599E-004	2.40040E-001	4.86684E-001	3.57700E+000	9	...........
	13	0.186667	4.93606E-001	4.00722E-004	0.00000E+000	1.97799E-004	2.40040E-001	4.93700E-001	3.57700E+000	9	...........
	14	0.2	5.00539E-001	4.00470E-004	0.00000E+000	2.00451E-004	2.40040E-001	5.00635E-001	3.57700E+000	9	...........
	15	0.213333	5.07472E-001	4.00681E-004	0.00000E+000	2.03335E-004	2.40040E-001	5.07574E-001	3.57700E+000	9	...........
	16	0.226667	5.14304E-001	4.01622E-004	0.00000E+000	2.06556E-004	2.40040E-001	5.14411E-001	3.57700E+000	9	...........
	17	0.24	5.21089E-001	3.99939E-004	0.00000E+000	2.08403E-004	2.40040E-001	5.21193E-001	3.57700E+000	9	...........
	18	0.253333	5.27773E-001	4.01674E-004	0.00000E+000	2.11993E-004	2.40040E-001	5.27880E-001	3.57700E+000	9	...........
	19	0.266667	5.34249E-001	3.99680E-004	0.00000E+000	2.13529E-004	2.40040E-001	5.34445E-001	3.57700E+000	9	...........
	20	0.28	5.40824E-001	4.01252E-004	0.00000E+000	2.17007E-004	2.40040E-001	5.41047E-001	3.57700E+000	9	...........
	21	0.293333	5.47344E-001	4.00998E-004	0.00000E+000	2.19484E-004	2.40040E-001	5.47552E-001	3.57700E+000	9	...........
	22	0.306667	5.53830E-001	4.01140E-004	0.00000E+000	2.22163E-004	2.40040E-001	5.54032E-001	3.57695E+000	9	...........
	23	0.32	5.60338E-001	4.02184E-004	0.00000E+000	2.25359E-004	2.40040E-001	5.60529E-001	3.57660E+000	9	...........
	24	0.333333	5.66758E-001	4.00249E-004	0.00000E+000	2.26844E-004	2.40040E-001	5.66941E-001	3.57660E+000	9	...........
	25	0.346667	5.73115E-001	4.01436E-004	0.00000E+000	2.30069E-004	2.40040E-001	5.73310E-001	3.57660E+000	9	...........
	26	0.36	5.79433E-001	4.00592E-004	0.00000E+000	2.32116E-004	2.40040E-001	5.79665E-001	3.57660E+000	9	...........
	27	0.373333	5.85814E-001	4.00979E-004	0.00000E+000	2.34899E-004	2.40040E-001	5.86047E-001	3.57660E+000	9	...........
	28	0.386667	5.92083E-001	4.00626E-004	0.00000E+000	2.37204E-004	2.40040E-001	5.92336E-001	3.57660E+000	9	...........
	29	0.4	5.98338E-001	4.01101E-004	0.00000E+000	2.39994E-004	2.40040E-001	5.98580E-001	3.57660E+000	9	...........
	30	0.413333	6.04597E-001	4.01060E-004	0.00000E+000	2.42480E-004	2.40040E-001	6.04896E-001	3.57660E+000	9	...........
	31	0.426667	6.10791E-001	4.01281E-004	0.00000E+000	2.45098E-004	2.40040E-001	6.11058E-001	3.57660E+000	9	...........
	32	0.44	6.17031E-001	4.01097E-004	0.00000E+000	2.47489E-004	2.40040E-001	6.17243E-001	3.57660E+000	9	...........
	33	0.453333	6.23139E-001	4.01415E-004	0.00000E+000	2.50137E-004	2.40040E-001	6.23342E-001	3.57660E+000	9	...........
	34	0.466667	6.29230E-001	4.00973E-004	0.00000E+000	2.52304E-004	2.40040E-001	6.29487E-001	3.57660E+000	9	...........
	35	0.48	6.35335E-001	4.00754E-004	0.00000E+000	2.54613E-004	2.40040E-001	6.35574E-001	3.57660E+000	9	...........
	36	0.493333	6.41467E-001	4.01347E-004	0.00000E+000	2.57451E-004	2.40040E-001	6.41693E-001	3.57660E+000	9	...........
	37	0.506667	6.47481E-001	4.00564E-004	0.00000E+000	2.59357E-004	2.40040E-001	6.47714E-001	3.57660E+000	9	...........
	38	0.52	6.53503E-001	4.00987E-004	0.00000E+000	2.62046E-004	2.40040E-001	6.53723E-001	3.57660E+000	9	...........
	39	0.533333	6.59456E-001	4.00725E-004	0.00000E+000	2.64261E-004	2.40040E-001	6.59703E-001	3.57660E+000	9	...........
	40	0.546667	6.65427E-001	4.01337E-004	0.00000E+000	2.67060E-004	2.40040E-001	6.65692E-001	3.57660E+000	9	...........
	41	0.56	6.71456E-001	4.00956E-004	0.00000E+000	2.69225E-004	2.40040E-001	6.71673E-001	3.57660E+000	9	...........
	42	0.573333	6.77386E-001	4.01487E-004	0.00000E+000	2.71961E-004	2.40040E-001	6.77625E-001	3.57660E+000	9	...........
	43	0.586667	6.83342E-001	4.01472E-004	0.00000E+000	2.74343E-004	2.40040E-001	6.83573E-001	3.57660E+000	9	...........
	44	0.6	6.89201E-001	4.00661E-004	0.00000E+000	2.76136E-004	2.40040E-001	6.89428E-001	3.57660E+000	9	...........
	45	0.613333	6.95097E-001	4.00754E-004	0.00000E+000	2.78563E-004	2.40040E-001	6.95305E-001	3.57660E+000	9	...........
	46	0.626667	7.00965E-001	4.01112E-004	0.00000E+000	2.81165E-004	2.40040E-001	7.01178E-001	3.57660E+000	9	...........
	47	0.64	7.06795E-001	4.00372E-004	0.00000E+000	2.82981E-004	2.40040E-001	7.07015E-001	3.57660E+000	9	...........
	48	0.653333	7.12619E-001	4.01635E-004	0.00000E+000	2.86212E-004	2.40040E-001	7.12839E-001	3.57660E+000	9	...........
	49	0.666667	7.18412E-001	4.00843E-004	0.00000E+000	2.87970E-004	2.40040E-001	7.18630E-001	3.57660E+000	9	...........
	50	0.68	7.24134E-001	4.00858E-004	0.00000E+000	2.90275E-004	2.40040E-001	7.24355E-001	3.57660E+000	9	...........
	51	0.693333	7.29829E-001	4.02084E-004	0.00000E+000	2.93452E-004	2.40040E-001	7.30063E-001	3.57660E+000	9	...........
	52	0.706667	7.35541E-001	4.01660E-004	0.00000E+000	2.95437E-004	2.40040E-001	7.35755E-001	3.57660E+000	9	...........
	53	0.72	7.41243E-001	4.01030E-004	0.00000E+000	2.97261E-004	2.40040E-001	7.41455E-001	3.57660E+000	9	...........
	54	0.733333	7.46862E-001	4.00832E-004	0.00000E+000	2.99367E-004	2.40040E-001	7.47083E-001	3.57660E+000	9	...........
	55	0.746667	7.52438E-001	4.01367E-004	0.00000E+000	3.02004E-004	2.40040E-001	7.52669E-001	3.57660E+000	9	...........
	56	0.76	7.58039E-001	4.00673E-004	0.00000E+000	3.03726E-004	2.40040E-001	7.58257E-001	3.57660E+000	9	...........
	57	0.773333	7.63642E-001	4.01523E-004	0.00000E+000	3.06620E-004	2.40040E-001	7.63885E-001	3.57660E+000	9	...........
	58	0.786667	7.69193E-001	4.00213E-004	0.00000E+000	3.07841E-004	2.40040E-001	7.69447E-001	3.57660E+000	9	...........
	59	0.8	7.74688E-001	4.00726E-004	0.00000E+000	3.10438E-004	2.40040E-001	7.74935E-001	3.57660E+000	9	...........
	60	0.813333	7.80161E-001	4.00731E-004	0.00000E+000	3.12635E-004	2.40040E-001	7.80452E-001	3.57660E+000	9	...........
	61	0.826667	7.85641E-001	4.01093E-004	0.00000E+000	3.15115E-004	2.40040E-001	7.85877E-001	3.57660E+000	9	...........
	62	0.84	7.91045E-001	4.01077E-004	0.00000E+000	3.17270E-004	2.40040E-001	7.91319E-001	3.57660E+000	9	...........
	63	0.853333	7.96503E-001	4.01353E-004	0.00000E+000	3.19679E-004	2.40040E-001	7.96744E-001	3.57660E+000	9	...........
	64	0.866667	8.01803E-001	4.00565E-004	0.00000E+000	3.21174E-004	2.40040E-001	8.02040E-001	3.57660E+000	9	...........
	65	0.88	8.07110E-001	4.01973E-004	0.00000E+000	3.24437E-004	2.40040E-001	8.07376E-001	3.57660E+000	9	...........
	66	0.893333	8.12379E-001	3.99337E-004	0.00000E+000	3.24413E-004	2.40040E-001	8.12662E-001	3.57660E+000	9	...........
	67	0.906667	8.17557E-001	4.01640E-004	0.00000E+000	3.28364E-004	2.40040E-001	8.17843E-001	3.57660E+000	9	...........
	68	0.92	8.22817E-001	4.00842E-004	0.00000E+000	3.29819E-004	2.40040E-001	8.23062E-001	3.57660E+000	9	...........
	69	0.933333	8.27952E-001	3.99694E-004	0.00000E+000	3.30927E-004	2.40040E-001	8.28222E-001	3.57660E+000	9	...........
	70	0.946667	8.33067E-001	3.99578E-004	0.00000E+000	3.32875E-004	2.40040E-001	8.33352E-001	3.57660E+000	9	...........
	71	0.96	8.38132E-001	4.00052E-004	0.00000E+000	3.35297E-004	2.40040E-001	8.38433E-001	3.57660E+000	9	...........
	72	0.97333	8.43153E-001	4.00702E-004	0.00000E+000	3.37853E-004	2.40040E-001	8.43444E-001	3.57660E+000	9	...........
	73	0.98667	8.48217E-001	4.00998E-004	0.00000E+000	3.40134E-004	2.40040E-001	8.48526E-001	3.57660E+000	9	...........
	74	1	8.53226E-001	4.01160E-004	0.00000E+000	3.42280E-004	2.40040E-001	8.53516E-001	3.57660E+000	9	...........
	75	1.01333	8.58132E-001	4.01640E-004	0.00000E+000	3.44660E-004	2.40040E-001	8.58432E-001	3.57660E+000	9	...........
	76	1.02667	8.63043E-001	4.01409E-004	0.00000E+000	3.46433E-004	2.40040E-001	8.63337E-001	3.57660E+000	9	...........
	77	1.04	8.67922E-001	3.99903E-004	0.00000E+000	3.47085E-004	2.40040E-001	8.68233E-001	3.57660E+000	9	...........
	78	1.05333	8.72784E-001	4.00898E-004	0.00000E+000	3.49897E-004	2.40040E-001	8.73084E-001	3.57660E+000	9	...........
	79	1.06667	8.77601E-001	4.01617E-004	0.00000E+000	3.52459E-004	2.40040E-001	8.77908E-001	3.57660E+000	9	...........
	80	1.08	8.82403E-001	4.01382E-004	0.00000E+000	3.54180E-004	2.40040E-001	8.82698E-001	3.57660E+000	9	...........
	81	1.09333	8.87131E-001	4.00667E-004	0.00000E+000	3.55444E-004	2.40040E-001	8.87449E-001	3.57660E+000	9	...........
	82	1.10667	8.91820E-001	4.01444E-004	0.00000E+000	3.58016E-004	2.40040E-001	8.92100E-001	3.57660E+000	9	...........
	83	1.12	8.96485E-001	4.01804E-004	0.00000E+000	3.60211E-004	2.40040E-001	8.96785E-001	3.57660E+000	9	...........
	84	1.13333	9.01072E-001	4.01302E-004	0.00000E+000	3.61602E-004	2.40040E-001	9.01342E-001	3.57660E+000	9	...........
	85	1.14667	9.05542E-001	4.01501E-004	0.00000E+000	3.63577E-004	2.40040E-001	9.05843E-001	3.57660E+000	9	...........
	86	1.16	9.10062E-001	4.01751E-004	0.00000E+000	3.65619E-004	2.40040E-001	9.10343E-001	3.57660E+000	9	...........
	87	1.17333	9.14547E-001	4.00953E-004	0.00000E+000	3.66691E-004	2.40040E-001	9.14828E-001	3.57660E+000	9	...........
	88	1.18667	9.18971E-001	4.01953E-004	0.00000E+000	3.69383E-004	2.40040E-001	9.19260E-001	3.57660E+000	9	...........
	89	1.2	9.23435E-001	4.00612E-004	0.00000E+000	3.69939E-004	2.40040E-001	9.23697E-001	3.57660E+000	9	...........
	90	1.21333	9.27767E-001	4.00329E-004	0.00000E+000	3.71412E-004	2.40040E-001	9.28030E-001	3.57660E+000	9	...........
	91	1.22667	9.32057E-001	4.01015E-004	0.00000E+000	3.73769E-004	2.40040E-001	9.32310E-001	3.57660E+000	9	...........
	92	1.24	9.36380E-001	4.01662E-004	0.00000E+000	3.76108E-004	2.40040E-001	9.36660E-001	3.57660E+000	9	...........
	93	1.25333	9.40575E-001	4.01312E-004	0.00000E+000	3.77464E-004	2.40040E-001	9.40834E-001	3.57660E+000	9	...........
	94	1.26667	9.44804E-001	4.01818E-004	0.00000E+000	3.79640E-004	2.40040E-001	9.45084E-001	3.57660E+000	9	...........
	95	1.28	9.48938E-001	4.00455E-004	0.00000E+000	3.80007E-004	2.40040E-001	9.49216E-001	3.57660E+000	9	...........
	96	1.29333	9.53047E-001	4.02620E-004	0.00000E+000	3.83716E-004	2.40040E-001	9.53323E-001	3.57660E+000	9	...........
	97	1.30667	9.57170E-001	4.01046E-004	0.00000E+000	3.83869E-004	2.40040E-001	9.57448E-001	3.57656E+000	9	...........
	98	1.32	9.61179E-001	4.00497E-004	0.00000E+000	3.84949E-004	2.40040E-001	9.61468E-001	3.57630E+000	9	...........
	99	1.33333	9.65199E-001	3.99976E-004	0.00000E+000	3.86057E-004	2.40040E-001	9.65493E-001	3.57630E+000	9	...........
	100	1.34667	9.69173E-001	4.01225E-004	0.00000E+000	3.88857E-004	2.40040E-001	9.69455E-001	3.57630E+000	9	...........
	101	1.36	9.73129E-001	4.00687E-004	0.00000E+000	3.89920E-004	2.40040E-001	9.73426E-001	3.57630E+000	9	...........
	102	1.37333	9.77023E-001	4.02606E-004	0.00000E+000	3.93355E-004	2.40040E-001	9.77301E-001	3.57630E+000	9	...........
	103	1.38667	9.80836E-001	4.02672E-004	0.00000E+000	3.94956E-004	2.40040E-001	9.81141E-001	3.57630E+000	9	...........
	104	1.4	9.84593E-001	4.02058E-004	0.00000E+000	3.95863E-004	2.40040E-001	9.84906E-001	3.57630E+000	9	...........
	105	1.41333	9.88350E-001	4.00749E-004	0.00000E+000	3.96081E-004	2.40040E-001	9.88649E-001	3.57630E+000	9	...........
	106	1.42667	9.92061E-001	4.01524E-004	0.00000E+000	3.98336E-004	2.40040E-001	9.92355E-001	3.57630E+000	9	...........
	107	1.44	9.95741E-001	4.01726E-004	0.00000E+000	4.00015E-004	2.40040E-001	9.96067E-001	3.57630E+000	9	...........
	108	1.45	9.98964E-001	4.01393E-004	0.00000E+000	4.00977E-004	2.40040E-001	9.99259E-001	3.57630E+000	9	...........
STARTTIMEOFFSET	QUANT	2506.106	Start Time Offset (s)
