EXPLAIN
TAG	PWR800_CHARGE
TITLE	LABEL	PWR Cyclic Charge Discharge (Cell) - Charge Step	Test &Identifier
DATE	LABEL	12-7-2017	Date
TIME	LABEL	15:15:39	Time
NOTES	NOTES	3	&Notes...
	supercap test cell
	0.4mg
	6M KOH
PSTAT	PSTAT	IFC5000-01520	Potentiostat
CAPACITY	QUANT	1.00000E-003	Capacity (A-hr)
CELLTYPE	SELECTOR	1	&Cell Type
WORKINGCONNECTION	SELECTOR	0	&Working Lead
MAXCHARGETIME	VARIABLEANDUNITS	1.00000E+002	s	1.00000E+002	second(s)	Max &Charge Time
CHARGECURRENT	QUANT	4.00000E-004	&Charge Current (A) 
VOLTAGEFINISH	TWOPARAM	F	1.00000E-003	3.60000E+003	&Voltage Finish	 I (A) < 	Max Time(s)
SAMPLETIME	QUANT	1.00000E-002	Sa&mple Period (s)
CHARGESTOPAT1	MULTIPARAM	4	1.00000E+000	Charge Stop At &1	Voltage > Limit	V
CHARGESTOPAT2	MULTIPARAM	0	0.00000E+000	Charge Stop At &2	None	N/A
AESBHCSELECTOR	TOGGLE	F	Save Both Half Cells
IRCOMP	TOGGLE	F	IR &Measure
EOC	QUANT	0	Open Circuit (V)
SEQUENCER	TOGGLE	TRUE	Run as Sequence
PSTATMODEL	IQUANT	53	Pstat Model
PSTATSECTION	LABEL	IFC5000-01520	Pstat Section
PSTATSERIALNO	LABEL	01520	Pstat Serial Number
CTRLMODE	IQUANT	0	Control Mode
ELECTROMETER	IQUANT	1	RE=0 or CS=1
IESTAB	IQUANT	0	I/E Stability
CASPEED	IQUANT	4	Control Amp Speed
CONVENTION	IQUANT	1	Current Convention
ICHRANGE	IQUANT	2	Ich Range
ICHRANGEMODE	TOGGLE	T	Ich Auto Range
ICHOFFSETENABLE	TOGGLE	F	Ich Offset Enable
ICHOFFSET	QUANT	0	Ich Offset (V)
ICHFILTER	IQUANT	1	Ich Filter
VCHRANGE	IQUANT	2	Vch Range
VCHRANGEMODE	TOGGLE	T	Vch Auto Range
VCHOFFSETENABLE	TOGGLE	F	Vch Offset Enable
VCHOFFSET	QUANT	0	Vch Offset (V)
VCHFILTER	IQUANT	1	Vch Filter
IERANGELOWERLIMIT	IQUANT	9	I/E Range Lower Limit
IERANGEMODE	TOGGLE	F	I/E AutoRange
IERANGE	IQUANT	9	I/E Range
ACHSELECT	IQUANT	1	Ach Select
ACHRANGE	IQUANT	2	Ach Range
ACHOFFSETENABLE	TOGGLE	F	Ach Offset Enable
ACHOFFSET	QUANT	0	Ach Offset (V)
ACHFILTER	IQUANT	1	Ach Filter
CABLEID	IQUANT	14	Cable ID
DCCALDATE	LABEL	5-7-2017	DC Calibration Date
ACCALDATE	LABEL	12/3/2015	AC Calibration Date
FRAMEWORKVERSION	QUANT	7.01	Framework Version
INSTRUMENTVERSION	LABEL	4.00	Instrument Version
CURVE	TABLE	107
	Pt	T	Vf	Im	Vu	Pwr	Sig	Ach	Temp	IERange	Over
	#	s	V	A	V	W	V	V	deg C	#	bits
	0	0.013333	3.85500E-001	4.02187E-004	0.00000E+000	1.55043E-004	2.40040E-001	3.85610E-001	3.57680E+000	9	...........
	1	0.026667	3.98317E-001	3.99851E-004	0.00000E+000	1.59267E-004	2.40040E-001	3.98397E-001	3.57680E+000	9	...........
	2	0.04	4.09295E-001	4.00972E-004	0.00000E+000	1.64116E-004	2.40040E-001	4.09383E-001	3.57680E+000	9	...........
	3	0.053333	4.19170E-001	4.00376E-004	0.00000E+000	1.67826E-004	2.40040E-001	4.19262E-001	3.57680E+000	9	...........
	4	0.066667	4.28341E-001	4.01440E-004	0.00000E+000	1.71953E-004	2.40040E-001	4.28429E-001	3.57680E+000	9	...........
	5	0.08	4.37074E-001	4.00270E-004	0.00000E+000	1.74948E-004	2.40040E-001	4.37170E-001	3.57680E+000	9	...........
	6	0.093333	4.45433E-001	4.01190E-004	0.00000E+000	1.78703E-004	2.40040E-001	4.45529E-001	3.57680E+000	9	...........
	7	0.106667	4.53516E-001	4.01775E-004	0.00000E+000	1.82211E-004	2.40040E-001	4.53609E-001	3.57680E+000	9	...........
	8	0.12	4.61360E-001	4.01879E-004	0.00000E+000	1.85411E-004	2.40040E-001	4.61447E-001	3.57680E+000	9	...........
	9	0.133333	4.69057E-001	4.01082E-004	0.00000E+000	1.88130E-004	2.40040E-001	4.69157E-001	3.57680E+000	9	...........
	10	0.146667	4.76625E-001	4.02214E-004	0.00000E+000	1.91705E-004	2.40040E-001	4.76715E-001	3.57680E+000	9	...........
	11	0.16	4.83990E-001	4.01740E-004	0.00000E+000	1.94438E-004	2.40040E-001	4.84083E-001	3.57680E+000	9	...........
	12	0.173333	4.91231E-001	4.00711E-004	0.00000E+000	1.96841E-004	2.40040E-001	4.91330E-001	3.57680E+000	9	...........
	13	0.186667	4.98407E-001	4.00774E-004	0.00000E+000	1.99749E-004	2.40040E-001	4.98513E-001	3.57680E+000	9	...........
	14	0.2	5.05465E-001	4.00665E-004	0.00000E+000	2.02522E-004	2.40040E-001	5.05568E-001	3.57680E+000	9	...........
	15	0.213333	5.12378E-001	4.00542E-004	0.00000E+000	2.05229E-004	2.40040E-001	5.12483E-001	3.57680E+000	9	...........
	16	0.226667	5.19273E-001	4.00842E-004	0.00000E+000	2.08146E-004	2.40040E-001	5.19383E-001	3.57680E+000	9	...........
	17	0.24	5.26142E-001	4.02026E-004	0.00000E+000	2.11523E-004	2.40040E-001	5.26249E-001	3.57680E+000	9	...........
	18	0.253333	5.32761E-001	4.00920E-004	0.00000E+000	2.13595E-004	2.40040E-001	5.32919E-001	3.57680E+000	9	...........
	19	0.266667	5.39342E-001	4.02629E-004	0.00000E+000	2.17155E-004	2.40040E-001	5.39592E-001	3.57680E+000	9	...........
	20	0.28	5.45968E-001	4.01099E-004	0.00000E+000	2.18987E-004	2.40040E-001	5.46175E-001	3.57680E+000	9	...........
	21	0.293333	5.52612E-001	4.02645E-004	0.00000E+000	2.22507E-004	2.40040E-001	5.52836E-001	3.57680E+000	9	...........
	22	0.306667	5.59148E-001	4.01030E-004	0.00000E+000	2.24235E-004	2.40040E-001	5.59354E-001	3.57680E+000	9	...........
	23	0.32	5.65672E-001	4.01786E-004	0.00000E+000	2.27279E-004	2.40040E-001	5.65881E-001	3.57680E+000	9	...........
	24	0.333333	5.72182E-001	4.01162E-004	0.00000E+000	2.29537E-004	2.40040E-001	5.72370E-001	3.57680E+000	9	...........
	25	0.346667	5.78692E-001	4.01366E-004	0.00000E+000	2.32267E-004	2.40040E-001	5.78903E-001	3.57680E+000	9	...........
	26	0.36	5.85069E-001	4.01273E-004	0.00000E+000	2.34772E-004	2.40040E-001	5.85301E-001	3.57680E+000	9	...........
	27	0.373333	5.91439E-001	4.01472E-004	0.00000E+000	2.37446E-004	2.40040E-001	5.91657E-001	3.57680E+000	9	...........
	28	0.386667	5.97865E-001	4.01225E-004	0.00000E+000	2.39878E-004	2.40040E-001	5.98055E-001	3.57680E+000	9	...........
	29	0.4	6.04128E-001	4.01175E-004	0.00000E+000	2.42361E-004	2.40040E-001	6.04353E-001	3.57680E+000	9	...........
	30	0.413333	6.10412E-001	4.00636E-004	0.00000E+000	2.44553E-004	2.40040E-001	6.10661E-001	3.57680E+000	9	...........
	31	0.426667	6.16844E-001	4.01361E-004	0.00000E+000	2.47577E-004	2.40040E-001	6.17037E-001	3.57680E+000	9	...........
	32	0.44	6.23103E-001	4.02493E-004	0.00000E+000	2.50795E-004	2.40040E-001	6.23293E-001	3.57680E+000	9	...........
	33	0.453333	6.29372E-001	4.01209E-004	0.00000E+000	2.52509E-004	2.40040E-001	6.29582E-001	3.57680E+000	9	...........
	34	0.466667	6.35543E-001	4.01172E-004	0.00000E+000	2.54962E-004	2.40040E-001	6.35756E-001	3.57680E+000	9	...........
	35	0.48	6.41750E-001	4.00392E-004	0.00000E+000	2.56951E-004	2.40040E-001	6.41993E-001	3.57680E+000	9	...........
	36	0.493333	6.47947E-001	4.01843E-004	0.00000E+000	2.60373E-004	2.40040E-001	6.48153E-001	3.57680E+000	9	...........
	37	0.506667	6.54112E-001	4.00206E-004	0.00000E+000	2.61780E-004	2.40040E-001	6.54344E-001	3.57680E+000	9	...........
	38	0.52	6.60187E-001	4.02108E-004	0.00000E+000	2.65466E-004	2.40040E-001	6.60434E-001	3.57680E+000	9	...........
	39	0.533333	6.66309E-001	4.00901E-004	0.00000E+000	2.67124E-004	2.40040E-001	6.66557E-001	3.57680E+000	9	...........
	40	0.546667	6.72430E-001	4.01289E-004	0.00000E+000	2.69839E-004	2.40040E-001	6.72690E-001	3.57680E+000	9	...........
	41	0.56	6.78477E-001	4.00718E-004	0.00000E+000	2.71878E-004	2.40040E-001	6.78723E-001	3.57680E+000	9	...........
	42	0.573333	6.84416E-001	4.01608E-004	0.00000E+000	2.74867E-004	2.40040E-001	6.84673E-001	3.57680E+000	9	...........
	43	0.586667	6.90387E-001	4.01663E-004	0.00000E+000	2.77303E-004	2.40040E-001	6.90639E-001	3.57680E+000	9	...........
	44	0.6	6.96349E-001	4.00704E-004	0.00000E+000	2.79030E-004	2.40040E-001	6.96599E-001	3.57680E+000	9	...........
	45	0.613333	7.02268E-001	3.99782E-004	0.00000E+000	2.80754E-004	2.40040E-001	7.02527E-001	3.57680E+000	9	...........
	46	0.626667	7.08131E-001	4.01999E-004	0.00000E+000	2.84668E-004	2.40040E-001	7.08404E-001	3.57680E+000	9	...........
	47	0.64	7.14017E-001	4.00244E-004	0.00000E+000	2.85781E-004	2.40040E-001	7.14256E-001	3.57680E+000	9	...........
	48	0.653333	7.19915E-001	4.00601E-004	0.00000E+000	2.88399E-004	2.40040E-001	7.20165E-001	3.57680E+000	9	...........
	49	0.666667	7.25786E-001	4.02424E-004	0.00000E+000	2.92074E-004	2.40040E-001	7.25995E-001	3.57680E+000	9	...........
	50	0.68	7.31539E-001	4.01252E-004	0.00000E+000	2.93532E-004	2.40040E-001	7.31771E-001	3.57680E+000	9	...........
	51	0.693333	7.37325E-001	4.00175E-004	0.00000E+000	2.95059E-004	2.40040E-001	7.37555E-001	3.57680E+000	9	...........
	52	0.706667	7.43085E-001	4.00990E-004	0.00000E+000	2.97969E-004	2.40040E-001	7.43325E-001	3.57680E+000	9	...........
	53	0.72	7.48784E-001	4.01132E-004	0.00000E+000	3.00361E-004	2.40040E-001	7.49029E-001	3.57680E+000	9	...........
	54	0.733333	7.54479E-001	4.00545E-004	0.00000E+000	3.02203E-004	2.40040E-001	7.54721E-001	3.57680E+000	9	...........
	55	0.746667	7.60124E-001	4.01468E-004	0.00000E+000	3.05165E-004	2.40040E-001	7.60375E-001	3.57680E+000	9	...........
	56	0.76	7.65742E-001	4.01750E-004	0.00000E+000	3.07637E-004	2.40040E-001	7.65984E-001	3.57680E+000	9	...........
	57	0.773333	7.71268E-001	3.99338E-004	0.00000E+000	3.07997E-004	2.40040E-001	7.71482E-001	3.57680E+000	9	...........
	58	0.786667	7.76786E-001	4.01836E-004	0.00000E+000	3.12140E-004	2.40040E-001	7.77026E-001	3.57749E+000	9	...........
	59	0.8	7.82287E-001	4.00710E-004	0.00000E+000	3.13470E-004	2.40040E-001	7.82511E-001	3.57780E+000	9	...........
	60	0.813333	7.87813E-001	4.00072E-004	0.00000E+000	3.15182E-004	2.40040E-001	7.88060E-001	3.57780E+000	9	...........
	61	0.826667	7.93287E-001	4.01886E-004	0.00000E+000	3.18811E-004	2.40040E-001	7.93534E-001	3.57780E+000	9	...........
	62	0.84	7.98687E-001	4.00805E-004	0.00000E+000	3.20118E-004	2.40040E-001	7.98906E-001	3.57780E+000	9	...........
	63	0.853333	8.03985E-001	4.00457E-004	0.00000E+000	3.21962E-004	2.40040E-001	8.04233E-001	3.57780E+000	9	...........
	64	0.866667	8.09192E-001	4.01674E-004	0.00000E+000	3.25032E-004	2.40040E-001	8.09440E-001	3.57780E+000	9	...........
	65	0.88	8.14412E-001	4.01456E-004	0.00000E+000	3.26950E-004	2.40040E-001	8.14688E-001	3.57780E+000	9	...........
	66	0.893333	8.19711E-001	4.00195E-004	0.00000E+000	3.28044E-004	2.40040E-001	8.19971E-001	3.57780E+000	9	...........
	67	0.906667	8.24975E-001	4.01677E-004	0.00000E+000	3.31374E-004	2.40040E-001	8.25246E-001	3.57780E+000	9	...........
	68	0.92	8.30137E-001	4.01570E-004	0.00000E+000	3.33358E-004	2.40040E-001	8.30411E-001	3.57780E+000	9	...........
	69	0.933333	8.35270E-001	4.00313E-004	0.00000E+000	3.34369E-004	2.40040E-001	8.35565E-001	3.57780E+000	9	...........
	70	0.946667	8.40361E-001	3.99783E-004	0.00000E+000	3.35962E-004	2.40040E-001	8.40647E-001	3.57780E+000	9	...........
	71	0.96	8.45491E-001	4.02016E-004	0.00000E+000	3.39901E-004	2.40040E-001	8.45812E-001	3.57780E+000	9	...........
	72	0.97333	8.50571E-001	4.01306E-004	0.00000E+000	3.41339E-004	2.40040E-001	8.50887E-001	3.57780E+000	9	...........
	73	0.98667	8.55574E-001	3.99746E-004	0.00000E+000	3.42012E-004	2.40040E-001	8.55881E-001	3.57780E+000	9	...........
	74	1	8.60581E-001	4.00819E-004	0.00000E+000	3.44937E-004	2.40040E-001	8.60894E-001	3.57780E+000	9	...........
	75	1.01333	8.65425E-001	3.99477E-004	0.00000E+000	3.45717E-004	2.40040E-001	8.65742E-001	3.57780E+000	9	...........
	76	1.02667	8.70293E-001	4.01167E-004	0.00000E+000	3.49133E-004	2.40040E-001	8.70612E-001	3.57780E+000	9	...........
	77	1.04	8.75106E-001	4.01096E-004	0.00000E+000	3.51002E-004	2.40040E-001	8.75439E-001	3.57780E+000	9	...........
	78	1.05333	8.79927E-001	4.00769E-004	0.00000E+000	3.52647E-004	2.40040E-001	8.80264E-001	3.57780E+000	9	...........
	79	1.06667	8.84682E-001	4.01836E-004	0.00000E+000	3.55497E-004	2.40040E-001	8.85009E-001	3.57780E+000	9	...........
	80	1.08	8.89385E-001	4.00648E-004	0.00000E+000	3.56330E-004	2.40040E-001	8.89718E-001	3.57780E+000	9	...........
	81	1.09333	8.94074E-001	4.00788E-004	0.00000E+000	3.58334E-004	2.40040E-001	8.94420E-001	3.57780E+000	9	...........
	82	1.10667	8.98661E-001	4.01667E-004	0.00000E+000	3.60963E-004	2.40040E-001	8.98970E-001	3.57780E+000	9	...........
	83	1.12	9.03271E-001	4.00292E-004	0.00000E+000	3.61572E-004	2.40040E-001	9.03590E-001	3.57780E+000	9	...........
	84	1.13333	9.07848E-001	4.00132E-004	0.00000E+000	3.63259E-004	2.40040E-001	9.08148E-001	3.57780E+000	9	...........
	85	1.14667	9.12380E-001	4.01489E-004	0.00000E+000	3.66310E-004	2.40040E-001	9.12688E-001	3.57780E+000	9	...........
	86	1.16	9.16855E-001	4.02544E-004	0.00000E+000	3.69075E-004	2.40040E-001	9.17169E-001	3.57780E+000	9	...........
	87	1.17333	9.21386E-001	4.01264E-004	0.00000E+000	3.69719E-004	2.40040E-001	9.21674E-001	3.57780E+000	9	...........
	88	1.18667	9.25766E-001	4.02780E-004	0.00000E+000	3.72880E-004	2.40040E-001	9.26059E-001	3.57780E+000	9	...........
	89	1.2	9.30155E-001	4.01149E-004	0.00000E+000	3.73131E-004	2.40040E-001	9.30415E-001	3.57780E+000	9	...........
	90	1.21333	9.34474E-001	4.01856E-004	0.00000E+000	3.75524E-004	2.40040E-001	9.34748E-001	3.57780E+000	9	...........
	91	1.22667	9.38795E-001	4.00818E-004	0.00000E+000	3.76286E-004	2.40040E-001	9.39080E-001	3.57780E+000	9	...........
	92	1.24	9.43060E-001	4.00253E-004	0.00000E+000	3.77463E-004	2.40040E-001	9.43348E-001	3.57780E+000	9	...........
	93	1.25333	9.47300E-001	4.00668E-004	0.00000E+000	3.79553E-004	2.40040E-001	9.47611E-001	3.57780E+000	9	...........
	94	1.26667	9.51479E-001	4.00239E-004	0.00000E+000	3.80819E-004	2.40040E-001	9.51775E-001	3.57780E+000	9	...........
	95	1.28	9.55627E-001	3.99243E-004	0.00000E+000	3.81527E-004	2.40040E-001	9.55924E-001	3.57780E+000	9	...........
	96	1.29333	9.59764E-001	4.01195E-004	0.00000E+000	3.85052E-004	2.40040E-001	9.60080E-001	3.57780E+000	9	...........
	97	1.30667	9.63781E-001	4.01573E-004	0.00000E+000	3.87029E-004	2.40040E-001	9.64105E-001	3.57780E+000	9	...........
	98	1.32	9.67777E-001	4.00946E-004	0.00000E+000	3.88026E-004	2.40040E-001	9.68140E-001	3.57780E+000	9	...........
	99	1.33333	9.71838E-001	4.00822E-004	0.00000E+000	3.89534E-004	2.40040E-001	9.72174E-001	3.57780E+000	9	...........
	100	1.34667	9.75775E-001	4.01229E-004	0.00000E+000	3.91510E-004	2.40040E-001	9.76085E-001	3.57780E+000	9	...........
	101	1.36	9.79615E-001	4.01106E-004	0.00000E+000	3.92930E-004	2.40040E-001	9.79918E-001	3.57780E+000	9	...........
	102	1.37333	9.83442E-001	4.00670E-004	0.00000E+000	3.94036E-004	2.40040E-001	9.83726E-001	3.57780E+000	9	...........
	103	1.38667	9.87231E-001	4.01562E-004	0.00000E+000	3.96434E-004	2.40040E-001	9.87552E-001	3.57780E+000	9	...........
	104	1.4	9.90999E-001	3.99629E-004	0.00000E+000	3.96032E-004	2.40040E-001	9.91290E-001	3.57780E+000	9	...........
	105	1.41333	9.94689E-001	4.01865E-004	0.00000E+000	3.99731E-004	2.40040E-001	9.94976E-001	3.57780E+000	9	...........
	106	1.42667	9.98410E-001	3.99824E-004	0.00000E+000	3.99188E-004	2.40040E-001	9.98732E-001	3.57780E+000	9	...........
STARTTIMEOFFSET	QUANT	2703.593	Start Time Offset (s)
