EXPLAIN
TAG	PWR800_CHARGE
TITLE	LABEL	PWR Cyclic Charge Discharge (Cell) - Charge Step	Test &Identifier
DATE	LABEL	12-7-2017	Date
TIME	LABEL	15:17:48	Time
NOTES	NOTES	3	&Notes...
	supercap test cell
	0.4mg
	6M KOH
PSTAT	PSTAT	IFC5000-01520	Potentiostat
CAPACITY	QUANT	1.00000E-003	Capacity (A-hr)
CELLTYPE	SELECTOR	1	&Cell Type
WORKINGCONNECTION	SELECTOR	0	&Working Lead
MAXCHARGETIME	VARIABLEANDUNITS	1.00000E+002	s	1.00000E+002	second(s)	Max &Charge Time
CHARGECURRENT	QUANT	4.00000E-004	&Charge Current (A) 
VOLTAGEFINISH	TWOPARAM	F	1.00000E-003	3.60000E+003	&Voltage Finish	 I (A) < 	Max Time(s)
SAMPLETIME	QUANT	1.00000E-002	Sa&mple Period (s)
CHARGESTOPAT1	MULTIPARAM	4	1.00000E+000	Charge Stop At &1	Voltage > Limit	V
CHARGESTOPAT2	MULTIPARAM	0	0.00000E+000	Charge Stop At &2	None	N/A
AESBHCSELECTOR	TOGGLE	F	Save Both Half Cells
IRCOMP	TOGGLE	F	IR &Measure
EOC	QUANT	0	Open Circuit (V)
SEQUENCER	TOGGLE	TRUE	Run as Sequence
PSTATMODEL	IQUANT	53	Pstat Model
PSTATSECTION	LABEL	IFC5000-01520	Pstat Section
PSTATSERIALNO	LABEL	01520	Pstat Serial Number
CTRLMODE	IQUANT	0	Control Mode
ELECTROMETER	IQUANT	1	RE=0 or CS=1
IESTAB	IQUANT	0	I/E Stability
CASPEED	IQUANT	4	Control Amp Speed
CONVENTION	IQUANT	1	Current Convention
ICHRANGE	IQUANT	2	Ich Range
ICHRANGEMODE	TOGGLE	T	Ich Auto Range
ICHOFFSETENABLE	TOGGLE	F	Ich Offset Enable
ICHOFFSET	QUANT	0	Ich Offset (V)
ICHFILTER	IQUANT	1	Ich Filter
VCHRANGE	IQUANT	2	Vch Range
VCHRANGEMODE	TOGGLE	T	Vch Auto Range
VCHOFFSETENABLE	TOGGLE	F	Vch Offset Enable
VCHOFFSET	QUANT	0	Vch Offset (V)
VCHFILTER	IQUANT	1	Vch Filter
IERANGELOWERLIMIT	IQUANT	9	I/E Range Lower Limit
IERANGEMODE	TOGGLE	F	I/E AutoRange
IERANGE	IQUANT	9	I/E Range
ACHSELECT	IQUANT	1	Ach Select
ACHRANGE	IQUANT	2	Ach Range
ACHOFFSETENABLE	TOGGLE	F	Ach Offset Enable
ACHOFFSET	QUANT	0	Ach Offset (V)
ACHFILTER	IQUANT	1	Ach Filter
CABLEID	IQUANT	14	Cable ID
DCCALDATE	LABEL	5-7-2017	DC Calibration Date
ACCALDATE	LABEL	12/3/2015	AC Calibration Date
FRAMEWORKVERSION	QUANT	7.01	Framework Version
INSTRUMENTVERSION	LABEL	4.00	Instrument Version
CURVE	TABLE	107
	Pt	T	Vf	Im	Vu	Pwr	Sig	Ach	Temp	IERange	Over
	#	s	V	A	V	W	V	V	deg C	#	bits
	0	0.013333	3.88298E-001	4.00234E-004	0.00000E+000	1.55410E-004	2.40040E-001	3.88399E-001	3.57730E+000	9	...........
	1	0.026667	4.01067E-001	4.00561E-004	0.00000E+000	1.60651E-004	2.40040E-001	4.01145E-001	3.57730E+000	9	...........
	2	0.04	4.11965E-001	4.01238E-004	0.00000E+000	1.65296E-004	2.40040E-001	4.12052E-001	3.57730E+000	9	...........
	3	0.053333	4.21814E-001	3.99583E-004	0.00000E+000	1.68550E-004	2.40040E-001	4.21910E-001	3.57730E+000	9	...........
	4	0.066667	4.30985E-001	4.01458E-004	0.00000E+000	1.73022E-004	2.40040E-001	4.31080E-001	3.57730E+000	9	...........
	5	0.08	4.39668E-001	4.01537E-004	0.00000E+000	1.76543E-004	2.40040E-001	4.39762E-001	3.57730E+000	9	...........
	6	0.093333	4.48077E-001	4.00416E-004	0.00000E+000	1.79417E-004	2.40040E-001	4.48173E-001	3.57730E+000	9	...........
	7	0.106667	4.56172E-001	4.01323E-004	0.00000E+000	1.83072E-004	2.40040E-001	4.56265E-001	3.57730E+000	9	...........
	8	0.12	4.64011E-001	4.00308E-004	0.00000E+000	1.85747E-004	2.40040E-001	4.64104E-001	3.57730E+000	9	...........
	9	0.133333	4.71696E-001	4.02025E-004	0.00000E+000	1.89634E-004	2.40040E-001	4.71799E-001	3.57730E+000	9	...........
	10	0.146667	4.79270E-001	4.00876E-004	0.00000E+000	1.92128E-004	2.40040E-001	4.79364E-001	3.57730E+000	9	...........
	11	0.16	4.86639E-001	4.01134E-004	0.00000E+000	1.95207E-004	2.40040E-001	4.86737E-001	3.57730E+000	9	...........
	12	0.173333	4.93912E-001	3.99933E-004	0.00000E+000	1.97532E-004	2.40040E-001	4.94015E-001	3.57730E+000	9	...........
	13	0.186667	5.01128E-001	4.00010E-004	0.00000E+000	2.00456E-004	2.40040E-001	5.01233E-001	3.57730E+000	9	...........
	14	0.2	5.08179E-001	4.01596E-004	0.00000E+000	2.04083E-004	2.40040E-001	5.08285E-001	3.57730E+000	9	...........
	15	0.213333	5.15168E-001	4.02481E-004	0.00000E+000	2.07345E-004	2.40040E-001	5.15277E-001	3.57730E+000	9	...........
	16	0.226667	5.22110E-001	4.00990E-004	0.00000E+000	2.09361E-004	2.40040E-001	5.22222E-001	3.57730E+000	9	...........
	17	0.24	5.28983E-001	4.01594E-004	0.00000E+000	2.12436E-004	2.40040E-001	5.29095E-001	3.57730E+000	9	...........
	18	0.253333	5.35489E-001	4.00855E-004	0.00000E+000	2.14653E-004	2.40040E-001	5.35678E-001	3.57730E+000	9	...........
	19	0.266667	5.42143E-001	4.00456E-004	0.00000E+000	2.17105E-004	2.40040E-001	5.42352E-001	3.57730E+000	9	...........
	20	0.28	5.48824E-001	3.99750E-004	0.00000E+000	2.19392E-004	2.40040E-001	5.49036E-001	3.57730E+000	9	...........
	21	0.293333	5.55475E-001	4.01583E-004	0.00000E+000	2.23069E-004	2.40040E-001	5.55705E-001	3.57730E+000	9	...........
	22	0.306667	5.62132E-001	4.00292E-004	0.00000E+000	2.25017E-004	2.40040E-001	5.62357E-001	3.57730E+000	9	...........
	23	0.32	5.68800E-001	4.02244E-004	0.00000E+000	2.28797E-004	2.40040E-001	5.68998E-001	3.57730E+000	9	...........
	24	0.333333	5.75327E-001	4.01699E-004	0.00000E+000	2.31108E-004	2.40040E-001	5.75565E-001	3.57730E+000	9	...........
	25	0.346667	5.81831E-001	4.00859E-004	0.00000E+000	2.33232E-004	2.40040E-001	5.82063E-001	3.57730E+000	9	...........
	26	0.36	5.88325E-001	4.00423E-004	0.00000E+000	2.35579E-004	2.40040E-001	5.88583E-001	3.57730E+000	9	...........
	27	0.373333	5.94747E-001	3.99902E-004	0.00000E+000	2.37841E-004	2.40040E-001	5.95003E-001	3.57730E+000	9	...........
	28	0.386667	6.01114E-001	4.00182E-004	0.00000E+000	2.40555E-004	2.40040E-001	6.01351E-001	3.57730E+000	9	...........
	29	0.4	6.07456E-001	4.00190E-004	0.00000E+000	2.43098E-004	2.40040E-001	6.07721E-001	3.57730E+000	9	...........
	30	0.413333	6.13797E-001	4.00436E-004	0.00000E+000	2.45786E-004	2.40040E-001	6.14047E-001	3.57730E+000	9	...........
	31	0.426667	6.20139E-001	4.01537E-004	0.00000E+000	2.49009E-004	2.40040E-001	6.20358E-001	3.57730E+000	9	...........
	32	0.44	6.26418E-001	4.01464E-004	0.00000E+000	2.51484E-004	2.40040E-001	6.26651E-001	3.57730E+000	9	...........
	33	0.453333	6.32686E-001	4.01308E-004	0.00000E+000	2.53902E-004	2.40040E-001	6.32936E-001	3.57730E+000	9	...........
	34	0.466667	6.38871E-001	4.02062E-004	0.00000E+000	2.56866E-004	2.40040E-001	6.39143E-001	3.57730E+000	9	...........
	35	0.48	6.45017E-001	4.01021E-004	0.00000E+000	2.58666E-004	2.40040E-001	6.45267E-001	3.57730E+000	9	...........
	36	0.493333	6.51143E-001	4.02007E-004	0.00000E+000	2.61764E-004	2.40040E-001	6.51384E-001	3.57730E+000	9	...........
	37	0.506667	6.57219E-001	4.00401E-004	0.00000E+000	2.63151E-004	2.40040E-001	6.57458E-001	3.57730E+000	9	...........
	38	0.52	6.63368E-001	4.01189E-004	0.00000E+000	2.66136E-004	2.40040E-001	6.63639E-001	3.57730E+000	9	...........
	39	0.533333	6.69519E-001	4.00993E-004	0.00000E+000	2.68472E-004	2.40040E-001	6.69760E-001	3.57730E+000	9	...........
	40	0.546667	6.75557E-001	4.01105E-004	0.00000E+000	2.70970E-004	2.40040E-001	6.75814E-001	3.57730E+000	9	...........
	41	0.56	6.81681E-001	4.01077E-004	0.00000E+000	2.73407E-004	2.40040E-001	6.81918E-001	3.57730E+000	9	...........
	42	0.573333	6.87723E-001	4.00809E-004	0.00000E+000	2.75645E-004	2.40040E-001	6.87972E-001	3.57730E+000	9	...........
	43	0.586667	6.93695E-001	4.02776E-004	0.00000E+000	2.79404E-004	2.40040E-001	6.93943E-001	3.57730E+000	9	...........
	44	0.6	6.99671E-001	4.00467E-004	0.00000E+000	2.80195E-004	2.40040E-001	6.99913E-001	3.57730E+000	9	...........
	45	0.613333	7.05595E-001	4.00374E-004	0.00000E+000	2.82502E-004	2.40040E-001	7.05830E-001	3.57730E+000	9	...........
	46	0.626667	7.11478E-001	4.01474E-004	0.00000E+000	2.85640E-004	2.40040E-001	7.11726E-001	3.57730E+000	9	...........
	47	0.64	7.17408E-001	4.00313E-004	0.00000E+000	2.87187E-004	2.40040E-001	7.17653E-001	3.57730E+000	9	...........
	48	0.653333	7.23316E-001	4.01729E-004	0.00000E+000	2.90577E-004	2.40040E-001	7.23549E-001	3.57730E+000	9	...........
	49	0.666667	7.29157E-001	4.00649E-004	0.00000E+000	2.92136E-004	2.40040E-001	7.29385E-001	3.57730E+000	9	...........
	50	0.68	7.34926E-001	4.00569E-004	0.00000E+000	2.94388E-004	2.40040E-001	7.35156E-001	3.57730E+000	9	...........
	51	0.693333	7.40668E-001	4.00565E-004	0.00000E+000	2.96685E-004	2.40040E-001	7.40905E-001	3.57730E+000	9	...........
	52	0.706667	7.46444E-001	4.00674E-004	0.00000E+000	2.99081E-004	2.40040E-001	7.46701E-001	3.57730E+000	9	...........
	53	0.72	7.52097E-001	4.00592E-004	0.00000E+000	3.01284E-004	2.40040E-001	7.52321E-001	3.57730E+000	9	...........
	54	0.733333	7.57754E-001	4.00246E-004	0.00000E+000	3.03288E-004	2.40040E-001	7.57976E-001	3.57730E+000	9	...........
	55	0.746667	7.63382E-001	4.01852E-004	0.00000E+000	3.06767E-004	2.40040E-001	7.63612E-001	3.57730E+000	9	...........
	56	0.76	7.69081E-001	4.01292E-004	0.00000E+000	3.08626E-004	2.40040E-001	7.69362E-001	3.57730E+000	9	...........
	57	0.773333	7.74758E-001	4.00572E-004	0.00000E+000	3.10346E-004	2.40040E-001	7.74981E-001	3.57730E+000	9	...........
	58	0.786667	7.80332E-001	4.00690E-004	0.00000E+000	3.12671E-004	2.40040E-001	7.80590E-001	3.57730E+000	9	...........
	59	0.8	7.85884E-001	4.01712E-004	0.00000E+000	3.15699E-004	2.40040E-001	7.86117E-001	3.57730E+000	9	...........
	60	0.813333	7.91401E-001	4.01681E-004	0.00000E+000	3.17891E-004	2.40040E-001	7.91677E-001	3.57730E+000	9	...........
	61	0.826667	7.96908E-001	4.01769E-004	0.00000E+000	3.20173E-004	2.40040E-001	7.97153E-001	3.57743E+000	9	...........
	62	0.84	8.02297E-001	4.01188E-004	0.00000E+000	3.21872E-004	2.40040E-001	8.02556E-001	3.57780E+000	9	...........
	63	0.853333	8.07590E-001	4.01789E-004	0.00000E+000	3.24481E-004	2.40040E-001	8.07856E-001	3.57780E+000	9	...........
	64	0.866667	8.12872E-001	4.00665E-004	0.00000E+000	3.25689E-004	2.40040E-001	8.13171E-001	3.57780E+000	9	...........
	65	0.88	8.18168E-001	4.00869E-004	0.00000E+000	3.27978E-004	2.40040E-001	8.18452E-001	3.57780E+000	9	...........
	66	0.893333	8.23434E-001	4.00107E-004	0.00000E+000	3.29462E-004	2.40040E-001	8.23753E-001	3.57780E+000	9	...........
	67	0.906667	8.28694E-001	4.02030E-004	0.00000E+000	3.33159E-004	2.40040E-001	8.28983E-001	3.57780E+000	9	...........
	68	0.92	8.33847E-001	4.01279E-004	0.00000E+000	3.34606E-004	2.40040E-001	8.34168E-001	3.57780E+000	9	...........
	69	0.933333	8.39003E-001	4.01523E-004	0.00000E+000	3.36879E-004	2.40040E-001	8.39311E-001	3.57780E+000	9	...........
	70	0.946667	8.44097E-001	4.00067E-004	0.00000E+000	3.37695E-004	2.40040E-001	8.44412E-001	3.57780E+000	9	...........
	71	0.96	8.49167E-001	3.99774E-004	0.00000E+000	3.39475E-004	2.40040E-001	8.49487E-001	3.57780E+000	9	...........
	72	0.97333	8.54205E-001	4.01520E-004	0.00000E+000	3.42980E-004	2.40040E-001	8.54497E-001	3.57780E+000	9	...........
	73	0.98667	8.59195E-001	4.01608E-004	0.00000E+000	3.45059E-004	2.40040E-001	8.59486E-001	3.57780E+000	9	...........
	74	1	8.64172E-001	4.01163E-004	0.00000E+000	3.46674E-004	2.40040E-001	8.64458E-001	3.57780E+000	9	...........
	75	1.01333	8.69089E-001	4.01316E-004	0.00000E+000	3.48779E-004	2.40040E-001	8.69367E-001	3.57780E+000	9	...........
	76	1.02667	8.73879E-001	4.01676E-004	0.00000E+000	3.51017E-004	2.40040E-001	8.74177E-001	3.57780E+000	9	...........
	77	1.04	8.78747E-001	4.00367E-004	0.00000E+000	3.51821E-004	2.40040E-001	8.79022E-001	3.57780E+000	9	...........
	78	1.05333	8.83599E-001	4.00465E-004	0.00000E+000	3.53850E-004	2.40040E-001	8.83907E-001	3.57780E+000	9	...........
	79	1.06667	8.88396E-001	4.01333E-004	0.00000E+000	3.56542E-004	2.40040E-001	8.88686E-001	3.57780E+000	9	...........
	80	1.08	8.93075E-001	4.01299E-004	0.00000E+000	3.58390E-004	2.40040E-001	8.93409E-001	3.57780E+000	9	...........
	81	1.09333	8.97714E-001	4.01763E-004	0.00000E+000	3.60668E-004	2.40040E-001	8.98032E-001	3.57780E+000	9	...........
	82	1.10667	9.02325E-001	4.00846E-004	0.00000E+000	3.61693E-004	2.40040E-001	9.02647E-001	3.57780E+000	9	...........
	83	1.12	9.06938E-001	4.01239E-004	0.00000E+000	3.63899E-004	2.40040E-001	9.07245E-001	3.57780E+000	9	...........
	84	1.13333	9.11553E-001	4.01705E-004	0.00000E+000	3.66175E-004	2.40040E-001	9.11828E-001	3.57780E+000	9	...........
	85	1.14667	9.16010E-001	4.01538E-004	0.00000E+000	3.67813E-004	2.40040E-001	9.16333E-001	3.57780E+000	9	...........
	86	1.16	9.20510E-001	4.00201E-004	0.00000E+000	3.68389E-004	2.40040E-001	9.20784E-001	3.57780E+000	9	...........
	87	1.17333	9.24943E-001	4.02546E-004	0.00000E+000	3.72333E-004	2.40040E-001	9.25224E-001	3.57780E+000	9	...........
	88	1.18667	9.29339E-001	4.00335E-004	0.00000E+000	3.72047E-004	2.40040E-001	9.29629E-001	3.57780E+000	9	...........
	89	1.2	9.33712E-001	3.99822E-004	0.00000E+000	3.73318E-004	2.40040E-001	9.33996E-001	3.57780E+000	9	...........
	90	1.21333	9.38016E-001	4.00140E-004	0.00000E+000	3.75337E-004	2.40040E-001	9.38345E-001	3.57780E+000	9	...........
	91	1.22667	9.42285E-001	4.01146E-004	0.00000E+000	3.77994E-004	2.40040E-001	9.42586E-001	3.57780E+000	9	...........
	92	1.24	9.46544E-001	4.00582E-004	0.00000E+000	3.79169E-004	2.40040E-001	9.46860E-001	3.57780E+000	9	...........
	93	1.25333	9.50759E-001	4.01866E-004	0.00000E+000	3.82078E-004	2.40040E-001	9.51058E-001	3.57780E+000	9	...........
	94	1.26667	9.54867E-001	4.00152E-004	0.00000E+000	3.82092E-004	2.40040E-001	9.55153E-001	3.57780E+000	9	...........
	95	1.28	9.59028E-001	3.99988E-004	0.00000E+000	3.83599E-004	2.40040E-001	9.59349E-001	3.57780E+000	9	...........
	96	1.29333	9.63092E-001	4.00104E-004	0.00000E+000	3.85337E-004	2.40040E-001	9.63436E-001	3.57780E+000	9	...........
	97	1.30667	9.67113E-001	4.00076E-004	0.00000E+000	3.86919E-004	2.40040E-001	9.67433E-001	3.57780E+000	9	...........
	98	1.32	9.71053E-001	4.02595E-004	0.00000E+000	3.90941E-004	2.40040E-001	9.71401E-001	3.57780E+000	9	...........
	99	1.33333	9.75052E-001	4.01880E-004	0.00000E+000	3.91853E-004	2.40040E-001	9.75350E-001	3.57780E+000	9	...........
	100	1.34667	9.78901E-001	4.01484E-004	0.00000E+000	3.93013E-004	2.40040E-001	9.79175E-001	3.57780E+000	9	...........
	101	1.36	9.82733E-001	4.01352E-004	0.00000E+000	3.94422E-004	2.40040E-001	9.83019E-001	3.57780E+000	9	...........
	102	1.37333	9.86544E-001	4.01764E-004	0.00000E+000	3.96358E-004	2.40040E-001	9.86855E-001	3.57780E+000	9	...........
	103	1.38667	9.90316E-001	4.01929E-004	0.00000E+000	3.98036E-004	2.40040E-001	9.90611E-001	3.57780E+000	9	...........
	104	1.4	9.94076E-001	4.00953E-004	0.00000E+000	3.98578E-004	2.40040E-001	9.94386E-001	3.57780E+000	9	...........
	105	1.41333	9.97770E-001	4.02237E-004	0.00000E+000	4.01340E-004	2.40040E-001	9.98099E-001	3.57780E+000	9	...........
	106	1.41667	1.00004E+000	3.98735E-004	0.00000E+000	3.98750E-004	2.40040E-001	1.00036E+000	3.57780E+000	9	...........
STARTTIMEOFFSET	QUANT	2804.172	Start Time Offset (s)
