EXPLAIN
TAG	PWR800_CHARGE
TITLE	LABEL	PWR Cyclic Charge Discharge (Cell) - Charge Step	Test &Identifier
DATE	LABEL	12-7-2017	Date
TIME	LABEL	15:00:14	Time
NOTES	NOTES	3	&Notes...
	supercap test cell
	0.4mg
	6M KOH
PSTAT	PSTAT	IFC5000-01520	Potentiostat
CAPACITY	QUANT	1.00000E-003	Capacity (A-hr)
CELLTYPE	SELECTOR	1	&Cell Type
WORKINGCONNECTION	SELECTOR	0	&Working Lead
MAXCHARGETIME	VARIABLEANDUNITS	1.00000E+002	s	1.00000E+002	second(s)	Max &Charge Time
CHARGECURRENT	QUANT	4.00000E-004	&Charge Current (A) 
VOLTAGEFINISH	TWOPARAM	F	1.00000E-003	3.60000E+003	&Voltage Finish	 I (A) < 	Max Time(s)
SAMPLETIME	QUANT	1.00000E-002	Sa&mple Period (s)
CHARGESTOPAT1	MULTIPARAM	4	1.00000E+000	Charge Stop At &1	Voltage > Limit	V
CHARGESTOPAT2	MULTIPARAM	0	0.00000E+000	Charge Stop At &2	None	N/A
AESBHCSELECTOR	TOGGLE	F	Save Both Half Cells
IRCOMP	TOGGLE	F	IR &Measure
EOC	QUANT	0	Open Circuit (V)
SEQUENCER	TOGGLE	TRUE	Run as Sequence
PSTATMODEL	IQUANT	53	Pstat Model
PSTATSECTION	LABEL	IFC5000-01520	Pstat Section
PSTATSERIALNO	LABEL	01520	Pstat Serial Number
CTRLMODE	IQUANT	0	Control Mode
ELECTROMETER	IQUANT	1	RE=0 or CS=1
IESTAB	IQUANT	0	I/E Stability
CASPEED	IQUANT	4	Control Amp Speed
CONVENTION	IQUANT	1	Current Convention
ICHRANGE	IQUANT	2	Ich Range
ICHRANGEMODE	TOGGLE	T	Ich Auto Range
ICHOFFSETENABLE	TOGGLE	F	Ich Offset Enable
ICHOFFSET	QUANT	0	Ich Offset (V)
ICHFILTER	IQUANT	1	Ich Filter
VCHRANGE	IQUANT	2	Vch Range
VCHRANGEMODE	TOGGLE	T	Vch Auto Range
VCHOFFSETENABLE	TOGGLE	F	Vch Offset Enable
VCHOFFSET	QUANT	0	Vch Offset (V)
VCHFILTER	IQUANT	1	Vch Filter
IERANGELOWERLIMIT	IQUANT	9	I/E Range Lower Limit
IERANGEMODE	TOGGLE	F	I/E AutoRange
IERANGE	IQUANT	9	I/E Range
ACHSELECT	IQUANT	1	Ach Select
ACHRANGE	IQUANT	2	Ach Range
ACHOFFSETENABLE	TOGGLE	F	Ach Offset Enable
ACHOFFSET	QUANT	0	Ach Offset (V)
ACHFILTER	IQUANT	1	Ach Filter
CABLEID	IQUANT	14	Cable ID
DCCALDATE	LABEL	5-7-2017	DC Calibration Date
ACCALDATE	LABEL	12/3/2015	AC Calibration Date
FRAMEWORKVERSION	QUANT	7.01	Framework Version
INSTRUMENTVERSION	LABEL	4.00	Instrument Version
CURVE	TABLE	113
	Pt	T	Vf	Im	Vu	Pwr	Sig	Ach	Temp	IERange	Over
	#	s	V	A	V	W	V	V	deg C	#	bits
	0	0.013333	3.73351E-001	4.00434E-004	0.00000E+000	1.49503E-004	2.40040E-001	3.73432E-001	3.57630E+000	9	...........
	1	0.026667	3.85376E-001	4.02197E-004	0.00000E+000	1.54997E-004	2.40040E-001	3.85449E-001	3.57630E+000	9	...........
	2	0.04	3.95690E-001	4.00478E-004	0.00000E+000	1.58465E-004	2.40040E-001	3.95766E-001	3.57630E+000	9	...........
	3	0.053333	4.05086E-001	4.00761E-004	0.00000E+000	1.62342E-004	2.40040E-001	4.05167E-001	3.57630E+000	9	...........
	4	0.066667	4.13866E-001	4.00737E-004	0.00000E+000	1.65851E-004	2.40040E-001	4.13951E-001	3.57630E+000	9	...........
	5	0.08	4.22221E-001	4.00047E-004	0.00000E+000	1.68908E-004	2.40040E-001	4.22307E-001	3.57630E+000	9	...........
	6	0.093333	4.30188E-001	4.00696E-004	0.00000E+000	1.72375E-004	2.40040E-001	4.30279E-001	3.57630E+000	9	...........
	7	0.106667	4.37913E-001	4.00876E-004	0.00000E+000	1.75549E-004	2.40040E-001	4.38006E-001	3.57630E+000	9	...........
	8	0.12	4.45449E-001	4.00520E-004	0.00000E+000	1.78411E-004	2.40040E-001	4.45544E-001	3.57630E+000	9	...........
	9	0.133333	4.52845E-001	4.00309E-004	0.00000E+000	1.81278E-004	2.40040E-001	4.52936E-001	3.57630E+000	9	...........
	10	0.146667	4.60064E-001	4.01222E-004	0.00000E+000	1.84588E-004	2.40040E-001	4.60153E-001	3.57630E+000	9	...........
	11	0.16	4.67156E-001	3.99891E-004	0.00000E+000	1.86811E-004	2.40040E-001	4.67249E-001	3.57630E+000	9	...........
	12	0.173333	4.74134E-001	4.00697E-004	0.00000E+000	1.89984E-004	2.40040E-001	4.74223E-001	3.57630E+000	9	...........
	13	0.186667	4.81044E-001	4.00760E-004	0.00000E+000	1.92783E-004	2.40040E-001	4.81134E-001	3.57630E+000	9	...........
	14	0.2	4.87784E-001	4.01247E-004	0.00000E+000	1.95722E-004	2.40040E-001	4.87883E-001	3.57630E+000	9	...........
	15	0.213333	4.94524E-001	4.01490E-004	0.00000E+000	1.98547E-004	2.40040E-001	4.94627E-001	3.57630E+000	9	...........
	16	0.226667	5.01264E-001	4.01710E-004	0.00000E+000	2.01363E-004	2.40040E-001	5.01366E-001	3.57630E+000	9	...........
	17	0.24	5.07823E-001	4.01262E-004	0.00000E+000	2.03770E-004	2.40040E-001	5.07920E-001	3.57630E+000	9	...........
	18	0.253333	5.14352E-001	4.01120E-004	0.00000E+000	2.06317E-004	2.40040E-001	5.14450E-001	3.57630E+000	9	...........
	19	0.266667	5.20818E-001	4.00256E-004	0.00000E+000	2.08461E-004	2.40040E-001	5.20919E-001	3.57630E+000	9	...........
	20	0.28	5.27267E-001	4.01138E-004	0.00000E+000	2.11507E-004	2.40040E-001	5.27373E-001	3.57630E+000	9	...........
	21	0.293333	5.33483E-001	3.99843E-004	0.00000E+000	2.13309E-004	2.40040E-001	5.33632E-001	3.57630E+000	9	...........
	22	0.306667	5.39772E-001	4.02130E-004	0.00000E+000	2.17058E-004	2.40040E-001	5.39941E-001	3.57630E+000	9	...........
	23	0.32	5.46086E-001	4.00611E-004	0.00000E+000	2.18768E-004	2.40040E-001	5.46254E-001	3.57630E+000	9	...........
	24	0.333333	5.52366E-001	4.00276E-004	0.00000E+000	2.21099E-004	2.40040E-001	5.52552E-001	3.57630E+000	9	...........
	25	0.346667	5.58529E-001	4.01599E-004	0.00000E+000	2.24305E-004	2.40040E-001	5.58724E-001	3.57630E+000	9	...........
	26	0.36	5.64701E-001	3.99893E-004	0.00000E+000	2.25820E-004	2.40040E-001	5.64893E-001	3.57630E+000	9	...........
	27	0.373333	5.70941E-001	4.01350E-004	0.00000E+000	2.29147E-004	2.40040E-001	5.71116E-001	3.57630E+000	9	...........
	28	0.386667	5.77050E-001	4.00457E-004	0.00000E+000	2.31084E-004	2.40040E-001	5.77260E-001	3.57630E+000	9	...........
	29	0.4	5.83162E-001	4.01354E-004	0.00000E+000	2.34055E-004	2.40040E-001	5.83367E-001	3.57630E+000	9	...........
	30	0.413333	5.89289E-001	4.00812E-004	0.00000E+000	2.36194E-004	2.40040E-001	5.89508E-001	3.57630E+000	9	...........
	31	0.426667	5.95418E-001	4.00452E-004	0.00000E+000	2.38436E-004	2.40040E-001	5.95636E-001	3.57630E+000	9	...........
	32	0.44	6.01575E-001	3.99924E-004	0.00000E+000	2.40584E-004	2.40040E-001	6.01808E-001	3.57630E+000	9	...........
	33	0.453333	6.07585E-001	4.01089E-004	0.00000E+000	2.43695E-004	2.40040E-001	6.07837E-001	3.57705E+000	9	...........
	34	0.466667	6.13571E-001	4.00242E-004	0.00000E+000	2.45577E-004	2.40040E-001	6.13801E-001	3.57750E+000	9	...........
	35	0.48	6.19547E-001	4.01183E-004	0.00000E+000	2.48551E-004	2.40040E-001	6.19736E-001	3.57750E+000	9	...........
	36	0.493333	6.25544E-001	4.02219E-004	0.00000E+000	2.51606E-004	2.40040E-001	6.25744E-001	3.57750E+000	9	...........
	37	0.506667	6.31429E-001	4.00447E-004	0.00000E+000	2.52854E-004	2.40040E-001	6.31644E-001	3.57750E+000	9	...........
	38	0.52	6.37316E-001	4.01558E-004	0.00000E+000	2.55919E-004	2.40040E-001	6.37542E-001	3.57750E+000	9	...........
	39	0.533333	6.43237E-001	4.01246E-004	0.00000E+000	2.58096E-004	2.40040E-001	6.43443E-001	3.57750E+000	9	...........
	40	0.546667	6.49148E-001	4.00893E-004	0.00000E+000	2.60239E-004	2.40040E-001	6.49379E-001	3.57750E+000	9	...........
	41	0.56	6.54966E-001	4.00444E-004	0.00000E+000	2.62277E-004	2.40040E-001	6.55204E-001	3.57750E+000	9	...........
	42	0.573333	6.60853E-001	4.01799E-004	0.00000E+000	2.65530E-004	2.40040E-001	6.61073E-001	3.57750E+000	9	...........
	43	0.586667	6.66652E-001	4.00665E-004	0.00000E+000	2.67104E-004	2.40040E-001	6.66895E-001	3.57750E+000	9	...........
	44	0.6	6.72420E-001	4.00915E-004	0.00000E+000	2.69583E-004	2.40040E-001	6.72685E-001	3.57750E+000	9	...........
	45	0.613333	6.78210E-001	4.00927E-004	0.00000E+000	2.71913E-004	2.40040E-001	6.78448E-001	3.57750E+000	9	...........
	46	0.626667	6.83993E-001	4.01209E-004	0.00000E+000	2.74424E-004	2.40040E-001	6.84237E-001	3.57750E+000	9	...........
	47	0.64	6.89679E-001	4.01938E-004	0.00000E+000	2.77208E-004	2.40040E-001	6.89955E-001	3.57750E+000	9	...........
	48	0.653333	6.95388E-001	4.00115E-004	0.00000E+000	2.78235E-004	2.40040E-001	6.95645E-001	3.57750E+000	9	...........
	49	0.666667	7.01061E-001	4.01161E-004	0.00000E+000	2.81238E-004	2.40040E-001	7.01320E-001	3.57750E+000	9	...........
	50	0.68	7.06741E-001	4.01930E-004	0.00000E+000	2.84060E-004	2.40040E-001	7.07003E-001	3.57750E+000	9	...........
	51	0.693333	7.12395E-001	3.99773E-004	0.00000E+000	2.84796E-004	2.40040E-001	7.12651E-001	3.57750E+000	9	...........
	52	0.706667	7.18091E-001	4.00489E-004	0.00000E+000	2.87587E-004	2.40040E-001	7.18340E-001	3.57750E+000	9	...........
	53	0.72	7.23744E-001	4.01317E-004	0.00000E+000	2.90451E-004	2.40040E-001	7.23971E-001	3.57750E+000	9	...........
	54	0.733333	7.29295E-001	4.00189E-004	0.00000E+000	2.91855E-004	2.40040E-001	7.29536E-001	3.57750E+000	9	...........
	55	0.746667	7.34848E-001	4.00293E-004	0.00000E+000	2.94154E-004	2.40040E-001	7.35100E-001	3.57750E+000	9	...........
	56	0.76	7.40341E-001	4.01346E-004	0.00000E+000	2.97133E-004	2.40040E-001	7.40594E-001	3.57750E+000	9	...........
	57	0.773333	7.45868E-001	4.01224E-004	0.00000E+000	2.99260E-004	2.40040E-001	7.46113E-001	3.57750E+000	9	...........
	58	0.786667	7.51348E-001	4.00365E-004	0.00000E+000	3.00813E-004	2.40040E-001	7.51602E-001	3.57750E+000	9	...........
	59	0.8	7.56897E-001	4.00726E-004	0.00000E+000	3.03309E-004	2.40040E-001	7.57113E-001	3.57750E+000	9	...........
	60	0.813333	7.62386E-001	4.00535E-004	0.00000E+000	3.05362E-004	2.40040E-001	7.62609E-001	3.57750E+000	9	...........
	61	0.826667	7.67789E-001	4.00074E-004	0.00000E+000	3.07172E-004	2.40040E-001	7.68050E-001	3.57750E+000	9	...........
	62	0.84	7.73166E-001	4.00593E-004	0.00000E+000	3.09725E-004	2.40040E-001	7.73425E-001	3.57750E+000	9	...........
	63	0.853333	7.78494E-001	4.00977E-004	0.00000E+000	3.12159E-004	2.40040E-001	7.78737E-001	3.57750E+000	9	...........
	64	0.866667	7.83806E-001	4.00696E-004	0.00000E+000	3.14068E-004	2.40040E-001	7.84057E-001	3.57750E+000	9	...........
	65	0.88	7.89071E-001	4.01589E-004	0.00000E+000	3.16882E-004	2.40040E-001	7.89347E-001	3.57750E+000	9	...........
	66	0.893333	7.94315E-001	4.00029E-004	0.00000E+000	3.17749E-004	2.40040E-001	7.94581E-001	3.57750E+000	9	...........
	67	0.906667	7.99519E-001	4.02560E-004	0.00000E+000	3.21854E-004	2.40040E-001	7.99775E-001	3.57750E+000	9	...........
	68	0.92	8.04735E-001	4.00575E-004	0.00000E+000	3.22357E-004	2.40040E-001	8.05001E-001	3.57750E+000	9	...........
	69	0.933333	8.09926E-001	4.01104E-004	0.00000E+000	3.24865E-004	2.40040E-001	8.10201E-001	3.57750E+000	9	...........
	70	0.946667	8.15060E-001	4.00869E-004	0.00000E+000	3.26732E-004	2.40040E-001	8.15346E-001	3.57750E+000	9	...........
	71	0.96	8.20182E-001	4.01637E-004	0.00000E+000	3.29415E-004	2.40040E-001	8.20461E-001	3.57750E+000	9	...........
	72	0.97333	8.25218E-001	4.01668E-004	0.00000E+000	3.31464E-004	2.40040E-001	8.25468E-001	3.57750E+000	9	...........
	73	0.98667	8.30288E-001	3.99865E-004	0.00000E+000	3.32003E-004	2.40040E-001	8.30511E-001	3.57750E+000	9	...........
	74	1	8.35251E-001	4.00809E-004	0.00000E+000	3.34776E-004	2.40040E-001	8.35528E-001	3.57750E+000	9	...........
	75	1.01333	8.40158E-001	4.00737E-004	0.00000E+000	3.36682E-004	2.40040E-001	8.40417E-001	3.57750E+000	9	...........
	76	1.02667	8.45120E-001	4.01518E-004	0.00000E+000	3.39331E-004	2.40040E-001	8.45383E-001	3.57750E+000	9	...........
	77	1.04	8.50032E-001	4.00069E-004	0.00000E+000	3.40071E-004	2.40040E-001	8.50274E-001	3.57750E+000	9	...........
	78	1.05333	8.54950E-001	3.99888E-004	0.00000E+000	3.41884E-004	2.40040E-001	8.55204E-001	3.57750E+000	9	...........
	79	1.06667	8.59842E-001	4.00633E-004	0.00000E+000	3.44481E-004	2.40040E-001	8.60102E-001	3.57750E+000	9	...........
	80	1.08	8.64621E-001	4.01230E-004	0.00000E+000	3.46912E-004	2.40040E-001	8.64893E-001	3.57750E+000	9	...........
	81	1.09333	8.69475E-001	4.01381E-004	0.00000E+000	3.48990E-004	2.40040E-001	8.69753E-001	3.57750E+000	9	...........
	82	1.10667	8.74207E-001	4.00435E-004	0.00000E+000	3.50063E-004	2.40040E-001	8.74476E-001	3.57750E+000	9	...........
	83	1.12	8.78869E-001	4.00041E-004	0.00000E+000	3.51583E-004	2.40040E-001	8.79118E-001	3.57750E+000	9	...........
	84	1.13333	8.83518E-001	4.00573E-004	0.00000E+000	3.53914E-004	2.40040E-001	8.83794E-001	3.57750E+000	9	...........
	85	1.14667	8.88137E-001	4.00757E-004	0.00000E+000	3.55928E-004	2.40040E-001	8.88406E-001	3.57750E+000	9	...........
	86	1.16	8.92748E-001	4.00669E-004	0.00000E+000	3.57696E-004	2.40040E-001	8.93020E-001	3.57750E+000	9	...........
	87	1.17333	8.97323E-001	4.01326E-004	0.00000E+000	3.60119E-004	2.40040E-001	8.97629E-001	3.57750E+000	9	...........
	88	1.18667	9.01835E-001	4.01120E-004	0.00000E+000	3.61744E-004	2.40040E-001	9.02142E-001	3.57750E+000	9	...........
	89	1.2	9.06259E-001	4.01578E-004	0.00000E+000	3.63934E-004	2.40040E-001	9.06610E-001	3.57750E+000	9	...........
	90	1.21333	9.10769E-001	4.01232E-004	0.00000E+000	3.65429E-004	2.40040E-001	9.11063E-001	3.57750E+000	9	...........
	91	1.22667	9.15151E-001	4.01148E-004	0.00000E+000	3.67111E-004	2.40040E-001	9.15452E-001	3.57750E+000	9	...........
	92	1.24	9.19509E-001	3.99884E-004	0.00000E+000	3.67697E-004	2.40040E-001	9.19802E-001	3.57750E+000	9	...........
	93	1.25333	9.23867E-001	4.02483E-004	0.00000E+000	3.71840E-004	2.40040E-001	9.24118E-001	3.57750E+000	9	...........
	94	1.26667	9.28136E-001	4.01956E-004	0.00000E+000	3.73069E-004	2.40040E-001	9.28408E-001	3.57750E+000	9	...........
	95	1.28	9.32431E-001	4.00115E-004	0.00000E+000	3.73079E-004	2.40040E-001	9.32684E-001	3.57750E+000	9	...........
	96	1.29333	9.36580E-001	4.01112E-004	0.00000E+000	3.75673E-004	2.40040E-001	9.36870E-001	3.57750E+000	9	...........
	97	1.30667	9.40700E-001	4.01083E-004	0.00000E+000	3.77298E-004	2.40040E-001	9.41008E-001	3.57750E+000	9	...........
	98	1.32	9.44823E-001	4.01486E-004	0.00000E+000	3.79333E-004	2.40040E-001	9.45133E-001	3.57750E+000	9	...........
	99	1.33333	9.48948E-001	4.01323E-004	0.00000E+000	3.80835E-004	2.40040E-001	9.49233E-001	3.57750E+000	9	...........
	100	1.34667	9.53029E-001	4.01700E-004	0.00000E+000	3.82832E-004	2.40040E-001	9.53320E-001	3.57750E+000	9	...........
	101	1.36	9.57003E-001	4.01387E-004	0.00000E+000	3.84128E-004	2.40040E-001	9.57300E-001	3.57750E+000	9	...........
	102	1.37333	9.60974E-001	4.01530E-004	0.00000E+000	3.85859E-004	2.40040E-001	9.61283E-001	3.57750E+000	9	...........
	103	1.38667	9.64906E-001	4.01127E-004	0.00000E+000	3.87050E-004	2.40040E-001	9.65230E-001	3.57750E+000	9	...........
	104	1.4	9.68843E-001	4.01887E-004	0.00000E+000	3.89365E-004	2.40040E-001	9.69184E-001	3.57750E+000	9	...........
	105	1.41333	9.72792E-001	4.01534E-004	0.00000E+000	3.90609E-004	2.40040E-001	9.73119E-001	3.57750E+000	9	...........
	106	1.42667	9.76642E-001	4.01271E-004	0.00000E+000	3.91898E-004	2.40040E-001	9.76985E-001	3.57750E+000	9	...........
	107	1.44	9.80336E-001	4.00185E-004	0.00000E+000	3.92316E-004	2.40040E-001	9.80679E-001	3.57750E+000	9	...........
	108	1.45333	9.84054E-001	4.00765E-004	0.00000E+000	3.94374E-004	2.40040E-001	9.84421E-001	3.57731E+000	9	...........
	109	1.46667	9.87765E-001	4.02050E-004	0.00000E+000	3.97131E-004	2.40040E-001	9.88115E-001	3.57720E+000	9	...........
	110	1.48	9.91422E-001	4.00494E-004	0.00000E+000	3.97058E-004	2.40040E-001	9.91774E-001	3.57720E+000	9	...........
	111	1.49333	9.95008E-001	3.99684E-004	0.00000E+000	3.97689E-004	2.40040E-001	9.95340E-001	3.57720E+000	9	...........
	112	1.50667	9.98584E-001	3.99876E-004	0.00000E+000	3.99310E-004	2.40040E-001	9.98935E-001	3.57720E+000	9	...........
STARTTIMEOFFSET	QUANT	1984.481	Start Time Offset (s)
