EXPLAIN
TAG	PWR800_CHARGE
TITLE	LABEL	PWR Cyclic Charge Discharge (Cell) - Charge Step	Test &Identifier
DATE	LABEL	12-7-2017	Date
TIME	LABEL	14:45:03	Time
NOTES	NOTES	3	&Notes...
	supercap test cell
	0.4mg
	6M KOH
PSTAT	PSTAT	IFC5000-01520	Potentiostat
CAPACITY	QUANT	1.00000E-003	Capacity (A-hr)
CELLTYPE	SELECTOR	1	&Cell Type
WORKINGCONNECTION	SELECTOR	0	&Working Lead
MAXCHARGETIME	VARIABLEANDUNITS	1.00000E+002	s	1.00000E+002	second(s)	Max &Charge Time
CHARGECURRENT	QUANT	4.00000E-004	&Charge Current (A) 
VOLTAGEFINISH	TWOPARAM	F	1.00000E-003	3.60000E+003	&Voltage Finish	 I (A) < 	Max Time(s)
SAMPLETIME	QUANT	1.00000E-002	Sa&mple Period (s)
CHARGESTOPAT1	MULTIPARAM	4	1.00000E+000	Charge Stop At &1	Voltage > Limit	V
CHARGESTOPAT2	MULTIPARAM	0	0.00000E+000	Charge Stop At &2	None	N/A
AESBHCSELECTOR	TOGGLE	F	Save Both Half Cells
IRCOMP	TOGGLE	F	IR &Measure
EOC	QUANT	0	Open Circuit (V)
SEQUENCER	TOGGLE	TRUE	Run as Sequence
PSTATMODEL	IQUANT	53	Pstat Model
PSTATSECTION	LABEL	IFC5000-01520	Pstat Section
PSTATSERIALNO	LABEL	01520	Pstat Serial Number
CTRLMODE	IQUANT	0	Control Mode
ELECTROMETER	IQUANT	1	RE=0 or CS=1
IESTAB	IQUANT	0	I/E Stability
CASPEED	IQUANT	4	Control Amp Speed
CONVENTION	IQUANT	1	Current Convention
ICHRANGE	IQUANT	2	Ich Range
ICHRANGEMODE	TOGGLE	T	Ich Auto Range
ICHOFFSETENABLE	TOGGLE	F	Ich Offset Enable
ICHOFFSET	QUANT	0	Ich Offset (V)
ICHFILTER	IQUANT	1	Ich Filter
VCHRANGE	IQUANT	2	Vch Range
VCHRANGEMODE	TOGGLE	T	Vch Auto Range
VCHOFFSETENABLE	TOGGLE	F	Vch Offset Enable
VCHOFFSET	QUANT	0	Vch Offset (V)
VCHFILTER	IQUANT	1	Vch Filter
IERANGELOWERLIMIT	IQUANT	9	I/E Range Lower Limit
IERANGEMODE	TOGGLE	F	I/E AutoRange
IERANGE	IQUANT	9	I/E Range
ACHSELECT	IQUANT	1	Ach Select
ACHRANGE	IQUANT	2	Ach Range
ACHOFFSETENABLE	TOGGLE	F	Ach Offset Enable
ACHOFFSET	QUANT	0	Ach Offset (V)
ACHFILTER	IQUANT	1	Ach Filter
CABLEID	IQUANT	14	Cable ID
DCCALDATE	LABEL	5-7-2017	DC Calibration Date
ACCALDATE	LABEL	12/3/2015	AC Calibration Date
FRAMEWORKVERSION	QUANT	7.01	Framework Version
INSTRUMENTVERSION	LABEL	4.00	Instrument Version
CURVE	TABLE	121
	Pt	T	Vf	Im	Vu	Pwr	Sig	Ach	Temp	IERange	Over
	#	s	V	A	V	W	V	V	deg C	#	bits
	0	0.013333	3.59147E-001	4.00401E-004	0.00000E+000	1.43803E-004	2.40040E-001	3.59238E-001	3.57620E+000	9	...........
	1	0.026667	3.70438E-001	4.00646E-004	0.00000E+000	1.48414E-004	2.40040E-001	3.70509E-001	3.57620E+000	9	...........
	2	0.04	3.80097E-001	4.00760E-004	0.00000E+000	1.52327E-004	2.40040E-001	3.80172E-001	3.57620E+000	9	...........
	3	0.053333	3.88962E-001	3.99468E-004	0.00000E+000	1.55378E-004	2.40040E-001	3.89040E-001	3.57620E+000	9	...........
	4	0.066667	3.97235E-001	4.01370E-004	0.00000E+000	1.59438E-004	2.40040E-001	3.97319E-001	3.57620E+000	9	...........
	5	0.08	4.05069E-001	4.00709E-004	0.00000E+000	1.62314E-004	2.40040E-001	4.05146E-001	3.57620E+000	9	...........
	6	0.093333	4.12673E-001	4.01574E-004	0.00000E+000	1.65719E-004	2.40040E-001	4.12758E-001	3.57620E+000	9	...........
	7	0.106667	4.19997E-001	4.00615E-004	0.00000E+000	1.68257E-004	2.40040E-001	4.20083E-001	3.57620E+000	9	...........
	8	0.12	4.27143E-001	4.02104E-004	0.00000E+000	1.71756E-004	2.40040E-001	4.27234E-001	3.57620E+000	9	...........
	9	0.133333	4.34143E-001	3.99467E-004	0.00000E+000	1.73426E-004	2.40040E-001	4.34233E-001	3.57620E+000	9	...........
	10	0.146667	4.41028E-001	4.00253E-004	0.00000E+000	1.76523E-004	2.40040E-001	4.41115E-001	3.57620E+000	9	...........
	11	0.16	4.47778E-001	4.00002E-004	0.00000E+000	1.79112E-004	2.40040E-001	4.47869E-001	3.57620E+000	9	...........
	12	0.173333	4.54519E-001	4.00985E-004	0.00000E+000	1.82255E-004	2.40040E-001	4.54612E-001	3.57620E+000	9	...........
	13	0.186667	4.61139E-001	4.01386E-004	0.00000E+000	1.85095E-004	2.40040E-001	4.61231E-001	3.57620E+000	9	...........
	14	0.2	4.67634E-001	4.00652E-004	0.00000E+000	1.87359E-004	2.40040E-001	4.67734E-001	3.57620E+000	9	...........
	15	0.213333	4.74035E-001	4.00052E-004	0.00000E+000	1.89639E-004	2.40040E-001	4.74124E-001	3.57620E+000	9	...........
	16	0.226667	4.80452E-001	4.00498E-004	0.00000E+000	1.92420E-004	2.40040E-001	4.80547E-001	3.57620E+000	9	...........
	17	0.24	4.86707E-001	4.01711E-004	0.00000E+000	1.95515E-004	2.40040E-001	4.86803E-001	3.57620E+000	9	...........
	18	0.253333	4.92939E-001	4.00466E-004	0.00000E+000	1.97405E-004	2.40040E-001	4.93038E-001	3.57660E+000	9	...........
	19	0.266667	4.99199E-001	4.00633E-004	0.00000E+000	1.99996E-004	2.40040E-001	4.99303E-001	3.57700E+000	9	...........
	20	0.28	5.05312E-001	4.01826E-004	0.00000E+000	2.03048E-004	2.40040E-001	5.05415E-001	3.57700E+000	9	...........
	21	0.293333	5.11407E-001	4.00092E-004	0.00000E+000	2.04610E-004	2.40040E-001	5.11509E-001	3.57700E+000	9	...........
	22	0.306667	5.17495E-001	4.00106E-004	0.00000E+000	2.07053E-004	2.40040E-001	5.17598E-001	3.57700E+000	9	...........
	23	0.32	5.23538E-001	4.00799E-004	0.00000E+000	2.09833E-004	2.40040E-001	5.23649E-001	3.57700E+000	9	...........
	24	0.333333	5.29530E-001	4.01125E-004	0.00000E+000	2.12408E-004	2.40040E-001	5.29641E-001	3.57700E+000	9	...........
	25	0.346667	5.35345E-001	4.00189E-004	0.00000E+000	2.14239E-004	2.40040E-001	5.35506E-001	3.57700E+000	9	...........
	26	0.36	5.41234E-001	4.02239E-004	0.00000E+000	2.17705E-004	2.40040E-001	5.41476E-001	3.57700E+000	9	...........
	27	0.373333	5.47176E-001	4.01379E-004	0.00000E+000	2.19625E-004	2.40040E-001	5.47405E-001	3.57700E+000	9	...........
	28	0.386667	5.53096E-001	4.01091E-004	0.00000E+000	2.21842E-004	2.40040E-001	5.53312E-001	3.57700E+000	9	...........
	29	0.4	5.58850E-001	4.01331E-004	0.00000E+000	2.24284E-004	2.40040E-001	5.59109E-001	3.57700E+000	9	...........
	30	0.413333	5.64715E-001	3.99510E-004	0.00000E+000	2.25610E-004	2.40040E-001	5.64954E-001	3.57700E+000	9	...........
	31	0.426667	5.70547E-001	4.00334E-004	0.00000E+000	2.28410E-004	2.40040E-001	5.70762E-001	3.57700E+000	9	...........
	32	0.44	5.76308E-001	4.00387E-004	0.00000E+000	2.30746E-004	2.40040E-001	5.76528E-001	3.57700E+000	9	...........
	33	0.453333	5.82039E-001	3.99585E-004	0.00000E+000	2.32574E-004	2.40040E-001	5.82263E-001	3.57700E+000	9	...........
	34	0.466667	5.87864E-001	4.01164E-004	0.00000E+000	2.35830E-004	2.40040E-001	5.88105E-001	3.57700E+000	9	...........
	35	0.48	5.93607E-001	4.01196E-004	0.00000E+000	2.38153E-004	2.40040E-001	5.93866E-001	3.57700E+000	9	...........
	36	0.493333	5.99292E-001	4.01276E-004	0.00000E+000	2.40482E-004	2.40040E-001	5.99523E-001	3.57700E+000	9	...........
	37	0.506667	6.04996E-001	4.02412E-004	0.00000E+000	2.43458E-004	2.40040E-001	6.05252E-001	3.57700E+000	9	...........
	38	0.52	6.10728E-001	4.00647E-004	0.00000E+000	2.44686E-004	2.40040E-001	6.10986E-001	3.57700E+000	9	...........
	39	0.533333	6.16381E-001	4.01552E-004	0.00000E+000	2.47509E-004	2.40040E-001	6.16608E-001	3.57700E+000	9	...........
	40	0.546667	6.22026E-001	4.01878E-004	0.00000E+000	2.49978E-004	2.40040E-001	6.22251E-001	3.57700E+000	9	...........
	41	0.56	6.27625E-001	4.00954E-004	0.00000E+000	2.51649E-004	2.40040E-001	6.27854E-001	3.57700E+000	9	...........
	42	0.573333	6.33173E-001	4.01250E-004	0.00000E+000	2.54061E-004	2.40040E-001	6.33428E-001	3.57700E+000	9	...........
	43	0.586667	6.38779E-001	3.99919E-004	0.00000E+000	2.55460E-004	2.40040E-001	6.39019E-001	3.57700E+000	9	...........
	44	0.6	6.44315E-001	4.01261E-004	0.00000E+000	2.58538E-004	2.40040E-001	6.44557E-001	3.57700E+000	9	...........
	45	0.613333	6.49843E-001	4.01236E-004	0.00000E+000	2.60740E-004	2.40040E-001	6.50071E-001	3.57700E+000	9	...........
	46	0.626667	6.55420E-001	4.01356E-004	0.00000E+000	2.63056E-004	2.40040E-001	6.55644E-001	3.57700E+000	9	...........
	47	0.64	6.60999E-001	4.00522E-004	0.00000E+000	2.64745E-004	2.40040E-001	6.61243E-001	3.57700E+000	9	...........
	48	0.653333	6.66528E-001	4.00718E-004	0.00000E+000	2.67090E-004	2.40040E-001	6.66767E-001	3.57700E+000	9	...........
	49	0.666667	6.72010E-001	3.99375E-004	0.00000E+000	2.68384E-004	2.40040E-001	6.72220E-001	3.57700E+000	9	...........
	50	0.68	6.77428E-001	4.01038E-004	0.00000E+000	2.71674E-004	2.40040E-001	6.77672E-001	3.57700E+000	9	...........
	51	0.693333	6.82849E-001	4.00499E-004	0.00000E+000	2.73480E-004	2.40040E-001	6.83097E-001	3.57700E+000	9	...........
	52	0.706667	6.88281E-001	4.00497E-004	0.00000E+000	2.75654E-004	2.40040E-001	6.88507E-001	3.57700E+000	9	...........
	53	0.72	6.93724E-001	4.01203E-004	0.00000E+000	2.78324E-004	2.40040E-001	6.93952E-001	3.57700E+000	9	...........
	54	0.733333	6.99200E-001	4.00779E-004	0.00000E+000	2.80225E-004	2.40040E-001	6.99428E-001	3.57700E+000	9	...........
	55	0.746667	7.04572E-001	4.00784E-004	0.00000E+000	2.82381E-004	2.40040E-001	7.04818E-001	3.57700E+000	9	...........
	56	0.76	7.10019E-001	4.00815E-004	0.00000E+000	2.84586E-004	2.40040E-001	7.10264E-001	3.57700E+000	9	...........
	57	0.773333	7.15382E-001	4.02160E-004	0.00000E+000	2.87698E-004	2.40040E-001	7.15618E-001	3.57700E+000	9	...........
	58	0.786667	7.20762E-001	4.00939E-004	0.00000E+000	2.88981E-004	2.40040E-001	7.20959E-001	3.57700E+000	9	...........
	59	0.8	7.26104E-001	4.00069E-004	0.00000E+000	2.90491E-004	2.40040E-001	7.26261E-001	3.57700E+000	9	...........
	60	0.813333	7.31369E-001	4.01098E-004	0.00000E+000	2.93351E-004	2.40040E-001	7.31549E-001	3.57700E+000	9	...........
	61	0.826667	7.36606E-001	3.99950E-004	0.00000E+000	2.94606E-004	2.40040E-001	7.36789E-001	3.57700E+000	9	...........
	62	0.84	7.41878E-001	4.01642E-004	0.00000E+000	2.97969E-004	2.40040E-001	7.42074E-001	3.57700E+000	9	...........
	63	0.853333	7.47123E-001	4.01157E-004	0.00000E+000	2.99713E-004	2.40040E-001	7.47343E-001	3.57700E+000	9	...........
	64	0.866667	7.52406E-001	4.00237E-004	0.00000E+000	3.01140E-004	2.40040E-001	7.52639E-001	3.57700E+000	9	...........
	65	0.88	7.57631E-001	3.99994E-004	0.00000E+000	3.03048E-004	2.40040E-001	7.57856E-001	3.57700E+000	9	...........
	66	0.893333	7.62767E-001	4.00363E-004	0.00000E+000	3.05383E-004	2.40040E-001	7.62999E-001	3.57700E+000	9	...........
	67	0.906667	7.67895E-001	4.00405E-004	0.00000E+000	3.07469E-004	2.40040E-001	7.68152E-001	3.57700E+000	9	...........
	68	0.92	7.73023E-001	4.00888E-004	0.00000E+000	3.09896E-004	2.40040E-001	7.73262E-001	3.57700E+000	9	...........
	69	0.933333	7.78148E-001	4.02019E-004	0.00000E+000	3.12830E-004	2.40040E-001	7.78370E-001	3.57700E+000	9	...........
	70	0.946667	7.83208E-001	4.01354E-004	0.00000E+000	3.14344E-004	2.40040E-001	7.83432E-001	3.57700E+000	9	...........
	71	0.96	7.88240E-001	4.00819E-004	0.00000E+000	3.15942E-004	2.40040E-001	7.88477E-001	3.57700E+000	9	...........
	72	0.97333	7.93285E-001	4.02011E-004	0.00000E+000	3.18909E-004	2.40040E-001	7.93526E-001	3.57700E+000	9	...........
	73	0.98667	7.98337E-001	4.00594E-004	0.00000E+000	3.19809E-004	2.40040E-001	7.98550E-001	3.57700E+000	9	...........
	74	1	8.03301E-001	3.99927E-004	0.00000E+000	3.21262E-004	2.40040E-001	8.03541E-001	3.57700E+000	9	...........
	75	1.01333	8.08249E-001	4.00279E-004	0.00000E+000	3.23525E-004	2.40040E-001	8.08521E-001	3.57700E+000	9	...........
	76	1.02667	8.13230E-001	4.00289E-004	0.00000E+000	3.25527E-004	2.40040E-001	8.13517E-001	3.57700E+000	9	...........
	77	1.04	8.18149E-001	4.01111E-004	0.00000E+000	3.28168E-004	2.40040E-001	8.18435E-001	3.57700E+000	9	...........
	78	1.05333	8.23061E-001	4.01015E-004	0.00000E+000	3.30059E-004	2.40040E-001	8.23367E-001	3.57700E+000	9	...........
	79	1.06667	8.27947E-001	4.01403E-004	0.00000E+000	3.32341E-004	2.40040E-001	8.28235E-001	3.57700E+000	9	...........
	80	1.08	8.32792E-001	4.01272E-004	0.00000E+000	3.34176E-004	2.40040E-001	8.33102E-001	3.57700E+000	9	...........
	81	1.09333	8.37611E-001	4.00144E-004	0.00000E+000	3.35165E-004	2.40040E-001	8.37910E-001	3.57700E+000	9	...........
	82	1.10667	8.42362E-001	4.01372E-004	0.00000E+000	3.38101E-004	2.40040E-001	8.42651E-001	3.57700E+000	9	...........
	83	1.12	8.47111E-001	3.99787E-004	0.00000E+000	3.38664E-004	2.40040E-001	8.47398E-001	3.57700E+000	9	...........
	84	1.13333	8.51849E-001	4.02050E-004	0.00000E+000	3.42486E-004	2.40040E-001	8.52128E-001	3.57700E+000	9	...........
	85	1.14667	8.56528E-001	4.00894E-004	0.00000E+000	3.43377E-004	2.40040E-001	8.56826E-001	3.57700E+000	9	...........
	86	1.16	8.61206E-001	4.00915E-004	0.00000E+000	3.45270E-004	2.40040E-001	8.61498E-001	3.57700E+000	9	...........
	87	1.17333	8.65761E-001	4.00572E-004	0.00000E+000	3.46800E-004	2.40040E-001	8.66053E-001	3.57700E+000	9	...........
	88	1.18667	8.70387E-001	4.01056E-004	0.00000E+000	3.49074E-004	2.40040E-001	8.70643E-001	3.57700E+000	9	...........
	89	1.2	8.74976E-001	4.01708E-004	0.00000E+000	3.51485E-004	2.40040E-001	8.75272E-001	3.57700E+000	9	...........
	90	1.21333	8.79520E-001	4.00124E-004	0.00000E+000	3.51917E-004	2.40040E-001	8.79773E-001	3.57700E+000	9	...........
	91	1.22667	8.84006E-001	3.99640E-004	0.00000E+000	3.53284E-004	2.40040E-001	8.84297E-001	3.57700E+000	9	...........
	92	1.24	8.88465E-001	4.01210E-004	0.00000E+000	3.56461E-004	2.40040E-001	8.88745E-001	3.57700E+000	9	...........
	93	1.25333	8.92914E-001	4.01086E-004	0.00000E+000	3.58135E-004	2.40040E-001	8.93204E-001	3.57680E+000	9	...........
	94	1.26667	8.97323E-001	4.00815E-004	0.00000E+000	3.59660E-004	2.40040E-001	8.97632E-001	3.57660E+000	9	...........
	95	1.28	9.01626E-001	4.00710E-004	0.00000E+000	3.61290E-004	2.40040E-001	9.01930E-001	3.57660E+000	9	...........
	96	1.29333	9.05960E-001	4.02064E-004	0.00000E+000	3.64254E-004	2.40040E-001	9.06257E-001	3.57660E+000	9	...........
	97	1.30667	9.10358E-001	4.01193E-004	0.00000E+000	3.65229E-004	2.40040E-001	9.10618E-001	3.57660E+000	9	...........
	98	1.32	9.14604E-001	4.02365E-004	0.00000E+000	3.68005E-004	2.40040E-001	9.14918E-001	3.57660E+000	9	...........
	99	1.33333	9.18797E-001	4.01248E-004	0.00000E+000	3.68666E-004	2.40040E-001	9.19079E-001	3.57660E+000	9	...........
	100	1.34667	9.23000E-001	4.01848E-004	0.00000E+000	3.70906E-004	2.40040E-001	9.23252E-001	3.57660E+000	9	...........
	101	1.36	9.27144E-001	4.00224E-004	0.00000E+000	3.71065E-004	2.40040E-001	9.27399E-001	3.57660E+000	9	...........
	102	1.37333	9.31238E-001	4.01168E-004	0.00000E+000	3.73583E-004	2.40040E-001	9.31512E-001	3.57660E+000	9	...........
	103	1.38667	9.35343E-001	4.01941E-004	0.00000E+000	3.75953E-004	2.40040E-001	9.35619E-001	3.57660E+000	9	...........
	104	1.4	9.39414E-001	4.00942E-004	0.00000E+000	3.76650E-004	2.40040E-001	9.39698E-001	3.57660E+000	9	...........
	105	1.41333	9.43368E-001	4.00487E-004	0.00000E+000	3.77806E-004	2.40040E-001	9.43644E-001	3.57660E+000	9	...........
	106	1.42667	9.47323E-001	4.00284E-004	0.00000E+000	3.79199E-004	2.40040E-001	9.47623E-001	3.57660E+000	9	...........
	107	1.44	9.51334E-001	4.01345E-004	0.00000E+000	3.81813E-004	2.40040E-001	9.51624E-001	3.57660E+000	9	...........
	108	1.45333	9.55211E-001	3.99797E-004	0.00000E+000	3.81890E-004	2.40040E-001	9.55506E-001	3.57660E+000	9	...........
	109	1.46667	9.59050E-001	4.00426E-004	0.00000E+000	3.84029E-004	2.40040E-001	9.59369E-001	3.57660E+000	9	...........
	110	1.48	9.62882E-001	4.00577E-004	0.00000E+000	3.85709E-004	2.40040E-001	9.63233E-001	3.57660E+000	9	...........
	111	1.49333	9.66682E-001	4.01478E-004	0.00000E+000	3.88102E-004	2.40040E-001	9.67005E-001	3.57660E+000	9	...........
	112	1.50667	9.70430E-001	4.00702E-004	0.00000E+000	3.88854E-004	2.40040E-001	9.70801E-001	3.57660E+000	9	...........
	113	1.52	9.74186E-001	4.01282E-004	0.00000E+000	3.90923E-004	2.40040E-001	9.74528E-001	3.57660E+000	9	...........
	114	1.53333	9.77857E-001	4.00426E-004	0.00000E+000	3.91559E-004	2.40040E-001	9.78165E-001	3.57660E+000	9	...........
	115	1.54667	9.81465E-001	4.01103E-004	0.00000E+000	3.93669E-004	2.40040E-001	9.81799E-001	3.57660E+000	9	...........
	116	1.56	9.85061E-001	4.02534E-004	0.00000E+000	3.96520E-004	2.40040E-001	9.85409E-001	3.57660E+000	9	...........
	117	1.57333	9.88598E-001	4.00637E-004	0.00000E+000	3.96069E-004	2.40040E-001	9.88934E-001	3.57660E+000	9	...........
	118	1.58667	9.92132E-001	4.00109E-004	0.00000E+000	3.96961E-004	2.40040E-001	9.92475E-001	3.57660E+000	9	...........
	119	1.6	9.95613E-001	4.00176E-004	0.00000E+000	3.98421E-004	2.40040E-001	9.95939E-001	3.57660E+000	9	...........
	120	1.61167	9.98858E-001	4.00688E-004	0.00000E+000	4.00231E-004	2.40040E-001	9.99220E-001	3.57660E+000	9	...........
STARTTIMEOFFSET	QUANT	1267.385	Start Time Offset (s)
