EXPLAIN
TAG	PWR800_CHARGE
TITLE	LABEL	PWR Cyclic Charge Discharge (Cell) - Charge Step	Test &Identifier
DATE	LABEL	12-7-2017	Date
TIME	LABEL	14:47:10	Time
NOTES	NOTES	3	&Notes...
	supercap test cell
	0.4mg
	6M KOH
PSTAT	PSTAT	IFC5000-01520	Potentiostat
CAPACITY	QUANT	1.00000E-003	Capacity (A-hr)
CELLTYPE	SELECTOR	1	&Cell Type
WORKINGCONNECTION	SELECTOR	0	&Working Lead
MAXCHARGETIME	VARIABLEANDUNITS	1.00000E+002	s	1.00000E+002	second(s)	Max &Charge Time
CHARGECURRENT	QUANT	4.00000E-004	&Charge Current (A) 
VOLTAGEFINISH	TWOPARAM	F	1.00000E-003	3.60000E+003	&Voltage Finish	 I (A) < 	Max Time(s)
SAMPLETIME	QUANT	1.00000E-002	Sa&mple Period (s)
CHARGESTOPAT1	MULTIPARAM	4	1.00000E+000	Charge Stop At &1	Voltage > Limit	V
CHARGESTOPAT2	MULTIPARAM	0	0.00000E+000	Charge Stop At &2	None	N/A
AESBHCSELECTOR	TOGGLE	F	Save Both Half Cells
IRCOMP	TOGGLE	F	IR &Measure
EOC	QUANT	0	Open Circuit (V)
SEQUENCER	TOGGLE	TRUE	Run as Sequence
PSTATMODEL	IQUANT	53	Pstat Model
PSTATSECTION	LABEL	IFC5000-01520	Pstat Section
PSTATSERIALNO	LABEL	01520	Pstat Serial Number
CTRLMODE	IQUANT	0	Control Mode
ELECTROMETER	IQUANT	1	RE=0 or CS=1
IESTAB	IQUANT	0	I/E Stability
CASPEED	IQUANT	4	Control Amp Speed
CONVENTION	IQUANT	1	Current Convention
ICHRANGE	IQUANT	2	Ich Range
ICHRANGEMODE	TOGGLE	T	Ich Auto Range
ICHOFFSETENABLE	TOGGLE	F	Ich Offset Enable
ICHOFFSET	QUANT	0	Ich Offset (V)
ICHFILTER	IQUANT	1	Ich Filter
VCHRANGE	IQUANT	2	Vch Range
VCHRANGEMODE	TOGGLE	T	Vch Auto Range
VCHOFFSETENABLE	TOGGLE	F	Vch Offset Enable
VCHOFFSET	QUANT	0	Vch Offset (V)
VCHFILTER	IQUANT	1	Vch Filter
IERANGELOWERLIMIT	IQUANT	9	I/E Range Lower Limit
IERANGEMODE	TOGGLE	F	I/E AutoRange
IERANGE	IQUANT	9	I/E Range
ACHSELECT	IQUANT	1	Ach Select
ACHRANGE	IQUANT	2	Ach Range
ACHOFFSETENABLE	TOGGLE	F	Ach Offset Enable
ACHOFFSET	QUANT	0	Ach Offset (V)
ACHFILTER	IQUANT	1	Ach Filter
CABLEID	IQUANT	14	Cable ID
DCCALDATE	LABEL	5-7-2017	DC Calibration Date
ACCALDATE	LABEL	12/3/2015	AC Calibration Date
FRAMEWORKVERSION	QUANT	7.01	Framework Version
INSTRUMENTVERSION	LABEL	4.00	Instrument Version
CURVE	TABLE	120
	Pt	T	Vf	Im	Vu	Pwr	Sig	Ach	Temp	IERange	Over
	#	s	V	A	V	W	V	V	deg C	#	bits
	0	0.013333	3.61717E-001	4.00369E-004	0.00000E+000	1.44820E-004	2.40040E-001	3.61808E-001	3.57620E+000	9	...........
	1	0.026667	3.73037E-001	4.01002E-004	0.00000E+000	1.49589E-004	2.40040E-001	3.73103E-001	3.57620E+000	9	...........
	2	0.04	3.82870E-001	4.01601E-004	0.00000E+000	1.53761E-004	2.40040E-001	3.82939E-001	3.57620E+000	9	...........
	3	0.053333	3.91810E-001	4.01054E-004	0.00000E+000	1.57137E-004	2.40040E-001	3.91882E-001	3.57620E+000	9	...........
	4	0.066667	4.00144E-001	4.00110E-004	0.00000E+000	1.60102E-004	2.40040E-001	4.00224E-001	3.57620E+000	9	...........
	5	0.08	4.08047E-001	4.02341E-004	0.00000E+000	1.64174E-004	2.40040E-001	4.08124E-001	3.57627E+000	9	...........
	6	0.093333	4.15626E-001	4.00456E-004	0.00000E+000	1.66440E-004	2.40040E-001	4.15707E-001	3.57650E+000	9	...........
	7	0.106667	4.23047E-001	4.00745E-004	0.00000E+000	1.69534E-004	2.40040E-001	4.23133E-001	3.57650E+000	9	...........
	8	0.12	4.30341E-001	4.01541E-004	0.00000E+000	1.72800E-004	2.40040E-001	4.30426E-001	3.57650E+000	9	...........
	9	0.133333	4.37374E-001	4.01319E-004	0.00000E+000	1.75527E-004	2.40040E-001	4.37462E-001	3.57650E+000	9	...........
	10	0.146667	4.44308E-001	4.00987E-004	0.00000E+000	1.78162E-004	2.40040E-001	4.44396E-001	3.57650E+000	9	...........
	11	0.16	4.51074E-001	4.01756E-004	0.00000E+000	1.81222E-004	2.40040E-001	4.51161E-001	3.57650E+000	9	...........
	12	0.173333	4.57924E-001	4.01134E-004	0.00000E+000	1.83689E-004	2.40040E-001	4.58014E-001	3.57650E+000	9	...........
	13	0.186667	4.64512E-001	4.01445E-004	0.00000E+000	1.86476E-004	2.40040E-001	4.64600E-001	3.57650E+000	9	...........
	14	0.2	4.71002E-001	4.01463E-004	0.00000E+000	1.89090E-004	2.40040E-001	4.71094E-001	3.57650E+000	9	...........
	15	0.213333	4.77493E-001	4.00890E-004	0.00000E+000	1.91422E-004	2.40040E-001	4.77588E-001	3.57650E+000	9	...........
	16	0.226667	4.83905E-001	4.00752E-004	0.00000E+000	1.93926E-004	2.40040E-001	4.84002E-001	3.57650E+000	9	...........
	17	0.24	4.90307E-001	4.00592E-004	0.00000E+000	1.96413E-004	2.40040E-001	4.90406E-001	3.57650E+000	9	...........
	18	0.253333	4.96651E-001	4.01175E-004	0.00000E+000	1.99244E-004	2.40040E-001	4.96754E-001	3.57650E+000	9	...........
	19	0.266667	5.02846E-001	4.01983E-004	0.00000E+000	2.02136E-004	2.40040E-001	5.02943E-001	3.57650E+000	9	...........
	20	0.28	5.09087E-001	4.01951E-004	0.00000E+000	2.04628E-004	2.40040E-001	5.09196E-001	3.57650E+000	9	...........
	21	0.293333	5.15275E-001	3.99703E-004	0.00000E+000	2.05957E-004	2.40040E-001	5.15381E-001	3.57650E+000	9	...........
	22	0.306667	5.21348E-001	4.01500E-004	0.00000E+000	2.09322E-004	2.40040E-001	5.21451E-001	3.57650E+000	9	...........
	23	0.32	5.27459E-001	4.00366E-004	0.00000E+000	2.11176E-004	2.40040E-001	5.27564E-001	3.57650E+000	9	...........
	24	0.333333	5.33409E-001	4.02939E-004	0.00000E+000	2.14931E-004	2.40040E-001	5.33555E-001	3.57650E+000	9	...........
	25	0.346667	5.39275E-001	4.00445E-004	0.00000E+000	2.15950E-004	2.40040E-001	5.39497E-001	3.57650E+000	9	...........
	26	0.36	5.45202E-001	4.01110E-004	0.00000E+000	2.18686E-004	2.40040E-001	5.45405E-001	3.57650E+000	9	...........
	27	0.373333	5.51086E-001	4.00560E-004	0.00000E+000	2.20743E-004	2.40040E-001	5.51334E-001	3.57650E+000	9	...........
	28	0.386667	5.56907E-001	4.00914E-004	0.00000E+000	2.23272E-004	2.40040E-001	5.57154E-001	3.57650E+000	9	...........
	29	0.4	5.62886E-001	4.01723E-004	0.00000E+000	2.26124E-004	2.40040E-001	5.63143E-001	3.57650E+000	9	...........
	30	0.413333	5.68819E-001	4.00842E-004	0.00000E+000	2.28007E-004	2.40040E-001	5.69028E-001	3.57650E+000	9	...........
	31	0.426667	5.74605E-001	4.01190E-004	0.00000E+000	2.30526E-004	2.40040E-001	5.74825E-001	3.57650E+000	9	...........
	32	0.44	5.80418E-001	3.99264E-004	0.00000E+000	2.31740E-004	2.40040E-001	5.80636E-001	3.57650E+000	9	...........
	33	0.453333	5.86226E-001	4.00926E-004	0.00000E+000	2.35033E-004	2.40040E-001	5.86467E-001	3.57650E+000	9	...........
	34	0.466667	5.92070E-001	4.01229E-004	0.00000E+000	2.37556E-004	2.40040E-001	5.92308E-001	3.57650E+000	9	...........
	35	0.48	5.97820E-001	4.01172E-004	0.00000E+000	2.39829E-004	2.40040E-001	5.98028E-001	3.57650E+000	9	...........
	36	0.493333	6.03534E-001	4.00538E-004	0.00000E+000	2.41738E-004	2.40040E-001	6.03752E-001	3.57650E+000	9	...........
	37	0.506667	6.09215E-001	4.01317E-004	0.00000E+000	2.44488E-004	2.40040E-001	6.09461E-001	3.57650E+000	9	...........
	38	0.52	6.14951E-001	4.01184E-004	0.00000E+000	2.46708E-004	2.40040E-001	6.15203E-001	3.57650E+000	9	...........
	39	0.533333	6.20771E-001	4.01239E-004	0.00000E+000	2.49077E-004	2.40040E-001	6.20949E-001	3.57650E+000	9	...........
	40	0.546667	6.26402E-001	4.01008E-004	0.00000E+000	2.51192E-004	2.40040E-001	6.26624E-001	3.57650E+000	9	...........
	41	0.56	6.31991E-001	4.00490E-004	0.00000E+000	2.53106E-004	2.40040E-001	6.32242E-001	3.57650E+000	9	...........
	42	0.573333	6.37631E-001	3.99893E-004	0.00000E+000	2.54984E-004	2.40040E-001	6.37864E-001	3.57650E+000	9	...........
	43	0.586667	6.43310E-001	4.01910E-004	0.00000E+000	2.58553E-004	2.40040E-001	6.43548E-001	3.57650E+000	9	...........
	44	0.6	6.48947E-001	3.99992E-004	0.00000E+000	2.59574E-004	2.40040E-001	6.49194E-001	3.57650E+000	9	...........
	45	0.613333	6.54583E-001	4.00484E-004	0.00000E+000	2.62150E-004	2.40040E-001	6.54809E-001	3.57650E+000	9	...........
	46	0.626667	6.60130E-001	4.01022E-004	0.00000E+000	2.64727E-004	2.40040E-001	6.60379E-001	3.57650E+000	9	...........
	47	0.64	6.65709E-001	4.01655E-004	0.00000E+000	2.67385E-004	2.40040E-001	6.65915E-001	3.57650E+000	9	...........
	48	0.653333	6.71242E-001	4.00173E-004	0.00000E+000	2.68613E-004	2.40040E-001	6.71439E-001	3.57650E+000	9	...........
	49	0.666667	6.76697E-001	4.00663E-004	0.00000E+000	2.71127E-004	2.40040E-001	6.76910E-001	3.57650E+000	9	...........
	50	0.68	6.82169E-001	4.01521E-004	0.00000E+000	2.73905E-004	2.40040E-001	6.82393E-001	3.57650E+000	9	...........
	51	0.693333	6.87636E-001	4.01065E-004	0.00000E+000	2.75786E-004	2.40040E-001	6.87869E-001	3.57650E+000	9	...........
	52	0.706667	6.93104E-001	4.02705E-004	0.00000E+000	2.79116E-004	2.40040E-001	6.93327E-001	3.57650E+000	9	...........
	53	0.72	6.98665E-001	4.00152E-004	0.00000E+000	2.79572E-004	2.40040E-001	6.98918E-001	3.57650E+000	9	...........
	54	0.733333	7.04168E-001	4.00786E-004	0.00000E+000	2.82220E-004	2.40040E-001	7.04417E-001	3.57650E+000	9	...........
	55	0.746667	7.09607E-001	4.02222E-004	0.00000E+000	2.85420E-004	2.40040E-001	7.09854E-001	3.57650E+000	9	...........
	56	0.76	7.14942E-001	4.00927E-004	0.00000E+000	2.86640E-004	2.40040E-001	7.15170E-001	3.57650E+000	9	...........
	57	0.773333	7.20403E-001	3.99810E-004	0.00000E+000	2.88024E-004	2.40040E-001	7.20571E-001	3.57650E+000	9	...........
	58	0.786667	7.25828E-001	4.01170E-004	0.00000E+000	2.91181E-004	2.40040E-001	7.26033E-001	3.57650E+000	9	...........
	59	0.8	7.31140E-001	4.01309E-004	0.00000E+000	2.93413E-004	2.40040E-001	7.31379E-001	3.57650E+000	9	...........
	60	0.813333	7.36399E-001	3.99448E-004	0.00000E+000	2.94153E-004	2.40040E-001	7.36625E-001	3.57650E+000	9	...........
	61	0.826667	7.41676E-001	4.00127E-004	0.00000E+000	2.96765E-004	2.40040E-001	7.41895E-001	3.57650E+000	9	...........
	62	0.84	7.47003E-001	4.01444E-004	0.00000E+000	2.99880E-004	2.40040E-001	7.47220E-001	3.57650E+000	9	...........
	63	0.853333	7.52237E-001	4.01624E-004	0.00000E+000	3.02117E-004	2.40040E-001	7.52475E-001	3.57650E+000	9	...........
	64	0.866667	7.57456E-001	4.02388E-004	0.00000E+000	3.04791E-004	2.40040E-001	7.57683E-001	3.57650E+000	9	...........
	65	0.88	7.62615E-001	4.01926E-004	0.00000E+000	3.06515E-004	2.40040E-001	7.62837E-001	3.57650E+000	9	...........
	66	0.893333	7.67833E-001	4.00855E-004	0.00000E+000	3.07790E-004	2.40040E-001	7.68081E-001	3.57650E+000	9	...........
	67	0.906667	7.73016E-001	4.00898E-004	0.00000E+000	3.09901E-004	2.40040E-001	7.73274E-001	3.57650E+000	9	...........
	68	0.92	7.78173E-001	4.01235E-004	0.00000E+000	3.12230E-004	2.40040E-001	7.78411E-001	3.57650E+000	9	...........
	69	0.933333	7.83376E-001	4.01091E-004	0.00000E+000	3.14205E-004	2.40040E-001	7.83604E-001	3.57650E+000	9	...........
	70	0.946667	7.88470E-001	3.98939E-004	0.00000E+000	3.14552E-004	2.40040E-001	7.88702E-001	3.57650E+000	9	...........
	71	0.96	7.93531E-001	4.00548E-004	0.00000E+000	3.17847E-004	2.40040E-001	7.93797E-001	3.57650E+000	9	...........
	72	0.97333	7.98578E-001	3.99821E-004	0.00000E+000	3.19288E-004	2.40040E-001	7.98777E-001	3.57650E+000	9	...........
	73	0.98667	8.03531E-001	4.01169E-004	0.00000E+000	3.22352E-004	2.40040E-001	8.03761E-001	3.57650E+000	9	...........
	74	1	8.08573E-001	4.00392E-004	0.00000E+000	3.23746E-004	2.40040E-001	8.08772E-001	3.57650E+000	9	...........
	75	1.01333	8.13470E-001	4.00531E-004	0.00000E+000	3.25820E-004	2.40040E-001	8.13722E-001	3.57650E+000	9	...........
	76	1.02667	8.18401E-001	4.01257E-004	0.00000E+000	3.28389E-004	2.40040E-001	8.18653E-001	3.57650E+000	9	...........
	77	1.04	8.23284E-001	4.01966E-004	0.00000E+000	3.30932E-004	2.40040E-001	8.23556E-001	3.57650E+000	9	...........
	78	1.05333	8.28114E-001	4.00085E-004	0.00000E+000	3.31316E-004	2.40040E-001	8.28388E-001	3.57650E+000	9	...........
	79	1.06667	8.33001E-001	4.01724E-004	0.00000E+000	3.34637E-004	2.40040E-001	8.33283E-001	3.57650E+000	9	...........
	80	1.08	8.37802E-001	4.00363E-004	0.00000E+000	3.35425E-004	2.40040E-001	8.38101E-001	3.57652E+000	9	...........
	81	1.09333	8.42567E-001	3.99706E-004	0.00000E+000	3.36779E-004	2.40040E-001	8.42881E-001	3.57660E+000	9	...........
	82	1.10667	8.47388E-001	3.99749E-004	0.00000E+000	3.38743E-004	2.40040E-001	8.47703E-001	3.57660E+000	9	...........
	83	1.12	8.52130E-001	4.01351E-004	0.00000E+000	3.42004E-004	2.40040E-001	8.52446E-001	3.57660E+000	9	...........
	84	1.13333	8.56798E-001	4.00871E-004	0.00000E+000	3.43466E-004	2.40040E-001	8.57116E-001	3.57660E+000	9	...........
	85	1.14667	8.61446E-001	4.01886E-004	0.00000E+000	3.46203E-004	2.40040E-001	8.61769E-001	3.57660E+000	9	...........
	86	1.16	8.66065E-001	4.00900E-004	0.00000E+000	3.47206E-004	2.40040E-001	8.66383E-001	3.57660E+000	9	...........
	87	1.17333	8.70709E-001	4.02223E-004	0.00000E+000	3.50220E-004	2.40040E-001	8.71018E-001	3.57660E+000	9	...........
	88	1.18667	8.75327E-001	4.00877E-004	0.00000E+000	3.50899E-004	2.40040E-001	8.75669E-001	3.57660E+000	9	...........
	89	1.2	8.79834E-001	4.01115E-004	0.00000E+000	3.52915E-004	2.40040E-001	8.80148E-001	3.57660E+000	9	...........
	90	1.21333	8.84383E-001	4.00912E-004	0.00000E+000	3.54560E-004	2.40040E-001	8.84674E-001	3.57660E+000	9	...........
	91	1.22667	8.88816E-001	4.01449E-004	0.00000E+000	3.56815E-004	2.40040E-001	8.89132E-001	3.57660E+000	9	...........
	92	1.24	8.93269E-001	4.00826E-004	0.00000E+000	3.58046E-004	2.40040E-001	8.93572E-001	3.57660E+000	9	...........
	93	1.25333	8.97704E-001	4.01586E-004	0.00000E+000	3.60505E-004	2.40040E-001	8.98047E-001	3.57660E+000	9	...........
	94	1.26667	9.02104E-001	4.01187E-004	0.00000E+000	3.61912E-004	2.40040E-001	9.02387E-001	3.57660E+000	9	...........
	95	1.28	9.06400E-001	4.02110E-004	0.00000E+000	3.64472E-004	2.40040E-001	9.06693E-001	3.57660E+000	9	...........
	96	1.29333	9.10757E-001	4.01112E-004	0.00000E+000	3.65315E-004	2.40040E-001	9.11037E-001	3.57660E+000	9	...........
	97	1.30667	9.15035E-001	4.00259E-004	0.00000E+000	3.66251E-004	2.40040E-001	9.15315E-001	3.57660E+000	9	...........
	98	1.32	9.19221E-001	4.01605E-004	0.00000E+000	3.69163E-004	2.40040E-001	9.19499E-001	3.57660E+000	9	...........
	99	1.33333	9.23515E-001	4.01578E-004	0.00000E+000	3.70864E-004	2.40040E-001	9.23738E-001	3.57660E+000	9	...........
	100	1.34667	9.27659E-001	4.01075E-004	0.00000E+000	3.72061E-004	2.40040E-001	9.27919E-001	3.57660E+000	9	...........
	101	1.36	9.31715E-001	4.01015E-004	0.00000E+000	3.73631E-004	2.40040E-001	9.32013E-001	3.57660E+000	9	...........
	102	1.37333	9.35831E-001	4.01256E-004	0.00000E+000	3.75507E-004	2.40040E-001	9.36173E-001	3.57660E+000	9	...........
	103	1.38667	9.39919E-001	4.01626E-004	0.00000E+000	3.77496E-004	2.40040E-001	9.40254E-001	3.57660E+000	9	...........
	104	1.4	9.43930E-001	4.00321E-004	0.00000E+000	3.77875E-004	2.40040E-001	9.44260E-001	3.57660E+000	9	...........
	105	1.41333	9.47934E-001	3.99213E-004	0.00000E+000	3.78428E-004	2.40040E-001	9.48260E-001	3.57660E+000	9	...........
	106	1.42667	9.51831E-001	4.00908E-004	0.00000E+000	3.81596E-004	2.40040E-001	9.52140E-001	3.57660E+000	9	...........
	107	1.44	9.55726E-001	3.99222E-004	0.00000E+000	3.81547E-004	2.40040E-001	9.56024E-001	3.57660E+000	9	...........
	108	1.45333	9.59595E-001	4.01821E-004	0.00000E+000	3.85586E-004	2.40040E-001	9.59930E-001	3.57660E+000	9	...........
	109	1.46667	9.63436E-001	4.01382E-004	0.00000E+000	3.86706E-004	2.40040E-001	9.63779E-001	3.57660E+000	9	...........
	110	1.48	9.67258E-001	3.99978E-004	0.00000E+000	3.86882E-004	2.40040E-001	9.67594E-001	3.57660E+000	9	...........
	111	1.49333	9.71009E-001	4.00841E-004	0.00000E+000	3.89220E-004	2.40040E-001	9.71356E-001	3.57660E+000	9	...........
	112	1.50667	9.74800E-001	4.00708E-004	0.00000E+000	3.90611E-004	2.40040E-001	9.75133E-001	3.57660E+000	9	...........
	113	1.52	9.78494E-001	4.00874E-004	0.00000E+000	3.92253E-004	2.40040E-001	9.78810E-001	3.57660E+000	9	...........
	114	1.53333	9.82102E-001	4.01159E-004	0.00000E+000	3.93979E-004	2.40040E-001	9.82411E-001	3.57660E+000	9	...........
	115	1.54667	9.85711E-001	4.00951E-004	0.00000E+000	3.95222E-004	2.40040E-001	9.86067E-001	3.57660E+000	9	...........
	116	1.56	9.89313E-001	4.02037E-004	0.00000E+000	3.97740E-004	2.40040E-001	9.89614E-001	3.57660E+000	9	...........
	117	1.57333	9.92771E-001	4.02243E-004	0.00000E+000	3.99335E-004	2.40040E-001	9.93101E-001	3.57660E+000	9	...........
	118	1.58667	9.96241E-001	4.01329E-004	0.00000E+000	3.99821E-004	2.40040E-001	9.96556E-001	3.57660E+000	9	...........
	119	1.59667	9.99259E-001	4.00566E-004	0.00000E+000	4.00269E-004	2.40040E-001	9.99599E-001	3.57660E+000	9	...........
STARTTIMEOFFSET	QUANT	1367.784	Start Time Offset (s)
