EXPLAIN
TAG	PWR800_CHARGE
TITLE	LABEL	PWR Cyclic Charge Discharge (Cell) - Charge Step	Test &Identifier
DATE	LABEL	12-7-2017	Date
TIME	LABEL	14:47:38	Time
NOTES	NOTES	3	&Notes...
	supercap test cell
	0.4mg
	6M KOH
PSTAT	PSTAT	IFC5000-01520	Potentiostat
CAPACITY	QUANT	1.00000E-003	Capacity (A-hr)
CELLTYPE	SELECTOR	1	&Cell Type
WORKINGCONNECTION	SELECTOR	0	&Working Lead
MAXCHARGETIME	VARIABLEANDUNITS	1.00000E+002	s	1.00000E+002	second(s)	Max &Charge Time
CHARGECURRENT	QUANT	4.00000E-004	&Charge Current (A) 
VOLTAGEFINISH	TWOPARAM	F	1.00000E-003	3.60000E+003	&Voltage Finish	 I (A) < 	Max Time(s)
SAMPLETIME	QUANT	1.00000E-002	Sa&mple Period (s)
CHARGESTOPAT1	MULTIPARAM	4	1.00000E+000	Charge Stop At &1	Voltage > Limit	V
CHARGESTOPAT2	MULTIPARAM	0	0.00000E+000	Charge Stop At &2	None	N/A
AESBHCSELECTOR	TOGGLE	F	Save Both Half Cells
IRCOMP	TOGGLE	F	IR &Measure
EOC	QUANT	0	Open Circuit (V)
SEQUENCER	TOGGLE	TRUE	Run as Sequence
PSTATMODEL	IQUANT	53	Pstat Model
PSTATSECTION	LABEL	IFC5000-01520	Pstat Section
PSTATSERIALNO	LABEL	01520	Pstat Serial Number
CTRLMODE	IQUANT	0	Control Mode
ELECTROMETER	IQUANT	1	RE=0 or CS=1
IESTAB	IQUANT	0	I/E Stability
CASPEED	IQUANT	4	Control Amp Speed
CONVENTION	IQUANT	1	Current Convention
ICHRANGE	IQUANT	2	Ich Range
ICHRANGEMODE	TOGGLE	T	Ich Auto Range
ICHOFFSETENABLE	TOGGLE	F	Ich Offset Enable
ICHOFFSET	QUANT	0	Ich Offset (V)
ICHFILTER	IQUANT	1	Ich Filter
VCHRANGE	IQUANT	2	Vch Range
VCHRANGEMODE	TOGGLE	T	Vch Auto Range
VCHOFFSETENABLE	TOGGLE	F	Vch Offset Enable
VCHOFFSET	QUANT	0	Vch Offset (V)
VCHFILTER	IQUANT	1	Vch Filter
IERANGELOWERLIMIT	IQUANT	9	I/E Range Lower Limit
IERANGEMODE	TOGGLE	F	I/E AutoRange
IERANGE	IQUANT	9	I/E Range
ACHSELECT	IQUANT	1	Ach Select
ACHRANGE	IQUANT	2	Ach Range
ACHOFFSETENABLE	TOGGLE	F	Ach Offset Enable
ACHOFFSET	QUANT	0	Ach Offset (V)
ACHFILTER	IQUANT	1	Ach Filter
CABLEID	IQUANT	14	Cable ID
DCCALDATE	LABEL	5-7-2017	DC Calibration Date
ACCALDATE	LABEL	12/3/2015	AC Calibration Date
FRAMEWORKVERSION	QUANT	7.01	Framework Version
INSTRUMENTVERSION	LABEL	4.00	Instrument Version
CURVE	TABLE	120
	Pt	T	Vf	Im	Vu	Pwr	Sig	Ach	Temp	IERange	Over
	#	s	V	A	V	W	V	V	deg C	#	bits
	0	0.013333	3.62640E-001	4.02034E-004	0.00000E+000	1.45793E-004	2.40040E-001	3.62730E-001	3.57720E+000	9	...........
	1	0.026667	3.74090E-001	4.00612E-004	0.00000E+000	1.49865E-004	2.40040E-001	3.74159E-001	3.57720E+000	9	...........
	2	0.04	3.83873E-001	4.01700E-004	0.00000E+000	1.54202E-004	2.40040E-001	3.83950E-001	3.57720E+000	9	...........
	3	0.053333	3.92740E-001	4.01427E-004	0.00000E+000	1.57656E-004	2.40040E-001	3.92814E-001	3.57720E+000	9	...........
	4	0.066667	4.01089E-001	4.00756E-004	0.00000E+000	1.60739E-004	2.40040E-001	4.01159E-001	3.57720E+000	9	...........
	5	0.08	4.08939E-001	4.00371E-004	0.00000E+000	1.63727E-004	2.40040E-001	4.09015E-001	3.57720E+000	9	...........
	6	0.093333	4.16550E-001	4.00132E-004	0.00000E+000	1.66675E-004	2.40040E-001	4.16634E-001	3.57720E+000	9	...........
	7	0.106667	4.23961E-001	4.00654E-004	0.00000E+000	1.69862E-004	2.40040E-001	4.24042E-001	3.57720E+000	9	...........
	8	0.12	4.31141E-001	4.00532E-004	0.00000E+000	1.72686E-004	2.40040E-001	4.31221E-001	3.57720E+000	9	...........
	9	0.133333	4.38181E-001	4.00208E-004	0.00000E+000	1.75364E-004	2.40040E-001	4.38267E-001	3.57720E+000	9	...........
	10	0.146667	4.45115E-001	4.00469E-004	0.00000E+000	1.78255E-004	2.40040E-001	4.45194E-001	3.57720E+000	9	...........
	11	0.16	4.51950E-001	4.01134E-004	0.00000E+000	1.81293E-004	2.40040E-001	4.52037E-001	3.57720E+000	9	...........
	12	0.173333	4.58634E-001	4.01816E-004	0.00000E+000	1.84287E-004	2.40040E-001	4.58725E-001	3.57720E+000	9	...........
	13	0.186667	4.65310E-001	4.01480E-004	0.00000E+000	1.86813E-004	2.40040E-001	4.65399E-001	3.57720E+000	9	...........
	14	0.2	4.71891E-001	4.01260E-004	0.00000E+000	1.89351E-004	2.40040E-001	4.71979E-001	3.57720E+000	9	...........
	15	0.213333	4.78355E-001	4.00931E-004	0.00000E+000	1.91788E-004	2.40040E-001	4.78454E-001	3.57720E+000	9	...........
	16	0.226667	4.84708E-001	4.01665E-004	0.00000E+000	1.94690E-004	2.40040E-001	4.84805E-001	3.57720E+000	9	...........
	17	0.24	4.90964E-001	4.00131E-004	0.00000E+000	1.96450E-004	2.40040E-001	4.91060E-001	3.57720E+000	9	...........
	18	0.253333	4.97259E-001	4.00536E-004	0.00000E+000	1.99170E-004	2.40040E-001	4.97357E-001	3.57720E+000	9	...........
	19	0.266667	5.03557E-001	4.02190E-004	0.00000E+000	2.02526E-004	2.40040E-001	5.03663E-001	3.57720E+000	9	...........
	20	0.28	5.09721E-001	4.01460E-004	0.00000E+000	2.04632E-004	2.40040E-001	5.09822E-001	3.57720E+000	9	...........
	21	0.293333	5.15820E-001	4.00276E-004	0.00000E+000	2.06470E-004	2.40040E-001	5.15922E-001	3.57720E+000	9	...........
	22	0.306667	5.21932E-001	4.01096E-004	0.00000E+000	2.09345E-004	2.40040E-001	5.22036E-001	3.57720E+000	9	...........
	23	0.32	5.27996E-001	3.99767E-004	0.00000E+000	2.11075E-004	2.40040E-001	5.28104E-001	3.57720E+000	9	...........
	24	0.333333	5.33854E-001	4.00432E-004	0.00000E+000	2.13773E-004	2.40040E-001	5.33997E-001	3.57720E+000	9	...........
	25	0.346667	5.39777E-001	4.01787E-004	0.00000E+000	2.16875E-004	2.40040E-001	5.39981E-001	3.57720E+000	9	...........
	26	0.36	5.45756E-001	4.01589E-004	0.00000E+000	2.19169E-004	2.40040E-001	5.45952E-001	3.57720E+000	9	...........
	27	0.373333	5.51733E-001	4.01163E-004	0.00000E+000	2.21335E-004	2.40040E-001	5.51962E-001	3.57682E+000	9	...........
	28	0.386667	5.57679E-001	4.00130E-004	0.00000E+000	2.23144E-004	2.40040E-001	5.57922E-001	3.57660E+000	9	...........
	29	0.4	5.63637E-001	4.00780E-004	0.00000E+000	2.25895E-004	2.40040E-001	5.63859E-001	3.57660E+000	9	...........
	30	0.413333	5.69521E-001	4.01646E-004	0.00000E+000	2.28746E-004	2.40040E-001	5.69748E-001	3.57660E+000	9	...........
	31	0.426667	5.75334E-001	4.00420E-004	0.00000E+000	2.30375E-004	2.40040E-001	5.75561E-001	3.57660E+000	9	...........
	32	0.44	5.81084E-001	4.02276E-004	0.00000E+000	2.33756E-004	2.40040E-001	5.81353E-001	3.57660E+000	9	...........
	33	0.453333	5.87010E-001	3.99334E-004	0.00000E+000	2.34413E-004	2.40040E-001	5.87283E-001	3.57660E+000	9	...........
	34	0.466667	5.92854E-001	4.00374E-004	0.00000E+000	2.37363E-004	2.40040E-001	5.93106E-001	3.57660E+000	9	...........
	35	0.48	5.98605E-001	4.00420E-004	0.00000E+000	2.39693E-004	2.40040E-001	5.98870E-001	3.57660E+000	9	...........
	36	0.493333	6.04318E-001	4.00993E-004	0.00000E+000	2.42327E-004	2.40040E-001	6.04586E-001	3.57660E+000	9	...........
	37	0.506667	6.10033E-001	4.01406E-004	0.00000E+000	2.44871E-004	2.40040E-001	6.10307E-001	3.57660E+000	9	...........
	38	0.52	6.15770E-001	4.00713E-004	0.00000E+000	2.46747E-004	2.40040E-001	6.16011E-001	3.57660E+000	9	...........
	39	0.533333	6.21456E-001	4.01056E-004	0.00000E+000	2.49239E-004	2.40040E-001	6.21647E-001	3.57660E+000	9	...........
	40	0.546667	6.27109E-001	4.00479E-004	0.00000E+000	2.51144E-004	2.40040E-001	6.27353E-001	3.57660E+000	9	...........
	41	0.56	6.32733E-001	3.99267E-004	0.00000E+000	2.52629E-004	2.40040E-001	6.32969E-001	3.57660E+000	9	...........
	42	0.573333	6.38359E-001	4.00593E-004	0.00000E+000	2.55722E-004	2.40040E-001	6.38593E-001	3.57660E+000	9	...........
	43	0.586667	6.43968E-001	4.01041E-004	0.00000E+000	2.58258E-004	2.40040E-001	6.44183E-001	3.57660E+000	9	...........
	44	0.6	6.49469E-001	4.00427E-004	0.00000E+000	2.60065E-004	2.40040E-001	6.49703E-001	3.57660E+000	9	...........
	45	0.613333	6.55052E-001	4.00696E-004	0.00000E+000	2.62477E-004	2.40040E-001	6.55277E-001	3.57660E+000	9	...........
	46	0.626667	6.60713E-001	4.01561E-004	0.00000E+000	2.65316E-004	2.40040E-001	6.60945E-001	3.57660E+000	9	...........
	47	0.64	6.66351E-001	4.00785E-004	0.00000E+000	2.67063E-004	2.40040E-001	6.66580E-001	3.57660E+000	9	...........
	48	0.653333	6.71868E-001	4.01049E-004	0.00000E+000	2.69452E-004	2.40040E-001	6.72060E-001	3.57660E+000	9	...........
	49	0.666667	6.77337E-001	4.00616E-004	0.00000E+000	2.71352E-004	2.40040E-001	6.77529E-001	3.57660E+000	9	...........
	50	0.68	6.82859E-001	4.01134E-004	0.00000E+000	2.73918E-004	2.40040E-001	6.83015E-001	3.57660E+000	9	...........
	51	0.693333	6.88308E-001	4.00527E-004	0.00000E+000	2.75686E-004	2.40040E-001	6.88483E-001	3.57660E+000	9	...........
	52	0.706667	6.93823E-001	4.00608E-004	0.00000E+000	2.77951E-004	2.40040E-001	6.94009E-001	3.57660E+000	9	...........
	53	0.72	6.99226E-001	4.01512E-004	0.00000E+000	2.80748E-004	2.40040E-001	6.99440E-001	3.57660E+000	9	...........
	54	0.733333	7.04696E-001	4.01552E-004	0.00000E+000	2.82972E-004	2.40040E-001	7.04899E-001	3.57660E+000	9	...........
	55	0.746667	7.10128E-001	4.00975E-004	0.00000E+000	2.84744E-004	2.40040E-001	7.10380E-001	3.57660E+000	9	...........
	56	0.76	7.15491E-001	4.02589E-004	0.00000E+000	2.88049E-004	2.40040E-001	7.15744E-001	3.57660E+000	9	...........
	57	0.773333	7.20928E-001	4.00400E-004	0.00000E+000	2.88660E-004	2.40040E-001	7.21105E-001	3.57660E+000	9	...........
	58	0.786667	7.26271E-001	4.00597E-004	0.00000E+000	2.90942E-004	2.40040E-001	7.26509E-001	3.57660E+000	9	...........
	59	0.8	7.31638E-001	4.01367E-004	0.00000E+000	2.93655E-004	2.40040E-001	7.31878E-001	3.57660E+000	9	...........
	60	0.813333	7.36885E-001	4.02047E-004	0.00000E+000	2.96263E-004	2.40040E-001	7.37145E-001	3.57660E+000	9	...........
	61	0.826667	7.42216E-001	4.01061E-004	0.00000E+000	2.97674E-004	2.40040E-001	7.42466E-001	3.57660E+000	9	...........
	62	0.84	7.47548E-001	4.00708E-004	0.00000E+000	2.99549E-004	2.40040E-001	7.47781E-001	3.57660E+000	9	...........
	63	0.853333	7.52827E-001	4.00290E-004	0.00000E+000	3.01349E-004	2.40040E-001	7.53081E-001	3.57660E+000	9	...........
	64	0.866667	7.58154E-001	4.00995E-004	0.00000E+000	3.04016E-004	2.40040E-001	7.58369E-001	3.57660E+000	9	...........
	65	0.88	7.63331E-001	4.00006E-004	0.00000E+000	3.05337E-004	2.40040E-001	7.63602E-001	3.57660E+000	9	...........
	66	0.893333	7.68532E-001	4.00541E-004	0.00000E+000	3.07828E-004	2.40040E-001	7.68822E-001	3.57660E+000	9	...........
	67	0.906667	7.73715E-001	3.99766E-004	0.00000E+000	3.09305E-004	2.40040E-001	7.73975E-001	3.57660E+000	9	...........
	68	0.92	7.78772E-001	4.02094E-004	0.00000E+000	3.13140E-004	2.40040E-001	7.79057E-001	3.57660E+000	9	...........
	69	0.933333	7.83856E-001	4.00292E-004	0.00000E+000	3.13771E-004	2.40040E-001	7.84110E-001	3.57660E+000	9	...........
	70	0.946667	7.88927E-001	4.00990E-004	0.00000E+000	3.16352E-004	2.40040E-001	7.89191E-001	3.57660E+000	9	...........
	71	0.96	7.94055E-001	4.00679E-004	0.00000E+000	3.18161E-004	2.40040E-001	7.94321E-001	3.57660E+000	9	...........
	72	0.97333	7.99126E-001	4.01499E-004	0.00000E+000	3.20848E-004	2.40040E-001	7.99383E-001	3.57660E+000	9	...........
	73	0.98667	8.04171E-001	4.01075E-004	0.00000E+000	3.22533E-004	2.40040E-001	8.04438E-001	3.57660E+000	9	...........
	74	1	8.09095E-001	4.00921E-004	0.00000E+000	3.24383E-004	2.40040E-001	8.09350E-001	3.57660E+000	9	...........
	75	1.01333	8.14027E-001	4.00668E-004	0.00000E+000	3.26155E-004	2.40040E-001	8.14300E-001	3.57660E+000	9	...........
	76	1.02667	8.19045E-001	4.01019E-004	0.00000E+000	3.28453E-004	2.40040E-001	8.19305E-001	3.57660E+000	9	...........
	77	1.04	8.23906E-001	4.01019E-004	0.00000E+000	3.30402E-004	2.40040E-001	8.24188E-001	3.57660E+000	9	...........
	78	1.05333	8.28801E-001	4.03077E-004	0.00000E+000	3.34071E-004	2.40040E-001	8.29072E-001	3.57660E+000	9	...........
	79	1.06667	8.33601E-001	4.01610E-004	0.00000E+000	3.34782E-004	2.40040E-001	8.33898E-001	3.57660E+000	9	...........
	80	1.08	8.38399E-001	4.00427E-004	0.00000E+000	3.35718E-004	2.40040E-001	8.38708E-001	3.57660E+000	9	...........
	81	1.09333	8.43188E-001	4.01220E-004	0.00000E+000	3.38304E-004	2.40040E-001	8.43507E-001	3.57660E+000	9	...........
	82	1.10667	8.47935E-001	3.99891E-004	0.00000E+000	3.39081E-004	2.40040E-001	8.48267E-001	3.57660E+000	9	...........
	83	1.12	8.52647E-001	3.99757E-004	0.00000E+000	3.40852E-004	2.40040E-001	8.52962E-001	3.57660E+000	9	...........
	84	1.13333	8.57292E-001	3.99659E-004	0.00000E+000	3.42625E-004	2.40040E-001	8.57654E-001	3.57660E+000	9	...........
	85	1.14667	8.62005E-001	4.00524E-004	0.00000E+000	3.45254E-004	2.40040E-001	8.62331E-001	3.57660E+000	9	...........
	86	1.16	8.66595E-001	4.01395E-004	0.00000E+000	3.47847E-004	2.40040E-001	8.66937E-001	3.57660E+000	9	...........
	87	1.17333	8.71188E-001	4.01655E-004	0.00000E+000	3.49917E-004	2.40040E-001	8.71523E-001	3.57660E+000	9	...........
	88	1.18667	8.75774E-001	4.02078E-004	0.00000E+000	3.52129E-004	2.40040E-001	8.76129E-001	3.57660E+000	9	...........
	89	1.2	8.80312E-001	4.00021E-004	0.00000E+000	3.52143E-004	2.40040E-001	8.80646E-001	3.57660E+000	9	...........
	90	1.21333	8.84875E-001	4.00622E-004	0.00000E+000	3.54500E-004	2.40040E-001	8.85187E-001	3.57660E+000	9	...........
	91	1.22667	8.89296E-001	4.01229E-004	0.00000E+000	3.56812E-004	2.40040E-001	8.89598E-001	3.57660E+000	9	...........
	92	1.24	8.93721E-001	4.00639E-004	0.00000E+000	3.58059E-004	2.40040E-001	8.94045E-001	3.57660E+000	9	...........
	93	1.25333	8.98126E-001	4.01653E-004	0.00000E+000	3.60735E-004	2.40040E-001	8.98457E-001	3.57660E+000	9	...........
	94	1.26667	9.02475E-001	4.00812E-004	0.00000E+000	3.61723E-004	2.40040E-001	9.02814E-001	3.57660E+000	9	...........
	95	1.28	9.06840E-001	4.00363E-004	0.00000E+000	3.63065E-004	2.40040E-001	9.07183E-001	3.57660E+000	9	...........
	96	1.29333	9.11178E-001	4.00497E-004	0.00000E+000	3.64924E-004	2.40040E-001	9.11474E-001	3.57660E+000	9	...........
	97	1.30667	9.15447E-001	4.00230E-004	0.00000E+000	3.66390E-004	2.40040E-001	9.15757E-001	3.57660E+000	9	...........
	98	1.32	9.19698E-001	4.00631E-004	0.00000E+000	3.68460E-004	2.40040E-001	9.20003E-001	3.57660E+000	9	...........
	99	1.33333	9.23899E-001	4.00495E-004	0.00000E+000	3.70017E-004	2.40040E-001	9.24165E-001	3.57660E+000	9	...........
	100	1.34667	9.28053E-001	3.99809E-004	0.00000E+000	3.71044E-004	2.40040E-001	9.28330E-001	3.57660E+000	9	...........
	101	1.36	9.32243E-001	4.00413E-004	0.00000E+000	3.73282E-004	2.40040E-001	9.32527E-001	3.57660E+000	9	...........
	102	1.37333	9.36354E-001	3.99976E-004	0.00000E+000	3.74519E-004	2.40040E-001	9.36665E-001	3.57641E+000	9	...........
	103	1.38667	9.40422E-001	4.01402E-004	0.00000E+000	3.77487E-004	2.40040E-001	9.40725E-001	3.57630E+000	9	...........
	104	1.4	9.44473E-001	4.00388E-004	0.00000E+000	3.78155E-004	2.40040E-001	9.44790E-001	3.57630E+000	9	...........
	105	1.41333	9.48462E-001	4.01008E-004	0.00000E+000	3.80340E-004	2.40040E-001	9.48746E-001	3.57630E+000	9	...........
	106	1.42667	9.52358E-001	3.99357E-004	0.00000E+000	3.80331E-004	2.40040E-001	9.52656E-001	3.57630E+000	9	...........
	107	1.44	9.56250E-001	4.00781E-004	0.00000E+000	3.83247E-004	2.40040E-001	9.56569E-001	3.57630E+000	9	...........
	108	1.45333	9.60110E-001	4.01109E-004	0.00000E+000	3.85108E-004	2.40040E-001	9.60454E-001	3.57630E+000	9	...........
	109	1.46667	9.63940E-001	4.00013E-004	0.00000E+000	3.85588E-004	2.40040E-001	9.64270E-001	3.57630E+000	9	...........
	110	1.48	9.67764E-001	4.01760E-004	0.00000E+000	3.88809E-004	2.40040E-001	9.68080E-001	3.57630E+000	9	...........
	111	1.49333	9.71548E-001	4.00291E-004	0.00000E+000	3.88902E-004	2.40040E-001	9.71909E-001	3.57630E+000	9	...........
	112	1.50667	9.75329E-001	3.99856E-004	0.00000E+000	3.89992E-004	2.40040E-001	9.75651E-001	3.57630E+000	9	...........
	113	1.52	9.79092E-001	4.00938E-004	0.00000E+000	3.92555E-004	2.40040E-001	9.79401E-001	3.57630E+000	9	...........
	114	1.53333	9.82702E-001	4.00367E-004	0.00000E+000	3.93441E-004	2.40040E-001	9.83023E-001	3.57630E+000	9	...........
	115	1.54667	9.86252E-001	3.99707E-004	0.00000E+000	3.94212E-004	2.40040E-001	9.86599E-001	3.57630E+000	9	...........
	116	1.56	9.89802E-001	4.00867E-004	0.00000E+000	3.96779E-004	2.40040E-001	9.90154E-001	3.57630E+000	9	...........
	117	1.57333	9.93250E-001	4.02320E-004	0.00000E+000	3.99605E-004	2.40040E-001	9.93627E-001	3.57630E+000	9	...........
	118	1.58667	9.96849E-001	4.00470E-004	0.00000E+000	3.99208E-004	2.40040E-001	9.97202E-001	3.57630E+000	9	...........
	119	1.59333	9.99423E-001	4.00969E-004	0.00000E+000	4.00738E-004	2.40040E-001	9.99780E-001	3.57630E+000	9	...........
STARTTIMEOFFSET	QUANT	1389.632	Start Time Offset (s)
