EXPLAIN
TAG	PWR800_CHARGE
TITLE	LABEL	PWR Cyclic Charge Discharge (Cell) - Charge Step	Test &Identifier
DATE	LABEL	12-7-2017	Date
TIME	LABEL	14:35:27	Time
NOTES	NOTES	3	&Notes...
	supercap test cell
	0.4mg
	6M KOH
PSTAT	PSTAT	IFC5000-01520	Potentiostat
CAPACITY	QUANT	1.00000E-003	Capacity (A-hr)
CELLTYPE	SELECTOR	1	&Cell Type
WORKINGCONNECTION	SELECTOR	0	&Working Lead
MAXCHARGETIME	VARIABLEANDUNITS	1.00000E+002	s	1.00000E+002	second(s)	Max &Charge Time
CHARGECURRENT	QUANT	4.00000E-004	&Charge Current (A) 
VOLTAGEFINISH	TWOPARAM	F	1.00000E-003	3.60000E+003	&Voltage Finish	 I (A) < 	Max Time(s)
SAMPLETIME	QUANT	1.00000E-002	Sa&mple Period (s)
CHARGESTOPAT1	MULTIPARAM	4	1.00000E+000	Charge Stop At &1	Voltage > Limit	V
CHARGESTOPAT2	MULTIPARAM	0	0.00000E+000	Charge Stop At &2	None	N/A
AESBHCSELECTOR	TOGGLE	F	Save Both Half Cells
IRCOMP	TOGGLE	F	IR &Measure
EOC	QUANT	0	Open Circuit (V)
SEQUENCER	TOGGLE	TRUE	Run as Sequence
PSTATMODEL	IQUANT	53	Pstat Model
PSTATSECTION	LABEL	IFC5000-01520	Pstat Section
PSTATSERIALNO	LABEL	01520	Pstat Serial Number
CTRLMODE	IQUANT	0	Control Mode
ELECTROMETER	IQUANT	1	RE=0 or CS=1
IESTAB	IQUANT	0	I/E Stability
CASPEED	IQUANT	4	Control Amp Speed
CONVENTION	IQUANT	1	Current Convention
ICHRANGE	IQUANT	2	Ich Range
ICHRANGEMODE	TOGGLE	T	Ich Auto Range
ICHOFFSETENABLE	TOGGLE	F	Ich Offset Enable
ICHOFFSET	QUANT	0	Ich Offset (V)
ICHFILTER	IQUANT	1	Ich Filter
VCHRANGE	IQUANT	2	Vch Range
VCHRANGEMODE	TOGGLE	T	Vch Auto Range
VCHOFFSETENABLE	TOGGLE	F	Vch Offset Enable
VCHOFFSET	QUANT	0	Vch Offset (V)
VCHFILTER	IQUANT	1	Vch Filter
IERANGELOWERLIMIT	IQUANT	9	I/E Range Lower Limit
IERANGEMODE	TOGGLE	F	I/E AutoRange
IERANGE	IQUANT	9	I/E Range
ACHSELECT	IQUANT	1	Ach Select
ACHRANGE	IQUANT	2	Ach Range
ACHOFFSETENABLE	TOGGLE	F	Ach Offset Enable
ACHOFFSET	QUANT	0	Ach Offset (V)
ACHFILTER	IQUANT	1	Ach Filter
CABLEID	IQUANT	14	Cable ID
DCCALDATE	LABEL	5-7-2017	DC Calibration Date
ACCALDATE	LABEL	12/3/2015	AC Calibration Date
FRAMEWORKVERSION	QUANT	7.01	Framework Version
INSTRUMENTVERSION	LABEL	4.00	Instrument Version
CURVE	TABLE	129
	Pt	T	Vf	Im	Vu	Pwr	Sig	Ach	Temp	IERange	Over
	#	s	V	A	V	W	V	V	deg C	#	bits
	0	0.013333	3.46463E-001	4.00583E-004	0.00000E+000	1.38787E-004	2.40040E-001	3.46550E-001	3.57720E+000	9	...........
	1	0.026667	3.57220E-001	4.01366E-004	0.00000E+000	1.43376E-004	2.40040E-001	3.57285E-001	3.57720E+000	9	...........
	2	0.04	3.66423E-001	4.02235E-004	0.00000E+000	1.47388E-004	2.40040E-001	3.66491E-001	3.57720E+000	9	...........
	3	0.053333	3.74873E-001	4.00989E-004	0.00000E+000	1.50320E-004	2.40040E-001	3.74941E-001	3.57720E+000	9	...........
	4	0.066667	3.82865E-001	4.00712E-004	0.00000E+000	1.53419E-004	2.40040E-001	3.82931E-001	3.57720E+000	9	...........
	5	0.08	3.90435E-001	4.00540E-004	0.00000E+000	1.56385E-004	2.40040E-001	3.90507E-001	3.57720E+000	9	...........
	6	0.093333	3.97692E-001	4.00312E-004	0.00000E+000	1.59201E-004	2.40040E-001	3.97766E-001	3.57720E+000	9	...........
	7	0.106667	4.04762E-001	4.01647E-004	0.00000E+000	1.62571E-004	2.40040E-001	4.04839E-001	3.57720E+000	9	...........
	8	0.12	4.11563E-001	4.00594E-004	0.00000E+000	1.64870E-004	2.40040E-001	4.11645E-001	3.57720E+000	9	...........
	9	0.133333	4.18338E-001	4.00697E-004	0.00000E+000	1.67627E-004	2.40040E-001	4.18422E-001	3.57720E+000	9	...........
	10	0.146667	4.24911E-001	4.00948E-004	0.00000E+000	1.70367E-004	2.40040E-001	4.24995E-001	3.57720E+000	9	...........
	11	0.16	4.31359E-001	4.00345E-004	0.00000E+000	1.72693E-004	2.40040E-001	4.31440E-001	3.57720E+000	9	...........
	12	0.173333	4.37754E-001	4.01449E-004	0.00000E+000	1.75736E-004	2.40040E-001	4.37840E-001	3.57720E+000	9	...........
	13	0.186667	4.44076E-001	4.01762E-004	0.00000E+000	1.78413E-004	2.40040E-001	4.44162E-001	3.57720E+000	9	...........
	14	0.2	4.50335E-001	4.00077E-004	0.00000E+000	1.80169E-004	2.40040E-001	4.50414E-001	3.57720E+000	9	...........
	15	0.213333	4.56496E-001	4.00820E-004	0.00000E+000	1.82973E-004	2.40040E-001	4.56582E-001	3.57720E+000	9	...........
	16	0.226667	4.62657E-001	4.00180E-004	0.00000E+000	1.85146E-004	2.40040E-001	4.62738E-001	3.57720E+000	9	...........
	17	0.24	4.68775E-001	4.00989E-004	0.00000E+000	1.87974E-004	2.40040E-001	4.68860E-001	3.57720E+000	9	...........
	18	0.253333	4.74795E-001	3.99904E-004	0.00000E+000	1.89872E-004	2.40040E-001	4.74875E-001	3.57720E+000	9	...........
	19	0.266667	4.80757E-001	4.01907E-004	0.00000E+000	1.93219E-004	2.40040E-001	4.80845E-001	3.57720E+000	9	...........
	20	0.28	4.86699E-001	4.01433E-004	0.00000E+000	1.95377E-004	2.40040E-001	4.86790E-001	3.57720E+000	9	...........
	21	0.293333	4.92566E-001	4.01442E-004	0.00000E+000	1.97737E-004	2.40040E-001	4.92658E-001	3.57720E+000	9	...........
	22	0.306667	4.98455E-001	4.01088E-004	0.00000E+000	1.99924E-004	2.40040E-001	4.98551E-001	3.57720E+000	9	...........
	23	0.32	5.04191E-001	4.01582E-004	0.00000E+000	2.02474E-004	2.40040E-001	5.04288E-001	3.57720E+000	9	...........
	24	0.333333	5.10010E-001	4.01492E-004	0.00000E+000	2.04765E-004	2.40040E-001	5.10103E-001	3.57720E+000	9	...........
	25	0.346667	5.15836E-001	4.01169E-004	0.00000E+000	2.06938E-004	2.40040E-001	5.15936E-001	3.57720E+000	9	...........
	26	0.36	5.21493E-001	4.00274E-004	0.00000E+000	2.08740E-004	2.40040E-001	5.21591E-001	3.57720E+000	9	...........
	27	0.373333	5.27179E-001	4.00883E-004	0.00000E+000	2.11337E-004	2.40040E-001	5.27279E-001	3.57720E+000	9	...........
	28	0.386667	5.32739E-001	4.01611E-004	0.00000E+000	2.13954E-004	2.40040E-001	5.32860E-001	3.57720E+000	9	...........
	29	0.4	5.38185E-001	4.00150E-004	0.00000E+000	2.15355E-004	2.40040E-001	5.38390E-001	3.57720E+000	9	...........
	30	0.413333	5.43881E-001	4.01360E-004	0.00000E+000	2.18292E-004	2.40040E-001	5.44084E-001	3.57720E+000	9	...........
	31	0.426667	5.49468E-001	4.00246E-004	0.00000E+000	2.19922E-004	2.40040E-001	5.49684E-001	3.57720E+000	9	...........
	32	0.44	5.55020E-001	4.00655E-004	0.00000E+000	2.22372E-004	2.40040E-001	5.55210E-001	3.57720E+000	9	...........
	33	0.453333	5.60584E-001	4.00790E-004	0.00000E+000	2.24676E-004	2.40040E-001	5.60797E-001	3.57720E+000	9	...........
	34	0.466667	5.66203E-001	4.00867E-004	0.00000E+000	2.26972E-004	2.40040E-001	5.66406E-001	3.57720E+000	9	...........
	35	0.48	5.71628E-001	4.00370E-004	0.00000E+000	2.28863E-004	2.40040E-001	5.71823E-001	3.57720E+000	9	...........
	36	0.493333	5.77071E-001	4.01039E-004	0.00000E+000	2.31428E-004	2.40040E-001	5.77312E-001	3.57720E+000	9	...........
	37	0.506667	5.82563E-001	4.01436E-004	0.00000E+000	2.33862E-004	2.40040E-001	5.82801E-001	3.57720E+000	9	...........
	38	0.52	5.88039E-001	3.99988E-004	0.00000E+000	2.35208E-004	2.40040E-001	5.88266E-001	3.57720E+000	9	...........
	39	0.533333	5.93501E-001	3.99016E-004	0.00000E+000	2.36817E-004	2.40040E-001	5.93715E-001	3.57720E+000	9	...........
	40	0.546667	5.98985E-001	4.00460E-004	0.00000E+000	2.39869E-004	2.40040E-001	5.99188E-001	3.57720E+000	9	...........
	41	0.56	6.04365E-001	4.00097E-004	0.00000E+000	2.41804E-004	2.40040E-001	6.04586E-001	3.57683E+000	9	...........
	42	0.573333	6.09844E-001	4.01400E-004	0.00000E+000	2.44792E-004	2.40040E-001	6.10043E-001	3.57670E+000	9	...........
	43	0.586667	6.15268E-001	4.00924E-004	0.00000E+000	2.46676E-004	2.40040E-001	6.15483E-001	3.57670E+000	9	...........
	44	0.6	6.20663E-001	4.02050E-004	0.00000E+000	2.49538E-004	2.40040E-001	6.20864E-001	3.57670E+000	9	...........
	45	0.613333	6.26053E-001	4.00878E-004	0.00000E+000	2.50971E-004	2.40040E-001	6.26268E-001	3.57670E+000	9	...........
	46	0.626667	6.31455E-001	4.00635E-004	0.00000E+000	2.52983E-004	2.40040E-001	6.31666E-001	3.57670E+000	9	...........
	47	0.64	6.36811E-001	4.01506E-004	0.00000E+000	2.55683E-004	2.40040E-001	6.37034E-001	3.57670E+000	9	...........
	48	0.653333	6.42219E-001	4.01391E-004	0.00000E+000	2.57781E-004	2.40040E-001	6.42412E-001	3.57670E+000	9	...........
	49	0.666667	6.47567E-001	3.99793E-004	0.00000E+000	2.58893E-004	2.40040E-001	6.47743E-001	3.57670E+000	9	...........
	50	0.68	6.52958E-001	4.02004E-004	0.00000E+000	2.62491E-004	2.40040E-001	6.53146E-001	3.57670E+000	9	...........
	51	0.693333	6.58317E-001	4.01149E-004	0.00000E+000	2.64083E-004	2.40040E-001	6.58511E-001	3.57670E+000	9	...........
	52	0.706667	6.63638E-001	4.02274E-004	0.00000E+000	2.66965E-004	2.40040E-001	6.63855E-001	3.57670E+000	9	...........
	53	0.72	6.68955E-001	4.00495E-004	0.00000E+000	2.67913E-004	2.40040E-001	6.69183E-001	3.57670E+000	9	...........
	54	0.733333	6.74234E-001	4.00811E-004	0.00000E+000	2.70240E-004	2.40040E-001	6.74425E-001	3.57670E+000	9	...........
	55	0.746667	6.79398E-001	4.01535E-004	0.00000E+000	2.72802E-004	2.40040E-001	6.79625E-001	3.57670E+000	9	...........
	56	0.76	6.84566E-001	4.00931E-004	0.00000E+000	2.74464E-004	2.40040E-001	6.84798E-001	3.57670E+000	9	...........
	57	0.773333	6.89818E-001	4.01735E-004	0.00000E+000	2.77124E-004	2.40040E-001	6.90038E-001	3.57670E+000	9	...........
	58	0.786667	6.95075E-001	4.00181E-004	0.00000E+000	2.78156E-004	2.40040E-001	6.95312E-001	3.57670E+000	9	...........
	59	0.8	7.00275E-001	4.00593E-004	0.00000E+000	2.80525E-004	2.40040E-001	7.00530E-001	3.57670E+000	9	...........
	60	0.813333	7.05480E-001	4.00903E-004	0.00000E+000	2.82829E-004	2.40040E-001	7.05743E-001	3.57670E+000	9	...........
	61	0.826667	7.10613E-001	4.01779E-004	0.00000E+000	2.85509E-004	2.40040E-001	7.10891E-001	3.57670E+000	9	...........
	62	0.84	7.15801E-001	4.00858E-004	0.00000E+000	2.86934E-004	2.40040E-001	7.16046E-001	3.57670E+000	9	...........
	63	0.853333	7.21018E-001	4.00367E-004	0.00000E+000	2.88672E-004	2.40040E-001	7.21235E-001	3.57670E+000	9	...........
	64	0.866667	7.26139E-001	4.00373E-004	0.00000E+000	2.90726E-004	2.40040E-001	7.26349E-001	3.57670E+000	9	...........
	65	0.88	7.31283E-001	3.99806E-004	0.00000E+000	2.92371E-004	2.40040E-001	7.31526E-001	3.57670E+000	9	...........
	66	0.893333	7.36321E-001	4.01378E-004	0.00000E+000	2.95543E-004	2.40040E-001	7.36568E-001	3.57670E+000	9	...........
	67	0.906667	7.41358E-001	4.00746E-004	0.00000E+000	2.97096E-004	2.40040E-001	7.41614E-001	3.57670E+000	9	...........
	68	0.92	7.46424E-001	3.99453E-004	0.00000E+000	2.98161E-004	2.40040E-001	7.46666E-001	3.57670E+000	9	...........
	69	0.933333	7.51418E-001	4.00515E-004	0.00000E+000	3.00954E-004	2.40040E-001	7.51646E-001	3.57670E+000	9	...........
	70	0.946667	7.56348E-001	4.00879E-004	0.00000E+000	3.03204E-004	2.40040E-001	7.56580E-001	3.57670E+000	9	...........
	71	0.96	7.61389E-001	4.01705E-004	0.00000E+000	3.05853E-004	2.40040E-001	7.61615E-001	3.57670E+000	9	...........
	72	0.97333	7.66400E-001	3.99975E-004	0.00000E+000	3.06541E-004	2.40040E-001	7.66605E-001	3.57670E+000	9	...........
	73	0.98667	7.71352E-001	4.00138E-004	0.00000E+000	3.08647E-004	2.40040E-001	7.71564E-001	3.57670E+000	9	...........
	74	1	7.76282E-001	4.00970E-004	0.00000E+000	3.11266E-004	2.40040E-001	7.76512E-001	3.57670E+000	9	...........
	75	1.01333	7.81249E-001	4.00146E-004	0.00000E+000	3.12614E-004	2.40040E-001	7.81462E-001	3.57670E+000	9	...........
	76	1.02667	7.86147E-001	4.00665E-004	0.00000E+000	3.14981E-004	2.40040E-001	7.86371E-001	3.57670E+000	9	...........
	77	1.04	7.91045E-001	4.01129E-004	0.00000E+000	3.17311E-004	2.40040E-001	7.91322E-001	3.57670E+000	9	...........
	78	1.05333	7.95871E-001	4.00988E-004	0.00000E+000	3.19134E-004	2.40040E-001	7.96113E-001	3.57670E+000	9	...........
	79	1.06667	8.00662E-001	4.01139E-004	0.00000E+000	3.21177E-004	2.40040E-001	8.00915E-001	3.57670E+000	9	...........
	80	1.08	8.05469E-001	4.00979E-004	0.00000E+000	3.22976E-004	2.40040E-001	8.05725E-001	3.57670E+000	9	...........
	81	1.09333	8.10285E-001	4.00511E-004	0.00000E+000	3.24528E-004	2.40040E-001	8.10538E-001	3.57670E+000	9	...........
	82	1.10667	8.15024E-001	4.00039E-004	0.00000E+000	3.26041E-004	2.40040E-001	8.15292E-001	3.57670E+000	9	...........
	83	1.12	8.19716E-001	3.99916E-004	0.00000E+000	3.27817E-004	2.40040E-001	8.20000E-001	3.57670E+000	9	...........
	84	1.13333	8.24399E-001	4.01016E-004	0.00000E+000	3.30597E-004	2.40040E-001	8.24692E-001	3.57670E+000	9	...........
	85	1.14667	8.29098E-001	4.03335E-004	0.00000E+000	3.34404E-004	2.40040E-001	8.29365E-001	3.57670E+000	9	...........
	86	1.16	8.33745E-001	4.00511E-004	0.00000E+000	3.33923E-004	2.40040E-001	8.34011E-001	3.57670E+000	9	...........
	87	1.17333	8.38353E-001	4.01990E-004	0.00000E+000	3.37009E-004	2.40040E-001	8.38628E-001	3.57670E+000	9	...........
	88	1.18667	8.43017E-001	4.01638E-004	0.00000E+000	3.38587E-004	2.40040E-001	8.43266E-001	3.57670E+000	9	...........
	89	1.2	8.47553E-001	4.00271E-004	0.00000E+000	3.39251E-004	2.40040E-001	8.47802E-001	3.57670E+000	9	...........
	90	1.21333	8.52133E-001	4.01323E-004	0.00000E+000	3.41981E-004	2.40040E-001	8.52387E-001	3.57670E+000	9	...........
	91	1.22667	8.56646E-001	4.00816E-004	0.00000E+000	3.43357E-004	2.40040E-001	8.56916E-001	3.57670E+000	9	...........
	92	1.24	8.61115E-001	4.00610E-004	0.00000E+000	3.44971E-004	2.40040E-001	8.61391E-001	3.57670E+000	9	...........
	93	1.25333	8.65554E-001	4.01323E-004	0.00000E+000	3.47367E-004	2.40040E-001	8.65832E-001	3.57670E+000	9	...........
	94	1.26667	8.69972E-001	4.01459E-004	0.00000E+000	3.49258E-004	2.40040E-001	8.70253E-001	3.57670E+000	9	...........
	95	1.28	8.74376E-001	3.99869E-004	0.00000E+000	3.49636E-004	2.40040E-001	8.74672E-001	3.57670E+000	9	...........
	96	1.29333	8.78700E-001	4.01229E-004	0.00000E+000	3.52560E-004	2.40040E-001	8.78994E-001	3.57670E+000	9	...........
	97	1.30667	8.83029E-001	4.00727E-004	0.00000E+000	3.53854E-004	2.40040E-001	8.83306E-001	3.57670E+000	9	...........
	98	1.32	8.87269E-001	4.02160E-004	0.00000E+000	3.56824E-004	2.40040E-001	8.87568E-001	3.57670E+000	9	...........
	99	1.33333	8.91501E-001	4.01076E-004	0.00000E+000	3.57560E-004	2.40040E-001	8.91767E-001	3.57670E+000	9	...........
	100	1.34667	8.95707E-001	4.00291E-004	0.00000E+000	3.58543E-004	2.40040E-001	8.96025E-001	3.57670E+000	9	...........
	101	1.36	8.99945E-001	3.99892E-004	0.00000E+000	3.59881E-004	2.40040E-001	9.00243E-001	3.57670E+000	9	...........
	102	1.37333	9.04146E-001	4.01087E-004	0.00000E+000	3.62641E-004	2.40040E-001	9.04468E-001	3.57670E+000	9	...........
	103	1.38667	9.08382E-001	4.01972E-004	0.00000E+000	3.65144E-004	2.40040E-001	9.08695E-001	3.57670E+000	9	...........
	104	1.4	9.12470E-001	4.00700E-004	0.00000E+000	3.65627E-004	2.40040E-001	9.12819E-001	3.57670E+000	9	...........
	105	1.41333	9.16516E-001	4.01216E-004	0.00000E+000	3.67721E-004	2.40040E-001	9.16849E-001	3.57670E+000	9	...........
	106	1.42667	9.20560E-001	4.00879E-004	0.00000E+000	3.69034E-004	2.40040E-001	9.20848E-001	3.57670E+000	9	...........
	107	1.44	9.24578E-001	4.01745E-004	0.00000E+000	3.71445E-004	2.40040E-001	9.24875E-001	3.57670E+000	9	...........
	108	1.45333	9.28592E-001	4.00867E-004	0.00000E+000	3.72242E-004	2.40040E-001	9.28872E-001	3.57670E+000	9	...........
	109	1.46667	9.32521E-001	4.01198E-004	0.00000E+000	3.74126E-004	2.40040E-001	9.32824E-001	3.57670E+000	9	...........
	110	1.48	9.36465E-001	4.01574E-004	0.00000E+000	3.76060E-004	2.40040E-001	9.36791E-001	3.57670E+000	9	...........
	111	1.49333	9.40385E-001	4.01944E-004	0.00000E+000	3.77982E-004	2.40040E-001	9.40679E-001	3.57670E+000	9	...........
	112	1.50667	9.44265E-001	4.00253E-004	0.00000E+000	3.77945E-004	2.40040E-001	9.44575E-001	3.57670E+000	9	...........
	113	1.52	9.48086E-001	4.01133E-004	0.00000E+000	3.80308E-004	2.40040E-001	9.48359E-001	3.57670E+000	9	...........
	114	1.53333	9.51839E-001	4.01421E-004	0.00000E+000	3.82089E-004	2.40040E-001	9.52143E-001	3.57670E+000	9	...........
	115	1.54667	9.55536E-001	4.00481E-004	0.00000E+000	3.82674E-004	2.40040E-001	9.55845E-001	3.57670E+000	9	...........
	116	1.56	9.59263E-001	4.01176E-004	0.00000E+000	3.84834E-004	2.40040E-001	9.59589E-001	3.57625E+000	9	...........
	117	1.57333	9.62975E-001	4.01749E-004	0.00000E+000	3.86875E-004	2.40040E-001	9.63299E-001	3.57610E+000	9	...........
	118	1.58667	9.66697E-001	4.00115E-004	0.00000E+000	3.86790E-004	2.40040E-001	9.67028E-001	3.57610E+000	9	...........
	119	1.6	9.70359E-001	4.00772E-004	0.00000E+000	3.88893E-004	2.40040E-001	9.70728E-001	3.57610E+000	9	...........
	120	1.61333	9.74006E-001	4.02063E-004	0.00000E+000	3.91612E-004	2.40040E-001	9.74315E-001	3.57610E+000	9	...........
	121	1.62667	9.77582E-001	4.03043E-004	0.00000E+000	3.94008E-004	2.40040E-001	9.77894E-001	3.57610E+000	9	...........
	122	1.64	9.81078E-001	4.01887E-004	0.00000E+000	3.94282E-004	2.40040E-001	9.81364E-001	3.57610E+000	9	...........
	123	1.65333	9.84555E-001	4.02109E-004	0.00000E+000	3.95898E-004	2.40040E-001	9.84861E-001	3.57610E+000	9	...........
	124	1.66667	9.87989E-001	4.01418E-004	0.00000E+000	3.96597E-004	2.40040E-001	9.88325E-001	3.57610E+000	9	...........
	125	1.68	9.91413E-001	3.99820E-004	0.00000E+000	3.96386E-004	2.40040E-001	9.91710E-001	3.57610E+000	9	...........
	126	1.69333	9.94788E-001	4.00562E-004	0.00000E+000	3.98474E-004	2.40040E-001	9.95112E-001	3.57610E+000	9	...........
	127	1.70667	9.98125E-001	4.01469E-004	0.00000E+000	4.00716E-004	2.40040E-001	9.98456E-001	3.57610E+000	9	...........
	128	1.70833	1.00004E+000	4.02778E-004	0.00000E+000	4.02792E-004	2.40040E-001	1.00035E+000	3.57610E+000	9	...........
STARTTIMEOFFSET	QUANT	810.4037	Start Time Offset (s)
