EXPLAIN
TAG	PWR800_CHARGE
TITLE	LABEL	PWR Cyclic Charge Discharge (Cell) - Charge Step	Test &Identifier
DATE	LABEL	12-7-2017	Date
TIME	LABEL	14:21:13	Time
NOTES	NOTES	3	&Notes...
	supercap test cell
	0.4mg
	6M KOH
PSTAT	PSTAT	IFC5000-01520	Potentiostat
CAPACITY	QUANT	1.00000E-003	Capacity (A-hr)
CELLTYPE	SELECTOR	1	&Cell Type
WORKINGCONNECTION	SELECTOR	0	&Working Lead
MAXCHARGETIME	VARIABLEANDUNITS	1.00000E+002	s	1.00000E+002	second(s)	Max &Charge Time
CHARGECURRENT	QUANT	4.00000E-004	&Charge Current (A) 
VOLTAGEFINISH	TWOPARAM	F	1.00000E-003	3.60000E+003	&Voltage Finish	 I (A) < 	Max Time(s)
SAMPLETIME	QUANT	1.00000E-002	Sa&mple Period (s)
CHARGESTOPAT1	MULTIPARAM	4	1.00000E+000	Charge Stop At &1	Voltage > Limit	V
CHARGESTOPAT2	MULTIPARAM	0	0.00000E+000	Charge Stop At &2	None	N/A
AESBHCSELECTOR	TOGGLE	F	Save Both Half Cells
IRCOMP	TOGGLE	F	IR &Measure
EOC	QUANT	0	Open Circuit (V)
SEQUENCER	TOGGLE	TRUE	Run as Sequence
PSTATMODEL	IQUANT	53	Pstat Model
PSTATSECTION	LABEL	IFC5000-01520	Pstat Section
PSTATSERIALNO	LABEL	01520	Pstat Serial Number
CTRLMODE	IQUANT	0	Control Mode
ELECTROMETER	IQUANT	1	RE=0 or CS=1
IESTAB	IQUANT	0	I/E Stability
CASPEED	IQUANT	4	Control Amp Speed
CONVENTION	IQUANT	1	Current Convention
ICHRANGE	IQUANT	2	Ich Range
ICHRANGEMODE	TOGGLE	T	Ich Auto Range
ICHOFFSETENABLE	TOGGLE	F	Ich Offset Enable
ICHOFFSET	QUANT	0	Ich Offset (V)
ICHFILTER	IQUANT	1	Ich Filter
VCHRANGE	IQUANT	2	Vch Range
VCHRANGEMODE	TOGGLE	T	Vch Auto Range
VCHOFFSETENABLE	TOGGLE	F	Vch Offset Enable
VCHOFFSET	QUANT	0	Vch Offset (V)
VCHFILTER	IQUANT	1	Vch Filter
IERANGELOWERLIMIT	IQUANT	9	I/E Range Lower Limit
IERANGEMODE	TOGGLE	F	I/E AutoRange
IERANGE	IQUANT	9	I/E Range
ACHSELECT	IQUANT	1	Ach Select
ACHRANGE	IQUANT	2	Ach Range
ACHOFFSETENABLE	TOGGLE	F	Ach Offset Enable
ACHOFFSET	QUANT	0	Ach Offset (V)
ACHFILTER	IQUANT	1	Ach Filter
CABLEID	IQUANT	14	Cable ID
DCCALDATE	LABEL	5-7-2017	DC Calibration Date
ACCALDATE	LABEL	12/3/2015	AC Calibration Date
FRAMEWORKVERSION	QUANT	7.01	Framework Version
INSTRUMENTVERSION	LABEL	4.00	Instrument Version
CURVE	TABLE	150
	Pt	T	Vf	Im	Vu	Pwr	Sig	Ach	Temp	IERange	Over
	#	s	V	A	V	W	V	V	deg C	#	bits
	0	0.013333	3.25928E-001	4.01028E-004	0.00000E+000	1.30706E-004	2.40040E-001	3.26014E-001	3.57610E+000	9	...........
	1	0.026667	3.35304E-001	4.00662E-004	0.00000E+000	1.34343E-004	2.40040E-001	3.35366E-001	3.57610E+000	9	...........
	2	0.04	3.43508E-001	4.01017E-004	0.00000E+000	1.37752E-004	2.40040E-001	3.43574E-001	3.57610E+000	9	...........
	3	0.053333	3.50974E-001	4.00243E-004	0.00000E+000	1.40475E-004	2.40040E-001	3.51041E-001	3.57610E+000	9	...........
	4	0.066667	3.58028E-001	4.01510E-004	0.00000E+000	1.43752E-004	2.40040E-001	3.58101E-001	3.57610E+000	9	...........
	5	0.08	3.64719E-001	4.01639E-004	0.00000E+000	1.46485E-004	2.40040E-001	3.64795E-001	3.57610E+000	9	...........
	6	0.093333	3.71222E-001	4.01520E-004	0.00000E+000	1.49053E-004	2.40040E-001	3.71293E-001	3.57610E+000	9	...........
	7	0.106667	3.77588E-001	4.01842E-004	0.00000E+000	1.51731E-004	2.40040E-001	3.77660E-001	3.57610E+000	9	...........
	8	0.12	3.83765E-001	3.99901E-004	0.00000E+000	1.53468E-004	2.40040E-001	3.83838E-001	3.57610E+000	9	...........
	9	0.133333	3.89772E-001	4.00238E-004	0.00000E+000	1.56001E-004	2.40040E-001	3.89841E-001	3.57610E+000	9	...........
	10	0.146667	3.95699E-001	4.01044E-004	0.00000E+000	1.58693E-004	2.40040E-001	3.95774E-001	3.57610E+000	9	...........
	11	0.16	4.01583E-001	4.02166E-004	0.00000E+000	1.61503E-004	2.40040E-001	4.01659E-001	3.57610E+000	9	...........
	12	0.173333	4.07328E-001	4.01286E-004	0.00000E+000	1.63455E-004	2.40040E-001	4.07408E-001	3.57610E+000	9	...........
	13	0.186667	4.12943E-001	4.00354E-004	0.00000E+000	1.65324E-004	2.40040E-001	4.13024E-001	3.57610E+000	9	...........
	14	0.2	4.18538E-001	4.01843E-004	0.00000E+000	1.68187E-004	2.40040E-001	4.18619E-001	3.57610E+000	9	...........
	15	0.213333	4.24069E-001	3.99878E-004	0.00000E+000	1.69576E-004	2.40040E-001	4.24152E-001	3.57610E+000	9	...........
	16	0.226667	4.29560E-001	4.02180E-004	0.00000E+000	1.72760E-004	2.40040E-001	4.29644E-001	3.57610E+000	9	...........
	17	0.24	4.34982E-001	4.01162E-004	0.00000E+000	1.74498E-004	2.40040E-001	4.35069E-001	3.57610E+000	9	...........
	18	0.253333	4.40378E-001	4.01339E-004	0.00000E+000	1.76741E-004	2.40040E-001	4.40467E-001	3.57610E+000	9	...........
	19	0.266667	4.45713E-001	4.03151E-004	0.00000E+000	1.79689E-004	2.40040E-001	4.45800E-001	3.57610E+000	9	...........
	20	0.28	4.51124E-001	4.00378E-004	0.00000E+000	1.80620E-004	2.40040E-001	4.51206E-001	3.57610E+000	9	...........
	21	0.293333	4.56446E-001	4.01019E-004	0.00000E+000	1.83044E-004	2.40040E-001	4.56530E-001	3.57610E+000	9	...........
	22	0.306667	4.61709E-001	4.00184E-004	0.00000E+000	1.84769E-004	2.40040E-001	4.61792E-001	3.57610E+000	9	...........
	23	0.32	4.66814E-001	4.01006E-004	0.00000E+000	1.87196E-004	2.40040E-001	4.66901E-001	3.57610E+000	9	...........
	24	0.333333	4.72007E-001	4.01271E-004	0.00000E+000	1.89403E-004	2.40040E-001	4.72101E-001	3.57610E+000	9	...........
	25	0.346667	4.77231E-001	4.01372E-004	0.00000E+000	1.91547E-004	2.40040E-001	4.77324E-001	3.57610E+000	9	...........
	26	0.36	4.82462E-001	4.00695E-004	0.00000E+000	1.93320E-004	2.40040E-001	4.82547E-001	3.57610E+000	9	...........
	27	0.373333	4.87564E-001	3.99877E-004	0.00000E+000	1.94966E-004	2.40040E-001	4.87650E-001	3.57610E+000	9	...........
	28	0.386667	4.92736E-001	4.01098E-004	0.00000E+000	1.97635E-004	2.40040E-001	4.92830E-001	3.57610E+000	9	...........
	29	0.4	4.97882E-001	4.01745E-004	0.00000E+000	2.00022E-004	2.40040E-001	4.97974E-001	3.57610E+000	9	...........
	30	0.413333	5.02946E-001	4.00362E-004	0.00000E+000	2.01360E-004	2.40040E-001	5.03042E-001	3.57610E+000	9	...........
	31	0.426667	5.07966E-001	4.00760E-004	0.00000E+000	2.03572E-004	2.40040E-001	5.08067E-001	3.57610E+000	9	...........
	32	0.44	5.12994E-001	4.00761E-004	0.00000E+000	2.05588E-004	2.40040E-001	5.13092E-001	3.57610E+000	9	...........
	33	0.453333	5.18023E-001	4.00825E-004	0.00000E+000	2.07637E-004	2.40040E-001	5.18120E-001	3.57610E+000	9	...........
	34	0.466667	5.23059E-001	4.00775E-004	0.00000E+000	2.09629E-004	2.40040E-001	5.23162E-001	3.57610E+000	9	...........
	35	0.48	5.28033E-001	4.00989E-004	0.00000E+000	2.11735E-004	2.40040E-001	5.28135E-001	3.57689E+000	9	...........
	36	0.493333	5.32851E-001	4.00625E-004	0.00000E+000	2.13473E-004	2.40040E-001	5.32985E-001	3.57700E+000	9	...........
	37	0.506667	5.37688E-001	4.02679E-004	0.00000E+000	2.16515E-004	2.40040E-001	5.37899E-001	3.57700E+000	9	...........
	38	0.52	5.42604E-001	3.99436E-004	0.00000E+000	2.16736E-004	2.40040E-001	5.42832E-001	3.57700E+000	9	...........
	39	0.533333	5.47598E-001	4.01648E-004	0.00000E+000	2.19942E-004	2.40040E-001	5.47812E-001	3.57700E+000	9	...........
	40	0.546667	5.52483E-001	4.00227E-004	0.00000E+000	2.21119E-004	2.40040E-001	5.52710E-001	3.57700E+000	9	...........
	41	0.56	5.57359E-001	4.01200E-004	0.00000E+000	2.23612E-004	2.40040E-001	5.57600E-001	3.57700E+000	9	...........
	42	0.573333	5.62272E-001	4.01600E-004	0.00000E+000	2.25809E-004	2.40040E-001	5.62510E-001	3.57700E+000	9	...........
	43	0.586667	5.67137E-001	4.01251E-004	0.00000E+000	2.27565E-004	2.40040E-001	5.67355E-001	3.57700E+000	9	...........
	44	0.6	5.71957E-001	4.00574E-004	0.00000E+000	2.29111E-004	2.40040E-001	5.72177E-001	3.57700E+000	9	...........
	45	0.613333	5.76651E-001	4.00562E-004	0.00000E+000	2.30984E-004	2.40040E-001	5.76903E-001	3.57700E+000	9	...........
	46	0.626667	5.81451E-001	4.01225E-004	0.00000E+000	2.33293E-004	2.40040E-001	5.81688E-001	3.57700E+000	9	...........
	47	0.64	5.86263E-001	4.00748E-004	0.00000E+000	2.34944E-004	2.40040E-001	5.86510E-001	3.57700E+000	9	...........
	48	0.653333	5.91034E-001	4.03480E-004	0.00000E+000	2.38470E-004	2.40040E-001	5.91268E-001	3.57700E+000	9	...........
	49	0.666667	5.95784E-001	4.00604E-004	0.00000E+000	2.38674E-004	2.40040E-001	5.95988E-001	3.57700E+000	9	...........
	50	0.68	6.00655E-001	4.01271E-004	0.00000E+000	2.41025E-004	2.40040E-001	6.00866E-001	3.57700E+000	9	...........
	51	0.693333	6.05420E-001	4.00729E-004	0.00000E+000	2.42610E-004	2.40040E-001	6.05666E-001	3.57700E+000	9	...........
	52	0.706667	6.10207E-001	4.00220E-004	0.00000E+000	2.44217E-004	2.40040E-001	6.10438E-001	3.57700E+000	9	...........
	53	0.72	6.15004E-001	4.01426E-004	0.00000E+000	2.46879E-004	2.40040E-001	6.15232E-001	3.57700E+000	9	...........
	54	0.733333	6.19728E-001	4.00967E-004	0.00000E+000	2.48490E-004	2.40040E-001	6.19936E-001	3.57700E+000	9	...........
	55	0.746667	6.24493E-001	4.01087E-004	0.00000E+000	2.50476E-004	2.40040E-001	6.24703E-001	3.57700E+000	9	...........
	56	0.76	6.29181E-001	4.01869E-004	0.00000E+000	2.52849E-004	2.40040E-001	6.29398E-001	3.57700E+000	9	...........
	57	0.773333	6.33896E-001	4.01276E-004	0.00000E+000	2.54367E-004	2.40040E-001	6.34137E-001	3.57700E+000	9	...........
	58	0.786667	6.38547E-001	4.00931E-004	0.00000E+000	2.56014E-004	2.40040E-001	6.38776E-001	3.57700E+000	9	...........
	59	0.8	6.43244E-001	4.00222E-004	0.00000E+000	2.57440E-004	2.40040E-001	6.43463E-001	3.57700E+000	9	...........
	60	0.813333	6.47910E-001	4.00875E-004	0.00000E+000	2.59731E-004	2.40040E-001	6.48109E-001	3.57700E+000	9	...........
	61	0.826667	6.52593E-001	4.01767E-004	0.00000E+000	2.62190E-004	2.40040E-001	6.52814E-001	3.57700E+000	9	...........
	62	0.84	6.57269E-001	4.02515E-004	0.00000E+000	2.64561E-004	2.40040E-001	6.57468E-001	3.57700E+000	9	...........
	63	0.853333	6.61942E-001	4.01486E-004	0.00000E+000	2.65760E-004	2.40040E-001	6.62165E-001	3.57700E+000	9	...........
	64	0.866667	6.66638E-001	4.00469E-004	0.00000E+000	2.66968E-004	2.40040E-001	6.66857E-001	3.57700E+000	9	...........
	65	0.88	6.71307E-001	4.01161E-004	0.00000E+000	2.69302E-004	2.40040E-001	6.71495E-001	3.57700E+000	9	...........
	66	0.893333	6.75937E-001	4.01867E-004	0.00000E+000	2.71637E-004	2.40040E-001	6.76154E-001	3.57700E+000	9	...........
	67	0.906667	6.80500E-001	4.00441E-004	0.00000E+000	2.72500E-004	2.40040E-001	6.80728E-001	3.57700E+000	9	...........
	68	0.92	6.85075E-001	4.01763E-004	0.00000E+000	2.75238E-004	2.40040E-001	6.85287E-001	3.57700E+000	9	...........
	69	0.933333	6.89661E-001	4.02344E-004	0.00000E+000	2.77481E-004	2.40040E-001	6.89850E-001	3.57700E+000	9	...........
	70	0.946667	6.94286E-001	4.01037E-004	0.00000E+000	2.78434E-004	2.40040E-001	6.94445E-001	3.57700E+000	9	...........
	71	0.96	6.98895E-001	3.99863E-004	0.00000E+000	2.79462E-004	2.40040E-001	6.99091E-001	3.57700E+000	9	...........
	72	0.97333	7.03463E-001	4.01589E-004	0.00000E+000	2.82503E-004	2.40040E-001	7.03645E-001	3.57700E+000	9	...........
	73	0.98667	7.08012E-001	4.01311E-004	0.00000E+000	2.84133E-004	2.40040E-001	7.08230E-001	3.57700E+000	9	...........
	74	1	7.12502E-001	4.00285E-004	0.00000E+000	2.85204E-004	2.40040E-001	7.12734E-001	3.57700E+000	9	...........
	75	1.01333	7.17075E-001	4.01036E-004	0.00000E+000	2.87573E-004	2.40040E-001	7.17308E-001	3.57700E+000	9	...........
	76	1.02667	7.21604E-001	3.99699E-004	0.00000E+000	2.88424E-004	2.40040E-001	7.21839E-001	3.57700E+000	9	...........
	77	1.04	7.26135E-001	4.00738E-004	0.00000E+000	2.90990E-004	2.40040E-001	7.26350E-001	3.57700E+000	9	...........
	78	1.05333	7.30702E-001	4.00909E-004	0.00000E+000	2.92944E-004	2.40040E-001	7.30939E-001	3.57700E+000	9	...........
	79	1.06667	7.35218E-001	4.00851E-004	0.00000E+000	2.94713E-004	2.40040E-001	7.35460E-001	3.57700E+000	9	...........
	80	1.08	7.39734E-001	4.01531E-004	0.00000E+000	2.97026E-004	2.40040E-001	7.39946E-001	3.57700E+000	9	...........
	81	1.09333	7.44185E-001	4.00421E-004	0.00000E+000	2.97987E-004	2.40040E-001	7.44389E-001	3.57700E+000	9	...........
	82	1.10667	7.48644E-001	4.00585E-004	0.00000E+000	2.99895E-004	2.40040E-001	7.48844E-001	3.57700E+000	9	...........
	83	1.12	7.53071E-001	4.00766E-004	0.00000E+000	3.01805E-004	2.40040E-001	7.53286E-001	3.57700E+000	9	...........
	84	1.13333	7.57468E-001	4.01053E-004	0.00000E+000	3.03785E-004	2.40040E-001	7.57662E-001	3.57700E+000	9	...........
	85	1.14667	7.61828E-001	4.00707E-004	0.00000E+000	3.05270E-004	2.40040E-001	7.62032E-001	3.57700E+000	9	...........
	86	1.16	7.66145E-001	4.02958E-004	0.00000E+000	3.08724E-004	2.40040E-001	7.66381E-001	3.57700E+000	9	...........
	87	1.17333	7.70541E-001	4.02662E-004	0.00000E+000	3.10268E-004	2.40040E-001	7.70769E-001	3.57700E+000	9	...........
	88	1.18667	7.74973E-001	4.01930E-004	0.00000E+000	3.11485E-004	2.40040E-001	7.75172E-001	3.57700E+000	9	...........
	89	1.2	7.79328E-001	4.00991E-004	0.00000E+000	3.12503E-004	2.40040E-001	7.79519E-001	3.57700E+000	9	...........
	90	1.21333	7.83634E-001	4.00292E-004	0.00000E+000	3.13682E-004	2.40040E-001	7.83831E-001	3.57700E+000	9	...........
	91	1.22667	7.87938E-001	4.01297E-004	0.00000E+000	3.16197E-004	2.40040E-001	7.88155E-001	3.57700E+000	9	...........
	92	1.24	7.92210E-001	4.00812E-004	0.00000E+000	3.17527E-004	2.40040E-001	7.92442E-001	3.57700E+000	9	...........
	93	1.25333	7.96458E-001	4.01479E-004	0.00000E+000	3.19762E-004	2.40040E-001	7.96685E-001	3.57700E+000	9	...........
	94	1.26667	8.00692E-001	4.00027E-004	0.00000E+000	3.20299E-004	2.40040E-001	8.00932E-001	3.57700E+000	9	...........
	95	1.28	8.04965E-001	4.00300E-004	0.00000E+000	3.22228E-004	2.40040E-001	8.05208E-001	3.57700E+000	9	...........
	96	1.29333	8.09205E-001	4.00417E-004	0.00000E+000	3.24019E-004	2.40040E-001	8.09460E-001	3.57700E+000	9	...........
	97	1.30667	8.13385E-001	4.00175E-004	0.00000E+000	3.25496E-004	2.40040E-001	8.13665E-001	3.57700E+000	9	...........
	98	1.32	8.17569E-001	4.00917E-004	0.00000E+000	3.27777E-004	2.40040E-001	8.17845E-001	3.57700E+000	9	...........
	99	1.33333	8.21804E-001	4.00831E-004	0.00000E+000	3.29405E-004	2.40040E-001	8.22071E-001	3.57700E+000	9	...........
	100	1.34667	8.25952E-001	4.01913E-004	0.00000E+000	3.31961E-004	2.40040E-001	8.26213E-001	3.57700E+000	9	...........
	101	1.36	8.30067E-001	4.00566E-004	0.00000E+000	3.32496E-004	2.40040E-001	8.30351E-001	3.57700E+000	9	...........
	102	1.37333	8.34229E-001	4.02100E-004	0.00000E+000	3.35444E-004	2.40040E-001	8.34502E-001	3.57700E+000	9	...........
	103	1.38667	8.38359E-001	4.00522E-004	0.00000E+000	3.35781E-004	2.40040E-001	8.38632E-001	3.57700E+000	9	...........
	104	1.4	8.42488E-001	3.99769E-004	0.00000E+000	3.36800E-004	2.40040E-001	8.42773E-001	3.57700E+000	9	...........
	105	1.41333	8.46553E-001	4.02639E-004	0.00000E+000	3.40855E-004	2.40040E-001	8.46841E-001	3.57700E+000	9	...........
	106	1.42667	8.50577E-001	4.01716E-004	0.00000E+000	3.41690E-004	2.40040E-001	8.50867E-001	3.57700E+000	9	...........
	107	1.44	8.54565E-001	4.01264E-004	0.00000E+000	3.42906E-004	2.40040E-001	8.54872E-001	3.57700E+000	9	...........
	108	1.45333	8.58541E-001	4.00426E-004	0.00000E+000	3.43782E-004	2.40040E-001	8.58838E-001	3.57700E+000	9	...........
	109	1.46667	8.62480E-001	4.00897E-004	0.00000E+000	3.45766E-004	2.40040E-001	8.62789E-001	3.57700E+000	9	...........
	110	1.48	8.66455E-001	4.00905E-004	0.00000E+000	3.47367E-004	2.40040E-001	8.66788E-001	3.57639E+000	9	...........
	111	1.49333	8.70459E-001	4.01729E-004	0.00000E+000	3.49688E-004	2.40040E-001	8.70792E-001	3.57630E+000	9	...........
	112	1.50667	8.74397E-001	4.00132E-004	0.00000E+000	3.49875E-004	2.40040E-001	8.74709E-001	3.57630E+000	9	...........
	113	1.52	8.78269E-001	4.01892E-004	0.00000E+000	3.52969E-004	2.40040E-001	8.78572E-001	3.57630E+000	9	...........
	114	1.53333	8.82146E-001	4.02671E-004	0.00000E+000	3.55215E-004	2.40040E-001	8.82477E-001	3.57630E+000	9	...........
	115	1.54667	8.86004E-001	4.01453E-004	0.00000E+000	3.55689E-004	2.40040E-001	8.86318E-001	3.57630E+000	9	...........
	116	1.56	8.89787E-001	4.00019E-004	0.00000E+000	3.55931E-004	2.40040E-001	8.90121E-001	3.57630E+000	9	...........
	117	1.57333	8.93549E-001	4.00355E-004	0.00000E+000	3.57737E-004	2.40040E-001	8.93894E-001	3.57630E+000	9	...........
	118	1.58667	8.97321E-001	4.01349E-004	0.00000E+000	3.60139E-004	2.40040E-001	8.97655E-001	3.57630E+000	9	...........
	119	1.6	9.01086E-001	4.01053E-004	0.00000E+000	3.61383E-004	2.40040E-001	9.01419E-001	3.57630E+000	9	...........
	120	1.61333	9.04741E-001	4.01361E-004	0.00000E+000	3.63127E-004	2.40040E-001	9.05095E-001	3.57630E+000	9	...........
	121	1.62667	9.08430E-001	4.00274E-004	0.00000E+000	3.63621E-004	2.40040E-001	9.08738E-001	3.57630E+000	9	...........
	122	1.64	9.12119E-001	4.02147E-004	0.00000E+000	3.66806E-004	2.40040E-001	9.12424E-001	3.57630E+000	9	...........
	123	1.65333	9.15781E-001	4.00850E-004	0.00000E+000	3.67091E-004	2.40040E-001	9.16109E-001	3.57630E+000	9	...........
	124	1.66667	9.19379E-001	4.00991E-004	0.00000E+000	3.68662E-004	2.40040E-001	9.19689E-001	3.57630E+000	9	...........
	125	1.68	9.23016E-001	4.00624E-004	0.00000E+000	3.69783E-004	2.40040E-001	9.23310E-001	3.57630E+000	9	...........
	126	1.69333	9.26521E-001	4.01067E-004	0.00000E+000	3.71597E-004	2.40040E-001	9.26824E-001	3.57630E+000	9	...........
	127	1.70667	9.30184E-001	4.00042E-004	0.00000E+000	3.72112E-004	2.40040E-001	9.30482E-001	3.57630E+000	9	...........
	128	1.72	9.33749E-001	4.01394E-004	0.00000E+000	3.74801E-004	2.40040E-001	9.34084E-001	3.57630E+000	9	...........
	129	1.73333	9.37267E-001	4.00414E-004	0.00000E+000	3.75294E-004	2.40040E-001	9.37594E-001	3.57630E+000	9	...........
	130	1.74667	9.40663E-001	4.00395E-004	0.00000E+000	3.76637E-004	2.40040E-001	9.40975E-001	3.57630E+000	9	...........
	131	1.76	9.44028E-001	4.00649E-004	0.00000E+000	3.78224E-004	2.40040E-001	9.44353E-001	3.57630E+000	9	...........
	132	1.77333	9.47432E-001	4.00451E-004	0.00000E+000	3.79400E-004	2.40040E-001	9.47763E-001	3.57630E+000	9	...........
	133	1.78667	9.50872E-001	3.99211E-004	0.00000E+000	3.79599E-004	2.40040E-001	9.51179E-001	3.57630E+000	9	...........
	134	1.8	9.54227E-001	4.01088E-004	0.00000E+000	3.82729E-004	2.40040E-001	9.54526E-001	3.57630E+000	9	...........
	135	1.81333	9.57549E-001	4.00448E-004	0.00000E+000	3.83449E-004	2.40040E-001	9.57863E-001	3.57630E+000	9	...........
	136	1.82667	9.60825E-001	4.01498E-004	0.00000E+000	3.85770E-004	2.40040E-001	9.61146E-001	3.57630E+000	9	...........
	137	1.84	9.64064E-001	4.00929E-004	0.00000E+000	3.86522E-004	2.40040E-001	9.64381E-001	3.57630E+000	9	...........
	138	1.85333	9.67304E-001	4.02028E-004	0.00000E+000	3.88883E-004	2.40040E-001	9.67599E-001	3.57630E+000	9	...........
	139	1.86667	9.70486E-001	4.00396E-004	0.00000E+000	3.88579E-004	2.40040E-001	9.70844E-001	3.57630E+000	9	...........
	140	1.88	9.73709E-001	4.00639E-004	0.00000E+000	3.90105E-004	2.40040E-001	9.73998E-001	3.57630E+000	9	...........
	141	1.89333	9.76806E-001	4.00319E-004	0.00000E+000	3.91034E-004	2.40040E-001	9.77109E-001	3.57630E+000	9	...........
	142	1.90667	9.79834E-001	3.99694E-004	0.00000E+000	3.91633E-004	2.40040E-001	9.80130E-001	3.57630E+000	9	...........
	143	1.92	9.82896E-001	4.01796E-004	0.00000E+000	3.94924E-004	2.40040E-001	9.83204E-001	3.57630E+000	9	...........
	144	1.93333	9.85965E-001	4.00615E-004	0.00000E+000	3.94992E-004	2.40040E-001	9.86267E-001	3.57630E+000	9	...........
	145	1.94667	9.88934E-001	4.01758E-004	0.00000E+000	3.97312E-004	2.40040E-001	9.89236E-001	3.57630E+000	9	...........
	146	1.96	9.91913E-001	4.00588E-004	0.00000E+000	3.97348E-004	2.40040E-001	9.92196E-001	3.57630E+000	9	...........
	147	1.97333	9.94818E-001	4.00792E-004	0.00000E+000	3.98715E-004	2.40040E-001	9.95095E-001	3.57630E+000	9	...........
	148	1.98667	9.97704E-001	4.00512E-004	0.00000E+000	3.99592E-004	2.40040E-001	9.98005E-001	3.57630E+000	9	...........
	149	1.99333	9.99819E-001	4.00996E-004	0.00000E+000	4.00923E-004	2.40040E-001	1.00015E+000	3.57630E+000	9	...........
STARTTIMEOFFSET	QUANT	123.785	Start Time Offset (s)
