EXPLAIN
TAG	PWR800_CHARGE
TITLE	LABEL	PWR Cyclic Charge Discharge (Cell) - Charge Step	Test &Identifier
DATE	LABEL	12-7-2017	Date
TIME	LABEL	14:44:31	Time
NOTES	NOTES	3	&Notes...
	supercap test cell
	0.4mg
	6M KOH
PSTAT	PSTAT	IFC5000-01520	Potentiostat
CAPACITY	QUANT	1.00000E-003	Capacity (A-hr)
CELLTYPE	SELECTOR	1	&Cell Type
WORKINGCONNECTION	SELECTOR	0	&Working Lead
MAXCHARGETIME	VARIABLEANDUNITS	1.00000E+002	s	1.00000E+002	second(s)	Max &Charge Time
CHARGECURRENT	QUANT	4.00000E-004	&Charge Current (A) 
VOLTAGEFINISH	TWOPARAM	F	1.00000E-003	3.60000E+003	&Voltage Finish	 I (A) < 	Max Time(s)
SAMPLETIME	QUANT	1.00000E-002	Sa&mple Period (s)
CHARGESTOPAT1	MULTIPARAM	4	1.00000E+000	Charge Stop At &1	Voltage > Limit	V
CHARGESTOPAT2	MULTIPARAM	0	0.00000E+000	Charge Stop At &2	None	N/A
AESBHCSELECTOR	TOGGLE	F	Save Both Half Cells
IRCOMP	TOGGLE	F	IR &Measure
EOC	QUANT	0	Open Circuit (V)
SEQUENCER	TOGGLE	TRUE	Run as Sequence
PSTATMODEL	IQUANT	53	Pstat Model
PSTATSECTION	LABEL	IFC5000-01520	Pstat Section
PSTATSERIALNO	LABEL	01520	Pstat Serial Number
CTRLMODE	IQUANT	0	Control Mode
ELECTROMETER	IQUANT	1	RE=0 or CS=1
IESTAB	IQUANT	0	I/E Stability
CASPEED	IQUANT	4	Control Amp Speed
CONVENTION	IQUANT	1	Current Convention
ICHRANGE	IQUANT	2	Ich Range
ICHRANGEMODE	TOGGLE	T	Ich Auto Range
ICHOFFSETENABLE	TOGGLE	F	Ich Offset Enable
ICHOFFSET	QUANT	0	Ich Offset (V)
ICHFILTER	IQUANT	1	Ich Filter
VCHRANGE	IQUANT	2	Vch Range
VCHRANGEMODE	TOGGLE	T	Vch Auto Range
VCHOFFSETENABLE	TOGGLE	F	Vch Offset Enable
VCHOFFSET	QUANT	0	Vch Offset (V)
VCHFILTER	IQUANT	1	Vch Filter
IERANGELOWERLIMIT	IQUANT	9	I/E Range Lower Limit
IERANGEMODE	TOGGLE	F	I/E AutoRange
IERANGE	IQUANT	9	I/E Range
ACHSELECT	IQUANT	1	Ach Select
ACHRANGE	IQUANT	2	Ach Range
ACHOFFSETENABLE	TOGGLE	F	Ach Offset Enable
ACHOFFSET	QUANT	0	Ach Offset (V)
ACHFILTER	IQUANT	1	Ach Filter
CABLEID	IQUANT	14	Cable ID
DCCALDATE	LABEL	5-7-2017	DC Calibration Date
ACCALDATE	LABEL	12/3/2015	AC Calibration Date
FRAMEWORKVERSION	QUANT	7.01	Framework Version
INSTRUMENTVERSION	LABEL	4.00	Instrument Version
CURVE	TABLE	122
	Pt	T	Vf	Im	Vu	Pwr	Sig	Ach	Temp	IERange	Over
	#	s	V	A	V	W	V	V	deg C	#	bits
	0	0.013333	3.57073E-001	4.01158E-004	0.00000E+000	1.43243E-004	2.40040E-001	3.57167E-001	3.57620E+000	9	...........
	1	0.026667	3.68214E-001	4.01420E-004	0.00000E+000	1.47809E-004	2.40040E-001	3.68300E-001	3.57620E+000	9	...........
	2	0.04	3.77963E-001	4.00134E-004	0.00000E+000	1.51236E-004	2.40040E-001	3.78039E-001	3.57620E+000	9	...........
	3	0.053333	3.86859E-001	4.01118E-004	0.00000E+000	1.55176E-004	2.40040E-001	3.86941E-001	3.57620E+000	9	...........
	4	0.066667	3.95185E-001	4.00424E-004	0.00000E+000	1.58242E-004	2.40040E-001	3.95267E-001	3.57620E+000	9	...........
	5	0.08	4.03132E-001	4.00616E-004	0.00000E+000	1.61501E-004	2.40040E-001	4.03215E-001	3.57620E+000	9	...........
	6	0.093333	4.10645E-001	4.01070E-004	0.00000E+000	1.64698E-004	2.40040E-001	4.10728E-001	3.57620E+000	9	...........
	7	0.106667	4.18011E-001	4.01575E-004	0.00000E+000	1.67863E-004	2.40040E-001	4.18099E-001	3.57620E+000	9	...........
	8	0.12	4.25227E-001	4.01098E-004	0.00000E+000	1.70558E-004	2.40040E-001	4.25318E-001	3.57620E+000	9	...........
	9	0.133333	4.32185E-001	4.00602E-004	0.00000E+000	1.73134E-004	2.40040E-001	4.32281E-001	3.57620E+000	9	...........
	10	0.146667	4.39074E-001	4.00222E-004	0.00000E+000	1.75727E-004	2.40040E-001	4.39170E-001	3.57620E+000	9	...........
	11	0.16	4.45807E-001	4.01793E-004	0.00000E+000	1.79122E-004	2.40040E-001	4.45898E-001	3.57620E+000	9	...........
	12	0.173333	4.52439E-001	4.00667E-004	0.00000E+000	1.81277E-004	2.40040E-001	4.52534E-001	3.57620E+000	9	...........
	13	0.186667	4.58973E-001	3.98851E-004	0.00000E+000	1.83062E-004	2.40040E-001	4.59061E-001	3.57620E+000	9	...........
	14	0.2	4.65407E-001	4.00363E-004	0.00000E+000	1.86331E-004	2.40040E-001	4.65498E-001	3.57620E+000	9	...........
	15	0.213333	4.71820E-001	3.99925E-004	0.00000E+000	1.88692E-004	2.40040E-001	4.71921E-001	3.57620E+000	9	...........
	16	0.226667	4.78159E-001	4.00740E-004	0.00000E+000	1.91617E-004	2.40040E-001	4.78260E-001	3.57620E+000	9	...........
	17	0.24	4.84480E-001	4.01456E-004	0.00000E+000	1.94497E-004	2.40040E-001	4.84577E-001	3.57620E+000	9	...........
	18	0.253333	4.90680E-001	4.01707E-004	0.00000E+000	1.97109E-004	2.40040E-001	4.90784E-001	3.57620E+000	9	...........
	19	0.266667	4.96803E-001	4.02749E-004	0.00000E+000	2.00087E-004	2.40040E-001	4.96903E-001	3.57620E+000	9	...........
	20	0.28	5.02947E-001	4.01370E-004	0.00000E+000	2.01868E-004	2.40040E-001	5.03057E-001	3.57620E+000	9	...........
	21	0.293333	5.08978E-001	4.00243E-004	0.00000E+000	2.03715E-004	2.40040E-001	5.09085E-001	3.57639E+000	9	...........
	22	0.306667	5.15115E-001	4.01317E-004	0.00000E+000	2.06724E-004	2.40040E-001	5.15226E-001	3.57650E+000	9	...........
	23	0.32	5.21162E-001	4.00380E-004	0.00000E+000	2.08663E-004	2.40040E-001	5.21273E-001	3.57650E+000	9	...........
	24	0.333333	5.27114E-001	4.01433E-004	0.00000E+000	2.11601E-004	2.40040E-001	5.27222E-001	3.57650E+000	9	...........
	25	0.346667	5.33020E-001	4.01265E-004	0.00000E+000	2.13882E-004	2.40040E-001	5.33144E-001	3.57650E+000	9	...........
	26	0.36	5.38834E-001	4.01052E-004	0.00000E+000	2.16101E-004	2.40040E-001	5.39062E-001	3.57650E+000	9	...........
	27	0.373333	5.44783E-001	4.00467E-004	0.00000E+000	2.18167E-004	2.40040E-001	5.45035E-001	3.57650E+000	9	...........
	28	0.386667	5.50655E-001	3.99969E-004	0.00000E+000	2.20245E-004	2.40040E-001	5.50881E-001	3.57650E+000	9	...........
	29	0.4	5.56490E-001	4.02216E-004	0.00000E+000	2.23829E-004	2.40040E-001	5.56747E-001	3.57650E+000	9	...........
	30	0.413333	5.62386E-001	3.99824E-004	0.00000E+000	2.24855E-004	2.40040E-001	5.62621E-001	3.57650E+000	9	...........
	31	0.426667	5.68324E-001	4.00326E-004	0.00000E+000	2.27515E-004	2.40040E-001	5.68510E-001	3.57650E+000	9	...........
	32	0.44	5.73969E-001	4.01691E-004	0.00000E+000	2.30558E-004	2.40040E-001	5.74183E-001	3.57650E+000	9	...........
	33	0.453333	5.79664E-001	4.01177E-004	0.00000E+000	2.32548E-004	2.40040E-001	5.79892E-001	3.57650E+000	9	...........
	34	0.466667	5.85409E-001	3.99793E-004	0.00000E+000	2.34042E-004	2.40040E-001	5.85658E-001	3.57650E+000	9	...........
	35	0.48	5.91114E-001	4.00031E-004	0.00000E+000	2.36464E-004	2.40040E-001	5.91347E-001	3.57650E+000	9	...........
	36	0.493333	5.96831E-001	4.01526E-004	0.00000E+000	2.39643E-004	2.40040E-001	5.97061E-001	3.57650E+000	9	...........
	37	0.506667	6.02385E-001	4.01515E-004	0.00000E+000	2.41867E-004	2.40040E-001	6.02691E-001	3.57650E+000	9	...........
	38	0.52	6.08030E-001	4.00565E-004	0.00000E+000	2.43555E-004	2.40040E-001	6.08330E-001	3.57650E+000	9	...........
	39	0.533333	6.13736E-001	4.00662E-004	0.00000E+000	2.45900E-004	2.40040E-001	6.13996E-001	3.57650E+000	9	...........
	40	0.546667	6.19474E-001	4.01014E-004	0.00000E+000	2.48418E-004	2.40040E-001	6.19694E-001	3.57650E+000	9	...........
	41	0.56	6.25151E-001	4.01045E-004	0.00000E+000	2.50714E-004	2.40040E-001	6.25384E-001	3.57650E+000	9	...........
	42	0.573333	6.30715E-001	4.00404E-004	0.00000E+000	2.52541E-004	2.40040E-001	6.30979E-001	3.57650E+000	9	...........
	43	0.586667	6.36290E-001	3.99437E-004	0.00000E+000	2.54158E-004	2.40040E-001	6.36546E-001	3.57650E+000	9	...........
	44	0.6	6.41847E-001	4.00681E-004	0.00000E+000	2.57176E-004	2.40040E-001	6.42104E-001	3.57650E+000	9	...........
	45	0.613333	6.47372E-001	4.00644E-004	0.00000E+000	2.59366E-004	2.40040E-001	6.47621E-001	3.57650E+000	9	...........
	46	0.626667	6.52886E-001	4.01456E-004	0.00000E+000	2.62105E-004	2.40040E-001	6.53127E-001	3.57650E+000	9	...........
	47	0.64	6.58460E-001	3.99236E-004	0.00000E+000	2.62881E-004	2.40040E-001	6.58726E-001	3.57650E+000	9	...........
	48	0.653333	6.63996E-001	4.02519E-004	0.00000E+000	2.67271E-004	2.40040E-001	6.64263E-001	3.57650E+000	9	...........
	49	0.666667	6.69485E-001	3.99781E-004	0.00000E+000	2.67648E-004	2.40040E-001	6.69742E-001	3.57650E+000	9	...........
	50	0.68	6.74932E-001	4.02021E-004	0.00000E+000	2.71337E-004	2.40040E-001	6.75183E-001	3.57650E+000	9	...........
	51	0.693333	6.80358E-001	4.01601E-004	0.00000E+000	2.73233E-004	2.40040E-001	6.80647E-001	3.57650E+000	9	...........
	52	0.706667	6.85819E-001	3.98744E-004	0.00000E+000	2.73466E-004	2.40040E-001	6.86087E-001	3.57650E+000	9	...........
	53	0.72	6.91224E-001	4.01850E-004	0.00000E+000	2.77769E-004	2.40040E-001	6.91499E-001	3.57650E+000	9	...........
	54	0.733333	6.96606E-001	4.01416E-004	0.00000E+000	2.79629E-004	2.40040E-001	6.96842E-001	3.57650E+000	9	...........
	55	0.746667	7.02013E-001	4.02049E-004	0.00000E+000	2.82244E-004	2.40040E-001	7.02235E-001	3.57650E+000	9	...........
	56	0.76	7.07354E-001	4.00482E-004	0.00000E+000	2.83283E-004	2.40040E-001	7.07586E-001	3.57650E+000	9	...........
	57	0.773333	7.12697E-001	3.99676E-004	0.00000E+000	2.84848E-004	2.40040E-001	7.12959E-001	3.57650E+000	9	...........
	58	0.786667	7.18098E-001	4.00728E-004	0.00000E+000	2.87762E-004	2.40040E-001	7.18299E-001	3.57650E+000	9	...........
	59	0.8	7.23380E-001	4.00187E-004	0.00000E+000	2.89487E-004	2.40040E-001	7.23598E-001	3.57650E+000	9	...........
	60	0.813333	7.28694E-001	4.00587E-004	0.00000E+000	2.91905E-004	2.40040E-001	7.28935E-001	3.57650E+000	9	...........
	61	0.826667	7.34011E-001	4.00720E-004	0.00000E+000	2.94133E-004	2.40040E-001	7.34228E-001	3.57650E+000	9	...........
	62	0.84	7.39287E-001	4.00065E-004	0.00000E+000	2.95763E-004	2.40040E-001	7.39515E-001	3.57650E+000	9	...........
	63	0.853333	7.44602E-001	4.00265E-004	0.00000E+000	2.98038E-004	2.40040E-001	7.44849E-001	3.57650E+000	9	...........
	64	0.866667	7.49757E-001	4.00626E-004	0.00000E+000	3.00372E-004	2.40040E-001	7.49992E-001	3.57650E+000	9	...........
	65	0.88	7.54884E-001	4.00351E-004	0.00000E+000	3.02219E-004	2.40040E-001	7.55140E-001	3.57650E+000	9	...........
	66	0.893333	7.59999E-001	4.01086E-004	0.00000E+000	3.04825E-004	2.40040E-001	7.60252E-001	3.57650E+000	9	...........
	67	0.906667	7.65104E-001	4.00870E-004	0.00000E+000	3.06707E-004	2.40040E-001	7.65361E-001	3.57650E+000	9	...........
	68	0.92	7.70309E-001	4.01971E-004	0.00000E+000	3.09642E-004	2.40040E-001	7.70527E-001	3.57650E+000	9	...........
	69	0.933333	7.75463E-001	4.00656E-004	0.00000E+000	3.10694E-004	2.40040E-001	7.75692E-001	3.57650E+000	9	...........
	70	0.946667	7.80584E-001	4.00806E-004	0.00000E+000	3.12863E-004	2.40040E-001	7.80820E-001	3.57650E+000	9	...........
	71	0.96	7.85693E-001	4.01811E-004	0.00000E+000	3.15700E-004	2.40040E-001	7.85921E-001	3.57650E+000	9	...........
	72	0.97333	7.90772E-001	4.01821E-004	0.00000E+000	3.17749E-004	2.40040E-001	7.91017E-001	3.57650E+000	9	...........
	73	0.98667	7.95821E-001	4.01602E-004	0.00000E+000	3.19603E-004	2.40040E-001	7.96051E-001	3.57650E+000	9	...........
	74	1	8.00736E-001	4.00674E-004	0.00000E+000	3.20834E-004	2.40040E-001	8.00972E-001	3.57650E+000	9	...........
	75	1.01333	8.05619E-001	3.99686E-004	0.00000E+000	3.21995E-004	2.40040E-001	8.05886E-001	3.57650E+000	9	...........
	76	1.02667	8.10566E-001	4.01382E-004	0.00000E+000	3.25346E-004	2.40040E-001	8.10827E-001	3.57650E+000	9	...........
	77	1.04	8.15477E-001	4.00467E-004	0.00000E+000	3.26571E-004	2.40040E-001	8.15750E-001	3.57650E+000	9	...........
	78	1.05333	8.20358E-001	4.01835E-004	0.00000E+000	3.29649E-004	2.40040E-001	8.20650E-001	3.57650E+000	9	...........
	79	1.06667	8.25274E-001	4.02221E-004	0.00000E+000	3.31943E-004	2.40040E-001	8.25553E-001	3.57650E+000	9	...........
	80	1.08	8.30106E-001	4.03049E-004	0.00000E+000	3.34573E-004	2.40040E-001	8.30423E-001	3.57650E+000	9	...........
	81	1.09333	8.34915E-001	4.00866E-004	0.00000E+000	3.34689E-004	2.40040E-001	8.35217E-001	3.57650E+000	9	...........
	82	1.10667	8.39652E-001	4.02327E-004	0.00000E+000	3.37814E-004	2.40040E-001	8.39973E-001	3.57650E+000	9	...........
	83	1.12	8.44432E-001	4.01294E-004	0.00000E+000	3.38866E-004	2.40040E-001	8.44756E-001	3.57650E+000	9	...........
	84	1.13333	8.49205E-001	4.00963E-004	0.00000E+000	3.40500E-004	2.40040E-001	8.49521E-001	3.57650E+000	9	...........
	85	1.14667	8.53863E-001	3.99507E-004	0.00000E+000	3.41125E-004	2.40040E-001	8.54182E-001	3.57650E+000	9	...........
	86	1.16	8.58535E-001	4.00950E-004	0.00000E+000	3.44230E-004	2.40040E-001	8.58871E-001	3.57650E+000	9	...........
	87	1.17333	8.63142E-001	3.99841E-004	0.00000E+000	3.45119E-004	2.40040E-001	8.63469E-001	3.57650E+000	9	...........
	88	1.18667	8.67710E-001	4.01110E-004	0.00000E+000	3.48047E-004	2.40040E-001	8.68071E-001	3.57650E+000	9	...........
	89	1.2	8.72293E-001	4.00931E-004	0.00000E+000	3.49730E-004	2.40040E-001	8.72627E-001	3.57650E+000	9	...........
	90	1.21333	8.76770E-001	4.02579E-004	0.00000E+000	3.52969E-004	2.40040E-001	8.77094E-001	3.57650E+000	9	...........
	91	1.22667	8.81278E-001	4.01076E-004	0.00000E+000	3.53460E-004	2.40040E-001	8.81596E-001	3.57650E+000	9	...........
	92	1.24	8.85820E-001	4.01429E-004	0.00000E+000	3.55594E-004	2.40040E-001	8.86153E-001	3.57650E+000	9	...........
	93	1.25333	8.90267E-001	4.00945E-004	0.00000E+000	3.56948E-004	2.40040E-001	8.90567E-001	3.57650E+000	9	...........
	94	1.26667	8.94652E-001	4.00541E-004	0.00000E+000	3.58345E-004	2.40040E-001	8.94992E-001	3.57650E+000	9	...........
	95	1.28	8.99026E-001	4.00620E-004	0.00000E+000	3.60168E-004	2.40040E-001	8.99347E-001	3.57650E+000	9	...........
	96	1.29333	9.03270E-001	4.00389E-004	0.00000E+000	3.61659E-004	2.40040E-001	9.03604E-001	3.57656E+000	9	...........
	97	1.30667	9.07603E-001	4.00893E-004	0.00000E+000	3.63852E-004	2.40040E-001	9.07925E-001	3.57660E+000	9	...........
	98	1.32	9.11842E-001	4.00426E-004	0.00000E+000	3.65125E-004	2.40040E-001	9.12174E-001	3.57660E+000	9	...........
	99	1.33333	9.16044E-001	3.99959E-004	0.00000E+000	3.66380E-004	2.40040E-001	9.16375E-001	3.57660E+000	9	...........
	100	1.34667	9.20283E-001	4.00092E-004	0.00000E+000	3.68198E-004	2.40040E-001	9.20585E-001	3.57660E+000	9	...........
	101	1.36	9.24499E-001	4.01102E-004	0.00000E+000	3.70819E-004	2.40040E-001	9.24779E-001	3.57660E+000	9	...........
	102	1.37333	9.28635E-001	4.00302E-004	0.00000E+000	3.71734E-004	2.40040E-001	9.28909E-001	3.57660E+000	9	...........
	103	1.38667	9.32709E-001	4.00495E-004	0.00000E+000	3.73545E-004	2.40040E-001	9.33000E-001	3.57660E+000	9	...........
	104	1.4	9.36779E-001	4.00266E-004	0.00000E+000	3.74960E-004	2.40040E-001	9.37093E-001	3.57660E+000	9	...........
	105	1.41333	9.40838E-001	4.00257E-004	0.00000E+000	3.76577E-004	2.40040E-001	9.41144E-001	3.57660E+000	9	...........
	106	1.42667	9.44789E-001	4.01896E-004	0.00000E+000	3.79707E-004	2.40040E-001	9.45083E-001	3.57660E+000	9	...........
	107	1.44	9.48763E-001	4.00998E-004	0.00000E+000	3.80452E-004	2.40040E-001	9.49051E-001	3.57660E+000	9	...........
	108	1.45333	9.52655E-001	4.01453E-004	0.00000E+000	3.82447E-004	2.40040E-001	9.52950E-001	3.57660E+000	9	...........
	109	1.46667	9.56496E-001	4.02181E-004	0.00000E+000	3.84684E-004	2.40040E-001	9.56816E-001	3.57660E+000	9	...........
	110	1.48	9.60313E-001	4.00464E-004	0.00000E+000	3.84570E-004	2.40040E-001	9.60639E-001	3.57660E+000	9	...........
	111	1.49333	9.64099E-001	4.00527E-004	0.00000E+000	3.86148E-004	2.40040E-001	9.64451E-001	3.57660E+000	9	...........
	112	1.50667	9.67880E-001	4.01376E-004	0.00000E+000	3.88484E-004	2.40040E-001	9.68223E-001	3.57660E+000	9	...........
	113	1.52	9.71609E-001	4.01839E-004	0.00000E+000	3.90430E-004	2.40040E-001	9.71974E-001	3.57660E+000	9	...........
	114	1.53333	9.75343E-001	3.99417E-004	0.00000E+000	3.89568E-004	2.40040E-001	9.75674E-001	3.57660E+000	9	...........
	115	1.54667	9.78952E-001	4.01885E-004	0.00000E+000	3.93426E-004	2.40040E-001	9.79268E-001	3.57660E+000	9	...........
	116	1.56	9.82523E-001	4.00153E-004	0.00000E+000	3.93160E-004	2.40040E-001	9.82830E-001	3.57660E+000	9	...........
	117	1.57333	9.86065E-001	3.99719E-004	0.00000E+000	3.94148E-004	2.40040E-001	9.86382E-001	3.57660E+000	9	...........
	118	1.58667	9.89638E-001	4.01285E-004	0.00000E+000	3.97127E-004	2.40040E-001	9.89926E-001	3.57660E+000	9	...........
	119	1.6	9.93116E-001	4.01789E-004	0.00000E+000	3.99023E-004	2.40040E-001	9.93451E-001	3.57660E+000	9	...........
	120	1.61333	9.96597E-001	4.00651E-004	0.00000E+000	3.99288E-004	2.40040E-001	9.96950E-001	3.57660E+000	9	...........
	121	1.62167	9.99428E-001	3.99615E-004	0.00000E+000	3.99387E-004	2.40040E-001	9.99759E-001	3.57660E+000	9	...........
STARTTIMEOFFSET	QUANT	1242.11	Start Time Offset (s)
