EXPLAIN
TAG	PWR800_CHARGE
TITLE	LABEL	PWR Cyclic Charge Discharge (Cell) - Charge Step	Test &Identifier
DATE	LABEL	12-7-2017	Date
TIME	LABEL	14:20:30	Time
NOTES	NOTES	3	&Notes...
	supercap test cell
	0.4mg
	6M KOH
PSTAT	PSTAT	IFC5000-01520	Potentiostat
CAPACITY	QUANT	1.00000E-003	Capacity (A-hr)
CELLTYPE	SELECTOR	1	&Cell Type
WORKINGCONNECTION	SELECTOR	0	&Working Lead
MAXCHARGETIME	VARIABLEANDUNITS	1.00000E+002	s	1.00000E+002	second(s)	Max &Charge Time
CHARGECURRENT	QUANT	4.00000E-004	&Charge Current (A) 
VOLTAGEFINISH	TWOPARAM	F	1.00000E-003	3.60000E+003	&Voltage Finish	 I (A) < 	Max Time(s)
SAMPLETIME	QUANT	1.00000E-002	Sa&mple Period (s)
CHARGESTOPAT1	MULTIPARAM	4	1.00000E+000	Charge Stop At &1	Voltage > Limit	V
CHARGESTOPAT2	MULTIPARAM	0	0.00000E+000	Charge Stop At &2	None	N/A
AESBHCSELECTOR	TOGGLE	F	Save Both Half Cells
IRCOMP	TOGGLE	F	IR &Measure
EOC	QUANT	0	Open Circuit (V)
SEQUENCER	TOGGLE	TRUE	Run as Sequence
PSTATMODEL	IQUANT	53	Pstat Model
PSTATSECTION	LABEL	IFC5000-01520	Pstat Section
PSTATSERIALNO	LABEL	01520	Pstat Serial Number
CTRLMODE	IQUANT	0	Control Mode
ELECTROMETER	IQUANT	1	RE=0 or CS=1
IESTAB	IQUANT	0	I/E Stability
CASPEED	IQUANT	4	Control Amp Speed
CONVENTION	IQUANT	1	Current Convention
ICHRANGE	IQUANT	2	Ich Range
ICHRANGEMODE	TOGGLE	T	Ich Auto Range
ICHOFFSETENABLE	TOGGLE	F	Ich Offset Enable
ICHOFFSET	QUANT	0	Ich Offset (V)
ICHFILTER	IQUANT	1	Ich Filter
VCHRANGE	IQUANT	2	Vch Range
VCHRANGEMODE	TOGGLE	T	Vch Auto Range
VCHOFFSETENABLE	TOGGLE	F	Vch Offset Enable
VCHOFFSET	QUANT	0	Vch Offset (V)
VCHFILTER	IQUANT	1	Vch Filter
IERANGELOWERLIMIT	IQUANT	9	I/E Range Lower Limit
IERANGEMODE	TOGGLE	F	I/E AutoRange
IERANGE	IQUANT	9	I/E Range
ACHSELECT	IQUANT	1	Ach Select
ACHRANGE	IQUANT	2	Ach Range
ACHOFFSETENABLE	TOGGLE	F	Ach Offset Enable
ACHOFFSET	QUANT	0	Ach Offset (V)
ACHFILTER	IQUANT	1	Ach Filter
CABLEID	IQUANT	14	Cable ID
DCCALDATE	LABEL	5-7-2017	DC Calibration Date
ACCALDATE	LABEL	12/3/2015	AC Calibration Date
FRAMEWORKVERSION	QUANT	7.01	Framework Version
INSTRUMENTVERSION	LABEL	4.00	Instrument Version
CURVE	TABLE	153
	Pt	T	Vf	Im	Vu	Pwr	Sig	Ach	Temp	IERange	Over
	#	s	V	A	V	W	V	V	deg C	#	bits
	0	0.013333	3.23517E-001	4.01306E-004	0.00000E+000	1.29829E-004	2.40040E-001	3.23602E-001	3.57720E+000	9	...........
	1	0.026667	3.32878E-001	4.01229E-004	0.00000E+000	1.33560E-004	2.40040E-001	3.32944E-001	3.57720E+000	9	...........
	2	0.04	3.41057E-001	4.01571E-004	0.00000E+000	1.36959E-004	2.40040E-001	3.41128E-001	3.57720E+000	9	...........
	3	0.053333	3.48507E-001	4.01349E-004	0.00000E+000	1.39873E-004	2.40040E-001	3.48580E-001	3.57720E+000	9	...........
	4	0.066667	3.55465E-001	4.01019E-004	0.00000E+000	1.42548E-004	2.40040E-001	3.55535E-001	3.57720E+000	9	...........
	5	0.08	3.62101E-001	4.02832E-004	0.00000E+000	1.45866E-004	2.40040E-001	3.62170E-001	3.57720E+000	9	...........
	6	0.093333	3.68537E-001	4.00715E-004	0.00000E+000	1.47678E-004	2.40040E-001	3.68609E-001	3.57720E+000	9	...........
	7	0.106667	3.74761E-001	4.00349E-004	0.00000E+000	1.50035E-004	2.40040E-001	3.74832E-001	3.57720E+000	9	...........
	8	0.12	3.80857E-001	4.00229E-004	0.00000E+000	1.52430E-004	2.40040E-001	3.80928E-001	3.57720E+000	9	...........
	9	0.133333	3.86760E-001	4.01905E-004	0.00000E+000	1.55441E-004	2.40040E-001	3.86828E-001	3.57720E+000	9	...........
	10	0.146667	3.92691E-001	4.00138E-004	0.00000E+000	1.57130E-004	2.40040E-001	3.92759E-001	3.57720E+000	9	...........
	11	0.16	3.98459E-001	4.00031E-004	0.00000E+000	1.59396E-004	2.40040E-001	3.98528E-001	3.57720E+000	9	...........
	12	0.173333	4.04134E-001	4.00687E-004	0.00000E+000	1.61931E-004	2.40040E-001	4.04202E-001	3.57720E+000	9	...........
	13	0.186667	4.09735E-001	4.01684E-004	0.00000E+000	1.64584E-004	2.40040E-001	4.09820E-001	3.57720E+000	9	...........
	14	0.2	4.15269E-001	4.01578E-004	0.00000E+000	1.66763E-004	2.40040E-001	4.15356E-001	3.57720E+000	9	...........
	15	0.213333	4.20794E-001	4.01962E-004	0.00000E+000	1.69143E-004	2.40040E-001	4.20880E-001	3.57720E+000	9	...........
	16	0.226667	4.26223E-001	4.00981E-004	0.00000E+000	1.70907E-004	2.40040E-001	4.26305E-001	3.57720E+000	9	...........
	17	0.24	4.31684E-001	4.00044E-004	0.00000E+000	1.72692E-004	2.40040E-001	4.31766E-001	3.57720E+000	9	...........
	18	0.253333	4.37040E-001	4.01486E-004	0.00000E+000	1.75465E-004	2.40040E-001	4.37122E-001	3.57720E+000	9	...........
	19	0.266667	4.42347E-001	4.01527E-004	0.00000E+000	1.77615E-004	2.40040E-001	4.42432E-001	3.57720E+000	9	...........
	20	0.28	4.47646E-001	4.00106E-004	0.00000E+000	1.79106E-004	2.40040E-001	4.47734E-001	3.57633E+000	9	...........
	21	0.293333	4.52918E-001	4.00377E-004	0.00000E+000	1.81338E-004	2.40040E-001	4.53009E-001	3.57620E+000	9	...........
	22	0.306667	4.58145E-001	4.01182E-004	0.00000E+000	1.83799E-004	2.40040E-001	4.58231E-001	3.57620E+000	9	...........
	23	0.32	4.63288E-001	4.01409E-004	0.00000E+000	1.85968E-004	2.40040E-001	4.63371E-001	3.57620E+000	9	...........
	24	0.333333	4.68377E-001	4.00669E-004	0.00000E+000	1.87664E-004	2.40040E-001	4.68463E-001	3.57620E+000	9	...........
	25	0.346667	4.73396E-001	4.02477E-004	0.00000E+000	1.90531E-004	2.40040E-001	4.73490E-001	3.57620E+000	9	...........
	26	0.36	4.78487E-001	4.01120E-004	0.00000E+000	1.91931E-004	2.40040E-001	4.78579E-001	3.57620E+000	9	...........
	27	0.373333	4.83562E-001	4.00927E-004	0.00000E+000	1.93873E-004	2.40040E-001	4.83654E-001	3.57620E+000	9	...........
	28	0.386667	4.88571E-001	4.02171E-004	0.00000E+000	1.96489E-004	2.40040E-001	4.88665E-001	3.57620E+000	9	...........
	29	0.4	4.93575E-001	4.00121E-004	0.00000E+000	1.97490E-004	2.40040E-001	4.93672E-001	3.57620E+000	9	...........
	30	0.413333	4.98536E-001	4.01571E-004	0.00000E+000	2.00198E-004	2.40040E-001	4.98630E-001	3.57620E+000	9	...........
	31	0.426667	5.03500E-001	4.00654E-004	0.00000E+000	2.01729E-004	2.40040E-001	5.03593E-001	3.57620E+000	9	...........
	32	0.44	5.08387E-001	4.00183E-004	0.00000E+000	2.03448E-004	2.40040E-001	5.08489E-001	3.57620E+000	9	...........
	33	0.453333	5.13338E-001	4.01999E-004	0.00000E+000	2.06362E-004	2.40040E-001	5.13437E-001	3.57620E+000	9	...........
	34	0.466667	5.18266E-001	4.01541E-004	0.00000E+000	2.08105E-004	2.40040E-001	5.18364E-001	3.57620E+000	9	...........
	35	0.48	5.23220E-001	4.01684E-004	0.00000E+000	2.10169E-004	2.40040E-001	5.23323E-001	3.57620E+000	9	...........
	36	0.493333	5.28144E-001	4.00777E-004	0.00000E+000	2.11668E-004	2.40040E-001	5.28247E-001	3.57620E+000	9	...........
	37	0.506667	5.32933E-001	4.00762E-004	0.00000E+000	2.13579E-004	2.40040E-001	5.33054E-001	3.57620E+000	9	...........
	38	0.52	5.37734E-001	4.00846E-004	0.00000E+000	2.15549E-004	2.40040E-001	5.37934E-001	3.57620E+000	9	...........
	39	0.533333	5.42562E-001	4.00128E-004	0.00000E+000	2.17094E-004	2.40040E-001	5.42759E-001	3.57620E+000	9	...........
	40	0.546667	5.47376E-001	4.00358E-004	0.00000E+000	2.19147E-004	2.40040E-001	5.47574E-001	3.57620E+000	9	...........
	41	0.56	5.52233E-001	4.02066E-004	0.00000E+000	2.22034E-004	2.40040E-001	5.52436E-001	3.57620E+000	9	...........
	42	0.573333	5.57052E-001	4.00607E-004	0.00000E+000	2.23159E-004	2.40040E-001	5.57234E-001	3.57620E+000	9	...........
	43	0.586667	5.61823E-001	4.00992E-004	0.00000E+000	2.25286E-004	2.40040E-001	5.62041E-001	3.57620E+000	9	...........
	44	0.6	5.66675E-001	4.00414E-004	0.00000E+000	2.26904E-004	2.40040E-001	5.66861E-001	3.57620E+000	9	...........
	45	0.613333	5.71425E-001	4.01697E-004	0.00000E+000	2.29540E-004	2.40040E-001	5.71596E-001	3.57620E+000	9	...........
	46	0.626667	5.76158E-001	3.99755E-004	0.00000E+000	2.30322E-004	2.40040E-001	5.76381E-001	3.57620E+000	9	...........
	47	0.64	5.80947E-001	4.01002E-004	0.00000E+000	2.32961E-004	2.40040E-001	5.81161E-001	3.57620E+000	9	...........
	48	0.653333	5.85739E-001	4.01052E-004	0.00000E+000	2.34912E-004	2.40040E-001	5.85965E-001	3.57620E+000	9	...........
	49	0.666667	5.90492E-001	4.01873E-004	0.00000E+000	2.37303E-004	2.40040E-001	5.90740E-001	3.57620E+000	9	...........
	50	0.68	5.95250E-001	4.00403E-004	0.00000E+000	2.38340E-004	2.40040E-001	5.95490E-001	3.57620E+000	9	...........
	51	0.693333	6.00047E-001	4.00908E-004	0.00000E+000	2.40563E-004	2.40040E-001	6.00270E-001	3.57620E+000	9	...........
	52	0.706667	6.04729E-001	4.01302E-004	0.00000E+000	2.42679E-004	2.40040E-001	6.04978E-001	3.57620E+000	9	...........
	53	0.72	6.09425E-001	4.00381E-004	0.00000E+000	2.44003E-004	2.40040E-001	6.09661E-001	3.57620E+000	9	...........
	54	0.733333	6.14067E-001	4.01603E-004	0.00000E+000	2.46611E-004	2.40040E-001	6.14314E-001	3.57620E+000	9	...........
	55	0.746667	6.18816E-001	4.00315E-004	0.00000E+000	2.47721E-004	2.40040E-001	6.19008E-001	3.57620E+000	9	...........
	56	0.76	6.23476E-001	4.00420E-004	0.00000E+000	2.49652E-004	2.40040E-001	6.23683E-001	3.57620E+000	9	...........
	57	0.773333	6.28179E-001	4.01170E-004	0.00000E+000	2.52006E-004	2.40040E-001	6.28407E-001	3.57620E+000	9	...........
	58	0.786667	6.32733E-001	4.01497E-004	0.00000E+000	2.54040E-004	2.40040E-001	6.32941E-001	3.57620E+000	9	...........
	59	0.8	6.37388E-001	4.00268E-004	0.00000E+000	2.55126E-004	2.40040E-001	6.37604E-001	3.57620E+000	9	...........
	60	0.813333	6.42061E-001	3.99701E-004	0.00000E+000	2.56633E-004	2.40040E-001	6.42244E-001	3.57620E+000	9	...........
	61	0.826667	6.46620E-001	4.00793E-004	0.00000E+000	2.59161E-004	2.40040E-001	6.46821E-001	3.57620E+000	9	...........
	62	0.84	6.51231E-001	4.01672E-004	0.00000E+000	2.61581E-004	2.40040E-001	6.51439E-001	3.57620E+000	9	...........
	63	0.853333	6.55820E-001	4.00842E-004	0.00000E+000	2.62880E-004	2.40040E-001	6.56038E-001	3.57620E+000	9	...........
	64	0.866667	6.60338E-001	4.00233E-004	0.00000E+000	2.64289E-004	2.40040E-001	6.60550E-001	3.57620E+000	9	...........
	65	0.88	6.64927E-001	4.00316E-004	0.00000E+000	2.66181E-004	2.40040E-001	6.65149E-001	3.57620E+000	9	...........
	66	0.893333	6.69523E-001	4.00962E-004	0.00000E+000	2.68453E-004	2.40040E-001	6.69720E-001	3.57620E+000	9	...........
	67	0.906667	6.74012E-001	4.01093E-004	0.00000E+000	2.70341E-004	2.40040E-001	6.74228E-001	3.57620E+000	9	...........
	68	0.92	6.78642E-001	4.00667E-004	0.00000E+000	2.71909E-004	2.40040E-001	6.78865E-001	3.57620E+000	9	...........
	69	0.933333	6.83138E-001	4.00729E-004	0.00000E+000	2.73753E-004	2.40040E-001	6.83363E-001	3.57620E+000	9	...........
	70	0.946667	6.87654E-001	4.00910E-004	0.00000E+000	2.75687E-004	2.40040E-001	6.87913E-001	3.57620E+000	9	...........
	71	0.96	6.92191E-001	4.00270E-004	0.00000E+000	2.77063E-004	2.40040E-001	6.92445E-001	3.57620E+000	9	...........
	72	0.97333	6.96768E-001	4.00985E-004	0.00000E+000	2.79393E-004	2.40040E-001	6.96994E-001	3.57620E+000	9	...........
	73	0.98667	7.01203E-001	4.00289E-004	0.00000E+000	2.80684E-004	2.40040E-001	7.01414E-001	3.57620E+000	9	...........
	74	1	7.05702E-001	4.00460E-004	0.00000E+000	2.82605E-004	2.40040E-001	7.05951E-001	3.57620E+000	9	...........
	75	1.01333	7.10175E-001	4.02070E-004	0.00000E+000	2.85540E-004	2.40040E-001	7.10428E-001	3.57620E+000	9	...........
	76	1.02667	7.14598E-001	4.00535E-004	0.00000E+000	2.86221E-004	2.40040E-001	7.14853E-001	3.57620E+000	9	...........
	77	1.04	7.19103E-001	3.99896E-004	0.00000E+000	2.87566E-004	2.40040E-001	7.19331E-001	3.57620E+000	9	...........
	78	1.05333	7.23543E-001	4.00392E-004	0.00000E+000	2.89700E-004	2.40040E-001	7.23736E-001	3.57620E+000	9	...........
	79	1.06667	7.27932E-001	4.00600E-004	0.00000E+000	2.91610E-004	2.40040E-001	7.28158E-001	3.57620E+000	9	...........
	80	1.08	7.32366E-001	4.00867E-004	0.00000E+000	2.93581E-004	2.40040E-001	7.32591E-001	3.57620E+000	9	...........
	81	1.09333	7.36776E-001	4.02039E-004	0.00000E+000	2.96213E-004	2.40040E-001	7.37013E-001	3.57620E+000	9	...........
	82	1.10667	7.41139E-001	4.00005E-004	0.00000E+000	2.96460E-004	2.40040E-001	7.41345E-001	3.57620E+000	9	...........
	83	1.12	7.45600E-001	3.99235E-004	0.00000E+000	2.97670E-004	2.40040E-001	7.45840E-001	3.57620E+000	9	...........
	84	1.13333	7.49927E-001	4.01896E-004	0.00000E+000	3.01393E-004	2.40040E-001	7.50147E-001	3.57620E+000	9	...........
	85	1.14667	7.54402E-001	4.02136E-004	0.00000E+000	3.03372E-004	2.40040E-001	7.54599E-001	3.57620E+000	9	...........
	86	1.16	7.58698E-001	4.00486E-004	0.00000E+000	3.03848E-004	2.40040E-001	7.58892E-001	3.57620E+000	9	...........
	87	1.17333	7.63051E-001	4.00455E-004	0.00000E+000	3.05568E-004	2.40040E-001	7.63279E-001	3.57620E+000	9	...........
	88	1.18667	7.67393E-001	4.02029E-004	0.00000E+000	3.08514E-004	2.40040E-001	7.67645E-001	3.57620E+000	9	...........
	89	1.2	7.71719E-001	4.01220E-004	0.00000E+000	3.09629E-004	2.40040E-001	7.71946E-001	3.57620E+000	9	...........
	90	1.21333	7.75997E-001	4.01736E-004	0.00000E+000	3.11746E-004	2.40040E-001	7.76236E-001	3.57620E+000	9	...........
	91	1.22667	7.80289E-001	4.01888E-004	0.00000E+000	3.13589E-004	2.40040E-001	7.80549E-001	3.57620E+000	9	...........
	92	1.24	7.84533E-001	4.01070E-004	0.00000E+000	3.14653E-004	2.40040E-001	7.84760E-001	3.57620E+000	9	...........
	93	1.25333	7.88794E-001	3.99844E-004	0.00000E+000	3.15394E-004	2.40040E-001	7.89035E-001	3.57620E+000	9	...........
	94	1.26667	7.93031E-001	4.00741E-004	0.00000E+000	3.17800E-004	2.40040E-001	7.93295E-001	3.57620E+000	9	...........
	95	1.28	7.97179E-001	4.00313E-004	0.00000E+000	3.19121E-004	2.40040E-001	7.97445E-001	3.57664E+000	9	...........
	96	1.29333	8.01406E-001	4.01192E-004	0.00000E+000	3.21518E-004	2.40040E-001	8.01645E-001	3.57670E+000	9	...........
	97	1.30667	8.05522E-001	4.00794E-004	0.00000E+000	3.22848E-004	2.40040E-001	8.05761E-001	3.57670E+000	9	...........
	98	1.32	8.09716E-001	4.00663E-004	0.00000E+000	3.24423E-004	2.40040E-001	8.09962E-001	3.57670E+000	9	...........
	99	1.33333	8.13848E-001	4.00885E-004	0.00000E+000	3.26259E-004	2.40040E-001	8.14101E-001	3.57670E+000	9	...........
	100	1.34667	8.18011E-001	4.01154E-004	0.00000E+000	3.28149E-004	2.40040E-001	8.18290E-001	3.57670E+000	9	...........
	101	1.36	8.22140E-001	4.02497E-004	0.00000E+000	3.30909E-004	2.40040E-001	8.22401E-001	3.57670E+000	9	...........
	102	1.37333	8.26237E-001	4.00743E-004	0.00000E+000	3.31109E-004	2.40040E-001	8.26478E-001	3.57670E+000	9	...........
	103	1.38667	8.30312E-001	4.02122E-004	0.00000E+000	3.33887E-004	2.40040E-001	8.30561E-001	3.57670E+000	9	...........
	104	1.4	8.34332E-001	3.99252E-004	0.00000E+000	3.33109E-004	2.40040E-001	8.34590E-001	3.57670E+000	9	...........
	105	1.41333	8.38351E-001	4.01075E-004	0.00000E+000	3.36242E-004	2.40040E-001	8.38650E-001	3.57670E+000	9	...........
	106	1.42667	8.42470E-001	4.01288E-004	0.00000E+000	3.38073E-004	2.40040E-001	8.42735E-001	3.57670E+000	9	...........
	107	1.44	8.46578E-001	4.00979E-004	0.00000E+000	3.39460E-004	2.40040E-001	8.46839E-001	3.57670E+000	9	...........
	108	1.45333	8.50575E-001	4.00569E-004	0.00000E+000	3.40714E-004	2.40040E-001	8.50847E-001	3.57670E+000	9	...........
	109	1.46667	8.54471E-001	4.01701E-004	0.00000E+000	3.43242E-004	2.40040E-001	8.54759E-001	3.57670E+000	9	...........
	110	1.48	8.58404E-001	4.01489E-004	0.00000E+000	3.44640E-004	2.40040E-001	8.58713E-001	3.57670E+000	9	...........
	111	1.49333	8.62353E-001	4.01217E-004	0.00000E+000	3.45990E-004	2.40040E-001	8.62646E-001	3.57670E+000	9	...........
	112	1.50667	8.66213E-001	4.00814E-004	0.00000E+000	3.47190E-004	2.40040E-001	8.66516E-001	3.57670E+000	9	...........
	113	1.52	8.70148E-001	4.00233E-004	0.00000E+000	3.48262E-004	2.40040E-001	8.70429E-001	3.57670E+000	9	...........
	114	1.53333	8.74088E-001	4.00456E-004	0.00000E+000	3.50034E-004	2.40040E-001	8.74383E-001	3.57670E+000	9	...........
	115	1.54667	8.77903E-001	4.01209E-004	0.00000E+000	3.52222E-004	2.40040E-001	8.78178E-001	3.57670E+000	9	...........
	116	1.56	8.81641E-001	4.01157E-004	0.00000E+000	3.53676E-004	2.40040E-001	8.81926E-001	3.57670E+000	9	...........
	117	1.57333	8.85360E-001	4.01657E-004	0.00000E+000	3.55611E-004	2.40040E-001	8.85657E-001	3.57670E+000	9	...........
	118	1.58667	8.89104E-001	4.00544E-004	0.00000E+000	3.56125E-004	2.40040E-001	8.89393E-001	3.57670E+000	9	...........
	119	1.6	8.92803E-001	4.00506E-004	0.00000E+000	3.57573E-004	2.40040E-001	8.93109E-001	3.57670E+000	9	...........
	120	1.61333	8.96533E-001	4.01895E-004	0.00000E+000	3.60312E-004	2.40040E-001	8.96845E-001	3.57670E+000	9	...........
	121	1.62667	9.00249E-001	4.01631E-004	0.00000E+000	3.61568E-004	2.40040E-001	9.00567E-001	3.57670E+000	9	...........
	122	1.64	9.03923E-001	4.00600E-004	0.00000E+000	3.62112E-004	2.40040E-001	9.04232E-001	3.57670E+000	9	...........
	123	1.65333	9.07544E-001	4.00766E-004	0.00000E+000	3.63713E-004	2.40040E-001	9.07869E-001	3.57670E+000	9	...........
	124	1.66667	9.11252E-001	4.00615E-004	0.00000E+000	3.65061E-004	2.40040E-001	9.11537E-001	3.57670E+000	9	...........
	125	1.68	9.14848E-001	4.00028E-004	0.00000E+000	3.65965E-004	2.40040E-001	9.15133E-001	3.57670E+000	9	...........
	126	1.69333	9.18358E-001	4.00954E-004	0.00000E+000	3.68220E-004	2.40040E-001	9.18663E-001	3.57670E+000	9	...........
	127	1.70667	9.21997E-001	4.02909E-004	0.00000E+000	3.71481E-004	2.40040E-001	9.22262E-001	3.57670E+000	9	...........
	128	1.72	9.25501E-001	4.01037E-004	0.00000E+000	3.71160E-004	2.40040E-001	9.25769E-001	3.57670E+000	9	...........
	129	1.73333	9.29016E-001	4.01743E-004	0.00000E+000	3.73226E-004	2.40040E-001	9.29290E-001	3.57670E+000	9	...........
	130	1.74667	9.32410E-001	4.00508E-004	0.00000E+000	3.73438E-004	2.40040E-001	9.32705E-001	3.57670E+000	9	...........
	131	1.76	9.35836E-001	4.01212E-004	0.00000E+000	3.75468E-004	2.40040E-001	9.36141E-001	3.57670E+000	9	...........
	132	1.77333	9.39280E-001	4.01100E-004	0.00000E+000	3.76745E-004	2.40040E-001	9.39623E-001	3.57670E+000	9	...........
	133	1.78667	9.42650E-001	4.02162E-004	0.00000E+000	3.79098E-004	2.40040E-001	9.42943E-001	3.57670E+000	9	...........
	134	1.8	9.46027E-001	4.01722E-004	0.00000E+000	3.80040E-004	2.40040E-001	9.46349E-001	3.57670E+000	9	...........
	135	1.81333	9.49396E-001	4.00280E-004	0.00000E+000	3.80025E-004	2.40040E-001	9.49694E-001	3.57670E+000	9	...........
	136	1.82667	9.52652E-001	4.03254E-004	0.00000E+000	3.84161E-004	2.40040E-001	9.52959E-001	3.57670E+000	9	...........
	137	1.84	9.55901E-001	4.01637E-004	0.00000E+000	3.83925E-004	2.40040E-001	9.56195E-001	3.57670E+000	9	...........
	138	1.85333	9.59080E-001	4.01299E-004	0.00000E+000	3.84878E-004	2.40040E-001	9.59384E-001	3.57670E+000	9	...........
	139	1.86667	9.62302E-001	4.01348E-004	0.00000E+000	3.86218E-004	2.40040E-001	9.62595E-001	3.57670E+000	9	...........
	140	1.88	9.65447E-001	4.00851E-004	0.00000E+000	3.87001E-004	2.40040E-001	9.65773E-001	3.57670E+000	9	...........
	141	1.89333	9.68578E-001	4.00415E-004	0.00000E+000	3.87833E-004	2.40040E-001	9.68901E-001	3.57670E+000	9	...........
	142	1.90667	9.71659E-001	4.01111E-004	0.00000E+000	3.89743E-004	2.40040E-001	9.71996E-001	3.57670E+000	9	...........
	143	1.92	9.74728E-001	4.01336E-004	0.00000E+000	3.91193E-004	2.40040E-001	9.75024E-001	3.57670E+000	9	...........
	144	1.93333	9.77778E-001	4.01909E-004	0.00000E+000	3.92977E-004	2.40040E-001	9.78080E-001	3.57670E+000	9	...........
	145	1.94667	9.80829E-001	4.01750E-004	0.00000E+000	3.94048E-004	2.40040E-001	9.81120E-001	3.57670E+000	9	...........
	146	1.96	9.83788E-001	4.01090E-004	0.00000E+000	3.94587E-004	2.40040E-001	9.84089E-001	3.57670E+000	9	...........
	147	1.97333	9.86665E-001	4.00575E-004	0.00000E+000	3.95233E-004	2.40040E-001	9.87001E-001	3.57670E+000	9	...........
	148	1.98667	9.89633E-001	4.01573E-004	0.00000E+000	3.97410E-004	2.40040E-001	9.89950E-001	3.57670E+000	9	...........
	149	2	9.92532E-001	4.02104E-004	0.00000E+000	3.99101E-004	2.40040E-001	9.92862E-001	3.57670E+000	9	...........
	150	2.01333	9.95351E-001	4.01915E-004	0.00000E+000	4.00046E-004	2.40040E-001	9.95676E-001	3.57670E+000	9	...........
	151	2.02667	9.98238E-001	4.00413E-004	0.00000E+000	3.99707E-004	2.40040E-001	9.98561E-001	3.57670E+000	9	...........
	152	2.03	9.99971E-001	4.01302E-004	0.00000E+000	4.01291E-004	2.40040E-001	1.00029E+000	3.57670E+000	9	...........
STARTTIMEOFFSET	QUANT	89.05833	Start Time Offset (s)
