EXPLAIN
TAG	PWR800_CHARGE
TITLE	LABEL	PWR Cyclic Charge Discharge (Cell) - Charge Step	Test &Identifier
DATE	LABEL	12-7-2017	Date
TIME	LABEL	15:09:57	Time
NOTES	NOTES	3	&Notes...
	supercap test cell
	0.4mg
	6M KOH
PSTAT	PSTAT	IFC5000-01520	Potentiostat
CAPACITY	QUANT	1.00000E-003	Capacity (A-hr)
CELLTYPE	SELECTOR	1	&Cell Type
WORKINGCONNECTION	SELECTOR	0	&Working Lead
MAXCHARGETIME	VARIABLEANDUNITS	1.00000E+002	s	1.00000E+002	second(s)	Max &Charge Time
CHARGECURRENT	QUANT	4.00000E-004	&Charge Current (A) 
VOLTAGEFINISH	TWOPARAM	F	1.00000E-003	3.60000E+003	&Voltage Finish	 I (A) < 	Max Time(s)
SAMPLETIME	QUANT	1.00000E-002	Sa&mple Period (s)
CHARGESTOPAT1	MULTIPARAM	4	1.00000E+000	Charge Stop At &1	Voltage > Limit	V
CHARGESTOPAT2	MULTIPARAM	0	0.00000E+000	Charge Stop At &2	None	N/A
AESBHCSELECTOR	TOGGLE	F	Save Both Half Cells
IRCOMP	TOGGLE	F	IR &Measure
EOC	QUANT	0	Open Circuit (V)
SEQUENCER	TOGGLE	TRUE	Run as Sequence
PSTATMODEL	IQUANT	53	Pstat Model
PSTATSECTION	LABEL	IFC5000-01520	Pstat Section
PSTATSERIALNO	LABEL	01520	Pstat Serial Number
CTRLMODE	IQUANT	0	Control Mode
ELECTROMETER	IQUANT	1	RE=0 or CS=1
IESTAB	IQUANT	0	I/E Stability
CASPEED	IQUANT	4	Control Amp Speed
CONVENTION	IQUANT	1	Current Convention
ICHRANGE	IQUANT	2	Ich Range
ICHRANGEMODE	TOGGLE	T	Ich Auto Range
ICHOFFSETENABLE	TOGGLE	F	Ich Offset Enable
ICHOFFSET	QUANT	0	Ich Offset (V)
ICHFILTER	IQUANT	1	Ich Filter
VCHRANGE	IQUANT	2	Vch Range
VCHRANGEMODE	TOGGLE	T	Vch Auto Range
VCHOFFSETENABLE	TOGGLE	F	Vch Offset Enable
VCHOFFSET	QUANT	0	Vch Offset (V)
VCHFILTER	IQUANT	1	Vch Filter
IERANGELOWERLIMIT	IQUANT	9	I/E Range Lower Limit
IERANGEMODE	TOGGLE	F	I/E AutoRange
IERANGE	IQUANT	9	I/E Range
ACHSELECT	IQUANT	1	Ach Select
ACHRANGE	IQUANT	2	Ach Range
ACHOFFSETENABLE	TOGGLE	F	Ach Offset Enable
ACHOFFSET	QUANT	0	Ach Offset (V)
ACHFILTER	IQUANT	1	Ach Filter
CABLEID	IQUANT	14	Cable ID
DCCALDATE	LABEL	5-7-2017	DC Calibration Date
ACCALDATE	LABEL	12/3/2015	AC Calibration Date
FRAMEWORKVERSION	QUANT	7.01	Framework Version
INSTRUMENTVERSION	LABEL	4.00	Instrument Version
CURVE	TABLE	110
	Pt	T	Vf	Im	Vu	Pwr	Sig	Ach	Temp	IERange	Over
	#	s	V	A	V	W	V	V	deg C	#	bits
	0	0.013333	3.81508E-001	4.00931E-004	0.00000E+000	1.52958E-004	2.40040E-001	3.81592E-001	3.57710E+000	9	...........
	1	0.026667	3.93975E-001	4.01364E-004	0.00000E+000	1.58127E-004	2.40040E-001	3.94049E-001	3.57710E+000	9	...........
	2	0.04	4.04586E-001	4.01583E-004	0.00000E+000	1.62475E-004	2.40040E-001	4.04663E-001	3.57710E+000	9	...........
	3	0.053333	4.14236E-001	4.01033E-004	0.00000E+000	1.66122E-004	2.40040E-001	4.14326E-001	3.57710E+000	9	...........
	4	0.066667	4.23217E-001	4.01320E-004	0.00000E+000	1.69846E-004	2.40040E-001	4.23304E-001	3.57710E+000	9	...........
	5	0.08	4.31710E-001	4.02389E-004	0.00000E+000	1.73715E-004	2.40040E-001	4.31798E-001	3.57710E+000	9	...........
	6	0.093333	4.39901E-001	4.01432E-004	0.00000E+000	1.76590E-004	2.40040E-001	4.39990E-001	3.57710E+000	9	...........
	7	0.106667	4.47883E-001	4.01272E-004	0.00000E+000	1.79723E-004	2.40040E-001	4.47973E-001	3.57710E+000	9	...........
	8	0.12	4.55644E-001	3.99883E-004	0.00000E+000	1.82205E-004	2.40040E-001	4.55736E-001	3.57710E+000	9	...........
	9	0.133333	4.63259E-001	4.00955E-004	0.00000E+000	1.85746E-004	2.40040E-001	4.63353E-001	3.57710E+000	9	...........
	10	0.146667	4.70630E-001	4.02060E-004	0.00000E+000	1.89221E-004	2.40040E-001	4.70728E-001	3.57710E+000	9	...........
	11	0.16	4.77813E-001	3.99829E-004	0.00000E+000	1.91043E-004	2.40040E-001	4.77913E-001	3.57710E+000	9	...........
	12	0.173333	4.84950E-001	4.00602E-004	0.00000E+000	1.94272E-004	2.40040E-001	4.85050E-001	3.57710E+000	9	...........
	13	0.186667	4.91996E-001	3.99587E-004	0.00000E+000	1.96595E-004	2.40040E-001	4.92092E-001	3.57710E+000	9	...........
	14	0.2	4.98925E-001	4.01589E-004	0.00000E+000	2.00363E-004	2.40040E-001	4.99023E-001	3.57710E+000	9	...........
	15	0.213333	5.05818E-001	4.00532E-004	0.00000E+000	2.02596E-004	2.40040E-001	5.05919E-001	3.57710E+000	9	...........
	16	0.226667	5.12611E-001	4.00904E-004	0.00000E+000	2.05508E-004	2.40040E-001	5.12720E-001	3.57710E+000	9	...........
	17	0.24	5.19313E-001	4.00988E-004	0.00000E+000	2.08238E-004	2.40040E-001	5.19418E-001	3.57710E+000	9	...........
	18	0.253333	5.26007E-001	4.01520E-004	0.00000E+000	2.11203E-004	2.40040E-001	5.26110E-001	3.57710E+000	9	...........
	19	0.266667	5.32526E-001	4.01456E-004	0.00000E+000	2.13786E-004	2.40040E-001	5.32647E-001	3.57710E+000	9	...........
	20	0.28	5.38884E-001	4.01200E-004	0.00000E+000	2.16201E-004	2.40040E-001	5.39092E-001	3.57710E+000	9	...........
	21	0.293333	5.45427E-001	4.01512E-004	0.00000E+000	2.18995E-004	2.40040E-001	5.45631E-001	3.57710E+000	9	...........
	22	0.306667	5.51927E-001	4.01446E-004	0.00000E+000	2.21569E-004	2.40040E-001	5.52126E-001	3.57710E+000	9	...........
	23	0.32	5.58348E-001	3.99846E-004	0.00000E+000	2.23253E-004	2.40040E-001	5.58545E-001	3.57710E+000	9	...........
	24	0.333333	5.64804E-001	4.00830E-004	0.00000E+000	2.26391E-004	2.40040E-001	5.65025E-001	3.57710E+000	9	...........
	25	0.346667	5.71206E-001	4.01013E-004	0.00000E+000	2.29061E-004	2.40040E-001	5.71407E-001	3.57710E+000	9	...........
	26	0.36	5.77532E-001	4.01063E-004	0.00000E+000	2.31627E-004	2.40040E-001	5.77786E-001	3.57710E+000	9	...........
	27	0.373333	5.83752E-001	4.01027E-004	0.00000E+000	2.34101E-004	2.40040E-001	5.83987E-001	3.57710E+000	9	...........
	28	0.386667	5.90088E-001	4.01079E-004	0.00000E+000	2.36672E-004	2.40040E-001	5.90361E-001	3.57710E+000	9	...........
	29	0.4	5.96409E-001	4.01379E-004	0.00000E+000	2.39386E-004	2.40040E-001	5.96642E-001	3.57710E+000	9	...........
	30	0.413333	6.02610E-001	4.00030E-004	0.00000E+000	2.41062E-004	2.40040E-001	6.02896E-001	3.57710E+000	9	...........
	31	0.426667	6.08779E-001	4.00568E-004	0.00000E+000	2.43857E-004	2.40040E-001	6.09056E-001	3.57710E+000	9	...........
	32	0.44	6.14960E-001	4.01375E-004	0.00000E+000	2.46830E-004	2.40040E-001	6.15222E-001	3.57710E+000	9	...........
	33	0.453333	6.21036E-001	4.00487E-004	0.00000E+000	2.48717E-004	2.40040E-001	6.21244E-001	3.57710E+000	9	...........
	34	0.466667	6.27131E-001	4.00355E-004	0.00000E+000	2.51075E-004	2.40040E-001	6.27359E-001	3.57710E+000	9	...........
	35	0.48	6.33204E-001	4.01344E-004	0.00000E+000	2.54133E-004	2.40040E-001	6.33429E-001	3.57710E+000	9	...........
	36	0.493333	6.39260E-001	4.02042E-004	0.00000E+000	2.57010E-004	2.40040E-001	6.39492E-001	3.57710E+000	9	...........
	37	0.506667	6.45316E-001	4.01475E-004	0.00000E+000	2.59079E-004	2.40040E-001	6.45557E-001	3.57710E+000	9	...........
	38	0.52	6.51341E-001	4.00840E-004	0.00000E+000	2.61083E-004	2.40040E-001	6.51588E-001	3.57710E+000	9	...........
	39	0.533333	6.57432E-001	4.01336E-004	0.00000E+000	2.63851E-004	2.40040E-001	6.57665E-001	3.57710E+000	9	...........
	40	0.546667	6.63438E-001	4.01148E-004	0.00000E+000	2.66137E-004	2.40040E-001	6.63665E-001	3.57710E+000	9	...........
	41	0.56	6.69360E-001	4.01015E-004	0.00000E+000	2.68423E-004	2.40040E-001	6.69564E-001	3.57710E+000	9	...........
	42	0.573333	6.75216E-001	4.01295E-004	0.00000E+000	2.70961E-004	2.40040E-001	6.75448E-001	3.57710E+000	9	...........
	43	0.586667	6.81128E-001	4.01552E-004	0.00000E+000	2.73509E-004	2.40040E-001	6.81355E-001	3.57710E+000	9	...........
	44	0.6	6.86985E-001	4.01193E-004	0.00000E+000	2.75614E-004	2.40040E-001	6.87233E-001	3.57710E+000	9	...........
	45	0.613333	6.92913E-001	4.01262E-004	0.00000E+000	2.78039E-004	2.40040E-001	6.93153E-001	3.57710E+000	9	...........
	46	0.626667	6.98778E-001	4.00299E-004	0.00000E+000	2.79720E-004	2.40040E-001	6.98992E-001	3.57710E+000	9	...........
	47	0.64	7.04604E-001	4.01547E-004	0.00000E+000	2.82932E-004	2.40040E-001	7.04823E-001	3.57710E+000	9	...........
	48	0.653333	7.10400E-001	4.01513E-004	0.00000E+000	2.85235E-004	2.40040E-001	7.10643E-001	3.57735E+000	9	...........
	49	0.666667	7.16246E-001	4.01074E-004	0.00000E+000	2.87268E-004	2.40040E-001	7.16513E-001	3.57770E+000	9	...........
	50	0.68	7.22037E-001	4.01709E-004	0.00000E+000	2.90049E-004	2.40040E-001	7.22243E-001	3.57770E+000	9	...........
	51	0.693333	7.27679E-001	4.02154E-004	0.00000E+000	2.92639E-004	2.40040E-001	7.27921E-001	3.57770E+000	9	...........
	52	0.706667	7.33306E-001	4.01236E-004	0.00000E+000	2.94229E-004	2.40040E-001	7.33554E-001	3.57770E+000	9	...........
	53	0.72	7.38991E-001	4.01608E-004	0.00000E+000	2.96784E-004	2.40040E-001	7.39263E-001	3.57770E+000	9	...........
	54	0.733333	7.44619E-001	4.01067E-004	0.00000E+000	2.98642E-004	2.40040E-001	7.44884E-001	3.57770E+000	9	...........
	55	0.746667	7.50296E-001	4.01013E-004	0.00000E+000	3.00878E-004	2.40040E-001	7.50562E-001	3.57770E+000	9	...........
	56	0.76	7.55952E-001	4.01418E-004	0.00000E+000	3.03453E-004	2.40040E-001	7.56225E-001	3.57770E+000	9	...........
	57	0.773333	7.61552E-001	4.02665E-004	0.00000E+000	3.06650E-004	2.40040E-001	7.61785E-001	3.57770E+000	9	...........
	58	0.786667	7.67090E-001	4.01598E-004	0.00000E+000	3.08062E-004	2.40040E-001	7.67376E-001	3.57770E+000	9	...........
	59	0.8	7.72606E-001	4.01390E-004	0.00000E+000	3.10116E-004	2.40040E-001	7.72859E-001	3.57770E+000	9	...........
	60	0.813333	7.78081E-001	4.01130E-004	0.00000E+000	3.12112E-004	2.40040E-001	7.78337E-001	3.57770E+000	9	...........
	61	0.826667	7.83504E-001	4.01069E-004	0.00000E+000	3.14239E-004	2.40040E-001	7.83764E-001	3.57770E+000	9	...........
	62	0.84	7.88884E-001	4.01564E-004	0.00000E+000	3.16787E-004	2.40040E-001	7.89121E-001	3.57770E+000	9	...........
	63	0.853333	7.94249E-001	4.00751E-004	0.00000E+000	3.18296E-004	2.40040E-001	7.94506E-001	3.57770E+000	9	...........
	64	0.866667	7.99622E-001	4.00930E-004	0.00000E+000	3.20593E-004	2.40040E-001	7.99875E-001	3.57770E+000	9	...........
	65	0.88	8.04896E-001	4.01275E-004	0.00000E+000	3.22985E-004	2.40040E-001	8.05150E-001	3.57770E+000	9	...........
	66	0.893333	8.10151E-001	4.00699E-004	0.00000E+000	3.24627E-004	2.40040E-001	8.10402E-001	3.57770E+000	9	...........
	67	0.906667	8.15440E-001	4.01005E-004	0.00000E+000	3.26996E-004	2.40040E-001	8.15698E-001	3.57770E+000	9	...........
	68	0.92	8.20635E-001	4.00742E-004	0.00000E+000	3.28863E-004	2.40040E-001	8.20885E-001	3.57770E+000	9	...........
	69	0.933333	8.25773E-001	4.01612E-004	0.00000E+000	3.31640E-004	2.40040E-001	8.26003E-001	3.57770E+000	9	...........
	70	0.946667	8.30885E-001	4.00349E-004	0.00000E+000	3.32644E-004	2.40040E-001	8.31118E-001	3.57770E+000	9	...........
	71	0.96	8.35987E-001	4.01216E-004	0.00000E+000	3.35411E-004	2.40040E-001	8.36237E-001	3.57770E+000	9	...........
	72	0.97333	8.41056E-001	4.01540E-004	0.00000E+000	3.37718E-004	2.40040E-001	8.41285E-001	3.57770E+000	9	...........
	73	0.98667	8.46100E-001	4.01311E-004	0.00000E+000	3.39549E-004	2.40040E-001	8.46335E-001	3.57770E+000	9	...........
	74	1	8.51051E-001	4.01148E-004	0.00000E+000	3.41398E-004	2.40040E-001	8.51317E-001	3.57770E+000	9	...........
	75	1.01333	8.56008E-001	4.00669E-004	0.00000E+000	3.42976E-004	2.40040E-001	8.56307E-001	3.57770E+000	9	...........
	76	1.02667	8.60898E-001	4.02228E-004	0.00000E+000	3.46277E-004	2.40040E-001	8.61202E-001	3.57770E+000	9	...........
	77	1.04	8.65690E-001	4.00398E-004	0.00000E+000	3.46621E-004	2.40040E-001	8.66021E-001	3.57770E+000	9	...........
	78	1.05333	8.70526E-001	4.00535E-004	0.00000E+000	3.48676E-004	2.40040E-001	8.70829E-001	3.57770E+000	9	...........
	79	1.06667	8.75329E-001	4.00722E-004	0.00000E+000	3.50763E-004	2.40040E-001	8.75664E-001	3.57770E+000	9	...........
	80	1.08	8.80117E-001	4.01846E-004	0.00000E+000	3.53672E-004	2.40040E-001	8.80436E-001	3.57770E+000	9	...........
	81	1.09333	8.84832E-001	4.02748E-004	0.00000E+000	3.56365E-004	2.40040E-001	8.85166E-001	3.57770E+000	9	...........
	82	1.10667	8.89535E-001	4.00904E-004	0.00000E+000	3.56619E-004	2.40040E-001	8.89877E-001	3.57770E+000	9	...........
	83	1.12	8.94187E-001	4.02280E-004	0.00000E+000	3.59713E-004	2.40040E-001	8.94523E-001	3.57770E+000	9	...........
	84	1.13333	8.98809E-001	4.01463E-004	0.00000E+000	3.60838E-004	2.40040E-001	8.99143E-001	3.57770E+000	9	...........
	85	1.14667	9.03387E-001	4.00348E-004	0.00000E+000	3.61669E-004	2.40040E-001	9.03729E-001	3.57770E+000	9	...........
	86	1.16	9.07945E-001	4.00251E-004	0.00000E+000	3.63406E-004	2.40040E-001	9.08277E-001	3.57770E+000	9	...........
	87	1.17333	9.12387E-001	3.99894E-004	0.00000E+000	3.64858E-004	2.40040E-001	9.12717E-001	3.57770E+000	9	...........
	88	1.18667	9.16875E-001	4.00703E-004	0.00000E+000	3.67395E-004	2.40040E-001	9.17187E-001	3.57770E+000	9	...........
	89	1.2	9.21334E-001	4.01241E-004	0.00000E+000	3.69677E-004	2.40040E-001	9.21600E-001	3.57770E+000	9	...........
	90	1.21333	9.25714E-001	4.01025E-004	0.00000E+000	3.71234E-004	2.40040E-001	9.26009E-001	3.57770E+000	9	...........
	91	1.22667	9.30011E-001	4.00308E-004	0.00000E+000	3.72291E-004	2.40040E-001	9.30277E-001	3.57770E+000	9	...........
	92	1.24	9.34264E-001	4.00706E-004	0.00000E+000	3.74366E-004	2.40040E-001	9.34557E-001	3.57770E+000	9	...........
	93	1.25333	9.38508E-001	4.00601E-004	0.00000E+000	3.75968E-004	2.40040E-001	9.38803E-001	3.57770E+000	9	...........
	94	1.26667	9.42769E-001	4.00024E-004	0.00000E+000	3.77130E-004	2.40040E-001	9.43054E-001	3.57770E+000	9	...........
	95	1.28	9.47008E-001	4.01275E-004	0.00000E+000	3.80011E-004	2.40040E-001	9.47315E-001	3.57770E+000	9	...........
	96	1.29333	9.51064E-001	4.00648E-004	0.00000E+000	3.81042E-004	2.40040E-001	9.51368E-001	3.57770E+000	9	...........
	97	1.30667	9.55167E-001	4.01048E-004	0.00000E+000	3.83068E-004	2.40040E-001	9.55473E-001	3.57770E+000	9	...........
	98	1.32	9.59252E-001	4.01576E-004	0.00000E+000	3.85213E-004	2.40040E-001	9.59566E-001	3.57770E+000	9	...........
	99	1.33333	9.63170E-001	3.99959E-004	0.00000E+000	3.85229E-004	2.40040E-001	9.63511E-001	3.57770E+000	9	...........
	100	1.34667	9.67149E-001	4.01692E-004	0.00000E+000	3.88496E-004	2.40040E-001	9.67464E-001	3.57770E+000	9	...........
	101	1.36	9.71077E-001	4.01265E-004	0.00000E+000	3.89659E-004	2.40040E-001	9.71434E-001	3.57770E+000	9	...........
	102	1.37333	9.75018E-001	4.01464E-004	0.00000E+000	3.91434E-004	2.40040E-001	9.75350E-001	3.57770E+000	9	...........
	103	1.38667	9.78866E-001	4.01229E-004	0.00000E+000	3.92750E-004	2.40040E-001	9.79188E-001	3.57770E+000	9	...........
	104	1.4	9.82657E-001	4.00635E-004	0.00000E+000	3.93686E-004	2.40040E-001	9.82972E-001	3.57770E+000	9	...........
	105	1.41333	9.86457E-001	4.01150E-004	0.00000E+000	3.95718E-004	2.40040E-001	9.86800E-001	3.57770E+000	9	...........
	106	1.42667	9.90182E-001	4.00296E-004	0.00000E+000	3.96366E-004	2.40040E-001	9.90517E-001	3.57770E+000	9	...........
	107	1.44	9.93830E-001	4.00714E-004	0.00000E+000	3.98241E-004	2.40040E-001	9.94185E-001	3.57770E+000	9	...........
	108	1.45333	9.97491E-001	4.01475E-004	0.00000E+000	4.00468E-004	2.40040E-001	9.97837E-001	3.57770E+000	9	...........
	109	1.45667	9.99816E-001	4.00365E-004	0.00000E+000	4.00291E-004	2.40040E-001	1.00013E+000	3.57770E+000	9	...........
STARTTIMEOFFSET	QUANT	2437.679	Start Time Offset (s)
