EXPLAIN
TAG	PWR800_CHARGE
TITLE	LABEL	PWR Cyclic Charge Discharge (Cell) - Charge Step	Test &Identifier
DATE	LABEL	12-7-2017	Date
TIME	LABEL	15:19:28	Time
NOTES	NOTES	3	&Notes...
	supercap test cell
	0.4mg
	6M KOH
PSTAT	PSTAT	IFC5000-01520	Potentiostat
CAPACITY	QUANT	1.00000E-003	Capacity (A-hr)
CELLTYPE	SELECTOR	1	&Cell Type
WORKINGCONNECTION	SELECTOR	0	&Working Lead
MAXCHARGETIME	VARIABLEANDUNITS	1.00000E+002	s	1.00000E+002	second(s)	Max &Charge Time
CHARGECURRENT	QUANT	4.00000E-004	&Charge Current (A) 
VOLTAGEFINISH	TWOPARAM	F	1.00000E-003	3.60000E+003	&Voltage Finish	 I (A) < 	Max Time(s)
SAMPLETIME	QUANT	1.00000E-002	Sa&mple Period (s)
CHARGESTOPAT1	MULTIPARAM	4	1.00000E+000	Charge Stop At &1	Voltage > Limit	V
CHARGESTOPAT2	MULTIPARAM	0	0.00000E+000	Charge Stop At &2	None	N/A
AESBHCSELECTOR	TOGGLE	F	Save Both Half Cells
IRCOMP	TOGGLE	F	IR &Measure
EOC	QUANT	0	Open Circuit (V)
SEQUENCER	TOGGLE	TRUE	Run as Sequence
PSTATMODEL	IQUANT	53	Pstat Model
PSTATSECTION	LABEL	IFC5000-01520	Pstat Section
PSTATSERIALNO	LABEL	01520	Pstat Serial Number
CTRLMODE	IQUANT	0	Control Mode
ELECTROMETER	IQUANT	1	RE=0 or CS=1
IESTAB	IQUANT	0	I/E Stability
CASPEED	IQUANT	4	Control Amp Speed
CONVENTION	IQUANT	1	Current Convention
ICHRANGE	IQUANT	2	Ich Range
ICHRANGEMODE	TOGGLE	T	Ich Auto Range
ICHOFFSETENABLE	TOGGLE	F	Ich Offset Enable
ICHOFFSET	QUANT	0	Ich Offset (V)
ICHFILTER	IQUANT	1	Ich Filter
VCHRANGE	IQUANT	2	Vch Range
VCHRANGEMODE	TOGGLE	T	Vch Auto Range
VCHOFFSETENABLE	TOGGLE	F	Vch Offset Enable
VCHOFFSET	QUANT	0	Vch Offset (V)
VCHFILTER	IQUANT	1	Vch Filter
IERANGELOWERLIMIT	IQUANT	9	I/E Range Lower Limit
IERANGEMODE	TOGGLE	F	I/E AutoRange
IERANGE	IQUANT	9	I/E Range
ACHSELECT	IQUANT	1	Ach Select
ACHRANGE	IQUANT	2	Ach Range
ACHOFFSETENABLE	TOGGLE	F	Ach Offset Enable
ACHOFFSET	QUANT	0	Ach Offset (V)
ACHFILTER	IQUANT	1	Ach Filter
CABLEID	IQUANT	14	Cable ID
DCCALDATE	LABEL	5-7-2017	DC Calibration Date
ACCALDATE	LABEL	12/3/2015	AC Calibration Date
FRAMEWORKVERSION	QUANT	7.01	Framework Version
INSTRUMENTVERSION	LABEL	4.00	Instrument Version
CURVE	TABLE	106
	Pt	T	Vf	Im	Vu	Pwr	Sig	Ach	Temp	IERange	Over
	#	s	V	A	V	W	V	V	deg C	#	bits
	0	0.013333	3.89166E-001	4.00897E-004	0.00000E+000	1.56015E-004	2.40040E-001	3.89269E-001	3.57760E+000	9	...........
	1	0.026667	4.02081E-001	4.01211E-004	0.00000E+000	1.61319E-004	2.40040E-001	4.02160E-001	3.57760E+000	9	...........
	2	0.04	4.13103E-001	4.01365E-004	0.00000E+000	1.65805E-004	2.40040E-001	4.13189E-001	3.57760E+000	9	...........
	3	0.053333	4.23014E-001	4.01294E-004	0.00000E+000	1.69753E-004	2.40040E-001	4.23102E-001	3.57760E+000	9	...........
	4	0.066667	4.32323E-001	3.99519E-004	0.00000E+000	1.72721E-004	2.40040E-001	4.32414E-001	3.57760E+000	9	...........
	5	0.08	4.41144E-001	4.00712E-004	0.00000E+000	1.76771E-004	2.40040E-001	4.41237E-001	3.57760E+000	9	...........
	6	0.093333	4.49562E-001	4.00548E-004	0.00000E+000	1.80071E-004	2.40040E-001	4.49653E-001	3.57760E+000	9	...........
	7	0.106667	4.57702E-001	4.00846E-004	0.00000E+000	1.83468E-004	2.40040E-001	4.57798E-001	3.57760E+000	9	...........
	8	0.12	4.65621E-001	4.00417E-004	0.00000E+000	1.86443E-004	2.40040E-001	4.65719E-001	3.57760E+000	9	...........
	9	0.133333	4.73350E-001	4.00840E-004	0.00000E+000	1.89737E-004	2.40040E-001	4.73452E-001	3.57760E+000	9	...........
	10	0.146667	4.80908E-001	3.99970E-004	0.00000E+000	1.92349E-004	2.40040E-001	4.81003E-001	3.57760E+000	9	...........
	11	0.16	4.88353E-001	4.00220E-004	0.00000E+000	1.95448E-004	2.40040E-001	4.88446E-001	3.57760E+000	9	...........
	12	0.173333	4.95709E-001	4.00492E-004	0.00000E+000	1.98528E-004	2.40040E-001	4.95815E-001	3.57760E+000	9	...........
	13	0.186667	5.02971E-001	4.00922E-004	0.00000E+000	2.01652E-004	2.40040E-001	5.03070E-001	3.57760E+000	9	...........
	14	0.2	5.10123E-001	4.00263E-004	0.00000E+000	2.04183E-004	2.40040E-001	5.10230E-001	3.57760E+000	9	...........
	15	0.213333	5.17206E-001	3.99149E-004	0.00000E+000	2.06442E-004	2.40040E-001	5.17311E-001	3.57760E+000	9	...........
	16	0.226667	5.24240E-001	4.00789E-004	0.00000E+000	2.10110E-004	2.40040E-001	5.24346E-001	3.57760E+000	9	...........
	17	0.24	5.31105E-001	4.01687E-004	0.00000E+000	2.13338E-004	2.40040E-001	5.31226E-001	3.57760E+000	9	...........
	18	0.253333	5.37734E-001	4.00968E-004	0.00000E+000	2.15614E-004	2.40040E-001	5.37962E-001	3.57760E+000	9	...........
	19	0.266667	5.44489E-001	4.00903E-004	0.00000E+000	2.18287E-004	2.40040E-001	5.44722E-001	3.57760E+000	9	...........
	20	0.28	5.51114E-001	4.00774E-004	0.00000E+000	2.20872E-004	2.40040E-001	5.51364E-001	3.57760E+000	9	...........
	21	0.293333	5.57853E-001	4.02154E-004	0.00000E+000	2.24342E-004	2.40040E-001	5.58076E-001	3.57760E+000	9	...........
	22	0.306667	5.64514E-001	4.01645E-004	0.00000E+000	2.26734E-004	2.40040E-001	5.64704E-001	3.57760E+000	9	...........
	23	0.32	5.71120E-001	4.02040E-004	0.00000E+000	2.29613E-004	2.40040E-001	5.71290E-001	3.57760E+000	9	...........
	24	0.333333	5.77626E-001	4.02473E-004	0.00000E+000	2.32479E-004	2.40040E-001	5.77861E-001	3.57760E+000	9	...........
	25	0.346667	5.84131E-001	4.01221E-004	0.00000E+000	2.34366E-004	2.40040E-001	5.84353E-001	3.57760E+000	9	...........
	26	0.36	5.90613E-001	4.00506E-004	0.00000E+000	2.36544E-004	2.40040E-001	5.90863E-001	3.57760E+000	9	...........
	27	0.373333	5.97045E-001	4.00293E-004	0.00000E+000	2.38993E-004	2.40040E-001	5.97257E-001	3.57760E+000	9	...........
	28	0.386667	6.03492E-001	4.02064E-004	0.00000E+000	2.42642E-004	2.40040E-001	6.03767E-001	3.57760E+000	9	...........
	29	0.4	6.09888E-001	4.01328E-004	0.00000E+000	2.44765E-004	2.40040E-001	6.10136E-001	3.57760E+000	9	...........
	30	0.413333	6.16282E-001	4.00838E-004	0.00000E+000	2.47029E-004	2.40040E-001	6.16512E-001	3.57760E+000	9	...........
	31	0.426667	6.22653E-001	4.00716E-004	0.00000E+000	2.49507E-004	2.40040E-001	6.22853E-001	3.57760E+000	9	...........
	32	0.44	6.28954E-001	4.01333E-004	0.00000E+000	2.52420E-004	2.40040E-001	6.29166E-001	3.57760E+000	9	...........
	33	0.453333	6.35232E-001	4.01730E-004	0.00000E+000	2.55192E-004	2.40040E-001	6.35454E-001	3.57760E+000	9	...........
	34	0.466667	6.41451E-001	4.01854E-004	0.00000E+000	2.57769E-004	2.40040E-001	6.41669E-001	3.57760E+000	9	...........
	35	0.48	6.47611E-001	4.00282E-004	0.00000E+000	2.59227E-004	2.40040E-001	6.47831E-001	3.57760E+000	9	...........
	36	0.493333	6.53782E-001	4.00369E-004	0.00000E+000	2.61754E-004	2.40040E-001	6.54051E-001	3.57760E+000	9	...........
	37	0.506667	6.59968E-001	4.01607E-004	0.00000E+000	2.65047E-004	2.40040E-001	6.60195E-001	3.57760E+000	9	...........
	38	0.52	6.66183E-001	4.01893E-004	0.00000E+000	2.67734E-004	2.40040E-001	6.66419E-001	3.57760E+000	9	...........
	39	0.533333	6.72261E-001	4.00891E-004	0.00000E+000	2.69503E-004	2.40040E-001	6.72484E-001	3.57760E+000	9	...........
	40	0.546667	6.78313E-001	4.00711E-004	0.00000E+000	2.71807E-004	2.40040E-001	6.78570E-001	3.57760E+000	9	...........
	41	0.56	6.84384E-001	4.01762E-004	0.00000E+000	2.74960E-004	2.40040E-001	6.84617E-001	3.57760E+000	9	...........
	42	0.573333	6.90437E-001	4.01575E-004	0.00000E+000	2.77262E-004	2.40040E-001	6.90674E-001	3.57760E+000	9	...........
	43	0.586667	6.96425E-001	4.00610E-004	0.00000E+000	2.78995E-004	2.40040E-001	6.96671E-001	3.57760E+000	9	...........
	44	0.6	7.02397E-001	4.02064E-004	0.00000E+000	2.82409E-004	2.40040E-001	7.02646E-001	3.57760E+000	9	...........
	45	0.613333	7.08306E-001	4.01379E-004	0.00000E+000	2.84299E-004	2.40040E-001	7.08583E-001	3.57760E+000	9	...........
	46	0.626667	7.14237E-001	4.02352E-004	0.00000E+000	2.87374E-004	2.40040E-001	7.14505E-001	3.57760E+000	9	...........
	47	0.64	7.20189E-001	4.01139E-004	0.00000E+000	2.88896E-004	2.40040E-001	7.20453E-001	3.57760E+000	9	...........
	48	0.653333	7.25991E-001	4.00141E-004	0.00000E+000	2.90499E-004	2.40040E-001	7.26215E-001	3.57760E+000	9	...........
	49	0.666667	7.31734E-001	4.00248E-004	0.00000E+000	2.92875E-004	2.40040E-001	7.32010E-001	3.57760E+000	9	...........
	50	0.68	7.37493E-001	4.00376E-004	0.00000E+000	2.95274E-004	2.40040E-001	7.37751E-001	3.57760E+000	9	...........
	51	0.693333	7.43350E-001	4.00916E-004	0.00000E+000	2.98021E-004	2.40040E-001	7.43566E-001	3.57760E+000	9	...........
	52	0.706667	7.49047E-001	4.01516E-004	0.00000E+000	3.00754E-004	2.40040E-001	7.49274E-001	3.57760E+000	9	...........
	53	0.72	7.54743E-001	4.02384E-004	0.00000E+000	3.03696E-004	2.40040E-001	7.55002E-001	3.57760E+000	9	...........
	54	0.733333	7.60424E-001	4.00856E-004	0.00000E+000	3.04821E-004	2.40040E-001	7.60636E-001	3.57760E+000	9	...........
	55	0.746667	7.66072E-001	4.01344E-004	0.00000E+000	3.07458E-004	2.40040E-001	7.66345E-001	3.57760E+000	9	...........
	56	0.76	7.71694E-001	4.00530E-004	0.00000E+000	3.09087E-004	2.40040E-001	7.71955E-001	3.57760E+000	9	...........
	57	0.773333	7.77289E-001	4.01020E-004	0.00000E+000	3.11708E-004	2.40040E-001	7.77564E-001	3.57760E+000	9	...........
	58	0.786667	7.82821E-001	4.01699E-004	0.00000E+000	3.14459E-004	2.40040E-001	7.83084E-001	3.57760E+000	9	...........
	59	0.8	7.88307E-001	4.00486E-004	0.00000E+000	3.15705E-004	2.40040E-001	7.88560E-001	3.57760E+000	9	...........
	60	0.813333	7.93816E-001	4.00362E-004	0.00000E+000	3.17813E-004	2.40040E-001	7.94085E-001	3.57760E+000	9	...........
	61	0.826667	7.99327E-001	4.01066E-004	0.00000E+000	3.20583E-004	2.40040E-001	7.99586E-001	3.57760E+000	9	...........
	62	0.84	8.04700E-001	4.00346E-004	0.00000E+000	3.22158E-004	2.40040E-001	8.04976E-001	3.57760E+000	9	...........
	63	0.853333	8.10070E-001	3.99797E-004	0.00000E+000	3.23863E-004	2.40040E-001	8.10356E-001	3.57760E+000	9	...........
	64	0.866667	8.15394E-001	4.02065E-004	0.00000E+000	3.27841E-004	2.40040E-001	8.15676E-001	3.57760E+000	9	...........
	65	0.88	8.20728E-001	4.01271E-004	0.00000E+000	3.29335E-004	2.40040E-001	8.21000E-001	3.57760E+000	9	...........
	66	0.893333	8.25983E-001	4.01515E-004	0.00000E+000	3.31644E-004	2.40040E-001	8.26262E-001	3.57760E+000	9	...........
	67	0.906667	8.31159E-001	4.01004E-004	0.00000E+000	3.33298E-004	2.40040E-001	8.31442E-001	3.57760E+000	9	...........
	68	0.92	8.36349E-001	4.00977E-004	0.00000E+000	3.35357E-004	2.40040E-001	8.36625E-001	3.57760E+000	9	...........
	69	0.933333	8.41495E-001	4.00776E-004	0.00000E+000	3.37251E-004	2.40040E-001	8.41810E-001	3.57760E+000	9	...........
	70	0.946667	8.46643E-001	3.99838E-004	0.00000E+000	3.38520E-004	2.40040E-001	8.46940E-001	3.57760E+000	9	...........
	71	0.96	8.51726E-001	4.00739E-004	0.00000E+000	3.41320E-004	2.40040E-001	8.52014E-001	3.57767E+000	9	...........
	72	0.97333	8.56803E-001	4.00723E-004	0.00000E+000	3.43341E-004	2.40040E-001	8.57089E-001	3.57770E+000	9	...........
	73	0.98667	8.61801E-001	4.00774E-004	0.00000E+000	3.45388E-004	2.40040E-001	8.62094E-001	3.57770E+000	9	...........
	74	1	8.66778E-001	4.02369E-004	0.00000E+000	3.48765E-004	2.40040E-001	8.67111E-001	3.57770E+000	9	...........
	75	1.01333	8.71756E-001	4.02623E-004	0.00000E+000	3.50989E-004	2.40040E-001	8.72044E-001	3.57770E+000	9	...........
	76	1.02667	8.76613E-001	4.00797E-004	0.00000E+000	3.51344E-004	2.40040E-001	8.76894E-001	3.57770E+000	9	...........
	77	1.04	8.81407E-001	4.01350E-004	0.00000E+000	3.53753E-004	2.40040E-001	8.81724E-001	3.57770E+000	9	...........
	78	1.05333	8.86266E-001	4.01183E-004	0.00000E+000	3.55555E-004	2.40040E-001	8.86547E-001	3.57770E+000	9	...........
	79	1.06667	8.90984E-001	4.00462E-004	0.00000E+000	3.56805E-004	2.40040E-001	8.91282E-001	3.57770E+000	9	...........
	80	1.08	8.95674E-001	4.00159E-004	0.00000E+000	3.58412E-004	2.40040E-001	8.96013E-001	3.57770E+000	9	...........
	81	1.09333	9.00362E-001	4.00951E-004	0.00000E+000	3.61001E-004	2.40040E-001	9.00683E-001	3.57770E+000	9	...........
	82	1.10667	9.04916E-001	4.01049E-004	0.00000E+000	3.62916E-004	2.40040E-001	9.05252E-001	3.57770E+000	9	...........
	83	1.12	9.09533E-001	4.01824E-004	0.00000E+000	3.65472E-004	2.40040E-001	9.09814E-001	3.57770E+000	9	...........
	84	1.13333	9.14068E-001	4.01974E-004	0.00000E+000	3.67432E-004	2.40040E-001	9.14352E-001	3.57770E+000	9	...........
	85	1.14667	9.18578E-001	4.01048E-004	0.00000E+000	3.68394E-004	2.40040E-001	9.18904E-001	3.57770E+000	9	...........
	86	1.16	9.23101E-001	4.00018E-004	0.00000E+000	3.69257E-004	2.40040E-001	9.23368E-001	3.57770E+000	9	...........
	87	1.17333	9.27519E-001	4.01199E-004	0.00000E+000	3.72120E-004	2.40040E-001	9.27802E-001	3.57770E+000	9	...........
	88	1.18667	9.31901E-001	4.00791E-004	0.00000E+000	3.73497E-004	2.40040E-001	9.32204E-001	3.57770E+000	9	...........
	89	1.2	9.36247E-001	4.01043E-004	0.00000E+000	3.75475E-004	2.40040E-001	9.36578E-001	3.57770E+000	9	...........
	90	1.21333	9.40499E-001	4.01207E-004	0.00000E+000	3.77334E-004	2.40040E-001	9.40794E-001	3.57770E+000	9	...........
	91	1.22667	9.44724E-001	4.01223E-004	0.00000E+000	3.79045E-004	2.40040E-001	9.45043E-001	3.57770E+000	9	...........
	92	1.24	9.48986E-001	4.00969E-004	0.00000E+000	3.80514E-004	2.40040E-001	9.49304E-001	3.57770E+000	9	...........
	93	1.25333	9.53152E-001	4.01108E-004	0.00000E+000	3.82317E-004	2.40040E-001	9.53481E-001	3.57770E+000	9	...........
	94	1.26667	9.57322E-001	4.02552E-004	0.00000E+000	3.85371E-004	2.40040E-001	9.57649E-001	3.57770E+000	9	...........
	95	1.28	9.61416E-001	4.01087E-004	0.00000E+000	3.85611E-004	2.40040E-001	9.61778E-001	3.57770E+000	9	...........
	96	1.29333	9.65400E-001	4.00673E-004	0.00000E+000	3.86810E-004	2.40040E-001	9.65731E-001	3.57770E+000	9	...........
	97	1.30667	9.69392E-001	3.99745E-004	0.00000E+000	3.87509E-004	2.40040E-001	9.69748E-001	3.57770E+000	9	...........
	98	1.32	9.73394E-001	4.00468E-004	0.00000E+000	3.89813E-004	2.40040E-001	9.73714E-001	3.57770E+000	9	...........
	99	1.33333	9.77340E-001	4.01111E-004	0.00000E+000	3.92022E-004	2.40040E-001	9.77650E-001	3.57770E+000	9	...........
	100	1.34667	9.81270E-001	4.00650E-004	0.00000E+000	3.93146E-004	2.40040E-001	9.81585E-001	3.57770E+000	9	...........
	101	1.36	9.85099E-001	4.01600E-004	0.00000E+000	3.95616E-004	2.40040E-001	9.85451E-001	3.57770E+000	9	...........
	102	1.37333	9.88909E-001	4.01214E-004	0.00000E+000	3.96764E-004	2.40040E-001	9.89227E-001	3.57770E+000	9	...........
	103	1.38667	9.92617E-001	4.00481E-004	0.00000E+000	3.97525E-004	2.40040E-001	9.92942E-001	3.57770E+000	9	...........
	104	1.4	9.96310E-001	3.99890E-004	0.00000E+000	3.98414E-004	2.40040E-001	9.96636E-001	3.57770E+000	9	...........
	105	1.40833	9.99268E-001	4.00069E-004	0.00000E+000	3.99776E-004	2.40040E-001	9.99607E-001	3.57770E+000	9	...........
STARTTIMEOFFSET	QUANT	2881.966	Start Time Offset (s)
