EXPLAIN
TAG	PWR800_CHARGE
TITLE	LABEL	PWR Cyclic Charge Discharge (Cell) - Charge Step	Test &Identifier
DATE	LABEL	12-7-2017	Date
TIME	LABEL	14:27:28	Time
NOTES	NOTES	3	&Notes...
	supercap test cell
	0.4mg
	6M KOH
PSTAT	PSTAT	IFC5000-01520	Potentiostat
CAPACITY	QUANT	1.00000E-003	Capacity (A-hr)
CELLTYPE	SELECTOR	1	&Cell Type
WORKINGCONNECTION	SELECTOR	0	&Working Lead
MAXCHARGETIME	VARIABLEANDUNITS	1.00000E+002	s	1.00000E+002	second(s)	Max &Charge Time
CHARGECURRENT	QUANT	4.00000E-004	&Charge Current (A) 
VOLTAGEFINISH	TWOPARAM	F	1.00000E-003	3.60000E+003	&Voltage Finish	 I (A) < 	Max Time(s)
SAMPLETIME	QUANT	1.00000E-002	Sa&mple Period (s)
CHARGESTOPAT1	MULTIPARAM	4	1.00000E+000	Charge Stop At &1	Voltage > Limit	V
CHARGESTOPAT2	MULTIPARAM	0	0.00000E+000	Charge Stop At &2	None	N/A
AESBHCSELECTOR	TOGGLE	F	Save Both Half Cells
IRCOMP	TOGGLE	F	IR &Measure
EOC	QUANT	0	Open Circuit (V)
SEQUENCER	TOGGLE	TRUE	Run as Sequence
PSTATMODEL	IQUANT	53	Pstat Model
PSTATSECTION	LABEL	IFC5000-01520	Pstat Section
PSTATSERIALNO	LABEL	01520	Pstat Serial Number
CTRLMODE	IQUANT	0	Control Mode
ELECTROMETER	IQUANT	1	RE=0 or CS=1
IESTAB	IQUANT	0	I/E Stability
CASPEED	IQUANT	4	Control Amp Speed
CONVENTION	IQUANT	1	Current Convention
ICHRANGE	IQUANT	2	Ich Range
ICHRANGEMODE	TOGGLE	T	Ich Auto Range
ICHOFFSETENABLE	TOGGLE	F	Ich Offset Enable
ICHOFFSET	QUANT	0	Ich Offset (V)
ICHFILTER	IQUANT	1	Ich Filter
VCHRANGE	IQUANT	2	Vch Range
VCHRANGEMODE	TOGGLE	T	Vch Auto Range
VCHOFFSETENABLE	TOGGLE	F	Vch Offset Enable
VCHOFFSET	QUANT	0	Vch Offset (V)
VCHFILTER	IQUANT	1	Vch Filter
IERANGELOWERLIMIT	IQUANT	9	I/E Range Lower Limit
IERANGEMODE	TOGGLE	F	I/E AutoRange
IERANGE	IQUANT	9	I/E Range
ACHSELECT	IQUANT	1	Ach Select
ACHRANGE	IQUANT	2	Ach Range
ACHOFFSETENABLE	TOGGLE	F	Ach Offset Enable
ACHOFFSET	QUANT	0	Ach Offset (V)
ACHFILTER	IQUANT	1	Ach Filter
CABLEID	IQUANT	14	Cable ID
DCCALDATE	LABEL	5-7-2017	DC Calibration Date
ACCALDATE	LABEL	12/3/2015	AC Calibration Date
FRAMEWORKVERSION	QUANT	7.01	Framework Version
INSTRUMENTVERSION	LABEL	4.00	Instrument Version
CURVE	TABLE	137
	Pt	T	Vf	Im	Vu	Pwr	Sig	Ach	Temp	IERange	Over
	#	s	V	A	V	W	V	V	deg C	#	bits
	0	0.013333	3.36400E-001	4.02057E-004	0.00000E+000	1.35252E-004	2.40040E-001	3.36485E-001	3.57590E+000	9	...........
	1	0.026667	3.46510E-001	4.01675E-004	0.00000E+000	1.39185E-004	2.40040E-001	3.46579E-001	3.57590E+000	9	...........
	2	0.04	3.55249E-001	4.00983E-004	0.00000E+000	1.42449E-004	2.40040E-001	3.55322E-001	3.57590E+000	9	...........
	3	0.053333	3.63247E-001	4.01566E-004	0.00000E+000	1.45868E-004	2.40040E-001	3.63322E-001	3.57590E+000	9	...........
	4	0.066667	3.70748E-001	4.01597E-004	0.00000E+000	1.48891E-004	2.40040E-001	3.70818E-001	3.57590E+000	9	...........
	5	0.08	3.77955E-001	4.00582E-004	0.00000E+000	1.51402E-004	2.40040E-001	3.78034E-001	3.57590E+000	9	...........
	6	0.093333	3.84884E-001	4.02529E-004	0.00000E+000	1.54927E-004	2.40040E-001	3.84955E-001	3.57590E+000	9	...........
	7	0.106667	3.91607E-001	4.01444E-004	0.00000E+000	1.57208E-004	2.40040E-001	3.91683E-001	3.57616E+000	9	...........
	8	0.12	3.98132E-001	4.01769E-004	0.00000E+000	1.59957E-004	2.40040E-001	3.98212E-001	3.57620E+000	9	...........
	9	0.133333	4.04539E-001	4.00910E-004	0.00000E+000	1.62184E-004	2.40040E-001	4.04614E-001	3.57620E+000	9	...........
	10	0.146667	4.10791E-001	4.01268E-004	0.00000E+000	1.64837E-004	2.40040E-001	4.10872E-001	3.57620E+000	9	...........
	11	0.16	4.16967E-001	4.00065E-004	0.00000E+000	1.66814E-004	2.40040E-001	4.17050E-001	3.57620E+000	9	...........
	12	0.173333	4.23090E-001	4.01137E-004	0.00000E+000	1.69717E-004	2.40040E-001	4.23172E-001	3.57620E+000	9	...........
	13	0.186667	4.29089E-001	4.00462E-004	0.00000E+000	1.71834E-004	2.40040E-001	4.29179E-001	3.57620E+000	9	...........
	14	0.2	4.34996E-001	4.01982E-004	0.00000E+000	1.74860E-004	2.40040E-001	4.35086E-001	3.57620E+000	9	...........
	15	0.213333	4.40862E-001	4.00852E-004	0.00000E+000	1.76721E-004	2.40040E-001	4.40953E-001	3.57620E+000	9	...........
	16	0.226667	4.46824E-001	4.01270E-004	0.00000E+000	1.79297E-004	2.40040E-001	4.46920E-001	3.57620E+000	9	...........
	17	0.24	4.52606E-001	4.00768E-004	0.00000E+000	1.81390E-004	2.40040E-001	4.52696E-001	3.57620E+000	9	...........
	18	0.253333	4.58277E-001	4.00798E-004	0.00000E+000	1.83677E-004	2.40040E-001	4.58369E-001	3.57620E+000	9	...........
	19	0.266667	4.64000E-001	4.01515E-004	0.00000E+000	1.86303E-004	2.40040E-001	4.64089E-001	3.57620E+000	9	...........
	20	0.28	4.69614E-001	4.01065E-004	0.00000E+000	1.88346E-004	2.40040E-001	4.69707E-001	3.57620E+000	9	...........
	21	0.293333	4.75259E-001	4.01319E-004	0.00000E+000	1.90730E-004	2.40040E-001	4.75348E-001	3.57620E+000	9	...........
	22	0.306667	4.80915E-001	4.00076E-004	0.00000E+000	1.92403E-004	2.40040E-001	4.81008E-001	3.57620E+000	9	...........
	23	0.32	4.86535E-001	4.00523E-004	0.00000E+000	1.94868E-004	2.40040E-001	4.86632E-001	3.57620E+000	9	...........
	24	0.333333	4.92029E-001	4.00402E-004	0.00000E+000	1.97009E-004	2.40040E-001	4.92126E-001	3.57620E+000	9	...........
	25	0.346667	4.97527E-001	4.01760E-004	0.00000E+000	1.99886E-004	2.40040E-001	4.97626E-001	3.57620E+000	9	...........
	26	0.36	5.02903E-001	4.01190E-004	0.00000E+000	2.01760E-004	2.40040E-001	5.03006E-001	3.57620E+000	9	...........
	27	0.373333	5.08339E-001	4.00536E-004	0.00000E+000	2.03608E-004	2.40040E-001	5.08442E-001	3.57620E+000	9	...........
	28	0.386667	5.13794E-001	4.02370E-004	0.00000E+000	2.06736E-004	2.40040E-001	5.13900E-001	3.57620E+000	9	...........
	29	0.4	5.19248E-001	4.00615E-004	0.00000E+000	2.08019E-004	2.40040E-001	5.19354E-001	3.57620E+000	9	...........
	30	0.413333	5.24644E-001	4.01028E-004	0.00000E+000	2.10397E-004	2.40040E-001	5.24745E-001	3.57620E+000	9	...........
	31	0.426667	5.30023E-001	4.00771E-004	0.00000E+000	2.12418E-004	2.40040E-001	5.30129E-001	3.57620E+000	9	...........
	32	0.44	5.35170E-001	3.99690E-004	0.00000E+000	2.13902E-004	2.40040E-001	5.35347E-001	3.57620E+000	9	...........
	33	0.453333	5.40452E-001	4.00841E-004	0.00000E+000	2.16635E-004	2.40040E-001	5.40710E-001	3.57620E+000	9	...........
	34	0.466667	5.45722E-001	4.01858E-004	0.00000E+000	2.19303E-004	2.40040E-001	5.45931E-001	3.57620E+000	9	...........
	35	0.48	5.51049E-001	4.00990E-004	0.00000E+000	2.20965E-004	2.40040E-001	5.51290E-001	3.57620E+000	9	...........
	36	0.493333	5.56345E-001	4.01621E-004	0.00000E+000	2.23440E-004	2.40040E-001	5.56570E-001	3.57620E+000	9	...........
	37	0.506667	5.61604E-001	4.00987E-004	0.00000E+000	2.25196E-004	2.40040E-001	5.61849E-001	3.57620E+000	9	...........
	38	0.52	5.66836E-001	4.00811E-004	0.00000E+000	2.27194E-004	2.40040E-001	5.67075E-001	3.57620E+000	9	...........
	39	0.533333	5.72134E-001	4.01040E-004	0.00000E+000	2.29449E-004	2.40040E-001	5.72346E-001	3.57620E+000	9	...........
	40	0.546667	5.77329E-001	4.00326E-004	0.00000E+000	2.31120E-004	2.40040E-001	5.77582E-001	3.57620E+000	9	...........
	41	0.56	5.82518E-001	4.01642E-004	0.00000E+000	2.33964E-004	2.40040E-001	5.82771E-001	3.57620E+000	9	...........
	42	0.573333	5.87690E-001	4.00946E-004	0.00000E+000	2.35632E-004	2.40040E-001	5.87930E-001	3.57620E+000	9	...........
	43	0.586667	5.92845E-001	4.00468E-004	0.00000E+000	2.37416E-004	2.40040E-001	5.93072E-001	3.57620E+000	9	...........
	44	0.6	5.98035E-001	4.02211E-004	0.00000E+000	2.40536E-004	2.40040E-001	5.98258E-001	3.57620E+000	9	...........
	45	0.613333	6.03221E-001	4.02414E-004	0.00000E+000	2.42744E-004	2.40040E-001	6.03473E-001	3.57620E+000	9	...........
	46	0.626667	6.08354E-001	4.02043E-004	0.00000E+000	2.44584E-004	2.40040E-001	6.08595E-001	3.57620E+000	9	...........
	47	0.64	6.13548E-001	4.00978E-004	0.00000E+000	2.46020E-004	2.40040E-001	6.13791E-001	3.57620E+000	9	...........
	48	0.653333	6.18790E-001	4.00938E-004	0.00000E+000	2.48096E-004	2.40040E-001	6.18986E-001	3.57620E+000	9	...........
	49	0.666667	6.23896E-001	4.01901E-004	0.00000E+000	2.50745E-004	2.40040E-001	6.24096E-001	3.57620E+000	9	...........
	50	0.68	6.28986E-001	3.99340E-004	0.00000E+000	2.51180E-004	2.40040E-001	6.29222E-001	3.57620E+000	9	...........
	51	0.693333	6.34011E-001	4.00768E-004	0.00000E+000	2.54091E-004	2.40040E-001	6.34254E-001	3.57620E+000	9	...........
	52	0.706667	6.39076E-001	4.02152E-004	0.00000E+000	2.57006E-004	2.40040E-001	6.39334E-001	3.57620E+000	9	...........
	53	0.72	6.44125E-001	4.00700E-004	0.00000E+000	2.58101E-004	2.40040E-001	6.44351E-001	3.57620E+000	9	...........
	54	0.733333	6.49150E-001	4.00919E-004	0.00000E+000	2.60257E-004	2.40040E-001	6.49408E-001	3.57620E+000	9	...........
	55	0.746667	6.54220E-001	4.00815E-004	0.00000E+000	2.62221E-004	2.40040E-001	6.54443E-001	3.57620E+000	9	...........
	56	0.76	6.59215E-001	4.02085E-004	0.00000E+000	2.65060E-004	2.40040E-001	6.59436E-001	3.57620E+000	9	...........
	57	0.773333	6.64304E-001	4.01031E-004	0.00000E+000	2.66407E-004	2.40040E-001	6.64530E-001	3.57620E+000	9	...........
	58	0.786667	6.69358E-001	4.00251E-004	0.00000E+000	2.67911E-004	2.40040E-001	6.69547E-001	3.57620E+000	9	...........
	59	0.8	6.74419E-001	3.99624E-004	0.00000E+000	2.69514E-004	2.40040E-001	6.74618E-001	3.57620E+000	9	...........
	60	0.813333	6.79429E-001	4.01774E-004	0.00000E+000	2.72977E-004	2.40040E-001	6.79630E-001	3.57620E+000	9	...........
	61	0.826667	6.84328E-001	4.00843E-004	0.00000E+000	2.74308E-004	2.40040E-001	6.84517E-001	3.57620E+000	9	...........
	62	0.84	6.89332E-001	3.99658E-004	0.00000E+000	2.75497E-004	2.40040E-001	6.89559E-001	3.57620E+000	9	...........
	63	0.853333	6.94317E-001	4.01141E-004	0.00000E+000	2.78519E-004	2.40040E-001	6.94548E-001	3.57620E+000	9	...........
	64	0.866667	6.99249E-001	4.00946E-004	0.00000E+000	2.80361E-004	2.40040E-001	6.99457E-001	3.57620E+000	9	...........
	65	0.88	7.04163E-001	4.00599E-004	0.00000E+000	2.82087E-004	2.40040E-001	7.04365E-001	3.57620E+000	9	...........
	66	0.893333	7.09011E-001	4.01567E-004	0.00000E+000	2.84715E-004	2.40040E-001	7.09238E-001	3.57620E+000	9	...........
	67	0.906667	7.13930E-001	4.00313E-004	0.00000E+000	2.85795E-004	2.40040E-001	7.14161E-001	3.57620E+000	9	...........
	68	0.92	7.18911E-001	4.01855E-004	0.00000E+000	2.88898E-004	2.40040E-001	7.19143E-001	3.57620E+000	9	...........
	69	0.933333	7.23829E-001	4.01277E-004	0.00000E+000	2.90456E-004	2.40040E-001	7.24064E-001	3.57620E+000	9	...........
	70	0.946667	7.28655E-001	4.01264E-004	0.00000E+000	2.92383E-004	2.40040E-001	7.28888E-001	3.57620E+000	9	...........
	71	0.96	7.33397E-001	4.00608E-004	0.00000E+000	2.93805E-004	2.40040E-001	7.33628E-001	3.57620E+000	9	...........
	72	0.97333	7.38254E-001	4.00587E-004	0.00000E+000	2.95735E-004	2.40040E-001	7.38480E-001	3.57620E+000	9	...........
	73	0.98667	7.43080E-001	4.01702E-004	0.00000E+000	2.98497E-004	2.40040E-001	7.43305E-001	3.57620E+000	9	...........
	74	1	7.47850E-001	4.02418E-004	0.00000E+000	3.00949E-004	2.40040E-001	7.48050E-001	3.57620E+000	9	...........
	75	1.01333	7.52635E-001	4.00092E-004	0.00000E+000	3.01123E-004	2.40040E-001	7.52858E-001	3.57620E+000	9	...........
	76	1.02667	7.57489E-001	4.01351E-004	0.00000E+000	3.04019E-004	2.40040E-001	7.57706E-001	3.57620E+000	9	...........
	77	1.04	7.62256E-001	4.00047E-004	0.00000E+000	3.04938E-004	2.40040E-001	7.62461E-001	3.57620E+000	9	...........
	78	1.05333	7.66999E-001	4.01527E-004	0.00000E+000	3.07971E-004	2.40040E-001	7.67232E-001	3.57620E+000	9	...........
	79	1.06667	7.71653E-001	4.01766E-004	0.00000E+000	3.10024E-004	2.40040E-001	7.71887E-001	3.57620E+000	9	...........
	80	1.08	7.76371E-001	4.00605E-004	0.00000E+000	3.11018E-004	2.40040E-001	7.76611E-001	3.57620E+000	9	...........
	81	1.09333	7.81081E-001	4.00448E-004	0.00000E+000	3.12783E-004	2.40040E-001	7.81332E-001	3.57620E+000	9	...........
	82	1.10667	7.85774E-001	4.00198E-004	0.00000E+000	3.14465E-004	2.40040E-001	7.86032E-001	3.57629E+000	9	...........
	83	1.12	7.90361E-001	4.01023E-004	0.00000E+000	3.16953E-004	2.40040E-001	7.90629E-001	3.57630E+000	9	...........
	84	1.13333	7.95026E-001	4.00080E-004	0.00000E+000	3.18074E-004	2.40040E-001	7.95291E-001	3.57630E+000	9	...........
	85	1.14667	7.99677E-001	4.00571E-004	0.00000E+000	3.20327E-004	2.40040E-001	7.99941E-001	3.57630E+000	9	...........
	86	1.16	8.04240E-001	4.00149E-004	0.00000E+000	3.21816E-004	2.40040E-001	8.04526E-001	3.57630E+000	9	...........
	87	1.17333	8.08849E-001	4.00190E-004	0.00000E+000	3.23693E-004	2.40040E-001	8.09111E-001	3.57630E+000	9	...........
	88	1.18667	8.13441E-001	4.01191E-004	0.00000E+000	3.26345E-004	2.40040E-001	8.13700E-001	3.57630E+000	9	...........
	89	1.2	8.17975E-001	4.01406E-004	0.00000E+000	3.28340E-004	2.40040E-001	8.18246E-001	3.57630E+000	9	...........
	90	1.21333	8.22510E-001	4.00078E-004	0.00000E+000	3.29068E-004	2.40040E-001	8.22793E-001	3.57630E+000	9	...........
	91	1.22667	8.27073E-001	4.00257E-004	0.00000E+000	3.31042E-004	2.40040E-001	8.27340E-001	3.57630E+000	9	...........
	92	1.24	8.31554E-001	4.01143E-004	0.00000E+000	3.33572E-004	2.40040E-001	8.31857E-001	3.57630E+000	9	...........
	93	1.25333	8.35984E-001	4.01789E-004	0.00000E+000	3.35889E-004	2.40040E-001	8.36311E-001	3.57630E+000	9	...........
	94	1.26667	8.40353E-001	4.01686E-004	0.00000E+000	3.37558E-004	2.40040E-001	8.40668E-001	3.57630E+000	9	...........
	95	1.28	8.44770E-001	4.01713E-004	0.00000E+000	3.39355E-004	2.40040E-001	8.45077E-001	3.57630E+000	9	...........
	96	1.29333	8.49132E-001	4.00974E-004	0.00000E+000	3.40480E-004	2.40040E-001	8.49419E-001	3.57630E+000	9	...........
	97	1.30667	8.53381E-001	4.01291E-004	0.00000E+000	3.42454E-004	2.40040E-001	8.53664E-001	3.57630E+000	9	...........
	98	1.32	8.57627E-001	4.01210E-004	0.00000E+000	3.44088E-004	2.40040E-001	8.57929E-001	3.57630E+000	9	...........
	99	1.33333	8.61973E-001	4.00817E-004	0.00000E+000	3.45493E-004	2.40040E-001	8.62282E-001	3.57630E+000	9	...........
	100	1.34667	8.66289E-001	4.01747E-004	0.00000E+000	3.48029E-004	2.40040E-001	8.66622E-001	3.57630E+000	9	...........
	101	1.36	8.70596E-001	4.01730E-004	0.00000E+000	3.49744E-004	2.40040E-001	8.70891E-001	3.57630E+000	9	...........
	102	1.37333	8.74740E-001	4.00444E-004	0.00000E+000	3.50284E-004	2.40040E-001	8.75061E-001	3.57630E+000	9	...........
	103	1.38667	8.78893E-001	3.99727E-004	0.00000E+000	3.51317E-004	2.40040E-001	8.79199E-001	3.57630E+000	9	...........
	104	1.4	8.83019E-001	3.99677E-004	0.00000E+000	3.52922E-004	2.40040E-001	8.83327E-001	3.57630E+000	9	...........
	105	1.41333	8.87159E-001	4.00229E-004	0.00000E+000	3.55067E-004	2.40040E-001	8.87468E-001	3.57630E+000	9	...........
	106	1.42667	8.91267E-001	4.01510E-004	0.00000E+000	3.57852E-004	2.40040E-001	8.91553E-001	3.57630E+000	9	...........
	107	1.44	8.95366E-001	4.01443E-004	0.00000E+000	3.59438E-004	2.40040E-001	8.95692E-001	3.57630E+000	9	...........
	108	1.45333	8.99399E-001	4.00500E-004	0.00000E+000	3.60209E-004	2.40040E-001	8.99692E-001	3.57630E+000	9	...........
	109	1.46667	9.03409E-001	4.01919E-004	0.00000E+000	3.63097E-004	2.40040E-001	9.03729E-001	3.57630E+000	9	...........
	110	1.48	9.07382E-001	4.02091E-004	0.00000E+000	3.64850E-004	2.40040E-001	9.07697E-001	3.57630E+000	9	...........
	111	1.49333	9.11352E-001	4.00985E-004	0.00000E+000	3.65438E-004	2.40040E-001	9.11632E-001	3.57630E+000	9	...........
	112	1.50667	9.15201E-001	3.99568E-004	0.00000E+000	3.65685E-004	2.40040E-001	9.15523E-001	3.57630E+000	9	...........
	113	1.52	9.19137E-001	4.01385E-004	0.00000E+000	3.68928E-004	2.40040E-001	9.19428E-001	3.57630E+000	9	...........
	114	1.53333	9.23048E-001	4.01546E-004	0.00000E+000	3.70646E-004	2.40040E-001	9.23278E-001	3.57630E+000	9	...........
	115	1.54667	9.26872E-001	4.01411E-004	0.00000E+000	3.72056E-004	2.40040E-001	9.27119E-001	3.57630E+000	9	...........
	116	1.56	9.30694E-001	4.01290E-004	0.00000E+000	3.73478E-004	2.40040E-001	9.30953E-001	3.57630E+000	9	...........
	117	1.57333	9.34511E-001	4.01488E-004	0.00000E+000	3.75195E-004	2.40040E-001	9.34803E-001	3.57630E+000	9	...........
	118	1.58667	9.38244E-001	4.00438E-004	0.00000E+000	3.75708E-004	2.40040E-001	9.38586E-001	3.57630E+000	9	...........
	119	1.6	9.41911E-001	4.00630E-004	0.00000E+000	3.77358E-004	2.40040E-001	9.42233E-001	3.57630E+000	9	...........
	120	1.61333	9.45546E-001	4.01218E-004	0.00000E+000	3.79370E-004	2.40040E-001	9.45866E-001	3.57630E+000	9	...........
	121	1.62667	9.49212E-001	4.01353E-004	0.00000E+000	3.80970E-004	2.40040E-001	9.49535E-001	3.57630E+000	9	...........
	122	1.64	9.52836E-001	3.99711E-004	0.00000E+000	3.80859E-004	2.40040E-001	9.53135E-001	3.57630E+000	9	...........
	123	1.65333	9.56406E-001	4.01899E-004	0.00000E+000	3.84379E-004	2.40040E-001	9.56720E-001	3.57630E+000	9	...........
	124	1.66667	9.59970E-001	4.01949E-004	0.00000E+000	3.85859E-004	2.40040E-001	9.60266E-001	3.57630E+000	9	...........
	125	1.68	9.63488E-001	4.01321E-004	0.00000E+000	3.86668E-004	2.40040E-001	9.63815E-001	3.57630E+000	9	...........
	126	1.69333	9.66954E-001	3.99944E-004	0.00000E+000	3.86727E-004	2.40040E-001	9.67269E-001	3.57630E+000	9	...........
	127	1.70667	9.70394E-001	4.00163E-004	0.00000E+000	3.88315E-004	2.40040E-001	9.70733E-001	3.57630E+000	9	...........
	128	1.72	9.73944E-001	4.01154E-004	0.00000E+000	3.90702E-004	2.40040E-001	9.74268E-001	3.57630E+000	9	...........
	129	1.73333	9.77308E-001	4.02585E-004	0.00000E+000	3.93449E-004	2.40040E-001	9.77619E-001	3.57630E+000	9	...........
	130	1.74667	9.80654E-001	4.01017E-004	0.00000E+000	3.93259E-004	2.40040E-001	9.80975E-001	3.57630E+000	9	...........
	131	1.76	9.83961E-001	4.00529E-004	0.00000E+000	3.94105E-004	2.40040E-001	9.84311E-001	3.57630E+000	9	...........
	132	1.77333	9.87264E-001	4.01319E-004	0.00000E+000	3.96208E-004	2.40040E-001	9.87589E-001	3.57630E+000	9	...........
	133	1.78667	9.90494E-001	4.01539E-004	0.00000E+000	3.97722E-004	2.40040E-001	9.90831E-001	3.57630E+000	9	...........
	134	1.8	9.93676E-001	4.00326E-004	0.00000E+000	3.97795E-004	2.40040E-001	9.94026E-001	3.57630E+000	9	...........
	135	1.81333	9.96895E-001	4.01359E-004	0.00000E+000	4.00112E-004	2.40040E-001	9.97272E-001	3.57630E+000	9	...........
	136	1.82167	9.99506E-001	4.01574E-004	0.00000E+000	4.01376E-004	2.40040E-001	9.99851E-001	3.57630E+000	9	...........
STARTTIMEOFFSET	QUANT	427.2184	Start Time Offset (s)
