EXPLAIN
TAG	PWR800_CHARGE
TITLE	LABEL	PWR Cyclic Charge Discharge (Cell) - Charge Step	Test &Identifier
DATE	LABEL	12-7-2017	Date
TIME	LABEL	14:50:28	Time
NOTES	NOTES	3	&Notes...
	supercap test cell
	0.4mg
	6M KOH
PSTAT	PSTAT	IFC5000-01520	Potentiostat
CAPACITY	QUANT	1.00000E-003	Capacity (A-hr)
CELLTYPE	SELECTOR	1	&Cell Type
WORKINGCONNECTION	SELECTOR	0	&Working Lead
MAXCHARGETIME	VARIABLEANDUNITS	1.00000E+002	s	1.00000E+002	second(s)	Max &Charge Time
CHARGECURRENT	QUANT	4.00000E-004	&Charge Current (A) 
VOLTAGEFINISH	TWOPARAM	F	1.00000E-003	3.60000E+003	&Voltage Finish	 I (A) < 	Max Time(s)
SAMPLETIME	QUANT	1.00000E-002	Sa&mple Period (s)
CHARGESTOPAT1	MULTIPARAM	4	1.00000E+000	Charge Stop At &1	Voltage > Limit	V
CHARGESTOPAT2	MULTIPARAM	0	0.00000E+000	Charge Stop At &2	None	N/A
AESBHCSELECTOR	TOGGLE	F	Save Both Half Cells
IRCOMP	TOGGLE	F	IR &Measure
EOC	QUANT	0	Open Circuit (V)
SEQUENCER	TOGGLE	TRUE	Run as Sequence
PSTATMODEL	IQUANT	53	Pstat Model
PSTATSECTION	LABEL	IFC5000-01520	Pstat Section
PSTATSERIALNO	LABEL	01520	Pstat Serial Number
CTRLMODE	IQUANT	0	Control Mode
ELECTROMETER	IQUANT	1	RE=0 or CS=1
IESTAB	IQUANT	0	I/E Stability
CASPEED	IQUANT	4	Control Amp Speed
CONVENTION	IQUANT	1	Current Convention
ICHRANGE	IQUANT	2	Ich Range
ICHRANGEMODE	TOGGLE	T	Ich Auto Range
ICHOFFSETENABLE	TOGGLE	F	Ich Offset Enable
ICHOFFSET	QUANT	0	Ich Offset (V)
ICHFILTER	IQUANT	1	Ich Filter
VCHRANGE	IQUANT	2	Vch Range
VCHRANGEMODE	TOGGLE	T	Vch Auto Range
VCHOFFSETENABLE	TOGGLE	F	Vch Offset Enable
VCHOFFSET	QUANT	0	Vch Offset (V)
VCHFILTER	IQUANT	1	Vch Filter
IERANGELOWERLIMIT	IQUANT	9	I/E Range Lower Limit
IERANGEMODE	TOGGLE	F	I/E AutoRange
IERANGE	IQUANT	9	I/E Range
ACHSELECT	IQUANT	1	Ach Select
ACHRANGE	IQUANT	2	Ach Range
ACHOFFSETENABLE	TOGGLE	F	Ach Offset Enable
ACHOFFSET	QUANT	0	Ach Offset (V)
ACHFILTER	IQUANT	1	Ach Filter
CABLEID	IQUANT	14	Cable ID
DCCALDATE	LABEL	5-7-2017	DC Calibration Date
ACCALDATE	LABEL	12/3/2015	AC Calibration Date
FRAMEWORKVERSION	QUANT	7.01	Framework Version
INSTRUMENTVERSION	LABEL	4.00	Instrument Version
CURVE	TABLE	118
	Pt	T	Vf	Im	Vu	Pwr	Sig	Ach	Temp	IERange	Over
	#	s	V	A	V	W	V	V	deg C	#	bits
	0	0.013333	3.78058E-001	4.01325E-004	0.00000E+000	1.51724E-004	2.40040E-001	3.78162E-001	3.57700E+000	9	...........
	1	0.026667	3.89314E-001	4.00059E-004	0.00000E+000	1.55749E-004	2.40040E-001	3.89389E-001	3.57700E+000	9	...........
	2	0.04	3.98834E-001	3.99775E-004	0.00000E+000	1.59444E-004	2.40040E-001	3.98917E-001	3.57700E+000	9	...........
	3	0.053333	4.07544E-001	4.00752E-004	0.00000E+000	1.63324E-004	2.40040E-001	4.07625E-001	3.57700E+000	9	...........
	4	0.066667	4.15671E-001	3.99608E-004	0.00000E+000	1.66106E-004	2.40040E-001	4.15756E-001	3.57700E+000	9	...........
	5	0.08	4.23375E-001	4.00649E-004	0.00000E+000	1.69625E-004	2.40040E-001	4.23464E-001	3.57700E+000	9	...........
	6	0.093333	4.30815E-001	4.00523E-004	0.00000E+000	1.72551E-004	2.40040E-001	4.30903E-001	3.57700E+000	9	...........
	7	0.106667	4.38018E-001	4.01100E-004	0.00000E+000	1.75689E-004	2.40040E-001	4.38107E-001	3.57700E+000	9	...........
	8	0.12	4.45053E-001	4.00056E-004	0.00000E+000	1.78046E-004	2.40040E-001	4.45149E-001	3.57700E+000	9	...........
	9	0.133333	4.52026E-001	4.00237E-004	0.00000E+000	1.80917E-004	2.40040E-001	4.52115E-001	3.57700E+000	9	...........
	10	0.146667	4.58756E-001	4.01180E-004	0.00000E+000	1.84044E-004	2.40040E-001	4.58848E-001	3.57700E+000	9	...........
	11	0.16	4.65403E-001	4.02144E-004	0.00000E+000	1.87159E-004	2.40040E-001	4.65499E-001	3.57700E+000	9	...........
	12	0.173333	4.72010E-001	3.99923E-004	0.00000E+000	1.88768E-004	2.40040E-001	4.72105E-001	3.57700E+000	9	...........
	13	0.186667	4.78547E-001	4.00968E-004	0.00000E+000	1.91882E-004	2.40040E-001	4.78641E-001	3.57700E+000	9	...........
	14	0.2	4.84947E-001	4.00972E-004	0.00000E+000	1.94450E-004	2.40040E-001	4.85042E-001	3.57700E+000	9	...........
	15	0.213333	4.91339E-001	4.01361E-004	0.00000E+000	1.97204E-004	2.40040E-001	4.91440E-001	3.57700E+000	9	...........
	16	0.226667	4.97623E-001	4.00157E-004	0.00000E+000	1.99127E-004	2.40040E-001	4.97723E-001	3.57700E+000	9	...........
	17	0.24	5.03846E-001	4.01261E-004	0.00000E+000	2.02174E-004	2.40040E-001	5.03946E-001	3.57700E+000	9	...........
	18	0.253333	5.10042E-001	4.01025E-004	0.00000E+000	2.04540E-004	2.40040E-001	5.10148E-001	3.57700E+000	9	...........
	19	0.266667	5.16181E-001	4.01127E-004	0.00000E+000	2.07054E-004	2.40040E-001	5.16287E-001	3.57700E+000	9	...........
	20	0.28	5.22224E-001	4.01690E-004	0.00000E+000	2.09772E-004	2.40040E-001	5.22335E-001	3.57700E+000	9	...........
	21	0.293333	5.28241E-001	3.99829E-004	0.00000E+000	2.11206E-004	2.40040E-001	5.28351E-001	3.57700E+000	9	...........
	22	0.306667	5.34046E-001	4.00683E-004	0.00000E+000	2.13983E-004	2.40040E-001	5.34182E-001	3.57700E+000	9	...........
	23	0.32	5.39962E-001	4.00952E-004	0.00000E+000	2.16499E-004	2.40040E-001	5.40135E-001	3.57700E+000	9	...........
	24	0.333333	5.45902E-001	4.00945E-004	0.00000E+000	2.18877E-004	2.40040E-001	5.46089E-001	3.57700E+000	9	...........
	25	0.346667	5.51804E-001	4.00440E-004	0.00000E+000	2.20964E-004	2.40040E-001	5.51996E-001	3.57700E+000	9	...........
	26	0.36	5.57651E-001	4.01421E-004	0.00000E+000	2.23853E-004	2.40040E-001	5.57827E-001	3.57700E+000	9	...........
	27	0.373333	5.63577E-001	4.01110E-004	0.00000E+000	2.26056E-004	2.40040E-001	5.63781E-001	3.57700E+000	9	...........
	28	0.386667	5.69387E-001	4.02069E-004	0.00000E+000	2.28933E-004	2.40040E-001	5.69592E-001	3.57700E+000	9	...........
	29	0.4	5.75202E-001	4.00875E-004	0.00000E+000	2.30584E-004	2.40040E-001	5.75405E-001	3.57700E+000	9	...........
	30	0.413333	5.81051E-001	4.01035E-004	0.00000E+000	2.33022E-004	2.40040E-001	5.81265E-001	3.57700E+000	9	...........
	31	0.426667	5.86797E-001	4.00837E-004	0.00000E+000	2.35210E-004	2.40040E-001	5.87018E-001	3.57700E+000	9	...........
	32	0.44	5.92520E-001	4.02179E-004	0.00000E+000	2.38299E-004	2.40040E-001	5.92758E-001	3.57700E+000	9	...........
	33	0.453333	5.98293E-001	4.00607E-004	0.00000E+000	2.39680E-004	2.40040E-001	5.98533E-001	3.57700E+000	9	...........
	34	0.466667	6.04037E-001	4.01187E-004	0.00000E+000	2.42332E-004	2.40040E-001	6.04288E-001	3.57700E+000	9	...........
	35	0.48	6.09717E-001	4.00741E-004	0.00000E+000	2.44338E-004	2.40040E-001	6.09988E-001	3.57700E+000	9	...........
	36	0.493333	6.15449E-001	4.01106E-004	0.00000E+000	2.46861E-004	2.40040E-001	6.15701E-001	3.57700E+000	9	...........
	37	0.506667	6.21142E-001	4.00312E-004	0.00000E+000	2.48650E-004	2.40040E-001	6.21349E-001	3.57700E+000	9	...........
	38	0.52	6.26756E-001	4.01039E-004	0.00000E+000	2.51353E-004	2.40040E-001	6.26987E-001	3.57700E+000	9	...........
	39	0.533333	6.32316E-001	4.00313E-004	0.00000E+000	2.53124E-004	2.40040E-001	6.32546E-001	3.57700E+000	9	...........
	40	0.546667	6.37867E-001	4.01595E-004	0.00000E+000	2.56164E-004	2.40040E-001	6.38112E-001	3.57700E+000	9	...........
	41	0.56	6.43450E-001	4.01628E-004	0.00000E+000	2.58428E-004	2.40040E-001	6.43682E-001	3.57700E+000	9	...........
	42	0.573333	6.49023E-001	4.00390E-004	0.00000E+000	2.59862E-004	2.40040E-001	6.49289E-001	3.57700E+000	9	...........
	43	0.586667	6.54696E-001	4.01543E-004	0.00000E+000	2.62889E-004	2.40040E-001	6.54931E-001	3.57700E+000	9	...........
	44	0.6	6.60249E-001	4.00879E-004	0.00000E+000	2.64680E-004	2.40040E-001	6.60484E-001	3.57700E+000	9	...........
	45	0.613333	6.65760E-001	4.01543E-004	0.00000E+000	2.67331E-004	2.40040E-001	6.66003E-001	3.57700E+000	9	...........
	46	0.626667	6.71341E-001	4.00287E-004	0.00000E+000	2.68729E-004	2.40040E-001	6.71565E-001	3.57700E+000	9	...........
	47	0.64	6.76874E-001	4.02243E-004	0.00000E+000	2.72268E-004	2.40040E-001	6.77084E-001	3.57919E+000	9	...........
	48	0.653333	6.82329E-001	4.02719E-004	0.00000E+000	2.74787E-004	2.40040E-001	6.82553E-001	3.58050E+000	9	...........
	49	0.666667	6.87806E-001	4.00382E-004	0.00000E+000	2.75385E-004	2.40040E-001	6.88044E-001	3.58050E+000	9	...........
	50	0.68	6.93286E-001	4.00893E-004	0.00000E+000	2.77934E-004	2.40040E-001	6.93515E-001	3.58050E+000	9	...........
	51	0.693333	6.98723E-001	4.00860E-004	0.00000E+000	2.80090E-004	2.40040E-001	6.98924E-001	3.58050E+000	9	...........
	52	0.706667	7.04117E-001	4.01706E-004	0.00000E+000	2.82848E-004	2.40040E-001	7.04318E-001	3.58050E+000	9	...........
	53	0.72	7.09462E-001	4.00959E-004	0.00000E+000	2.84465E-004	2.40040E-001	7.09704E-001	3.58050E+000	9	...........
	54	0.733333	7.14932E-001	4.00635E-004	0.00000E+000	2.86426E-004	2.40040E-001	7.15179E-001	3.58050E+000	9	...........
	55	0.746667	7.20383E-001	4.01005E-004	0.00000E+000	2.88877E-004	2.40040E-001	7.20596E-001	3.58050E+000	9	...........
	56	0.76	7.25802E-001	4.00495E-004	0.00000E+000	2.90680E-004	2.40040E-001	7.26005E-001	3.58050E+000	9	...........
	57	0.773333	7.31034E-001	3.99357E-004	0.00000E+000	2.91944E-004	2.40040E-001	7.31298E-001	3.58050E+000	9	...........
	58	0.786667	7.36359E-001	4.01025E-004	0.00000E+000	2.95298E-004	2.40040E-001	7.36574E-001	3.58050E+000	9	...........
	59	0.8	7.41607E-001	4.00880E-004	0.00000E+000	2.97296E-004	2.40040E-001	7.41878E-001	3.58050E+000	9	...........
	60	0.813333	7.46889E-001	4.00198E-004	0.00000E+000	2.98903E-004	2.40040E-001	7.47134E-001	3.58050E+000	9	...........
	61	0.826667	7.52129E-001	4.01791E-004	0.00000E+000	3.02199E-004	2.40040E-001	7.52399E-001	3.58050E+000	9	...........
	62	0.84	7.57330E-001	4.00853E-004	0.00000E+000	3.03578E-004	2.40040E-001	7.57555E-001	3.58050E+000	9	...........
	63	0.853333	7.62531E-001	4.01500E-004	0.00000E+000	3.06156E-004	2.40040E-001	7.62762E-001	3.58050E+000	9	...........
	64	0.866667	7.67688E-001	4.01084E-004	0.00000E+000	3.07907E-004	2.40040E-001	7.67959E-001	3.58050E+000	9	...........
	65	0.88	7.72830E-001	4.00295E-004	0.00000E+000	3.09360E-004	2.40040E-001	7.73076E-001	3.58050E+000	9	...........
	66	0.893333	7.77966E-001	3.99393E-004	0.00000E+000	3.10714E-004	2.40040E-001	7.78191E-001	3.58050E+000	9	...........
	67	0.906667	7.83071E-001	4.00928E-004	0.00000E+000	3.13955E-004	2.40040E-001	7.83284E-001	3.58050E+000	9	...........
	68	0.92	7.88152E-001	3.98955E-004	0.00000E+000	3.14437E-004	2.40040E-001	7.88394E-001	3.58050E+000	9	...........
	69	0.933333	7.93220E-001	4.02040E-004	0.00000E+000	3.18906E-004	2.40040E-001	7.93482E-001	3.58050E+000	9	...........
	70	0.946667	7.98324E-001	4.00016E-004	0.00000E+000	3.19342E-004	2.40040E-001	7.98571E-001	3.58050E+000	9	...........
	71	0.96	8.03277E-001	3.99986E-004	0.00000E+000	3.21300E-004	2.40040E-001	8.03538E-001	3.58050E+000	9	...........
	72	0.97333	8.08236E-001	4.01036E-004	0.00000E+000	3.24132E-004	2.40040E-001	8.08521E-001	3.58050E+000	9	...........
	73	0.98667	8.13167E-001	4.00185E-004	0.00000E+000	3.25418E-004	2.40040E-001	8.13465E-001	3.58050E+000	9	...........
	74	1	8.18113E-001	4.00712E-004	0.00000E+000	3.27827E-004	2.40040E-001	8.18400E-001	3.58050E+000	9	...........
	75	1.01333	8.23023E-001	4.01736E-004	0.00000E+000	3.30638E-004	2.40040E-001	8.23270E-001	3.58050E+000	9	...........
	76	1.02667	8.27914E-001	4.00968E-004	0.00000E+000	3.31967E-004	2.40040E-001	8.28166E-001	3.58050E+000	9	...........
	77	1.04	8.32699E-001	4.00199E-004	0.00000E+000	3.33245E-004	2.40040E-001	8.32973E-001	3.58050E+000	9	...........
	78	1.05333	8.37467E-001	4.00516E-004	0.00000E+000	3.35419E-004	2.40040E-001	8.37766E-001	3.58050E+000	9	...........
	79	1.06667	8.42278E-001	4.01394E-004	0.00000E+000	3.38085E-004	2.40040E-001	8.42561E-001	3.58050E+000	9	...........
	80	1.08	8.47127E-001	4.00973E-004	0.00000E+000	3.39675E-004	2.40040E-001	8.47397E-001	3.58050E+000	9	...........
	81	1.09333	8.51861E-001	4.01552E-004	0.00000E+000	3.42067E-004	2.40040E-001	8.52153E-001	3.58050E+000	9	...........
	82	1.10667	8.56527E-001	4.01741E-004	0.00000E+000	3.44102E-004	2.40040E-001	8.56798E-001	3.58050E+000	9	...........
	83	1.12	8.61236E-001	4.01437E-004	0.00000E+000	3.45732E-004	2.40040E-001	8.61526E-001	3.58050E+000	9	...........
	84	1.13333	8.65905E-001	4.00345E-004	0.00000E+000	3.46661E-004	2.40040E-001	8.66207E-001	3.58050E+000	9	...........
	85	1.14667	8.70524E-001	4.01696E-004	0.00000E+000	3.49686E-004	2.40040E-001	8.70816E-001	3.58050E+000	9	...........
	86	1.16	8.75072E-001	4.00029E-004	0.00000E+000	3.50054E-004	2.40040E-001	8.75403E-001	3.58050E+000	9	...........
	87	1.17333	8.79619E-001	4.01760E-004	0.00000E+000	3.53396E-004	2.40040E-001	8.79887E-001	3.58050E+000	9	...........
	88	1.18667	8.84143E-001	4.00806E-004	0.00000E+000	3.54370E-004	2.40040E-001	8.84423E-001	3.58050E+000	9	...........
	89	1.2	8.88630E-001	4.02118E-004	0.00000E+000	3.57334E-004	2.40040E-001	8.88925E-001	3.58050E+000	9	...........
	90	1.21333	8.93064E-001	3.99642E-004	0.00000E+000	3.56906E-004	2.40040E-001	8.93372E-001	3.58050E+000	9	...........
	91	1.22667	8.97476E-001	4.01075E-004	0.00000E+000	3.59955E-004	2.40040E-001	8.97758E-001	3.58050E+000	9	...........
	92	1.24	9.01791E-001	4.00956E-004	0.00000E+000	3.61579E-004	2.40040E-001	9.02089E-001	3.58050E+000	9	...........
	93	1.25333	9.06046E-001	4.00162E-004	0.00000E+000	3.62565E-004	2.40040E-001	9.06378E-001	3.58050E+000	9	...........
	94	1.26667	9.10370E-001	3.99473E-004	0.00000E+000	3.63668E-004	2.40040E-001	9.10680E-001	3.58050E+000	9	...........
	95	1.28	9.14649E-001	4.00477E-004	0.00000E+000	3.66296E-004	2.40040E-001	9.14974E-001	3.58050E+000	9	...........
	96	1.29333	9.18882E-001	4.00197E-004	0.00000E+000	3.67734E-004	2.40040E-001	9.19189E-001	3.58050E+000	9	...........
	97	1.30667	9.23138E-001	3.99922E-004	0.00000E+000	3.69183E-004	2.40040E-001	9.23390E-001	3.58050E+000	9	...........
	98	1.32	9.27259E-001	4.02312E-004	0.00000E+000	3.73047E-004	2.40040E-001	9.27528E-001	3.58050E+000	9	...........
	99	1.33333	9.31344E-001	4.01823E-004	0.00000E+000	3.74236E-004	2.40040E-001	9.31602E-001	3.58050E+000	9	...........
	100	1.34667	9.35483E-001	4.01751E-004	0.00000E+000	3.75832E-004	2.40040E-001	9.35779E-001	3.58050E+000	9	...........
	101	1.36	9.39502E-001	4.02812E-004	0.00000E+000	3.78443E-004	2.40040E-001	9.39823E-001	3.58050E+000	9	...........
	102	1.37333	9.43509E-001	4.00595E-004	0.00000E+000	3.77965E-004	2.40040E-001	9.43798E-001	3.58050E+000	9	...........
	103	1.38667	9.47530E-001	4.01019E-004	0.00000E+000	3.79978E-004	2.40040E-001	9.47825E-001	3.58050E+000	9	...........
	104	1.4	9.51499E-001	4.01096E-004	0.00000E+000	3.81643E-004	2.40040E-001	9.51793E-001	3.58050E+000	9	...........
	105	1.41333	9.55350E-001	4.00691E-004	0.00000E+000	3.82800E-004	2.40040E-001	9.55644E-001	3.58050E+000	9	...........
	106	1.42667	9.59187E-001	4.00966E-004	0.00000E+000	3.84601E-004	2.40040E-001	9.59511E-001	3.58050E+000	9	...........
	107	1.44	9.63021E-001	4.01087E-004	0.00000E+000	3.86255E-004	2.40040E-001	9.63338E-001	3.58050E+000	9	...........
	108	1.45333	9.66836E-001	4.01584E-004	0.00000E+000	3.88266E-004	2.40040E-001	9.67169E-001	3.58050E+000	9	...........
	109	1.46667	9.70534E-001	4.01389E-004	0.00000E+000	3.89561E-004	2.40040E-001	9.70885E-001	3.58050E+000	9	...........
	110	1.48	9.74357E-001	4.01549E-004	0.00000E+000	3.91252E-004	2.40040E-001	9.74650E-001	3.58050E+000	9	...........
	111	1.49333	9.77994E-001	4.00511E-004	0.00000E+000	3.91697E-004	2.40040E-001	9.78331E-001	3.58050E+000	9	...........
	112	1.50667	9.81605E-001	4.00397E-004	0.00000E+000	3.93032E-004	2.40040E-001	9.81923E-001	3.58050E+000	9	...........
	113	1.52	9.85218E-001	4.00980E-004	0.00000E+000	3.95053E-004	2.40040E-001	9.85579E-001	3.58050E+000	9	...........
	114	1.53333	9.88821E-001	4.00507E-004	0.00000E+000	3.96030E-004	2.40040E-001	9.89170E-001	3.58050E+000	9	...........
	115	1.54667	9.92373E-001	4.01314E-004	0.00000E+000	3.98253E-004	2.40040E-001	9.92729E-001	3.58050E+000	9	...........
	116	1.56	9.95901E-001	4.00590E-004	0.00000E+000	3.98948E-004	2.40040E-001	9.96260E-001	3.58050E+000	9	...........
	117	1.57167	9.99154E-001	4.02272E-004	0.00000E+000	4.01931E-004	2.40040E-001	9.99513E-001	3.58050E+000	9	...........
STARTTIMEOFFSET	QUANT	1522.956	Start Time Offset (s)
