EXPLAIN
TAG	PWR800_CHARGE
TITLE	LABEL	PWR Cyclic Charge Discharge (Cell) - Charge Step	Test &Identifier
DATE	LABEL	12-7-2017	Date
TIME	LABEL	15:24:04	Time
NOTES	NOTES	3	&Notes...
	supercap test cell
	0.4mg
	6M KOH
PSTAT	PSTAT	IFC5000-01520	Potentiostat
CAPACITY	QUANT	1.00000E-003	Capacity (A-hr)
CELLTYPE	SELECTOR	1	&Cell Type
WORKINGCONNECTION	SELECTOR	0	&Working Lead
MAXCHARGETIME	VARIABLEANDUNITS	1.00000E+002	s	1.00000E+002	second(s)	Max &Charge Time
CHARGECURRENT	QUANT	4.00000E-004	&Charge Current (A) 
VOLTAGEFINISH	TWOPARAM	F	1.00000E-003	3.60000E+003	&Voltage Finish	 I (A) < 	Max Time(s)
SAMPLETIME	QUANT	1.00000E-002	Sa&mple Period (s)
CHARGESTOPAT1	MULTIPARAM	4	1.00000E+000	Charge Stop At &1	Voltage > Limit	V
CHARGESTOPAT2	MULTIPARAM	0	0.00000E+000	Charge Stop At &2	None	N/A
AESBHCSELECTOR	TOGGLE	F	Save Both Half Cells
IRCOMP	TOGGLE	F	IR &Measure
EOC	QUANT	0	Open Circuit (V)
SEQUENCER	TOGGLE	TRUE	Run as Sequence
PSTATMODEL	IQUANT	53	Pstat Model
PSTATSECTION	LABEL	IFC5000-01520	Pstat Section
PSTATSERIALNO	LABEL	01520	Pstat Serial Number
CTRLMODE	IQUANT	0	Control Mode
ELECTROMETER	IQUANT	1	RE=0 or CS=1
IESTAB	IQUANT	0	I/E Stability
CASPEED	IQUANT	4	Control Amp Speed
CONVENTION	IQUANT	1	Current Convention
ICHRANGE	IQUANT	2	Ich Range
ICHRANGEMODE	TOGGLE	T	Ich Auto Range
ICHOFFSETENABLE	TOGGLE	F	Ich Offset Enable
ICHOFFSET	QUANT	0	Ich Offset (V)
ICHFILTER	IQUANT	1	Ich Filter
VCHRANGE	IQUANT	2	Vch Range
VCHRANGEMODE	TOGGLE	T	Vch Auto Range
VCHOFFSETENABLE	TOGGLE	F	Vch Offset Enable
VCHOFFSET	QUANT	0	Vch Offset (V)
VCHFILTER	IQUANT	1	Vch Filter
IERANGELOWERLIMIT	IQUANT	9	I/E Range Lower Limit
IERANGEMODE	TOGGLE	F	I/E AutoRange
IERANGE	IQUANT	9	I/E Range
ACHSELECT	IQUANT	1	Ach Select
ACHRANGE	IQUANT	2	Ach Range
ACHOFFSETENABLE	TOGGLE	F	Ach Offset Enable
ACHOFFSET	QUANT	0	Ach Offset (V)
ACHFILTER	IQUANT	1	Ach Filter
CABLEID	IQUANT	14	Cable ID
DCCALDATE	LABEL	5-7-2017	DC Calibration Date
ACCALDATE	LABEL	12/3/2015	AC Calibration Date
FRAMEWORKVERSION	QUANT	7.01	Framework Version
INSTRUMENTVERSION	LABEL	4.00	Instrument Version
CURVE	TABLE	105
	Pt	T	Vf	Im	Vu	Pwr	Sig	Ach	Temp	IERange	Over
	#	s	V	A	V	W	V	V	deg C	#	bits
	0	0.013333	3.93445E-001	4.00285E-004	0.00000E+000	1.57490E-004	2.40040E-001	3.93544E-001	3.57650E+000	9	...........
	1	0.026667	4.06568E-001	4.00330E-004	0.00000E+000	1.62761E-004	2.40040E-001	4.06648E-001	3.57650E+000	9	...........
	2	0.04	4.17743E-001	4.00579E-004	0.00000E+000	1.67339E-004	2.40040E-001	4.17825E-001	3.57650E+000	9	...........
	3	0.053333	4.27810E-001	4.00744E-004	0.00000E+000	1.71442E-004	2.40040E-001	4.27899E-001	3.57650E+000	9	...........
	4	0.066667	4.37151E-001	3.99078E-004	0.00000E+000	1.74457E-004	2.40040E-001	4.37232E-001	3.57650E+000	9	...........
	5	0.08	4.45996E-001	4.00232E-004	0.00000E+000	1.78502E-004	2.40040E-001	4.46085E-001	3.57650E+000	9	...........
	6	0.093333	4.54539E-001	4.00638E-004	0.00000E+000	1.82105E-004	2.40040E-001	4.54631E-001	3.57650E+000	9	...........
	7	0.106667	4.62750E-001	4.00992E-004	0.00000E+000	1.85559E-004	2.40040E-001	4.62840E-001	3.57650E+000	9	...........
	8	0.12	4.70742E-001	4.00445E-004	0.00000E+000	1.88506E-004	2.40040E-001	4.70827E-001	3.57650E+000	9	...........
	9	0.133333	4.78545E-001	4.00085E-004	0.00000E+000	1.91459E-004	2.40040E-001	4.78638E-001	3.57650E+000	9	...........
	10	0.146667	4.86179E-001	4.01120E-004	0.00000E+000	1.95016E-004	2.40040E-001	4.86273E-001	3.57650E+000	9	...........
	11	0.16	4.93693E-001	4.01190E-004	0.00000E+000	1.98065E-004	2.40040E-001	4.93796E-001	3.57650E+000	9	...........
	12	0.173333	5.01080E-001	4.01214E-004	0.00000E+000	2.01040E-004	2.40040E-001	5.01185E-001	3.57650E+000	9	...........
	13	0.186667	5.08348E-001	4.00865E-004	0.00000E+000	2.03779E-004	2.40040E-001	5.08452E-001	3.57650E+000	9	...........
	14	0.2	5.15524E-001	4.02441E-004	0.00000E+000	2.07468E-004	2.40040E-001	5.15630E-001	3.57650E+000	9	...........
	15	0.213333	5.22611E-001	4.00159E-004	0.00000E+000	2.09128E-004	2.40040E-001	5.22716E-001	3.57650E+000	9	...........
	16	0.226667	5.29664E-001	4.02096E-004	0.00000E+000	2.12976E-004	2.40040E-001	5.29776E-001	3.57650E+000	9	...........
	17	0.24	5.36305E-001	4.00655E-004	0.00000E+000	2.14873E-004	2.40040E-001	5.36495E-001	3.57650E+000	9	...........
	18	0.253333	5.43225E-001	4.01190E-004	0.00000E+000	2.17936E-004	2.40040E-001	5.43445E-001	3.57650E+000	9	...........
	19	0.266667	5.50101E-001	4.01453E-004	0.00000E+000	2.20840E-004	2.40040E-001	5.50305E-001	3.57650E+000	9	...........
	20	0.28	5.56896E-001	4.00802E-004	0.00000E+000	2.23205E-004	2.40040E-001	5.57091E-001	3.57650E+000	9	...........
	21	0.293333	5.63632E-001	4.00939E-004	0.00000E+000	2.25982E-004	2.40040E-001	5.63860E-001	3.57650E+000	9	...........
	22	0.306667	5.70275E-001	4.01743E-004	0.00000E+000	2.29104E-004	2.40040E-001	5.70477E-001	3.57650E+000	9	...........
	23	0.32	5.76881E-001	4.00453E-004	0.00000E+000	2.31014E-004	2.40040E-001	5.77095E-001	3.57670E+000	9	...........
	24	0.333333	5.83435E-001	3.99169E-004	0.00000E+000	2.32889E-004	2.40040E-001	5.83653E-001	3.57670E+000	9	...........
	25	0.346667	5.89987E-001	4.00917E-004	0.00000E+000	2.36536E-004	2.40040E-001	5.90225E-001	3.57670E+000	9	...........
	26	0.36	5.96484E-001	3.99444E-004	0.00000E+000	2.38262E-004	2.40040E-001	5.96716E-001	3.57670E+000	9	...........
	27	0.373333	6.02983E-001	4.01378E-004	0.00000E+000	2.42024E-004	2.40040E-001	6.03233E-001	3.57670E+000	9	...........
	28	0.386667	6.09343E-001	4.00718E-004	0.00000E+000	2.44175E-004	2.40040E-001	6.09595E-001	3.57670E+000	9	...........
	29	0.4	6.15813E-001	4.01169E-004	0.00000E+000	2.47045E-004	2.40040E-001	6.16021E-001	3.57670E+000	9	...........
	30	0.413333	6.22225E-001	4.01817E-004	0.00000E+000	2.50021E-004	2.40040E-001	6.22423E-001	3.57670E+000	9	...........
	31	0.426667	6.28623E-001	4.01090E-004	0.00000E+000	2.52134E-004	2.40040E-001	6.28834E-001	3.57670E+000	9	...........
	32	0.44	6.34896E-001	4.01296E-004	0.00000E+000	2.54781E-004	2.40040E-001	6.35098E-001	3.57670E+000	9	...........
	33	0.453333	6.41180E-001	4.00217E-004	0.00000E+000	2.56611E-004	2.40040E-001	6.41391E-001	3.57670E+000	9	...........
	34	0.466667	6.47513E-001	4.00148E-004	0.00000E+000	2.59101E-004	2.40040E-001	6.47756E-001	3.57670E+000	9	...........
	35	0.48	6.53758E-001	4.00831E-004	0.00000E+000	2.62047E-004	2.40040E-001	6.53977E-001	3.57670E+000	9	...........
	36	0.493333	6.59905E-001	4.00661E-004	0.00000E+000	2.64398E-004	2.40040E-001	6.60124E-001	3.57670E+000	9	...........
	37	0.506667	6.66106E-001	4.01042E-004	0.00000E+000	2.67137E-004	2.40040E-001	6.66344E-001	3.57670E+000	9	...........
	38	0.52	6.72317E-001	4.01076E-004	0.00000E+000	2.69651E-004	2.40040E-001	6.72549E-001	3.57670E+000	9	...........
	39	0.533333	6.78472E-001	3.99858E-004	0.00000E+000	2.71293E-004	2.40040E-001	6.78703E-001	3.57670E+000	9	...........
	40	0.546667	6.84621E-001	4.01008E-004	0.00000E+000	2.74538E-004	2.40040E-001	6.84872E-001	3.57670E+000	9	...........
	41	0.56	6.90754E-001	3.99627E-004	0.00000E+000	2.76044E-004	2.40040E-001	6.91004E-001	3.57670E+000	9	...........
	42	0.573333	6.96718E-001	4.00983E-004	0.00000E+000	2.79372E-004	2.40040E-001	6.96958E-001	3.57670E+000	9	...........
	43	0.586667	7.02726E-001	4.01791E-004	0.00000E+000	2.82349E-004	2.40040E-001	7.02932E-001	3.57670E+000	9	...........
	44	0.6	7.08720E-001	4.00031E-004	0.00000E+000	2.83510E-004	2.40040E-001	7.08958E-001	3.57670E+000	9	...........
	45	0.613333	7.14679E-001	4.01569E-004	0.00000E+000	2.86993E-004	2.40040E-001	7.14931E-001	3.57670E+000	9	...........
	46	0.626667	7.20650E-001	4.00689E-004	0.00000E+000	2.88756E-004	2.40040E-001	7.20876E-001	3.57670E+000	9	...........
	47	0.64	7.26589E-001	4.00218E-004	0.00000E+000	2.90794E-004	2.40040E-001	7.26826E-001	3.57670E+000	9	...........
	48	0.653333	7.32533E-001	4.01935E-004	0.00000E+000	2.94431E-004	2.40040E-001	7.32798E-001	3.57670E+000	9	...........
	49	0.666667	7.38409E-001	4.00650E-004	0.00000E+000	2.95844E-004	2.40040E-001	7.38648E-001	3.57670E+000	9	...........
	50	0.68	7.44258E-001	4.00996E-004	0.00000E+000	2.98444E-004	2.40040E-001	7.44501E-001	3.57670E+000	9	...........
	51	0.693333	7.50061E-001	4.02327E-004	0.00000E+000	3.01770E-004	2.40040E-001	7.50289E-001	3.57670E+000	9	...........
	52	0.706667	7.55868E-001	4.00890E-004	0.00000E+000	3.03020E-004	2.40040E-001	7.56087E-001	3.57670E+000	9	...........
	53	0.72	7.61603E-001	4.01137E-004	0.00000E+000	3.05507E-004	2.40040E-001	7.61816E-001	3.57670E+000	9	...........
	54	0.733333	7.67284E-001	3.99105E-004	0.00000E+000	3.06227E-004	2.40040E-001	7.67545E-001	3.57670E+000	9	...........
	55	0.746667	7.72930E-001	4.00727E-004	0.00000E+000	3.09734E-004	2.40040E-001	7.73182E-001	3.57670E+000	9	...........
	56	0.76	7.78488E-001	4.01835E-004	0.00000E+000	3.12824E-004	2.40040E-001	7.78721E-001	3.57670E+000	9	...........
	57	0.773333	7.84021E-001	4.00793E-004	0.00000E+000	3.14230E-004	2.40040E-001	7.84259E-001	3.57670E+000	9	...........
	58	0.786667	7.89567E-001	4.00963E-004	0.00000E+000	3.16587E-004	2.40040E-001	7.89805E-001	3.57670E+000	9	...........
	59	0.8	7.95110E-001	3.99733E-004	0.00000E+000	3.17832E-004	2.40040E-001	7.95363E-001	3.57670E+000	9	...........
	60	0.813333	8.00635E-001	4.00237E-004	0.00000E+000	3.20443E-004	2.40040E-001	8.00857E-001	3.57670E+000	9	...........
	61	0.826667	8.06059E-001	4.01500E-004	0.00000E+000	3.23633E-004	2.40040E-001	8.06315E-001	3.57670E+000	9	...........
	62	0.84	8.11425E-001	4.00765E-004	0.00000E+000	3.25191E-004	2.40040E-001	8.11672E-001	3.57670E+000	9	...........
	63	0.853333	8.16787E-001	4.01522E-004	0.00000E+000	3.27958E-004	2.40040E-001	8.17066E-001	3.57670E+000	9	...........
	64	0.866667	8.22180E-001	4.01563E-004	0.00000E+000	3.30157E-004	2.40040E-001	8.22436E-001	3.57670E+000	9	...........
	65	0.88	8.27482E-001	4.01087E-004	0.00000E+000	3.31892E-004	2.40040E-001	8.27745E-001	3.57670E+000	9	...........
	66	0.893333	8.32662E-001	4.00367E-004	0.00000E+000	3.33370E-004	2.40040E-001	8.32943E-001	3.57670E+000	9	...........
	67	0.906667	8.37904E-001	4.00612E-004	0.00000E+000	3.35674E-004	2.40040E-001	8.38197E-001	3.57670E+000	9	...........
	68	0.92	8.43072E-001	4.01009E-004	0.00000E+000	3.38079E-004	2.40040E-001	8.43381E-001	3.57670E+000	9	...........
	69	0.933333	8.48214E-001	4.00682E-004	0.00000E+000	3.39864E-004	2.40040E-001	8.48516E-001	3.57670E+000	9	...........
	70	0.946667	8.53324E-001	4.01370E-004	0.00000E+000	3.42499E-004	2.40040E-001	8.53603E-001	3.57670E+000	9	...........
	71	0.96	8.58382E-001	4.01312E-004	0.00000E+000	3.44479E-004	2.40040E-001	8.58668E-001	3.57670E+000	9	...........
	72	0.97333	8.63394E-001	4.01815E-004	0.00000E+000	3.46925E-004	2.40040E-001	8.63683E-001	3.57670E+000	9	...........
	73	0.98667	8.68345E-001	4.01076E-004	0.00000E+000	3.48273E-004	2.40040E-001	8.68636E-001	3.57670E+000	9	...........
	74	1	8.73287E-001	4.00493E-004	0.00000E+000	3.49745E-004	2.40040E-001	8.73598E-001	3.57670E+000	9	...........
	75	1.01333	8.78175E-001	3.99750E-004	0.00000E+000	3.51050E-004	2.40040E-001	8.78484E-001	3.57670E+000	9	...........
	76	1.02667	8.83033E-001	4.01126E-004	0.00000E+000	3.54208E-004	2.40040E-001	8.83338E-001	3.57670E+000	9	...........
	77	1.04	8.87758E-001	4.01787E-004	0.00000E+000	3.56690E-004	2.40040E-001	8.88080E-001	3.57670E+000	9	...........
	78	1.05333	8.92514E-001	3.99938E-004	0.00000E+000	3.56950E-004	2.40040E-001	8.92810E-001	3.57670E+000	9	...........
	79	1.06667	8.97284E-001	4.01339E-004	0.00000E+000	3.60115E-004	2.40040E-001	8.97588E-001	3.57670E+000	9	...........
	80	1.08	9.01975E-001	4.00529E-004	0.00000E+000	3.61267E-004	2.40040E-001	9.02270E-001	3.57670E+000	9	...........
	81	1.09333	9.06569E-001	4.02467E-004	0.00000E+000	3.64864E-004	2.40040E-001	9.06884E-001	3.57670E+000	9	...........
	82	1.10667	9.11204E-001	4.01199E-004	0.00000E+000	3.65575E-004	2.40040E-001	9.11514E-001	3.57670E+000	9	...........
	83	1.12	9.15756E-001	4.00462E-004	0.00000E+000	3.66725E-004	2.40040E-001	9.16087E-001	3.57670E+000	9	...........
	84	1.13333	9.20328E-001	4.00265E-004	0.00000E+000	3.68375E-004	2.40040E-001	9.20634E-001	3.57670E+000	9	...........
	85	1.14667	9.24832E-001	4.02141E-004	0.00000E+000	3.71913E-004	2.40040E-001	9.25142E-001	3.57670E+000	9	...........
	86	1.16	9.29222E-001	4.01326E-004	0.00000E+000	3.72921E-004	2.40040E-001	9.29538E-001	3.57670E+000	9	...........
	87	1.17333	9.33593E-001	3.99840E-004	0.00000E+000	3.73287E-004	2.40040E-001	9.33889E-001	3.57670E+000	9	...........
	88	1.18667	9.37912E-001	4.00504E-004	0.00000E+000	3.75638E-004	2.40040E-001	9.38236E-001	3.57670E+000	9	...........
	89	1.2	9.42212E-001	4.00090E-004	0.00000E+000	3.76969E-004	2.40040E-001	9.42518E-001	3.57670E+000	9	...........
	90	1.21333	9.46450E-001	4.00691E-004	0.00000E+000	3.79234E-004	2.40040E-001	9.46743E-001	3.57670E+000	9	...........
	91	1.22667	9.50682E-001	4.00452E-004	0.00000E+000	3.80703E-004	2.40040E-001	9.50976E-001	3.57670E+000	9	...........
	92	1.24	9.54859E-001	4.01652E-004	0.00000E+000	3.83522E-004	2.40040E-001	9.55133E-001	3.57670E+000	9	...........
	93	1.25333	9.58995E-001	4.01035E-004	0.00000E+000	3.84590E-004	2.40040E-001	9.59301E-001	3.57670E+000	9	...........
	94	1.26667	9.63089E-001	4.01158E-004	0.00000E+000	3.86350E-004	2.40040E-001	9.63419E-001	3.57670E+000	9	...........
	95	1.28	9.67136E-001	4.00990E-004	0.00000E+000	3.87812E-004	2.40040E-001	9.67425E-001	3.57670E+000	9	...........
	96	1.29333	9.71159E-001	4.01446E-004	0.00000E+000	3.89868E-004	2.40040E-001	9.71473E-001	3.57670E+000	9	...........
	97	1.30667	9.75154E-001	4.01369E-004	0.00000E+000	3.91397E-004	2.40040E-001	9.75451E-001	3.57670E+000	9	...........
	98	1.32	9.79048E-001	4.00823E-004	0.00000E+000	3.92425E-004	2.40040E-001	9.79348E-001	3.57640E+000	9	...........
	99	1.33333	9.82937E-001	3.99803E-004	0.00000E+000	3.92981E-004	2.40040E-001	9.83235E-001	3.57640E+000	9	...........
	100	1.34667	9.86766E-001	4.00478E-004	0.00000E+000	3.95178E-004	2.40040E-001	9.87094E-001	3.57640E+000	9	...........
	101	1.36	9.90583E-001	4.01100E-004	0.00000E+000	3.97323E-004	2.40040E-001	9.90914E-001	3.57640E+000	9	...........
	102	1.37333	9.94304E-001	4.00936E-004	0.00000E+000	3.98652E-004	2.40040E-001	9.94659E-001	3.57640E+000	9	...........
	103	1.38667	9.98013E-001	4.01429E-004	0.00000E+000	4.00632E-004	2.40040E-001	9.98360E-001	3.57640E+000	9	...........
	104	1.38833	1.00011E+000	4.01227E-004	0.00000E+000	4.01270E-004	2.40040E-001	1.00045E+000	3.57640E+000	9	...........
STARTTIMEOFFSET	QUANT	3096.419	Start Time Offset (s)
