EXPLAIN
TAG	PWR800_CHARGE
TITLE	LABEL	PWR Cyclic Charge Discharge (Cell) - Charge Step	Test &Identifier
DATE	LABEL	12-7-2017	Date
TIME	LABEL	15:19:57	Time
NOTES	NOTES	3	&Notes...
	supercap test cell
	0.4mg
	6M KOH
PSTAT	PSTAT	IFC5000-01520	Potentiostat
CAPACITY	QUANT	1.00000E-003	Capacity (A-hr)
CELLTYPE	SELECTOR	1	&Cell Type
WORKINGCONNECTION	SELECTOR	0	&Working Lead
MAXCHARGETIME	VARIABLEANDUNITS	1.00000E+002	s	1.00000E+002	second(s)	Max &Charge Time
CHARGECURRENT	QUANT	4.00000E-004	&Charge Current (A) 
VOLTAGEFINISH	TWOPARAM	F	1.00000E-003	3.60000E+003	&Voltage Finish	 I (A) < 	Max Time(s)
SAMPLETIME	QUANT	1.00000E-002	Sa&mple Period (s)
CHARGESTOPAT1	MULTIPARAM	4	1.00000E+000	Charge Stop At &1	Voltage > Limit	V
CHARGESTOPAT2	MULTIPARAM	0	0.00000E+000	Charge Stop At &2	None	N/A
AESBHCSELECTOR	TOGGLE	F	Save Both Half Cells
IRCOMP	TOGGLE	F	IR &Measure
EOC	QUANT	0	Open Circuit (V)
SEQUENCER	TOGGLE	TRUE	Run as Sequence
PSTATMODEL	IQUANT	53	Pstat Model
PSTATSECTION	LABEL	IFC5000-01520	Pstat Section
PSTATSERIALNO	LABEL	01520	Pstat Serial Number
CTRLMODE	IQUANT	0	Control Mode
ELECTROMETER	IQUANT	1	RE=0 or CS=1
IESTAB	IQUANT	0	I/E Stability
CASPEED	IQUANT	4	Control Amp Speed
CONVENTION	IQUANT	1	Current Convention
ICHRANGE	IQUANT	2	Ich Range
ICHRANGEMODE	TOGGLE	T	Ich Auto Range
ICHOFFSETENABLE	TOGGLE	F	Ich Offset Enable
ICHOFFSET	QUANT	0	Ich Offset (V)
ICHFILTER	IQUANT	1	Ich Filter
VCHRANGE	IQUANT	2	Vch Range
VCHRANGEMODE	TOGGLE	T	Vch Auto Range
VCHOFFSETENABLE	TOGGLE	F	Vch Offset Enable
VCHOFFSET	QUANT	0	Vch Offset (V)
VCHFILTER	IQUANT	1	Vch Filter
IERANGELOWERLIMIT	IQUANT	9	I/E Range Lower Limit
IERANGEMODE	TOGGLE	F	I/E AutoRange
IERANGE	IQUANT	9	I/E Range
ACHSELECT	IQUANT	1	Ach Select
ACHRANGE	IQUANT	2	Ach Range
ACHOFFSETENABLE	TOGGLE	F	Ach Offset Enable
ACHOFFSET	QUANT	0	Ach Offset (V)
ACHFILTER	IQUANT	1	Ach Filter
CABLEID	IQUANT	14	Cable ID
DCCALDATE	LABEL	5-7-2017	DC Calibration Date
ACCALDATE	LABEL	12/3/2015	AC Calibration Date
FRAMEWORKVERSION	QUANT	7.01	Framework Version
INSTRUMENTVERSION	LABEL	4.00	Instrument Version
CURVE	TABLE	106
	Pt	T	Vf	Im	Vu	Pwr	Sig	Ach	Temp	IERange	Over
	#	s	V	A	V	W	V	V	deg C	#	bits
	0	0.013333	3.90136E-001	4.01694E-004	0.00000E+000	1.56715E-004	2.40040E-001	3.90244E-001	3.57690E+000	9	...........
	1	0.026667	4.03101E-001	4.01748E-004	0.00000E+000	1.61945E-004	2.40040E-001	4.03181E-001	3.57690E+000	9	...........
	2	0.04	4.14084E-001	3.99396E-004	0.00000E+000	1.65383E-004	2.40040E-001	4.14169E-001	3.57690E+000	9	...........
	3	0.053333	4.23921E-001	4.01731E-004	0.00000E+000	1.70302E-004	2.40040E-001	4.24007E-001	3.57690E+000	9	...........
	4	0.066667	4.33152E-001	3.99543E-004	0.00000E+000	1.73063E-004	2.40040E-001	4.33238E-001	3.57690E+000	9	...........
	5	0.08	4.41879E-001	3.99889E-004	0.00000E+000	1.76702E-004	2.40040E-001	4.41972E-001	3.57690E+000	9	...........
	6	0.093333	4.50222E-001	4.01233E-004	0.00000E+000	1.80644E-004	2.40040E-001	4.50308E-001	3.57690E+000	9	...........
	7	0.106667	4.58343E-001	4.00722E-004	0.00000E+000	1.83668E-004	2.40040E-001	4.58435E-001	3.57690E+000	9	...........
	8	0.12	4.66214E-001	4.00902E-004	0.00000E+000	1.86906E-004	2.40040E-001	4.66309E-001	3.57690E+000	9	...........
	9	0.133333	4.73914E-001	4.00964E-004	0.00000E+000	1.90022E-004	2.40040E-001	4.74009E-001	3.57690E+000	9	...........
	10	0.146667	4.81522E-001	4.00572E-004	0.00000E+000	1.92884E-004	2.40040E-001	4.81620E-001	3.57690E+000	9	...........
	11	0.16	4.88977E-001	4.00740E-004	0.00000E+000	1.95952E-004	2.40040E-001	4.89078E-001	3.57690E+000	9	...........
	12	0.173333	4.96344E-001	4.01823E-004	0.00000E+000	1.99443E-004	2.40040E-001	4.96445E-001	3.57690E+000	9	...........
	13	0.186667	5.03565E-001	4.00971E-004	0.00000E+000	2.01915E-004	2.40040E-001	5.03677E-001	3.57690E+000	9	...........
	14	0.2	5.10681E-001	4.00788E-004	0.00000E+000	2.04675E-004	2.40040E-001	5.10791E-001	3.57690E+000	9	...........
	15	0.213333	5.17740E-001	4.00319E-004	0.00000E+000	2.07261E-004	2.40040E-001	5.17855E-001	3.57690E+000	9	...........
	16	0.226667	5.24729E-001	4.00920E-004	0.00000E+000	2.10374E-004	2.40040E-001	5.24836E-001	3.57690E+000	9	...........
	17	0.24	5.31576E-001	4.00862E-004	0.00000E+000	2.13089E-004	2.40040E-001	5.31674E-001	3.57690E+000	9	...........
	18	0.253333	5.38192E-001	4.01126E-004	0.00000E+000	2.15883E-004	2.40040E-001	5.38406E-001	3.57690E+000	9	...........
	19	0.266667	5.44949E-001	4.00652E-004	0.00000E+000	2.18335E-004	2.40040E-001	5.45155E-001	3.57690E+000	9	...........
	20	0.28	5.51645E-001	4.00835E-004	0.00000E+000	2.21119E-004	2.40040E-001	5.51887E-001	3.57690E+000	9	...........
	21	0.293333	5.58350E-001	4.01497E-004	0.00000E+000	2.24176E-004	2.40040E-001	5.58587E-001	3.57690E+000	9	...........
	22	0.306667	5.64973E-001	4.00958E-004	0.00000E+000	2.26530E-004	2.40040E-001	5.65196E-001	3.57690E+000	9	...........
	23	0.32	5.71520E-001	3.99936E-004	0.00000E+000	2.28572E-004	2.40040E-001	5.71707E-001	3.57690E+000	9	...........
	24	0.333333	5.78078E-001	4.02327E-004	0.00000E+000	2.32576E-004	2.40040E-001	5.78313E-001	3.57690E+000	9	...........
	25	0.346667	5.84609E-001	4.01836E-004	0.00000E+000	2.34917E-004	2.40040E-001	5.84843E-001	3.57690E+000	9	...........
	26	0.36	5.91049E-001	4.01799E-004	0.00000E+000	2.37483E-004	2.40040E-001	5.91290E-001	3.57690E+000	9	...........
	27	0.373333	5.97509E-001	3.99537E-004	0.00000E+000	2.38727E-004	2.40040E-001	5.97732E-001	3.57690E+000	9	...........
	28	0.386667	6.03886E-001	4.01665E-004	0.00000E+000	2.42560E-004	2.40040E-001	6.04140E-001	3.57690E+000	9	...........
	29	0.4	6.10316E-001	3.99877E-004	0.00000E+000	2.44051E-004	2.40040E-001	6.10573E-001	3.57690E+000	9	...........
	30	0.413333	6.16656E-001	4.00976E-004	0.00000E+000	2.47264E-004	2.40040E-001	6.16869E-001	3.57690E+000	9	...........
	31	0.426667	6.22972E-001	4.01750E-004	0.00000E+000	2.50279E-004	2.40040E-001	6.23147E-001	3.57690E+000	9	...........
	32	0.44	6.29239E-001	4.00919E-004	0.00000E+000	2.52274E-004	2.40040E-001	6.29446E-001	3.57690E+000	9	...........
	33	0.453333	6.35493E-001	4.02091E-004	0.00000E+000	2.55526E-004	2.40040E-001	6.35698E-001	3.57690E+000	9	...........
	34	0.466667	6.41729E-001	4.00285E-004	0.00000E+000	2.56875E-004	2.40040E-001	6.41938E-001	3.57690E+000	9	...........
	35	0.48	6.47963E-001	4.01414E-004	0.00000E+000	2.60101E-004	2.40040E-001	6.48161E-001	3.57690E+000	9	...........
	36	0.493333	6.54144E-001	4.01018E-004	0.00000E+000	2.62324E-004	2.40040E-001	6.54369E-001	3.57690E+000	9	...........
	37	0.506667	6.60252E-001	4.01497E-004	0.00000E+000	2.65089E-004	2.40040E-001	6.60473E-001	3.57690E+000	9	...........
	38	0.52	6.66399E-001	4.00965E-004	0.00000E+000	2.67203E-004	2.40040E-001	6.66659E-001	3.57721E+000	9	...........
	39	0.533333	6.72496E-001	4.00474E-004	0.00000E+000	2.69317E-004	2.40040E-001	6.72735E-001	3.57740E+000	9	...........
	40	0.546667	6.78615E-001	4.01495E-004	0.00000E+000	2.72460E-004	2.40040E-001	6.78872E-001	3.57740E+000	9	...........
	41	0.56	6.84574E-001	4.01755E-004	0.00000E+000	2.75031E-004	2.40040E-001	6.84843E-001	3.57740E+000	9	...........
	42	0.573333	6.90595E-001	4.00255E-004	0.00000E+000	2.76414E-004	2.40040E-001	6.90819E-001	3.57740E+000	9	...........
	43	0.586667	6.96650E-001	4.00864E-004	0.00000E+000	2.79262E-004	2.40040E-001	6.96892E-001	3.57740E+000	9	...........
	44	0.6	7.02625E-001	4.00590E-004	0.00000E+000	2.81464E-004	2.40040E-001	7.02848E-001	3.57740E+000	9	...........
	45	0.613333	7.08555E-001	3.99392E-004	0.00000E+000	2.82991E-004	2.40040E-001	7.08804E-001	3.57740E+000	9	...........
	46	0.626667	7.14486E-001	4.01513E-004	0.00000E+000	2.86875E-004	2.40040E-001	7.14764E-001	3.57740E+000	9	...........
	47	0.64	7.20433E-001	4.00526E-004	0.00000E+000	2.88552E-004	2.40040E-001	7.20675E-001	3.57740E+000	9	...........
	48	0.653333	7.26229E-001	4.01708E-004	0.00000E+000	2.91732E-004	2.40040E-001	7.26474E-001	3.57740E+000	9	...........
	49	0.666667	7.32001E-001	3.99587E-004	0.00000E+000	2.92498E-004	2.40040E-001	7.32255E-001	3.57740E+000	9	...........
	50	0.68	7.37763E-001	4.00845E-004	0.00000E+000	2.95729E-004	2.40040E-001	7.38005E-001	3.57740E+000	9	...........
	51	0.693333	7.43573E-001	4.01301E-004	0.00000E+000	2.98397E-004	2.40040E-001	7.43775E-001	3.57740E+000	9	...........
	52	0.706667	7.49275E-001	4.01042E-004	0.00000E+000	3.00491E-004	2.40040E-001	7.49479E-001	3.57740E+000	9	...........
	53	0.72	7.55026E-001	4.00604E-004	0.00000E+000	3.02466E-004	2.40040E-001	7.55219E-001	3.57740E+000	9	...........
	54	0.733333	7.60700E-001	4.01477E-004	0.00000E+000	3.05404E-004	2.40040E-001	7.60911E-001	3.57740E+000	9	...........
	55	0.746667	7.66360E-001	4.01788E-004	0.00000E+000	3.07914E-004	2.40040E-001	7.66604E-001	3.57740E+000	9	...........
	56	0.76	7.72045E-001	4.01087E-004	0.00000E+000	3.09657E-004	2.40040E-001	7.72264E-001	3.57740E+000	9	...........
	57	0.773333	7.77609E-001	4.01580E-004	0.00000E+000	3.12272E-004	2.40040E-001	7.77824E-001	3.57740E+000	9	...........
	58	0.786667	7.83163E-001	4.00415E-004	0.00000E+000	3.13590E-004	2.40040E-001	7.83349E-001	3.57740E+000	9	...........
	59	0.8	7.88640E-001	4.00738E-004	0.00000E+000	3.16038E-004	2.40040E-001	7.88840E-001	3.57740E+000	9	...........
	60	0.813333	7.94100E-001	4.00527E-004	0.00000E+000	3.18059E-004	2.40040E-001	7.94313E-001	3.57740E+000	9	...........
	61	0.826667	7.99489E-001	4.01315E-004	0.00000E+000	3.20847E-004	2.40040E-001	7.99716E-001	3.57740E+000	9	...........
	62	0.84	8.04859E-001	4.01559E-004	0.00000E+000	3.23198E-004	2.40040E-001	8.05086E-001	3.57740E+000	9	...........
	63	0.853333	8.10206E-001	4.00694E-004	0.00000E+000	3.24645E-004	2.40040E-001	8.10457E-001	3.57740E+000	9	...........
	64	0.866667	8.15570E-001	4.01409E-004	0.00000E+000	3.27377E-004	2.40040E-001	8.15823E-001	3.57740E+000	9	...........
	65	0.88	8.20971E-001	4.01743E-004	0.00000E+000	3.29819E-004	2.40040E-001	8.21230E-001	3.57740E+000	9	...........
	66	0.893333	8.26231E-001	4.00799E-004	0.00000E+000	3.31153E-004	2.40040E-001	8.26495E-001	3.57740E+000	9	...........
	67	0.906667	8.31405E-001	4.00657E-004	0.00000E+000	3.33109E-004	2.40040E-001	8.31693E-001	3.57740E+000	9	...........
	68	0.92	8.36547E-001	4.01669E-004	0.00000E+000	3.36015E-004	2.40040E-001	8.36843E-001	3.57740E+000	9	...........
	69	0.933333	8.41653E-001	4.01087E-004	0.00000E+000	3.37576E-004	2.40040E-001	8.41961E-001	3.57740E+000	9	...........
	70	0.946667	8.46789E-001	4.00374E-004	0.00000E+000	3.39033E-004	2.40040E-001	8.47108E-001	3.57740E+000	9	...........
	71	0.96	8.51838E-001	4.01774E-004	0.00000E+000	3.42246E-004	2.40040E-001	8.52159E-001	3.57740E+000	9	...........
	72	0.97333	8.56833E-001	4.00942E-004	0.00000E+000	3.43540E-004	2.40040E-001	8.57161E-001	3.57740E+000	9	...........
	73	0.98667	8.61827E-001	4.00846E-004	0.00000E+000	3.45460E-004	2.40040E-001	8.62146E-001	3.57740E+000	9	...........
	74	1	8.66779E-001	4.00910E-004	0.00000E+000	3.47500E-004	2.40040E-001	8.67132E-001	3.57740E+000	9	...........
	75	1.01333	8.71709E-001	4.01720E-004	0.00000E+000	3.50183E-004	2.40040E-001	8.72011E-001	3.57740E+000	9	...........
	76	1.02667	8.76505E-001	3.99160E-004	0.00000E+000	3.49866E-004	2.40040E-001	8.76832E-001	3.57740E+000	9	...........
	77	1.04	8.81390E-001	3.99994E-004	0.00000E+000	3.52550E-004	2.40040E-001	8.81684E-001	3.57740E+000	9	...........
	78	1.05333	8.86184E-001	4.00431E-004	0.00000E+000	3.54856E-004	2.40040E-001	8.86489E-001	3.57740E+000	9	...........
	79	1.06667	8.90946E-001	3.99803E-004	0.00000E+000	3.56203E-004	2.40040E-001	8.91237E-001	3.57740E+000	9	...........
	80	1.08	8.95689E-001	4.00427E-004	0.00000E+000	3.58658E-004	2.40040E-001	8.95997E-001	3.57740E+000	9	...........
	81	1.09333	9.00385E-001	4.00901E-004	0.00000E+000	3.60966E-004	2.40040E-001	9.00707E-001	3.57740E+000	9	...........
	82	1.10667	9.05053E-001	4.00722E-004	0.00000E+000	3.62675E-004	2.40040E-001	9.05378E-001	3.57740E+000	9	...........
	83	1.12	9.09673E-001	4.00736E-004	0.00000E+000	3.64538E-004	2.40040E-001	9.09987E-001	3.57740E+000	9	...........
	84	1.13333	9.14212E-001	4.00210E-004	0.00000E+000	3.65877E-004	2.40040E-001	9.14565E-001	3.57740E+000	9	...........
	85	1.14667	9.18715E-001	4.01751E-004	0.00000E+000	3.69095E-004	2.40040E-001	9.19037E-001	3.57740E+000	9	...........
	86	1.16	9.23230E-001	4.00470E-004	0.00000E+000	3.69726E-004	2.40040E-001	9.23504E-001	3.57740E+000	9	...........
	87	1.17333	9.27623E-001	4.00769E-004	0.00000E+000	3.71762E-004	2.40040E-001	9.27919E-001	3.57740E+000	9	...........
	88	1.18667	9.31933E-001	3.99312E-004	0.00000E+000	3.72133E-004	2.40040E-001	9.32229E-001	3.57740E+000	9	...........
	89	1.2	9.36241E-001	4.01898E-004	0.00000E+000	3.76274E-004	2.40040E-001	9.36575E-001	3.57740E+000	9	...........
	90	1.21333	9.40558E-001	3.99822E-004	0.00000E+000	3.76056E-004	2.40040E-001	9.40874E-001	3.57740E+000	9	...........
	91	1.22667	9.44818E-001	4.01173E-004	0.00000E+000	3.79036E-004	2.40040E-001	9.45164E-001	3.57740E+000	9	...........
	92	1.24	9.49086E-001	4.00291E-004	0.00000E+000	3.79910E-004	2.40040E-001	9.49393E-001	3.57740E+000	9	...........
	93	1.25333	9.53274E-001	4.00383E-004	0.00000E+000	3.81675E-004	2.40040E-001	9.53563E-001	3.57740E+000	9	...........
	94	1.26667	9.57453E-001	4.01480E-004	0.00000E+000	3.84398E-004	2.40040E-001	9.57744E-001	3.57740E+000	9	...........
	95	1.28	9.61578E-001	4.01668E-004	0.00000E+000	3.86235E-004	2.40040E-001	9.61861E-001	3.57740E+000	9	...........
	96	1.29333	9.65575E-001	4.01201E-004	0.00000E+000	3.87390E-004	2.40040E-001	9.65874E-001	3.57740E+000	9	...........
	97	1.30667	9.69526E-001	3.99785E-004	0.00000E+000	3.87602E-004	2.40040E-001	9.69860E-001	3.57740E+000	9	...........
	98	1.32	9.73548E-001	4.01066E-004	0.00000E+000	3.90457E-004	2.40040E-001	9.73854E-001	3.57740E+000	9	...........
	99	1.33333	9.77424E-001	4.00669E-004	0.00000E+000	3.91623E-004	2.40040E-001	9.77760E-001	3.57740E+000	9	...........
	100	1.34667	9.81317E-001	4.00382E-004	0.00000E+000	3.92902E-004	2.40040E-001	9.81636E-001	3.57740E+000	9	...........
	101	1.36	9.85132E-001	4.00188E-004	0.00000E+000	3.94237E-004	2.40040E-001	9.85496E-001	3.57740E+000	9	...........
	102	1.37333	9.88918E-001	4.01345E-004	0.00000E+000	3.96897E-004	2.40040E-001	9.89276E-001	3.57740E+000	9	...........
	103	1.38667	9.92648E-001	4.01347E-004	0.00000E+000	3.98397E-004	2.40040E-001	9.92990E-001	3.57740E+000	9	...........
	104	1.4	9.96357E-001	4.01003E-004	0.00000E+000	3.99543E-004	2.40040E-001	9.96699E-001	3.57740E+000	9	...........
	105	1.40833	9.99372E-001	4.00237E-004	0.00000E+000	3.99986E-004	2.40040E-001	9.99721E-001	3.57740E+000	9	...........
STARTTIMEOFFSET	QUANT	2904.109	Start Time Offset (s)
