EXPLAIN
TAG	PWR800_CHARGE
TITLE	LABEL	PWR Cyclic Charge Discharge (Cell) - Charge Step	Test &Identifier
DATE	LABEL	12-7-2017	Date
TIME	LABEL	14:36:00	Time
NOTES	NOTES	3	&Notes...
	supercap test cell
	0.4mg
	6M KOH
PSTAT	PSTAT	IFC5000-01520	Potentiostat
CAPACITY	QUANT	1.00000E-003	Capacity (A-hr)
CELLTYPE	SELECTOR	1	&Cell Type
WORKINGCONNECTION	SELECTOR	0	&Working Lead
MAXCHARGETIME	VARIABLEANDUNITS	1.00000E+002	s	1.00000E+002	second(s)	Max &Charge Time
CHARGECURRENT	QUANT	4.00000E-004	&Charge Current (A) 
VOLTAGEFINISH	TWOPARAM	F	1.00000E-003	3.60000E+003	&Voltage Finish	 I (A) < 	Max Time(s)
SAMPLETIME	QUANT	1.00000E-002	Sa&mple Period (s)
CHARGESTOPAT1	MULTIPARAM	4	1.00000E+000	Charge Stop At &1	Voltage > Limit	V
CHARGESTOPAT2	MULTIPARAM	0	0.00000E+000	Charge Stop At &2	None	N/A
AESBHCSELECTOR	TOGGLE	F	Save Both Half Cells
IRCOMP	TOGGLE	F	IR &Measure
EOC	QUANT	0	Open Circuit (V)
SEQUENCER	TOGGLE	TRUE	Run as Sequence
PSTATMODEL	IQUANT	53	Pstat Model
PSTATSECTION	LABEL	IFC5000-01520	Pstat Section
PSTATSERIALNO	LABEL	01520	Pstat Serial Number
CTRLMODE	IQUANT	0	Control Mode
ELECTROMETER	IQUANT	1	RE=0 or CS=1
IESTAB	IQUANT	0	I/E Stability
CASPEED	IQUANT	4	Control Amp Speed
CONVENTION	IQUANT	1	Current Convention
ICHRANGE	IQUANT	2	Ich Range
ICHRANGEMODE	TOGGLE	T	Ich Auto Range
ICHOFFSETENABLE	TOGGLE	F	Ich Offset Enable
ICHOFFSET	QUANT	0	Ich Offset (V)
ICHFILTER	IQUANT	1	Ich Filter
VCHRANGE	IQUANT	2	Vch Range
VCHRANGEMODE	TOGGLE	T	Vch Auto Range
VCHOFFSETENABLE	TOGGLE	F	Vch Offset Enable
VCHOFFSET	QUANT	0	Vch Offset (V)
VCHFILTER	IQUANT	1	Vch Filter
IERANGELOWERLIMIT	IQUANT	9	I/E Range Lower Limit
IERANGEMODE	TOGGLE	F	I/E AutoRange
IERANGE	IQUANT	9	I/E Range
ACHSELECT	IQUANT	1	Ach Select
ACHRANGE	IQUANT	2	Ach Range
ACHOFFSETENABLE	TOGGLE	F	Ach Offset Enable
ACHOFFSET	QUANT	0	Ach Offset (V)
ACHFILTER	IQUANT	1	Ach Filter
CABLEID	IQUANT	14	Cable ID
DCCALDATE	LABEL	5-7-2017	DC Calibration Date
ACCALDATE	LABEL	12/3/2015	AC Calibration Date
FRAMEWORKVERSION	QUANT	7.01	Framework Version
INSTRUMENTVERSION	LABEL	4.00	Instrument Version
CURVE	TABLE	128
	Pt	T	Vf	Im	Vu	Pwr	Sig	Ach	Temp	IERange	Over
	#	s	V	A	V	W	V	V	deg C	#	bits
	0	0.013333	3.47141E-001	4.01083E-004	0.00000E+000	1.39232E-004	2.40040E-001	3.47228E-001	3.57650E+000	9	...........
	1	0.026667	3.57861E-001	4.00752E-004	0.00000E+000	1.43414E-004	2.40040E-001	3.57936E-001	3.57650E+000	9	...........
	2	0.04	3.67073E-001	4.00779E-004	0.00000E+000	1.47115E-004	2.40040E-001	3.67145E-001	3.57650E+000	9	...........
	3	0.053333	3.75573E-001	4.02411E-004	0.00000E+000	1.51135E-004	2.40040E-001	3.75648E-001	3.57650E+000	9	...........
	4	0.066667	3.83459E-001	4.01909E-004	0.00000E+000	1.54116E-004	2.40040E-001	3.83538E-001	3.57650E+000	9	...........
	5	0.08	3.91055E-001	4.00588E-004	0.00000E+000	1.56652E-004	2.40040E-001	3.91135E-001	3.57650E+000	9	...........
	6	0.093333	3.98325E-001	4.01856E-004	0.00000E+000	1.60069E-004	2.40040E-001	3.98406E-001	3.57650E+000	9	...........
	7	0.106667	4.05347E-001	4.02188E-004	0.00000E+000	1.63026E-004	2.40040E-001	4.05423E-001	3.57650E+000	9	...........
	8	0.12	4.12246E-001	4.00847E-004	0.00000E+000	1.65247E-004	2.40040E-001	4.12334E-001	3.57650E+000	9	...........
	9	0.133333	4.18982E-001	4.00893E-004	0.00000E+000	1.67967E-004	2.40040E-001	4.19064E-001	3.57650E+000	9	...........
	10	0.146667	4.25635E-001	4.01037E-004	0.00000E+000	1.70695E-004	2.40040E-001	4.25729E-001	3.57650E+000	9	...........
	11	0.16	4.32075E-001	4.00978E-004	0.00000E+000	1.73253E-004	2.40040E-001	4.32157E-001	3.57650E+000	9	...........
	12	0.173333	4.38475E-001	4.01724E-004	0.00000E+000	1.76146E-004	2.40040E-001	4.38570E-001	3.57650E+000	9	...........
	13	0.186667	4.44783E-001	4.00567E-004	0.00000E+000	1.78165E-004	2.40040E-001	4.44879E-001	3.57650E+000	9	...........
	14	0.2	4.50967E-001	3.99904E-004	0.00000E+000	1.80344E-004	2.40040E-001	4.51062E-001	3.57650E+000	9	...........
	15	0.213333	4.57172E-001	4.00774E-004	0.00000E+000	1.83223E-004	2.40040E-001	4.57270E-001	3.57650E+000	9	...........
	16	0.226667	4.63423E-001	4.01623E-004	0.00000E+000	1.86122E-004	2.40040E-001	4.63523E-001	3.57650E+000	9	...........
	17	0.24	4.69477E-001	4.01404E-004	0.00000E+000	1.88450E-004	2.40040E-001	4.69571E-001	3.57650E+000	9	...........
	18	0.253333	4.75458E-001	4.02788E-004	0.00000E+000	1.91509E-004	2.40040E-001	4.75556E-001	3.57650E+000	9	...........
	19	0.266667	4.81425E-001	4.00151E-004	0.00000E+000	1.92643E-004	2.40040E-001	4.81524E-001	3.57650E+000	9	...........
	20	0.28	4.87249E-001	4.00694E-004	0.00000E+000	1.95238E-004	2.40040E-001	4.87344E-001	3.57650E+000	9	...........
	21	0.293333	4.93162E-001	4.01814E-004	0.00000E+000	1.98159E-004	2.40040E-001	4.93264E-001	3.57650E+000	9	...........
	22	0.306667	4.99054E-001	4.02154E-004	0.00000E+000	2.00696E-004	2.40040E-001	4.99161E-001	3.57650E+000	9	...........
	23	0.32	5.05006E-001	4.01270E-004	0.00000E+000	2.02644E-004	2.40040E-001	5.05111E-001	3.57650E+000	9	...........
	24	0.333333	5.10836E-001	4.02018E-004	0.00000E+000	2.05365E-004	2.40040E-001	5.10946E-001	3.57650E+000	9	...........
	25	0.346667	5.16692E-001	4.00345E-004	0.00000E+000	2.06855E-004	2.40040E-001	5.16795E-001	3.57650E+000	9	...........
	26	0.36	5.22415E-001	3.99360E-004	0.00000E+000	2.08632E-004	2.40040E-001	5.22526E-001	3.57650E+000	9	...........
	27	0.373333	5.28110E-001	3.99725E-004	0.00000E+000	2.11099E-004	2.40040E-001	5.28223E-001	3.57650E+000	9	...........
	28	0.386667	5.33697E-001	4.01324E-004	0.00000E+000	2.14185E-004	2.40040E-001	5.33841E-001	3.57640E+000	9	...........
	29	0.4	5.39281E-001	4.00315E-004	0.00000E+000	2.15882E-004	2.40040E-001	5.39512E-001	3.57630E+000	9	...........
	30	0.413333	5.44913E-001	4.00773E-004	0.00000E+000	2.18386E-004	2.40040E-001	5.45139E-001	3.57630E+000	9	...........
	31	0.426667	5.50539E-001	4.00883E-004	0.00000E+000	2.20701E-004	2.40040E-001	5.50774E-001	3.57630E+000	9	...........
	32	0.44	5.56144E-001	4.01406E-004	0.00000E+000	2.23239E-004	2.40040E-001	5.56374E-001	3.57630E+000	9	...........
	33	0.453333	5.61753E-001	3.99818E-004	0.00000E+000	2.24599E-004	2.40040E-001	5.62015E-001	3.57630E+000	9	...........
	34	0.466667	5.67377E-001	4.01599E-004	0.00000E+000	2.27858E-004	2.40040E-001	5.67575E-001	3.57630E+000	9	...........
	35	0.48	5.72881E-001	4.00251E-004	0.00000E+000	2.29296E-004	2.40040E-001	5.73075E-001	3.57630E+000	9	...........
	36	0.493333	5.78428E-001	4.00806E-004	0.00000E+000	2.31838E-004	2.40040E-001	5.78677E-001	3.57630E+000	9	...........
	37	0.506667	5.83956E-001	4.00233E-004	0.00000E+000	2.33719E-004	2.40040E-001	5.84188E-001	3.57630E+000	9	...........
	38	0.52	5.89431E-001	4.01872E-004	0.00000E+000	2.36876E-004	2.40040E-001	5.89688E-001	3.57630E+000	9	...........
	39	0.533333	5.94908E-001	4.00627E-004	0.00000E+000	2.38336E-004	2.40040E-001	5.95133E-001	3.57630E+000	9	...........
	40	0.546667	6.00361E-001	4.01439E-004	0.00000E+000	2.41008E-004	2.40040E-001	6.00606E-001	3.57630E+000	9	...........
	41	0.56	6.05804E-001	4.00474E-004	0.00000E+000	2.42609E-004	2.40040E-001	6.06052E-001	3.57630E+000	9	...........
	42	0.573333	6.11181E-001	4.00706E-004	0.00000E+000	2.44904E-004	2.40040E-001	6.11459E-001	3.57630E+000	9	...........
	43	0.586667	6.16748E-001	4.01274E-004	0.00000E+000	2.47485E-004	2.40040E-001	6.16953E-001	3.57630E+000	9	...........
	44	0.6	6.22118E-001	3.99844E-004	0.00000E+000	2.48750E-004	2.40040E-001	6.22333E-001	3.57630E+000	9	...........
	45	0.613333	6.27492E-001	4.00277E-004	0.00000E+000	2.51171E-004	2.40040E-001	6.27711E-001	3.57630E+000	9	...........
	46	0.626667	6.32885E-001	4.00216E-004	0.00000E+000	2.53291E-004	2.40040E-001	6.33093E-001	3.57630E+000	9	...........
	47	0.64	6.38209E-001	4.01054E-004	0.00000E+000	2.55956E-004	2.40040E-001	6.38452E-001	3.57630E+000	9	...........
	48	0.653333	6.43614E-001	4.00150E-004	0.00000E+000	2.57542E-004	2.40040E-001	6.43833E-001	3.57630E+000	9	...........
	49	0.666667	6.48976E-001	3.99248E-004	0.00000E+000	2.59102E-004	2.40040E-001	6.49186E-001	3.57630E+000	9	...........
	50	0.68	6.54395E-001	3.99925E-004	0.00000E+000	2.61709E-004	2.40040E-001	6.54616E-001	3.57630E+000	9	...........
	51	0.693333	6.59673E-001	4.01720E-004	0.00000E+000	2.65004E-004	2.40040E-001	6.59897E-001	3.57630E+000	9	...........
	52	0.706667	6.64953E-001	4.01335E-004	0.00000E+000	2.66869E-004	2.40040E-001	6.65199E-001	3.57630E+000	9	...........
	53	0.72	6.70289E-001	4.01715E-004	0.00000E+000	2.69265E-004	2.40040E-001	6.70535E-001	3.57630E+000	9	...........
	54	0.733333	6.75570E-001	4.00868E-004	0.00000E+000	2.70814E-004	2.40040E-001	6.75804E-001	3.57630E+000	9	...........
	55	0.746667	6.80786E-001	4.01367E-004	0.00000E+000	2.73245E-004	2.40040E-001	6.81040E-001	3.57630E+000	9	...........
	56	0.76	6.86034E-001	4.00917E-004	0.00000E+000	2.75042E-004	2.40040E-001	6.86277E-001	3.57630E+000	9	...........
	57	0.773333	6.91332E-001	4.00167E-004	0.00000E+000	2.76648E-004	2.40040E-001	6.91559E-001	3.57630E+000	9	...........
	58	0.786667	6.96543E-001	4.00220E-004	0.00000E+000	2.78770E-004	2.40040E-001	6.96772E-001	3.57630E+000	9	...........
	59	0.8	7.01833E-001	4.00098E-004	0.00000E+000	2.80802E-004	2.40040E-001	7.02072E-001	3.57630E+000	9	...........
	60	0.813333	7.06909E-001	4.00896E-004	0.00000E+000	2.83397E-004	2.40040E-001	7.07173E-001	3.57630E+000	9	...........
	61	0.826667	7.12028E-001	4.00972E-004	0.00000E+000	2.85504E-004	2.40040E-001	7.12280E-001	3.57630E+000	9	...........
	62	0.84	7.17223E-001	4.01856E-004	0.00000E+000	2.88220E-004	2.40040E-001	7.17471E-001	3.57630E+000	9	...........
	63	0.853333	7.22381E-001	4.01091E-004	0.00000E+000	2.89740E-004	2.40040E-001	7.22604E-001	3.57630E+000	9	...........
	64	0.866667	7.27474E-001	4.01593E-004	0.00000E+000	2.92148E-004	2.40040E-001	7.27715E-001	3.57630E+000	9	...........
	65	0.88	7.32606E-001	4.01118E-004	0.00000E+000	2.93861E-004	2.40040E-001	7.32878E-001	3.57630E+000	9	...........
	66	0.893333	7.37658E-001	4.00457E-004	0.00000E+000	2.95401E-004	2.40040E-001	7.37916E-001	3.57630E+000	9	...........
	67	0.906667	7.42760E-001	4.01269E-004	0.00000E+000	2.98046E-004	2.40040E-001	7.43023E-001	3.57630E+000	9	...........
	68	0.92	7.47848E-001	4.01210E-004	0.00000E+000	3.00044E-004	2.40040E-001	7.48083E-001	3.57630E+000	9	...........
	69	0.933333	7.52898E-001	4.01197E-004	0.00000E+000	3.02061E-004	2.40040E-001	7.53134E-001	3.57630E+000	9	...........
	70	0.946667	7.58002E-001	3.99790E-004	0.00000E+000	3.03041E-004	2.40040E-001	7.58226E-001	3.57630E+000	9	...........
	71	0.96	7.62982E-001	4.01069E-004	0.00000E+000	3.06008E-004	2.40040E-001	7.63191E-001	3.57630E+000	9	...........
	72	0.97333	7.67870E-001	4.00598E-004	0.00000E+000	3.07607E-004	2.40040E-001	7.68119E-001	3.57630E+000	9	...........
	73	0.98667	7.72811E-001	4.00347E-004	0.00000E+000	3.09392E-004	2.40040E-001	7.73062E-001	3.57630E+000	9	...........
	74	1	7.77654E-001	4.00693E-004	0.00000E+000	3.11600E-004	2.40040E-001	7.77891E-001	3.57630E+000	9	...........
	75	1.01333	7.82579E-001	4.00644E-004	0.00000E+000	3.13536E-004	2.40040E-001	7.82814E-001	3.57630E+000	9	...........
	76	1.02667	7.87470E-001	3.99946E-004	0.00000E+000	3.14945E-004	2.40040E-001	7.87660E-001	3.57630E+000	9	...........
	77	1.04	7.92349E-001	4.00513E-004	0.00000E+000	3.17346E-004	2.40040E-001	7.92581E-001	3.57630E+000	9	...........
	78	1.05333	7.97286E-001	4.00643E-004	0.00000E+000	3.19427E-004	2.40040E-001	7.97484E-001	3.57630E+000	9	...........
	79	1.06667	8.02070E-001	3.99781E-004	0.00000E+000	3.20653E-004	2.40040E-001	8.02276E-001	3.57630E+000	9	...........
	80	1.08	8.06903E-001	4.00113E-004	0.00000E+000	3.22852E-004	2.40040E-001	8.07145E-001	3.57630E+000	9	...........
	81	1.09333	8.11700E-001	4.01445E-004	0.00000E+000	3.25853E-004	2.40040E-001	8.11970E-001	3.57630E+000	9	...........
	82	1.10667	8.16484E-001	4.00651E-004	0.00000E+000	3.27125E-004	2.40040E-001	8.16750E-001	3.57630E+000	9	...........
	83	1.12	8.21139E-001	4.01237E-004	0.00000E+000	3.29471E-004	2.40040E-001	8.21402E-001	3.57630E+000	9	...........
	84	1.13333	8.25739E-001	4.00924E-004	0.00000E+000	3.31059E-004	2.40040E-001	8.26017E-001	3.57630E+000	9	...........
	85	1.14667	8.30426E-001	4.00787E-004	0.00000E+000	3.32824E-004	2.40040E-001	8.30690E-001	3.57630E+000	9	...........
	86	1.16	8.35041E-001	4.01205E-004	0.00000E+000	3.35023E-004	2.40040E-001	8.35322E-001	3.57630E+000	9	...........
	87	1.17333	8.39622E-001	4.00072E-004	0.00000E+000	3.35909E-004	2.40040E-001	8.39904E-001	3.57630E+000	9	...........
	88	1.18667	8.44278E-001	4.02324E-004	0.00000E+000	3.39674E-004	2.40040E-001	8.44567E-001	3.57630E+000	9	...........
	89	1.2	8.48910E-001	4.02453E-004	0.00000E+000	3.41646E-004	2.40040E-001	8.49198E-001	3.57630E+000	9	...........
	90	1.21333	8.53493E-001	4.00164E-004	0.00000E+000	3.41537E-004	2.40040E-001	8.53777E-001	3.57630E+000	9	...........
	91	1.22667	8.58010E-001	4.01131E-004	0.00000E+000	3.44175E-004	2.40040E-001	8.58342E-001	3.57630E+000	9	...........
	92	1.24	8.62515E-001	4.01186E-004	0.00000E+000	3.46029E-004	2.40040E-001	8.62828E-001	3.57630E+000	9	...........
	93	1.25333	8.67006E-001	4.01913E-004	0.00000E+000	3.48461E-004	2.40040E-001	8.67318E-001	3.57630E+000	9	...........
	94	1.26667	8.71506E-001	4.00433E-004	0.00000E+000	3.48980E-004	2.40040E-001	8.71803E-001	3.57630E+000	9	...........
	95	1.28	8.75869E-001	4.00912E-004	0.00000E+000	3.51146E-004	2.40040E-001	8.76179E-001	3.57630E+000	9	...........
	96	1.29333	8.80174E-001	4.01634E-004	0.00000E+000	3.53508E-004	2.40040E-001	8.80504E-001	3.57630E+000	9	...........
	97	1.30667	8.84542E-001	4.01694E-004	0.00000E+000	3.55315E-004	2.40040E-001	8.84861E-001	3.57630E+000	9	...........
	98	1.32	8.88867E-001	4.01358E-004	0.00000E+000	3.56754E-004	2.40040E-001	8.89171E-001	3.57630E+000	9	...........
	99	1.33333	8.93193E-001	4.01567E-004	0.00000E+000	3.58677E-004	2.40040E-001	8.93502E-001	3.57630E+000	9	...........
	100	1.34667	8.97431E-001	4.00773E-004	0.00000E+000	3.59666E-004	2.40040E-001	8.97758E-001	3.57630E+000	9	...........
	101	1.36	9.01695E-001	4.01622E-004	0.00000E+000	3.62141E-004	2.40040E-001	9.01990E-001	3.57630E+000	9	...........
	102	1.37333	9.05862E-001	4.00160E-004	0.00000E+000	3.62490E-004	2.40040E-001	9.06182E-001	3.57630E+000	9	...........
	103	1.38667	9.10020E-001	4.00223E-004	0.00000E+000	3.64211E-004	2.40040E-001	9.10330E-001	3.57620E+000	9	...........
	104	1.4	9.14121E-001	4.01432E-004	0.00000E+000	3.66957E-004	2.40040E-001	9.14418E-001	3.57610E+000	9	...........
	105	1.41333	9.18180E-001	4.01031E-004	0.00000E+000	3.68219E-004	2.40040E-001	9.18477E-001	3.57610E+000	9	...........
	106	1.42667	9.22309E-001	4.01259E-004	0.00000E+000	3.70084E-004	2.40040E-001	9.22570E-001	3.57610E+000	9	...........
	107	1.44	9.26335E-001	4.00924E-004	0.00000E+000	3.71390E-004	2.40040E-001	9.26573E-001	3.57610E+000	9	...........
	108	1.45333	9.30284E-001	4.00850E-004	0.00000E+000	3.72905E-004	2.40040E-001	9.30510E-001	3.57610E+000	9	...........
	109	1.46667	9.34195E-001	4.01501E-004	0.00000E+000	3.75081E-004	2.40040E-001	9.34470E-001	3.57610E+000	9	...........
	110	1.48	9.38092E-001	4.00515E-004	0.00000E+000	3.75720E-004	2.40040E-001	9.38396E-001	3.57610E+000	9	...........
	111	1.49333	9.41958E-001	4.01295E-004	0.00000E+000	3.78003E-004	2.40040E-001	9.42220E-001	3.57610E+000	9	...........
	112	1.50667	9.45841E-001	4.01289E-004	0.00000E+000	3.79555E-004	2.40040E-001	9.46095E-001	3.57610E+000	9	...........
	113	1.52	9.49707E-001	4.00991E-004	0.00000E+000	3.80824E-004	2.40040E-001	9.49970E-001	3.57610E+000	9	...........
	114	1.53333	9.53471E-001	4.00704E-004	0.00000E+000	3.82060E-004	2.40040E-001	9.53731E-001	3.57610E+000	9	...........
	115	1.54667	9.57241E-001	4.01804E-004	0.00000E+000	3.84623E-004	2.40040E-001	9.57461E-001	3.57610E+000	9	...........
	116	1.56	9.60969E-001	4.01666E-004	0.00000E+000	3.85989E-004	2.40040E-001	9.61218E-001	3.57610E+000	9	...........
	117	1.57333	9.64627E-001	4.00453E-004	0.00000E+000	3.86288E-004	2.40040E-001	9.64919E-001	3.57610E+000	9	...........
	118	1.58667	9.68279E-001	4.01049E-004	0.00000E+000	3.88328E-004	2.40040E-001	9.68570E-001	3.57610E+000	9	...........
	119	1.6	9.71838E-001	4.00220E-004	0.00000E+000	3.88949E-004	2.40040E-001	9.72116E-001	3.57610E+000	9	...........
	120	1.61333	9.75432E-001	4.00353E-004	0.00000E+000	3.90517E-004	2.40040E-001	9.75701E-001	3.57610E+000	9	...........
	121	1.62667	9.78975E-001	4.02514E-004	0.00000E+000	3.94051E-004	2.40040E-001	9.79261E-001	3.57610E+000	9	...........
	122	1.64	9.82456E-001	3.99560E-004	0.00000E+000	3.92550E-004	2.40040E-001	9.82757E-001	3.57610E+000	9	...........
	123	1.65333	9.85911E-001	4.00016E-004	0.00000E+000	3.94380E-004	2.40040E-001	9.86216E-001	3.57610E+000	9	...........
	124	1.66667	9.89378E-001	4.02509E-004	0.00000E+000	3.98234E-004	2.40040E-001	9.89706E-001	3.57610E+000	9	...........
	125	1.68	9.92707E-001	4.00913E-004	0.00000E+000	3.97989E-004	2.40040E-001	9.93029E-001	3.57610E+000	9	...........
	126	1.69333	9.96018E-001	4.00253E-004	0.00000E+000	3.98659E-004	2.40040E-001	9.96351E-001	3.57610E+000	9	...........
	127	1.70333	9.98962E-001	4.02019E-004	0.00000E+000	4.01602E-004	2.40040E-001	9.99301E-001	3.57610E+000	9	...........
STARTTIMEOFFSET	QUANT	837.0153	Start Time Offset (s)
