EXPLAIN
TAG	PWR800_CHARGE
TITLE	LABEL	PWR Cyclic Charge Discharge (Cell) - Charge Step	Test &Identifier
DATE	LABEL	12-7-2017	Date
TIME	LABEL	14:45:39	Time
NOTES	NOTES	3	&Notes...
	supercap test cell
	0.4mg
	6M KOH
PSTAT	PSTAT	IFC5000-01520	Potentiostat
CAPACITY	QUANT	1.00000E-003	Capacity (A-hr)
CELLTYPE	SELECTOR	1	&Cell Type
WORKINGCONNECTION	SELECTOR	0	&Working Lead
MAXCHARGETIME	VARIABLEANDUNITS	1.00000E+002	s	1.00000E+002	second(s)	Max &Charge Time
CHARGECURRENT	QUANT	4.00000E-004	&Charge Current (A) 
VOLTAGEFINISH	TWOPARAM	F	1.00000E-003	3.60000E+003	&Voltage Finish	 I (A) < 	Max Time(s)
SAMPLETIME	QUANT	1.00000E-002	Sa&mple Period (s)
CHARGESTOPAT1	MULTIPARAM	4	1.00000E+000	Charge Stop At &1	Voltage > Limit	V
CHARGESTOPAT2	MULTIPARAM	0	0.00000E+000	Charge Stop At &2	None	N/A
AESBHCSELECTOR	TOGGLE	F	Save Both Half Cells
IRCOMP	TOGGLE	F	IR &Measure
EOC	QUANT	0	Open Circuit (V)
SEQUENCER	TOGGLE	TRUE	Run as Sequence
PSTATMODEL	IQUANT	53	Pstat Model
PSTATSECTION	LABEL	IFC5000-01520	Pstat Section
PSTATSERIALNO	LABEL	01520	Pstat Serial Number
CTRLMODE	IQUANT	0	Control Mode
ELECTROMETER	IQUANT	1	RE=0 or CS=1
IESTAB	IQUANT	0	I/E Stability
CASPEED	IQUANT	4	Control Amp Speed
CONVENTION	IQUANT	1	Current Convention
ICHRANGE	IQUANT	2	Ich Range
ICHRANGEMODE	TOGGLE	T	Ich Auto Range
ICHOFFSETENABLE	TOGGLE	F	Ich Offset Enable
ICHOFFSET	QUANT	0	Ich Offset (V)
ICHFILTER	IQUANT	1	Ich Filter
VCHRANGE	IQUANT	2	Vch Range
VCHRANGEMODE	TOGGLE	T	Vch Auto Range
VCHOFFSETENABLE	TOGGLE	F	Vch Offset Enable
VCHOFFSET	QUANT	0	Vch Offset (V)
VCHFILTER	IQUANT	1	Vch Filter
IERANGELOWERLIMIT	IQUANT	9	I/E Range Lower Limit
IERANGEMODE	TOGGLE	F	I/E AutoRange
IERANGE	IQUANT	9	I/E Range
ACHSELECT	IQUANT	1	Ach Select
ACHRANGE	IQUANT	2	Ach Range
ACHOFFSETENABLE	TOGGLE	F	Ach Offset Enable
ACHOFFSET	QUANT	0	Ach Offset (V)
ACHFILTER	IQUANT	1	Ach Filter
CABLEID	IQUANT	14	Cable ID
DCCALDATE	LABEL	5-7-2017	DC Calibration Date
ACCALDATE	LABEL	12/3/2015	AC Calibration Date
FRAMEWORKVERSION	QUANT	7.01	Framework Version
INSTRUMENTVERSION	LABEL	4.00	Instrument Version
CURVE	TABLE	121
	Pt	T	Vf	Im	Vu	Pwr	Sig	Ach	Temp	IERange	Over
	#	s	V	A	V	W	V	V	deg C	#	bits
	0	0.013333	3.60493E-001	4.01721E-004	0.00000E+000	1.44818E-004	2.40040E-001	3.60579E-001	3.57680E+000	9	...........
	1	0.026667	3.71855E-001	4.00190E-004	0.00000E+000	1.48813E-004	2.40040E-001	3.71922E-001	3.57680E+000	9	...........
	2	0.04	3.81661E-001	4.01002E-004	0.00000E+000	1.53047E-004	2.40040E-001	3.81740E-001	3.57680E+000	9	...........
	3	0.053333	3.90512E-001	4.03095E-004	0.00000E+000	1.57414E-004	2.40040E-001	3.90588E-001	3.57680E+000	9	...........
	4	0.066667	3.98745E-001	4.01787E-004	0.00000E+000	1.60211E-004	2.40040E-001	3.98821E-001	3.57680E+000	9	...........
	5	0.08	4.06650E-001	4.00688E-004	0.00000E+000	1.62939E-004	2.40040E-001	4.06736E-001	3.57680E+000	9	...........
	6	0.093333	4.14218E-001	4.00956E-004	0.00000E+000	1.66083E-004	2.40040E-001	4.14308E-001	3.57680E+000	9	...........
	7	0.106667	4.21547E-001	4.02276E-004	0.00000E+000	1.69578E-004	2.40040E-001	4.21638E-001	3.57680E+000	9	...........
	8	0.12	4.28711E-001	4.00148E-004	0.00000E+000	1.71548E-004	2.40040E-001	4.28799E-001	3.57680E+000	9	...........
	9	0.133333	4.35695E-001	4.01371E-004	0.00000E+000	1.74875E-004	2.40040E-001	4.35779E-001	3.57680E+000	9	...........
	10	0.146667	4.42536E-001	4.00135E-004	0.00000E+000	1.77074E-004	2.40040E-001	4.42622E-001	3.57680E+000	9	...........
	11	0.16	4.49309E-001	4.01450E-004	0.00000E+000	1.80375E-004	2.40040E-001	4.49401E-001	3.57680E+000	9	...........
	12	0.173333	4.55986E-001	4.01512E-004	0.00000E+000	1.83084E-004	2.40040E-001	4.56075E-001	3.57680E+000	9	...........
	13	0.186667	4.62548E-001	4.01213E-004	0.00000E+000	1.85580E-004	2.40040E-001	4.62641E-001	3.57680E+000	9	...........
	14	0.2	4.69032E-001	4.00745E-004	0.00000E+000	1.87962E-004	2.40040E-001	4.69126E-001	3.57680E+000	9	...........
	15	0.213333	4.75535E-001	4.01447E-004	0.00000E+000	1.90902E-004	2.40040E-001	4.75630E-001	3.57680E+000	9	...........
	16	0.226667	4.81944E-001	4.00125E-004	0.00000E+000	1.92838E-004	2.40040E-001	4.82047E-001	3.57680E+000	9	...........
	17	0.24	4.88269E-001	4.00400E-004	0.00000E+000	1.95503E-004	2.40040E-001	4.88369E-001	3.57680E+000	9	...........
	18	0.253333	4.94563E-001	4.00227E-004	0.00000E+000	1.97937E-004	2.40040E-001	4.94661E-001	3.57680E+000	9	...........
	19	0.266667	5.00704E-001	4.01858E-004	0.00000E+000	2.01212E-004	2.40040E-001	5.00811E-001	3.57680E+000	9	...........
	20	0.28	5.06901E-001	4.01234E-004	0.00000E+000	2.03386E-004	2.40040E-001	5.07006E-001	3.57680E+000	9	...........
	21	0.293333	5.13007E-001	4.01573E-004	0.00000E+000	2.06010E-004	2.40040E-001	5.13111E-001	3.57680E+000	9	...........
	22	0.306667	5.19088E-001	4.00712E-004	0.00000E+000	2.08005E-004	2.40040E-001	5.19189E-001	3.57680E+000	9	...........
	23	0.32	5.25117E-001	4.01404E-004	0.00000E+000	2.10784E-004	2.40040E-001	5.25226E-001	3.57680E+000	9	...........
	24	0.333333	5.31113E-001	4.01053E-004	0.00000E+000	2.13005E-004	2.40040E-001	5.31185E-001	3.57680E+000	9	...........
	25	0.346667	5.36745E-001	3.99354E-004	0.00000E+000	2.14351E-004	2.40040E-001	5.36994E-001	3.57680E+000	9	...........
	26	0.36	5.42775E-001	4.01884E-004	0.00000E+000	2.18132E-004	2.40040E-001	5.42980E-001	3.57680E+000	9	...........
	27	0.373333	5.48632E-001	4.00346E-004	0.00000E+000	2.19642E-004	2.40040E-001	5.48826E-001	3.57680E+000	9	...........
	28	0.386667	5.54514E-001	4.00600E-004	0.00000E+000	2.22138E-004	2.40040E-001	5.54752E-001	3.57680E+000	9	...........
	29	0.4	5.60379E-001	4.02199E-004	0.00000E+000	2.25384E-004	2.40040E-001	5.60619E-001	3.57680E+000	9	...........
	30	0.413333	5.66326E-001	4.01474E-004	0.00000E+000	2.27365E-004	2.40040E-001	5.66543E-001	3.57680E+000	9	...........
	31	0.426667	5.72157E-001	4.00523E-004	0.00000E+000	2.29162E-004	2.40040E-001	5.72381E-001	3.57680E+000	9	...........
	32	0.44	5.77981E-001	4.01527E-004	0.00000E+000	2.32075E-004	2.40040E-001	5.78213E-001	3.57680E+000	9	...........
	33	0.453333	5.83761E-001	4.01309E-004	0.00000E+000	2.34268E-004	2.40040E-001	5.83991E-001	3.57680E+000	9	...........
	34	0.466667	5.89433E-001	4.00620E-004	0.00000E+000	2.36139E-004	2.40040E-001	5.89643E-001	3.57680E+000	9	...........
	35	0.48	5.95154E-001	3.99871E-004	0.00000E+000	2.37985E-004	2.40040E-001	5.95372E-001	3.57680E+000	9	...........
	36	0.493333	6.00805E-001	4.00418E-004	0.00000E+000	2.40573E-004	2.40040E-001	6.01031E-001	3.57680E+000	9	...........
	37	0.506667	6.06456E-001	4.00923E-004	0.00000E+000	2.43142E-004	2.40040E-001	6.06711E-001	3.57680E+000	9	...........
	38	0.52	6.12211E-001	4.01203E-004	0.00000E+000	2.45621E-004	2.40040E-001	6.12446E-001	3.57680E+000	9	...........
	39	0.533333	6.18019E-001	4.00237E-004	0.00000E+000	2.47354E-004	2.40040E-001	6.18197E-001	3.57680E+000	9	...........
	40	0.546667	6.23624E-001	4.02518E-004	0.00000E+000	2.51020E-004	2.40040E-001	6.23806E-001	3.57680E+000	9	...........
	41	0.56	6.29240E-001	4.01990E-004	0.00000E+000	2.52948E-004	2.40040E-001	6.29447E-001	3.57680E+000	9	...........
	42	0.573333	6.34789E-001	4.00691E-004	0.00000E+000	2.54354E-004	2.40040E-001	6.35008E-001	3.57680E+000	9	...........
	43	0.586667	6.40436E-001	4.00654E-004	0.00000E+000	2.56593E-004	2.40040E-001	6.40649E-001	3.57680E+000	9	...........
	44	0.6	6.46046E-001	4.01565E-004	0.00000E+000	2.59430E-004	2.40040E-001	6.46299E-001	3.57880E+000	9	...........
	45	0.613333	6.51635E-001	3.99485E-004	0.00000E+000	2.60319E-004	2.40040E-001	6.51884E-001	3.57880E+000	9	...........
	46	0.626667	6.57146E-001	4.01342E-004	0.00000E+000	2.63740E-004	2.40040E-001	6.57378E-001	3.57880E+000	9	...........
	47	0.64	6.62686E-001	4.01961E-004	0.00000E+000	2.66374E-004	2.40040E-001	6.62950E-001	3.57880E+000	9	...........
	48	0.653333	6.68262E-001	3.99460E-004	0.00000E+000	2.66944E-004	2.40040E-001	6.68482E-001	3.57880E+000	9	...........
	49	0.666667	6.73773E-001	4.00899E-004	0.00000E+000	2.70115E-004	2.40040E-001	6.73989E-001	3.57880E+000	9	...........
	50	0.68	6.79237E-001	4.01200E-004	0.00000E+000	2.72510E-004	2.40040E-001	6.79488E-001	3.57880E+000	9	...........
	51	0.693333	6.84672E-001	4.00060E-004	0.00000E+000	2.73910E-004	2.40040E-001	6.84894E-001	3.57880E+000	9	...........
	52	0.706667	6.90086E-001	4.01126E-004	0.00000E+000	2.76812E-004	2.40040E-001	6.90335E-001	3.57880E+000	9	...........
	53	0.72	6.95531E-001	4.02156E-004	0.00000E+000	2.79712E-004	2.40040E-001	6.95742E-001	3.57880E+000	9	...........
	54	0.733333	7.00895E-001	4.01182E-004	0.00000E+000	2.81186E-004	2.40040E-001	7.01147E-001	3.57880E+000	9	...........
	55	0.746667	7.06266E-001	4.01980E-004	0.00000E+000	2.83905E-004	2.40040E-001	7.06504E-001	3.57880E+000	9	...........
	56	0.76	7.11639E-001	4.00967E-004	0.00000E+000	2.85344E-004	2.40040E-001	7.11895E-001	3.57880E+000	9	...........
	57	0.773333	7.17119E-001	4.00533E-004	0.00000E+000	2.87230E-004	2.40040E-001	7.17376E-001	3.57880E+000	9	...........
	58	0.786667	7.22415E-001	3.99524E-004	0.00000E+000	2.88622E-004	2.40040E-001	7.22648E-001	3.57880E+000	9	...........
	59	0.8	7.27759E-001	4.00654E-004	0.00000E+000	2.91580E-004	2.40040E-001	7.28015E-001	3.57880E+000	9	...........
	60	0.813333	7.33094E-001	4.00565E-004	0.00000E+000	2.93651E-004	2.40040E-001	7.33363E-001	3.57880E+000	9	...........
	61	0.826667	7.38342E-001	4.01669E-004	0.00000E+000	2.96569E-004	2.40040E-001	7.38603E-001	3.57880E+000	9	...........
	62	0.84	7.43534E-001	4.01646E-004	0.00000E+000	2.98637E-004	2.40040E-001	7.43806E-001	3.57880E+000	9	...........
	63	0.853333	7.48686E-001	4.02003E-004	0.00000E+000	3.00974E-004	2.40040E-001	7.48961E-001	3.57880E+000	9	...........
	64	0.866667	7.53964E-001	4.01897E-004	0.00000E+000	3.03016E-004	2.40040E-001	7.54237E-001	3.57880E+000	9	...........
	65	0.88	7.59212E-001	4.00653E-004	0.00000E+000	3.04181E-004	2.40040E-001	7.59482E-001	3.57880E+000	9	...........
	66	0.893333	7.64389E-001	4.00246E-004	0.00000E+000	3.05944E-004	2.40040E-001	7.64667E-001	3.57880E+000	9	...........
	67	0.906667	7.69565E-001	4.01670E-004	0.00000E+000	3.09111E-004	2.40040E-001	7.69852E-001	3.57880E+000	9	...........
	68	0.92	7.74663E-001	4.00521E-004	0.00000E+000	3.10269E-004	2.40040E-001	7.74927E-001	3.57880E+000	9	...........
	69	0.933333	7.79663E-001	4.00514E-004	0.00000E+000	3.12266E-004	2.40040E-001	7.79947E-001	3.57880E+000	9	...........
	70	0.946667	7.84768E-001	4.00042E-004	0.00000E+000	3.13940E-004	2.40040E-001	7.85044E-001	3.57880E+000	9	...........
	71	0.96	7.89846E-001	4.00641E-004	0.00000E+000	3.16444E-004	2.40040E-001	7.90114E-001	3.57880E+000	9	...........
	72	0.97333	7.94938E-001	4.00901E-004	0.00000E+000	3.18692E-004	2.40040E-001	7.95206E-001	3.57880E+000	9	...........
	73	0.98667	7.99992E-001	4.02370E-004	0.00000E+000	3.21893E-004	2.40040E-001	8.00245E-001	3.57880E+000	9	...........
	74	1	8.04928E-001	4.01658E-004	0.00000E+000	3.23305E-004	2.40040E-001	8.05167E-001	3.57880E+000	9	...........
	75	1.01333	8.09829E-001	4.01200E-004	0.00000E+000	3.24904E-004	2.40040E-001	8.10116E-001	3.57880E+000	9	...........
	76	1.02667	8.14701E-001	4.02257E-004	0.00000E+000	3.27719E-004	2.40040E-001	8.14972E-001	3.57880E+000	9	...........
	77	1.04	8.19626E-001	4.00546E-004	0.00000E+000	3.28298E-004	2.40040E-001	8.19895E-001	3.57880E+000	9	...........
	78	1.05333	8.24471E-001	4.02145E-004	0.00000E+000	3.31557E-004	2.40040E-001	8.24782E-001	3.57880E+000	9	...........
	79	1.06667	8.29285E-001	4.01063E-004	0.00000E+000	3.32595E-004	2.40040E-001	8.29567E-001	3.57880E+000	9	...........
	80	1.08	8.34098E-001	4.00883E-004	0.00000E+000	3.34375E-004	2.40040E-001	8.34405E-001	3.57880E+000	9	...........
	81	1.09333	8.38908E-001	4.01383E-004	0.00000E+000	3.36723E-004	2.40040E-001	8.39201E-001	3.57880E+000	9	...........
	82	1.10667	8.43653E-001	3.99996E-004	0.00000E+000	3.37458E-004	2.40040E-001	8.43952E-001	3.57880E+000	9	...........
	83	1.12	8.48422E-001	4.00971E-004	0.00000E+000	3.40193E-004	2.40040E-001	8.48749E-001	3.57880E+000	9	...........
	84	1.13333	8.53172E-001	4.01394E-004	0.00000E+000	3.42458E-004	2.40040E-001	8.53469E-001	3.57880E+000	9	...........
	85	1.14667	8.57802E-001	4.02379E-004	0.00000E+000	3.45161E-004	2.40040E-001	8.58138E-001	3.57880E+000	9	...........
	86	1.16	8.62375E-001	4.00642E-004	0.00000E+000	3.45504E-004	2.40040E-001	8.62712E-001	3.57880E+000	9	...........
	87	1.17333	8.66998E-001	4.00999E-004	0.00000E+000	3.47666E-004	2.40040E-001	8.67327E-001	3.57880E+000	9	...........
	88	1.18667	8.71714E-001	4.01349E-004	0.00000E+000	3.49862E-004	2.40040E-001	8.71988E-001	3.57880E+000	9	...........
	89	1.2	8.76189E-001	4.00639E-004	0.00000E+000	3.51035E-004	2.40040E-001	8.76511E-001	3.57880E+000	9	...........
	90	1.21333	8.80718E-001	4.00790E-004	0.00000E+000	3.52983E-004	2.40040E-001	8.81046E-001	3.57880E+000	9	...........
	91	1.22667	8.85222E-001	4.02191E-004	0.00000E+000	3.56029E-004	2.40040E-001	8.85540E-001	3.57880E+000	9	...........
	92	1.24	8.89677E-001	3.99659E-004	0.00000E+000	3.55568E-004	2.40040E-001	8.89988E-001	3.57880E+000	9	...........
	93	1.25333	8.94103E-001	4.00527E-004	0.00000E+000	3.58113E-004	2.40040E-001	8.94404E-001	3.57880E+000	9	...........
	94	1.26667	8.98497E-001	4.01900E-004	0.00000E+000	3.61106E-004	2.40040E-001	8.98814E-001	3.57880E+000	9	...........
	95	1.28	9.02855E-001	4.00814E-004	0.00000E+000	3.61877E-004	2.40040E-001	9.03193E-001	3.57880E+000	9	...........
	96	1.29333	9.07219E-001	4.00015E-004	0.00000E+000	3.62901E-004	2.40040E-001	9.07577E-001	3.57880E+000	9	...........
	97	1.30667	9.11532E-001	4.01359E-004	0.00000E+000	3.65851E-004	2.40040E-001	9.11867E-001	3.57880E+000	9	...........
	98	1.32	9.15801E-001	4.01401E-004	0.00000E+000	3.67604E-004	2.40040E-001	9.16155E-001	3.57880E+000	9	...........
	99	1.33333	9.20036E-001	3.99858E-004	0.00000E+000	3.67884E-004	2.40040E-001	9.20372E-001	3.57880E+000	9	...........
	100	1.34667	9.24269E-001	4.00179E-004	0.00000E+000	3.69873E-004	2.40040E-001	9.24569E-001	3.57880E+000	9	...........
	101	1.36	9.28406E-001	4.00746E-004	0.00000E+000	3.72055E-004	2.40040E-001	9.28718E-001	3.57880E+000	9	...........
	102	1.37333	9.32502E-001	4.00914E-004	0.00000E+000	3.73853E-004	2.40040E-001	9.32809E-001	3.57880E+000	9	...........
	103	1.38667	9.36563E-001	4.00109E-004	0.00000E+000	3.74728E-004	2.40040E-001	9.36898E-001	3.57880E+000	9	...........
	104	1.4	9.40592E-001	4.01211E-004	0.00000E+000	3.77375E-004	2.40040E-001	9.40925E-001	3.57880E+000	9	...........
	105	1.41333	9.44586E-001	3.99920E-004	0.00000E+000	3.77758E-004	2.40040E-001	9.44903E-001	3.57880E+000	9	...........
	106	1.42667	9.48590E-001	4.00414E-004	0.00000E+000	3.79828E-004	2.40040E-001	9.48911E-001	3.57880E+000	9	...........
	107	1.44	9.52476E-001	4.01620E-004	0.00000E+000	3.82534E-004	2.40040E-001	9.52799E-001	3.57880E+000	9	...........
	108	1.45333	9.56377E-001	4.01420E-004	0.00000E+000	3.83909E-004	2.40040E-001	9.56693E-001	3.57880E+000	9	...........
	109	1.46667	9.60199E-001	4.00532E-004	0.00000E+000	3.84591E-004	2.40040E-001	9.60530E-001	3.57880E+000	9	...........
	110	1.48	9.64001E-001	3.99927E-004	0.00000E+000	3.85530E-004	2.40040E-001	9.64348E-001	3.57880E+000	9	...........
	111	1.49333	9.67779E-001	4.01785E-004	0.00000E+000	3.88839E-004	2.40040E-001	9.68136E-001	3.57880E+000	9	...........
	112	1.50667	9.71539E-001	4.00923E-004	0.00000E+000	3.89513E-004	2.40040E-001	9.71898E-001	3.57880E+000	9	...........
	113	1.52	9.75289E-001	4.00433E-004	0.00000E+000	3.90538E-004	2.40040E-001	9.75596E-001	3.57880E+000	9	...........
	114	1.53333	9.78946E-001	4.00305E-004	0.00000E+000	3.91877E-004	2.40040E-001	9.79272E-001	3.57880E+000	9	...........
	115	1.54667	9.82597E-001	4.00774E-004	0.00000E+000	3.93800E-004	2.40040E-001	9.82900E-001	3.57880E+000	9	...........
	116	1.56	9.86156E-001	4.00486E-004	0.00000E+000	3.94941E-004	2.40040E-001	9.86476E-001	3.57880E+000	9	...........
	117	1.57333	9.89725E-001	4.01597E-004	0.00000E+000	3.97471E-004	2.40040E-001	9.90044E-001	3.57880E+000	9	...........
	118	1.58667	9.93250E-001	3.98780E-004	0.00000E+000	3.96088E-004	2.40040E-001	9.93597E-001	3.57880E+000	9	...........
	119	1.6	9.96765E-001	4.01071E-004	0.00000E+000	3.99774E-004	2.40040E-001	9.97127E-001	3.57610E+000	9	...........
	120	1.60667	9.99398E-001	4.03878E-004	0.00000E+000	4.03635E-004	2.40040E-001	9.99777E-001	3.57610E+000	9	...........
STARTTIMEOFFSET	QUANT	1295.725	Start Time Offset (s)
