EXPLAIN
TAG	PWR800_CHARGE
TITLE	LABEL	PWR Cyclic Charge Discharge (Cell) - Charge Step	Test &Identifier
DATE	LABEL	12-7-2017	Date
TIME	LABEL	15:11:21	Time
NOTES	NOTES	3	&Notes...
	supercap test cell
	0.4mg
	6M KOH
PSTAT	PSTAT	IFC5000-01520	Potentiostat
CAPACITY	QUANT	1.00000E-003	Capacity (A-hr)
CELLTYPE	SELECTOR	1	&Cell Type
WORKINGCONNECTION	SELECTOR	0	&Working Lead
MAXCHARGETIME	VARIABLEANDUNITS	1.00000E+002	s	1.00000E+002	second(s)	Max &Charge Time
CHARGECURRENT	QUANT	4.00000E-004	&Charge Current (A) 
VOLTAGEFINISH	TWOPARAM	F	1.00000E-003	3.60000E+003	&Voltage Finish	 I (A) < 	Max Time(s)
SAMPLETIME	QUANT	1.00000E-002	Sa&mple Period (s)
CHARGESTOPAT1	MULTIPARAM	4	1.00000E+000	Charge Stop At &1	Voltage > Limit	V
CHARGESTOPAT2	MULTIPARAM	0	0.00000E+000	Charge Stop At &2	None	N/A
AESBHCSELECTOR	TOGGLE	F	Save Both Half Cells
IRCOMP	TOGGLE	F	IR &Measure
EOC	QUANT	0	Open Circuit (V)
SEQUENCER	TOGGLE	TRUE	Run as Sequence
PSTATMODEL	IQUANT	53	Pstat Model
PSTATSECTION	LABEL	IFC5000-01520	Pstat Section
PSTATSERIALNO	LABEL	01520	Pstat Serial Number
CTRLMODE	IQUANT	0	Control Mode
ELECTROMETER	IQUANT	1	RE=0 or CS=1
IESTAB	IQUANT	0	I/E Stability
CASPEED	IQUANT	4	Control Amp Speed
CONVENTION	IQUANT	1	Current Convention
ICHRANGE	IQUANT	2	Ich Range
ICHRANGEMODE	TOGGLE	T	Ich Auto Range
ICHOFFSETENABLE	TOGGLE	F	Ich Offset Enable
ICHOFFSET	QUANT	0	Ich Offset (V)
ICHFILTER	IQUANT	1	Ich Filter
VCHRANGE	IQUANT	2	Vch Range
VCHRANGEMODE	TOGGLE	T	Vch Auto Range
VCHOFFSETENABLE	TOGGLE	F	Vch Offset Enable
VCHOFFSET	QUANT	0	Vch Offset (V)
VCHFILTER	IQUANT	1	Vch Filter
IERANGELOWERLIMIT	IQUANT	9	I/E Range Lower Limit
IERANGEMODE	TOGGLE	F	I/E AutoRange
IERANGE	IQUANT	9	I/E Range
ACHSELECT	IQUANT	1	Ach Select
ACHRANGE	IQUANT	2	Ach Range
ACHOFFSETENABLE	TOGGLE	F	Ach Offset Enable
ACHOFFSET	QUANT	0	Ach Offset (V)
ACHFILTER	IQUANT	1	Ach Filter
CABLEID	IQUANT	14	Cable ID
DCCALDATE	LABEL	5-7-2017	DC Calibration Date
ACCALDATE	LABEL	12/3/2015	AC Calibration Date
FRAMEWORKVERSION	QUANT	7.01	Framework Version
INSTRUMENTVERSION	LABEL	4.00	Instrument Version
CURVE	TABLE	109
	Pt	T	Vf	Im	Vu	Pwr	Sig	Ach	Temp	IERange	Over
	#	s	V	A	V	W	V	V	deg C	#	bits
	0	0.013333	3.82718E-001	4.00667E-004	0.00000E+000	1.53342E-004	2.40040E-001	3.82815E-001	3.57710E+000	9	...........
	1	0.026667	3.95197E-001	4.01993E-004	0.00000E+000	1.58867E-004	2.40040E-001	3.95271E-001	3.57710E+000	9	...........
	2	0.04	4.05888E-001	4.00728E-004	0.00000E+000	1.62651E-004	2.40040E-001	4.05966E-001	3.57710E+000	9	...........
	3	0.053333	4.15550E-001	4.01647E-004	0.00000E+000	1.66905E-004	2.40040E-001	4.15639E-001	3.57710E+000	9	...........
	4	0.066667	4.24573E-001	4.00740E-004	0.00000E+000	1.70143E-004	2.40040E-001	4.24660E-001	3.57710E+000	9	...........
	5	0.08	4.33173E-001	4.01027E-004	0.00000E+000	1.73714E-004	2.40040E-001	4.33260E-001	3.57710E+000	9	...........
	6	0.093333	4.41366E-001	4.01468E-004	0.00000E+000	1.77194E-004	2.40040E-001	4.41452E-001	3.57710E+000	9	...........
	7	0.106667	4.49271E-001	4.02103E-004	0.00000E+000	1.80653E-004	2.40040E-001	4.49358E-001	3.57710E+000	9	...........
	8	0.12	4.56991E-001	4.02092E-004	0.00000E+000	1.83753E-004	2.40040E-001	4.57086E-001	3.57710E+000	9	...........
	9	0.133333	4.64590E-001	4.00703E-004	0.00000E+000	1.86163E-004	2.40040E-001	4.64681E-001	3.57710E+000	9	...........
	10	0.146667	4.72020E-001	4.02009E-004	0.00000E+000	1.89756E-004	2.40040E-001	4.72109E-001	3.57710E+000	9	...........
	11	0.16	4.79287E-001	4.00555E-004	0.00000E+000	1.91981E-004	2.40040E-001	4.79382E-001	3.57710E+000	9	...........
	12	0.173333	4.86446E-001	4.01103E-004	0.00000E+000	1.95115E-004	2.40040E-001	4.86535E-001	3.57710E+000	9	...........
	13	0.186667	4.93535E-001	4.00745E-004	0.00000E+000	1.97782E-004	2.40040E-001	4.93628E-001	3.57710E+000	9	...........
	14	0.2	5.00535E-001	4.00683E-004	0.00000E+000	2.00556E-004	2.40040E-001	5.00635E-001	3.57710E+000	9	...........
	15	0.213333	5.07422E-001	4.01406E-004	0.00000E+000	2.03682E-004	2.40040E-001	5.07525E-001	3.57710E+000	9	...........
	16	0.226667	5.14194E-001	4.00881E-004	0.00000E+000	2.06131E-004	2.40040E-001	5.14293E-001	3.57710E+000	9	...........
	17	0.24	5.20950E-001	4.00706E-004	0.00000E+000	2.08748E-004	2.40040E-001	5.21049E-001	3.57710E+000	9	...........
	18	0.253333	5.27744E-001	4.00614E-004	0.00000E+000	2.11422E-004	2.40040E-001	5.27843E-001	3.57710E+000	9	...........
	19	0.266667	5.34176E-001	4.01320E-004	0.00000E+000	2.14376E-004	2.40040E-001	5.34347E-001	3.57710E+000	9	...........
	20	0.28	5.40709E-001	4.00210E-004	0.00000E+000	2.16397E-004	2.40040E-001	5.40932E-001	3.57710E+000	9	...........
	21	0.293333	5.47236E-001	4.01412E-004	0.00000E+000	2.19667E-004	2.40040E-001	5.47450E-001	3.57710E+000	9	...........
	22	0.306667	5.53771E-001	4.00917E-004	0.00000E+000	2.22016E-004	2.40040E-001	5.53982E-001	3.57710E+000	9	...........
	23	0.32	5.60240E-001	4.00791E-004	0.00000E+000	2.24539E-004	2.40040E-001	5.60470E-001	3.57710E+000	9	...........
	24	0.333333	5.66733E-001	4.01374E-004	0.00000E+000	2.27472E-004	2.40040E-001	5.66952E-001	3.57710E+000	9	...........
	25	0.346667	5.73118E-001	4.01296E-004	0.00000E+000	2.29990E-004	2.40040E-001	5.73328E-001	3.57710E+000	9	...........
	26	0.36	5.79451E-001	4.01848E-004	0.00000E+000	2.32851E-004	2.40040E-001	5.79675E-001	3.57710E+000	9	...........
	27	0.373333	5.85820E-001	4.01626E-004	0.00000E+000	2.35281E-004	2.40040E-001	5.86065E-001	3.57710E+000	9	...........
	28	0.386667	5.92147E-001	4.01949E-004	0.00000E+000	2.38013E-004	2.40040E-001	5.92365E-001	3.57710E+000	9	...........
	29	0.4	5.98341E-001	4.01024E-004	0.00000E+000	2.39949E-004	2.40040E-001	5.98573E-001	3.57710E+000	9	...........
	30	0.413333	6.04567E-001	3.99992E-004	0.00000E+000	2.41822E-004	2.40040E-001	6.04815E-001	3.57710E+000	9	...........
	31	0.426667	6.10838E-001	4.01217E-004	0.00000E+000	2.45079E-004	2.40040E-001	6.11086E-001	3.57710E+000	9	...........
	32	0.44	6.17046E-001	4.00778E-004	0.00000E+000	2.47299E-004	2.40040E-001	6.17276E-001	3.57710E+000	9	...........
	33	0.453333	6.23239E-001	4.01142E-004	0.00000E+000	2.50007E-004	2.40040E-001	6.23443E-001	3.57710E+000	9	...........
	34	0.466667	6.29434E-001	4.01677E-004	0.00000E+000	2.52829E-004	2.40040E-001	6.29632E-001	3.57710E+000	9	...........
	35	0.48	6.35529E-001	4.01266E-004	0.00000E+000	2.55016E-004	2.40040E-001	6.35742E-001	3.57710E+000	9	...........
	36	0.493333	6.41597E-001	4.01209E-004	0.00000E+000	2.57414E-004	2.40040E-001	6.41809E-001	3.57710E+000	9	...........
	37	0.506667	6.47675E-001	4.00742E-004	0.00000E+000	2.59550E-004	2.40040E-001	6.47884E-001	3.57710E+000	9	...........
	38	0.52	6.53749E-001	4.01936E-004	0.00000E+000	2.62765E-004	2.40040E-001	6.53974E-001	3.57710E+000	9	...........
	39	0.533333	6.59718E-001	4.01202E-004	0.00000E+000	2.64680E-004	2.40040E-001	6.59914E-001	3.57710E+000	9	...........
	40	0.546667	6.65724E-001	4.02345E-004	0.00000E+000	2.67851E-004	2.40040E-001	6.65962E-001	3.57710E+000	9	...........
	41	0.56	6.71706E-001	4.01690E-004	0.00000E+000	2.69818E-004	2.40040E-001	6.71904E-001	3.57710E+000	9	...........
	42	0.573333	6.77692E-001	4.01364E-004	0.00000E+000	2.72001E-004	2.40040E-001	6.77893E-001	3.57710E+000	9	...........
	43	0.586667	6.83592E-001	4.01581E-004	0.00000E+000	2.74517E-004	2.40040E-001	6.83815E-001	3.57710E+000	9	...........
	44	0.6	6.89450E-001	4.00830E-004	0.00000E+000	2.76353E-004	2.40040E-001	6.89667E-001	3.57710E+000	9	...........
	45	0.613333	6.95333E-001	4.00505E-004	0.00000E+000	2.78485E-004	2.40040E-001	6.95560E-001	3.57710E+000	9	...........
	46	0.626667	7.01147E-001	4.00586E-004	0.00000E+000	2.80869E-004	2.40040E-001	7.01387E-001	3.57710E+000	9	...........
	47	0.64	7.06957E-001	4.01538E-004	0.00000E+000	2.83870E-004	2.40040E-001	7.07193E-001	3.57710E+000	9	...........
	48	0.653333	7.12770E-001	4.02273E-004	0.00000E+000	2.86728E-004	2.40040E-001	7.13018E-001	3.57710E+000	9	...........
	49	0.666667	7.18548E-001	4.01238E-004	0.00000E+000	2.88309E-004	2.40040E-001	7.18776E-001	3.57710E+000	9	...........
	50	0.68	7.24290E-001	4.00242E-004	0.00000E+000	2.89891E-004	2.40040E-001	7.24538E-001	3.57710E+000	9	...........
	51	0.693333	7.29971E-001	4.00488E-004	0.00000E+000	2.92344E-004	2.40040E-001	7.30228E-001	3.57710E+000	9	...........
	52	0.706667	7.35656E-001	4.01685E-004	0.00000E+000	2.95502E-004	2.40040E-001	7.35893E-001	3.57710E+000	9	...........
	53	0.72	7.41364E-001	4.01146E-004	0.00000E+000	2.97395E-004	2.40040E-001	7.41616E-001	3.57710E+000	9	...........
	54	0.733333	7.47016E-001	4.01299E-004	0.00000E+000	2.99777E-004	2.40040E-001	7.47250E-001	3.57710E+000	9	...........
	55	0.746667	7.52581E-001	4.01523E-004	0.00000E+000	3.02179E-004	2.40040E-001	7.52840E-001	3.57710E+000	9	...........
	56	0.76	7.58204E-001	3.99027E-004	0.00000E+000	3.02544E-004	2.40040E-001	7.58449E-001	3.57710E+000	9	...........
	57	0.773333	7.63747E-001	4.00623E-004	0.00000E+000	3.05975E-004	2.40040E-001	7.63995E-001	3.57710E+000	9	...........
	58	0.786667	7.69266E-001	4.01709E-004	0.00000E+000	3.09021E-004	2.40040E-001	7.69545E-001	3.57710E+000	9	...........
	59	0.8	7.74764E-001	4.00031E-004	0.00000E+000	3.09930E-004	2.40040E-001	7.75017E-001	3.57710E+000	9	...........
	60	0.813333	7.80182E-001	4.01064E-004	0.00000E+000	3.12903E-004	2.40040E-001	7.80442E-001	3.57710E+000	9	...........
	61	0.826667	7.85571E-001	4.00265E-004	0.00000E+000	3.14436E-004	2.40040E-001	7.85809E-001	3.57710E+000	9	...........
	62	0.84	7.91015E-001	3.99411E-004	0.00000E+000	3.15940E-004	2.40040E-001	7.91274E-001	3.57710E+000	9	...........
	63	0.853333	7.96423E-001	4.00293E-004	0.00000E+000	3.18802E-004	2.40040E-001	7.96671E-001	3.57710E+000	9	...........
	64	0.866667	8.01731E-001	4.01502E-004	0.00000E+000	3.21897E-004	2.40040E-001	8.01996E-001	3.57710E+000	9	...........
	65	0.88	8.06978E-001	4.00442E-004	0.00000E+000	3.23148E-004	2.40040E-001	8.07262E-001	3.57710E+000	9	...........
	66	0.893333	8.12268E-001	4.01842E-004	0.00000E+000	3.26403E-004	2.40040E-001	8.12570E-001	3.57710E+000	9	...........
	67	0.906667	8.17581E-001	4.00883E-004	0.00000E+000	3.27754E-004	2.40040E-001	8.17892E-001	3.57710E+000	9	...........
	68	0.92	8.22854E-001	4.00976E-004	0.00000E+000	3.29945E-004	2.40040E-001	8.23161E-001	3.57710E+000	9	...........
	69	0.933333	8.27964E-001	4.00300E-004	0.00000E+000	3.31434E-004	2.40040E-001	8.28267E-001	3.57710E+000	9	...........
	70	0.946667	8.33092E-001	3.99874E-004	0.00000E+000	3.33132E-004	2.40040E-001	8.33410E-001	3.57710E+000	9	...........
	71	0.96	8.38174E-001	4.01175E-004	0.00000E+000	3.36255E-004	2.40040E-001	8.38481E-001	3.57710E+000	9	...........
	72	0.97333	8.43228E-001	4.01187E-004	0.00000E+000	3.38292E-004	2.40040E-001	8.43538E-001	3.57693E+000	9	...........
	73	0.98667	8.48270E-001	4.00737E-004	0.00000E+000	3.39933E-004	2.40040E-001	8.48568E-001	3.57640E+000	9	...........
	74	1	8.53231E-001	4.00632E-004	0.00000E+000	3.41832E-004	2.40040E-001	8.53503E-001	3.57640E+000	9	...........
	75	1.01333	8.58141E-001	4.01575E-004	0.00000E+000	3.44608E-004	2.40040E-001	8.58446E-001	3.57640E+000	9	...........
	76	1.02667	8.63065E-001	4.01651E-004	0.00000E+000	3.46651E-004	2.40040E-001	8.63367E-001	3.57640E+000	9	...........
	77	1.04	8.68014E-001	4.02001E-004	0.00000E+000	3.48943E-004	2.40040E-001	8.68301E-001	3.57640E+000	9	...........
	78	1.05333	8.72884E-001	4.00496E-004	0.00000E+000	3.49587E-004	2.40040E-001	8.73173E-001	3.57640E+000	9	...........
	79	1.06667	8.77623E-001	4.01285E-004	0.00000E+000	3.52177E-004	2.40040E-001	8.77914E-001	3.57640E+000	9	...........
	80	1.08	8.82400E-001	4.00325E-004	0.00000E+000	3.53247E-004	2.40040E-001	8.82686E-001	3.57640E+000	9	...........
	81	1.09333	8.87096E-001	4.01445E-004	0.00000E+000	3.56120E-004	2.40040E-001	8.87361E-001	3.57640E+000	9	...........
	82	1.10667	8.91789E-001	4.01737E-004	0.00000E+000	3.58264E-004	2.40040E-001	8.92058E-001	3.57640E+000	9	...........
	83	1.12	8.96416E-001	4.00938E-004	0.00000E+000	3.59407E-004	2.40040E-001	8.96705E-001	3.57640E+000	9	...........
	84	1.13333	9.01027E-001	4.00687E-004	0.00000E+000	3.61029E-004	2.40040E-001	9.01315E-001	3.57640E+000	9	...........
	85	1.14667	9.05599E-001	4.00656E-004	0.00000E+000	3.62834E-004	2.40040E-001	9.05885E-001	3.57640E+000	9	...........
	86	1.16	9.10099E-001	4.01399E-004	0.00000E+000	3.65313E-004	2.40040E-001	9.10379E-001	3.57640E+000	9	...........
	87	1.17333	9.14596E-001	4.00649E-004	0.00000E+000	3.66432E-004	2.40040E-001	9.14904E-001	3.57640E+000	9	...........
	88	1.18667	9.18951E-001	4.00503E-004	0.00000E+000	3.68043E-004	2.40040E-001	9.19265E-001	3.57640E+000	9	...........
	89	1.2	9.23408E-001	4.01851E-004	0.00000E+000	3.71073E-004	2.40040E-001	9.23653E-001	3.57640E+000	9	...........
	90	1.21333	9.27732E-001	4.01439E-004	0.00000E+000	3.72428E-004	2.40040E-001	9.28010E-001	3.57640E+000	9	...........
	91	1.22667	9.32042E-001	4.01614E-004	0.00000E+000	3.74321E-004	2.40040E-001	9.32318E-001	3.57640E+000	9	...........
	92	1.24	9.36385E-001	4.01673E-004	0.00000E+000	3.76121E-004	2.40040E-001	9.36674E-001	3.57640E+000	9	...........
	93	1.25333	9.40599E-001	4.00581E-004	0.00000E+000	3.76786E-004	2.40040E-001	9.40890E-001	3.57640E+000	9	...........
	94	1.26667	9.44848E-001	4.01259E-004	0.00000E+000	3.79128E-004	2.40040E-001	9.45138E-001	3.57640E+000	9	...........
	95	1.28	9.49040E-001	4.00444E-004	0.00000E+000	3.80037E-004	2.40040E-001	9.49310E-001	3.57640E+000	9	...........
	96	1.29333	9.53165E-001	4.01085E-004	0.00000E+000	3.82300E-004	2.40040E-001	9.53435E-001	3.57640E+000	9	...........
	97	1.30667	9.57208E-001	4.00892E-004	0.00000E+000	3.83737E-004	2.40040E-001	9.57499E-001	3.57640E+000	9	...........
	98	1.32	9.61197E-001	4.00527E-004	0.00000E+000	3.84985E-004	2.40040E-001	9.61485E-001	3.57640E+000	9	...........
	99	1.33333	9.65162E-001	4.01992E-004	0.00000E+000	3.87987E-004	2.40040E-001	9.65445E-001	3.57640E+000	9	...........
	100	1.34667	9.69173E-001	4.01197E-004	0.00000E+000	3.88830E-004	2.40040E-001	9.69501E-001	3.57640E+000	9	...........
	101	1.36	9.73134E-001	4.00866E-004	0.00000E+000	3.90096E-004	2.40040E-001	9.73446E-001	3.57640E+000	9	...........
	102	1.37333	9.77039E-001	4.00779E-004	0.00000E+000	3.91577E-004	2.40040E-001	9.77345E-001	3.57640E+000	9	...........
	103	1.38667	9.80826E-001	4.01996E-004	0.00000E+000	3.94289E-004	2.40040E-001	9.81114E-001	3.57640E+000	9	...........
	104	1.4	9.84575E-001	4.00668E-004	0.00000E+000	3.94488E-004	2.40040E-001	9.84869E-001	3.57640E+000	9	...........
	105	1.41333	9.88322E-001	4.00689E-004	0.00000E+000	3.96009E-004	2.40040E-001	9.88650E-001	3.57640E+000	9	...........
	106	1.42667	9.92046E-001	4.01147E-004	0.00000E+000	3.97956E-004	2.40040E-001	9.92357E-001	3.57640E+000	9	...........
	107	1.44	9.95752E-001	4.01591E-004	0.00000E+000	3.99885E-004	2.40040E-001	9.96036E-001	3.57640E+000	9	...........
	108	1.45	9.98952E-001	4.00981E-004	0.00000E+000	4.00561E-004	2.40040E-001	9.99249E-001	3.57640E+000	9	...........
STARTTIMEOFFSET	QUANT	2503.258	Start Time Offset (s)
