EXPLAIN
TAG	PWR800_CHARGE
TITLE	LABEL	PWR Cyclic Charge Discharge (Cell) - Charge Step	Test &Identifier
DATE	LABEL	12-7-2017	Date
TIME	LABEL	15:19:25	Time
NOTES	NOTES	3	&Notes...
	supercap test cell
	0.4mg
	6M KOH
PSTAT	PSTAT	IFC5000-01520	Potentiostat
CAPACITY	QUANT	1.00000E-003	Capacity (A-hr)
CELLTYPE	SELECTOR	1	&Cell Type
WORKINGCONNECTION	SELECTOR	0	&Working Lead
MAXCHARGETIME	VARIABLEANDUNITS	1.00000E+002	s	1.00000E+002	second(s)	Max &Charge Time
CHARGECURRENT	QUANT	4.00000E-004	&Charge Current (A) 
VOLTAGEFINISH	TWOPARAM	F	1.00000E-003	3.60000E+003	&Voltage Finish	 I (A) < 	Max Time(s)
SAMPLETIME	QUANT	1.00000E-002	Sa&mple Period (s)
CHARGESTOPAT1	MULTIPARAM	4	1.00000E+000	Charge Stop At &1	Voltage > Limit	V
CHARGESTOPAT2	MULTIPARAM	0	0.00000E+000	Charge Stop At &2	None	N/A
AESBHCSELECTOR	TOGGLE	F	Save Both Half Cells
IRCOMP	TOGGLE	F	IR &Measure
EOC	QUANT	0	Open Circuit (V)
SEQUENCER	TOGGLE	TRUE	Run as Sequence
PSTATMODEL	IQUANT	53	Pstat Model
PSTATSECTION	LABEL	IFC5000-01520	Pstat Section
PSTATSERIALNO	LABEL	01520	Pstat Serial Number
CTRLMODE	IQUANT	0	Control Mode
ELECTROMETER	IQUANT	1	RE=0 or CS=1
IESTAB	IQUANT	0	I/E Stability
CASPEED	IQUANT	4	Control Amp Speed
CONVENTION	IQUANT	1	Current Convention
ICHRANGE	IQUANT	2	Ich Range
ICHRANGEMODE	TOGGLE	T	Ich Auto Range
ICHOFFSETENABLE	TOGGLE	F	Ich Offset Enable
ICHOFFSET	QUANT	0	Ich Offset (V)
ICHFILTER	IQUANT	1	Ich Filter
VCHRANGE	IQUANT	2	Vch Range
VCHRANGEMODE	TOGGLE	T	Vch Auto Range
VCHOFFSETENABLE	TOGGLE	F	Vch Offset Enable
VCHOFFSET	QUANT	0	Vch Offset (V)
VCHFILTER	IQUANT	1	Vch Filter
IERANGELOWERLIMIT	IQUANT	9	I/E Range Lower Limit
IERANGEMODE	TOGGLE	F	I/E AutoRange
IERANGE	IQUANT	9	I/E Range
ACHSELECT	IQUANT	1	Ach Select
ACHRANGE	IQUANT	2	Ach Range
ACHOFFSETENABLE	TOGGLE	F	Ach Offset Enable
ACHOFFSET	QUANT	0	Ach Offset (V)
ACHFILTER	IQUANT	1	Ach Filter
CABLEID	IQUANT	14	Cable ID
DCCALDATE	LABEL	5-7-2017	DC Calibration Date
ACCALDATE	LABEL	12/3/2015	AC Calibration Date
FRAMEWORKVERSION	QUANT	7.01	Framework Version
INSTRUMENTVERSION	LABEL	4.00	Instrument Version
CURVE	TABLE	106
	Pt	T	Vf	Im	Vu	Pwr	Sig	Ach	Temp	IERange	Over
	#	s	V	A	V	W	V	V	deg C	#	bits
	0	0.013333	3.89457E-001	4.00254E-004	0.00000E+000	1.55882E-004	2.40040E-001	3.89562E-001	3.57640E+000	9	...........
	1	0.026667	4.02373E-001	4.01744E-004	0.00000E+000	1.61651E-004	2.40040E-001	4.02453E-001	3.57640E+000	9	...........
	2	0.04	4.13401E-001	3.99288E-004	0.00000E+000	1.65066E-004	2.40040E-001	4.13487E-001	3.57640E+000	9	...........
	3	0.053333	4.23358E-001	4.01394E-004	0.00000E+000	1.69934E-004	2.40040E-001	4.23449E-001	3.57640E+000	9	...........
	4	0.066667	4.32622E-001	4.00974E-004	0.00000E+000	1.73470E-004	2.40040E-001	4.32710E-001	3.57640E+000	9	...........
	5	0.08	4.41302E-001	4.00485E-004	0.00000E+000	1.76735E-004	2.40040E-001	4.41395E-001	3.57640E+000	9	...........
	6	0.093333	4.49777E-001	4.00017E-004	0.00000E+000	1.79918E-004	2.40040E-001	4.49868E-001	3.57640E+000	9	...........
	7	0.106667	4.57941E-001	4.00826E-004	0.00000E+000	1.83555E-004	2.40040E-001	4.58031E-001	3.57640E+000	9	...........
	8	0.12	4.65830E-001	4.00785E-004	0.00000E+000	1.86698E-004	2.40040E-001	4.65924E-001	3.57640E+000	9	...........
	9	0.133333	4.73524E-001	4.01406E-004	0.00000E+000	1.90075E-004	2.40040E-001	4.73614E-001	3.57640E+000	9	...........
	10	0.146667	4.81114E-001	4.01019E-004	0.00000E+000	1.92936E-004	2.40040E-001	4.81206E-001	3.57640E+000	9	...........
	11	0.16	4.88532E-001	4.02251E-004	0.00000E+000	1.96512E-004	2.40040E-001	4.88630E-001	3.57640E+000	9	...........
	12	0.173333	4.95838E-001	4.00376E-004	0.00000E+000	1.98522E-004	2.40040E-001	4.95936E-001	3.57640E+000	9	...........
	13	0.186667	5.03069E-001	4.00921E-004	0.00000E+000	2.01691E-004	2.40040E-001	5.03166E-001	3.57640E+000	9	...........
	14	0.2	5.10155E-001	4.00229E-004	0.00000E+000	2.04179E-004	2.40040E-001	5.10267E-001	3.57640E+000	9	...........
	15	0.213333	5.17155E-001	4.01334E-004	0.00000E+000	2.07552E-004	2.40040E-001	5.17263E-001	3.57640E+000	9	...........
	16	0.226667	5.24128E-001	4.01158E-004	0.00000E+000	2.10258E-004	2.40040E-001	5.24230E-001	3.57640E+000	9	...........
	17	0.24	5.30953E-001	4.01605E-004	0.00000E+000	2.13233E-004	2.40040E-001	5.31075E-001	3.57640E+000	9	...........
	18	0.253333	5.37544E-001	4.01332E-004	0.00000E+000	2.15733E-004	2.40040E-001	5.37765E-001	3.57640E+000	9	...........
	19	0.266667	5.44291E-001	3.99726E-004	0.00000E+000	2.17567E-004	2.40040E-001	5.44506E-001	3.57640E+000	9	...........
	20	0.28	5.51050E-001	4.01168E-004	0.00000E+000	2.21064E-004	2.40040E-001	5.51292E-001	3.57640E+000	9	...........
	21	0.293333	5.57663E-001	4.00838E-004	0.00000E+000	2.23532E-004	2.40040E-001	5.57900E-001	3.57640E+000	9	...........
	22	0.306667	5.64319E-001	4.00554E-004	0.00000E+000	2.26040E-004	2.40040E-001	5.64533E-001	3.57640E+000	9	...........
	23	0.32	5.70899E-001	4.01919E-004	0.00000E+000	2.29455E-004	2.40040E-001	5.71090E-001	3.57640E+000	9	...........
	24	0.333333	5.77467E-001	4.00172E-004	0.00000E+000	2.31086E-004	2.40040E-001	5.77705E-001	3.57640E+000	9	...........
	25	0.346667	5.84040E-001	4.01717E-004	0.00000E+000	2.34619E-004	2.40040E-001	5.84273E-001	3.57640E+000	9	...........
	26	0.36	5.90493E-001	4.01713E-004	0.00000E+000	2.37209E-004	2.40040E-001	5.90756E-001	3.57640E+000	9	...........
	27	0.373333	5.96920E-001	4.00342E-004	0.00000E+000	2.38972E-004	2.40040E-001	5.97172E-001	3.57640E+000	9	...........
	28	0.386667	6.03308E-001	4.00775E-004	0.00000E+000	2.41791E-004	2.40040E-001	6.03601E-001	3.57640E+000	9	...........
	29	0.4	6.09741E-001	4.01895E-004	0.00000E+000	2.45052E-004	2.40040E-001	6.10012E-001	3.57640E+000	9	...........
	30	0.413333	6.16119E-001	4.01458E-004	0.00000E+000	2.47346E-004	2.40040E-001	6.16373E-001	3.57640E+000	9	...........
	31	0.426667	6.22364E-001	4.01129E-004	0.00000E+000	2.49648E-004	2.40040E-001	6.22571E-001	3.57640E+000	9	...........
	32	0.44	6.28585E-001	4.01922E-004	0.00000E+000	2.52642E-004	2.40040E-001	6.28808E-001	3.57640E+000	9	...........
	33	0.453333	6.34781E-001	3.99935E-004	0.00000E+000	2.53871E-004	2.40040E-001	6.35018E-001	3.57640E+000	9	...........
	34	0.466667	6.41108E-001	4.01730E-004	0.00000E+000	2.57552E-004	2.40040E-001	6.41334E-001	3.57640E+000	9	...........
	35	0.48	6.47309E-001	3.99719E-004	0.00000E+000	2.58742E-004	2.40040E-001	6.47533E-001	3.57640E+000	9	...........
	36	0.493333	6.53459E-001	4.01084E-004	0.00000E+000	2.62092E-004	2.40040E-001	6.53692E-001	3.57640E+000	9	...........
	37	0.506667	6.59550E-001	4.00479E-004	0.00000E+000	2.64136E-004	2.40040E-001	6.59777E-001	3.57719E+000	9	...........
	38	0.52	6.65617E-001	4.00052E-004	0.00000E+000	2.66282E-004	2.40040E-001	6.65867E-001	3.57730E+000	9	...........
	39	0.533333	6.71712E-001	4.00365E-004	0.00000E+000	2.68930E-004	2.40040E-001	6.71927E-001	3.57730E+000	9	...........
	40	0.546667	6.77821E-001	4.01269E-004	0.00000E+000	2.71988E-004	2.40040E-001	6.78065E-001	3.57730E+000	9	...........
	41	0.56	6.83908E-001	4.00076E-004	0.00000E+000	2.73615E-004	2.40040E-001	6.84162E-001	3.57730E+000	9	...........
	42	0.573333	6.89943E-001	3.99985E-004	0.00000E+000	2.75967E-004	2.40040E-001	6.90210E-001	3.57730E+000	9	...........
	43	0.586667	6.95965E-001	4.01596E-004	0.00000E+000	2.79497E-004	2.40040E-001	6.96229E-001	3.57730E+000	9	...........
	44	0.6	7.01883E-001	4.02658E-004	0.00000E+000	2.82619E-004	2.40040E-001	7.02124E-001	3.57730E+000	9	...........
	45	0.613333	7.07757E-001	4.02001E-004	0.00000E+000	2.84519E-004	2.40040E-001	7.08031E-001	3.57730E+000	9	...........
	46	0.626667	7.13703E-001	4.01384E-004	0.00000E+000	2.86469E-004	2.40040E-001	7.13973E-001	3.57730E+000	9	...........
	47	0.64	7.19680E-001	3.99289E-004	0.00000E+000	2.87361E-004	2.40040E-001	7.19915E-001	3.57730E+000	9	...........
	48	0.653333	7.25585E-001	4.00149E-004	0.00000E+000	2.90342E-004	2.40040E-001	7.25839E-001	3.57730E+000	9	...........
	49	0.666667	7.31416E-001	4.00699E-004	0.00000E+000	2.93078E-004	2.40040E-001	7.31676E-001	3.57730E+000	9	...........
	50	0.68	7.37145E-001	3.99934E-004	0.00000E+000	2.94810E-004	2.40040E-001	7.37403E-001	3.57730E+000	9	...........
	51	0.693333	7.42947E-001	4.01311E-004	0.00000E+000	2.98153E-004	2.40040E-001	7.43179E-001	3.57730E+000	9	...........
	52	0.706667	7.48686E-001	4.01026E-004	0.00000E+000	3.00243E-004	2.40040E-001	7.48914E-001	3.57730E+000	9	...........
	53	0.72	7.54400E-001	4.00867E-004	0.00000E+000	3.02414E-004	2.40040E-001	7.54630E-001	3.57730E+000	9	...........
	54	0.733333	7.60132E-001	4.00041E-004	0.00000E+000	3.04084E-004	2.40040E-001	7.60351E-001	3.57730E+000	9	...........
	55	0.746667	7.65743E-001	4.00598E-004	0.00000E+000	3.06755E-004	2.40040E-001	7.65987E-001	3.57730E+000	9	...........
	56	0.76	7.71355E-001	4.00814E-004	0.00000E+000	3.09170E-004	2.40040E-001	7.71596E-001	3.57730E+000	9	...........
	57	0.773333	7.76904E-001	4.00021E-004	0.00000E+000	3.10778E-004	2.40040E-001	7.77147E-001	3.57730E+000	9	...........
	58	0.786667	7.82463E-001	4.00333E-004	0.00000E+000	3.13246E-004	2.40040E-001	7.82705E-001	3.57730E+000	9	...........
	59	0.8	7.88005E-001	4.00686E-004	0.00000E+000	3.15742E-004	2.40040E-001	7.88242E-001	3.57730E+000	9	...........
	60	0.813333	7.93472E-001	4.01389E-004	0.00000E+000	3.18491E-004	2.40040E-001	7.93751E-001	3.57730E+000	9	...........
	61	0.826667	7.98940E-001	3.99832E-004	0.00000E+000	3.19442E-004	2.40040E-001	7.99187E-001	3.57730E+000	9	...........
	62	0.84	8.04314E-001	4.00544E-004	0.00000E+000	3.22163E-004	2.40040E-001	8.04576E-001	3.57730E+000	9	...........
	63	0.853333	8.09602E-001	4.00006E-004	0.00000E+000	3.23846E-004	2.40040E-001	8.09821E-001	3.57730E+000	9	...........
	64	0.866667	8.14899E-001	3.99811E-004	0.00000E+000	3.25806E-004	2.40040E-001	8.15128E-001	3.57730E+000	9	...........
	65	0.88	8.20202E-001	4.01812E-004	0.00000E+000	3.29567E-004	2.40040E-001	8.20453E-001	3.57730E+000	9	...........
	66	0.893333	8.25495E-001	4.00943E-004	0.00000E+000	3.30977E-004	2.40040E-001	8.25745E-001	3.57730E+000	9	...........
	67	0.906667	8.30721E-001	4.01583E-004	0.00000E+000	3.33603E-004	2.40040E-001	8.30970E-001	3.57730E+000	9	...........
	68	0.92	8.35860E-001	4.01578E-004	0.00000E+000	3.35664E-004	2.40040E-001	8.36150E-001	3.57730E+000	9	...........
	69	0.933333	8.40982E-001	4.02034E-004	0.00000E+000	3.38103E-004	2.40040E-001	8.41259E-001	3.57730E+000	9	...........
	70	0.946667	8.46130E-001	4.01071E-004	0.00000E+000	3.39358E-004	2.40040E-001	8.46411E-001	3.57730E+000	9	...........
	71	0.96	8.51194E-001	4.01658E-004	0.00000E+000	3.41888E-004	2.40040E-001	8.51482E-001	3.57730E+000	9	...........
	72	0.97333	8.56197E-001	4.00667E-004	0.00000E+000	3.43050E-004	2.40040E-001	8.56494E-001	3.57730E+000	9	...........
	73	0.98667	8.61206E-001	4.01954E-004	0.00000E+000	3.46165E-004	2.40040E-001	8.61493E-001	3.57730E+000	9	...........
	74	1	8.66122E-001	4.00194E-004	0.00000E+000	3.46616E-004	2.40040E-001	8.66419E-001	3.57730E+000	9	...........
	75	1.01333	8.71090E-001	4.01401E-004	0.00000E+000	3.49657E-004	2.40040E-001	8.71356E-001	3.57730E+000	9	...........
	76	1.02667	8.75968E-001	4.00380E-004	0.00000E+000	3.50720E-004	2.40040E-001	8.76242E-001	3.57730E+000	9	...........
	77	1.04	8.80784E-001	4.00437E-004	0.00000E+000	3.52698E-004	2.40040E-001	8.81079E-001	3.57730E+000	9	...........
	78	1.05333	8.85623E-001	4.00933E-004	0.00000E+000	3.55075E-004	2.40040E-001	8.85923E-001	3.57730E+000	9	...........
	79	1.06667	8.90386E-001	4.00383E-004	0.00000E+000	3.56496E-004	2.40040E-001	8.90707E-001	3.57730E+000	9	...........
	80	1.08	8.95059E-001	4.00991E-004	0.00000E+000	3.58910E-004	2.40040E-001	8.95357E-001	3.57730E+000	9	...........
	81	1.09333	8.99693E-001	4.01602E-004	0.00000E+000	3.61319E-004	2.40040E-001	8.99979E-001	3.57730E+000	9	...........
	82	1.10667	9.04349E-001	4.01193E-004	0.00000E+000	3.62819E-004	2.40040E-001	9.04590E-001	3.57730E+000	9	...........
	83	1.12	9.08955E-001	4.01185E-004	0.00000E+000	3.64659E-004	2.40040E-001	9.09180E-001	3.57730E+000	9	...........
	84	1.13333	9.13495E-001	4.01471E-004	0.00000E+000	3.66742E-004	2.40040E-001	9.13743E-001	3.57730E+000	9	...........
	85	1.14667	9.18016E-001	4.00773E-004	0.00000E+000	3.67916E-004	2.40040E-001	9.18275E-001	3.57730E+000	9	...........
	86	1.16	9.22565E-001	4.01324E-004	0.00000E+000	3.70248E-004	2.40040E-001	9.22792E-001	3.57730E+000	9	...........
	87	1.17333	9.27028E-001	4.02164E-004	0.00000E+000	3.72817E-004	2.40040E-001	9.27295E-001	3.57730E+000	9	...........
	88	1.18667	9.31394E-001	4.01705E-004	0.00000E+000	3.74145E-004	2.40040E-001	9.31655E-001	3.57730E+000	9	...........
	89	1.2	9.35714E-001	4.01594E-004	0.00000E+000	3.75777E-004	2.40040E-001	9.36016E-001	3.57730E+000	9	...........
	90	1.21333	9.39959E-001	4.01799E-004	0.00000E+000	3.77675E-004	2.40040E-001	9.40269E-001	3.57730E+000	9	...........
	91	1.22667	9.44180E-001	4.01119E-004	0.00000E+000	3.78729E-004	2.40040E-001	9.44495E-001	3.57730E+000	9	...........
	92	1.24	9.48474E-001	4.01220E-004	0.00000E+000	3.80547E-004	2.40040E-001	9.48780E-001	3.57730E+000	9	...........
	93	1.25333	9.52674E-001	4.00441E-004	0.00000E+000	3.81489E-004	2.40040E-001	9.52985E-001	3.57730E+000	9	...........
	94	1.26667	9.56813E-001	4.00463E-004	0.00000E+000	3.83168E-004	2.40040E-001	9.57141E-001	3.57730E+000	9	...........
	95	1.28	9.60937E-001	4.00740E-004	0.00000E+000	3.85086E-004	2.40040E-001	9.61254E-001	3.57730E+000	9	...........
	96	1.29333	9.65021E-001	4.00735E-004	0.00000E+000	3.86717E-004	2.40040E-001	9.65288E-001	3.57730E+000	9	...........
	97	1.30667	9.69015E-001	4.01469E-004	0.00000E+000	3.89029E-004	2.40040E-001	9.69285E-001	3.57730E+000	9	...........
	98	1.32	9.72970E-001	4.00342E-004	0.00000E+000	3.89520E-004	2.40040E-001	9.73218E-001	3.57730E+000	9	...........
	99	1.33333	9.76926E-001	4.01605E-004	0.00000E+000	3.92338E-004	2.40040E-001	9.77178E-001	3.57730E+000	9	...........
	100	1.34667	9.80869E-001	4.00809E-004	0.00000E+000	3.93141E-004	2.40040E-001	9.81077E-001	3.57730E+000	9	...........
	101	1.36	9.84670E-001	4.01047E-004	0.00000E+000	3.94899E-004	2.40040E-001	9.84948E-001	3.57730E+000	9	...........
	102	1.37333	9.88409E-001	4.00924E-004	0.00000E+000	3.96277E-004	2.40040E-001	9.88696E-001	3.57730E+000	9	...........
	103	1.38667	9.92117E-001	4.01353E-004	0.00000E+000	3.98189E-004	2.40040E-001	9.92415E-001	3.57730E+000	9	...........
	104	1.4	9.95833E-001	4.00927E-004	0.00000E+000	3.99257E-004	2.40040E-001	9.96147E-001	3.57730E+000	9	...........
	105	1.41	9.99112E-001	4.00802E-004	0.00000E+000	4.00447E-004	2.40040E-001	9.99457E-001	3.57730E+000	9	...........
STARTTIMEOFFSET	QUANT	2879.195	Start Time Offset (s)
