EXPLAIN
TAG	PWR800_CHARGE
TITLE	LABEL	PWR Cyclic Charge Discharge (Cell) - Charge Step	Test &Identifier
DATE	LABEL	12-7-2017	Date
TIME	LABEL	15:10:41	Time
NOTES	NOTES	3	&Notes...
	supercap test cell
	0.4mg
	6M KOH
PSTAT	PSTAT	IFC5000-01520	Potentiostat
CAPACITY	QUANT	1.00000E-003	Capacity (A-hr)
CELLTYPE	SELECTOR	1	&Cell Type
WORKINGCONNECTION	SELECTOR	0	&Working Lead
MAXCHARGETIME	VARIABLEANDUNITS	1.00000E+002	s	1.00000E+002	second(s)	Max &Charge Time
CHARGECURRENT	QUANT	4.00000E-004	&Charge Current (A) 
VOLTAGEFINISH	TWOPARAM	F	1.00000E-003	3.60000E+003	&Voltage Finish	 I (A) < 	Max Time(s)
SAMPLETIME	QUANT	1.00000E-002	Sa&mple Period (s)
CHARGESTOPAT1	MULTIPARAM	4	1.00000E+000	Charge Stop At &1	Voltage > Limit	V
CHARGESTOPAT2	MULTIPARAM	0	0.00000E+000	Charge Stop At &2	None	N/A
AESBHCSELECTOR	TOGGLE	F	Save Both Half Cells
IRCOMP	TOGGLE	F	IR &Measure
EOC	QUANT	0	Open Circuit (V)
SEQUENCER	TOGGLE	TRUE	Run as Sequence
PSTATMODEL	IQUANT	53	Pstat Model
PSTATSECTION	LABEL	IFC5000-01520	Pstat Section
PSTATSERIALNO	LABEL	01520	Pstat Serial Number
CTRLMODE	IQUANT	0	Control Mode
ELECTROMETER	IQUANT	1	RE=0 or CS=1
IESTAB	IQUANT	0	I/E Stability
CASPEED	IQUANT	4	Control Amp Speed
CONVENTION	IQUANT	1	Current Convention
ICHRANGE	IQUANT	2	Ich Range
ICHRANGEMODE	TOGGLE	T	Ich Auto Range
ICHOFFSETENABLE	TOGGLE	F	Ich Offset Enable
ICHOFFSET	QUANT	0	Ich Offset (V)
ICHFILTER	IQUANT	1	Ich Filter
VCHRANGE	IQUANT	2	Vch Range
VCHRANGEMODE	TOGGLE	T	Vch Auto Range
VCHOFFSETENABLE	TOGGLE	F	Vch Offset Enable
VCHOFFSET	QUANT	0	Vch Offset (V)
VCHFILTER	IQUANT	1	Vch Filter
IERANGELOWERLIMIT	IQUANT	9	I/E Range Lower Limit
IERANGEMODE	TOGGLE	F	I/E AutoRange
IERANGE	IQUANT	9	I/E Range
ACHSELECT	IQUANT	1	Ach Select
ACHRANGE	IQUANT	2	Ach Range
ACHOFFSETENABLE	TOGGLE	F	Ach Offset Enable
ACHOFFSET	QUANT	0	Ach Offset (V)
ACHFILTER	IQUANT	1	Ach Filter
CABLEID	IQUANT	14	Cable ID
DCCALDATE	LABEL	5-7-2017	DC Calibration Date
ACCALDATE	LABEL	12/3/2015	AC Calibration Date
FRAMEWORKVERSION	QUANT	7.01	Framework Version
INSTRUMENTVERSION	LABEL	4.00	Instrument Version
CURVE	TABLE	109
	Pt	T	Vf	Im	Vu	Pwr	Sig	Ach	Temp	IERange	Over
	#	s	V	A	V	W	V	V	deg C	#	bits
	0	0.013333	3.81924E-001	4.01432E-004	0.00000E+000	1.53316E-004	2.40040E-001	3.82013E-001	3.57630E+000	9	...........
	1	0.026667	3.94435E-001	4.01244E-004	0.00000E+000	1.58265E-004	2.40040E-001	3.94504E-001	3.57630E+000	9	...........
	2	0.04	4.05121E-001	4.00638E-004	0.00000E+000	1.62307E-004	2.40040E-001	4.05197E-001	3.57630E+000	9	...........
	3	0.053333	4.14740E-001	4.01137E-004	0.00000E+000	1.66367E-004	2.40040E-001	4.14820E-001	3.57630E+000	9	...........
	4	0.066667	4.23747E-001	4.01323E-004	0.00000E+000	1.70059E-004	2.40040E-001	4.23826E-001	3.57630E+000	9	...........
	5	0.08	4.32315E-001	4.01327E-004	0.00000E+000	1.73500E-004	2.40040E-001	4.32403E-001	3.57630E+000	9	...........
	6	0.093333	4.40553E-001	4.01351E-004	0.00000E+000	1.76817E-004	2.40040E-001	4.40640E-001	3.57630E+000	9	...........
	7	0.106667	4.48486E-001	4.01197E-004	0.00000E+000	1.79931E-004	2.40040E-001	4.48576E-001	3.57630E+000	9	...........
	8	0.12	4.56255E-001	4.01314E-004	0.00000E+000	1.83102E-004	2.40040E-001	4.56343E-001	3.57630E+000	9	...........
	9	0.133333	4.63877E-001	4.01217E-004	0.00000E+000	1.86115E-004	2.40040E-001	4.63966E-001	3.57630E+000	9	...........
	10	0.146667	4.71332E-001	4.00128E-004	0.00000E+000	1.88593E-004	2.40040E-001	4.71427E-001	3.57630E+000	9	...........
	11	0.16	4.78548E-001	4.01103E-004	0.00000E+000	1.91947E-004	2.40040E-001	4.78640E-001	3.57630E+000	9	...........
	12	0.173333	4.85668E-001	3.99742E-004	0.00000E+000	1.94142E-004	2.40040E-001	4.85765E-001	3.57630E+000	9	...........
	13	0.186667	4.92763E-001	4.01292E-004	0.00000E+000	1.97742E-004	2.40040E-001	4.92859E-001	3.57630E+000	9	...........
	14	0.2	4.99796E-001	4.00630E-004	0.00000E+000	2.00233E-004	2.40040E-001	4.99897E-001	3.57630E+000	9	...........
	15	0.213333	5.06639E-001	4.00630E-004	0.00000E+000	2.02975E-004	2.40040E-001	5.06741E-001	3.57630E+000	9	...........
	16	0.226667	5.13470E-001	4.01521E-004	0.00000E+000	2.06169E-004	2.40040E-001	5.13576E-001	3.57630E+000	9	...........
	17	0.24	5.20229E-001	4.00345E-004	0.00000E+000	2.08271E-004	2.40040E-001	5.20335E-001	3.57630E+000	9	...........
	18	0.253333	5.26933E-001	4.01353E-004	0.00000E+000	2.11487E-004	2.40040E-001	5.27042E-001	3.57630E+000	9	...........
	19	0.266667	5.33451E-001	4.00990E-004	0.00000E+000	2.13909E-004	2.40040E-001	5.33626E-001	3.57630E+000	9	...........
	20	0.28	5.40008E-001	4.00820E-004	0.00000E+000	2.16446E-004	2.40040E-001	5.40222E-001	3.57630E+000	9	...........
	21	0.293333	5.46537E-001	4.01383E-004	0.00000E+000	2.19371E-004	2.40040E-001	5.46775E-001	3.57630E+000	9	...........
	22	0.306667	5.53047E-001	4.00966E-004	0.00000E+000	2.21753E-004	2.40040E-001	5.53287E-001	3.57630E+000	9	...........
	23	0.32	5.59548E-001	4.00633E-004	0.00000E+000	2.24174E-004	2.40040E-001	5.59787E-001	3.57630E+000	9	...........
	24	0.333333	5.66051E-001	3.99635E-004	0.00000E+000	2.26214E-004	2.40040E-001	5.66252E-001	3.57630E+000	9	...........
	25	0.346667	5.72444E-001	4.00290E-004	0.00000E+000	2.29144E-004	2.40040E-001	5.72641E-001	3.57630E+000	9	...........
	26	0.36	5.78678E-001	4.00481E-004	0.00000E+000	2.31750E-004	2.40040E-001	5.78915E-001	3.57630E+000	9	...........
	27	0.373333	5.84971E-001	4.00875E-004	0.00000E+000	2.34501E-004	2.40040E-001	5.85207E-001	3.57630E+000	9	...........
	28	0.386667	5.91242E-001	4.00812E-004	0.00000E+000	2.36977E-004	2.40040E-001	5.91460E-001	3.57630E+000	9	...........
	29	0.4	5.97485E-001	4.00607E-004	0.00000E+000	2.39357E-004	2.40040E-001	5.97695E-001	3.57630E+000	9	...........
	30	0.413333	6.03698E-001	4.01524E-004	0.00000E+000	2.42400E-004	2.40040E-001	6.03947E-001	3.57630E+000	9	...........
	31	0.426667	6.09914E-001	4.00507E-004	0.00000E+000	2.44275E-004	2.40040E-001	6.10176E-001	3.57630E+000	9	...........
	32	0.44	6.16150E-001	3.99532E-004	0.00000E+000	2.46172E-004	2.40040E-001	6.16372E-001	3.57638E+000	9	...........
	33	0.453333	6.22254E-001	4.00649E-004	0.00000E+000	2.49305E-004	2.40040E-001	6.22476E-001	3.57690E+000	9	...........
	34	0.466667	6.28361E-001	4.00641E-004	0.00000E+000	2.51747E-004	2.40040E-001	6.28589E-001	3.57690E+000	9	...........
	35	0.48	6.34477E-001	4.00920E-004	0.00000E+000	2.54375E-004	2.40040E-001	6.34731E-001	3.57690E+000	9	...........
	36	0.493333	6.40564E-001	4.00799E-004	0.00000E+000	2.56738E-004	2.40040E-001	6.40817E-001	3.57690E+000	9	...........
	37	0.506667	6.46664E-001	4.02184E-004	0.00000E+000	2.60078E-004	2.40040E-001	6.46919E-001	3.57690E+000	9	...........
	38	0.52	6.52736E-001	4.02164E-004	0.00000E+000	2.62507E-004	2.40040E-001	6.52967E-001	3.57690E+000	9	...........
	39	0.533333	6.58670E-001	4.00423E-004	0.00000E+000	2.63747E-004	2.40040E-001	6.58911E-001	3.57690E+000	9	...........
	40	0.546667	6.64653E-001	4.01890E-004	0.00000E+000	2.67118E-004	2.40040E-001	6.64888E-001	3.57690E+000	9	...........
	41	0.56	6.70560E-001	4.02056E-004	0.00000E+000	2.69603E-004	2.40040E-001	6.70818E-001	3.57690E+000	9	...........
	42	0.573333	6.76478E-001	4.01326E-004	0.00000E+000	2.71488E-004	2.40040E-001	6.76728E-001	3.57690E+000	9	...........
	43	0.586667	6.82399E-001	4.01130E-004	0.00000E+000	2.73731E-004	2.40040E-001	6.82665E-001	3.57690E+000	9	...........
	44	0.6	6.88281E-001	4.01127E-004	0.00000E+000	2.76088E-004	2.40040E-001	6.88524E-001	3.57690E+000	9	...........
	45	0.613333	6.94232E-001	4.01271E-004	0.00000E+000	2.78575E-004	2.40040E-001	6.94434E-001	3.57690E+000	9	...........
	46	0.626667	7.00080E-001	4.01335E-004	0.00000E+000	2.80966E-004	2.40040E-001	7.00282E-001	3.57690E+000	9	...........
	47	0.64	7.05917E-001	4.00880E-004	0.00000E+000	2.82988E-004	2.40040E-001	7.06123E-001	3.57690E+000	9	...........
	48	0.653333	7.11714E-001	4.00743E-004	0.00000E+000	2.85215E-004	2.40040E-001	7.11924E-001	3.57690E+000	9	...........
	49	0.666667	7.17413E-001	4.01237E-004	0.00000E+000	2.87852E-004	2.40040E-001	7.17648E-001	3.57690E+000	9	...........
	50	0.68	7.23209E-001	4.01699E-004	0.00000E+000	2.90512E-004	2.40040E-001	7.23364E-001	3.57690E+000	9	...........
	51	0.693333	7.28955E-001	4.00851E-004	0.00000E+000	2.92202E-004	2.40040E-001	7.29189E-001	3.57690E+000	9	...........
	52	0.706667	7.34648E-001	3.99988E-004	0.00000E+000	2.93850E-004	2.40040E-001	7.34855E-001	3.57690E+000	9	...........
	53	0.72	7.40330E-001	4.01239E-004	0.00000E+000	2.97049E-004	2.40040E-001	7.40538E-001	3.57690E+000	9	...........
	54	0.733333	7.46027E-001	4.00277E-004	0.00000E+000	2.98618E-004	2.40040E-001	7.46215E-001	3.57690E+000	9	...........
	55	0.746667	7.51600E-001	4.01230E-004	0.00000E+000	3.01565E-004	2.40040E-001	7.51844E-001	3.57690E+000	9	...........
	56	0.76	7.57181E-001	4.01665E-004	0.00000E+000	3.04133E-004	2.40040E-001	7.57400E-001	3.57690E+000	9	...........
	57	0.773333	7.62731E-001	4.00589E-004	0.00000E+000	3.05541E-004	2.40040E-001	7.62965E-001	3.57690E+000	9	...........
	58	0.786667	7.68292E-001	4.00624E-004	0.00000E+000	3.07796E-004	2.40040E-001	7.68557E-001	3.57690E+000	9	...........
	59	0.8	7.73831E-001	4.00315E-004	0.00000E+000	3.09776E-004	2.40040E-001	7.74094E-001	3.57690E+000	9	...........
	60	0.813333	7.79292E-001	4.01541E-004	0.00000E+000	3.12918E-004	2.40040E-001	7.79540E-001	3.57690E+000	9	...........
	61	0.826667	7.84760E-001	4.01391E-004	0.00000E+000	3.14996E-004	2.40040E-001	7.85006E-001	3.57690E+000	9	...........
	62	0.84	7.90178E-001	4.02683E-004	0.00000E+000	3.18191E-004	2.40040E-001	7.90445E-001	3.57690E+000	9	...........
	63	0.853333	7.95574E-001	4.01396E-004	0.00000E+000	3.19340E-004	2.40040E-001	7.95819E-001	3.57690E+000	9	...........
	64	0.866667	8.00835E-001	4.01517E-004	0.00000E+000	3.21549E-004	2.40040E-001	8.01101E-001	3.57690E+000	9	...........
	65	0.88	8.06146E-001	4.01806E-004	0.00000E+000	3.23914E-004	2.40040E-001	8.06426E-001	3.57690E+000	9	...........
	66	0.893333	8.11433E-001	4.00969E-004	0.00000E+000	3.25359E-004	2.40040E-001	8.11720E-001	3.57690E+000	9	...........
	67	0.906667	8.16606E-001	3.99794E-004	0.00000E+000	3.26474E-004	2.40040E-001	8.16917E-001	3.57690E+000	9	...........
	68	0.92	8.21781E-001	4.01943E-004	0.00000E+000	3.30309E-004	2.40040E-001	8.22065E-001	3.57690E+000	9	...........
	69	0.933333	8.26950E-001	4.01223E-004	0.00000E+000	3.31791E-004	2.40040E-001	8.27212E-001	3.57690E+000	9	...........
	70	0.946667	8.32058E-001	4.00465E-004	0.00000E+000	3.33210E-004	2.40040E-001	8.32351E-001	3.57690E+000	9	...........
	71	0.96	8.37177E-001	4.01287E-004	0.00000E+000	3.35948E-004	2.40040E-001	8.37445E-001	3.57690E+000	9	...........
	72	0.97333	8.42225E-001	4.02414E-004	0.00000E+000	3.38923E-004	2.40040E-001	8.42523E-001	3.57690E+000	9	...........
	73	0.98667	8.47241E-001	4.01379E-004	0.00000E+000	3.40065E-004	2.40040E-001	8.47534E-001	3.57690E+000	9	...........
	74	1	8.52234E-001	4.01294E-004	0.00000E+000	3.41996E-004	2.40040E-001	8.52502E-001	3.57690E+000	9	...........
	75	1.01333	8.57193E-001	4.01314E-004	0.00000E+000	3.44004E-004	2.40040E-001	8.57487E-001	3.57690E+000	9	...........
	76	1.02667	8.62106E-001	3.99524E-004	0.00000E+000	3.44432E-004	2.40040E-001	8.62393E-001	3.57690E+000	9	...........
	77	1.04	8.66981E-001	4.01938E-004	0.00000E+000	3.48472E-004	2.40040E-001	8.67249E-001	3.57690E+000	9	...........
	78	1.05333	8.71857E-001	3.99916E-004	0.00000E+000	3.48669E-004	2.40040E-001	8.72126E-001	3.57690E+000	9	...........
	79	1.06667	8.76697E-001	4.00483E-004	0.00000E+000	3.51103E-004	2.40040E-001	8.76971E-001	3.57690E+000	9	...........
	80	1.08	8.81448E-001	4.00707E-004	0.00000E+000	3.53203E-004	2.40040E-001	8.81717E-001	3.57690E+000	9	...........
	81	1.09333	8.86159E-001	4.01635E-004	0.00000E+000	3.55912E-004	2.40040E-001	8.86441E-001	3.57690E+000	9	...........
	82	1.10667	8.90796E-001	4.01083E-004	0.00000E+000	3.57283E-004	2.40040E-001	8.91097E-001	3.57690E+000	9	...........
	83	1.12	8.95420E-001	3.99973E-004	0.00000E+000	3.58144E-004	2.40040E-001	8.95740E-001	3.57690E+000	9	...........
	84	1.13333	9.00019E-001	4.00489E-004	0.00000E+000	3.60447E-004	2.40040E-001	9.00330E-001	3.57690E+000	9	...........
	85	1.14667	9.04521E-001	4.00557E-004	0.00000E+000	3.62312E-004	2.40040E-001	9.04854E-001	3.57690E+000	9	...........
	86	1.16	9.09069E-001	4.00749E-004	0.00000E+000	3.64309E-004	2.40040E-001	9.09403E-001	3.57690E+000	9	...........
	87	1.17333	9.13525E-001	3.98880E-004	0.00000E+000	3.64387E-004	2.40040E-001	9.13869E-001	3.57690E+000	9	...........
	88	1.18667	9.18016E-001	4.00552E-004	0.00000E+000	3.67713E-004	2.40040E-001	9.18338E-001	3.57690E+000	9	...........
	89	1.2	9.22484E-001	4.00863E-004	0.00000E+000	3.69789E-004	2.40040E-001	9.22789E-001	3.57690E+000	9	...........
	90	1.21333	9.26873E-001	4.00373E-004	0.00000E+000	3.71095E-004	2.40040E-001	9.27150E-001	3.57690E+000	9	...........
	91	1.22667	9.31202E-001	4.01822E-004	0.00000E+000	3.74178E-004	2.40040E-001	9.31514E-001	3.57690E+000	9	...........
	92	1.24	9.35515E-001	4.00091E-004	0.00000E+000	3.74291E-004	2.40040E-001	9.35804E-001	3.57690E+000	9	...........
	93	1.25333	9.39755E-001	4.01024E-004	0.00000E+000	3.76864E-004	2.40040E-001	9.40071E-001	3.57690E+000	9	...........
	94	1.26667	9.43950E-001	4.01027E-004	0.00000E+000	3.78550E-004	2.40040E-001	9.44241E-001	3.57690E+000	9	...........
	95	1.28	9.48177E-001	4.00117E-004	0.00000E+000	3.79381E-004	2.40040E-001	9.48459E-001	3.57690E+000	9	...........
	96	1.29333	9.52270E-001	4.00806E-004	0.00000E+000	3.81676E-004	2.40040E-001	9.52563E-001	3.57690E+000	9	...........
	97	1.30667	9.56294E-001	4.00558E-004	0.00000E+000	3.83052E-004	2.40040E-001	9.56575E-001	3.57690E+000	9	...........
	98	1.32	9.60296E-001	4.00538E-004	0.00000E+000	3.84635E-004	2.40040E-001	9.60613E-001	3.57690E+000	9	...........
	99	1.33333	9.64270E-001	4.01643E-004	0.00000E+000	3.87293E-004	2.40040E-001	9.64610E-001	3.57690E+000	9	...........
	100	1.34667	9.68282E-001	4.01542E-004	0.00000E+000	3.88806E-004	2.40040E-001	9.68595E-001	3.57690E+000	9	...........
	101	1.36	9.72257E-001	4.00254E-004	0.00000E+000	3.89150E-004	2.40040E-001	9.72570E-001	3.57690E+000	9	...........
	102	1.37333	9.76173E-001	4.00560E-004	0.00000E+000	3.91016E-004	2.40040E-001	9.76508E-001	3.57690E+000	9	...........
	103	1.38667	9.79996E-001	4.01222E-004	0.00000E+000	3.93196E-004	2.40040E-001	9.80318E-001	3.57690E+000	9	...........
	104	1.4	9.83835E-001	4.00937E-004	0.00000E+000	3.94456E-004	2.40040E-001	9.84154E-001	3.57690E+000	9	...........
	105	1.41333	9.87661E-001	4.00120E-004	0.00000E+000	3.95183E-004	2.40040E-001	9.88015E-001	3.57690E+000	9	...........
	106	1.42667	9.91405E-001	4.01049E-004	0.00000E+000	3.97602E-004	2.40040E-001	9.91719E-001	3.57690E+000	9	...........
	107	1.44	9.95038E-001	4.00328E-004	0.00000E+000	3.98342E-004	2.40040E-001	9.95364E-001	3.57688E+000	9	...........
	108	1.45333	9.98698E-001	3.99956E-004	0.00000E+000	3.99436E-004	2.40040E-001	9.99030E-001	3.57670E+000	9	...........
STARTTIMEOFFSET	QUANT	2471.926	Start Time Offset (s)
