EXPLAIN
TAG	PWR800_CHARGE
TITLE	LABEL	PWR Cyclic Charge Discharge (Cell) - Charge Step	Test &Identifier
DATE	LABEL	12-7-2017	Date
TIME	LABEL	14:53:22	Time
NOTES	NOTES	3	&Notes...
	supercap test cell
	0.4mg
	6M KOH
PSTAT	PSTAT	IFC5000-01520	Potentiostat
CAPACITY	QUANT	1.00000E-003	Capacity (A-hr)
CELLTYPE	SELECTOR	1	&Cell Type
WORKINGCONNECTION	SELECTOR	0	&Working Lead
MAXCHARGETIME	VARIABLEANDUNITS	1.00000E+002	s	1.00000E+002	second(s)	Max &Charge Time
CHARGECURRENT	QUANT	4.00000E-004	&Charge Current (A) 
VOLTAGEFINISH	TWOPARAM	F	1.00000E-003	3.60000E+003	&Voltage Finish	 I (A) < 	Max Time(s)
SAMPLETIME	QUANT	1.00000E-002	Sa&mple Period (s)
CHARGESTOPAT1	MULTIPARAM	4	1.00000E+000	Charge Stop At &1	Voltage > Limit	V
CHARGESTOPAT2	MULTIPARAM	0	0.00000E+000	Charge Stop At &2	None	N/A
AESBHCSELECTOR	TOGGLE	F	Save Both Half Cells
IRCOMP	TOGGLE	F	IR &Measure
EOC	QUANT	0	Open Circuit (V)
SEQUENCER	TOGGLE	TRUE	Run as Sequence
PSTATMODEL	IQUANT	53	Pstat Model
PSTATSECTION	LABEL	IFC5000-01520	Pstat Section
PSTATSERIALNO	LABEL	01520	Pstat Serial Number
CTRLMODE	IQUANT	0	Control Mode
ELECTROMETER	IQUANT	1	RE=0 or CS=1
IESTAB	IQUANT	0	I/E Stability
CASPEED	IQUANT	4	Control Amp Speed
CONVENTION	IQUANT	1	Current Convention
ICHRANGE	IQUANT	2	Ich Range
ICHRANGEMODE	TOGGLE	T	Ich Auto Range
ICHOFFSETENABLE	TOGGLE	F	Ich Offset Enable
ICHOFFSET	QUANT	0	Ich Offset (V)
ICHFILTER	IQUANT	1	Ich Filter
VCHRANGE	IQUANT	2	Vch Range
VCHRANGEMODE	TOGGLE	T	Vch Auto Range
VCHOFFSETENABLE	TOGGLE	F	Vch Offset Enable
VCHOFFSET	QUANT	0	Vch Offset (V)
VCHFILTER	IQUANT	1	Vch Filter
IERANGELOWERLIMIT	IQUANT	9	I/E Range Lower Limit
IERANGEMODE	TOGGLE	F	I/E AutoRange
IERANGE	IQUANT	9	I/E Range
ACHSELECT	IQUANT	1	Ach Select
ACHRANGE	IQUANT	2	Ach Range
ACHOFFSETENABLE	TOGGLE	F	Ach Offset Enable
ACHOFFSET	QUANT	0	Ach Offset (V)
ACHFILTER	IQUANT	1	Ach Filter
CABLEID	IQUANT	14	Cable ID
DCCALDATE	LABEL	5-7-2017	DC Calibration Date
ACCALDATE	LABEL	12/3/2015	AC Calibration Date
FRAMEWORKVERSION	QUANT	7.01	Framework Version
INSTRUMENTVERSION	LABEL	4.00	Instrument Version
CURVE	TABLE	117
	Pt	T	Vf	Im	Vu	Pwr	Sig	Ach	Temp	IERange	Over
	#	s	V	A	V	W	V	V	deg C	#	bits
	0	0.013333	3.66760E-001	4.00347E-004	0.00000E+000	1.46831E-004	2.40040E-001	3.66840E-001	3.57710E+000	9	...........
	1	0.026667	3.78427E-001	4.00354E-004	0.00000E+000	1.51505E-004	2.40040E-001	3.78499E-001	3.57710E+000	9	...........
	2	0.04	3.88568E-001	4.00127E-004	0.00000E+000	1.55477E-004	2.40040E-001	3.88645E-001	3.57710E+000	9	...........
	3	0.053333	3.97721E-001	4.00711E-004	0.00000E+000	1.59371E-004	2.40040E-001	3.97795E-001	3.57710E+000	9	...........
	4	0.066667	4.06184E-001	3.99294E-004	0.00000E+000	1.62187E-004	2.40040E-001	4.06262E-001	3.57710E+000	9	...........
	5	0.08	4.14254E-001	4.00432E-004	0.00000E+000	1.65881E-004	2.40040E-001	4.14335E-001	3.57710E+000	9	...........
	6	0.093333	4.22013E-001	4.01266E-004	0.00000E+000	1.69339E-004	2.40040E-001	4.22099E-001	3.57710E+000	9	...........
	7	0.106667	4.29539E-001	4.02133E-004	0.00000E+000	1.72732E-004	2.40040E-001	4.29628E-001	3.57710E+000	9	...........
	8	0.12	4.36908E-001	4.02058E-004	0.00000E+000	1.75662E-004	2.40040E-001	4.36998E-001	3.57710E+000	9	...........
	9	0.133333	4.44202E-001	4.00926E-004	0.00000E+000	1.78092E-004	2.40040E-001	4.44290E-001	3.57710E+000	9	...........
	10	0.146667	4.51275E-001	4.01310E-004	0.00000E+000	1.81101E-004	2.40040E-001	4.51372E-001	3.57710E+000	9	...........
	11	0.16	4.58187E-001	3.99832E-004	0.00000E+000	1.83198E-004	2.40040E-001	4.58283E-001	3.57710E+000	9	...........
	12	0.173333	4.65113E-001	4.02410E-004	0.00000E+000	1.87166E-004	2.40040E-001	4.65208E-001	3.57710E+000	9	...........
	13	0.186667	4.71926E-001	4.00935E-004	0.00000E+000	1.89211E-004	2.40040E-001	4.72026E-001	3.57710E+000	9	...........
	14	0.2	4.78576E-001	4.01928E-004	0.00000E+000	1.92353E-004	2.40040E-001	4.78678E-001	3.57710E+000	9	...........
	15	0.213333	4.85110E-001	4.01065E-004	0.00000E+000	1.94561E-004	2.40040E-001	4.85205E-001	3.57710E+000	9	...........
	16	0.226667	4.91543E-001	4.00751E-004	0.00000E+000	1.96986E-004	2.40040E-001	4.91642E-001	3.57710E+000	9	...........
	17	0.24	4.98043E-001	4.00303E-004	0.00000E+000	1.99368E-004	2.40040E-001	4.98144E-001	3.57710E+000	9	...........
	18	0.253333	5.04513E-001	3.99793E-004	0.00000E+000	2.01700E-004	2.40040E-001	5.04610E-001	3.57710E+000	9	...........
	19	0.266667	5.10951E-001	3.99723E-004	0.00000E+000	2.04239E-004	2.40040E-001	5.11060E-001	3.57710E+000	9	...........
	20	0.28	5.17272E-001	3.99669E-004	0.00000E+000	2.06738E-004	2.40040E-001	5.17383E-001	3.57710E+000	9	...........
	21	0.293333	5.23520E-001	4.01515E-004	0.00000E+000	2.10201E-004	2.40040E-001	5.23632E-001	3.57710E+000	9	...........
	22	0.306667	5.29746E-001	4.00042E-004	0.00000E+000	2.11921E-004	2.40040E-001	5.29860E-001	3.57710E+000	9	...........
	23	0.32	5.35700E-001	4.00455E-004	0.00000E+000	2.14524E-004	2.40040E-001	5.35895E-001	3.57710E+000	9	...........
	24	0.333333	5.41825E-001	4.00833E-004	0.00000E+000	2.17181E-004	2.40040E-001	5.42025E-001	3.57710E+000	9	...........
	25	0.346667	5.47886E-001	4.01375E-004	0.00000E+000	2.19908E-004	2.40040E-001	5.48109E-001	3.57710E+000	9	...........
	26	0.36	5.53919E-001	4.01897E-004	0.00000E+000	2.22618E-004	2.40040E-001	5.54151E-001	3.57710E+000	9	...........
	27	0.373333	5.59995E-001	4.01391E-004	0.00000E+000	2.24777E-004	2.40040E-001	5.60221E-001	3.57710E+000	9	...........
	28	0.386667	5.66054E-001	4.00672E-004	0.00000E+000	2.26802E-004	2.40040E-001	5.66266E-001	3.57710E+000	9	...........
	29	0.4	5.72057E-001	4.00610E-004	0.00000E+000	2.29171E-004	2.40040E-001	5.72277E-001	3.57710E+000	9	...........
	30	0.413333	5.77996E-001	4.00830E-004	0.00000E+000	2.31678E-004	2.40040E-001	5.78231E-001	3.57710E+000	9	...........
	31	0.426667	5.83977E-001	3.99896E-004	0.00000E+000	2.33530E-004	2.40040E-001	5.84211E-001	3.57710E+000	9	...........
	32	0.44	5.89962E-001	4.00924E-004	0.00000E+000	2.36530E-004	2.40040E-001	5.90180E-001	3.57710E+000	9	...........
	33	0.453333	5.95912E-001	4.01365E-004	0.00000E+000	2.39178E-004	2.40040E-001	5.96121E-001	3.57710E+000	9	...........
	34	0.466667	6.01780E-001	4.00863E-004	0.00000E+000	2.41231E-004	2.40040E-001	6.02030E-001	3.57710E+000	9	...........
	35	0.48	6.07675E-001	4.00861E-004	0.00000E+000	2.43593E-004	2.40040E-001	6.07916E-001	3.57710E+000	9	...........
	36	0.493333	6.13534E-001	4.01423E-004	0.00000E+000	2.46287E-004	2.40040E-001	6.13789E-001	3.57710E+000	9	...........
	37	0.506667	6.19382E-001	4.02279E-004	0.00000E+000	2.49164E-004	2.40040E-001	6.19597E-001	3.57710E+000	9	...........
	38	0.52	6.25161E-001	4.01550E-004	0.00000E+000	2.51034E-004	2.40040E-001	6.25364E-001	3.57710E+000	9	...........
	39	0.533333	6.30970E-001	4.01054E-004	0.00000E+000	2.53053E-004	2.40040E-001	6.31208E-001	3.57710E+000	9	...........
	40	0.546667	6.36710E-001	3.99449E-004	0.00000E+000	2.54333E-004	2.40040E-001	6.36932E-001	3.57710E+000	9	...........
	41	0.56	6.42490E-001	4.00310E-004	0.00000E+000	2.57196E-004	2.40040E-001	6.42733E-001	3.57710E+000	9	...........
	42	0.573333	6.48226E-001	4.00497E-004	0.00000E+000	2.59613E-004	2.40040E-001	6.48431E-001	3.57710E+000	9	...........
	43	0.586667	6.53932E-001	4.00657E-004	0.00000E+000	2.62003E-004	2.40040E-001	6.54147E-001	3.57824E+000	9	...........
	44	0.6	6.59633E-001	4.01714E-004	0.00000E+000	2.64984E-004	2.40040E-001	6.59854E-001	3.57840E+000	9	...........
	45	0.613333	6.65400E-001	4.02073E-004	0.00000E+000	2.67540E-004	2.40040E-001	6.65619E-001	3.57840E+000	9	...........
	46	0.626667	6.71027E-001	4.01966E-004	0.00000E+000	2.69730E-004	2.40040E-001	6.71219E-001	3.57840E+000	9	...........
	47	0.64	6.76669E-001	4.01490E-004	0.00000E+000	2.71676E-004	2.40040E-001	6.76870E-001	3.57840E+000	9	...........
	48	0.653333	6.82285E-001	4.01729E-004	0.00000E+000	2.74093E-004	2.40040E-001	6.82462E-001	3.57840E+000	9	...........
	49	0.666667	6.87888E-001	4.00681E-004	0.00000E+000	2.75624E-004	2.40040E-001	6.88093E-001	3.57840E+000	9	...........
	50	0.68	6.93433E-001	4.00870E-004	0.00000E+000	2.77976E-004	2.40040E-001	6.93648E-001	3.57840E+000	9	...........
	51	0.693333	6.98942E-001	4.01033E-004	0.00000E+000	2.80299E-004	2.40040E-001	6.99172E-001	3.57840E+000	9	...........
	52	0.706667	7.04524E-001	4.01725E-004	0.00000E+000	2.83025E-004	2.40040E-001	7.04735E-001	3.57840E+000	9	...........
	53	0.72	7.10073E-001	4.00691E-004	0.00000E+000	2.84520E-004	2.40040E-001	7.10324E-001	3.57840E+000	9	...........
	54	0.733333	7.15583E-001	4.01651E-004	0.00000E+000	2.87415E-004	2.40040E-001	7.15850E-001	3.57840E+000	9	...........
	55	0.746667	7.21125E-001	3.99807E-004	0.00000E+000	2.88311E-004	2.40040E-001	7.21333E-001	3.57840E+000	9	...........
	56	0.76	7.26561E-001	4.01338E-004	0.00000E+000	2.91596E-004	2.40040E-001	7.26826E-001	3.57840E+000	9	...........
	57	0.773333	7.32000E-001	4.01321E-004	0.00000E+000	2.93767E-004	2.40040E-001	7.32264E-001	3.57840E+000	9	...........
	58	0.786667	7.37376E-001	4.02705E-004	0.00000E+000	2.96945E-004	2.40040E-001	7.37630E-001	3.57840E+000	9	...........
	59	0.8	7.42816E-001	4.00427E-004	0.00000E+000	2.97444E-004	2.40040E-001	7.43093E-001	3.57840E+000	9	...........
	60	0.813333	7.48237E-001	4.01138E-004	0.00000E+000	3.00146E-004	2.40040E-001	7.48509E-001	3.57840E+000	9	...........
	61	0.826667	7.53622E-001	4.00035E-004	0.00000E+000	3.01476E-004	2.40040E-001	7.53889E-001	3.57840E+000	9	...........
	62	0.84	7.58944E-001	4.00682E-004	0.00000E+000	3.04096E-004	2.40040E-001	7.59194E-001	3.57840E+000	9	...........
	63	0.853333	7.64276E-001	3.99658E-004	0.00000E+000	3.05449E-004	2.40040E-001	7.64510E-001	3.57840E+000	9	...........
	64	0.866667	7.69556E-001	4.01298E-004	0.00000E+000	3.08821E-004	2.40040E-001	7.69796E-001	3.57840E+000	9	...........
	65	0.88	7.74824E-001	4.01432E-004	0.00000E+000	3.11039E-004	2.40040E-001	7.75039E-001	3.57840E+000	9	...........
	66	0.893333	7.80074E-001	4.00625E-004	0.00000E+000	3.12517E-004	2.40040E-001	7.80307E-001	3.57840E+000	9	...........
	67	0.906667	7.85319E-001	4.00119E-004	0.00000E+000	3.14221E-004	2.40040E-001	7.85549E-001	3.57840E+000	9	...........
	68	0.92	7.90505E-001	4.01724E-004	0.00000E+000	3.17565E-004	2.40040E-001	7.90774E-001	3.57840E+000	9	...........
	69	0.933333	7.95718E-001	4.01342E-004	0.00000E+000	3.19355E-004	2.40040E-001	7.95992E-001	3.57840E+000	9	...........
	70	0.946667	8.00841E-001	4.00462E-004	0.00000E+000	3.20706E-004	2.40040E-001	8.01116E-001	3.57840E+000	9	...........
	71	0.96	8.05994E-001	4.00848E-004	0.00000E+000	3.23081E-004	2.40040E-001	8.06281E-001	3.57840E+000	9	...........
	72	0.97333	8.11040E-001	4.01097E-004	0.00000E+000	3.25306E-004	2.40040E-001	8.11303E-001	3.57840E+000	9	...........
	73	0.98667	8.16056E-001	4.00826E-004	0.00000E+000	3.27096E-004	2.40040E-001	8.16343E-001	3.57840E+000	9	...........
	74	1	8.21079E-001	4.00844E-004	0.00000E+000	3.29124E-004	2.40040E-001	8.21363E-001	3.57840E+000	9	...........
	75	1.01333	8.26094E-001	4.00582E-004	0.00000E+000	3.30919E-004	2.40040E-001	8.26388E-001	3.57840E+000	9	...........
	76	1.02667	8.31101E-001	4.01821E-004	0.00000E+000	3.33954E-004	2.40040E-001	8.31417E-001	3.57840E+000	9	...........
	77	1.04	8.35973E-001	3.99568E-004	0.00000E+000	3.34028E-004	2.40040E-001	8.36286E-001	3.57840E+000	9	...........
	78	1.05333	8.40867E-001	4.01986E-004	0.00000E+000	3.38017E-004	2.40040E-001	8.41192E-001	3.57840E+000	9	...........
	79	1.06667	8.45709E-001	4.00124E-004	0.00000E+000	3.38388E-004	2.40040E-001	8.46048E-001	3.57840E+000	9	...........
	80	1.08	8.50525E-001	4.00606E-004	0.00000E+000	3.40726E-004	2.40040E-001	8.50856E-001	3.57840E+000	9	...........
	81	1.09333	8.55335E-001	4.00790E-004	0.00000E+000	3.42810E-004	2.40040E-001	8.55658E-001	3.57840E+000	9	...........
	82	1.10667	8.60067E-001	4.01477E-004	0.00000E+000	3.45297E-004	2.40040E-001	8.60399E-001	3.57840E+000	9	...........
	83	1.12	8.64820E-001	4.02178E-004	0.00000E+000	3.47811E-004	2.40040E-001	8.65139E-001	3.57840E+000	9	...........
	84	1.13333	8.69492E-001	4.00490E-004	0.00000E+000	3.48222E-004	2.40040E-001	8.69821E-001	3.57840E+000	9	...........
	85	1.14667	8.74117E-001	4.00072E-004	0.00000E+000	3.49710E-004	2.40040E-001	8.74427E-001	3.57840E+000	9	...........
	86	1.16	8.78705E-001	4.01835E-004	0.00000E+000	3.53094E-004	2.40040E-001	8.79011E-001	3.57840E+000	9	...........
	87	1.17333	8.83305E-001	4.01043E-004	0.00000E+000	3.54243E-004	2.40040E-001	8.83619E-001	3.57840E+000	9	...........
	88	1.18667	8.87756E-001	4.01799E-004	0.00000E+000	3.56700E-004	2.40040E-001	8.88068E-001	3.57840E+000	9	...........
	89	1.2	8.92211E-001	4.01245E-004	0.00000E+000	3.57995E-004	2.40040E-001	8.92520E-001	3.57840E+000	9	...........
	90	1.21333	8.96738E-001	4.01434E-004	0.00000E+000	3.59981E-004	2.40040E-001	8.97037E-001	3.57840E+000	9	...........
	91	1.22667	9.01187E-001	4.00394E-004	0.00000E+000	3.60830E-004	2.40040E-001	9.01515E-001	3.57840E+000	9	...........
	92	1.24	9.05515E-001	4.02132E-004	0.00000E+000	3.64136E-004	2.40040E-001	9.05862E-001	3.57840E+000	9	...........
	93	1.25333	9.09888E-001	4.01121E-004	0.00000E+000	3.64975E-004	2.40040E-001	9.10193E-001	3.57840E+000	9	...........
	94	1.26667	9.14214E-001	4.02900E-004	0.00000E+000	3.68337E-004	2.40040E-001	9.14543E-001	3.57840E+000	9	...........
	95	1.28	9.18550E-001	4.01584E-004	0.00000E+000	3.68875E-004	2.40040E-001	9.18887E-001	3.57840E+000	9	...........
	96	1.29333	9.22911E-001	4.00322E-004	0.00000E+000	3.69462E-004	2.40040E-001	9.23214E-001	3.57840E+000	9	...........
	97	1.30667	9.27153E-001	4.01470E-004	0.00000E+000	3.72224E-004	2.40040E-001	9.27452E-001	3.57840E+000	9	...........
	98	1.32	9.31296E-001	4.02187E-004	0.00000E+000	3.74555E-004	2.40040E-001	9.31587E-001	3.57840E+000	9	...........
	99	1.33333	9.35401E-001	4.01027E-004	0.00000E+000	3.75121E-004	2.40040E-001	9.35729E-001	3.57840E+000	9	...........
	100	1.34667	9.39537E-001	4.02356E-004	0.00000E+000	3.78028E-004	2.40040E-001	9.39873E-001	3.57840E+000	9	...........
	101	1.36	9.43568E-001	3.99219E-004	0.00000E+000	3.76690E-004	2.40040E-001	9.43898E-001	3.57840E+000	9	...........
	102	1.37333	9.47629E-001	4.01106E-004	0.00000E+000	3.80100E-004	2.40040E-001	9.47948E-001	3.57840E+000	9	...........
	103	1.38667	9.51648E-001	3.99978E-004	0.00000E+000	3.80638E-004	2.40040E-001	9.51978E-001	3.57840E+000	9	...........
	104	1.4	9.55600E-001	4.01200E-004	0.00000E+000	3.83387E-004	2.40040E-001	9.55895E-001	3.57840E+000	9	...........
	105	1.41333	9.59511E-001	4.00902E-004	0.00000E+000	3.84670E-004	2.40040E-001	9.59840E-001	3.57840E+000	9	...........
	106	1.42667	9.63425E-001	4.00875E-004	0.00000E+000	3.86213E-004	2.40040E-001	9.63758E-001	3.57840E+000	9	...........
	107	1.44	9.67301E-001	4.01378E-004	0.00000E+000	3.88254E-004	2.40040E-001	9.67626E-001	3.57840E+000	9	...........
	108	1.45333	9.71148E-001	4.01359E-004	0.00000E+000	3.89779E-004	2.40040E-001	9.71515E-001	3.57840E+000	9	...........
	109	1.46667	9.74988E-001	4.00649E-004	0.00000E+000	3.90628E-004	2.40040E-001	9.75290E-001	3.57840E+000	9	...........
	110	1.48	9.78757E-001	4.01725E-004	0.00000E+000	3.93191E-004	2.40040E-001	9.79073E-001	3.57840E+000	9	...........
	111	1.49333	9.82465E-001	4.00193E-004	0.00000E+000	3.93175E-004	2.40040E-001	9.82751E-001	3.57840E+000	9	...........
	112	1.50667	9.86116E-001	4.01018E-004	0.00000E+000	3.95450E-004	2.40040E-001	9.86454E-001	3.57840E+000	9	...........
	113	1.52	9.89752E-001	4.00215E-004	0.00000E+000	3.96113E-004	2.40040E-001	9.90077E-001	3.57840E+000	9	...........
	114	1.53333	9.93379E-001	4.01591E-004	0.00000E+000	3.98932E-004	2.40040E-001	9.93687E-001	3.57840E+000	9	...........
	115	1.54667	9.96991E-001	4.00724E-004	0.00000E+000	3.99518E-004	2.40040E-001	9.97306E-001	3.57840E+000	9	...........
	116	1.55333	9.99623E-001	3.99273E-004	0.00000E+000	3.99122E-004	2.40040E-001	9.99942E-001	3.57840E+000	9	...........
STARTTIMEOFFSET	QUANT	1660.691	Start Time Offset (s)
