EXPLAIN
TAG	PWR800_CHARGE
TITLE	LABEL	PWR Cyclic Charge Discharge (Cell) - Charge Step	Test &Identifier
DATE	LABEL	12-7-2017	Date
TIME	LABEL	14:42:58	Time
NOTES	NOTES	3	&Notes...
	supercap test cell
	0.4mg
	6M KOH
PSTAT	PSTAT	IFC5000-01520	Potentiostat
CAPACITY	QUANT	1.00000E-003	Capacity (A-hr)
CELLTYPE	SELECTOR	1	&Cell Type
WORKINGCONNECTION	SELECTOR	0	&Working Lead
MAXCHARGETIME	VARIABLEANDUNITS	1.00000E+002	s	1.00000E+002	second(s)	Max &Charge Time
CHARGECURRENT	QUANT	4.00000E-004	&Charge Current (A) 
VOLTAGEFINISH	TWOPARAM	F	1.00000E-003	3.60000E+003	&Voltage Finish	 I (A) < 	Max Time(s)
SAMPLETIME	QUANT	1.00000E-002	Sa&mple Period (s)
CHARGESTOPAT1	MULTIPARAM	4	1.00000E+000	Charge Stop At &1	Voltage > Limit	V
CHARGESTOPAT2	MULTIPARAM	0	0.00000E+000	Charge Stop At &2	None	N/A
AESBHCSELECTOR	TOGGLE	F	Save Both Half Cells
IRCOMP	TOGGLE	F	IR &Measure
EOC	QUANT	0	Open Circuit (V)
SEQUENCER	TOGGLE	TRUE	Run as Sequence
PSTATMODEL	IQUANT	53	Pstat Model
PSTATSECTION	LABEL	IFC5000-01520	Pstat Section
PSTATSERIALNO	LABEL	01520	Pstat Serial Number
CTRLMODE	IQUANT	0	Control Mode
ELECTROMETER	IQUANT	1	RE=0 or CS=1
IESTAB	IQUANT	0	I/E Stability
CASPEED	IQUANT	4	Control Amp Speed
CONVENTION	IQUANT	1	Current Convention
ICHRANGE	IQUANT	2	Ich Range
ICHRANGEMODE	TOGGLE	T	Ich Auto Range
ICHOFFSETENABLE	TOGGLE	F	Ich Offset Enable
ICHOFFSET	QUANT	0	Ich Offset (V)
ICHFILTER	IQUANT	1	Ich Filter
VCHRANGE	IQUANT	2	Vch Range
VCHRANGEMODE	TOGGLE	T	Vch Auto Range
VCHOFFSETENABLE	TOGGLE	F	Vch Offset Enable
VCHOFFSET	QUANT	0	Vch Offset (V)
VCHFILTER	IQUANT	1	Vch Filter
IERANGELOWERLIMIT	IQUANT	9	I/E Range Lower Limit
IERANGEMODE	TOGGLE	F	I/E AutoRange
IERANGE	IQUANT	9	I/E Range
ACHSELECT	IQUANT	1	Ach Select
ACHRANGE	IQUANT	2	Ach Range
ACHOFFSETENABLE	TOGGLE	F	Ach Offset Enable
ACHOFFSET	QUANT	0	Ach Offset (V)
ACHFILTER	IQUANT	1	Ach Filter
CABLEID	IQUANT	14	Cable ID
DCCALDATE	LABEL	5-7-2017	DC Calibration Date
ACCALDATE	LABEL	12/3/2015	AC Calibration Date
FRAMEWORKVERSION	QUANT	7.01	Framework Version
INSTRUMENTVERSION	LABEL	4.00	Instrument Version
CURVE	TABLE	123
	Pt	T	Vf	Im	Vu	Pwr	Sig	Ach	Temp	IERange	Over
	#	s	V	A	V	W	V	V	deg C	#	bits
	0	0.013333	3.55502E-001	4.01130E-004	0.00000E+000	1.42602E-004	2.40040E-001	3.55597E-001	3.57610E+000	9	...........
	1	0.026667	3.66638E-001	4.01840E-004	0.00000E+000	1.47330E-004	2.40040E-001	3.66709E-001	3.57610E+000	9	...........
	2	0.04	3.76190E-001	4.00789E-004	0.00000E+000	1.50773E-004	2.40040E-001	3.76266E-001	3.57610E+000	9	...........
	3	0.053333	3.84948E-001	4.00379E-004	0.00000E+000	1.54125E-004	2.40040E-001	3.85022E-001	3.57610E+000	9	...........
	4	0.066667	3.93129E-001	4.00266E-004	0.00000E+000	1.57356E-004	2.40040E-001	3.93207E-001	3.57610E+000	9	...........
	5	0.08	4.00918E-001	4.01079E-004	0.00000E+000	1.60800E-004	2.40040E-001	4.00996E-001	3.57610E+000	9	...........
	6	0.093333	4.08472E-001	4.00092E-004	0.00000E+000	1.63426E-004	2.40040E-001	4.08556E-001	3.57610E+000	9	...........
	7	0.106667	4.15731E-001	3.99545E-004	0.00000E+000	1.66103E-004	2.40040E-001	4.15814E-001	3.57610E+000	9	...........
	8	0.12	4.22784E-001	4.00829E-004	0.00000E+000	1.69464E-004	2.40040E-001	4.22873E-001	3.57610E+000	9	...........
	9	0.133333	4.29750E-001	4.00293E-004	0.00000E+000	1.72026E-004	2.40040E-001	4.29843E-001	3.57610E+000	9	...........
	10	0.146667	4.36589E-001	4.02527E-004	0.00000E+000	1.75739E-004	2.40040E-001	4.36680E-001	3.57610E+000	9	...........
	11	0.16	4.43283E-001	4.00033E-004	0.00000E+000	1.77328E-004	2.40040E-001	4.43371E-001	3.57610E+000	9	...........
	12	0.173333	4.49863E-001	4.01855E-004	0.00000E+000	1.80780E-004	2.40040E-001	4.49957E-001	3.57610E+000	9	...........
	13	0.186667	4.56379E-001	4.01293E-004	0.00000E+000	1.83142E-004	2.40040E-001	4.56465E-001	3.57610E+000	9	...........
	14	0.2	4.62845E-001	4.01336E-004	0.00000E+000	1.85756E-004	2.40040E-001	4.62943E-001	3.57610E+000	9	...........
	15	0.213333	4.69216E-001	4.01743E-004	0.00000E+000	1.88504E-004	2.40040E-001	4.69306E-001	3.57610E+000	9	...........
	16	0.226667	4.75464E-001	4.01955E-004	0.00000E+000	1.91115E-004	2.40040E-001	4.75552E-001	3.57610E+000	9	...........
	17	0.24	4.81758E-001	4.01972E-004	0.00000E+000	1.93653E-004	2.40040E-001	4.81854E-001	3.57610E+000	9	...........
	18	0.253333	4.87974E-001	4.00947E-004	0.00000E+000	1.95652E-004	2.40040E-001	4.88074E-001	3.57610E+000	9	...........
	19	0.266667	4.94098E-001	3.98514E-004	0.00000E+000	1.96905E-004	2.40040E-001	4.94204E-001	3.57610E+000	9	...........
	20	0.28	5.00169E-001	4.02010E-004	0.00000E+000	2.01073E-004	2.40040E-001	5.00277E-001	3.57610E+000	9	...........
	21	0.293333	5.06278E-001	4.00772E-004	0.00000E+000	2.02902E-004	2.40040E-001	5.06380E-001	3.57655E+000	9	...........
	22	0.306667	5.12304E-001	4.01345E-004	0.00000E+000	2.05611E-004	2.40040E-001	5.12415E-001	3.57700E+000	9	...........
	23	0.32	5.18168E-001	4.00789E-004	0.00000E+000	2.07676E-004	2.40040E-001	5.18279E-001	3.57700E+000	9	...........
	24	0.333333	5.24126E-001	4.01353E-004	0.00000E+000	2.10360E-004	2.40040E-001	5.24231E-001	3.57700E+000	9	...........
	25	0.346667	5.30057E-001	4.00930E-004	0.00000E+000	2.12516E-004	2.40040E-001	5.30168E-001	3.57700E+000	9	...........
	26	0.36	5.35667E-001	4.01146E-004	0.00000E+000	2.14881E-004	2.40040E-001	5.35866E-001	3.57700E+000	9	...........
	27	0.373333	5.41469E-001	4.00654E-004	0.00000E+000	2.16942E-004	2.40040E-001	5.41714E-001	3.57700E+000	9	...........
	28	0.386667	5.47305E-001	4.01681E-004	0.00000E+000	2.19842E-004	2.40040E-001	5.47536E-001	3.57700E+000	9	...........
	29	0.4	5.53153E-001	4.01112E-004	0.00000E+000	2.21876E-004	2.40040E-001	5.53364E-001	3.57700E+000	9	...........
	30	0.413333	5.58908E-001	3.99701E-004	0.00000E+000	2.23396E-004	2.40040E-001	5.59146E-001	3.57700E+000	9	...........
	31	0.426667	5.64723E-001	3.99660E-004	0.00000E+000	2.25697E-004	2.40040E-001	5.64947E-001	3.57700E+000	9	...........
	32	0.44	5.70549E-001	4.00366E-004	0.00000E+000	2.28428E-004	2.40040E-001	5.70754E-001	3.57700E+000	9	...........
	33	0.453333	5.76256E-001	4.01083E-004	0.00000E+000	2.31126E-004	2.40040E-001	5.76475E-001	3.57700E+000	9	...........
	34	0.466667	5.81905E-001	4.00740E-004	0.00000E+000	2.33193E-004	2.40040E-001	5.82133E-001	3.57700E+000	9	...........
	35	0.48	5.87520E-001	4.01947E-004	0.00000E+000	2.36152E-004	2.40040E-001	5.87756E-001	3.57700E+000	9	...........
	36	0.493333	5.93167E-001	4.02433E-004	0.00000E+000	2.38710E-004	2.40040E-001	5.93387E-001	3.57700E+000	9	...........
	37	0.506667	5.98777E-001	3.99619E-004	0.00000E+000	2.39282E-004	2.40040E-001	5.99018E-001	3.57700E+000	9	...........
	38	0.52	6.04461E-001	4.02787E-004	0.00000E+000	2.43469E-004	2.40040E-001	6.04720E-001	3.57700E+000	9	...........
	39	0.533333	6.09964E-001	3.99848E-004	0.00000E+000	2.43893E-004	2.40040E-001	6.10219E-001	3.57700E+000	9	...........
	40	0.546667	6.15553E-001	4.01319E-004	0.00000E+000	2.47033E-004	2.40040E-001	6.15779E-001	3.57700E+000	9	...........
	41	0.56	6.21161E-001	4.00790E-004	0.00000E+000	2.48955E-004	2.40040E-001	6.21382E-001	3.57700E+000	9	...........
	42	0.573333	6.26787E-001	4.01118E-004	0.00000E+000	2.51415E-004	2.40040E-001	6.27043E-001	3.57700E+000	9	...........
	43	0.586667	6.32369E-001	4.00585E-004	0.00000E+000	2.53317E-004	2.40040E-001	6.32601E-001	3.57700E+000	9	...........
	44	0.6	6.37960E-001	4.01863E-004	0.00000E+000	2.56372E-004	2.40040E-001	6.38192E-001	3.57700E+000	9	...........
	45	0.613333	6.43469E-001	4.00888E-004	0.00000E+000	2.57959E-004	2.40040E-001	6.43692E-001	3.57700E+000	9	...........
	46	0.626667	6.48886E-001	4.01318E-004	0.00000E+000	2.60410E-004	2.40040E-001	6.49137E-001	3.57700E+000	9	...........
	47	0.64	6.54481E-001	4.00756E-004	0.00000E+000	2.62287E-004	2.40040E-001	6.54691E-001	3.57700E+000	9	...........
	48	0.653333	6.59929E-001	4.00633E-004	0.00000E+000	2.64390E-004	2.40040E-001	6.60162E-001	3.57700E+000	9	...........
	49	0.666667	6.65344E-001	4.01163E-004	0.00000E+000	2.66911E-004	2.40040E-001	6.65595E-001	3.57700E+000	9	...........
	50	0.68	6.70804E-001	4.00478E-004	0.00000E+000	2.68643E-004	2.40040E-001	6.71027E-001	3.57700E+000	9	...........
	51	0.693333	6.76328E-001	4.01178E-004	0.00000E+000	2.71328E-004	2.40040E-001	6.76565E-001	3.57700E+000	9	...........
	52	0.706667	6.81675E-001	4.01087E-004	0.00000E+000	2.73411E-004	2.40040E-001	6.81875E-001	3.57700E+000	9	...........
	53	0.72	6.87075E-001	4.00057E-004	0.00000E+000	2.74870E-004	2.40040E-001	6.87288E-001	3.57700E+000	9	...........
	54	0.733333	6.92541E-001	4.00756E-004	0.00000E+000	2.77540E-004	2.40040E-001	6.92780E-001	3.57700E+000	9	...........
	55	0.746667	6.97876E-001	4.00477E-004	0.00000E+000	2.79483E-004	2.40040E-001	6.98105E-001	3.57700E+000	9	...........
	56	0.76	7.03255E-001	4.00607E-004	0.00000E+000	2.81729E-004	2.40040E-001	7.03488E-001	3.57700E+000	9	...........
	57	0.773333	7.08545E-001	4.00946E-004	0.00000E+000	2.84088E-004	2.40040E-001	7.08811E-001	3.57700E+000	9	...........
	58	0.786667	7.13881E-001	4.01161E-004	0.00000E+000	2.86381E-004	2.40040E-001	7.14168E-001	3.57700E+000	9	...........
	59	0.8	7.19260E-001	4.01255E-004	0.00000E+000	2.88607E-004	2.40040E-001	7.19514E-001	3.57700E+000	9	...........
	60	0.813333	7.24480E-001	4.01592E-004	0.00000E+000	2.90946E-004	2.40040E-001	7.24731E-001	3.57700E+000	9	...........
	61	0.826667	7.29739E-001	4.00802E-004	0.00000E+000	2.92481E-004	2.40040E-001	7.29981E-001	3.57700E+000	9	...........
	62	0.84	7.34934E-001	4.00710E-004	0.00000E+000	2.94495E-004	2.40040E-001	7.35178E-001	3.57700E+000	9	...........
	63	0.853333	7.40102E-001	4.03226E-004	0.00000E+000	2.98428E-004	2.40040E-001	7.40363E-001	3.57700E+000	9	...........
	64	0.866667	7.45372E-001	4.00333E-004	0.00000E+000	2.98397E-004	2.40040E-001	7.45635E-001	3.57700E+000	9	...........
	65	0.88	7.50596E-001	4.01471E-004	0.00000E+000	3.01343E-004	2.40040E-001	7.50856E-001	3.57700E+000	9	...........
	66	0.893333	7.55830E-001	4.00638E-004	0.00000E+000	3.02814E-004	2.40040E-001	7.56096E-001	3.57700E+000	9	...........
	67	0.906667	7.60971E-001	4.00563E-004	0.00000E+000	3.04817E-004	2.40040E-001	7.61225E-001	3.57700E+000	9	...........
	68	0.92	7.66135E-001	4.00753E-004	0.00000E+000	3.07031E-004	2.40040E-001	7.66420E-001	3.57700E+000	9	...........
	69	0.933333	7.71278E-001	4.01351E-004	0.00000E+000	3.09553E-004	2.40040E-001	7.71547E-001	3.57700E+000	9	...........
	70	0.946667	7.76348E-001	4.00720E-004	0.00000E+000	3.11098E-004	2.40040E-001	7.76604E-001	3.57700E+000	9	...........
	71	0.96	7.81485E-001	4.00723E-004	0.00000E+000	3.13159E-004	2.40040E-001	7.81746E-001	3.57700E+000	9	...........
	72	0.97333	7.86525E-001	4.00784E-004	0.00000E+000	3.15226E-004	2.40040E-001	7.86776E-001	3.57700E+000	9	...........
	73	0.98667	7.91585E-001	4.01023E-004	0.00000E+000	3.17444E-004	2.40040E-001	7.91827E-001	3.57700E+000	9	...........
	74	1	7.96617E-001	4.00777E-004	0.00000E+000	3.19266E-004	2.40040E-001	7.96841E-001	3.57700E+000	9	...........
	75	1.01333	8.01593E-001	4.02204E-004	0.00000E+000	3.22403E-004	2.40040E-001	8.01812E-001	3.57700E+000	9	...........
	76	1.02667	8.06484E-001	4.01294E-004	0.00000E+000	3.23637E-004	2.40040E-001	8.06738E-001	3.57700E+000	9	...........
	77	1.04	8.11368E-001	4.01242E-004	0.00000E+000	3.25555E-004	2.40040E-001	8.11607E-001	3.57700E+000	9	...........
	78	1.05333	8.16253E-001	4.01573E-004	0.00000E+000	3.27785E-004	2.40040E-001	8.16520E-001	3.57700E+000	9	...........
	79	1.06667	8.21111E-001	4.00679E-004	0.00000E+000	3.29002E-004	2.40040E-001	8.21391E-001	3.57700E+000	9	...........
	80	1.08	8.25919E-001	4.00796E-004	0.00000E+000	3.31025E-004	2.40040E-001	8.26207E-001	3.57700E+000	9	...........
	81	1.09333	8.30660E-001	4.01110E-004	0.00000E+000	3.33186E-004	2.40040E-001	8.30951E-001	3.57700E+000	9	...........
	82	1.10667	8.35405E-001	4.01227E-004	0.00000E+000	3.35187E-004	2.40040E-001	8.35715E-001	3.57700E+000	9	...........
	83	1.12	8.40149E-001	4.01241E-004	0.00000E+000	3.37102E-004	2.40040E-001	8.40471E-001	3.57700E+000	9	...........
	84	1.13333	8.44867E-001	4.02040E-004	0.00000E+000	3.39671E-004	2.40040E-001	8.45182E-001	3.57700E+000	9	...........
	85	1.14667	8.49593E-001	4.00217E-004	0.00000E+000	3.40021E-004	2.40040E-001	8.49904E-001	3.57700E+000	9	...........
	86	1.16	8.54300E-001	4.00999E-004	0.00000E+000	3.42573E-004	2.40040E-001	8.54593E-001	3.57700E+000	9	...........
	87	1.17333	8.58949E-001	4.00700E-004	0.00000E+000	3.44181E-004	2.40040E-001	8.59226E-001	3.57700E+000	9	...........
	88	1.18667	8.63564E-001	4.01058E-004	0.00000E+000	3.46339E-004	2.40040E-001	8.63829E-001	3.57700E+000	9	...........
	89	1.2	8.68162E-001	4.01029E-004	0.00000E+000	3.48159E-004	2.40040E-001	8.68414E-001	3.57700E+000	9	...........
	90	1.21333	8.72693E-001	4.01825E-004	0.00000E+000	3.50670E-004	2.40040E-001	8.72922E-001	3.57700E+000	9	...........
	91	1.22667	8.77193E-001	3.99976E-004	0.00000E+000	3.50856E-004	2.40040E-001	8.77433E-001	3.57700E+000	9	...........
	92	1.24	8.81682E-001	3.99666E-004	0.00000E+000	3.52378E-004	2.40040E-001	8.81946E-001	3.57700E+000	9	...........
	93	1.25333	8.86159E-001	4.00707E-004	0.00000E+000	3.55090E-004	2.40040E-001	8.86418E-001	3.57700E+000	9	...........
	94	1.26667	8.90569E-001	4.01404E-004	0.00000E+000	3.57479E-004	2.40040E-001	8.90838E-001	3.57700E+000	9	...........
	95	1.28	8.94945E-001	4.01535E-004	0.00000E+000	3.59351E-004	2.40040E-001	8.95263E-001	3.57700E+000	9	...........
	96	1.29333	8.99305E-001	4.00272E-004	0.00000E+000	3.59967E-004	2.40040E-001	8.99590E-001	3.57680E+000	9	...........
	97	1.30667	9.03582E-001	4.00197E-004	0.00000E+000	3.61611E-004	2.40040E-001	9.03913E-001	3.57660E+000	9	...........
	98	1.32	9.07828E-001	4.01999E-004	0.00000E+000	3.64946E-004	2.40040E-001	9.08150E-001	3.57660E+000	9	...........
	99	1.33333	9.12050E-001	4.01633E-004	0.00000E+000	3.66309E-004	2.40040E-001	9.12367E-001	3.57660E+000	9	...........
	100	1.34667	9.16286E-001	4.00512E-004	0.00000E+000	3.66983E-004	2.40040E-001	9.16634E-001	3.57660E+000	9	...........
	101	1.36	9.20525E-001	4.01074E-004	0.00000E+000	3.69199E-004	2.40040E-001	9.20834E-001	3.57660E+000	9	...........
	102	1.37333	9.24654E-001	4.01946E-004	0.00000E+000	3.71661E-004	2.40040E-001	9.24945E-001	3.57660E+000	9	...........
	103	1.38667	9.28761E-001	4.00984E-004	0.00000E+000	3.72418E-004	2.40040E-001	9.29050E-001	3.57660E+000	9	...........
	104	1.4	9.32846E-001	4.00226E-004	0.00000E+000	3.73349E-004	2.40040E-001	9.33149E-001	3.57660E+000	9	...........
	105	1.41333	9.36908E-001	4.00688E-004	0.00000E+000	3.75407E-004	2.40040E-001	9.37229E-001	3.57660E+000	9	...........
	106	1.42667	9.40900E-001	4.01476E-004	0.00000E+000	3.77749E-004	2.40040E-001	9.41231E-001	3.57660E+000	9	...........
	107	1.44	9.44881E-001	4.01783E-004	0.00000E+000	3.79637E-004	2.40040E-001	9.45231E-001	3.57660E+000	9	...........
	108	1.45333	9.48808E-001	4.00848E-004	0.00000E+000	3.80328E-004	2.40040E-001	9.49135E-001	3.57660E+000	9	...........
	109	1.46667	9.52670E-001	4.01639E-004	0.00000E+000	3.82629E-004	2.40040E-001	9.52991E-001	3.57660E+000	9	...........
	110	1.48	9.56516E-001	4.01256E-004	0.00000E+000	3.83807E-004	2.40040E-001	9.56821E-001	3.57660E+000	9	...........
	111	1.49333	9.60321E-001	4.01192E-004	0.00000E+000	3.85273E-004	2.40040E-001	9.60653E-001	3.57660E+000	9	...........
	112	1.50667	9.64120E-001	4.01871E-004	0.00000E+000	3.87452E-004	2.40040E-001	9.64461E-001	3.57660E+000	9	...........
	113	1.52	9.67899E-001	4.01636E-004	0.00000E+000	3.88743E-004	2.40040E-001	9.68238E-001	3.57660E+000	9	...........
	114	1.53333	9.71646E-001	4.00891E-004	0.00000E+000	3.89524E-004	2.40040E-001	9.71976E-001	3.57660E+000	9	...........
	115	1.54667	9.75417E-001	4.00047E-004	0.00000E+000	3.90213E-004	2.40040E-001	9.75728E-001	3.57660E+000	9	...........
	116	1.56	9.79053E-001	4.02215E-004	0.00000E+000	3.93790E-004	2.40040E-001	9.79335E-001	3.57660E+000	9	...........
	117	1.57333	9.82600E-001	4.00629E-004	0.00000E+000	3.93658E-004	2.40040E-001	9.82906E-001	3.57660E+000	9	...........
	118	1.58667	9.86138E-001	4.00891E-004	0.00000E+000	3.95334E-004	2.40040E-001	9.86471E-001	3.57660E+000	9	...........
	119	1.6	9.89672E-001	4.01917E-004	0.00000E+000	3.97766E-004	2.40040E-001	9.89971E-001	3.57660E+000	9	...........
	120	1.61333	9.93181E-001	4.00941E-004	0.00000E+000	3.98207E-004	2.40040E-001	9.93485E-001	3.57660E+000	9	...........
	121	1.62667	9.96650E-001	4.00450E-004	0.00000E+000	3.99109E-004	2.40040E-001	9.96956E-001	3.57660E+000	9	...........
	122	1.635	9.99410E-001	4.00797E-004	0.00000E+000	4.00561E-004	2.40040E-001	9.99737E-001	3.57660E+000	9	...........
STARTTIMEOFFSET	QUANT	1168.933	Start Time Offset (s)
