EXPLAIN
TAG	PWR800_CHARGE
TITLE	LABEL	PWR Cyclic Charge Discharge (Cell) - Charge Step	Test &Identifier
DATE	LABEL	12-7-2017	Date
TIME	LABEL	14:46:23	Time
NOTES	NOTES	3	&Notes...
	supercap test cell
	0.4mg
	6M KOH
PSTAT	PSTAT	IFC5000-01520	Potentiostat
CAPACITY	QUANT	1.00000E-003	Capacity (A-hr)
CELLTYPE	SELECTOR	1	&Cell Type
WORKINGCONNECTION	SELECTOR	0	&Working Lead
MAXCHARGETIME	VARIABLEANDUNITS	1.00000E+002	s	1.00000E+002	second(s)	Max &Charge Time
CHARGECURRENT	QUANT	4.00000E-004	&Charge Current (A) 
VOLTAGEFINISH	TWOPARAM	F	1.00000E-003	3.60000E+003	&Voltage Finish	 I (A) < 	Max Time(s)
SAMPLETIME	QUANT	1.00000E-002	Sa&mple Period (s)
CHARGESTOPAT1	MULTIPARAM	4	1.00000E+000	Charge Stop At &1	Voltage > Limit	V
CHARGESTOPAT2	MULTIPARAM	0	0.00000E+000	Charge Stop At &2	None	N/A
AESBHCSELECTOR	TOGGLE	F	Save Both Half Cells
IRCOMP	TOGGLE	F	IR &Measure
EOC	QUANT	0	Open Circuit (V)
SEQUENCER	TOGGLE	TRUE	Run as Sequence
PSTATMODEL	IQUANT	53	Pstat Model
PSTATSECTION	LABEL	IFC5000-01520	Pstat Section
PSTATSERIALNO	LABEL	01520	Pstat Serial Number
CTRLMODE	IQUANT	0	Control Mode
ELECTROMETER	IQUANT	1	RE=0 or CS=1
IESTAB	IQUANT	0	I/E Stability
CASPEED	IQUANT	4	Control Amp Speed
CONVENTION	IQUANT	1	Current Convention
ICHRANGE	IQUANT	2	Ich Range
ICHRANGEMODE	TOGGLE	T	Ich Auto Range
ICHOFFSETENABLE	TOGGLE	F	Ich Offset Enable
ICHOFFSET	QUANT	0	Ich Offset (V)
ICHFILTER	IQUANT	1	Ich Filter
VCHRANGE	IQUANT	2	Vch Range
VCHRANGEMODE	TOGGLE	T	Vch Auto Range
VCHOFFSETENABLE	TOGGLE	F	Vch Offset Enable
VCHOFFSET	QUANT	0	Vch Offset (V)
VCHFILTER	IQUANT	1	Vch Filter
IERANGELOWERLIMIT	IQUANT	9	I/E Range Lower Limit
IERANGEMODE	TOGGLE	F	I/E AutoRange
IERANGE	IQUANT	9	I/E Range
ACHSELECT	IQUANT	1	Ach Select
ACHRANGE	IQUANT	2	Ach Range
ACHOFFSETENABLE	TOGGLE	F	Ach Offset Enable
ACHOFFSET	QUANT	0	Ach Offset (V)
ACHFILTER	IQUANT	1	Ach Filter
CABLEID	IQUANT	14	Cable ID
DCCALDATE	LABEL	5-7-2017	DC Calibration Date
ACCALDATE	LABEL	12/3/2015	AC Calibration Date
FRAMEWORKVERSION	QUANT	7.01	Framework Version
INSTRUMENTVERSION	LABEL	4.00	Instrument Version
CURVE	TABLE	121
	Pt	T	Vf	Im	Vu	Pwr	Sig	Ach	Temp	IERange	Over
	#	s	V	A	V	W	V	V	deg C	#	bits
	0	0.013333	3.59822E-001	4.00978E-004	0.00000E+000	1.44281E-004	2.40040E-001	3.59921E-001	3.57630E+000	9	...........
	1	0.026667	3.71158E-001	4.01556E-004	0.00000E+000	1.49041E-004	2.40040E-001	3.71232E-001	3.57630E+000	9	...........
	2	0.04	3.80967E-001	4.01281E-004	0.00000E+000	1.52875E-004	2.40040E-001	3.81041E-001	3.57630E+000	9	...........
	3	0.053333	3.89841E-001	4.00680E-004	0.00000E+000	1.56202E-004	2.40040E-001	3.89917E-001	3.57630E+000	9	...........
	4	0.066667	3.98046E-001	4.01412E-004	0.00000E+000	1.59780E-004	2.40040E-001	3.98115E-001	3.57630E+000	9	...........
	5	0.08	4.05910E-001	4.01760E-004	0.00000E+000	1.63078E-004	2.40040E-001	4.05986E-001	3.57630E+000	9	...........
	6	0.093333	4.13414E-001	3.99771E-004	0.00000E+000	1.65271E-004	2.40040E-001	4.13495E-001	3.57630E+000	9	...........
	7	0.106667	4.20764E-001	4.00562E-004	0.00000E+000	1.68542E-004	2.40040E-001	4.20848E-001	3.57630E+000	9	...........
	8	0.12	4.27965E-001	4.00121E-004	0.00000E+000	1.71238E-004	2.40040E-001	4.28052E-001	3.57630E+000	9	...........
	9	0.133333	4.34961E-001	4.01154E-004	0.00000E+000	1.74486E-004	2.40040E-001	4.35052E-001	3.57630E+000	9	...........
	10	0.146667	4.41942E-001	4.00185E-004	0.00000E+000	1.76859E-004	2.40040E-001	4.42034E-001	3.57630E+000	9	...........
	11	0.16	4.48753E-001	4.00514E-004	0.00000E+000	1.79732E-004	2.40040E-001	4.48844E-001	3.57630E+000	9	...........
	12	0.173333	4.55409E-001	4.00788E-004	0.00000E+000	1.82522E-004	2.40040E-001	4.55501E-001	3.57630E+000	9	...........
	13	0.186667	4.61986E-001	3.99690E-004	0.00000E+000	1.84651E-004	2.40040E-001	4.62072E-001	3.57630E+000	9	...........
	14	0.2	4.68566E-001	4.01428E-004	0.00000E+000	1.88096E-004	2.40040E-001	4.68656E-001	3.57630E+000	9	...........
	15	0.213333	4.75051E-001	4.01423E-004	0.00000E+000	1.90697E-004	2.40040E-001	4.75142E-001	3.57630E+000	9	...........
	16	0.226667	4.81469E-001	3.99383E-004	0.00000E+000	1.92291E-004	2.40040E-001	4.81565E-001	3.57630E+000	9	...........
	17	0.24	4.87800E-001	4.00580E-004	0.00000E+000	1.95403E-004	2.40040E-001	4.87895E-001	3.57630E+000	9	...........
	18	0.253333	4.94099E-001	4.01493E-004	0.00000E+000	1.98377E-004	2.40040E-001	4.94197E-001	3.57630E+000	9	...........
	19	0.266667	5.00301E-001	4.00871E-004	0.00000E+000	2.00556E-004	2.40040E-001	5.00403E-001	3.57630E+000	9	...........
	20	0.28	5.06506E-001	4.01085E-004	0.00000E+000	2.03152E-004	2.40040E-001	5.06613E-001	3.57630E+000	9	...........
	21	0.293333	5.12651E-001	3.99988E-004	0.00000E+000	2.05054E-004	2.40040E-001	5.12761E-001	3.57630E+000	9	...........
	22	0.306667	5.18781E-001	4.01009E-004	0.00000E+000	2.08036E-004	2.40040E-001	5.18887E-001	3.57630E+000	9	...........
	23	0.32	5.24798E-001	4.00576E-004	0.00000E+000	2.10222E-004	2.40040E-001	5.24900E-001	3.57630E+000	9	...........
	24	0.333333	5.30889E-001	4.01375E-004	0.00000E+000	2.13086E-004	2.40040E-001	5.30976E-001	3.57630E+000	9	...........
	25	0.346667	5.36640E-001	4.01086E-004	0.00000E+000	2.15239E-004	2.40040E-001	5.36876E-001	3.57630E+000	9	...........
	26	0.36	5.42608E-001	4.00958E-004	0.00000E+000	2.17563E-004	2.40040E-001	5.42834E-001	3.57630E+000	9	...........
	27	0.373333	5.48537E-001	4.00669E-004	0.00000E+000	2.19782E-004	2.40040E-001	5.48714E-001	3.57630E+000	9	...........
	28	0.386667	5.54443E-001	4.00038E-004	0.00000E+000	2.21798E-004	2.40040E-001	5.54649E-001	3.57630E+000	9	...........
	29	0.4	5.60351E-001	4.01819E-004	0.00000E+000	2.25160E-004	2.40040E-001	5.60551E-001	3.57645E+000	9	...........
	30	0.413333	5.66237E-001	4.02205E-004	0.00000E+000	2.27743E-004	2.40040E-001	5.66446E-001	3.57750E+000	9	...........
	31	0.426667	5.72128E-001	4.00595E-004	0.00000E+000	2.29192E-004	2.40040E-001	5.72318E-001	3.57750E+000	9	...........
	32	0.44	5.78055E-001	4.01760E-004	0.00000E+000	2.32239E-004	2.40040E-001	5.78276E-001	3.57750E+000	9	...........
	33	0.453333	5.83833E-001	4.01865E-004	0.00000E+000	2.34622E-004	2.40040E-001	5.84048E-001	3.57750E+000	9	...........
	34	0.466667	5.89631E-001	3.99524E-004	0.00000E+000	2.35572E-004	2.40040E-001	5.89875E-001	3.57750E+000	9	...........
	35	0.48	5.95385E-001	4.01175E-004	0.00000E+000	2.38854E-004	2.40040E-001	5.95631E-001	3.57750E+000	9	...........
	36	0.493333	6.01109E-001	3.99419E-004	0.00000E+000	2.40094E-004	2.40040E-001	6.01358E-001	3.57750E+000	9	...........
	37	0.506667	6.06682E-001	4.00339E-004	0.00000E+000	2.42878E-004	2.40040E-001	6.06931E-001	3.57750E+000	9	...........
	38	0.52	6.12309E-001	4.00863E-004	0.00000E+000	2.45452E-004	2.40040E-001	6.12572E-001	3.57750E+000	9	...........
	39	0.533333	6.18059E-001	4.01336E-004	0.00000E+000	2.48049E-004	2.40040E-001	6.18277E-001	3.57750E+000	9	...........
	40	0.546667	6.23751E-001	4.00720E-004	0.00000E+000	2.49949E-004	2.40040E-001	6.23939E-001	3.57750E+000	9	...........
	41	0.56	6.29445E-001	4.01656E-004	0.00000E+000	2.52820E-004	2.40040E-001	6.29659E-001	3.57750E+000	9	...........
	42	0.573333	6.35152E-001	4.00372E-004	0.00000E+000	2.54297E-004	2.40040E-001	6.35364E-001	3.57750E+000	9	...........
	43	0.586667	6.40805E-001	4.01180E-004	0.00000E+000	2.57078E-004	2.40040E-001	6.41043E-001	3.57750E+000	9	...........
	44	0.6	6.46425E-001	4.00692E-004	0.00000E+000	2.59017E-004	2.40040E-001	6.46627E-001	3.57750E+000	9	...........
	45	0.613333	6.51967E-001	4.01960E-004	0.00000E+000	2.62065E-004	2.40040E-001	6.52196E-001	3.57750E+000	9	...........
	46	0.626667	6.57536E-001	4.00821E-004	0.00000E+000	2.63554E-004	2.40040E-001	6.57762E-001	3.57750E+000	9	...........
	47	0.64	6.63072E-001	4.00892E-004	0.00000E+000	2.65820E-004	2.40040E-001	6.63314E-001	3.57750E+000	9	...........
	48	0.653333	6.68601E-001	4.01868E-004	0.00000E+000	2.68689E-004	2.40040E-001	6.68804E-001	3.57750E+000	9	...........
	49	0.666667	6.74117E-001	4.00288E-004	0.00000E+000	2.69841E-004	2.40040E-001	6.74333E-001	3.57750E+000	9	...........
	50	0.68	6.79655E-001	4.02196E-004	0.00000E+000	2.73355E-004	2.40040E-001	6.79880E-001	3.57750E+000	9	...........
	51	0.693333	6.85162E-001	4.00947E-004	0.00000E+000	2.74714E-004	2.40040E-001	6.85389E-001	3.57750E+000	9	...........
	52	0.706667	6.90683E-001	4.01180E-004	0.00000E+000	2.77089E-004	2.40040E-001	6.90904E-001	3.57750E+000	9	...........
	53	0.72	6.96141E-001	4.00083E-004	0.00000E+000	2.78515E-004	2.40040E-001	6.96379E-001	3.57750E+000	9	...........
	54	0.733333	7.01574E-001	4.00873E-004	0.00000E+000	2.81242E-004	2.40040E-001	7.01805E-001	3.57750E+000	9	...........
	55	0.746667	7.07028E-001	4.00263E-004	0.00000E+000	2.82997E-004	2.40040E-001	7.07261E-001	3.57750E+000	9	...........
	56	0.76	7.12446E-001	3.99872E-004	0.00000E+000	2.84887E-004	2.40040E-001	7.12703E-001	3.57750E+000	9	...........
	57	0.773333	7.17865E-001	4.00768E-004	0.00000E+000	2.87697E-004	2.40040E-001	7.18119E-001	3.57750E+000	9	...........
	58	0.786667	7.23245E-001	4.01186E-004	0.00000E+000	2.90156E-004	2.40040E-001	7.23479E-001	3.57750E+000	9	...........
	59	0.8	7.28634E-001	4.01064E-004	0.00000E+000	2.92229E-004	2.40040E-001	7.28871E-001	3.57750E+000	9	...........
	60	0.813333	7.33980E-001	4.01507E-004	0.00000E+000	2.94698E-004	2.40040E-001	7.34210E-001	3.57750E+000	9	...........
	61	0.826667	7.39210E-001	4.00817E-004	0.00000E+000	2.96288E-004	2.40040E-001	7.39453E-001	3.57750E+000	9	...........
	62	0.84	7.44535E-001	4.00988E-004	0.00000E+000	2.98550E-004	2.40040E-001	7.44739E-001	3.57750E+000	9	...........
	63	0.853333	7.49757E-001	4.01250E-004	0.00000E+000	3.00840E-004	2.40040E-001	7.49937E-001	3.57750E+000	9	...........
	64	0.866667	7.55010E-001	4.01028E-004	0.00000E+000	3.02781E-004	2.40040E-001	7.55189E-001	3.57750E+000	9	...........
	65	0.88	7.60262E-001	4.00861E-004	0.00000E+000	3.04759E-004	2.40040E-001	7.60435E-001	3.57750E+000	9	...........
	66	0.893333	7.65424E-001	4.00979E-004	0.00000E+000	3.06919E-004	2.40040E-001	7.65659E-001	3.57750E+000	9	...........
	67	0.906667	7.70556E-001	4.00994E-004	0.00000E+000	3.08988E-004	2.40040E-001	7.70802E-001	3.57750E+000	9	...........
	68	0.92	7.75703E-001	4.00432E-004	0.00000E+000	3.10617E-004	2.40040E-001	7.75960E-001	3.57750E+000	9	...........
	69	0.933333	7.80893E-001	4.01062E-004	0.00000E+000	3.13186E-004	2.40040E-001	7.81167E-001	3.57750E+000	9	...........
	70	0.946667	7.86012E-001	4.01085E-004	0.00000E+000	3.15257E-004	2.40040E-001	7.86244E-001	3.57750E+000	9	...........
	71	0.96	7.91113E-001	4.01696E-004	0.00000E+000	3.17787E-004	2.40040E-001	7.91384E-001	3.57750E+000	9	...........
	72	0.97333	7.96183E-001	3.99599E-004	0.00000E+000	3.18154E-004	2.40040E-001	7.96429E-001	3.57750E+000	9	...........
	73	0.98667	8.01213E-001	4.00570E-004	0.00000E+000	3.20942E-004	2.40040E-001	8.01472E-001	3.57750E+000	9	...........
	74	1	8.06284E-001	4.00334E-004	0.00000E+000	3.22783E-004	2.40040E-001	8.06545E-001	3.57750E+000	9	...........
	75	1.01333	8.11230E-001	4.00755E-004	0.00000E+000	3.25105E-004	2.40040E-001	8.11501E-001	3.57750E+000	9	...........
	76	1.02667	8.16172E-001	4.00648E-004	0.00000E+000	3.26998E-004	2.40040E-001	8.16451E-001	3.57750E+000	9	...........
	77	1.04	8.21149E-001	4.01663E-004	0.00000E+000	3.29825E-004	2.40040E-001	8.21431E-001	3.57750E+000	9	...........
	78	1.05333	8.26025E-001	4.01488E-004	0.00000E+000	3.31639E-004	2.40040E-001	8.26302E-001	3.57750E+000	9	...........
	79	1.06667	8.30935E-001	4.01119E-004	0.00000E+000	3.33304E-004	2.40040E-001	8.31226E-001	3.57750E+000	9	...........
	80	1.08	8.35788E-001	4.00651E-004	0.00000E+000	3.34859E-004	2.40040E-001	8.36101E-001	3.57750E+000	9	...........
	81	1.09333	8.40553E-001	4.00771E-004	0.00000E+000	3.36869E-004	2.40040E-001	8.40855E-001	3.57750E+000	9	...........
	82	1.10667	8.45283E-001	4.00444E-004	0.00000E+000	3.38488E-004	2.40040E-001	8.45591E-001	3.57750E+000	9	...........
	83	1.12	8.50081E-001	4.00199E-004	0.00000E+000	3.40201E-004	2.40040E-001	8.50362E-001	3.57750E+000	9	...........
	84	1.13333	8.54794E-001	4.00295E-004	0.00000E+000	3.42169E-004	2.40040E-001	8.55079E-001	3.57750E+000	9	...........
	85	1.14667	8.59435E-001	4.00733E-004	0.00000E+000	3.44405E-004	2.40040E-001	8.59762E-001	3.57750E+000	9	...........
	86	1.16	8.64058E-001	4.01395E-004	0.00000E+000	3.46829E-004	2.40040E-001	8.64357E-001	3.57750E+000	9	...........
	87	1.17333	8.68656E-001	4.02086E-004	0.00000E+000	3.49274E-004	2.40040E-001	8.68971E-001	3.57750E+000	9	...........
	88	1.18667	8.73225E-001	4.00824E-004	0.00000E+000	3.50010E-004	2.40040E-001	8.73542E-001	3.57750E+000	9	...........
	89	1.2	8.77808E-001	4.01285E-004	0.00000E+000	3.52251E-004	2.40040E-001	8.78107E-001	3.57750E+000	9	...........
	90	1.21333	8.82349E-001	4.00358E-004	0.00000E+000	3.53256E-004	2.40040E-001	8.82666E-001	3.57750E+000	9	...........
	91	1.22667	8.86762E-001	4.00971E-004	0.00000E+000	3.55566E-004	2.40040E-001	8.87109E-001	3.57750E+000	9	...........
	92	1.24	8.91161E-001	4.00321E-004	0.00000E+000	3.56750E-004	2.40040E-001	8.91456E-001	3.57750E+000	9	...........
	93	1.25333	8.95526E-001	4.00913E-004	0.00000E+000	3.59028E-004	2.40040E-001	8.95838E-001	3.57750E+000	9	...........
	94	1.26667	8.99878E-001	4.01839E-004	0.00000E+000	3.61606E-004	2.40040E-001	9.00215E-001	3.57750E+000	9	...........
	95	1.28	9.04232E-001	4.01822E-004	0.00000E+000	3.63340E-004	2.40040E-001	9.04565E-001	3.57750E+000	9	...........
	96	1.29333	9.08576E-001	4.01348E-004	0.00000E+000	3.64655E-004	2.40040E-001	9.08909E-001	3.57750E+000	9	...........
	97	1.30667	9.12838E-001	4.01002E-004	0.00000E+000	3.66050E-004	2.40040E-001	9.13142E-001	3.57750E+000	9	...........
	98	1.32	9.17019E-001	4.00820E-004	0.00000E+000	3.67560E-004	2.40040E-001	9.17320E-001	3.57750E+000	9	...........
	99	1.33333	9.21343E-001	4.00867E-004	0.00000E+000	3.69336E-004	2.40040E-001	9.21609E-001	3.57750E+000	9	...........
	100	1.34667	9.25508E-001	4.02024E-004	0.00000E+000	3.72077E-004	2.40040E-001	9.25770E-001	3.57750E+000	9	...........
	101	1.36	9.29619E-001	4.01981E-004	0.00000E+000	3.73689E-004	2.40040E-001	9.29882E-001	3.57750E+000	9	...........
	102	1.37333	9.33723E-001	4.00301E-004	0.00000E+000	3.73770E-004	2.40040E-001	9.34002E-001	3.57750E+000	9	...........
	103	1.38667	9.37772E-001	4.01399E-004	0.00000E+000	3.76421E-004	2.40040E-001	9.38071E-001	3.57750E+000	9	...........
	104	1.4	9.41828E-001	4.01638E-004	0.00000E+000	3.78274E-004	2.40040E-001	9.42106E-001	3.57736E+000	9	...........
	105	1.41333	9.45909E-001	4.00320E-004	0.00000E+000	3.78666E-004	2.40040E-001	9.46185E-001	3.57640E+000	9	...........
	106	1.42667	9.49933E-001	4.02760E-004	0.00000E+000	3.82595E-004	2.40040E-001	9.50223E-001	3.57640E+000	9	...........
	107	1.44	9.53831E-001	4.00495E-004	0.00000E+000	3.82005E-004	2.40040E-001	9.54123E-001	3.57640E+000	9	...........
	108	1.45333	9.57732E-001	4.00467E-004	0.00000E+000	3.83540E-004	2.40040E-001	9.58011E-001	3.57640E+000	9	...........
	109	1.46667	9.61576E-001	4.01701E-004	0.00000E+000	3.86266E-004	2.40040E-001	9.61873E-001	3.57640E+000	9	...........
	110	1.48	9.65376E-001	4.00711E-004	0.00000E+000	3.86836E-004	2.40040E-001	9.65686E-001	3.57640E+000	9	...........
	111	1.49333	9.69095E-001	4.00668E-004	0.00000E+000	3.88285E-004	2.40040E-001	9.69409E-001	3.57640E+000	9	...........
	112	1.50667	9.72827E-001	4.00114E-004	0.00000E+000	3.89241E-004	2.40040E-001	9.73119E-001	3.57640E+000	9	...........
	113	1.52	9.76540E-001	4.01587E-004	0.00000E+000	3.92166E-004	2.40040E-001	9.76825E-001	3.57640E+000	9	...........
	114	1.53333	9.80245E-001	4.00898E-004	0.00000E+000	3.92978E-004	2.40040E-001	9.80510E-001	3.57640E+000	9	...........
	115	1.54667	9.83858E-001	4.00953E-004	0.00000E+000	3.94481E-004	2.40040E-001	9.84151E-001	3.57640E+000	9	...........
	116	1.56	9.87464E-001	4.00468E-004	0.00000E+000	3.95448E-004	2.40040E-001	9.87766E-001	3.57640E+000	9	...........
	117	1.57333	9.91024E-001	4.01095E-004	0.00000E+000	3.97495E-004	2.40040E-001	9.91314E-001	3.57640E+000	9	...........
	118	1.58667	9.94521E-001	4.00831E-004	0.00000E+000	3.98636E-004	2.40040E-001	9.94797E-001	3.57640E+000	9	...........
	119	1.6	9.97983E-001	4.01312E-004	0.00000E+000	4.00502E-004	2.40040E-001	9.98269E-001	3.57640E+000	9	...........
	120	1.60333	1.00011E+000	3.99740E-004	0.00000E+000	3.99782E-004	2.40040E-001	1.00038E+000	3.57640E+000	9	...........
STARTTIMEOFFSET	QUANT	1330.242	Start Time Offset (s)
