EXPLAIN
TAG	PWR800_CHARGE
TITLE	LABEL	PWR Cyclic Charge Discharge (Cell) - Charge Step	Test &Identifier
DATE	LABEL	12-7-2017	Date
TIME	LABEL	14:37:19	Time
NOTES	NOTES	3	&Notes...
	supercap test cell
	0.4mg
	6M KOH
PSTAT	PSTAT	IFC5000-01520	Potentiostat
CAPACITY	QUANT	1.00000E-003	Capacity (A-hr)
CELLTYPE	SELECTOR	1	&Cell Type
WORKINGCONNECTION	SELECTOR	0	&Working Lead
MAXCHARGETIME	VARIABLEANDUNITS	1.00000E+002	s	1.00000E+002	second(s)	Max &Charge Time
CHARGECURRENT	QUANT	4.00000E-004	&Charge Current (A) 
VOLTAGEFINISH	TWOPARAM	F	1.00000E-003	3.60000E+003	&Voltage Finish	 I (A) < 	Max Time(s)
SAMPLETIME	QUANT	1.00000E-002	Sa&mple Period (s)
CHARGESTOPAT1	MULTIPARAM	4	1.00000E+000	Charge Stop At &1	Voltage > Limit	V
CHARGESTOPAT2	MULTIPARAM	0	0.00000E+000	Charge Stop At &2	None	N/A
AESBHCSELECTOR	TOGGLE	F	Save Both Half Cells
IRCOMP	TOGGLE	F	IR &Measure
EOC	QUANT	0	Open Circuit (V)
SEQUENCER	TOGGLE	TRUE	Run as Sequence
PSTATMODEL	IQUANT	53	Pstat Model
PSTATSECTION	LABEL	IFC5000-01520	Pstat Section
PSTATSERIALNO	LABEL	01520	Pstat Serial Number
CTRLMODE	IQUANT	0	Control Mode
ELECTROMETER	IQUANT	1	RE=0 or CS=1
IESTAB	IQUANT	0	I/E Stability
CASPEED	IQUANT	4	Control Amp Speed
CONVENTION	IQUANT	1	Current Convention
ICHRANGE	IQUANT	2	Ich Range
ICHRANGEMODE	TOGGLE	T	Ich Auto Range
ICHOFFSETENABLE	TOGGLE	F	Ich Offset Enable
ICHOFFSET	QUANT	0	Ich Offset (V)
ICHFILTER	IQUANT	1	Ich Filter
VCHRANGE	IQUANT	2	Vch Range
VCHRANGEMODE	TOGGLE	T	Vch Auto Range
VCHOFFSETENABLE	TOGGLE	F	Vch Offset Enable
VCHOFFSET	QUANT	0	Vch Offset (V)
VCHFILTER	IQUANT	1	Vch Filter
IERANGELOWERLIMIT	IQUANT	9	I/E Range Lower Limit
IERANGEMODE	TOGGLE	F	I/E AutoRange
IERANGE	IQUANT	9	I/E Range
ACHSELECT	IQUANT	1	Ach Select
ACHRANGE	IQUANT	2	Ach Range
ACHOFFSETENABLE	TOGGLE	F	Ach Offset Enable
ACHOFFSET	QUANT	0	Ach Offset (V)
ACHFILTER	IQUANT	1	Ach Filter
CABLEID	IQUANT	14	Cable ID
DCCALDATE	LABEL	5-7-2017	DC Calibration Date
ACCALDATE	LABEL	12/3/2015	AC Calibration Date
FRAMEWORKVERSION	QUANT	7.01	Framework Version
INSTRUMENTVERSION	LABEL	4.00	Instrument Version
CURVE	TABLE	127
	Pt	T	Vf	Im	Vu	Pwr	Sig	Ach	Temp	IERange	Over
	#	s	V	A	V	W	V	V	deg C	#	bits
	0	0.013333	3.47852E-001	4.01085E-004	0.00000E+000	1.39518E-004	2.40040E-001	3.47931E-001	3.57670E+000	9	...........
	1	0.026667	3.58602E-001	4.01732E-004	0.00000E+000	1.44062E-004	2.40040E-001	3.58673E-001	3.57670E+000	9	...........
	2	0.04	3.67858E-001	4.01390E-004	0.00000E+000	1.47654E-004	2.40040E-001	3.67935E-001	3.57670E+000	9	...........
	3	0.053333	3.76283E-001	4.00939E-004	0.00000E+000	1.50866E-004	2.40040E-001	3.76360E-001	3.57670E+000	9	...........
	4	0.066667	3.84252E-001	4.01775E-004	0.00000E+000	1.54383E-004	2.40040E-001	3.84324E-001	3.57670E+000	9	...........
	5	0.08	3.91797E-001	3.99999E-004	0.00000E+000	1.56718E-004	2.40040E-001	3.91875E-001	3.57670E+000	9	...........
	6	0.093333	3.99147E-001	4.01061E-004	0.00000E+000	1.60082E-004	2.40040E-001	3.99228E-001	3.57670E+000	9	...........
	7	0.106667	4.06309E-001	4.01821E-004	0.00000E+000	1.63264E-004	2.40040E-001	4.06390E-001	3.57670E+000	9	...........
	8	0.12	4.13272E-001	4.00990E-004	0.00000E+000	1.65718E-004	2.40040E-001	4.13357E-001	3.57670E+000	9	...........
	9	0.133333	4.19980E-001	4.02639E-004	0.00000E+000	1.69100E-004	2.40040E-001	4.20064E-001	3.57670E+000	9	...........
	10	0.146667	4.26634E-001	4.01262E-004	0.00000E+000	1.71192E-004	2.40040E-001	4.26726E-001	3.57670E+000	9	...........
	11	0.16	4.33164E-001	4.01882E-004	0.00000E+000	1.74081E-004	2.40040E-001	4.33251E-001	3.57670E+000	9	...........
	12	0.173333	4.39660E-001	4.02316E-004	0.00000E+000	1.76882E-004	2.40040E-001	4.39755E-001	3.57670E+000	9	...........
	13	0.186667	4.46036E-001	3.99686E-004	0.00000E+000	1.78274E-004	2.40040E-001	4.46135E-001	3.57670E+000	9	...........
	14	0.2	4.52356E-001	4.00920E-004	0.00000E+000	1.81359E-004	2.40040E-001	4.52452E-001	3.57670E+000	9	...........
	15	0.213333	4.58618E-001	4.01862E-004	0.00000E+000	1.84301E-004	2.40040E-001	4.58713E-001	3.57670E+000	9	...........
	16	0.226667	4.64810E-001	4.00535E-004	0.00000E+000	1.86173E-004	2.40040E-001	4.64901E-001	3.57670E+000	9	...........
	17	0.24	4.70937E-001	4.00527E-004	0.00000E+000	1.88623E-004	2.40040E-001	4.71035E-001	3.57670E+000	9	...........
	18	0.253333	4.76985E-001	4.00308E-004	0.00000E+000	1.90941E-004	2.40040E-001	4.77078E-001	3.57670E+000	9	...........
	19	0.266667	4.83039E-001	4.01148E-004	0.00000E+000	1.93770E-004	2.40040E-001	4.83132E-001	3.57670E+000	9	...........
	20	0.28	4.89026E-001	4.00836E-004	0.00000E+000	1.96019E-004	2.40040E-001	4.89123E-001	3.57670E+000	9	...........
	21	0.293333	4.94992E-001	4.00479E-004	0.00000E+000	1.98234E-004	2.40040E-001	4.95088E-001	3.57670E+000	9	...........
	22	0.306667	5.00804E-001	4.01442E-004	0.00000E+000	2.01044E-004	2.40040E-001	5.00908E-001	3.57670E+000	9	...........
	23	0.32	5.06615E-001	4.00369E-004	0.00000E+000	2.02833E-004	2.40040E-001	5.06722E-001	3.57670E+000	9	...........
	24	0.333333	5.12491E-001	4.00920E-004	0.00000E+000	2.05468E-004	2.40040E-001	5.12591E-001	3.57670E+000	9	...........
	25	0.346667	5.18311E-001	4.00232E-004	0.00000E+000	2.07445E-004	2.40040E-001	5.18418E-001	3.57670E+000	9	...........
	26	0.36	5.23983E-001	4.00711E-004	0.00000E+000	2.09966E-004	2.40040E-001	5.24096E-001	3.57670E+000	9	...........
	27	0.373333	5.29694E-001	4.00705E-004	0.00000E+000	2.12251E-004	2.40040E-001	5.29803E-001	3.57670E+000	9	...........
	28	0.386667	5.35249E-001	4.00464E-004	0.00000E+000	2.14348E-004	2.40040E-001	5.35383E-001	3.57670E+000	9	...........
	29	0.4	5.40968E-001	4.01111E-004	0.00000E+000	2.16988E-004	2.40040E-001	5.41149E-001	3.57670E+000	9	...........
	30	0.413333	5.46606E-001	4.01088E-004	0.00000E+000	2.19237E-004	2.40040E-001	5.46780E-001	3.57670E+000	9	...........
	31	0.426667	5.52197E-001	4.00899E-004	0.00000E+000	2.21375E-004	2.40040E-001	5.52410E-001	3.57670E+000	9	...........
	32	0.44	5.57840E-001	4.01153E-004	0.00000E+000	2.23779E-004	2.40040E-001	5.58059E-001	3.57670E+000	9	...........
	33	0.453333	5.63550E-001	4.01749E-004	0.00000E+000	2.26406E-004	2.40040E-001	5.63770E-001	3.57670E+000	9	...........
	34	0.466667	5.69157E-001	4.03035E-004	0.00000E+000	2.29390E-004	2.40040E-001	5.69382E-001	3.57670E+000	9	...........
	35	0.48	5.74793E-001	4.00905E-004	0.00000E+000	2.30437E-004	2.40040E-001	5.75001E-001	3.57670E+000	9	...........
	36	0.493333	5.80422E-001	4.02713E-004	0.00000E+000	2.33744E-004	2.40040E-001	5.80621E-001	3.57670E+000	9	...........
	37	0.506667	5.85988E-001	4.01251E-004	0.00000E+000	2.35128E-004	2.40040E-001	5.86212E-001	3.57670E+000	9	...........
	38	0.52	5.91505E-001	4.00599E-004	0.00000E+000	2.36956E-004	2.40040E-001	5.91722E-001	3.57670E+000	9	...........
	39	0.533333	5.96951E-001	4.01496E-004	0.00000E+000	2.39673E-004	2.40040E-001	5.97180E-001	3.57670E+000	9	...........
	40	0.546667	6.02324E-001	4.00059E-004	0.00000E+000	2.40965E-004	2.40040E-001	6.02583E-001	3.57670E+000	9	...........
	41	0.56	6.07792E-001	4.00676E-004	0.00000E+000	2.43528E-004	2.40040E-001	6.08073E-001	3.57670E+000	9	...........
	42	0.573333	6.13361E-001	4.01599E-004	0.00000E+000	2.46325E-004	2.40040E-001	6.13618E-001	3.57670E+000	9	...........
	43	0.586667	6.18845E-001	4.00960E-004	0.00000E+000	2.48132E-004	2.40040E-001	6.19056E-001	3.57670E+000	9	...........
	44	0.6	6.24238E-001	4.02043E-004	0.00000E+000	2.50971E-004	2.40040E-001	6.24461E-001	3.57670E+000	9	...........
	45	0.613333	6.29609E-001	4.00946E-004	0.00000E+000	2.52439E-004	2.40040E-001	6.29829E-001	3.57670E+000	9	...........
	46	0.626667	6.34981E-001	4.00395E-004	0.00000E+000	2.54243E-004	2.40040E-001	6.35223E-001	3.57670E+000	9	...........
	47	0.64	6.40353E-001	4.01093E-004	0.00000E+000	2.56841E-004	2.40040E-001	6.40594E-001	3.57670E+000	9	...........
	48	0.653333	6.45780E-001	4.01386E-004	0.00000E+000	2.59207E-004	2.40040E-001	6.46022E-001	3.57670E+000	9	...........
	49	0.666667	6.51103E-001	4.01546E-004	0.00000E+000	2.61448E-004	2.40040E-001	6.51348E-001	3.57670E+000	9	...........
	50	0.68	6.56442E-001	4.00846E-004	0.00000E+000	2.63132E-004	2.40040E-001	6.56684E-001	3.57670E+000	9	...........
	51	0.693333	6.61792E-001	4.01236E-004	0.00000E+000	2.65535E-004	2.40040E-001	6.62044E-001	3.57670E+000	9	...........
	52	0.706667	6.67107E-001	4.00649E-004	0.00000E+000	2.67276E-004	2.40040E-001	6.67335E-001	3.57670E+000	9	...........
	53	0.72	6.72367E-001	4.01833E-004	0.00000E+000	2.70179E-004	2.40040E-001	6.72588E-001	3.57670E+000	9	...........
	54	0.733333	6.77639E-001	4.00359E-004	0.00000E+000	2.71299E-004	2.40040E-001	6.77869E-001	3.57670E+000	9	...........
	55	0.746667	6.82935E-001	4.00389E-004	0.00000E+000	2.73439E-004	2.40040E-001	6.83154E-001	3.57670E+000	9	...........
	56	0.76	6.88201E-001	4.01165E-004	0.00000E+000	2.76082E-004	2.40040E-001	6.88444E-001	3.57670E+000	9	...........
	57	0.773333	6.93485E-001	4.01800E-004	0.00000E+000	2.78643E-004	2.40040E-001	6.93718E-001	3.57670E+000	9	...........
	58	0.786667	6.98712E-001	4.00243E-004	0.00000E+000	2.79654E-004	2.40040E-001	6.98964E-001	3.57670E+000	9	...........
	59	0.8	7.03944E-001	4.02208E-004	0.00000E+000	2.83132E-004	2.40040E-001	7.04179E-001	3.57670E+000	9	...........
	60	0.813333	7.09194E-001	4.00299E-004	0.00000E+000	2.83890E-004	2.40040E-001	7.09429E-001	3.57670E+000	9	...........
	61	0.826667	7.14299E-001	4.01203E-004	0.00000E+000	2.86579E-004	2.40040E-001	7.14570E-001	3.57670E+000	9	...........
	62	0.84	7.19549E-001	4.00975E-004	0.00000E+000	2.88521E-004	2.40040E-001	7.19770E-001	3.57670E+000	9	...........
	63	0.853333	7.24733E-001	4.00478E-004	0.00000E+000	2.90240E-004	2.40040E-001	7.24928E-001	3.57670E+000	9	...........
	64	0.866667	7.29789E-001	4.01010E-004	0.00000E+000	2.92652E-004	2.40040E-001	7.30050E-001	3.57670E+000	9	...........
	65	0.88	7.34893E-001	4.01845E-004	0.00000E+000	2.95313E-004	2.40040E-001	7.35135E-001	3.57670E+000	9	...........
	66	0.893333	7.40065E-001	4.00164E-004	0.00000E+000	2.96147E-004	2.40040E-001	7.40330E-001	3.57670E+000	9	...........
	67	0.906667	7.45221E-001	4.01773E-004	0.00000E+000	2.99410E-004	2.40040E-001	7.45476E-001	3.57670E+000	9	...........
	68	0.92	7.50361E-001	4.02486E-004	0.00000E+000	3.02010E-004	2.40040E-001	7.50590E-001	3.57670E+000	9	...........
	69	0.933333	7.55453E-001	4.00517E-004	0.00000E+000	3.02572E-004	2.40040E-001	7.55661E-001	3.57670E+000	9	...........
	70	0.946667	7.60395E-001	4.00772E-004	0.00000E+000	3.04745E-004	2.40040E-001	7.60626E-001	3.57670E+000	9	...........
	71	0.96	7.65423E-001	4.00315E-004	0.00000E+000	3.06410E-004	2.40040E-001	7.65650E-001	3.57670E+000	9	...........
	72	0.97333	7.70499E-001	4.00174E-004	0.00000E+000	3.08334E-004	2.40040E-001	7.70741E-001	3.57670E+000	9	...........
	73	0.98667	7.75544E-001	4.01739E-004	0.00000E+000	3.11566E-004	2.40040E-001	7.75790E-001	3.57670E+000	9	...........
	74	1	7.80536E-001	4.00720E-004	0.00000E+000	3.12776E-004	2.40040E-001	7.80804E-001	3.57670E+000	9	...........
	75	1.01333	7.85496E-001	4.00345E-004	0.00000E+000	3.14469E-004	2.40040E-001	7.85722E-001	3.57670E+000	9	...........
	76	1.02667	7.90420E-001	4.01625E-004	0.00000E+000	3.17453E-004	2.40040E-001	7.90664E-001	3.57670E+000	9	...........
	77	1.04	7.95370E-001	4.01133E-004	0.00000E+000	3.19049E-004	2.40040E-001	7.95597E-001	3.57670E+000	9	...........
	78	1.05333	8.00181E-001	4.01746E-004	0.00000E+000	3.21470E-004	2.40040E-001	8.00413E-001	3.57670E+000	9	...........
	79	1.06667	8.04996E-001	4.01439E-004	0.00000E+000	3.23157E-004	2.40040E-001	8.05258E-001	3.57670E+000	9	...........
	80	1.08	8.09766E-001	4.00392E-004	0.00000E+000	3.24224E-004	2.40040E-001	8.10022E-001	3.57670E+000	9	...........
	81	1.09333	8.14614E-001	4.01852E-004	0.00000E+000	3.27355E-004	2.40040E-001	8.14851E-001	3.57670E+000	9	...........
	82	1.10667	8.19347E-001	4.00785E-004	0.00000E+000	3.28382E-004	2.40040E-001	8.19566E-001	3.57670E+000	9	...........
	83	1.12	8.24061E-001	4.01303E-004	0.00000E+000	3.30699E-004	2.40040E-001	8.24317E-001	3.57670E+000	9	...........
	84	1.13333	8.28837E-001	4.01581E-004	0.00000E+000	3.32845E-004	2.40040E-001	8.29063E-001	3.57670E+000	9	...........
	85	1.14667	8.33551E-001	4.00234E-004	0.00000E+000	3.33616E-004	2.40040E-001	8.33792E-001	3.57670E+000	9	...........
	86	1.16	8.38202E-001	4.00104E-004	0.00000E+000	3.35368E-004	2.40040E-001	8.38465E-001	3.57670E+000	9	...........
	87	1.17333	8.42848E-001	4.01717E-004	0.00000E+000	3.38586E-004	2.40040E-001	8.43094E-001	3.57670E+000	9	...........
	88	1.18667	8.47431E-001	4.00647E-004	0.00000E+000	3.39521E-004	2.40040E-001	8.47697E-001	3.57670E+000	9	...........
	89	1.2	8.52025E-001	4.02133E-004	0.00000E+000	3.42627E-004	2.40040E-001	8.52287E-001	3.57670E+000	9	...........
	90	1.21333	8.56539E-001	4.00805E-004	0.00000E+000	3.43306E-004	2.40040E-001	8.56843E-001	3.57670E+000	9	...........
	91	1.22667	8.61086E-001	4.00800E-004	0.00000E+000	3.45123E-004	2.40040E-001	8.61392E-001	3.57670E+000	9	...........
	92	1.24	8.65500E-001	4.01991E-004	0.00000E+000	3.47923E-004	2.40040E-001	8.65812E-001	3.57670E+000	9	...........
	93	1.25333	8.70003E-001	4.01317E-004	0.00000E+000	3.49147E-004	2.40040E-001	8.70319E-001	3.57670E+000	9	...........
	94	1.26667	8.74405E-001	4.01494E-004	0.00000E+000	3.51068E-004	2.40040E-001	8.74742E-001	3.57670E+000	9	...........
	95	1.28	8.78787E-001	4.01712E-004	0.00000E+000	3.53019E-004	2.40040E-001	8.79101E-001	3.57670E+000	9	...........
	96	1.29333	8.83168E-001	4.02283E-004	0.00000E+000	3.55283E-004	2.40040E-001	8.83473E-001	3.57670E+000	9	...........
	97	1.30667	8.87521E-001	4.01235E-004	0.00000E+000	3.56104E-004	2.40040E-001	8.87824E-001	3.57670E+000	9	...........
	98	1.32	8.91906E-001	4.00721E-004	0.00000E+000	3.57406E-004	2.40040E-001	8.92190E-001	3.57670E+000	9	...........
	99	1.33333	8.96195E-001	4.02807E-004	0.00000E+000	3.60994E-004	2.40040E-001	8.96494E-001	3.57670E+000	9	...........
	100	1.34667	9.00387E-001	4.00463E-004	0.00000E+000	3.60571E-004	2.40040E-001	9.00699E-001	3.57670E+000	9	...........
	101	1.36	9.04594E-001	4.00809E-004	0.00000E+000	3.62569E-004	2.40040E-001	9.04925E-001	3.57670E+000	9	...........
	102	1.37333	9.08831E-001	4.00818E-004	0.00000E+000	3.64276E-004	2.40040E-001	9.09140E-001	3.57670E+000	9	...........
	103	1.38667	9.12944E-001	4.01600E-004	0.00000E+000	3.66639E-004	2.40040E-001	9.13247E-001	3.57670E+000	9	...........
	104	1.4	9.17068E-001	4.00000E-004	0.00000E+000	3.66827E-004	2.40040E-001	9.17387E-001	3.57670E+000	9	...........
	105	1.41333	9.21222E-001	4.02307E-004	0.00000E+000	3.70614E-004	2.40040E-001	9.21508E-001	3.57670E+000	9	...........
	106	1.42667	9.25293E-001	4.00290E-004	0.00000E+000	3.70385E-004	2.40040E-001	9.25565E-001	3.57670E+000	9	...........
	107	1.44	9.29336E-001	4.01143E-004	0.00000E+000	3.72797E-004	2.40040E-001	9.29629E-001	3.57670E+000	9	...........
	108	1.45333	9.33336E-001	4.01909E-004	0.00000E+000	3.75116E-004	2.40040E-001	9.33585E-001	3.57625E+000	9	...........
	109	1.46667	9.37309E-001	4.01025E-004	0.00000E+000	3.75885E-004	2.40040E-001	9.37614E-001	3.57600E+000	9	...........
	110	1.48	9.41217E-001	4.00581E-004	0.00000E+000	3.77034E-004	2.40040E-001	9.41501E-001	3.57600E+000	9	...........
	111	1.49333	9.45044E-001	4.01175E-004	0.00000E+000	3.79128E-004	2.40040E-001	9.45361E-001	3.57600E+000	9	...........
	112	1.50667	9.48965E-001	4.01109E-004	0.00000E+000	3.80638E-004	2.40040E-001	9.49251E-001	3.57600E+000	9	...........
	113	1.52	9.52772E-001	4.01438E-004	0.00000E+000	3.82479E-004	2.40040E-001	9.53058E-001	3.57600E+000	9	...........
	114	1.53333	9.56496E-001	3.99709E-004	0.00000E+000	3.82320E-004	2.40040E-001	9.56766E-001	3.57600E+000	9	...........
	115	1.54667	9.60246E-001	4.00600E-004	0.00000E+000	3.84675E-004	2.40040E-001	9.60508E-001	3.57600E+000	9	...........
	116	1.56	9.63949E-001	4.01295E-004	0.00000E+000	3.86828E-004	2.40040E-001	9.64236E-001	3.57600E+000	9	...........
	117	1.57333	9.67589E-001	3.99961E-004	0.00000E+000	3.86998E-004	2.40040E-001	9.67909E-001	3.57600E+000	9	...........
	118	1.58667	9.71193E-001	4.00757E-004	0.00000E+000	3.89213E-004	2.40040E-001	9.71525E-001	3.57600E+000	9	...........
	119	1.6	9.74832E-001	4.00703E-004	0.00000E+000	3.90618E-004	2.40040E-001	9.75143E-001	3.57600E+000	9	...........
	120	1.61333	9.78383E-001	4.00439E-004	0.00000E+000	3.91782E-004	2.40040E-001	9.78686E-001	3.57600E+000	9	...........
	121	1.62667	9.81924E-001	4.00341E-004	0.00000E+000	3.93104E-004	2.40040E-001	9.82238E-001	3.57600E+000	9	...........
	122	1.64	9.85369E-001	4.01425E-004	0.00000E+000	3.95552E-004	2.40040E-001	9.85709E-001	3.57600E+000	9	...........
	123	1.65333	9.88818E-001	4.01374E-004	0.00000E+000	3.96886E-004	2.40040E-001	9.89156E-001	3.57600E+000	9	...........
	124	1.66667	9.92256E-001	4.02144E-004	0.00000E+000	3.99030E-004	2.40040E-001	9.92589E-001	3.57600E+000	9	...........
	125	1.68	9.95683E-001	4.00328E-004	0.00000E+000	3.98600E-004	2.40040E-001	9.96012E-001	3.57600E+000	9	...........
	126	1.69167	9.98846E-001	4.01368E-004	0.00000E+000	4.00905E-004	2.40040E-001	9.99167E-001	3.57600E+000	9	...........
STARTTIMEOFFSET	QUANT	899.8718	Start Time Offset (s)
