EXPLAIN
TAG	PWR800_CHARGE
TITLE	LABEL	PWR Cyclic Charge Discharge (Cell) - Charge Step	Test &Identifier
DATE	LABEL	12-7-2017	Date
TIME	LABEL	15:10:30	Time
NOTES	NOTES	3	&Notes...
	supercap test cell
	0.4mg
	6M KOH
PSTAT	PSTAT	IFC5000-01520	Potentiostat
CAPACITY	QUANT	1.00000E-003	Capacity (A-hr)
CELLTYPE	SELECTOR	1	&Cell Type
WORKINGCONNECTION	SELECTOR	0	&Working Lead
MAXCHARGETIME	VARIABLEANDUNITS	1.00000E+002	s	1.00000E+002	second(s)	Max &Charge Time
CHARGECURRENT	QUANT	4.00000E-004	&Charge Current (A) 
VOLTAGEFINISH	TWOPARAM	F	1.00000E-003	3.60000E+003	&Voltage Finish	 I (A) < 	Max Time(s)
SAMPLETIME	QUANT	1.00000E-002	Sa&mple Period (s)
CHARGESTOPAT1	MULTIPARAM	4	1.00000E+000	Charge Stop At &1	Voltage > Limit	V
CHARGESTOPAT2	MULTIPARAM	0	0.00000E+000	Charge Stop At &2	None	N/A
AESBHCSELECTOR	TOGGLE	F	Save Both Half Cells
IRCOMP	TOGGLE	F	IR &Measure
EOC	QUANT	0	Open Circuit (V)
SEQUENCER	TOGGLE	TRUE	Run as Sequence
PSTATMODEL	IQUANT	53	Pstat Model
PSTATSECTION	LABEL	IFC5000-01520	Pstat Section
PSTATSERIALNO	LABEL	01520	Pstat Serial Number
CTRLMODE	IQUANT	0	Control Mode
ELECTROMETER	IQUANT	1	RE=0 or CS=1
IESTAB	IQUANT	0	I/E Stability
CASPEED	IQUANT	4	Control Amp Speed
CONVENTION	IQUANT	1	Current Convention
ICHRANGE	IQUANT	2	Ich Range
ICHRANGEMODE	TOGGLE	T	Ich Auto Range
ICHOFFSETENABLE	TOGGLE	F	Ich Offset Enable
ICHOFFSET	QUANT	0	Ich Offset (V)
ICHFILTER	IQUANT	1	Ich Filter
VCHRANGE	IQUANT	2	Vch Range
VCHRANGEMODE	TOGGLE	T	Vch Auto Range
VCHOFFSETENABLE	TOGGLE	F	Vch Offset Enable
VCHOFFSET	QUANT	0	Vch Offset (V)
VCHFILTER	IQUANT	1	Vch Filter
IERANGELOWERLIMIT	IQUANT	9	I/E Range Lower Limit
IERANGEMODE	TOGGLE	F	I/E AutoRange
IERANGE	IQUANT	9	I/E Range
ACHSELECT	IQUANT	1	Ach Select
ACHRANGE	IQUANT	2	Ach Range
ACHOFFSETENABLE	TOGGLE	F	Ach Offset Enable
ACHOFFSET	QUANT	0	Ach Offset (V)
ACHFILTER	IQUANT	1	Ach Filter
CABLEID	IQUANT	14	Cable ID
DCCALDATE	LABEL	5-7-2017	DC Calibration Date
ACCALDATE	LABEL	12/3/2015	AC Calibration Date
FRAMEWORKVERSION	QUANT	7.01	Framework Version
INSTRUMENTVERSION	LABEL	4.00	Instrument Version
CURVE	TABLE	109
	Pt	T	Vf	Im	Vu	Pwr	Sig	Ach	Temp	IERange	Over
	#	s	V	A	V	W	V	V	deg C	#	bits
	0	0.013333	3.82532E-001	4.01589E-004	0.00000E+000	1.53620E-004	2.40040E-001	3.82610E-001	3.57680E+000	9	...........
	1	0.026667	3.95032E-001	4.01225E-004	0.00000E+000	1.58497E-004	2.40040E-001	3.95104E-001	3.57680E+000	9	...........
	2	0.04	4.05745E-001	4.00905E-004	0.00000E+000	1.62665E-004	2.40040E-001	4.05815E-001	3.57680E+000	9	...........
	3	0.053333	4.15425E-001	4.00604E-004	0.00000E+000	1.66421E-004	2.40040E-001	4.15506E-001	3.57680E+000	9	...........
	4	0.066667	4.24437E-001	4.00718E-004	0.00000E+000	1.70079E-004	2.40040E-001	4.24522E-001	3.57680E+000	9	...........
	5	0.08	4.32910E-001	4.00968E-004	0.00000E+000	1.73583E-004	2.40040E-001	4.32995E-001	3.57680E+000	9	...........
	6	0.093333	4.41053E-001	4.00645E-004	0.00000E+000	1.76706E-004	2.40040E-001	4.41144E-001	3.57680E+000	9	...........
	7	0.106667	4.49030E-001	4.01217E-004	0.00000E+000	1.80158E-004	2.40040E-001	4.49121E-001	3.57680E+000	9	...........
	8	0.12	4.56737E-001	4.01132E-004	0.00000E+000	1.83212E-004	2.40040E-001	4.56824E-001	3.57680E+000	9	...........
	9	0.133333	4.64315E-001	4.01345E-004	0.00000E+000	1.86351E-004	2.40040E-001	4.64398E-001	3.57680E+000	9	...........
	10	0.146667	4.71717E-001	4.00613E-004	0.00000E+000	1.88976E-004	2.40040E-001	4.71807E-001	3.57680E+000	9	...........
	11	0.16	4.78944E-001	4.00656E-004	0.00000E+000	1.91892E-004	2.40040E-001	4.79046E-001	3.57680E+000	9	...........
	12	0.173333	4.86141E-001	4.03413E-004	0.00000E+000	1.96116E-004	2.40040E-001	4.86239E-001	3.57680E+000	9	...........
	13	0.186667	4.93171E-001	3.99760E-004	0.00000E+000	1.97150E-004	2.40040E-001	4.93269E-001	3.57680E+000	9	...........
	14	0.2	5.00178E-001	4.00535E-004	0.00000E+000	2.00339E-004	2.40040E-001	5.00283E-001	3.57680E+000	9	...........
	15	0.213333	5.07102E-001	4.01012E-004	0.00000E+000	2.03354E-004	2.40040E-001	5.07210E-001	3.57680E+000	9	...........
	16	0.226667	5.13884E-001	4.01728E-004	0.00000E+000	2.06442E-004	2.40040E-001	5.13989E-001	3.57680E+000	9	...........
	17	0.24	5.20572E-001	4.00630E-004	0.00000E+000	2.08557E-004	2.40040E-001	5.20679E-001	3.57680E+000	9	...........
	18	0.253333	5.27188E-001	4.00671E-004	0.00000E+000	2.11229E-004	2.40040E-001	5.27294E-001	3.57680E+000	9	...........
	19	0.266667	5.33656E-001	4.01344E-004	0.00000E+000	2.14179E-004	2.40040E-001	5.33795E-001	3.57680E+000	9	...........
	20	0.28	5.40196E-001	4.00657E-004	0.00000E+000	2.16434E-004	2.40040E-001	5.40409E-001	3.57680E+000	9	...........
	21	0.293333	5.46720E-001	4.01907E-004	0.00000E+000	2.19730E-004	2.40040E-001	5.46940E-001	3.57680E+000	9	...........
	22	0.306667	5.53205E-001	3.99633E-004	0.00000E+000	2.21079E-004	2.40040E-001	5.53447E-001	3.57680E+000	9	...........
	23	0.32	5.59697E-001	4.01303E-004	0.00000E+000	2.24608E-004	2.40040E-001	5.59934E-001	3.57680E+000	9	...........
	24	0.333333	5.66178E-001	4.01107E-004	0.00000E+000	2.27098E-004	2.40040E-001	5.66393E-001	3.57680E+000	9	...........
	25	0.346667	5.72501E-001	4.00105E-004	0.00000E+000	2.29060E-004	2.40040E-001	5.72706E-001	3.57680E+000	9	...........
	26	0.36	5.78799E-001	4.01056E-004	0.00000E+000	2.32131E-004	2.40040E-001	5.79008E-001	3.57680E+000	9	...........
	27	0.373333	5.85064E-001	4.00993E-004	0.00000E+000	2.34607E-004	2.40040E-001	5.85281E-001	3.57680E+000	9	...........
	28	0.386667	5.91335E-001	4.01925E-004	0.00000E+000	2.37673E-004	2.40040E-001	5.91561E-001	3.57680E+000	9	...........
	29	0.4	5.97604E-001	4.01224E-004	0.00000E+000	2.39773E-004	2.40040E-001	5.97835E-001	3.57680E+000	9	...........
	30	0.413333	6.03826E-001	4.00657E-004	0.00000E+000	2.41927E-004	2.40040E-001	6.04046E-001	3.57680E+000	9	...........
	31	0.426667	6.10042E-001	4.01494E-004	0.00000E+000	2.44928E-004	2.40040E-001	6.10259E-001	3.57680E+000	9	...........
	32	0.44	6.16300E-001	4.00784E-004	0.00000E+000	2.47003E-004	2.40040E-001	6.16483E-001	3.57680E+000	9	...........
	33	0.453333	6.22461E-001	4.00470E-004	0.00000E+000	2.49277E-004	2.40040E-001	6.22623E-001	3.57680E+000	9	...........
	34	0.466667	6.28636E-001	4.01002E-004	0.00000E+000	2.52085E-004	2.40040E-001	6.28819E-001	3.57680E+000	9	...........
	35	0.48	6.34762E-001	4.00222E-004	0.00000E+000	2.54046E-004	2.40040E-001	6.34931E-001	3.57680E+000	9	...........
	36	0.493333	6.40853E-001	4.01064E-004	0.00000E+000	2.57023E-004	2.40040E-001	6.41052E-001	3.57689E+000	9	...........
	37	0.506667	6.46905E-001	4.00897E-004	0.00000E+000	2.59343E-004	2.40040E-001	6.47066E-001	3.57750E+000	9	...........
	38	0.52	6.52982E-001	4.01793E-004	0.00000E+000	2.62363E-004	2.40040E-001	6.53171E-001	3.57750E+000	9	...........
	39	0.533333	6.58965E-001	4.01157E-004	0.00000E+000	2.64348E-004	2.40040E-001	6.59152E-001	3.57750E+000	9	...........
	40	0.546667	6.64918E-001	4.00872E-004	0.00000E+000	2.66547E-004	2.40040E-001	6.65110E-001	3.57750E+000	9	...........
	41	0.56	6.70861E-001	4.01895E-004	0.00000E+000	2.69616E-004	2.40040E-001	6.71040E-001	3.57750E+000	9	...........
	42	0.573333	6.76780E-001	4.00503E-004	0.00000E+000	2.71053E-004	2.40040E-001	6.76980E-001	3.57750E+000	9	...........
	43	0.586667	6.82661E-001	4.01204E-004	0.00000E+000	2.73887E-004	2.40040E-001	6.82898E-001	3.57750E+000	9	...........
	44	0.6	6.88515E-001	4.00703E-004	0.00000E+000	2.75890E-004	2.40040E-001	6.88752E-001	3.57750E+000	9	...........
	45	0.613333	6.94374E-001	4.01333E-004	0.00000E+000	2.78675E-004	2.40040E-001	6.94634E-001	3.57750E+000	9	...........
	46	0.626667	7.00193E-001	4.00067E-004	0.00000E+000	2.80124E-004	2.40040E-001	7.00443E-001	3.57750E+000	9	...........
	47	0.64	7.06015E-001	4.00547E-004	0.00000E+000	2.82792E-004	2.40040E-001	7.06288E-001	3.57750E+000	9	...........
	48	0.653333	7.11863E-001	4.00944E-004	0.00000E+000	2.85417E-004	2.40040E-001	7.12134E-001	3.57750E+000	9	...........
	49	0.666667	7.17660E-001	4.01014E-004	0.00000E+000	2.87792E-004	2.40040E-001	7.17921E-001	3.57750E+000	9	...........
	50	0.68	7.23473E-001	4.00967E-004	0.00000E+000	2.90089E-004	2.40040E-001	7.23691E-001	3.57750E+000	9	...........
	51	0.693333	7.29147E-001	4.00851E-004	0.00000E+000	2.92280E-004	2.40040E-001	7.29399E-001	3.57750E+000	9	...........
	52	0.706667	7.34827E-001	4.00432E-004	0.00000E+000	2.94248E-004	2.40040E-001	7.35065E-001	3.57750E+000	9	...........
	53	0.72	7.40499E-001	4.01282E-004	0.00000E+000	2.97149E-004	2.40040E-001	7.40765E-001	3.57750E+000	9	...........
	54	0.733333	7.46188E-001	4.00010E-004	0.00000E+000	2.98483E-004	2.40040E-001	7.46421E-001	3.57750E+000	9	...........
	55	0.746667	7.51773E-001	4.01762E-004	0.00000E+000	3.02034E-004	2.40040E-001	7.52029E-001	3.57750E+000	9	...........
	56	0.76	7.57341E-001	3.99621E-004	0.00000E+000	3.02649E-004	2.40040E-001	7.57597E-001	3.57750E+000	9	...........
	57	0.773333	7.62902E-001	4.01813E-004	0.00000E+000	3.06544E-004	2.40040E-001	7.63136E-001	3.57750E+000	9	...........
	58	0.786667	7.68465E-001	4.00576E-004	0.00000E+000	3.07829E-004	2.40040E-001	7.68697E-001	3.57750E+000	9	...........
	59	0.8	7.73954E-001	4.00788E-004	0.00000E+000	3.10191E-004	2.40040E-001	7.74170E-001	3.57750E+000	9	...........
	60	0.813333	7.79403E-001	4.01799E-004	0.00000E+000	3.13164E-004	2.40040E-001	7.79610E-001	3.57750E+000	9	...........
	61	0.826667	7.84870E-001	4.00817E-004	0.00000E+000	3.14589E-004	2.40040E-001	7.85079E-001	3.57750E+000	9	...........
	62	0.84	7.90157E-001	4.01547E-004	0.00000E+000	3.17285E-004	2.40040E-001	7.90391E-001	3.57750E+000	9	...........
	63	0.853333	7.95555E-001	4.01790E-004	0.00000E+000	3.19646E-004	2.40040E-001	7.95765E-001	3.57750E+000	9	...........
	64	0.866667	8.00936E-001	4.01103E-004	0.00000E+000	3.21258E-004	2.40040E-001	8.01136E-001	3.57750E+000	9	...........
	65	0.88	8.06274E-001	4.00850E-004	0.00000E+000	3.23195E-004	2.40040E-001	8.06493E-001	3.57750E+000	9	...........
	66	0.893333	8.11546E-001	4.01478E-004	0.00000E+000	3.25818E-004	2.40040E-001	8.11777E-001	3.57750E+000	9	...........
	67	0.906667	8.16776E-001	4.00871E-004	0.00000E+000	3.27422E-004	2.40040E-001	8.16998E-001	3.57750E+000	9	...........
	68	0.92	8.21955E-001	4.00601E-004	0.00000E+000	3.29276E-004	2.40040E-001	8.22181E-001	3.57750E+000	9	...........
	69	0.933333	8.27137E-001	4.01233E-004	0.00000E+000	3.31874E-004	2.40040E-001	8.27377E-001	3.57750E+000	9	...........
	70	0.946667	8.32218E-001	4.00101E-004	0.00000E+000	3.32971E-004	2.40040E-001	8.32475E-001	3.57750E+000	9	...........
	71	0.96	8.37352E-001	4.01582E-004	0.00000E+000	3.36265E-004	2.40040E-001	8.37613E-001	3.57750E+000	9	...........
	72	0.97333	8.42428E-001	4.00358E-004	0.00000E+000	3.37273E-004	2.40040E-001	8.42692E-001	3.57750E+000	9	...........
	73	0.98667	8.47476E-001	4.01251E-004	0.00000E+000	3.40051E-004	2.40040E-001	8.47759E-001	3.57750E+000	9	...........
	74	1	8.52430E-001	4.00307E-004	0.00000E+000	3.41234E-004	2.40040E-001	8.52734E-001	3.57750E+000	9	...........
	75	1.01333	8.57383E-001	4.02576E-004	0.00000E+000	3.45162E-004	2.40040E-001	8.57704E-001	3.57750E+000	9	...........
	76	1.02667	8.62234E-001	4.02803E-004	0.00000E+000	3.47310E-004	2.40040E-001	8.62516E-001	3.57750E+000	9	...........
	77	1.04	8.67084E-001	4.00126E-004	0.00000E+000	3.46943E-004	2.40040E-001	8.67393E-001	3.57750E+000	9	...........
	78	1.05333	8.71940E-001	4.01441E-004	0.00000E+000	3.50032E-004	2.40040E-001	8.72221E-001	3.57750E+000	9	...........
	79	1.06667	8.76777E-001	4.00884E-004	0.00000E+000	3.51485E-004	2.40040E-001	8.77096E-001	3.57750E+000	9	...........
	80	1.08	8.81604E-001	4.00656E-004	0.00000E+000	3.53220E-004	2.40040E-001	8.81917E-001	3.57750E+000	9	...........
	81	1.09333	8.86280E-001	3.99553E-004	0.00000E+000	3.54116E-004	2.40040E-001	8.86579E-001	3.57750E+000	9	...........
	82	1.10667	8.90992E-001	4.00915E-004	0.00000E+000	3.57212E-004	2.40040E-001	8.91248E-001	3.57750E+000	9	...........
	83	1.12	8.95560E-001	4.00829E-004	0.00000E+000	3.58967E-004	2.40040E-001	8.95860E-001	3.57750E+000	9	...........
	84	1.13333	9.00170E-001	4.01292E-004	0.00000E+000	3.61231E-004	2.40040E-001	9.00469E-001	3.57750E+000	9	...........
	85	1.14667	9.04706E-001	4.00276E-004	0.00000E+000	3.62132E-004	2.40040E-001	9.04983E-001	3.57750E+000	9	...........
	86	1.16	9.09250E-001	4.00501E-004	0.00000E+000	3.64156E-004	2.40040E-001	9.09565E-001	3.57750E+000	9	...........
	87	1.17333	9.13709E-001	4.00607E-004	0.00000E+000	3.66039E-004	2.40040E-001	9.14039E-001	3.57750E+000	9	...........
	88	1.18667	9.18140E-001	4.00152E-004	0.00000E+000	3.67395E-004	2.40040E-001	9.18485E-001	3.57750E+000	9	...........
	89	1.2	9.22637E-001	4.01240E-004	0.00000E+000	3.70199E-004	2.40040E-001	9.22924E-001	3.57750E+000	9	...........
	90	1.21333	9.27043E-001	4.01524E-004	0.00000E+000	3.72230E-004	2.40040E-001	9.27309E-001	3.57750E+000	9	...........
	91	1.22667	9.31358E-001	4.00719E-004	0.00000E+000	3.73213E-004	2.40040E-001	9.31639E-001	3.57750E+000	9	...........
	92	1.24	9.35545E-001	4.00971E-004	0.00000E+000	3.75126E-004	2.40040E-001	9.35854E-001	3.57750E+000	9	...........
	93	1.25333	9.39790E-001	4.00617E-004	0.00000E+000	3.76496E-004	2.40040E-001	9.40098E-001	3.57750E+000	9	...........
	94	1.26667	9.44009E-001	4.02503E-004	0.00000E+000	3.79966E-004	2.40040E-001	9.44281E-001	3.57750E+000	9	...........
	95	1.28	9.48246E-001	4.00629E-004	0.00000E+000	3.79895E-004	2.40040E-001	9.48501E-001	3.57750E+000	9	...........
	96	1.29333	9.52365E-001	4.01671E-004	0.00000E+000	3.82537E-004	2.40040E-001	9.52635E-001	3.57750E+000	9	...........
	97	1.30667	9.56412E-001	4.01836E-004	0.00000E+000	3.84321E-004	2.40040E-001	9.56650E-001	3.57750E+000	9	...........
	98	1.32	9.60426E-001	4.01230E-004	0.00000E+000	3.85352E-004	2.40040E-001	9.60723E-001	3.57750E+000	9	...........
	99	1.33333	9.64440E-001	4.01458E-004	0.00000E+000	3.87182E-004	2.40040E-001	9.64760E-001	3.57750E+000	9	...........
	100	1.34667	9.68401E-001	4.01864E-004	0.00000E+000	3.89165E-004	2.40040E-001	9.68736E-001	3.57750E+000	9	...........
	101	1.36	9.72367E-001	4.01728E-004	0.00000E+000	3.90628E-004	2.40040E-001	9.72701E-001	3.57750E+000	9	...........
	102	1.37333	9.76339E-001	4.01365E-004	0.00000E+000	3.91868E-004	2.40040E-001	9.76647E-001	3.57750E+000	9	...........
	103	1.38667	9.80216E-001	4.00974E-004	0.00000E+000	3.93041E-004	2.40040E-001	9.80528E-001	3.57750E+000	9	...........
	104	1.4	9.84023E-001	4.01334E-004	0.00000E+000	3.94921E-004	2.40040E-001	9.84349E-001	3.57750E+000	9	...........
	105	1.41333	9.87799E-001	4.00977E-004	0.00000E+000	3.96085E-004	2.40040E-001	9.88137E-001	3.57750E+000	9	...........
	106	1.42667	9.91499E-001	4.00639E-004	0.00000E+000	3.97233E-004	2.40040E-001	9.91827E-001	3.57750E+000	9	...........
	107	1.44	9.95173E-001	4.00281E-004	0.00000E+000	3.98349E-004	2.40040E-001	9.95516E-001	3.57750E+000	9	...........
	108	1.45333	9.98832E-001	4.01759E-004	0.00000E+000	4.01289E-004	2.40040E-001	9.99176E-001	3.57750E+000	9	...........
STARTTIMEOFFSET	QUANT	2463.365	Start Time Offset (s)
