EXPLAIN
TAG	PWR800_CHARGE
TITLE	LABEL	PWR Cyclic Charge Discharge (Cell) - Charge Step	Test &Identifier
DATE	LABEL	12-7-2017	Date
TIME	LABEL	15:23:18	Time
NOTES	NOTES	3	&Notes...
	supercap test cell
	0.4mg
	6M KOH
PSTAT	PSTAT	IFC5000-01520	Potentiostat
CAPACITY	QUANT	1.00000E-003	Capacity (A-hr)
CELLTYPE	SELECTOR	1	&Cell Type
WORKINGCONNECTION	SELECTOR	0	&Working Lead
MAXCHARGETIME	VARIABLEANDUNITS	1.00000E+002	s	1.00000E+002	second(s)	Max &Charge Time
CHARGECURRENT	QUANT	4.00000E-004	&Charge Current (A) 
VOLTAGEFINISH	TWOPARAM	F	1.00000E-003	3.60000E+003	&Voltage Finish	 I (A) < 	Max Time(s)
SAMPLETIME	QUANT	1.00000E-002	Sa&mple Period (s)
CHARGESTOPAT1	MULTIPARAM	4	1.00000E+000	Charge Stop At &1	Voltage > Limit	V
CHARGESTOPAT2	MULTIPARAM	0	0.00000E+000	Charge Stop At &2	None	N/A
AESBHCSELECTOR	TOGGLE	F	Save Both Half Cells
IRCOMP	TOGGLE	F	IR &Measure
EOC	QUANT	0	Open Circuit (V)
SEQUENCER	TOGGLE	TRUE	Run as Sequence
PSTATMODEL	IQUANT	53	Pstat Model
PSTATSECTION	LABEL	IFC5000-01520	Pstat Section
PSTATSERIALNO	LABEL	01520	Pstat Serial Number
CTRLMODE	IQUANT	0	Control Mode
ELECTROMETER	IQUANT	1	RE=0 or CS=1
IESTAB	IQUANT	0	I/E Stability
CASPEED	IQUANT	4	Control Amp Speed
CONVENTION	IQUANT	1	Current Convention
ICHRANGE	IQUANT	2	Ich Range
ICHRANGEMODE	TOGGLE	T	Ich Auto Range
ICHOFFSETENABLE	TOGGLE	F	Ich Offset Enable
ICHOFFSET	QUANT	0	Ich Offset (V)
ICHFILTER	IQUANT	1	Ich Filter
VCHRANGE	IQUANT	2	Vch Range
VCHRANGEMODE	TOGGLE	T	Vch Auto Range
VCHOFFSETENABLE	TOGGLE	F	Vch Offset Enable
VCHOFFSET	QUANT	0	Vch Offset (V)
VCHFILTER	IQUANT	1	Vch Filter
IERANGELOWERLIMIT	IQUANT	9	I/E Range Lower Limit
IERANGEMODE	TOGGLE	F	I/E AutoRange
IERANGE	IQUANT	9	I/E Range
ACHSELECT	IQUANT	1	Ach Select
ACHRANGE	IQUANT	2	Ach Range
ACHOFFSETENABLE	TOGGLE	F	Ach Offset Enable
ACHOFFSET	QUANT	0	Ach Offset (V)
ACHFILTER	IQUANT	1	Ach Filter
CABLEID	IQUANT	14	Cable ID
DCCALDATE	LABEL	5-7-2017	DC Calibration Date
ACCALDATE	LABEL	12/3/2015	AC Calibration Date
FRAMEWORKVERSION	QUANT	7.01	Framework Version
INSTRUMENTVERSION	LABEL	4.00	Instrument Version
CURVE	TABLE	105
	Pt	T	Vf	Im	Vu	Pwr	Sig	Ach	Temp	IERange	Over
	#	s	V	A	V	W	V	V	deg C	#	bits
	0	0.013333	3.91743E-001	4.02233E-004	0.00000E+000	1.57572E-004	2.40040E-001	3.91835E-001	3.57780E+000	9	...........
	1	0.026667	4.04901E-001	4.01582E-004	0.00000E+000	1.62601E-004	2.40040E-001	4.04980E-001	3.57768E+000	9	...........
	2	0.04	4.16014E-001	4.00115E-004	0.00000E+000	1.66453E-004	2.40040E-001	4.16097E-001	3.57680E+000	9	...........
	3	0.053333	4.26139E-001	4.01002E-004	0.00000E+000	1.70883E-004	2.40040E-001	4.26226E-001	3.57680E+000	9	...........
	4	0.066667	4.35615E-001	4.00824E-004	0.00000E+000	1.74605E-004	2.40040E-001	4.35710E-001	3.57680E+000	9	...........
	5	0.08	4.44538E-001	4.02035E-004	0.00000E+000	1.78720E-004	2.40040E-001	4.44636E-001	3.57680E+000	9	...........
	6	0.093333	4.53069E-001	4.01757E-004	0.00000E+000	1.82024E-004	2.40040E-001	4.53156E-001	3.57680E+000	9	...........
	7	0.106667	4.61256E-001	4.01786E-004	0.00000E+000	1.85326E-004	2.40040E-001	4.61344E-001	3.57680E+000	9	...........
	8	0.12	4.69222E-001	4.00198E-004	0.00000E+000	1.87782E-004	2.40040E-001	4.69314E-001	3.57680E+000	9	...........
	9	0.133333	4.77018E-001	4.01736E-004	0.00000E+000	1.91635E-004	2.40040E-001	4.77115E-001	3.57680E+000	9	...........
	10	0.146667	4.84659E-001	4.00807E-004	0.00000E+000	1.94255E-004	2.40040E-001	4.84758E-001	3.57680E+000	9	...........
	11	0.16	4.92236E-001	4.00853E-004	0.00000E+000	1.97315E-004	2.40040E-001	4.92337E-001	3.57680E+000	9	...........
	12	0.173333	4.99648E-001	4.00531E-004	0.00000E+000	2.00125E-004	2.40040E-001	4.99748E-001	3.57680E+000	9	...........
	13	0.186667	5.06926E-001	4.01086E-004	0.00000E+000	2.03321E-004	2.40040E-001	5.07026E-001	3.57680E+000	9	...........
	14	0.2	5.14155E-001	3.99737E-004	0.00000E+000	2.05527E-004	2.40040E-001	5.14261E-001	3.57680E+000	9	...........
	15	0.213333	5.21259E-001	4.01319E-004	0.00000E+000	2.09191E-004	2.40040E-001	5.21369E-001	3.57680E+000	9	...........
	16	0.226667	5.28268E-001	4.00372E-004	0.00000E+000	2.11504E-004	2.40040E-001	5.28380E-001	3.57680E+000	9	...........
	17	0.24	5.35028E-001	4.00353E-004	0.00000E+000	2.14200E-004	2.40040E-001	5.35230E-001	3.57680E+000	9	...........
	18	0.253333	5.41902E-001	4.00366E-004	0.00000E+000	2.16959E-004	2.40040E-001	5.42124E-001	3.57680E+000	9	...........
	19	0.266667	5.48733E-001	4.01805E-004	0.00000E+000	2.20483E-004	2.40040E-001	5.48966E-001	3.57680E+000	9	...........
	20	0.28	5.55450E-001	4.01240E-004	0.00000E+000	2.22869E-004	2.40040E-001	5.55674E-001	3.57680E+000	9	...........
	21	0.293333	5.62209E-001	4.01417E-004	0.00000E+000	2.25680E-004	2.40040E-001	5.62435E-001	3.57680E+000	9	...........
	22	0.306667	5.68974E-001	4.00214E-004	0.00000E+000	2.27711E-004	2.40040E-001	5.69162E-001	3.57680E+000	9	...........
	23	0.32	5.75652E-001	4.00553E-004	0.00000E+000	2.30579E-004	2.40040E-001	5.75857E-001	3.57680E+000	9	...........
	24	0.333333	5.82249E-001	4.01296E-004	0.00000E+000	2.33654E-004	2.40040E-001	5.82472E-001	3.57680E+000	9	...........
	25	0.346667	5.88848E-001	4.01966E-004	0.00000E+000	2.36697E-004	2.40040E-001	5.89050E-001	3.57680E+000	9	...........
	26	0.36	5.95318E-001	4.01019E-004	0.00000E+000	2.38734E-004	2.40040E-001	5.95531E-001	3.57680E+000	9	...........
	27	0.373333	6.01780E-001	4.01397E-004	0.00000E+000	2.41553E-004	2.40040E-001	6.02028E-001	3.57680E+000	9	...........
	28	0.386667	6.08196E-001	3.99114E-004	0.00000E+000	2.42740E-004	2.40040E-001	6.08422E-001	3.57680E+000	9	...........
	29	0.4	6.14682E-001	4.00278E-004	0.00000E+000	2.46044E-004	2.40040E-001	6.14917E-001	3.57680E+000	9	...........
	30	0.413333	6.21202E-001	4.01116E-004	0.00000E+000	2.49174E-004	2.40040E-001	6.21393E-001	3.57680E+000	9	...........
	31	0.426667	6.27567E-001	4.01791E-004	0.00000E+000	2.52151E-004	2.40040E-001	6.27778E-001	3.57680E+000	9	...........
	32	0.44	6.33839E-001	4.01971E-004	0.00000E+000	2.54785E-004	2.40040E-001	6.34063E-001	3.57680E+000	9	...........
	33	0.453333	6.40178E-001	4.00577E-004	0.00000E+000	2.56441E-004	2.40040E-001	6.40427E-001	3.57680E+000	9	...........
	34	0.466667	6.46432E-001	4.00942E-004	0.00000E+000	2.59182E-004	2.40040E-001	6.46656E-001	3.57680E+000	9	...........
	35	0.48	6.52690E-001	4.01043E-004	0.00000E+000	2.61757E-004	2.40040E-001	6.52932E-001	3.57680E+000	9	...........
	36	0.493333	6.58919E-001	3.99984E-004	0.00000E+000	2.63557E-004	2.40040E-001	6.59154E-001	3.57680E+000	9	...........
	37	0.506667	6.65161E-001	4.00076E-004	0.00000E+000	2.66115E-004	2.40040E-001	6.65379E-001	3.57680E+000	9	...........
	38	0.52	6.71377E-001	4.02837E-004	0.00000E+000	2.70456E-004	2.40040E-001	6.71580E-001	3.57680E+000	9	...........
	39	0.533333	6.77473E-001	4.01910E-004	0.00000E+000	2.72283E-004	2.40040E-001	6.77700E-001	3.57680E+000	9	...........
	40	0.546667	6.83552E-001	4.00833E-004	0.00000E+000	2.73990E-004	2.40040E-001	6.83784E-001	3.57680E+000	9	...........
	41	0.56	6.89651E-001	4.01084E-004	0.00000E+000	2.76608E-004	2.40040E-001	6.89862E-001	3.57680E+000	9	...........
	42	0.573333	6.95762E-001	4.00742E-004	0.00000E+000	2.78821E-004	2.40040E-001	6.95969E-001	3.57680E+000	9	...........
	43	0.586667	7.01778E-001	4.00663E-004	0.00000E+000	2.81176E-004	2.40040E-001	7.01980E-001	3.57680E+000	9	...........
	44	0.6	7.07747E-001	4.01224E-004	0.00000E+000	2.83965E-004	2.40040E-001	7.07991E-001	3.57680E+000	9	...........
	45	0.613333	7.13706E-001	4.03497E-004	0.00000E+000	2.87978E-004	2.40040E-001	7.13930E-001	3.57680E+000	9	...........
	46	0.626667	7.19694E-001	4.00693E-004	0.00000E+000	2.88376E-004	2.40040E-001	7.19921E-001	3.57680E+000	9	...........
	47	0.64	7.25636E-001	4.00643E-004	0.00000E+000	2.90721E-004	2.40040E-001	7.25850E-001	3.57680E+000	9	...........
	48	0.653333	7.31495E-001	4.01162E-004	0.00000E+000	2.93448E-004	2.40040E-001	7.31730E-001	3.57680E+000	9	...........
	49	0.666667	7.37313E-001	4.01276E-004	0.00000E+000	2.95866E-004	2.40040E-001	7.37539E-001	3.57680E+000	9	...........
	50	0.68	7.43169E-001	4.00033E-004	0.00000E+000	2.97292E-004	2.40040E-001	7.43405E-001	3.57680E+000	9	...........
	51	0.693333	7.48951E-001	4.00840E-004	0.00000E+000	3.00209E-004	2.40040E-001	7.49170E-001	3.57680E+000	9	...........
	52	0.706667	7.54735E-001	4.01674E-004	0.00000E+000	3.03158E-004	2.40040E-001	7.54955E-001	3.57680E+000	9	...........
	53	0.72	7.60405E-001	4.01740E-004	0.00000E+000	3.05485E-004	2.40040E-001	7.60621E-001	3.57680E+000	9	...........
	54	0.733333	7.66057E-001	4.00714E-004	0.00000E+000	3.06970E-004	2.40040E-001	7.66307E-001	3.57680E+000	9	...........
	55	0.746667	7.71788E-001	4.01613E-004	0.00000E+000	3.09960E-004	2.40040E-001	7.72029E-001	3.57680E+000	9	...........
	56	0.76	7.77386E-001	4.02170E-004	0.00000E+000	3.12642E-004	2.40040E-001	7.77625E-001	3.57680E+000	9	...........
	57	0.773333	7.82966E-001	4.00356E-004	0.00000E+000	3.13465E-004	2.40040E-001	7.83225E-001	3.57680E+000	9	...........
	58	0.786667	7.88488E-001	3.98805E-004	0.00000E+000	3.14453E-004	2.40040E-001	7.88730E-001	3.57680E+000	9	...........
	59	0.8	7.94024E-001	4.01592E-004	0.00000E+000	3.18874E-004	2.40040E-001	7.94312E-001	3.57680E+000	9	...........
	60	0.813333	7.99529E-001	4.02021E-004	0.00000E+000	3.21428E-004	2.40040E-001	7.99778E-001	3.57680E+000	9	...........
	61	0.826667	8.04934E-001	4.02423E-004	0.00000E+000	3.23924E-004	2.40040E-001	8.05215E-001	3.57680E+000	9	...........
	62	0.84	8.10318E-001	4.01360E-004	0.00000E+000	3.25229E-004	2.40040E-001	8.10597E-001	3.57680E+000	9	...........
	63	0.853333	8.15697E-001	4.00578E-004	0.00000E+000	3.26750E-004	2.40040E-001	8.15980E-001	3.57680E+000	9	...........
	64	0.866667	8.21064E-001	4.00650E-004	0.00000E+000	3.28959E-004	2.40040E-001	8.21317E-001	3.57680E+000	9	...........
	65	0.88	8.26336E-001	3.99944E-004	0.00000E+000	3.30488E-004	2.40040E-001	8.26588E-001	3.57680E+000	9	...........
	66	0.893333	8.31564E-001	4.00817E-004	0.00000E+000	3.33305E-004	2.40040E-001	8.31820E-001	3.57680E+000	9	...........
	67	0.906667	8.36766E-001	4.01814E-004	0.00000E+000	3.36224E-004	2.40040E-001	8.37070E-001	3.57680E+000	9	...........
	68	0.92	8.41964E-001	4.02259E-004	0.00000E+000	3.38687E-004	2.40040E-001	8.42233E-001	3.57680E+000	9	...........
	69	0.933333	8.47145E-001	4.00989E-004	0.00000E+000	3.39695E-004	2.40040E-001	8.47401E-001	3.57680E+000	9	...........
	70	0.946667	8.52170E-001	4.01441E-004	0.00000E+000	3.42096E-004	2.40040E-001	8.52448E-001	3.57680E+000	9	...........
	71	0.96	8.57214E-001	4.01166E-004	0.00000E+000	3.43885E-004	2.40040E-001	8.57499E-001	3.57680E+000	9	...........
	72	0.97333	8.62311E-001	4.01222E-004	0.00000E+000	3.45978E-004	2.40040E-001	8.62599E-001	3.57680E+000	9	...........
	73	0.98667	8.67256E-001	3.99529E-004	0.00000E+000	3.46494E-004	2.40040E-001	8.67586E-001	3.57680E+000	9	...........
	74	1	8.72226E-001	4.00608E-004	0.00000E+000	3.49421E-004	2.40040E-001	8.72537E-001	3.57680E+000	9	...........
	75	1.01333	8.77159E-001	4.01333E-004	0.00000E+000	3.52033E-004	2.40040E-001	8.77481E-001	3.57680E+000	9	...........
	76	1.02667	8.82066E-001	4.01845E-004	0.00000E+000	3.54454E-004	2.40040E-001	8.82389E-001	3.57681E+000	9	...........
	77	1.04	8.86950E-001	4.00085E-004	0.00000E+000	3.54856E-004	2.40040E-001	8.87279E-001	3.57690E+000	9	...........
	78	1.05333	8.91715E-001	4.00889E-004	0.00000E+000	3.57478E-004	2.40040E-001	8.92029E-001	3.57690E+000	9	...........
	79	1.06667	8.96459E-001	4.01461E-004	0.00000E+000	3.59893E-004	2.40040E-001	8.96769E-001	3.57690E+000	9	...........
	80	1.08	9.01164E-001	4.00686E-004	0.00000E+000	3.61084E-004	2.40040E-001	9.01485E-001	3.57690E+000	9	...........
	81	1.09333	9.05786E-001	4.02295E-004	0.00000E+000	3.64394E-004	2.40040E-001	9.06123E-001	3.57690E+000	9	...........
	82	1.10667	9.10449E-001	4.00432E-004	0.00000E+000	3.64573E-004	2.40040E-001	9.10763E-001	3.57690E+000	9	...........
	83	1.12	9.15040E-001	4.00400E-004	0.00000E+000	3.66382E-004	2.40040E-001	9.15344E-001	3.57690E+000	9	...........
	84	1.13333	9.19546E-001	4.00742E-004	0.00000E+000	3.68501E-004	2.40040E-001	9.19840E-001	3.57690E+000	9	...........
	85	1.14667	9.24028E-001	4.01524E-004	0.00000E+000	3.71020E-004	2.40040E-001	9.24280E-001	3.57690E+000	9	...........
	86	1.16	9.28458E-001	4.01200E-004	0.00000E+000	3.72498E-004	2.40040E-001	9.28707E-001	3.57690E+000	9	...........
	87	1.17333	9.32862E-001	4.00446E-004	0.00000E+000	3.73561E-004	2.40040E-001	9.33124E-001	3.57690E+000	9	...........
	88	1.18667	9.37263E-001	4.00756E-004	0.00000E+000	3.75614E-004	2.40040E-001	9.37535E-001	3.57690E+000	9	...........
	89	1.2	9.41587E-001	4.01107E-004	0.00000E+000	3.77677E-004	2.40040E-001	9.41875E-001	3.57690E+000	9	...........
	90	1.21333	9.45884E-001	3.99742E-004	0.00000E+000	3.78109E-004	2.40040E-001	9.46163E-001	3.57690E+000	9	...........
	91	1.22667	9.50151E-001	4.01095E-004	0.00000E+000	3.81101E-004	2.40040E-001	9.50438E-001	3.57690E+000	9	...........
	92	1.24	9.54362E-001	4.01189E-004	0.00000E+000	3.82879E-004	2.40040E-001	9.54658E-001	3.57690E+000	9	...........
	93	1.25333	9.58511E-001	4.01909E-004	0.00000E+000	3.85234E-004	2.40040E-001	9.58833E-001	3.57690E+000	9	...........
	94	1.26667	9.62570E-001	4.00326E-004	0.00000E+000	3.85342E-004	2.40040E-001	9.62928E-001	3.57690E+000	9	...........
	95	1.28	9.66669E-001	4.00902E-004	0.00000E+000	3.87540E-004	2.40040E-001	9.67006E-001	3.57690E+000	9	...........
	96	1.29333	9.70630E-001	4.00807E-004	0.00000E+000	3.89036E-004	2.40040E-001	9.71004E-001	3.57690E+000	9	...........
	97	1.30667	9.74628E-001	3.99942E-004	0.00000E+000	3.89794E-004	2.40040E-001	9.74963E-001	3.57690E+000	9	...........
	98	1.32	9.78526E-001	4.00590E-004	0.00000E+000	3.91987E-004	2.40040E-001	9.78865E-001	3.57690E+000	9	...........
	99	1.33333	9.82375E-001	4.00526E-004	0.00000E+000	3.93467E-004	2.40040E-001	9.82702E-001	3.57690E+000	9	...........
	100	1.34667	9.86245E-001	4.00476E-004	0.00000E+000	3.94968E-004	2.40040E-001	9.86575E-001	3.57690E+000	9	...........
	101	1.36	9.90035E-001	4.00362E-004	0.00000E+000	3.96372E-004	2.40040E-001	9.90354E-001	3.57690E+000	9	...........
	102	1.37333	9.93730E-001	4.00598E-004	0.00000E+000	3.98086E-004	2.40040E-001	9.94072E-001	3.57690E+000	9	...........
	103	1.38667	9.97493E-001	4.00324E-004	0.00000E+000	3.99320E-004	2.40040E-001	9.97826E-001	3.57690E+000	9	...........
	104	1.39	9.99816E-001	4.00056E-004	0.00000E+000	3.99983E-004	2.40040E-001	1.00014E+000	3.57690E+000	9	...........
STARTTIMEOFFSET	QUANT	3060.908	Start Time Offset (s)
