EXPLAIN
TAG	PWR800_CHARGE
TITLE	LABEL	PWR Cyclic Charge Discharge (Cell) - Charge Step	Test &Identifier
DATE	LABEL	12-7-2017	Date
TIME	LABEL	15:02:57	Time
NOTES	NOTES	3	&Notes...
	supercap test cell
	0.4mg
	6M KOH
PSTAT	PSTAT	IFC5000-01520	Potentiostat
CAPACITY	QUANT	1.00000E-003	Capacity (A-hr)
CELLTYPE	SELECTOR	1	&Cell Type
WORKINGCONNECTION	SELECTOR	0	&Working Lead
MAXCHARGETIME	VARIABLEANDUNITS	1.00000E+002	s	1.00000E+002	second(s)	Max &Charge Time
CHARGECURRENT	QUANT	4.00000E-004	&Charge Current (A) 
VOLTAGEFINISH	TWOPARAM	F	1.00000E-003	3.60000E+003	&Voltage Finish	 I (A) < 	Max Time(s)
SAMPLETIME	QUANT	1.00000E-002	Sa&mple Period (s)
CHARGESTOPAT1	MULTIPARAM	4	1.00000E+000	Charge Stop At &1	Voltage > Limit	V
CHARGESTOPAT2	MULTIPARAM	0	0.00000E+000	Charge Stop At &2	None	N/A
AESBHCSELECTOR	TOGGLE	F	Save Both Half Cells
IRCOMP	TOGGLE	F	IR &Measure
EOC	QUANT	0	Open Circuit (V)
SEQUENCER	TOGGLE	TRUE	Run as Sequence
PSTATMODEL	IQUANT	53	Pstat Model
PSTATSECTION	LABEL	IFC5000-01520	Pstat Section
PSTATSERIALNO	LABEL	01520	Pstat Serial Number
CTRLMODE	IQUANT	0	Control Mode
ELECTROMETER	IQUANT	1	RE=0 or CS=1
IESTAB	IQUANT	0	I/E Stability
CASPEED	IQUANT	4	Control Amp Speed
CONVENTION	IQUANT	1	Current Convention
ICHRANGE	IQUANT	2	Ich Range
ICHRANGEMODE	TOGGLE	T	Ich Auto Range
ICHOFFSETENABLE	TOGGLE	F	Ich Offset Enable
ICHOFFSET	QUANT	0	Ich Offset (V)
ICHFILTER	IQUANT	1	Ich Filter
VCHRANGE	IQUANT	2	Vch Range
VCHRANGEMODE	TOGGLE	T	Vch Auto Range
VCHOFFSETENABLE	TOGGLE	F	Vch Offset Enable
VCHOFFSET	QUANT	0	Vch Offset (V)
VCHFILTER	IQUANT	1	Vch Filter
IERANGELOWERLIMIT	IQUANT	9	I/E Range Lower Limit
IERANGEMODE	TOGGLE	F	I/E AutoRange
IERANGE	IQUANT	9	I/E Range
ACHSELECT	IQUANT	1	Ach Select
ACHRANGE	IQUANT	2	Ach Range
ACHOFFSETENABLE	TOGGLE	F	Ach Offset Enable
ACHOFFSET	QUANT	0	Ach Offset (V)
ACHFILTER	IQUANT	1	Ach Filter
CABLEID	IQUANT	14	Cable ID
DCCALDATE	LABEL	5-7-2017	DC Calibration Date
ACCALDATE	LABEL	12/3/2015	AC Calibration Date
FRAMEWORKVERSION	QUANT	7.01	Framework Version
INSTRUMENTVERSION	LABEL	4.00	Instrument Version
CURVE	TABLE	112
	Pt	T	Vf	Im	Vu	Pwr	Sig	Ach	Temp	IERange	Over
	#	s	V	A	V	W	V	V	deg C	#	bits
	0	0.013333	3.76425E-001	4.01290E-004	0.00000E+000	1.51055E-004	2.40040E-001	3.76519E-001	3.57630E+000	9	...........
	1	0.026667	3.88679E-001	3.99591E-004	0.00000E+000	1.55312E-004	2.40040E-001	3.88758E-001	3.57630E+000	9	...........
	2	0.04	3.99123E-001	4.03135E-004	0.00000E+000	1.60900E-004	2.40040E-001	3.99199E-001	3.57630E+000	9	...........
	3	0.053333	4.08560E-001	4.00865E-004	0.00000E+000	1.63777E-004	2.40040E-001	4.08642E-001	3.57630E+000	9	...........
	4	0.066667	4.17335E-001	4.00406E-004	0.00000E+000	1.67103E-004	2.40040E-001	4.17420E-001	3.57630E+000	9	...........
	5	0.08	4.25733E-001	4.00132E-004	0.00000E+000	1.70349E-004	2.40040E-001	4.25817E-001	3.57630E+000	9	...........
	6	0.093333	4.33822E-001	4.00267E-004	0.00000E+000	1.73644E-004	2.40040E-001	4.33910E-001	3.57630E+000	9	...........
	7	0.106667	4.41639E-001	4.02451E-004	0.00000E+000	1.77738E-004	2.40040E-001	4.41728E-001	3.57630E+000	9	...........
	8	0.12	4.49231E-001	4.01473E-004	0.00000E+000	1.80354E-004	2.40040E-001	4.49324E-001	3.57630E+000	9	...........
	9	0.133333	4.56637E-001	4.00392E-004	0.00000E+000	1.82834E-004	2.40040E-001	4.56730E-001	3.57630E+000	9	...........
	10	0.146667	4.63819E-001	4.01461E-004	0.00000E+000	1.86205E-004	2.40040E-001	4.63911E-001	3.57630E+000	9	...........
	11	0.16	4.70881E-001	4.01397E-004	0.00000E+000	1.89010E-004	2.40040E-001	4.70973E-001	3.57630E+000	9	...........
	12	0.173333	4.77941E-001	4.01575E-004	0.00000E+000	1.91929E-004	2.40040E-001	4.78039E-001	3.57630E+000	9	...........
	13	0.186667	4.84918E-001	4.00912E-004	0.00000E+000	1.94409E-004	2.40040E-001	4.85016E-001	3.57630E+000	9	...........
	14	0.2	4.91781E-001	4.00650E-004	0.00000E+000	1.97032E-004	2.40040E-001	4.91879E-001	3.57630E+000	9	...........
	15	0.213333	4.98551E-001	4.01901E-004	0.00000E+000	2.00368E-004	2.40040E-001	4.98655E-001	3.57630E+000	9	...........
	16	0.226667	5.05237E-001	4.00681E-004	0.00000E+000	2.02439E-004	2.40040E-001	5.05341E-001	3.57630E+000	9	...........
	17	0.24	5.11925E-001	4.01494E-004	0.00000E+000	2.05535E-004	2.40040E-001	5.12036E-001	3.57630E+000	9	...........
	18	0.253333	5.18572E-001	4.01711E-004	0.00000E+000	2.08316E-004	2.40040E-001	5.18679E-001	3.57630E+000	9	...........
	19	0.266667	5.25083E-001	4.00713E-004	0.00000E+000	2.10407E-004	2.40040E-001	5.25187E-001	3.57630E+000	9	...........
	20	0.28	5.31539E-001	4.00737E-004	0.00000E+000	2.13007E-004	2.40040E-001	5.31630E-001	3.57630E+000	9	...........
	21	0.293333	5.37801E-001	4.01509E-004	0.00000E+000	2.15932E-004	2.40040E-001	5.37989E-001	3.57630E+000	9	...........
	22	0.306667	5.44164E-001	4.00906E-004	0.00000E+000	2.18159E-004	2.40040E-001	5.44337E-001	3.57630E+000	9	...........
	23	0.32	5.50474E-001	4.02001E-004	0.00000E+000	2.21291E-004	2.40040E-001	5.50660E-001	3.57630E+000	9	...........
	24	0.333333	5.56752E-001	4.00968E-004	0.00000E+000	2.23240E-004	2.40040E-001	5.56945E-001	3.57630E+000	9	...........
	25	0.346667	5.63021E-001	4.01662E-004	0.00000E+000	2.26144E-004	2.40040E-001	5.63228E-001	3.57630E+000	9	...........
	26	0.36	5.69346E-001	4.02206E-004	0.00000E+000	2.28994E-004	2.40040E-001	5.69512E-001	3.57630E+000	9	...........
	27	0.373333	5.75518E-001	4.01734E-004	0.00000E+000	2.31205E-004	2.40040E-001	5.75710E-001	3.57630E+000	9	...........
	28	0.386667	5.81619E-001	4.02189E-004	0.00000E+000	2.33921E-004	2.40040E-001	5.81840E-001	3.57630E+000	9	...........
	29	0.4	5.87819E-001	4.01518E-004	0.00000E+000	2.36020E-004	2.40040E-001	5.88027E-001	3.57630E+000	9	...........
	30	0.413333	5.93923E-001	4.02131E-004	0.00000E+000	2.38835E-004	2.40040E-001	5.94163E-001	3.57630E+000	9	...........
	31	0.426667	6.00038E-001	4.00334E-004	0.00000E+000	2.40216E-004	2.40040E-001	6.00290E-001	3.57630E+000	9	...........
	32	0.44	6.06139E-001	4.01025E-004	0.00000E+000	2.43077E-004	2.40040E-001	6.06416E-001	3.57674E+000	9	...........
	33	0.453333	6.12241E-001	4.01356E-004	0.00000E+000	2.45726E-004	2.40040E-001	6.12507E-001	3.57680E+000	9	...........
	34	0.466667	6.18299E-001	4.00827E-004	0.00000E+000	2.47831E-004	2.40040E-001	6.18531E-001	3.57680E+000	9	...........
	35	0.48	6.24331E-001	4.00555E-004	0.00000E+000	2.50079E-004	2.40040E-001	6.24536E-001	3.57680E+000	9	...........
	36	0.493333	6.30253E-001	4.01105E-004	0.00000E+000	2.52798E-004	2.40040E-001	6.30484E-001	3.57680E+000	9	...........
	37	0.506667	6.36255E-001	4.01856E-004	0.00000E+000	2.55683E-004	2.40040E-001	6.36494E-001	3.57680E+000	9	...........
	38	0.52	6.42281E-001	4.00232E-004	0.00000E+000	2.57062E-004	2.40040E-001	6.42519E-001	3.57680E+000	9	...........
	39	0.533333	6.48226E-001	3.99601E-004	0.00000E+000	2.59032E-004	2.40040E-001	6.48454E-001	3.57680E+000	9	...........
	40	0.546667	6.54082E-001	4.01185E-004	0.00000E+000	2.62408E-004	2.40040E-001	6.54309E-001	3.57680E+000	9	...........
	41	0.56	6.59932E-001	4.01441E-004	0.00000E+000	2.64924E-004	2.40040E-001	6.60184E-001	3.57680E+000	9	...........
	42	0.573333	6.65815E-001	4.01876E-004	0.00000E+000	2.67575E-004	2.40040E-001	6.66075E-001	3.57680E+000	9	...........
	43	0.586667	6.71665E-001	4.01080E-004	0.00000E+000	2.69392E-004	2.40040E-001	6.71908E-001	3.57680E+000	9	...........
	44	0.6	6.77549E-001	4.00598E-004	0.00000E+000	2.71425E-004	2.40040E-001	6.77793E-001	3.57680E+000	9	...........
	45	0.613333	6.83380E-001	4.01709E-004	0.00000E+000	2.74520E-004	2.40040E-001	6.83632E-001	3.57680E+000	9	...........
	46	0.626667	6.89174E-001	4.00671E-004	0.00000E+000	2.76132E-004	2.40040E-001	6.89432E-001	3.57680E+000	9	...........
	47	0.64	6.94952E-001	4.02447E-004	0.00000E+000	2.79682E-004	2.40040E-001	6.95204E-001	3.57680E+000	9	...........
	48	0.653333	7.00673E-001	4.00163E-004	0.00000E+000	2.80383E-004	2.40040E-001	7.00945E-001	3.57680E+000	9	...........
	49	0.666667	7.06430E-001	4.00091E-004	0.00000E+000	2.82636E-004	2.40040E-001	7.06668E-001	3.57680E+000	9	...........
	50	0.68	7.12091E-001	4.00462E-004	0.00000E+000	2.85165E-004	2.40040E-001	7.12358E-001	3.57680E+000	9	...........
	51	0.693333	7.17809E-001	4.00365E-004	0.00000E+000	2.87385E-004	2.40040E-001	7.18033E-001	3.57680E+000	9	...........
	52	0.706667	7.23454E-001	4.01278E-004	0.00000E+000	2.90306E-004	2.40040E-001	7.23669E-001	3.57680E+000	9	...........
	53	0.72	7.29098E-001	4.00371E-004	0.00000E+000	2.91910E-004	2.40040E-001	7.29338E-001	3.57680E+000	9	...........
	54	0.733333	7.34740E-001	4.01026E-004	0.00000E+000	2.94650E-004	2.40040E-001	7.34991E-001	3.57680E+000	9	...........
	55	0.746667	7.40311E-001	4.01700E-004	0.00000E+000	2.97383E-004	2.40040E-001	7.40568E-001	3.57680E+000	9	...........
	56	0.76	7.45912E-001	4.01340E-004	0.00000E+000	2.99364E-004	2.40040E-001	7.46153E-001	3.57680E+000	9	...........
	57	0.773333	7.51442E-001	4.01304E-004	0.00000E+000	3.01557E-004	2.40040E-001	7.51700E-001	3.57680E+000	9	...........
	58	0.786667	7.56902E-001	4.00852E-004	0.00000E+000	3.03406E-004	2.40040E-001	7.57129E-001	3.57680E+000	9	...........
	59	0.8	7.62343E-001	4.00979E-004	0.00000E+000	3.05684E-004	2.40040E-001	7.62582E-001	3.57680E+000	9	...........
	60	0.813333	7.67789E-001	4.00731E-004	0.00000E+000	3.07677E-004	2.40040E-001	7.68061E-001	3.57680E+000	9	...........
	61	0.826667	7.73215E-001	4.01148E-004	0.00000E+000	3.10174E-004	2.40040E-001	7.73455E-001	3.57680E+000	9	...........
	62	0.84	7.78607E-001	4.00152E-004	0.00000E+000	3.11561E-004	2.40040E-001	7.78865E-001	3.57680E+000	9	...........
	63	0.853333	7.83979E-001	4.01671E-004	0.00000E+000	3.14902E-004	2.40040E-001	7.84231E-001	3.57680E+000	9	...........
	64	0.866667	7.89276E-001	4.00611E-004	0.00000E+000	3.16192E-004	2.40040E-001	7.89559E-001	3.57680E+000	9	...........
	65	0.88	7.94630E-001	4.02115E-004	0.00000E+000	3.19533E-004	2.40040E-001	7.94928E-001	3.57680E+000	9	...........
	66	0.893333	7.99895E-001	4.00811E-004	0.00000E+000	3.20606E-004	2.40040E-001	8.00152E-001	3.57680E+000	9	...........
	67	0.906667	8.05120E-001	3.99734E-004	0.00000E+000	3.21834E-004	2.40040E-001	8.05405E-001	3.57680E+000	9	...........
	68	0.92	8.10315E-001	4.00508E-004	0.00000E+000	3.24538E-004	2.40040E-001	8.10608E-001	3.57680E+000	9	...........
	69	0.933333	8.15493E-001	4.02439E-004	0.00000E+000	3.28186E-004	2.40040E-001	8.15833E-001	3.57680E+000	9	...........
	70	0.946667	8.20637E-001	3.99926E-004	0.00000E+000	3.28194E-004	2.40040E-001	8.20965E-001	3.57680E+000	9	...........
	71	0.96	8.25770E-001	4.01357E-004	0.00000E+000	3.31428E-004	2.40040E-001	8.26083E-001	3.57680E+000	9	...........
	72	0.97333	8.30885E-001	4.00343E-004	0.00000E+000	3.32639E-004	2.40040E-001	8.31191E-001	3.57680E+000	9	...........
	73	0.98667	8.35937E-001	4.00529E-004	0.00000E+000	3.34817E-004	2.40040E-001	8.36258E-001	3.57680E+000	9	...........
	74	1	8.40981E-001	4.00042E-004	0.00000E+000	3.36427E-004	2.40040E-001	8.41287E-001	3.57680E+000	9	...........
	75	1.01333	8.45948E-001	4.01164E-004	0.00000E+000	3.39364E-004	2.40040E-001	8.46269E-001	3.57680E+000	9	...........
	76	1.02667	8.50851E-001	4.00562E-004	0.00000E+000	3.40818E-004	2.40040E-001	8.51157E-001	3.57680E+000	9	...........
	77	1.04	8.55720E-001	4.00496E-004	0.00000E+000	3.42712E-004	2.40040E-001	8.56023E-001	3.57680E+000	9	...........
	78	1.05333	8.60556E-001	4.01599E-004	0.00000E+000	3.45599E-004	2.40040E-001	8.60851E-001	3.57680E+000	9	...........
	79	1.06667	8.65346E-001	4.00748E-004	0.00000E+000	3.46786E-004	2.40040E-001	8.65659E-001	3.57680E+000	9	...........
	80	1.08	8.70166E-001	4.01516E-004	0.00000E+000	3.49385E-004	2.40040E-001	8.70448E-001	3.57680E+000	9	...........
	81	1.09333	8.74956E-001	4.00256E-004	0.00000E+000	3.50207E-004	2.40040E-001	8.75254E-001	3.57680E+000	9	...........
	82	1.10667	8.79680E-001	4.01385E-004	0.00000E+000	3.53090E-004	2.40040E-001	8.79978E-001	3.57680E+000	9	...........
	83	1.12	8.84333E-001	4.00406E-004	0.00000E+000	3.54093E-004	2.40040E-001	8.84648E-001	3.57680E+000	9	...........
	84	1.13333	8.88950E-001	4.02463E-004	0.00000E+000	3.57770E-004	2.40040E-001	8.89251E-001	3.57680E+000	9	...........
	85	1.14667	8.93533E-001	4.00262E-004	0.00000E+000	3.57647E-004	2.40040E-001	8.93868E-001	3.57680E+000	9	...........
	86	1.16	8.98102E-001	4.00038E-004	0.00000E+000	3.59275E-004	2.40040E-001	8.98428E-001	3.57680E+000	9	...........
	87	1.17333	9.02623E-001	4.01084E-004	0.00000E+000	3.62027E-004	2.40040E-001	9.02964E-001	3.57680E+000	9	...........
	88	1.18667	9.07118E-001	4.01713E-004	0.00000E+000	3.64401E-004	2.40040E-001	9.07457E-001	3.57680E+000	9	...........
	89	1.2	9.11560E-001	4.02847E-004	0.00000E+000	3.67219E-004	2.40040E-001	9.11894E-001	3.57680E+000	9	...........
	90	1.21333	9.15981E-001	4.00856E-004	0.00000E+000	3.67177E-004	2.40040E-001	9.16322E-001	3.57680E+000	9	...........
	91	1.22667	9.20385E-001	4.01084E-004	0.00000E+000	3.69151E-004	2.40040E-001	9.20687E-001	3.57680E+000	9	...........
	92	1.24	9.24737E-001	3.99045E-004	0.00000E+000	3.69011E-004	2.40040E-001	9.25027E-001	3.57680E+000	9	...........
	93	1.25333	9.29005E-001	4.01075E-004	0.00000E+000	3.72601E-004	2.40040E-001	9.29299E-001	3.57680E+000	9	...........
	94	1.26667	9.33270E-001	4.00818E-004	0.00000E+000	3.74071E-004	2.40040E-001	9.33527E-001	3.57680E+000	9	...........
	95	1.28	9.37489E-001	4.00911E-004	0.00000E+000	3.75849E-004	2.40040E-001	9.37766E-001	3.57680E+000	9	...........
	96	1.29333	9.41604E-001	4.00764E-004	0.00000E+000	3.77361E-004	2.40040E-001	9.41886E-001	3.57680E+000	9	...........
	97	1.30667	9.45777E-001	4.00210E-004	0.00000E+000	3.78510E-004	2.40040E-001	9.46069E-001	3.57680E+000	9	...........
	98	1.32	9.49893E-001	4.00453E-004	0.00000E+000	3.80388E-004	2.40040E-001	9.50176E-001	3.57680E+000	9	...........
	99	1.33333	9.53940E-001	4.01340E-004	0.00000E+000	3.82854E-004	2.40040E-001	9.54201E-001	3.57680E+000	9	...........
	100	1.34667	9.57953E-001	4.01175E-004	0.00000E+000	3.84307E-004	2.40040E-001	9.58240E-001	3.57680E+000	9	...........
	101	1.36	9.61946E-001	4.01034E-004	0.00000E+000	3.85773E-004	2.40040E-001	9.62270E-001	3.57680E+000	9	...........
	102	1.37333	9.65892E-001	4.01614E-004	0.00000E+000	3.87916E-004	2.40040E-001	9.66185E-001	3.57680E+000	9	...........
	103	1.38667	9.69816E-001	3.99946E-004	0.00000E+000	3.87874E-004	2.40040E-001	9.70146E-001	3.57680E+000	9	...........
	104	1.4	9.73713E-001	4.00321E-004	0.00000E+000	3.89797E-004	2.40040E-001	9.74025E-001	3.57680E+000	9	...........
	105	1.41333	9.77590E-001	4.01125E-004	0.00000E+000	3.92136E-004	2.40040E-001	9.77895E-001	3.57680E+000	9	...........
	106	1.42667	9.81359E-001	4.02005E-004	0.00000E+000	3.94511E-004	2.40040E-001	9.81665E-001	3.57680E+000	9	...........
	107	1.44	9.85053E-001	4.00684E-004	0.00000E+000	3.94695E-004	2.40040E-001	9.85410E-001	3.57628E+000	9	...........
	108	1.45333	9.88791E-001	4.00916E-004	0.00000E+000	3.96422E-004	2.40040E-001	9.89132E-001	3.57620E+000	9	...........
	109	1.46667	9.92416E-001	4.01185E-004	0.00000E+000	3.98142E-004	2.40040E-001	9.92770E-001	3.57620E+000	9	...........
	110	1.48	9.96088E-001	4.01201E-004	0.00000E+000	3.99632E-004	2.40040E-001	9.96417E-001	3.57620E+000	9	...........
	111	1.49	9.99271E-001	4.00701E-004	0.00000E+000	4.00409E-004	2.40040E-001	9.99601E-001	3.57620E+000	9	...........
STARTTIMEOFFSET	QUANT	2110.789	Start Time Offset (s)
