EXPLAIN
TAG	PWR800_CHARGE
TITLE	LABEL	PWR Cyclic Charge Discharge (Cell) - Charge Step	Test &Identifier
DATE	LABEL	12-7-2017	Date
TIME	LABEL	14:42:17	Time
NOTES	NOTES	3	&Notes...
	supercap test cell
	0.4mg
	6M KOH
PSTAT	PSTAT	IFC5000-01520	Potentiostat
CAPACITY	QUANT	1.00000E-003	Capacity (A-hr)
CELLTYPE	SELECTOR	1	&Cell Type
WORKINGCONNECTION	SELECTOR	0	&Working Lead
MAXCHARGETIME	VARIABLEANDUNITS	1.00000E+002	s	1.00000E+002	second(s)	Max &Charge Time
CHARGECURRENT	QUANT	4.00000E-004	&Charge Current (A) 
VOLTAGEFINISH	TWOPARAM	F	1.00000E-003	3.60000E+003	&Voltage Finish	 I (A) < 	Max Time(s)
SAMPLETIME	QUANT	1.00000E-002	Sa&mple Period (s)
CHARGESTOPAT1	MULTIPARAM	4	1.00000E+000	Charge Stop At &1	Voltage > Limit	V
CHARGESTOPAT2	MULTIPARAM	0	0.00000E+000	Charge Stop At &2	None	N/A
AESBHCSELECTOR	TOGGLE	F	Save Both Half Cells
IRCOMP	TOGGLE	F	IR &Measure
EOC	QUANT	0	Open Circuit (V)
SEQUENCER	TOGGLE	TRUE	Run as Sequence
PSTATMODEL	IQUANT	53	Pstat Model
PSTATSECTION	LABEL	IFC5000-01520	Pstat Section
PSTATSERIALNO	LABEL	01520	Pstat Serial Number
CTRLMODE	IQUANT	0	Control Mode
ELECTROMETER	IQUANT	1	RE=0 or CS=1
IESTAB	IQUANT	0	I/E Stability
CASPEED	IQUANT	4	Control Amp Speed
CONVENTION	IQUANT	1	Current Convention
ICHRANGE	IQUANT	2	Ich Range
ICHRANGEMODE	TOGGLE	T	Ich Auto Range
ICHOFFSETENABLE	TOGGLE	F	Ich Offset Enable
ICHOFFSET	QUANT	0	Ich Offset (V)
ICHFILTER	IQUANT	1	Ich Filter
VCHRANGE	IQUANT	2	Vch Range
VCHRANGEMODE	TOGGLE	T	Vch Auto Range
VCHOFFSETENABLE	TOGGLE	F	Vch Offset Enable
VCHOFFSET	QUANT	0	Vch Offset (V)
VCHFILTER	IQUANT	1	Vch Filter
IERANGELOWERLIMIT	IQUANT	9	I/E Range Lower Limit
IERANGEMODE	TOGGLE	F	I/E AutoRange
IERANGE	IQUANT	9	I/E Range
ACHSELECT	IQUANT	1	Ach Select
ACHRANGE	IQUANT	2	Ach Range
ACHOFFSETENABLE	TOGGLE	F	Ach Offset Enable
ACHOFFSET	QUANT	0	Ach Offset (V)
ACHFILTER	IQUANT	1	Ach Filter
CABLEID	IQUANT	14	Cable ID
DCCALDATE	LABEL	5-7-2017	DC Calibration Date
ACCALDATE	LABEL	12/3/2015	AC Calibration Date
FRAMEWORKVERSION	QUANT	7.01	Framework Version
INSTRUMENTVERSION	LABEL	4.00	Instrument Version
CURVE	TABLE	124
	Pt	T	Vf	Im	Vu	Pwr	Sig	Ach	Temp	IERange	Over
	#	s	V	A	V	W	V	V	deg C	#	bits
	0	0.013333	3.54347E-001	4.01275E-004	0.00000E+000	1.42191E-004	2.40040E-001	3.54423E-001	3.57720E+000	9	...........
	1	0.026667	3.65437E-001	4.00643E-004	0.00000E+000	1.46410E-004	2.40040E-001	3.65510E-001	3.57720E+000	9	...........
	2	0.04	3.75006E-001	4.00451E-004	0.00000E+000	1.50171E-004	2.40040E-001	3.75077E-001	3.57720E+000	9	...........
	3	0.053333	3.83747E-001	4.01198E-004	0.00000E+000	1.53959E-004	2.40040E-001	3.83824E-001	3.57720E+000	9	...........
	4	0.066667	3.91893E-001	4.00152E-004	0.00000E+000	1.56817E-004	2.40040E-001	3.91968E-001	3.57720E+000	9	...........
	5	0.08	3.99744E-001	4.00952E-004	0.00000E+000	1.60278E-004	2.40040E-001	3.99820E-001	3.57720E+000	9	...........
	6	0.093333	4.07238E-001	4.00952E-004	0.00000E+000	1.63283E-004	2.40040E-001	4.07316E-001	3.57720E+000	9	...........
	7	0.106667	4.14428E-001	4.01437E-004	0.00000E+000	1.66367E-004	2.40040E-001	4.14513E-001	3.57720E+000	9	...........
	8	0.12	4.21480E-001	4.01469E-004	0.00000E+000	1.69211E-004	2.40040E-001	4.21572E-001	3.57720E+000	9	...........
	9	0.133333	4.28438E-001	4.00590E-004	0.00000E+000	1.71628E-004	2.40040E-001	4.28527E-001	3.57720E+000	9	...........
	10	0.146667	4.35240E-001	4.00650E-004	0.00000E+000	1.74379E-004	2.40040E-001	4.35329E-001	3.57720E+000	9	...........
	11	0.16	4.41858E-001	4.00615E-004	0.00000E+000	1.77015E-004	2.40040E-001	4.41947E-001	3.57720E+000	9	...........
	12	0.173333	4.48406E-001	4.01126E-004	0.00000E+000	1.79868E-004	2.40040E-001	4.48498E-001	3.57720E+000	9	...........
	13	0.186667	4.54844E-001	4.01113E-004	0.00000E+000	1.82444E-004	2.40040E-001	4.54937E-001	3.57720E+000	9	...........
	14	0.2	4.61307E-001	4.00921E-004	0.00000E+000	1.84948E-004	2.40040E-001	4.61401E-001	3.57720E+000	9	...........
	15	0.213333	4.67600E-001	4.00055E-004	0.00000E+000	1.87066E-004	2.40040E-001	4.67695E-001	3.57720E+000	9	...........
	16	0.226667	4.73847E-001	4.01087E-004	0.00000E+000	1.90054E-004	2.40040E-001	4.73939E-001	3.57720E+000	9	...........
	17	0.24	4.80029E-001	4.01316E-004	0.00000E+000	1.92643E-004	2.40040E-001	4.80121E-001	3.57720E+000	9	...........
	18	0.253333	4.86217E-001	4.00887E-004	0.00000E+000	1.94918E-004	2.40040E-001	4.86312E-001	3.57720E+000	9	...........
	19	0.266667	4.92344E-001	4.00711E-004	0.00000E+000	1.97287E-004	2.40040E-001	4.92445E-001	3.57720E+000	9	...........
	20	0.28	4.98518E-001	4.01536E-004	0.00000E+000	2.00173E-004	2.40040E-001	4.98624E-001	3.57720E+000	9	...........
	21	0.293333	5.04559E-001	4.01182E-004	0.00000E+000	2.02420E-004	2.40040E-001	5.04662E-001	3.57720E+000	9	...........
	22	0.306667	5.10548E-001	3.99727E-004	0.00000E+000	2.04080E-004	2.40040E-001	5.10655E-001	3.57720E+000	9	...........
	23	0.32	5.16520E-001	4.00771E-004	0.00000E+000	2.07006E-004	2.40040E-001	5.16628E-001	3.57720E+000	9	...........
	24	0.333333	5.22434E-001	4.01406E-004	0.00000E+000	2.09708E-004	2.40040E-001	5.22543E-001	3.57720E+000	9	...........
	25	0.346667	5.28414E-001	4.00915E-004	0.00000E+000	2.11849E-004	2.40040E-001	5.28525E-001	3.57720E+000	9	...........
	26	0.36	5.34085E-001	4.01973E-004	0.00000E+000	2.14688E-004	2.40040E-001	5.34271E-001	3.57720E+000	9	...........
	27	0.373333	5.39894E-001	4.00858E-004	0.00000E+000	2.16420E-004	2.40040E-001	5.40137E-001	3.57720E+000	9	...........
	28	0.386667	5.45647E-001	4.00949E-004	0.00000E+000	2.18777E-004	2.40040E-001	5.45879E-001	3.57720E+000	9	...........
	29	0.4	5.51381E-001	4.01497E-004	0.00000E+000	2.21378E-004	2.40040E-001	5.51639E-001	3.57720E+000	9	...........
	30	0.413333	5.57165E-001	4.00060E-004	0.00000E+000	2.22900E-004	2.40040E-001	5.57411E-001	3.57720E+000	9	...........
	31	0.426667	5.62911E-001	4.01534E-004	0.00000E+000	2.26028E-004	2.40040E-001	5.63161E-001	3.57720E+000	9	...........
	32	0.44	5.68678E-001	4.00238E-004	0.00000E+000	2.27606E-004	2.40040E-001	5.68909E-001	3.57720E+000	9	...........
	33	0.453333	5.74284E-001	4.00751E-004	0.00000E+000	2.30145E-004	2.40040E-001	5.74541E-001	3.57720E+000	9	...........
	34	0.466667	5.79902E-001	4.02259E-004	0.00000E+000	2.33271E-004	2.40040E-001	5.80163E-001	3.57720E+000	9	...........
	35	0.48	5.85588E-001	4.01247E-004	0.00000E+000	2.34965E-004	2.40040E-001	5.85842E-001	3.57720E+000	9	...........
	36	0.493333	5.91169E-001	4.01403E-004	0.00000E+000	2.37297E-004	2.40040E-001	5.91438E-001	3.57720E+000	9	...........
	37	0.506667	5.96810E-001	4.01429E-004	0.00000E+000	2.39577E-004	2.40040E-001	5.97060E-001	3.57720E+000	9	...........
	38	0.52	6.02442E-001	4.00473E-004	0.00000E+000	2.41262E-004	2.40040E-001	6.02728E-001	3.57720E+000	9	...........
	39	0.533333	6.08060E-001	4.01149E-004	0.00000E+000	2.43923E-004	2.40040E-001	6.08337E-001	3.57720E+000	9	...........
	40	0.546667	6.13633E-001	4.00328E-004	0.00000E+000	2.45655E-004	2.40040E-001	6.13916E-001	3.57720E+000	9	...........
	41	0.56	6.19193E-001	4.00153E-004	0.00000E+000	2.47772E-004	2.40040E-001	6.19429E-001	3.57720E+000	9	...........
	42	0.573333	6.24769E-001	4.01103E-004	0.00000E+000	2.50597E-004	2.40040E-001	6.24977E-001	3.57720E+000	9	...........
	43	0.586667	6.30337E-001	4.00912E-004	0.00000E+000	2.52709E-004	2.40040E-001	6.30558E-001	3.57720E+000	9	...........
	44	0.6	6.35876E-001	4.01642E-004	0.00000E+000	2.55395E-004	2.40040E-001	6.36109E-001	3.57720E+000	9	...........
	45	0.613333	6.41375E-001	4.01498E-004	0.00000E+000	2.57511E-004	2.40040E-001	6.41623E-001	3.57720E+000	9	...........
	46	0.626667	6.46813E-001	3.99608E-004	0.00000E+000	2.58472E-004	2.40040E-001	6.47051E-001	3.57720E+000	9	...........
	47	0.64	6.52344E-001	4.01608E-004	0.00000E+000	2.61986E-004	2.40040E-001	6.52589E-001	3.57720E+000	9	...........
	48	0.653333	6.57851E-001	4.01264E-004	0.00000E+000	2.63972E-004	2.40040E-001	6.58077E-001	3.57720E+000	9	...........
	49	0.666667	6.63272E-001	4.01187E-004	0.00000E+000	2.66096E-004	2.40040E-001	6.63538E-001	3.57720E+000	9	...........
	50	0.68	6.68721E-001	4.00797E-004	0.00000E+000	2.68021E-004	2.40040E-001	6.68959E-001	3.57720E+000	9	...........
	51	0.693333	6.74167E-001	4.01697E-004	0.00000E+000	2.70811E-004	2.40040E-001	6.74400E-001	3.57720E+000	9	...........
	52	0.706667	6.79505E-001	4.00440E-004	0.00000E+000	2.72101E-004	2.40040E-001	6.79757E-001	3.57720E+000	9	...........
	53	0.72	6.84873E-001	4.01530E-004	0.00000E+000	2.74997E-004	2.40040E-001	6.85145E-001	3.57720E+000	9	...........
	54	0.733333	6.90247E-001	4.00871E-004	0.00000E+000	2.76700E-004	2.40040E-001	6.90525E-001	3.57720E+000	9	...........
	55	0.746667	6.95605E-001	4.02093E-004	0.00000E+000	2.79698E-004	2.40040E-001	6.95863E-001	3.57720E+000	9	...........
	56	0.76	7.00900E-001	4.02077E-004	0.00000E+000	2.81816E-004	2.40040E-001	7.01170E-001	3.57720E+000	9	...........
	57	0.773333	7.06294E-001	3.99971E-004	0.00000E+000	2.82497E-004	2.40040E-001	7.06534E-001	3.57720E+000	9	...........
	58	0.786667	7.11653E-001	4.00651E-004	0.00000E+000	2.85125E-004	2.40040E-001	7.11880E-001	3.57720E+000	9	...........
	59	0.8	7.16923E-001	4.01054E-004	0.00000E+000	2.87525E-004	2.40040E-001	7.17180E-001	3.57720E+000	9	...........
	60	0.813333	7.22246E-001	4.02037E-004	0.00000E+000	2.90369E-004	2.40040E-001	7.22448E-001	3.57742E+000	9	...........
	61	0.826667	7.27450E-001	3.99950E-004	0.00000E+000	2.90944E-004	2.40040E-001	7.27681E-001	3.57750E+000	9	...........
	62	0.84	7.32731E-001	4.00922E-004	0.00000E+000	2.93768E-004	2.40040E-001	7.32975E-001	3.57750E+000	9	...........
	63	0.853333	7.37930E-001	4.01150E-004	0.00000E+000	2.96021E-004	2.40040E-001	7.38184E-001	3.57750E+000	9	...........
	64	0.866667	7.43167E-001	4.00195E-004	0.00000E+000	2.97412E-004	2.40040E-001	7.43416E-001	3.57750E+000	9	...........
	65	0.88	7.48374E-001	4.01331E-004	0.00000E+000	3.00345E-004	2.40040E-001	7.48649E-001	3.57750E+000	9	...........
	66	0.893333	7.53489E-001	4.00930E-004	0.00000E+000	3.02097E-004	2.40040E-001	7.53762E-001	3.57750E+000	9	...........
	67	0.906667	7.58696E-001	4.00953E-004	0.00000E+000	3.04202E-004	2.40040E-001	7.58945E-001	3.57750E+000	9	...........
	68	0.92	7.63860E-001	4.01063E-004	0.00000E+000	3.06356E-004	2.40040E-001	7.64101E-001	3.57750E+000	9	...........
	69	0.933333	7.68962E-001	4.00518E-004	0.00000E+000	3.07983E-004	2.40040E-001	7.69232E-001	3.57750E+000	9	...........
	70	0.946667	7.74061E-001	4.02057E-004	0.00000E+000	3.11217E-004	2.40040E-001	7.74326E-001	3.57750E+000	9	...........
	71	0.96	7.79071E-001	4.02657E-004	0.00000E+000	3.13698E-004	2.40040E-001	7.79340E-001	3.57750E+000	9	...........
	72	0.97333	7.84161E-001	4.00195E-004	0.00000E+000	3.13817E-004	2.40040E-001	7.84417E-001	3.57750E+000	9	...........
	73	0.98667	7.89146E-001	4.00498E-004	0.00000E+000	3.16051E-004	2.40040E-001	7.89405E-001	3.57750E+000	9	...........
	74	1	7.94160E-001	4.00520E-004	0.00000E+000	3.18077E-004	2.40040E-001	7.94420E-001	3.57750E+000	9	...........
	75	1.01333	7.99104E-001	4.01265E-004	0.00000E+000	3.20652E-004	2.40040E-001	7.99362E-001	3.57750E+000	9	...........
	76	1.02667	8.04054E-001	3.99377E-004	0.00000E+000	3.21120E-004	2.40040E-001	8.04322E-001	3.57750E+000	9	...........
	77	1.04	8.08910E-001	4.02083E-004	0.00000E+000	3.25249E-004	2.40040E-001	8.09192E-001	3.57750E+000	9	...........
	78	1.05333	8.13786E-001	4.01906E-004	0.00000E+000	3.27065E-004	2.40040E-001	8.14083E-001	3.57750E+000	9	...........
	79	1.06667	8.18747E-001	4.00970E-004	0.00000E+000	3.28293E-004	2.40040E-001	8.19038E-001	3.57750E+000	9	...........
	80	1.08	8.23616E-001	4.01599E-004	0.00000E+000	3.30764E-004	2.40040E-001	8.23885E-001	3.57750E+000	9	...........
	81	1.09333	8.28474E-001	4.01562E-004	0.00000E+000	3.32683E-004	2.40040E-001	8.28726E-001	3.57750E+000	9	...........
	82	1.10667	8.33262E-001	4.01173E-004	0.00000E+000	3.34282E-004	2.40040E-001	8.33548E-001	3.57750E+000	9	...........
	83	1.12	8.38030E-001	4.02360E-004	0.00000E+000	3.37190E-004	2.40040E-001	8.38306E-001	3.57750E+000	9	...........
	84	1.13333	8.42709E-001	4.01636E-004	0.00000E+000	3.38462E-004	2.40040E-001	8.42976E-001	3.57750E+000	9	...........
	85	1.14667	8.47407E-001	4.03037E-004	0.00000E+000	3.41537E-004	2.40040E-001	8.47676E-001	3.57750E+000	9	...........
	86	1.16	8.52070E-001	3.99726E-004	0.00000E+000	3.40595E-004	2.40040E-001	8.52346E-001	3.57750E+000	9	...........
	87	1.17333	8.56658E-001	3.99571E-004	0.00000E+000	3.42296E-004	2.40040E-001	8.56956E-001	3.57750E+000	9	...........
	88	1.18667	8.61191E-001	4.00908E-004	0.00000E+000	3.45258E-004	2.40040E-001	8.61484E-001	3.57750E+000	9	...........
	89	1.2	8.65766E-001	4.00955E-004	0.00000E+000	3.47134E-004	2.40040E-001	8.66062E-001	3.57750E+000	9	...........
	90	1.21333	8.70338E-001	4.00215E-004	0.00000E+000	3.48322E-004	2.40040E-001	8.70628E-001	3.57750E+000	9	...........
	91	1.22667	8.74833E-001	4.01296E-004	0.00000E+000	3.51067E-004	2.40040E-001	8.75152E-001	3.57750E+000	9	...........
	92	1.24	8.79281E-001	4.01299E-004	0.00000E+000	3.52855E-004	2.40040E-001	8.79587E-001	3.57750E+000	9	...........
	93	1.25333	8.83758E-001	4.01279E-004	0.00000E+000	3.54634E-004	2.40040E-001	8.84067E-001	3.57750E+000	9	...........
	94	1.26667	8.88118E-001	4.00849E-004	0.00000E+000	3.56002E-004	2.40040E-001	8.88430E-001	3.57750E+000	9	...........
	95	1.28	8.92561E-001	4.01013E-004	0.00000E+000	3.57928E-004	2.40040E-001	8.92870E-001	3.57750E+000	9	...........
	96	1.29333	8.96927E-001	4.01234E-004	0.00000E+000	3.59877E-004	2.40040E-001	8.97279E-001	3.57750E+000	9	...........
	97	1.30667	9.01206E-001	4.01516E-004	0.00000E+000	3.61848E-004	2.40040E-001	9.01555E-001	3.57750E+000	9	...........
	98	1.32	9.05457E-001	4.01925E-004	0.00000E+000	3.63926E-004	2.40040E-001	9.05820E-001	3.57750E+000	9	...........
	99	1.33333	9.09744E-001	4.00314E-004	0.00000E+000	3.64183E-004	2.40040E-001	9.10083E-001	3.57750E+000	9	...........
	100	1.34667	9.13904E-001	4.01113E-004	0.00000E+000	3.66579E-004	2.40040E-001	9.14225E-001	3.57750E+000	9	...........
	101	1.36	9.18130E-001	4.01870E-004	0.00000E+000	3.68969E-004	2.40040E-001	9.18464E-001	3.57750E+000	9	...........
	102	1.37333	9.22339E-001	4.01229E-004	0.00000E+000	3.70069E-004	2.40040E-001	9.22613E-001	3.57750E+000	9	...........
	103	1.38667	9.26493E-001	4.01240E-004	0.00000E+000	3.71746E-004	2.40040E-001	9.26777E-001	3.57750E+000	9	...........
	104	1.4	9.30503E-001	4.01698E-004	0.00000E+000	3.73781E-004	2.40040E-001	9.30800E-001	3.57750E+000	9	...........
	105	1.41333	9.34496E-001	4.00917E-004	0.00000E+000	3.74655E-004	2.40040E-001	9.34805E-001	3.57750E+000	9	...........
	106	1.42667	9.38521E-001	4.00113E-004	0.00000E+000	3.75514E-004	2.40040E-001	9.38858E-001	3.57750E+000	9	...........
	107	1.44	9.42506E-001	4.01397E-004	0.00000E+000	3.78319E-004	2.40040E-001	9.42840E-001	3.57750E+000	9	...........
	108	1.45333	9.46479E-001	4.01064E-004	0.00000E+000	3.79598E-004	2.40040E-001	9.46800E-001	3.57750E+000	9	...........
	109	1.46667	9.50369E-001	4.01225E-004	0.00000E+000	3.81312E-004	2.40040E-001	9.50690E-001	3.57750E+000	9	...........
	110	1.48	9.54249E-001	4.00774E-004	0.00000E+000	3.82438E-004	2.40040E-001	9.54563E-001	3.57750E+000	9	...........
	111	1.49333	9.58132E-001	4.01540E-004	0.00000E+000	3.84728E-004	2.40040E-001	9.58445E-001	3.57750E+000	9	...........
	112	1.50667	9.61886E-001	4.01001E-004	0.00000E+000	3.85717E-004	2.40040E-001	9.62239E-001	3.57750E+000	9	...........
	113	1.52	9.65683E-001	4.01008E-004	0.00000E+000	3.87246E-004	2.40040E-001	9.65994E-001	3.57750E+000	9	...........
	114	1.53333	9.69433E-001	4.00955E-004	0.00000E+000	3.88700E-004	2.40040E-001	9.69749E-001	3.57750E+000	9	...........
	115	1.54667	9.73189E-001	4.02175E-004	0.00000E+000	3.91393E-004	2.40040E-001	9.73466E-001	3.57750E+000	9	...........
	116	1.56	9.76820E-001	4.02129E-004	0.00000E+000	3.92807E-004	2.40040E-001	9.77105E-001	3.57750E+000	9	...........
	117	1.57333	9.80429E-001	4.01362E-004	0.00000E+000	3.93507E-004	2.40040E-001	9.80696E-001	3.57750E+000	9	...........
	118	1.58667	9.83986E-001	4.02230E-004	0.00000E+000	3.95789E-004	2.40040E-001	9.84281E-001	3.57750E+000	9	...........
	119	1.6	9.87509E-001	3.98977E-004	0.00000E+000	3.93993E-004	2.40040E-001	9.87852E-001	3.57750E+000	9	...........
	120	1.61333	9.91093E-001	4.02091E-004	0.00000E+000	3.98510E-004	2.40040E-001	9.91425E-001	3.57750E+000	9	...........
	121	1.62667	9.94549E-001	4.00965E-004	0.00000E+000	3.98779E-004	2.40040E-001	9.94866E-001	3.57750E+000	9	...........
	122	1.64	9.98025E-001	4.00797E-004	0.00000E+000	4.00006E-004	2.40040E-001	9.98360E-001	3.57750E+000	9	...........
	123	1.64333	1.00022E+000	4.00727E-004	0.00000E+000	4.00814E-004	2.40040E-001	1.00049E+000	3.57750E+000	9	...........
STARTTIMEOFFSET	QUANT	1136.923	Start Time Offset (s)
