EXPLAIN
TAG	PWR800_CHARGE
TITLE	LABEL	PWR Cyclic Charge Discharge (Cell) - Charge Step	Test &Identifier
DATE	LABEL	12-7-2017	Date
TIME	LABEL	14:58:47	Time
NOTES	NOTES	3	&Notes...
	supercap test cell
	0.4mg
	6M KOH
PSTAT	PSTAT	IFC5000-01520	Potentiostat
CAPACITY	QUANT	1.00000E-003	Capacity (A-hr)
CELLTYPE	SELECTOR	1	&Cell Type
WORKINGCONNECTION	SELECTOR	0	&Working Lead
MAXCHARGETIME	VARIABLEANDUNITS	1.00000E+002	s	1.00000E+002	second(s)	Max &Charge Time
CHARGECURRENT	QUANT	4.00000E-004	&Charge Current (A) 
VOLTAGEFINISH	TWOPARAM	F	1.00000E-003	3.60000E+003	&Voltage Finish	 I (A) < 	Max Time(s)
SAMPLETIME	QUANT	1.00000E-002	Sa&mple Period (s)
CHARGESTOPAT1	MULTIPARAM	4	1.00000E+000	Charge Stop At &1	Voltage > Limit	V
CHARGESTOPAT2	MULTIPARAM	0	0.00000E+000	Charge Stop At &2	None	N/A
AESBHCSELECTOR	TOGGLE	F	Save Both Half Cells
IRCOMP	TOGGLE	F	IR &Measure
EOC	QUANT	0	Open Circuit (V)
SEQUENCER	TOGGLE	TRUE	Run as Sequence
PSTATMODEL	IQUANT	53	Pstat Model
PSTATSECTION	LABEL	IFC5000-01520	Pstat Section
PSTATSERIALNO	LABEL	01520	Pstat Serial Number
CTRLMODE	IQUANT	0	Control Mode
ELECTROMETER	IQUANT	1	RE=0 or CS=1
IESTAB	IQUANT	0	I/E Stability
CASPEED	IQUANT	4	Control Amp Speed
CONVENTION	IQUANT	1	Current Convention
ICHRANGE	IQUANT	2	Ich Range
ICHRANGEMODE	TOGGLE	T	Ich Auto Range
ICHOFFSETENABLE	TOGGLE	F	Ich Offset Enable
ICHOFFSET	QUANT	0	Ich Offset (V)
ICHFILTER	IQUANT	1	Ich Filter
VCHRANGE	IQUANT	2	Vch Range
VCHRANGEMODE	TOGGLE	T	Vch Auto Range
VCHOFFSETENABLE	TOGGLE	F	Vch Offset Enable
VCHOFFSET	QUANT	0	Vch Offset (V)
VCHFILTER	IQUANT	1	Vch Filter
IERANGELOWERLIMIT	IQUANT	9	I/E Range Lower Limit
IERANGEMODE	TOGGLE	F	I/E AutoRange
IERANGE	IQUANT	9	I/E Range
ACHSELECT	IQUANT	1	Ach Select
ACHRANGE	IQUANT	2	Ach Range
ACHOFFSETENABLE	TOGGLE	F	Ach Offset Enable
ACHOFFSET	QUANT	0	Ach Offset (V)
ACHFILTER	IQUANT	1	Ach Filter
CABLEID	IQUANT	14	Cable ID
DCCALDATE	LABEL	5-7-2017	DC Calibration Date
ACCALDATE	LABEL	12/3/2015	AC Calibration Date
FRAMEWORKVERSION	QUANT	7.01	Framework Version
INSTRUMENTVERSION	LABEL	4.00	Instrument Version
CURVE	TABLE	114
	Pt	T	Vf	Im	Vu	Pwr	Sig	Ach	Temp	IERange	Over
	#	s	V	A	V	W	V	V	deg C	#	bits
	0	0.013333	3.72936E-001	4.00166E-004	0.00000E+000	1.49236E-004	2.40040E-001	3.73025E-001	3.57740E+000	9	...........
	1	0.026667	3.84928E-001	4.01056E-004	0.00000E+000	1.54378E-004	2.40040E-001	3.85005E-001	3.57740E+000	9	...........
	2	0.04	3.95189E-001	3.99345E-004	0.00000E+000	1.57817E-004	2.40040E-001	3.95263E-001	3.57740E+000	9	...........
	3	0.053333	4.04557E-001	4.01078E-004	0.00000E+000	1.62259E-004	2.40040E-001	4.04635E-001	3.57740E+000	9	...........
	4	0.066667	4.13203E-001	4.03106E-004	0.00000E+000	1.66565E-004	2.40040E-001	4.13289E-001	3.57740E+000	9	...........
	5	0.08	4.21517E-001	4.01245E-004	0.00000E+000	1.69132E-004	2.40040E-001	4.21601E-001	3.57740E+000	9	...........
	6	0.093333	4.29434E-001	4.00720E-004	0.00000E+000	1.72083E-004	2.40040E-001	4.29517E-001	3.57740E+000	9	...........
	7	0.106667	4.37150E-001	4.00633E-004	0.00000E+000	1.75137E-004	2.40040E-001	4.37235E-001	3.57740E+000	9	...........
	8	0.12	4.44627E-001	4.01780E-004	0.00000E+000	1.78642E-004	2.40040E-001	4.44716E-001	3.57740E+000	9	...........
	9	0.133333	4.51903E-001	4.01851E-004	0.00000E+000	1.81598E-004	2.40040E-001	4.51989E-001	3.57740E+000	9	...........
	10	0.146667	4.58998E-001	4.01777E-004	0.00000E+000	1.84415E-004	2.40040E-001	4.59090E-001	3.57740E+000	9	...........
	11	0.16	4.66054E-001	4.01273E-004	0.00000E+000	1.87015E-004	2.40040E-001	4.66141E-001	3.57740E+000	9	...........
	12	0.173333	4.72985E-001	4.00970E-004	0.00000E+000	1.89653E-004	2.40040E-001	4.73082E-001	3.57740E+000	9	...........
	13	0.186667	4.79912E-001	4.00892E-004	0.00000E+000	1.92393E-004	2.40040E-001	4.80011E-001	3.57740E+000	9	...........
	14	0.2	4.86746E-001	4.00504E-004	0.00000E+000	1.94944E-004	2.40040E-001	4.86841E-001	3.57740E+000	9	...........
	15	0.213333	4.93497E-001	4.01058E-004	0.00000E+000	1.97921E-004	2.40040E-001	4.93592E-001	3.57740E+000	9	...........
	16	0.226667	5.00165E-001	4.00285E-004	0.00000E+000	2.00209E-004	2.40040E-001	5.00262E-001	3.57740E+000	9	...........
	17	0.24	5.06664E-001	4.01437E-004	0.00000E+000	2.03394E-004	2.40040E-001	5.06773E-001	3.57740E+000	9	...........
	18	0.253333	5.13232E-001	4.00756E-004	0.00000E+000	2.05681E-004	2.40040E-001	5.13340E-001	3.57740E+000	9	...........
	19	0.266667	5.19682E-001	4.01635E-004	0.00000E+000	2.08722E-004	2.40040E-001	5.19792E-001	3.57740E+000	9	...........
	20	0.28	5.26137E-001	4.00331E-004	0.00000E+000	2.10629E-004	2.40040E-001	5.26246E-001	3.57740E+000	9	...........
	21	0.293333	5.32434E-001	3.99399E-004	0.00000E+000	2.12653E-004	2.40040E-001	5.32536E-001	3.57740E+000	9	...........
	22	0.306667	5.38575E-001	4.01351E-004	0.00000E+000	2.16158E-004	2.40040E-001	5.38792E-001	3.57740E+000	9	...........
	23	0.32	5.44894E-001	4.00935E-004	0.00000E+000	2.18467E-004	2.40040E-001	5.45096E-001	3.57740E+000	9	...........
	24	0.333333	5.51061E-001	4.00902E-004	0.00000E+000	2.20922E-004	2.40040E-001	5.51310E-001	3.57740E+000	9	...........
	25	0.346667	5.57237E-001	4.00333E-004	0.00000E+000	2.23081E-004	2.40040E-001	5.57495E-001	3.57740E+000	9	...........
	26	0.36	5.63441E-001	4.01168E-004	0.00000E+000	2.26034E-004	2.40040E-001	5.63670E-001	3.57740E+000	9	...........
	27	0.373333	5.69641E-001	4.00912E-004	0.00000E+000	2.28376E-004	2.40040E-001	5.69870E-001	3.57740E+000	9	...........
	28	0.386667	5.75724E-001	4.00517E-004	0.00000E+000	2.30587E-004	2.40040E-001	5.75957E-001	3.57740E+000	9	...........
	29	0.4	5.81835E-001	4.01359E-004	0.00000E+000	2.33525E-004	2.40040E-001	5.82075E-001	3.57740E+000	9	...........
	30	0.413333	5.87920E-001	4.01770E-004	0.00000E+000	2.36209E-004	2.40040E-001	5.88148E-001	3.57740E+000	9	...........
	31	0.426667	5.93941E-001	4.01266E-004	0.00000E+000	2.38328E-004	2.40040E-001	5.94173E-001	3.57740E+000	9	...........
	32	0.44	5.99942E-001	4.02279E-004	0.00000E+000	2.41344E-004	2.40040E-001	6.00183E-001	3.57740E+000	9	...........
	33	0.453333	6.05933E-001	4.00263E-004	0.00000E+000	2.42532E-004	2.40040E-001	6.06168E-001	3.57740E+000	9	...........
	34	0.466667	6.11879E-001	4.01849E-004	0.00000E+000	2.45883E-004	2.40040E-001	6.12114E-001	3.57740E+000	9	...........
	35	0.48	6.17876E-001	4.01437E-004	0.00000E+000	2.48038E-004	2.40040E-001	6.18066E-001	3.57730E+000	9	...........
	36	0.493333	6.23834E-001	4.01180E-004	0.00000E+000	2.50270E-004	2.40040E-001	6.24033E-001	3.57700E+000	9	...........
	37	0.506667	6.29688E-001	4.01081E-004	0.00000E+000	2.52556E-004	2.40040E-001	6.29904E-001	3.57700E+000	9	...........
	38	0.52	6.35615E-001	4.01209E-004	0.00000E+000	2.55014E-004	2.40040E-001	6.35829E-001	3.57700E+000	9	...........
	39	0.533333	6.41564E-001	4.02212E-004	0.00000E+000	2.58045E-004	2.40040E-001	6.41786E-001	3.57700E+000	9	...........
	40	0.546667	6.47426E-001	4.02076E-004	0.00000E+000	2.60315E-004	2.40040E-001	6.47667E-001	3.57700E+000	9	...........
	41	0.56	6.53299E-001	4.00935E-004	0.00000E+000	2.61930E-004	2.40040E-001	6.53538E-001	3.57700E+000	9	...........
	42	0.573333	6.59115E-001	4.02819E-004	0.00000E+000	2.65504E-004	2.40040E-001	6.59338E-001	3.57700E+000	9	...........
	43	0.586667	6.64921E-001	4.02344E-004	0.00000E+000	2.67527E-004	2.40040E-001	6.65154E-001	3.57700E+000	9	...........
	44	0.6	6.70837E-001	4.01477E-004	0.00000E+000	2.69326E-004	2.40040E-001	6.71015E-001	3.57700E+000	9	...........
	45	0.613333	6.76621E-001	4.02055E-004	0.00000E+000	2.72039E-004	2.40040E-001	6.76819E-001	3.57700E+000	9	...........
	46	0.626667	6.82277E-001	4.00000E-004	0.00000E+000	2.72911E-004	2.40040E-001	6.82458E-001	3.57700E+000	9	...........
	47	0.64	6.87988E-001	4.00500E-004	0.00000E+000	2.75539E-004	2.40040E-001	6.88205E-001	3.57700E+000	9	...........
	48	0.653333	6.93718E-001	4.02123E-004	0.00000E+000	2.78960E-004	2.40040E-001	6.93930E-001	3.57700E+000	9	...........
	49	0.666667	6.99381E-001	4.00915E-004	0.00000E+000	2.80392E-004	2.40040E-001	6.99597E-001	3.57700E+000	9	...........
	50	0.68	7.05028E-001	4.00421E-004	0.00000E+000	2.82308E-004	2.40040E-001	7.05230E-001	3.57700E+000	9	...........
	51	0.693333	7.10624E-001	4.00564E-004	0.00000E+000	2.84650E-004	2.40040E-001	7.10871E-001	3.57700E+000	9	...........
	52	0.706667	7.16241E-001	3.99694E-004	0.00000E+000	2.86277E-004	2.40040E-001	7.16468E-001	3.57700E+000	9	...........
	53	0.72	7.21884E-001	4.00954E-004	0.00000E+000	2.89443E-004	2.40040E-001	7.22089E-001	3.57700E+000	9	...........
	54	0.733333	7.27380E-001	4.00553E-004	0.00000E+000	2.91355E-004	2.40040E-001	7.27601E-001	3.57700E+000	9	...........
	55	0.746667	7.32889E-001	4.00895E-004	0.00000E+000	2.93811E-004	2.40040E-001	7.33141E-001	3.57700E+000	9	...........
	56	0.76	7.38444E-001	4.00511E-004	0.00000E+000	2.95755E-004	2.40040E-001	7.38696E-001	3.57700E+000	9	...........
	57	0.773333	7.43954E-001	4.01727E-004	0.00000E+000	2.98867E-004	2.40040E-001	7.44213E-001	3.57700E+000	9	...........
	58	0.786667	7.49336E-001	4.00940E-004	0.00000E+000	3.00439E-004	2.40040E-001	7.49575E-001	3.57700E+000	9	...........
	59	0.8	7.54707E-001	4.00863E-004	0.00000E+000	3.02534E-004	2.40040E-001	7.54951E-001	3.57700E+000	9	...........
	60	0.813333	7.60119E-001	4.00779E-004	0.00000E+000	3.04640E-004	2.40040E-001	7.60355E-001	3.57700E+000	9	...........
	61	0.826667	7.65466E-001	4.00348E-004	0.00000E+000	3.06453E-004	2.40040E-001	7.65722E-001	3.57700E+000	9	...........
	62	0.84	7.70803E-001	4.00487E-004	0.00000E+000	3.08696E-004	2.40040E-001	7.71052E-001	3.57700E+000	9	...........
	63	0.853333	7.76153E-001	4.01270E-004	0.00000E+000	3.11447E-004	2.40040E-001	7.76397E-001	3.57700E+000	9	...........
	64	0.866667	7.81455E-001	4.00607E-004	0.00000E+000	3.13057E-004	2.40040E-001	7.81692E-001	3.57700E+000	9	...........
	65	0.88	7.86712E-001	4.01408E-004	0.00000E+000	3.15792E-004	2.40040E-001	7.86960E-001	3.57700E+000	9	...........
	66	0.893333	7.91947E-001	4.00791E-004	0.00000E+000	3.17405E-004	2.40040E-001	7.92207E-001	3.57700E+000	9	...........
	67	0.906667	7.97167E-001	4.02132E-004	0.00000E+000	3.20566E-004	2.40040E-001	7.97417E-001	3.57700E+000	9	...........
	68	0.92	8.02358E-001	4.00592E-004	0.00000E+000	3.21418E-004	2.40040E-001	8.02580E-001	3.57700E+000	9	...........
	69	0.933333	8.07477E-001	4.01698E-004	0.00000E+000	3.24362E-004	2.40040E-001	8.07711E-001	3.57700E+000	9	...........
	70	0.946667	8.12549E-001	4.00941E-004	0.00000E+000	3.25784E-004	2.40040E-001	8.12806E-001	3.57700E+000	9	...........
	71	0.96	8.17657E-001	4.01489E-004	0.00000E+000	3.28280E-004	2.40040E-001	8.17931E-001	3.57700E+000	9	...........
	72	0.97333	8.22728E-001	4.00965E-004	0.00000E+000	3.29885E-004	2.40040E-001	8.22998E-001	3.57700E+000	9	...........
	73	0.98667	8.27757E-001	4.00833E-004	0.00000E+000	3.31792E-004	2.40040E-001	8.28041E-001	3.57700E+000	9	...........
	74	1	8.32777E-001	4.01835E-004	0.00000E+000	3.34639E-004	2.40040E-001	8.33070E-001	3.57700E+000	9	...........
	75	1.01333	8.37702E-001	4.00676E-004	0.00000E+000	3.35647E-004	2.40040E-001	8.38000E-001	3.57700E+000	9	...........
	76	1.02667	8.42633E-001	4.00714E-004	0.00000E+000	3.37655E-004	2.40040E-001	8.42936E-001	3.57700E+000	9	...........
	77	1.04	8.47562E-001	4.01468E-004	0.00000E+000	3.40269E-004	2.40040E-001	8.47851E-001	3.57700E+000	9	...........
	78	1.05333	8.52403E-001	4.00117E-004	0.00000E+000	3.41061E-004	2.40040E-001	8.52687E-001	3.57700E+000	9	...........
	79	1.06667	8.57206E-001	4.01436E-004	0.00000E+000	3.44113E-004	2.40040E-001	8.57523E-001	3.57700E+000	9	...........
	80	1.08	8.62048E-001	4.00223E-004	0.00000E+000	3.45011E-004	2.40040E-001	8.62334E-001	3.57700E+000	9	...........
	81	1.09333	8.66868E-001	4.01302E-004	0.00000E+000	3.47876E-004	2.40040E-001	8.67197E-001	3.57700E+000	9	...........
	82	1.10667	8.71625E-001	4.01683E-004	0.00000E+000	3.50117E-004	2.40040E-001	8.71951E-001	3.57700E+000	9	...........
	83	1.12	8.76303E-001	4.00686E-004	0.00000E+000	3.51122E-004	2.40040E-001	8.76629E-001	3.57700E+000	9	...........
	84	1.13333	8.80952E-001	4.01867E-004	0.00000E+000	3.54026E-004	2.40040E-001	8.81278E-001	3.57700E+000	9	...........
	85	1.14667	8.85551E-001	4.00310E-004	0.00000E+000	3.54495E-004	2.40040E-001	8.85879E-001	3.57700E+000	9	...........
	86	1.16	8.90149E-001	4.01269E-004	0.00000E+000	3.57189E-004	2.40040E-001	8.90455E-001	3.57700E+000	9	...........
	87	1.17333	8.94690E-001	4.00891E-004	0.00000E+000	3.58673E-004	2.40040E-001	8.95000E-001	3.57700E+000	9	...........
	88	1.18667	8.99174E-001	4.01475E-004	0.00000E+000	3.60996E-004	2.40040E-001	8.99495E-001	3.57700E+000	9	...........
	89	1.2	9.03608E-001	4.00973E-004	0.00000E+000	3.62322E-004	2.40040E-001	9.03933E-001	3.57700E+000	9	...........
	90	1.21333	9.08001E-001	4.01179E-004	0.00000E+000	3.64271E-004	2.40040E-001	9.08302E-001	3.57700E+000	9	...........
	91	1.22667	9.12406E-001	4.00966E-004	0.00000E+000	3.65844E-004	2.40040E-001	9.12690E-001	3.57700E+000	9	...........
	92	1.24	9.16749E-001	4.01302E-004	0.00000E+000	3.67894E-004	2.40040E-001	9.17060E-001	3.57700E+000	9	...........
	93	1.25333	9.21106E-001	4.00970E-004	0.00000E+000	3.69336E-004	2.40040E-001	9.21382E-001	3.57700E+000	9	...........
	94	1.26667	9.25441E-001	4.00668E-004	0.00000E+000	3.70794E-004	2.40040E-001	9.25708E-001	3.57700E+000	9	...........
	95	1.28	9.29696E-001	4.02304E-004	0.00000E+000	3.74020E-004	2.40040E-001	9.29980E-001	3.57700E+000	9	...........
	96	1.29333	9.33948E-001	4.00753E-004	0.00000E+000	3.74283E-004	2.40040E-001	9.34247E-001	3.57700E+000	9	...........
	97	1.30667	9.38112E-001	4.00353E-004	0.00000E+000	3.75576E-004	2.40040E-001	9.38415E-001	3.57700E+000	9	...........
	98	1.32	9.42255E-001	4.00644E-004	0.00000E+000	3.77509E-004	2.40040E-001	9.42568E-001	3.57700E+000	9	...........
	99	1.33333	9.46330E-001	4.01177E-004	0.00000E+000	3.79646E-004	2.40040E-001	9.46663E-001	3.57700E+000	9	...........
	100	1.34667	9.50474E-001	4.01381E-004	0.00000E+000	3.81502E-004	2.40040E-001	9.50756E-001	3.57700E+000	9	...........
	101	1.36	9.54565E-001	4.01128E-004	0.00000E+000	3.82903E-004	2.40040E-001	9.54859E-001	3.57700E+000	9	...........
	102	1.37333	9.58548E-001	4.01406E-004	0.00000E+000	3.84767E-004	2.40040E-001	9.58834E-001	3.57700E+000	9	...........
	103	1.38667	9.62427E-001	4.01086E-004	0.00000E+000	3.86016E-004	2.40040E-001	9.62735E-001	3.57700E+000	9	...........
	104	1.4	9.66305E-001	3.99941E-004	0.00000E+000	3.86465E-004	2.40040E-001	9.66618E-001	3.57700E+000	9	...........
	105	1.41333	9.70166E-001	4.01025E-004	0.00000E+000	3.89061E-004	2.40040E-001	9.70499E-001	3.57700E+000	9	...........
	106	1.42667	9.74018E-001	4.01175E-004	0.00000E+000	3.90752E-004	2.40040E-001	9.74321E-001	3.57700E+000	9	...........
	107	1.44	9.77874E-001	4.00491E-004	0.00000E+000	3.91630E-004	2.40040E-001	9.78199E-001	3.57700E+000	9	...........
	108	1.45333	9.81652E-001	4.01436E-004	0.00000E+000	3.94070E-004	2.40040E-001	9.81975E-001	3.57700E+000	9	...........
	109	1.46667	9.85321E-001	4.00094E-004	0.00000E+000	3.94221E-004	2.40040E-001	9.85652E-001	3.57700E+000	9	...........
	110	1.48	9.88983E-001	4.01814E-004	0.00000E+000	3.97387E-004	2.40040E-001	9.89286E-001	3.57690E+000	9	...........
	111	1.49333	9.92570E-001	3.99688E-004	0.00000E+000	3.96719E-004	2.40040E-001	9.92915E-001	3.57660E+000	9	...........
	112	1.50667	9.96221E-001	4.01758E-004	0.00000E+000	4.00239E-004	2.40040E-001	9.96535E-001	3.57660E+000	9	...........
	113	1.51667	9.99326E-001	4.01250E-004	0.00000E+000	4.00979E-004	2.40040E-001	9.99652E-001	3.57660E+000	9	...........
STARTTIMEOFFSET	QUANT	1916.342	Start Time Offset (s)
