EXPLAIN
TAG	PWR800_CHARGE
TITLE	LABEL	PWR Cyclic Charge Discharge (Cell) - Charge Step	Test &Identifier
DATE	LABEL	12-7-2017	Date
TIME	LABEL	15:21:25	Time
NOTES	NOTES	3	&Notes...
	supercap test cell
	0.4mg
	6M KOH
PSTAT	PSTAT	IFC5000-01520	Potentiostat
CAPACITY	QUANT	1.00000E-003	Capacity (A-hr)
CELLTYPE	SELECTOR	1	&Cell Type
WORKINGCONNECTION	SELECTOR	0	&Working Lead
MAXCHARGETIME	VARIABLEANDUNITS	1.00000E+002	s	1.00000E+002	second(s)	Max &Charge Time
CHARGECURRENT	QUANT	4.00000E-004	&Charge Current (A) 
VOLTAGEFINISH	TWOPARAM	F	1.00000E-003	3.60000E+003	&Voltage Finish	 I (A) < 	Max Time(s)
SAMPLETIME	QUANT	1.00000E-002	Sa&mple Period (s)
CHARGESTOPAT1	MULTIPARAM	4	1.00000E+000	Charge Stop At &1	Voltage > Limit	V
CHARGESTOPAT2	MULTIPARAM	0	0.00000E+000	Charge Stop At &2	None	N/A
AESBHCSELECTOR	TOGGLE	F	Save Both Half Cells
IRCOMP	TOGGLE	F	IR &Measure
EOC	QUANT	0	Open Circuit (V)
SEQUENCER	TOGGLE	TRUE	Run as Sequence
PSTATMODEL	IQUANT	53	Pstat Model
PSTATSECTION	LABEL	IFC5000-01520	Pstat Section
PSTATSERIALNO	LABEL	01520	Pstat Serial Number
CTRLMODE	IQUANT	0	Control Mode
ELECTROMETER	IQUANT	1	RE=0 or CS=1
IESTAB	IQUANT	0	I/E Stability
CASPEED	IQUANT	4	Control Amp Speed
CONVENTION	IQUANT	1	Current Convention
ICHRANGE	IQUANT	2	Ich Range
ICHRANGEMODE	TOGGLE	T	Ich Auto Range
ICHOFFSETENABLE	TOGGLE	F	Ich Offset Enable
ICHOFFSET	QUANT	0	Ich Offset (V)
ICHFILTER	IQUANT	1	Ich Filter
VCHRANGE	IQUANT	2	Vch Range
VCHRANGEMODE	TOGGLE	T	Vch Auto Range
VCHOFFSETENABLE	TOGGLE	F	Vch Offset Enable
VCHOFFSET	QUANT	0	Vch Offset (V)
VCHFILTER	IQUANT	1	Vch Filter
IERANGELOWERLIMIT	IQUANT	9	I/E Range Lower Limit
IERANGEMODE	TOGGLE	F	I/E AutoRange
IERANGE	IQUANT	9	I/E Range
ACHSELECT	IQUANT	1	Ach Select
ACHRANGE	IQUANT	2	Ach Range
ACHOFFSETENABLE	TOGGLE	F	Ach Offset Enable
ACHOFFSET	QUANT	0	Ach Offset (V)
ACHFILTER	IQUANT	1	Ach Filter
CABLEID	IQUANT	14	Cable ID
DCCALDATE	LABEL	5-7-2017	DC Calibration Date
ACCALDATE	LABEL	12/3/2015	AC Calibration Date
FRAMEWORKVERSION	QUANT	7.01	Framework Version
INSTRUMENTVERSION	LABEL	4.00	Instrument Version
CURVE	TABLE	105
	Pt	T	Vf	Im	Vu	Pwr	Sig	Ach	Temp	IERange	Over
	#	s	V	A	V	W	V	V	deg C	#	bits
	0	0.013333	3.90830E-001	4.01053E-004	0.00000E+000	1.56744E-004	2.40040E-001	3.90927E-001	3.57680E+000	9	...........
	1	0.026667	4.03803E-001	4.00688E-004	0.00000E+000	1.61799E-004	2.40040E-001	4.03887E-001	3.57680E+000	9	...........
	2	0.04	4.14882E-001	4.00753E-004	0.00000E+000	1.66266E-004	2.40040E-001	4.14964E-001	3.57680E+000	9	...........
	3	0.053333	4.24918E-001	4.01638E-004	0.00000E+000	1.70663E-004	2.40040E-001	4.25004E-001	3.57680E+000	9	...........
	4	0.066667	4.34161E-001	4.01266E-004	0.00000E+000	1.74214E-004	2.40040E-001	4.34247E-001	3.57680E+000	9	...........
	5	0.08	4.42934E-001	4.00580E-004	0.00000E+000	1.77431E-004	2.40040E-001	4.43022E-001	3.57680E+000	9	...........
	6	0.093333	4.51460E-001	4.01980E-004	0.00000E+000	1.81478E-004	2.40040E-001	4.51554E-001	3.57680E+000	9	...........
	7	0.106667	4.59647E-001	4.00854E-004	0.00000E+000	1.84252E-004	2.40040E-001	4.59741E-001	3.57680E+000	9	...........
	8	0.12	4.67633E-001	4.01401E-004	0.00000E+000	1.87709E-004	2.40040E-001	4.67724E-001	3.57680E+000	9	...........
	9	0.133333	4.75379E-001	3.99841E-004	0.00000E+000	1.90076E-004	2.40040E-001	4.75475E-001	3.57680E+000	9	...........
	10	0.146667	4.83007E-001	4.01286E-004	0.00000E+000	1.93824E-004	2.40040E-001	4.83106E-001	3.57680E+000	9	...........
	11	0.16	4.90513E-001	4.01244E-004	0.00000E+000	1.96815E-004	2.40040E-001	4.90610E-001	3.57680E+000	9	...........
	12	0.173333	4.97851E-001	4.00476E-004	0.00000E+000	1.99377E-004	2.40040E-001	4.97954E-001	3.57680E+000	9	...........
	13	0.186667	5.05043E-001	4.00370E-004	0.00000E+000	2.02204E-004	2.40040E-001	5.05145E-001	3.57680E+000	9	...........
	14	0.2	5.12179E-001	3.99233E-004	0.00000E+000	2.04479E-004	2.40040E-001	5.12282E-001	3.57680E+000	9	...........
	15	0.213333	5.19240E-001	4.00698E-004	0.00000E+000	2.08058E-004	2.40040E-001	5.19348E-001	3.57680E+000	9	...........
	16	0.226667	5.26284E-001	4.00279E-004	0.00000E+000	2.10661E-004	2.40040E-001	5.26395E-001	3.57680E+000	9	...........
	17	0.24	5.33116E-001	4.00952E-004	0.00000E+000	2.13754E-004	2.40040E-001	5.33229E-001	3.57680E+000	9	...........
	18	0.253333	5.39843E-001	4.00640E-004	0.00000E+000	2.16283E-004	2.40040E-001	5.40069E-001	3.57680E+000	9	...........
	19	0.266667	5.46635E-001	4.00100E-004	0.00000E+000	2.18709E-004	2.40040E-001	5.46839E-001	3.57680E+000	9	...........
	20	0.28	5.53397E-001	4.00531E-004	0.00000E+000	2.21653E-004	2.40040E-001	5.53607E-001	3.57680E+000	9	...........
	21	0.293333	5.60050E-001	4.00482E-004	0.00000E+000	2.24290E-004	2.40040E-001	5.60285E-001	3.57680E+000	9	...........
	22	0.306667	5.66753E-001	4.00648E-004	0.00000E+000	2.27069E-004	2.40040E-001	5.66972E-001	3.57680E+000	9	...........
	23	0.32	5.73411E-001	3.99961E-004	0.00000E+000	2.29342E-004	2.40040E-001	5.73631E-001	3.57680E+000	9	...........
	24	0.333333	5.80040E-001	3.99922E-004	0.00000E+000	2.31971E-004	2.40040E-001	5.80273E-001	3.57680E+000	9	...........
	25	0.346667	5.86630E-001	4.00881E-004	0.00000E+000	2.35169E-004	2.40040E-001	5.86888E-001	3.57680E+000	9	...........
	26	0.36	5.93209E-001	3.99670E-004	0.00000E+000	2.37088E-004	2.40040E-001	5.93456E-001	3.57680E+000	9	...........
	27	0.373333	5.99624E-001	4.01012E-004	0.00000E+000	2.40456E-004	2.40040E-001	5.99885E-001	3.57680E+000	9	...........
	28	0.386667	6.06019E-001	4.01742E-004	0.00000E+000	2.43463E-004	2.40040E-001	6.06282E-001	3.57680E+000	9	...........
	29	0.4	6.12361E-001	4.01069E-004	0.00000E+000	2.45599E-004	2.40040E-001	6.12632E-001	3.57680E+000	9	...........
	30	0.413333	6.18800E-001	3.99835E-004	0.00000E+000	2.47418E-004	2.40040E-001	6.19012E-001	3.57680E+000	9	...........
	31	0.426667	6.25104E-001	4.01433E-004	0.00000E+000	2.50937E-004	2.40040E-001	6.25314E-001	3.57680E+000	9	...........
	32	0.44	6.31451E-001	4.01018E-004	0.00000E+000	2.53223E-004	2.40040E-001	6.31658E-001	3.57680E+000	9	...........
	33	0.453333	6.37723E-001	4.00408E-004	0.00000E+000	2.55350E-004	2.40040E-001	6.37907E-001	3.57680E+000	9	...........
	34	0.466667	6.43991E-001	4.02035E-004	0.00000E+000	2.58907E-004	2.40040E-001	6.44189E-001	3.57680E+000	9	...........
	35	0.48	6.50112E-001	4.00343E-004	0.00000E+000	2.60268E-004	2.40040E-001	6.50312E-001	3.57680E+000	9	...........
	36	0.493333	6.56256E-001	4.00515E-004	0.00000E+000	2.62840E-004	2.40040E-001	6.56463E-001	3.57680E+000	9	...........
	37	0.506667	6.62461E-001	4.01711E-004	0.00000E+000	2.66118E-004	2.40040E-001	6.62708E-001	3.57680E+000	9	...........
	38	0.52	6.68676E-001	4.00327E-004	0.00000E+000	2.67689E-004	2.40040E-001	6.68920E-001	3.57680E+000	9	...........
	39	0.533333	6.74876E-001	4.01374E-004	0.00000E+000	2.70878E-004	2.40040E-001	6.75127E-001	3.57680E+000	9	...........
	40	0.546667	6.80953E-001	4.01575E-004	0.00000E+000	2.73454E-004	2.40040E-001	6.81215E-001	3.57680E+000	9	...........
	41	0.56	6.86994E-001	4.01132E-004	0.00000E+000	2.75575E-004	2.40040E-001	6.87253E-001	3.57680E+000	9	...........
	42	0.573333	6.93061E-001	4.01256E-004	0.00000E+000	2.78095E-004	2.40040E-001	6.93278E-001	3.57680E+000	9	...........
	43	0.586667	6.99061E-001	4.01178E-004	0.00000E+000	2.80448E-004	2.40040E-001	6.99277E-001	3.57680E+000	9	...........
	44	0.6	7.05065E-001	4.02297E-004	0.00000E+000	2.83646E-004	2.40040E-001	7.05293E-001	3.57680E+000	9	...........
	45	0.613333	7.11017E-001	4.00662E-004	0.00000E+000	2.84877E-004	2.40040E-001	7.11253E-001	3.57680E+000	9	...........
	46	0.626667	7.16941E-001	4.00690E-004	0.00000E+000	2.87271E-004	2.40040E-001	7.17190E-001	3.57680E+000	9	...........
	47	0.64	7.22942E-001	3.99331E-004	0.00000E+000	2.88693E-004	2.40040E-001	7.23150E-001	3.57680E+000	9	...........
	48	0.653333	7.28830E-001	4.00831E-004	0.00000E+000	2.92138E-004	2.40040E-001	7.29076E-001	3.57680E+000	9	...........
	49	0.666667	7.34607E-001	4.01826E-004	0.00000E+000	2.95184E-004	2.40040E-001	7.34850E-001	3.57680E+000	9	...........
	50	0.68	7.40399E-001	4.01411E-004	0.00000E+000	2.97204E-004	2.40040E-001	7.40640E-001	3.57680E+000	9	...........
	51	0.693333	7.46167E-001	4.00479E-004	0.00000E+000	2.98825E-004	2.40040E-001	7.46398E-001	3.57680E+000	9	...........
	52	0.706667	7.51841E-001	4.01978E-004	0.00000E+000	3.02223E-004	2.40040E-001	7.52095E-001	3.57680E+000	9	...........
	53	0.72	7.57586E-001	4.00306E-004	0.00000E+000	3.03267E-004	2.40040E-001	7.57815E-001	3.57680E+000	9	...........
	54	0.733333	7.63238E-001	4.00288E-004	0.00000E+000	3.05515E-004	2.40040E-001	7.63504E-001	3.57680E+000	9	...........
	55	0.746667	7.68928E-001	4.02598E-004	0.00000E+000	3.09569E-004	2.40040E-001	7.69209E-001	3.57680E+000	9	...........
	56	0.76	7.74528E-001	4.01424E-004	0.00000E+000	3.10914E-004	2.40040E-001	7.74797E-001	3.57680E+000	9	...........
	57	0.773333	7.80166E-001	4.01215E-004	0.00000E+000	3.13014E-004	2.40040E-001	7.80431E-001	3.57680E+000	9	...........
	58	0.786667	7.85717E-001	4.01618E-004	0.00000E+000	3.15558E-004	2.40040E-001	7.85977E-001	3.57680E+000	9	...........
	59	0.8	7.91268E-001	4.00578E-004	0.00000E+000	3.16965E-004	2.40040E-001	7.91529E-001	3.57680E+000	9	...........
	60	0.813333	7.96700E-001	4.01474E-004	0.00000E+000	3.19854E-004	2.40040E-001	7.96928E-001	3.57680E+000	9	...........
	61	0.826667	8.02105E-001	4.00206E-004	0.00000E+000	3.21008E-004	2.40040E-001	8.02323E-001	3.57680E+000	9	...........
	62	0.84	8.07497E-001	4.00462E-004	0.00000E+000	3.23372E-004	2.40040E-001	8.07745E-001	3.57680E+000	9	...........
	63	0.853333	8.12872E-001	4.00270E-004	0.00000E+000	3.25368E-004	2.40040E-001	8.13121E-001	3.57680E+000	9	...........
	64	0.866667	8.18224E-001	4.01320E-004	0.00000E+000	3.28370E-004	2.40040E-001	8.18467E-001	3.57680E+000	9	...........
	65	0.88	8.23486E-001	4.00150E-004	0.00000E+000	3.29518E-004	2.40040E-001	8.23735E-001	3.57680E+000	9	...........
	66	0.893333	8.28725E-001	4.00400E-004	0.00000E+000	3.31822E-004	2.40040E-001	8.28965E-001	3.57680E+000	9	...........
	67	0.906667	8.33898E-001	4.01721E-004	0.00000E+000	3.34995E-004	2.40040E-001	8.34175E-001	3.57680E+000	9	...........
	68	0.92	8.39078E-001	4.01348E-004	0.00000E+000	3.36762E-004	2.40040E-001	8.39350E-001	3.57680E+000	9	...........
	69	0.933333	8.44210E-001	4.00888E-004	0.00000E+000	3.38433E-004	2.40040E-001	8.44497E-001	3.57680E+000	9	...........
	70	0.946667	8.49320E-001	4.00305E-004	0.00000E+000	3.39987E-004	2.40040E-001	8.49602E-001	3.57680E+000	9	...........
	71	0.96	8.54350E-001	4.01172E-004	0.00000E+000	3.42741E-004	2.40040E-001	8.54631E-001	3.57684E+000	9	...........
	72	0.97333	8.59390E-001	4.00270E-004	0.00000E+000	3.43988E-004	2.40040E-001	8.59719E-001	3.57710E+000	9	...........
	73	0.98667	8.64431E-001	4.00159E-004	0.00000E+000	3.45910E-004	2.40040E-001	8.64746E-001	3.57710E+000	9	...........
	74	1	8.69400E-001	3.99742E-004	0.00000E+000	3.47536E-004	2.40040E-001	8.69678E-001	3.57710E+000	9	...........
	75	1.01333	8.74262E-001	4.02128E-004	0.00000E+000	3.51565E-004	2.40040E-001	8.74579E-001	3.57710E+000	9	...........
	76	1.02667	8.79129E-001	4.00741E-004	0.00000E+000	3.52303E-004	2.40040E-001	8.79438E-001	3.57710E+000	9	...........
	77	1.04	8.83971E-001	4.02030E-004	0.00000E+000	3.55382E-004	2.40040E-001	8.84284E-001	3.57710E+000	9	...........
	78	1.05333	8.88760E-001	4.00861E-004	0.00000E+000	3.56269E-004	2.40040E-001	8.89099E-001	3.57710E+000	9	...........
	79	1.06667	8.93484E-001	4.01773E-004	0.00000E+000	3.58978E-004	2.40040E-001	8.93808E-001	3.57710E+000	9	...........
	80	1.08	8.98126E-001	4.01336E-004	0.00000E+000	3.60450E-004	2.40040E-001	8.98443E-001	3.57710E+000	9	...........
	81	1.09333	9.02745E-001	4.01190E-004	0.00000E+000	3.62172E-004	2.40040E-001	9.03072E-001	3.57710E+000	9	...........
	82	1.10667	9.07377E-001	4.01821E-004	0.00000E+000	3.64603E-004	2.40040E-001	9.07714E-001	3.57710E+000	9	...........
	83	1.12	9.11954E-001	4.00936E-004	0.00000E+000	3.65635E-004	2.40040E-001	9.12258E-001	3.57710E+000	9	...........
	84	1.13333	9.16511E-001	3.99691E-004	0.00000E+000	3.66321E-004	2.40040E-001	9.16844E-001	3.57710E+000	9	...........
	85	1.14667	9.21034E-001	4.00974E-004	0.00000E+000	3.69311E-004	2.40040E-001	9.21355E-001	3.57710E+000	9	...........
	86	1.16	9.25569E-001	4.01943E-004	0.00000E+000	3.72026E-004	2.40040E-001	9.25855E-001	3.57710E+000	9	...........
	87	1.17333	9.29958E-001	4.01208E-004	0.00000E+000	3.73106E-004	2.40040E-001	9.30269E-001	3.57710E+000	9	...........
	88	1.18667	9.34341E-001	4.01969E-004	0.00000E+000	3.75576E-004	2.40040E-001	9.34655E-001	3.57710E+000	9	...........
	89	1.2	9.38623E-001	4.00594E-004	0.00000E+000	3.76007E-004	2.40040E-001	9.38935E-001	3.57710E+000	9	...........
	90	1.21333	9.42967E-001	4.01497E-004	0.00000E+000	3.78599E-004	2.40040E-001	9.43278E-001	3.57710E+000	9	...........
	91	1.22667	9.47255E-001	4.00219E-004	0.00000E+000	3.79109E-004	2.40040E-001	9.47551E-001	3.57710E+000	9	...........
	92	1.24	9.51493E-001	4.01013E-004	0.00000E+000	3.81561E-004	2.40040E-001	9.51793E-001	3.57710E+000	9	...........
	93	1.25333	9.55681E-001	4.00731E-004	0.00000E+000	3.82971E-004	2.40040E-001	9.55984E-001	3.57710E+000	9	...........
	94	1.26667	9.59774E-001	4.01656E-004	0.00000E+000	3.85498E-004	2.40040E-001	9.60119E-001	3.57710E+000	9	...........
	95	1.28	9.63849E-001	4.01287E-004	0.00000E+000	3.86780E-004	2.40040E-001	9.64183E-001	3.57710E+000	9	...........
	96	1.29333	9.67903E-001	4.00805E-004	0.00000E+000	3.87941E-004	2.40040E-001	9.68224E-001	3.57710E+000	9	...........
	97	1.30667	9.71927E-001	4.00695E-004	0.00000E+000	3.89446E-004	2.40040E-001	9.72259E-001	3.57710E+000	9	...........
	98	1.32	9.75907E-001	4.01367E-004	0.00000E+000	3.91697E-004	2.40040E-001	9.76246E-001	3.57710E+000	9	...........
	99	1.33333	9.79782E-001	4.00778E-004	0.00000E+000	3.92675E-004	2.40040E-001	9.80120E-001	3.57710E+000	9	...........
	100	1.34667	9.83621E-001	4.01555E-004	0.00000E+000	3.94978E-004	2.40040E-001	9.83981E-001	3.57710E+000	9	...........
	101	1.36	9.87499E-001	4.02050E-004	0.00000E+000	3.97024E-004	2.40040E-001	9.87849E-001	3.57710E+000	9	...........
	102	1.37333	9.91283E-001	4.01574E-004	0.00000E+000	3.98074E-004	2.40040E-001	9.91642E-001	3.57710E+000	9	...........
	103	1.38667	9.95023E-001	4.00416E-004	0.00000E+000	3.98423E-004	2.40040E-001	9.95376E-001	3.57710E+000	9	...........
	104	1.4	9.98692E-001	4.01000E-004	0.00000E+000	4.00476E-004	2.40040E-001	9.99067E-001	3.57710E+000	9	...........
STARTTIMEOFFSET	QUANT	2973.096	Start Time Offset (s)
