EXPLAIN
TAG	PWR800_CHARGE
TITLE	LABEL	PWR Cyclic Charge Discharge (Cell) - Charge Step	Test &Identifier
DATE	LABEL	12-7-2017	Date
TIME	LABEL	14:33:33	Time
NOTES	NOTES	3	&Notes...
	supercap test cell
	0.4mg
	6M KOH
PSTAT	PSTAT	IFC5000-01520	Potentiostat
CAPACITY	QUANT	1.00000E-003	Capacity (A-hr)
CELLTYPE	SELECTOR	1	&Cell Type
WORKINGCONNECTION	SELECTOR	0	&Working Lead
MAXCHARGETIME	VARIABLEANDUNITS	1.00000E+002	s	1.00000E+002	second(s)	Max &Charge Time
CHARGECURRENT	QUANT	4.00000E-004	&Charge Current (A) 
VOLTAGEFINISH	TWOPARAM	F	1.00000E-003	3.60000E+003	&Voltage Finish	 I (A) < 	Max Time(s)
SAMPLETIME	QUANT	1.00000E-002	Sa&mple Period (s)
CHARGESTOPAT1	MULTIPARAM	4	1.00000E+000	Charge Stop At &1	Voltage > Limit	V
CHARGESTOPAT2	MULTIPARAM	0	0.00000E+000	Charge Stop At &2	None	N/A
AESBHCSELECTOR	TOGGLE	F	Save Both Half Cells
IRCOMP	TOGGLE	F	IR &Measure
EOC	QUANT	0	Open Circuit (V)
SEQUENCER	TOGGLE	TRUE	Run as Sequence
PSTATMODEL	IQUANT	53	Pstat Model
PSTATSECTION	LABEL	IFC5000-01520	Pstat Section
PSTATSERIALNO	LABEL	01520	Pstat Serial Number
CTRLMODE	IQUANT	0	Control Mode
ELECTROMETER	IQUANT	1	RE=0 or CS=1
IESTAB	IQUANT	0	I/E Stability
CASPEED	IQUANT	4	Control Amp Speed
CONVENTION	IQUANT	1	Current Convention
ICHRANGE	IQUANT	2	Ich Range
ICHRANGEMODE	TOGGLE	T	Ich Auto Range
ICHOFFSETENABLE	TOGGLE	F	Ich Offset Enable
ICHOFFSET	QUANT	0	Ich Offset (V)
ICHFILTER	IQUANT	1	Ich Filter
VCHRANGE	IQUANT	2	Vch Range
VCHRANGEMODE	TOGGLE	T	Vch Auto Range
VCHOFFSETENABLE	TOGGLE	F	Vch Offset Enable
VCHOFFSET	QUANT	0	Vch Offset (V)
VCHFILTER	IQUANT	1	Vch Filter
IERANGELOWERLIMIT	IQUANT	9	I/E Range Lower Limit
IERANGEMODE	TOGGLE	F	I/E AutoRange
IERANGE	IQUANT	9	I/E Range
ACHSELECT	IQUANT	1	Ach Select
ACHRANGE	IQUANT	2	Ach Range
ACHOFFSETENABLE	TOGGLE	F	Ach Offset Enable
ACHOFFSET	QUANT	0	Ach Offset (V)
ACHFILTER	IQUANT	1	Ach Filter
CABLEID	IQUANT	14	Cable ID
DCCALDATE	LABEL	5-7-2017	DC Calibration Date
ACCALDATE	LABEL	12/3/2015	AC Calibration Date
FRAMEWORKVERSION	QUANT	7.01	Framework Version
INSTRUMENTVERSION	LABEL	4.00	Instrument Version
CURVE	TABLE	130
	Pt	T	Vf	Im	Vu	Pwr	Sig	Ach	Temp	IERange	Over
	#	s	V	A	V	W	V	V	deg C	#	bits
	0	0.013333	3.45711E-001	3.99235E-004	0.00000E+000	1.38020E-004	2.40040E-001	3.45796E-001	3.57640E+000	9	...........
	1	0.026667	3.56189E-001	4.01218E-004	0.00000E+000	1.42909E-004	2.40040E-001	3.56256E-001	3.57640E+000	9	...........
	2	0.04	3.65298E-001	4.02232E-004	0.00000E+000	1.46934E-004	2.40040E-001	3.65370E-001	3.57640E+000	9	...........
	3	0.053333	3.73552E-001	4.00208E-004	0.00000E+000	1.49499E-004	2.40040E-001	3.73621E-001	3.57640E+000	9	...........
	4	0.066667	3.81365E-001	4.00693E-004	0.00000E+000	1.52810E-004	2.40040E-001	3.81439E-001	3.57640E+000	9	...........
	5	0.08	3.88823E-001	4.03133E-004	0.00000E+000	1.56747E-004	2.40040E-001	3.88905E-001	3.57640E+000	9	...........
	6	0.093333	3.95994E-001	4.01771E-004	0.00000E+000	1.59099E-004	2.40040E-001	3.96072E-001	3.57640E+000	9	...........
	7	0.106667	4.02967E-001	4.00605E-004	0.00000E+000	1.61431E-004	2.40040E-001	4.03046E-001	3.57640E+000	9	...........
	8	0.12	4.09760E-001	3.99456E-004	0.00000E+000	1.63681E-004	2.40040E-001	4.09845E-001	3.57640E+000	9	...........
	9	0.133333	4.16350E-001	3.99712E-004	0.00000E+000	1.66420E-004	2.40040E-001	4.16433E-001	3.57640E+000	9	...........
	10	0.146667	4.22887E-001	4.01065E-004	0.00000E+000	1.69605E-004	2.40040E-001	4.22973E-001	3.57640E+000	9	...........
	11	0.16	4.29340E-001	4.01493E-004	0.00000E+000	1.72377E-004	2.40040E-001	4.29426E-001	3.57640E+000	9	...........
	12	0.173333	4.35649E-001	4.00560E-004	0.00000E+000	1.74503E-004	2.40040E-001	4.35738E-001	3.57640E+000	9	...........
	13	0.186667	4.41937E-001	3.99808E-004	0.00000E+000	1.76690E-004	2.40040E-001	4.42028E-001	3.57640E+000	9	...........
	14	0.2	4.48211E-001	4.01101E-004	0.00000E+000	1.79778E-004	2.40040E-001	4.48303E-001	3.57640E+000	9	...........
	15	0.213333	4.54370E-001	4.00600E-004	0.00000E+000	1.82021E-004	2.40040E-001	4.54459E-001	3.57640E+000	9	...........
	16	0.226667	4.60386E-001	4.02996E-004	0.00000E+000	1.85534E-004	2.40040E-001	4.60476E-001	3.57640E+000	9	...........
	17	0.24	4.66379E-001	4.01780E-004	0.00000E+000	1.87381E-004	2.40040E-001	4.66471E-001	3.57640E+000	9	...........
	18	0.253333	4.72248E-001	3.99267E-004	0.00000E+000	1.88553E-004	2.40040E-001	4.72339E-001	3.57640E+000	9	...........
	19	0.266667	4.78082E-001	4.00794E-004	0.00000E+000	1.91612E-004	2.40040E-001	4.78171E-001	3.57640E+000	9	...........
	20	0.28	4.83904E-001	4.01874E-004	0.00000E+000	1.94469E-004	2.40040E-001	4.83998E-001	3.57640E+000	9	...........
	21	0.293333	4.89729E-001	4.01006E-004	0.00000E+000	1.96384E-004	2.40040E-001	4.89828E-001	3.57640E+000	9	...........
	22	0.306667	4.95476E-001	4.01749E-004	0.00000E+000	1.99057E-004	2.40040E-001	4.95579E-001	3.57640E+000	9	...........
	23	0.32	5.01330E-001	4.00973E-004	0.00000E+000	2.01020E-004	2.40040E-001	5.01428E-001	3.57640E+000	9	...........
	24	0.333333	5.07042E-001	4.01445E-004	0.00000E+000	2.03549E-004	2.40040E-001	5.07147E-001	3.57640E+000	9	...........
	25	0.346667	5.12761E-001	4.00149E-004	0.00000E+000	2.05181E-004	2.40040E-001	5.12865E-001	3.57640E+000	9	...........
	26	0.36	5.18390E-001	4.00806E-004	0.00000E+000	2.07774E-004	2.40040E-001	5.18496E-001	3.57640E+000	9	...........
	27	0.373333	5.24029E-001	4.01204E-004	0.00000E+000	2.10243E-004	2.40040E-001	5.24138E-001	3.57640E+000	9	...........
	28	0.386667	5.29600E-001	4.01402E-004	0.00000E+000	2.12583E-004	2.40040E-001	5.29712E-001	3.57640E+000	9	...........
	29	0.4	5.34880E-001	3.99953E-004	0.00000E+000	2.13927E-004	2.40040E-001	5.35055E-001	3.57640E+000	9	...........
	30	0.413333	5.40476E-001	4.00923E-004	0.00000E+000	2.16689E-004	2.40040E-001	5.40700E-001	3.57640E+000	9	...........
	31	0.426667	5.46018E-001	4.02298E-004	0.00000E+000	2.19662E-004	2.40040E-001	5.46237E-001	3.57640E+000	9	...........
	32	0.44	5.51461E-001	4.00840E-004	0.00000E+000	2.21048E-004	2.40040E-001	5.51695E-001	3.57640E+000	9	...........
	33	0.453333	5.56991E-001	3.99767E-004	0.00000E+000	2.22666E-004	2.40040E-001	5.57225E-001	3.57640E+000	9	...........
	34	0.466667	5.62518E-001	4.02199E-004	0.00000E+000	2.26244E-004	2.40040E-001	5.62762E-001	3.57640E+000	9	...........
	35	0.48	5.68073E-001	4.00726E-004	0.00000E+000	2.27642E-004	2.40040E-001	5.68287E-001	3.57640E+000	9	...........
	36	0.493333	5.73502E-001	4.00476E-004	0.00000E+000	2.29674E-004	2.40040E-001	5.73725E-001	3.57640E+000	9	...........
	37	0.506667	5.78914E-001	4.00919E-004	0.00000E+000	2.32098E-004	2.40040E-001	5.79161E-001	3.57640E+000	9	...........
	38	0.52	5.84389E-001	3.99510E-004	0.00000E+000	2.33469E-004	2.40040E-001	5.84590E-001	3.57640E+000	9	...........
	39	0.533333	5.89819E-001	4.00992E-004	0.00000E+000	2.36513E-004	2.40040E-001	5.90058E-001	3.57640E+000	9	...........
	40	0.546667	5.95183E-001	3.99787E-004	0.00000E+000	2.37947E-004	2.40040E-001	5.95407E-001	3.57640E+000	9	...........
	41	0.56	6.00591E-001	4.01600E-004	0.00000E+000	2.41198E-004	2.40040E-001	6.00833E-001	3.57640E+000	9	...........
	42	0.573333	6.05910E-001	4.01759E-004	0.00000E+000	2.43430E-004	2.40040E-001	6.06175E-001	3.57640E+000	9	...........
	43	0.586667	6.11336E-001	4.00964E-004	0.00000E+000	2.45124E-004	2.40040E-001	6.11575E-001	3.57640E+000	9	...........
	44	0.6	6.16687E-001	4.01868E-004	0.00000E+000	2.47827E-004	2.40040E-001	6.16876E-001	3.57640E+000	9	...........
	45	0.613333	6.21959E-001	4.00987E-004	0.00000E+000	2.49397E-004	2.40040E-001	6.22124E-001	3.57640E+000	9	...........
	46	0.626667	6.27276E-001	4.02661E-004	0.00000E+000	2.52579E-004	2.40040E-001	6.27484E-001	3.57783E+000	9	...........
	47	0.64	6.32551E-001	4.00058E-004	0.00000E+000	2.53057E-004	2.40040E-001	6.32739E-001	3.58020E+000	9	...........
	48	0.653333	6.37876E-001	4.00635E-004	0.00000E+000	2.55555E-004	2.40040E-001	6.38077E-001	3.58020E+000	9	...........
	49	0.666667	6.43227E-001	4.00724E-004	0.00000E+000	2.57756E-004	2.40040E-001	6.43418E-001	3.58020E+000	9	...........
	50	0.68	6.48510E-001	4.01610E-004	0.00000E+000	2.60448E-004	2.40040E-001	6.48697E-001	3.58020E+000	9	...........
	51	0.693333	6.53748E-001	4.00973E-004	0.00000E+000	2.62135E-004	2.40040E-001	6.53958E-001	3.58020E+000	9	...........
	52	0.706667	6.58975E-001	4.00418E-004	0.00000E+000	2.63865E-004	2.40040E-001	6.59184E-001	3.58020E+000	9	...........
	53	0.72	6.64174E-001	4.00551E-004	0.00000E+000	2.66036E-004	2.40040E-001	6.64410E-001	3.58020E+000	9	...........
	54	0.733333	6.69400E-001	4.01797E-004	0.00000E+000	2.68963E-004	2.40040E-001	6.69627E-001	3.58020E+000	9	...........
	55	0.746667	6.74600E-001	4.00753E-004	0.00000E+000	2.70348E-004	2.40040E-001	6.74848E-001	3.58020E+000	9	...........
	56	0.76	6.79800E-001	4.00785E-004	0.00000E+000	2.72453E-004	2.40040E-001	6.80053E-001	3.58020E+000	9	...........
	57	0.773333	6.84952E-001	4.01510E-004	0.00000E+000	2.75015E-004	2.40040E-001	6.85210E-001	3.58020E+000	9	...........
	58	0.786667	6.90121E-001	4.01609E-004	0.00000E+000	2.77159E-004	2.40040E-001	6.90380E-001	3.58020E+000	9	...........
	59	0.8	6.95231E-001	4.01766E-004	0.00000E+000	2.79320E-004	2.40040E-001	6.95508E-001	3.58020E+000	9	...........
	60	0.813333	7.00372E-001	4.00726E-004	0.00000E+000	2.80657E-004	2.40040E-001	7.00631E-001	3.58020E+000	9	...........
	61	0.826667	7.05480E-001	4.00490E-004	0.00000E+000	2.82537E-004	2.40040E-001	7.05735E-001	3.58020E+000	9	...........
	62	0.84	7.10562E-001	4.01697E-004	0.00000E+000	2.85431E-004	2.40040E-001	7.10825E-001	3.58020E+000	9	...........
	63	0.853333	7.15673E-001	4.01480E-004	0.00000E+000	2.87328E-004	2.40040E-001	7.15939E-001	3.58020E+000	9	...........
	64	0.866667	7.20872E-001	4.00746E-004	0.00000E+000	2.88886E-004	2.40040E-001	7.21091E-001	3.58020E+000	9	...........
	65	0.88	7.25885E-001	3.99939E-004	0.00000E+000	2.90309E-004	2.40040E-001	7.26114E-001	3.58020E+000	9	...........
	66	0.893333	7.30895E-001	4.00900E-004	0.00000E+000	2.93016E-004	2.40040E-001	7.31164E-001	3.58020E+000	9	...........
	67	0.906667	7.35887E-001	4.02112E-004	0.00000E+000	2.95909E-004	2.40040E-001	7.36126E-001	3.58020E+000	9	...........
	68	0.92	7.40938E-001	4.00242E-004	0.00000E+000	2.96554E-004	2.40040E-001	7.41164E-001	3.58020E+000	9	...........
	69	0.933333	7.45951E-001	4.01528E-004	0.00000E+000	2.99520E-004	2.40040E-001	7.46139E-001	3.58020E+000	9	...........
	70	0.946667	7.50919E-001	4.02338E-004	0.00000E+000	3.02123E-004	2.40040E-001	7.51132E-001	3.58020E+000	9	...........
	71	0.96	7.55913E-001	3.99714E-004	0.00000E+000	3.02149E-004	2.40040E-001	7.56112E-001	3.58020E+000	9	...........
	72	0.97333	7.60870E-001	4.00287E-004	0.00000E+000	3.04566E-004	2.40040E-001	7.61065E-001	3.58020E+000	9	...........
	73	0.98667	7.65753E-001	4.01158E-004	0.00000E+000	3.07188E-004	2.40040E-001	7.65982E-001	3.58020E+000	9	...........
	74	1	7.70730E-001	4.01954E-004	0.00000E+000	3.09798E-004	2.40040E-001	7.70950E-001	3.58020E+000	9	...........
	75	1.01333	7.75584E-001	3.99369E-004	0.00000E+000	3.09744E-004	2.40040E-001	7.75804E-001	3.58020E+000	9	...........
	76	1.02667	7.80371E-001	4.00824E-004	0.00000E+000	3.12792E-004	2.40040E-001	7.80611E-001	3.58020E+000	9	...........
	77	1.04	7.85285E-001	4.01109E-004	0.00000E+000	3.14985E-004	2.40040E-001	7.85506E-001	3.58020E+000	9	...........
	78	1.05333	7.90113E-001	4.00541E-004	0.00000E+000	3.16473E-004	2.40040E-001	7.90376E-001	3.58020E+000	9	...........
	79	1.06667	7.94914E-001	4.01468E-004	0.00000E+000	3.19133E-004	2.40040E-001	7.95188E-001	3.58020E+000	9	...........
	80	1.08	7.99668E-001	4.01935E-004	0.00000E+000	3.21414E-004	2.40040E-001	7.99938E-001	3.58020E+000	9	...........
	81	1.09333	8.04431E-001	4.00811E-004	0.00000E+000	3.22425E-004	2.40040E-001	8.04722E-001	3.58020E+000	9	...........
	82	1.10667	8.09137E-001	4.02454E-004	0.00000E+000	3.25640E-004	2.40040E-001	8.09410E-001	3.58020E+000	9	...........
	83	1.12	8.13777E-001	4.01394E-004	0.00000E+000	3.26645E-004	2.40040E-001	8.14058E-001	3.58020E+000	9	...........
	84	1.13333	8.18496E-001	4.00946E-004	0.00000E+000	3.28173E-004	2.40040E-001	8.18780E-001	3.58020E+000	9	...........
	85	1.14667	8.23153E-001	4.00843E-004	0.00000E+000	3.29955E-004	2.40040E-001	8.23442E-001	3.58020E+000	9	...........
	86	1.16	8.27857E-001	4.01055E-004	0.00000E+000	3.32017E-004	2.40040E-001	8.28108E-001	3.58020E+000	9	...........
	87	1.17333	8.32474E-001	4.01409E-004	0.00000E+000	3.34162E-004	2.40040E-001	8.32750E-001	3.58020E+000	9	...........
	88	1.18667	8.37092E-001	4.01690E-004	0.00000E+000	3.36251E-004	2.40040E-001	8.37381E-001	3.58020E+000	9	...........
	89	1.2	8.41644E-001	4.00455E-004	0.00000E+000	3.37041E-004	2.40040E-001	8.41914E-001	3.58020E+000	9	...........
	90	1.21333	8.46184E-001	4.02742E-004	0.00000E+000	3.40794E-004	2.40040E-001	8.46456E-001	3.58020E+000	9	...........
	91	1.22667	8.50668E-001	4.00322E-004	0.00000E+000	3.40541E-004	2.40040E-001	8.50946E-001	3.58020E+000	9	...........
	92	1.24	8.55179E-001	4.00689E-004	0.00000E+000	3.42660E-004	2.40040E-001	8.55466E-001	3.58020E+000	9	...........
	93	1.25333	8.59670E-001	4.00545E-004	0.00000E+000	3.44337E-004	2.40040E-001	8.59968E-001	3.58020E+000	9	...........
	94	1.26667	8.64103E-001	4.00190E-004	0.00000E+000	3.45805E-004	2.40040E-001	8.64398E-001	3.58020E+000	9	...........
	95	1.28	8.68484E-001	4.01888E-004	0.00000E+000	3.49033E-004	2.40040E-001	8.68773E-001	3.58020E+000	9	...........
	96	1.29333	8.72905E-001	4.01824E-004	0.00000E+000	3.50755E-004	2.40040E-001	8.73199E-001	3.58020E+000	9	...........
	97	1.30667	8.77293E-001	4.00571E-004	0.00000E+000	3.51418E-004	2.40040E-001	8.77591E-001	3.58020E+000	9	...........
	98	1.32	8.81579E-001	4.00903E-004	0.00000E+000	3.53428E-004	2.40040E-001	8.81882E-001	3.58020E+000	9	...........
	99	1.33333	8.85760E-001	4.00786E-004	0.00000E+000	3.55000E-004	2.40040E-001	8.86075E-001	3.58020E+000	9	...........
	100	1.34667	8.90009E-001	4.00487E-004	0.00000E+000	3.56437E-004	2.40040E-001	8.90328E-001	3.58020E+000	9	...........
	101	1.36	8.94262E-001	4.01631E-004	0.00000E+000	3.59163E-004	2.40040E-001	8.94584E-001	3.58020E+000	9	...........
	102	1.37333	8.98477E-001	4.01365E-004	0.00000E+000	3.60617E-004	2.40040E-001	8.98815E-001	3.58020E+000	9	...........
	103	1.38667	9.02636E-001	4.00917E-004	0.00000E+000	3.61882E-004	2.40040E-001	9.02964E-001	3.58020E+000	9	...........
	104	1.4	9.06820E-001	4.00070E-004	0.00000E+000	3.62791E-004	2.40040E-001	9.07169E-001	3.58020E+000	9	...........
	105	1.41333	9.10968E-001	3.99723E-004	0.00000E+000	3.64135E-004	2.40040E-001	9.11282E-001	3.58020E+000	9	...........
	106	1.42667	9.15025E-001	4.02053E-004	0.00000E+000	3.67888E-004	2.40040E-001	9.15363E-001	3.58020E+000	9	...........
	107	1.44	9.19065E-001	4.00826E-004	0.00000E+000	3.68385E-004	2.40040E-001	9.19399E-001	3.58020E+000	9	...........
	108	1.45333	9.23109E-001	4.00647E-004	0.00000E+000	3.69841E-004	2.40040E-001	9.23392E-001	3.58020E+000	9	...........
	109	1.46667	9.27063E-001	4.01469E-004	0.00000E+000	3.72187E-004	2.40040E-001	9.27345E-001	3.58020E+000	9	...........
	110	1.48	9.30987E-001	4.00496E-004	0.00000E+000	3.72856E-004	2.40040E-001	9.31257E-001	3.58020E+000	9	...........
	111	1.49333	9.34857E-001	4.01014E-004	0.00000E+000	3.74891E-004	2.40040E-001	9.35153E-001	3.58020E+000	9	...........
	112	1.50667	9.38648E-001	4.01214E-004	0.00000E+000	3.76599E-004	2.40040E-001	9.38973E-001	3.58020E+000	9	...........
	113	1.52	9.42504E-001	4.00939E-004	0.00000E+000	3.77886E-004	2.40040E-001	9.42798E-001	3.58020E+000	9	...........
	114	1.53333	9.46302E-001	4.01601E-004	0.00000E+000	3.80036E-004	2.40040E-001	9.46593E-001	3.58020E+000	9	...........
	115	1.54667	9.50165E-001	4.00380E-004	0.00000E+000	3.80427E-004	2.40040E-001	9.50465E-001	3.58020E+000	9	...........
	116	1.56	9.53925E-001	4.01718E-004	0.00000E+000	3.83209E-004	2.40040E-001	9.54229E-001	3.58020E+000	9	...........
	117	1.57333	9.57582E-001	4.01088E-004	0.00000E+000	3.84074E-004	2.40040E-001	9.57890E-001	3.58020E+000	9	...........
	118	1.58667	9.61237E-001	4.00350E-004	0.00000E+000	3.84831E-004	2.40040E-001	9.61554E-001	3.58020E+000	9	...........
	119	1.6	9.64814E-001	4.02468E-004	0.00000E+000	3.88307E-004	2.40040E-001	9.65151E-001	3.58020E+000	9	...........
	120	1.61333	9.68468E-001	4.00053E-004	0.00000E+000	3.87439E-004	2.40040E-001	9.68801E-001	3.58020E+000	9	...........
	121	1.62667	9.72088E-001	4.00754E-004	0.00000E+000	3.89569E-004	2.40040E-001	9.72449E-001	3.57859E+000	9	...........
	122	1.64	9.75625E-001	4.00483E-004	0.00000E+000	3.90721E-004	2.40040E-001	9.75924E-001	3.57590E+000	9	...........
	123	1.65333	9.79063E-001	4.01161E-004	0.00000E+000	3.92762E-004	2.40040E-001	9.79364E-001	3.57590E+000	9	...........
	124	1.66667	9.82485E-001	4.01197E-004	0.00000E+000	3.94170E-004	2.40040E-001	9.82756E-001	3.57590E+000	9	...........
	125	1.68	9.85862E-001	4.01648E-004	0.00000E+000	3.95970E-004	2.40040E-001	9.86174E-001	3.57590E+000	9	...........
	126	1.69333	9.89210E-001	4.00331E-004	0.00000E+000	3.96012E-004	2.40040E-001	9.89502E-001	3.57590E+000	9	...........
	127	1.70667	9.92608E-001	4.00508E-004	0.00000E+000	3.97548E-004	2.40040E-001	9.92911E-001	3.57590E+000	9	...........
	128	1.72	9.95965E-001	4.00788E-004	0.00000E+000	3.99170E-004	2.40040E-001	9.96257E-001	3.57590E+000	9	...........
	129	1.73167	9.98996E-001	4.01023E-004	0.00000E+000	4.00620E-004	2.40040E-001	9.99336E-001	3.57590E+000	9	...........
STARTTIMEOFFSET	QUANT	720.0253	Start Time Offset (s)
