EXPLAIN
TAG	PWR800_CHARGE
TITLE	LABEL	PWR Cyclic Charge Discharge (Cell) - Charge Step	Test &Identifier
DATE	LABEL	12-7-2017	Date
TIME	LABEL	15:03:30	Time
NOTES	NOTES	3	&Notes...
	supercap test cell
	0.4mg
	6M KOH
PSTAT	PSTAT	IFC5000-01520	Potentiostat
CAPACITY	QUANT	1.00000E-003	Capacity (A-hr)
CELLTYPE	SELECTOR	1	&Cell Type
WORKINGCONNECTION	SELECTOR	0	&Working Lead
MAXCHARGETIME	VARIABLEANDUNITS	1.00000E+002	s	1.00000E+002	second(s)	Max &Charge Time
CHARGECURRENT	QUANT	4.00000E-004	&Charge Current (A) 
VOLTAGEFINISH	TWOPARAM	F	1.00000E-003	3.60000E+003	&Voltage Finish	 I (A) < 	Max Time(s)
SAMPLETIME	QUANT	1.00000E-002	Sa&mple Period (s)
CHARGESTOPAT1	MULTIPARAM	4	1.00000E+000	Charge Stop At &1	Voltage > Limit	V
CHARGESTOPAT2	MULTIPARAM	0	0.00000E+000	Charge Stop At &2	None	N/A
AESBHCSELECTOR	TOGGLE	F	Save Both Half Cells
IRCOMP	TOGGLE	F	IR &Measure
EOC	QUANT	0	Open Circuit (V)
SEQUENCER	TOGGLE	TRUE	Run as Sequence
PSTATMODEL	IQUANT	53	Pstat Model
PSTATSECTION	LABEL	IFC5000-01520	Pstat Section
PSTATSERIALNO	LABEL	01520	Pstat Serial Number
CTRLMODE	IQUANT	0	Control Mode
ELECTROMETER	IQUANT	1	RE=0 or CS=1
IESTAB	IQUANT	0	I/E Stability
CASPEED	IQUANT	4	Control Amp Speed
CONVENTION	IQUANT	1	Current Convention
ICHRANGE	IQUANT	2	Ich Range
ICHRANGEMODE	TOGGLE	T	Ich Auto Range
ICHOFFSETENABLE	TOGGLE	F	Ich Offset Enable
ICHOFFSET	QUANT	0	Ich Offset (V)
ICHFILTER	IQUANT	1	Ich Filter
VCHRANGE	IQUANT	2	Vch Range
VCHRANGEMODE	TOGGLE	T	Vch Auto Range
VCHOFFSETENABLE	TOGGLE	F	Vch Offset Enable
VCHOFFSET	QUANT	0	Vch Offset (V)
VCHFILTER	IQUANT	1	Vch Filter
IERANGELOWERLIMIT	IQUANT	9	I/E Range Lower Limit
IERANGEMODE	TOGGLE	F	I/E AutoRange
IERANGE	IQUANT	9	I/E Range
ACHSELECT	IQUANT	1	Ach Select
ACHRANGE	IQUANT	2	Ach Range
ACHOFFSETENABLE	TOGGLE	F	Ach Offset Enable
ACHOFFSET	QUANT	0	Ach Offset (V)
ACHFILTER	IQUANT	1	Ach Filter
CABLEID	IQUANT	14	Cable ID
DCCALDATE	LABEL	5-7-2017	DC Calibration Date
ACCALDATE	LABEL	12/3/2015	AC Calibration Date
FRAMEWORKVERSION	QUANT	7.01	Framework Version
INSTRUMENTVERSION	LABEL	4.00	Instrument Version
CURVE	TABLE	112
	Pt	T	Vf	Im	Vu	Pwr	Sig	Ach	Temp	IERange	Over
	#	s	V	A	V	W	V	V	deg C	#	bits
	0	0.013333	3.76843E-001	4.00906E-004	0.00000E+000	1.51079E-004	2.40040E-001	3.76938E-001	3.57670E+000	9	...........
	1	0.026667	3.89042E-001	3.99653E-004	0.00000E+000	1.55482E-004	2.40040E-001	3.89115E-001	3.57670E+000	9	...........
	2	0.04	3.99487E-001	4.00834E-004	0.00000E+000	1.60128E-004	2.40040E-001	3.99565E-001	3.57670E+000	9	...........
	3	0.053333	4.08935E-001	4.00903E-004	0.00000E+000	1.63944E-004	2.40040E-001	4.09023E-001	3.57670E+000	9	...........
	4	0.066667	4.17808E-001	4.00475E-004	0.00000E+000	1.67322E-004	2.40040E-001	4.17892E-001	3.57670E+000	9	...........
	5	0.08	4.26175E-001	4.00557E-004	0.00000E+000	1.70708E-004	2.40040E-001	4.26262E-001	3.57670E+000	9	...........
	6	0.093333	4.34197E-001	4.00681E-004	0.00000E+000	1.73975E-004	2.40040E-001	4.34283E-001	3.57670E+000	9	...........
	7	0.106667	4.42035E-001	4.01530E-004	0.00000E+000	1.77490E-004	2.40040E-001	4.42124E-001	3.57670E+000	9	...........
	8	0.12	4.49668E-001	4.01069E-004	0.00000E+000	1.80348E-004	2.40040E-001	4.49759E-001	3.57670E+000	9	...........
	9	0.133333	4.57110E-001	4.00918E-004	0.00000E+000	1.83264E-004	2.40040E-001	4.57204E-001	3.57670E+000	9	...........
	10	0.146667	4.64372E-001	4.01318E-004	0.00000E+000	1.86361E-004	2.40040E-001	4.64459E-001	3.57670E+000	9	...........
	11	0.16	4.71519E-001	4.00951E-004	0.00000E+000	1.89056E-004	2.40040E-001	4.71614E-001	3.57670E+000	9	...........
	12	0.173333	4.78592E-001	4.01194E-004	0.00000E+000	1.92008E-004	2.40040E-001	4.78688E-001	3.57670E+000	9	...........
	13	0.186667	4.85502E-001	4.01077E-004	0.00000E+000	1.94724E-004	2.40040E-001	4.85597E-001	3.57670E+000	9	...........
	14	0.2	4.92384E-001	4.00994E-004	0.00000E+000	1.97443E-004	2.40040E-001	4.92482E-001	3.57670E+000	9	...........
	15	0.213333	4.99110E-001	4.00430E-004	0.00000E+000	1.99859E-004	2.40040E-001	4.99216E-001	3.57670E+000	9	...........
	16	0.226667	5.05824E-001	4.01586E-004	0.00000E+000	2.03132E-004	2.40040E-001	5.05926E-001	3.57670E+000	9	...........
	17	0.24	5.12513E-001	4.01395E-004	0.00000E+000	2.05720E-004	2.40040E-001	5.12617E-001	3.57670E+000	9	...........
	18	0.253333	5.19115E-001	4.01761E-004	0.00000E+000	2.08560E-004	2.40040E-001	5.19215E-001	3.57670E+000	9	...........
	19	0.266667	5.25628E-001	4.01882E-004	0.00000E+000	2.11240E-004	2.40040E-001	5.25729E-001	3.57670E+000	9	...........
	20	0.28	5.32028E-001	4.01224E-004	0.00000E+000	2.13462E-004	2.40040E-001	5.32116E-001	3.57670E+000	9	...........
	21	0.293333	5.38220E-001	4.00296E-004	0.00000E+000	2.15447E-004	2.40040E-001	5.38426E-001	3.57670E+000	9	...........
	22	0.306667	5.44631E-001	4.02353E-004	0.00000E+000	2.19134E-004	2.40040E-001	5.44830E-001	3.57670E+000	9	...........
	23	0.32	5.50945E-001	4.01137E-004	0.00000E+000	2.21004E-004	2.40040E-001	5.51157E-001	3.57670E+000	9	...........
	24	0.333333	5.57174E-001	4.02217E-004	0.00000E+000	2.24105E-004	2.40040E-001	5.57412E-001	3.57670E+000	9	...........
	25	0.346667	5.63450E-001	3.99451E-004	0.00000E+000	2.25071E-004	2.40040E-001	5.63710E-001	3.57670E+000	9	...........
	26	0.36	5.69713E-001	4.00781E-004	0.00000E+000	2.28330E-004	2.40040E-001	5.69930E-001	3.57670E+000	9	...........
	27	0.373333	5.75896E-001	4.02817E-004	0.00000E+000	2.31981E-004	2.40040E-001	5.76123E-001	3.57670E+000	9	...........
	28	0.386667	5.82083E-001	4.00516E-004	0.00000E+000	2.33133E-004	2.40040E-001	5.82313E-001	3.57670E+000	9	...........
	29	0.4	5.88264E-001	3.99975E-004	0.00000E+000	2.35291E-004	2.40040E-001	5.88490E-001	3.57670E+000	9	...........
	30	0.413333	5.94354E-001	4.00733E-004	0.00000E+000	2.38177E-004	2.40040E-001	5.94586E-001	3.57670E+000	9	...........
	31	0.426667	6.00383E-001	4.01182E-004	0.00000E+000	2.40863E-004	2.40040E-001	6.00623E-001	3.57670E+000	9	...........
	32	0.44	6.06404E-001	4.00983E-004	0.00000E+000	2.43158E-004	2.40040E-001	6.06671E-001	3.57670E+000	9	...........
	33	0.453333	6.12504E-001	4.02365E-004	0.00000E+000	2.46450E-004	2.40040E-001	6.12755E-001	3.57670E+000	9	...........
	34	0.466667	6.18618E-001	4.00761E-004	0.00000E+000	2.47918E-004	2.40040E-001	6.18831E-001	3.57670E+000	9	...........
	35	0.48	6.24676E-001	4.01016E-004	0.00000E+000	2.50505E-004	2.40040E-001	6.24902E-001	3.57670E+000	9	...........
	36	0.493333	6.30669E-001	4.00358E-004	0.00000E+000	2.52494E-004	2.40040E-001	6.30879E-001	3.57670E+000	9	...........
	37	0.506667	6.36618E-001	4.01169E-004	0.00000E+000	2.55391E-004	2.40040E-001	6.36841E-001	3.57670E+000	9	...........
	38	0.52	6.42575E-001	4.01285E-004	0.00000E+000	2.57856E-004	2.40040E-001	6.42801E-001	3.57670E+000	9	...........
	39	0.533333	6.48489E-001	4.01433E-004	0.00000E+000	2.60324E-004	2.40040E-001	6.48718E-001	3.57670E+000	9	...........
	40	0.546667	6.54473E-001	4.00222E-004	0.00000E+000	2.61935E-004	2.40040E-001	6.54702E-001	3.57670E+000	9	...........
	41	0.56	6.60425E-001	3.99945E-004	0.00000E+000	2.64134E-004	2.40040E-001	6.60645E-001	3.57670E+000	9	...........
	42	0.573333	6.66276E-001	4.00201E-004	0.00000E+000	2.66645E-004	2.40040E-001	6.66492E-001	3.57670E+000	9	...........
	43	0.586667	6.72081E-001	4.00720E-004	0.00000E+000	2.69316E-004	2.40040E-001	6.72302E-001	3.57670E+000	9	...........
	44	0.6	6.77881E-001	3.99666E-004	0.00000E+000	2.70926E-004	2.40040E-001	6.78133E-001	3.57670E+000	9	...........
	45	0.613333	6.83704E-001	3.99926E-004	0.00000E+000	2.73431E-004	2.40040E-001	6.83957E-001	3.57670E+000	9	...........
	46	0.626667	6.89517E-001	4.01519E-004	0.00000E+000	2.76854E-004	2.40040E-001	6.89759E-001	3.57670E+000	9	...........
	47	0.64	6.95231E-001	4.01402E-004	0.00000E+000	2.79067E-004	2.40040E-001	6.95449E-001	3.57670E+000	9	...........
	48	0.653333	7.00984E-001	4.00376E-004	0.00000E+000	2.80657E-004	2.40040E-001	7.01227E-001	3.57670E+000	9	...........
	49	0.666667	7.06704E-001	4.00702E-004	0.00000E+000	2.83178E-004	2.40040E-001	7.06940E-001	3.57670E+000	9	...........
	50	0.68	7.12407E-001	4.00162E-004	0.00000E+000	2.85078E-004	2.40040E-001	7.12645E-001	3.57670E+000	9	...........
	51	0.693333	7.18144E-001	4.01344E-004	0.00000E+000	2.88223E-004	2.40040E-001	7.18366E-001	3.57670E+000	9	...........
	52	0.706667	7.23783E-001	4.00493E-004	0.00000E+000	2.89870E-004	2.40040E-001	7.24013E-001	3.57670E+000	9	...........
	53	0.72	7.29426E-001	4.01740E-004	0.00000E+000	2.93040E-004	2.40040E-001	7.29669E-001	3.57670E+000	9	...........
	54	0.733333	7.34988E-001	4.01048E-004	0.00000E+000	2.94766E-004	2.40040E-001	7.35243E-001	3.57732E+000	9	...........
	55	0.746667	7.40583E-001	4.02050E-004	0.00000E+000	2.97752E-004	2.40040E-001	7.40840E-001	3.57770E+000	9	...........
	56	0.76	7.46163E-001	4.01426E-004	0.00000E+000	2.99530E-004	2.40040E-001	7.46400E-001	3.57770E+000	9	...........
	57	0.773333	7.51738E-001	4.01254E-004	0.00000E+000	3.01638E-004	2.40040E-001	7.51985E-001	3.57770E+000	9	...........
	58	0.786667	7.57364E-001	4.01087E-004	0.00000E+000	3.03769E-004	2.40040E-001	7.57596E-001	3.57770E+000	9	...........
	59	0.8	7.62808E-001	4.01317E-004	0.00000E+000	3.06128E-004	2.40040E-001	7.63056E-001	3.57770E+000	9	...........
	60	0.813333	7.68255E-001	4.00797E-004	0.00000E+000	3.07914E-004	2.40040E-001	7.68535E-001	3.57770E+000	9	...........
	61	0.826667	7.73614E-001	4.00421E-004	0.00000E+000	3.09771E-004	2.40040E-001	7.73867E-001	3.57770E+000	9	...........
	62	0.84	7.78992E-001	4.00298E-004	0.00000E+000	3.11829E-004	2.40040E-001	7.79256E-001	3.57770E+000	9	...........
	63	0.853333	7.84314E-001	4.00900E-004	0.00000E+000	3.14432E-004	2.40040E-001	7.84579E-001	3.57770E+000	9	...........
	64	0.866667	7.89643E-001	4.00378E-004	0.00000E+000	3.16156E-004	2.40040E-001	7.89894E-001	3.57770E+000	9	...........
	65	0.88	7.94989E-001	4.00814E-004	0.00000E+000	3.18643E-004	2.40040E-001	7.95260E-001	3.57770E+000	9	...........
	66	0.893333	8.00232E-001	4.00615E-004	0.00000E+000	3.20585E-004	2.40040E-001	8.00508E-001	3.57770E+000	9	...........
	67	0.906667	8.05458E-001	3.99839E-004	0.00000E+000	3.22053E-004	2.40040E-001	8.05715E-001	3.57770E+000	9	...........
	68	0.92	8.10690E-001	4.00711E-004	0.00000E+000	3.24852E-004	2.40040E-001	8.10972E-001	3.57770E+000	9	...........
	69	0.933333	8.15868E-001	4.01050E-004	0.00000E+000	3.27204E-004	2.40040E-001	8.16183E-001	3.57770E+000	9	...........
	70	0.946667	8.21040E-001	4.00259E-004	0.00000E+000	3.28629E-004	2.40040E-001	8.21330E-001	3.57770E+000	9	...........
	71	0.96	8.26149E-001	4.02079E-004	0.00000E+000	3.32177E-004	2.40040E-001	8.26448E-001	3.57770E+000	9	...........
	72	0.97333	8.31170E-001	4.01026E-004	0.00000E+000	3.33321E-004	2.40040E-001	8.31476E-001	3.57770E+000	9	...........
	73	0.98667	8.36247E-001	4.00650E-004	0.00000E+000	3.35042E-004	2.40040E-001	8.36561E-001	3.57770E+000	9	...........
	74	1	8.41191E-001	4.00050E-004	0.00000E+000	3.36519E-004	2.40040E-001	8.41507E-001	3.57770E+000	9	...........
	75	1.01333	8.46158E-001	4.01765E-004	0.00000E+000	3.39957E-004	2.40040E-001	8.46468E-001	3.57770E+000	9	...........
	76	1.02667	8.51108E-001	4.01475E-004	0.00000E+000	3.41699E-004	2.40040E-001	8.51416E-001	3.57770E+000	9	...........
	77	1.04	8.55994E-001	4.00563E-004	0.00000E+000	3.42879E-004	2.40040E-001	8.56302E-001	3.57770E+000	9	...........
	78	1.05333	8.60836E-001	4.01389E-004	0.00000E+000	3.45530E-004	2.40040E-001	8.61162E-001	3.57770E+000	9	...........
	79	1.06667	8.65615E-001	3.99405E-004	0.00000E+000	3.45731E-004	2.40040E-001	8.65944E-001	3.57770E+000	9	...........
	80	1.08	8.70392E-001	3.99594E-004	0.00000E+000	3.47803E-004	2.40040E-001	8.70719E-001	3.57770E+000	9	...........
	81	1.09333	8.75129E-001	4.01683E-004	0.00000E+000	3.51524E-004	2.40040E-001	8.75454E-001	3.57770E+000	9	...........
	82	1.10667	8.79805E-001	4.00749E-004	0.00000E+000	3.52581E-004	2.40040E-001	8.80112E-001	3.57770E+000	9	...........
	83	1.12	8.84450E-001	3.99968E-004	0.00000E+000	3.53751E-004	2.40040E-001	8.84758E-001	3.57770E+000	9	...........
	84	1.13333	8.89051E-001	4.01866E-004	0.00000E+000	3.57279E-004	2.40040E-001	8.89379E-001	3.57770E+000	9	...........
	85	1.14667	8.93660E-001	4.01077E-004	0.00000E+000	3.58427E-004	2.40040E-001	8.94009E-001	3.57770E+000	9	...........
	86	1.16	8.98263E-001	4.00006E-004	0.00000E+000	3.59311E-004	2.40040E-001	8.98562E-001	3.57770E+000	9	...........
	87	1.17333	9.02771E-001	4.01415E-004	0.00000E+000	3.62386E-004	2.40040E-001	9.03110E-001	3.57770E+000	9	...........
	88	1.18667	9.07263E-001	4.01238E-004	0.00000E+000	3.64028E-004	2.40040E-001	9.07587E-001	3.57770E+000	9	...........
	89	1.2	9.11726E-001	4.01417E-004	0.00000E+000	3.65982E-004	2.40040E-001	9.12050E-001	3.57770E+000	9	...........
	90	1.21333	9.16151E-001	4.00502E-004	0.00000E+000	3.66921E-004	2.40040E-001	9.16484E-001	3.57770E+000	9	...........
	91	1.22667	9.20582E-001	4.01377E-004	0.00000E+000	3.69501E-004	2.40040E-001	9.20879E-001	3.57770E+000	9	...........
	92	1.24	9.24962E-001	4.00953E-004	0.00000E+000	3.70867E-004	2.40040E-001	9.25238E-001	3.57770E+000	9	...........
	93	1.25333	9.29272E-001	4.00626E-004	0.00000E+000	3.72291E-004	2.40040E-001	9.29544E-001	3.57770E+000	9	...........
	94	1.26667	9.33520E-001	4.00875E-004	0.00000E+000	3.74225E-004	2.40040E-001	9.33832E-001	3.57770E+000	9	...........
	95	1.28	9.37761E-001	4.01110E-004	0.00000E+000	3.76145E-004	2.40040E-001	9.38078E-001	3.57770E+000	9	...........
	96	1.29333	9.41902E-001	4.00348E-004	0.00000E+000	3.77089E-004	2.40040E-001	9.42183E-001	3.57770E+000	9	...........
	97	1.30667	9.46004E-001	4.01356E-004	0.00000E+000	3.79684E-004	2.40040E-001	9.46293E-001	3.57770E+000	9	...........
	98	1.32	9.50140E-001	4.01642E-004	0.00000E+000	3.81616E-004	2.40040E-001	9.50433E-001	3.57770E+000	9	...........
	99	1.33333	9.54172E-001	4.01835E-004	0.00000E+000	3.83419E-004	2.40040E-001	9.54451E-001	3.57770E+000	9	...........
	100	1.34667	9.58204E-001	4.01523E-004	0.00000E+000	3.84741E-004	2.40040E-001	9.58501E-001	3.57770E+000	9	...........
	101	1.36	9.62160E-001	3.99297E-004	0.00000E+000	3.84187E-004	2.40040E-001	9.62479E-001	3.57770E+000	9	...........
	102	1.37333	9.66040E-001	4.00926E-004	0.00000E+000	3.87311E-004	2.40040E-001	9.66373E-001	3.57770E+000	9	...........
	103	1.38667	9.69996E-001	4.01510E-004	0.00000E+000	3.89463E-004	2.40040E-001	9.70344E-001	3.57770E+000	9	...........
	104	1.4	9.73951E-001	4.01065E-004	0.00000E+000	3.90618E-004	2.40040E-001	9.74274E-001	3.57770E+000	9	...........
	105	1.41333	9.77803E-001	4.00848E-004	0.00000E+000	3.91950E-004	2.40040E-001	9.78113E-001	3.57770E+000	9	...........
	106	1.42667	9.81530E-001	4.00569E-004	0.00000E+000	3.93171E-004	2.40040E-001	9.81848E-001	3.57770E+000	9	...........
	107	1.44	9.85233E-001	4.01658E-004	0.00000E+000	3.95726E-004	2.40040E-001	9.85571E-001	3.57770E+000	9	...........
	108	1.45333	9.88904E-001	4.01513E-004	0.00000E+000	3.97058E-004	2.40040E-001	9.89235E-001	3.57770E+000	9	...........
	109	1.46667	9.92576E-001	4.00167E-004	0.00000E+000	3.97196E-004	2.40040E-001	9.92909E-001	3.57770E+000	9	...........
	110	1.48	9.96217E-001	4.01210E-004	0.00000E+000	3.99692E-004	2.40040E-001	9.96545E-001	3.57770E+000	9	...........
	111	1.48833	9.99134E-001	4.02573E-004	0.00000E+000	4.02224E-004	2.40040E-001	9.99449E-001	3.57770E+000	9	...........
STARTTIMEOFFSET	QUANT	2137.109	Start Time Offset (s)
