EXPLAIN
TAG	PWR800_CHARGE
TITLE	LABEL	PWR Cyclic Charge Discharge (Cell) - Charge Step	Test &Identifier
DATE	LABEL	12-7-2017	Date
TIME	LABEL	14:34:53	Time
NOTES	NOTES	3	&Notes...
	supercap test cell
	0.4mg
	6M KOH
PSTAT	PSTAT	IFC5000-01520	Potentiostat
CAPACITY	QUANT	1.00000E-003	Capacity (A-hr)
CELLTYPE	SELECTOR	1	&Cell Type
WORKINGCONNECTION	SELECTOR	0	&Working Lead
MAXCHARGETIME	VARIABLEANDUNITS	1.00000E+002	s	1.00000E+002	second(s)	Max &Charge Time
CHARGECURRENT	QUANT	4.00000E-004	&Charge Current (A) 
VOLTAGEFINISH	TWOPARAM	F	1.00000E-003	3.60000E+003	&Voltage Finish	 I (A) < 	Max Time(s)
SAMPLETIME	QUANT	1.00000E-002	Sa&mple Period (s)
CHARGESTOPAT1	MULTIPARAM	4	1.00000E+000	Charge Stop At &1	Voltage > Limit	V
CHARGESTOPAT2	MULTIPARAM	0	0.00000E+000	Charge Stop At &2	None	N/A
AESBHCSELECTOR	TOGGLE	F	Save Both Half Cells
IRCOMP	TOGGLE	F	IR &Measure
EOC	QUANT	0	Open Circuit (V)
SEQUENCER	TOGGLE	TRUE	Run as Sequence
PSTATMODEL	IQUANT	53	Pstat Model
PSTATSECTION	LABEL	IFC5000-01520	Pstat Section
PSTATSERIALNO	LABEL	01520	Pstat Serial Number
CTRLMODE	IQUANT	0	Control Mode
ELECTROMETER	IQUANT	1	RE=0 or CS=1
IESTAB	IQUANT	0	I/E Stability
CASPEED	IQUANT	4	Control Amp Speed
CONVENTION	IQUANT	1	Current Convention
ICHRANGE	IQUANT	2	Ich Range
ICHRANGEMODE	TOGGLE	T	Ich Auto Range
ICHOFFSETENABLE	TOGGLE	F	Ich Offset Enable
ICHOFFSET	QUANT	0	Ich Offset (V)
ICHFILTER	IQUANT	1	Ich Filter
VCHRANGE	IQUANT	2	Vch Range
VCHRANGEMODE	TOGGLE	T	Vch Auto Range
VCHOFFSETENABLE	TOGGLE	F	Vch Offset Enable
VCHOFFSET	QUANT	0	Vch Offset (V)
VCHFILTER	IQUANT	1	Vch Filter
IERANGELOWERLIMIT	IQUANT	9	I/E Range Lower Limit
IERANGEMODE	TOGGLE	F	I/E AutoRange
IERANGE	IQUANT	9	I/E Range
ACHSELECT	IQUANT	1	Ach Select
ACHRANGE	IQUANT	2	Ach Range
ACHOFFSETENABLE	TOGGLE	F	Ach Offset Enable
ACHOFFSET	QUANT	0	Ach Offset (V)
ACHFILTER	IQUANT	1	Ach Filter
CABLEID	IQUANT	14	Cable ID
DCCALDATE	LABEL	5-7-2017	DC Calibration Date
ACCALDATE	LABEL	12/3/2015	AC Calibration Date
FRAMEWORKVERSION	QUANT	7.01	Framework Version
INSTRUMENTVERSION	LABEL	4.00	Instrument Version
CURVE	TABLE	129
	Pt	T	Vf	Im	Vu	Pwr	Sig	Ach	Temp	IERange	Over
	#	s	V	A	V	W	V	V	deg C	#	bits
	0	0.013333	3.47285E-001	4.00436E-004	0.00000E+000	1.39065E-004	2.40040E-001	3.47374E-001	3.57630E+000	9	...........
	1	0.026667	3.57939E-001	4.00744E-004	0.00000E+000	1.43442E-004	2.40040E-001	3.58007E-001	3.57630E+000	9	...........
	2	0.04	3.67019E-001	4.01148E-004	0.00000E+000	1.47229E-004	2.40040E-001	3.67090E-001	3.57630E+000	9	...........
	3	0.053333	3.75386E-001	4.01209E-004	0.00000E+000	1.50608E-004	2.40040E-001	3.75460E-001	3.57630E+000	9	...........
	4	0.066667	3.83285E-001	4.00552E-004	0.00000E+000	1.53526E-004	2.40040E-001	3.83356E-001	3.57630E+000	9	...........
	5	0.08	3.90784E-001	3.99742E-004	0.00000E+000	1.56213E-004	2.40040E-001	3.90861E-001	3.57630E+000	9	...........
	6	0.093333	3.98066E-001	4.00418E-004	0.00000E+000	1.59393E-004	2.40040E-001	3.98144E-001	3.57630E+000	9	...........
	7	0.106667	4.05076E-001	4.01463E-004	0.00000E+000	1.62623E-004	2.40040E-001	4.05158E-001	3.57630E+000	9	...........
	8	0.12	4.11882E-001	4.01275E-004	0.00000E+000	1.65278E-004	2.40040E-001	4.11969E-001	3.57630E+000	9	...........
	9	0.133333	4.18545E-001	4.00352E-004	0.00000E+000	1.67565E-004	2.40040E-001	4.18632E-001	3.57630E+000	9	...........
	10	0.146667	4.25059E-001	3.99530E-004	0.00000E+000	1.69824E-004	2.40040E-001	4.25143E-001	3.57630E+000	9	...........
	11	0.16	4.31510E-001	4.01072E-004	0.00000E+000	1.73067E-004	2.40040E-001	4.31599E-001	3.57630E+000	9	...........
	12	0.173333	4.37884E-001	4.00109E-004	0.00000E+000	1.75202E-004	2.40040E-001	4.37980E-001	3.57630E+000	9	...........
	13	0.186667	4.44126E-001	4.00913E-004	0.00000E+000	1.78056E-004	2.40040E-001	4.44217E-001	3.57630E+000	9	...........
	14	0.2	4.50386E-001	4.00356E-004	0.00000E+000	1.80315E-004	2.40040E-001	4.50479E-001	3.57630E+000	9	...........
	15	0.213333	4.56493E-001	4.00194E-004	0.00000E+000	1.82686E-004	2.40040E-001	4.56589E-001	3.57630E+000	9	...........
	16	0.226667	4.62580E-001	4.00970E-004	0.00000E+000	1.85481E-004	2.40040E-001	4.62678E-001	3.57630E+000	9	...........
	17	0.24	4.68533E-001	4.02183E-004	0.00000E+000	1.88436E-004	2.40040E-001	4.68629E-001	3.57630E+000	9	...........
	18	0.253333	4.74483E-001	4.02240E-004	0.00000E+000	1.90856E-004	2.40040E-001	4.74582E-001	3.57630E+000	9	...........
	19	0.266667	4.80430E-001	4.01078E-004	0.00000E+000	1.92690E-004	2.40040E-001	4.80525E-001	3.57630E+000	9	...........
	20	0.28	4.86389E-001	3.99820E-004	0.00000E+000	1.94468E-004	2.40040E-001	4.86489E-001	3.57630E+000	9	...........
	21	0.293333	4.92276E-001	4.01174E-004	0.00000E+000	1.97488E-004	2.40040E-001	4.92377E-001	3.57630E+000	9	...........
	22	0.306667	4.98149E-001	4.00657E-004	0.00000E+000	1.99587E-004	2.40040E-001	4.98254E-001	3.57630E+000	9	...........
	23	0.32	5.03947E-001	4.00051E-004	0.00000E+000	2.01604E-004	2.40040E-001	5.04052E-001	3.57630E+000	9	...........
	24	0.333333	5.09678E-001	4.00550E-004	0.00000E+000	2.04151E-004	2.40040E-001	5.09783E-001	3.57630E+000	9	...........
	25	0.346667	5.15353E-001	4.01051E-004	0.00000E+000	2.06683E-004	2.40040E-001	5.15459E-001	3.57630E+000	9	...........
	26	0.36	5.20985E-001	4.00199E-004	0.00000E+000	2.08498E-004	2.40040E-001	5.21093E-001	3.57630E+000	9	...........
	27	0.373333	5.26651E-001	4.00843E-004	0.00000E+000	2.11104E-004	2.40040E-001	5.26759E-001	3.57630E+000	9	...........
	28	0.386667	5.32278E-001	4.01578E-004	0.00000E+000	2.13751E-004	2.40040E-001	5.32385E-001	3.57630E+000	9	...........
	29	0.4	5.37744E-001	4.00948E-004	0.00000E+000	2.15607E-004	2.40040E-001	5.37959E-001	3.57630E+000	9	...........
	30	0.413333	5.43395E-001	4.01013E-004	0.00000E+000	2.17908E-004	2.40040E-001	5.43614E-001	3.57630E+000	9	...........
	31	0.426667	5.49032E-001	4.02487E-004	0.00000E+000	2.20978E-004	2.40040E-001	5.49230E-001	3.57630E+000	9	...........
	32	0.44	5.54554E-001	4.01331E-004	0.00000E+000	2.22559E-004	2.40040E-001	5.54787E-001	3.57630E+000	9	...........
	33	0.453333	5.60123E-001	4.00409E-004	0.00000E+000	2.24279E-004	2.40040E-001	5.60346E-001	3.57630E+000	9	...........
	34	0.466667	5.65749E-001	4.01947E-004	0.00000E+000	2.27401E-004	2.40040E-001	5.65960E-001	3.57630E+000	9	...........
	35	0.48	5.71291E-001	4.00613E-004	0.00000E+000	2.28867E-004	2.40040E-001	5.71498E-001	3.57630E+000	9	...........
	36	0.493333	5.76706E-001	4.03226E-004	0.00000E+000	2.32543E-004	2.40040E-001	5.76930E-001	3.57630E+000	9	...........
	37	0.506667	5.82113E-001	4.00494E-004	0.00000E+000	2.33133E-004	2.40040E-001	5.82348E-001	3.57630E+000	9	...........
	38	0.52	5.87632E-001	4.00428E-004	0.00000E+000	2.35305E-004	2.40040E-001	5.87886E-001	3.57630E+000	9	...........
	39	0.533333	5.93134E-001	4.00668E-004	0.00000E+000	2.37650E-004	2.40040E-001	5.93377E-001	3.57630E+000	9	...........
	40	0.546667	5.98594E-001	4.00440E-004	0.00000E+000	2.39701E-004	2.40040E-001	5.98847E-001	3.57630E+000	9	...........
	41	0.56	6.03955E-001	4.02408E-004	0.00000E+000	2.43036E-004	2.40040E-001	6.04216E-001	3.57630E+000	9	...........
	42	0.573333	6.09267E-001	4.00442E-004	0.00000E+000	2.43976E-004	2.40040E-001	6.09527E-001	3.57630E+000	9	...........
	43	0.586667	6.14707E-001	4.01252E-004	0.00000E+000	2.46653E-004	2.40040E-001	6.14945E-001	3.57630E+000	9	...........
	44	0.6	6.20068E-001	4.00545E-004	0.00000E+000	2.48365E-004	2.40040E-001	6.20274E-001	3.57630E+000	9	...........
	45	0.613333	6.25370E-001	4.01235E-004	0.00000E+000	2.50920E-004	2.40040E-001	6.25544E-001	3.57630E+000	9	...........
	46	0.626667	6.30735E-001	4.00880E-004	0.00000E+000	2.52849E-004	2.40040E-001	6.30977E-001	3.57630E+000	9	...........
	47	0.64	6.36122E-001	4.00573E-004	0.00000E+000	2.54813E-004	2.40040E-001	6.36343E-001	3.57630E+000	9	...........
	48	0.653333	6.41431E-001	4.00497E-004	0.00000E+000	2.56891E-004	2.40040E-001	6.41659E-001	3.57630E+000	9	...........
	49	0.666667	6.46710E-001	4.01438E-004	0.00000E+000	2.59614E-004	2.40040E-001	6.46933E-001	3.57630E+000	9	...........
	50	0.68	6.51987E-001	4.00026E-004	0.00000E+000	2.60812E-004	2.40040E-001	6.52192E-001	3.57630E+000	9	...........
	51	0.693333	6.57351E-001	4.00504E-004	0.00000E+000	2.63272E-004	2.40040E-001	6.57568E-001	3.57630E+000	9	...........
	52	0.706667	6.62606E-001	4.01319E-004	0.00000E+000	2.65917E-004	2.40040E-001	6.62845E-001	3.57630E+000	9	...........
	53	0.72	6.67853E-001	4.01323E-004	0.00000E+000	2.68025E-004	2.40040E-001	6.68084E-001	3.57630E+000	9	...........
	54	0.733333	6.73159E-001	4.00009E-004	0.00000E+000	2.69270E-004	2.40040E-001	6.73382E-001	3.57630E+000	9	...........
	55	0.746667	6.78365E-001	4.00209E-004	0.00000E+000	2.71488E-004	2.40040E-001	6.78610E-001	3.57630E+000	9	...........
	56	0.76	6.83527E-001	4.02359E-004	0.00000E+000	2.75023E-004	2.40040E-001	6.83794E-001	3.57630E+000	9	...........
	57	0.773333	6.88726E-001	4.01747E-004	0.00000E+000	2.76694E-004	2.40040E-001	6.88975E-001	3.57630E+000	9	...........
	58	0.786667	6.93935E-001	4.00175E-004	0.00000E+000	2.77696E-004	2.40040E-001	6.94183E-001	3.57630E+000	9	...........
	59	0.8	6.99080E-001	3.99775E-004	0.00000E+000	2.79475E-004	2.40040E-001	6.99324E-001	3.57630E+000	9	...........
	60	0.813333	7.04249E-001	3.99882E-004	0.00000E+000	2.81617E-004	2.40040E-001	7.04499E-001	3.57630E+000	9	...........
	61	0.826667	7.09354E-001	4.02353E-004	0.00000E+000	2.85410E-004	2.40040E-001	7.09631E-001	3.57630E+000	9	...........
	62	0.84	7.14455E-001	4.01783E-004	0.00000E+000	2.87056E-004	2.40040E-001	7.14728E-001	3.57630E+000	9	...........
	63	0.853333	7.19586E-001	4.00415E-004	0.00000E+000	2.88133E-004	2.40040E-001	7.19829E-001	3.57630E+000	9	...........
	64	0.866667	7.24685E-001	4.00081E-004	0.00000E+000	2.89933E-004	2.40040E-001	7.24911E-001	3.57630E+000	9	...........
	65	0.88	7.29767E-001	4.00378E-004	0.00000E+000	2.92183E-004	2.40040E-001	7.30014E-001	3.57630E+000	9	...........
	66	0.893333	7.34797E-001	4.01097E-004	0.00000E+000	2.94725E-004	2.40040E-001	7.35039E-001	3.57630E+000	9	...........
	67	0.906667	7.39849E-001	4.02208E-004	0.00000E+000	2.97573E-004	2.40040E-001	7.40091E-001	3.57630E+000	9	...........
	68	0.92	7.44843E-001	4.01364E-004	0.00000E+000	2.98953E-004	2.40040E-001	7.45070E-001	3.57630E+000	9	...........
	69	0.933333	7.49881E-001	4.01599E-004	0.00000E+000	3.01152E-004	2.40040E-001	7.50116E-001	3.57630E+000	9	...........
	70	0.946667	7.54945E-001	4.01465E-004	0.00000E+000	3.03084E-004	2.40040E-001	7.55171E-001	3.57671E+000	9	...........
	71	0.96	7.59936E-001	4.00464E-004	0.00000E+000	3.04327E-004	2.40040E-001	7.60170E-001	3.57740E+000	9	...........
	72	0.97333	7.64915E-001	4.01756E-004	0.00000E+000	3.07309E-004	2.40040E-001	7.65159E-001	3.57740E+000	9	...........
	73	0.98667	7.69870E-001	4.00274E-004	0.00000E+000	3.08159E-004	2.40040E-001	7.70124E-001	3.57740E+000	9	...........
	74	1	7.74767E-001	4.01162E-004	0.00000E+000	3.10807E-004	2.40040E-001	7.74990E-001	3.57740E+000	9	...........
	75	1.01333	7.79681E-001	4.00335E-004	0.00000E+000	3.12134E-004	2.40040E-001	7.79887E-001	3.57740E+000	9	...........
	76	1.02667	7.84604E-001	4.00400E-004	0.00000E+000	3.14155E-004	2.40040E-001	7.84809E-001	3.57740E+000	9	...........
	77	1.04	7.89434E-001	4.01748E-004	0.00000E+000	3.17154E-004	2.40040E-001	7.89671E-001	3.57740E+000	9	...........
	78	1.05333	7.94245E-001	4.01631E-004	0.00000E+000	3.18993E-004	2.40040E-001	7.94480E-001	3.57740E+000	9	...........
	79	1.06667	7.99059E-001	4.00517E-004	0.00000E+000	3.20037E-004	2.40040E-001	7.99289E-001	3.57740E+000	9	...........
	80	1.08	8.03837E-001	4.00905E-004	0.00000E+000	3.22263E-004	2.40040E-001	8.04092E-001	3.57740E+000	9	...........
	81	1.09333	8.08619E-001	4.01226E-004	0.00000E+000	3.24439E-004	2.40040E-001	8.08895E-001	3.57740E+000	9	...........
	82	1.10667	8.13416E-001	4.01690E-004	0.00000E+000	3.26741E-004	2.40040E-001	8.13695E-001	3.57740E+000	9	...........
	83	1.12	8.18164E-001	4.01775E-004	0.00000E+000	3.28718E-004	2.40040E-001	8.18450E-001	3.57740E+000	9	...........
	84	1.13333	8.22872E-001	4.02134E-004	0.00000E+000	3.30905E-004	2.40040E-001	8.23178E-001	3.57740E+000	9	...........
	85	1.14667	8.27531E-001	4.01043E-004	0.00000E+000	3.31875E-004	2.40040E-001	8.27815E-001	3.57740E+000	9	...........
	86	1.16	8.32201E-001	4.00541E-004	0.00000E+000	3.33331E-004	2.40040E-001	8.32498E-001	3.57740E+000	9	...........
	87	1.17333	8.36807E-001	4.01661E-004	0.00000E+000	3.36113E-004	2.40040E-001	8.37098E-001	3.57740E+000	9	...........
	88	1.18667	8.41354E-001	4.01723E-004	0.00000E+000	3.37991E-004	2.40040E-001	8.41666E-001	3.57740E+000	9	...........
	89	1.2	8.45943E-001	4.01833E-004	0.00000E+000	3.39928E-004	2.40040E-001	8.46236E-001	3.57740E+000	9	...........
	90	1.21333	8.50461E-001	4.02013E-004	0.00000E+000	3.41896E-004	2.40040E-001	8.50761E-001	3.57740E+000	9	...........
	91	1.22667	8.54937E-001	4.01090E-004	0.00000E+000	3.42907E-004	2.40040E-001	8.55244E-001	3.57740E+000	9	...........
	92	1.24	8.59468E-001	4.01752E-004	0.00000E+000	3.45293E-004	2.40040E-001	8.59782E-001	3.57740E+000	9	...........
	93	1.25333	8.63926E-001	4.01476E-004	0.00000E+000	3.46846E-004	2.40040E-001	8.64221E-001	3.57740E+000	9	...........
	94	1.26667	8.68391E-001	4.00363E-004	0.00000E+000	3.47671E-004	2.40040E-001	8.68663E-001	3.57740E+000	9	...........
	95	1.28	8.72763E-001	4.01249E-004	0.00000E+000	3.50195E-004	2.40040E-001	8.73028E-001	3.57740E+000	9	...........
	96	1.29333	8.77089E-001	4.01011E-004	0.00000E+000	3.51722E-004	2.40040E-001	8.77396E-001	3.57740E+000	9	...........
	97	1.30667	8.81462E-001	4.01170E-004	0.00000E+000	3.53616E-004	2.40040E-001	8.81768E-001	3.57740E+000	9	...........
	98	1.32	8.85828E-001	4.00801E-004	0.00000E+000	3.55041E-004	2.40040E-001	8.86115E-001	3.57740E+000	9	...........
	99	1.33333	8.90142E-001	4.01293E-004	0.00000E+000	3.57208E-004	2.40040E-001	8.90424E-001	3.57740E+000	9	...........
	100	1.34667	8.94356E-001	4.01451E-004	0.00000E+000	3.59040E-004	2.40040E-001	8.94640E-001	3.57740E+000	9	...........
	101	1.36	8.98624E-001	4.00545E-004	0.00000E+000	3.59939E-004	2.40040E-001	8.98908E-001	3.57740E+000	9	...........
	102	1.37333	9.02834E-001	4.00899E-004	0.00000E+000	3.61945E-004	2.40040E-001	9.03147E-001	3.57740E+000	9	...........
	103	1.38667	9.06917E-001	4.02703E-004	0.00000E+000	3.65218E-004	2.40040E-001	9.07222E-001	3.57740E+000	9	...........
	104	1.4	9.10998E-001	4.01239E-004	0.00000E+000	3.65528E-004	2.40040E-001	9.11272E-001	3.57740E+000	9	...........
	105	1.41333	9.15052E-001	4.01006E-004	0.00000E+000	3.66942E-004	2.40040E-001	9.15359E-001	3.57740E+000	9	...........
	106	1.42667	9.19069E-001	4.01001E-004	0.00000E+000	3.68548E-004	2.40040E-001	9.19373E-001	3.57740E+000	9	...........
	107	1.44	9.23174E-001	4.01457E-004	0.00000E+000	3.70614E-004	2.40040E-001	9.23408E-001	3.57740E+000	9	...........
	108	1.45333	9.27155E-001	3.99938E-004	0.00000E+000	3.70804E-004	2.40040E-001	9.27433E-001	3.57740E+000	9	...........
	109	1.46667	9.31164E-001	4.00689E-004	0.00000E+000	3.73107E-004	2.40040E-001	9.31438E-001	3.57740E+000	9	...........
	110	1.48	9.35110E-001	4.01575E-004	0.00000E+000	3.75517E-004	2.40040E-001	9.35404E-001	3.57740E+000	9	...........
	111	1.49333	9.39008E-001	4.00749E-004	0.00000E+000	3.76307E-004	2.40040E-001	9.39295E-001	3.57740E+000	9	...........
	112	1.50667	9.42861E-001	4.02704E-004	0.00000E+000	3.79694E-004	2.40040E-001	9.43171E-001	3.57740E+000	9	...........
	113	1.52	9.46745E-001	4.00108E-004	0.00000E+000	3.78801E-004	2.40040E-001	9.47035E-001	3.57740E+000	9	...........
	114	1.53333	9.50540E-001	4.01369E-004	0.00000E+000	3.81517E-004	2.40040E-001	9.50848E-001	3.57740E+000	9	...........
	115	1.54667	9.54278E-001	4.00480E-004	0.00000E+000	3.82170E-004	2.40040E-001	9.54579E-001	3.57740E+000	9	...........
	116	1.56	9.57968E-001	4.01752E-004	0.00000E+000	3.84866E-004	2.40040E-001	9.58274E-001	3.57740E+000	9	...........
	117	1.57333	9.61673E-001	4.01470E-004	0.00000E+000	3.86083E-004	2.40040E-001	9.61986E-001	3.57740E+000	9	...........
	118	1.58667	9.65380E-001	4.01839E-004	0.00000E+000	3.87927E-004	2.40040E-001	9.65714E-001	3.57740E+000	9	...........
	119	1.6	9.68998E-001	4.00692E-004	0.00000E+000	3.88270E-004	2.40040E-001	9.69334E-001	3.57740E+000	9	...........
	120	1.61333	9.72662E-001	4.00131E-004	0.00000E+000	3.89193E-004	2.40040E-001	9.73006E-001	3.57740E+000	9	...........
	121	1.62667	9.76182E-001	4.00573E-004	0.00000E+000	3.91032E-004	2.40040E-001	9.76474E-001	3.57740E+000	9	...........
	122	1.64	9.79670E-001	4.01412E-004	0.00000E+000	3.93251E-004	2.40040E-001	9.79971E-001	3.57740E+000	9	...........
	123	1.65333	9.83165E-001	4.00287E-004	0.00000E+000	3.93548E-004	2.40040E-001	9.83481E-001	3.57740E+000	9	...........
	124	1.66667	9.86580E-001	4.01269E-004	0.00000E+000	3.95884E-004	2.40040E-001	9.86884E-001	3.57740E+000	9	...........
	125	1.68	9.89982E-001	4.00632E-004	0.00000E+000	3.96619E-004	2.40040E-001	9.90300E-001	3.57740E+000	9	...........
	126	1.69333	9.93362E-001	4.01942E-004	0.00000E+000	3.99274E-004	2.40040E-001	9.93677E-001	3.57740E+000	9	...........
	127	1.70667	9.96757E-001	4.01082E-004	0.00000E+000	3.99781E-004	2.40040E-001	9.97059E-001	3.57740E+000	9	...........
	128	1.715	9.99472E-001	4.00736E-004	0.00000E+000	4.00524E-004	2.40040E-001	9.99797E-001	3.57740E+000	9	...........
STARTTIMEOFFSET	QUANT	783.7203	Start Time Offset (s)
