EXPLAIN
TAG	PWR800_CHARGE
TITLE	LABEL	PWR Cyclic Charge Discharge (Cell) - Charge Step	Test &Identifier
DATE	LABEL	12-7-2017	Date
TIME	LABEL	15:07:55	Time
NOTES	NOTES	3	&Notes...
	supercap test cell
	0.4mg
	6M KOH
PSTAT	PSTAT	IFC5000-01520	Potentiostat
CAPACITY	QUANT	1.00000E-003	Capacity (A-hr)
CELLTYPE	SELECTOR	1	&Cell Type
WORKINGCONNECTION	SELECTOR	0	&Working Lead
MAXCHARGETIME	VARIABLEANDUNITS	1.00000E+002	s	1.00000E+002	second(s)	Max &Charge Time
CHARGECURRENT	QUANT	4.00000E-004	&Charge Current (A) 
VOLTAGEFINISH	TWOPARAM	F	1.00000E-003	3.60000E+003	&Voltage Finish	 I (A) < 	Max Time(s)
SAMPLETIME	QUANT	1.00000E-002	Sa&mple Period (s)
CHARGESTOPAT1	MULTIPARAM	4	1.00000E+000	Charge Stop At &1	Voltage > Limit	V
CHARGESTOPAT2	MULTIPARAM	0	0.00000E+000	Charge Stop At &2	None	N/A
AESBHCSELECTOR	TOGGLE	F	Save Both Half Cells
IRCOMP	TOGGLE	F	IR &Measure
EOC	QUANT	0	Open Circuit (V)
SEQUENCER	TOGGLE	TRUE	Run as Sequence
PSTATMODEL	IQUANT	53	Pstat Model
PSTATSECTION	LABEL	IFC5000-01520	Pstat Section
PSTATSERIALNO	LABEL	01520	Pstat Serial Number
CTRLMODE	IQUANT	0	Control Mode
ELECTROMETER	IQUANT	1	RE=0 or CS=1
IESTAB	IQUANT	0	I/E Stability
CASPEED	IQUANT	4	Control Amp Speed
CONVENTION	IQUANT	1	Current Convention
ICHRANGE	IQUANT	2	Ich Range
ICHRANGEMODE	TOGGLE	T	Ich Auto Range
ICHOFFSETENABLE	TOGGLE	F	Ich Offset Enable
ICHOFFSET	QUANT	0	Ich Offset (V)
ICHFILTER	IQUANT	1	Ich Filter
VCHRANGE	IQUANT	2	Vch Range
VCHRANGEMODE	TOGGLE	T	Vch Auto Range
VCHOFFSETENABLE	TOGGLE	F	Vch Offset Enable
VCHOFFSET	QUANT	0	Vch Offset (V)
VCHFILTER	IQUANT	1	Vch Filter
IERANGELOWERLIMIT	IQUANT	9	I/E Range Lower Limit
IERANGEMODE	TOGGLE	F	I/E AutoRange
IERANGE	IQUANT	9	I/E Range
ACHSELECT	IQUANT	1	Ach Select
ACHRANGE	IQUANT	2	Ach Range
ACHOFFSETENABLE	TOGGLE	F	Ach Offset Enable
ACHOFFSET	QUANT	0	Ach Offset (V)
ACHFILTER	IQUANT	1	Ach Filter
CABLEID	IQUANT	14	Cable ID
DCCALDATE	LABEL	5-7-2017	DC Calibration Date
ACCALDATE	LABEL	12/3/2015	AC Calibration Date
FRAMEWORKVERSION	QUANT	7.01	Framework Version
INSTRUMENTVERSION	LABEL	4.00	Instrument Version
CURVE	TABLE	110
	Pt	T	Vf	Im	Vu	Pwr	Sig	Ach	Temp	IERange	Over
	#	s	V	A	V	W	V	V	deg C	#	bits
	0	0.013333	3.80160E-001	4.01421E-004	0.00000E+000	1.52604E-004	2.40040E-001	3.80255E-001	3.57630E+000	9	...........
	1	0.026667	3.92525E-001	4.00164E-004	0.00000E+000	1.57074E-004	2.40040E-001	3.92598E-001	3.57630E+000	9	...........
	2	0.04	4.03106E-001	4.00672E-004	0.00000E+000	1.61513E-004	2.40040E-001	4.03182E-001	3.57630E+000	9	...........
	3	0.053333	4.12694E-001	4.02018E-004	0.00000E+000	1.65911E-004	2.40040E-001	4.12775E-001	3.57630E+000	9	...........
	4	0.066667	4.21632E-001	4.00576E-004	0.00000E+000	1.68896E-004	2.40040E-001	4.21719E-001	3.57630E+000	9	...........
	5	0.08	4.30112E-001	4.00614E-004	0.00000E+000	1.72309E-004	2.40040E-001	4.30198E-001	3.57630E+000	9	...........
	6	0.093333	4.38272E-001	4.01074E-004	0.00000E+000	1.75780E-004	2.40040E-001	4.38355E-001	3.57630E+000	9	...........
	7	0.106667	4.46106E-001	4.01741E-004	0.00000E+000	1.79219E-004	2.40040E-001	4.46193E-001	3.57630E+000	9	...........
	8	0.12	4.53707E-001	4.01179E-004	0.00000E+000	1.82018E-004	2.40040E-001	4.53794E-001	3.57630E+000	9	...........
	9	0.133333	4.61180E-001	4.02057E-004	0.00000E+000	1.85421E-004	2.40040E-001	4.61275E-001	3.57630E+000	9	...........
	10	0.146667	4.68504E-001	4.00493E-004	0.00000E+000	1.87632E-004	2.40040E-001	4.68598E-001	3.57630E+000	9	...........
	11	0.16	4.75740E-001	4.00852E-004	0.00000E+000	1.90701E-004	2.40040E-001	4.75833E-001	3.57630E+000	9	...........
	12	0.173333	4.82864E-001	4.01436E-004	0.00000E+000	1.93839E-004	2.40040E-001	4.82965E-001	3.57630E+000	9	...........
	13	0.186667	4.89988E-001	3.99893E-004	0.00000E+000	1.95943E-004	2.40040E-001	4.90084E-001	3.57630E+000	9	...........
	14	0.2	4.96946E-001	4.01472E-004	0.00000E+000	1.99510E-004	2.40040E-001	4.97050E-001	3.57630E+000	9	...........
	15	0.213333	5.03820E-001	4.00994E-004	0.00000E+000	2.02029E-004	2.40040E-001	5.03924E-001	3.57630E+000	9	...........
	16	0.226667	5.10590E-001	4.00120E-004	0.00000E+000	2.04297E-004	2.40040E-001	5.10698E-001	3.57630E+000	9	...........
	17	0.24	5.17236E-001	4.01004E-004	0.00000E+000	2.07414E-004	2.40040E-001	5.17345E-001	3.57630E+000	9	...........
	18	0.253333	5.23932E-001	3.99760E-004	0.00000E+000	2.09447E-004	2.40040E-001	5.24037E-001	3.57630E+000	9	...........
	19	0.266667	5.30603E-001	4.01670E-004	0.00000E+000	2.13127E-004	2.40040E-001	5.30691E-001	3.57630E+000	9	...........
	20	0.28	5.36836E-001	4.01195E-004	0.00000E+000	2.15376E-004	2.40040E-001	5.37024E-001	3.57630E+000	9	...........
	21	0.293333	5.43355E-001	4.00750E-004	0.00000E+000	2.17750E-004	2.40040E-001	5.43562E-001	3.57630E+000	9	...........
	22	0.306667	5.49760E-001	4.00348E-004	0.00000E+000	2.20095E-004	2.40040E-001	5.49979E-001	3.57630E+000	9	...........
	23	0.32	5.56114E-001	4.01137E-004	0.00000E+000	2.23078E-004	2.40040E-001	5.56314E-001	3.57630E+000	9	...........
	24	0.333333	5.62518E-001	4.00765E-004	0.00000E+000	2.25437E-004	2.40040E-001	5.62734E-001	3.57630E+000	9	...........
	25	0.346667	5.68903E-001	4.01871E-004	0.00000E+000	2.28626E-004	2.40040E-001	5.69105E-001	3.57630E+000	9	...........
	26	0.36	5.75215E-001	4.00851E-004	0.00000E+000	2.30576E-004	2.40040E-001	5.75438E-001	3.57630E+000	9	...........
	27	0.373333	5.81491E-001	4.00615E-004	0.00000E+000	2.32954E-004	2.40040E-001	5.81703E-001	3.57660E+000	9	...........
	28	0.386667	5.87686E-001	4.01153E-004	0.00000E+000	2.35752E-004	2.40040E-001	5.87937E-001	3.57710E+000	9	...........
	29	0.4	5.93893E-001	4.01404E-004	0.00000E+000	2.38391E-004	2.40040E-001	5.94130E-001	3.57710E+000	9	...........
	30	0.413333	6.00089E-001	4.00940E-004	0.00000E+000	2.40600E-004	2.40040E-001	6.00333E-001	3.57710E+000	9	...........
	31	0.426667	6.06287E-001	4.00702E-004	0.00000E+000	2.42940E-004	2.40040E-001	6.06517E-001	3.57710E+000	9	...........
	32	0.44	6.12488E-001	4.00889E-004	0.00000E+000	2.45539E-004	2.40040E-001	6.12742E-001	3.57710E+000	9	...........
	33	0.453333	6.18680E-001	4.02030E-004	0.00000E+000	2.48728E-004	2.40040E-001	6.18896E-001	3.57710E+000	9	...........
	34	0.466667	6.24737E-001	4.00973E-004	0.00000E+000	2.50503E-004	2.40040E-001	6.24956E-001	3.57710E+000	9	...........
	35	0.48	6.30813E-001	4.02527E-004	0.00000E+000	2.53919E-004	2.40040E-001	6.31018E-001	3.57710E+000	9	...........
	36	0.493333	6.36902E-001	4.00842E-004	0.00000E+000	2.55297E-004	2.40040E-001	6.37128E-001	3.57710E+000	9	...........
	37	0.506667	6.43019E-001	4.00503E-004	0.00000E+000	2.57531E-004	2.40040E-001	6.43233E-001	3.57710E+000	9	...........
	38	0.52	6.49001E-001	4.01793E-004	0.00000E+000	2.60764E-004	2.40040E-001	6.49243E-001	3.57710E+000	9	...........
	39	0.533333	6.55005E-001	4.02713E-004	0.00000E+000	2.63779E-004	2.40040E-001	6.55237E-001	3.57710E+000	9	...........
	40	0.546667	6.60922E-001	4.02041E-004	0.00000E+000	2.65718E-004	2.40040E-001	6.61153E-001	3.57710E+000	9	...........
	41	0.56	6.66917E-001	4.00474E-004	0.00000E+000	2.67083E-004	2.40040E-001	6.67160E-001	3.57710E+000	9	...........
	42	0.573333	6.72860E-001	4.01175E-004	0.00000E+000	2.69935E-004	2.40040E-001	6.73085E-001	3.57710E+000	9	...........
	43	0.586667	6.78755E-001	4.01360E-004	0.00000E+000	2.72425E-004	2.40040E-001	6.79008E-001	3.57710E+000	9	...........
	44	0.6	6.84669E-001	4.01737E-004	0.00000E+000	2.75057E-004	2.40040E-001	6.84920E-001	3.57710E+000	9	...........
	45	0.613333	6.90477E-001	4.01548E-004	0.00000E+000	2.77260E-004	2.40040E-001	6.90714E-001	3.57710E+000	9	...........
	46	0.626667	6.96340E-001	4.00403E-004	0.00000E+000	2.78817E-004	2.40040E-001	6.96579E-001	3.57710E+000	9	...........
	47	0.64	7.02112E-001	4.00613E-004	0.00000E+000	2.81275E-004	2.40040E-001	7.02339E-001	3.57710E+000	9	...........
	48	0.653333	7.07828E-001	4.01245E-004	0.00000E+000	2.84013E-004	2.40040E-001	7.08078E-001	3.57710E+000	9	...........
	49	0.666667	7.13559E-001	4.00668E-004	0.00000E+000	2.85900E-004	2.40040E-001	7.13819E-001	3.57710E+000	9	...........
	50	0.68	7.19390E-001	4.00769E-004	0.00000E+000	2.88309E-004	2.40040E-001	7.19645E-001	3.57710E+000	9	...........
	51	0.693333	7.25167E-001	4.01896E-004	0.00000E+000	2.91442E-004	2.40040E-001	7.25401E-001	3.57710E+000	9	...........
	52	0.706667	7.30837E-001	4.00303E-004	0.00000E+000	2.92556E-004	2.40040E-001	7.31094E-001	3.57710E+000	9	...........
	53	0.72	7.36455E-001	4.01154E-004	0.00000E+000	2.95432E-004	2.40040E-001	7.36700E-001	3.57710E+000	9	...........
	54	0.733333	7.42028E-001	4.00700E-004	0.00000E+000	2.97331E-004	2.40040E-001	7.42291E-001	3.57710E+000	9	...........
	55	0.746667	7.47653E-001	4.00862E-004	0.00000E+000	2.99705E-004	2.40040E-001	7.47900E-001	3.57710E+000	9	...........
	56	0.76	7.53232E-001	4.01266E-004	0.00000E+000	3.02246E-004	2.40040E-001	7.53469E-001	3.57710E+000	9	...........
	57	0.773333	7.58791E-001	4.00872E-004	0.00000E+000	3.04178E-004	2.40040E-001	7.59044E-001	3.57710E+000	9	...........
	58	0.786667	7.64264E-001	4.02239E-004	0.00000E+000	3.07417E-004	2.40040E-001	7.64532E-001	3.57710E+000	9	...........
	59	0.8	7.69783E-001	4.01381E-004	0.00000E+000	3.08976E-004	2.40040E-001	7.70040E-001	3.57710E+000	9	...........
	60	0.813333	7.75265E-001	4.00167E-004	0.00000E+000	3.10235E-004	2.40040E-001	7.75507E-001	3.57710E+000	9	...........
	61	0.826667	7.80694E-001	4.01511E-004	0.00000E+000	3.13457E-004	2.40040E-001	7.80925E-001	3.57710E+000	9	...........
	62	0.84	7.86067E-001	3.99660E-004	0.00000E+000	3.14160E-004	2.40040E-001	7.86309E-001	3.57710E+000	9	...........
	63	0.853333	7.91451E-001	4.01656E-004	0.00000E+000	3.17891E-004	2.40040E-001	7.91677E-001	3.57710E+000	9	...........
	64	0.866667	7.96758E-001	4.01031E-004	0.00000E+000	3.19525E-004	2.40040E-001	7.96966E-001	3.57710E+000	9	...........
	65	0.88	8.02025E-001	4.02980E-004	0.00000E+000	3.23200E-004	2.40040E-001	8.02243E-001	3.57710E+000	9	...........
	66	0.893333	8.07239E-001	4.00488E-004	0.00000E+000	3.23289E-004	2.40040E-001	8.07473E-001	3.57710E+000	9	...........
	67	0.906667	8.12484E-001	4.00278E-004	0.00000E+000	3.25220E-004	2.40040E-001	8.12695E-001	3.57710E+000	9	...........
	68	0.92	8.17661E-001	4.01944E-004	0.00000E+000	3.28654E-004	2.40040E-001	8.17898E-001	3.57710E+000	9	...........
	69	0.933333	8.22844E-001	4.00170E-004	0.00000E+000	3.29277E-004	2.40040E-001	8.23061E-001	3.57710E+000	9	...........
	70	0.946667	8.27976E-001	4.01651E-004	0.00000E+000	3.32558E-004	2.40040E-001	8.28211E-001	3.57710E+000	9	...........
	71	0.96	8.33056E-001	4.01072E-004	0.00000E+000	3.34115E-004	2.40040E-001	8.33296E-001	3.57710E+000	9	...........
	72	0.97333	8.38125E-001	4.01597E-004	0.00000E+000	3.36589E-004	2.40040E-001	8.38396E-001	3.57710E+000	9	...........
	73	0.98667	8.43161E-001	4.01104E-004	0.00000E+000	3.38195E-004	2.40040E-001	8.43443E-001	3.57710E+000	9	...........
	74	1	8.48150E-001	4.01092E-004	0.00000E+000	3.40186E-004	2.40040E-001	8.48408E-001	3.57710E+000	9	...........
	75	1.01333	8.53130E-001	4.00350E-004	0.00000E+000	3.41551E-004	2.40040E-001	8.53403E-001	3.57710E+000	9	...........
	76	1.02667	8.58036E-001	3.99860E-004	0.00000E+000	3.43095E-004	2.40040E-001	8.58333E-001	3.57710E+000	9	...........
	77	1.04	8.62912E-001	4.01446E-004	0.00000E+000	3.46413E-004	2.40040E-001	8.63218E-001	3.57710E+000	9	...........
	78	1.05333	8.67763E-001	4.00119E-004	0.00000E+000	3.47208E-004	2.40040E-001	8.68031E-001	3.57710E+000	9	...........
	79	1.06667	8.72560E-001	4.02058E-004	0.00000E+000	3.50820E-004	2.40040E-001	8.72843E-001	3.57710E+000	9	...........
	80	1.08	8.77319E-001	4.00485E-004	0.00000E+000	3.51353E-004	2.40040E-001	8.77612E-001	3.57710E+000	9	...........
	81	1.09333	8.82057E-001	4.00832E-004	0.00000E+000	3.53557E-004	2.40040E-001	8.82363E-001	3.57710E+000	9	...........
	82	1.10667	8.86764E-001	4.00958E-004	0.00000E+000	3.55555E-004	2.40040E-001	8.87059E-001	3.57710E+000	9	...........
	83	1.12	8.91406E-001	4.00049E-004	0.00000E+000	3.56606E-004	2.40040E-001	8.91682E-001	3.57710E+000	9	...........
	84	1.13333	8.95959E-001	4.01618E-004	0.00000E+000	3.59833E-004	2.40040E-001	8.96280E-001	3.57710E+000	9	...........
	85	1.14667	9.00511E-001	4.02185E-004	0.00000E+000	3.62172E-004	2.40040E-001	9.00814E-001	3.57710E+000	9	...........
	86	1.16	9.05011E-001	4.00473E-004	0.00000E+000	3.62432E-004	2.40040E-001	9.05323E-001	3.57710E+000	9	...........
	87	1.17333	9.09511E-001	4.00624E-004	0.00000E+000	3.64372E-004	2.40040E-001	9.09835E-001	3.57710E+000	9	...........
	88	1.18667	9.13992E-001	4.01588E-004	0.00000E+000	3.67048E-004	2.40040E-001	9.14315E-001	3.57710E+000	9	...........
	89	1.2	9.18426E-001	4.00566E-004	0.00000E+000	3.67890E-004	2.40040E-001	9.18737E-001	3.57710E+000	9	...........
	90	1.21333	9.22885E-001	4.00271E-004	0.00000E+000	3.69404E-004	2.40040E-001	9.23149E-001	3.57710E+000	9	...........
	91	1.22667	9.27237E-001	4.00444E-004	0.00000E+000	3.71306E-004	2.40040E-001	9.27520E-001	3.57710E+000	9	...........
	92	1.24	9.31496E-001	4.00331E-004	0.00000E+000	3.72907E-004	2.40040E-001	9.31780E-001	3.57710E+000	9	...........
	93	1.25333	9.35761E-001	4.00752E-004	0.00000E+000	3.75008E-004	2.40040E-001	9.36051E-001	3.57710E+000	9	...........
	94	1.26667	9.39999E-001	4.02023E-004	0.00000E+000	3.77902E-004	2.40040E-001	9.40314E-001	3.57710E+000	9	...........
	95	1.28	9.44209E-001	4.00754E-004	0.00000E+000	3.78396E-004	2.40040E-001	9.44533E-001	3.57710E+000	9	...........
	96	1.29333	9.48389E-001	4.01325E-004	0.00000E+000	3.80613E-004	2.40040E-001	9.48681E-001	3.57710E+000	9	...........
	97	1.30667	9.52492E-001	4.00251E-004	0.00000E+000	3.81236E-004	2.40040E-001	9.52806E-001	3.57710E+000	9	...........
	98	1.32	9.56579E-001	4.02108E-004	0.00000E+000	3.84648E-004	2.40040E-001	9.56871E-001	3.57710E+000	9	...........
	99	1.33333	9.60588E-001	4.00022E-004	0.00000E+000	3.84256E-004	2.40040E-001	9.60911E-001	3.57710E+000	9	...........
	100	1.34667	9.64590E-001	4.01424E-004	0.00000E+000	3.87210E-004	2.40040E-001	9.64936E-001	3.57710E+000	9	...........
	101	1.36	9.68543E-001	4.01593E-004	0.00000E+000	3.88960E-004	2.40040E-001	9.68879E-001	3.57710E+000	9	...........
	102	1.37333	9.72498E-001	3.99941E-004	0.00000E+000	3.88942E-004	2.40040E-001	9.72828E-001	3.57706E+000	9	...........
	103	1.38667	9.76376E-001	4.01699E-004	0.00000E+000	3.92210E-004	2.40040E-001	9.76690E-001	3.57700E+000	9	...........
	104	1.4	9.80224E-001	4.01009E-004	0.00000E+000	3.93078E-004	2.40040E-001	9.80530E-001	3.57700E+000	9	...........
	105	1.41333	9.83989E-001	4.01400E-004	0.00000E+000	3.94973E-004	2.40040E-001	9.84289E-001	3.57700E+000	9	...........
	106	1.42667	9.87737E-001	3.99801E-004	0.00000E+000	3.94898E-004	2.40040E-001	9.88063E-001	3.57700E+000	9	...........
	107	1.44	9.91413E-001	4.00615E-004	0.00000E+000	3.97175E-004	2.40040E-001	9.91710E-001	3.57700E+000	9	...........
	108	1.45333	9.95069E-001	4.01306E-004	0.00000E+000	3.99327E-004	2.40040E-001	9.95395E-001	3.57700E+000	9	...........
	109	1.46667	9.98718E-001	4.01096E-004	0.00000E+000	4.00582E-004	2.40040E-001	9.99052E-001	3.57700E+000	9	...........
STARTTIMEOFFSET	QUANT	2342.998	Start Time Offset (s)
