EXPLAIN
TAG	PWR800_CHARGE
TITLE	LABEL	PWR Cyclic Charge Discharge (Cell) - Charge Step	Test &Identifier
DATE	LABEL	12-7-2017	Date
TIME	LABEL	15:14:31	Time
NOTES	NOTES	3	&Notes...
	supercap test cell
	0.4mg
	6M KOH
PSTAT	PSTAT	IFC5000-01520	Potentiostat
CAPACITY	QUANT	1.00000E-003	Capacity (A-hr)
CELLTYPE	SELECTOR	1	&Cell Type
WORKINGCONNECTION	SELECTOR	0	&Working Lead
MAXCHARGETIME	VARIABLEANDUNITS	1.00000E+002	s	1.00000E+002	second(s)	Max &Charge Time
CHARGECURRENT	QUANT	4.00000E-004	&Charge Current (A) 
VOLTAGEFINISH	TWOPARAM	F	1.00000E-003	3.60000E+003	&Voltage Finish	 I (A) < 	Max Time(s)
SAMPLETIME	QUANT	1.00000E-002	Sa&mple Period (s)
CHARGESTOPAT1	MULTIPARAM	4	1.00000E+000	Charge Stop At &1	Voltage > Limit	V
CHARGESTOPAT2	MULTIPARAM	0	0.00000E+000	Charge Stop At &2	None	N/A
AESBHCSELECTOR	TOGGLE	F	Save Both Half Cells
IRCOMP	TOGGLE	F	IR &Measure
EOC	QUANT	0	Open Circuit (V)
SEQUENCER	TOGGLE	TRUE	Run as Sequence
PSTATMODEL	IQUANT	53	Pstat Model
PSTATSECTION	LABEL	IFC5000-01520	Pstat Section
PSTATSERIALNO	LABEL	01520	Pstat Serial Number
CTRLMODE	IQUANT	0	Control Mode
ELECTROMETER	IQUANT	1	RE=0 or CS=1
IESTAB	IQUANT	0	I/E Stability
CASPEED	IQUANT	4	Control Amp Speed
CONVENTION	IQUANT	1	Current Convention
ICHRANGE	IQUANT	2	Ich Range
ICHRANGEMODE	TOGGLE	T	Ich Auto Range
ICHOFFSETENABLE	TOGGLE	F	Ich Offset Enable
ICHOFFSET	QUANT	0	Ich Offset (V)
ICHFILTER	IQUANT	1	Ich Filter
VCHRANGE	IQUANT	2	Vch Range
VCHRANGEMODE	TOGGLE	T	Vch Auto Range
VCHOFFSETENABLE	TOGGLE	F	Vch Offset Enable
VCHOFFSET	QUANT	0	Vch Offset (V)
VCHFILTER	IQUANT	1	Vch Filter
IERANGELOWERLIMIT	IQUANT	9	I/E Range Lower Limit
IERANGEMODE	TOGGLE	F	I/E AutoRange
IERANGE	IQUANT	9	I/E Range
ACHSELECT	IQUANT	1	Ach Select
ACHRANGE	IQUANT	2	Ach Range
ACHOFFSETENABLE	TOGGLE	F	Ach Offset Enable
ACHOFFSET	QUANT	0	Ach Offset (V)
ACHFILTER	IQUANT	1	Ach Filter
CABLEID	IQUANT	14	Cable ID
DCCALDATE	LABEL	5-7-2017	DC Calibration Date
ACCALDATE	LABEL	12/3/2015	AC Calibration Date
FRAMEWORKVERSION	QUANT	7.01	Framework Version
INSTRUMENTVERSION	LABEL	4.00	Instrument Version
CURVE	TABLE	108
	Pt	T	Vf	Im	Vu	Pwr	Sig	Ach	Temp	IERange	Over
	#	s	V	A	V	W	V	V	deg C	#	bits
	0	0.013333	3.86234E-001	4.00759E-004	0.00000E+000	1.54787E-004	2.40040E-001	3.86339E-001	3.57710E+000	9	...........
	1	0.026667	3.98885E-001	4.00802E-004	0.00000E+000	1.59874E-004	2.40040E-001	3.98961E-001	3.57710E+000	9	...........
	2	0.04	4.09691E-001	4.01494E-004	0.00000E+000	1.64489E-004	2.40040E-001	4.09775E-001	3.57710E+000	9	...........
	3	0.053333	4.19428E-001	4.01601E-004	0.00000E+000	1.68443E-004	2.40040E-001	4.19516E-001	3.57710E+000	9	...........
	4	0.066667	4.28522E-001	3.99502E-004	0.00000E+000	1.71195E-004	2.40040E-001	4.28610E-001	3.57710E+000	9	...........
	5	0.08	4.37191E-001	4.01372E-004	0.00000E+000	1.75476E-004	2.40040E-001	4.37282E-001	3.57710E+000	9	...........
	6	0.093333	4.45457E-001	4.00770E-004	0.00000E+000	1.78526E-004	2.40040E-001	4.45553E-001	3.57710E+000	9	...........
	7	0.106667	4.53456E-001	4.00611E-004	0.00000E+000	1.81659E-004	2.40040E-001	4.53547E-001	3.57710E+000	9	...........
	8	0.12	4.61272E-001	4.01717E-004	0.00000E+000	1.85301E-004	2.40040E-001	4.61362E-001	3.57710E+000	9	...........
	9	0.133333	4.68931E-001	4.01835E-004	0.00000E+000	1.88433E-004	2.40040E-001	4.69022E-001	3.57710E+000	9	...........
	10	0.146667	4.76484E-001	4.01269E-004	0.00000E+000	1.91198E-004	2.40040E-001	4.76581E-001	3.57710E+000	9	...........
	11	0.16	4.83827E-001	4.00382E-004	0.00000E+000	1.93716E-004	2.40040E-001	4.83927E-001	3.57710E+000	9	...........
	12	0.173333	4.91043E-001	4.00760E-004	0.00000E+000	1.96790E-004	2.40040E-001	4.91142E-001	3.57710E+000	9	...........
	13	0.186667	4.98150E-001	4.00520E-004	0.00000E+000	1.99519E-004	2.40040E-001	4.98253E-001	3.57710E+000	9	...........
	14	0.2	5.05224E-001	4.01420E-004	0.00000E+000	2.02807E-004	2.40040E-001	5.05330E-001	3.57710E+000	9	...........
	15	0.213333	5.12203E-001	3.99826E-004	0.00000E+000	2.04792E-004	2.40040E-001	5.12312E-001	3.57710E+000	9	...........
	16	0.226667	5.19132E-001	4.02451E-004	0.00000E+000	2.08925E-004	2.40040E-001	5.19240E-001	3.57710E+000	9	...........
	17	0.24	5.25867E-001	4.01207E-004	0.00000E+000	2.10981E-004	2.40040E-001	5.25976E-001	3.57710E+000	9	...........
	18	0.253333	5.32514E-001	4.01824E-004	0.00000E+000	2.13977E-004	2.40040E-001	5.32619E-001	3.57710E+000	9	...........
	19	0.266667	5.38977E-001	4.01854E-004	0.00000E+000	2.16590E-004	2.40040E-001	5.39201E-001	3.57710E+000	9	...........
	20	0.28	5.45612E-001	4.00613E-004	0.00000E+000	2.18579E-004	2.40040E-001	5.45824E-001	3.57710E+000	9	...........
	21	0.293333	5.52240E-001	4.00828E-004	0.00000E+000	2.21354E-004	2.40040E-001	5.52461E-001	3.57710E+000	9	...........
	22	0.306667	5.58855E-001	4.01802E-004	0.00000E+000	2.24550E-004	2.40040E-001	5.59071E-001	3.57710E+000	9	...........
	23	0.32	5.65460E-001	4.01234E-004	0.00000E+000	2.26882E-004	2.40040E-001	5.65661E-001	3.57710E+000	9	...........
	24	0.333333	5.71953E-001	4.00227E-004	0.00000E+000	2.28911E-004	2.40040E-001	5.72155E-001	3.57710E+000	9	...........
	25	0.346667	5.78368E-001	4.02066E-004	0.00000E+000	2.32542E-004	2.40040E-001	5.78636E-001	3.57710E+000	9	...........
	26	0.36	5.84764E-001	4.00687E-004	0.00000E+000	2.34307E-004	2.40040E-001	5.85011E-001	3.57710E+000	9	...........
	27	0.373333	5.91162E-001	4.00626E-004	0.00000E+000	2.36835E-004	2.40040E-001	5.91392E-001	3.57710E+000	9	...........
	28	0.386667	5.97432E-001	4.00931E-004	0.00000E+000	2.39529E-004	2.40040E-001	5.97667E-001	3.57710E+000	9	...........
	29	0.4	6.03741E-001	4.00582E-004	0.00000E+000	2.41848E-004	2.40040E-001	6.03993E-001	3.57710E+000	9	...........
	30	0.413333	6.10033E-001	4.02231E-004	0.00000E+000	2.45374E-004	2.40040E-001	6.10290E-001	3.57710E+000	9	...........
	31	0.426667	6.16399E-001	4.01459E-004	0.00000E+000	2.47459E-004	2.40040E-001	6.16611E-001	3.57710E+000	9	...........
	32	0.44	6.22600E-001	4.00479E-004	0.00000E+000	2.49339E-004	2.40040E-001	6.22824E-001	3.57710E+000	9	...........
	33	0.453333	6.28861E-001	4.01407E-004	0.00000E+000	2.52429E-004	2.40040E-001	6.29102E-001	3.57710E+000	9	...........
	34	0.466667	6.35074E-001	4.00184E-004	0.00000E+000	2.54147E-004	2.40040E-001	6.35303E-001	3.57710E+000	9	...........
	35	0.48	6.41266E-001	4.01068E-004	0.00000E+000	2.57191E-004	2.40040E-001	6.41471E-001	3.57710E+000	9	...........
	36	0.493333	6.47323E-001	4.00071E-004	0.00000E+000	2.58975E-004	2.40040E-001	6.47559E-001	3.57710E+000	9	...........
	37	0.506667	6.53454E-001	4.02542E-004	0.00000E+000	2.63043E-004	2.40040E-001	6.53693E-001	3.57710E+000	9	...........
	38	0.52	6.59544E-001	3.99765E-004	0.00000E+000	2.63662E-004	2.40040E-001	6.59777E-001	3.57710E+000	9	...........
	39	0.533333	6.65647E-001	4.01686E-004	0.00000E+000	2.67381E-004	2.40040E-001	6.65873E-001	3.57710E+000	9	...........
	40	0.546667	6.71673E-001	3.99606E-004	0.00000E+000	2.68405E-004	2.40040E-001	6.71899E-001	3.57739E+000	9	...........
	41	0.56	6.77638E-001	4.00645E-004	0.00000E+000	2.71492E-004	2.40040E-001	6.77895E-001	3.57800E+000	9	...........
	42	0.573333	6.83640E-001	4.00175E-004	0.00000E+000	2.73576E-004	2.40040E-001	6.83869E-001	3.57800E+000	9	...........
	43	0.586667	6.89586E-001	4.00669E-004	0.00000E+000	2.76296E-004	2.40040E-001	6.89845E-001	3.57800E+000	9	...........
	44	0.6	6.95515E-001	4.01200E-004	0.00000E+000	2.79041E-004	2.40040E-001	6.95752E-001	3.57800E+000	9	...........
	45	0.613333	7.01392E-001	4.01373E-004	0.00000E+000	2.81520E-004	2.40040E-001	7.01664E-001	3.57800E+000	9	...........
	46	0.626667	7.07308E-001	4.00694E-004	0.00000E+000	2.83414E-004	2.40040E-001	7.07568E-001	3.57800E+000	9	...........
	47	0.64	7.13157E-001	4.02384E-004	0.00000E+000	2.86963E-004	2.40040E-001	7.13414E-001	3.57800E+000	9	...........
	48	0.653333	7.19006E-001	4.02591E-004	0.00000E+000	2.89465E-004	2.40040E-001	7.19259E-001	3.57800E+000	9	...........
	49	0.666667	7.24774E-001	4.01820E-004	0.00000E+000	2.91229E-004	2.40040E-001	7.25000E-001	3.57800E+000	9	...........
	50	0.68	7.30480E-001	3.99427E-004	0.00000E+000	2.91773E-004	2.40040E-001	7.30759E-001	3.57800E+000	9	...........
	51	0.693333	7.36276E-001	4.01342E-004	0.00000E+000	2.95498E-004	2.40040E-001	7.36500E-001	3.57800E+000	9	...........
	52	0.706667	7.42003E-001	4.01221E-004	0.00000E+000	2.97707E-004	2.40040E-001	7.42261E-001	3.57800E+000	9	...........
	53	0.72	7.47666E-001	4.00331E-004	0.00000E+000	2.99314E-004	2.40040E-001	7.47914E-001	3.57800E+000	9	...........
	54	0.733333	7.53335E-001	4.00619E-004	0.00000E+000	3.01800E-004	2.40040E-001	7.53570E-001	3.57800E+000	9	...........
	55	0.746667	7.59018E-001	4.00753E-004	0.00000E+000	3.04179E-004	2.40040E-001	7.59249E-001	3.57800E+000	9	...........
	56	0.76	7.64639E-001	4.00556E-004	0.00000E+000	3.06281E-004	2.40040E-001	7.64887E-001	3.57800E+000	9	...........
	57	0.773333	7.70286E-001	4.00949E-004	0.00000E+000	3.08846E-004	2.40040E-001	7.70510E-001	3.57800E+000	9	...........
	58	0.786667	7.75803E-001	4.00275E-004	0.00000E+000	3.10535E-004	2.40040E-001	7.76046E-001	3.57800E+000	9	...........
	59	0.8	7.81301E-001	4.01244E-004	0.00000E+000	3.13493E-004	2.40040E-001	7.81536E-001	3.57800E+000	9	...........
	60	0.813333	7.86768E-001	3.99988E-004	0.00000E+000	3.14698E-004	2.40040E-001	7.86986E-001	3.57800E+000	9	...........
	61	0.826667	7.92248E-001	4.00218E-004	0.00000E+000	3.17072E-004	2.40040E-001	7.92449E-001	3.57800E+000	9	...........
	62	0.84	7.97702E-001	4.02324E-004	0.00000E+000	3.20935E-004	2.40040E-001	7.97880E-001	3.57800E+000	9	...........
	63	0.853333	8.03044E-001	4.00966E-004	0.00000E+000	3.21993E-004	2.40040E-001	8.03252E-001	3.57800E+000	9	...........
	64	0.866667	8.08389E-001	4.03278E-004	0.00000E+000	3.26005E-004	2.40040E-001	8.08628E-001	3.57800E+000	9	...........
	65	0.88	8.13752E-001	4.01926E-004	0.00000E+000	3.27069E-004	2.40040E-001	8.14001E-001	3.57800E+000	9	...........
	66	0.893333	8.19035E-001	4.01258E-004	0.00000E+000	3.28644E-004	2.40040E-001	8.19296E-001	3.57800E+000	9	...........
	67	0.906667	8.24169E-001	4.00794E-004	0.00000E+000	3.30322E-004	2.40040E-001	8.24463E-001	3.57800E+000	9	...........
	68	0.92	8.29369E-001	4.01896E-004	0.00000E+000	3.33320E-004	2.40040E-001	8.29613E-001	3.57800E+000	9	...........
	69	0.933333	8.34526E-001	4.00393E-004	0.00000E+000	3.34138E-004	2.40040E-001	8.34830E-001	3.57800E+000	9	...........
	70	0.946667	8.39601E-001	4.01313E-004	0.00000E+000	3.36942E-004	2.40040E-001	8.39898E-001	3.57800E+000	9	...........
	71	0.96	8.44727E-001	4.01170E-004	0.00000E+000	3.38879E-004	2.40040E-001	8.45003E-001	3.57800E+000	9	...........
	72	0.97333	8.49806E-001	4.00722E-004	0.00000E+000	3.40536E-004	2.40040E-001	8.50099E-001	3.57800E+000	9	...........
	73	0.98667	8.54790E-001	4.00989E-004	0.00000E+000	3.42761E-004	2.40040E-001	8.55058E-001	3.57800E+000	9	...........
	74	1	8.59730E-001	3.99616E-004	0.00000E+000	3.43562E-004	2.40040E-001	8.59991E-001	3.57800E+000	9	...........
	75	1.01333	8.64605E-001	4.01553E-004	0.00000E+000	3.47185E-004	2.40040E-001	8.64891E-001	3.57800E+000	9	...........
	76	1.02667	8.69488E-001	4.00970E-004	0.00000E+000	3.48639E-004	2.40040E-001	8.69769E-001	3.57800E+000	9	...........
	77	1.04	8.74306E-001	4.01582E-004	0.00000E+000	3.51105E-004	2.40040E-001	8.74603E-001	3.57800E+000	9	...........
	78	1.05333	8.79108E-001	4.00051E-004	0.00000E+000	3.51688E-004	2.40040E-001	8.79386E-001	3.57800E+000	9	...........
	79	1.06667	8.83807E-001	3.99617E-004	0.00000E+000	3.53184E-004	2.40040E-001	8.84113E-001	3.57800E+000	9	...........
	80	1.08	8.88581E-001	4.00839E-004	0.00000E+000	3.56178E-004	2.40040E-001	8.88902E-001	3.57800E+000	9	...........
	81	1.09333	8.93300E-001	3.99957E-004	0.00000E+000	3.57282E-004	2.40040E-001	8.93607E-001	3.57800E+000	9	...........
	82	1.10667	8.97920E-001	4.00250E-004	0.00000E+000	3.59392E-004	2.40040E-001	8.98233E-001	3.57800E+000	9	...........
	83	1.12	9.02536E-001	4.02704E-004	0.00000E+000	3.63455E-004	2.40040E-001	9.02847E-001	3.57800E+000	9	...........
	84	1.13333	9.07050E-001	4.01473E-004	0.00000E+000	3.64156E-004	2.40040E-001	9.07394E-001	3.57800E+000	9	...........
	85	1.14667	9.11618E-001	4.01612E-004	0.00000E+000	3.66117E-004	2.40040E-001	9.11929E-001	3.57800E+000	9	...........
	86	1.16	9.16100E-001	4.00837E-004	0.00000E+000	3.67206E-004	2.40040E-001	9.16433E-001	3.57800E+000	9	...........
	87	1.17333	9.20613E-001	4.01984E-004	0.00000E+000	3.70071E-004	2.40040E-001	9.20919E-001	3.57800E+000	9	...........
	88	1.18667	9.25038E-001	4.00692E-004	0.00000E+000	3.70655E-004	2.40040E-001	9.25327E-001	3.57800E+000	9	...........
	89	1.2	9.29317E-001	4.01683E-004	0.00000E+000	3.73291E-004	2.40040E-001	9.29617E-001	3.57800E+000	9	...........
	90	1.21333	9.33661E-001	4.00546E-004	0.00000E+000	3.73974E-004	2.40040E-001	9.33962E-001	3.57800E+000	9	...........
	91	1.22667	9.37941E-001	4.00867E-004	0.00000E+000	3.75989E-004	2.40040E-001	9.38280E-001	3.57800E+000	9	...........
	92	1.24	9.42128E-001	3.99679E-004	0.00000E+000	3.76549E-004	2.40040E-001	9.42476E-001	3.57800E+000	9	...........
	93	1.25333	9.46430E-001	4.01109E-004	0.00000E+000	3.79621E-004	2.40040E-001	9.46760E-001	3.57800E+000	9	...........
	94	1.26667	9.50604E-001	4.00312E-004	0.00000E+000	3.80538E-004	2.40040E-001	9.50946E-001	3.57800E+000	9	...........
	95	1.28	9.54767E-001	4.00140E-004	0.00000E+000	3.82040E-004	2.40040E-001	9.55099E-001	3.57800E+000	9	...........
	96	1.29333	9.58880E-001	4.00718E-004	0.00000E+000	3.84240E-004	2.40040E-001	9.59201E-001	3.57800E+000	9	...........
	97	1.30667	9.62939E-001	3.99761E-004	0.00000E+000	3.84946E-004	2.40040E-001	9.63225E-001	3.57800E+000	9	...........
	98	1.32	9.66871E-001	4.00878E-004	0.00000E+000	3.87598E-004	2.40040E-001	9.67164E-001	3.57800E+000	9	...........
	99	1.33333	9.70796E-001	4.00787E-004	0.00000E+000	3.89082E-004	2.40040E-001	9.71106E-001	3.57800E+000	9	...........
	100	1.34667	9.74810E-001	4.00393E-004	0.00000E+000	3.90307E-004	2.40040E-001	9.75093E-001	3.57800E+000	9	...........
	101	1.36	9.78663E-001	4.00813E-004	0.00000E+000	3.92261E-004	2.40040E-001	9.78979E-001	3.57800E+000	9	...........
	102	1.37333	9.82491E-001	4.01185E-004	0.00000E+000	3.94160E-004	2.40040E-001	9.82773E-001	3.57800E+000	9	...........
	103	1.38667	9.86245E-001	3.99959E-004	0.00000E+000	3.94458E-004	2.40040E-001	9.86580E-001	3.57800E+000	9	...........
	104	1.4	9.90070E-001	4.01394E-004	0.00000E+000	3.97408E-004	2.40040E-001	9.90375E-001	3.57800E+000	9	...........
	105	1.41333	9.93785E-001	4.01919E-004	0.00000E+000	3.99421E-004	2.40040E-001	9.94094E-001	3.57800E+000	9	...........
	106	1.42667	9.97475E-001	3.99265E-004	0.00000E+000	3.98257E-004	2.40040E-001	9.97801E-001	3.57800E+000	9	...........
	107	1.43167	9.99946E-001	3.99605E-004	0.00000E+000	3.99583E-004	2.40040E-001	1.00026E+000	3.57800E+000	9	...........
STARTTIMEOFFSET	QUANT	2650.279	Start Time Offset (s)
