EXPLAIN
TAG	PWR800_CHARGE
TITLE	LABEL	PWR Cyclic Charge Discharge (Cell) - Charge Step	Test &Identifier
DATE	LABEL	12-7-2017	Date
TIME	LABEL	14:55:17	Time
NOTES	NOTES	3	&Notes...
	supercap test cell
	0.4mg
	6M KOH
PSTAT	PSTAT	IFC5000-01520	Potentiostat
CAPACITY	QUANT	1.00000E-003	Capacity (A-hr)
CELLTYPE	SELECTOR	1	&Cell Type
WORKINGCONNECTION	SELECTOR	0	&Working Lead
MAXCHARGETIME	VARIABLEANDUNITS	1.00000E+002	s	1.00000E+002	second(s)	Max &Charge Time
CHARGECURRENT	QUANT	4.00000E-004	&Charge Current (A) 
VOLTAGEFINISH	TWOPARAM	F	1.00000E-003	3.60000E+003	&Voltage Finish	 I (A) < 	Max Time(s)
SAMPLETIME	QUANT	1.00000E-002	Sa&mple Period (s)
CHARGESTOPAT1	MULTIPARAM	4	1.00000E+000	Charge Stop At &1	Voltage > Limit	V
CHARGESTOPAT2	MULTIPARAM	0	0.00000E+000	Charge Stop At &2	None	N/A
AESBHCSELECTOR	TOGGLE	F	Save Both Half Cells
IRCOMP	TOGGLE	F	IR &Measure
EOC	QUANT	0	Open Circuit (V)
SEQUENCER	TOGGLE	TRUE	Run as Sequence
PSTATMODEL	IQUANT	53	Pstat Model
PSTATSECTION	LABEL	IFC5000-01520	Pstat Section
PSTATSERIALNO	LABEL	01520	Pstat Serial Number
CTRLMODE	IQUANT	0	Control Mode
ELECTROMETER	IQUANT	1	RE=0 or CS=1
IESTAB	IQUANT	0	I/E Stability
CASPEED	IQUANT	4	Control Amp Speed
CONVENTION	IQUANT	1	Current Convention
ICHRANGE	IQUANT	2	Ich Range
ICHRANGEMODE	TOGGLE	T	Ich Auto Range
ICHOFFSETENABLE	TOGGLE	F	Ich Offset Enable
ICHOFFSET	QUANT	0	Ich Offset (V)
ICHFILTER	IQUANT	1	Ich Filter
VCHRANGE	IQUANT	2	Vch Range
VCHRANGEMODE	TOGGLE	T	Vch Auto Range
VCHOFFSETENABLE	TOGGLE	F	Vch Offset Enable
VCHOFFSET	QUANT	0	Vch Offset (V)
VCHFILTER	IQUANT	1	Vch Filter
IERANGELOWERLIMIT	IQUANT	9	I/E Range Lower Limit
IERANGEMODE	TOGGLE	F	I/E AutoRange
IERANGE	IQUANT	9	I/E Range
ACHSELECT	IQUANT	1	Ach Select
ACHRANGE	IQUANT	2	Ach Range
ACHOFFSETENABLE	TOGGLE	F	Ach Offset Enable
ACHOFFSET	QUANT	0	Ach Offset (V)
ACHFILTER	IQUANT	1	Ach Filter
CABLEID	IQUANT	14	Cable ID
DCCALDATE	LABEL	5-7-2017	DC Calibration Date
ACCALDATE	LABEL	12/3/2015	AC Calibration Date
FRAMEWORKVERSION	QUANT	7.01	Framework Version
INSTRUMENTVERSION	LABEL	4.00	Instrument Version
CURVE	TABLE	116
	Pt	T	Vf	Im	Vu	Pwr	Sig	Ach	Temp	IERange	Over
	#	s	V	A	V	W	V	V	deg C	#	bits
	0	0.013333	3.72167E-001	4.01136E-004	0.00000E+000	1.49290E-004	2.40040E-001	3.72266E-001	3.57650E+000	9	...........
	1	0.026667	3.83845E-001	4.00925E-004	0.00000E+000	1.53893E-004	2.40040E-001	3.83920E-001	3.57650E+000	9	...........
	2	0.04	3.93841E-001	4.01133E-004	0.00000E+000	1.57982E-004	2.40040E-001	3.93912E-001	3.57650E+000	9	...........
	3	0.053333	4.02884E-001	4.01132E-004	0.00000E+000	1.61609E-004	2.40040E-001	4.02960E-001	3.57650E+000	9	...........
	4	0.066667	4.11383E-001	3.99407E-004	0.00000E+000	1.64309E-004	2.40040E-001	4.11469E-001	3.57650E+000	9	...........
	5	0.08	4.19448E-001	4.00322E-004	0.00000E+000	1.67914E-004	2.40040E-001	4.19531E-001	3.57650E+000	9	...........
	6	0.093333	4.27289E-001	4.01595E-004	0.00000E+000	1.71597E-004	2.40040E-001	4.27377E-001	3.57673E+000	9	...........
	7	0.106667	4.34882E-001	4.01571E-004	0.00000E+000	1.74636E-004	2.40040E-001	4.34968E-001	3.57740E+000	9	...........
	8	0.12	4.42201E-001	4.00596E-004	0.00000E+000	1.77144E-004	2.40040E-001	4.42292E-001	3.57740E+000	9	...........
	9	0.133333	4.49309E-001	4.00893E-004	0.00000E+000	1.80125E-004	2.40040E-001	4.49391E-001	3.57740E+000	9	...........
	10	0.146667	4.56362E-001	4.00315E-004	0.00000E+000	1.82688E-004	2.40040E-001	4.56455E-001	3.57740E+000	9	...........
	11	0.16	4.63293E-001	4.02329E-004	0.00000E+000	1.86396E-004	2.40040E-001	4.63389E-001	3.57740E+000	9	...........
	12	0.173333	4.70148E-001	4.01840E-004	0.00000E+000	1.88924E-004	2.40040E-001	4.70239E-001	3.57740E+000	9	...........
	13	0.186667	4.76946E-001	4.00330E-004	0.00000E+000	1.90936E-004	2.40040E-001	4.77039E-001	3.57740E+000	9	...........
	14	0.2	4.83606E-001	4.00427E-004	0.00000E+000	1.93649E-004	2.40040E-001	4.83703E-001	3.57740E+000	9	...........
	15	0.213333	4.90195E-001	4.01271E-004	0.00000E+000	1.96701E-004	2.40040E-001	4.90292E-001	3.57740E+000	9	...........
	16	0.226667	4.96719E-001	4.01072E-004	0.00000E+000	1.99220E-004	2.40040E-001	4.96822E-001	3.57740E+000	9	...........
	17	0.24	5.03200E-001	4.00322E-004	0.00000E+000	2.01442E-004	2.40040E-001	5.03304E-001	3.57740E+000	9	...........
	18	0.253333	5.09556E-001	4.00490E-004	0.00000E+000	2.04072E-004	2.40040E-001	5.09663E-001	3.57740E+000	9	...........
	19	0.266667	5.15972E-001	4.02420E-004	0.00000E+000	2.07638E-004	2.40040E-001	5.16079E-001	3.57740E+000	9	...........
	20	0.28	5.22325E-001	4.00413E-004	0.00000E+000	2.09146E-004	2.40040E-001	5.22433E-001	3.57740E+000	9	...........
	21	0.293333	5.28596E-001	4.01668E-004	0.00000E+000	2.12320E-004	2.40040E-001	5.28709E-001	3.57740E+000	9	...........
	22	0.306667	5.34659E-001	4.00926E-004	0.00000E+000	2.14359E-004	2.40040E-001	5.34806E-001	3.57740E+000	9	...........
	23	0.32	5.40786E-001	4.01281E-004	0.00000E+000	2.17007E-004	2.40040E-001	5.41032E-001	3.57740E+000	9	...........
	24	0.333333	5.46917E-001	4.00762E-004	0.00000E+000	2.19183E-004	2.40040E-001	5.47130E-001	3.57740E+000	9	...........
	25	0.346667	5.53071E-001	4.01911E-004	0.00000E+000	2.22285E-004	2.40040E-001	5.53291E-001	3.57740E+000	9	...........
	26	0.36	5.59176E-001	4.01020E-004	0.00000E+000	2.24241E-004	2.40040E-001	5.59410E-001	3.57740E+000	9	...........
	27	0.373333	5.65303E-001	4.01352E-004	0.00000E+000	2.26886E-004	2.40040E-001	5.65493E-001	3.57740E+000	9	...........
	28	0.386667	5.71356E-001	4.00670E-004	0.00000E+000	2.28925E-004	2.40040E-001	5.71545E-001	3.57740E+000	9	...........
	29	0.4	5.77300E-001	4.00655E-004	0.00000E+000	2.31298E-004	2.40040E-001	5.77491E-001	3.57740E+000	9	...........
	30	0.413333	5.83214E-001	4.01236E-004	0.00000E+000	2.34006E-004	2.40040E-001	5.83413E-001	3.57740E+000	9	...........
	31	0.426667	5.89200E-001	4.00846E-004	0.00000E+000	2.36179E-004	2.40040E-001	5.89378E-001	3.57740E+000	9	...........
	32	0.44	5.95113E-001	3.99967E-004	0.00000E+000	2.38025E-004	2.40040E-001	5.95320E-001	3.57740E+000	9	...........
	33	0.453333	6.01075E-001	4.01233E-004	0.00000E+000	2.41171E-004	2.40040E-001	6.01323E-001	3.57740E+000	9	...........
	34	0.466667	6.06952E-001	4.01810E-004	0.00000E+000	2.43879E-004	2.40040E-001	6.07187E-001	3.57740E+000	9	...........
	35	0.48	6.12857E-001	4.00184E-004	0.00000E+000	2.45256E-004	2.40040E-001	6.13075E-001	3.57740E+000	9	...........
	36	0.493333	6.18781E-001	4.01001E-004	0.00000E+000	2.48132E-004	2.40040E-001	6.18964E-001	3.57740E+000	9	...........
	37	0.506667	6.24567E-001	4.01296E-004	0.00000E+000	2.50636E-004	2.40040E-001	6.24773E-001	3.57740E+000	9	...........
	38	0.52	6.30327E-001	4.01642E-004	0.00000E+000	2.53166E-004	2.40040E-001	6.30523E-001	3.57740E+000	9	...........
	39	0.533333	6.36125E-001	4.00123E-004	0.00000E+000	2.54528E-004	2.40040E-001	6.36336E-001	3.57740E+000	9	...........
	40	0.546667	6.42024E-001	4.00608E-004	0.00000E+000	2.57200E-004	2.40040E-001	6.42209E-001	3.57740E+000	9	...........
	41	0.56	6.47787E-001	4.01155E-004	0.00000E+000	2.59863E-004	2.40040E-001	6.47991E-001	3.57740E+000	9	...........
	42	0.573333	6.53545E-001	4.00582E-004	0.00000E+000	2.61799E-004	2.40040E-001	6.53773E-001	3.57740E+000	9	...........
	43	0.586667	6.59366E-001	4.00843E-004	0.00000E+000	2.64302E-004	2.40040E-001	6.59575E-001	3.57740E+000	9	...........
	44	0.6	6.65026E-001	4.01722E-004	0.00000E+000	2.67156E-004	2.40040E-001	6.65263E-001	3.57740E+000	9	...........
	45	0.613333	6.70729E-001	4.03035E-004	0.00000E+000	2.70327E-004	2.40040E-001	6.70933E-001	3.57740E+000	9	...........
	46	0.626667	6.76460E-001	4.01165E-004	0.00000E+000	2.71372E-004	2.40040E-001	6.76668E-001	3.57740E+000	9	...........
	47	0.64	6.82070E-001	4.01416E-004	0.00000E+000	2.73794E-004	2.40040E-001	6.82303E-001	3.57740E+000	9	...........
	48	0.653333	6.87623E-001	4.01209E-004	0.00000E+000	2.75880E-004	2.40040E-001	6.87864E-001	3.57740E+000	9	...........
	49	0.666667	6.93295E-001	4.00591E-004	0.00000E+000	2.77728E-004	2.40040E-001	6.93518E-001	3.57740E+000	9	...........
	50	0.68	6.98952E-001	4.02429E-004	0.00000E+000	2.81278E-004	2.40040E-001	6.99181E-001	3.57740E+000	9	...........
	51	0.693333	7.04536E-001	4.01164E-004	0.00000E+000	2.82634E-004	2.40040E-001	7.04749E-001	3.57740E+000	9	...........
	52	0.706667	7.10019E-001	4.00257E-004	0.00000E+000	2.84190E-004	2.40040E-001	7.10215E-001	3.57740E+000	9	...........
	53	0.72	7.15516E-001	3.99809E-004	0.00000E+000	2.86070E-004	2.40040E-001	7.15744E-001	3.57740E+000	9	...........
	54	0.733333	7.21080E-001	4.01507E-004	0.00000E+000	2.89519E-004	2.40040E-001	7.21256E-001	3.57740E+000	9	...........
	55	0.746667	7.26540E-001	4.01127E-004	0.00000E+000	2.91435E-004	2.40040E-001	7.26746E-001	3.57740E+000	9	...........
	56	0.76	7.31914E-001	4.00616E-004	0.00000E+000	2.93216E-004	2.40040E-001	7.32136E-001	3.57740E+000	9	...........
	57	0.773333	7.37348E-001	3.99948E-004	0.00000E+000	2.94901E-004	2.40040E-001	7.37571E-001	3.57740E+000	9	...........
	58	0.786667	7.42807E-001	4.00532E-004	0.00000E+000	2.97518E-004	2.40040E-001	7.43062E-001	3.57740E+000	9	...........
	59	0.8	7.48173E-001	4.00547E-004	0.00000E+000	2.99678E-004	2.40040E-001	7.48415E-001	3.57740E+000	9	...........
	60	0.813333	7.53549E-001	4.01067E-004	0.00000E+000	3.02223E-004	2.40040E-001	7.53804E-001	3.57740E+000	9	...........
	61	0.826667	7.58884E-001	4.01116E-004	0.00000E+000	3.04401E-004	2.40040E-001	7.59101E-001	3.57740E+000	9	...........
	62	0.84	7.64166E-001	4.01540E-004	0.00000E+000	3.06843E-004	2.40040E-001	7.64396E-001	3.57740E+000	9	...........
	63	0.853333	7.69485E-001	4.01575E-004	0.00000E+000	3.09006E-004	2.40040E-001	7.69712E-001	3.57740E+000	9	...........
	64	0.866667	7.74773E-001	4.01652E-004	0.00000E+000	3.11189E-004	2.40040E-001	7.74992E-001	3.57740E+000	9	...........
	65	0.88	7.80032E-001	4.00176E-004	0.00000E+000	3.12150E-004	2.40040E-001	7.80232E-001	3.57740E+000	9	...........
	66	0.893333	7.85260E-001	4.01487E-004	0.00000E+000	3.15272E-004	2.40040E-001	7.85467E-001	3.57740E+000	9	...........
	67	0.906667	7.90506E-001	4.01398E-004	0.00000E+000	3.17308E-004	2.40040E-001	7.90724E-001	3.57740E+000	9	...........
	68	0.92	7.95688E-001	4.01696E-004	0.00000E+000	3.19625E-004	2.40040E-001	7.95902E-001	3.57740E+000	9	...........
	69	0.933333	8.00840E-001	4.00642E-004	0.00000E+000	3.20850E-004	2.40040E-001	8.01032E-001	3.57740E+000	9	...........
	70	0.946667	8.05878E-001	4.01008E-004	0.00000E+000	3.23163E-004	2.40040E-001	8.06145E-001	3.57740E+000	9	...........
	71	0.96	8.10940E-001	4.00635E-004	0.00000E+000	3.24891E-004	2.40040E-001	8.11198E-001	3.57740E+000	9	...........
	72	0.97333	8.16016E-001	4.01509E-004	0.00000E+000	3.27637E-004	2.40040E-001	8.16308E-001	3.57740E+000	9	...........
	73	0.98667	8.21011E-001	4.00331E-004	0.00000E+000	3.28676E-004	2.40040E-001	8.21296E-001	3.57740E+000	9	...........
	74	1	8.25978E-001	4.02018E-004	0.00000E+000	3.32058E-004	2.40040E-001	8.26256E-001	3.57740E+000	9	...........
	75	1.01333	8.30942E-001	4.01331E-004	0.00000E+000	3.33482E-004	2.40040E-001	8.31245E-001	3.57740E+000	9	...........
	76	1.02667	8.35853E-001	4.00553E-004	0.00000E+000	3.34804E-004	2.40040E-001	8.36162E-001	3.57740E+000	9	...........
	77	1.04	8.40763E-001	4.02529E-004	0.00000E+000	3.38431E-004	2.40040E-001	8.41046E-001	3.57740E+000	9	...........
	78	1.05333	8.45664E-001	4.00045E-004	0.00000E+000	3.38303E-004	2.40040E-001	8.45928E-001	3.57740E+000	9	...........
	79	1.06667	8.50424E-001	4.01232E-004	0.00000E+000	3.41217E-004	2.40040E-001	8.50712E-001	3.57740E+000	9	...........
	80	1.08	8.55220E-001	4.00872E-004	0.00000E+000	3.42834E-004	2.40040E-001	8.55513E-001	3.57740E+000	9	...........
	81	1.09333	8.60029E-001	4.01557E-004	0.00000E+000	3.45350E-004	2.40040E-001	8.60327E-001	3.57735E+000	9	...........
	82	1.10667	8.64787E-001	3.99965E-004	0.00000E+000	3.45884E-004	2.40040E-001	8.65089E-001	3.57720E+000	9	...........
	83	1.12	8.69458E-001	4.02085E-004	0.00000E+000	3.49596E-004	2.40040E-001	8.69763E-001	3.57720E+000	9	...........
	84	1.13333	8.74110E-001	4.00444E-004	0.00000E+000	3.50032E-004	2.40040E-001	8.74413E-001	3.57720E+000	9	...........
	85	1.14667	8.78657E-001	4.00084E-004	0.00000E+000	3.51537E-004	2.40040E-001	8.78966E-001	3.57720E+000	9	...........
	86	1.16	8.83270E-001	4.02462E-004	0.00000E+000	3.55483E-004	2.40040E-001	8.83546E-001	3.57720E+000	9	...........
	87	1.17333	8.87792E-001	4.01341E-004	0.00000E+000	3.56307E-004	2.40040E-001	8.88078E-001	3.57720E+000	9	...........
	88	1.18667	8.92294E-001	4.00917E-004	0.00000E+000	3.57736E-004	2.40040E-001	8.92584E-001	3.57720E+000	9	...........
	89	1.2	8.96749E-001	4.00591E-004	0.00000E+000	3.59229E-004	2.40040E-001	8.97080E-001	3.57720E+000	9	...........
	90	1.21333	9.01237E-001	4.00953E-004	0.00000E+000	3.61354E-004	2.40040E-001	9.01533E-001	3.57720E+000	9	...........
	91	1.22667	9.05674E-001	4.00166E-004	0.00000E+000	3.62419E-004	2.40040E-001	9.06010E-001	3.57720E+000	9	...........
	92	1.24	9.10099E-001	3.99629E-004	0.00000E+000	3.63702E-004	2.40040E-001	9.10395E-001	3.57720E+000	9	...........
	93	1.25333	9.14426E-001	4.02112E-004	0.00000E+000	3.67701E-004	2.40040E-001	9.14730E-001	3.57720E+000	9	...........
	94	1.26667	9.18729E-001	4.00663E-004	0.00000E+000	3.68100E-004	2.40040E-001	9.19045E-001	3.57720E+000	9	...........
	95	1.28	9.23059E-001	4.00620E-004	0.00000E+000	3.69796E-004	2.40040E-001	9.23305E-001	3.57720E+000	9	...........
	96	1.29333	9.27279E-001	4.00592E-004	0.00000E+000	3.71460E-004	2.40040E-001	9.27568E-001	3.57720E+000	9	...........
	97	1.30667	9.31459E-001	4.00905E-004	0.00000E+000	3.73427E-004	2.40040E-001	9.31751E-001	3.57720E+000	9	...........
	98	1.32	9.35588E-001	4.01314E-004	0.00000E+000	3.75465E-004	2.40040E-001	9.35869E-001	3.57720E+000	9	...........
	99	1.33333	9.39698E-001	4.00652E-004	0.00000E+000	3.76492E-004	2.40040E-001	9.39979E-001	3.57720E+000	9	...........
	100	1.34667	9.43761E-001	4.01379E-004	0.00000E+000	3.78806E-004	2.40040E-001	9.44055E-001	3.57720E+000	9	...........
	101	1.36	9.47899E-001	4.00681E-004	0.00000E+000	3.79806E-004	2.40040E-001	9.48158E-001	3.57720E+000	9	...........
	102	1.37333	9.51892E-001	4.00048E-004	0.00000E+000	3.80802E-004	2.40040E-001	9.52173E-001	3.57720E+000	9	...........
	103	1.38667	9.55902E-001	4.00931E-004	0.00000E+000	3.83251E-004	2.40040E-001	9.56190E-001	3.57720E+000	9	...........
	104	1.4	9.59835E-001	4.01818E-004	0.00000E+000	3.85679E-004	2.40040E-001	9.60156E-001	3.57720E+000	9	...........
	105	1.41333	9.63739E-001	4.00657E-004	0.00000E+000	3.86129E-004	2.40040E-001	9.64039E-001	3.57720E+000	9	...........
	106	1.42667	9.67568E-001	4.02115E-004	0.00000E+000	3.89074E-004	2.40040E-001	9.67888E-001	3.57720E+000	9	...........
	107	1.44	9.71334E-001	4.00767E-004	0.00000E+000	3.89279E-004	2.40040E-001	9.71685E-001	3.57720E+000	9	...........
	108	1.45333	9.75232E-001	4.00750E-004	0.00000E+000	3.90824E-004	2.40040E-001	9.75526E-001	3.57720E+000	9	...........
	109	1.46667	9.79010E-001	4.00646E-004	0.00000E+000	3.92236E-004	2.40040E-001	9.79300E-001	3.57720E+000	9	...........
	110	1.48	9.82687E-001	4.00698E-004	0.00000E+000	3.93761E-004	2.40040E-001	9.83006E-001	3.57720E+000	9	...........
	111	1.49333	9.86383E-001	4.00210E-004	0.00000E+000	3.94761E-004	2.40040E-001	9.86697E-001	3.57720E+000	9	...........
	112	1.50667	9.90010E-001	4.01357E-004	0.00000E+000	3.97347E-004	2.40040E-001	9.90326E-001	3.57720E+000	9	...........
	113	1.52	9.93590E-001	4.00044E-004	0.00000E+000	3.97479E-004	2.40040E-001	9.93930E-001	3.57720E+000	9	...........
	114	1.53333	9.97225E-001	4.01046E-004	0.00000E+000	3.99933E-004	2.40040E-001	9.97541E-001	3.57720E+000	9	...........
	115	1.53833	9.99626E-001	4.01500E-004	0.00000E+000	4.01349E-004	2.40040E-001	9.99994E-001	3.57720E+000	9	...........
STARTTIMEOFFSET	QUANT	1751.633	Start Time Offset (s)
