EXPLAIN
TAG	PWR800_CHARGE
TITLE	LABEL	PWR Cyclic Charge Discharge (Cell) - Charge Step	Test &Identifier
DATE	LABEL	12-7-2017	Date
TIME	LABEL	15:01:04	Time
NOTES	NOTES	3	&Notes...
	supercap test cell
	0.4mg
	6M KOH
PSTAT	PSTAT	IFC5000-01520	Potentiostat
CAPACITY	QUANT	1.00000E-003	Capacity (A-hr)
CELLTYPE	SELECTOR	1	&Cell Type
WORKINGCONNECTION	SELECTOR	0	&Working Lead
MAXCHARGETIME	VARIABLEANDUNITS	1.00000E+002	s	1.00000E+002	second(s)	Max &Charge Time
CHARGECURRENT	QUANT	4.00000E-004	&Charge Current (A) 
VOLTAGEFINISH	TWOPARAM	F	1.00000E-003	3.60000E+003	&Voltage Finish	 I (A) < 	Max Time(s)
SAMPLETIME	QUANT	1.00000E-002	Sa&mple Period (s)
CHARGESTOPAT1	MULTIPARAM	4	1.00000E+000	Charge Stop At &1	Voltage > Limit	V
CHARGESTOPAT2	MULTIPARAM	0	0.00000E+000	Charge Stop At &2	None	N/A
AESBHCSELECTOR	TOGGLE	F	Save Both Half Cells
IRCOMP	TOGGLE	F	IR &Measure
EOC	QUANT	0	Open Circuit (V)
SEQUENCER	TOGGLE	TRUE	Run as Sequence
PSTATMODEL	IQUANT	53	Pstat Model
PSTATSECTION	LABEL	IFC5000-01520	Pstat Section
PSTATSERIALNO	LABEL	01520	Pstat Serial Number
CTRLMODE	IQUANT	0	Control Mode
ELECTROMETER	IQUANT	1	RE=0 or CS=1
IESTAB	IQUANT	0	I/E Stability
CASPEED	IQUANT	4	Control Amp Speed
CONVENTION	IQUANT	1	Current Convention
ICHRANGE	IQUANT	2	Ich Range
ICHRANGEMODE	TOGGLE	T	Ich Auto Range
ICHOFFSETENABLE	TOGGLE	F	Ich Offset Enable
ICHOFFSET	QUANT	0	Ich Offset (V)
ICHFILTER	IQUANT	1	Ich Filter
VCHRANGE	IQUANT	2	Vch Range
VCHRANGEMODE	TOGGLE	T	Vch Auto Range
VCHOFFSETENABLE	TOGGLE	F	Vch Offset Enable
VCHOFFSET	QUANT	0	Vch Offset (V)
VCHFILTER	IQUANT	1	Vch Filter
IERANGELOWERLIMIT	IQUANT	9	I/E Range Lower Limit
IERANGEMODE	TOGGLE	F	I/E AutoRange
IERANGE	IQUANT	9	I/E Range
ACHSELECT	IQUANT	1	Ach Select
ACHRANGE	IQUANT	2	Ach Range
ACHOFFSETENABLE	TOGGLE	F	Ach Offset Enable
ACHOFFSET	QUANT	0	Ach Offset (V)
ACHFILTER	IQUANT	1	Ach Filter
CABLEID	IQUANT	14	Cable ID
DCCALDATE	LABEL	5-7-2017	DC Calibration Date
ACCALDATE	LABEL	12/3/2015	AC Calibration Date
FRAMEWORKVERSION	QUANT	7.01	Framework Version
INSTRUMENTVERSION	LABEL	4.00	Instrument Version
CURVE	TABLE	113
	Pt	T	Vf	Im	Vu	Pwr	Sig	Ach	Temp	IERange	Over
	#	s	V	A	V	W	V	V	deg C	#	bits
	0	0.013333	3.89088E-001	4.01612E-004	0.00000E+000	1.56263E-004	2.40040E-001	3.89188E-001	3.57740E+000	9	...........
	1	0.026667	4.00765E-001	4.02006E-004	0.00000E+000	1.61110E-004	2.40040E-001	4.00838E-001	3.57740E+000	9	...........
	2	0.04	4.10757E-001	4.02434E-004	0.00000E+000	1.65303E-004	2.40040E-001	4.10843E-001	3.57740E+000	9	...........
	3	0.053333	4.19857E-001	4.00178E-004	0.00000E+000	1.68017E-004	2.40040E-001	4.19943E-001	3.57740E+000	9	...........
	4	0.066667	4.28310E-001	4.00741E-004	0.00000E+000	1.71641E-004	2.40040E-001	4.28395E-001	3.57740E+000	9	...........
	5	0.08	4.36341E-001	4.02515E-004	0.00000E+000	1.75634E-004	2.40040E-001	4.36431E-001	3.57740E+000	9	...........
	6	0.093333	4.44066E-001	4.00897E-004	0.00000E+000	1.78025E-004	2.40040E-001	4.44158E-001	3.57740E+000	9	...........
	7	0.106667	4.51499E-001	4.00585E-004	0.00000E+000	1.80864E-004	2.40040E-001	4.51597E-001	3.57740E+000	9	...........
	8	0.12	4.58832E-001	4.00497E-004	0.00000E+000	1.83761E-004	2.40040E-001	4.58923E-001	3.57740E+000	9	...........
	9	0.133333	4.65900E-001	4.00846E-004	0.00000E+000	1.86754E-004	2.40040E-001	4.65991E-001	3.57740E+000	9	...........
	10	0.146667	4.72900E-001	4.01499E-004	0.00000E+000	1.89869E-004	2.40040E-001	4.72993E-001	3.57740E+000	9	...........
	11	0.16	4.79724E-001	4.01084E-004	0.00000E+000	1.92409E-004	2.40040E-001	4.79815E-001	3.57740E+000	9	...........
	12	0.173333	4.86490E-001	4.00682E-004	0.00000E+000	1.94928E-004	2.40040E-001	4.86593E-001	3.57740E+000	9	...........
	13	0.186667	4.93193E-001	4.00713E-004	0.00000E+000	1.97629E-004	2.40040E-001	4.93290E-001	3.57740E+000	9	...........
	14	0.2	4.99823E-001	4.00586E-004	0.00000E+000	2.00222E-004	2.40040E-001	4.99916E-001	3.57740E+000	9	...........
	15	0.213333	5.06299E-001	4.00784E-004	0.00000E+000	2.02916E-004	2.40040E-001	5.06397E-001	3.57740E+000	9	...........
	16	0.226667	5.12729E-001	4.01558E-004	0.00000E+000	2.05890E-004	2.40040E-001	5.12832E-001	3.57740E+000	9	...........
	17	0.24	5.19166E-001	4.01416E-004	0.00000E+000	2.08401E-004	2.40040E-001	5.19267E-001	3.57740E+000	9	...........
	18	0.253333	5.25585E-001	4.01595E-004	0.00000E+000	2.11072E-004	2.40040E-001	5.25697E-001	3.57740E+000	9	...........
	19	0.266667	5.31803E-001	4.01210E-004	0.00000E+000	2.13365E-004	2.40040E-001	5.31887E-001	3.57740E+000	9	...........
	20	0.28	5.37855E-001	4.01358E-004	0.00000E+000	2.15872E-004	2.40040E-001	5.38045E-001	3.57740E+000	9	...........
	21	0.293333	5.44100E-001	4.00832E-004	0.00000E+000	2.18093E-004	2.40040E-001	5.44292E-001	3.57740E+000	9	...........
	22	0.306667	5.50339E-001	4.01427E-004	0.00000E+000	2.20921E-004	2.40040E-001	5.50541E-001	3.57740E+000	9	...........
	23	0.32	5.56452E-001	4.01415E-004	0.00000E+000	2.23368E-004	2.40040E-001	5.56677E-001	3.57740E+000	9	...........
	24	0.333333	5.62543E-001	4.02355E-004	0.00000E+000	2.26342E-004	2.40040E-001	5.62781E-001	3.57740E+000	9	...........
	25	0.346667	5.68617E-001	4.01723E-004	0.00000E+000	2.28427E-004	2.40040E-001	5.68830E-001	3.57740E+000	9	...........
	26	0.36	5.74626E-001	4.00048E-004	0.00000E+000	2.29878E-004	2.40040E-001	5.74817E-001	3.57740E+000	9	...........
	27	0.373333	5.80631E-001	4.00531E-004	0.00000E+000	2.32561E-004	2.40040E-001	5.80838E-001	3.57740E+000	9	...........
	28	0.386667	5.86611E-001	4.00813E-004	0.00000E+000	2.35121E-004	2.40040E-001	5.86842E-001	3.57740E+000	9	...........
	29	0.4	5.92647E-001	4.01188E-004	0.00000E+000	2.37763E-004	2.40040E-001	5.92860E-001	3.57740E+000	9	...........
	30	0.413333	5.98596E-001	4.00305E-004	0.00000E+000	2.39621E-004	2.40040E-001	5.98817E-001	3.57740E+000	9	...........
	31	0.426667	6.04520E-001	4.00946E-004	0.00000E+000	2.42380E-004	2.40040E-001	6.04766E-001	3.57740E+000	9	...........
	32	0.44	6.10420E-001	4.01622E-004	0.00000E+000	2.45158E-004	2.40040E-001	6.10667E-001	3.57740E+000	9	...........
	33	0.453333	6.16382E-001	4.01254E-004	0.00000E+000	2.47326E-004	2.40040E-001	6.16629E-001	3.57740E+000	9	...........
	34	0.466667	6.22369E-001	4.00502E-004	0.00000E+000	2.49260E-004	2.40040E-001	6.22579E-001	3.57740E+000	9	...........
	35	0.48	6.28237E-001	4.00695E-004	0.00000E+000	2.51732E-004	2.40040E-001	6.28456E-001	3.57740E+000	9	...........
	36	0.493333	6.34078E-001	4.01456E-004	0.00000E+000	2.54554E-004	2.40040E-001	6.34323E-001	3.57740E+000	9	...........
	37	0.506667	6.39988E-001	4.00116E-004	0.00000E+000	2.56069E-004	2.40040E-001	6.40201E-001	3.57740E+000	9	...........
	38	0.52	6.45815E-001	4.00313E-004	0.00000E+000	2.58528E-004	2.40040E-001	6.46056E-001	3.57740E+000	9	...........
	39	0.533333	6.51595E-001	4.01946E-004	0.00000E+000	2.61906E-004	2.40040E-001	6.51817E-001	3.57740E+000	9	...........
	40	0.546667	6.57331E-001	4.00442E-004	0.00000E+000	2.63223E-004	2.40040E-001	6.57558E-001	3.57740E+000	9	...........
	41	0.56	6.63092E-001	4.00662E-004	0.00000E+000	2.65675E-004	2.40040E-001	6.63324E-001	3.57740E+000	9	...........
	42	0.573333	6.68837E-001	3.99493E-004	0.00000E+000	2.67196E-004	2.40040E-001	6.69047E-001	3.57740E+000	9	...........
	43	0.586667	6.74489E-001	4.00987E-004	0.00000E+000	2.70461E-004	2.40040E-001	6.74697E-001	3.57740E+000	9	...........
	44	0.6	6.80170E-001	4.00621E-004	0.00000E+000	2.72490E-004	2.40040E-001	6.80374E-001	3.57740E+000	9	...........
	45	0.613333	6.85855E-001	4.01389E-004	0.00000E+000	2.75295E-004	2.40040E-001	6.86063E-001	3.57740E+000	9	...........
	46	0.626667	6.91506E-001	4.01860E-004	0.00000E+000	2.77888E-004	2.40040E-001	6.91743E-001	3.57740E+000	9	...........
	47	0.64	6.97143E-001	4.00586E-004	0.00000E+000	2.79265E-004	2.40040E-001	6.97409E-001	3.57740E+000	9	...........
	48	0.653333	7.02767E-001	4.00939E-004	0.00000E+000	2.81767E-004	2.40040E-001	7.03025E-001	3.57752E+000	9	...........
	49	0.666667	7.08371E-001	4.01636E-004	0.00000E+000	2.84507E-004	2.40040E-001	7.08672E-001	3.57790E+000	9	...........
	50	0.68	7.14032E-001	4.01519E-004	0.00000E+000	2.86697E-004	2.40040E-001	7.14313E-001	3.57790E+000	9	...........
	51	0.693333	7.19647E-001	4.00514E-004	0.00000E+000	2.88229E-004	2.40040E-001	7.19911E-001	3.57790E+000	9	...........
	52	0.706667	7.25163E-001	4.00700E-004	0.00000E+000	2.90573E-004	2.40040E-001	7.25410E-001	3.57790E+000	9	...........
	53	0.72	7.30620E-001	4.00997E-004	0.00000E+000	2.92977E-004	2.40040E-001	7.30886E-001	3.57790E+000	9	...........
	54	0.733333	7.36113E-001	4.01733E-004	0.00000E+000	2.95721E-004	2.40040E-001	7.36355E-001	3.57790E+000	9	...........
	55	0.746667	7.41602E-001	4.02292E-004	0.00000E+000	2.98341E-004	2.40040E-001	7.41843E-001	3.57790E+000	9	...........
	56	0.76	7.47020E-001	4.00707E-004	0.00000E+000	2.99337E-004	2.40040E-001	7.47236E-001	3.57790E+000	9	...........
	57	0.773333	7.52417E-001	4.00597E-004	0.00000E+000	3.01416E-004	2.40040E-001	7.52659E-001	3.57790E+000	9	...........
	58	0.786667	7.57827E-001	4.01226E-004	0.00000E+000	3.04060E-004	2.40040E-001	7.58071E-001	3.57790E+000	9	...........
	59	0.8	7.63197E-001	4.00770E-004	0.00000E+000	3.05867E-004	2.40040E-001	7.63456E-001	3.57790E+000	9	...........
	60	0.813333	7.68515E-001	4.00355E-004	0.00000E+000	3.07679E-004	2.40040E-001	7.68804E-001	3.57790E+000	9	...........
	61	0.826667	7.73811E-001	4.01366E-004	0.00000E+000	3.10581E-004	2.40040E-001	7.74072E-001	3.57790E+000	9	...........
	62	0.84	7.79129E-001	4.00617E-004	0.00000E+000	3.12132E-004	2.40040E-001	7.79404E-001	3.57790E+000	9	...........
	63	0.853333	7.84404E-001	4.00667E-004	0.00000E+000	3.14285E-004	2.40040E-001	7.84645E-001	3.57790E+000	9	...........
	64	0.866667	7.89631E-001	4.03074E-004	0.00000E+000	3.18279E-004	2.40040E-001	7.89896E-001	3.57790E+000	9	...........
	65	0.88	7.94884E-001	4.00029E-004	0.00000E+000	3.17977E-004	2.40040E-001	7.95135E-001	3.57790E+000	9	...........
	66	0.893333	8.00018E-001	4.01463E-004	0.00000E+000	3.21178E-004	2.40040E-001	8.00265E-001	3.57790E+000	9	...........
	67	0.906667	8.05098E-001	4.00785E-004	0.00000E+000	3.22671E-004	2.40040E-001	8.05360E-001	3.57790E+000	9	...........
	68	0.92	8.10271E-001	4.00085E-004	0.00000E+000	3.24178E-004	2.40040E-001	8.10527E-001	3.57790E+000	9	...........
	69	0.933333	8.15365E-001	4.01624E-004	0.00000E+000	3.27471E-004	2.40040E-001	8.15655E-001	3.57790E+000	9	...........
	70	0.946667	8.20507E-001	4.00309E-004	0.00000E+000	3.28457E-004	2.40040E-001	8.20762E-001	3.57790E+000	9	...........
	71	0.96	8.25542E-001	4.00556E-004	0.00000E+000	3.30676E-004	2.40040E-001	8.25796E-001	3.57790E+000	9	...........
	72	0.97333	8.30530E-001	4.00840E-004	0.00000E+000	3.32909E-004	2.40040E-001	8.30812E-001	3.57790E+000	9	...........
	73	0.98667	8.35491E-001	4.01438E-004	0.00000E+000	3.35398E-004	2.40040E-001	8.35787E-001	3.57790E+000	9	...........
	74	1	8.40416E-001	4.00998E-004	0.00000E+000	3.37005E-004	2.40040E-001	8.40702E-001	3.57790E+000	9	...........
	75	1.01333	8.45369E-001	4.00769E-004	0.00000E+000	3.38798E-004	2.40040E-001	8.45662E-001	3.57790E+000	9	...........
	76	1.02667	8.50233E-001	4.00352E-004	0.00000E+000	3.40393E-004	2.40040E-001	8.50499E-001	3.57790E+000	9	...........
	77	1.04	8.54979E-001	4.02628E-004	0.00000E+000	3.44238E-004	2.40040E-001	8.55293E-001	3.57790E+000	9	...........
	78	1.05333	8.59758E-001	4.00955E-004	0.00000E+000	3.44725E-004	2.40040E-001	8.60072E-001	3.57790E+000	9	...........
	79	1.06667	8.64490E-001	4.01035E-004	0.00000E+000	3.46690E-004	2.40040E-001	8.64796E-001	3.57790E+000	9	...........
	80	1.08	8.69221E-001	4.01528E-004	0.00000E+000	3.49017E-004	2.40040E-001	8.69547E-001	3.57790E+000	9	...........
	81	1.09333	8.73936E-001	4.00214E-004	0.00000E+000	3.49761E-004	2.40040E-001	8.74232E-001	3.57790E+000	9	...........
	82	1.10667	8.78570E-001	4.02248E-004	0.00000E+000	3.53403E-004	2.40040E-001	8.78859E-001	3.57790E+000	9	...........
	83	1.12	8.83224E-001	4.00993E-004	0.00000E+000	3.54167E-004	2.40040E-001	8.83511E-001	3.57790E+000	9	...........
	84	1.13333	8.87832E-001	4.02001E-004	0.00000E+000	3.56910E-004	2.40040E-001	8.88116E-001	3.57790E+000	9	...........
	85	1.14667	8.92374E-001	4.00152E-004	0.00000E+000	3.57085E-004	2.40040E-001	8.92660E-001	3.57790E+000	9	...........
	86	1.16	8.96839E-001	4.00222E-004	0.00000E+000	3.58935E-004	2.40040E-001	8.97157E-001	3.57790E+000	9	...........
	87	1.17333	9.01362E-001	4.01714E-004	0.00000E+000	3.62090E-004	2.40040E-001	9.01667E-001	3.57790E+000	9	...........
	88	1.18667	9.05771E-001	4.00363E-004	0.00000E+000	3.62637E-004	2.40040E-001	9.06087E-001	3.57790E+000	9	...........
	89	1.2	9.10174E-001	3.99052E-004	0.00000E+000	3.63207E-004	2.40040E-001	9.10482E-001	3.57790E+000	9	...........
	90	1.21333	9.14512E-001	4.00198E-004	0.00000E+000	3.65986E-004	2.40040E-001	9.14843E-001	3.57790E+000	9	...........
	91	1.22667	9.18856E-001	4.01199E-004	0.00000E+000	3.68644E-004	2.40040E-001	9.19177E-001	3.57790E+000	9	...........
	92	1.24	9.23234E-001	4.01170E-004	0.00000E+000	3.70374E-004	2.40040E-001	9.23520E-001	3.57790E+000	9	...........
	93	1.25333	9.27516E-001	4.00164E-004	0.00000E+000	3.71158E-004	2.40040E-001	9.27828E-001	3.57790E+000	9	...........
	94	1.26667	9.31716E-001	4.00835E-004	0.00000E+000	3.73464E-004	2.40040E-001	9.32053E-001	3.57790E+000	9	...........
	95	1.28	9.35937E-001	4.02149E-004	0.00000E+000	3.76387E-004	2.40040E-001	9.36249E-001	3.57790E+000	9	...........
	96	1.29333	9.40105E-001	4.01967E-004	0.00000E+000	3.77891E-004	2.40040E-001	9.40425E-001	3.57790E+000	9	...........
	97	1.30667	9.44180E-001	4.01574E-004	0.00000E+000	3.79159E-004	2.40040E-001	9.44501E-001	3.57790E+000	9	...........
	98	1.32	9.48296E-001	4.01051E-004	0.00000E+000	3.80315E-004	2.40040E-001	9.48578E-001	3.57790E+000	9	...........
	99	1.33333	9.52323E-001	4.00768E-004	0.00000E+000	3.81661E-004	2.40040E-001	9.52600E-001	3.57790E+000	9	...........
	100	1.34667	9.56312E-001	4.01643E-004	0.00000E+000	3.84096E-004	2.40040E-001	9.56595E-001	3.57790E+000	9	...........
	101	1.36	9.60269E-001	4.02361E-004	0.00000E+000	3.86375E-004	2.40040E-001	9.60561E-001	3.57790E+000	9	...........
	102	1.37333	9.64203E-001	4.02096E-004	0.00000E+000	3.87702E-004	2.40040E-001	9.64494E-001	3.57790E+000	9	...........
	103	1.38667	9.68097E-001	4.00940E-004	0.00000E+000	3.88149E-004	2.40040E-001	9.68415E-001	3.57790E+000	9	...........
	104	1.4	9.71987E-001	4.01042E-004	0.00000E+000	3.89807E-004	2.40040E-001	9.72309E-001	3.57790E+000	9	...........
	105	1.41333	9.75825E-001	4.00698E-004	0.00000E+000	3.91011E-004	2.40040E-001	9.76133E-001	3.57790E+000	9	...........
	106	1.42667	9.79596E-001	4.01089E-004	0.00000E+000	3.92905E-004	2.40040E-001	9.79861E-001	3.57790E+000	9	...........
	107	1.44	9.83240E-001	4.01314E-004	0.00000E+000	3.94588E-004	2.40040E-001	9.83517E-001	3.57790E+000	9	...........
	108	1.45333	9.86900E-001	3.98825E-004	0.00000E+000	3.93600E-004	2.40040E-001	9.87199E-001	3.57790E+000	9	...........
	109	1.46667	9.90538E-001	4.02138E-004	0.00000E+000	3.98333E-004	2.40040E-001	9.90836E-001	3.57790E+000	9	...........
	110	1.48	9.94149E-001	4.00956E-004	0.00000E+000	3.98610E-004	2.40040E-001	9.94452E-001	3.57790E+000	9	...........
	111	1.49333	9.97786E-001	4.00660E-004	0.00000E+000	3.99773E-004	2.40040E-001	9.98091E-001	3.57790E+000	9	...........
	112	1.49667	9.99976E-001	4.01686E-004	0.00000E+000	4.01676E-004	2.40040E-001	1.00028E+000	3.57790E+000	9	...........
STARTTIMEOFFSET	QUANT	2022.805	Start Time Offset (s)
