EXPLAIN
TAG	PWR800_CHARGE
TITLE	LABEL	PWR Cyclic Charge Discharge (Cell) - Charge Step	Test &Identifier
DATE	LABEL	12-7-2017	Date
TIME	LABEL	14:51:53	Time
NOTES	NOTES	3	&Notes...
	supercap test cell
	0.4mg
	6M KOH
PSTAT	PSTAT	IFC5000-01520	Potentiostat
CAPACITY	QUANT	1.00000E-003	Capacity (A-hr)
CELLTYPE	SELECTOR	1	&Cell Type
WORKINGCONNECTION	SELECTOR	0	&Working Lead
MAXCHARGETIME	VARIABLEANDUNITS	1.00000E+002	s	1.00000E+002	second(s)	Max &Charge Time
CHARGECURRENT	QUANT	4.00000E-004	&Charge Current (A) 
VOLTAGEFINISH	TWOPARAM	F	1.00000E-003	3.60000E+003	&Voltage Finish	 I (A) < 	Max Time(s)
SAMPLETIME	QUANT	1.00000E-002	Sa&mple Period (s)
CHARGESTOPAT1	MULTIPARAM	4	1.00000E+000	Charge Stop At &1	Voltage > Limit	V
CHARGESTOPAT2	MULTIPARAM	0	0.00000E+000	Charge Stop At &2	None	N/A
AESBHCSELECTOR	TOGGLE	F	Save Both Half Cells
IRCOMP	TOGGLE	F	IR &Measure
EOC	QUANT	0	Open Circuit (V)
SEQUENCER	TOGGLE	TRUE	Run as Sequence
PSTATMODEL	IQUANT	53	Pstat Model
PSTATSECTION	LABEL	IFC5000-01520	Pstat Section
PSTATSERIALNO	LABEL	01520	Pstat Serial Number
CTRLMODE	IQUANT	0	Control Mode
ELECTROMETER	IQUANT	1	RE=0 or CS=1
IESTAB	IQUANT	0	I/E Stability
CASPEED	IQUANT	4	Control Amp Speed
CONVENTION	IQUANT	1	Current Convention
ICHRANGE	IQUANT	2	Ich Range
ICHRANGEMODE	TOGGLE	T	Ich Auto Range
ICHOFFSETENABLE	TOGGLE	F	Ich Offset Enable
ICHOFFSET	QUANT	0	Ich Offset (V)
ICHFILTER	IQUANT	1	Ich Filter
VCHRANGE	IQUANT	2	Vch Range
VCHRANGEMODE	TOGGLE	T	Vch Auto Range
VCHOFFSETENABLE	TOGGLE	F	Vch Offset Enable
VCHOFFSET	QUANT	0	Vch Offset (V)
VCHFILTER	IQUANT	1	Vch Filter
IERANGELOWERLIMIT	IQUANT	9	I/E Range Lower Limit
IERANGEMODE	TOGGLE	F	I/E AutoRange
IERANGE	IQUANT	9	I/E Range
ACHSELECT	IQUANT	1	Ach Select
ACHRANGE	IQUANT	2	Ach Range
ACHOFFSETENABLE	TOGGLE	F	Ach Offset Enable
ACHOFFSET	QUANT	0	Ach Offset (V)
ACHFILTER	IQUANT	1	Ach Filter
CABLEID	IQUANT	14	Cable ID
DCCALDATE	LABEL	5-7-2017	DC Calibration Date
ACCALDATE	LABEL	12/3/2015	AC Calibration Date
FRAMEWORKVERSION	QUANT	7.01	Framework Version
INSTRUMENTVERSION	LABEL	4.00	Instrument Version
CURVE	TABLE	118
	Pt	T	Vf	Im	Vu	Pwr	Sig	Ach	Temp	IERange	Over
	#	s	V	A	V	W	V	V	deg C	#	bits
	0	0.013333	3.65869E-001	4.01531E-004	0.00000E+000	1.46908E-004	2.40040E-001	3.65957E-001	3.57630E+000	9	...........
	1	0.026667	3.77512E-001	4.01516E-004	0.00000E+000	1.51577E-004	2.40040E-001	3.77592E-001	3.57630E+000	9	...........
	2	0.04	3.87481E-001	4.00293E-004	0.00000E+000	1.55106E-004	2.40040E-001	3.87556E-001	3.57630E+000	9	...........
	3	0.053333	3.96526E-001	4.02074E-004	0.00000E+000	1.59433E-004	2.40040E-001	3.96600E-001	3.57630E+000	9	...........
	4	0.066667	4.04987E-001	4.00667E-004	0.00000E+000	1.62265E-004	2.40040E-001	4.05069E-001	3.57630E+000	9	...........
	5	0.08	4.13005E-001	4.01302E-004	0.00000E+000	1.65740E-004	2.40040E-001	4.13093E-001	3.57630E+000	9	...........
	6	0.093333	4.20733E-001	4.01484E-004	0.00000E+000	1.68917E-004	2.40040E-001	4.20820E-001	3.57630E+000	9	...........
	7	0.106667	4.28264E-001	4.00658E-004	0.00000E+000	1.71588E-004	2.40040E-001	4.28354E-001	3.57630E+000	9	...........
	8	0.12	4.35654E-001	4.00690E-004	0.00000E+000	1.74562E-004	2.40040E-001	4.35747E-001	3.57630E+000	9	...........
	9	0.133333	4.42832E-001	4.00727E-004	0.00000E+000	1.77455E-004	2.40040E-001	4.42922E-001	3.57630E+000	9	...........
	10	0.146667	4.49915E-001	4.01463E-004	0.00000E+000	1.80624E-004	2.40040E-001	4.50006E-001	3.57630E+000	9	...........
	11	0.16	4.56815E-001	4.01260E-004	0.00000E+000	1.83301E-004	2.40040E-001	4.56904E-001	3.57630E+000	9	...........
	12	0.173333	4.63605E-001	3.99490E-004	0.00000E+000	1.85205E-004	2.40040E-001	4.63694E-001	3.57630E+000	9	...........
	13	0.186667	4.70255E-001	4.00302E-004	0.00000E+000	1.88244E-004	2.40040E-001	4.70351E-001	3.57630E+000	9	...........
	14	0.2	4.76927E-001	4.02761E-004	0.00000E+000	1.92088E-004	2.40040E-001	4.77021E-001	3.57630E+000	9	...........
	15	0.213333	4.83459E-001	4.01317E-004	0.00000E+000	1.94020E-004	2.40040E-001	4.83557E-001	3.57630E+000	9	...........
	16	0.226667	4.89961E-001	4.00504E-004	0.00000E+000	1.96232E-004	2.40040E-001	4.90055E-001	3.57630E+000	9	...........
	17	0.24	4.96447E-001	4.01136E-004	0.00000E+000	1.99143E-004	2.40040E-001	4.96548E-001	3.57630E+000	9	...........
	18	0.253333	5.02761E-001	4.00000E-004	0.00000E+000	2.01104E-004	2.40040E-001	5.02864E-001	3.57630E+000	9	...........
	19	0.266667	5.09120E-001	4.01534E-004	0.00000E+000	2.04429E-004	2.40040E-001	5.09222E-001	3.57630E+000	9	...........
	20	0.28	5.15461E-001	4.00897E-004	0.00000E+000	2.06647E-004	2.40040E-001	5.15565E-001	3.57630E+000	9	...........
	21	0.293333	5.21708E-001	4.01344E-004	0.00000E+000	2.09385E-004	2.40040E-001	5.21813E-001	3.57630E+000	9	...........
	22	0.306667	5.27910E-001	3.99401E-004	0.00000E+000	2.10848E-004	2.40040E-001	5.28017E-001	3.57638E+000	9	...........
	23	0.32	5.33908E-001	4.00947E-004	0.00000E+000	2.14069E-004	2.40040E-001	5.34038E-001	3.57650E+000	9	...........
	24	0.333333	5.39952E-001	4.01061E-004	0.00000E+000	2.16554E-004	2.40040E-001	5.40176E-001	3.57650E+000	9	...........
	25	0.346667	5.46062E-001	4.00710E-004	0.00000E+000	2.18812E-004	2.40040E-001	5.46267E-001	3.57650E+000	9	...........
	26	0.36	5.52118E-001	4.00304E-004	0.00000E+000	2.21015E-004	2.40040E-001	5.52346E-001	3.57650E+000	9	...........
	27	0.373333	5.58134E-001	4.01643E-004	0.00000E+000	2.24171E-004	2.40040E-001	5.58379E-001	3.57650E+000	9	...........
	28	0.386667	5.64207E-001	3.99895E-004	0.00000E+000	2.25624E-004	2.40040E-001	5.64431E-001	3.57650E+000	9	...........
	29	0.4	5.70125E-001	4.00778E-004	0.00000E+000	2.28494E-004	2.40040E-001	5.70351E-001	3.57650E+000	9	...........
	30	0.413333	5.76006E-001	4.01682E-004	0.00000E+000	2.31371E-004	2.40040E-001	5.76237E-001	3.57650E+000	9	...........
	31	0.426667	5.81946E-001	4.01528E-004	0.00000E+000	2.33668E-004	2.40040E-001	5.82192E-001	3.57650E+000	9	...........
	32	0.44	5.87864E-001	4.00138E-004	0.00000E+000	2.35226E-004	2.40040E-001	5.88108E-001	3.57650E+000	9	...........
	33	0.453333	5.93785E-001	4.01328E-004	0.00000E+000	2.38303E-004	2.40040E-001	5.94013E-001	3.57650E+000	9	...........
	34	0.466667	5.99661E-001	4.00280E-004	0.00000E+000	2.40032E-004	2.40040E-001	5.99930E-001	3.57650E+000	9	...........
	35	0.48	6.05493E-001	4.00842E-004	0.00000E+000	2.42707E-004	2.40040E-001	6.05744E-001	3.57650E+000	9	...........
	36	0.493333	6.11386E-001	3.99641E-004	0.00000E+000	2.44335E-004	2.40040E-001	6.11637E-001	3.57650E+000	9	...........
	37	0.506667	6.17262E-001	4.00836E-004	0.00000E+000	2.47421E-004	2.40040E-001	6.17482E-001	3.57650E+000	9	...........
	38	0.52	6.23060E-001	4.00531E-004	0.00000E+000	2.49555E-004	2.40040E-001	6.23244E-001	3.57650E+000	9	...........
	39	0.533333	6.28848E-001	4.01212E-004	0.00000E+000	2.52301E-004	2.40040E-001	6.29076E-001	3.57650E+000	9	...........
	40	0.546667	6.34525E-001	4.00713E-004	0.00000E+000	2.54262E-004	2.40040E-001	6.34744E-001	3.57650E+000	9	...........
	41	0.56	6.40257E-001	4.00198E-004	0.00000E+000	2.56229E-004	2.40040E-001	6.40497E-001	3.57650E+000	9	...........
	42	0.573333	6.45933E-001	4.01685E-004	0.00000E+000	2.59461E-004	2.40040E-001	6.46146E-001	3.57650E+000	9	...........
	43	0.586667	6.51630E-001	4.00476E-004	0.00000E+000	2.60962E-004	2.40040E-001	6.51861E-001	3.57650E+000	9	...........
	44	0.6	6.57444E-001	4.02473E-004	0.00000E+000	2.64604E-004	2.40040E-001	6.57631E-001	3.57650E+000	9	...........
	45	0.613333	6.63115E-001	4.01715E-004	0.00000E+000	2.66383E-004	2.40040E-001	6.63337E-001	3.57650E+000	9	...........
	46	0.626667	6.68789E-001	4.01003E-004	0.00000E+000	2.68186E-004	2.40040E-001	6.68990E-001	3.57650E+000	9	...........
	47	0.64	6.74407E-001	4.02299E-004	0.00000E+000	2.71314E-004	2.40040E-001	6.74610E-001	3.57650E+000	9	...........
	48	0.653333	6.79886E-001	4.00977E-004	0.00000E+000	2.72619E-004	2.40040E-001	6.80120E-001	3.57650E+000	9	...........
	49	0.666667	6.85447E-001	3.99625E-004	0.00000E+000	2.73922E-004	2.40040E-001	6.85678E-001	3.57650E+000	9	...........
	50	0.68	6.90982E-001	4.01329E-004	0.00000E+000	2.77311E-004	2.40040E-001	6.91213E-001	3.57650E+000	9	...........
	51	0.693333	6.96573E-001	4.01438E-004	0.00000E+000	2.79631E-004	2.40040E-001	6.96813E-001	3.57650E+000	9	...........
	52	0.706667	7.02126E-001	4.01426E-004	0.00000E+000	2.81852E-004	2.40040E-001	7.02363E-001	3.57650E+000	9	...........
	53	0.72	7.07657E-001	4.00693E-004	0.00000E+000	2.83553E-004	2.40040E-001	7.07913E-001	3.57650E+000	9	...........
	54	0.733333	7.13090E-001	4.00926E-004	0.00000E+000	2.85897E-004	2.40040E-001	7.13353E-001	3.57650E+000	9	...........
	55	0.746667	7.18576E-001	4.00591E-004	0.00000E+000	2.87855E-004	2.40040E-001	7.18826E-001	3.57650E+000	9	...........
	56	0.76	7.24010E-001	4.00423E-004	0.00000E+000	2.89910E-004	2.40040E-001	7.24235E-001	3.57650E+000	9	...........
	57	0.773333	7.29490E-001	4.00493E-004	0.00000E+000	2.92155E-004	2.40040E-001	7.29728E-001	3.57650E+000	9	...........
	58	0.786667	7.34911E-001	4.00063E-004	0.00000E+000	2.94010E-004	2.40040E-001	7.35141E-001	3.57650E+000	9	...........
	59	0.8	7.40275E-001	4.00619E-004	0.00000E+000	2.96568E-004	2.40040E-001	7.40518E-001	3.57650E+000	9	...........
	60	0.813333	7.45682E-001	4.00735E-004	0.00000E+000	2.98821E-004	2.40040E-001	7.45951E-001	3.57650E+000	9	...........
	61	0.826667	7.51024E-001	4.01110E-004	0.00000E+000	3.01243E-004	2.40040E-001	7.51261E-001	3.57650E+000	9	...........
	62	0.84	7.56385E-001	4.00713E-004	0.00000E+000	3.03093E-004	2.40040E-001	7.56628E-001	3.57650E+000	9	...........
	63	0.853333	7.61654E-001	4.00691E-004	0.00000E+000	3.05188E-004	2.40040E-001	7.61889E-001	3.57650E+000	9	...........
	64	0.866667	7.66852E-001	4.00983E-004	0.00000E+000	3.07494E-004	2.40040E-001	7.67127E-001	3.57650E+000	9	...........
	65	0.88	7.72193E-001	4.02634E-004	0.00000E+000	3.10911E-004	2.40040E-001	7.72451E-001	3.57650E+000	9	...........
	66	0.893333	7.77345E-001	4.00492E-004	0.00000E+000	3.11320E-004	2.40040E-001	7.77612E-001	3.57650E+000	9	...........
	67	0.906667	7.82578E-001	4.00918E-004	0.00000E+000	3.13750E-004	2.40040E-001	7.82840E-001	3.57650E+000	9	...........
	68	0.92	7.87764E-001	4.01851E-004	0.00000E+000	3.16564E-004	2.40040E-001	7.88047E-001	3.57650E+000	9	...........
	69	0.933333	7.92904E-001	4.00277E-004	0.00000E+000	3.17382E-004	2.40040E-001	7.93159E-001	3.57650E+000	9	...........
	70	0.946667	7.98009E-001	4.01862E-004	0.00000E+000	3.20689E-004	2.40040E-001	7.98244E-001	3.57650E+000	9	...........
	71	0.96	8.03146E-001	4.01416E-004	0.00000E+000	3.22396E-004	2.40040E-001	8.03397E-001	3.57650E+000	9	...........
	72	0.97333	8.08216E-001	4.01454E-004	0.00000E+000	3.24462E-004	2.40040E-001	8.08465E-001	3.57650E+000	9	...........
	73	0.98667	8.13245E-001	4.01300E-004	0.00000E+000	3.26355E-004	2.40040E-001	8.13502E-001	3.57650E+000	9	...........
	74	1	8.18230E-001	4.00148E-004	0.00000E+000	3.27413E-004	2.40040E-001	8.18467E-001	3.57650E+000	9	...........
	75	1.01333	8.23214E-001	4.00991E-004	0.00000E+000	3.30101E-004	2.40040E-001	8.23465E-001	3.57650E+000	9	...........
	76	1.02667	8.28195E-001	4.01672E-004	0.00000E+000	3.32663E-004	2.40040E-001	8.28421E-001	3.57650E+000	9	...........
	77	1.04	8.33132E-001	3.99843E-004	0.00000E+000	3.33122E-004	2.40040E-001	8.33400E-001	3.57650E+000	9	...........
	78	1.05333	8.37987E-001	4.01444E-004	0.00000E+000	3.36405E-004	2.40040E-001	8.38247E-001	3.57650E+000	9	...........
	79	1.06667	8.42837E-001	4.02006E-004	0.00000E+000	3.38825E-004	2.40040E-001	8.43090E-001	3.57650E+000	9	...........
	80	1.08	8.47671E-001	4.01075E-004	0.00000E+000	3.39980E-004	2.40040E-001	8.47912E-001	3.57650E+000	9	...........
	81	1.09333	8.52324E-001	4.01447E-004	0.00000E+000	3.42163E-004	2.40040E-001	8.52591E-001	3.57650E+000	9	...........
	82	1.10667	8.57034E-001	3.99847E-004	0.00000E+000	3.42683E-004	2.40040E-001	8.57313E-001	3.57650E+000	9	...........
	83	1.12	8.61731E-001	4.01618E-004	0.00000E+000	3.46087E-004	2.40040E-001	8.62032E-001	3.57650E+000	9	...........
	84	1.13333	8.66394E-001	3.99680E-004	0.00000E+000	3.46281E-004	2.40040E-001	8.66704E-001	3.57650E+000	9	...........
	85	1.14667	8.71100E-001	4.00917E-004	0.00000E+000	3.49239E-004	2.40040E-001	8.71414E-001	3.57650E+000	9	...........
	86	1.16	8.75719E-001	4.01393E-004	0.00000E+000	3.51507E-004	2.40040E-001	8.76014E-001	3.57650E+000	9	...........
	87	1.17333	8.80301E-001	4.00987E-004	0.00000E+000	3.52989E-004	2.40040E-001	8.80623E-001	3.57650E+000	9	...........
	88	1.18667	8.84880E-001	4.00577E-004	0.00000E+000	3.54463E-004	2.40040E-001	8.85192E-001	3.57650E+000	9	...........
	89	1.2	8.89400E-001	4.01357E-004	0.00000E+000	3.56967E-004	2.40040E-001	8.89713E-001	3.57650E+000	9	...........
	90	1.21333	8.93863E-001	4.00938E-004	0.00000E+000	3.58383E-004	2.40040E-001	8.94183E-001	3.57650E+000	9	...........
	91	1.22667	8.98376E-001	4.01789E-004	0.00000E+000	3.60958E-004	2.40040E-001	8.98713E-001	3.57650E+000	9	...........
	92	1.24	9.02794E-001	4.00743E-004	0.00000E+000	3.61788E-004	2.40040E-001	9.03127E-001	3.57650E+000	9	...........
	93	1.25333	9.07189E-001	4.00786E-004	0.00000E+000	3.63588E-004	2.40040E-001	9.07522E-001	3.57650E+000	9	...........
	94	1.26667	9.11531E-001	4.01078E-004	0.00000E+000	3.65595E-004	2.40040E-001	9.11829E-001	3.57650E+000	9	...........
	95	1.28	9.15830E-001	3.99619E-004	0.00000E+000	3.65983E-004	2.40040E-001	9.16164E-001	3.57650E+000	9	...........
	96	1.29333	9.20093E-001	4.01052E-004	0.00000E+000	3.69005E-004	2.40040E-001	9.20397E-001	3.57650E+000	9	...........
	97	1.30667	9.24378E-001	4.01126E-004	0.00000E+000	3.70792E-004	2.40040E-001	9.24645E-001	3.57654E+000	9	...........
	98	1.32	9.28615E-001	4.01815E-004	0.00000E+000	3.73131E-004	2.40040E-001	9.28900E-001	3.57660E+000	9	...........
	99	1.33333	9.32806E-001	4.01106E-004	0.00000E+000	3.74155E-004	2.40040E-001	9.33102E-001	3.57660E+000	9	...........
	100	1.34667	9.36875E-001	4.00177E-004	0.00000E+000	3.74916E-004	2.40040E-001	9.37188E-001	3.57660E+000	9	...........
	101	1.36	9.40895E-001	4.00494E-004	0.00000E+000	3.76823E-004	2.40040E-001	9.41209E-001	3.57660E+000	9	...........
	102	1.37333	9.44953E-001	4.01065E-004	0.00000E+000	3.78987E-004	2.40040E-001	9.45260E-001	3.57660E+000	9	...........
	103	1.38667	9.49028E-001	4.00987E-004	0.00000E+000	3.80548E-004	2.40040E-001	9.49331E-001	3.57660E+000	9	...........
	104	1.4	9.53029E-001	4.01257E-004	0.00000E+000	3.82409E-004	2.40040E-001	9.53351E-001	3.57660E+000	9	...........
	105	1.41333	9.56963E-001	4.01277E-004	0.00000E+000	3.84007E-004	2.40040E-001	9.57278E-001	3.57660E+000	9	...........
	106	1.42667	9.60825E-001	4.01058E-004	0.00000E+000	3.85346E-004	2.40040E-001	9.61151E-001	3.57660E+000	9	...........
	107	1.44	9.64638E-001	3.99364E-004	0.00000E+000	3.85242E-004	2.40040E-001	9.64986E-001	3.57660E+000	9	...........
	108	1.45333	9.68549E-001	4.00235E-004	0.00000E+000	3.87648E-004	2.40040E-001	9.68899E-001	3.57660E+000	9	...........
	109	1.46667	9.72361E-001	4.00516E-004	0.00000E+000	3.89446E-004	2.40040E-001	9.72705E-001	3.57660E+000	9	...........
	110	1.48	9.76106E-001	4.01367E-004	0.00000E+000	3.91777E-004	2.40040E-001	9.76424E-001	3.57660E+000	9	...........
	111	1.49333	9.79854E-001	3.99848E-004	0.00000E+000	3.91792E-004	2.40040E-001	9.80179E-001	3.57660E+000	9	...........
	112	1.50667	9.83560E-001	4.00548E-004	0.00000E+000	3.93963E-004	2.40040E-001	9.83889E-001	3.57660E+000	9	...........
	113	1.52	9.87228E-001	4.01054E-004	0.00000E+000	3.95932E-004	2.40040E-001	9.87537E-001	3.57660E+000	9	...........
	114	1.53333	9.90833E-001	3.99562E-004	0.00000E+000	3.95899E-004	2.40040E-001	9.91127E-001	3.57660E+000	9	...........
	115	1.54667	9.94319E-001	4.02007E-004	0.00000E+000	3.99723E-004	2.40040E-001	9.94621E-001	3.57660E+000	9	...........
	116	1.56	9.97826E-001	4.00228E-004	0.00000E+000	3.99358E-004	2.40040E-001	9.98146E-001	3.57660E+000	9	...........
	117	1.56333	9.99951E-001	4.03578E-004	0.00000E+000	4.03558E-004	2.40040E-001	1.00028E+000	3.57660E+000	9	...........
STARTTIMEOFFSET	QUANT	1590.502	Start Time Offset (s)
