EXPLAIN
TAG	PWR800_CHARGE
TITLE	LABEL	PWR Cyclic Charge Discharge (Cell) - Charge Step	Test &Identifier
DATE	LABEL	12-7-2017	Date
TIME	LABEL	14:57:38	Time
NOTES	NOTES	3	&Notes...
	supercap test cell
	0.4mg
	6M KOH
PSTAT	PSTAT	IFC5000-01520	Potentiostat
CAPACITY	QUANT	1.00000E-003	Capacity (A-hr)
CELLTYPE	SELECTOR	1	&Cell Type
WORKINGCONNECTION	SELECTOR	0	&Working Lead
MAXCHARGETIME	VARIABLEANDUNITS	1.00000E+002	s	1.00000E+002	second(s)	Max &Charge Time
CHARGECURRENT	QUANT	4.00000E-004	&Charge Current (A) 
VOLTAGEFINISH	TWOPARAM	F	1.00000E-003	3.60000E+003	&Voltage Finish	 I (A) < 	Max Time(s)
SAMPLETIME	QUANT	1.00000E-002	Sa&mple Period (s)
CHARGESTOPAT1	MULTIPARAM	4	1.00000E+000	Charge Stop At &1	Voltage > Limit	V
CHARGESTOPAT2	MULTIPARAM	0	0.00000E+000	Charge Stop At &2	None	N/A
AESBHCSELECTOR	TOGGLE	F	Save Both Half Cells
IRCOMP	TOGGLE	F	IR &Measure
EOC	QUANT	0	Open Circuit (V)
SEQUENCER	TOGGLE	TRUE	Run as Sequence
PSTATMODEL	IQUANT	53	Pstat Model
PSTATSECTION	LABEL	IFC5000-01520	Pstat Section
PSTATSERIALNO	LABEL	01520	Pstat Serial Number
CTRLMODE	IQUANT	0	Control Mode
ELECTROMETER	IQUANT	1	RE=0 or CS=1
IESTAB	IQUANT	0	I/E Stability
CASPEED	IQUANT	4	Control Amp Speed
CONVENTION	IQUANT	1	Current Convention
ICHRANGE	IQUANT	2	Ich Range
ICHRANGEMODE	TOGGLE	T	Ich Auto Range
ICHOFFSETENABLE	TOGGLE	F	Ich Offset Enable
ICHOFFSET	QUANT	0	Ich Offset (V)
ICHFILTER	IQUANT	1	Ich Filter
VCHRANGE	IQUANT	2	Vch Range
VCHRANGEMODE	TOGGLE	T	Vch Auto Range
VCHOFFSETENABLE	TOGGLE	F	Vch Offset Enable
VCHOFFSET	QUANT	0	Vch Offset (V)
VCHFILTER	IQUANT	1	Vch Filter
IERANGELOWERLIMIT	IQUANT	9	I/E Range Lower Limit
IERANGEMODE	TOGGLE	F	I/E AutoRange
IERANGE	IQUANT	9	I/E Range
ACHSELECT	IQUANT	1	Ach Select
ACHRANGE	IQUANT	2	Ach Range
ACHOFFSETENABLE	TOGGLE	F	Ach Offset Enable
ACHOFFSET	QUANT	0	Ach Offset (V)
ACHFILTER	IQUANT	1	Ach Filter
CABLEID	IQUANT	14	Cable ID
DCCALDATE	LABEL	5-7-2017	DC Calibration Date
ACCALDATE	LABEL	12/3/2015	AC Calibration Date
FRAMEWORKVERSION	QUANT	7.01	Framework Version
INSTRUMENTVERSION	LABEL	4.00	Instrument Version
CURVE	TABLE	115
	Pt	T	Vf	Im	Vu	Pwr	Sig	Ach	Temp	IERange	Over
	#	s	V	A	V	W	V	V	deg C	#	bits
	0	0.013333	3.71152E-001	4.00972E-004	0.00000E+000	1.48822E-004	2.40040E-001	3.71250E-001	3.57730E+000	9	...........
	1	0.026667	3.83072E-001	4.01087E-004	0.00000E+000	1.53645E-004	2.40040E-001	3.83146E-001	3.57730E+000	9	...........
	2	0.04	3.93323E-001	4.01196E-004	0.00000E+000	1.57800E-004	2.40040E-001	3.93398E-001	3.57730E+000	9	...........
	3	0.053333	4.02630E-001	4.02127E-004	0.00000E+000	1.61908E-004	2.40040E-001	4.02703E-001	3.57730E+000	9	...........
	4	0.066667	4.11338E-001	4.00704E-004	0.00000E+000	1.64825E-004	2.40040E-001	4.11420E-001	3.57730E+000	9	...........
	5	0.08	4.19651E-001	4.00542E-004	0.00000E+000	1.68088E-004	2.40040E-001	4.19739E-001	3.57730E+000	9	...........
	6	0.093333	4.27613E-001	4.02509E-004	0.00000E+000	1.72118E-004	2.40040E-001	4.27701E-001	3.57730E+000	9	...........
	7	0.106667	4.35293E-001	4.01598E-004	0.00000E+000	1.74813E-004	2.40040E-001	4.35381E-001	3.57730E+000	9	...........
	8	0.12	4.42741E-001	4.00302E-004	0.00000E+000	1.77230E-004	2.40040E-001	4.42829E-001	3.57730E+000	9	...........
	9	0.133333	4.50040E-001	4.01568E-004	0.00000E+000	1.80722E-004	2.40040E-001	4.50132E-001	3.57730E+000	9	...........
	10	0.146667	4.57140E-001	4.01575E-004	0.00000E+000	1.83576E-004	2.40040E-001	4.57224E-001	3.57730E+000	9	...........
	11	0.16	4.64194E-001	4.00318E-004	0.00000E+000	1.85825E-004	2.40040E-001	4.64281E-001	3.57730E+000	9	...........
	12	0.173333	4.71168E-001	4.01216E-004	0.00000E+000	1.89040E-004	2.40040E-001	4.71261E-001	3.57730E+000	9	...........
	13	0.186667	4.78045E-001	4.01292E-004	0.00000E+000	1.91835E-004	2.40040E-001	4.78142E-001	3.57730E+000	9	...........
	14	0.2	4.84807E-001	4.00848E-004	0.00000E+000	1.94334E-004	2.40040E-001	4.84904E-001	3.57730E+000	9	...........
	15	0.213333	4.91520E-001	4.01034E-004	0.00000E+000	1.97116E-004	2.40040E-001	4.91619E-001	3.57730E+000	9	...........
	16	0.226667	4.98134E-001	4.01683E-004	0.00000E+000	2.00092E-004	2.40040E-001	4.98238E-001	3.57730E+000	9	...........
	17	0.24	5.04632E-001	4.00400E-004	0.00000E+000	2.02055E-004	2.40040E-001	5.04734E-001	3.57730E+000	9	...........
	18	0.253333	5.11137E-001	4.02018E-004	0.00000E+000	2.05486E-004	2.40040E-001	5.11243E-001	3.57730E+000	9	...........
	19	0.266667	5.17566E-001	4.01085E-004	0.00000E+000	2.07588E-004	2.40040E-001	5.17671E-001	3.57730E+000	9	...........
	20	0.28	5.24013E-001	4.00346E-004	0.00000E+000	2.09786E-004	2.40040E-001	5.24118E-001	3.57730E+000	9	...........
	21	0.293333	5.30405E-001	4.01016E-004	0.00000E+000	2.12701E-004	2.40040E-001	5.30517E-001	3.57730E+000	9	...........
	22	0.306667	5.36503E-001	4.01426E-004	0.00000E+000	2.15367E-004	2.40040E-001	5.36671E-001	3.57730E+000	9	...........
	23	0.32	5.42800E-001	4.00712E-004	0.00000E+000	2.17506E-004	2.40040E-001	5.42985E-001	3.57730E+000	9	...........
	24	0.333333	5.48991E-001	4.01768E-004	0.00000E+000	2.20567E-004	2.40040E-001	5.49180E-001	3.57730E+000	9	...........
	25	0.346667	5.55164E-001	4.01066E-004	0.00000E+000	2.22657E-004	2.40040E-001	5.55351E-001	3.57730E+000	9	...........
	26	0.36	5.61290E-001	4.01435E-004	0.00000E+000	2.25321E-004	2.40040E-001	5.61486E-001	3.57730E+000	9	...........
	27	0.373333	5.67459E-001	4.00947E-004	0.00000E+000	2.27521E-004	2.40040E-001	5.67632E-001	3.57730E+000	9	...........
	28	0.386667	5.73612E-001	4.01495E-004	0.00000E+000	2.30302E-004	2.40040E-001	5.73806E-001	3.57730E+000	9	...........
	29	0.4	5.79644E-001	4.01149E-004	0.00000E+000	2.32524E-004	2.40040E-001	5.79868E-001	3.57730E+000	9	...........
	30	0.413333	5.85602E-001	4.00658E-004	0.00000E+000	2.34626E-004	2.40040E-001	5.85866E-001	3.57730E+000	9	...........
	31	0.426667	5.91689E-001	4.00893E-004	0.00000E+000	2.37204E-004	2.40040E-001	5.91951E-001	3.57730E+000	9	...........
	32	0.44	5.97705E-001	4.00085E-004	0.00000E+000	2.39133E-004	2.40040E-001	5.97965E-001	3.57730E+000	9	...........
	33	0.453333	6.03708E-001	4.00030E-004	0.00000E+000	2.41502E-004	2.40040E-001	6.03996E-001	3.57730E+000	9	...........
	34	0.466667	6.09642E-001	4.00635E-004	0.00000E+000	2.44244E-004	2.40040E-001	6.09961E-001	3.57730E+000	9	...........
	35	0.48	6.15678E-001	4.01821E-004	0.00000E+000	2.47392E-004	2.40040E-001	6.15963E-001	3.57730E+000	9	...........
	36	0.493333	6.21601E-001	4.01186E-004	0.00000E+000	2.49377E-004	2.40040E-001	6.21857E-001	3.57730E+000	9	...........
	37	0.506667	6.27536E-001	4.00307E-004	0.00000E+000	2.51207E-004	2.40040E-001	6.27799E-001	3.57730E+000	9	...........
	38	0.52	6.33409E-001	4.01204E-004	0.00000E+000	2.54127E-004	2.40040E-001	6.33638E-001	3.57730E+000	9	...........
	39	0.533333	6.39224E-001	4.00654E-004	0.00000E+000	2.56108E-004	2.40040E-001	6.39477E-001	3.57730E+000	9	...........
	40	0.546667	6.45045E-001	4.00995E-004	0.00000E+000	2.58660E-004	2.40040E-001	6.45308E-001	3.57730E+000	9	...........
	41	0.56	6.50886E-001	4.00327E-004	0.00000E+000	2.60567E-004	2.40040E-001	6.51121E-001	3.57730E+000	9	...........
	42	0.573333	6.56674E-001	4.00629E-004	0.00000E+000	2.63083E-004	2.40040E-001	6.56912E-001	3.57730E+000	9	...........
	43	0.586667	6.62485E-001	4.01602E-004	0.00000E+000	2.66056E-004	2.40040E-001	6.62742E-001	3.57730E+000	9	...........
	44	0.6	6.68261E-001	4.01238E-004	0.00000E+000	2.68131E-004	2.40040E-001	6.68464E-001	3.57730E+000	9	...........
	45	0.613333	6.73979E-001	4.00800E-004	0.00000E+000	2.70131E-004	2.40040E-001	6.74167E-001	3.57730E+000	9	...........
	46	0.626667	6.79699E-001	4.01670E-004	0.00000E+000	2.73015E-004	2.40040E-001	6.79888E-001	3.57730E+000	9	...........
	47	0.64	6.85412E-001	4.00115E-004	0.00000E+000	2.74243E-004	2.40040E-001	6.85635E-001	3.57730E+000	9	...........
	48	0.653333	6.91097E-001	4.01986E-004	0.00000E+000	2.77811E-004	2.40040E-001	6.91350E-001	3.57730E+000	9	...........
	49	0.666667	6.96736E-001	4.01073E-004	0.00000E+000	2.79442E-004	2.40040E-001	6.96978E-001	3.57730E+000	9	...........
	50	0.68	7.02401E-001	4.02568E-004	0.00000E+000	2.82764E-004	2.40040E-001	7.02628E-001	3.57730E+000	9	...........
	51	0.693333	7.08046E-001	4.00229E-004	0.00000E+000	2.83381E-004	2.40040E-001	7.08283E-001	3.57730E+000	9	...........
	52	0.706667	7.13599E-001	4.02328E-004	0.00000E+000	2.87101E-004	2.40040E-001	7.13881E-001	3.57730E+000	9	...........
	53	0.72	7.19239E-001	4.00781E-004	0.00000E+000	2.88257E-004	2.40040E-001	7.19489E-001	3.57760E+000	9	...........
	54	0.733333	7.24803E-001	4.01678E-004	0.00000E+000	2.91138E-004	2.40040E-001	7.25039E-001	3.57770E+000	9	...........
	55	0.746667	7.30335E-001	4.00254E-004	0.00000E+000	2.92320E-004	2.40040E-001	7.30583E-001	3.57770E+000	9	...........
	56	0.76	7.35737E-001	4.00382E-004	0.00000E+000	2.94576E-004	2.40040E-001	7.35968E-001	3.57770E+000	9	...........
	57	0.773333	7.41207E-001	4.00773E-004	0.00000E+000	2.97056E-004	2.40040E-001	7.41466E-001	3.57770E+000	9	...........
	58	0.786667	7.46679E-001	4.01328E-004	0.00000E+000	2.99663E-004	2.40040E-001	7.46916E-001	3.57770E+000	9	...........
	59	0.8	7.52053E-001	4.01568E-004	0.00000E+000	3.02001E-004	2.40040E-001	7.52310E-001	3.57770E+000	9	...........
	60	0.813333	7.57450E-001	4.01558E-004	0.00000E+000	3.04160E-004	2.40040E-001	7.57707E-001	3.57770E+000	9	...........
	61	0.826667	7.62832E-001	3.99789E-004	0.00000E+000	3.04972E-004	2.40040E-001	7.63089E-001	3.57770E+000	9	...........
	62	0.84	7.68193E-001	4.00896E-004	0.00000E+000	3.07965E-004	2.40040E-001	7.68439E-001	3.57770E+000	9	...........
	63	0.853333	7.73532E-001	4.02101E-004	0.00000E+000	3.11039E-004	2.40040E-001	7.73792E-001	3.57770E+000	9	...........
	64	0.866667	7.78874E-001	4.01048E-004	0.00000E+000	3.12366E-004	2.40040E-001	7.79146E-001	3.57770E+000	9	...........
	65	0.88	7.84115E-001	4.01054E-004	0.00000E+000	3.14473E-004	2.40040E-001	7.84372E-001	3.57770E+000	9	...........
	66	0.893333	7.89388E-001	4.01868E-004	0.00000E+000	3.17230E-004	2.40040E-001	7.89610E-001	3.57770E+000	9	...........
	67	0.906667	7.94644E-001	4.01511E-004	0.00000E+000	3.19058E-004	2.40040E-001	7.94877E-001	3.57770E+000	9	...........
	68	0.92	7.99796E-001	4.01004E-004	0.00000E+000	3.20722E-004	2.40040E-001	8.00022E-001	3.57770E+000	9	...........
	69	0.933333	8.04925E-001	3.99980E-004	0.00000E+000	3.21954E-004	2.40040E-001	8.05162E-001	3.57770E+000	9	...........
	70	0.946667	8.10008E-001	4.00935E-004	0.00000E+000	3.24760E-004	2.40040E-001	8.10266E-001	3.57770E+000	9	...........
	71	0.96	8.15115E-001	4.01879E-004	0.00000E+000	3.27577E-004	2.40040E-001	8.15375E-001	3.57770E+000	9	...........
	72	0.97333	8.20241E-001	4.01541E-004	0.00000E+000	3.29360E-004	2.40040E-001	8.20505E-001	3.57770E+000	9	...........
	73	0.98667	8.25326E-001	4.00644E-004	0.00000E+000	3.30662E-004	2.40040E-001	8.25572E-001	3.57770E+000	9	...........
	74	1	8.30338E-001	4.02713E-004	0.00000E+000	3.34388E-004	2.40040E-001	8.30590E-001	3.57770E+000	9	...........
	75	1.01333	8.35246E-001	4.00731E-004	0.00000E+000	3.34709E-004	2.40040E-001	8.35536E-001	3.57770E+000	9	...........
	76	1.02667	8.40111E-001	4.01673E-004	0.00000E+000	3.37450E-004	2.40040E-001	8.40381E-001	3.57770E+000	9	...........
	77	1.04	8.45036E-001	4.00877E-004	0.00000E+000	3.38756E-004	2.40040E-001	8.45303E-001	3.57770E+000	9	...........
	78	1.05333	8.49942E-001	4.00805E-004	0.00000E+000	3.40661E-004	2.40040E-001	8.50217E-001	3.57770E+000	9	...........
	79	1.06667	8.54760E-001	4.01856E-004	0.00000E+000	3.43490E-004	2.40040E-001	8.55039E-001	3.57770E+000	9	...........
	80	1.08	8.59588E-001	4.00188E-004	0.00000E+000	3.43996E-004	2.40040E-001	8.59883E-001	3.57770E+000	9	...........
	81	1.09333	8.64361E-001	4.00483E-004	0.00000E+000	3.46162E-004	2.40040E-001	8.64648E-001	3.57770E+000	9	...........
	82	1.10667	8.69079E-001	4.00871E-004	0.00000E+000	3.48389E-004	2.40040E-001	8.69386E-001	3.57770E+000	9	...........
	83	1.12	8.73739E-001	4.02408E-004	0.00000E+000	3.51600E-004	2.40040E-001	8.74058E-001	3.57770E+000	9	...........
	84	1.13333	8.78409E-001	4.00613E-004	0.00000E+000	3.51902E-004	2.40040E-001	8.78697E-001	3.57770E+000	9	...........
	85	1.14667	8.82989E-001	4.01022E-004	0.00000E+000	3.54098E-004	2.40040E-001	8.83324E-001	3.57770E+000	9	...........
	86	1.16	8.87571E-001	4.00460E-004	0.00000E+000	3.55436E-004	2.40040E-001	8.87881E-001	3.57770E+000	9	...........
	87	1.17333	8.92135E-001	4.01524E-004	0.00000E+000	3.58214E-004	2.40040E-001	8.92440E-001	3.57770E+000	9	...........
	88	1.18667	8.96669E-001	4.01424E-004	0.00000E+000	3.59945E-004	2.40040E-001	8.96968E-001	3.57770E+000	9	...........
	89	1.2	9.01153E-001	4.00560E-004	0.00000E+000	3.60966E-004	2.40040E-001	9.01455E-001	3.57770E+000	9	...........
	90	1.21333	9.05651E-001	4.01482E-004	0.00000E+000	3.63602E-004	2.40040E-001	9.05948E-001	3.57770E+000	9	...........
	91	1.22667	9.10057E-001	4.00270E-004	0.00000E+000	3.64268E-004	2.40040E-001	9.10327E-001	3.57770E+000	9	...........
	92	1.24	9.14424E-001	3.99662E-004	0.00000E+000	3.65461E-004	2.40040E-001	9.14707E-001	3.57770E+000	9	...........
	93	1.25333	9.18802E-001	4.01375E-004	0.00000E+000	3.68785E-004	2.40040E-001	9.19090E-001	3.57770E+000	9	...........
	94	1.26667	9.23168E-001	4.00345E-004	0.00000E+000	3.69585E-004	2.40040E-001	9.23432E-001	3.57770E+000	9	...........
	95	1.28	9.27405E-001	4.00373E-004	0.00000E+000	3.71308E-004	2.40040E-001	9.27692E-001	3.57770E+000	9	...........
	96	1.29333	9.31641E-001	4.00477E-004	0.00000E+000	3.73101E-004	2.40040E-001	9.31925E-001	3.57770E+000	9	...........
	97	1.30667	9.35794E-001	4.00998E-004	0.00000E+000	3.75251E-004	2.40040E-001	9.36114E-001	3.57770E+000	9	...........
	98	1.32	9.39986E-001	4.01855E-004	0.00000E+000	3.77738E-004	2.40040E-001	9.40295E-001	3.57770E+000	9	...........
	99	1.33333	9.44089E-001	4.00334E-004	0.00000E+000	3.77951E-004	2.40040E-001	9.44418E-001	3.57770E+000	9	...........
	100	1.34667	9.48218E-001	4.01451E-004	0.00000E+000	3.80663E-004	2.40040E-001	9.48506E-001	3.57770E+000	9	...........
	101	1.36	9.52223E-001	4.00054E-004	0.00000E+000	3.80941E-004	2.40040E-001	9.52508E-001	3.57770E+000	9	...........
	102	1.37333	9.56254E-001	4.01398E-004	0.00000E+000	3.83838E-004	2.40040E-001	9.56538E-001	3.57770E+000	9	...........
	103	1.38667	9.60210E-001	4.00605E-004	0.00000E+000	3.84665E-004	2.40040E-001	9.60541E-001	3.57770E+000	9	...........
	104	1.4	9.64137E-001	4.01614E-004	0.00000E+000	3.87211E-004	2.40040E-001	9.64473E-001	3.57770E+000	9	...........
	105	1.41333	9.68025E-001	4.01208E-004	0.00000E+000	3.88379E-004	2.40040E-001	9.68359E-001	3.57770E+000	9	...........
	106	1.42667	9.71914E-001	4.00774E-004	0.00000E+000	3.89518E-004	2.40040E-001	9.72269E-001	3.57770E+000	9	...........
	107	1.44	9.75741E-001	4.00942E-004	0.00000E+000	3.91215E-004	2.40040E-001	9.76064E-001	3.57770E+000	9	...........
	108	1.45333	9.79491E-001	3.99759E-004	0.00000E+000	3.91561E-004	2.40040E-001	9.79831E-001	3.57770E+000	9	...........
	109	1.46667	9.83281E-001	4.01993E-004	0.00000E+000	3.95272E-004	2.40040E-001	9.83605E-001	3.57770E+000	9	...........
	110	1.48	9.86934E-001	4.00298E-004	0.00000E+000	3.95068E-004	2.40040E-001	9.87265E-001	3.57770E+000	9	...........
	111	1.49333	9.90534E-001	4.00081E-004	0.00000E+000	3.96294E-004	2.40040E-001	9.90841E-001	3.57770E+000	9	...........
	112	1.50667	9.94146E-001	4.00963E-004	0.00000E+000	3.98616E-004	2.40040E-001	9.94481E-001	3.57770E+000	9	...........
	113	1.52	9.97723E-001	4.01606E-004	0.00000E+000	4.00691E-004	2.40040E-001	9.98077E-001	3.57770E+000	9	...........
	114	1.52333	9.99971E-001	4.03257E-004	0.00000E+000	4.03245E-004	2.40040E-001	1.00031E+000	3.57770E+000	9	...........
STARTTIMEOFFSET	QUANT	1862.741	Start Time Offset (s)
