EXPLAIN
TAG	PWR800_CHARGE
TITLE	LABEL	PWR Cyclic Charge Discharge (Cell) - Charge Step	Test &Identifier
DATE	LABEL	12-7-2017	Date
TIME	LABEL	15:23:39	Time
NOTES	NOTES	3	&Notes...
	supercap test cell
	0.4mg
	6M KOH
PSTAT	PSTAT	IFC5000-01520	Potentiostat
CAPACITY	QUANT	1.00000E-003	Capacity (A-hr)
CELLTYPE	SELECTOR	1	&Cell Type
WORKINGCONNECTION	SELECTOR	0	&Working Lead
MAXCHARGETIME	VARIABLEANDUNITS	1.00000E+002	s	1.00000E+002	second(s)	Max &Charge Time
CHARGECURRENT	QUANT	4.00000E-004	&Charge Current (A) 
VOLTAGEFINISH	TWOPARAM	F	1.00000E-003	3.60000E+003	&Voltage Finish	 I (A) < 	Max Time(s)
SAMPLETIME	QUANT	1.00000E-002	Sa&mple Period (s)
CHARGESTOPAT1	MULTIPARAM	4	1.00000E+000	Charge Stop At &1	Voltage > Limit	V
CHARGESTOPAT2	MULTIPARAM	0	0.00000E+000	Charge Stop At &2	None	N/A
AESBHCSELECTOR	TOGGLE	F	Save Both Half Cells
IRCOMP	TOGGLE	F	IR &Measure
EOC	QUANT	0	Open Circuit (V)
SEQUENCER	TOGGLE	TRUE	Run as Sequence
PSTATMODEL	IQUANT	53	Pstat Model
PSTATSECTION	LABEL	IFC5000-01520	Pstat Section
PSTATSERIALNO	LABEL	01520	Pstat Serial Number
CTRLMODE	IQUANT	0	Control Mode
ELECTROMETER	IQUANT	1	RE=0 or CS=1
IESTAB	IQUANT	0	I/E Stability
CASPEED	IQUANT	4	Control Amp Speed
CONVENTION	IQUANT	1	Current Convention
ICHRANGE	IQUANT	2	Ich Range
ICHRANGEMODE	TOGGLE	T	Ich Auto Range
ICHOFFSETENABLE	TOGGLE	F	Ich Offset Enable
ICHOFFSET	QUANT	0	Ich Offset (V)
ICHFILTER	IQUANT	1	Ich Filter
VCHRANGE	IQUANT	2	Vch Range
VCHRANGEMODE	TOGGLE	T	Vch Auto Range
VCHOFFSETENABLE	TOGGLE	F	Vch Offset Enable
VCHOFFSET	QUANT	0	Vch Offset (V)
VCHFILTER	IQUANT	1	Vch Filter
IERANGELOWERLIMIT	IQUANT	9	I/E Range Lower Limit
IERANGEMODE	TOGGLE	F	I/E AutoRange
IERANGE	IQUANT	9	I/E Range
ACHSELECT	IQUANT	1	Ach Select
ACHRANGE	IQUANT	2	Ach Range
ACHOFFSETENABLE	TOGGLE	F	Ach Offset Enable
ACHOFFSET	QUANT	0	Ach Offset (V)
ACHFILTER	IQUANT	1	Ach Filter
CABLEID	IQUANT	14	Cable ID
DCCALDATE	LABEL	5-7-2017	DC Calibration Date
ACCALDATE	LABEL	12/3/2015	AC Calibration Date
FRAMEWORKVERSION	QUANT	7.01	Framework Version
INSTRUMENTVERSION	LABEL	4.00	Instrument Version
CURVE	TABLE	105
	Pt	T	Vf	Im	Vu	Pwr	Sig	Ach	Temp	IERange	Over
	#	s	V	A	V	W	V	V	deg C	#	bits
	0	0.013333	3.92784E-001	4.01567E-004	0.00000E+000	1.57729E-004	2.40040E-001	3.92891E-001	3.57680E+000	9	...........
	1	0.026667	4.05914E-001	4.00282E-004	0.00000E+000	1.62480E-004	2.40040E-001	4.05993E-001	3.57680E+000	9	...........
	2	0.04	4.17165E-001	4.00841E-004	0.00000E+000	1.67217E-004	2.40040E-001	4.17255E-001	3.57680E+000	9	...........
	3	0.053333	4.27276E-001	4.00710E-004	0.00000E+000	1.71214E-004	2.40040E-001	4.27370E-001	3.57680E+000	9	...........
	4	0.066667	4.36706E-001	4.00999E-004	0.00000E+000	1.75119E-004	2.40040E-001	4.36799E-001	3.57680E+000	9	...........
	5	0.08	4.45616E-001	4.00628E-004	0.00000E+000	1.78526E-004	2.40040E-001	4.45710E-001	3.57680E+000	9	...........
	6	0.093333	4.54125E-001	3.99494E-004	0.00000E+000	1.81420E-004	2.40040E-001	4.54217E-001	3.57680E+000	9	...........
	7	0.106667	4.62356E-001	4.00680E-004	0.00000E+000	1.85257E-004	2.40040E-001	4.62450E-001	3.57680E+000	9	...........
	8	0.12	4.70356E-001	4.01084E-004	0.00000E+000	1.88652E-004	2.40040E-001	4.70456E-001	3.57680E+000	9	...........
	9	0.133333	4.78172E-001	4.00046E-004	0.00000E+000	1.91291E-004	2.40040E-001	4.78277E-001	3.57680E+000	9	...........
	10	0.146667	4.85788E-001	4.01592E-004	0.00000E+000	1.95088E-004	2.40040E-001	4.85886E-001	3.57680E+000	9	...........
	11	0.16	4.93275E-001	4.01571E-004	0.00000E+000	1.98085E-004	2.40040E-001	4.93377E-001	3.57680E+000	9	...........
	12	0.173333	5.00628E-001	4.01101E-004	0.00000E+000	2.00803E-004	2.40040E-001	5.00736E-001	3.57680E+000	9	...........
	13	0.186667	5.07860E-001	4.00482E-004	0.00000E+000	2.03389E-004	2.40040E-001	5.07966E-001	3.57680E+000	9	...........
	14	0.2	5.15060E-001	4.01641E-004	0.00000E+000	2.06869E-004	2.40040E-001	5.15175E-001	3.57680E+000	9	...........
	15	0.213333	5.22181E-001	4.01592E-004	0.00000E+000	2.09704E-004	2.40040E-001	5.22294E-001	3.57680E+000	9	...........
	16	0.226667	5.29148E-001	4.01673E-004	0.00000E+000	2.12545E-004	2.40040E-001	5.29261E-001	3.57680E+000	9	...........
	17	0.24	5.35878E-001	3.99705E-004	0.00000E+000	2.14193E-004	2.40040E-001	5.36075E-001	3.57680E+000	9	...........
	18	0.253333	5.42756E-001	4.00346E-004	0.00000E+000	2.17290E-004	2.40040E-001	5.42957E-001	3.57680E+000	9	...........
	19	0.266667	5.49588E-001	4.01004E-004	0.00000E+000	2.20387E-004	2.40040E-001	5.49845E-001	3.57680E+000	9	...........
	20	0.28	5.56343E-001	4.01108E-004	0.00000E+000	2.23153E-004	2.40040E-001	5.56584E-001	3.57680E+000	9	...........
	21	0.293333	5.63068E-001	4.01088E-004	0.00000E+000	2.25840E-004	2.40040E-001	5.63325E-001	3.57680E+000	9	...........
	22	0.306667	5.69751E-001	4.00288E-004	0.00000E+000	2.28064E-004	2.40040E-001	5.69970E-001	3.57680E+000	9	...........
	23	0.32	5.76328E-001	4.00897E-004	0.00000E+000	2.31048E-004	2.40040E-001	5.76578E-001	3.57680E+000	9	...........
	24	0.333333	5.82906E-001	4.00160E-004	0.00000E+000	2.33256E-004	2.40040E-001	5.83135E-001	3.57680E+000	9	...........
	25	0.346667	5.89459E-001	4.00694E-004	0.00000E+000	2.36193E-004	2.40040E-001	5.89712E-001	3.57680E+000	9	...........
	26	0.36	5.95972E-001	4.01319E-004	0.00000E+000	2.39175E-004	2.40040E-001	5.96218E-001	3.57680E+000	9	...........
	27	0.373333	6.02532E-001	4.01989E-004	0.00000E+000	2.42211E-004	2.40040E-001	6.02787E-001	3.57680E+000	9	...........
	28	0.386667	6.08980E-001	4.00639E-004	0.00000E+000	2.43981E-004	2.40040E-001	6.09228E-001	3.57680E+000	9	...........
	29	0.4	6.15394E-001	4.00434E-004	0.00000E+000	2.46425E-004	2.40040E-001	6.15653E-001	3.57680E+000	9	...........
	30	0.413333	6.21767E-001	4.01949E-004	0.00000E+000	2.49919E-004	2.40040E-001	6.21987E-001	3.57680E+000	9	...........
	31	0.426667	6.28126E-001	4.00843E-004	0.00000E+000	2.51780E-004	2.40040E-001	6.28344E-001	3.57680E+000	9	...........
	32	0.44	6.34471E-001	4.00920E-004	0.00000E+000	2.54372E-004	2.40040E-001	6.34716E-001	3.57680E+000	9	...........
	33	0.453333	6.40792E-001	4.00681E-004	0.00000E+000	2.56753E-004	2.40040E-001	6.41022E-001	3.57680E+000	9	...........
	34	0.466667	6.47023E-001	4.00623E-004	0.00000E+000	2.59212E-004	2.40040E-001	6.47222E-001	3.57680E+000	9	...........
	35	0.48	6.53288E-001	4.00893E-004	0.00000E+000	2.61898E-004	2.40040E-001	6.53507E-001	3.57680E+000	9	...........
	36	0.493333	6.59525E-001	4.01031E-004	0.00000E+000	2.64490E-004	2.40040E-001	6.59704E-001	3.57680E+000	9	...........
	37	0.506667	6.65779E-001	4.00496E-004	0.00000E+000	2.66642E-004	2.40040E-001	6.66000E-001	3.57680E+000	9	...........
	38	0.52	6.72039E-001	4.00579E-004	0.00000E+000	2.69205E-004	2.40040E-001	6.72228E-001	3.57680E+000	9	...........
	39	0.533333	6.78138E-001	4.00182E-004	0.00000E+000	2.71379E-004	2.40040E-001	6.78342E-001	3.57680E+000	9	...........
	40	0.546667	6.84229E-001	4.00105E-004	0.00000E+000	2.73764E-004	2.40040E-001	6.84460E-001	3.57680E+000	9	...........
	41	0.56	6.90300E-001	4.01273E-004	0.00000E+000	2.76999E-004	2.40040E-001	6.90535E-001	3.57680E+000	9	...........
	42	0.573333	6.96400E-001	4.00573E-004	0.00000E+000	2.78959E-004	2.40040E-001	6.96600E-001	3.57680E+000	9	...........
	43	0.586667	7.02447E-001	4.01075E-004	0.00000E+000	2.81734E-004	2.40040E-001	7.02660E-001	3.57680E+000	9	...........
	44	0.6	7.08387E-001	4.00756E-004	0.00000E+000	2.83891E-004	2.40040E-001	7.08603E-001	3.57680E+000	9	...........
	45	0.613333	7.14318E-001	4.00386E-004	0.00000E+000	2.86003E-004	2.40040E-001	7.14538E-001	3.57680E+000	9	...........
	46	0.626667	7.20356E-001	4.00143E-004	0.00000E+000	2.88245E-004	2.40040E-001	7.20545E-001	3.57680E+000	9	...........
	47	0.64	7.26282E-001	3.99420E-004	0.00000E+000	2.90091E-004	2.40040E-001	7.26501E-001	3.57680E+000	9	...........
	48	0.653333	7.32215E-001	4.01444E-004	0.00000E+000	2.93943E-004	2.40040E-001	7.32425E-001	3.57680E+000	9	...........
	49	0.666667	7.38028E-001	4.00635E-004	0.00000E+000	2.95679E-004	2.40040E-001	7.38220E-001	3.57680E+000	9	...........
	50	0.68	7.43871E-001	4.01967E-004	0.00000E+000	2.99012E-004	2.40040E-001	7.44069E-001	3.57680E+000	9	...........
	51	0.693333	7.49669E-001	4.00207E-004	0.00000E+000	3.00023E-004	2.40040E-001	7.49860E-001	3.57680E+000	9	...........
	52	0.706667	7.55396E-001	4.01198E-004	0.00000E+000	3.03063E-004	2.40040E-001	7.55601E-001	3.57680E+000	9	...........
	53	0.72	7.61134E-001	4.00824E-004	0.00000E+000	3.05081E-004	2.40040E-001	7.61341E-001	3.57680E+000	9	...........
	54	0.733333	7.66852E-001	4.01021E-004	0.00000E+000	3.07524E-004	2.40040E-001	7.67097E-001	3.57680E+000	9	...........
	55	0.746667	7.72521E-001	4.01922E-004	0.00000E+000	3.10493E-004	2.40040E-001	7.72790E-001	3.57680E+000	9	...........
	56	0.76	7.78153E-001	4.00739E-004	0.00000E+000	3.11836E-004	2.40040E-001	7.78399E-001	3.57680E+000	9	...........
	57	0.773333	7.83751E-001	4.00367E-004	0.00000E+000	3.13788E-004	2.40040E-001	7.84021E-001	3.57680E+000	9	...........
	58	0.786667	7.89306E-001	4.01518E-004	0.00000E+000	3.16920E-004	2.40040E-001	7.89574E-001	3.57680E+000	9	...........
	59	0.8	7.94834E-001	4.01161E-004	0.00000E+000	3.18856E-004	2.40040E-001	7.95069E-001	3.57680E+000	9	...........
	60	0.813333	8.00295E-001	4.01042E-004	0.00000E+000	3.20952E-004	2.40040E-001	8.00550E-001	3.57680E+000	9	...........
	61	0.826667	8.05747E-001	4.00378E-004	0.00000E+000	3.22603E-004	2.40040E-001	8.06021E-001	3.57680E+000	9	...........
	62	0.84	8.11114E-001	4.00529E-004	0.00000E+000	3.24875E-004	2.40040E-001	8.11377E-001	3.57680E+000	9	...........
	63	0.853333	8.16502E-001	4.00755E-004	0.00000E+000	3.27218E-004	2.40040E-001	8.16761E-001	3.57680E+000	9	...........
	64	0.866667	8.21866E-001	4.00711E-004	0.00000E+000	3.29331E-004	2.40040E-001	8.22135E-001	3.57680E+000	9	...........
	65	0.88	8.27136E-001	4.01467E-004	0.00000E+000	3.32068E-004	2.40040E-001	8.27422E-001	3.57680E+000	9	...........
	66	0.893333	8.32374E-001	4.01172E-004	0.00000E+000	3.33925E-004	2.40040E-001	8.32677E-001	3.57680E+000	9	...........
	67	0.906667	8.37611E-001	4.00149E-004	0.00000E+000	3.35169E-004	2.40040E-001	8.37910E-001	3.57680E+000	9	...........
	68	0.92	8.42810E-001	4.01392E-004	0.00000E+000	3.38297E-004	2.40040E-001	8.43103E-001	3.57680E+000	9	...........
	69	0.933333	8.47992E-001	4.00024E-004	0.00000E+000	3.39217E-004	2.40040E-001	8.48314E-001	3.57707E+000	9	...........
	70	0.946667	8.53038E-001	4.00191E-004	0.00000E+000	3.41378E-004	2.40040E-001	8.53309E-001	3.57790E+000	9	...........
	71	0.96	8.58007E-001	3.99601E-004	0.00000E+000	3.42861E-004	2.40040E-001	8.58321E-001	3.57790E+000	9	...........
	72	0.97333	8.63057E-001	4.00078E-004	0.00000E+000	3.45290E-004	2.40040E-001	8.63351E-001	3.57790E+000	9	...........
	73	0.98667	8.68057E-001	4.02138E-004	0.00000E+000	3.49079E-004	2.40040E-001	8.68373E-001	3.57790E+000	9	...........
	74	1	8.73028E-001	4.01848E-004	0.00000E+000	3.50825E-004	2.40040E-001	8.73319E-001	3.57790E+000	9	...........
	75	1.01333	8.77962E-001	4.01362E-004	0.00000E+000	3.52380E-004	2.40040E-001	8.78259E-001	3.57790E+000	9	...........
	76	1.02667	8.82877E-001	4.00422E-004	0.00000E+000	3.53523E-004	2.40040E-001	8.83161E-001	3.57790E+000	9	...........
	77	1.04	8.87698E-001	4.00741E-004	0.00000E+000	3.55737E-004	2.40040E-001	8.87994E-001	3.57790E+000	9	...........
	78	1.05333	8.92445E-001	4.02205E-004	0.00000E+000	3.58946E-004	2.40040E-001	8.92748E-001	3.57790E+000	9	...........
	79	1.06667	8.97202E-001	4.01489E-004	0.00000E+000	3.60217E-004	2.40040E-001	8.97525E-001	3.57790E+000	9	...........
	80	1.08	9.01856E-001	4.01336E-004	0.00000E+000	3.61947E-004	2.40040E-001	9.02193E-001	3.57790E+000	9	...........
	81	1.09333	9.06471E-001	4.01644E-004	0.00000E+000	3.64079E-004	2.40040E-001	9.06802E-001	3.57790E+000	9	...........
	82	1.10667	9.11081E-001	4.01087E-004	0.00000E+000	3.65422E-004	2.40040E-001	9.11407E-001	3.57790E+000	9	...........
	83	1.12	9.15637E-001	4.00972E-004	0.00000E+000	3.67145E-004	2.40040E-001	9.15977E-001	3.57790E+000	9	...........
	84	1.13333	9.20174E-001	4.00055E-004	0.00000E+000	3.68120E-004	2.40040E-001	9.20502E-001	3.57790E+000	9	...........
	85	1.14667	9.24654E-001	4.00624E-004	0.00000E+000	3.70439E-004	2.40040E-001	9.24959E-001	3.57790E+000	9	...........
	86	1.16	9.29097E-001	3.99943E-004	0.00000E+000	3.71586E-004	2.40040E-001	9.29399E-001	3.57790E+000	9	...........
	87	1.17333	9.33479E-001	4.00273E-004	0.00000E+000	3.73646E-004	2.40040E-001	9.33789E-001	3.57790E+000	9	...........
	88	1.18667	9.37826E-001	4.01288E-004	0.00000E+000	3.76338E-004	2.40040E-001	9.38161E-001	3.57790E+000	9	...........
	89	1.2	9.42176E-001	4.00362E-004	0.00000E+000	3.77211E-004	2.40040E-001	9.42469E-001	3.57790E+000	9	...........
	90	1.21333	9.46464E-001	4.02208E-004	0.00000E+000	3.80675E-004	2.40040E-001	9.46776E-001	3.57790E+000	9	...........
	91	1.22667	9.50709E-001	4.01298E-004	0.00000E+000	3.81518E-004	2.40040E-001	9.51049E-001	3.57790E+000	9	...........
	92	1.24	9.54894E-001	4.00149E-004	0.00000E+000	3.82100E-004	2.40040E-001	9.55225E-001	3.57790E+000	9	...........
	93	1.25333	9.58997E-001	4.00152E-004	0.00000E+000	3.83745E-004	2.40040E-001	9.59353E-001	3.57790E+000	9	...........
	94	1.26667	9.63060E-001	4.01630E-004	0.00000E+000	3.86793E-004	2.40040E-001	9.63443E-001	3.57790E+000	9	...........
	95	1.28	9.67170E-001	3.99669E-004	0.00000E+000	3.86548E-004	2.40040E-001	9.67503E-001	3.57790E+000	9	...........
	96	1.29333	9.71175E-001	4.00102E-004	0.00000E+000	3.88569E-004	2.40040E-001	9.71554E-001	3.57790E+000	9	...........
	97	1.30667	9.75223E-001	3.98887E-004	0.00000E+000	3.89004E-004	2.40040E-001	9.75551E-001	3.57790E+000	9	...........
	98	1.32	9.79133E-001	4.01347E-004	0.00000E+000	3.92972E-004	2.40040E-001	9.79445E-001	3.57790E+000	9	...........
	99	1.33333	9.83009E-001	4.00685E-004	0.00000E+000	3.93876E-004	2.40040E-001	9.83341E-001	3.57790E+000	9	...........
	100	1.34667	9.86816E-001	4.00636E-004	0.00000E+000	3.95354E-004	2.40040E-001	9.87160E-001	3.57790E+000	9	...........
	101	1.36	9.90654E-001	4.01243E-004	0.00000E+000	3.97493E-004	2.40040E-001	9.90965E-001	3.57790E+000	9	...........
	102	1.37333	9.94395E-001	4.00473E-004	0.00000E+000	3.98228E-004	2.40040E-001	9.94712E-001	3.57790E+000	9	...........
	103	1.38667	9.98129E-001	3.99807E-004	0.00000E+000	3.99059E-004	2.40040E-001	9.98449E-001	3.57790E+000	9	...........
	104	1.38833	1.00010E+000	3.97552E-004	0.00000E+000	3.97590E-004	2.40040E-001	1.00042E+000	3.57790E+000	9	...........
STARTTIMEOFFSET	QUANT	3077.308	Start Time Offset (s)
