EXPLAIN
TAG	PWR800_CHARGE
TITLE	LABEL	PWR Cyclic Charge Discharge (Cell) - Charge Step	Test &Identifier
DATE	LABEL	12-7-2017	Date
TIME	LABEL	14:51:45	Time
NOTES	NOTES	3	&Notes...
	supercap test cell
	0.4mg
	6M KOH
PSTAT	PSTAT	IFC5000-01520	Potentiostat
CAPACITY	QUANT	1.00000E-003	Capacity (A-hr)
CELLTYPE	SELECTOR	1	&Cell Type
WORKINGCONNECTION	SELECTOR	0	&Working Lead
MAXCHARGETIME	VARIABLEANDUNITS	1.00000E+002	s	1.00000E+002	second(s)	Max &Charge Time
CHARGECURRENT	QUANT	4.00000E-004	&Charge Current (A) 
VOLTAGEFINISH	TWOPARAM	F	1.00000E-003	3.60000E+003	&Voltage Finish	 I (A) < 	Max Time(s)
SAMPLETIME	QUANT	1.00000E-002	Sa&mple Period (s)
CHARGESTOPAT1	MULTIPARAM	4	1.00000E+000	Charge Stop At &1	Voltage > Limit	V
CHARGESTOPAT2	MULTIPARAM	0	0.00000E+000	Charge Stop At &2	None	N/A
AESBHCSELECTOR	TOGGLE	F	Save Both Half Cells
IRCOMP	TOGGLE	F	IR &Measure
EOC	QUANT	0	Open Circuit (V)
SEQUENCER	TOGGLE	TRUE	Run as Sequence
PSTATMODEL	IQUANT	53	Pstat Model
PSTATSECTION	LABEL	IFC5000-01520	Pstat Section
PSTATSERIALNO	LABEL	01520	Pstat Serial Number
CTRLMODE	IQUANT	0	Control Mode
ELECTROMETER	IQUANT	1	RE=0 or CS=1
IESTAB	IQUANT	0	I/E Stability
CASPEED	IQUANT	4	Control Amp Speed
CONVENTION	IQUANT	1	Current Convention
ICHRANGE	IQUANT	2	Ich Range
ICHRANGEMODE	TOGGLE	T	Ich Auto Range
ICHOFFSETENABLE	TOGGLE	F	Ich Offset Enable
ICHOFFSET	QUANT	0	Ich Offset (V)
ICHFILTER	IQUANT	1	Ich Filter
VCHRANGE	IQUANT	2	Vch Range
VCHRANGEMODE	TOGGLE	T	Vch Auto Range
VCHOFFSETENABLE	TOGGLE	F	Vch Offset Enable
VCHOFFSET	QUANT	0	Vch Offset (V)
VCHFILTER	IQUANT	1	Vch Filter
IERANGELOWERLIMIT	IQUANT	9	I/E Range Lower Limit
IERANGEMODE	TOGGLE	F	I/E AutoRange
IERANGE	IQUANT	9	I/E Range
ACHSELECT	IQUANT	1	Ach Select
ACHRANGE	IQUANT	2	Ach Range
ACHOFFSETENABLE	TOGGLE	F	Ach Offset Enable
ACHOFFSET	QUANT	0	Ach Offset (V)
ACHFILTER	IQUANT	1	Ach Filter
CABLEID	IQUANT	14	Cable ID
DCCALDATE	LABEL	5-7-2017	DC Calibration Date
ACCALDATE	LABEL	12/3/2015	AC Calibration Date
FRAMEWORKVERSION	QUANT	7.01	Framework Version
INSTRUMENTVERSION	LABEL	4.00	Instrument Version
CURVE	TABLE	118
	Pt	T	Vf	Im	Vu	Pwr	Sig	Ach	Temp	IERange	Over
	#	s	V	A	V	W	V	V	deg C	#	bits
	0	0.013333	3.66205E-001	4.00966E-004	0.00000E+000	1.46836E-004	2.40040E-001	3.66287E-001	3.57630E+000	9	...........
	1	0.026667	3.77813E-001	4.00996E-004	0.00000E+000	1.51502E-004	2.40040E-001	3.77886E-001	3.57630E+000	9	...........
	2	0.04	3.87730E-001	4.01947E-004	0.00000E+000	1.55847E-004	2.40040E-001	3.87808E-001	3.57632E+000	9	...........
	3	0.053333	3.96792E-001	4.00483E-004	0.00000E+000	1.58909E-004	2.40040E-001	3.96869E-001	3.57660E+000	9	...........
	4	0.066667	4.05216E-001	3.99981E-004	0.00000E+000	1.62079E-004	2.40040E-001	4.05294E-001	3.57660E+000	9	...........
	5	0.08	4.13249E-001	4.00838E-004	0.00000E+000	1.65646E-004	2.40040E-001	4.13334E-001	3.57660E+000	9	...........
	6	0.093333	4.20984E-001	4.00467E-004	0.00000E+000	1.68590E-004	2.40040E-001	4.21066E-001	3.57660E+000	9	...........
	7	0.106667	4.28508E-001	4.01436E-004	0.00000E+000	1.72019E-004	2.40040E-001	4.28595E-001	3.57660E+000	9	...........
	8	0.12	4.35906E-001	3.99606E-004	0.00000E+000	1.74191E-004	2.40040E-001	4.35994E-001	3.57660E+000	9	...........
	9	0.133333	4.43032E-001	4.01556E-004	0.00000E+000	1.77902E-004	2.40040E-001	4.43120E-001	3.57660E+000	9	...........
	10	0.146667	4.50059E-001	4.02452E-004	0.00000E+000	1.81127E-004	2.40040E-001	4.50150E-001	3.57660E+000	9	...........
	11	0.16	4.56993E-001	4.02024E-004	0.00000E+000	1.83723E-004	2.40040E-001	4.57083E-001	3.57660E+000	9	...........
	12	0.173333	4.63821E-001	4.00829E-004	0.00000E+000	1.85913E-004	2.40040E-001	4.63911E-001	3.57660E+000	9	...........
	13	0.186667	4.70540E-001	4.00714E-004	0.00000E+000	1.88552E-004	2.40040E-001	4.70635E-001	3.57660E+000	9	...........
	14	0.2	4.77149E-001	4.01776E-004	0.00000E+000	1.91707E-004	2.40040E-001	4.77242E-001	3.57660E+000	9	...........
	15	0.213333	4.83688E-001	4.00640E-004	0.00000E+000	1.93785E-004	2.40040E-001	4.83790E-001	3.57660E+000	9	...........
	16	0.226667	4.90210E-001	4.00464E-004	0.00000E+000	1.96311E-004	2.40040E-001	4.90302E-001	3.57660E+000	9	...........
	17	0.24	4.96626E-001	4.01496E-004	0.00000E+000	1.99393E-004	2.40040E-001	4.96723E-001	3.57660E+000	9	...........
	18	0.253333	5.02970E-001	3.99816E-004	0.00000E+000	2.01095E-004	2.40040E-001	5.03076E-001	3.57660E+000	9	...........
	19	0.266667	5.09258E-001	3.99874E-004	0.00000E+000	2.03639E-004	2.40040E-001	5.09364E-001	3.57660E+000	9	...........
	20	0.28	5.15468E-001	4.00307E-004	0.00000E+000	2.06346E-004	2.40040E-001	5.15573E-001	3.57660E+000	9	...........
	21	0.293333	5.21771E-001	4.00789E-004	0.00000E+000	2.09120E-004	2.40040E-001	5.21876E-001	3.57660E+000	9	...........
	22	0.306667	5.28035E-001	4.01400E-004	0.00000E+000	2.11953E-004	2.40040E-001	5.28149E-001	3.57660E+000	9	...........
	23	0.32	5.34012E-001	4.01344E-004	0.00000E+000	2.14322E-004	2.40040E-001	5.34210E-001	3.57660E+000	9	...........
	24	0.333333	5.40085E-001	4.01948E-004	0.00000E+000	2.17086E-004	2.40040E-001	5.40315E-001	3.57660E+000	9	...........
	25	0.346667	5.46120E-001	3.99921E-004	0.00000E+000	2.18405E-004	2.40040E-001	5.46330E-001	3.57660E+000	9	...........
	26	0.36	5.52179E-001	4.01283E-004	0.00000E+000	2.21580E-004	2.40040E-001	5.52390E-001	3.57660E+000	9	...........
	27	0.373333	5.58258E-001	4.01067E-004	0.00000E+000	2.23899E-004	2.40040E-001	5.58470E-001	3.57660E+000	9	...........
	28	0.386667	5.64325E-001	4.00633E-004	0.00000E+000	2.26087E-004	2.40040E-001	5.64565E-001	3.57660E+000	9	...........
	29	0.4	5.70282E-001	4.00806E-004	0.00000E+000	2.28573E-004	2.40040E-001	5.70513E-001	3.57660E+000	9	...........
	30	0.413333	5.76286E-001	4.01248E-004	0.00000E+000	2.31234E-004	2.40040E-001	5.76551E-001	3.57660E+000	9	...........
	31	0.426667	5.82205E-001	3.99785E-004	0.00000E+000	2.32757E-004	2.40040E-001	5.82463E-001	3.57660E+000	9	...........
	32	0.44	5.88071E-001	4.01501E-004	0.00000E+000	2.36111E-004	2.40040E-001	5.88317E-001	3.57660E+000	9	...........
	33	0.453333	5.93932E-001	4.01850E-004	0.00000E+000	2.38672E-004	2.40040E-001	5.94187E-001	3.57660E+000	9	...........
	34	0.466667	5.99738E-001	4.00853E-004	0.00000E+000	2.40407E-004	2.40040E-001	5.99981E-001	3.57660E+000	9	...........
	35	0.48	6.05603E-001	4.00408E-004	0.00000E+000	2.42488E-004	2.40040E-001	6.05857E-001	3.57660E+000	9	...........
	36	0.493333	6.11460E-001	4.01122E-004	0.00000E+000	2.45270E-004	2.40040E-001	6.11706E-001	3.57660E+000	9	...........
	37	0.506667	6.17335E-001	4.00195E-004	0.00000E+000	2.47054E-004	2.40040E-001	6.17533E-001	3.57660E+000	9	...........
	38	0.52	6.23100E-001	4.00868E-004	0.00000E+000	2.49781E-004	2.40040E-001	6.23291E-001	3.57660E+000	9	...........
	39	0.533333	6.28788E-001	4.00215E-004	0.00000E+000	2.51650E-004	2.40040E-001	6.29003E-001	3.57660E+000	9	...........
	40	0.546667	6.34567E-001	4.01239E-004	0.00000E+000	2.54613E-004	2.40040E-001	6.34799E-001	3.57660E+000	9	...........
	41	0.56	6.40318E-001	4.01432E-004	0.00000E+000	2.57044E-004	2.40040E-001	6.40549E-001	3.57660E+000	9	...........
	42	0.573333	6.46048E-001	4.00023E-004	0.00000E+000	2.58434E-004	2.40040E-001	6.46259E-001	3.57660E+000	9	...........
	43	0.586667	6.51755E-001	4.01437E-004	0.00000E+000	2.61638E-004	2.40040E-001	6.51948E-001	3.57660E+000	9	...........
	44	0.6	6.57414E-001	4.00045E-004	0.00000E+000	2.62995E-004	2.40040E-001	6.57623E-001	3.57660E+000	9	...........
	45	0.613333	6.63008E-001	4.01547E-004	0.00000E+000	2.66229E-004	2.40040E-001	6.63237E-001	3.57660E+000	9	...........
	46	0.626667	6.68617E-001	4.01344E-004	0.00000E+000	2.68346E-004	2.40040E-001	6.68862E-001	3.57660E+000	9	...........
	47	0.64	6.74274E-001	4.01184E-004	0.00000E+000	2.70508E-004	2.40040E-001	6.74513E-001	3.57660E+000	9	...........
	48	0.653333	6.79928E-001	4.00654E-004	0.00000E+000	2.72416E-004	2.40040E-001	6.80150E-001	3.57660E+000	9	...........
	49	0.666667	6.85420E-001	4.00883E-004	0.00000E+000	2.74773E-004	2.40040E-001	6.85655E-001	3.57660E+000	9	...........
	50	0.68	6.90967E-001	3.99830E-004	0.00000E+000	2.76269E-004	2.40040E-001	6.91227E-001	3.57660E+000	9	...........
	51	0.693333	6.96471E-001	4.01099E-004	0.00000E+000	2.79354E-004	2.40040E-001	6.96708E-001	3.57660E+000	9	...........
	52	0.706667	7.02015E-001	4.01634E-004	0.00000E+000	2.81953E-004	2.40040E-001	7.02251E-001	3.57660E+000	9	...........
	53	0.72	7.07503E-001	4.01221E-004	0.00000E+000	2.83865E-004	2.40040E-001	7.07739E-001	3.57660E+000	9	...........
	54	0.733333	7.12927E-001	4.00769E-004	0.00000E+000	2.85719E-004	2.40040E-001	7.13183E-001	3.57660E+000	9	...........
	55	0.746667	7.18474E-001	4.01414E-004	0.00000E+000	2.88406E-004	2.40040E-001	7.18701E-001	3.57660E+000	9	...........
	56	0.76	7.23924E-001	4.01060E-004	0.00000E+000	2.90337E-004	2.40040E-001	7.24119E-001	3.57660E+000	9	...........
	57	0.773333	7.29320E-001	4.00307E-004	0.00000E+000	2.91952E-004	2.40040E-001	7.29543E-001	3.57660E+000	9	...........
	58	0.786667	7.34763E-001	4.00061E-004	0.00000E+000	2.93950E-004	2.40040E-001	7.34966E-001	3.57660E+000	9	...........
	59	0.8	7.40164E-001	4.01396E-004	0.00000E+000	2.97099E-004	2.40040E-001	7.40396E-001	3.57660E+000	9	...........
	60	0.813333	7.45479E-001	4.00653E-004	0.00000E+000	2.98679E-004	2.40040E-001	7.45695E-001	3.57660E+000	9	...........
	61	0.826667	7.50846E-001	4.01038E-004	0.00000E+000	3.01118E-004	2.40040E-001	7.51059E-001	3.57660E+000	9	...........
	62	0.84	7.56151E-001	4.02778E-004	0.00000E+000	3.04561E-004	2.40040E-001	7.56376E-001	3.57660E+000	9	...........
	63	0.853333	7.61389E-001	4.00098E-004	0.00000E+000	3.04630E-004	2.40040E-001	7.61614E-001	3.57660E+000	9	...........
	64	0.866667	7.66701E-001	4.01143E-004	0.00000E+000	3.07557E-004	2.40040E-001	7.66952E-001	3.57660E+000	9	...........
	65	0.88	7.71978E-001	3.99951E-004	0.00000E+000	3.08753E-004	2.40040E-001	7.72220E-001	3.57660E+000	9	...........
	66	0.893333	7.77167E-001	4.01011E-004	0.00000E+000	3.11652E-004	2.40040E-001	7.77440E-001	3.57660E+000	9	...........
	67	0.906667	7.82401E-001	4.01591E-004	0.00000E+000	3.14205E-004	2.40040E-001	7.82636E-001	3.57660E+000	9	...........
	68	0.92	7.87505E-001	4.00864E-004	0.00000E+000	3.15682E-004	2.40040E-001	7.87757E-001	3.57660E+000	9	...........
	69	0.933333	7.92689E-001	4.00360E-004	0.00000E+000	3.17362E-004	2.40040E-001	7.92940E-001	3.57660E+000	9	...........
	70	0.946667	7.97829E-001	3.99844E-004	0.00000E+000	3.19007E-004	2.40040E-001	7.98071E-001	3.57660E+000	9	...........
	71	0.96	8.02919E-001	4.00623E-004	0.00000E+000	3.21668E-004	2.40040E-001	8.03177E-001	3.57660E+000	9	...........
	72	0.97333	8.07981E-001	4.00880E-004	0.00000E+000	3.23904E-004	2.40040E-001	8.08261E-001	3.57660E+000	9	...........
	73	0.98667	8.12999E-001	3.99737E-004	0.00000E+000	3.24986E-004	2.40040E-001	8.13282E-001	3.57660E+000	9	...........
	74	1	8.18020E-001	4.00209E-004	0.00000E+000	3.27379E-004	2.40040E-001	8.18307E-001	3.57660E+000	9	...........
	75	1.01333	8.23046E-001	4.00151E-004	0.00000E+000	3.29343E-004	2.40040E-001	8.23312E-001	3.57660E+000	9	...........
	76	1.02667	8.28027E-001	4.01625E-004	0.00000E+000	3.32557E-004	2.40040E-001	8.28292E-001	3.57660E+000	9	...........
	77	1.04	8.33012E-001	4.00057E-004	0.00000E+000	3.33252E-004	2.40040E-001	8.33275E-001	3.57661E+000	9	...........
	78	1.05333	8.37867E-001	4.00523E-004	0.00000E+000	3.35585E-004	2.40040E-001	8.38141E-001	3.57670E+000	9	...........
	79	1.06667	8.42693E-001	4.00521E-004	0.00000E+000	3.37516E-004	2.40040E-001	8.42998E-001	3.57670E+000	9	...........
	80	1.08	8.47450E-001	4.00328E-004	0.00000E+000	3.39258E-004	2.40040E-001	8.47729E-001	3.57670E+000	9	...........
	81	1.09333	8.52193E-001	4.01988E-004	0.00000E+000	3.42571E-004	2.40040E-001	8.52471E-001	3.57670E+000	9	...........
	82	1.10667	8.56864E-001	4.00307E-004	0.00000E+000	3.43009E-004	2.40040E-001	8.57177E-001	3.57670E+000	9	...........
	83	1.12	8.61595E-001	4.00617E-004	0.00000E+000	3.45169E-004	2.40040E-001	8.61911E-001	3.57670E+000	9	...........
	84	1.13333	8.66242E-001	4.01024E-004	0.00000E+000	3.47384E-004	2.40040E-001	8.66558E-001	3.57670E+000	9	...........
	85	1.14667	8.70933E-001	4.00789E-004	0.00000E+000	3.49060E-004	2.40040E-001	8.71257E-001	3.57670E+000	9	...........
	86	1.16	8.75576E-001	4.01951E-004	0.00000E+000	3.51939E-004	2.40040E-001	8.75899E-001	3.57670E+000	9	...........
	87	1.17333	8.80108E-001	4.00674E-004	0.00000E+000	3.52636E-004	2.40040E-001	8.80452E-001	3.57670E+000	9	...........
	88	1.18667	8.84631E-001	4.01277E-004	0.00000E+000	3.54982E-004	2.40040E-001	8.84934E-001	3.57670E+000	9	...........
	89	1.2	8.89141E-001	4.01034E-004	0.00000E+000	3.56576E-004	2.40040E-001	8.89449E-001	3.57670E+000	9	...........
	90	1.21333	8.93643E-001	4.01781E-004	0.00000E+000	3.59048E-004	2.40040E-001	8.93957E-001	3.57670E+000	9	...........
	91	1.22667	8.98158E-001	4.01012E-004	0.00000E+000	3.60172E-004	2.40040E-001	8.98440E-001	3.57670E+000	9	...........
	92	1.24	9.02584E-001	3.99394E-004	0.00000E+000	3.60486E-004	2.40040E-001	9.02872E-001	3.57670E+000	9	...........
	93	1.25333	9.07004E-001	4.00741E-004	0.00000E+000	3.63474E-004	2.40040E-001	9.07262E-001	3.57670E+000	9	...........
	94	1.26667	9.11321E-001	4.02554E-004	0.00000E+000	3.66856E-004	2.40040E-001	9.11560E-001	3.57670E+000	9	...........
	95	1.28	9.15651E-001	4.00989E-004	0.00000E+000	3.67166E-004	2.40040E-001	9.15914E-001	3.57670E+000	9	...........
	96	1.29333	9.19991E-001	4.00589E-004	0.00000E+000	3.68538E-004	2.40040E-001	9.20232E-001	3.57670E+000	9	...........
	97	1.30667	9.24223E-001	4.00265E-004	0.00000E+000	3.69934E-004	2.40040E-001	9.24467E-001	3.57670E+000	9	...........
	98	1.32	9.28417E-001	4.01175E-004	0.00000E+000	3.72458E-004	2.40040E-001	9.28654E-001	3.57670E+000	9	...........
	99	1.33333	9.32572E-001	4.00625E-004	0.00000E+000	3.73612E-004	2.40040E-001	9.32848E-001	3.57670E+000	9	...........
	100	1.34667	9.36654E-001	3.99431E-004	0.00000E+000	3.74129E-004	2.40040E-001	9.36945E-001	3.57670E+000	9	...........
	101	1.36	9.40690E-001	4.01422E-004	0.00000E+000	3.77614E-004	2.40040E-001	9.40961E-001	3.57670E+000	9	...........
	102	1.37333	9.44703E-001	4.00500E-004	0.00000E+000	3.78354E-004	2.40040E-001	9.45005E-001	3.57670E+000	9	...........
	103	1.38667	9.48758E-001	4.00935E-004	0.00000E+000	3.80390E-004	2.40040E-001	9.49053E-001	3.57670E+000	9	...........
	104	1.4	9.52737E-001	4.01194E-004	0.00000E+000	3.82233E-004	2.40040E-001	9.53043E-001	3.57670E+000	9	...........
	105	1.41333	9.56674E-001	4.02800E-004	0.00000E+000	3.85348E-004	2.40040E-001	9.56975E-001	3.57670E+000	9	...........
	106	1.42667	9.60556E-001	4.01643E-004	0.00000E+000	3.85801E-004	2.40040E-001	9.60885E-001	3.57670E+000	9	...........
	107	1.44	9.64478E-001	4.00151E-004	0.00000E+000	3.85937E-004	2.40040E-001	9.64791E-001	3.57670E+000	9	...........
	108	1.45333	9.68298E-001	4.01978E-004	0.00000E+000	3.89234E-004	2.40040E-001	9.68603E-001	3.57670E+000	9	...........
	109	1.46667	9.72034E-001	4.00589E-004	0.00000E+000	3.89386E-004	2.40040E-001	9.72380E-001	3.57670E+000	9	...........
	110	1.48	9.75787E-001	4.00348E-004	0.00000E+000	3.90654E-004	2.40040E-001	9.76116E-001	3.57670E+000	9	...........
	111	1.49333	9.79483E-001	3.99913E-004	0.00000E+000	3.91708E-004	2.40040E-001	9.79795E-001	3.57670E+000	9	...........
	112	1.50667	9.83177E-001	4.00369E-004	0.00000E+000	3.93634E-004	2.40040E-001	9.83495E-001	3.57670E+000	9	...........
	113	1.52	9.86855E-001	4.02933E-004	0.00000E+000	3.97636E-004	2.40040E-001	9.87196E-001	3.57670E+000	9	...........
	114	1.53333	9.90409E-001	4.01268E-004	0.00000E+000	3.97419E-004	2.40040E-001	9.90752E-001	3.57670E+000	9	...........
	115	1.54667	9.93946E-001	4.01063E-004	0.00000E+000	3.98635E-004	2.40040E-001	9.94279E-001	3.57670E+000	9	...........
	116	1.56	9.97465E-001	4.00424E-004	0.00000E+000	3.99409E-004	2.40040E-001	9.97809E-001	3.57670E+000	9	...........
	117	1.565	9.99833E-001	4.00886E-004	0.00000E+000	4.00819E-004	2.40040E-001	1.00019E+000	3.57670E+000	9	...........
STARTTIMEOFFSET	QUANT	1584.376	Start Time Offset (s)
