EXPLAIN
TAG	PWR800_CHARGE
TITLE	LABEL	PWR Cyclic Charge Discharge (Cell) - Charge Step	Test &Identifier
DATE	LABEL	12-7-2017	Date
TIME	LABEL	14:52:59	Time
NOTES	NOTES	3	&Notes...
	supercap test cell
	0.4mg
	6M KOH
PSTAT	PSTAT	IFC5000-01520	Potentiostat
CAPACITY	QUANT	1.00000E-003	Capacity (A-hr)
CELLTYPE	SELECTOR	1	&Cell Type
WORKINGCONNECTION	SELECTOR	0	&Working Lead
MAXCHARGETIME	VARIABLEANDUNITS	1.00000E+002	s	1.00000E+002	second(s)	Max &Charge Time
CHARGECURRENT	QUANT	4.00000E-004	&Charge Current (A) 
VOLTAGEFINISH	TWOPARAM	F	1.00000E-003	3.60000E+003	&Voltage Finish	 I (A) < 	Max Time(s)
SAMPLETIME	QUANT	1.00000E-002	Sa&mple Period (s)
CHARGESTOPAT1	MULTIPARAM	4	1.00000E+000	Charge Stop At &1	Voltage > Limit	V
CHARGESTOPAT2	MULTIPARAM	0	0.00000E+000	Charge Stop At &2	None	N/A
AESBHCSELECTOR	TOGGLE	F	Save Both Half Cells
IRCOMP	TOGGLE	F	IR &Measure
EOC	QUANT	0	Open Circuit (V)
SEQUENCER	TOGGLE	TRUE	Run as Sequence
PSTATMODEL	IQUANT	53	Pstat Model
PSTATSECTION	LABEL	IFC5000-01520	Pstat Section
PSTATSERIALNO	LABEL	01520	Pstat Serial Number
CTRLMODE	IQUANT	0	Control Mode
ELECTROMETER	IQUANT	1	RE=0 or CS=1
IESTAB	IQUANT	0	I/E Stability
CASPEED	IQUANT	4	Control Amp Speed
CONVENTION	IQUANT	1	Current Convention
ICHRANGE	IQUANT	2	Ich Range
ICHRANGEMODE	TOGGLE	T	Ich Auto Range
ICHOFFSETENABLE	TOGGLE	F	Ich Offset Enable
ICHOFFSET	QUANT	0	Ich Offset (V)
ICHFILTER	IQUANT	1	Ich Filter
VCHRANGE	IQUANT	2	Vch Range
VCHRANGEMODE	TOGGLE	T	Vch Auto Range
VCHOFFSETENABLE	TOGGLE	F	Vch Offset Enable
VCHOFFSET	QUANT	0	Vch Offset (V)
VCHFILTER	IQUANT	1	Vch Filter
IERANGELOWERLIMIT	IQUANT	9	I/E Range Lower Limit
IERANGEMODE	TOGGLE	F	I/E AutoRange
IERANGE	IQUANT	9	I/E Range
ACHSELECT	IQUANT	1	Ach Select
ACHRANGE	IQUANT	2	Ach Range
ACHOFFSETENABLE	TOGGLE	F	Ach Offset Enable
ACHOFFSET	QUANT	0	Ach Offset (V)
ACHFILTER	IQUANT	1	Ach Filter
CABLEID	IQUANT	14	Cable ID
DCCALDATE	LABEL	5-7-2017	DC Calibration Date
ACCALDATE	LABEL	12/3/2015	AC Calibration Date
FRAMEWORKVERSION	QUANT	7.01	Framework Version
INSTRUMENTVERSION	LABEL	4.00	Instrument Version
CURVE	TABLE	117
	Pt	T	Vf	Im	Vu	Pwr	Sig	Ach	Temp	IERange	Over
	#	s	V	A	V	W	V	V	deg C	#	bits
	0	0.013333	3.66755E-001	4.01694E-004	0.00000E+000	1.47323E-004	2.40040E-001	3.66850E-001	3.57690E+000	9	...........
	1	0.026667	3.78439E-001	4.02020E-004	0.00000E+000	1.52140E-004	2.40040E-001	3.78511E-001	3.57690E+000	9	...........
	2	0.04	3.88465E-001	4.01722E-004	0.00000E+000	1.56055E-004	2.40040E-001	3.88544E-001	3.57690E+000	9	...........
	3	0.053333	3.97563E-001	4.00525E-004	0.00000E+000	1.59234E-004	2.40040E-001	3.97637E-001	3.57690E+000	9	...........
	4	0.066667	4.06109E-001	4.01012E-004	0.00000E+000	1.62854E-004	2.40040E-001	4.06188E-001	3.57690E+000	9	...........
	5	0.08	4.14220E-001	4.00748E-004	0.00000E+000	1.65998E-004	2.40040E-001	4.14301E-001	3.57690E+000	9	...........
	6	0.093333	4.22010E-001	4.00837E-004	0.00000E+000	1.69157E-004	2.40040E-001	4.22093E-001	3.57690E+000	9	...........
	7	0.106667	4.29625E-001	4.00788E-004	0.00000E+000	1.72189E-004	2.40040E-001	4.29717E-001	3.57690E+000	9	...........
	8	0.12	4.37043E-001	4.00173E-004	0.00000E+000	1.74893E-004	2.40040E-001	4.37129E-001	3.57690E+000	9	...........
	9	0.133333	4.44244E-001	4.00891E-004	0.00000E+000	1.78093E-004	2.40040E-001	4.44329E-001	3.57690E+000	9	...........
	10	0.146667	4.51275E-001	4.01603E-004	0.00000E+000	1.81234E-004	2.40040E-001	4.51364E-001	3.57690E+000	9	...........
	11	0.16	4.58174E-001	4.00355E-004	0.00000E+000	1.83432E-004	2.40040E-001	4.58261E-001	3.57690E+000	9	...........
	12	0.173333	4.65050E-001	4.01133E-004	0.00000E+000	1.86547E-004	2.40040E-001	4.65143E-001	3.57690E+000	9	...........
	13	0.186667	4.71789E-001	4.00531E-004	0.00000E+000	1.88966E-004	2.40040E-001	4.71882E-001	3.57690E+000	9	...........
	14	0.2	4.78400E-001	4.00789E-004	0.00000E+000	1.91737E-004	2.40040E-001	4.78496E-001	3.57690E+000	9	...........
	15	0.213333	4.85041E-001	4.01559E-004	0.00000E+000	1.94772E-004	2.40040E-001	4.85133E-001	3.57690E+000	9	...........
	16	0.226667	4.91564E-001	4.01424E-004	0.00000E+000	1.97326E-004	2.40040E-001	4.91660E-001	3.57690E+000	9	...........
	17	0.24	4.98082E-001	4.00812E-004	0.00000E+000	1.99637E-004	2.40040E-001	4.98184E-001	3.57690E+000	9	...........
	18	0.253333	5.04466E-001	4.01628E-004	0.00000E+000	2.02608E-004	2.40040E-001	5.04567E-001	3.57690E+000	9	...........
	19	0.266667	5.10859E-001	4.00978E-004	0.00000E+000	2.04843E-004	2.40040E-001	5.10959E-001	3.57690E+000	9	...........
	20	0.28	5.17142E-001	4.01107E-004	0.00000E+000	2.07429E-004	2.40040E-001	5.17249E-001	3.57690E+000	9	...........
	21	0.293333	5.23429E-001	4.00323E-004	0.00000E+000	2.09541E-004	2.40040E-001	5.23536E-001	3.57690E+000	9	...........
	22	0.306667	5.29675E-001	4.01681E-004	0.00000E+000	2.12760E-004	2.40040E-001	5.29787E-001	3.57690E+000	9	...........
	23	0.32	5.35647E-001	4.01185E-004	0.00000E+000	2.14893E-004	2.40040E-001	5.35828E-001	3.57690E+000	9	...........
	24	0.333333	5.41773E-001	4.00807E-004	0.00000E+000	2.17147E-004	2.40040E-001	5.42004E-001	3.57690E+000	9	...........
	25	0.346667	5.47855E-001	4.01449E-004	0.00000E+000	2.19936E-004	2.40040E-001	5.48065E-001	3.57690E+000	9	...........
	26	0.36	5.53934E-001	4.00410E-004	0.00000E+000	2.21801E-004	2.40040E-001	5.54162E-001	3.57690E+000	9	...........
	27	0.373333	5.59917E-001	4.00810E-004	0.00000E+000	2.24420E-004	2.40040E-001	5.60166E-001	3.57690E+000	9	...........
	28	0.386667	5.66059E-001	4.02054E-004	0.00000E+000	2.27586E-004	2.40040E-001	5.66272E-001	3.57690E+000	9	...........
	29	0.4	5.72060E-001	4.00281E-004	0.00000E+000	2.28985E-004	2.40040E-001	5.72302E-001	3.57690E+000	9	...........
	30	0.413333	5.78046E-001	4.01970E-004	0.00000E+000	2.32357E-004	2.40040E-001	5.78307E-001	3.57690E+000	9	...........
	31	0.426667	5.83968E-001	4.00207E-004	0.00000E+000	2.33708E-004	2.40040E-001	5.84228E-001	3.57690E+000	9	...........
	32	0.44	5.89911E-001	4.00871E-004	0.00000E+000	2.36478E-004	2.40040E-001	5.90148E-001	3.57690E+000	9	...........
	33	0.453333	5.95819E-001	4.01673E-004	0.00000E+000	2.39325E-004	2.40040E-001	5.96066E-001	3.57690E+000	9	...........
	34	0.466667	6.01696E-001	4.00170E-004	0.00000E+000	2.40781E-004	2.40040E-001	6.01991E-001	3.57690E+000	9	...........
	35	0.48	6.07593E-001	4.01422E-004	0.00000E+000	2.43902E-004	2.40040E-001	6.07847E-001	3.57690E+000	9	...........
	36	0.493333	6.13531E-001	4.00533E-004	0.00000E+000	2.45740E-004	2.40040E-001	6.13777E-001	3.57690E+000	9	...........
	37	0.506667	6.19427E-001	4.01536E-004	0.00000E+000	2.48722E-004	2.40040E-001	6.19651E-001	3.57690E+000	9	...........
	38	0.52	6.25239E-001	3.99710E-004	0.00000E+000	2.49914E-004	2.40040E-001	6.25462E-001	3.57690E+000	9	...........
	39	0.533333	6.30886E-001	4.00553E-004	0.00000E+000	2.52703E-004	2.40040E-001	6.31121E-001	3.57690E+000	9	...........
	40	0.546667	6.36627E-001	4.02166E-004	0.00000E+000	2.56030E-004	2.40040E-001	6.36867E-001	3.57690E+000	9	...........
	41	0.56	6.42443E-001	4.00337E-004	0.00000E+000	2.57193E-004	2.40040E-001	6.42672E-001	3.57690E+000	9	...........
	42	0.573333	6.48229E-001	4.00599E-004	0.00000E+000	2.59680E-004	2.40040E-001	6.48447E-001	3.57690E+000	9	...........
	43	0.586667	6.53959E-001	4.00900E-004	0.00000E+000	2.62172E-004	2.40040E-001	6.54183E-001	3.57690E+000	9	...........
	44	0.6	6.59628E-001	4.01402E-004	0.00000E+000	2.64776E-004	2.40040E-001	6.59867E-001	3.57690E+000	9	...........
	45	0.613333	6.65245E-001	4.01449E-004	0.00000E+000	2.67062E-004	2.40040E-001	6.65498E-001	3.57690E+000	9	...........
	46	0.626667	6.70977E-001	4.00441E-004	0.00000E+000	2.68687E-004	2.40040E-001	6.71193E-001	3.57690E+000	9	...........
	47	0.64	6.76653E-001	4.00581E-004	0.00000E+000	2.71055E-004	2.40040E-001	6.76878E-001	3.57690E+000	9	...........
	48	0.653333	6.82254E-001	4.00002E-004	0.00000E+000	2.72903E-004	2.40040E-001	6.82478E-001	3.57690E+000	9	...........
	49	0.666667	6.87866E-001	4.00723E-004	0.00000E+000	2.75644E-004	2.40040E-001	6.88087E-001	3.57690E+000	9	...........
	50	0.68	6.93454E-001	3.99798E-004	0.00000E+000	2.77241E-004	2.40040E-001	6.93684E-001	3.57690E+000	9	...........
	51	0.693333	6.99007E-001	3.99908E-004	0.00000E+000	2.79539E-004	2.40040E-001	6.99232E-001	3.57734E+000	9	...........
	52	0.706667	7.04548E-001	4.01111E-004	0.00000E+000	2.82602E-004	2.40040E-001	7.04763E-001	3.57760E+000	9	...........
	53	0.72	7.10093E-001	3.99836E-004	0.00000E+000	2.83921E-004	2.40040E-001	7.10331E-001	3.57760E+000	9	...........
	54	0.733333	7.15626E-001	4.00216E-004	0.00000E+000	2.86405E-004	2.40040E-001	7.15861E-001	3.57760E+000	9	...........
	55	0.746667	7.21105E-001	4.01933E-004	0.00000E+000	2.89836E-004	2.40040E-001	7.21340E-001	3.57760E+000	9	...........
	56	0.76	7.26485E-001	4.00724E-004	0.00000E+000	2.91120E-004	2.40040E-001	7.26716E-001	3.57760E+000	9	...........
	57	0.773333	7.31906E-001	4.01588E-004	0.00000E+000	2.93924E-004	2.40040E-001	7.32150E-001	3.57760E+000	9	...........
	58	0.786667	7.37291E-001	4.00175E-004	0.00000E+000	2.95046E-004	2.40040E-001	7.37536E-001	3.57760E+000	9	...........
	59	0.8	7.42765E-001	4.02134E-004	0.00000E+000	2.98691E-004	2.40040E-001	7.43006E-001	3.57760E+000	9	...........
	60	0.813333	7.48139E-001	4.01073E-004	0.00000E+000	3.00059E-004	2.40040E-001	7.48384E-001	3.57760E+000	9	...........
	61	0.826667	7.53465E-001	4.00406E-004	0.00000E+000	3.01692E-004	2.40040E-001	7.53714E-001	3.57760E+000	9	...........
	62	0.84	7.58758E-001	4.00664E-004	0.00000E+000	3.04007E-004	2.40040E-001	7.59004E-001	3.57760E+000	9	...........
	63	0.853333	7.64109E-001	4.00228E-004	0.00000E+000	3.05818E-004	2.40040E-001	7.64346E-001	3.57760E+000	9	...........
	64	0.866667	7.69395E-001	4.02031E-004	0.00000E+000	3.09320E-004	2.40040E-001	7.69669E-001	3.57760E+000	9	...........
	65	0.88	7.74729E-001	4.00855E-004	0.00000E+000	3.10554E-004	2.40040E-001	7.74989E-001	3.57760E+000	9	...........
	66	0.893333	7.80021E-001	4.00688E-004	0.00000E+000	3.12545E-004	2.40040E-001	7.80282E-001	3.57760E+000	9	...........
	67	0.906667	7.85220E-001	4.01055E-004	0.00000E+000	3.14917E-004	2.40040E-001	7.85490E-001	3.57760E+000	9	...........
	68	0.92	7.90352E-001	4.01433E-004	0.00000E+000	3.17273E-004	2.40040E-001	7.90626E-001	3.57760E+000	9	...........
	69	0.933333	7.95474E-001	4.01755E-004	0.00000E+000	3.19585E-004	2.40040E-001	7.95737E-001	3.57760E+000	9	...........
	70	0.946667	8.00554E-001	4.02234E-004	0.00000E+000	3.22010E-004	2.40040E-001	8.00800E-001	3.57760E+000	9	...........
	71	0.96	8.05659E-001	4.00051E-004	0.00000E+000	3.22305E-004	2.40040E-001	8.05926E-001	3.57760E+000	9	...........
	72	0.97333	8.10649E-001	4.01914E-004	0.00000E+000	3.25811E-004	2.40040E-001	8.10947E-001	3.57760E+000	9	...........
	73	0.98667	8.15653E-001	4.00401E-004	0.00000E+000	3.26588E-004	2.40040E-001	8.15953E-001	3.57760E+000	9	...........
	74	1	8.20777E-001	4.00673E-004	0.00000E+000	3.28863E-004	2.40040E-001	8.21041E-001	3.57760E+000	9	...........
	75	1.01333	8.25748E-001	4.00231E-004	0.00000E+000	3.30490E-004	2.40040E-001	8.26020E-001	3.57760E+000	9	...........
	76	1.02667	8.30652E-001	4.01334E-004	0.00000E+000	3.33369E-004	2.40040E-001	8.30933E-001	3.57760E+000	9	...........
	77	1.04	8.35515E-001	4.00837E-004	0.00000E+000	3.34905E-004	2.40040E-001	8.35812E-001	3.57760E+000	9	...........
	78	1.05333	8.40367E-001	4.00483E-004	0.00000E+000	3.36553E-004	2.40040E-001	8.40643E-001	3.57760E+000	9	...........
	79	1.06667	8.45288E-001	4.02333E-004	0.00000E+000	3.40087E-004	2.40040E-001	8.45585E-001	3.57760E+000	9	...........
	80	1.08	8.50044E-001	4.01260E-004	0.00000E+000	3.41089E-004	2.40040E-001	8.50337E-001	3.57760E+000	9	...........
	81	1.09333	8.54794E-001	4.01157E-004	0.00000E+000	3.42906E-004	2.40040E-001	8.55074E-001	3.57760E+000	9	...........
	82	1.10667	8.59598E-001	4.00934E-004	0.00000E+000	3.44642E-004	2.40040E-001	8.59913E-001	3.57760E+000	9	...........
	83	1.12	8.64320E-001	4.01385E-004	0.00000E+000	3.46925E-004	2.40040E-001	8.64657E-001	3.57760E+000	9	...........
	84	1.13333	8.69031E-001	4.00458E-004	0.00000E+000	3.48011E-004	2.40040E-001	8.69339E-001	3.57760E+000	9	...........
	85	1.14667	8.73664E-001	4.00190E-004	0.00000E+000	3.49631E-004	2.40040E-001	8.73951E-001	3.57760E+000	9	...........
	86	1.16	8.78244E-001	4.01726E-004	0.00000E+000	3.52814E-004	2.40040E-001	8.78521E-001	3.57760E+000	9	...........
	87	1.17333	8.82806E-001	4.00360E-004	0.00000E+000	3.53441E-004	2.40040E-001	8.83118E-001	3.57760E+000	9	...........
	88	1.18667	8.87389E-001	4.01401E-004	0.00000E+000	3.56199E-004	2.40040E-001	8.87692E-001	3.57760E+000	9	...........
	89	1.2	8.91935E-001	3.99955E-004	0.00000E+000	3.56734E-004	2.40040E-001	8.92210E-001	3.57760E+000	9	...........
	90	1.21333	8.96380E-001	4.00515E-004	0.00000E+000	3.59013E-004	2.40040E-001	8.96710E-001	3.57760E+000	9	...........
	91	1.22667	9.00873E-001	4.00964E-004	0.00000E+000	3.61217E-004	2.40040E-001	9.01187E-001	3.57760E+000	9	...........
	92	1.24	9.05275E-001	4.01043E-004	0.00000E+000	3.63054E-004	2.40040E-001	9.05604E-001	3.57760E+000	9	...........
	93	1.25333	9.09684E-001	4.01149E-004	0.00000E+000	3.64919E-004	2.40040E-001	9.09975E-001	3.57760E+000	9	...........
	94	1.26667	9.13967E-001	4.01593E-004	0.00000E+000	3.67043E-004	2.40040E-001	9.14283E-001	3.57760E+000	9	...........
	95	1.28	9.18267E-001	4.01868E-004	0.00000E+000	3.69022E-004	2.40040E-001	9.18602E-001	3.57760E+000	9	...........
	96	1.29333	9.22535E-001	4.00918E-004	0.00000E+000	3.69861E-004	2.40040E-001	9.22798E-001	3.57760E+000	9	...........
	97	1.30667	9.26765E-001	4.00155E-004	0.00000E+000	3.70850E-004	2.40040E-001	9.27069E-001	3.57760E+000	9	...........
	98	1.32	9.30988E-001	4.00574E-004	0.00000E+000	3.72930E-004	2.40040E-001	9.31282E-001	3.57760E+000	9	...........
	99	1.33333	9.35172E-001	4.01124E-004	0.00000E+000	3.75120E-004	2.40040E-001	9.35450E-001	3.57760E+000	9	...........
	100	1.34667	9.39274E-001	4.01888E-004	0.00000E+000	3.77483E-004	2.40040E-001	9.39591E-001	3.57760E+000	9	...........
	101	1.36	9.43376E-001	4.01031E-004	0.00000E+000	3.78324E-004	2.40040E-001	9.43693E-001	3.57760E+000	9	...........
	102	1.37333	9.47403E-001	4.00627E-004	0.00000E+000	3.79555E-004	2.40040E-001	9.47714E-001	3.57760E+000	9	...........
	103	1.38667	9.51352E-001	4.00956E-004	0.00000E+000	3.81451E-004	2.40040E-001	9.51670E-001	3.57760E+000	9	...........
	104	1.4	9.55344E-001	3.99441E-004	0.00000E+000	3.81603E-004	2.40040E-001	9.55656E-001	3.57760E+000	9	...........
	105	1.41333	9.59283E-001	4.00935E-004	0.00000E+000	3.84610E-004	2.40040E-001	9.59600E-001	3.57760E+000	9	...........
	106	1.42667	9.63112E-001	4.01648E-004	0.00000E+000	3.86832E-004	2.40040E-001	9.63430E-001	3.57760E+000	9	...........
	107	1.44	9.66948E-001	4.01414E-004	0.00000E+000	3.88146E-004	2.40040E-001	9.67276E-001	3.57760E+000	9	...........
	108	1.45333	9.70745E-001	4.01352E-004	0.00000E+000	3.89611E-004	2.40040E-001	9.71099E-001	3.57760E+000	9	...........
	109	1.46667	9.74603E-001	4.01384E-004	0.00000E+000	3.91190E-004	2.40040E-001	9.74869E-001	3.57760E+000	9	...........
	110	1.48	9.78306E-001	4.00544E-004	0.00000E+000	3.91854E-004	2.40040E-001	9.78603E-001	3.57760E+000	9	...........
	111	1.49333	9.81974E-001	4.00216E-004	0.00000E+000	3.93002E-004	2.40040E-001	9.82280E-001	3.57760E+000	9	...........
	112	1.50667	9.85634E-001	4.00898E-004	0.00000E+000	3.95139E-004	2.40040E-001	9.85959E-001	3.57760E+000	9	...........
	113	1.52	9.89311E-001	4.01034E-004	0.00000E+000	3.96747E-004	2.40040E-001	9.89645E-001	3.57760E+000	9	...........
	114	1.53333	9.92877E-001	4.01448E-004	0.00000E+000	3.98589E-004	2.40040E-001	9.93236E-001	3.57760E+000	9	...........
	115	1.54667	9.96445E-001	4.00687E-004	0.00000E+000	3.99262E-004	2.40040E-001	9.96787E-001	3.57760E+000	9	...........
	116	1.555	9.99314E-001	4.02559E-004	0.00000E+000	4.02283E-004	2.40040E-001	9.99637E-001	3.57760E+000	9	...........
STARTTIMEOFFSET	QUANT	1642.414	Start Time Offset (s)
