EXPLAIN
TAG	PWR800_CHARGE
TITLE	LABEL	PWR Cyclic Charge Discharge (Cell) - Charge Step	Test &Identifier
DATE	LABEL	12-7-2017	Date
TIME	LABEL	14:19:37	Time
NOTES	NOTES	3	&Notes...
	supercap test cell
	0.4mg
	6M KOH
PSTAT	PSTAT	IFC5000-01520	Potentiostat
CAPACITY	QUANT	1.00000E-003	Capacity (A-hr)
CELLTYPE	SELECTOR	1	&Cell Type
WORKINGCONNECTION	SELECTOR	0	&Working Lead
MAXCHARGETIME	VARIABLEANDUNITS	1.00000E+002	s	1.00000E+002	second(s)	Max &Charge Time
CHARGECURRENT	QUANT	4.00000E-004	&Charge Current (A) 
VOLTAGEFINISH	TWOPARAM	F	1.00000E-003	3.60000E+003	&Voltage Finish	 I (A) < 	Max Time(s)
SAMPLETIME	QUANT	1.00000E-002	Sa&mple Period (s)
CHARGESTOPAT1	MULTIPARAM	4	1.00000E+000	Charge Stop At &1	Voltage > Limit	V
CHARGESTOPAT2	MULTIPARAM	0	0.00000E+000	Charge Stop At &2	None	N/A
AESBHCSELECTOR	TOGGLE	F	Save Both Half Cells
IRCOMP	TOGGLE	F	IR &Measure
EOC	QUANT	0	Open Circuit (V)
SEQUENCER	TOGGLE	TRUE	Run as Sequence
PSTATMODEL	IQUANT	53	Pstat Model
PSTATSECTION	LABEL	IFC5000-01520	Pstat Section
PSTATSERIALNO	LABEL	01520	Pstat Serial Number
CTRLMODE	IQUANT	0	Control Mode
ELECTROMETER	IQUANT	1	RE=0 or CS=1
IESTAB	IQUANT	0	I/E Stability
CASPEED	IQUANT	4	Control Amp Speed
CONVENTION	IQUANT	1	Current Convention
ICHRANGE	IQUANT	2	Ich Range
ICHRANGEMODE	TOGGLE	T	Ich Auto Range
ICHOFFSETENABLE	TOGGLE	F	Ich Offset Enable
ICHOFFSET	QUANT	0	Ich Offset (V)
ICHFILTER	IQUANT	1	Ich Filter
VCHRANGE	IQUANT	2	Vch Range
VCHRANGEMODE	TOGGLE	T	Vch Auto Range
VCHOFFSETENABLE	TOGGLE	F	Vch Offset Enable
VCHOFFSET	QUANT	0	Vch Offset (V)
VCHFILTER	IQUANT	1	Vch Filter
IERANGELOWERLIMIT	IQUANT	9	I/E Range Lower Limit
IERANGEMODE	TOGGLE	F	I/E AutoRange
IERANGE	IQUANT	9	I/E Range
ACHSELECT	IQUANT	1	Ach Select
ACHRANGE	IQUANT	2	Ach Range
ACHOFFSETENABLE	TOGGLE	F	Ach Offset Enable
ACHOFFSET	QUANT	0	Ach Offset (V)
ACHFILTER	IQUANT	1	Ach Filter
CABLEID	IQUANT	14	Cable ID
DCCALDATE	LABEL	5-7-2017	DC Calibration Date
ACCALDATE	LABEL	12/3/2015	AC Calibration Date
FRAMEWORKVERSION	QUANT	7.01	Framework Version
INSTRUMENTVERSION	LABEL	4.00	Instrument Version
CURVE	TABLE	157
	Pt	T	Vf	Im	Vu	Pwr	Sig	Ach	Temp	IERange	Over
	#	s	V	A	V	W	V	V	deg C	#	bits
	0	0.013333	3.23627E-001	4.01272E-004	0.00000E+000	1.29863E-004	2.40040E-001	3.23706E-001	3.57600E+000	9	...........
	1	0.026667	3.32772E-001	4.00819E-004	0.00000E+000	1.33381E-004	2.40040E-001	3.32840E-001	3.57600E+000	9	...........
	2	0.04	3.40777E-001	4.02560E-004	0.00000E+000	1.37183E-004	2.40040E-001	3.40846E-001	3.57600E+000	9	...........
	3	0.053333	3.48104E-001	4.01842E-004	0.00000E+000	1.39883E-004	2.40040E-001	3.48173E-001	3.57600E+000	9	...........
	4	0.066667	3.54977E-001	4.00680E-004	0.00000E+000	1.42232E-004	2.40040E-001	3.55048E-001	3.57600E+000	9	...........
	5	0.08	3.61567E-001	4.00546E-004	0.00000E+000	1.44824E-004	2.40040E-001	3.61638E-001	3.57600E+000	9	...........
	6	0.093333	3.67917E-001	4.01021E-004	0.00000E+000	1.47542E-004	2.40040E-001	3.67985E-001	3.57600E+000	9	...........
	7	0.106667	3.74092E-001	4.01343E-004	0.00000E+000	1.50139E-004	2.40040E-001	3.74163E-001	3.57600E+000	9	...........
	8	0.12	3.80090E-001	4.01365E-004	0.00000E+000	1.52555E-004	2.40040E-001	3.80163E-001	3.57600E+000	9	...........
	9	0.133333	3.85991E-001	4.01044E-004	0.00000E+000	1.54799E-004	2.40040E-001	3.86063E-001	3.57600E+000	9	...........
	10	0.146667	3.91794E-001	4.01259E-004	0.00000E+000	1.57211E-004	2.40040E-001	3.91863E-001	3.57600E+000	9	...........
	11	0.16	3.97448E-001	4.01197E-004	0.00000E+000	1.59455E-004	2.40040E-001	3.97520E-001	3.57600E+000	9	...........
	12	0.173333	4.03024E-001	4.01806E-004	0.00000E+000	1.61937E-004	2.40040E-001	4.03099E-001	3.57600E+000	9	...........
	13	0.186667	4.08525E-001	4.00778E-004	0.00000E+000	1.63728E-004	2.40040E-001	4.08599E-001	3.57600E+000	9	...........
	14	0.2	4.14000E-001	4.01685E-004	0.00000E+000	1.66298E-004	2.40040E-001	4.14089E-001	3.57600E+000	9	...........
	15	0.213333	4.19287E-001	4.01487E-004	0.00000E+000	1.68338E-004	2.40040E-001	4.19374E-001	3.57600E+000	9	...........
	16	0.226667	4.24634E-001	4.01994E-004	0.00000E+000	1.70700E-004	2.40040E-001	4.24715E-001	3.57601E+000	9	...........
	17	0.24	4.29976E-001	4.00501E-004	0.00000E+000	1.72206E-004	2.40040E-001	4.30063E-001	3.57610E+000	9	...........
	18	0.253333	4.35182E-001	4.00412E-004	0.00000E+000	1.74252E-004	2.40040E-001	4.35271E-001	3.57610E+000	9	...........
	19	0.266667	4.40363E-001	4.02445E-004	0.00000E+000	1.77222E-004	2.40040E-001	4.40454E-001	3.57610E+000	9	...........
	20	0.28	4.45558E-001	4.01899E-004	0.00000E+000	1.79069E-004	2.40040E-001	4.45642E-001	3.57610E+000	9	...........
	21	0.293333	4.50726E-001	4.00454E-004	0.00000E+000	1.80495E-004	2.40040E-001	4.50817E-001	3.57610E+000	9	...........
	22	0.306667	4.55900E-001	4.01385E-004	0.00000E+000	1.82991E-004	2.40040E-001	4.55988E-001	3.57610E+000	9	...........
	23	0.32	4.60991E-001	4.00971E-004	0.00000E+000	1.84844E-004	2.40040E-001	4.61080E-001	3.57610E+000	9	...........
	24	0.333333	4.66062E-001	4.01663E-004	0.00000E+000	1.87200E-004	2.40040E-001	4.66152E-001	3.57610E+000	9	...........
	25	0.346667	4.71089E-001	3.99496E-004	0.00000E+000	1.88198E-004	2.40040E-001	4.71184E-001	3.57610E+000	9	...........
	26	0.36	4.76095E-001	4.00663E-004	0.00000E+000	1.90754E-004	2.40040E-001	4.76187E-001	3.57610E+000	9	...........
	27	0.373333	4.81150E-001	4.01196E-004	0.00000E+000	1.93035E-004	2.40040E-001	4.81243E-001	3.57610E+000	9	...........
	28	0.386667	4.86091E-001	4.01250E-004	0.00000E+000	1.95044E-004	2.40040E-001	4.86183E-001	3.57610E+000	9	...........
	29	0.4	4.91014E-001	4.01049E-004	0.00000E+000	1.96921E-004	2.40040E-001	4.91105E-001	3.57610E+000	9	...........
	30	0.413333	4.95859E-001	4.00000E-004	0.00000E+000	1.98343E-004	2.40040E-001	4.95964E-001	3.57610E+000	9	...........
	31	0.426667	5.00737E-001	4.00839E-004	0.00000E+000	2.00715E-004	2.40040E-001	5.00831E-001	3.57610E+000	9	...........
	32	0.44	5.05607E-001	4.01286E-004	0.00000E+000	2.02893E-004	2.40040E-001	5.05700E-001	3.57610E+000	9	...........
	33	0.453333	5.10456E-001	4.01265E-004	0.00000E+000	2.04828E-004	2.40040E-001	5.10555E-001	3.57610E+000	9	...........
	34	0.466667	5.15253E-001	4.01368E-004	0.00000E+000	2.06806E-004	2.40040E-001	5.15352E-001	3.57610E+000	9	...........
	35	0.48	5.20079E-001	4.01321E-004	0.00000E+000	2.08719E-004	2.40040E-001	5.20184E-001	3.57610E+000	9	...........
	36	0.493333	5.24928E-001	4.01726E-004	0.00000E+000	2.10877E-004	2.40040E-001	5.25032E-001	3.57610E+000	9	...........
	37	0.506667	5.29714E-001	3.99930E-004	0.00000E+000	2.11849E-004	2.40040E-001	5.29813E-001	3.57610E+000	9	...........
	38	0.52	5.34267E-001	4.00121E-004	0.00000E+000	2.13772E-004	2.40040E-001	5.34421E-001	3.57610E+000	9	...........
	39	0.533333	5.38966E-001	4.01338E-004	0.00000E+000	2.16307E-004	2.40040E-001	5.39180E-001	3.57610E+000	9	...........
	40	0.546667	5.43737E-001	4.02277E-004	0.00000E+000	2.18733E-004	2.40040E-001	5.43930E-001	3.57610E+000	9	...........
	41	0.56	5.48424E-001	3.99559E-004	0.00000E+000	2.19128E-004	2.40040E-001	5.48602E-001	3.57610E+000	9	...........
	42	0.573333	5.53148E-001	4.02054E-004	0.00000E+000	2.22395E-004	2.40040E-001	5.53336E-001	3.57610E+000	9	...........
	43	0.586667	5.57831E-001	4.01304E-004	0.00000E+000	2.23860E-004	2.40040E-001	5.58021E-001	3.57610E+000	9	...........
	44	0.6	5.62461E-001	4.02333E-004	0.00000E+000	2.26296E-004	2.40040E-001	5.62711E-001	3.57610E+000	9	...........
	45	0.613333	5.67122E-001	4.00428E-004	0.00000E+000	2.27092E-004	2.40040E-001	5.67341E-001	3.57610E+000	9	...........
	46	0.626667	5.71770E-001	4.02209E-004	0.00000E+000	2.29971E-004	2.40040E-001	5.71961E-001	3.57610E+000	9	...........
	47	0.64	5.76407E-001	4.01213E-004	0.00000E+000	2.31262E-004	2.40040E-001	5.76598E-001	3.57610E+000	9	...........
	48	0.653333	5.81011E-001	4.01497E-004	0.00000E+000	2.33274E-004	2.40040E-001	5.81236E-001	3.57610E+000	9	...........
	49	0.666667	5.85558E-001	3.99830E-004	0.00000E+000	2.34124E-004	2.40040E-001	5.85795E-001	3.57610E+000	9	...........
	50	0.68	5.90193E-001	4.00316E-004	0.00000E+000	2.36264E-004	2.40040E-001	5.90432E-001	3.57610E+000	9	...........
	51	0.693333	5.94771E-001	4.00871E-004	0.00000E+000	2.38427E-004	2.40040E-001	5.94995E-001	3.57610E+000	9	...........
	52	0.706667	5.99379E-001	4.01191E-004	0.00000E+000	2.40465E-004	2.40040E-001	5.99626E-001	3.57610E+000	9	...........
	53	0.72	6.03983E-001	4.00264E-004	0.00000E+000	2.41753E-004	2.40040E-001	6.04245E-001	3.57610E+000	9	...........
	54	0.733333	6.08544E-001	3.99379E-004	0.00000E+000	2.43040E-004	2.40040E-001	6.08788E-001	3.57610E+000	9	...........
	55	0.746667	6.13098E-001	4.00201E-004	0.00000E+000	2.45363E-004	2.40040E-001	6.13336E-001	3.57610E+000	9	...........
	56	0.76	6.17765E-001	4.01692E-004	0.00000E+000	2.48151E-004	2.40040E-001	6.17981E-001	3.57610E+000	9	...........
	57	0.773333	6.22298E-001	4.01115E-004	0.00000E+000	2.49613E-004	2.40040E-001	6.22523E-001	3.57610E+000	9	...........
	58	0.786667	6.26816E-001	4.00648E-004	0.00000E+000	2.51132E-004	2.40040E-001	6.27058E-001	3.57610E+000	9	...........
	59	0.8	6.31331E-001	4.00507E-004	0.00000E+000	2.52853E-004	2.40040E-001	6.31549E-001	3.57610E+000	9	...........
	60	0.813333	6.35815E-001	3.99922E-004	0.00000E+000	2.54276E-004	2.40040E-001	6.36046E-001	3.57610E+000	9	...........
	61	0.826667	6.40363E-001	4.00958E-004	0.00000E+000	2.56758E-004	2.40040E-001	6.40576E-001	3.57610E+000	9	...........
	62	0.84	6.44827E-001	4.00759E-004	0.00000E+000	2.58420E-004	2.40040E-001	6.45056E-001	3.57610E+000	9	...........
	63	0.853333	6.49329E-001	4.01296E-004	0.00000E+000	2.60573E-004	2.40040E-001	6.49547E-001	3.57610E+000	9	...........
	64	0.866667	6.53743E-001	4.01924E-004	0.00000E+000	2.62755E-004	2.40040E-001	6.53986E-001	3.57610E+000	9	...........
	65	0.88	6.58185E-001	4.01189E-004	0.00000E+000	2.64056E-004	2.40040E-001	6.58413E-001	3.57610E+000	9	...........
	66	0.893333	6.62595E-001	4.02133E-004	0.00000E+000	2.66451E-004	2.40040E-001	6.62807E-001	3.57610E+000	9	...........
	67	0.906667	6.67109E-001	4.01836E-004	0.00000E+000	2.68068E-004	2.40040E-001	6.67315E-001	3.57610E+000	9	...........
	68	0.92	6.71530E-001	4.00895E-004	0.00000E+000	2.69213E-004	2.40040E-001	6.71723E-001	3.57610E+000	9	...........
	69	0.933333	6.76005E-001	4.01213E-004	0.00000E+000	2.71222E-004	2.40040E-001	6.76173E-001	3.57610E+000	9	...........
	70	0.946667	6.80384E-001	4.01277E-004	0.00000E+000	2.73023E-004	2.40040E-001	6.80594E-001	3.57610E+000	9	...........
	71	0.96	6.84791E-001	4.00101E-004	0.00000E+000	2.73986E-004	2.40040E-001	6.85005E-001	3.57610E+000	9	...........
	72	0.97333	6.89187E-001	4.02159E-004	0.00000E+000	2.77163E-004	2.40040E-001	6.89403E-001	3.57610E+000	9	...........
	73	0.98667	6.93624E-001	4.00700E-004	0.00000E+000	2.77935E-004	2.40040E-001	6.93797E-001	3.57610E+000	9	...........
	74	1	6.97983E-001	4.01754E-004	0.00000E+000	2.80417E-004	2.40040E-001	6.98180E-001	3.57610E+000	9	...........
	75	1.01333	7.02387E-001	4.01232E-004	0.00000E+000	2.81820E-004	2.40040E-001	7.02569E-001	3.57610E+000	9	...........
	76	1.02667	7.06746E-001	4.00424E-004	0.00000E+000	2.82998E-004	2.40040E-001	7.06956E-001	3.57610E+000	9	...........
	77	1.04	7.11047E-001	4.00938E-004	0.00000E+000	2.85085E-004	2.40040E-001	7.11280E-001	3.57610E+000	9	...........
	78	1.05333	7.15361E-001	4.01613E-004	0.00000E+000	2.87298E-004	2.40040E-001	7.15608E-001	3.57610E+000	9	...........
	79	1.06667	7.19754E-001	4.01311E-004	0.00000E+000	2.88845E-004	2.40040E-001	7.19959E-001	3.57610E+000	9	...........
	80	1.08	7.24083E-001	4.00064E-004	0.00000E+000	2.89679E-004	2.40040E-001	7.24278E-001	3.57610E+000	9	...........
	81	1.09333	7.28386E-001	4.01265E-004	0.00000E+000	2.92276E-004	2.40040E-001	7.28586E-001	3.57610E+000	9	...........
	82	1.10667	7.32678E-001	3.99882E-004	0.00000E+000	2.92985E-004	2.40040E-001	7.32906E-001	3.57610E+000	9	...........
	83	1.12	7.37004E-001	4.00592E-004	0.00000E+000	2.95238E-004	2.40040E-001	7.37211E-001	3.57610E+000	9	...........
	84	1.13333	7.41248E-001	4.02429E-004	0.00000E+000	2.98299E-004	2.40040E-001	7.41480E-001	3.57610E+000	9	...........
	85	1.14667	7.45478E-001	4.00439E-004	0.00000E+000	2.98518E-004	2.40040E-001	7.45676E-001	3.57610E+000	9	...........
	86	1.16	7.49781E-001	4.00567E-004	0.00000E+000	3.00337E-004	2.40040E-001	7.49971E-001	3.57610E+000	9	...........
	87	1.17333	7.54098E-001	4.00627E-004	0.00000E+000	3.02112E-004	2.40040E-001	7.54275E-001	3.57610E+000	9	...........
	88	1.18667	7.58269E-001	4.00382E-004	0.00000E+000	3.03598E-004	2.40040E-001	7.58475E-001	3.57610E+000	9	...........
	89	1.2	7.62487E-001	4.00540E-004	0.00000E+000	3.05406E-004	2.40040E-001	7.62704E-001	3.57610E+000	9	...........
	90	1.21333	7.66682E-001	4.01812E-004	0.00000E+000	3.08062E-004	2.40040E-001	7.66936E-001	3.57610E+000	9	...........
	91	1.22667	7.70861E-001	4.00535E-004	0.00000E+000	3.08757E-004	2.40040E-001	7.71100E-001	3.57610E+000	9	...........
	92	1.24	7.74992E-001	3.99488E-004	0.00000E+000	3.09600E-004	2.40040E-001	7.75241E-001	3.57610E+000	9	...........
	93	1.25333	7.79068E-001	3.99648E-004	0.00000E+000	3.11353E-004	2.40040E-001	7.79315E-001	3.57610E+000	9	...........
	94	1.26667	7.83175E-001	4.01207E-004	0.00000E+000	3.14215E-004	2.40040E-001	7.83405E-001	3.57610E+000	9	...........
	95	1.28	7.87286E-001	4.03261E-004	0.00000E+000	3.17482E-004	2.40040E-001	7.87541E-001	3.57610E+000	9	...........
	96	1.29333	7.91419E-001	4.02256E-004	0.00000E+000	3.18353E-004	2.40040E-001	7.91672E-001	3.57610E+000	9	...........
	97	1.30667	7.95494E-001	4.01544E-004	0.00000E+000	3.19426E-004	2.40040E-001	7.95733E-001	3.57610E+000	9	...........
	98	1.32	7.99629E-001	4.00718E-004	0.00000E+000	3.20426E-004	2.40040E-001	7.99846E-001	3.57610E+000	9	...........
	99	1.33333	8.03698E-001	4.00619E-004	0.00000E+000	3.21977E-004	2.40040E-001	8.03952E-001	3.57610E+000	9	...........
	100	1.34667	8.07827E-001	4.01563E-004	0.00000E+000	3.24393E-004	2.40040E-001	8.08073E-001	3.57610E+000	9	...........
	101	1.36	8.11863E-001	4.01501E-004	0.00000E+000	3.25964E-004	2.40040E-001	8.12122E-001	3.57610E+000	9	...........
	102	1.37333	8.15844E-001	4.00557E-004	0.00000E+000	3.26792E-004	2.40040E-001	8.16118E-001	3.57610E+000	9	...........
	103	1.38667	8.19822E-001	4.01600E-004	0.00000E+000	3.29241E-004	2.40040E-001	8.20093E-001	3.57610E+000	9	...........
	104	1.4	8.23778E-001	4.00654E-004	0.00000E+000	3.30050E-004	2.40040E-001	8.24062E-001	3.57610E+000	9	...........
	105	1.41333	8.27727E-001	4.01641E-004	0.00000E+000	3.32449E-004	2.40040E-001	8.27998E-001	3.57610E+000	9	...........
	106	1.42667	8.31664E-001	4.03150E-004	0.00000E+000	3.35285E-004	2.40040E-001	8.31942E-001	3.57610E+000	9	...........
	107	1.44	8.35662E-001	4.02063E-004	0.00000E+000	3.35989E-004	2.40040E-001	8.35931E-001	3.57610E+000	9	...........
	108	1.45333	8.39633E-001	3.99506E-004	0.00000E+000	3.35439E-004	2.40040E-001	8.39930E-001	3.57610E+000	9	...........
	109	1.46667	8.43542E-001	4.00717E-004	0.00000E+000	3.38021E-004	2.40040E-001	8.43826E-001	3.57610E+000	9	...........
	110	1.48	8.47412E-001	4.00987E-004	0.00000E+000	3.39801E-004	2.40040E-001	8.47674E-001	3.57610E+000	9	...........
	111	1.49333	8.51227E-001	4.01152E-004	0.00000E+000	3.41472E-004	2.40040E-001	8.51486E-001	3.57610E+000	9	...........
	112	1.50667	8.54959E-001	4.00933E-004	0.00000E+000	3.42781E-004	2.40040E-001	8.55216E-001	3.57610E+000	9	...........
	113	1.52	8.58758E-001	4.02277E-004	0.00000E+000	3.45458E-004	2.40040E-001	8.59034E-001	3.57610E+000	9	...........
	114	1.53333	8.62589E-001	4.01013E-004	0.00000E+000	3.45909E-004	2.40040E-001	8.62853E-001	3.57610E+000	9	...........
	115	1.54667	8.66345E-001	4.00522E-004	0.00000E+000	3.46990E-004	2.40040E-001	8.66627E-001	3.57610E+000	9	...........
	116	1.56	8.70182E-001	4.02138E-004	0.00000E+000	3.49933E-004	2.40040E-001	8.70467E-001	3.57610E+000	9	...........
	117	1.57333	8.73889E-001	4.01033E-004	0.00000E+000	3.50458E-004	2.40040E-001	8.74172E-001	3.57610E+000	9	...........
	118	1.58667	8.77661E-001	4.01086E-004	0.00000E+000	3.52017E-004	2.40040E-001	8.77911E-001	3.57610E+000	9	...........
	119	1.6	8.81356E-001	4.01764E-004	0.00000E+000	3.54097E-004	2.40040E-001	8.81641E-001	3.57610E+000	9	...........
	120	1.61333	8.85069E-001	4.01544E-004	0.00000E+000	3.55394E-004	2.40040E-001	8.85354E-001	3.57610E+000	9	...........
	121	1.62667	8.88660E-001	4.01265E-004	0.00000E+000	3.56588E-004	2.40040E-001	8.88974E-001	3.57610E+000	9	...........
	122	1.64	8.92284E-001	4.00522E-004	0.00000E+000	3.57379E-004	2.40040E-001	8.92598E-001	3.57610E+000	9	...........
	123	1.65333	8.95886E-001	4.00521E-004	0.00000E+000	3.58821E-004	2.40040E-001	8.96208E-001	3.57610E+000	9	...........
	124	1.66667	8.99483E-001	4.01913E-004	0.00000E+000	3.61514E-004	2.40040E-001	8.99784E-001	3.57610E+000	9	...........
	125	1.68	9.03026E-001	3.99543E-004	0.00000E+000	3.60798E-004	2.40040E-001	9.03367E-001	3.57610E+000	9	...........
	126	1.69333	9.06561E-001	4.02206E-004	0.00000E+000	3.64624E-004	2.40040E-001	9.06884E-001	3.57610E+000	9	...........
	127	1.70667	9.10129E-001	4.00551E-004	0.00000E+000	3.64553E-004	2.40040E-001	9.10422E-001	3.57610E+000	9	...........
	128	1.72	9.13562E-001	4.02199E-004	0.00000E+000	3.67434E-004	2.40040E-001	9.13868E-001	3.57610E+000	9	...........
	129	1.73333	9.16984E-001	3.99822E-004	0.00000E+000	3.66630E-004	2.40040E-001	9.17302E-001	3.57610E+000	9	...........
	130	1.74667	9.20370E-001	4.02064E-004	0.00000E+000	3.70048E-004	2.40040E-001	9.20664E-001	3.57610E+000	9	...........
	131	1.76	9.23840E-001	4.01081E-004	0.00000E+000	3.70535E-004	2.40040E-001	9.24094E-001	3.57610E+000	9	...........
	132	1.77333	9.27197E-001	4.00801E-004	0.00000E+000	3.71622E-004	2.40040E-001	9.27460E-001	3.57610E+000	9	...........
	133	1.78667	9.30435E-001	4.00373E-004	0.00000E+000	3.72521E-004	2.40040E-001	9.30717E-001	3.57610E+000	9	...........
	134	1.8	9.33780E-001	4.00529E-004	0.00000E+000	3.74006E-004	2.40040E-001	9.34073E-001	3.57610E+000	9	...........
	135	1.81333	9.37055E-001	4.01689E-004	0.00000E+000	3.76405E-004	2.40040E-001	9.37371E-001	3.57610E+000	9	...........
	136	1.82667	9.40330E-001	4.01347E-004	0.00000E+000	3.77399E-004	2.40040E-001	9.40634E-001	3.57610E+000	9	...........
	137	1.84	9.43560E-001	4.01543E-004	0.00000E+000	3.78880E-004	2.40040E-001	9.43861E-001	3.57610E+000	9	...........
	138	1.85333	9.46860E-001	4.01147E-004	0.00000E+000	3.79830E-004	2.40040E-001	9.47166E-001	3.57610E+000	9	...........
	139	1.86667	9.50065E-001	3.99853E-004	0.00000E+000	3.79886E-004	2.40040E-001	9.50378E-001	3.57610E+000	9	...........
	140	1.88	9.53235E-001	4.00065E-004	0.00000E+000	3.81356E-004	2.40040E-001	9.53535E-001	3.57610E+000	9	...........
	141	1.89333	9.56372E-001	4.02418E-004	0.00000E+000	3.84862E-004	2.40040E-001	9.56678E-001	3.57610E+000	9	...........
	142	1.90667	9.59475E-001	4.01845E-004	0.00000E+000	3.85560E-004	2.40040E-001	9.59801E-001	3.57610E+000	9	...........
	143	1.92	9.62550E-001	4.01473E-004	0.00000E+000	3.86438E-004	2.40040E-001	9.62855E-001	3.57610E+000	9	...........
	144	1.93333	9.65557E-001	4.01724E-004	0.00000E+000	3.87888E-004	2.40040E-001	9.65863E-001	3.57610E+000	9	...........
	145	1.94667	9.68496E-001	3.99783E-004	0.00000E+000	3.87188E-004	2.40040E-001	9.68820E-001	3.57610E+000	9	...........
	146	1.96	9.71445E-001	4.00395E-004	0.00000E+000	3.88962E-004	2.40040E-001	9.71776E-001	3.57610E+000	9	...........
	147	1.97333	9.74375E-001	4.01413E-004	0.00000E+000	3.91127E-004	2.40040E-001	9.74634E-001	3.57610E+000	9	...........
	148	1.98667	9.77330E-001	4.00616E-004	0.00000E+000	3.91534E-004	2.40040E-001	9.77606E-001	3.57610E+000	9	...........
	149	2	9.80165E-001	4.01841E-004	0.00000E+000	3.93870E-004	2.40040E-001	9.80435E-001	3.57610E+000	9	...........
	150	2.01333	9.83040E-001	3.99662E-004	0.00000E+000	3.92884E-004	2.40040E-001	9.83320E-001	3.57610E+000	9	...........
	151	2.02667	9.85876E-001	4.01030E-004	0.00000E+000	3.95366E-004	2.40040E-001	9.86165E-001	3.57610E+000	9	...........
	152	2.04	9.88719E-001	4.00580E-004	0.00000E+000	3.96062E-004	2.40040E-001	9.88967E-001	3.57610E+000	9	...........
	153	2.05333	9.91495E-001	4.00612E-004	0.00000E+000	3.97205E-004	2.40040E-001	9.91753E-001	3.57610E+000	9	...........
	154	2.06667	9.94228E-001	4.01602E-004	0.00000E+000	3.99284E-004	2.40040E-001	9.94485E-001	3.57610E+000	9	...........
	155	2.08	9.97021E-001	4.01627E-004	0.00000E+000	4.00431E-004	2.40040E-001	9.97297E-001	3.57610E+000	9	...........
	156	2.09	9.99387E-001	4.01932E-004	0.00000E+000	4.01685E-004	2.40040E-001	9.99687E-001	3.57610E+000	9	...........
STARTTIMEOFFSET	QUANT	45.76001	Start Time Offset (s)
