EXPLAIN
TAG	PWR800_CHARGE
TITLE	LABEL	PWR Cyclic Charge Discharge (Cell) - Charge Step	Test &Identifier
DATE	LABEL	12-7-2017	Date
TIME	LABEL	15:17:16	Time
NOTES	NOTES	3	&Notes...
	supercap test cell
	0.4mg
	6M KOH
PSTAT	PSTAT	IFC5000-01520	Potentiostat
CAPACITY	QUANT	1.00000E-003	Capacity (A-hr)
CELLTYPE	SELECTOR	1	&Cell Type
WORKINGCONNECTION	SELECTOR	0	&Working Lead
MAXCHARGETIME	VARIABLEANDUNITS	1.00000E+002	s	1.00000E+002	second(s)	Max &Charge Time
CHARGECURRENT	QUANT	4.00000E-004	&Charge Current (A) 
VOLTAGEFINISH	TWOPARAM	F	1.00000E-003	3.60000E+003	&Voltage Finish	 I (A) < 	Max Time(s)
SAMPLETIME	QUANT	1.00000E-002	Sa&mple Period (s)
CHARGESTOPAT1	MULTIPARAM	4	1.00000E+000	Charge Stop At &1	Voltage > Limit	V
CHARGESTOPAT2	MULTIPARAM	0	0.00000E+000	Charge Stop At &2	None	N/A
AESBHCSELECTOR	TOGGLE	F	Save Both Half Cells
IRCOMP	TOGGLE	F	IR &Measure
EOC	QUANT	0	Open Circuit (V)
SEQUENCER	TOGGLE	TRUE	Run as Sequence
PSTATMODEL	IQUANT	53	Pstat Model
PSTATSECTION	LABEL	IFC5000-01520	Pstat Section
PSTATSERIALNO	LABEL	01520	Pstat Serial Number
CTRLMODE	IQUANT	0	Control Mode
ELECTROMETER	IQUANT	1	RE=0 or CS=1
IESTAB	IQUANT	0	I/E Stability
CASPEED	IQUANT	4	Control Amp Speed
CONVENTION	IQUANT	1	Current Convention
ICHRANGE	IQUANT	2	Ich Range
ICHRANGEMODE	TOGGLE	T	Ich Auto Range
ICHOFFSETENABLE	TOGGLE	F	Ich Offset Enable
ICHOFFSET	QUANT	0	Ich Offset (V)
ICHFILTER	IQUANT	1	Ich Filter
VCHRANGE	IQUANT	2	Vch Range
VCHRANGEMODE	TOGGLE	T	Vch Auto Range
VCHOFFSETENABLE	TOGGLE	F	Vch Offset Enable
VCHOFFSET	QUANT	0	Vch Offset (V)
VCHFILTER	IQUANT	1	Vch Filter
IERANGELOWERLIMIT	IQUANT	9	I/E Range Lower Limit
IERANGEMODE	TOGGLE	F	I/E AutoRange
IERANGE	IQUANT	9	I/E Range
ACHSELECT	IQUANT	1	Ach Select
ACHRANGE	IQUANT	2	Ach Range
ACHOFFSETENABLE	TOGGLE	F	Ach Offset Enable
ACHOFFSET	QUANT	0	Ach Offset (V)
ACHFILTER	IQUANT	1	Ach Filter
CABLEID	IQUANT	14	Cable ID
DCCALDATE	LABEL	5-7-2017	DC Calibration Date
ACCALDATE	LABEL	12/3/2015	AC Calibration Date
FRAMEWORKVERSION	QUANT	7.01	Framework Version
INSTRUMENTVERSION	LABEL	4.00	Instrument Version
CURVE	TABLE	107
	Pt	T	Vf	Im	Vu	Pwr	Sig	Ach	Temp	IERange	Over
	#	s	V	A	V	W	V	V	deg C	#	bits
	0	0.013333	3.85970E-001	4.00888E-004	0.00000E+000	1.54731E-004	2.40040E-001	3.86067E-001	3.57700E+000	9	...........
	1	0.026667	3.98841E-001	4.00929E-004	0.00000E+000	1.59907E-004	2.40040E-001	3.98918E-001	3.57700E+000	9	...........
	2	0.04	4.09776E-001	4.01966E-004	0.00000E+000	1.64716E-004	2.40040E-001	4.09855E-001	3.57700E+000	9	...........
	3	0.053333	4.19676E-001	4.00625E-004	0.00000E+000	1.68133E-004	2.40040E-001	4.19767E-001	3.57700E+000	9	...........
	4	0.066667	4.28885E-001	4.01446E-004	0.00000E+000	1.72174E-004	2.40040E-001	4.28974E-001	3.57700E+000	9	...........
	5	0.08	4.37661E-001	4.00744E-004	0.00000E+000	1.75390E-004	2.40040E-001	4.37750E-001	3.57700E+000	9	...........
	6	0.093333	4.46037E-001	4.01709E-004	0.00000E+000	1.79177E-004	2.40040E-001	4.46123E-001	3.57700E+000	9	...........
	7	0.106667	4.54117E-001	4.01469E-004	0.00000E+000	1.82314E-004	2.40040E-001	4.54210E-001	3.57700E+000	9	...........
	8	0.12	4.61949E-001	4.00380E-004	0.00000E+000	1.84955E-004	2.40040E-001	4.62041E-001	3.57700E+000	9	...........
	9	0.133333	4.69631E-001	4.00597E-004	0.00000E+000	1.88133E-004	2.40040E-001	4.69714E-001	3.57700E+000	9	...........
	10	0.146667	4.77216E-001	4.01431E-004	0.00000E+000	1.91569E-004	2.40040E-001	4.77308E-001	3.57700E+000	9	...........
	11	0.16	4.84666E-001	3.99477E-004	0.00000E+000	1.93613E-004	2.40040E-001	4.84757E-001	3.57700E+000	9	...........
	12	0.173333	4.91980E-001	4.01361E-004	0.00000E+000	1.97462E-004	2.40040E-001	4.92079E-001	3.57700E+000	9	...........
	13	0.186667	4.99113E-001	4.00548E-004	0.00000E+000	1.99919E-004	2.40040E-001	4.99216E-001	3.57700E+000	9	...........
	14	0.2	5.06261E-001	4.01447E-004	0.00000E+000	2.03237E-004	2.40040E-001	5.06359E-001	3.57700E+000	9	...........
	15	0.213333	5.13344E-001	4.02166E-004	0.00000E+000	2.06450E-004	2.40040E-001	5.13446E-001	3.57700E+000	9	...........
	16	0.226667	5.20275E-001	4.00271E-004	0.00000E+000	2.08251E-004	2.40040E-001	5.20374E-001	3.57700E+000	9	...........
	17	0.24	5.27135E-001	4.01391E-004	0.00000E+000	2.11587E-004	2.40040E-001	5.27241E-001	3.57700E+000	9	...........
	18	0.253333	5.33806E-001	4.01493E-004	0.00000E+000	2.14320E-004	2.40040E-001	5.33900E-001	3.57700E+000	9	...........
	19	0.266667	5.40482E-001	4.01506E-004	0.00000E+000	2.17007E-004	2.40040E-001	5.40659E-001	3.57700E+000	9	...........
	20	0.28	5.47139E-001	4.01790E-004	0.00000E+000	2.19835E-004	2.40040E-001	5.47297E-001	3.57700E+000	9	...........
	21	0.293333	5.53794E-001	4.01236E-004	0.00000E+000	2.22202E-004	2.40040E-001	5.53942E-001	3.57700E+000	9	...........
	22	0.306667	5.60361E-001	4.00408E-004	0.00000E+000	2.24373E-004	2.40040E-001	5.60546E-001	3.57700E+000	9	...........
	23	0.32	5.66958E-001	4.00963E-004	0.00000E+000	2.27329E-004	2.40040E-001	5.67136E-001	3.57700E+000	9	...........
	24	0.333333	5.73531E-001	4.03294E-004	0.00000E+000	2.31302E-004	2.40040E-001	5.73725E-001	3.57700E+000	9	...........
	25	0.346667	5.80020E-001	4.00790E-004	0.00000E+000	2.32466E-004	2.40040E-001	5.80235E-001	3.57700E+000	9	...........
	26	0.36	5.86468E-001	4.02262E-004	0.00000E+000	2.35914E-004	2.40040E-001	5.86727E-001	3.57700E+000	9	...........
	27	0.373333	5.92854E-001	4.01965E-004	0.00000E+000	2.38307E-004	2.40040E-001	5.93107E-001	3.57700E+000	9	...........
	28	0.386667	5.99189E-001	3.99563E-004	0.00000E+000	2.39414E-004	2.40040E-001	5.99460E-001	3.57700E+000	9	...........
	29	0.4	6.05524E-001	4.02004E-004	0.00000E+000	2.43423E-004	2.40040E-001	6.05798E-001	3.57700E+000	9	...........
	30	0.413333	6.11856E-001	4.00468E-004	0.00000E+000	2.45029E-004	2.40040E-001	6.12135E-001	3.57700E+000	9	...........
	31	0.426667	6.18230E-001	4.01913E-004	0.00000E+000	2.48475E-004	2.40040E-001	6.18469E-001	3.57700E+000	9	...........
	32	0.44	6.24522E-001	4.00665E-004	0.00000E+000	2.50224E-004	2.40040E-001	6.24764E-001	3.57700E+000	9	...........
	33	0.453333	6.30817E-001	4.00403E-004	0.00000E+000	2.52581E-004	2.40040E-001	6.31071E-001	3.57700E+000	9	...........
	34	0.466667	6.36997E-001	4.01595E-004	0.00000E+000	2.55815E-004	2.40040E-001	6.37221E-001	3.57700E+000	9	...........
	35	0.48	6.43247E-001	4.01002E-004	0.00000E+000	2.57943E-004	2.40040E-001	6.43441E-001	3.57700E+000	9	...........
	36	0.493333	6.49439E-001	4.00765E-004	0.00000E+000	2.60272E-004	2.40040E-001	6.49622E-001	3.57700E+000	9	...........
	37	0.506667	6.55621E-001	4.01635E-004	0.00000E+000	2.63320E-004	2.40040E-001	6.55813E-001	3.57700E+000	9	...........
	38	0.52	6.61810E-001	4.01139E-004	0.00000E+000	2.65478E-004	2.40040E-001	6.61987E-001	3.57700E+000	9	...........
	39	0.533333	6.67928E-001	4.00577E-004	0.00000E+000	2.67557E-004	2.40040E-001	6.68115E-001	3.57700E+000	9	...........
	40	0.546667	6.73919E-001	4.01506E-004	0.00000E+000	2.70582E-004	2.40040E-001	6.74108E-001	3.57700E+000	9	...........
	41	0.56	6.79971E-001	4.01319E-004	0.00000E+000	2.72886E-004	2.40040E-001	6.80167E-001	3.57700E+000	9	...........
	42	0.573333	6.85989E-001	4.01831E-004	0.00000E+000	2.75651E-004	2.40040E-001	6.86180E-001	3.57700E+000	9	...........
	43	0.586667	6.91973E-001	4.00485E-004	0.00000E+000	2.77125E-004	2.40040E-001	6.92179E-001	3.57700E+000	9	...........
	44	0.6	6.97918E-001	4.01708E-004	0.00000E+000	2.80359E-004	2.40040E-001	6.98142E-001	3.57700E+000	9	...........
	45	0.613333	7.03869E-001	4.00822E-004	0.00000E+000	2.82126E-004	2.40040E-001	7.04100E-001	3.57700E+000	9	...........
	46	0.626667	7.09794E-001	4.01396E-004	0.00000E+000	2.84908E-004	2.40040E-001	7.10054E-001	3.57700E+000	9	...........
	47	0.64	7.15685E-001	4.01756E-004	0.00000E+000	2.87530E-004	2.40040E-001	7.15943E-001	3.57700E+000	9	...........
	48	0.653333	7.21586E-001	4.01051E-004	0.00000E+000	2.89393E-004	2.40040E-001	7.21820E-001	3.57700E+000	9	...........
	49	0.666667	7.27400E-001	4.00231E-004	0.00000E+000	2.91128E-004	2.40040E-001	7.27653E-001	3.57700E+000	9	...........
	50	0.68	7.33234E-001	4.01810E-004	0.00000E+000	2.94620E-004	2.40040E-001	7.33489E-001	3.57700E+000	9	...........
	51	0.693333	7.38996E-001	4.02005E-004	0.00000E+000	2.97080E-004	2.40040E-001	7.39240E-001	3.57700E+000	9	...........
	52	0.706667	7.44792E-001	4.01253E-004	0.00000E+000	2.98850E-004	2.40040E-001	7.45028E-001	3.57700E+000	9	...........
	53	0.72	7.50503E-001	4.01123E-004	0.00000E+000	3.01044E-004	2.40040E-001	7.50735E-001	3.57700E+000	9	...........
	54	0.733333	7.56126E-001	4.00389E-004	0.00000E+000	3.02744E-004	2.40040E-001	7.56334E-001	3.57700E+000	9	...........
	55	0.746667	7.61869E-001	4.01199E-004	0.00000E+000	3.05661E-004	2.40040E-001	7.62060E-001	3.57700E+000	9	...........
	56	0.76	7.67523E-001	3.99675E-004	0.00000E+000	3.06760E-004	2.40040E-001	7.67757E-001	3.57700E+000	9	...........
	57	0.773333	7.73172E-001	4.00461E-004	0.00000E+000	3.09625E-004	2.40040E-001	7.73404E-001	3.57700E+000	9	...........
	58	0.786667	7.78703E-001	4.01932E-004	0.00000E+000	3.12985E-004	2.40040E-001	7.78934E-001	3.57700E+000	9	...........
	59	0.8	7.84201E-001	4.00043E-004	0.00000E+000	3.13714E-004	2.40040E-001	7.84441E-001	3.57700E+000	9	...........
	60	0.813333	7.89668E-001	4.01734E-004	0.00000E+000	3.17236E-004	2.40040E-001	7.89924E-001	3.57700E+000	9	...........
	61	0.826667	7.95218E-001	4.00767E-004	0.00000E+000	3.18697E-004	2.40040E-001	7.95464E-001	3.57700E+000	9	...........
	62	0.84	8.00557E-001	4.00051E-004	0.00000E+000	3.20264E-004	2.40040E-001	8.00817E-001	3.57700E+000	9	...........
	63	0.853333	8.05983E-001	4.00606E-004	0.00000E+000	3.22882E-004	2.40040E-001	8.06241E-001	3.57700E+000	9	...........
	64	0.866667	8.11331E-001	4.02156E-004	0.00000E+000	3.26282E-004	2.40040E-001	8.11598E-001	3.57700E+000	9	...........
	65	0.88	8.16651E-001	4.01205E-004	0.00000E+000	3.27645E-004	2.40040E-001	8.16942E-001	3.57700E+000	9	...........
	66	0.893333	8.22015E-001	4.01257E-004	0.00000E+000	3.29839E-004	2.40040E-001	8.22306E-001	3.57700E+000	9	...........
	67	0.906667	8.27253E-001	4.00866E-004	0.00000E+000	3.31618E-004	2.40040E-001	8.27551E-001	3.57750E+000	9	...........
	68	0.92	8.32404E-001	4.02051E-004	0.00000E+000	3.34669E-004	2.40040E-001	8.32708E-001	3.57780E+000	9	...........
	69	0.933333	8.37572E-001	4.02751E-004	0.00000E+000	3.37333E-004	2.40040E-001	8.37866E-001	3.57780E+000	9	...........
	70	0.946667	8.42739E-001	4.00740E-004	0.00000E+000	3.37719E-004	2.40040E-001	8.43063E-001	3.57780E+000	9	...........
	71	0.96	8.47905E-001	4.00633E-004	0.00000E+000	3.39699E-004	2.40040E-001	8.48228E-001	3.57780E+000	9	...........
	72	0.97333	8.52979E-001	4.01846E-004	0.00000E+000	3.42766E-004	2.40040E-001	8.53266E-001	3.57780E+000	9	...........
	73	0.98667	8.57945E-001	4.01434E-004	0.00000E+000	3.44408E-004	2.40040E-001	8.58259E-001	3.57780E+000	9	...........
	74	1	8.62913E-001	4.01492E-004	0.00000E+000	3.46453E-004	2.40040E-001	8.63212E-001	3.57780E+000	9	...........
	75	1.01333	8.67851E-001	4.01103E-004	0.00000E+000	3.48098E-004	2.40040E-001	8.68131E-001	3.57780E+000	9	...........
	76	1.02667	8.72796E-001	4.01720E-004	0.00000E+000	3.50620E-004	2.40040E-001	8.73064E-001	3.57780E+000	9	...........
	77	1.04	8.77682E-001	4.01285E-004	0.00000E+000	3.52200E-004	2.40040E-001	8.77956E-001	3.57780E+000	9	...........
	78	1.05333	8.82471E-001	4.00671E-004	0.00000E+000	3.53581E-004	2.40040E-001	8.82740E-001	3.57780E+000	9	...........
	79	1.06667	8.87262E-001	4.01150E-004	0.00000E+000	3.55925E-004	2.40040E-001	8.87528E-001	3.57780E+000	9	...........
	80	1.08	8.91932E-001	4.00922E-004	0.00000E+000	3.57595E-004	2.40040E-001	8.92243E-001	3.57780E+000	9	...........
	81	1.09333	8.96578E-001	4.00231E-004	0.00000E+000	3.58839E-004	2.40040E-001	8.96902E-001	3.57780E+000	9	...........
	82	1.10667	9.01224E-001	4.01620E-004	0.00000E+000	3.61950E-004	2.40040E-001	9.01524E-001	3.57780E+000	9	...........
	83	1.12	9.05814E-001	3.99915E-004	0.00000E+000	3.62248E-004	2.40040E-001	9.06129E-001	3.57780E+000	9	...........
	84	1.13333	9.10394E-001	4.01722E-004	0.00000E+000	3.65726E-004	2.40040E-001	9.10700E-001	3.57780E+000	9	...........
	85	1.14667	9.14928E-001	4.01548E-004	0.00000E+000	3.67388E-004	2.40040E-001	9.15253E-001	3.57780E+000	9	...........
	86	1.16	9.19429E-001	4.00585E-004	0.00000E+000	3.68309E-004	2.40040E-001	9.19747E-001	3.57780E+000	9	...........
	87	1.17333	9.23903E-001	4.00524E-004	0.00000E+000	3.70045E-004	2.40040E-001	9.24194E-001	3.57780E+000	9	...........
	88	1.18667	9.28292E-001	4.00736E-004	0.00000E+000	3.72000E-004	2.40040E-001	9.28589E-001	3.57780E+000	9	...........
	89	1.2	9.32660E-001	4.00951E-004	0.00000E+000	3.73951E-004	2.40040E-001	9.32949E-001	3.57780E+000	9	...........
	90	1.21333	9.37013E-001	4.01524E-004	0.00000E+000	3.76233E-004	2.40040E-001	9.37329E-001	3.57780E+000	9	...........
	91	1.22667	9.41262E-001	4.00969E-004	0.00000E+000	3.77417E-004	2.40040E-001	9.41596E-001	3.57780E+000	9	...........
	92	1.24	9.45477E-001	4.01976E-004	0.00000E+000	3.80060E-004	2.40040E-001	9.45799E-001	3.57780E+000	9	...........
	93	1.25333	9.49707E-001	4.01165E-004	0.00000E+000	3.80989E-004	2.40040E-001	9.50038E-001	3.57780E+000	9	...........
	94	1.26667	9.53853E-001	4.02415E-004	0.00000E+000	3.83845E-004	2.40040E-001	9.54169E-001	3.57780E+000	9	...........
	95	1.28	9.57962E-001	4.00815E-004	0.00000E+000	3.83965E-004	2.40040E-001	9.58281E-001	3.57780E+000	9	...........
	96	1.29333	9.62051E-001	4.00986E-004	0.00000E+000	3.85769E-004	2.40040E-001	9.62399E-001	3.57780E+000	9	...........
	97	1.30667	9.66100E-001	4.01002E-004	0.00000E+000	3.87408E-004	2.40040E-001	9.66475E-001	3.57780E+000	9	...........
	98	1.32	9.70084E-001	4.00827E-004	0.00000E+000	3.88836E-004	2.40040E-001	9.70459E-001	3.57780E+000	9	...........
	99	1.33333	9.74085E-001	4.01786E-004	0.00000E+000	3.91374E-004	2.40040E-001	9.74414E-001	3.57780E+000	9	...........
	100	1.34667	9.77912E-001	4.00253E-004	0.00000E+000	3.91412E-004	2.40040E-001	9.78255E-001	3.57780E+000	9	...........
	101	1.36	9.81783E-001	4.02034E-004	0.00000E+000	3.94710E-004	2.40040E-001	9.82111E-001	3.57780E+000	9	...........
	102	1.37333	9.85623E-001	4.00473E-004	0.00000E+000	3.94716E-004	2.40040E-001	9.85984E-001	3.57780E+000	9	...........
	103	1.38667	9.89377E-001	4.00272E-004	0.00000E+000	3.96020E-004	2.40040E-001	9.89720E-001	3.57780E+000	9	...........
	104	1.4	9.93102E-001	4.02666E-004	0.00000E+000	3.99889E-004	2.40040E-001	9.93439E-001	3.57780E+000	9	...........
	105	1.41333	9.96834E-001	3.99916E-004	0.00000E+000	3.98649E-004	2.40040E-001	9.97180E-001	3.57780E+000	9	...........
	106	1.42	9.99573E-001	4.02786E-004	0.00000E+000	4.02614E-004	2.40040E-001	9.99910E-001	3.57780E+000	9	...........
STARTTIMEOFFSET	QUANT	2779.072	Start Time Offset (s)
