EXPLAIN
TAG	PWR800_CHARGE
TITLE	LABEL	PWR Cyclic Charge Discharge (Cell) - Charge Step	Test &Identifier
DATE	LABEL	12-7-2017	Date
TIME	LABEL	15:09:31	Time
NOTES	NOTES	3	&Notes...
	supercap test cell
	0.4mg
	6M KOH
PSTAT	PSTAT	IFC5000-01520	Potentiostat
CAPACITY	QUANT	1.00000E-003	Capacity (A-hr)
CELLTYPE	SELECTOR	1	&Cell Type
WORKINGCONNECTION	SELECTOR	0	&Working Lead
MAXCHARGETIME	VARIABLEANDUNITS	1.00000E+002	s	1.00000E+002	second(s)	Max &Charge Time
CHARGECURRENT	QUANT	4.00000E-004	&Charge Current (A) 
VOLTAGEFINISH	TWOPARAM	F	1.00000E-003	3.60000E+003	&Voltage Finish	 I (A) < 	Max Time(s)
SAMPLETIME	QUANT	1.00000E-002	Sa&mple Period (s)
CHARGESTOPAT1	MULTIPARAM	4	1.00000E+000	Charge Stop At &1	Voltage > Limit	V
CHARGESTOPAT2	MULTIPARAM	0	0.00000E+000	Charge Stop At &2	None	N/A
AESBHCSELECTOR	TOGGLE	F	Save Both Half Cells
IRCOMP	TOGGLE	F	IR &Measure
EOC	QUANT	0	Open Circuit (V)
SEQUENCER	TOGGLE	TRUE	Run as Sequence
PSTATMODEL	IQUANT	53	Pstat Model
PSTATSECTION	LABEL	IFC5000-01520	Pstat Section
PSTATSERIALNO	LABEL	01520	Pstat Serial Number
CTRLMODE	IQUANT	0	Control Mode
ELECTROMETER	IQUANT	1	RE=0 or CS=1
IESTAB	IQUANT	0	I/E Stability
CASPEED	IQUANT	4	Control Amp Speed
CONVENTION	IQUANT	1	Current Convention
ICHRANGE	IQUANT	2	Ich Range
ICHRANGEMODE	TOGGLE	T	Ich Auto Range
ICHOFFSETENABLE	TOGGLE	F	Ich Offset Enable
ICHOFFSET	QUANT	0	Ich Offset (V)
ICHFILTER	IQUANT	1	Ich Filter
VCHRANGE	IQUANT	2	Vch Range
VCHRANGEMODE	TOGGLE	T	Vch Auto Range
VCHOFFSETENABLE	TOGGLE	F	Vch Offset Enable
VCHOFFSET	QUANT	0	Vch Offset (V)
VCHFILTER	IQUANT	1	Vch Filter
IERANGELOWERLIMIT	IQUANT	9	I/E Range Lower Limit
IERANGEMODE	TOGGLE	F	I/E AutoRange
IERANGE	IQUANT	9	I/E Range
ACHSELECT	IQUANT	1	Ach Select
ACHRANGE	IQUANT	2	Ach Range
ACHOFFSETENABLE	TOGGLE	F	Ach Offset Enable
ACHOFFSET	QUANT	0	Ach Offset (V)
ACHFILTER	IQUANT	1	Ach Filter
CABLEID	IQUANT	14	Cable ID
DCCALDATE	LABEL	5-7-2017	DC Calibration Date
ACCALDATE	LABEL	12/3/2015	AC Calibration Date
FRAMEWORKVERSION	QUANT	7.01	Framework Version
INSTRUMENTVERSION	LABEL	4.00	Instrument Version
CURVE	TABLE	110
	Pt	T	Vf	Im	Vu	Pwr	Sig	Ach	Temp	IERange	Over
	#	s	V	A	V	W	V	V	deg C	#	bits
	0	0.013333	3.81160E-001	4.00921E-004	0.00000E+000	1.52815E-004	2.40040E-001	3.81247E-001	3.57670E+000	9	...........
	1	0.026667	3.93691E-001	4.01371E-004	0.00000E+000	1.58016E-004	2.40040E-001	3.93766E-001	3.57670E+000	9	...........
	2	0.04	4.04353E-001	4.01175E-004	0.00000E+000	1.62217E-004	2.40040E-001	4.04428E-001	3.57670E+000	9	...........
	3	0.053333	4.14026E-001	4.01861E-004	0.00000E+000	1.66381E-004	2.40040E-001	4.14111E-001	3.57670E+000	9	...........
	4	0.066667	4.22987E-001	4.00929E-004	0.00000E+000	1.69588E-004	2.40040E-001	4.23073E-001	3.57670E+000	9	...........
	5	0.08	4.31480E-001	4.01292E-004	0.00000E+000	1.73149E-004	2.40040E-001	4.31565E-001	3.57670E+000	9	...........
	6	0.093333	4.39646E-001	4.00993E-004	0.00000E+000	1.76295E-004	2.40040E-001	4.39733E-001	3.57670E+000	9	...........
	7	0.106667	4.47575E-001	4.00594E-004	0.00000E+000	1.79296E-004	2.40040E-001	4.47664E-001	3.57670E+000	9	...........
	8	0.12	4.55284E-001	4.01423E-004	0.00000E+000	1.82762E-004	2.40040E-001	4.55371E-001	3.57670E+000	9	...........
	9	0.133333	4.62809E-001	4.00284E-004	0.00000E+000	1.85255E-004	2.40040E-001	4.62893E-001	3.57670E+000	9	...........
	10	0.146667	4.70190E-001	4.01035E-004	0.00000E+000	1.88562E-004	2.40040E-001	4.70281E-001	3.57670E+000	9	...........
	11	0.16	4.77421E-001	4.01472E-004	0.00000E+000	1.91671E-004	2.40040E-001	4.77508E-001	3.57670E+000	9	...........
	12	0.173333	4.84578E-001	4.00500E-004	0.00000E+000	1.94074E-004	2.40040E-001	4.84669E-001	3.57670E+000	9	...........
	13	0.186667	4.91654E-001	4.01080E-004	0.00000E+000	1.97193E-004	2.40040E-001	4.91746E-001	3.57670E+000	9	...........
	14	0.2	4.98621E-001	3.99925E-004	0.00000E+000	1.99411E-004	2.40040E-001	4.98719E-001	3.57670E+000	9	...........
	15	0.213333	5.05487E-001	4.01087E-004	0.00000E+000	2.02744E-004	2.40040E-001	5.05585E-001	3.57670E+000	9	...........
	16	0.226667	5.12294E-001	4.00943E-004	0.00000E+000	2.05401E-004	2.40040E-001	5.12403E-001	3.57670E+000	9	...........
	17	0.24	5.19035E-001	4.00345E-004	0.00000E+000	2.07793E-004	2.40040E-001	5.19145E-001	3.57670E+000	9	...........
	18	0.253333	5.25758E-001	4.02801E-004	0.00000E+000	2.11776E-004	2.40040E-001	5.25870E-001	3.57670E+000	9	...........
	19	0.266667	5.32338E-001	4.00483E-004	0.00000E+000	2.13193E-004	2.40040E-001	5.32447E-001	3.57670E+000	9	...........
	20	0.28	5.38772E-001	4.00169E-004	0.00000E+000	2.15600E-004	2.40040E-001	5.39000E-001	3.57670E+000	9	...........
	21	0.293333	5.45220E-001	4.01848E-004	0.00000E+000	2.19096E-004	2.40040E-001	5.45447E-001	3.57670E+000	9	...........
	22	0.306667	5.51649E-001	4.01717E-004	0.00000E+000	2.21607E-004	2.40040E-001	5.51857E-001	3.57670E+000	9	...........
	23	0.32	5.58061E-001	3.99896E-004	0.00000E+000	2.23166E-004	2.40040E-001	5.58266E-001	3.57670E+000	9	...........
	24	0.333333	5.64499E-001	4.02186E-004	0.00000E+000	2.27033E-004	2.40040E-001	5.64698E-001	3.57670E+000	9	...........
	25	0.346667	5.70875E-001	4.02152E-004	0.00000E+000	2.29578E-004	2.40040E-001	5.71065E-001	3.57670E+000	9	...........
	26	0.36	5.77154E-001	4.01802E-004	0.00000E+000	2.31902E-004	2.40040E-001	5.77376E-001	3.57726E+000	9	...........
	27	0.373333	5.83453E-001	4.00382E-004	0.00000E+000	2.33604E-004	2.40040E-001	5.83678E-001	3.57760E+000	9	...........
	28	0.386667	5.89752E-001	4.01209E-004	0.00000E+000	2.36614E-004	2.40040E-001	5.89991E-001	3.57760E+000	9	...........
	29	0.4	5.95993E-001	4.00015E-004	0.00000E+000	2.38406E-004	2.40040E-001	5.96216E-001	3.57760E+000	9	...........
	30	0.413333	6.02229E-001	4.01884E-004	0.00000E+000	2.42026E-004	2.40040E-001	6.02481E-001	3.57760E+000	9	...........
	31	0.426667	6.08394E-001	4.01238E-004	0.00000E+000	2.44111E-004	2.40040E-001	6.08638E-001	3.57760E+000	9	...........
	32	0.44	6.14577E-001	4.00521E-004	0.00000E+000	2.46151E-004	2.40040E-001	6.14807E-001	3.57760E+000	9	...........
	33	0.453333	6.20693E-001	4.00339E-004	0.00000E+000	2.48488E-004	2.40040E-001	6.20912E-001	3.57760E+000	9	...........
	34	0.466667	6.26709E-001	3.99665E-004	0.00000E+000	2.50474E-004	2.40040E-001	6.26956E-001	3.57760E+000	9	...........
	35	0.48	6.32774E-001	3.99945E-004	0.00000E+000	2.53075E-004	2.40040E-001	6.33026E-001	3.57760E+000	9	...........
	36	0.493333	6.38848E-001	4.01813E-004	0.00000E+000	2.56697E-004	2.40040E-001	6.39091E-001	3.57760E+000	9	...........
	37	0.506667	6.44956E-001	4.01080E-004	0.00000E+000	2.58679E-004	2.40040E-001	6.45182E-001	3.57760E+000	9	...........
	38	0.52	6.50971E-001	4.01137E-004	0.00000E+000	2.61128E-004	2.40040E-001	6.51177E-001	3.57760E+000	9	...........
	39	0.533333	6.56937E-001	4.01868E-004	0.00000E+000	2.64002E-004	2.40040E-001	6.57151E-001	3.57760E+000	9	...........
	40	0.546667	6.62926E-001	4.01957E-004	0.00000E+000	2.66468E-004	2.40040E-001	6.63132E-001	3.57760E+000	9	...........
	41	0.56	6.68924E-001	4.00761E-004	0.00000E+000	2.68078E-004	2.40040E-001	6.69130E-001	3.57760E+000	9	...........
	42	0.573333	6.74922E-001	4.02500E-004	0.00000E+000	2.71656E-004	2.40040E-001	6.75123E-001	3.57760E+000	9	...........
	43	0.586667	6.80814E-001	4.00645E-004	0.00000E+000	2.72765E-004	2.40040E-001	6.81054E-001	3.57760E+000	9	...........
	44	0.6	6.86756E-001	4.00753E-004	0.00000E+000	2.75220E-004	2.40040E-001	6.86984E-001	3.57760E+000	9	...........
	45	0.613333	6.92649E-001	4.00101E-004	0.00000E+000	2.77129E-004	2.40040E-001	6.92884E-001	3.57760E+000	9	...........
	46	0.626667	6.98453E-001	4.01447E-004	0.00000E+000	2.80392E-004	2.40040E-001	6.98695E-001	3.57760E+000	9	...........
	47	0.64	7.04230E-001	4.00920E-004	0.00000E+000	2.82340E-004	2.40040E-001	7.04455E-001	3.57760E+000	9	...........
	48	0.653333	7.10011E-001	4.02113E-004	0.00000E+000	2.85505E-004	2.40040E-001	7.10271E-001	3.57760E+000	9	...........
	49	0.666667	7.15767E-001	4.01095E-004	0.00000E+000	2.87091E-004	2.40040E-001	7.15993E-001	3.57760E+000	9	...........
	50	0.68	7.21483E-001	4.01452E-004	0.00000E+000	2.89641E-004	2.40040E-001	7.21678E-001	3.57760E+000	9	...........
	51	0.693333	7.27189E-001	4.00547E-004	0.00000E+000	2.91273E-004	2.40040E-001	7.27409E-001	3.57760E+000	9	...........
	52	0.706667	7.32870E-001	4.01323E-004	0.00000E+000	2.94118E-004	2.40040E-001	7.33144E-001	3.57760E+000	9	...........
	53	0.72	7.38529E-001	4.00289E-004	0.00000E+000	2.95625E-004	2.40040E-001	7.38794E-001	3.57760E+000	9	...........
	54	0.733333	7.44173E-001	4.02467E-004	0.00000E+000	2.99505E-004	2.40040E-001	7.44411E-001	3.57760E+000	9	...........
	55	0.746667	7.49804E-001	4.00551E-004	0.00000E+000	3.00335E-004	2.40040E-001	7.50044E-001	3.57760E+000	9	...........
	56	0.76	7.55428E-001	3.99670E-004	0.00000E+000	3.01922E-004	2.40040E-001	7.55686E-001	3.57760E+000	9	...........
	57	0.773333	7.60986E-001	4.01037E-004	0.00000E+000	3.05183E-004	2.40040E-001	7.61232E-001	3.57760E+000	9	...........
	58	0.786667	7.66549E-001	4.01067E-004	0.00000E+000	3.07437E-004	2.40040E-001	7.66816E-001	3.57760E+000	9	...........
	59	0.8	7.72142E-001	4.01662E-004	0.00000E+000	3.10140E-004	2.40040E-001	7.72391E-001	3.57760E+000	9	...........
	60	0.813333	7.77560E-001	4.00466E-004	0.00000E+000	3.11386E-004	2.40040E-001	7.77815E-001	3.57760E+000	9	...........
	61	0.826667	7.82973E-001	4.00682E-004	0.00000E+000	3.13724E-004	2.40040E-001	7.83231E-001	3.57760E+000	9	...........
	62	0.84	7.88413E-001	4.00281E-004	0.00000E+000	3.15587E-004	2.40040E-001	7.88654E-001	3.57760E+000	9	...........
	63	0.853333	7.93884E-001	4.00677E-004	0.00000E+000	3.18091E-004	2.40040E-001	7.94124E-001	3.57760E+000	9	...........
	64	0.866667	7.99254E-001	4.02386E-004	0.00000E+000	3.21609E-004	2.40040E-001	7.99457E-001	3.57760E+000	9	...........
	65	0.88	8.04494E-001	4.00240E-004	0.00000E+000	3.21990E-004	2.40040E-001	8.04703E-001	3.57760E+000	9	...........
	66	0.893333	8.09707E-001	4.00579E-004	0.00000E+000	3.24352E-004	2.40040E-001	8.09950E-001	3.57760E+000	9	...........
	67	0.906667	8.14913E-001	4.00851E-004	0.00000E+000	3.26659E-004	2.40040E-001	8.15178E-001	3.57760E+000	9	...........
	68	0.92	8.20148E-001	4.00639E-004	0.00000E+000	3.28583E-004	2.40040E-001	8.20423E-001	3.57760E+000	9	...........
	69	0.933333	8.25359E-001	4.00145E-004	0.00000E+000	3.30263E-004	2.40040E-001	8.25611E-001	3.57760E+000	9	...........
	70	0.946667	8.30512E-001	4.01704E-004	0.00000E+000	3.33620E-004	2.40040E-001	8.30778E-001	3.57760E+000	9	...........
	71	0.96	8.35625E-001	4.01453E-004	0.00000E+000	3.35465E-004	2.40040E-001	8.35905E-001	3.57760E+000	9	...........
	72	0.97333	8.40708E-001	4.00539E-004	0.00000E+000	3.36736E-004	2.40040E-001	8.41004E-001	3.57760E+000	9	...........
	73	0.98667	8.45787E-001	4.01066E-004	0.00000E+000	3.39216E-004	2.40040E-001	8.46060E-001	3.57760E+000	9	...........
	74	1	8.50752E-001	4.00117E-004	0.00000E+000	3.40400E-004	2.40040E-001	8.51026E-001	3.57760E+000	9	...........
	75	1.01333	8.55718E-001	4.01475E-004	0.00000E+000	3.43550E-004	2.40040E-001	8.55989E-001	3.57760E+000	9	...........
	76	1.02667	8.60665E-001	4.01483E-004	0.00000E+000	3.45542E-004	2.40040E-001	8.60939E-001	3.57760E+000	9	...........
	77	1.04	8.65468E-001	4.00900E-004	0.00000E+000	3.46966E-004	2.40040E-001	8.65749E-001	3.57760E+000	9	...........
	78	1.05333	8.70274E-001	4.00544E-004	0.00000E+000	3.48583E-004	2.40040E-001	8.70587E-001	3.57760E+000	9	...........
	79	1.06667	8.75054E-001	4.01292E-004	0.00000E+000	3.51152E-004	2.40040E-001	8.75348E-001	3.57760E+000	9	...........
	80	1.08	8.79855E-001	4.01498E-004	0.00000E+000	3.53260E-004	2.40040E-001	8.80158E-001	3.57760E+000	9	...........
	81	1.09333	8.84587E-001	4.01709E-004	0.00000E+000	3.55346E-004	2.40040E-001	8.84899E-001	3.57760E+000	9	...........
	82	1.10667	8.89260E-001	4.01885E-004	0.00000E+000	3.57380E-004	2.40040E-001	8.89534E-001	3.57760E+000	9	...........
	83	1.12	8.93873E-001	4.00770E-004	0.00000E+000	3.58237E-004	2.40040E-001	8.94156E-001	3.57760E+000	9	...........
	84	1.13333	8.98462E-001	4.01637E-004	0.00000E+000	3.60856E-004	2.40040E-001	8.98760E-001	3.57760E+000	9	...........
	85	1.14667	9.03068E-001	4.01881E-004	0.00000E+000	3.62925E-004	2.40040E-001	9.03368E-001	3.57760E+000	9	...........
	86	1.16	9.07607E-001	4.00895E-004	0.00000E+000	3.63855E-004	2.40040E-001	9.07927E-001	3.57760E+000	9	...........
	87	1.17333	9.12102E-001	4.01571E-004	0.00000E+000	3.66274E-004	2.40040E-001	9.12418E-001	3.57760E+000	9	...........
	88	1.18667	9.16584E-001	4.00120E-004	0.00000E+000	3.66743E-004	2.40040E-001	9.16878E-001	3.57760E+000	9	...........
	89	1.2	9.20999E-001	4.00576E-004	0.00000E+000	3.68930E-004	2.40040E-001	9.21287E-001	3.57760E+000	9	...........
	90	1.21333	9.25373E-001	4.02442E-004	0.00000E+000	3.72409E-004	2.40040E-001	9.25632E-001	3.57760E+000	9	...........
	91	1.22667	9.29698E-001	4.01476E-004	0.00000E+000	3.73252E-004	2.40040E-001	9.29958E-001	3.57760E+000	9	...........
	92	1.24	9.33967E-001	4.01500E-004	0.00000E+000	3.74988E-004	2.40040E-001	9.34238E-001	3.57760E+000	9	...........
	93	1.25333	9.38192E-001	4.01749E-004	0.00000E+000	3.76918E-004	2.40040E-001	9.38524E-001	3.57760E+000	9	...........
	94	1.26667	9.42388E-001	4.01761E-004	0.00000E+000	3.78615E-004	2.40040E-001	9.42708E-001	3.57760E+000	9	...........
	95	1.28	9.46595E-001	4.01066E-004	0.00000E+000	3.79647E-004	2.40040E-001	9.46919E-001	3.57760E+000	9	...........
	96	1.29333	9.50759E-001	4.00649E-004	0.00000E+000	3.80921E-004	2.40040E-001	9.51085E-001	3.57760E+000	9	...........
	97	1.30667	9.54897E-001	4.01098E-004	0.00000E+000	3.83007E-004	2.40040E-001	9.55219E-001	3.57760E+000	9	...........
	98	1.32	9.58918E-001	4.00540E-004	0.00000E+000	3.84085E-004	2.40040E-001	9.59238E-001	3.57760E+000	9	...........
	99	1.33333	9.62867E-001	4.00479E-004	0.00000E+000	3.85608E-004	2.40040E-001	9.63229E-001	3.57760E+000	9	...........
	100	1.34667	9.66833E-001	4.01202E-004	0.00000E+000	3.87895E-004	2.40040E-001	9.67210E-001	3.57760E+000	9	...........
	101	1.36	9.70820E-001	4.00403E-004	0.00000E+000	3.88720E-004	2.40040E-001	9.71179E-001	3.57729E+000	9	...........
	102	1.37333	9.74768E-001	4.01785E-004	0.00000E+000	3.91647E-004	2.40040E-001	9.75095E-001	3.57710E+000	9	...........
	103	1.38667	9.78596E-001	4.01086E-004	0.00000E+000	3.92501E-004	2.40040E-001	9.78926E-001	3.57710E+000	9	...........
	104	1.4	9.82418E-001	4.02568E-004	0.00000E+000	3.95490E-004	2.40040E-001	9.82761E-001	3.57710E+000	9	...........
	105	1.41333	9.86152E-001	4.01384E-004	0.00000E+000	3.95825E-004	2.40040E-001	9.86499E-001	3.57710E+000	9	...........
	106	1.42667	9.89880E-001	4.01856E-004	0.00000E+000	3.97789E-004	2.40040E-001	9.90235E-001	3.57710E+000	9	...........
	107	1.44	9.93524E-001	4.00083E-004	0.00000E+000	3.97492E-004	2.40040E-001	9.93892E-001	3.57710E+000	9	...........
	108	1.45333	9.97196E-001	4.01052E-004	0.00000E+000	3.99928E-004	2.40040E-001	9.97562E-001	3.57710E+000	9	...........
	109	1.45833	9.99699E-001	4.02247E-004	0.00000E+000	4.02126E-004	2.40040E-001	1.00006E+000	3.57710E+000	9	...........
STARTTIMEOFFSET	QUANT	2417.639	Start Time Offset (s)
