EXPLAIN
TAG	PWR800_CHARGE
TITLE	LABEL	PWR Cyclic Charge Discharge (Cell) - Charge Step	Test &Identifier
DATE	LABEL	12-7-2017	Date
TIME	LABEL	14:33:20	Time
NOTES	NOTES	3	&Notes...
	supercap test cell
	0.4mg
	6M KOH
PSTAT	PSTAT	IFC5000-01520	Potentiostat
CAPACITY	QUANT	1.00000E-003	Capacity (A-hr)
CELLTYPE	SELECTOR	1	&Cell Type
WORKINGCONNECTION	SELECTOR	0	&Working Lead
MAXCHARGETIME	VARIABLEANDUNITS	1.00000E+002	s	1.00000E+002	second(s)	Max &Charge Time
CHARGECURRENT	QUANT	4.00000E-004	&Charge Current (A) 
VOLTAGEFINISH	TWOPARAM	F	1.00000E-003	3.60000E+003	&Voltage Finish	 I (A) < 	Max Time(s)
SAMPLETIME	QUANT	1.00000E-002	Sa&mple Period (s)
CHARGESTOPAT1	MULTIPARAM	4	1.00000E+000	Charge Stop At &1	Voltage > Limit	V
CHARGESTOPAT2	MULTIPARAM	0	0.00000E+000	Charge Stop At &2	None	N/A
AESBHCSELECTOR	TOGGLE	F	Save Both Half Cells
IRCOMP	TOGGLE	F	IR &Measure
EOC	QUANT	0	Open Circuit (V)
SEQUENCER	TOGGLE	TRUE	Run as Sequence
PSTATMODEL	IQUANT	53	Pstat Model
PSTATSECTION	LABEL	IFC5000-01520	Pstat Section
PSTATSERIALNO	LABEL	01520	Pstat Serial Number
CTRLMODE	IQUANT	0	Control Mode
ELECTROMETER	IQUANT	1	RE=0 or CS=1
IESTAB	IQUANT	0	I/E Stability
CASPEED	IQUANT	4	Control Amp Speed
CONVENTION	IQUANT	1	Current Convention
ICHRANGE	IQUANT	2	Ich Range
ICHRANGEMODE	TOGGLE	T	Ich Auto Range
ICHOFFSETENABLE	TOGGLE	F	Ich Offset Enable
ICHOFFSET	QUANT	0	Ich Offset (V)
ICHFILTER	IQUANT	1	Ich Filter
VCHRANGE	IQUANT	2	Vch Range
VCHRANGEMODE	TOGGLE	T	Vch Auto Range
VCHOFFSETENABLE	TOGGLE	F	Vch Offset Enable
VCHOFFSET	QUANT	0	Vch Offset (V)
VCHFILTER	IQUANT	1	Vch Filter
IERANGELOWERLIMIT	IQUANT	9	I/E Range Lower Limit
IERANGEMODE	TOGGLE	F	I/E AutoRange
IERANGE	IQUANT	9	I/E Range
ACHSELECT	IQUANT	1	Ach Select
ACHRANGE	IQUANT	2	Ach Range
ACHOFFSETENABLE	TOGGLE	F	Ach Offset Enable
ACHOFFSET	QUANT	0	Ach Offset (V)
ACHFILTER	IQUANT	1	Ach Filter
CABLEID	IQUANT	14	Cable ID
DCCALDATE	LABEL	5-7-2017	DC Calibration Date
ACCALDATE	LABEL	12/3/2015	AC Calibration Date
FRAMEWORKVERSION	QUANT	7.01	Framework Version
INSTRUMENTVERSION	LABEL	4.00	Instrument Version
CURVE	TABLE	130
	Pt	T	Vf	Im	Vu	Pwr	Sig	Ach	Temp	IERange	Over
	#	s	V	A	V	W	V	V	deg C	#	bits
	0	0.013333	3.44320E-001	4.01600E-004	0.00000E+000	1.38279E-004	2.40040E-001	3.44408E-001	3.57620E+000	9	...........
	1	0.026667	3.54867E-001	4.02513E-004	0.00000E+000	1.42839E-004	2.40040E-001	3.54937E-001	3.57620E+000	9	...........
	2	0.04	3.64012E-001	4.01450E-004	0.00000E+000	1.46133E-004	2.40040E-001	3.64083E-001	3.57620E+000	9	...........
	3	0.053333	3.72356E-001	4.00515E-004	0.00000E+000	1.49134E-004	2.40040E-001	3.72424E-001	3.57620E+000	9	...........
	4	0.066667	3.80223E-001	4.00500E-004	0.00000E+000	1.52279E-004	2.40040E-001	3.80300E-001	3.57620E+000	9	...........
	5	0.08	3.87718E-001	4.01628E-004	0.00000E+000	1.55719E-004	2.40040E-001	3.87791E-001	3.57620E+000	9	...........
	6	0.093333	3.94901E-001	4.01233E-004	0.00000E+000	1.58447E-004	2.40040E-001	3.94978E-001	3.57620E+000	9	...........
	7	0.106667	4.01932E-001	4.01197E-004	0.00000E+000	1.61254E-004	2.40040E-001	4.02007E-001	3.57620E+000	9	...........
	8	0.12	4.08752E-001	3.99808E-004	0.00000E+000	1.63423E-004	2.40040E-001	4.08831E-001	3.57620E+000	9	...........
	9	0.133333	4.15429E-001	4.01218E-004	0.00000E+000	1.66678E-004	2.40040E-001	4.15514E-001	3.57620E+000	9	...........
	10	0.146667	4.21954E-001	4.01342E-004	0.00000E+000	1.69348E-004	2.40040E-001	4.22037E-001	3.57620E+000	9	...........
	11	0.16	4.28261E-001	4.00712E-004	0.00000E+000	1.71609E-004	2.40040E-001	4.28346E-001	3.57620E+000	9	...........
	12	0.173333	4.34574E-001	4.02388E-004	0.00000E+000	1.74867E-004	2.40040E-001	4.34662E-001	3.57620E+000	9	...........
	13	0.186667	4.40815E-001	4.00541E-004	0.00000E+000	1.76564E-004	2.40040E-001	4.40902E-001	3.57620E+000	9	...........
	14	0.2	4.47002E-001	4.01836E-004	0.00000E+000	1.79621E-004	2.40040E-001	4.47093E-001	3.57620E+000	9	...........
	15	0.213333	4.53166E-001	4.00820E-004	0.00000E+000	1.81638E-004	2.40040E-001	4.53261E-001	3.57620E+000	9	...........
	16	0.226667	4.59210E-001	4.02701E-004	0.00000E+000	1.84924E-004	2.40040E-001	4.59301E-001	3.57620E+000	9	...........
	17	0.24	4.65220E-001	4.01767E-004	0.00000E+000	1.86910E-004	2.40040E-001	4.65312E-001	3.57620E+000	9	...........
	18	0.253333	4.71180E-001	4.00052E-004	0.00000E+000	1.88497E-004	2.40040E-001	4.71275E-001	3.57620E+000	9	...........
	19	0.266667	4.77059E-001	4.01612E-004	0.00000E+000	1.91593E-004	2.40040E-001	4.77157E-001	3.57620E+000	9	...........
	20	0.28	4.82944E-001	4.01021E-004	0.00000E+000	1.93671E-004	2.40040E-001	4.83035E-001	3.57621E+000	9	...........
	21	0.293333	4.88785E-001	4.01055E-004	0.00000E+000	1.96030E-004	2.40040E-001	4.88887E-001	3.57630E+000	9	...........
	22	0.306667	4.94594E-001	4.00550E-004	0.00000E+000	1.98110E-004	2.40040E-001	4.94698E-001	3.57630E+000	9	...........
	23	0.32	5.00398E-001	4.01072E-004	0.00000E+000	2.00696E-004	2.40040E-001	5.00497E-001	3.57630E+000	9	...........
	24	0.333333	5.06176E-001	4.01472E-004	0.00000E+000	2.03216E-004	2.40040E-001	5.06281E-001	3.57630E+000	9	...........
	25	0.346667	5.11874E-001	4.01768E-004	0.00000E+000	2.05655E-004	2.40040E-001	5.11980E-001	3.57630E+000	9	...........
	26	0.36	5.17523E-001	4.00817E-004	0.00000E+000	2.07432E-004	2.40040E-001	5.17623E-001	3.57630E+000	9	...........
	27	0.373333	5.23159E-001	4.01127E-004	0.00000E+000	2.09853E-004	2.40040E-001	5.23266E-001	3.57630E+000	9	...........
	28	0.386667	5.28774E-001	4.01116E-004	0.00000E+000	2.12100E-004	2.40040E-001	5.28883E-001	3.57630E+000	9	...........
	29	0.4	5.34217E-001	4.00319E-004	0.00000E+000	2.13857E-004	2.40040E-001	5.34382E-001	3.57630E+000	9	...........
	30	0.413333	5.39657E-001	4.00075E-004	0.00000E+000	2.15903E-004	2.40040E-001	5.39916E-001	3.57630E+000	9	...........
	31	0.426667	5.45243E-001	4.01060E-004	0.00000E+000	2.18675E-004	2.40040E-001	5.45490E-001	3.57630E+000	9	...........
	32	0.44	5.50795E-001	4.00891E-004	0.00000E+000	2.20809E-004	2.40040E-001	5.51051E-001	3.57630E+000	9	...........
	33	0.453333	5.56312E-001	4.00220E-004	0.00000E+000	2.22647E-004	2.40040E-001	5.56581E-001	3.57630E+000	9	...........
	34	0.466667	5.61828E-001	4.00790E-004	0.00000E+000	2.25175E-004	2.40040E-001	5.62102E-001	3.57630E+000	9	...........
	35	0.48	5.67332E-001	4.00466E-004	0.00000E+000	2.27197E-004	2.40040E-001	5.67552E-001	3.57630E+000	9	...........
	36	0.493333	5.72796E-001	4.02065E-004	0.00000E+000	2.30301E-004	2.40040E-001	5.73022E-001	3.57630E+000	9	...........
	37	0.506667	5.78196E-001	4.01879E-004	0.00000E+000	2.32365E-004	2.40040E-001	5.78435E-001	3.57630E+000	9	...........
	38	0.52	5.83625E-001	4.00498E-004	0.00000E+000	2.33741E-004	2.40040E-001	5.83842E-001	3.57630E+000	9	...........
	39	0.533333	5.89033E-001	4.00790E-004	0.00000E+000	2.36078E-004	2.40040E-001	5.89276E-001	3.57630E+000	9	...........
	40	0.546667	5.94446E-001	4.01383E-004	0.00000E+000	2.38600E-004	2.40040E-001	5.94663E-001	3.57630E+000	9	...........
	41	0.56	5.99843E-001	3.99968E-004	0.00000E+000	2.39918E-004	2.40040E-001	6.00090E-001	3.57630E+000	9	...........
	42	0.573333	6.05208E-001	4.00820E-004	0.00000E+000	2.42579E-004	2.40040E-001	6.05487E-001	3.57630E+000	9	...........
	43	0.586667	6.10562E-001	3.99989E-004	0.00000E+000	2.44218E-004	2.40040E-001	6.10843E-001	3.57630E+000	9	...........
	44	0.6	6.16009E-001	4.00285E-004	0.00000E+000	2.46580E-004	2.40040E-001	6.16244E-001	3.57630E+000	9	...........
	45	0.613333	6.21361E-001	4.01237E-004	0.00000E+000	2.49313E-004	2.40040E-001	6.21581E-001	3.57630E+000	9	...........
	46	0.626667	6.26659E-001	4.01271E-004	0.00000E+000	2.51460E-004	2.40040E-001	6.26909E-001	3.57630E+000	9	...........
	47	0.64	6.31906E-001	4.00338E-004	0.00000E+000	2.52976E-004	2.40040E-001	6.32147E-001	3.57630E+000	9	...........
	48	0.653333	6.37153E-001	4.00750E-004	0.00000E+000	2.55339E-004	2.40040E-001	6.37419E-001	3.57630E+000	9	...........
	49	0.666667	6.42450E-001	4.00838E-004	0.00000E+000	2.57518E-004	2.40040E-001	6.42713E-001	3.57630E+000	9	...........
	50	0.68	6.47710E-001	4.02558E-004	0.00000E+000	2.60741E-004	2.40040E-001	6.47981E-001	3.57630E+000	9	...........
	51	0.693333	6.52935E-001	4.00800E-004	0.00000E+000	2.61697E-004	2.40040E-001	6.53197E-001	3.57630E+000	9	...........
	52	0.706667	6.58235E-001	4.00378E-004	0.00000E+000	2.63543E-004	2.40040E-001	6.58466E-001	3.57630E+000	9	...........
	53	0.72	6.63449E-001	4.00981E-004	0.00000E+000	2.66031E-004	2.40040E-001	6.63688E-001	3.57630E+000	9	...........
	54	0.733333	6.68731E-001	4.00409E-004	0.00000E+000	2.67766E-004	2.40040E-001	6.68942E-001	3.57630E+000	9	...........
	55	0.746667	6.73923E-001	4.00525E-004	0.00000E+000	2.69923E-004	2.40040E-001	6.74137E-001	3.57630E+000	9	...........
	56	0.76	6.79102E-001	3.99673E-004	0.00000E+000	2.71419E-004	2.40040E-001	6.79340E-001	3.57630E+000	9	...........
	57	0.773333	6.84286E-001	4.00346E-004	0.00000E+000	2.73951E-004	2.40040E-001	6.84515E-001	3.57630E+000	9	...........
	58	0.786667	6.89434E-001	4.01724E-004	0.00000E+000	2.76962E-004	2.40040E-001	6.89673E-001	3.57630E+000	9	...........
	59	0.8	6.94614E-001	4.01210E-004	0.00000E+000	2.78686E-004	2.40040E-001	6.94840E-001	3.57630E+000	9	...........
	60	0.813333	6.99704E-001	4.01291E-004	0.00000E+000	2.80785E-004	2.40040E-001	6.99947E-001	3.57630E+000	9	...........
	61	0.826667	7.04844E-001	4.02770E-004	0.00000E+000	2.83890E-004	2.40040E-001	7.05094E-001	3.57630E+000	9	...........
	62	0.84	7.09891E-001	4.01816E-004	0.00000E+000	2.85246E-004	2.40040E-001	7.10184E-001	3.57630E+000	9	...........
	63	0.853333	7.14991E-001	4.02080E-004	0.00000E+000	2.87483E-004	2.40040E-001	7.15260E-001	3.57630E+000	9	...........
	64	0.866667	7.20133E-001	4.00637E-004	0.00000E+000	2.88511E-004	2.40040E-001	7.20361E-001	3.57630E+000	9	...........
	65	0.88	7.25112E-001	4.00908E-004	0.00000E+000	2.90703E-004	2.40040E-001	7.25381E-001	3.57630E+000	9	...........
	66	0.893333	7.30170E-001	4.01248E-004	0.00000E+000	2.92979E-004	2.40040E-001	7.30420E-001	3.57630E+000	9	...........
	67	0.906667	7.35197E-001	4.01389E-004	0.00000E+000	2.95100E-004	2.40040E-001	7.35431E-001	3.57630E+000	9	...........
	68	0.92	7.40209E-001	4.01796E-004	0.00000E+000	2.97413E-004	2.40040E-001	7.40456E-001	3.57630E+000	9	...........
	69	0.933333	7.45247E-001	4.01198E-004	0.00000E+000	2.98992E-004	2.40040E-001	7.45463E-001	3.57630E+000	9	...........
	70	0.946667	7.50204E-001	4.00933E-004	0.00000E+000	3.00781E-004	2.40040E-001	7.50400E-001	3.57630E+000	9	...........
	71	0.96	7.55099E-001	4.01656E-004	0.00000E+000	3.03290E-004	2.40040E-001	7.55312E-001	3.57630E+000	9	...........
	72	0.97333	7.60045E-001	3.99906E-004	0.00000E+000	3.03947E-004	2.40040E-001	7.60264E-001	3.57630E+000	9	...........
	73	0.98667	7.64998E-001	4.00269E-004	0.00000E+000	3.06205E-004	2.40040E-001	7.65224E-001	3.57630E+000	9	...........
	74	1	7.69897E-001	3.99452E-004	0.00000E+000	3.07537E-004	2.40040E-001	7.70142E-001	3.57630E+000	9	...........
	75	1.01333	7.74747E-001	4.01618E-004	0.00000E+000	3.11152E-004	2.40040E-001	7.74996E-001	3.57630E+000	9	...........
	76	1.02667	7.79672E-001	4.00816E-004	0.00000E+000	3.12505E-004	2.40040E-001	7.79910E-001	3.57630E+000	9	...........
	77	1.04	7.84480E-001	4.00965E-004	0.00000E+000	3.14549E-004	2.40040E-001	7.84719E-001	3.57630E+000	9	...........
	78	1.05333	7.89281E-001	4.00260E-004	0.00000E+000	3.15918E-004	2.40040E-001	7.89521E-001	3.57630E+000	9	...........
	79	1.06667	7.94124E-001	4.01577E-004	0.00000E+000	3.18902E-004	2.40040E-001	7.94377E-001	3.57630E+000	9	...........
	80	1.08	7.98917E-001	3.99804E-004	0.00000E+000	3.19410E-004	2.40040E-001	7.99138E-001	3.57630E+000	9	...........
	81	1.09333	8.03746E-001	4.01258E-004	0.00000E+000	3.22509E-004	2.40040E-001	8.04005E-001	3.57630E+000	9	...........
	82	1.10667	8.08440E-001	4.01257E-004	0.00000E+000	3.24392E-004	2.40040E-001	8.08680E-001	3.57630E+000	9	...........
	83	1.12	8.13146E-001	4.00164E-004	0.00000E+000	3.25391E-004	2.40040E-001	8.13378E-001	3.57630E+000	9	...........
	84	1.13333	8.17875E-001	4.00357E-004	0.00000E+000	3.27442E-004	2.40040E-001	8.18125E-001	3.57630E+000	9	...........
	85	1.14667	8.22567E-001	4.00747E-004	0.00000E+000	3.29641E-004	2.40040E-001	8.22825E-001	3.57630E+000	9	...........
	86	1.16	8.27103E-001	4.02232E-004	0.00000E+000	3.32687E-004	2.40040E-001	8.27352E-001	3.57630E+000	9	...........
	87	1.17333	8.31680E-001	4.00404E-004	0.00000E+000	3.33008E-004	2.40040E-001	8.31930E-001	3.57630E+000	9	...........
	88	1.18667	8.36255E-001	4.02013E-004	0.00000E+000	3.36186E-004	2.40040E-001	8.36533E-001	3.57630E+000	9	...........
	89	1.2	8.40788E-001	4.00845E-004	0.00000E+000	3.37026E-004	2.40040E-001	8.41089E-001	3.57630E+000	9	...........
	90	1.21333	8.45383E-001	4.01352E-004	0.00000E+000	3.39296E-004	2.40040E-001	8.45671E-001	3.57630E+000	9	...........
	91	1.22667	8.49958E-001	4.02618E-004	0.00000E+000	3.42209E-004	2.40040E-001	8.50257E-001	3.57630E+000	9	...........
	92	1.24	8.54567E-001	4.00204E-004	0.00000E+000	3.42001E-004	2.40040E-001	8.54851E-001	3.57630E+000	9	...........
	93	1.25333	8.58946E-001	4.02474E-004	0.00000E+000	3.45704E-004	2.40040E-001	8.59236E-001	3.57630E+000	9	...........
	94	1.26667	8.63290E-001	4.01463E-004	0.00000E+000	3.46579E-004	2.40040E-001	8.63593E-001	3.57630E+000	9	...........
	95	1.28	8.67688E-001	4.00507E-004	0.00000E+000	3.47516E-004	2.40040E-001	8.67997E-001	3.57632E+000	9	...........
	96	1.29333	8.72109E-001	4.00464E-004	0.00000E+000	3.49248E-004	2.40040E-001	8.72369E-001	3.57650E+000	9	...........
	97	1.30667	8.76410E-001	4.00230E-004	0.00000E+000	3.50766E-004	2.40040E-001	8.76681E-001	3.57650E+000	9	...........
	98	1.32	8.80688E-001	4.01296E-004	0.00000E+000	3.53417E-004	2.40040E-001	8.80959E-001	3.57650E+000	9	...........
	99	1.33333	8.85006E-001	4.00538E-004	0.00000E+000	3.54478E-004	2.40040E-001	8.85275E-001	3.57650E+000	9	...........
	100	1.34667	8.89310E-001	4.00320E-004	0.00000E+000	3.56009E-004	2.40040E-001	8.89588E-001	3.57650E+000	9	...........
	101	1.36	8.93553E-001	4.00277E-004	0.00000E+000	3.57669E-004	2.40040E-001	8.93848E-001	3.57650E+000	9	...........
	102	1.37333	8.97823E-001	4.01115E-004	0.00000E+000	3.60130E-004	2.40040E-001	8.98147E-001	3.57650E+000	9	...........
	103	1.38667	9.01979E-001	4.00047E-004	0.00000E+000	3.60834E-004	2.40040E-001	9.02307E-001	3.57650E+000	9	...........
	104	1.4	9.06160E-001	4.01289E-004	0.00000E+000	3.63632E-004	2.40040E-001	9.06497E-001	3.57650E+000	9	...........
	105	1.41333	9.10315E-001	4.00475E-004	0.00000E+000	3.64559E-004	2.40040E-001	9.10643E-001	3.57650E+000	9	...........
	106	1.42667	9.14389E-001	4.01445E-004	0.00000E+000	3.67077E-004	2.40040E-001	9.14714E-001	3.57650E+000	9	...........
	107	1.44	9.18427E-001	4.00234E-004	0.00000E+000	3.67586E-004	2.40040E-001	9.18770E-001	3.57650E+000	9	...........
	108	1.45333	9.22499E-001	4.00608E-004	0.00000E+000	3.69561E-004	2.40040E-001	9.22783E-001	3.57650E+000	9	...........
	109	1.46667	9.26436E-001	3.99545E-004	0.00000E+000	3.70153E-004	2.40040E-001	9.26727E-001	3.57650E+000	9	...........
	110	1.48	9.30305E-001	4.01059E-004	0.00000E+000	3.73107E-004	2.40040E-001	9.30598E-001	3.57650E+000	9	...........
	111	1.49333	9.34194E-001	4.02757E-004	0.00000E+000	3.76253E-004	2.40040E-001	9.34494E-001	3.57650E+000	9	...........
	112	1.50667	9.38111E-001	4.01856E-004	0.00000E+000	3.76985E-004	2.40040E-001	9.38428E-001	3.57650E+000	9	...........
	113	1.52	9.42011E-001	4.01623E-004	0.00000E+000	3.78333E-004	2.40040E-001	9.42309E-001	3.57650E+000	9	...........
	114	1.53333	9.45847E-001	4.01550E-004	0.00000E+000	3.79805E-004	2.40040E-001	9.46191E-001	3.57650E+000	9	...........
	115	1.54667	9.49632E-001	4.02183E-004	0.00000E+000	3.81926E-004	2.40040E-001	9.49958E-001	3.57650E+000	9	...........
	116	1.56	9.53349E-001	4.00897E-004	0.00000E+000	3.82195E-004	2.40040E-001	9.53669E-001	3.57650E+000	9	...........
	117	1.57333	9.57058E-001	3.99906E-004	0.00000E+000	3.82733E-004	2.40040E-001	9.57360E-001	3.57650E+000	9	...........
	118	1.58667	9.60737E-001	4.00240E-004	0.00000E+000	3.84525E-004	2.40040E-001	9.61061E-001	3.57650E+000	9	...........
	119	1.6	9.64402E-001	4.01700E-004	0.00000E+000	3.87401E-004	2.40040E-001	9.64726E-001	3.57650E+000	9	...........
	120	1.61333	9.67973E-001	4.01151E-004	0.00000E+000	3.88304E-004	2.40040E-001	9.68315E-001	3.57650E+000	9	...........
	121	1.62667	9.71541E-001	4.01747E-004	0.00000E+000	3.90314E-004	2.40040E-001	9.71885E-001	3.57650E+000	9	...........
	122	1.64	9.75124E-001	3.99881E-004	0.00000E+000	3.89934E-004	2.40040E-001	9.75424E-001	3.57650E+000	9	...........
	123	1.65333	9.78592E-001	4.01338E-004	0.00000E+000	3.92746E-004	2.40040E-001	9.78896E-001	3.57650E+000	9	...........
	124	1.66667	9.82041E-001	4.01598E-004	0.00000E+000	3.94386E-004	2.40040E-001	9.82356E-001	3.57650E+000	9	...........
	125	1.68	9.85463E-001	3.99542E-004	0.00000E+000	3.93733E-004	2.40040E-001	9.85762E-001	3.57650E+000	9	...........
	126	1.69333	9.88866E-001	4.02360E-004	0.00000E+000	3.97880E-004	2.40040E-001	9.89147E-001	3.57650E+000	9	...........
	127	1.70667	9.92267E-001	4.01154E-004	0.00000E+000	3.98052E-004	2.40040E-001	9.92551E-001	3.57650E+000	9	...........
	128	1.72	9.95628E-001	4.02253E-004	0.00000E+000	4.00494E-004	2.40040E-001	9.95914E-001	3.57650E+000	9	...........
	129	1.73333	9.98877E-001	4.00241E-004	0.00000E+000	3.99791E-004	2.40040E-001	9.99182E-001	3.57650E+000	9	...........
STARTTIMEOFFSET	QUANT	709.9019	Start Time Offset (s)
