EXPLAIN
TAG	PWR800_CHARGE
TITLE	LABEL	PWR Cyclic Charge Discharge (Cell) - Charge Step	Test &Identifier
DATE	LABEL	12-7-2017	Date
TIME	LABEL	14:31:43	Time
NOTES	NOTES	3	&Notes...
	supercap test cell
	0.4mg
	6M KOH
PSTAT	PSTAT	IFC5000-01520	Potentiostat
CAPACITY	QUANT	1.00000E-003	Capacity (A-hr)
CELLTYPE	SELECTOR	1	&Cell Type
WORKINGCONNECTION	SELECTOR	0	&Working Lead
MAXCHARGETIME	VARIABLEANDUNITS	1.00000E+002	s	1.00000E+002	second(s)	Max &Charge Time
CHARGECURRENT	QUANT	4.00000E-004	&Charge Current (A) 
VOLTAGEFINISH	TWOPARAM	F	1.00000E-003	3.60000E+003	&Voltage Finish	 I (A) < 	Max Time(s)
SAMPLETIME	QUANT	1.00000E-002	Sa&mple Period (s)
CHARGESTOPAT1	MULTIPARAM	4	1.00000E+000	Charge Stop At &1	Voltage > Limit	V
CHARGESTOPAT2	MULTIPARAM	0	0.00000E+000	Charge Stop At &2	None	N/A
AESBHCSELECTOR	TOGGLE	F	Save Both Half Cells
IRCOMP	TOGGLE	F	IR &Measure
EOC	QUANT	0	Open Circuit (V)
SEQUENCER	TOGGLE	TRUE	Run as Sequence
PSTATMODEL	IQUANT	53	Pstat Model
PSTATSECTION	LABEL	IFC5000-01520	Pstat Section
PSTATSERIALNO	LABEL	01520	Pstat Serial Number
CTRLMODE	IQUANT	0	Control Mode
ELECTROMETER	IQUANT	1	RE=0 or CS=1
IESTAB	IQUANT	0	I/E Stability
CASPEED	IQUANT	4	Control Amp Speed
CONVENTION	IQUANT	1	Current Convention
ICHRANGE	IQUANT	2	Ich Range
ICHRANGEMODE	TOGGLE	T	Ich Auto Range
ICHOFFSETENABLE	TOGGLE	F	Ich Offset Enable
ICHOFFSET	QUANT	0	Ich Offset (V)
ICHFILTER	IQUANT	1	Ich Filter
VCHRANGE	IQUANT	2	Vch Range
VCHRANGEMODE	TOGGLE	T	Vch Auto Range
VCHOFFSETENABLE	TOGGLE	F	Vch Offset Enable
VCHOFFSET	QUANT	0	Vch Offset (V)
VCHFILTER	IQUANT	1	Vch Filter
IERANGELOWERLIMIT	IQUANT	9	I/E Range Lower Limit
IERANGEMODE	TOGGLE	F	I/E AutoRange
IERANGE	IQUANT	9	I/E Range
ACHSELECT	IQUANT	1	Ach Select
ACHRANGE	IQUANT	2	Ach Range
ACHOFFSETENABLE	TOGGLE	F	Ach Offset Enable
ACHOFFSET	QUANT	0	Ach Offset (V)
ACHFILTER	IQUANT	1	Ach Filter
CABLEID	IQUANT	14	Cable ID
DCCALDATE	LABEL	5-7-2017	DC Calibration Date
ACCALDATE	LABEL	12/3/2015	AC Calibration Date
FRAMEWORKVERSION	QUANT	7.01	Framework Version
INSTRUMENTVERSION	LABEL	4.00	Instrument Version
CURVE	TABLE	132
	Pt	T	Vf	Im	Vu	Pwr	Sig	Ach	Temp	IERange	Over
	#	s	V	A	V	W	V	V	deg C	#	bits
	0	0.013333	3.42926E-001	4.00170E-004	0.00000E+000	1.37229E-004	2.40040E-001	3.43017E-001	3.57630E+000	9	...........
	1	0.026667	3.53364E-001	4.01456E-004	0.00000E+000	1.41860E-004	2.40040E-001	3.53432E-001	3.57630E+000	9	...........
	2	0.04	3.62388E-001	4.00741E-004	0.00000E+000	1.45224E-004	2.40040E-001	3.62460E-001	3.57630E+000	9	...........
	3	0.053333	3.70667E-001	4.00321E-004	0.00000E+000	1.48386E-004	2.40040E-001	3.70739E-001	3.57630E+000	9	...........
	4	0.066667	3.78381E-001	4.01636E-004	0.00000E+000	1.51971E-004	2.40040E-001	3.78453E-001	3.57630E+000	9	...........
	5	0.08	3.85753E-001	4.00525E-004	0.00000E+000	1.54504E-004	2.40040E-001	3.85823E-001	3.57630E+000	9	...........
	6	0.093333	3.92855E-001	4.00973E-004	0.00000E+000	1.57524E-004	2.40040E-001	3.92927E-001	3.57630E+000	9	...........
	7	0.106667	3.99769E-001	4.00699E-004	0.00000E+000	1.60187E-004	2.40040E-001	3.99843E-001	3.57630E+000	9	...........
	8	0.12	4.06434E-001	4.00632E-004	0.00000E+000	1.62830E-004	2.40040E-001	4.06506E-001	3.57630E+000	9	...........
	9	0.133333	4.13022E-001	4.01610E-004	0.00000E+000	1.65874E-004	2.40040E-001	4.13106E-001	3.57630E+000	9	...........
	10	0.146667	4.19456E-001	4.01264E-004	0.00000E+000	1.68312E-004	2.40040E-001	4.19535E-001	3.57630E+000	9	...........
	11	0.16	4.25848E-001	4.01537E-004	0.00000E+000	1.70994E-004	2.40040E-001	4.25934E-001	3.57630E+000	9	...........
	12	0.173333	4.32184E-001	4.01223E-004	0.00000E+000	1.73402E-004	2.40040E-001	4.32267E-001	3.57630E+000	9	...........
	13	0.186667	4.38356E-001	4.00394E-004	0.00000E+000	1.75515E-004	2.40040E-001	4.38441E-001	3.57630E+000	9	...........
	14	0.2	4.44484E-001	4.00207E-004	0.00000E+000	1.77886E-004	2.40040E-001	4.44574E-001	3.57630E+000	9	...........
	15	0.213333	4.50533E-001	4.01341E-004	0.00000E+000	1.80817E-004	2.40040E-001	4.50617E-001	3.57630E+000	9	...........
	16	0.226667	4.56530E-001	3.99975E-004	0.00000E+000	1.82601E-004	2.40040E-001	4.56616E-001	3.57630E+000	9	...........
	17	0.24	4.62503E-001	4.01118E-004	0.00000E+000	1.85518E-004	2.40040E-001	4.62595E-001	3.57630E+000	9	...........
	18	0.253333	4.68409E-001	4.02221E-004	0.00000E+000	1.88404E-004	2.40040E-001	4.68499E-001	3.57630E+000	9	...........
	19	0.266667	4.74277E-001	4.00988E-004	0.00000E+000	1.90179E-004	2.40040E-001	4.74365E-001	3.57630E+000	9	...........
	20	0.28	4.80020E-001	4.01533E-004	0.00000E+000	1.92744E-004	2.40040E-001	4.80111E-001	3.57630E+000	9	...........
	21	0.293333	4.85847E-001	4.01015E-004	0.00000E+000	1.94832E-004	2.40040E-001	4.85939E-001	3.57630E+000	9	...........
	22	0.306667	4.91592E-001	4.00752E-004	0.00000E+000	1.97007E-004	2.40040E-001	4.91683E-001	3.57630E+000	9	...........
	23	0.32	4.97258E-001	4.00362E-004	0.00000E+000	1.99083E-004	2.40040E-001	4.97355E-001	3.57630E+000	9	...........
	24	0.333333	5.03013E-001	4.00576E-004	0.00000E+000	2.01495E-004	2.40040E-001	5.03115E-001	3.57630E+000	9	...........
	25	0.346667	5.08593E-001	4.01613E-004	0.00000E+000	2.04257E-004	2.40040E-001	5.08692E-001	3.57630E+000	9	...........
	26	0.36	5.14183E-001	4.00507E-004	0.00000E+000	2.05934E-004	2.40040E-001	5.14288E-001	3.57630E+000	9	...........
	27	0.373333	5.19787E-001	4.01501E-004	0.00000E+000	2.08695E-004	2.40040E-001	5.19887E-001	3.57630E+000	9	...........
	28	0.386667	5.25307E-001	4.01582E-004	0.00000E+000	2.10954E-004	2.40040E-001	5.25415E-001	3.57630E+000	9	...........
	29	0.4	5.30889E-001	4.00579E-004	0.00000E+000	2.12663E-004	2.40040E-001	5.30971E-001	3.57630E+000	9	...........
	30	0.413333	5.36122E-001	3.99077E-004	0.00000E+000	2.13954E-004	2.40040E-001	5.36337E-001	3.57630E+000	9	...........
	31	0.426667	5.41678E-001	4.01470E-004	0.00000E+000	2.17468E-004	2.40040E-001	5.41901E-001	3.57630E+000	9	...........
	32	0.44	5.47142E-001	4.02556E-004	0.00000E+000	2.20255E-004	2.40040E-001	5.47356E-001	3.57630E+000	9	...........
	33	0.453333	5.52594E-001	4.01921E-004	0.00000E+000	2.22099E-004	2.40040E-001	5.52815E-001	3.57630E+000	9	...........
	34	0.466667	5.58133E-001	4.00909E-004	0.00000E+000	2.23760E-004	2.40040E-001	5.58351E-001	3.57630E+000	9	...........
	35	0.48	5.63616E-001	4.00407E-004	0.00000E+000	2.25676E-004	2.40040E-001	5.63856E-001	3.57630E+000	9	...........
	36	0.493333	5.69032E-001	3.99693E-004	0.00000E+000	2.27438E-004	2.40040E-001	5.69228E-001	3.57630E+000	9	...........
	37	0.506667	5.74432E-001	4.01269E-004	0.00000E+000	2.30502E-004	2.40040E-001	5.74650E-001	3.57630E+000	9	...........
	38	0.52	5.79877E-001	3.99215E-004	0.00000E+000	2.31496E-004	2.40040E-001	5.80100E-001	3.57630E+000	9	...........
	39	0.533333	5.85263E-001	4.01187E-004	0.00000E+000	2.34800E-004	2.40040E-001	5.85478E-001	3.57630E+000	9	...........
	40	0.546667	5.90615E-001	4.00755E-004	0.00000E+000	2.36692E-004	2.40040E-001	5.90862E-001	3.57630E+000	9	...........
	41	0.56	5.96080E-001	4.01219E-004	0.00000E+000	2.39159E-004	2.40040E-001	5.96275E-001	3.57630E+000	9	...........
	42	0.573333	6.01412E-001	3.99999E-004	0.00000E+000	2.40564E-004	2.40040E-001	6.01673E-001	3.57630E+000	9	...........
	43	0.586667	6.06674E-001	4.01584E-004	0.00000E+000	2.43631E-004	2.40040E-001	6.06960E-001	3.57630E+000	9	...........
	44	0.6	6.11916E-001	4.01397E-004	0.00000E+000	2.45621E-004	2.40040E-001	6.12172E-001	3.57630E+000	9	...........
	45	0.613333	6.17297E-001	4.00980E-004	0.00000E+000	2.47524E-004	2.40040E-001	6.17508E-001	3.57630E+000	9	...........
	46	0.626667	6.22527E-001	4.01141E-004	0.00000E+000	2.49721E-004	2.40040E-001	6.22729E-001	3.57630E+000	9	...........
	47	0.64	6.27728E-001	4.00630E-004	0.00000E+000	2.51487E-004	2.40040E-001	6.27966E-001	3.57630E+000	9	...........
	48	0.653333	6.32984E-001	4.02184E-004	0.00000E+000	2.54576E-004	2.40040E-001	6.33198E-001	3.57630E+000	9	...........
	49	0.666667	6.38276E-001	4.01378E-004	0.00000E+000	2.56190E-004	2.40040E-001	6.38509E-001	3.57630E+000	9	...........
	50	0.68	6.43556E-001	4.01602E-004	0.00000E+000	2.58453E-004	2.40040E-001	6.43788E-001	3.57630E+000	9	...........
	51	0.693333	6.48742E-001	4.00718E-004	0.00000E+000	2.59963E-004	2.40040E-001	6.48974E-001	3.57705E+000	9	...........
	52	0.706667	6.53954E-001	4.01073E-004	0.00000E+000	2.62284E-004	2.40040E-001	6.54176E-001	3.57730E+000	9	...........
	53	0.72	6.59121E-001	4.01318E-004	0.00000E+000	2.64517E-004	2.40040E-001	6.59359E-001	3.57730E+000	9	...........
	54	0.733333	6.64304E-001	4.00771E-004	0.00000E+000	2.66234E-004	2.40040E-001	6.64563E-001	3.57730E+000	9	...........
	55	0.746667	6.69499E-001	4.00878E-004	0.00000E+000	2.68388E-004	2.40040E-001	6.69737E-001	3.57730E+000	9	...........
	56	0.76	6.74667E-001	4.01420E-004	0.00000E+000	2.70825E-004	2.40040E-001	6.74888E-001	3.57730E+000	9	...........
	57	0.773333	6.79820E-001	4.00692E-004	0.00000E+000	2.72398E-004	2.40040E-001	6.80048E-001	3.57730E+000	9	...........
	58	0.786667	6.84943E-001	3.99985E-004	0.00000E+000	2.73967E-004	2.40040E-001	6.85178E-001	3.57730E+000	9	...........
	59	0.8	6.90098E-001	4.00631E-004	0.00000E+000	2.76475E-004	2.40040E-001	6.90375E-001	3.57730E+000	9	...........
	60	0.813333	6.95262E-001	4.00137E-004	0.00000E+000	2.78200E-004	2.40040E-001	6.95504E-001	3.57730E+000	9	...........
	61	0.826667	7.00313E-001	4.01350E-004	0.00000E+000	2.81071E-004	2.40040E-001	7.00572E-001	3.57730E+000	9	...........
	62	0.84	7.05367E-001	4.01015E-004	0.00000E+000	2.82863E-004	2.40040E-001	7.05613E-001	3.57730E+000	9	...........
	63	0.853333	7.10453E-001	4.00967E-004	0.00000E+000	2.84868E-004	2.40040E-001	7.10720E-001	3.57730E+000	9	...........
	64	0.866667	7.15528E-001	4.01527E-004	0.00000E+000	2.87304E-004	2.40040E-001	7.15809E-001	3.57730E+000	9	...........
	65	0.88	7.20610E-001	4.02318E-004	0.00000E+000	2.89915E-004	2.40040E-001	7.20839E-001	3.57730E+000	9	...........
	66	0.893333	7.25627E-001	4.01034E-004	0.00000E+000	2.91001E-004	2.40040E-001	7.25850E-001	3.57730E+000	9	...........
	67	0.906667	7.30588E-001	4.00724E-004	0.00000E+000	2.92764E-004	2.40040E-001	7.30861E-001	3.57730E+000	9	...........
	68	0.92	7.35591E-001	4.01104E-004	0.00000E+000	2.95049E-004	2.40040E-001	7.35819E-001	3.57730E+000	9	...........
	69	0.933333	7.40569E-001	3.99877E-004	0.00000E+000	2.96137E-004	2.40040E-001	7.40836E-001	3.57730E+000	9	...........
	70	0.946667	7.45578E-001	4.00495E-004	0.00000E+000	2.98600E-004	2.40040E-001	7.45800E-001	3.57730E+000	9	...........
	71	0.96	7.50515E-001	4.01346E-004	0.00000E+000	3.01216E-004	2.40040E-001	7.50730E-001	3.57730E+000	9	...........
	72	0.97333	7.55433E-001	4.01284E-004	0.00000E+000	3.03143E-004	2.40040E-001	7.55674E-001	3.57730E+000	9	...........
	73	0.98667	7.60314E-001	4.00955E-004	0.00000E+000	3.04852E-004	2.40040E-001	7.60556E-001	3.57730E+000	9	...........
	74	1	7.65175E-001	4.02234E-004	0.00000E+000	3.07779E-004	2.40040E-001	7.65440E-001	3.57730E+000	9	...........
	75	1.01333	7.70041E-001	3.99179E-004	0.00000E+000	3.07384E-004	2.40040E-001	7.70336E-001	3.57730E+000	9	...........
	76	1.02667	7.74893E-001	4.02103E-004	0.00000E+000	3.11586E-004	2.40040E-001	7.75157E-001	3.57730E+000	9	...........
	77	1.04	7.79670E-001	4.02411E-004	0.00000E+000	3.13748E-004	2.40040E-001	7.79951E-001	3.57730E+000	9	...........
	78	1.05333	7.84455E-001	3.99848E-004	0.00000E+000	3.13663E-004	2.40040E-001	7.84721E-001	3.57730E+000	9	...........
	79	1.06667	7.89257E-001	4.01041E-004	0.00000E+000	3.16524E-004	2.40040E-001	7.89522E-001	3.57730E+000	9	...........
	80	1.08	7.94006E-001	3.99684E-004	0.00000E+000	3.17352E-004	2.40040E-001	7.94307E-001	3.57730E+000	9	...........
	81	1.09333	7.98825E-001	4.00892E-004	0.00000E+000	3.20243E-004	2.40040E-001	7.99086E-001	3.57730E+000	9	...........
	82	1.10667	8.03503E-001	4.00365E-004	0.00000E+000	3.21694E-004	2.40040E-001	8.03777E-001	3.57730E+000	9	...........
	83	1.12	8.08209E-001	4.00444E-004	0.00000E+000	3.23642E-004	2.40040E-001	8.08461E-001	3.57730E+000	9	...........
	84	1.13333	8.12856E-001	4.00710E-004	0.00000E+000	3.25719E-004	2.40040E-001	8.13128E-001	3.57730E+000	9	...........
	85	1.14667	8.17546E-001	4.00370E-004	0.00000E+000	3.27321E-004	2.40040E-001	8.17817E-001	3.57730E+000	9	...........
	86	1.16	8.22190E-001	4.00128E-004	0.00000E+000	3.28981E-004	2.40040E-001	8.22476E-001	3.57730E+000	9	...........
	87	1.17333	8.26817E-001	4.00756E-004	0.00000E+000	3.31352E-004	2.40040E-001	8.27086E-001	3.57730E+000	9	...........
	88	1.18667	8.31379E-001	4.02562E-004	0.00000E+000	3.34681E-004	2.40040E-001	8.31675E-001	3.57730E+000	9	...........
	89	1.2	8.35942E-001	3.99927E-004	0.00000E+000	3.34316E-004	2.40040E-001	8.36206E-001	3.57730E+000	9	...........
	90	1.21333	8.40461E-001	4.00281E-004	0.00000E+000	3.36421E-004	2.40040E-001	8.40707E-001	3.57730E+000	9	...........
	91	1.22667	8.44949E-001	4.01020E-004	0.00000E+000	3.38841E-004	2.40040E-001	8.45207E-001	3.57730E+000	9	...........
	92	1.24	8.49454E-001	4.02612E-004	0.00000E+000	3.42000E-004	2.40040E-001	8.49686E-001	3.57730E+000	9	...........
	93	1.25333	8.53928E-001	3.99910E-004	0.00000E+000	3.41495E-004	2.40040E-001	8.54199E-001	3.57730E+000	9	...........
	94	1.26667	8.58416E-001	4.00742E-004	0.00000E+000	3.44003E-004	2.40040E-001	8.58724E-001	3.57730E+000	9	...........
	95	1.28	8.62819E-001	4.00815E-004	0.00000E+000	3.45831E-004	2.40040E-001	8.63094E-001	3.57730E+000	9	...........
	96	1.29333	8.67169E-001	4.01469E-004	0.00000E+000	3.48142E-004	2.40040E-001	8.67479E-001	3.57730E+000	9	...........
	97	1.30667	8.71604E-001	4.00806E-004	0.00000E+000	3.49344E-004	2.40040E-001	8.71907E-001	3.57730E+000	9	...........
	98	1.32	8.75909E-001	4.00826E-004	0.00000E+000	3.51087E-004	2.40040E-001	8.76208E-001	3.57730E+000	9	...........
	99	1.33333	8.80187E-001	4.00876E-004	0.00000E+000	3.52846E-004	2.40040E-001	8.80481E-001	3.57730E+000	9	...........
	100	1.34667	8.84442E-001	4.01312E-004	0.00000E+000	3.54937E-004	2.40040E-001	8.84743E-001	3.57730E+000	9	...........
	101	1.36	8.88677E-001	4.01167E-004	0.00000E+000	3.56508E-004	2.40040E-001	8.88994E-001	3.57730E+000	9	...........
	102	1.37333	8.92818E-001	4.00752E-004	0.00000E+000	3.57799E-004	2.40040E-001	8.93127E-001	3.57730E+000	9	...........
	103	1.38667	8.96970E-001	4.02000E-004	0.00000E+000	3.60583E-004	2.40040E-001	8.97302E-001	3.57730E+000	9	...........
	104	1.4	9.01081E-001	3.99915E-004	0.00000E+000	3.60355E-004	2.40040E-001	9.01429E-001	3.57730E+000	9	...........
	105	1.41333	9.05240E-001	4.01722E-004	0.00000E+000	3.63655E-004	2.40040E-001	9.05573E-001	3.57730E+000	9	...........
	106	1.42667	9.09341E-001	4.01201E-004	0.00000E+000	3.64829E-004	2.40040E-001	9.09652E-001	3.57730E+000	9	...........
	107	1.44	9.13338E-001	4.02179E-004	0.00000E+000	3.67325E-004	2.40040E-001	9.13658E-001	3.57730E+000	9	...........
	108	1.45333	9.17332E-001	3.99893E-004	0.00000E+000	3.66834E-004	2.40040E-001	9.17674E-001	3.57730E+000	9	...........
	109	1.46667	9.21402E-001	4.01246E-004	0.00000E+000	3.69709E-004	2.40040E-001	9.21674E-001	3.57730E+000	9	...........
	110	1.48	9.25341E-001	3.99667E-004	0.00000E+000	3.69828E-004	2.40040E-001	9.25624E-001	3.57730E+000	9	...........
	111	1.49333	9.29236E-001	4.01045E-004	0.00000E+000	3.72666E-004	2.40040E-001	9.29502E-001	3.57730E+000	9	...........
	112	1.50667	9.33118E-001	4.00557E-004	0.00000E+000	3.73767E-004	2.40040E-001	9.33412E-001	3.57730E+000	9	...........
	113	1.52	9.36893E-001	4.02031E-004	0.00000E+000	3.76660E-004	2.40040E-001	9.37213E-001	3.57730E+000	9	...........
	114	1.53333	9.40695E-001	4.01549E-004	0.00000E+000	3.77736E-004	2.40040E-001	9.41015E-001	3.57730E+000	9	...........
	115	1.54667	9.44521E-001	4.00428E-004	0.00000E+000	3.78213E-004	2.40040E-001	9.44854E-001	3.57730E+000	9	...........
	116	1.56	9.48366E-001	4.01024E-004	0.00000E+000	3.80318E-004	2.40040E-001	9.48688E-001	3.57730E+000	9	...........
	117	1.57333	9.52098E-001	4.01288E-004	0.00000E+000	3.82065E-004	2.40040E-001	9.52418E-001	3.57730E+000	9	...........
	118	1.58667	9.55767E-001	3.99932E-004	0.00000E+000	3.82242E-004	2.40040E-001	9.56074E-001	3.57730E+000	9	...........
	119	1.6	9.59394E-001	4.00420E-004	0.00000E+000	3.84160E-004	2.40040E-001	9.59731E-001	3.57730E+000	9	...........
	120	1.61333	9.63046E-001	3.99726E-004	0.00000E+000	3.84955E-004	2.40040E-001	9.63378E-001	3.57730E+000	9	...........
	121	1.62667	9.66635E-001	4.02181E-004	0.00000E+000	3.88762E-004	2.40040E-001	9.66966E-001	3.57730E+000	9	...........
	122	1.64	9.70177E-001	4.01268E-004	0.00000E+000	3.89301E-004	2.40040E-001	9.70543E-001	3.57730E+000	9	...........
	123	1.65333	9.73738E-001	4.01630E-004	0.00000E+000	3.91082E-004	2.40040E-001	9.74069E-001	3.57730E+000	9	...........
	124	1.66667	9.77253E-001	4.00520E-004	0.00000E+000	3.91409E-004	2.40040E-001	9.77553E-001	3.57730E+000	9	...........
	125	1.68	9.80719E-001	4.01149E-004	0.00000E+000	3.93415E-004	2.40040E-001	9.81049E-001	3.57730E+000	9	...........
	126	1.69333	9.84135E-001	4.00255E-004	0.00000E+000	3.93905E-004	2.40040E-001	9.84469E-001	3.57625E+000	9	...........
	127	1.70667	9.87544E-001	4.02904E-004	0.00000E+000	3.97885E-004	2.40040E-001	9.87879E-001	3.57590E+000	9	...........
	128	1.72	9.90851E-001	4.01147E-004	0.00000E+000	3.97477E-004	2.40040E-001	9.91182E-001	3.57590E+000	9	...........
	129	1.73333	9.94133E-001	4.02393E-004	0.00000E+000	4.00032E-004	2.40040E-001	9.94464E-001	3.57590E+000	9	...........
	130	1.74667	9.97413E-001	4.00527E-004	0.00000E+000	3.99491E-004	2.40040E-001	9.97757E-001	3.57590E+000	9	...........
	131	1.75167	9.99666E-001	4.03722E-004	0.00000E+000	4.03587E-004	2.40040E-001	9.99997E-001	3.57590E+000	9	...........
STARTTIMEOFFSET	QUANT	631.8701	Start Time Offset (s)
