EXPLAIN
TAG	PWR800_CHARGE
TITLE	LABEL	PWR Cyclic Charge Discharge (Cell) - Charge Step	Test &Identifier
DATE	LABEL	12-7-2017	Date
TIME	LABEL	15:08:58	Time
NOTES	NOTES	3	&Notes...
	supercap test cell
	0.4mg
	6M KOH
PSTAT	PSTAT	IFC5000-01520	Potentiostat
CAPACITY	QUANT	1.00000E-003	Capacity (A-hr)
CELLTYPE	SELECTOR	1	&Cell Type
WORKINGCONNECTION	SELECTOR	0	&Working Lead
MAXCHARGETIME	VARIABLEANDUNITS	1.00000E+002	s	1.00000E+002	second(s)	Max &Charge Time
CHARGECURRENT	QUANT	4.00000E-004	&Charge Current (A) 
VOLTAGEFINISH	TWOPARAM	F	1.00000E-003	3.60000E+003	&Voltage Finish	 I (A) < 	Max Time(s)
SAMPLETIME	QUANT	1.00000E-002	Sa&mple Period (s)
CHARGESTOPAT1	MULTIPARAM	4	1.00000E+000	Charge Stop At &1	Voltage > Limit	V
CHARGESTOPAT2	MULTIPARAM	0	0.00000E+000	Charge Stop At &2	None	N/A
AESBHCSELECTOR	TOGGLE	F	Save Both Half Cells
IRCOMP	TOGGLE	F	IR &Measure
EOC	QUANT	0	Open Circuit (V)
SEQUENCER	TOGGLE	TRUE	Run as Sequence
PSTATMODEL	IQUANT	53	Pstat Model
PSTATSECTION	LABEL	IFC5000-01520	Pstat Section
PSTATSERIALNO	LABEL	01520	Pstat Serial Number
CTRLMODE	IQUANT	0	Control Mode
ELECTROMETER	IQUANT	1	RE=0 or CS=1
IESTAB	IQUANT	0	I/E Stability
CASPEED	IQUANT	4	Control Amp Speed
CONVENTION	IQUANT	1	Current Convention
ICHRANGE	IQUANT	2	Ich Range
ICHRANGEMODE	TOGGLE	T	Ich Auto Range
ICHOFFSETENABLE	TOGGLE	F	Ich Offset Enable
ICHOFFSET	QUANT	0	Ich Offset (V)
ICHFILTER	IQUANT	1	Ich Filter
VCHRANGE	IQUANT	2	Vch Range
VCHRANGEMODE	TOGGLE	T	Vch Auto Range
VCHOFFSETENABLE	TOGGLE	F	Vch Offset Enable
VCHOFFSET	QUANT	0	Vch Offset (V)
VCHFILTER	IQUANT	1	Vch Filter
IERANGELOWERLIMIT	IQUANT	9	I/E Range Lower Limit
IERANGEMODE	TOGGLE	F	I/E AutoRange
IERANGE	IQUANT	9	I/E Range
ACHSELECT	IQUANT	1	Ach Select
ACHRANGE	IQUANT	2	Ach Range
ACHOFFSETENABLE	TOGGLE	F	Ach Offset Enable
ACHOFFSET	QUANT	0	Ach Offset (V)
ACHFILTER	IQUANT	1	Ach Filter
CABLEID	IQUANT	14	Cable ID
DCCALDATE	LABEL	5-7-2017	DC Calibration Date
ACCALDATE	LABEL	12/3/2015	AC Calibration Date
FRAMEWORKVERSION	QUANT	7.01	Framework Version
INSTRUMENTVERSION	LABEL	4.00	Instrument Version
CURVE	TABLE	110
	Pt	T	Vf	Im	Vu	Pwr	Sig	Ach	Temp	IERange	Over
	#	s	V	A	V	W	V	V	deg C	#	bits
	0	0.013333	3.81184E-001	4.00726E-004	0.00000E+000	1.52751E-004	2.40040E-001	3.81268E-001	3.57720E+000	9	...........
	1	0.026667	3.93638E-001	4.01266E-004	0.00000E+000	1.57953E-004	2.40040E-001	3.93709E-001	3.57720E+000	9	...........
	2	0.04	4.04264E-001	4.02082E-004	0.00000E+000	1.62547E-004	2.40040E-001	4.04336E-001	3.57720E+000	9	...........
	3	0.053333	4.13913E-001	4.00251E-004	0.00000E+000	1.65669E-004	2.40040E-001	4.13995E-001	3.57720E+000	9	...........
	4	0.066667	4.22881E-001	4.01333E-004	0.00000E+000	1.69716E-004	2.40040E-001	4.22967E-001	3.57720E+000	9	...........
	5	0.08	4.31380E-001	4.00342E-004	0.00000E+000	1.72700E-004	2.40040E-001	4.31468E-001	3.57720E+000	9	...........
	6	0.093333	4.39548E-001	4.00557E-004	0.00000E+000	1.76064E-004	2.40040E-001	4.39640E-001	3.57720E+000	9	...........
	7	0.106667	4.47398E-001	4.00481E-004	0.00000E+000	1.79175E-004	2.40040E-001	4.47487E-001	3.57720E+000	9	...........
	8	0.12	4.55054E-001	4.01044E-004	0.00000E+000	1.82497E-004	2.40040E-001	4.55141E-001	3.57720E+000	9	...........
	9	0.133333	4.62508E-001	4.00513E-004	0.00000E+000	1.85240E-004	2.40040E-001	4.62599E-001	3.57720E+000	9	...........
	10	0.146667	4.69929E-001	4.00454E-004	0.00000E+000	1.88185E-004	2.40040E-001	4.70018E-001	3.57720E+000	9	...........
	11	0.16	4.77187E-001	4.00730E-004	0.00000E+000	1.91223E-004	2.40040E-001	4.77279E-001	3.57720E+000	9	...........
	12	0.173333	4.84258E-001	4.00248E-004	0.00000E+000	1.93823E-004	2.40040E-001	4.84350E-001	3.57720E+000	9	...........
	13	0.186667	4.91282E-001	4.01512E-004	0.00000E+000	1.97256E-004	2.40040E-001	4.91379E-001	3.57720E+000	9	...........
	14	0.2	4.98265E-001	3.99693E-004	0.00000E+000	1.99153E-004	2.40040E-001	4.98363E-001	3.57720E+000	9	...........
	15	0.213333	5.05131E-001	4.00633E-004	0.00000E+000	2.02372E-004	2.40040E-001	5.05237E-001	3.57720E+000	9	...........
	16	0.226667	5.11960E-001	4.01290E-004	0.00000E+000	2.05444E-004	2.40040E-001	5.12068E-001	3.57720E+000	9	...........
	17	0.24	5.18678E-001	4.01494E-004	0.00000E+000	2.08246E-004	2.40040E-001	5.18783E-001	3.57720E+000	9	...........
	18	0.253333	5.25372E-001	4.00023E-004	0.00000E+000	2.10161E-004	2.40040E-001	5.25483E-001	3.57720E+000	9	...........
	19	0.266667	5.31988E-001	4.00577E-004	0.00000E+000	2.13102E-004	2.40040E-001	5.32107E-001	3.57720E+000	9	...........
	20	0.28	5.38343E-001	4.00095E-004	0.00000E+000	2.15388E-004	2.40040E-001	5.38572E-001	3.57720E+000	9	...........
	21	0.293333	5.44833E-001	4.01786E-004	0.00000E+000	2.18906E-004	2.40040E-001	5.45044E-001	3.57720E+000	9	...........
	22	0.306667	5.51236E-001	4.00761E-004	0.00000E+000	2.20914E-004	2.40040E-001	5.51451E-001	3.57720E+000	9	...........
	23	0.32	5.57678E-001	4.00905E-004	0.00000E+000	2.23576E-004	2.40040E-001	5.57917E-001	3.57720E+000	9	...........
	24	0.333333	5.64096E-001	4.01560E-004	0.00000E+000	2.26518E-004	2.40040E-001	5.64328E-001	3.57720E+000	9	...........
	25	0.346667	5.70460E-001	4.00654E-004	0.00000E+000	2.28557E-004	2.40040E-001	5.70687E-001	3.57720E+000	9	...........
	26	0.36	5.76718E-001	4.01821E-004	0.00000E+000	2.31738E-004	2.40040E-001	5.76931E-001	3.57720E+000	9	...........
	27	0.373333	5.83008E-001	4.00400E-004	0.00000E+000	2.33437E-004	2.40040E-001	5.83245E-001	3.57720E+000	9	...........
	28	0.386667	5.89294E-001	4.00995E-004	0.00000E+000	2.36304E-004	2.40040E-001	5.89558E-001	3.57720E+000	9	...........
	29	0.4	5.95562E-001	3.99468E-004	0.00000E+000	2.37908E-004	2.40040E-001	5.95836E-001	3.57720E+000	9	...........
	30	0.413333	6.01776E-001	4.00505E-004	0.00000E+000	2.41015E-004	2.40040E-001	6.02055E-001	3.57720E+000	9	...........
	31	0.426667	6.07897E-001	4.01439E-004	0.00000E+000	2.44034E-004	2.40040E-001	6.08173E-001	3.57720E+000	9	...........
	32	0.44	6.14106E-001	4.01837E-004	0.00000E+000	2.46770E-004	2.40040E-001	6.14370E-001	3.57720E+000	9	...........
	33	0.453333	6.20299E-001	4.01841E-004	0.00000E+000	2.49262E-004	2.40040E-001	6.20497E-001	3.57720E+000	9	...........
	34	0.466667	6.26454E-001	4.01098E-004	0.00000E+000	2.51270E-004	2.40040E-001	6.26659E-001	3.57720E+000	9	...........
	35	0.48	6.32501E-001	4.01692E-004	0.00000E+000	2.54071E-004	2.40040E-001	6.32727E-001	3.57720E+000	9	...........
	36	0.493333	6.38566E-001	4.02039E-004	0.00000E+000	2.56728E-004	2.40040E-001	6.38801E-001	3.57720E+000	9	...........
	37	0.506667	6.44611E-001	4.00471E-004	0.00000E+000	2.58148E-004	2.40040E-001	6.44832E-001	3.57720E+000	9	...........
	38	0.52	6.50616E-001	3.99493E-004	0.00000E+000	2.59916E-004	2.40040E-001	6.50842E-001	3.57720E+000	9	...........
	39	0.533333	6.56600E-001	4.01494E-004	0.00000E+000	2.63621E-004	2.40040E-001	6.56830E-001	3.57720E+000	9	...........
	40	0.546667	6.62524E-001	4.00797E-004	0.00000E+000	2.65538E-004	2.40040E-001	6.62740E-001	3.57720E+000	9	...........
	41	0.56	6.68532E-001	4.00755E-004	0.00000E+000	2.67918E-004	2.40040E-001	6.68750E-001	3.57720E+000	9	...........
	42	0.573333	6.74452E-001	3.99879E-004	0.00000E+000	2.69699E-004	2.40040E-001	6.74682E-001	3.57720E+000	9	...........
	43	0.586667	6.80372E-001	3.99729E-004	0.00000E+000	2.71964E-004	2.40040E-001	6.80618E-001	3.57810E+000	9	...........
	44	0.6	6.86274E-001	4.00869E-004	0.00000E+000	2.75106E-004	2.40040E-001	6.86520E-001	3.57900E+000	9	...........
	45	0.613333	6.92157E-001	4.00751E-004	0.00000E+000	2.77383E-004	2.40040E-001	6.92389E-001	3.57900E+000	9	...........
	46	0.626667	6.97973E-001	4.01914E-004	0.00000E+000	2.80525E-004	2.40040E-001	6.98224E-001	3.57900E+000	9	...........
	47	0.64	7.03785E-001	4.00946E-004	0.00000E+000	2.82180E-004	2.40040E-001	7.04042E-001	3.57900E+000	9	...........
	48	0.653333	7.09582E-001	4.00606E-004	0.00000E+000	2.84263E-004	2.40040E-001	7.09833E-001	3.57900E+000	9	...........
	49	0.666667	7.15332E-001	4.01785E-004	0.00000E+000	2.87410E-004	2.40040E-001	7.15585E-001	3.57900E+000	9	...........
	50	0.68	7.21117E-001	4.01386E-004	0.00000E+000	2.89446E-004	2.40040E-001	7.21349E-001	3.57900E+000	9	...........
	51	0.693333	7.26859E-001	4.00493E-004	0.00000E+000	2.91102E-004	2.40040E-001	7.27083E-001	3.57900E+000	9	...........
	52	0.706667	7.32510E-001	4.00568E-004	0.00000E+000	2.93420E-004	2.40040E-001	7.32738E-001	3.57900E+000	9	...........
	53	0.72	7.38152E-001	4.01120E-004	0.00000E+000	2.96087E-004	2.40040E-001	7.38380E-001	3.57900E+000	9	...........
	54	0.733333	7.43818E-001	4.01218E-004	0.00000E+000	2.98433E-004	2.40040E-001	7.44046E-001	3.57900E+000	9	...........
	55	0.746667	7.49455E-001	4.00693E-004	0.00000E+000	3.00301E-004	2.40040E-001	7.49661E-001	3.57900E+000	9	...........
	56	0.76	7.54992E-001	4.01673E-004	0.00000E+000	3.03260E-004	2.40040E-001	7.55205E-001	3.57900E+000	9	...........
	57	0.773333	7.60527E-001	4.01023E-004	0.00000E+000	3.04989E-004	2.40040E-001	7.60764E-001	3.57900E+000	9	...........
	58	0.786667	7.66071E-001	4.01121E-004	0.00000E+000	3.07287E-004	2.40040E-001	7.66327E-001	3.57900E+000	9	...........
	59	0.8	7.71605E-001	4.00461E-004	0.00000E+000	3.08997E-004	2.40040E-001	7.71846E-001	3.57900E+000	9	...........
	60	0.813333	7.77060E-001	4.01097E-004	0.00000E+000	3.11677E-004	2.40040E-001	7.77345E-001	3.57900E+000	9	...........
	61	0.826667	7.82434E-001	4.02221E-004	0.00000E+000	3.14712E-004	2.40040E-001	7.82700E-001	3.57900E+000	9	...........
	62	0.84	7.87869E-001	4.00496E-004	0.00000E+000	3.15538E-004	2.40040E-001	7.88122E-001	3.57900E+000	9	...........
	63	0.853333	7.93246E-001	4.00844E-004	0.00000E+000	3.17968E-004	2.40040E-001	7.93521E-001	3.57900E+000	9	...........
	64	0.866667	7.98634E-001	4.01262E-004	0.00000E+000	3.20461E-004	2.40040E-001	7.98883E-001	3.57900E+000	9	...........
	65	0.88	8.03911E-001	4.00700E-004	0.00000E+000	3.22127E-004	2.40040E-001	8.04173E-001	3.57900E+000	9	...........
	66	0.893333	8.09194E-001	4.00984E-004	0.00000E+000	3.24474E-004	2.40040E-001	8.09472E-001	3.57900E+000	9	...........
	67	0.906667	8.14392E-001	4.02170E-004	0.00000E+000	3.27524E-004	2.40040E-001	8.14681E-001	3.57900E+000	9	...........
	68	0.92	8.19564E-001	4.01106E-004	0.00000E+000	3.28733E-004	2.40040E-001	8.19853E-001	3.57900E+000	9	...........
	69	0.933333	8.24697E-001	4.01458E-004	0.00000E+000	3.31081E-004	2.40040E-001	8.24983E-001	3.57900E+000	9	...........
	70	0.946667	8.29817E-001	4.00877E-004	0.00000E+000	3.32655E-004	2.40040E-001	8.30087E-001	3.57900E+000	9	...........
	71	0.96	8.34949E-001	4.01175E-004	0.00000E+000	3.34961E-004	2.40040E-001	8.35228E-001	3.57900E+000	9	...........
	72	0.97333	8.39992E-001	4.00093E-004	0.00000E+000	3.36075E-004	2.40040E-001	8.40287E-001	3.57900E+000	9	...........
	73	0.98667	8.44982E-001	4.01369E-004	0.00000E+000	3.39150E-004	2.40040E-001	8.45258E-001	3.57900E+000	9	...........
	74	1	8.50019E-001	4.01874E-004	0.00000E+000	3.41601E-004	2.40040E-001	8.50291E-001	3.57900E+000	9	...........
	75	1.01333	8.54919E-001	4.01151E-004	0.00000E+000	3.42952E-004	2.40040E-001	8.55173E-001	3.57900E+000	9	...........
	76	1.02667	8.59807E-001	4.01321E-004	0.00000E+000	3.45059E-004	2.40040E-001	8.60086E-001	3.57900E+000	9	...........
	77	1.04	8.64702E-001	4.01428E-004	0.00000E+000	3.47116E-004	2.40040E-001	8.64964E-001	3.57900E+000	9	...........
	78	1.05333	8.69597E-001	4.01085E-004	0.00000E+000	3.48782E-004	2.40040E-001	8.69851E-001	3.57900E+000	9	...........
	79	1.06667	8.74382E-001	4.01986E-004	0.00000E+000	3.51489E-004	2.40040E-001	8.74651E-001	3.57900E+000	9	...........
	80	1.08	8.79115E-001	4.01376E-004	0.00000E+000	3.52856E-004	2.40040E-001	8.79379E-001	3.57900E+000	9	...........
	81	1.09333	8.83871E-001	4.00821E-004	0.00000E+000	3.54274E-004	2.40040E-001	8.84153E-001	3.57900E+000	9	...........
	82	1.10667	8.88502E-001	4.01728E-004	0.00000E+000	3.56937E-004	2.40040E-001	8.88756E-001	3.57900E+000	9	...........
	83	1.12	8.93075E-001	4.00133E-004	0.00000E+000	3.57349E-004	2.40040E-001	8.93349E-001	3.57900E+000	9	...........
	84	1.13333	8.97649E-001	4.00422E-004	0.00000E+000	3.59439E-004	2.40040E-001	8.97922E-001	3.57900E+000	9	...........
	85	1.14667	9.02226E-001	4.00637E-004	0.00000E+000	3.61465E-004	2.40040E-001	9.02515E-001	3.57900E+000	9	...........
	86	1.16	9.06760E-001	4.00892E-004	0.00000E+000	3.63513E-004	2.40040E-001	9.07057E-001	3.57900E+000	9	...........
	87	1.17333	9.11251E-001	4.00837E-004	0.00000E+000	3.65263E-004	2.40040E-001	9.11538E-001	3.57900E+000	9	...........
	88	1.18667	9.15696E-001	4.01041E-004	0.00000E+000	3.67232E-004	2.40040E-001	9.15988E-001	3.57900E+000	9	...........
	89	1.2	9.20159E-001	4.01387E-004	0.00000E+000	3.69340E-004	2.40040E-001	9.20449E-001	3.57900E+000	9	...........
	90	1.21333	9.24541E-001	4.01844E-004	0.00000E+000	3.71521E-004	2.40040E-001	9.24810E-001	3.57900E+000	9	...........
	91	1.22667	9.28895E-001	4.00899E-004	0.00000E+000	3.72393E-004	2.40040E-001	9.29160E-001	3.57900E+000	9	...........
	92	1.24	9.33199E-001	4.01698E-004	0.00000E+000	3.74864E-004	2.40040E-001	9.33450E-001	3.57900E+000	9	...........
	93	1.25333	9.37434E-001	4.00147E-004	0.00000E+000	3.75111E-004	2.40040E-001	9.37705E-001	3.57900E+000	9	...........
	94	1.26667	9.41624E-001	4.01929E-004	0.00000E+000	3.78466E-004	2.40040E-001	9.41891E-001	3.57900E+000	9	...........
	95	1.28	9.45795E-001	4.01723E-004	0.00000E+000	3.79948E-004	2.40040E-001	9.46061E-001	3.57900E+000	9	...........
	96	1.29333	9.50006E-001	4.01416E-004	0.00000E+000	3.81348E-004	2.40040E-001	9.50253E-001	3.57900E+000	9	...........
	97	1.30667	9.54137E-001	4.01145E-004	0.00000E+000	3.82747E-004	2.40040E-001	9.54411E-001	3.57900E+000	9	...........
	98	1.32	9.58141E-001	4.00157E-004	0.00000E+000	3.83407E-004	2.40040E-001	9.58456E-001	3.57900E+000	9	...........
	99	1.33333	9.62128E-001	3.99992E-004	0.00000E+000	3.84843E-004	2.40040E-001	9.62429E-001	3.57900E+000	9	...........
	100	1.34667	9.66057E-001	4.00788E-004	0.00000E+000	3.87184E-004	2.40040E-001	9.66356E-001	3.57900E+000	9	...........
	101	1.36	9.70021E-001	3.99762E-004	0.00000E+000	3.87778E-004	2.40040E-001	9.70365E-001	3.57900E+000	9	...........
	102	1.37333	9.73929E-001	4.01496E-004	0.00000E+000	3.91029E-004	2.40040E-001	9.74228E-001	3.57900E+000	9	...........
	103	1.38667	9.77820E-001	4.00667E-004	0.00000E+000	3.91780E-004	2.40040E-001	9.78120E-001	3.57900E+000	9	...........
	104	1.4	9.81649E-001	4.00956E-004	0.00000E+000	3.93599E-004	2.40040E-001	9.81921E-001	3.57900E+000	9	...........
	105	1.41333	9.85429E-001	4.01113E-004	0.00000E+000	3.95268E-004	2.40040E-001	9.85711E-001	3.57900E+000	9	...........
	106	1.42667	9.89150E-001	4.02393E-004	0.00000E+000	3.98027E-004	2.40040E-001	9.89449E-001	3.57900E+000	9	...........
	107	1.44	9.92843E-001	3.99620E-004	0.00000E+000	3.96760E-004	2.40040E-001	9.93166E-001	3.57900E+000	9	...........
	108	1.45333	9.96542E-001	4.01248E-004	0.00000E+000	3.99861E-004	2.40040E-001	9.96852E-001	3.57900E+000	9	...........
	109	1.46167	9.99480E-001	4.00049E-004	0.00000E+000	3.99841E-004	2.40040E-001	9.99821E-001	3.57900E+000	9	...........
STARTTIMEOFFSET	QUANT	2391.837	Start Time Offset (s)
