EXPLAIN
TAG	PWR800_CHARGE
TITLE	LABEL	PWR Cyclic Charge Discharge (Cell) - Charge Step	Test &Identifier
DATE	LABEL	12-7-2017	Date
TIME	LABEL	14:48:53	Time
NOTES	NOTES	3	&Notes...
	supercap test cell
	0.4mg
	6M KOH
PSTAT	PSTAT	IFC5000-01520	Potentiostat
CAPACITY	QUANT	1.00000E-003	Capacity (A-hr)
CELLTYPE	SELECTOR	1	&Cell Type
WORKINGCONNECTION	SELECTOR	0	&Working Lead
MAXCHARGETIME	VARIABLEANDUNITS	1.00000E+002	s	1.00000E+002	second(s)	Max &Charge Time
CHARGECURRENT	QUANT	4.00000E-004	&Charge Current (A) 
VOLTAGEFINISH	TWOPARAM	F	1.00000E-003	3.60000E+003	&Voltage Finish	 I (A) < 	Max Time(s)
SAMPLETIME	QUANT	1.00000E-002	Sa&mple Period (s)
CHARGESTOPAT1	MULTIPARAM	4	1.00000E+000	Charge Stop At &1	Voltage > Limit	V
CHARGESTOPAT2	MULTIPARAM	0	0.00000E+000	Charge Stop At &2	None	N/A
AESBHCSELECTOR	TOGGLE	F	Save Both Half Cells
IRCOMP	TOGGLE	F	IR &Measure
EOC	QUANT	0	Open Circuit (V)
SEQUENCER	TOGGLE	TRUE	Run as Sequence
PSTATMODEL	IQUANT	53	Pstat Model
PSTATSECTION	LABEL	IFC5000-01520	Pstat Section
PSTATSERIALNO	LABEL	01520	Pstat Serial Number
CTRLMODE	IQUANT	0	Control Mode
ELECTROMETER	IQUANT	1	RE=0 or CS=1
IESTAB	IQUANT	0	I/E Stability
CASPEED	IQUANT	4	Control Amp Speed
CONVENTION	IQUANT	1	Current Convention
ICHRANGE	IQUANT	2	Ich Range
ICHRANGEMODE	TOGGLE	T	Ich Auto Range
ICHOFFSETENABLE	TOGGLE	F	Ich Offset Enable
ICHOFFSET	QUANT	0	Ich Offset (V)
ICHFILTER	IQUANT	1	Ich Filter
VCHRANGE	IQUANT	2	Vch Range
VCHRANGEMODE	TOGGLE	T	Vch Auto Range
VCHOFFSETENABLE	TOGGLE	F	Vch Offset Enable
VCHOFFSET	QUANT	0	Vch Offset (V)
VCHFILTER	IQUANT	1	Vch Filter
IERANGELOWERLIMIT	IQUANT	9	I/E Range Lower Limit
IERANGEMODE	TOGGLE	F	I/E AutoRange
IERANGE	IQUANT	9	I/E Range
ACHSELECT	IQUANT	1	Ach Select
ACHRANGE	IQUANT	2	Ach Range
ACHOFFSETENABLE	TOGGLE	F	Ach Offset Enable
ACHOFFSET	QUANT	0	Ach Offset (V)
ACHFILTER	IQUANT	1	Ach Filter
CABLEID	IQUANT	14	Cable ID
DCCALDATE	LABEL	5-7-2017	DC Calibration Date
ACCALDATE	LABEL	12/3/2015	AC Calibration Date
FRAMEWORKVERSION	QUANT	7.01	Framework Version
INSTRUMENTVERSION	LABEL	4.00	Instrument Version
CURVE	TABLE	119
	Pt	T	Vf	Im	Vu	Pwr	Sig	Ach	Temp	IERange	Over
	#	s	V	A	V	W	V	V	deg C	#	bits
	0	0.013333	3.62182E-001	4.00598E-004	0.00000E+000	1.45090E-004	2.40040E-001	3.62278E-001	3.57650E+000	9	...........
	1	0.026667	3.73747E-001	4.00826E-004	0.00000E+000	1.49807E-004	2.40040E-001	3.73815E-001	3.57650E+000	9	...........
	2	0.04	3.83709E-001	4.01610E-004	0.00000E+000	1.54101E-004	2.40040E-001	3.83788E-001	3.57650E+000	9	...........
	3	0.053333	3.92776E-001	4.01512E-004	0.00000E+000	1.57704E-004	2.40040E-001	3.92849E-001	3.57650E+000	9	...........
	4	0.066667	4.01092E-001	4.01165E-004	0.00000E+000	1.60904E-004	2.40040E-001	4.01168E-001	3.57650E+000	9	...........
	5	0.08	4.09072E-001	4.00752E-004	0.00000E+000	1.63937E-004	2.40040E-001	4.09150E-001	3.57650E+000	9	...........
	6	0.093333	4.16774E-001	4.00984E-004	0.00000E+000	1.67119E-004	2.40040E-001	4.16858E-001	3.57650E+000	9	...........
	7	0.106667	4.24174E-001	4.00298E-004	0.00000E+000	1.69796E-004	2.40040E-001	4.24259E-001	3.57650E+000	9	...........
	8	0.12	4.31355E-001	4.01220E-004	0.00000E+000	1.73068E-004	2.40040E-001	4.31446E-001	3.57650E+000	9	...........
	9	0.133333	4.38497E-001	4.00423E-004	0.00000E+000	1.75584E-004	2.40040E-001	4.38588E-001	3.57650E+000	9	...........
	10	0.146667	4.45430E-001	4.02359E-004	0.00000E+000	1.79223E-004	2.40040E-001	4.45525E-001	3.57650E+000	9	...........
	11	0.16	4.52333E-001	4.01260E-004	0.00000E+000	1.81503E-004	2.40040E-001	4.52425E-001	3.57650E+000	9	...........
	12	0.173333	4.59108E-001	3.99284E-004	0.00000E+000	1.83314E-004	2.40040E-001	4.59197E-001	3.57650E+000	9	...........
	13	0.186667	4.65788E-001	4.00629E-004	0.00000E+000	1.86608E-004	2.40040E-001	4.65875E-001	3.57650E+000	9	...........
	14	0.2	4.72286E-001	4.01298E-004	0.00000E+000	1.89528E-004	2.40040E-001	4.72375E-001	3.57650E+000	9	...........
	15	0.213333	4.78820E-001	4.01360E-004	0.00000E+000	1.92179E-004	2.40040E-001	4.78915E-001	3.57650E+000	9	...........
	16	0.226667	4.85201E-001	4.01806E-004	0.00000E+000	1.94957E-004	2.40040E-001	4.85294E-001	3.57650E+000	9	...........
	17	0.24	4.91568E-001	4.01593E-004	0.00000E+000	1.97410E-004	2.40040E-001	4.91667E-001	3.57650E+000	9	...........
	18	0.253333	4.97906E-001	4.01742E-004	0.00000E+000	2.00030E-004	2.40040E-001	4.98008E-001	3.57650E+000	9	...........
	19	0.266667	5.04247E-001	4.00850E-004	0.00000E+000	2.02127E-004	2.40040E-001	5.04352E-001	3.57650E+000	9	...........
	20	0.28	5.10430E-001	4.01449E-004	0.00000E+000	2.04912E-004	2.40040E-001	5.10535E-001	3.57650E+000	9	...........
	21	0.293333	5.16664E-001	4.01096E-004	0.00000E+000	2.07232E-004	2.40040E-001	5.16771E-001	3.57650E+000	9	...........
	22	0.306667	5.22820E-001	4.01839E-004	0.00000E+000	2.10089E-004	2.40040E-001	5.22924E-001	3.57650E+000	9	...........
	23	0.32	5.28801E-001	3.99875E-004	0.00000E+000	2.11454E-004	2.40040E-001	5.28907E-001	3.57650E+000	9	...........
	24	0.333333	5.34668E-001	4.00908E-004	0.00000E+000	2.14353E-004	2.40040E-001	5.34827E-001	3.57650E+000	9	...........
	25	0.346667	5.40631E-001	4.00837E-004	0.00000E+000	2.16705E-004	2.40040E-001	5.40846E-001	3.57650E+000	9	...........
	26	0.36	5.46663E-001	4.01200E-004	0.00000E+000	2.19322E-004	2.40040E-001	5.46862E-001	3.57650E+000	9	...........
	27	0.373333	5.52671E-001	4.00001E-004	0.00000E+000	2.21069E-004	2.40040E-001	5.52911E-001	3.57650E+000	9	...........
	28	0.386667	5.58653E-001	3.99970E-004	0.00000E+000	2.23444E-004	2.40040E-001	5.58860E-001	3.57650E+000	9	...........
	29	0.4	5.64561E-001	4.00472E-004	0.00000E+000	2.26091E-004	2.40040E-001	5.64791E-001	3.57650E+000	9	...........
	30	0.413333	5.70466E-001	4.00038E-004	0.00000E+000	2.28208E-004	2.40040E-001	5.70653E-001	3.57650E+000	9	...........
	31	0.426667	5.76372E-001	4.01461E-004	0.00000E+000	2.31391E-004	2.40040E-001	5.76603E-001	3.57650E+000	9	...........
	32	0.44	5.82212E-001	4.00857E-004	0.00000E+000	2.33384E-004	2.40040E-001	5.82433E-001	3.57650E+000	9	...........
	33	0.453333	5.88065E-001	4.01937E-004	0.00000E+000	2.36365E-004	2.40040E-001	5.88315E-001	3.57650E+000	9	...........
	34	0.466667	5.93841E-001	4.00760E-004	0.00000E+000	2.37987E-004	2.40040E-001	5.94106E-001	3.57650E+000	9	...........
	35	0.48	5.99588E-001	4.00891E-004	0.00000E+000	2.40369E-004	2.40040E-001	5.99858E-001	3.57650E+000	9	...........
	36	0.493333	6.05316E-001	4.02396E-004	0.00000E+000	2.43577E-004	2.40040E-001	6.05586E-001	3.57650E+000	9	...........
	37	0.506667	6.11054E-001	4.01538E-004	0.00000E+000	2.45361E-004	2.40040E-001	6.11360E-001	3.57650E+000	9	...........
	38	0.52	6.16879E-001	3.99927E-004	0.00000E+000	2.46707E-004	2.40040E-001	6.17109E-001	3.57650E+000	9	...........
	39	0.533333	6.22557E-001	4.02111E-004	0.00000E+000	2.50337E-004	2.40040E-001	6.22789E-001	3.57650E+000	9	...........
	40	0.546667	6.28244E-001	4.01087E-004	0.00000E+000	2.51980E-004	2.40040E-001	6.28487E-001	3.57650E+000	9	...........
	41	0.56	6.33911E-001	4.01838E-004	0.00000E+000	2.54729E-004	2.40040E-001	6.34158E-001	3.57650E+000	9	...........
	42	0.573333	6.39609E-001	4.01325E-004	0.00000E+000	2.56691E-004	2.40040E-001	6.39868E-001	3.57650E+000	9	...........
	43	0.586667	6.45265E-001	4.01522E-004	0.00000E+000	2.59088E-004	2.40040E-001	6.45507E-001	3.57650E+000	9	...........
	44	0.6	6.50831E-001	4.00218E-004	0.00000E+000	2.60474E-004	2.40040E-001	6.51082E-001	3.57650E+000	9	...........
	45	0.613333	6.56440E-001	4.00493E-004	0.00000E+000	2.62900E-004	2.40040E-001	6.56651E-001	3.57650E+000	9	...........
	46	0.626667	6.62039E-001	4.01213E-004	0.00000E+000	2.65618E-004	2.40040E-001	6.62278E-001	3.57650E+000	9	...........
	47	0.64	6.67713E-001	3.99277E-004	0.00000E+000	2.66602E-004	2.40040E-001	6.67918E-001	3.57650E+000	9	...........
	48	0.653333	6.73263E-001	4.00877E-004	0.00000E+000	2.69896E-004	2.40040E-001	6.73479E-001	3.57650E+000	9	...........
	49	0.666667	6.78812E-001	4.02540E-004	0.00000E+000	2.73249E-004	2.40040E-001	6.79049E-001	3.57650E+000	9	...........
	50	0.68	6.84332E-001	4.02242E-004	0.00000E+000	2.75267E-004	2.40040E-001	6.84562E-001	3.57650E+000	9	...........
	51	0.693333	6.89850E-001	4.02759E-004	0.00000E+000	2.77843E-004	2.40040E-001	6.90059E-001	3.57650E+000	9	...........
	52	0.706667	6.95271E-001	4.01166E-004	0.00000E+000	2.78919E-004	2.40040E-001	6.95513E-001	3.57650E+000	9	...........
	53	0.72	7.00743E-001	4.00943E-004	0.00000E+000	2.80958E-004	2.40040E-001	7.00975E-001	3.57650E+000	9	...........
	54	0.733333	7.06216E-001	4.01302E-004	0.00000E+000	2.83406E-004	2.40040E-001	7.06461E-001	3.57650E+000	9	...........
	55	0.746667	7.11647E-001	4.02390E-004	0.00000E+000	2.86360E-004	2.40040E-001	7.11894E-001	3.57650E+000	9	...........
	56	0.76	7.17079E-001	4.00537E-004	0.00000E+000	2.87216E-004	2.40040E-001	7.17353E-001	3.57650E+000	9	...........
	57	0.773333	7.22478E-001	4.00802E-004	0.00000E+000	2.89571E-004	2.40040E-001	7.22731E-001	3.57650E+000	9	...........
	58	0.786667	7.27883E-001	4.00210E-004	0.00000E+000	2.91306E-004	2.40040E-001	7.28129E-001	3.57650E+000	9	...........
	59	0.8	7.33240E-001	4.00671E-004	0.00000E+000	2.93788E-004	2.40040E-001	7.33504E-001	3.57650E+000	9	...........
	60	0.813333	7.38619E-001	4.02141E-004	0.00000E+000	2.97029E-004	2.40040E-001	7.38874E-001	3.57650E+000	9	...........
	61	0.826667	7.43963E-001	4.00338E-004	0.00000E+000	2.97836E-004	2.40040E-001	7.44241E-001	3.57650E+000	9	...........
	62	0.84	7.49247E-001	4.01635E-004	0.00000E+000	3.00924E-004	2.40040E-001	7.49514E-001	3.57650E+000	9	...........
	63	0.853333	7.54542E-001	4.02121E-004	0.00000E+000	3.03417E-004	2.40040E-001	7.54786E-001	3.57650E+000	9	...........
	64	0.866667	7.59796E-001	4.01698E-004	0.00000E+000	3.05209E-004	2.40040E-001	7.60035E-001	3.57650E+000	9	...........
	65	0.88	7.65027E-001	4.00160E-004	0.00000E+000	3.06133E-004	2.40040E-001	7.65280E-001	3.57650E+000	9	...........
	66	0.893333	7.70281E-001	4.00767E-004	0.00000E+000	3.08703E-004	2.40040E-001	7.70536E-001	3.57650E+000	9	...........
	67	0.906667	7.75457E-001	4.00166E-004	0.00000E+000	3.10311E-004	2.40040E-001	7.75717E-001	3.57650E+000	9	...........
	68	0.92	7.80622E-001	4.01290E-004	0.00000E+000	3.13256E-004	2.40040E-001	7.80875E-001	3.57650E+000	9	...........
	69	0.933333	7.85746E-001	4.00465E-004	0.00000E+000	3.14663E-004	2.40040E-001	7.85992E-001	3.57650E+000	9	...........
	70	0.946667	7.90847E-001	4.00938E-004	0.00000E+000	3.17081E-004	2.40040E-001	7.91116E-001	3.57705E+000	9	...........
	71	0.96	7.95968E-001	3.99566E-004	0.00000E+000	3.18041E-004	2.40040E-001	7.96248E-001	3.57760E+000	9	...........
	72	0.97333	8.01045E-001	4.01316E-004	0.00000E+000	3.21472E-004	2.40040E-001	8.01282E-001	3.57760E+000	9	...........
	73	0.98667	8.06094E-001	4.00145E-004	0.00000E+000	3.22554E-004	2.40040E-001	8.06381E-001	3.57760E+000	9	...........
	74	1	8.11115E-001	4.00636E-004	0.00000E+000	3.24962E-004	2.40040E-001	8.11385E-001	3.57760E+000	9	...........
	75	1.01333	8.16026E-001	4.02700E-004	0.00000E+000	3.28613E-004	2.40040E-001	8.16345E-001	3.57760E+000	9	...........
	76	1.02667	8.20969E-001	3.98549E-004	0.00000E+000	3.27196E-004	2.40040E-001	8.21252E-001	3.57760E+000	9	...........
	77	1.04	8.25923E-001	4.00735E-004	0.00000E+000	3.30976E-004	2.40040E-001	8.26190E-001	3.57760E+000	9	...........
	78	1.05333	8.30755E-001	4.00752E-004	0.00000E+000	3.32927E-004	2.40040E-001	8.31057E-001	3.57760E+000	9	...........
	79	1.06667	8.35613E-001	4.00643E-004	0.00000E+000	3.34782E-004	2.40040E-001	8.35935E-001	3.57760E+000	9	...........
	80	1.08	8.40383E-001	4.00119E-004	0.00000E+000	3.36253E-004	2.40040E-001	8.40697E-001	3.57760E+000	9	...........
	81	1.09333	8.45174E-001	4.00941E-004	0.00000E+000	3.38865E-004	2.40040E-001	8.45496E-001	3.57760E+000	9	...........
	82	1.10667	8.49962E-001	4.01531E-004	0.00000E+000	3.41286E-004	2.40040E-001	8.50311E-001	3.57760E+000	9	...........
	83	1.12	8.54672E-001	4.02079E-004	0.00000E+000	3.43645E-004	2.40040E-001	8.55009E-001	3.57760E+000	9	...........
	84	1.13333	8.59468E-001	4.02134E-004	0.00000E+000	3.45621E-004	2.40040E-001	8.59811E-001	3.57760E+000	9	...........
	85	1.14667	8.64123E-001	4.00647E-004	0.00000E+000	3.46208E-004	2.40040E-001	8.64483E-001	3.57760E+000	9	...........
	86	1.16	8.68756E-001	4.00288E-004	0.00000E+000	3.47752E-004	2.40040E-001	8.69083E-001	3.57760E+000	9	...........
	87	1.17333	8.73365E-001	4.00346E-004	0.00000E+000	3.49648E-004	2.40040E-001	8.73701E-001	3.57760E+000	9	...........
	88	1.18667	8.77927E-001	4.01650E-004	0.00000E+000	3.52620E-004	2.40040E-001	8.78248E-001	3.57760E+000	9	...........
	89	1.2	8.82418E-001	3.99951E-004	0.00000E+000	3.52924E-004	2.40040E-001	8.82739E-001	3.57760E+000	9	...........
	90	1.21333	8.86964E-001	4.01230E-004	0.00000E+000	3.55877E-004	2.40040E-001	8.87274E-001	3.57760E+000	9	...........
	91	1.22667	8.91491E-001	4.00708E-004	0.00000E+000	3.57228E-004	2.40040E-001	8.91813E-001	3.57760E+000	9	...........
	92	1.24	8.95963E-001	4.00315E-004	0.00000E+000	3.58667E-004	2.40040E-001	8.96315E-001	3.57760E+000	9	...........
	93	1.25333	9.00390E-001	4.01168E-004	0.00000E+000	3.61208E-004	2.40040E-001	9.00732E-001	3.57760E+000	9	...........
	94	1.26667	9.04662E-001	4.01888E-004	0.00000E+000	3.63573E-004	2.40040E-001	9.04998E-001	3.57760E+000	9	...........
	95	1.28	9.08971E-001	4.01171E-004	0.00000E+000	3.64653E-004	2.40040E-001	9.09300E-001	3.57760E+000	9	...........
	96	1.29333	9.13263E-001	4.01278E-004	0.00000E+000	3.66473E-004	2.40040E-001	9.13623E-001	3.57760E+000	9	...........
	97	1.30667	9.17546E-001	4.00264E-004	0.00000E+000	3.67260E-004	2.40040E-001	9.17894E-001	3.57760E+000	9	...........
	98	1.32	9.21863E-001	4.00868E-004	0.00000E+000	3.69545E-004	2.40040E-001	9.22165E-001	3.57760E+000	9	...........
	99	1.33333	9.26070E-001	4.01000E-004	0.00000E+000	3.71354E-004	2.40040E-001	9.26370E-001	3.57760E+000	9	...........
	100	1.34667	9.30254E-001	4.01471E-004	0.00000E+000	3.73470E-004	2.40040E-001	9.30528E-001	3.57760E+000	9	...........
	101	1.36	9.34388E-001	4.00725E-004	0.00000E+000	3.74433E-004	2.40040E-001	9.34679E-001	3.57760E+000	9	...........
	102	1.37333	9.38427E-001	4.00759E-004	0.00000E+000	3.76083E-004	2.40040E-001	9.38729E-001	3.57760E+000	9	...........
	103	1.38667	9.42461E-001	4.01398E-004	0.00000E+000	3.78302E-004	2.40040E-001	9.42763E-001	3.57760E+000	9	...........
	104	1.4	9.46519E-001	4.00329E-004	0.00000E+000	3.78919E-004	2.40040E-001	9.46831E-001	3.57760E+000	9	...........
	105	1.41333	9.50476E-001	4.00667E-004	0.00000E+000	3.80824E-004	2.40040E-001	9.50800E-001	3.57760E+000	9	...........
	106	1.42667	9.54420E-001	4.02626E-004	0.00000E+000	3.84274E-004	2.40040E-001	9.54738E-001	3.57760E+000	9	...........
	107	1.44	9.58278E-001	4.01506E-004	0.00000E+000	3.84754E-004	2.40040E-001	9.58615E-001	3.57760E+000	9	...........
	108	1.45333	9.62110E-001	3.99633E-004	0.00000E+000	3.84491E-004	2.40040E-001	9.62435E-001	3.57760E+000	9	...........
	109	1.46667	9.65956E-001	4.01800E-004	0.00000E+000	3.88121E-004	2.40040E-001	9.66304E-001	3.57760E+000	9	...........
	110	1.48	9.69779E-001	4.01065E-004	0.00000E+000	3.88944E-004	2.40040E-001	9.70130E-001	3.57760E+000	9	...........
	111	1.49333	9.73601E-001	4.00451E-004	0.00000E+000	3.89880E-004	2.40040E-001	9.73933E-001	3.57760E+000	9	...........
	112	1.50667	9.77350E-001	4.00812E-004	0.00000E+000	3.91733E-004	2.40040E-001	9.77671E-001	3.57760E+000	9	...........
	113	1.52	9.80979E-001	4.01442E-004	0.00000E+000	3.93806E-004	2.40040E-001	9.81294E-001	3.57760E+000	9	...........
	114	1.53333	9.84660E-001	4.00335E-004	0.00000E+000	3.94195E-004	2.40040E-001	9.84982E-001	3.57760E+000	9	...........
	115	1.54667	9.88252E-001	4.01141E-004	0.00000E+000	3.96428E-004	2.40040E-001	9.88569E-001	3.57760E+000	9	...........
	116	1.56	9.91787E-001	4.00152E-004	0.00000E+000	3.96866E-004	2.40040E-001	9.92094E-001	3.57760E+000	9	...........
	117	1.57333	9.95312E-001	3.99845E-004	0.00000E+000	3.97970E-004	2.40040E-001	9.95622E-001	3.57760E+000	9	...........
	118	1.58667	9.98811E-001	4.01551E-004	0.00000E+000	4.01074E-004	2.40040E-001	9.99135E-001	3.57760E+000	9	...........
STARTTIMEOFFSET	QUANT	1448.719	Start Time Offset (s)
