EXPLAIN
TAG	PWR800_CHARGE
TITLE	LABEL	PWR Cyclic Charge Discharge (Cell) - Charge Step	Test &Identifier
DATE	LABEL	12-7-2017	Date
TIME	LABEL	15:12:49	Time
NOTES	NOTES	3	&Notes...
	supercap test cell
	0.4mg
	6M KOH
PSTAT	PSTAT	IFC5000-01520	Potentiostat
CAPACITY	QUANT	1.00000E-003	Capacity (A-hr)
CELLTYPE	SELECTOR	1	&Cell Type
WORKINGCONNECTION	SELECTOR	0	&Working Lead
MAXCHARGETIME	VARIABLEANDUNITS	1.00000E+002	s	1.00000E+002	second(s)	Max &Charge Time
CHARGECURRENT	QUANT	4.00000E-004	&Charge Current (A) 
VOLTAGEFINISH	TWOPARAM	F	1.00000E-003	3.60000E+003	&Voltage Finish	 I (A) < 	Max Time(s)
SAMPLETIME	QUANT	1.00000E-002	Sa&mple Period (s)
CHARGESTOPAT1	MULTIPARAM	4	1.00000E+000	Charge Stop At &1	Voltage > Limit	V
CHARGESTOPAT2	MULTIPARAM	0	0.00000E+000	Charge Stop At &2	None	N/A
AESBHCSELECTOR	TOGGLE	F	Save Both Half Cells
IRCOMP	TOGGLE	F	IR &Measure
EOC	QUANT	0	Open Circuit (V)
SEQUENCER	TOGGLE	TRUE	Run as Sequence
PSTATMODEL	IQUANT	53	Pstat Model
PSTATSECTION	LABEL	IFC5000-01520	Pstat Section
PSTATSERIALNO	LABEL	01520	Pstat Serial Number
CTRLMODE	IQUANT	0	Control Mode
ELECTROMETER	IQUANT	1	RE=0 or CS=1
IESTAB	IQUANT	0	I/E Stability
CASPEED	IQUANT	4	Control Amp Speed
CONVENTION	IQUANT	1	Current Convention
ICHRANGE	IQUANT	2	Ich Range
ICHRANGEMODE	TOGGLE	T	Ich Auto Range
ICHOFFSETENABLE	TOGGLE	F	Ich Offset Enable
ICHOFFSET	QUANT	0	Ich Offset (V)
ICHFILTER	IQUANT	1	Ich Filter
VCHRANGE	IQUANT	2	Vch Range
VCHRANGEMODE	TOGGLE	T	Vch Auto Range
VCHOFFSETENABLE	TOGGLE	F	Vch Offset Enable
VCHOFFSET	QUANT	0	Vch Offset (V)
VCHFILTER	IQUANT	1	Vch Filter
IERANGELOWERLIMIT	IQUANT	9	I/E Range Lower Limit
IERANGEMODE	TOGGLE	F	I/E AutoRange
IERANGE	IQUANT	9	I/E Range
ACHSELECT	IQUANT	1	Ach Select
ACHRANGE	IQUANT	2	Ach Range
ACHOFFSETENABLE	TOGGLE	F	Ach Offset Enable
ACHOFFSET	QUANT	0	Ach Offset (V)
ACHFILTER	IQUANT	1	Ach Filter
CABLEID	IQUANT	14	Cable ID
DCCALDATE	LABEL	5-7-2017	DC Calibration Date
ACCALDATE	LABEL	12/3/2015	AC Calibration Date
FRAMEWORKVERSION	QUANT	7.01	Framework Version
INSTRUMENTVERSION	LABEL	4.00	Instrument Version
CURVE	TABLE	108
	Pt	T	Vf	Im	Vu	Pwr	Sig	Ach	Temp	IERange	Over
	#	s	V	A	V	W	V	V	deg C	#	bits
	0	0.013333	3.84978E-001	3.99840E-004	0.00000E+000	1.53930E-004	2.40040E-001	3.85073E-001	3.57670E+000	9	...........
	1	0.026667	3.97609E-001	4.00799E-004	0.00000E+000	1.59361E-004	2.40040E-001	3.97682E-001	3.57670E+000	9	...........
	2	0.04	4.08459E-001	4.02232E-004	0.00000E+000	1.64295E-004	2.40040E-001	4.08540E-001	3.57670E+000	9	...........
	3	0.053333	4.18211E-001	4.02211E-004	0.00000E+000	1.68209E-004	2.40040E-001	4.18300E-001	3.57670E+000	9	...........
	4	0.066667	4.27329E-001	4.01626E-004	0.00000E+000	1.71627E-004	2.40040E-001	4.27414E-001	3.57670E+000	9	...........
	5	0.08	4.35999E-001	4.00979E-004	0.00000E+000	1.74826E-004	2.40040E-001	4.36084E-001	3.57670E+000	9	...........
	6	0.093333	4.44257E-001	4.00519E-004	0.00000E+000	1.77933E-004	2.40040E-001	4.44350E-001	3.57670E+000	9	...........
	7	0.106667	4.52246E-001	4.00946E-004	0.00000E+000	1.81326E-004	2.40040E-001	4.52334E-001	3.57670E+000	9	...........
	8	0.12	4.60021E-001	4.01482E-004	0.00000E+000	1.84690E-004	2.40040E-001	4.60103E-001	3.57670E+000	9	...........
	9	0.133333	4.67653E-001	4.02110E-004	0.00000E+000	1.88048E-004	2.40040E-001	4.67744E-001	3.57670E+000	9	...........
	10	0.146667	4.75054E-001	4.01942E-004	0.00000E+000	1.90944E-004	2.40040E-001	4.75147E-001	3.57670E+000	9	...........
	11	0.16	4.82370E-001	4.01799E-004	0.00000E+000	1.93816E-004	2.40040E-001	4.82465E-001	3.57670E+000	9	...........
	12	0.173333	4.89550E-001	4.00390E-004	0.00000E+000	1.96011E-004	2.40040E-001	4.89649E-001	3.57670E+000	9	...........
	13	0.186667	4.96642E-001	4.00242E-004	0.00000E+000	1.98777E-004	2.40040E-001	4.96745E-001	3.57670E+000	9	...........
	14	0.2	5.03663E-001	4.01762E-004	0.00000E+000	2.02353E-004	2.40040E-001	5.03769E-001	3.57670E+000	9	...........
	15	0.213333	5.10568E-001	4.01001E-004	0.00000E+000	2.04739E-004	2.40040E-001	5.10671E-001	3.57670E+000	9	...........
	16	0.226667	5.17457E-001	4.00300E-004	0.00000E+000	2.07138E-004	2.40040E-001	5.17559E-001	3.57670E+000	9	...........
	17	0.24	5.24357E-001	3.99201E-004	0.00000E+000	2.09324E-004	2.40040E-001	5.24463E-001	3.57670E+000	9	...........
	18	0.253333	5.31079E-001	4.01038E-004	0.00000E+000	2.12983E-004	2.40040E-001	5.31204E-001	3.57670E+000	9	...........
	19	0.266667	5.37501E-001	4.01268E-004	0.00000E+000	2.15682E-004	2.40040E-001	5.37682E-001	3.57670E+000	9	...........
	20	0.28	5.44069E-001	4.01922E-004	0.00000E+000	2.18673E-004	2.40040E-001	5.44275E-001	3.57670E+000	9	...........
	21	0.293333	5.50672E-001	4.01086E-004	0.00000E+000	2.20867E-004	2.40040E-001	5.50875E-001	3.57670E+000	9	...........
	22	0.306667	5.57245E-001	4.01542E-004	0.00000E+000	2.23757E-004	2.40040E-001	5.57464E-001	3.57670E+000	9	...........
	23	0.32	5.63765E-001	4.00643E-004	0.00000E+000	2.25868E-004	2.40040E-001	5.64011E-001	3.57670E+000	9	...........
	24	0.333333	5.70293E-001	4.01844E-004	0.00000E+000	2.29169E-004	2.40040E-001	5.70513E-001	3.57670E+000	9	...........
	25	0.346667	5.76667E-001	4.02045E-004	0.00000E+000	2.31846E-004	2.40040E-001	5.76905E-001	3.57670E+000	9	...........
	26	0.36	5.83031E-001	4.02079E-004	0.00000E+000	2.34424E-004	2.40040E-001	5.83255E-001	3.57670E+000	9	...........
	27	0.373333	5.89367E-001	4.00959E-004	0.00000E+000	2.36312E-004	2.40040E-001	5.89583E-001	3.57670E+000	9	...........
	28	0.386667	5.95624E-001	4.01135E-004	0.00000E+000	2.38925E-004	2.40040E-001	5.95868E-001	3.57670E+000	9	...........
	29	0.4	6.01901E-001	4.01128E-004	0.00000E+000	2.41440E-004	2.40040E-001	6.02137E-001	3.57670E+000	9	...........
	30	0.413333	6.08124E-001	4.01836E-004	0.00000E+000	2.44366E-004	2.40040E-001	6.08371E-001	3.57670E+000	9	...........
	31	0.426667	6.14440E-001	4.00716E-004	0.00000E+000	2.46216E-004	2.40040E-001	6.14652E-001	3.57670E+000	9	...........
	32	0.44	6.20752E-001	3.99323E-004	0.00000E+000	2.47880E-004	2.40040E-001	6.20948E-001	3.57670E+000	9	...........
	33	0.453333	6.26936E-001	3.99902E-004	0.00000E+000	2.50713E-004	2.40040E-001	6.27132E-001	3.57670E+000	9	...........
	34	0.466667	6.33057E-001	4.00120E-004	0.00000E+000	2.53299E-004	2.40040E-001	6.33267E-001	3.57670E+000	9	...........
	35	0.48	6.39233E-001	4.01087E-004	0.00000E+000	2.56388E-004	2.40040E-001	6.39452E-001	3.57670E+000	9	...........
	36	0.493333	6.45335E-001	4.01161E-004	0.00000E+000	2.58883E-004	2.40040E-001	6.45543E-001	3.57670E+000	9	...........
	37	0.506667	6.51465E-001	4.00109E-004	0.00000E+000	2.60657E-004	2.40040E-001	6.51692E-001	3.57670E+000	9	...........
	38	0.52	6.57544E-001	4.02018E-004	0.00000E+000	2.64345E-004	2.40040E-001	6.57757E-001	3.57670E+000	9	...........
	39	0.533333	6.63562E-001	4.01001E-004	0.00000E+000	2.66089E-004	2.40040E-001	6.63808E-001	3.57670E+000	9	...........
	40	0.546667	6.69576E-001	3.99908E-004	0.00000E+000	2.67769E-004	2.40040E-001	6.69773E-001	3.57670E+000	9	...........
	41	0.56	6.75510E-001	4.00704E-004	0.00000E+000	2.70680E-004	2.40040E-001	6.75708E-001	3.57670E+000	9	...........
	42	0.573333	6.81543E-001	4.00886E-004	0.00000E+000	2.73221E-004	2.40040E-001	6.81769E-001	3.57670E+000	9	...........
	43	0.586667	6.87531E-001	4.01898E-004	0.00000E+000	2.76317E-004	2.40040E-001	6.87750E-001	3.57670E+000	9	...........
	44	0.6	6.93519E-001	3.99392E-004	0.00000E+000	2.76986E-004	2.40040E-001	6.93724E-001	3.57670E+000	9	...........
	45	0.613333	6.99352E-001	4.01553E-004	0.00000E+000	2.80827E-004	2.40040E-001	6.99573E-001	3.57670E+000	9	...........
	46	0.626667	7.05210E-001	4.01589E-004	0.00000E+000	2.83204E-004	2.40040E-001	7.05443E-001	3.57670E+000	9	...........
	47	0.64	7.11032E-001	4.00899E-004	0.00000E+000	2.85052E-004	2.40040E-001	7.11278E-001	3.57670E+000	9	...........
	48	0.653333	7.16868E-001	4.00714E-004	0.00000E+000	2.87259E-004	2.40040E-001	7.17095E-001	3.57670E+000	9	...........
	49	0.666667	7.22702E-001	4.00684E-004	0.00000E+000	2.89575E-004	2.40040E-001	7.22941E-001	3.57670E+000	9	...........
	50	0.68	7.28446E-001	4.01440E-004	0.00000E+000	2.92427E-004	2.40040E-001	7.28680E-001	3.57670E+000	9	...........
	51	0.693333	7.34175E-001	4.01277E-004	0.00000E+000	2.94608E-004	2.40040E-001	7.34423E-001	3.57670E+000	9	...........
	52	0.706667	7.39985E-001	4.01219E-004	0.00000E+000	2.96896E-004	2.40040E-001	7.40231E-001	3.57670E+000	9	...........
	53	0.72	7.45663E-001	4.00830E-004	0.00000E+000	2.98885E-004	2.40040E-001	7.45900E-001	3.57670E+000	9	...........
	54	0.733333	7.51254E-001	4.00796E-004	0.00000E+000	3.01100E-004	2.40040E-001	7.51490E-001	3.57670E+000	9	...........
	55	0.746667	7.56862E-001	4.01135E-004	0.00000E+000	3.03604E-004	2.40040E-001	7.57104E-001	3.57670E+000	9	...........
	56	0.76	7.62406E-001	4.01208E-004	0.00000E+000	3.05883E-004	2.40040E-001	7.62644E-001	3.57757E+000	9	...........
	57	0.773333	7.67953E-001	4.00401E-004	0.00000E+000	3.07489E-004	2.40040E-001	7.68221E-001	3.57770E+000	9	...........
	58	0.786667	7.73535E-001	4.02352E-004	0.00000E+000	3.11233E-004	2.40040E-001	7.73772E-001	3.57770E+000	9	...........
	59	0.8	7.79074E-001	3.99959E-004	0.00000E+000	3.11598E-004	2.40040E-001	7.79284E-001	3.57770E+000	9	...........
	60	0.813333	7.84513E-001	4.01046E-004	0.00000E+000	3.14626E-004	2.40040E-001	7.84732E-001	3.57770E+000	9	...........
	61	0.826667	7.89903E-001	4.01555E-004	0.00000E+000	3.17189E-004	2.40040E-001	7.90149E-001	3.57770E+000	9	...........
	62	0.84	7.95329E-001	4.00759E-004	0.00000E+000	3.18735E-004	2.40040E-001	7.95572E-001	3.57770E+000	9	...........
	63	0.853333	8.00680E-001	4.01475E-004	0.00000E+000	3.21453E-004	2.40040E-001	8.00921E-001	3.57770E+000	9	...........
	64	0.866667	8.06003E-001	4.01083E-004	0.00000E+000	3.23274E-004	2.40040E-001	8.06243E-001	3.57770E+000	9	...........
	65	0.88	8.11331E-001	4.00641E-004	0.00000E+000	3.25052E-004	2.40040E-001	8.11616E-001	3.57770E+000	9	...........
	66	0.893333	8.16618E-001	4.01023E-004	0.00000E+000	3.27483E-004	2.40040E-001	8.16915E-001	3.57770E+000	9	...........
	67	0.906667	8.21846E-001	4.02318E-004	0.00000E+000	3.30644E-004	2.40040E-001	8.22130E-001	3.57770E+000	9	...........
	68	0.92	8.27015E-001	4.01473E-004	0.00000E+000	3.32024E-004	2.40040E-001	8.27303E-001	3.57770E+000	9	...........
	69	0.933333	8.32156E-001	4.02081E-004	0.00000E+000	3.34594E-004	2.40040E-001	8.32460E-001	3.57770E+000	9	...........
	70	0.946667	8.37251E-001	3.99945E-004	0.00000E+000	3.34854E-004	2.40040E-001	8.37537E-001	3.57770E+000	9	...........
	71	0.96	8.42308E-001	4.00918E-004	0.00000E+000	3.37696E-004	2.40040E-001	8.42602E-001	3.57770E+000	9	...........
	72	0.97333	8.47345E-001	4.01121E-004	0.00000E+000	3.39888E-004	2.40040E-001	8.47636E-001	3.57770E+000	9	...........
	73	0.98667	8.52373E-001	4.00807E-004	0.00000E+000	3.41637E-004	2.40040E-001	8.52667E-001	3.57770E+000	9	...........
	74	1	8.57342E-001	4.01410E-004	0.00000E+000	3.44145E-004	2.40040E-001	8.57641E-001	3.57770E+000	9	...........
	75	1.01333	8.62315E-001	4.01356E-004	0.00000E+000	3.46095E-004	2.40040E-001	8.62592E-001	3.57770E+000	9	...........
	76	1.02667	8.67186E-001	4.01152E-004	0.00000E+000	3.47874E-004	2.40040E-001	8.67477E-001	3.57770E+000	9	...........
	77	1.04	8.72045E-001	4.01935E-004	0.00000E+000	3.50505E-004	2.40040E-001	8.72328E-001	3.57770E+000	9	...........
	78	1.05333	8.76838E-001	4.00127E-004	0.00000E+000	3.50847E-004	2.40040E-001	8.77128E-001	3.57770E+000	9	...........
	79	1.06667	8.81611E-001	4.01410E-004	0.00000E+000	3.53887E-004	2.40040E-001	8.81927E-001	3.57770E+000	9	...........
	80	1.08	8.86313E-001	4.00759E-004	0.00000E+000	3.55197E-004	2.40040E-001	8.86626E-001	3.57770E+000	9	...........
	81	1.09333	8.91037E-001	4.00613E-004	0.00000E+000	3.56961E-004	2.40040E-001	8.91346E-001	3.57770E+000	9	...........
	82	1.10667	8.95717E-001	4.00655E-004	0.00000E+000	3.58874E-004	2.40040E-001	8.96017E-001	3.57770E+000	9	...........
	83	1.12	9.00343E-001	4.02772E-004	0.00000E+000	3.62633E-004	2.40040E-001	9.00630E-001	3.57770E+000	9	...........
	84	1.13333	9.04885E-001	4.00070E-004	0.00000E+000	3.62017E-004	2.40040E-001	9.05204E-001	3.57770E+000	9	...........
	85	1.14667	9.09453E-001	4.01391E-004	0.00000E+000	3.65046E-004	2.40040E-001	9.09753E-001	3.57770E+000	9	...........
	86	1.16	9.13987E-001	4.01054E-004	0.00000E+000	3.66558E-004	2.40040E-001	9.14327E-001	3.57770E+000	9	...........
	87	1.17333	9.18376E-001	4.01637E-004	0.00000E+000	3.68854E-004	2.40040E-001	9.18712E-001	3.57770E+000	9	...........
	88	1.18667	9.22864E-001	4.00969E-004	0.00000E+000	3.70040E-004	2.40040E-001	9.23158E-001	3.57770E+000	9	...........
	89	1.2	9.27204E-001	4.01432E-004	0.00000E+000	3.72209E-004	2.40040E-001	9.27525E-001	3.57770E+000	9	...........
	90	1.21333	9.31537E-001	4.02262E-004	0.00000E+000	3.74722E-004	2.40040E-001	9.31870E-001	3.57770E+000	9	...........
	91	1.22667	9.35847E-001	3.99451E-004	0.00000E+000	3.73825E-004	2.40040E-001	9.36146E-001	3.57770E+000	9	...........
	92	1.24	9.40118E-001	4.00765E-004	0.00000E+000	3.76766E-004	2.40040E-001	9.40438E-001	3.57770E+000	9	...........
	93	1.25333	9.44352E-001	4.00648E-004	0.00000E+000	3.78353E-004	2.40040E-001	9.44653E-001	3.57770E+000	9	...........
	94	1.26667	9.48561E-001	4.01830E-004	0.00000E+000	3.81160E-004	2.40040E-001	9.48851E-001	3.57770E+000	9	...........
	95	1.28	9.52721E-001	4.01125E-004	0.00000E+000	3.82160E-004	2.40040E-001	9.52986E-001	3.57770E+000	9	...........
	96	1.29333	9.56780E-001	4.01962E-004	0.00000E+000	3.84589E-004	2.40040E-001	9.57060E-001	3.57770E+000	9	...........
	97	1.30667	9.60800E-001	4.00585E-004	0.00000E+000	3.84882E-004	2.40040E-001	9.61099E-001	3.57770E+000	9	...........
	98	1.32	9.64806E-001	4.00824E-004	0.00000E+000	3.86717E-004	2.40040E-001	9.65098E-001	3.57770E+000	9	...........
	99	1.33333	9.68807E-001	4.00345E-004	0.00000E+000	3.87857E-004	2.40040E-001	9.69110E-001	3.57770E+000	9	...........
	100	1.34667	9.72766E-001	4.01340E-004	0.00000E+000	3.90410E-004	2.40040E-001	9.73070E-001	3.57770E+000	9	...........
	101	1.36	9.76679E-001	3.99861E-004	0.00000E+000	3.90536E-004	2.40040E-001	9.76996E-001	3.57770E+000	9	...........
	102	1.37333	9.80551E-001	4.01421E-004	0.00000E+000	3.93614E-004	2.40040E-001	9.80831E-001	3.57770E+000	9	...........
	103	1.38667	9.84289E-001	4.00429E-004	0.00000E+000	3.94138E-004	2.40040E-001	9.84602E-001	3.57770E+000	9	...........
	104	1.4	9.88035E-001	4.01011E-004	0.00000E+000	3.96213E-004	2.40040E-001	9.88349E-001	3.57770E+000	9	...........
	105	1.41333	9.91777E-001	4.01798E-004	0.00000E+000	3.98494E-004	2.40040E-001	9.92101E-001	3.57770E+000	9	...........
	106	1.42667	9.95501E-001	4.01536E-004	0.00000E+000	3.99729E-004	2.40040E-001	9.95835E-001	3.57770E+000	9	...........
	107	1.43833	9.98968E-001	4.00424E-004	0.00000E+000	4.00011E-004	2.40040E-001	9.99292E-001	3.57770E+000	9	...........
STARTTIMEOFFSET	QUANT	2571.344	Start Time Offset (s)
