EXPLAIN
TAG	PWR800_DISCHARGE
TITLE	LABEL	PWR Cyclic Charge Discharge (Cell) - Discharge Step	Test &Identifier
DATE	LABEL	12-7-2017	Date
TIME	LABEL	15:07:31	Time
NOTES	NOTES	3	&Notes...
	supercap test cell
	0.4mg
	6M KOH
PSTAT	PSTAT	IFC5000-01520	Potentiostat
CAPACITY	QUANT	1.00000E-003	Capacity (A-hr)
CELLTYPE	SELECTOR	1	&Cell Type
WORKINGCONNECTION	SELECTOR	0	&Working Lead
MAXDISCHARGETIME	VARIABLEANDUNITS	1.00000E+002	s	1.00000E+002	second(s)	Max &Discharge Time
DISCHARGEMODE	MULTIPARAM	0	4.00000E-004	&Discharge Mode	Constant Current	Amp(s)
SAMPLETIME	QUANT	1.00000E-002	Sa&mple Period (s)
DISCHARGESTOPAT1	MULTIPARAM	3	0.00000E+000	Discharge Stop At &1	Voltage < Limit	V
DISCHARGESTOPAT2	MULTIPARAM	0	0.00000E+000	Discharge Stop At &2	None	N/A
AESBHCSELECTOR	TOGGLE	F	Save Both Half Cells
IRCOMP	TOGGLE	F	IR &Measure
EOC	QUANT	0	Open Circuit (V)
SEQUENCER	TOGGLE	TRUE	Run as Sequence
PSTATMODEL	IQUANT	53	Pstat Model
PSTATSECTION	LABEL	IFC5000-01520	Pstat Section
PSTATSERIALNO	LABEL	01520	Pstat Serial Number
CTRLMODE	IQUANT	0	Control Mode
ELECTROMETER	IQUANT	1	RE=0 or CS=1
IESTAB	IQUANT	0	I/E Stability
CASPEED	IQUANT	4	Control Amp Speed
CONVENTION	IQUANT	1	Current Convention
ICHRANGE	IQUANT	2	Ich Range
ICHRANGEMODE	TOGGLE	T	Ich Auto Range
ICHOFFSETENABLE	TOGGLE	F	Ich Offset Enable
ICHOFFSET	QUANT	0	Ich Offset (V)
ICHFILTER	IQUANT	1	Ich Filter
VCHRANGE	IQUANT	2	Vch Range
VCHRANGEMODE	TOGGLE	T	Vch Auto Range
VCHOFFSETENABLE	TOGGLE	F	Vch Offset Enable
VCHOFFSET	QUANT	0	Vch Offset (V)
VCHFILTER	IQUANT	1	Vch Filter
IERANGELOWERLIMIT	IQUANT	9	I/E Range Lower Limit
IERANGEMODE	TOGGLE	F	I/E AutoRange
IERANGE	IQUANT	9	I/E Range
ACHSELECT	IQUANT	1	Ach Select
ACHRANGE	IQUANT	2	Ach Range
ACHOFFSETENABLE	TOGGLE	F	Ach Offset Enable
ACHOFFSET	QUANT	0	Ach Offset (V)
ACHFILTER	IQUANT	1	Ach Filter
CABLEID	IQUANT	14	Cable ID
DCCALDATE	LABEL	5-7-2017	DC Calibration Date
ACCALDATE	LABEL	12/3/2015	AC Calibration Date
FRAMEWORKVERSION	QUANT	7.01	Framework Version
INSTRUMENTVERSION	LABEL	4.00	Instrument Version
CURVE	TABLE	106
	Pt	T	Vf	Im	Vu	Pwr	Sig	Ach	Temp	IERange	Over
	#	s	V	A	V	W	V	V	deg C	#	bits
	0	0.013333	6.89591E-001	-3.98161E-004	0.00000E+000	-2.74569E-004	-2.40040E-001	6.89825E-001	3.57680E+000	9	...........
	1	0.026667	6.76389E-001	-3.99025E-004	0.00000E+000	-2.69896E-004	-2.40040E-001	6.76627E-001	3.57680E+000	9	...........
	2	0.04	6.64770E-001	-3.98776E-004	0.00000E+000	-2.65094E-004	-2.40040E-001	6.65015E-001	3.57680E+000	9	...........
	3	0.053333	6.54098E-001	-3.98343E-004	0.00000E+000	-2.60555E-004	-2.40040E-001	6.54334E-001	3.57680E+000	9	...........
	4	0.066667	6.44163E-001	-3.99395E-004	0.00000E+000	-2.57276E-004	-2.40040E-001	6.44393E-001	3.57680E+000	9	...........
	5	0.08	6.34632E-001	-3.98128E-004	0.00000E+000	-2.52665E-004	-2.40040E-001	6.34846E-001	3.57680E+000	9	...........
	6	0.093333	6.25453E-001	-3.97423E-004	0.00000E+000	-2.48569E-004	-2.40040E-001	6.25684E-001	3.57680E+000	9	...........
	7	0.106667	6.16568E-001	-3.99353E-004	0.00000E+000	-2.46228E-004	-2.40040E-001	6.16778E-001	3.57680E+000	9	...........
	8	0.12	6.07761E-001	-3.99310E-004	0.00000E+000	-2.42685E-004	-2.40040E-001	6.07996E-001	3.57680E+000	9	...........
	9	0.133333	5.99190E-001	-3.99022E-004	0.00000E+000	-2.39090E-004	-2.40040E-001	5.99426E-001	3.57680E+000	9	...........
	10	0.146667	5.90677E-001	-3.98965E-004	0.00000E+000	-2.35659E-004	-2.40040E-001	5.90946E-001	3.57680E+000	9	...........
	11	0.16	5.82383E-001	-3.98085E-004	0.00000E+000	-2.31838E-004	-2.40040E-001	5.82645E-001	3.57680E+000	9	...........
	12	0.173333	5.74160E-001	-3.98919E-004	0.00000E+000	-2.29043E-004	-2.40040E-001	5.74380E-001	3.57680E+000	9	...........
	13	0.186667	5.66018E-001	-3.98242E-004	0.00000E+000	-2.25412E-004	-2.40040E-001	5.66197E-001	3.57680E+000	9	...........
	14	0.2	5.57746E-001	-3.99146E-004	0.00000E+000	-2.22622E-004	-2.40040E-001	5.57949E-001	3.57680E+000	9	...........
	15	0.213333	5.49765E-001	-3.99016E-004	0.00000E+000	-2.19365E-004	-2.40040E-001	5.49955E-001	3.57680E+000	9	...........
	16	0.226667	5.41812E-001	-3.98381E-004	0.00000E+000	-2.15848E-004	-2.40040E-001	5.42016E-001	3.57680E+000	9	...........
	17	0.24	5.33815E-001	-3.98991E-004	0.00000E+000	-2.12987E-004	-2.40040E-001	5.34035E-001	3.57680E+000	9	...........
	18	0.253333	5.26005E-001	-3.98090E-004	0.00000E+000	-2.09397E-004	-2.40040E-001	5.26217E-001	3.57680E+000	9	...........
	19	0.266667	5.18209E-001	-3.98716E-004	0.00000E+000	-2.06618E-004	-2.40040E-001	5.18409E-001	3.57680E+000	9	...........
	20	0.28	5.10500E-001	-3.97629E-004	0.00000E+000	-2.02990E-004	-2.40040E-001	5.10703E-001	3.57680E+000	9	...........
	21	0.293333	5.02797E-001	-3.98606E-004	0.00000E+000	-2.00418E-004	-2.40040E-001	5.03020E-001	3.57680E+000	9	...........
	22	0.306667	4.95062E-001	-3.98816E-004	0.00000E+000	-1.97438E-004	-2.40040E-001	4.95275E-001	3.57680E+000	9	...........
	23	0.32	4.87545E-001	-3.98361E-004	0.00000E+000	-1.94219E-004	-2.40040E-001	4.87704E-001	3.57680E+000	9	...........
	24	0.333333	4.80239E-001	-3.98164E-004	0.00000E+000	-1.91214E-004	-2.40040E-001	4.80340E-001	3.57680E+000	9	...........
	25	0.346667	4.72707E-001	-3.98024E-004	0.00000E+000	-1.88148E-004	-2.40040E-001	4.72800E-001	3.57680E+000	9	...........
	26	0.36	4.65163E-001	-3.98541E-004	0.00000E+000	-1.85386E-004	-2.40040E-001	4.65256E-001	3.57680E+000	9	...........
	27	0.373333	4.57756E-001	-3.98581E-004	0.00000E+000	-1.82453E-004	-2.40040E-001	4.57850E-001	3.57680E+000	9	...........
	28	0.386667	4.50312E-001	-3.98248E-004	0.00000E+000	-1.79336E-004	-2.40040E-001	4.50408E-001	3.57680E+000	9	...........
	29	0.4	4.42900E-001	-3.98066E-004	0.00000E+000	-1.76304E-004	-2.40040E-001	4.42995E-001	3.57680E+000	9	...........
	30	0.413333	4.35649E-001	-3.98773E-004	0.00000E+000	-1.73725E-004	-2.40040E-001	4.35735E-001	3.57680E+000	9	...........
	31	0.426667	4.28494E-001	-3.98605E-004	0.00000E+000	-1.70800E-004	-2.40040E-001	4.28586E-001	3.57680E+000	9	...........
	32	0.44	4.21220E-001	-3.98383E-004	0.00000E+000	-1.67807E-004	-2.40040E-001	4.21306E-001	3.57680E+000	9	...........
	33	0.453333	4.13969E-001	-3.98354E-004	0.00000E+000	-1.64906E-004	-2.40040E-001	4.14050E-001	3.57680E+000	9	...........
	34	0.466667	4.06851E-001	-3.98785E-004	0.00000E+000	-1.62246E-004	-2.40040E-001	4.06936E-001	3.57680E+000	9	...........
	35	0.48	3.99766E-001	-3.98596E-004	0.00000E+000	-1.59345E-004	-2.40040E-001	3.99844E-001	3.57680E+000	9	...........
	36	0.493333	3.92718E-001	-3.98235E-004	0.00000E+000	-1.56394E-004	-2.40040E-001	3.92790E-001	3.57690E+000	9	...........
	37	0.506667	3.85648E-001	-3.98405E-004	0.00000E+000	-1.53644E-004	-2.40040E-001	3.85720E-001	3.57700E+000	9	...........
	38	0.52	3.78692E-001	-3.98646E-004	0.00000E+000	-1.50964E-004	-2.40040E-001	3.78765E-001	3.57700E+000	9	...........
	39	0.533333	3.71750E-001	-3.98644E-004	0.00000E+000	-1.48196E-004	-2.40040E-001	3.71817E-001	3.57700E+000	9	...........
	40	0.546667	3.64799E-001	-3.99835E-004	0.00000E+000	-1.45859E-004	-2.40040E-001	3.64865E-001	3.57700E+000	9	...........
	41	0.56	3.57926E-001	-3.98633E-004	0.00000E+000	-1.42681E-004	-2.40040E-001	3.57994E-001	3.57700E+000	9	...........
	42	0.573333	3.51180E-001	-3.98924E-004	0.00000E+000	-1.40094E-004	-2.40040E-001	3.51252E-001	3.57700E+000	9	...........
	43	0.586667	3.44505E-001	-3.99715E-004	0.00000E+000	-1.37704E-004	-2.40040E-001	3.44572E-001	3.57700E+000	9	...........
	44	0.6	3.37827E-001	-4.00098E-004	0.00000E+000	-1.35164E-004	-2.40040E-001	3.37888E-001	3.57700E+000	9	...........
	45	0.613333	3.31184E-001	-3.98844E-004	0.00000E+000	-1.32091E-004	-2.40040E-001	3.31245E-001	3.57700E+000	9	...........
	46	0.626667	3.24573E-001	-3.98882E-004	0.00000E+000	-1.29466E-004	-2.40040E-001	3.24638E-001	3.57700E+000	9	...........
	47	0.64	3.18081E-001	-3.98125E-004	0.00000E+000	-1.26636E-004	-2.40040E-001	3.18144E-001	3.57700E+000	9	...........
	48	0.653333	3.11539E-001	-3.98760E-004	0.00000E+000	-1.24229E-004	-2.40040E-001	3.11601E-001	3.57700E+000	9	...........
	49	0.666667	3.05060E-001	-3.99384E-004	0.00000E+000	-1.21836E-004	-2.40040E-001	3.05123E-001	3.57700E+000	9	...........
	50	0.68	2.98555E-001	-3.98069E-004	0.00000E+000	-1.18845E-004	-2.40040E-001	2.98615E-001	3.57700E+000	9	...........
	51	0.693333	2.92153E-001	-3.97390E-004	0.00000E+000	-1.16099E-004	-2.40040E-001	2.92209E-001	3.57700E+000	9	...........
	52	0.706667	2.85762E-001	-3.98434E-004	0.00000E+000	-1.13857E-004	-2.40040E-001	2.85815E-001	3.57700E+000	9	...........
	53	0.72	2.79458E-001	-3.98844E-004	0.00000E+000	-1.11460E-004	-2.40040E-001	2.79516E-001	3.57700E+000	9	...........
	54	0.733333	2.73165E-001	-3.98587E-004	0.00000E+000	-1.08880E-004	-2.40040E-001	2.73220E-001	3.57700E+000	9	...........
	55	0.746667	2.66936E-001	-3.99183E-004	0.00000E+000	-1.06557E-004	-2.40040E-001	2.66991E-001	3.57700E+000	9	...........
	56	0.76	2.60721E-001	-3.98877E-004	0.00000E+000	-1.03995E-004	-2.40040E-001	2.60777E-001	3.57700E+000	9	...........
	57	0.773333	2.54612E-001	-3.97844E-004	0.00000E+000	-1.01296E-004	-2.40040E-001	2.54666E-001	3.57700E+000	9	...........
	58	0.786667	2.48452E-001	-3.99725E-004	0.00000E+000	-9.93123E-005	-2.40040E-001	2.48500E-001	3.57700E+000	9	...........
	59	0.8	2.42330E-001	-3.99744E-004	0.00000E+000	-9.68698E-005	-2.40040E-001	2.42370E-001	3.57700E+000	9	...........
	60	0.813333	2.36316E-001	-3.99013E-004	0.00000E+000	-9.42931E-005	-2.40040E-001	2.36363E-001	3.57700E+000	9	...........
	61	0.826667	2.30276E-001	-3.99403E-004	0.00000E+000	-9.19728E-005	-2.40040E-001	2.30319E-001	3.57700E+000	9	...........
	62	0.84	2.24380E-001	-3.98633E-004	0.00000E+000	-8.94452E-005	-2.40040E-001	2.24416E-001	3.57700E+000	9	...........
	63	0.853333	2.18517E-001	-3.98441E-004	0.00000E+000	-8.70662E-005	-2.40040E-001	2.18559E-001	3.57700E+000	9	...........
	64	0.866667	2.12638E-001	-3.98670E-004	0.00000E+000	-8.47723E-005	-2.40040E-001	2.12682E-001	3.57700E+000	9	...........
	65	0.88	2.06822E-001	-3.99890E-004	0.00000E+000	-8.27059E-005	-2.40040E-001	2.06856E-001	3.57700E+000	9	...........
	66	0.893333	2.01051E-001	-3.98832E-004	0.00000E+000	-8.01856E-005	-2.40040E-001	2.01096E-001	3.57700E+000	9	...........
	67	0.906667	1.95274E-001	-3.99056E-004	0.00000E+000	-7.79251E-005	-2.40040E-001	1.95308E-001	3.57700E+000	9	...........
	68	0.92	1.89567E-001	-3.98065E-004	0.00000E+000	-7.54600E-005	-2.40040E-001	1.89603E-001	3.57700E+000	9	...........
	69	0.933333	1.83914E-001	-3.98059E-004	0.00000E+000	-7.32087E-005	-2.40040E-001	1.83950E-001	3.57700E+000	9	...........
	70	0.946667	1.78288E-001	-3.99105E-004	0.00000E+000	-7.11559E-005	-2.40040E-001	1.78322E-001	3.57700E+000	9	...........
	71	0.96	1.72762E-001	-3.98029E-004	0.00000E+000	-6.87641E-005	-2.40040E-001	1.72795E-001	3.57700E+000	9	...........
	72	0.97333	1.67204E-001	-3.98560E-004	0.00000E+000	-6.66408E-005	-2.40040E-001	1.67236E-001	3.57700E+000	9	...........
	73	0.98667	1.61656E-001	-3.98982E-004	0.00000E+000	-6.44979E-005	-2.40040E-001	1.61679E-001	3.57700E+000	9	...........
	74	1	1.56163E-001	-3.99083E-004	0.00000E+000	-6.23219E-005	-2.40040E-001	1.56186E-001	3.57700E+000	9	...........
	75	1.01333	1.50762E-001	-3.99114E-004	0.00000E+000	-6.01712E-005	-2.40040E-001	1.50780E-001	3.57700E+000	9	...........
	76	1.02667	1.45326E-001	-3.98723E-004	0.00000E+000	-5.79446E-005	-2.40040E-001	1.45340E-001	3.57700E+000	9	...........
	77	1.04	1.39843E-001	-3.96934E-004	0.00000E+000	-5.55086E-005	-2.40040E-001	1.39865E-001	3.57700E+000	9	...........
	78	1.05333	1.34422E-001	-3.97784E-004	0.00000E+000	-5.34710E-005	-2.40040E-001	1.34442E-001	3.57700E+000	9	...........
	79	1.06667	1.29023E-001	-3.98998E-004	0.00000E+000	-5.14800E-005	-2.40040E-001	1.29041E-001	3.57700E+000	9	...........
	80	1.08	1.23711E-001	-3.99527E-004	0.00000E+000	-4.94260E-005	-2.40040E-001	1.23731E-001	3.57700E+000	9	...........
	81	1.09333	1.18498E-001	-3.99137E-004	0.00000E+000	-4.72968E-005	-2.40040E-001	1.18523E-001	3.57700E+000	9	...........
	82	1.10667	1.13326E-001	-3.97901E-004	0.00000E+000	-4.50924E-005	-2.40040E-001	1.13347E-001	3.57700E+000	9	...........
	83	1.12	1.08148E-001	-3.98112E-004	0.00000E+000	-4.30549E-005	-2.40040E-001	1.08164E-001	3.57700E+000	9	...........
	84	1.13333	1.02974E-001	-3.98600E-004	0.00000E+000	-4.10454E-005	-2.40040E-001	1.02995E-001	3.57700E+000	9	...........
	85	1.14667	9.78762E-002	-3.97791E-004	0.00000E+000	-3.89343E-005	-2.40040E-001	9.78896E-002	3.57700E+000	9	...........
	86	1.16	9.27485E-002	-3.98218E-004	0.00000E+000	-3.69341E-005	-2.40040E-001	9.27616E-002	3.57700E+000	9	...........
	87	1.17333	8.77236E-002	-3.99497E-004	0.00000E+000	-3.50453E-005	-2.40040E-001	8.77427E-002	3.57700E+000	9	...........
	88	1.18667	8.27251E-002	-3.99988E-004	0.00000E+000	-3.30890E-005	-2.40040E-001	8.27353E-002	3.57700E+000	9	...........
	89	1.2	7.77448E-002	-3.98210E-004	0.00000E+000	-3.09588E-005	-2.40040E-001	7.77504E-002	3.57700E+000	9	...........
	90	1.21333	7.28882E-002	-3.98509E-004	0.00000E+000	-2.90466E-005	-2.40040E-001	7.28920E-002	3.57700E+000	9	...........
	91	1.22667	6.79975E-002	-3.98961E-004	0.00000E+000	-2.71284E-005	-2.40040E-001	6.80095E-002	3.57700E+000	9	...........
	92	1.24	6.30308E-002	-3.99545E-004	0.00000E+000	-2.51836E-005	-2.40040E-001	6.30385E-002	3.57700E+000	9	...........
	93	1.25333	5.81428E-002	-3.98644E-004	0.00000E+000	-2.31782E-005	-2.40040E-001	5.81493E-002	3.57700E+000	9	...........
	94	1.26667	5.32433E-002	-3.97311E-004	0.00000E+000	-2.11542E-005	-2.40040E-001	5.32462E-002	3.57700E+000	9	...........
	95	1.28	4.85043E-002	-3.99297E-004	0.00000E+000	-1.93676E-005	-2.40040E-001	4.85125E-002	3.57700E+000	9	...........
	96	1.29333	4.37546E-002	-3.98317E-004	0.00000E+000	-1.74282E-005	-2.40040E-001	4.37611E-002	3.57700E+000	9	...........
	97	1.30667	3.89950E-002	-3.98875E-004	0.00000E+000	-1.55541E-005	-2.40040E-001	3.89979E-002	3.57700E+000	9	...........
	98	1.32	3.42675E-002	-3.98895E-004	0.00000E+000	-1.36691E-005	-2.40040E-001	3.42671E-002	3.57700E+000	9	...........
	99	1.33333	2.94948E-002	-3.99299E-004	0.00000E+000	-1.17773E-005	-2.40040E-001	2.94935E-002	3.57700E+000	9	...........
	100	1.34667	2.46928E-002	-3.99564E-004	0.00000E+000	-9.86635E-006	-2.40040E-001	2.46808E-002	3.57700E+000	9	...........
	101	1.36	2.00756E-002	-3.98296E-004	0.00000E+000	-7.99604E-006	-2.40040E-001	2.00692E-002	3.57700E+000	9	...........
	102	1.37333	1.54672E-002	-3.97966E-004	0.00000E+000	-6.15544E-006	-2.40040E-001	1.54561E-002	3.57700E+000	9	...........
	103	1.38667	1.08716E-002	-3.98205E-004	0.00000E+000	-4.32912E-006	-2.40040E-001	1.08576E-002	3.57700E+000	9	...........
	104	1.4	6.29209E-003	-3.97766E-004	0.00000E+000	-2.50278E-006	-2.40040E-001	6.27080E-003	3.57700E+000	9	...........
	105	1.41333	1.74066E-003	-3.98891E-004	0.00000E+000	-6.94333E-007	-2.40040E-001	1.72100E-003	3.57700E+000	9	...........
STARTTIMEOFFSET	QUANT	2324.325	Start Time Offset (s)
