EXPLAIN
TAG	PWR800_DISCHARGE
TITLE	LABEL	PWR Cyclic Charge Discharge (Cell) - Discharge Step	Test &Identifier
DATE	LABEL	12-7-2017	Date
TIME	LABEL	14:54:10	Time
NOTES	NOTES	3	&Notes...
	supercap test cell
	0.4mg
	6M KOH
PSTAT	PSTAT	IFC5000-01520	Potentiostat
CAPACITY	QUANT	1.00000E-003	Capacity (A-hr)
CELLTYPE	SELECTOR	1	&Cell Type
WORKINGCONNECTION	SELECTOR	0	&Working Lead
MAXDISCHARGETIME	VARIABLEANDUNITS	1.00000E+002	s	1.00000E+002	second(s)	Max &Discharge Time
DISCHARGEMODE	MULTIPARAM	0	4.00000E-004	&Discharge Mode	Constant Current	Amp(s)
SAMPLETIME	QUANT	1.00000E-002	Sa&mple Period (s)
DISCHARGESTOPAT1	MULTIPARAM	3	0.00000E+000	Discharge Stop At &1	Voltage < Limit	V
DISCHARGESTOPAT2	MULTIPARAM	0	0.00000E+000	Discharge Stop At &2	None	N/A
AESBHCSELECTOR	TOGGLE	F	Save Both Half Cells
IRCOMP	TOGGLE	F	IR &Measure
EOC	QUANT	0	Open Circuit (V)
SEQUENCER	TOGGLE	TRUE	Run as Sequence
PSTATMODEL	IQUANT	53	Pstat Model
PSTATSECTION	LABEL	IFC5000-01520	Pstat Section
PSTATSERIALNO	LABEL	01520	Pstat Serial Number
CTRLMODE	IQUANT	0	Control Mode
ELECTROMETER	IQUANT	1	RE=0 or CS=1
IESTAB	IQUANT	0	I/E Stability
CASPEED	IQUANT	4	Control Amp Speed
CONVENTION	IQUANT	1	Current Convention
ICHRANGE	IQUANT	2	Ich Range
ICHRANGEMODE	TOGGLE	T	Ich Auto Range
ICHOFFSETENABLE	TOGGLE	F	Ich Offset Enable
ICHOFFSET	QUANT	0	Ich Offset (V)
ICHFILTER	IQUANT	1	Ich Filter
VCHRANGE	IQUANT	2	Vch Range
VCHRANGEMODE	TOGGLE	T	Vch Auto Range
VCHOFFSETENABLE	TOGGLE	F	Vch Offset Enable
VCHOFFSET	QUANT	0	Vch Offset (V)
VCHFILTER	IQUANT	1	Vch Filter
IERANGELOWERLIMIT	IQUANT	9	I/E Range Lower Limit
IERANGEMODE	TOGGLE	F	I/E AutoRange
IERANGE	IQUANT	9	I/E Range
ACHSELECT	IQUANT	1	Ach Select
ACHRANGE	IQUANT	2	Ach Range
ACHOFFSETENABLE	TOGGLE	F	Ach Offset Enable
ACHOFFSET	QUANT	0	Ach Offset (V)
ACHFILTER	IQUANT	1	Ach Filter
CABLEID	IQUANT	14	Cable ID
DCCALDATE	LABEL	5-7-2017	DC Calibration Date
ACCALDATE	LABEL	12/3/2015	AC Calibration Date
FRAMEWORKVERSION	QUANT	7.01	Framework Version
INSTRUMENTVERSION	LABEL	4.00	Instrument Version
CURVE	TABLE	112
	Pt	T	Vf	Im	Vu	Pwr	Sig	Ach	Temp	IERange	Over
	#	s	V	A	V	W	V	V	deg C	#	bits
	0	0.013333	6.98558E-001	-3.98790E-004	0.00000E+000	-2.78578E-004	-2.40040E-001	6.98783E-001	3.57680E+000	9	...........
	1	0.026667	6.85924E-001	-3.99999E-004	0.00000E+000	-2.74369E-004	-2.40040E-001	6.86172E-001	3.57680E+000	9	...........
	2	0.04	6.74892E-001	-3.99059E-004	0.00000E+000	-2.69322E-004	-2.40040E-001	6.75112E-001	3.57680E+000	9	...........
	3	0.053333	6.64765E-001	-3.99735E-004	0.00000E+000	-2.65729E-004	-2.40040E-001	6.64998E-001	3.57680E+000	9	...........
	4	0.066667	6.55210E-001	-3.98451E-004	0.00000E+000	-2.61069E-004	-2.40040E-001	6.55420E-001	3.57680E+000	9	...........
	5	0.08	6.46083E-001	-3.99492E-004	0.00000E+000	-2.58105E-004	-2.40040E-001	6.46309E-001	3.57680E+000	9	...........
	6	0.093333	6.37251E-001	-4.00262E-004	0.00000E+000	-2.55067E-004	-2.40040E-001	6.37472E-001	3.57680E+000	9	...........
	7	0.106667	6.28587E-001	-3.98346E-004	0.00000E+000	-2.50395E-004	-2.40040E-001	6.28807E-001	3.57680E+000	9	...........
	8	0.12	6.20136E-001	-3.99245E-004	0.00000E+000	-2.47586E-004	-2.40040E-001	6.20322E-001	3.57680E+000	9	...........
	9	0.133333	6.11779E-001	-3.99614E-004	0.00000E+000	-2.44475E-004	-2.40040E-001	6.12029E-001	3.57680E+000	9	...........
	10	0.146667	6.03620E-001	-3.99018E-004	0.00000E+000	-2.40855E-004	-2.40040E-001	6.03858E-001	3.57680E+000	9	...........
	11	0.16	5.95554E-001	-3.99166E-004	0.00000E+000	-2.37725E-004	-2.40040E-001	5.95767E-001	3.57680E+000	9	...........
	12	0.173333	5.87585E-001	-3.99223E-004	0.00000E+000	-2.34577E-004	-2.40040E-001	5.87816E-001	3.57680E+000	9	...........
	13	0.186667	5.79669E-001	-3.98743E-004	0.00000E+000	-2.31139E-004	-2.40040E-001	5.79882E-001	3.57680E+000	9	...........
	14	0.2	5.71789E-001	-3.98736E-004	0.00000E+000	-2.27993E-004	-2.40040E-001	5.72003E-001	3.57680E+000	9	...........
	15	0.213333	5.63997E-001	-4.00038E-004	0.00000E+000	-2.25620E-004	-2.40040E-001	5.64206E-001	3.57680E+000	9	...........
	16	0.226667	5.56312E-001	-3.98179E-004	0.00000E+000	-2.21512E-004	-2.40040E-001	5.56532E-001	3.57680E+000	9	...........
	17	0.24	5.48702E-001	-3.99767E-004	0.00000E+000	-2.19353E-004	-2.40040E-001	5.48930E-001	3.57680E+000	9	...........
	18	0.253333	5.41049E-001	-3.97253E-004	0.00000E+000	-2.14933E-004	-2.40040E-001	5.41272E-001	3.57680E+000	9	...........
	19	0.266667	5.33517E-001	-3.98543E-004	0.00000E+000	-2.12629E-004	-2.40040E-001	5.33709E-001	3.57680E+000	9	...........
	20	0.28	5.25938E-001	-3.98600E-004	0.00000E+000	-2.09639E-004	-2.40040E-001	5.26171E-001	3.57680E+000	9	...........
	21	0.293333	5.18546E-001	-3.99556E-004	0.00000E+000	-2.07188E-004	-2.40040E-001	5.18753E-001	3.57680E+000	9	...........
	22	0.306667	5.11078E-001	-3.98373E-004	0.00000E+000	-2.03599E-004	-2.40040E-001	5.11299E-001	3.57680E+000	9	...........
	23	0.32	5.03704E-001	-3.98667E-004	0.00000E+000	-2.00810E-004	-2.40040E-001	5.03938E-001	3.57680E+000	9	...........
	24	0.333333	4.96419E-001	-3.97753E-004	0.00000E+000	-1.97452E-004	-2.40040E-001	4.96650E-001	3.57643E+000	9	...........
	25	0.346667	4.89128E-001	-3.99588E-004	0.00000E+000	-1.95450E-004	-2.40040E-001	4.89326E-001	3.57620E+000	9	...........
	26	0.36	4.82045E-001	-3.98122E-004	0.00000E+000	-1.91913E-004	-2.40040E-001	4.82136E-001	3.57620E+000	9	...........
	27	0.373333	4.74898E-001	-3.98999E-004	0.00000E+000	-1.89484E-004	-2.40040E-001	4.74995E-001	3.57620E+000	9	...........
	28	0.386667	4.67754E-001	-3.98669E-004	0.00000E+000	-1.86479E-004	-2.40040E-001	4.67844E-001	3.57620E+000	9	...........
	29	0.4	4.60595E-001	-3.99121E-004	0.00000E+000	-1.83833E-004	-2.40040E-001	4.60688E-001	3.57620E+000	9	...........
	30	0.413333	4.53480E-001	-3.98089E-004	0.00000E+000	-1.80525E-004	-2.40040E-001	4.53569E-001	3.57620E+000	9	...........
	31	0.426667	4.46440E-001	-3.99306E-004	0.00000E+000	-1.78267E-004	-2.40040E-001	4.46533E-001	3.57620E+000	9	...........
	32	0.44	4.39505E-001	-3.98857E-004	0.00000E+000	-1.75300E-004	-2.40040E-001	4.39594E-001	3.57620E+000	9	...........
	33	0.453333	4.32569E-001	-3.97754E-004	0.00000E+000	-1.72056E-004	-2.40040E-001	4.32652E-001	3.57620E+000	9	...........
	34	0.466667	4.25598E-001	-3.99004E-004	0.00000E+000	-1.69815E-004	-2.40040E-001	4.25683E-001	3.57620E+000	9	...........
	35	0.48	4.18730E-001	-3.99741E-004	0.00000E+000	-1.67384E-004	-2.40040E-001	4.18808E-001	3.57620E+000	9	...........
	36	0.493333	4.11917E-001	-3.98369E-004	0.00000E+000	-1.64095E-004	-2.40040E-001	4.11999E-001	3.57620E+000	9	...........
	37	0.506667	4.05039E-001	-3.99374E-004	0.00000E+000	-1.61762E-004	-2.40040E-001	4.05108E-001	3.57620E+000	9	...........
	38	0.52	3.98256E-001	-3.99593E-004	0.00000E+000	-1.59140E-004	-2.40040E-001	3.98329E-001	3.57620E+000	9	...........
	39	0.533333	3.91564E-001	-3.98602E-004	0.00000E+000	-1.56078E-004	-2.40040E-001	3.91639E-001	3.57620E+000	9	...........
	40	0.546667	3.84844E-001	-3.97605E-004	0.00000E+000	-1.53016E-004	-2.40040E-001	3.84917E-001	3.57620E+000	9	...........
	41	0.56	3.78236E-001	-3.98753E-004	0.00000E+000	-1.50823E-004	-2.40040E-001	3.78304E-001	3.57620E+000	9	...........
	42	0.573333	3.71609E-001	-3.98463E-004	0.00000E+000	-1.48072E-004	-2.40040E-001	3.71676E-001	3.57620E+000	9	...........
	43	0.586667	3.65001E-001	-3.99553E-004	0.00000E+000	-1.45837E-004	-2.40040E-001	3.65077E-001	3.57620E+000	9	...........
	44	0.6	3.58488E-001	-3.99394E-004	0.00000E+000	-1.43178E-004	-2.40040E-001	3.58558E-001	3.57620E+000	9	...........
	45	0.613333	3.52063E-001	-3.98918E-004	0.00000E+000	-1.40444E-004	-2.40040E-001	3.52129E-001	3.57620E+000	9	...........
	46	0.626667	3.45591E-001	-3.98430E-004	0.00000E+000	-1.37694E-004	-2.40040E-001	3.45658E-001	3.57620E+000	9	...........
	47	0.64	3.39182E-001	-3.97313E-004	0.00000E+000	-1.34761E-004	-2.40040E-001	3.39246E-001	3.57620E+000	9	...........
	48	0.653333	3.32788E-001	-3.99429E-004	0.00000E+000	-1.32925E-004	-2.40040E-001	3.32854E-001	3.57620E+000	9	...........
	49	0.666667	3.26346E-001	-3.98220E-004	0.00000E+000	-1.29957E-004	-2.40040E-001	3.26415E-001	3.57620E+000	9	...........
	50	0.68	3.20068E-001	-3.99517E-004	0.00000E+000	-1.27873E-004	-2.40040E-001	3.20133E-001	3.57620E+000	9	...........
	51	0.693333	3.13858E-001	-3.99625E-004	0.00000E+000	-1.25426E-004	-2.40040E-001	3.13918E-001	3.57620E+000	9	...........
	52	0.706667	3.07651E-001	-3.99548E-004	0.00000E+000	-1.22921E-004	-2.40040E-001	3.07716E-001	3.57620E+000	9	...........
	53	0.72	3.01422E-001	-3.97258E-004	0.00000E+000	-1.19742E-004	-2.40040E-001	3.01485E-001	3.57620E+000	9	...........
	54	0.733333	2.95337E-001	-3.98393E-004	0.00000E+000	-1.17660E-004	-2.40040E-001	2.95397E-001	3.57620E+000	9	...........
	55	0.746667	2.89235E-001	-3.98160E-004	0.00000E+000	-1.15162E-004	-2.40040E-001	2.89294E-001	3.57620E+000	9	...........
	56	0.76	2.83125E-001	-3.99146E-004	0.00000E+000	-1.13008E-004	-2.40040E-001	2.83179E-001	3.57620E+000	9	...........
	57	0.773333	2.77093E-001	-3.98933E-004	0.00000E+000	-1.10542E-004	-2.40040E-001	2.77147E-001	3.57620E+000	9	...........
	58	0.786667	2.71101E-001	-3.98351E-004	0.00000E+000	-1.07993E-004	-2.40040E-001	2.71154E-001	3.57620E+000	9	...........
	59	0.8	2.65101E-001	-3.99796E-004	0.00000E+000	-1.05986E-004	-2.40040E-001	2.65160E-001	3.57620E+000	9	...........
	60	0.813333	2.59134E-001	-3.99349E-004	0.00000E+000	-1.03485E-004	-2.40040E-001	2.59184E-001	3.57620E+000	9	...........
	61	0.826667	2.53252E-001	-3.97749E-004	0.00000E+000	-1.00731E-004	-2.40040E-001	2.53306E-001	3.57620E+000	9	...........
	62	0.84	2.47409E-001	-4.00083E-004	0.00000E+000	-9.89841E-005	-2.40040E-001	2.47461E-001	3.57620E+000	9	...........
	63	0.853333	2.41558E-001	-3.98252E-004	0.00000E+000	-9.62008E-005	-2.40040E-001	2.41602E-001	3.57620E+000	9	...........
	64	0.866667	2.35802E-001	-3.99901E-004	0.00000E+000	-9.42975E-005	-2.40040E-001	2.35849E-001	3.57620E+000	9	...........
	65	0.88	2.30014E-001	-3.98854E-004	0.00000E+000	-9.17421E-005	-2.40040E-001	2.30057E-001	3.57620E+000	9	...........
	66	0.893333	2.24328E-001	-3.98846E-004	0.00000E+000	-8.94722E-005	-2.40040E-001	2.24370E-001	3.57620E+000	9	...........
	67	0.906667	2.18617E-001	-4.00190E-004	0.00000E+000	-8.74881E-005	-2.40040E-001	2.18659E-001	3.57620E+000	9	...........
	68	0.92	2.13010E-001	-3.98341E-004	0.00000E+000	-8.48504E-005	-2.40040E-001	2.13047E-001	3.57620E+000	9	...........
	69	0.933333	2.07302E-001	-3.98984E-004	0.00000E+000	-8.27102E-005	-2.40040E-001	2.07343E-001	3.57620E+000	9	...........
	70	0.946667	2.01701E-001	-3.98133E-004	0.00000E+000	-8.03038E-005	-2.40040E-001	2.01738E-001	3.57620E+000	9	...........
	71	0.96	1.96139E-001	-3.99044E-004	0.00000E+000	-7.82681E-005	-2.40040E-001	1.96178E-001	3.57620E+000	9	...........
	72	0.97333	1.90650E-001	-3.98436E-004	0.00000E+000	-7.59617E-005	-2.40040E-001	1.90690E-001	3.57620E+000	9	...........
	73	0.98667	1.85113E-001	-3.98332E-004	0.00000E+000	-7.37363E-005	-2.40040E-001	1.85142E-001	3.57620E+000	9	...........
	74	1	1.79658E-001	-3.99235E-004	0.00000E+000	-7.17258E-005	-2.40040E-001	1.79696E-001	3.57620E+000	9	...........
	75	1.01333	1.74243E-001	-3.99194E-004	0.00000E+000	-6.95568E-005	-2.40040E-001	1.74277E-001	3.57620E+000	9	...........
	76	1.02667	1.68917E-001	-3.99712E-004	0.00000E+000	-6.75182E-005	-2.40040E-001	1.68951E-001	3.57620E+000	9	...........
	77	1.04	1.63541E-001	-3.98858E-004	0.00000E+000	-6.52298E-005	-2.40040E-001	1.63573E-001	3.57620E+000	9	...........
	78	1.05333	1.58297E-001	-3.98673E-004	0.00000E+000	-6.31088E-005	-2.40040E-001	1.58326E-001	3.57620E+000	9	...........
	79	1.06667	1.52982E-001	-3.98233E-004	0.00000E+000	-6.09225E-005	-2.40040E-001	1.53003E-001	3.57620E+000	9	...........
	80	1.08	1.47644E-001	-3.99027E-004	0.00000E+000	-5.89140E-005	-2.40040E-001	1.47670E-001	3.57620E+000	9	...........
	81	1.09333	1.42511E-001	-3.99376E-004	0.00000E+000	-5.69154E-005	-2.40040E-001	1.42541E-001	3.57620E+000	9	...........
	82	1.10667	1.37305E-001	-3.99192E-004	0.00000E+000	-5.48111E-005	-2.40040E-001	1.37327E-001	3.57620E+000	9	...........
	83	1.12	1.32080E-001	-3.98703E-004	0.00000E+000	-5.26607E-005	-2.40040E-001	1.32096E-001	3.57620E+000	9	...........
	84	1.13333	1.26866E-001	-3.99051E-004	0.00000E+000	-5.06261E-005	-2.40040E-001	1.26885E-001	3.57620E+000	9	...........
	85	1.14667	1.21718E-001	-3.98968E-004	0.00000E+000	-4.85615E-005	-2.40040E-001	1.21748E-001	3.57620E+000	9	...........
	86	1.16	1.16616E-001	-3.98730E-004	0.00000E+000	-4.64982E-005	-2.40040E-001	1.16636E-001	3.57620E+000	9	...........
	87	1.17333	1.11696E-001	-3.97942E-004	0.00000E+000	-4.44485E-005	-2.40040E-001	1.11717E-001	3.57620E+000	9	...........
	88	1.18667	1.06640E-001	-3.98396E-004	0.00000E+000	-4.24849E-005	-2.40040E-001	1.06664E-001	3.57620E+000	9	...........
	89	1.2	1.01625E-001	-3.97911E-004	0.00000E+000	-4.04377E-005	-2.40040E-001	1.01647E-001	3.57620E+000	9	...........
	90	1.21333	9.66426E-002	-3.99076E-004	0.00000E+000	-3.85677E-005	-2.40040E-001	9.66642E-002	3.57620E+000	9	...........
	91	1.22667	9.17151E-002	-3.99070E-004	0.00000E+000	-3.66007E-005	-2.40040E-001	9.17329E-002	3.57620E+000	9	...........
	92	1.24	8.68732E-002	-3.98031E-004	0.00000E+000	-3.45782E-005	-2.40040E-001	8.68906E-002	3.57620E+000	9	...........
	93	1.25333	8.20390E-002	-3.99464E-004	0.00000E+000	-3.27716E-005	-2.40040E-001	8.20532E-002	3.57620E+000	9	...........
	94	1.26667	7.71656E-002	-3.99213E-004	0.00000E+000	-3.08055E-005	-2.40040E-001	7.71755E-002	3.57620E+000	9	...........
	95	1.28	7.23571E-002	-4.00104E-004	0.00000E+000	-2.89504E-005	-2.40040E-001	7.23671E-002	3.57620E+000	9	...........
	96	1.29333	6.76111E-002	-3.99624E-004	0.00000E+000	-2.70190E-005	-2.40040E-001	6.76183E-002	3.57620E+000	9	...........
	97	1.30667	6.28756E-002	-3.99152E-004	0.00000E+000	-2.50969E-005	-2.40040E-001	6.28821E-002	3.57620E+000	9	...........
	98	1.32	5.82157E-002	-3.99610E-004	0.00000E+000	-2.32635E-005	-2.40040E-001	5.82215E-002	3.57620E+000	9	...........
	99	1.33333	5.34805E-002	-3.98169E-004	0.00000E+000	-2.12943E-005	-2.40040E-001	5.34861E-002	3.57626E+000	9	...........
	100	1.34667	4.87942E-002	-3.98661E-004	0.00000E+000	-1.94524E-005	-2.40040E-001	4.88017E-002	3.57630E+000	9	...........
	101	1.36	4.41499E-002	-3.97485E-004	0.00000E+000	-1.75489E-005	-2.40040E-001	4.41606E-002	3.57630E+000	9	...........
	102	1.37333	3.95552E-002	-4.00220E-004	0.00000E+000	-1.58308E-005	-2.40040E-001	3.95562E-002	3.57630E+000	9	...........
	103	1.38667	3.49887E-002	-3.98855E-004	0.00000E+000	-1.39554E-005	-2.40040E-001	3.49913E-002	3.57630E+000	9	...........
	104	1.4	3.04131E-002	-3.98158E-004	0.00000E+000	-1.21092E-005	-2.40040E-001	3.04097E-002	3.57630E+000	9	...........
	105	1.41333	2.59058E-002	-3.99158E-004	0.00000E+000	-1.03405E-005	-2.40040E-001	2.58992E-002	3.57630E+000	9	...........
	106	1.42667	2.14187E-002	-3.98980E-004	0.00000E+000	-8.54564E-006	-2.40040E-001	2.14143E-002	3.57630E+000	9	...........
	107	1.44	1.69269E-002	-3.98366E-004	0.00000E+000	-6.74311E-006	-2.40040E-001	1.69178E-002	3.57630E+000	9	...........
	108	1.45333	1.22923E-002	-4.00105E-004	0.00000E+000	-4.91823E-006	-2.40040E-001	1.22778E-002	3.57630E+000	9	...........
	109	1.46667	7.89575E-003	-3.97393E-004	0.00000E+000	-3.13772E-006	-2.40040E-001	7.87934E-003	3.57630E+000	9	...........
	110	1.48	3.50772E-003	-3.99011E-004	0.00000E+000	-1.39962E-006	-2.40040E-001	3.49256E-003	3.57630E+000	9	...........
	111	1.485	4.50796E-004	-3.99987E-004	0.00000E+000	-1.80312E-007	-2.40040E-001	4.25773E-004	3.57630E+000	9	...........
STARTTIMEOFFSET	QUANT	1698.727	Start Time Offset (s)
