EXPLAIN
TAG	PWR800_DISCHARGE
TITLE	LABEL	PWR Cyclic Charge Discharge (Cell) - Discharge Step	Test &Identifier
DATE	LABEL	12-7-2017	Date
TIME	LABEL	14:19:15	Time
NOTES	NOTES	3	&Notes...
	supercap test cell
	0.4mg
	6M KOH
PSTAT	PSTAT	IFC5000-01520	Potentiostat
CAPACITY	QUANT	1.00000E-003	Capacity (A-hr)
CELLTYPE	SELECTOR	1	&Cell Type
WORKINGCONNECTION	SELECTOR	0	&Working Lead
MAXDISCHARGETIME	VARIABLEANDUNITS	1.00000E+002	s	1.00000E+002	second(s)	Max &Discharge Time
DISCHARGEMODE	MULTIPARAM	0	4.00000E-004	&Discharge Mode	Constant Current	Amp(s)
SAMPLETIME	QUANT	1.00000E-002	Sa&mple Period (s)
DISCHARGESTOPAT1	MULTIPARAM	3	0.00000E+000	Discharge Stop At &1	Voltage < Limit	V
DISCHARGESTOPAT2	MULTIPARAM	0	0.00000E+000	Discharge Stop At &2	None	N/A
AESBHCSELECTOR	TOGGLE	F	Save Both Half Cells
IRCOMP	TOGGLE	F	IR &Measure
EOC	QUANT	0	Open Circuit (V)
SEQUENCER	TOGGLE	TRUE	Run as Sequence
PSTATMODEL	IQUANT	53	Pstat Model
PSTATSECTION	LABEL	IFC5000-01520	Pstat Section
PSTATSERIALNO	LABEL	01520	Pstat Serial Number
CTRLMODE	IQUANT	0	Control Mode
ELECTROMETER	IQUANT	1	RE=0 or CS=1
IESTAB	IQUANT	0	I/E Stability
CASPEED	IQUANT	4	Control Amp Speed
CONVENTION	IQUANT	1	Current Convention
ICHRANGE	IQUANT	2	Ich Range
ICHRANGEMODE	TOGGLE	T	Ich Auto Range
ICHOFFSETENABLE	TOGGLE	F	Ich Offset Enable
ICHOFFSET	QUANT	0	Ich Offset (V)
ICHFILTER	IQUANT	1	Ich Filter
VCHRANGE	IQUANT	2	Vch Range
VCHRANGEMODE	TOGGLE	T	Vch Auto Range
VCHOFFSETENABLE	TOGGLE	F	Vch Offset Enable
VCHOFFSET	QUANT	0	Vch Offset (V)
VCHFILTER	IQUANT	1	Vch Filter
IERANGELOWERLIMIT	IQUANT	9	I/E Range Lower Limit
IERANGEMODE	TOGGLE	F	I/E AutoRange
IERANGE	IQUANT	9	I/E Range
ACHSELECT	IQUANT	1	Ach Select
ACHRANGE	IQUANT	2	Ach Range
ACHOFFSETENABLE	TOGGLE	F	Ach Offset Enable
ACHOFFSET	QUANT	0	Ach Offset (V)
ACHFILTER	IQUANT	1	Ach Filter
CABLEID	IQUANT	14	Cable ID
DCCALDATE	LABEL	5-7-2017	DC Calibration Date
ACCALDATE	LABEL	12/3/2015	AC Calibration Date
FRAMEWORKVERSION	QUANT	7.01	Framework Version
INSTRUMENTVERSION	LABEL	4.00	Instrument Version
CURVE	TABLE	144
	Pt	T	Vf	Im	Vu	Pwr	Sig	Ach	Temp	IERange	Over
	#	s	V	A	V	W	V	V	deg C	#	bits
	0	0.013333	7.27065E-001	-3.98497E-004	0.00000E+000	-2.89733E-004	-2.40040E-001	7.27305E-001	3.57550E+000	9	...........
	1	0.026667	7.17110E-001	-4.00481E-004	0.00000E+000	-2.87189E-004	-2.40040E-001	7.17368E-001	3.57550E+000	9	...........
	2	0.04	7.08209E-001	-3.99147E-004	0.00000E+000	-2.82680E-004	-2.40040E-001	7.08475E-001	3.57550E+000	9	...........
	3	0.053333	7.00075E-001	-3.97007E-004	0.00000E+000	-2.77935E-004	-2.40040E-001	7.00317E-001	3.57550E+000	9	...........
	4	0.066667	6.92295E-001	-3.98461E-004	0.00000E+000	-2.75853E-004	-2.40040E-001	6.92558E-001	3.57550E+000	9	...........
	5	0.08	6.84846E-001	-3.98267E-004	0.00000E+000	-2.72751E-004	-2.40040E-001	6.85107E-001	3.57550E+000	9	...........
	6	0.093333	6.77569E-001	-3.98417E-004	0.00000E+000	-2.69955E-004	-2.40040E-001	6.77803E-001	3.57550E+000	9	...........
	7	0.106667	6.70477E-001	-3.98214E-004	0.00000E+000	-2.66994E-004	-2.40040E-001	6.70712E-001	3.57550E+000	9	...........
	8	0.12	6.63552E-001	-3.98105E-004	0.00000E+000	-2.64163E-004	-2.40040E-001	6.63774E-001	3.57550E+000	9	...........
	9	0.133333	6.56855E-001	-3.99262E-004	0.00000E+000	-2.62257E-004	-2.40040E-001	6.57076E-001	3.57550E+000	9	...........
	10	0.146667	6.50225E-001	-3.97824E-004	0.00000E+000	-2.58675E-004	-2.40040E-001	6.50457E-001	3.57550E+000	9	...........
	11	0.16	6.43633E-001	-3.98943E-004	0.00000E+000	-2.56773E-004	-2.40040E-001	6.43869E-001	3.57550E+000	9	...........
	12	0.173333	6.37152E-001	-3.99221E-004	0.00000E+000	-2.54364E-004	-2.40040E-001	6.37382E-001	3.57550E+000	9	...........
	13	0.186667	6.30776E-001	-3.98954E-004	0.00000E+000	-2.51651E-004	-2.40040E-001	6.31003E-001	3.57550E+000	9	...........
	14	0.2	6.24442E-001	-3.96841E-004	0.00000E+000	-2.47804E-004	-2.40040E-001	6.24651E-001	3.57550E+000	9	...........
	15	0.213333	6.18142E-001	-3.98568E-004	0.00000E+000	-2.46372E-004	-2.40040E-001	6.18336E-001	3.57545E+000	9	...........
	16	0.226667	6.11775E-001	-3.98790E-004	0.00000E+000	-2.43969E-004	-2.40040E-001	6.12038E-001	3.57540E+000	9	...........
	17	0.24	6.05574E-001	-3.97666E-004	0.00000E+000	-2.40816E-004	-2.40040E-001	6.05820E-001	3.57540E+000	9	...........
	18	0.253333	5.99383E-001	-3.98287E-004	0.00000E+000	-2.38727E-004	-2.40040E-001	5.99627E-001	3.57540E+000	9	...........
	19	0.266667	5.93243E-001	-3.99035E-004	0.00000E+000	-2.36725E-004	-2.40040E-001	5.93481E-001	3.57540E+000	9	...........
	20	0.28	5.87106E-001	-3.99240E-004	0.00000E+000	-2.34396E-004	-2.40040E-001	5.87346E-001	3.57540E+000	9	...........
	21	0.293333	5.81061E-001	-3.98578E-004	0.00000E+000	-2.31598E-004	-2.40040E-001	5.81286E-001	3.57540E+000	9	...........
	22	0.306667	5.75074E-001	-3.98690E-004	0.00000E+000	-2.29276E-004	-2.40040E-001	5.75268E-001	3.57540E+000	9	...........
	23	0.32	5.69138E-001	-3.99314E-004	0.00000E+000	-2.27265E-004	-2.40040E-001	5.69347E-001	3.57540E+000	9	...........
	24	0.333333	5.63237E-001	-3.99981E-004	0.00000E+000	-2.25284E-004	-2.40040E-001	5.63450E-001	3.57540E+000	9	...........
	25	0.346667	5.57240E-001	-3.98730E-004	0.00000E+000	-2.22188E-004	-2.40040E-001	5.57449E-001	3.57540E+000	9	...........
	26	0.36	5.51345E-001	-3.98661E-004	0.00000E+000	-2.19800E-004	-2.40040E-001	5.51567E-001	3.57540E+000	9	...........
	27	0.373333	5.45493E-001	-4.00171E-004	0.00000E+000	-2.18291E-004	-2.40040E-001	5.45717E-001	3.57540E+000	9	...........
	28	0.386667	5.39658E-001	-3.97697E-004	0.00000E+000	-2.14620E-004	-2.40040E-001	5.39862E-001	3.57540E+000	9	...........
	29	0.4	5.33776E-001	-3.98167E-004	0.00000E+000	-2.12532E-004	-2.40040E-001	5.34000E-001	3.57540E+000	9	...........
	30	0.413333	5.28023E-001	-3.96824E-004	0.00000E+000	-2.09532E-004	-2.40040E-001	5.28217E-001	3.57540E+000	9	...........
	31	0.426667	5.22287E-001	-3.99121E-004	0.00000E+000	-2.08456E-004	-2.40040E-001	5.22474E-001	3.57540E+000	9	...........
	32	0.44	5.16665E-001	-3.99095E-004	0.00000E+000	-2.06198E-004	-2.40040E-001	5.16854E-001	3.57540E+000	9	...........
	33	0.453333	5.10952E-001	-4.00428E-004	0.00000E+000	-2.04600E-004	-2.40040E-001	5.11153E-001	3.57540E+000	9	...........
	34	0.466667	5.05198E-001	-3.98981E-004	0.00000E+000	-2.01565E-004	-2.40040E-001	5.05433E-001	3.57540E+000	9	...........
	35	0.48	4.99495E-001	-3.98137E-004	0.00000E+000	-1.98868E-004	-2.40040E-001	4.99704E-001	3.57540E+000	9	...........
	36	0.493333	4.93904E-001	-3.98998E-004	0.00000E+000	-1.97067E-004	-2.40040E-001	4.94084E-001	3.57540E+000	9	...........
	37	0.506667	4.88252E-001	-4.00543E-004	0.00000E+000	-1.95566E-004	-2.40040E-001	4.88435E-001	3.57540E+000	9	...........
	38	0.52	4.82951E-001	-3.98185E-004	0.00000E+000	-1.92304E-004	-2.40040E-001	4.83049E-001	3.57540E+000	9	...........
	39	0.533333	4.77323E-001	-3.98832E-004	0.00000E+000	-1.90372E-004	-2.40040E-001	4.77413E-001	3.57540E+000	9	...........
	40	0.546667	4.71690E-001	-3.97628E-004	0.00000E+000	-1.87557E-004	-2.40040E-001	4.71776E-001	3.57540E+000	9	...........
	41	0.56	4.66267E-001	-3.98182E-004	0.00000E+000	-1.85659E-004	-2.40040E-001	4.66353E-001	3.57540E+000	9	...........
	42	0.573333	4.60715E-001	-3.97727E-004	0.00000E+000	-1.83239E-004	-2.40040E-001	4.60806E-001	3.57540E+000	9	...........
	43	0.586667	4.55285E-001	-3.98283E-004	0.00000E+000	-1.81332E-004	-2.40040E-001	4.55371E-001	3.57540E+000	9	...........
	44	0.6	4.49852E-001	-3.97971E-004	0.00000E+000	-1.79028E-004	-2.40040E-001	4.49941E-001	3.57540E+000	9	...........
	45	0.613333	4.44440E-001	-3.97761E-004	0.00000E+000	-1.76781E-004	-2.40040E-001	4.44527E-001	3.57540E+000	9	...........
	46	0.626667	4.39046E-001	-3.99059E-004	0.00000E+000	-1.75206E-004	-2.40040E-001	4.39128E-001	3.57540E+000	9	...........
	47	0.64	4.33696E-001	-3.98631E-004	0.00000E+000	-1.72885E-004	-2.40040E-001	4.33779E-001	3.57540E+000	9	...........
	48	0.653333	4.28228E-001	-3.99895E-004	0.00000E+000	-1.71246E-004	-2.40040E-001	4.28307E-001	3.57540E+000	9	...........
	49	0.666667	4.22805E-001	-3.98704E-004	0.00000E+000	-1.68574E-004	-2.40040E-001	4.22887E-001	3.57540E+000	9	...........
	50	0.68	4.17481E-001	-3.98097E-004	0.00000E+000	-1.66198E-004	-2.40040E-001	4.17560E-001	3.57540E+000	9	...........
	51	0.693333	4.12180E-001	-3.97758E-004	0.00000E+000	-1.63948E-004	-2.40040E-001	4.12254E-001	3.57540E+000	9	...........
	52	0.706667	4.06864E-001	-3.97627E-004	0.00000E+000	-1.61780E-004	-2.40040E-001	4.06942E-001	3.57540E+000	9	...........
	53	0.72	4.01520E-001	-3.98498E-004	0.00000E+000	-1.60005E-004	-2.40040E-001	4.01593E-001	3.57540E+000	9	...........
	54	0.733333	3.96316E-001	-3.98283E-004	0.00000E+000	-1.57846E-004	-2.40040E-001	3.96387E-001	3.57540E+000	9	...........
	55	0.746667	3.91053E-001	-3.98481E-004	0.00000E+000	-1.55827E-004	-2.40040E-001	3.91116E-001	3.57540E+000	9	...........
	56	0.76	3.85773E-001	-3.98592E-004	0.00000E+000	-1.53766E-004	-2.40040E-001	3.85835E-001	3.57540E+000	9	...........
	57	0.773333	3.80614E-001	-3.97939E-004	0.00000E+000	-1.51461E-004	-2.40040E-001	3.80680E-001	3.57540E+000	9	...........
	58	0.786667	3.75417E-001	-3.98144E-004	0.00000E+000	-1.49470E-004	-2.40040E-001	3.75485E-001	3.57540E+000	9	...........
	59	0.8	3.70284E-001	-3.99289E-004	0.00000E+000	-1.47850E-004	-2.40040E-001	3.70350E-001	3.57540E+000	9	...........
	60	0.813333	3.65109E-001	-3.97678E-004	0.00000E+000	-1.45196E-004	-2.40040E-001	3.65174E-001	3.57540E+000	9	...........
	61	0.826667	3.60049E-001	-3.98435E-004	0.00000E+000	-1.43456E-004	-2.40040E-001	3.60112E-001	3.57540E+000	9	...........
	62	0.84	3.54940E-001	-3.99152E-004	0.00000E+000	-1.41675E-004	-2.40040E-001	3.54995E-001	3.57540E+000	9	...........
	63	0.853333	3.49815E-001	-3.98317E-004	0.00000E+000	-1.39337E-004	-2.40040E-001	3.49874E-001	3.57540E+000	9	...........
	64	0.866667	3.44772E-001	-3.99942E-004	0.00000E+000	-1.37889E-004	-2.40040E-001	3.44833E-001	3.57540E+000	9	...........
	65	0.88	3.39719E-001	-3.97492E-004	0.00000E+000	-1.35036E-004	-2.40040E-001	3.39778E-001	3.57540E+000	9	...........
	66	0.893333	3.34725E-001	-3.97698E-004	0.00000E+000	-1.33119E-004	-2.40040E-001	3.34786E-001	3.57540E+000	9	...........
	67	0.906667	3.29671E-001	-3.98655E-004	0.00000E+000	-1.31425E-004	-2.40040E-001	3.29728E-001	3.57540E+000	9	...........
	68	0.92	3.24679E-001	-4.00009E-004	0.00000E+000	-1.29874E-004	-2.40040E-001	3.24742E-001	3.57540E+000	9	...........
	69	0.933333	3.19643E-001	-3.99298E-004	0.00000E+000	-1.27633E-004	-2.40040E-001	3.19701E-001	3.57540E+000	9	...........
	70	0.946667	3.14697E-001	-3.97451E-004	0.00000E+000	-1.25076E-004	-2.40040E-001	3.14760E-001	3.57540E+000	9	...........
	71	0.96	3.09776E-001	-3.98558E-004	0.00000E+000	-1.23464E-004	-2.40040E-001	3.09838E-001	3.57540E+000	9	...........
	72	0.97333	3.04915E-001	-3.98397E-004	0.00000E+000	-1.21477E-004	-2.40040E-001	3.04971E-001	3.57540E+000	9	...........
	73	0.98667	3.00079E-001	-3.98243E-004	0.00000E+000	-1.19504E-004	-2.40040E-001	3.00132E-001	3.57540E+000	9	...........
	74	1	2.95115E-001	-3.98666E-004	0.00000E+000	-1.17652E-004	-2.40040E-001	2.95169E-001	3.57540E+000	9	...........
	75	1.01333	2.90176E-001	-3.97925E-004	0.00000E+000	-1.15468E-004	-2.40040E-001	2.90221E-001	3.57540E+000	9	...........
	76	1.02667	2.85393E-001	-3.98300E-004	0.00000E+000	-1.13672E-004	-2.40040E-001	2.85446E-001	3.57540E+000	9	...........
	77	1.04	2.80661E-001	-3.99095E-004	0.00000E+000	-1.12010E-004	-2.40040E-001	2.80715E-001	3.57540E+000	9	...........
	78	1.05333	2.75850E-001	-3.98466E-004	0.00000E+000	-1.09917E-004	-2.40040E-001	2.75904E-001	3.57540E+000	9	...........
	79	1.06667	2.71097E-001	-3.98730E-004	0.00000E+000	-1.08094E-004	-2.40040E-001	2.71147E-001	3.57540E+000	9	...........
	80	1.08	2.66289E-001	-3.99217E-004	0.00000E+000	-1.06307E-004	-2.40040E-001	2.66343E-001	3.57540E+000	9	...........
	81	1.09333	2.61512E-001	-3.98303E-004	0.00000E+000	-1.04161E-004	-2.40040E-001	2.61563E-001	3.57540E+000	9	...........
	82	1.10667	2.56719E-001	-3.98793E-004	0.00000E+000	-1.02378E-004	-2.40040E-001	2.56768E-001	3.57540E+000	9	...........
	83	1.12	2.51993E-001	-3.96472E-004	0.00000E+000	-9.99084E-005	-2.40040E-001	2.52039E-001	3.57540E+000	9	...........
	84	1.13333	2.47307E-001	-3.99118E-004	0.00000E+000	-9.87046E-005	-2.40040E-001	2.47349E-001	3.57540E+000	9	...........
	85	1.14667	2.42661E-001	-3.99265E-004	0.00000E+000	-9.68861E-005	-2.40040E-001	2.42697E-001	3.57540E+000	9	...........
	86	1.16	2.37999E-001	-3.98533E-004	0.00000E+000	-9.48507E-005	-2.40040E-001	2.38041E-001	3.57540E+000	9	...........
	87	1.17333	2.33352E-001	-3.98797E-004	0.00000E+000	-9.30599E-005	-2.40040E-001	2.33397E-001	3.57540E+000	9	...........
	88	1.18667	2.28754E-001	-3.99786E-004	0.00000E+000	-9.14527E-005	-2.40040E-001	2.28795E-001	3.57540E+000	9	...........
	89	1.2	2.24115E-001	-3.98776E-004	0.00000E+000	-8.93717E-005	-2.40040E-001	2.24160E-001	3.57540E+000	9	...........
	90	1.21333	2.19518E-001	-3.98012E-004	0.00000E+000	-8.73709E-005	-2.40040E-001	2.19556E-001	3.57545E+000	9	...........
	91	1.22667	2.14976E-001	-3.99771E-004	0.00000E+000	-8.59412E-005	-2.40040E-001	2.15014E-001	3.57550E+000	9	...........
	92	1.24	2.10374E-001	-3.99317E-004	0.00000E+000	-8.40059E-005	-2.40040E-001	2.10411E-001	3.57550E+000	9	...........
	93	1.25333	2.05905E-001	-3.99752E-004	0.00000E+000	-8.23109E-005	-2.40040E-001	2.05940E-001	3.57550E+000	9	...........
	94	1.26667	2.01330E-001	-3.99187E-004	0.00000E+000	-8.03683E-005	-2.40040E-001	2.01365E-001	3.57550E+000	9	...........
	95	1.28	1.96843E-001	-3.98727E-004	0.00000E+000	-7.84868E-005	-2.40040E-001	1.96879E-001	3.57550E+000	9	...........
	96	1.29333	1.92496E-001	-3.99492E-004	0.00000E+000	-7.69004E-005	-2.40040E-001	1.92533E-001	3.57550E+000	9	...........
	97	1.30667	1.88016E-001	-3.98059E-004	0.00000E+000	-7.48416E-005	-2.40040E-001	1.88049E-001	3.57550E+000	9	...........
	98	1.32	1.83518E-001	-3.98742E-004	0.00000E+000	-7.31765E-005	-2.40040E-001	1.83552E-001	3.57550E+000	9	...........
	99	1.33333	1.79045E-001	-3.98621E-004	0.00000E+000	-7.13711E-005	-2.40040E-001	1.79082E-001	3.57550E+000	9	...........
	100	1.34667	1.74541E-001	-3.98711E-004	0.00000E+000	-6.95914E-005	-2.40040E-001	1.74576E-001	3.57550E+000	9	...........
	101	1.36	1.70123E-001	-3.98651E-004	0.00000E+000	-6.78197E-005	-2.40040E-001	1.70162E-001	3.57550E+000	9	...........
	102	1.37333	1.65624E-001	-3.99102E-004	0.00000E+000	-6.61009E-005	-2.40040E-001	1.65650E-001	3.57550E+000	9	...........
	103	1.38667	1.61219E-001	-3.99152E-004	0.00000E+000	-6.43507E-005	-2.40040E-001	1.61248E-001	3.57550E+000	9	...........
	104	1.4	1.56788E-001	-3.99140E-004	0.00000E+000	-6.25805E-005	-2.40040E-001	1.56814E-001	3.57550E+000	9	...........
	105	1.41333	1.52346E-001	-3.98306E-004	0.00000E+000	-6.06802E-005	-2.40040E-001	1.52372E-001	3.57550E+000	9	...........
	106	1.42667	1.48068E-001	-3.98178E-004	0.00000E+000	-5.89573E-005	-2.40040E-001	1.48091E-001	3.57550E+000	9	...........
	107	1.44	1.43821E-001	-3.98421E-004	0.00000E+000	-5.73012E-005	-2.40040E-001	1.43845E-001	3.57550E+000	9	...........
	108	1.45333	1.39647E-001	-3.97900E-004	0.00000E+000	-5.55656E-005	-2.40040E-001	1.39673E-001	3.57550E+000	9	...........
	109	1.46667	1.35380E-001	-3.98037E-004	0.00000E+000	-5.38864E-005	-2.40040E-001	1.35405E-001	3.57550E+000	9	...........
	110	1.48	1.31133E-001	-3.99223E-004	0.00000E+000	-5.23512E-005	-2.40040E-001	1.31157E-001	3.57550E+000	9	...........
	111	1.49333	1.26813E-001	-3.99162E-004	0.00000E+000	-5.06189E-005	-2.40040E-001	1.26834E-001	3.57550E+000	9	...........
	112	1.50667	1.22515E-001	-3.98580E-004	0.00000E+000	-4.88322E-005	-2.40040E-001	1.22538E-001	3.57550E+000	9	...........
	113	1.52	1.18274E-001	-3.98734E-004	0.00000E+000	-4.71598E-005	-2.40040E-001	1.18297E-001	3.57550E+000	9	...........
	114	1.53333	1.14117E-001	-3.98023E-004	0.00000E+000	-4.54213E-005	-2.40040E-001	1.14138E-001	3.57550E+000	9	...........
	115	1.54667	1.09934E-001	-3.97976E-004	0.00000E+000	-4.37509E-005	-2.40040E-001	1.09957E-001	3.57550E+000	9	...........
	116	1.56	1.05715E-001	-3.98154E-004	0.00000E+000	-4.20907E-005	-2.40040E-001	1.05731E-001	3.57550E+000	9	...........
	117	1.57333	1.01515E-001	-3.99546E-004	0.00000E+000	-4.05601E-005	-2.40040E-001	1.01533E-001	3.57550E+000	9	...........
	118	1.58667	9.73442E-002	-3.98382E-004	0.00000E+000	-3.87802E-005	-2.40040E-001	9.73594E-002	3.57550E+000	9	...........
	119	1.6	9.32208E-002	-4.00236E-004	0.00000E+000	-3.73103E-005	-2.40040E-001	9.32347E-002	3.57550E+000	9	...........
	120	1.61333	8.90795E-002	-3.98923E-004	0.00000E+000	-3.55358E-005	-2.40040E-001	8.90901E-002	3.57550E+000	9	...........
	121	1.62667	8.49181E-002	-3.97515E-004	0.00000E+000	-3.37562E-005	-2.40040E-001	8.49369E-002	3.57550E+000	9	...........
	122	1.64	8.08474E-002	-3.98917E-004	0.00000E+000	-3.22514E-005	-2.40040E-001	8.08560E-002	3.57550E+000	9	...........
	123	1.65333	7.68673E-002	-3.98528E-004	0.00000E+000	-3.06338E-005	-2.40040E-001	7.68705E-002	3.57550E+000	9	...........
	124	1.66667	7.28657E-002	-3.99017E-004	0.00000E+000	-2.90746E-005	-2.40040E-001	7.28754E-002	3.57550E+000	9	...........
	125	1.68	6.87590E-002	-3.98310E-004	0.00000E+000	-2.73874E-005	-2.40040E-001	6.87645E-002	3.57550E+000	9	...........
	126	1.69333	6.46510E-002	-3.99927E-004	0.00000E+000	-2.58557E-005	-2.40040E-001	6.46568E-002	3.57550E+000	9	...........
	127	1.70667	6.06572E-002	-3.97812E-004	0.00000E+000	-2.41302E-005	-2.40040E-001	6.06688E-002	3.57550E+000	9	...........
	128	1.72	5.66474E-002	-3.97903E-004	0.00000E+000	-2.25402E-005	-2.40040E-001	5.66510E-002	3.57550E+000	9	...........
	129	1.73333	5.27068E-002	-3.99788E-004	0.00000E+000	-2.10715E-005	-2.40040E-001	5.27175E-002	3.57550E+000	9	...........
	130	1.74667	4.88267E-002	-3.98822E-004	0.00000E+000	-1.94731E-005	-2.40040E-001	4.88343E-002	3.57550E+000	9	...........
	131	1.76	4.48821E-002	-3.98574E-004	0.00000E+000	-1.78888E-005	-2.40040E-001	4.48887E-002	3.57550E+000	9	...........
	132	1.77333	4.08921E-002	-3.97571E-004	0.00000E+000	-1.62575E-005	-2.40040E-001	4.09031E-002	3.57550E+000	9	...........
	133	1.78667	3.69220E-002	-3.98620E-004	0.00000E+000	-1.47178E-005	-2.40040E-001	3.69294E-002	3.57550E+000	9	...........
	134	1.8	3.28949E-002	-3.98674E-004	0.00000E+000	-1.31143E-005	-2.40040E-001	3.28979E-002	3.57550E+000	9	...........
	135	1.81333	2.89363E-002	-3.98299E-004	0.00000E+000	-1.15253E-005	-2.40040E-001	2.89366E-002	3.57550E+000	9	...........
	136	1.82667	2.50728E-002	-3.98576E-004	0.00000E+000	-9.99340E-006	-2.40040E-001	2.50639E-002	3.57550E+000	9	...........
	137	1.84	2.12956E-002	-3.98480E-004	0.00000E+000	-8.48588E-006	-2.40040E-001	2.12895E-002	3.57550E+000	9	...........
	138	1.85333	1.74379E-002	-3.99295E-004	0.00000E+000	-6.96286E-006	-2.40040E-001	1.74265E-002	3.57550E+000	9	...........
	139	1.86667	1.35911E-002	-4.00986E-004	0.00000E+000	-5.44985E-006	-2.40040E-001	1.35820E-002	3.57550E+000	9	...........
	140	1.88	9.74035E-003	-3.98182E-004	0.00000E+000	-3.87843E-006	-2.40040E-001	9.73151E-003	3.57550E+000	9	...........
	141	1.89333	5.98166E-003	-3.99611E-004	0.00000E+000	-2.39033E-006	-2.40040E-001	5.97200E-003	3.57550E+000	9	...........
	142	1.90667	2.26839E-003	-3.99423E-004	0.00000E+000	-9.06047E-007	-2.40040E-001	2.25420E-003	3.57550E+000	9	...........
	143	1.91	-1.03899E-004	-3.98210E-004	0.00000E+000	4.13736E-008	-2.40040E-001	-1.18424E-004	3.57550E+000	9	...........
STARTTIMEOFFSET	QUANT	27.81	Start Time Offset (s)
