EXPLAIN
TAG	PWR800_DISCHARGE
TITLE	LABEL	PWR Cyclic Charge Discharge (Cell) - Discharge Step	Test &Identifier
DATE	LABEL	12-7-2017	Date
TIME	LABEL	14:51:55	Time
NOTES	NOTES	3	&Notes...
	supercap test cell
	0.4mg
	6M KOH
PSTAT	PSTAT	IFC5000-01520	Potentiostat
CAPACITY	QUANT	1.00000E-003	Capacity (A-hr)
CELLTYPE	SELECTOR	1	&Cell Type
WORKINGCONNECTION	SELECTOR	0	&Working Lead
MAXDISCHARGETIME	VARIABLEANDUNITS	1.00000E+002	s	1.00000E+002	second(s)	Max &Discharge Time
DISCHARGEMODE	MULTIPARAM	0	4.00000E-004	&Discharge Mode	Constant Current	Amp(s)
SAMPLETIME	QUANT	1.00000E-002	Sa&mple Period (s)
DISCHARGESTOPAT1	MULTIPARAM	3	0.00000E+000	Discharge Stop At &1	Voltage < Limit	V
DISCHARGESTOPAT2	MULTIPARAM	0	0.00000E+000	Discharge Stop At &2	None	N/A
AESBHCSELECTOR	TOGGLE	F	Save Both Half Cells
IRCOMP	TOGGLE	F	IR &Measure
EOC	QUANT	0	Open Circuit (V)
SEQUENCER	TOGGLE	TRUE	Run as Sequence
PSTATMODEL	IQUANT	53	Pstat Model
PSTATSECTION	LABEL	IFC5000-01520	Pstat Section
PSTATSERIALNO	LABEL	01520	Pstat Serial Number
CTRLMODE	IQUANT	0	Control Mode
ELECTROMETER	IQUANT	1	RE=0 or CS=1
IESTAB	IQUANT	0	I/E Stability
CASPEED	IQUANT	4	Control Amp Speed
CONVENTION	IQUANT	1	Current Convention
ICHRANGE	IQUANT	2	Ich Range
ICHRANGEMODE	TOGGLE	T	Ich Auto Range
ICHOFFSETENABLE	TOGGLE	F	Ich Offset Enable
ICHOFFSET	QUANT	0	Ich Offset (V)
ICHFILTER	IQUANT	1	Ich Filter
VCHRANGE	IQUANT	2	Vch Range
VCHRANGEMODE	TOGGLE	T	Vch Auto Range
VCHOFFSETENABLE	TOGGLE	F	Vch Offset Enable
VCHOFFSET	QUANT	0	Vch Offset (V)
VCHFILTER	IQUANT	1	Vch Filter
IERANGELOWERLIMIT	IQUANT	9	I/E Range Lower Limit
IERANGEMODE	TOGGLE	F	I/E AutoRange
IERANGE	IQUANT	9	I/E Range
ACHSELECT	IQUANT	1	Ach Select
ACHRANGE	IQUANT	2	Ach Range
ACHOFFSETENABLE	TOGGLE	F	Ach Offset Enable
ACHOFFSET	QUANT	0	Ach Offset (V)
ACHFILTER	IQUANT	1	Ach Filter
CABLEID	IQUANT	14	Cable ID
DCCALDATE	LABEL	5-7-2017	DC Calibration Date
ACCALDATE	LABEL	12/3/2015	AC Calibration Date
FRAMEWORKVERSION	QUANT	7.01	Framework Version
INSTRUMENTVERSION	LABEL	4.00	Instrument Version
CURVE	TABLE	113
	Pt	T	Vf	Im	Vu	Pwr	Sig	Ach	Temp	IERange	Over
	#	s	V	A	V	W	V	V	deg C	#	bits
	0	0.013333	7.01084E-001	-3.98548E-004	0.00000E+000	-2.79416E-004	-2.40040E-001	7.01299E-001	3.57660E+000	9	...........
	1	0.026667	6.88643E-001	-3.99102E-004	0.00000E+000	-2.74839E-004	-2.40040E-001	6.88854E-001	3.57660E+000	9	...........
	2	0.04	6.77674E-001	-3.98083E-004	0.00000E+000	-2.69771E-004	-2.40040E-001	6.77894E-001	3.57660E+000	9	...........
	3	0.053333	6.67583E-001	-3.97903E-004	0.00000E+000	-2.65633E-004	-2.40040E-001	6.67804E-001	3.57660E+000	9	...........
	4	0.066667	6.58093E-001	-3.98730E-004	0.00000E+000	-2.62402E-004	-2.40040E-001	6.58284E-001	3.57660E+000	9	...........
	5	0.08	6.49066E-001	-3.98274E-004	0.00000E+000	-2.58506E-004	-2.40040E-001	6.49286E-001	3.57660E+000	9	...........
	6	0.093333	6.40234E-001	-3.99014E-004	0.00000E+000	-2.55462E-004	-2.40040E-001	6.40464E-001	3.57660E+000	9	...........
	7	0.106667	6.31567E-001	-3.99717E-004	0.00000E+000	-2.52448E-004	-2.40040E-001	6.31791E-001	3.57660E+000	9	...........
	8	0.12	6.23140E-001	-3.97109E-004	0.00000E+000	-2.47455E-004	-2.40040E-001	6.23356E-001	3.57660E+000	9	...........
	9	0.133333	6.14907E-001	-3.99089E-004	0.00000E+000	-2.45403E-004	-2.40040E-001	6.15177E-001	3.57660E+000	9	...........
	10	0.146667	6.06716E-001	-3.98518E-004	0.00000E+000	-2.41787E-004	-2.40040E-001	6.06953E-001	3.57660E+000	9	...........
	11	0.16	5.98690E-001	-4.00456E-004	0.00000E+000	-2.39749E-004	-2.40040E-001	5.98925E-001	3.57660E+000	9	...........
	12	0.173333	5.90730E-001	-3.99535E-004	0.00000E+000	-2.36017E-004	-2.40040E-001	5.90967E-001	3.57660E+000	9	...........
	13	0.186667	5.82846E-001	-3.97695E-004	0.00000E+000	-2.31794E-004	-2.40040E-001	5.83098E-001	3.57660E+000	9	...........
	14	0.2	5.75120E-001	-3.98520E-004	0.00000E+000	-2.29197E-004	-2.40040E-001	5.75340E-001	3.57660E+000	9	...........
	15	0.213333	5.67321E-001	-3.98196E-004	0.00000E+000	-2.25905E-004	-2.40040E-001	5.67547E-001	3.57660E+000	9	...........
	16	0.226667	5.59701E-001	-3.99031E-004	0.00000E+000	-2.23338E-004	-2.40040E-001	5.59914E-001	3.57660E+000	9	...........
	17	0.24	5.51988E-001	-3.98875E-004	0.00000E+000	-2.20174E-004	-2.40040E-001	5.52201E-001	3.57660E+000	9	...........
	18	0.253333	5.44366E-001	-3.98093E-004	0.00000E+000	-2.16708E-004	-2.40040E-001	5.44545E-001	3.57660E+000	9	...........
	19	0.266667	5.36786E-001	-3.97884E-004	0.00000E+000	-2.13579E-004	-2.40040E-001	5.37001E-001	3.57660E+000	9	...........
	20	0.28	5.29350E-001	-3.99144E-004	0.00000E+000	-2.11287E-004	-2.40040E-001	5.29576E-001	3.57660E+000	9	...........
	21	0.293333	5.21932E-001	-3.98156E-004	0.00000E+000	-2.07810E-004	-2.40040E-001	5.22123E-001	3.57660E+000	9	...........
	22	0.306667	5.14590E-001	-3.97991E-004	0.00000E+000	-2.04803E-004	-2.40040E-001	5.14775E-001	3.57660E+000	9	...........
	23	0.32	5.07185E-001	-3.97304E-004	0.00000E+000	-2.01507E-004	-2.40040E-001	5.07433E-001	3.57660E+000	9	...........
	24	0.333333	4.99837E-001	-3.98259E-004	0.00000E+000	-1.99065E-004	-2.40040E-001	5.00036E-001	3.57660E+000	9	...........
	25	0.346667	4.92679E-001	-3.98660E-004	0.00000E+000	-1.96411E-004	-2.40040E-001	4.92874E-001	3.57660E+000	9	...........
	26	0.36	4.85566E-001	-3.99811E-004	0.00000E+000	-1.94134E-004	-2.40040E-001	4.85703E-001	3.57660E+000	9	...........
	27	0.373333	4.78511E-001	-3.98790E-004	0.00000E+000	-1.90825E-004	-2.40040E-001	4.78611E-001	3.57650E+000	9	...........
	28	0.386667	4.71346E-001	-3.99006E-004	0.00000E+000	-1.88070E-004	-2.40040E-001	4.71441E-001	3.57620E+000	9	...........
	29	0.4	4.64223E-001	-3.98638E-004	0.00000E+000	-1.85057E-004	-2.40040E-001	4.64315E-001	3.57620E+000	9	...........
	30	0.413333	4.57174E-001	-3.99866E-004	0.00000E+000	-1.82808E-004	-2.40040E-001	4.57267E-001	3.57620E+000	9	...........
	31	0.426667	4.50176E-001	-3.98144E-004	0.00000E+000	-1.79235E-004	-2.40040E-001	4.50272E-001	3.57620E+000	9	...........
	32	0.44	4.43197E-001	-3.99985E-004	0.00000E+000	-1.77272E-004	-2.40040E-001	4.43291E-001	3.57620E+000	9	...........
	33	0.453333	4.36206E-001	-3.97685E-004	0.00000E+000	-1.73473E-004	-2.40040E-001	4.36296E-001	3.57620E+000	9	...........
	34	0.466667	4.29336E-001	-3.99834E-004	0.00000E+000	-1.71663E-004	-2.40040E-001	4.29426E-001	3.57620E+000	9	...........
	35	0.48	4.22489E-001	-3.98735E-004	0.00000E+000	-1.68461E-004	-2.40040E-001	4.22581E-001	3.57620E+000	9	...........
	36	0.493333	4.15675E-001	-3.99524E-004	0.00000E+000	-1.66072E-004	-2.40040E-001	4.15767E-001	3.57620E+000	9	...........
	37	0.506667	4.08879E-001	-3.98584E-004	0.00000E+000	-1.62973E-004	-2.40040E-001	4.08960E-001	3.57620E+000	9	...........
	38	0.52	4.02209E-001	-3.98640E-004	0.00000E+000	-1.60336E-004	-2.40040E-001	4.02287E-001	3.57620E+000	9	...........
	39	0.533333	3.95522E-001	-3.98559E-004	0.00000E+000	-1.57639E-004	-2.40040E-001	3.95595E-001	3.57620E+000	9	...........
	40	0.546667	3.88797E-001	-3.98737E-004	0.00000E+000	-1.55028E-004	-2.40040E-001	3.88863E-001	3.57620E+000	9	...........
	41	0.56	3.82140E-001	-3.99600E-004	0.00000E+000	-1.52703E-004	-2.40040E-001	3.82210E-001	3.57620E+000	9	...........
	42	0.573333	3.75600E-001	-4.00248E-004	0.00000E+000	-1.50333E-004	-2.40040E-001	3.75667E-001	3.57620E+000	9	...........
	43	0.586667	3.68966E-001	-3.98903E-004	0.00000E+000	-1.47182E-004	-2.40040E-001	3.69029E-001	3.57620E+000	9	...........
	44	0.6	3.62447E-001	-3.99496E-004	0.00000E+000	-1.44796E-004	-2.40040E-001	3.62517E-001	3.57620E+000	9	...........
	45	0.613333	3.56000E-001	-3.99480E-004	0.00000E+000	-1.42215E-004	-2.40040E-001	3.56066E-001	3.57620E+000	9	...........
	46	0.626667	3.49476E-001	-3.99048E-004	0.00000E+000	-1.39458E-004	-2.40040E-001	3.49545E-001	3.57620E+000	9	...........
	47	0.64	3.43027E-001	-3.97842E-004	0.00000E+000	-1.36471E-004	-2.40040E-001	3.43092E-001	3.57620E+000	9	...........
	48	0.653333	3.36678E-001	-3.99017E-004	0.00000E+000	-1.34340E-004	-2.40040E-001	3.36740E-001	3.57620E+000	9	...........
	49	0.666667	3.30307E-001	-3.99859E-004	0.00000E+000	-1.32076E-004	-2.40040E-001	3.30372E-001	3.57620E+000	9	...........
	50	0.68	3.24075E-001	-3.99249E-004	0.00000E+000	-1.29387E-004	-2.40040E-001	3.24140E-001	3.57620E+000	9	...........
	51	0.693333	3.17792E-001	-3.98890E-004	0.00000E+000	-1.26764E-004	-2.40040E-001	3.17851E-001	3.57620E+000	9	...........
	52	0.706667	3.11584E-001	-3.98741E-004	0.00000E+000	-1.24241E-004	-2.40040E-001	3.11646E-001	3.57620E+000	9	...........
	53	0.72	3.05388E-001	-3.98434E-004	0.00000E+000	-1.21677E-004	-2.40040E-001	3.05445E-001	3.57620E+000	9	...........
	54	0.733333	2.99246E-001	-3.99214E-004	0.00000E+000	-1.19463E-004	-2.40040E-001	2.99300E-001	3.57620E+000	9	...........
	55	0.746667	2.93184E-001	-3.98342E-004	0.00000E+000	-1.16788E-004	-2.40040E-001	2.93241E-001	3.57620E+000	9	...........
	56	0.76	2.87134E-001	-3.99824E-004	0.00000E+000	-1.14803E-004	-2.40040E-001	2.87179E-001	3.57620E+000	9	...........
	57	0.773333	2.81052E-001	-3.98350E-004	0.00000E+000	-1.11957E-004	-2.40040E-001	2.81109E-001	3.57620E+000	9	...........
	58	0.786667	2.74956E-001	-3.99196E-004	0.00000E+000	-1.09761E-004	-2.40040E-001	2.75005E-001	3.57620E+000	9	...........
	59	0.8	2.68981E-001	-3.98874E-004	0.00000E+000	-1.07290E-004	-2.40040E-001	2.69038E-001	3.57620E+000	9	...........
	60	0.813333	2.63129E-001	-3.98250E-004	0.00000E+000	-1.04791E-004	-2.40040E-001	2.63185E-001	3.57620E+000	9	...........
	61	0.826667	2.57230E-001	-3.98287E-004	0.00000E+000	-1.02452E-004	-2.40040E-001	2.57282E-001	3.57620E+000	9	...........
	62	0.84	2.51392E-001	-3.98674E-004	0.00000E+000	-1.00224E-004	-2.40040E-001	2.51442E-001	3.57620E+000	9	...........
	63	0.853333	2.45562E-001	-3.99039E-004	0.00000E+000	-9.79888E-005	-2.40040E-001	2.45605E-001	3.57620E+000	9	...........
	64	0.866667	2.39792E-001	-3.98225E-004	0.00000E+000	-9.54913E-005	-2.40040E-001	2.39835E-001	3.57620E+000	9	...........
	65	0.88	2.34060E-001	-3.98903E-004	0.00000E+000	-9.33673E-005	-2.40040E-001	2.34109E-001	3.57620E+000	9	...........
	66	0.893333	2.28365E-001	-3.98954E-004	0.00000E+000	-9.11070E-005	-2.40040E-001	2.28405E-001	3.57620E+000	9	...........
	67	0.906667	2.22714E-001	-3.99851E-004	0.00000E+000	-8.90525E-005	-2.40040E-001	2.22760E-001	3.57620E+000	9	...........
	68	0.92	2.17041E-001	-3.98971E-004	0.00000E+000	-8.65931E-005	-2.40040E-001	2.17084E-001	3.57620E+000	9	...........
	69	0.933333	2.11446E-001	-3.98902E-004	0.00000E+000	-8.43461E-005	-2.40040E-001	2.11482E-001	3.57620E+000	9	...........
	70	0.946667	2.05805E-001	-3.99702E-004	0.00000E+000	-8.22607E-005	-2.40040E-001	2.05849E-001	3.57620E+000	9	...........
	71	0.96	2.00267E-001	-3.98984E-004	0.00000E+000	-7.99033E-005	-2.40040E-001	2.00304E-001	3.57620E+000	9	...........
	72	0.97333	1.94733E-001	-3.98050E-004	0.00000E+000	-7.75133E-005	-2.40040E-001	1.94765E-001	3.57620E+000	9	...........
	73	0.98667	1.89247E-001	-3.99421E-004	0.00000E+000	-7.55893E-005	-2.40040E-001	1.89281E-001	3.57620E+000	9	...........
	74	1	1.83711E-001	-3.98221E-004	0.00000E+000	-7.31575E-005	-2.40040E-001	1.83746E-001	3.57620E+000	9	...........
	75	1.01333	1.78370E-001	-3.99032E-004	0.00000E+000	-7.11756E-005	-2.40040E-001	1.78404E-001	3.57620E+000	9	...........
	76	1.02667	1.73020E-001	-3.99809E-004	0.00000E+000	-6.91748E-005	-2.40040E-001	1.73056E-001	3.57620E+000	9	...........
	77	1.04	1.67657E-001	-3.98773E-004	0.00000E+000	-6.68570E-005	-2.40040E-001	1.67687E-001	3.57620E+000	9	...........
	78	1.05333	1.62288E-001	-3.99027E-004	0.00000E+000	-6.47575E-005	-2.40040E-001	1.62315E-001	3.57620E+000	9	...........
	79	1.06667	1.56967E-001	-3.98447E-004	0.00000E+000	-6.25432E-005	-2.40040E-001	1.56991E-001	3.57620E+000	9	...........
	80	1.08	1.51646E-001	-3.99150E-004	0.00000E+000	-6.05296E-005	-2.40040E-001	1.51673E-001	3.57620E+000	9	...........
	81	1.09333	1.46391E-001	-3.99697E-004	0.00000E+000	-5.85121E-005	-2.40040E-001	1.46413E-001	3.57620E+000	9	...........
	82	1.10667	1.41274E-001	-3.99090E-004	0.00000E+000	-5.63811E-005	-2.40040E-001	1.41300E-001	3.57620E+000	9	...........
	83	1.12	1.36180E-001	-3.99477E-004	0.00000E+000	-5.44009E-005	-2.40040E-001	1.36207E-001	3.57620E+000	9	...........
	84	1.13333	1.31065E-001	-3.98619E-004	0.00000E+000	-5.22448E-005	-2.40040E-001	1.31084E-001	3.57620E+000	9	...........
	85	1.14667	1.25941E-001	-3.99102E-004	0.00000E+000	-5.02634E-005	-2.40040E-001	1.25967E-001	3.57620E+000	9	...........
	86	1.16	1.20865E-001	-3.98728E-004	0.00000E+000	-4.81924E-005	-2.40040E-001	1.20892E-001	3.57620E+000	9	...........
	87	1.17333	1.15843E-001	-3.99976E-004	0.00000E+000	-4.63345E-005	-2.40040E-001	1.15865E-001	3.57620E+000	9	...........
	88	1.18667	1.10792E-001	-3.99058E-004	0.00000E+000	-4.42124E-005	-2.40040E-001	1.10816E-001	3.57620E+000	9	...........
	89	1.2	1.05829E-001	-3.98641E-004	0.00000E+000	-4.21879E-005	-2.40040E-001	1.05854E-001	3.57620E+000	9	...........
	90	1.21333	1.00849E-001	-3.98530E-004	0.00000E+000	-4.01914E-005	-2.40040E-001	1.00868E-001	3.57620E+000	9	...........
	91	1.22667	9.59789E-002	-3.99106E-004	0.00000E+000	-3.83058E-005	-2.40040E-001	9.59996E-002	3.57620E+000	9	...........
	92	1.24	9.10947E-002	-3.97468E-004	0.00000E+000	-3.62073E-005	-2.40040E-001	9.11192E-002	3.57620E+000	9	...........
	93	1.25333	8.63124E-002	-3.99091E-004	0.00000E+000	-3.44465E-005	-2.40040E-001	8.63340E-002	3.57620E+000	9	...........
	94	1.26667	8.14600E-002	-3.98698E-004	0.00000E+000	-3.24779E-005	-2.40040E-001	8.14755E-002	3.57620E+000	9	...........
	95	1.28	7.67004E-002	-3.97896E-004	0.00000E+000	-3.05187E-005	-2.40040E-001	7.67123E-002	3.57620E+000	9	...........
	96	1.29333	7.19247E-002	-3.98410E-004	0.00000E+000	-2.86555E-005	-2.40040E-001	7.19310E-002	3.57620E+000	9	...........
	97	1.30667	6.71369E-002	-3.98485E-004	0.00000E+000	-2.67531E-005	-2.40040E-001	6.71404E-002	3.57620E+000	9	...........
	98	1.32	6.23555E-002	-3.98797E-004	0.00000E+000	-2.48672E-005	-2.40040E-001	6.23595E-002	3.57620E+000	9	...........
	99	1.33333	5.75714E-002	-3.99674E-004	0.00000E+000	-2.30098E-005	-2.40040E-001	5.75781E-002	3.57620E+000	9	...........
	100	1.34667	5.28888E-002	-3.98964E-004	0.00000E+000	-2.11007E-005	-2.40040E-001	5.28943E-002	3.57620E+000	9	...........
	101	1.36	4.82331E-002	-4.00075E-004	0.00000E+000	-1.92969E-005	-2.40040E-001	4.82372E-002	3.57620E+000	9	...........
	102	1.37333	4.36660E-002	-3.98327E-004	0.00000E+000	-1.73933E-005	-2.40040E-001	4.36710E-002	3.57633E+000	9	...........
	103	1.38667	3.91074E-002	-3.99337E-004	0.00000E+000	-1.56170E-005	-2.40040E-001	3.91133E-002	3.57670E+000	9	...........
	104	1.4	3.45342E-002	-3.98852E-004	0.00000E+000	-1.37740E-005	-2.40040E-001	3.45421E-002	3.57670E+000	9	...........
	105	1.41333	3.00597E-002	-3.99611E-004	0.00000E+000	-1.20122E-005	-2.40040E-001	3.00614E-002	3.57670E+000	9	...........
	106	1.42667	2.56212E-002	-3.98678E-004	0.00000E+000	-1.02146E-005	-2.40040E-001	2.56153E-002	3.57670E+000	9	...........
	107	1.44	2.10580E-002	-3.98846E-004	0.00000E+000	-8.39888E-006	-2.40040E-001	2.10549E-002	3.57670E+000	9	...........
	108	1.45333	1.65697E-002	-3.98034E-004	0.00000E+000	-6.59531E-006	-2.40040E-001	1.65598E-002	3.57670E+000	9	...........
	109	1.46667	1.21131E-002	-3.98782E-004	0.00000E+000	-4.83049E-006	-2.40040E-001	1.21021E-002	3.57670E+000	9	...........
	110	1.48	7.62857E-003	-3.98401E-004	0.00000E+000	-3.03923E-006	-2.40040E-001	7.61109E-003	3.57670E+000	9	...........
	111	1.49333	3.21329E-003	-4.00022E-004	0.00000E+000	-1.28539E-006	-2.40040E-001	3.19691E-003	3.57670E+000	9	...........
	112	1.49833	1.93412E-004	-3.99662E-004	0.00000E+000	-7.72995E-008	-2.40040E-001	1.68758E-004	3.57670E+000	9	...........
STARTTIMEOFFSET	QUANT	1592.066	Start Time Offset (s)
