EXPLAIN
TAG	PWR800_DISCHARGE
TITLE	LABEL	PWR Cyclic Charge Discharge (Cell) - Discharge Step	Test &Identifier
DATE	LABEL	12-7-2017	Date
TIME	LABEL	14:31:28	Time
NOTES	NOTES	3	&Notes...
	supercap test cell
	0.4mg
	6M KOH
PSTAT	PSTAT	IFC5000-01520	Potentiostat
CAPACITY	QUANT	1.00000E-003	Capacity (A-hr)
CELLTYPE	SELECTOR	1	&Cell Type
WORKINGCONNECTION	SELECTOR	0	&Working Lead
MAXDISCHARGETIME	VARIABLEANDUNITS	1.00000E+002	s	1.00000E+002	second(s)	Max &Discharge Time
DISCHARGEMODE	MULTIPARAM	0	4.00000E-004	&Discharge Mode	Constant Current	Amp(s)
SAMPLETIME	QUANT	1.00000E-002	Sa&mple Period (s)
DISCHARGESTOPAT1	MULTIPARAM	3	0.00000E+000	Discharge Stop At &1	Voltage < Limit	V
DISCHARGESTOPAT2	MULTIPARAM	0	0.00000E+000	Discharge Stop At &2	None	N/A
AESBHCSELECTOR	TOGGLE	F	Save Both Half Cells
IRCOMP	TOGGLE	F	IR &Measure
EOC	QUANT	0	Open Circuit (V)
SEQUENCER	TOGGLE	TRUE	Run as Sequence
PSTATMODEL	IQUANT	53	Pstat Model
PSTATSECTION	LABEL	IFC5000-01520	Pstat Section
PSTATSERIALNO	LABEL	01520	Pstat Serial Number
CTRLMODE	IQUANT	0	Control Mode
ELECTROMETER	IQUANT	1	RE=0 or CS=1
IESTAB	IQUANT	0	I/E Stability
CASPEED	IQUANT	4	Control Amp Speed
CONVENTION	IQUANT	1	Current Convention
ICHRANGE	IQUANT	2	Ich Range
ICHRANGEMODE	TOGGLE	T	Ich Auto Range
ICHOFFSETENABLE	TOGGLE	F	Ich Offset Enable
ICHOFFSET	QUANT	0	Ich Offset (V)
ICHFILTER	IQUANT	1	Ich Filter
VCHRANGE	IQUANT	2	Vch Range
VCHRANGEMODE	TOGGLE	T	Vch Auto Range
VCHOFFSETENABLE	TOGGLE	F	Vch Offset Enable
VCHOFFSET	QUANT	0	Vch Offset (V)
VCHFILTER	IQUANT	1	Vch Filter
IERANGELOWERLIMIT	IQUANT	9	I/E Range Lower Limit
IERANGEMODE	TOGGLE	F	I/E AutoRange
IERANGE	IQUANT	9	I/E Range
ACHSELECT	IQUANT	1	Ach Select
ACHRANGE	IQUANT	2	Ach Range
ACHOFFSETENABLE	TOGGLE	F	Ach Offset Enable
ACHOFFSET	QUANT	0	Ach Offset (V)
ACHFILTER	IQUANT	1	Ach Filter
CABLEID	IQUANT	14	Cable ID
DCCALDATE	LABEL	5-7-2017	DC Calibration Date
ACCALDATE	LABEL	12/3/2015	AC Calibration Date
FRAMEWORKVERSION	QUANT	7.01	Framework Version
INSTRUMENTVERSION	LABEL	4.00	Instrument Version
CURVE	TABLE	125
	Pt	T	Vf	Im	Vu	Pwr	Sig	Ach	Temp	IERange	Over
	#	s	V	A	V	W	V	V	deg C	#	bits
	0	0.013333	7.12590E-001	-4.00047E-004	0.00000E+000	-2.85069E-004	-2.40040E-001	7.12845E-001	3.57590E+000	9	...........
	1	0.026667	7.01154E-001	-4.00711E-004	0.00000E+000	-2.80960E-004	-2.40040E-001	7.01382E-001	3.57590E+000	9	...........
	2	0.04	6.91043E-001	-3.99043E-004	0.00000E+000	-2.75756E-004	-2.40040E-001	6.91273E-001	3.57590E+000	9	...........
	3	0.053333	6.81772E-001	-3.98764E-004	0.00000E+000	-2.71866E-004	-2.40040E-001	6.81982E-001	3.57590E+000	9	...........
	4	0.066667	6.72871E-001	-3.97401E-004	0.00000E+000	-2.67400E-004	-2.40040E-001	6.73104E-001	3.57590E+000	9	...........
	5	0.08	6.64462E-001	-3.98877E-004	0.00000E+000	-2.65039E-004	-2.40040E-001	6.64688E-001	3.57590E+000	9	...........
	6	0.093333	6.56234E-001	-3.98371E-004	0.00000E+000	-2.61424E-004	-2.40040E-001	6.56469E-001	3.57590E+000	9	...........
	7	0.106667	6.48290E-001	-3.99073E-004	0.00000E+000	-2.58715E-004	-2.40040E-001	6.48513E-001	3.57590E+000	9	...........
	8	0.12	6.40463E-001	-3.98748E-004	0.00000E+000	-2.55383E-004	-2.40040E-001	6.40713E-001	3.57590E+000	9	...........
	9	0.133333	6.32769E-001	-3.98543E-004	0.00000E+000	-2.52185E-004	-2.40040E-001	6.32997E-001	3.57590E+000	9	...........
	10	0.146667	6.25167E-001	-3.97834E-004	0.00000E+000	-2.48713E-004	-2.40040E-001	6.25393E-001	3.57590E+000	9	...........
	11	0.16	6.17781E-001	-3.98958E-004	0.00000E+000	-2.46469E-004	-2.40040E-001	6.17976E-001	3.57590E+000	9	...........
	12	0.173333	6.10368E-001	-3.99158E-004	0.00000E+000	-2.43634E-004	-2.40040E-001	6.10631E-001	3.57590E+000	9	...........
	13	0.186667	6.03083E-001	-3.98972E-004	0.00000E+000	-2.40613E-004	-2.40040E-001	6.03343E-001	3.57590E+000	9	...........
	14	0.2	5.95788E-001	-3.98080E-004	0.00000E+000	-2.37171E-004	-2.40040E-001	5.96053E-001	3.57590E+000	9	...........
	15	0.213333	5.88561E-001	-3.98690E-004	0.00000E+000	-2.34653E-004	-2.40040E-001	5.88828E-001	3.57590E+000	9	...........
	16	0.226667	5.81408E-001	-3.98702E-004	0.00000E+000	-2.31808E-004	-2.40040E-001	5.81697E-001	3.57590E+000	9	...........
	17	0.24	5.74304E-001	-3.98329E-004	0.00000E+000	-2.28762E-004	-2.40040E-001	5.74562E-001	3.57590E+000	9	...........
	18	0.253333	5.67282E-001	-3.97085E-004	0.00000E+000	-2.25259E-004	-2.40040E-001	5.67558E-001	3.57590E+000	9	...........
	19	0.266667	5.60247E-001	-3.98089E-004	0.00000E+000	-2.23028E-004	-2.40040E-001	5.60521E-001	3.57590E+000	9	...........
	20	0.28	5.53301E-001	-3.99316E-004	0.00000E+000	-2.20942E-004	-2.40040E-001	5.53537E-001	3.57590E+000	9	...........
	21	0.293333	5.46411E-001	-3.99114E-004	0.00000E+000	-2.18080E-004	-2.40040E-001	5.46644E-001	3.57590E+000	9	...........
	22	0.306667	5.39602E-001	-3.99950E-004	0.00000E+000	-2.15814E-004	-2.40040E-001	5.39822E-001	3.57590E+000	9	...........
	23	0.32	5.32777E-001	-3.98942E-004	0.00000E+000	-2.12547E-004	-2.40040E-001	5.32980E-001	3.57590E+000	9	...........
	24	0.333333	5.25953E-001	-3.99565E-004	0.00000E+000	-2.10152E-004	-2.40040E-001	5.26172E-001	3.57590E+000	9	...........
	25	0.346667	5.19290E-001	-4.00212E-004	0.00000E+000	-2.07826E-004	-2.40040E-001	5.19489E-001	3.57590E+000	9	...........
	26	0.36	5.12558E-001	-3.99380E-004	0.00000E+000	-2.04706E-004	-2.40040E-001	5.12780E-001	3.57590E+000	9	...........
	27	0.373333	5.05826E-001	-4.00143E-004	0.00000E+000	-2.02403E-004	-2.40040E-001	5.06079E-001	3.57590E+000	9	...........
	28	0.386667	4.99212E-001	-3.98344E-004	0.00000E+000	-1.98858E-004	-2.40040E-001	4.99443E-001	3.57590E+000	9	...........
	29	0.4	4.92575E-001	-3.99014E-004	0.00000E+000	-1.96544E-004	-2.40040E-001	4.92790E-001	3.57590E+000	9	...........
	30	0.413333	4.86125E-001	-3.99255E-004	0.00000E+000	-1.94088E-004	-2.40040E-001	4.86312E-001	3.57590E+000	9	...........
	31	0.426667	4.79725E-001	-3.98672E-004	0.00000E+000	-1.91253E-004	-2.40040E-001	4.79825E-001	3.57590E+000	9	...........
	32	0.44	4.73311E-001	-4.00084E-004	0.00000E+000	-1.89364E-004	-2.40040E-001	4.73410E-001	3.57590E+000	9	...........
	33	0.453333	4.66874E-001	-3.97601E-004	0.00000E+000	-1.85630E-004	-2.40040E-001	4.66975E-001	3.57590E+000	9	...........
	34	0.466667	4.60494E-001	-4.00246E-004	0.00000E+000	-1.84311E-004	-2.40040E-001	4.60590E-001	3.57590E+000	9	...........
	35	0.48	4.54127E-001	-3.99056E-004	0.00000E+000	-1.81222E-004	-2.40040E-001	4.54224E-001	3.57590E+000	9	...........
	36	0.493333	4.47853E-001	-3.99318E-004	0.00000E+000	-1.78836E-004	-2.40040E-001	4.47950E-001	3.57590E+000	9	...........
	37	0.506667	4.41591E-001	-3.98361E-004	0.00000E+000	-1.75913E-004	-2.40040E-001	4.41679E-001	3.57590E+000	9	...........
	38	0.52	4.35301E-001	-3.98064E-004	0.00000E+000	-1.73278E-004	-2.40040E-001	4.35390E-001	3.57590E+000	9	...........
	39	0.533333	4.29065E-001	-3.98733E-004	0.00000E+000	-1.71082E-004	-2.40040E-001	4.29157E-001	3.57590E+000	9	...........
	40	0.546667	4.22878E-001	-3.99645E-004	0.00000E+000	-1.69001E-004	-2.40040E-001	4.22971E-001	3.57590E+000	9	...........
	41	0.56	4.16717E-001	-3.97808E-004	0.00000E+000	-1.65773E-004	-2.40040E-001	4.16803E-001	3.57590E+000	9	...........
	42	0.573333	4.10580E-001	-3.98875E-004	0.00000E+000	-1.63770E-004	-2.40040E-001	4.10665E-001	3.57600E+000	9	...........
	43	0.586667	4.04426E-001	-4.00190E-004	0.00000E+000	-1.61847E-004	-2.40040E-001	4.04507E-001	3.57600E+000	9	...........
	44	0.6	3.98277E-001	-3.99642E-004	0.00000E+000	-1.59168E-004	-2.40040E-001	3.98360E-001	3.57600E+000	9	...........
	45	0.613333	3.92207E-001	-3.98244E-004	0.00000E+000	-1.56194E-004	-2.40040E-001	3.92286E-001	3.57600E+000	9	...........
	46	0.626667	3.86168E-001	-3.98762E-004	0.00000E+000	-1.53989E-004	-2.40040E-001	3.86247E-001	3.57600E+000	9	...........
	47	0.64	3.80208E-001	-3.98965E-004	0.00000E+000	-1.51690E-004	-2.40040E-001	3.80285E-001	3.57600E+000	9	...........
	48	0.653333	3.74255E-001	-3.99815E-004	0.00000E+000	-1.49633E-004	-2.40040E-001	3.74329E-001	3.57600E+000	9	...........
	49	0.666667	3.68351E-001	-3.99363E-004	0.00000E+000	-1.47106E-004	-2.40040E-001	3.68419E-001	3.57600E+000	9	...........
	50	0.68	3.62478E-001	-3.98163E-004	0.00000E+000	-1.44325E-004	-2.40040E-001	3.62545E-001	3.57600E+000	9	...........
	51	0.693333	3.56638E-001	-3.98092E-004	0.00000E+000	-1.41975E-004	-2.40040E-001	3.56709E-001	3.57600E+000	9	...........
	52	0.706667	3.50839E-001	-3.99854E-004	0.00000E+000	-1.40284E-004	-2.40040E-001	3.50912E-001	3.57600E+000	9	...........
	53	0.72	3.45026E-001	-3.98881E-004	0.00000E+000	-1.37624E-004	-2.40040E-001	3.45092E-001	3.57600E+000	9	...........
	54	0.733333	3.39239E-001	-3.99540E-004	0.00000E+000	-1.35539E-004	-2.40040E-001	3.39308E-001	3.57600E+000	9	...........
	55	0.746667	3.33461E-001	-3.98446E-004	0.00000E+000	-1.32866E-004	-2.40040E-001	3.33527E-001	3.57600E+000	9	...........
	56	0.76	3.27684E-001	-4.00182E-004	0.00000E+000	-1.31133E-004	-2.40040E-001	3.27748E-001	3.57600E+000	9	...........
	57	0.773333	3.22044E-001	-4.00126E-004	0.00000E+000	-1.28858E-004	-2.40040E-001	3.22109E-001	3.57600E+000	9	...........
	58	0.786667	3.16398E-001	-3.99369E-004	0.00000E+000	-1.26359E-004	-2.40040E-001	3.16466E-001	3.57600E+000	9	...........
	59	0.8	3.10729E-001	-4.00974E-004	0.00000E+000	-1.24594E-004	-2.40040E-001	3.10788E-001	3.57600E+000	9	...........
	60	0.813333	3.05070E-001	-3.98558E-004	0.00000E+000	-1.21588E-004	-2.40040E-001	3.05138E-001	3.57600E+000	9	...........
	61	0.826667	2.99411E-001	-3.99418E-004	0.00000E+000	-1.19590E-004	-2.40040E-001	2.99468E-001	3.57600E+000	9	...........
	62	0.84	2.93891E-001	-3.99691E-004	0.00000E+000	-1.17465E-004	-2.40040E-001	2.93949E-001	3.57600E+000	9	...........
	63	0.853333	2.88375E-001	-3.97997E-004	0.00000E+000	-1.14772E-004	-2.40040E-001	2.88436E-001	3.57600E+000	9	...........
	64	0.866667	2.82875E-001	-3.97764E-004	0.00000E+000	-1.12518E-004	-2.40040E-001	2.82935E-001	3.57600E+000	9	...........
	65	0.88	2.77393E-001	-3.98880E-004	0.00000E+000	-1.10647E-004	-2.40040E-001	2.77454E-001	3.57600E+000	9	...........
	66	0.893333	2.71977E-001	-3.98529E-004	0.00000E+000	-1.08391E-004	-2.40040E-001	2.72031E-001	3.57600E+000	9	...........
	67	0.906667	2.66590E-001	-3.97794E-004	0.00000E+000	-1.06048E-004	-2.40040E-001	2.66643E-001	3.57600E+000	9	...........
	68	0.92	2.61258E-001	-3.98870E-004	0.00000E+000	-1.04208E-004	-2.40040E-001	2.61314E-001	3.57600E+000	9	...........
	69	0.933333	2.55920E-001	-3.98806E-004	0.00000E+000	-1.02063E-004	-2.40040E-001	2.55980E-001	3.57600E+000	9	...........
	70	0.946667	2.50653E-001	-3.98574E-004	0.00000E+000	-9.99039E-005	-2.40040E-001	2.50706E-001	3.57600E+000	9	...........
	71	0.96	2.45310E-001	-3.99070E-004	0.00000E+000	-9.78956E-005	-2.40040E-001	2.45354E-001	3.57600E+000	9	...........
	72	0.97333	2.40021E-001	-3.99570E-004	0.00000E+000	-9.59053E-005	-2.40040E-001	2.40064E-001	3.57600E+000	9	...........
	73	0.98667	2.34784E-001	-3.98274E-004	0.00000E+000	-9.35084E-005	-2.40040E-001	2.34824E-001	3.57600E+000	9	...........
	74	1	2.29556E-001	-3.98620E-004	0.00000E+000	-9.15055E-005	-2.40040E-001	2.29597E-001	3.57600E+000	9	...........
	75	1.01333	2.24336E-001	-3.99305E-004	0.00000E+000	-8.95787E-005	-2.40040E-001	2.24375E-001	3.57600E+000	9	...........
	76	1.02667	2.19183E-001	-3.99403E-004	0.00000E+000	-8.75425E-005	-2.40040E-001	2.19231E-001	3.57600E+000	9	...........
	77	1.04	2.14047E-001	-4.00109E-004	0.00000E+000	-8.56421E-005	-2.40040E-001	2.14088E-001	3.57600E+000	9	...........
	78	1.05333	2.08863E-001	-3.97087E-004	0.00000E+000	-8.29367E-005	-2.40040E-001	2.08900E-001	3.57600E+000	9	...........
	79	1.06667	2.03790E-001	-3.98309E-004	0.00000E+000	-8.11715E-005	-2.40040E-001	2.03833E-001	3.57600E+000	9	...........
	80	1.08	1.98721E-001	-3.99622E-004	0.00000E+000	-7.94135E-005	-2.40040E-001	1.98759E-001	3.57600E+000	9	...........
	81	1.09333	1.93638E-001	-3.97792E-004	0.00000E+000	-7.70276E-005	-2.40040E-001	1.93670E-001	3.57600E+000	9	...........
	82	1.10667	1.88562E-001	-3.98417E-004	0.00000E+000	-7.51262E-005	-2.40040E-001	1.88598E-001	3.57600E+000	9	...........
	83	1.12	1.83536E-001	-3.98176E-004	0.00000E+000	-7.30797E-005	-2.40040E-001	1.83570E-001	3.57600E+000	9	...........
	84	1.13333	1.78486E-001	-3.99248E-004	0.00000E+000	-7.12604E-005	-2.40040E-001	1.78523E-001	3.57600E+000	9	...........
	85	1.14667	1.73579E-001	-3.98377E-004	0.00000E+000	-6.91499E-005	-2.40040E-001	1.73611E-001	3.57600E+000	9	...........
	86	1.16	1.68724E-001	-3.98104E-004	0.00000E+000	-6.71695E-005	-2.40040E-001	1.68753E-001	3.57600E+000	9	...........
	87	1.17333	1.63807E-001	-3.99764E-004	0.00000E+000	-6.54840E-005	-2.40040E-001	1.63837E-001	3.57600E+000	9	...........
	88	1.18667	1.58928E-001	-3.98347E-004	0.00000E+000	-6.33083E-005	-2.40040E-001	1.58954E-001	3.57600E+000	9	...........
	89	1.2	1.54044E-001	-3.99115E-004	0.00000E+000	-6.14814E-005	-2.40040E-001	1.54071E-001	3.57600E+000	9	...........
	90	1.21333	1.49232E-001	-3.98989E-004	0.00000E+000	-5.95418E-005	-2.40040E-001	1.49251E-001	3.57600E+000	9	...........
	91	1.22667	1.44435E-001	-3.98242E-004	0.00000E+000	-5.75201E-005	-2.40040E-001	1.44465E-001	3.57600E+000	9	...........
	92	1.24	1.39651E-001	-3.98435E-004	0.00000E+000	-5.56420E-005	-2.40040E-001	1.39676E-001	3.57600E+000	9	...........
	93	1.25333	1.34910E-001	-3.97806E-004	0.00000E+000	-5.36682E-005	-2.40040E-001	1.34936E-001	3.57600E+000	9	...........
	94	1.26667	1.30115E-001	-4.00302E-004	0.00000E+000	-5.20855E-005	-2.40040E-001	1.30136E-001	3.57600E+000	9	...........
	95	1.28	1.25373E-001	-3.98866E-004	0.00000E+000	-5.00072E-005	-2.40040E-001	1.25400E-001	3.57600E+000	9	...........
	96	1.29333	1.20719E-001	-3.99464E-004	0.00000E+000	-4.82230E-005	-2.40040E-001	1.20748E-001	3.57600E+000	9	...........
	97	1.30667	1.16068E-001	-3.99051E-004	0.00000E+000	-4.63170E-005	-2.40040E-001	1.16094E-001	3.57600E+000	9	...........
	98	1.32	1.11432E-001	-3.99280E-004	0.00000E+000	-4.44925E-005	-2.40040E-001	1.11459E-001	3.57600E+000	9	...........
	99	1.33333	1.06807E-001	-3.98967E-004	0.00000E+000	-4.26126E-005	-2.40040E-001	1.06829E-001	3.57600E+000	9	...........
	100	1.34667	1.02223E-001	-3.99461E-004	0.00000E+000	-4.08339E-005	-2.40040E-001	1.02250E-001	3.57600E+000	9	...........
	101	1.36	9.77075E-002	-3.98671E-004	0.00000E+000	-3.89531E-005	-2.40040E-001	9.77207E-002	3.57600E+000	9	...........
	102	1.37333	9.30638E-002	-3.99244E-004	0.00000E+000	-3.71551E-005	-2.40040E-001	9.30859E-002	3.57600E+000	9	...........
	103	1.38667	8.85486E-002	-3.97983E-004	0.00000E+000	-3.52409E-005	-2.40040E-001	8.85693E-002	3.57600E+000	9	...........
	104	1.4	8.39825E-002	-3.98847E-004	0.00000E+000	-3.34962E-005	-2.40040E-001	8.40002E-002	3.57600E+000	9	...........
	105	1.41333	7.95649E-002	-3.99118E-004	0.00000E+000	-3.17558E-005	-2.40040E-001	7.95750E-002	3.57600E+000	9	...........
	106	1.42667	7.51427E-002	-3.99878E-004	0.00000E+000	-3.00479E-005	-2.40040E-001	7.51509E-002	3.57600E+000	9	...........
	107	1.44	7.07465E-002	-3.97396E-004	0.00000E+000	-2.81143E-005	-2.40040E-001	7.07583E-002	3.57600E+000	9	...........
	108	1.45333	6.64128E-002	-4.00012E-004	0.00000E+000	-2.65659E-005	-2.40040E-001	6.64257E-002	3.57600E+000	9	...........
	109	1.46667	6.20662E-002	-3.98733E-004	0.00000E+000	-2.47478E-005	-2.40040E-001	6.20755E-002	3.57600E+000	9	...........
	110	1.48	5.76264E-002	-3.99690E-004	0.00000E+000	-2.30327E-005	-2.40040E-001	5.76321E-002	3.57600E+000	9	...........
	111	1.49333	5.33487E-002	-3.98742E-004	0.00000E+000	-2.12723E-005	-2.40040E-001	5.33532E-002	3.57600E+000	9	...........
	112	1.50667	4.90289E-002	-3.99093E-004	0.00000E+000	-1.95671E-005	-2.40040E-001	4.90309E-002	3.57600E+000	9	...........
	113	1.52	4.47215E-002	-3.97919E-004	0.00000E+000	-1.77955E-005	-2.40040E-001	4.47296E-002	3.57600E+000	9	...........
	114	1.53333	4.04537E-002	-3.99247E-004	0.00000E+000	-1.61510E-005	-2.40040E-001	4.04635E-002	3.57600E+000	9	...........
	115	1.54667	3.61236E-002	-3.99789E-004	0.00000E+000	-1.44418E-005	-2.40040E-001	3.61304E-002	3.57600E+000	9	...........
	116	1.56	3.19117E-002	-3.98850E-004	0.00000E+000	-1.27280E-005	-2.40040E-001	3.19175E-002	3.57600E+000	9	...........
	117	1.57333	2.77684E-002	-3.99693E-004	0.00000E+000	-1.10988E-005	-2.40040E-001	2.77641E-002	3.57740E+000	9	...........
	118	1.58667	2.35197E-002	-3.98629E-004	0.00000E+000	-9.37564E-006	-2.40040E-001	2.35219E-002	3.57740E+000	9	...........
	119	1.6	1.93148E-002	-3.99140E-004	0.00000E+000	-7.70930E-006	-2.40040E-001	1.93121E-002	3.57740E+000	9	...........
	120	1.61333	1.51770E-002	-3.99397E-004	0.00000E+000	-6.06163E-006	-2.40040E-001	1.51655E-002	3.57740E+000	9	...........
	121	1.62667	1.10747E-002	-3.98633E-004	0.00000E+000	-4.41475E-006	-2.40040E-001	1.10608E-002	3.57740E+000	9	...........
	122	1.64	6.96663E-003	-3.99646E-004	0.00000E+000	-2.78419E-006	-2.40040E-001	6.95669E-003	3.57740E+000	9	...........
	123	1.65333	2.89563E-003	-3.99458E-004	0.00000E+000	-1.15668E-006	-2.40040E-001	2.87787E-003	3.57740E+000	9	...........
	124	1.65833	8.45254E-005	-3.98970E-004	0.00000E+000	-3.37231E-008	-2.40040E-001	6.95154E-005	3.57740E+000	9	...........
STARTTIMEOFFSET	QUANT	619.9767	Start Time Offset (s)
