EXPLAIN
TAG	PWR800_DISCHARGE
TITLE	LABEL	PWR Cyclic Charge Discharge (Cell) - Discharge Step	Test &Identifier
DATE	LABEL	12-7-2017	Date
TIME	LABEL	14:38:39	Time
NOTES	NOTES	3	&Notes...
	supercap test cell
	0.4mg
	6M KOH
PSTAT	PSTAT	IFC5000-01520	Potentiostat
CAPACITY	QUANT	1.00000E-003	Capacity (A-hr)
CELLTYPE	SELECTOR	1	&Cell Type
WORKINGCONNECTION	SELECTOR	0	&Working Lead
MAXDISCHARGETIME	VARIABLEANDUNITS	1.00000E+002	s	1.00000E+002	second(s)	Max &Discharge Time
DISCHARGEMODE	MULTIPARAM	0	4.00000E-004	&Discharge Mode	Constant Current	Amp(s)
SAMPLETIME	QUANT	1.00000E-002	Sa&mple Period (s)
DISCHARGESTOPAT1	MULTIPARAM	3	0.00000E+000	Discharge Stop At &1	Voltage < Limit	V
DISCHARGESTOPAT2	MULTIPARAM	0	0.00000E+000	Discharge Stop At &2	None	N/A
AESBHCSELECTOR	TOGGLE	F	Save Both Half Cells
IRCOMP	TOGGLE	F	IR &Measure
EOC	QUANT	0	Open Circuit (V)
SEQUENCER	TOGGLE	TRUE	Run as Sequence
PSTATMODEL	IQUANT	53	Pstat Model
PSTATSECTION	LABEL	IFC5000-01520	Pstat Section
PSTATSERIALNO	LABEL	01520	Pstat Serial Number
CTRLMODE	IQUANT	0	Control Mode
ELECTROMETER	IQUANT	1	RE=0 or CS=1
IESTAB	IQUANT	0	I/E Stability
CASPEED	IQUANT	4	Control Amp Speed
CONVENTION	IQUANT	1	Current Convention
ICHRANGE	IQUANT	2	Ich Range
ICHRANGEMODE	TOGGLE	T	Ich Auto Range
ICHOFFSETENABLE	TOGGLE	F	Ich Offset Enable
ICHOFFSET	QUANT	0	Ich Offset (V)
ICHFILTER	IQUANT	1	Ich Filter
VCHRANGE	IQUANT	2	Vch Range
VCHRANGEMODE	TOGGLE	T	Vch Auto Range
VCHOFFSETENABLE	TOGGLE	F	Vch Offset Enable
VCHOFFSET	QUANT	0	Vch Offset (V)
VCHFILTER	IQUANT	1	Vch Filter
IERANGELOWERLIMIT	IQUANT	9	I/E Range Lower Limit
IERANGEMODE	TOGGLE	F	I/E AutoRange
IERANGE	IQUANT	9	I/E Range
ACHSELECT	IQUANT	1	Ach Select
ACHRANGE	IQUANT	2	Ach Range
ACHOFFSETENABLE	TOGGLE	F	Ach Offset Enable
ACHOFFSET	QUANT	0	Ach Offset (V)
ACHFILTER	IQUANT	1	Ach Filter
CABLEID	IQUANT	14	Cable ID
DCCALDATE	LABEL	5-7-2017	DC Calibration Date
ACCALDATE	LABEL	12/3/2015	AC Calibration Date
FRAMEWORKVERSION	QUANT	7.01	Framework Version
INSTRUMENTVERSION	LABEL	4.00	Instrument Version
CURVE	TABLE	120
	Pt	T	Vf	Im	Vu	Pwr	Sig	Ach	Temp	IERange	Over
	#	s	V	A	V	W	V	V	deg C	#	bits
	0	0.013333	7.07798E-001	-3.98152E-004	0.00000E+000	-2.81811E-004	-2.40040E-001	7.08039E-001	3.57710E+000	9	...........
	1	0.026667	6.96014E-001	-3.98421E-004	0.00000E+000	-2.77306E-004	-2.40040E-001	6.96264E-001	3.57710E+000	9	...........
	2	0.04	6.85692E-001	-3.98846E-004	0.00000E+000	-2.73486E-004	-2.40040E-001	6.85924E-001	3.57710E+000	9	...........
	3	0.053333	6.76164E-001	-3.98051E-004	0.00000E+000	-2.69148E-004	-2.40040E-001	6.76387E-001	3.57710E+000	9	...........
	4	0.066667	6.67100E-001	-3.98495E-004	0.00000E+000	-2.65836E-004	-2.40040E-001	6.67319E-001	3.57710E+000	9	...........
	5	0.08	6.58399E-001	-3.99499E-004	0.00000E+000	-2.63030E-004	-2.40040E-001	6.58608E-001	3.57710E+000	9	...........
	6	0.093333	6.49935E-001	-4.00298E-004	0.00000E+000	-2.60168E-004	-2.40040E-001	6.50151E-001	3.57710E+000	9	...........
	7	0.106667	6.41726E-001	-3.99165E-004	0.00000E+000	-2.56154E-004	-2.40040E-001	6.41957E-001	3.57710E+000	9	...........
	8	0.12	6.33672E-001	-3.99757E-004	0.00000E+000	-2.53315E-004	-2.40040E-001	6.33894E-001	3.57710E+000	9	...........
	9	0.133333	6.25823E-001	-3.98532E-004	0.00000E+000	-2.49411E-004	-2.40040E-001	6.26042E-001	3.57710E+000	9	...........
	10	0.146667	6.17996E-001	-3.98578E-004	0.00000E+000	-2.46320E-004	-2.40040E-001	6.18193E-001	3.57710E+000	9	...........
	11	0.16	6.10244E-001	-3.97728E-004	0.00000E+000	-2.42711E-004	-2.40040E-001	6.10526E-001	3.57710E+000	9	...........
	12	0.173333	6.02612E-001	-3.98998E-004	0.00000E+000	-2.40441E-004	-2.40040E-001	6.02881E-001	3.57710E+000	9	...........
	13	0.186667	5.95134E-001	-3.99326E-004	0.00000E+000	-2.37653E-004	-2.40040E-001	5.95347E-001	3.57710E+000	9	...........
	14	0.2	5.87629E-001	-3.98895E-004	0.00000E+000	-2.34402E-004	-2.40040E-001	5.87843E-001	3.57710E+000	9	...........
	15	0.213333	5.80182E-001	-3.99105E-004	0.00000E+000	-2.31554E-004	-2.40040E-001	5.80406E-001	3.57710E+000	9	...........
	16	0.226667	5.72884E-001	-3.99114E-004	0.00000E+000	-2.28646E-004	-2.40040E-001	5.73106E-001	3.57710E+000	9	...........
	17	0.24	5.65582E-001	-3.98344E-004	0.00000E+000	-2.25296E-004	-2.40040E-001	5.65794E-001	3.57710E+000	9	...........
	18	0.253333	5.58245E-001	-3.98989E-004	0.00000E+000	-2.22733E-004	-2.40040E-001	5.58469E-001	3.57710E+000	9	...........
	19	0.266667	5.51016E-001	-3.98853E-004	0.00000E+000	-2.19775E-004	-2.40040E-001	5.51222E-001	3.57710E+000	9	...........
	20	0.28	5.43825E-001	-3.99004E-004	0.00000E+000	-2.16988E-004	-2.40040E-001	5.44055E-001	3.57710E+000	9	...........
	21	0.293333	5.36791E-001	-4.00277E-004	0.00000E+000	-2.14865E-004	-2.40040E-001	5.36994E-001	3.57710E+000	9	...........
	22	0.306667	5.29670E-001	-4.00136E-004	0.00000E+000	-2.11940E-004	-2.40040E-001	5.29849E-001	3.57710E+000	9	...........
	23	0.32	5.22602E-001	-3.99257E-004	0.00000E+000	-2.08653E-004	-2.40040E-001	5.22741E-001	3.57710E+000	9	...........
	24	0.333333	5.15611E-001	-3.97245E-004	0.00000E+000	-2.04824E-004	-2.40040E-001	5.15771E-001	3.57710E+000	9	...........
	25	0.346667	5.08617E-001	-3.98597E-004	0.00000E+000	-2.02733E-004	-2.40040E-001	5.08781E-001	3.57710E+000	9	...........
	26	0.36	5.01706E-001	-3.98943E-004	0.00000E+000	-2.00152E-004	-2.40040E-001	5.01869E-001	3.57710E+000	9	...........
	27	0.373333	4.94823E-001	-3.99088E-004	0.00000E+000	-1.97478E-004	-2.40040E-001	4.95009E-001	3.57710E+000	9	...........
	28	0.386667	4.87968E-001	-3.99102E-004	0.00000E+000	-1.94749E-004	-2.40040E-001	4.88163E-001	3.57710E+000	9	...........
	29	0.4	4.81404E-001	-3.98455E-004	0.00000E+000	-1.91818E-004	-2.40040E-001	4.81498E-001	3.57710E+000	9	...........
	30	0.413333	4.74622E-001	-3.98579E-004	0.00000E+000	-1.89174E-004	-2.40040E-001	4.74714E-001	3.57710E+000	9	...........
	31	0.426667	4.67843E-001	-3.99503E-004	0.00000E+000	-1.86905E-004	-2.40040E-001	4.67938E-001	3.57710E+000	9	...........
	32	0.44	4.61093E-001	-3.97904E-004	0.00000E+000	-1.83471E-004	-2.40040E-001	4.61180E-001	3.57710E+000	9	...........
	33	0.453333	4.54465E-001	-3.98458E-004	0.00000E+000	-1.81085E-004	-2.40040E-001	4.54550E-001	3.57710E+000	9	...........
	34	0.466667	4.47847E-001	-3.98837E-004	0.00000E+000	-1.78618E-004	-2.40040E-001	4.47936E-001	3.57710E+000	9	...........
	35	0.48	4.41250E-001	-4.00102E-004	0.00000E+000	-1.76545E-004	-2.40040E-001	4.41339E-001	3.57710E+000	9	...........
	36	0.493333	4.34680E-001	-3.98049E-004	0.00000E+000	-1.73024E-004	-2.40040E-001	4.34767E-001	3.57710E+000	9	...........
	37	0.506667	4.28125E-001	-3.98040E-004	0.00000E+000	-1.70411E-004	-2.40040E-001	4.28209E-001	3.57710E+000	9	...........
	38	0.52	4.21649E-001	-4.00178E-004	0.00000E+000	-1.68735E-004	-2.40040E-001	4.21737E-001	3.57710E+000	9	...........
	39	0.533333	4.15254E-001	-3.99162E-004	0.00000E+000	-1.65753E-004	-2.40040E-001	4.15335E-001	3.57710E+000	9	...........
	40	0.546667	4.08844E-001	-3.98973E-004	0.00000E+000	-1.63117E-004	-2.40040E-001	4.08920E-001	3.57710E+000	9	...........
	41	0.56	4.02395E-001	-3.99714E-004	0.00000E+000	-1.60843E-004	-2.40040E-001	4.02472E-001	3.57710E+000	9	...........
	42	0.573333	3.96007E-001	-3.99688E-004	0.00000E+000	-1.58279E-004	-2.40040E-001	3.96087E-001	3.57710E+000	9	...........
	43	0.586667	3.89795E-001	-3.98882E-004	0.00000E+000	-1.55482E-004	-2.40040E-001	3.89869E-001	3.57710E+000	9	...........
	44	0.6	3.83585E-001	-3.99270E-004	0.00000E+000	-1.53154E-004	-2.40040E-001	3.83657E-001	3.57710E+000	9	...........
	45	0.613333	3.77379E-001	-3.98779E-004	0.00000E+000	-1.50491E-004	-2.40040E-001	3.77453E-001	3.57710E+000	9	...........
	46	0.626667	3.71127E-001	-3.99842E-004	0.00000E+000	-1.48392E-004	-2.40040E-001	3.71198E-001	3.57710E+000	9	...........
	47	0.64	3.65032E-001	-3.98337E-004	0.00000E+000	-1.45406E-004	-2.40040E-001	3.65109E-001	3.57710E+000	9	...........
	48	0.653333	3.58925E-001	-3.97892E-004	0.00000E+000	-1.42814E-004	-2.40040E-001	3.58997E-001	3.57710E+000	9	...........
	49	0.666667	3.52766E-001	-3.97849E-004	0.00000E+000	-1.40347E-004	-2.40040E-001	3.52837E-001	3.57710E+000	9	...........
	50	0.68	3.46677E-001	-4.00024E-004	0.00000E+000	-1.38679E-004	-2.40040E-001	3.46743E-001	3.57710E+000	9	...........
	51	0.693333	3.40651E-001	-3.98466E-004	0.00000E+000	-1.35738E-004	-2.40040E-001	3.40716E-001	3.57710E+000	9	...........
	52	0.706667	3.34590E-001	-3.98480E-004	0.00000E+000	-1.33328E-004	-2.40040E-001	3.34660E-001	3.57710E+000	9	...........
	53	0.72	3.28663E-001	-3.97998E-004	0.00000E+000	-1.30807E-004	-2.40040E-001	3.28727E-001	3.57710E+000	9	...........
	54	0.733333	3.22725E-001	-3.98703E-004	0.00000E+000	-1.28672E-004	-2.40040E-001	3.22791E-001	3.57710E+000	9	...........
	55	0.746667	3.16892E-001	-3.98828E-004	0.00000E+000	-1.26385E-004	-2.40040E-001	3.16960E-001	3.57710E+000	9	...........
	56	0.76	3.11010E-001	-3.98337E-004	0.00000E+000	-1.23887E-004	-2.40040E-001	3.11071E-001	3.57710E+000	9	...........
	57	0.773333	3.05199E-001	-3.98144E-004	0.00000E+000	-1.21513E-004	-2.40040E-001	3.05260E-001	3.57720E+000	9	...........
	58	0.786667	2.99454E-001	-3.98845E-004	0.00000E+000	-1.19436E-004	-2.40040E-001	2.99511E-001	3.57750E+000	9	...........
	59	0.8	2.93654E-001	-3.98820E-004	0.00000E+000	-1.17115E-004	-2.40040E-001	2.93718E-001	3.57750E+000	9	...........
	60	0.813333	2.87912E-001	-3.99705E-004	0.00000E+000	-1.15080E-004	-2.40040E-001	2.87978E-001	3.57750E+000	9	...........
	61	0.826667	2.82237E-001	-3.98184E-004	0.00000E+000	-1.12382E-004	-2.40040E-001	2.82293E-001	3.57750E+000	9	...........
	62	0.84	2.76554E-001	-3.98218E-004	0.00000E+000	-1.10129E-004	-2.40040E-001	2.76611E-001	3.57750E+000	9	...........
	63	0.853333	2.70924E-001	-3.99739E-004	0.00000E+000	-1.08299E-004	-2.40040E-001	2.70981E-001	3.57750E+000	9	...........
	64	0.866667	2.65347E-001	-3.99222E-004	0.00000E+000	-1.05932E-004	-2.40040E-001	2.65399E-001	3.57750E+000	9	...........
	65	0.88	2.59745E-001	-3.97483E-004	0.00000E+000	-1.03244E-004	-2.40040E-001	2.59804E-001	3.57750E+000	9	...........
	66	0.893333	2.54180E-001	-3.98218E-004	0.00000E+000	-1.01219E-004	-2.40040E-001	2.54232E-001	3.57750E+000	9	...........
	67	0.906667	2.48671E-001	-3.98442E-004	0.00000E+000	-9.90808E-005	-2.40040E-001	2.48724E-001	3.57750E+000	9	...........
	68	0.92	2.43171E-001	-3.99239E-004	0.00000E+000	-9.70831E-005	-2.40040E-001	2.43222E-001	3.57750E+000	9	...........
	69	0.933333	2.37736E-001	-3.98086E-004	0.00000E+000	-9.46394E-005	-2.40040E-001	2.37782E-001	3.57750E+000	9	...........
	70	0.946667	2.32330E-001	-3.97811E-004	0.00000E+000	-9.24234E-005	-2.40040E-001	2.32376E-001	3.57750E+000	9	...........
	71	0.96	2.26974E-001	-3.98442E-004	0.00000E+000	-9.04358E-005	-2.40040E-001	2.27019E-001	3.57750E+000	9	...........
	72	0.97333	2.21642E-001	-3.98016E-004	0.00000E+000	-8.82173E-005	-2.40040E-001	2.21682E-001	3.57750E+000	9	...........
	73	0.98667	2.16307E-001	-3.99079E-004	0.00000E+000	-8.63237E-005	-2.40040E-001	2.16347E-001	3.57750E+000	9	...........
	74	1	2.11056E-001	-3.99130E-004	0.00000E+000	-8.42388E-005	-2.40040E-001	2.11101E-001	3.57750E+000	9	...........
	75	1.01333	2.05814E-001	-3.99078E-004	0.00000E+000	-8.21358E-005	-2.40040E-001	2.05855E-001	3.57750E+000	9	...........
	76	1.02667	2.00593E-001	-3.99325E-004	0.00000E+000	-8.01019E-005	-2.40040E-001	2.00633E-001	3.57750E+000	9	...........
	77	1.04	1.95447E-001	-3.98989E-004	0.00000E+000	-7.79810E-005	-2.40040E-001	1.95483E-001	3.57750E+000	9	...........
	78	1.05333	1.90249E-001	-3.99225E-004	0.00000E+000	-7.59523E-005	-2.40040E-001	1.90287E-001	3.57750E+000	9	...........
	79	1.06667	1.85106E-001	-3.98764E-004	0.00000E+000	-7.38137E-005	-2.40040E-001	1.85142E-001	3.57750E+000	9	...........
	80	1.08	1.79983E-001	-3.98221E-004	0.00000E+000	-7.16728E-005	-2.40040E-001	1.80019E-001	3.57750E+000	9	...........
	81	1.09333	1.74926E-001	-3.99446E-004	0.00000E+000	-6.98733E-005	-2.40040E-001	1.74961E-001	3.57750E+000	9	...........
	82	1.10667	1.69815E-001	-3.99671E-004	0.00000E+000	-6.78699E-005	-2.40040E-001	1.69850E-001	3.57750E+000	9	...........
	83	1.12	1.64755E-001	-3.98050E-004	0.00000E+000	-6.55808E-005	-2.40040E-001	1.64795E-001	3.57750E+000	9	...........
	84	1.13333	1.59670E-001	-3.99595E-004	0.00000E+000	-6.38033E-005	-2.40040E-001	1.59702E-001	3.57750E+000	9	...........
	85	1.14667	1.54638E-001	-3.98646E-004	0.00000E+000	-6.16458E-005	-2.40040E-001	1.54660E-001	3.57750E+000	9	...........
	86	1.16	1.49686E-001	-3.98513E-004	0.00000E+000	-5.96518E-005	-2.40040E-001	1.49713E-001	3.57750E+000	9	...........
	87	1.17333	1.44733E-001	-3.99417E-004	0.00000E+000	-5.78086E-005	-2.40040E-001	1.44752E-001	3.57750E+000	9	...........
	88	1.18667	1.39745E-001	-3.98013E-004	0.00000E+000	-5.56205E-005	-2.40040E-001	1.39775E-001	3.57750E+000	9	...........
	89	1.2	1.34856E-001	-3.98791E-004	0.00000E+000	-5.37792E-005	-2.40040E-001	1.34885E-001	3.57750E+000	9	...........
	90	1.21333	1.30016E-001	-3.97960E-004	0.00000E+000	-5.17414E-005	-2.40040E-001	1.30039E-001	3.57750E+000	9	...........
	91	1.22667	1.25196E-001	-3.99602E-004	0.00000E+000	-5.00286E-005	-2.40040E-001	1.25217E-001	3.57750E+000	9	...........
	92	1.24	1.20342E-001	-3.98768E-004	0.00000E+000	-4.79886E-005	-2.40040E-001	1.20370E-001	3.57750E+000	9	...........
	93	1.25333	1.15538E-001	-3.98276E-004	0.00000E+000	-4.60161E-005	-2.40040E-001	1.15571E-001	3.57750E+000	9	...........
	94	1.26667	1.10771E-001	-3.98432E-004	0.00000E+000	-4.41347E-005	-2.40040E-001	1.10793E-001	3.57750E+000	9	...........
	95	1.28	1.06042E-001	-3.98557E-004	0.00000E+000	-4.22636E-005	-2.40040E-001	1.06059E-001	3.57750E+000	9	...........
	96	1.29333	1.01360E-001	-3.98602E-004	0.00000E+000	-4.04025E-005	-2.40040E-001	1.01381E-001	3.57750E+000	9	...........
	97	1.30667	9.66336E-002	-3.98902E-004	0.00000E+000	-3.85473E-005	-2.40040E-001	9.66514E-002	3.57750E+000	9	...........
	98	1.32	9.19672E-002	-4.00180E-004	0.00000E+000	-3.68035E-005	-2.40040E-001	9.19864E-002	3.57750E+000	9	...........
	99	1.33333	8.72810E-002	-3.99109E-004	0.00000E+000	-3.48347E-005	-2.40040E-001	8.72990E-002	3.57750E+000	9	...........
	100	1.34667	8.26310E-002	-3.99851E-004	0.00000E+000	-3.30401E-005	-2.40040E-001	8.26436E-002	3.57750E+000	9	...........
	101	1.36	7.80214E-002	-3.99117E-004	0.00000E+000	-3.11396E-005	-2.40040E-001	7.80334E-002	3.57750E+000	9	...........
	102	1.37333	7.34129E-002	-3.99071E-004	0.00000E+000	-2.92970E-005	-2.40040E-001	7.34226E-002	3.57750E+000	9	...........
	103	1.38667	6.88536E-002	-3.98341E-004	0.00000E+000	-2.74272E-005	-2.40040E-001	6.88599E-002	3.57750E+000	9	...........
	104	1.4	6.43152E-002	-3.98803E-004	0.00000E+000	-2.56491E-005	-2.40040E-001	6.43258E-002	3.57750E+000	9	...........
	105	1.41333	5.97536E-002	-3.98770E-004	0.00000E+000	-2.38279E-005	-2.40040E-001	5.97622E-002	3.57750E+000	9	...........
	106	1.42667	5.53065E-002	-3.98851E-004	0.00000E+000	-2.20590E-005	-2.40040E-001	5.53121E-002	3.57750E+000	9	...........
	107	1.44	5.08357E-002	-3.99444E-004	0.00000E+000	-2.03060E-005	-2.40040E-001	5.08416E-002	3.57750E+000	9	...........
	108	1.45333	4.64785E-002	-3.98679E-004	0.00000E+000	-1.85300E-005	-2.40040E-001	4.64887E-002	3.57750E+000	9	...........
	109	1.46667	4.20339E-002	-3.98787E-004	0.00000E+000	-1.67626E-005	-2.40040E-001	4.20423E-002	3.57750E+000	9	...........
	110	1.48	3.75426E-002	-3.98375E-004	0.00000E+000	-1.49560E-005	-2.40040E-001	3.75465E-002	3.57750E+000	9	...........
	111	1.49333	3.32813E-002	-3.99165E-004	0.00000E+000	-1.32847E-005	-2.40040E-001	3.32846E-002	3.57750E+000	9	...........
	112	1.50667	2.89608E-002	-3.98423E-004	0.00000E+000	-1.15387E-005	-2.40040E-001	2.89622E-002	3.57750E+000	9	...........
	113	1.52	2.46480E-002	-3.98717E-004	0.00000E+000	-9.82756E-006	-2.40040E-001	2.46413E-002	3.57750E+000	9	...........
	114	1.53333	2.03548E-002	-3.98413E-004	0.00000E+000	-8.10964E-006	-2.40040E-001	2.03497E-002	3.57750E+000	9	...........
	115	1.54667	1.60063E-002	-3.99845E-004	0.00000E+000	-6.40006E-006	-2.40040E-001	1.59963E-002	3.57750E+000	9	...........
	116	1.56	1.16999E-002	-3.99583E-004	0.00000E+000	-4.67509E-006	-2.40040E-001	1.16854E-002	3.57750E+000	9	...........
	117	1.57333	7.49564E-003	-3.99153E-004	0.00000E+000	-2.99191E-006	-2.40040E-001	7.48079E-003	3.57750E+000	9	...........
	118	1.58667	3.27968E-003	-3.98793E-004	0.00000E+000	-1.30791E-006	-2.40040E-001	3.26450E-003	3.57750E+000	9	...........
	119	1.59167	4.78293E-004	-3.97428E-004	0.00000E+000	-1.90087E-007	-2.40040E-001	4.54771E-004	3.57750E+000	9	...........
STARTTIMEOFFSET	QUANT	963.89	Start Time Offset (s)
