EXPLAIN
TAG	PWR800_DISCHARGE
TITLE	LABEL	PWR Cyclic Charge Discharge (Cell) - Discharge Step	Test &Identifier
DATE	LABEL	12-7-2017	Date
TIME	LABEL	14:52:45	Time
NOTES	NOTES	3	&Notes...
	supercap test cell
	0.4mg
	6M KOH
PSTAT	PSTAT	IFC5000-01520	Potentiostat
CAPACITY	QUANT	1.00000E-003	Capacity (A-hr)
CELLTYPE	SELECTOR	1	&Cell Type
WORKINGCONNECTION	SELECTOR	0	&Working Lead
MAXDISCHARGETIME	VARIABLEANDUNITS	1.00000E+002	s	1.00000E+002	second(s)	Max &Discharge Time
DISCHARGEMODE	MULTIPARAM	0	4.00000E-004	&Discharge Mode	Constant Current	Amp(s)
SAMPLETIME	QUANT	1.00000E-002	Sa&mple Period (s)
DISCHARGESTOPAT1	MULTIPARAM	3	0.00000E+000	Discharge Stop At &1	Voltage < Limit	V
DISCHARGESTOPAT2	MULTIPARAM	0	0.00000E+000	Discharge Stop At &2	None	N/A
AESBHCSELECTOR	TOGGLE	F	Save Both Half Cells
IRCOMP	TOGGLE	F	IR &Measure
EOC	QUANT	0	Open Circuit (V)
SEQUENCER	TOGGLE	TRUE	Run as Sequence
PSTATMODEL	IQUANT	53	Pstat Model
PSTATSECTION	LABEL	IFC5000-01520	Pstat Section
PSTATSERIALNO	LABEL	01520	Pstat Serial Number
CTRLMODE	IQUANT	0	Control Mode
ELECTROMETER	IQUANT	1	RE=0 or CS=1
IESTAB	IQUANT	0	I/E Stability
CASPEED	IQUANT	4	Control Amp Speed
CONVENTION	IQUANT	1	Current Convention
ICHRANGE	IQUANT	2	Ich Range
ICHRANGEMODE	TOGGLE	T	Ich Auto Range
ICHOFFSETENABLE	TOGGLE	F	Ich Offset Enable
ICHOFFSET	QUANT	0	Ich Offset (V)
ICHFILTER	IQUANT	1	Ich Filter
VCHRANGE	IQUANT	2	Vch Range
VCHRANGEMODE	TOGGLE	T	Vch Auto Range
VCHOFFSETENABLE	TOGGLE	F	Vch Offset Enable
VCHOFFSET	QUANT	0	Vch Offset (V)
VCHFILTER	IQUANT	1	Vch Filter
IERANGELOWERLIMIT	IQUANT	9	I/E Range Lower Limit
IERANGEMODE	TOGGLE	F	I/E AutoRange
IERANGE	IQUANT	9	I/E Range
ACHSELECT	IQUANT	1	Ach Select
ACHRANGE	IQUANT	2	Ach Range
ACHOFFSETENABLE	TOGGLE	F	Ach Offset Enable
ACHOFFSET	QUANT	0	Ach Offset (V)
ACHFILTER	IQUANT	1	Ach Filter
CABLEID	IQUANT	14	Cable ID
DCCALDATE	LABEL	5-7-2017	DC Calibration Date
ACCALDATE	LABEL	12/3/2015	AC Calibration Date
FRAMEWORKVERSION	QUANT	7.01	Framework Version
INSTRUMENTVERSION	LABEL	4.00	Instrument Version
CURVE	TABLE	112
	Pt	T	Vf	Im	Vu	Pwr	Sig	Ach	Temp	IERange	Over
	#	s	V	A	V	W	V	V	deg C	#	bits
	0	0.013333	6.99801E-001	-3.97813E-004	0.00000E+000	-2.78390E-004	-2.40040E-001	7.00027E-001	3.57680E+000	9	...........
	1	0.026667	6.87257E-001	-3.99014E-004	0.00000E+000	-2.74225E-004	-2.40040E-001	6.87498E-001	3.57680E+000	9	...........
	2	0.04	6.76195E-001	-3.98361E-004	0.00000E+000	-2.69370E-004	-2.40040E-001	6.76414E-001	3.57680E+000	9	...........
	3	0.053333	6.66074E-001	-3.98469E-004	0.00000E+000	-2.65410E-004	-2.40040E-001	6.66333E-001	3.57680E+000	9	...........
	4	0.066667	6.56603E-001	-3.97755E-004	0.00000E+000	-2.61167E-004	-2.40040E-001	6.56823E-001	3.57680E+000	9	...........
	5	0.08	6.47444E-001	-3.99872E-004	0.00000E+000	-2.58895E-004	-2.40040E-001	6.47687E-001	3.57680E+000	9	...........
	6	0.093333	6.38567E-001	-3.99907E-004	0.00000E+000	-2.55368E-004	-2.40040E-001	6.38801E-001	3.57680E+000	9	...........
	7	0.106667	6.29954E-001	-3.98403E-004	0.00000E+000	-2.50976E-004	-2.40040E-001	6.30192E-001	3.57680E+000	9	...........
	8	0.12	6.21574E-001	-3.99476E-004	0.00000E+000	-2.48304E-004	-2.40040E-001	6.21767E-001	3.57680E+000	9	...........
	9	0.133333	6.13221E-001	-4.00283E-004	0.00000E+000	-2.45462E-004	-2.40040E-001	6.13453E-001	3.57635E+000	9	...........
	10	0.146667	6.05090E-001	-3.99376E-004	0.00000E+000	-2.41659E-004	-2.40040E-001	6.05330E-001	3.57620E+000	9	...........
	11	0.16	5.97065E-001	-3.97231E-004	0.00000E+000	-2.37172E-004	-2.40040E-001	5.97291E-001	3.57620E+000	9	...........
	12	0.173333	5.89069E-001	-3.99290E-004	0.00000E+000	-2.35209E-004	-2.40040E-001	5.89295E-001	3.57620E+000	9	...........
	13	0.186667	5.81126E-001	-3.99569E-004	0.00000E+000	-2.32200E-004	-2.40040E-001	5.81351E-001	3.57620E+000	9	...........
	14	0.2	5.73255E-001	-4.00297E-004	0.00000E+000	-2.29472E-004	-2.40040E-001	5.73457E-001	3.57620E+000	9	...........
	15	0.213333	5.65559E-001	-3.99847E-004	0.00000E+000	-2.26137E-004	-2.40040E-001	5.65796E-001	3.57620E+000	9	...........
	16	0.226667	5.57870E-001	-3.97642E-004	0.00000E+000	-2.21833E-004	-2.40040E-001	5.58131E-001	3.57620E+000	9	...........
	17	0.24	5.50192E-001	-3.98604E-004	0.00000E+000	-2.19309E-004	-2.40040E-001	5.50417E-001	3.57620E+000	9	...........
	18	0.253333	5.42577E-001	-3.98658E-004	0.00000E+000	-2.16303E-004	-2.40040E-001	5.42806E-001	3.57620E+000	9	...........
	19	0.266667	5.35103E-001	-3.98801E-004	0.00000E+000	-2.13400E-004	-2.40040E-001	5.35342E-001	3.57620E+000	9	...........
	20	0.28	5.27585E-001	-3.99374E-004	0.00000E+000	-2.10704E-004	-2.40040E-001	5.27821E-001	3.57620E+000	9	...........
	21	0.293333	5.20085E-001	-3.99520E-004	0.00000E+000	-2.07784E-004	-2.40040E-001	5.20284E-001	3.57620E+000	9	...........
	22	0.306667	5.12672E-001	-3.98314E-004	0.00000E+000	-2.04205E-004	-2.40040E-001	5.12879E-001	3.57620E+000	9	...........
	23	0.32	5.05254E-001	-3.98232E-004	0.00000E+000	-2.01209E-004	-2.40040E-001	5.05520E-001	3.57620E+000	9	...........
	24	0.333333	4.97987E-001	-3.99382E-004	0.00000E+000	-1.98887E-004	-2.40040E-001	4.98206E-001	3.57620E+000	9	...........
	25	0.346667	4.90833E-001	-3.98848E-004	0.00000E+000	-1.95768E-004	-2.40040E-001	4.91046E-001	3.57620E+000	9	...........
	26	0.36	4.83773E-001	-3.98427E-004	0.00000E+000	-1.92748E-004	-2.40040E-001	4.83910E-001	3.57620E+000	9	...........
	27	0.373333	4.76573E-001	-3.99515E-004	0.00000E+000	-1.90398E-004	-2.40040E-001	4.76674E-001	3.57620E+000	9	...........
	28	0.386667	4.69464E-001	-3.98641E-004	0.00000E+000	-1.87147E-004	-2.40040E-001	4.69563E-001	3.57620E+000	9	...........
	29	0.4	4.62272E-001	-3.98481E-004	0.00000E+000	-1.84207E-004	-2.40040E-001	4.62366E-001	3.57620E+000	9	...........
	30	0.413333	4.55192E-001	-3.97162E-004	0.00000E+000	-1.80785E-004	-2.40040E-001	4.55287E-001	3.57620E+000	9	...........
	31	0.426667	4.48214E-001	-3.98803E-004	0.00000E+000	-1.78749E-004	-2.40040E-001	4.48306E-001	3.57620E+000	9	...........
	32	0.44	4.41222E-001	-3.98977E-004	0.00000E+000	-1.76037E-004	-2.40040E-001	4.41309E-001	3.57620E+000	9	...........
	33	0.453333	4.34277E-001	-3.98145E-004	0.00000E+000	-1.72905E-004	-2.40040E-001	4.34364E-001	3.57620E+000	9	...........
	34	0.466667	4.27383E-001	-3.98768E-004	0.00000E+000	-1.70427E-004	-2.40040E-001	4.27472E-001	3.57620E+000	9	...........
	35	0.48	4.20486E-001	-3.99707E-004	0.00000E+000	-1.68071E-004	-2.40040E-001	4.20572E-001	3.57620E+000	9	...........
	36	0.493333	4.13603E-001	-3.99414E-004	0.00000E+000	-1.65199E-004	-2.40040E-001	4.13686E-001	3.57620E+000	9	...........
	37	0.506667	4.06906E-001	-3.98050E-004	0.00000E+000	-1.61969E-004	-2.40040E-001	4.06981E-001	3.57620E+000	9	...........
	38	0.52	4.00124E-001	-4.00436E-004	0.00000E+000	-1.60224E-004	-2.40040E-001	4.00201E-001	3.57620E+000	9	...........
	39	0.533333	3.93383E-001	-3.98734E-004	0.00000E+000	-1.56855E-004	-2.40040E-001	3.93455E-001	3.57620E+000	9	...........
	40	0.546667	3.86770E-001	-4.00043E-004	0.00000E+000	-1.54725E-004	-2.40040E-001	3.86836E-001	3.57620E+000	9	...........
	41	0.56	3.80131E-001	-4.01072E-004	0.00000E+000	-1.52460E-004	-2.40040E-001	3.80199E-001	3.57620E+000	9	...........
	42	0.573333	3.73512E-001	-3.99127E-004	0.00000E+000	-1.49079E-004	-2.40040E-001	3.73582E-001	3.57620E+000	9	...........
	43	0.586667	3.66937E-001	-3.99732E-004	0.00000E+000	-1.46677E-004	-2.40040E-001	3.67004E-001	3.57620E+000	9	...........
	44	0.6	3.60394E-001	-3.99265E-004	0.00000E+000	-1.43892E-004	-2.40040E-001	3.60462E-001	3.57620E+000	9	...........
	45	0.613333	3.53984E-001	-3.97983E-004	0.00000E+000	-1.40880E-004	-2.40040E-001	3.54058E-001	3.57620E+000	9	...........
	46	0.626667	3.47665E-001	-3.99794E-004	0.00000E+000	-1.38994E-004	-2.40040E-001	3.47735E-001	3.57620E+000	9	...........
	47	0.64	3.41230E-001	-3.98698E-004	0.00000E+000	-1.36048E-004	-2.40040E-001	3.41297E-001	3.57620E+000	9	...........
	48	0.653333	3.34842E-001	-3.97132E-004	0.00000E+000	-1.32976E-004	-2.40040E-001	3.34910E-001	3.57620E+000	9	...........
	49	0.666667	3.28534E-001	-3.98543E-004	0.00000E+000	-1.30935E-004	-2.40040E-001	3.28599E-001	3.57620E+000	9	...........
	50	0.68	3.22232E-001	-3.98929E-004	0.00000E+000	-1.28548E-004	-2.40040E-001	3.22294E-001	3.57620E+000	9	...........
	51	0.693333	3.15953E-001	-3.99055E-004	0.00000E+000	-1.26083E-004	-2.40040E-001	3.16015E-001	3.57620E+000	9	...........
	52	0.706667	3.09789E-001	-3.98793E-004	0.00000E+000	-1.23542E-004	-2.40040E-001	3.09847E-001	3.57620E+000	9	...........
	53	0.72	3.03625E-001	-3.99202E-004	0.00000E+000	-1.21208E-004	-2.40040E-001	3.03684E-001	3.57620E+000	9	...........
	54	0.733333	2.97383E-001	-3.98917E-004	0.00000E+000	-1.18631E-004	-2.40040E-001	2.97439E-001	3.57620E+000	9	...........
	55	0.746667	2.91270E-001	-3.99130E-004	0.00000E+000	-1.16255E-004	-2.40040E-001	2.91326E-001	3.57620E+000	9	...........
	56	0.76	2.85154E-001	-3.98688E-004	0.00000E+000	-1.13688E-004	-2.40040E-001	2.85215E-001	3.57620E+000	9	...........
	57	0.773333	2.79121E-001	-3.97993E-004	0.00000E+000	-1.11088E-004	-2.40040E-001	2.79174E-001	3.57620E+000	9	...........
	58	0.786667	2.73130E-001	-3.99457E-004	0.00000E+000	-1.09104E-004	-2.40040E-001	2.73180E-001	3.57620E+000	9	...........
	59	0.8	2.67205E-001	-4.00055E-004	0.00000E+000	-1.06897E-004	-2.40040E-001	2.67259E-001	3.57620E+000	9	...........
	60	0.813333	2.61333E-001	-3.98172E-004	0.00000E+000	-1.04055E-004	-2.40040E-001	2.61386E-001	3.57620E+000	9	...........
	61	0.826667	2.55470E-001	-3.99792E-004	0.00000E+000	-1.02135E-004	-2.40040E-001	2.55520E-001	3.57620E+000	9	...........
	62	0.84	2.49612E-001	-3.98895E-004	0.00000E+000	-9.95688E-005	-2.40040E-001	2.49661E-001	3.57620E+000	9	...........
	63	0.853333	2.43763E-001	-3.99160E-004	0.00000E+000	-9.73005E-005	-2.40040E-001	2.43804E-001	3.57620E+000	9	...........
	64	0.866667	2.37954E-001	-3.99149E-004	0.00000E+000	-9.49789E-005	-2.40040E-001	2.37994E-001	3.57620E+000	9	...........
	65	0.88	2.32178E-001	-3.97875E-004	0.00000E+000	-9.23779E-005	-2.40040E-001	2.32218E-001	3.57620E+000	9	...........
	66	0.893333	2.26448E-001	-3.98801E-004	0.00000E+000	-9.03079E-005	-2.40040E-001	2.26487E-001	3.57620E+000	9	...........
	67	0.906667	2.20811E-001	-3.99279E-004	0.00000E+000	-8.81653E-005	-2.40040E-001	2.20848E-001	3.57620E+000	9	...........
	68	0.92	2.15152E-001	-3.99125E-004	0.00000E+000	-8.58726E-005	-2.40040E-001	2.15191E-001	3.57620E+000	9	...........
	69	0.933333	2.09519E-001	-3.99008E-004	0.00000E+000	-8.35997E-005	-2.40040E-001	2.09560E-001	3.57620E+000	9	...........
	70	0.946667	2.03864E-001	-3.98685E-004	0.00000E+000	-8.12778E-005	-2.40040E-001	2.03902E-001	3.57620E+000	9	...........
	71	0.96	1.98328E-001	-3.99656E-004	0.00000E+000	-7.92630E-005	-2.40040E-001	1.98370E-001	3.57620E+000	9	...........
	72	0.97333	1.92855E-001	-3.99953E-004	0.00000E+000	-7.71330E-005	-2.40040E-001	1.92897E-001	3.57620E+000	9	...........
	73	0.98667	1.87422E-001	-3.97298E-004	0.00000E+000	-7.44623E-005	-2.40040E-001	1.87456E-001	3.57620E+000	9	...........
	74	1	1.82062E-001	-3.98315E-004	0.00000E+000	-7.25181E-005	-2.40040E-001	1.82095E-001	3.57620E+000	9	...........
	75	1.01333	1.76654E-001	-3.98619E-004	0.00000E+000	-7.04176E-005	-2.40040E-001	1.76687E-001	3.57620E+000	9	...........
	76	1.02667	1.71264E-001	-3.98842E-004	0.00000E+000	-6.83073E-005	-2.40040E-001	1.71291E-001	3.57620E+000	9	...........
	77	1.04	1.65911E-001	-3.99518E-004	0.00000E+000	-6.62842E-005	-2.40040E-001	1.65941E-001	3.57620E+000	9	...........
	78	1.05333	1.60626E-001	-3.98351E-004	0.00000E+000	-6.39856E-005	-2.40040E-001	1.60646E-001	3.57620E+000	9	...........
	79	1.06667	1.55308E-001	-3.98244E-004	0.00000E+000	-6.18503E-005	-2.40040E-001	1.55331E-001	3.57620E+000	9	...........
	80	1.08	1.50046E-001	-3.98517E-004	0.00000E+000	-5.97957E-005	-2.40040E-001	1.50071E-001	3.57620E+000	9	...........
	81	1.09333	1.44826E-001	-4.00440E-004	0.00000E+000	-5.79943E-005	-2.40040E-001	1.44843E-001	3.57620E+000	9	...........
	82	1.10667	1.39561E-001	-3.98477E-004	0.00000E+000	-5.56120E-005	-2.40040E-001	1.39586E-001	3.57620E+000	9	...........
	83	1.12	1.34410E-001	-3.99375E-004	0.00000E+000	-5.36799E-005	-2.40040E-001	1.34428E-001	3.57620E+000	9	...........
	84	1.13333	1.29237E-001	-3.99218E-004	0.00000E+000	-5.15937E-005	-2.40040E-001	1.29260E-001	3.57627E+000	9	...........
	85	1.14667	1.24176E-001	-3.99227E-004	0.00000E+000	-4.95746E-005	-2.40040E-001	1.24196E-001	3.57630E+000	9	...........
	86	1.16	1.19075E-001	-4.00640E-004	0.00000E+000	-4.77060E-005	-2.40040E-001	1.19096E-001	3.57630E+000	9	...........
	87	1.17333	1.14037E-001	-3.99065E-004	0.00000E+000	-4.55083E-005	-2.40040E-001	1.14056E-001	3.57630E+000	9	...........
	88	1.18667	1.09046E-001	-3.99308E-004	0.00000E+000	-4.35428E-005	-2.40040E-001	1.09070E-001	3.57630E+000	9	...........
	89	1.2	1.04071E-001	-3.98271E-004	0.00000E+000	-4.14485E-005	-2.40040E-001	1.04091E-001	3.57630E+000	9	...........
	90	1.21333	9.91438E-002	-3.97885E-004	0.00000E+000	-3.94478E-005	-2.40040E-001	9.91568E-002	3.57630E+000	9	...........
	91	1.22667	9.42921E-002	-3.99238E-004	0.00000E+000	-3.76450E-005	-2.40040E-001	9.43042E-002	3.57630E+000	9	...........
	92	1.24	8.94140E-002	-3.99282E-004	0.00000E+000	-3.57014E-005	-2.40040E-001	8.94295E-002	3.57630E+000	9	...........
	93	1.25333	8.45110E-002	-3.99362E-004	0.00000E+000	-3.37505E-005	-2.40040E-001	8.45254E-002	3.57630E+000	9	...........
	94	1.26667	7.96734E-002	-3.98262E-004	0.00000E+000	-3.17309E-005	-2.40040E-001	7.96870E-002	3.57630E+000	9	...........
	95	1.28	7.48524E-002	-3.99354E-004	0.00000E+000	-2.98926E-005	-2.40040E-001	7.48608E-002	3.57630E+000	9	...........
	96	1.29333	7.00425E-002	-3.98914E-004	0.00000E+000	-2.79409E-005	-2.40040E-001	7.00580E-002	3.57630E+000	9	...........
	97	1.30667	6.52706E-002	-3.98854E-004	0.00000E+000	-2.60334E-005	-2.40040E-001	6.52777E-002	3.57630E+000	9	...........
	98	1.32	6.05091E-002	-4.00309E-004	0.00000E+000	-2.42223E-005	-2.40040E-001	6.05180E-002	3.57630E+000	9	...........
	99	1.33333	5.59025E-002	-3.98883E-004	0.00000E+000	-2.22986E-005	-2.40040E-001	5.59044E-002	3.57630E+000	9	...........
	100	1.34667	5.12676E-002	-4.00551E-004	0.00000E+000	-2.05353E-005	-2.40040E-001	5.12712E-002	3.57630E+000	9	...........
	101	1.36	4.66238E-002	-3.98111E-004	0.00000E+000	-1.85615E-005	-2.40040E-001	4.66287E-002	3.57630E+000	9	...........
	102	1.37333	4.20218E-002	-3.99145E-004	0.00000E+000	-1.67728E-005	-2.40040E-001	4.20286E-002	3.57630E+000	9	...........
	103	1.38667	3.75248E-002	-3.98385E-004	0.00000E+000	-1.49493E-005	-2.40040E-001	3.75245E-002	3.57630E+000	9	...........
	104	1.4	3.29849E-002	-3.96285E-004	0.00000E+000	-1.30714E-005	-2.40040E-001	3.29899E-002	3.57630E+000	9	...........
	105	1.41333	2.85458E-002	-3.99150E-004	0.00000E+000	-1.13941E-005	-2.40040E-001	2.85459E-002	3.57630E+000	9	...........
	106	1.42667	2.40985E-002	-3.98527E-004	0.00000E+000	-9.60390E-006	-2.40040E-001	2.40966E-002	3.57630E+000	9	...........
	107	1.44	1.95742E-002	-3.98648E-004	0.00000E+000	-7.80321E-006	-2.40040E-001	1.95713E-002	3.57630E+000	9	...........
	108	1.45333	1.50677E-002	-3.98311E-004	0.00000E+000	-6.00162E-006	-2.40040E-001	1.50565E-002	3.57630E+000	9	...........
	109	1.46667	1.06389E-002	-3.98776E-004	0.00000E+000	-4.24255E-006	-2.40040E-001	1.06316E-002	3.57630E+000	9	...........
	110	1.48	6.17317E-003	-3.99834E-004	0.00000E+000	-2.46824E-006	-2.40040E-001	6.16113E-003	3.57630E+000	9	...........
	111	1.49333	1.75895E-003	-3.98706E-004	0.00000E+000	-7.01306E-007	-2.40040E-001	1.74511E-003	3.57630E+000	9	...........
STARTTIMEOFFSET	QUANT	1631.779	Start Time Offset (s)
