EXPLAIN
TAG	PWR800_DISCHARGE
TITLE	LABEL	PWR Cyclic Charge Discharge (Cell) - Discharge Step	Test &Identifier
DATE	LABEL	12-7-2017	Date
TIME	LABEL	14:22:11	Time
NOTES	NOTES	3	&Notes...
	supercap test cell
	0.4mg
	6M KOH
PSTAT	PSTAT	IFC5000-01520	Potentiostat
CAPACITY	QUANT	1.00000E-003	Capacity (A-hr)
CELLTYPE	SELECTOR	1	&Cell Type
WORKINGCONNECTION	SELECTOR	0	&Working Lead
MAXDISCHARGETIME	VARIABLEANDUNITS	1.00000E+002	s	1.00000E+002	second(s)	Max &Discharge Time
DISCHARGEMODE	MULTIPARAM	0	4.00000E-004	&Discharge Mode	Constant Current	Amp(s)
SAMPLETIME	QUANT	1.00000E-002	Sa&mple Period (s)
DISCHARGESTOPAT1	MULTIPARAM	3	0.00000E+000	Discharge Stop At &1	Voltage < Limit	V
DISCHARGESTOPAT2	MULTIPARAM	0	0.00000E+000	Discharge Stop At &2	None	N/A
AESBHCSELECTOR	TOGGLE	F	Save Both Half Cells
IRCOMP	TOGGLE	F	IR &Measure
EOC	QUANT	0	Open Circuit (V)
SEQUENCER	TOGGLE	TRUE	Run as Sequence
PSTATMODEL	IQUANT	53	Pstat Model
PSTATSECTION	LABEL	IFC5000-01520	Pstat Section
PSTATSERIALNO	LABEL	01520	Pstat Serial Number
CTRLMODE	IQUANT	0	Control Mode
ELECTROMETER	IQUANT	1	RE=0 or CS=1
IESTAB	IQUANT	0	I/E Stability
CASPEED	IQUANT	4	Control Amp Speed
CONVENTION	IQUANT	1	Current Convention
ICHRANGE	IQUANT	2	Ich Range
ICHRANGEMODE	TOGGLE	T	Ich Auto Range
ICHOFFSETENABLE	TOGGLE	F	Ich Offset Enable
ICHOFFSET	QUANT	0	Ich Offset (V)
ICHFILTER	IQUANT	1	Ich Filter
VCHRANGE	IQUANT	2	Vch Range
VCHRANGEMODE	TOGGLE	T	Vch Auto Range
VCHOFFSETENABLE	TOGGLE	F	Vch Offset Enable
VCHOFFSET	QUANT	0	Vch Offset (V)
VCHFILTER	IQUANT	1	Vch Filter
IERANGELOWERLIMIT	IQUANT	9	I/E Range Lower Limit
IERANGEMODE	TOGGLE	F	I/E AutoRange
IERANGE	IQUANT	9	I/E Range
ACHSELECT	IQUANT	1	Ach Select
ACHRANGE	IQUANT	2	Ach Range
ACHOFFSETENABLE	TOGGLE	F	Ach Offset Enable
ACHOFFSET	QUANT	0	Ach Offset (V)
ACHFILTER	IQUANT	1	Ach Filter
CABLEID	IQUANT	14	Cable ID
DCCALDATE	LABEL	5-7-2017	DC Calibration Date
ACCALDATE	LABEL	12/3/2015	AC Calibration Date
FRAMEWORKVERSION	QUANT	7.01	Framework Version
INSTRUMENTVERSION	LABEL	4.00	Instrument Version
CURVE	TABLE	136
	Pt	T	Vf	Im	Vu	Pwr	Sig	Ach	Temp	IERange	Over
	#	s	V	A	V	W	V	V	deg C	#	bits
	0	0.013333	7.19976E-001	-3.98690E-004	0.00000E+000	-2.87047E-004	-2.40040E-001	7.20199E-001	3.57590E+000	9	...........
	1	0.026667	7.09321E-001	-3.99403E-004	0.00000E+000	-2.83305E-004	-2.40040E-001	7.09570E-001	3.57590E+000	9	...........
	2	0.04	6.99950E-001	-3.98775E-004	0.00000E+000	-2.79123E-004	-2.40040E-001	7.00193E-001	3.57590E+000	9	...........
	3	0.053333	6.91297E-001	-3.99527E-004	0.00000E+000	-2.76192E-004	-2.40040E-001	6.91525E-001	3.57590E+000	9	...........
	4	0.066667	6.83101E-001	-3.98843E-004	0.00000E+000	-2.72450E-004	-2.40040E-001	6.83315E-001	3.57590E+000	9	...........
	5	0.08	6.75192E-001	-3.99537E-004	0.00000E+000	-2.69764E-004	-2.40040E-001	6.75412E-001	3.57590E+000	9	...........
	6	0.093333	6.67497E-001	-3.98294E-004	0.00000E+000	-2.65860E-004	-2.40040E-001	6.67709E-001	3.57590E+000	9	...........
	7	0.106667	6.60032E-001	-3.99653E-004	0.00000E+000	-2.63784E-004	-2.40040E-001	6.60259E-001	3.57590E+000	9	...........
	8	0.12	6.52735E-001	-3.98304E-004	0.00000E+000	-2.59987E-004	-2.40040E-001	6.52962E-001	3.57590E+000	9	...........
	9	0.133333	6.45578E-001	-3.97218E-004	0.00000E+000	-2.56435E-004	-2.40040E-001	6.45797E-001	3.57590E+000	9	...........
	10	0.146667	6.38492E-001	-3.99232E-004	0.00000E+000	-2.54907E-004	-2.40040E-001	6.38711E-001	3.57590E+000	9	...........
	11	0.16	6.31521E-001	-3.97193E-004	0.00000E+000	-2.50836E-004	-2.40040E-001	6.31736E-001	3.57590E+000	9	...........
	12	0.173333	6.24677E-001	-3.99970E-004	0.00000E+000	-2.49852E-004	-2.40040E-001	6.24856E-001	3.57590E+000	9	...........
	13	0.186667	6.17974E-001	-3.98757E-004	0.00000E+000	-2.46421E-004	-2.40040E-001	6.18119E-001	3.57590E+000	9	...........
	14	0.2	6.11209E-001	-3.98684E-004	0.00000E+000	-2.43679E-004	-2.40040E-001	6.11430E-001	3.57590E+000	9	...........
	15	0.213333	6.04475E-001	-3.98861E-004	0.00000E+000	-2.41102E-004	-2.40040E-001	6.04693E-001	3.57590E+000	9	...........
	16	0.226667	5.97786E-001	-3.98934E-004	0.00000E+000	-2.38477E-004	-2.40040E-001	5.97995E-001	3.57590E+000	9	...........
	17	0.24	5.91161E-001	-3.97914E-004	0.00000E+000	-2.35232E-004	-2.40040E-001	5.91358E-001	3.57590E+000	9	...........
	18	0.253333	5.84594E-001	-3.97585E-004	0.00000E+000	-2.32426E-004	-2.40040E-001	5.84782E-001	3.57590E+000	9	...........
	19	0.266667	5.78039E-001	-3.99408E-004	0.00000E+000	-2.30874E-004	-2.40040E-001	5.78247E-001	3.57590E+000	9	...........
	20	0.28	5.71678E-001	-3.98894E-004	0.00000E+000	-2.28039E-004	-2.40040E-001	5.71833E-001	3.57590E+000	9	...........
	21	0.293333	5.65259E-001	-3.98914E-004	0.00000E+000	-2.25490E-004	-2.40040E-001	5.65446E-001	3.57590E+000	9	...........
	22	0.306667	5.58917E-001	-3.99741E-004	0.00000E+000	-2.23422E-004	-2.40040E-001	5.59135E-001	3.57590E+000	9	...........
	23	0.32	5.52596E-001	-3.98185E-004	0.00000E+000	-2.20035E-004	-2.40040E-001	5.52815E-001	3.57590E+000	9	...........
	24	0.333333	5.46258E-001	-3.97711E-004	0.00000E+000	-2.17253E-004	-2.40040E-001	5.46466E-001	3.57590E+000	9	...........
	25	0.346667	5.40054E-001	-3.99602E-004	0.00000E+000	-2.15807E-004	-2.40040E-001	5.40280E-001	3.57590E+000	9	...........
	26	0.36	5.33739E-001	-3.99623E-004	0.00000E+000	-2.13294E-004	-2.40040E-001	5.33940E-001	3.57590E+000	9	...........
	27	0.373333	5.27549E-001	-3.98010E-004	0.00000E+000	-2.09970E-004	-2.40040E-001	5.27739E-001	3.57590E+000	9	...........
	28	0.386667	5.21240E-001	-3.99701E-004	0.00000E+000	-2.08340E-004	-2.40040E-001	5.21429E-001	3.57590E+000	9	...........
	29	0.4	5.15184E-001	-3.99114E-004	0.00000E+000	-2.05617E-004	-2.40040E-001	5.15380E-001	3.57590E+000	9	...........
	30	0.413333	5.09030E-001	-3.98379E-004	0.00000E+000	-2.02787E-004	-2.40040E-001	5.09254E-001	3.57590E+000	9	...........
	31	0.426667	5.02884E-001	-3.98305E-004	0.00000E+000	-2.00301E-004	-2.40040E-001	5.03116E-001	3.57590E+000	9	...........
	32	0.44	4.96868E-001	-3.98467E-004	0.00000E+000	-1.97985E-004	-2.40040E-001	4.97068E-001	3.57590E+000	9	...........
	33	0.453333	4.90850E-001	-3.97506E-004	0.00000E+000	-1.95116E-004	-2.40040E-001	4.91050E-001	3.57590E+000	9	...........
	34	0.466667	4.85049E-001	-3.98506E-004	0.00000E+000	-1.93295E-004	-2.40040E-001	4.85174E-001	3.57590E+000	9	...........
	35	0.48	4.79173E-001	-3.99381E-004	0.00000E+000	-1.91373E-004	-2.40040E-001	4.79270E-001	3.57590E+000	9	...........
	36	0.493333	4.73243E-001	-3.99587E-004	0.00000E+000	-1.89101E-004	-2.40040E-001	4.73336E-001	3.57590E+000	9	...........
	37	0.506667	4.67346E-001	-3.98033E-004	0.00000E+000	-1.86019E-004	-2.40040E-001	4.67437E-001	3.57590E+000	9	...........
	38	0.52	4.61464E-001	-3.99619E-004	0.00000E+000	-1.84410E-004	-2.40040E-001	4.61559E-001	3.57590E+000	9	...........
	39	0.533333	4.55654E-001	-3.99538E-004	0.00000E+000	-1.82051E-004	-2.40040E-001	4.55748E-001	3.57590E+000	9	...........
	40	0.546667	4.49822E-001	-3.98783E-004	0.00000E+000	-1.79381E-004	-2.40040E-001	4.49913E-001	3.57590E+000	9	...........
	41	0.56	4.44036E-001	-3.98753E-004	0.00000E+000	-1.77061E-004	-2.40040E-001	4.44130E-001	3.57590E+000	9	...........
	42	0.573333	4.38222E-001	-3.99633E-004	0.00000E+000	-1.75128E-004	-2.40040E-001	4.38310E-001	3.57590E+000	9	...........
	43	0.586667	4.32464E-001	-3.99938E-004	0.00000E+000	-1.72959E-004	-2.40040E-001	4.32548E-001	3.57590E+000	9	...........
	44	0.6	4.26710E-001	-3.99586E-004	0.00000E+000	-1.70507E-004	-2.40040E-001	4.26798E-001	3.57590E+000	9	...........
	45	0.613333	4.20981E-001	-3.98004E-004	0.00000E+000	-1.67552E-004	-2.40040E-001	4.21066E-001	3.57590E+000	9	...........
	46	0.626667	4.15364E-001	-3.99175E-004	0.00000E+000	-1.65803E-004	-2.40040E-001	4.15449E-001	3.57590E+000	9	...........
	47	0.64	4.09758E-001	-3.98187E-004	0.00000E+000	-1.63161E-004	-2.40040E-001	4.09841E-001	3.57590E+000	9	...........
	48	0.653333	4.04130E-001	-3.98471E-004	0.00000E+000	-1.61034E-004	-2.40040E-001	4.04211E-001	3.57590E+000	9	...........
	49	0.666667	3.98487E-001	-3.98087E-004	0.00000E+000	-1.58633E-004	-2.40040E-001	3.98564E-001	3.57590E+000	9	...........
	50	0.68	3.92908E-001	-4.00447E-004	0.00000E+000	-1.57339E-004	-2.40040E-001	3.92980E-001	3.57590E+000	9	...........
	51	0.693333	3.87359E-001	-3.99926E-004	0.00000E+000	-1.54915E-004	-2.40040E-001	3.87438E-001	3.57590E+000	9	...........
	52	0.706667	3.81804E-001	-3.98311E-004	0.00000E+000	-1.52077E-004	-2.40040E-001	3.81883E-001	3.57590E+000	9	...........
	53	0.72	3.76331E-001	-3.99063E-004	0.00000E+000	-1.50180E-004	-2.40040E-001	3.76405E-001	3.57590E+000	9	...........
	54	0.733333	3.70839E-001	-3.98147E-004	0.00000E+000	-1.47648E-004	-2.40040E-001	3.70909E-001	3.57590E+000	9	...........
	55	0.746667	3.65312E-001	-3.99721E-004	0.00000E+000	-1.46023E-004	-2.40040E-001	3.65382E-001	3.57590E+000	9	...........
	56	0.76	3.59905E-001	-3.98914E-004	0.00000E+000	-1.43571E-004	-2.40040E-001	3.59975E-001	3.57590E+000	9	...........
	57	0.773333	3.54503E-001	-3.98361E-004	0.00000E+000	-1.41220E-004	-2.40040E-001	3.54575E-001	3.57590E+000	9	...........
	58	0.786667	3.49097E-001	-3.99036E-004	0.00000E+000	-1.39302E-004	-2.40040E-001	3.49164E-001	3.57590E+000	9	...........
	59	0.8	3.43772E-001	-3.97352E-004	0.00000E+000	-1.36598E-004	-2.40040E-001	3.43847E-001	3.57590E+000	9	...........
	60	0.813333	3.38377E-001	-4.00087E-004	0.00000E+000	-1.35380E-004	-2.40040E-001	3.38449E-001	3.57590E+000	9	...........
	61	0.826667	3.33084E-001	-3.98532E-004	0.00000E+000	-1.32745E-004	-2.40040E-001	3.33144E-001	3.57590E+000	9	...........
	62	0.84	3.27813E-001	-4.00480E-004	0.00000E+000	-1.31282E-004	-2.40040E-001	3.27873E-001	3.57590E+000	9	...........
	63	0.853333	3.22604E-001	-3.98978E-004	0.00000E+000	-1.28712E-004	-2.40040E-001	3.22665E-001	3.57590E+000	9	...........
	64	0.866667	3.17274E-001	-3.98818E-004	0.00000E+000	-1.26534E-004	-2.40040E-001	3.17331E-001	3.57590E+000	9	...........
	65	0.88	3.11989E-001	-3.99179E-004	0.00000E+000	-1.24539E-004	-2.40040E-001	3.12051E-001	3.57590E+000	9	...........
	66	0.893333	3.06816E-001	-3.97528E-004	0.00000E+000	-1.21968E-004	-2.40040E-001	3.06884E-001	3.57590E+000	9	...........
	67	0.906667	3.01660E-001	-3.99218E-004	0.00000E+000	-1.20428E-004	-2.40040E-001	3.01716E-001	3.57590E+000	9	...........
	68	0.92	2.96619E-001	-3.98622E-004	0.00000E+000	-1.18239E-004	-2.40040E-001	2.96677E-001	3.57590E+000	9	...........
	69	0.933333	2.91499E-001	-3.99088E-004	0.00000E+000	-1.16333E-004	-2.40040E-001	2.91555E-001	3.57590E+000	9	...........
	70	0.946667	2.86394E-001	-3.98644E-004	0.00000E+000	-1.14169E-004	-2.40040E-001	2.86456E-001	3.57590E+000	9	...........
	71	0.96	2.81352E-001	-3.98260E-004	0.00000E+000	-1.12051E-004	-2.40040E-001	2.81410E-001	3.57590E+000	9	...........
	72	0.97333	2.76243E-001	-3.98995E-004	0.00000E+000	-1.10220E-004	-2.40040E-001	2.76303E-001	3.57590E+000	9	...........
	73	0.98667	2.71248E-001	-3.99068E-004	0.00000E+000	-1.08246E-004	-2.40040E-001	2.71302E-001	3.57590E+000	9	...........
	74	1	2.66262E-001	-3.98822E-004	0.00000E+000	-1.06191E-004	-2.40040E-001	2.66317E-001	3.57590E+000	9	...........
	75	1.01333	2.61274E-001	-3.99846E-004	0.00000E+000	-1.04469E-004	-2.40040E-001	2.61328E-001	3.57590E+000	9	...........
	76	1.02667	2.56299E-001	-3.97702E-004	0.00000E+000	-1.01931E-004	-2.40040E-001	2.56347E-001	3.57590E+000	9	...........
	77	1.04	2.51404E-001	-4.00226E-004	0.00000E+000	-1.00618E-004	-2.40040E-001	2.51453E-001	3.57590E+000	9	...........
	78	1.05333	2.46493E-001	-3.98448E-004	0.00000E+000	-9.82148E-005	-2.40040E-001	2.46538E-001	3.57590E+000	9	...........
	79	1.06667	2.41578E-001	-3.99246E-004	0.00000E+000	-9.64490E-005	-2.40040E-001	2.41618E-001	3.57590E+000	9	...........
	80	1.08	2.36773E-001	-3.99337E-004	0.00000E+000	-9.45521E-005	-2.40040E-001	2.36816E-001	3.57590E+000	9	...........
	81	1.09333	2.32024E-001	-3.99108E-004	0.00000E+000	-9.26027E-005	-2.40040E-001	2.32069E-001	3.57590E+000	9	...........
	82	1.10667	2.27252E-001	-3.99389E-004	0.00000E+000	-9.07619E-005	-2.40040E-001	2.27297E-001	3.57590E+000	9	...........
	83	1.12	2.22474E-001	-3.98782E-004	0.00000E+000	-8.87185E-005	-2.40040E-001	2.22515E-001	3.57590E+000	9	...........
	84	1.13333	2.17629E-001	-3.99292E-004	0.00000E+000	-8.68973E-005	-2.40040E-001	2.17663E-001	3.57590E+000	9	...........
	85	1.14667	2.12812E-001	-3.98220E-004	0.00000E+000	-8.47459E-005	-2.40040E-001	2.12846E-001	3.57590E+000	9	...........
	86	1.16	2.08110E-001	-3.99516E-004	0.00000E+000	-8.31432E-005	-2.40040E-001	2.08148E-001	3.57590E+000	9	...........
	87	1.17333	2.03346E-001	-3.98313E-004	0.00000E+000	-8.09954E-005	-2.40040E-001	2.03379E-001	3.57590E+000	9	...........
	88	1.18667	1.98551E-001	-3.99347E-004	0.00000E+000	-7.92908E-005	-2.40040E-001	1.98586E-001	3.57590E+000	9	...........
	89	1.2	1.93859E-001	-3.98346E-004	0.00000E+000	-7.72228E-005	-2.40040E-001	1.93890E-001	3.57590E+000	9	...........
	90	1.21333	1.89183E-001	-3.99840E-004	0.00000E+000	-7.56429E-005	-2.40040E-001	1.89215E-001	3.57590E+000	9	...........
	91	1.22667	1.84610E-001	-3.98709E-004	0.00000E+000	-7.36059E-005	-2.40040E-001	1.84645E-001	3.57590E+000	9	...........
	92	1.24	1.80074E-001	-3.98144E-004	0.00000E+000	-7.16954E-005	-2.40040E-001	1.80107E-001	3.57590E+000	9	...........
	93	1.25333	1.75502E-001	-3.98760E-004	0.00000E+000	-6.99833E-005	-2.40040E-001	1.75533E-001	3.57590E+000	9	...........
	94	1.26667	1.70788E-001	-3.99724E-004	0.00000E+000	-6.82681E-005	-2.40040E-001	1.70820E-001	3.57590E+000	9	...........
	95	1.28	1.66172E-001	-3.99108E-004	0.00000E+000	-6.63205E-005	-2.40040E-001	1.66203E-001	3.57590E+000	9	...........
	96	1.29333	1.61639E-001	-3.99542E-004	0.00000E+000	-6.45816E-005	-2.40040E-001	1.61666E-001	3.57590E+000	9	...........
	97	1.30667	1.57156E-001	-3.98533E-004	0.00000E+000	-6.26319E-005	-2.40040E-001	1.57185E-001	3.57590E+000	9	...........
	98	1.32	1.52717E-001	-3.98781E-004	0.00000E+000	-6.09006E-005	-2.40040E-001	1.52743E-001	3.57590E+000	9	...........
	99	1.33333	1.48273E-001	-3.97963E-004	0.00000E+000	-5.90071E-005	-2.40040E-001	1.48299E-001	3.57590E+000	9	...........
	100	1.34667	1.43943E-001	-3.98249E-004	0.00000E+000	-5.73250E-005	-2.40040E-001	1.43962E-001	3.57590E+000	9	...........
	101	1.36	1.39445E-001	-3.99097E-004	0.00000E+000	-5.56521E-005	-2.40040E-001	1.39470E-001	3.57590E+000	9	...........
	102	1.37333	1.34996E-001	-3.97969E-004	0.00000E+000	-5.37242E-005	-2.40040E-001	1.35021E-001	3.57590E+000	9	...........
	103	1.38667	1.30565E-001	-3.99730E-004	0.00000E+000	-5.21907E-005	-2.40040E-001	1.30590E-001	3.57590E+000	9	...........
	104	1.4	1.26143E-001	-3.97762E-004	0.00000E+000	-5.01749E-005	-2.40040E-001	1.26170E-001	3.57590E+000	9	...........
	105	1.41333	1.21771E-001	-3.99862E-004	0.00000E+000	-4.86914E-005	-2.40040E-001	1.21796E-001	3.57590E+000	9	...........
	106	1.42667	1.17477E-001	-3.99711E-004	0.00000E+000	-4.69566E-005	-2.40040E-001	1.17503E-001	3.57590E+000	9	...........
	107	1.44	1.13067E-001	-3.98630E-004	0.00000E+000	-4.50719E-005	-2.40040E-001	1.13086E-001	3.57590E+000	9	...........
	108	1.45333	1.08816E-001	-3.99777E-004	0.00000E+000	-4.35020E-005	-2.40040E-001	1.08838E-001	3.57590E+000	9	...........
	109	1.46667	1.04463E-001	-3.99929E-004	0.00000E+000	-4.17778E-005	-2.40040E-001	1.04486E-001	3.57590E+000	9	...........
	110	1.48	1.00143E-001	-3.98310E-004	0.00000E+000	-3.98878E-005	-2.40040E-001	1.00168E-001	3.57590E+000	9	...........
	111	1.49333	9.58477E-002	-4.00569E-004	0.00000E+000	-3.83936E-005	-2.40040E-001	9.58658E-002	3.57590E+000	9	...........
	112	1.50667	9.15883E-002	-3.98127E-004	0.00000E+000	-3.64638E-005	-2.40040E-001	9.16115E-002	3.57590E+000	9	...........
	113	1.52	8.73561E-002	-3.99523E-004	0.00000E+000	-3.49008E-005	-2.40040E-001	8.73748E-002	3.57590E+000	9	...........
	114	1.53333	8.31814E-002	-3.98018E-004	0.00000E+000	-3.31076E-005	-2.40040E-001	8.31971E-002	3.57590E+000	9	...........
	115	1.54667	7.89493E-002	-3.99187E-004	0.00000E+000	-3.15155E-005	-2.40040E-001	7.89611E-002	3.57590E+000	9	...........
	116	1.56	7.46905E-002	-3.98561E-004	0.00000E+000	-2.97688E-005	-2.40040E-001	7.47042E-002	3.57590E+000	9	...........
	117	1.57333	7.05570E-002	-3.99316E-004	0.00000E+000	-2.81745E-005	-2.40040E-001	7.05638E-002	3.57590E+000	9	...........
	118	1.58667	6.64233E-002	-3.98804E-004	0.00000E+000	-2.64899E-005	-2.40040E-001	6.64302E-002	3.57590E+000	9	...........
	119	1.6	6.22908E-002	-3.98711E-004	0.00000E+000	-2.48361E-005	-2.40040E-001	6.23032E-002	3.57590E+000	9	...........
	120	1.61333	5.81239E-002	-3.97756E-004	0.00000E+000	-2.31191E-005	-2.40040E-001	5.81346E-002	3.57590E+000	9	...........
	121	1.62667	5.40230E-002	-4.00119E-004	0.00000E+000	-2.16156E-005	-2.40040E-001	5.40358E-002	3.57590E+000	9	...........
	122	1.64	4.99916E-002	-3.98401E-004	0.00000E+000	-1.99167E-005	-2.40040E-001	4.99940E-002	3.57590E+000	9	...........
	123	1.65333	4.59787E-002	-3.99008E-004	0.00000E+000	-1.83459E-005	-2.40040E-001	4.59865E-002	3.57590E+000	9	...........
	124	1.66667	4.19872E-002	-3.98430E-004	0.00000E+000	-1.67289E-005	-2.40040E-001	4.19916E-002	3.57590E+000	9	...........
	125	1.68	3.79217E-002	-3.98956E-004	0.00000E+000	-1.51291E-005	-2.40040E-001	3.79254E-002	3.57590E+000	9	...........
	126	1.69333	3.39023E-002	-3.98766E-004	0.00000E+000	-1.35191E-005	-2.40040E-001	3.39038E-002	3.57590E+000	9	...........
	127	1.70667	2.99238E-002	-3.99312E-004	0.00000E+000	-1.19489E-005	-2.40040E-001	2.99263E-002	3.57590E+000	9	...........
	128	1.72	2.58706E-002	-3.98357E-004	0.00000E+000	-1.03057E-005	-2.40040E-001	2.58699E-002	3.57590E+000	9	...........
	129	1.73333	2.18699E-002	-3.99634E-004	0.00000E+000	-8.73993E-006	-2.40040E-001	2.18651E-002	3.57590E+000	9	...........
	130	1.74667	1.79008E-002	-3.99050E-004	0.00000E+000	-7.14331E-006	-2.40040E-001	1.78931E-002	3.57590E+000	9	...........
	131	1.76	1.39459E-002	-3.98359E-004	0.00000E+000	-5.55548E-006	-2.40040E-001	1.39383E-002	3.57590E+000	9	...........
	132	1.77333	1.00502E-002	-3.99747E-004	0.00000E+000	-4.01753E-006	-2.40040E-001	1.00347E-002	3.57590E+000	9	...........
	133	1.78667	6.10736E-003	-3.98053E-004	0.00000E+000	-2.43105E-006	-2.40040E-001	6.09317E-003	3.57590E+000	9	...........
	134	1.8	2.23749E-003	-3.99144E-004	0.00000E+000	-8.93082E-007	-2.40040E-001	2.22471E-003	3.57590E+000	9	...........
	135	1.80333	-1.32280E-004	-3.97248E-004	0.00000E+000	5.25480E-008	-2.40040E-001	-1.52361E-004	3.57590E+000	9	...........
STARTTIMEOFFSET	QUANT	171.26	Start Time Offset (s)
