EXPLAIN
TAG	PWR800_DISCHARGE
TITLE	LABEL	PWR Cyclic Charge Discharge (Cell) - Discharge Step	Test &Identifier
DATE	LABEL	12-7-2017	Date
TIME	LABEL	15:09:58	Time
NOTES	NOTES	3	&Notes...
	supercap test cell
	0.4mg
	6M KOH
PSTAT	PSTAT	IFC5000-01520	Potentiostat
CAPACITY	QUANT	1.00000E-003	Capacity (A-hr)
CELLTYPE	SELECTOR	1	&Cell Type
WORKINGCONNECTION	SELECTOR	0	&Working Lead
MAXDISCHARGETIME	VARIABLEANDUNITS	1.00000E+002	s	1.00000E+002	second(s)	Max &Discharge Time
DISCHARGEMODE	MULTIPARAM	0	4.00000E-004	&Discharge Mode	Constant Current	Amp(s)
SAMPLETIME	QUANT	1.00000E-002	Sa&mple Period (s)
DISCHARGESTOPAT1	MULTIPARAM	3	0.00000E+000	Discharge Stop At &1	Voltage < Limit	V
DISCHARGESTOPAT2	MULTIPARAM	0	0.00000E+000	Discharge Stop At &2	None	N/A
AESBHCSELECTOR	TOGGLE	F	Save Both Half Cells
IRCOMP	TOGGLE	F	IR &Measure
EOC	QUANT	0	Open Circuit (V)
SEQUENCER	TOGGLE	TRUE	Run as Sequence
PSTATMODEL	IQUANT	53	Pstat Model
PSTATSECTION	LABEL	IFC5000-01520	Pstat Section
PSTATSERIALNO	LABEL	01520	Pstat Serial Number
CTRLMODE	IQUANT	0	Control Mode
ELECTROMETER	IQUANT	1	RE=0 or CS=1
IESTAB	IQUANT	0	I/E Stability
CASPEED	IQUANT	4	Control Amp Speed
CONVENTION	IQUANT	1	Current Convention
ICHRANGE	IQUANT	2	Ich Range
ICHRANGEMODE	TOGGLE	T	Ich Auto Range
ICHOFFSETENABLE	TOGGLE	F	Ich Offset Enable
ICHOFFSET	QUANT	0	Ich Offset (V)
ICHFILTER	IQUANT	1	Ich Filter
VCHRANGE	IQUANT	2	Vch Range
VCHRANGEMODE	TOGGLE	T	Vch Auto Range
VCHOFFSETENABLE	TOGGLE	F	Vch Offset Enable
VCHOFFSET	QUANT	0	Vch Offset (V)
VCHFILTER	IQUANT	1	Vch Filter
IERANGELOWERLIMIT	IQUANT	9	I/E Range Lower Limit
IERANGEMODE	TOGGLE	F	I/E AutoRange
IERANGE	IQUANT	9	I/E Range
ACHSELECT	IQUANT	1	Ach Select
ACHRANGE	IQUANT	2	Ach Range
ACHOFFSETENABLE	TOGGLE	F	Ach Offset Enable
ACHOFFSET	QUANT	0	Ach Offset (V)
ACHFILTER	IQUANT	1	Ach Filter
CABLEID	IQUANT	14	Cable ID
DCCALDATE	LABEL	5-7-2017	DC Calibration Date
ACCALDATE	LABEL	12/3/2015	AC Calibration Date
FRAMEWORKVERSION	QUANT	7.01	Framework Version
INSTRUMENTVERSION	LABEL	4.00	Instrument Version
CURVE	TABLE	106
	Pt	T	Vf	Im	Vu	Pwr	Sig	Ach	Temp	IERange	Over
	#	s	V	A	V	W	V	V	deg C	#	bits
	0	0.013333	6.89296E-001	-3.98106E-004	0.00000E+000	-2.74413E-004	-2.40040E-001	6.89527E-001	3.57620E+000	9	...........
	1	0.026667	6.76018E-001	-3.98218E-004	0.00000E+000	-2.69202E-004	-2.40040E-001	6.76254E-001	3.57620E+000	9	...........
	2	0.04	6.64397E-001	-3.99015E-004	0.00000E+000	-2.65104E-004	-2.40040E-001	6.64659E-001	3.57620E+000	9	...........
	3	0.053333	6.53747E-001	-3.97585E-004	0.00000E+000	-2.59920E-004	-2.40040E-001	6.53987E-001	3.57620E+000	9	...........
	4	0.066667	6.43722E-001	-3.98018E-004	0.00000E+000	-2.56213E-004	-2.40040E-001	6.43971E-001	3.57620E+000	9	...........
	5	0.08	6.34156E-001	-3.99350E-004	0.00000E+000	-2.53250E-004	-2.40040E-001	6.34392E-001	3.57620E+000	9	...........
	6	0.093333	6.25049E-001	-3.98666E-004	0.00000E+000	-2.49185E-004	-2.40040E-001	6.25247E-001	3.57620E+000	9	...........
	7	0.106667	6.16060E-001	-3.98841E-004	0.00000E+000	-2.45710E-004	-2.40040E-001	6.16296E-001	3.57620E+000	9	...........
	8	0.12	6.07218E-001	-3.99103E-004	0.00000E+000	-2.42343E-004	-2.40040E-001	6.07475E-001	3.57620E+000	9	...........
	9	0.133333	5.98590E-001	-3.97578E-004	0.00000E+000	-2.37986E-004	-2.40040E-001	5.98821E-001	3.57620E+000	9	...........
	10	0.146667	5.90082E-001	-3.99202E-004	0.00000E+000	-2.35562E-004	-2.40040E-001	5.90328E-001	3.57620E+000	9	...........
	11	0.16	5.81706E-001	-3.98681E-004	0.00000E+000	-2.31915E-004	-2.40040E-001	5.81947E-001	3.57620E+000	9	...........
	12	0.173333	5.73455E-001	-3.98746E-004	0.00000E+000	-2.28663E-004	-2.40040E-001	5.73677E-001	3.57620E+000	9	...........
	13	0.186667	5.65233E-001	-3.98226E-004	0.00000E+000	-2.25090E-004	-2.40040E-001	5.65466E-001	3.57620E+000	9	...........
	14	0.2	5.57077E-001	-3.99126E-004	0.00000E+000	-2.22344E-004	-2.40040E-001	5.57317E-001	3.57620E+000	9	...........
	15	0.213333	5.49042E-001	-3.99793E-004	0.00000E+000	-2.19503E-004	-2.40040E-001	5.49240E-001	3.57620E+000	9	...........
	16	0.226667	5.41085E-001	-3.98445E-004	0.00000E+000	-2.15593E-004	-2.40040E-001	5.41294E-001	3.57620E+000	9	...........
	17	0.24	5.33091E-001	-3.99549E-004	0.00000E+000	-2.12996E-004	-2.40040E-001	5.33304E-001	3.57620E+000	9	...........
	18	0.253333	5.25219E-001	-3.98259E-004	0.00000E+000	-2.09173E-004	-2.40040E-001	5.25425E-001	3.57620E+000	9	...........
	19	0.266667	5.17478E-001	-3.98951E-004	0.00000E+000	-2.06448E-004	-2.40040E-001	5.17671E-001	3.57620E+000	9	...........
	20	0.28	5.09681E-001	-3.99060E-004	0.00000E+000	-2.03394E-004	-2.40040E-001	5.09879E-001	3.57620E+000	9	...........
	21	0.293333	5.01902E-001	-3.98051E-004	0.00000E+000	-1.99783E-004	-2.40040E-001	5.02114E-001	3.57620E+000	9	...........
	22	0.306667	4.94170E-001	-3.97229E-004	0.00000E+000	-1.96299E-004	-2.40040E-001	4.94388E-001	3.57620E+000	9	...........
	23	0.32	4.86636E-001	-3.99033E-004	0.00000E+000	-1.94184E-004	-2.40040E-001	4.86789E-001	3.57620E+000	9	...........
	24	0.333333	4.79248E-001	-3.99403E-004	0.00000E+000	-1.91413E-004	-2.40040E-001	4.79352E-001	3.57620E+000	9	...........
	25	0.346667	4.71687E-001	-3.97892E-004	0.00000E+000	-1.87681E-004	-2.40040E-001	4.71789E-001	3.57620E+000	9	...........
	26	0.36	4.64136E-001	-3.99042E-004	0.00000E+000	-1.85209E-004	-2.40040E-001	4.64227E-001	3.57620E+000	9	...........
	27	0.373333	4.56629E-001	-3.98582E-004	0.00000E+000	-1.82004E-004	-2.40040E-001	4.56720E-001	3.57620E+000	9	...........
	28	0.386667	4.49213E-001	-3.98846E-004	0.00000E+000	-1.79167E-004	-2.40040E-001	4.49307E-001	3.57620E+000	9	...........
	29	0.4	4.41834E-001	-3.97528E-004	0.00000E+000	-1.75642E-004	-2.40040E-001	4.41920E-001	3.57620E+000	9	...........
	30	0.413333	4.34539E-001	-4.00121E-004	0.00000E+000	-1.73868E-004	-2.40040E-001	4.34619E-001	3.57620E+000	9	...........
	31	0.426667	4.27278E-001	-3.98471E-004	0.00000E+000	-1.70258E-004	-2.40040E-001	4.27365E-001	3.57620E+000	9	...........
	32	0.44	4.20036E-001	-3.98619E-004	0.00000E+000	-1.67434E-004	-2.40040E-001	4.20123E-001	3.57620E+000	9	...........
	33	0.453333	4.12765E-001	-4.00092E-004	0.00000E+000	-1.65144E-004	-2.40040E-001	4.12846E-001	3.57620E+000	9	...........
	34	0.466667	4.05556E-001	-3.98824E-004	0.00000E+000	-1.61745E-004	-2.40040E-001	4.05629E-001	3.57620E+000	9	...........
	35	0.48	3.98425E-001	-3.97646E-004	0.00000E+000	-1.58432E-004	-2.40040E-001	3.98497E-001	3.57620E+000	9	...........
	36	0.493333	3.91352E-001	-3.97691E-004	0.00000E+000	-1.55637E-004	-2.40040E-001	3.91426E-001	3.57620E+000	9	...........
	37	0.506667	3.84339E-001	-3.97865E-004	0.00000E+000	-1.52915E-004	-2.40040E-001	3.84410E-001	3.57620E+000	9	...........
	38	0.52	3.77376E-001	-3.99020E-004	0.00000E+000	-1.50580E-004	-2.40040E-001	3.77443E-001	3.57620E+000	9	...........
	39	0.533333	3.70395E-001	-3.98093E-004	0.00000E+000	-1.47452E-004	-2.40040E-001	3.70463E-001	3.57620E+000	9	...........
	40	0.546667	3.63495E-001	-3.98389E-004	0.00000E+000	-1.44813E-004	-2.40040E-001	3.63562E-001	3.57620E+000	9	...........
	41	0.56	3.56628E-001	-3.99380E-004	0.00000E+000	-1.42430E-004	-2.40040E-001	3.56687E-001	3.57620E+000	9	...........
	42	0.573333	3.49752E-001	-4.00299E-004	0.00000E+000	-1.40006E-004	-2.40040E-001	3.49817E-001	3.57620E+000	9	...........
	43	0.586667	3.42929E-001	-3.97961E-004	0.00000E+000	-1.36472E-004	-2.40040E-001	3.42992E-001	3.57620E+000	9	...........
	44	0.6	3.36210E-001	-3.99058E-004	0.00000E+000	-1.34167E-004	-2.40040E-001	3.36272E-001	3.57620E+000	9	...........
	45	0.613333	3.29537E-001	-3.97747E-004	0.00000E+000	-1.31072E-004	-2.40040E-001	3.29597E-001	3.57620E+000	9	...........
	46	0.626667	3.22798E-001	-3.99365E-004	0.00000E+000	-1.28914E-004	-2.40040E-001	3.22859E-001	3.57620E+000	9	...........
	47	0.64	3.16170E-001	-3.98684E-004	0.00000E+000	-1.26052E-004	-2.40040E-001	3.16229E-001	3.57620E+000	9	...........
	48	0.653333	3.09508E-001	-3.98225E-004	0.00000E+000	-1.23254E-004	-2.40040E-001	3.09571E-001	3.57620E+000	9	...........
	49	0.666667	3.02979E-001	-3.99627E-004	0.00000E+000	-1.21079E-004	-2.40040E-001	3.03039E-001	3.57620E+000	9	...........
	50	0.68	2.96421E-001	-3.98612E-004	0.00000E+000	-1.18157E-004	-2.40040E-001	2.96475E-001	3.57620E+000	9	...........
	51	0.693333	2.89945E-001	-3.98078E-004	0.00000E+000	-1.15421E-004	-2.40040E-001	2.90000E-001	3.57620E+000	9	...........
	52	0.706667	2.83580E-001	-3.99390E-004	0.00000E+000	-1.13259E-004	-2.40040E-001	2.83630E-001	3.57620E+000	9	...........
	53	0.72	2.77174E-001	-3.99022E-004	0.00000E+000	-1.10598E-004	-2.40040E-001	2.77227E-001	3.57620E+000	9	...........
	54	0.733333	2.70828E-001	-3.98164E-004	0.00000E+000	-1.07834E-004	-2.40040E-001	2.70880E-001	3.57620E+000	9	...........
	55	0.746667	2.64565E-001	-3.97804E-004	0.00000E+000	-1.05245E-004	-2.40040E-001	2.64622E-001	3.57620E+000	9	...........
	56	0.76	2.58329E-001	-3.98312E-004	0.00000E+000	-1.02896E-004	-2.40040E-001	2.58384E-001	3.57620E+000	9	...........
	57	0.773333	2.52157E-001	-3.98795E-004	0.00000E+000	-1.00559E-004	-2.40040E-001	2.52207E-001	3.57620E+000	9	...........
	58	0.786667	2.46014E-001	-3.97891E-004	0.00000E+000	-9.78870E-005	-2.40040E-001	2.46062E-001	3.57620E+000	9	...........
	59	0.8	2.39846E-001	-3.98415E-004	0.00000E+000	-9.55583E-005	-2.40040E-001	2.39890E-001	3.57620E+000	9	...........
	60	0.813333	2.33701E-001	-3.98552E-004	0.00000E+000	-9.31419E-005	-2.40040E-001	2.33745E-001	3.57620E+000	9	...........
	61	0.826667	2.27610E-001	-3.98262E-004	0.00000E+000	-9.06484E-005	-2.40040E-001	2.27652E-001	3.57770E+000	9	...........
	62	0.84	2.21654E-001	-3.99393E-004	0.00000E+000	-8.85270E-005	-2.40040E-001	2.21694E-001	3.57770E+000	9	...........
	63	0.853333	2.15706E-001	-4.00111E-004	0.00000E+000	-8.63064E-005	-2.40040E-001	2.15742E-001	3.57770E+000	9	...........
	64	0.866667	2.09796E-001	-3.99993E-004	0.00000E+000	-8.39171E-005	-2.40040E-001	2.09838E-001	3.57770E+000	9	...........
	65	0.88	2.03925E-001	-3.98517E-004	0.00000E+000	-8.12673E-005	-2.40040E-001	2.03958E-001	3.57770E+000	9	...........
	66	0.893333	1.98085E-001	-3.99537E-004	0.00000E+000	-7.91421E-005	-2.40040E-001	1.98118E-001	3.57770E+000	9	...........
	67	0.906667	1.92331E-001	-3.99184E-004	0.00000E+000	-7.67754E-005	-2.40040E-001	1.92367E-001	3.57770E+000	9	...........
	68	0.92	1.86512E-001	-3.98856E-004	0.00000E+000	-7.43913E-005	-2.40040E-001	1.86550E-001	3.57770E+000	9	...........
	69	0.933333	1.80735E-001	-3.99175E-004	0.00000E+000	-7.21451E-005	-2.40040E-001	1.80772E-001	3.57770E+000	9	...........
	70	0.946667	1.75054E-001	-3.98946E-004	0.00000E+000	-6.98372E-005	-2.40040E-001	1.75085E-001	3.57770E+000	9	...........
	71	0.96	1.69459E-001	-3.98606E-004	0.00000E+000	-6.75473E-005	-2.40040E-001	1.69486E-001	3.57770E+000	9	...........
	72	0.97333	1.63916E-001	-3.98499E-004	0.00000E+000	-6.53203E-005	-2.40040E-001	1.63943E-001	3.57770E+000	9	...........
	73	0.98667	1.58345E-001	-3.98549E-004	0.00000E+000	-6.31081E-005	-2.40040E-001	1.58370E-001	3.57770E+000	9	...........
	74	1	1.52848E-001	-3.98408E-004	0.00000E+000	-6.08961E-005	-2.40040E-001	1.52868E-001	3.57770E+000	9	...........
	75	1.01333	1.47439E-001	-3.99295E-004	0.00000E+000	-5.88718E-005	-2.40040E-001	1.47461E-001	3.57770E+000	9	...........
	76	1.02667	1.42020E-001	-3.99128E-004	0.00000E+000	-5.66844E-005	-2.40040E-001	1.42044E-001	3.57770E+000	9	...........
	77	1.04	1.36628E-001	-3.98398E-004	0.00000E+000	-5.44324E-005	-2.40040E-001	1.36654E-001	3.57770E+000	9	...........
	78	1.05333	1.31210E-001	-3.97751E-004	0.00000E+000	-5.21889E-005	-2.40040E-001	1.31225E-001	3.57770E+000	9	...........
	79	1.06667	1.25868E-001	-3.99133E-004	0.00000E+000	-5.02382E-005	-2.40040E-001	1.25888E-001	3.57770E+000	9	...........
	80	1.08	1.20544E-001	-3.99348E-004	0.00000E+000	-4.81389E-005	-2.40040E-001	1.20568E-001	3.57770E+000	9	...........
	81	1.09333	1.15298E-001	-3.98798E-004	0.00000E+000	-4.59804E-005	-2.40040E-001	1.15320E-001	3.57770E+000	9	...........
	82	1.10667	1.10082E-001	-3.98072E-004	0.00000E+000	-4.38204E-005	-2.40040E-001	1.10101E-001	3.57770E+000	9	...........
	83	1.12	1.04887E-001	-3.99713E-004	0.00000E+000	-4.19246E-005	-2.40040E-001	1.04904E-001	3.57770E+000	9	...........
	84	1.13333	9.97185E-002	-3.99560E-004	0.00000E+000	-3.98435E-005	-2.40040E-001	9.97345E-002	3.57770E+000	9	...........
	85	1.14667	9.46190E-002	-3.98482E-004	0.00000E+000	-3.77040E-005	-2.40040E-001	9.46312E-002	3.57770E+000	9	...........
	86	1.16	8.94961E-002	-3.99178E-004	0.00000E+000	-3.57249E-005	-2.40040E-001	8.95064E-002	3.57770E+000	9	...........
	87	1.17333	8.44512E-002	-3.99022E-004	0.00000E+000	-3.36979E-005	-2.40040E-001	8.44544E-002	3.57770E+000	9	...........
	88	1.18667	7.93394E-002	-3.98849E-004	0.00000E+000	-3.16444E-005	-2.40040E-001	7.93441E-002	3.57770E+000	9	...........
	89	1.2	7.42834E-002	-3.98648E-004	0.00000E+000	-2.96129E-005	-2.40040E-001	7.42902E-002	3.57770E+000	9	...........
	90	1.21333	6.93363E-002	-3.99056E-004	0.00000E+000	-2.76691E-005	-2.40040E-001	6.93381E-002	3.57770E+000	9	...........
	91	1.22667	6.43153E-002	-3.99504E-004	0.00000E+000	-2.56942E-005	-2.40040E-001	6.43239E-002	3.57770E+000	9	...........
	92	1.24	5.93576E-002	-3.98582E-004	0.00000E+000	-2.36589E-005	-2.40040E-001	5.93644E-002	3.57770E+000	9	...........
	93	1.25333	5.45279E-002	-3.98128E-004	0.00000E+000	-2.17091E-005	-2.40040E-001	5.45335E-002	3.57770E+000	9	...........
	94	1.26667	4.96642E-002	-3.98531E-004	0.00000E+000	-1.97927E-005	-2.40040E-001	4.96665E-002	3.57770E+000	9	...........
	95	1.28	4.48535E-002	-3.99096E-004	0.00000E+000	-1.79008E-005	-2.40040E-001	4.48598E-002	3.57770E+000	9	...........
	96	1.29333	4.00805E-002	-3.99275E-004	0.00000E+000	-1.60031E-005	-2.40040E-001	4.00806E-002	3.57770E+000	9	...........
	97	1.30667	3.52707E-002	-3.98039E-004	0.00000E+000	-1.40391E-005	-2.40040E-001	3.52708E-002	3.57770E+000	9	...........
	98	1.32	3.05590E-002	-3.99307E-004	0.00000E+000	-1.22024E-005	-2.40040E-001	3.05527E-002	3.57770E+000	9	...........
	99	1.33333	2.58683E-002	-4.00340E-004	0.00000E+000	-1.03561E-005	-2.40040E-001	2.58660E-002	3.57770E+000	9	...........
	100	1.34667	2.12108E-002	-3.99809E-004	0.00000E+000	-8.48028E-006	-2.40040E-001	2.12029E-002	3.57770E+000	9	...........
	101	1.36	1.65685E-002	-3.99664E-004	0.00000E+000	-6.62182E-006	-2.40040E-001	1.65603E-002	3.57770E+000	9	...........
	102	1.37333	1.19764E-002	-3.98722E-004	0.00000E+000	-4.77525E-006	-2.40040E-001	1.19627E-002	3.57770E+000	9	...........
	103	1.38667	7.35561E-003	-3.98257E-004	0.00000E+000	-2.92942E-006	-2.40040E-001	7.33712E-003	3.57770E+000	9	...........
	104	1.4	2.75071E-003	-3.98825E-004	0.00000E+000	-1.09705E-006	-2.40040E-001	2.73425E-003	3.57770E+000	9	...........
	105	1.40333	-7.77200E-005	-4.00348E-004	0.00000E+000	3.11151E-008	-2.40040E-001	-1.00654E-004	3.57770E+000	9	...........
STARTTIMEOFFSET	QUANT	2439.136	Start Time Offset (s)
