EXPLAIN
TAG	PWR800_DISCHARGE
TITLE	LABEL	PWR Cyclic Charge Discharge (Cell) - Discharge Step	Test &Identifier
DATE	LABEL	12-7-2017	Date
TIME	LABEL	14:53:16	Time
NOTES	NOTES	3	&Notes...
	supercap test cell
	0.4mg
	6M KOH
PSTAT	PSTAT	IFC5000-01520	Potentiostat
CAPACITY	QUANT	1.00000E-003	Capacity (A-hr)
CELLTYPE	SELECTOR	1	&Cell Type
WORKINGCONNECTION	SELECTOR	0	&Working Lead
MAXDISCHARGETIME	VARIABLEANDUNITS	1.00000E+002	s	1.00000E+002	second(s)	Max &Discharge Time
DISCHARGEMODE	MULTIPARAM	0	4.00000E-004	&Discharge Mode	Constant Current	Amp(s)
SAMPLETIME	QUANT	1.00000E-002	Sa&mple Period (s)
DISCHARGESTOPAT1	MULTIPARAM	3	0.00000E+000	Discharge Stop At &1	Voltage < Limit	V
DISCHARGESTOPAT2	MULTIPARAM	0	0.00000E+000	Discharge Stop At &2	None	N/A
AESBHCSELECTOR	TOGGLE	F	Save Both Half Cells
IRCOMP	TOGGLE	F	IR &Measure
EOC	QUANT	0	Open Circuit (V)
SEQUENCER	TOGGLE	TRUE	Run as Sequence
PSTATMODEL	IQUANT	53	Pstat Model
PSTATSECTION	LABEL	IFC5000-01520	Pstat Section
PSTATSERIALNO	LABEL	01520	Pstat Serial Number
CTRLMODE	IQUANT	0	Control Mode
ELECTROMETER	IQUANT	1	RE=0 or CS=1
IESTAB	IQUANT	0	I/E Stability
CASPEED	IQUANT	4	Control Amp Speed
CONVENTION	IQUANT	1	Current Convention
ICHRANGE	IQUANT	2	Ich Range
ICHRANGEMODE	TOGGLE	T	Ich Auto Range
ICHOFFSETENABLE	TOGGLE	F	Ich Offset Enable
ICHOFFSET	QUANT	0	Ich Offset (V)
ICHFILTER	IQUANT	1	Ich Filter
VCHRANGE	IQUANT	2	Vch Range
VCHRANGEMODE	TOGGLE	T	Vch Auto Range
VCHOFFSETENABLE	TOGGLE	F	Vch Offset Enable
VCHOFFSET	QUANT	0	Vch Offset (V)
VCHFILTER	IQUANT	1	Vch Filter
IERANGELOWERLIMIT	IQUANT	9	I/E Range Lower Limit
IERANGEMODE	TOGGLE	F	I/E AutoRange
IERANGE	IQUANT	9	I/E Range
ACHSELECT	IQUANT	1	Ach Select
ACHRANGE	IQUANT	2	Ach Range
ACHOFFSETENABLE	TOGGLE	F	Ach Offset Enable
ACHOFFSET	QUANT	0	Ach Offset (V)
ACHFILTER	IQUANT	1	Ach Filter
CABLEID	IQUANT	14	Cable ID
DCCALDATE	LABEL	5-7-2017	DC Calibration Date
ACCALDATE	LABEL	12/3/2015	AC Calibration Date
FRAMEWORKVERSION	QUANT	7.01	Framework Version
INSTRUMENTVERSION	LABEL	4.00	Instrument Version
CURVE	TABLE	112
	Pt	T	Vf	Im	Vu	Pwr	Sig	Ach	Temp	IERange	Over
	#	s	V	A	V	W	V	V	deg C	#	bits
	0	0.013333	6.99456E-001	-3.99083E-004	0.00000E+000	-2.79141E-004	-2.40040E-001	6.99645E-001	3.57650E+000	9	...........
	1	0.026667	6.87013E-001	-3.97849E-004	0.00000E+000	-2.73327E-004	-2.40040E-001	6.87214E-001	3.57650E+000	9	...........
	2	0.04	6.76019E-001	-3.98979E-004	0.00000E+000	-2.69717E-004	-2.40040E-001	6.76227E-001	3.57650E+000	9	...........
	3	0.053333	6.65843E-001	-3.98149E-004	0.00000E+000	-2.65104E-004	-2.40040E-001	6.66062E-001	3.57650E+000	9	...........
	4	0.066667	6.56357E-001	-3.97352E-004	0.00000E+000	-2.60804E-004	-2.40040E-001	6.56598E-001	3.57650E+000	9	...........
	5	0.08	6.47272E-001	-3.98584E-004	0.00000E+000	-2.57992E-004	-2.40040E-001	6.47496E-001	3.57650E+000	9	...........
	6	0.093333	6.38436E-001	-3.98512E-004	0.00000E+000	-2.54425E-004	-2.40040E-001	6.38651E-001	3.57650E+000	9	...........
	7	0.106667	6.29725E-001	-3.98709E-004	0.00000E+000	-2.51077E-004	-2.40040E-001	6.29959E-001	3.57650E+000	9	...........
	8	0.12	6.21340E-001	-3.99350E-004	0.00000E+000	-2.48132E-004	-2.40040E-001	6.21556E-001	3.57650E+000	9	...........
	9	0.133333	6.13083E-001	-3.98269E-004	0.00000E+000	-2.44172E-004	-2.40040E-001	6.13329E-001	3.57650E+000	9	...........
	10	0.146667	6.04939E-001	-3.97785E-004	0.00000E+000	-2.40636E-004	-2.40040E-001	6.05173E-001	3.57650E+000	9	...........
	11	0.16	5.96883E-001	-3.98177E-004	0.00000E+000	-2.37665E-004	-2.40040E-001	5.97113E-001	3.57650E+000	9	...........
	12	0.173333	5.88823E-001	-3.99591E-004	0.00000E+000	-2.35288E-004	-2.40040E-001	5.89052E-001	3.57650E+000	9	...........
	13	0.186667	5.80946E-001	-3.98515E-004	0.00000E+000	-2.31515E-004	-2.40040E-001	5.81193E-001	3.57650E+000	9	...........
	14	0.2	5.73138E-001	-3.99016E-004	0.00000E+000	-2.28691E-004	-2.40040E-001	5.73357E-001	3.57650E+000	9	...........
	15	0.213333	5.65404E-001	-3.98360E-004	0.00000E+000	-2.25235E-004	-2.40040E-001	5.65632E-001	3.57650E+000	9	...........
	16	0.226667	5.57658E-001	-3.97079E-004	0.00000E+000	-2.21434E-004	-2.40040E-001	5.57877E-001	3.57650E+000	9	...........
	17	0.24	5.50066E-001	-4.00070E-004	0.00000E+000	-2.20065E-004	-2.40040E-001	5.50247E-001	3.57650E+000	9	...........
	18	0.253333	5.42541E-001	-3.98940E-004	0.00000E+000	-2.16441E-004	-2.40040E-001	5.42729E-001	3.57650E+000	9	...........
	19	0.266667	5.34933E-001	-3.97397E-004	0.00000E+000	-2.12580E-004	-2.40040E-001	5.35132E-001	3.57650E+000	9	...........
	20	0.28	5.27386E-001	-3.99491E-004	0.00000E+000	-2.10686E-004	-2.40040E-001	5.27600E-001	3.57650E+000	9	...........
	21	0.293333	5.19942E-001	-3.99046E-004	0.00000E+000	-2.07481E-004	-2.40040E-001	5.20126E-001	3.57650E+000	9	...........
	22	0.306667	5.12590E-001	-3.98019E-004	0.00000E+000	-2.04020E-004	-2.40040E-001	5.12778E-001	3.57650E+000	9	...........
	23	0.32	5.05163E-001	-3.98831E-004	0.00000E+000	-2.01475E-004	-2.40040E-001	5.05399E-001	3.57650E+000	9	...........
	24	0.333333	4.97859E-001	-3.99643E-004	0.00000E+000	-1.98966E-004	-2.40040E-001	4.98091E-001	3.57650E+000	9	...........
	25	0.346667	4.90608E-001	-3.97834E-004	0.00000E+000	-1.95181E-004	-2.40040E-001	4.90849E-001	3.57650E+000	9	...........
	26	0.36	4.83604E-001	-3.98463E-004	0.00000E+000	-1.92698E-004	-2.40040E-001	4.83741E-001	3.57624E+000	9	...........
	27	0.373333	4.76504E-001	-3.99577E-004	0.00000E+000	-1.90400E-004	-2.40040E-001	4.76602E-001	3.57620E+000	9	...........
	28	0.386667	4.69304E-001	-3.99150E-004	0.00000E+000	-1.87323E-004	-2.40040E-001	4.69402E-001	3.57620E+000	9	...........
	29	0.4	4.62236E-001	-3.98995E-004	0.00000E+000	-1.84430E-004	-2.40040E-001	4.62330E-001	3.57620E+000	9	...........
	30	0.413333	4.55171E-001	-3.98653E-004	0.00000E+000	-1.81455E-004	-2.40040E-001	4.55261E-001	3.57620E+000	9	...........
	31	0.426667	4.48050E-001	-3.99892E-004	0.00000E+000	-1.79171E-004	-2.40040E-001	4.48149E-001	3.57620E+000	9	...........
	32	0.44	4.41051E-001	-3.99587E-004	0.00000E+000	-1.76238E-004	-2.40040E-001	4.41152E-001	3.57620E+000	9	...........
	33	0.453333	4.34025E-001	-3.98789E-004	0.00000E+000	-1.73084E-004	-2.40040E-001	4.34112E-001	3.57620E+000	9	...........
	34	0.466667	4.27039E-001	-3.98818E-004	0.00000E+000	-1.70311E-004	-2.40040E-001	4.27129E-001	3.57620E+000	9	...........
	35	0.48	4.20173E-001	-3.98603E-004	0.00000E+000	-1.67482E-004	-2.40040E-001	4.20256E-001	3.57620E+000	9	...........
	36	0.493333	4.13311E-001	-3.98811E-004	0.00000E+000	-1.64833E-004	-2.40040E-001	4.13399E-001	3.57620E+000	9	...........
	37	0.506667	4.06539E-001	-3.98559E-004	0.00000E+000	-1.62030E-004	-2.40040E-001	4.06620E-001	3.57620E+000	9	...........
	38	0.52	3.99858E-001	-3.98120E-004	0.00000E+000	-1.59191E-004	-2.40040E-001	3.99937E-001	3.57620E+000	9	...........
	39	0.533333	3.93132E-001	-3.99090E-004	0.00000E+000	-1.56895E-004	-2.40040E-001	3.93205E-001	3.57620E+000	9	...........
	40	0.546667	3.86430E-001	-3.99132E-004	0.00000E+000	-1.54237E-004	-2.40040E-001	3.86508E-001	3.57620E+000	9	...........
	41	0.56	3.79699E-001	-3.99959E-004	0.00000E+000	-1.51864E-004	-2.40040E-001	3.79770E-001	3.57620E+000	9	...........
	42	0.573333	3.73106E-001	-3.99825E-004	0.00000E+000	-1.49177E-004	-2.40040E-001	3.73175E-001	3.57620E+000	9	...........
	43	0.586667	3.66529E-001	-3.98847E-004	0.00000E+000	-1.46189E-004	-2.40040E-001	3.66599E-001	3.57620E+000	9	...........
	44	0.6	3.60016E-001	-3.98002E-004	0.00000E+000	-1.43287E-004	-2.40040E-001	3.60084E-001	3.57620E+000	9	...........
	45	0.613333	3.53480E-001	-3.99357E-004	0.00000E+000	-1.41165E-004	-2.40040E-001	3.53548E-001	3.57620E+000	9	...........
	46	0.626667	3.46971E-001	-3.99405E-004	0.00000E+000	-1.38582E-004	-2.40040E-001	3.47037E-001	3.57620E+000	9	...........
	47	0.64	3.40458E-001	-3.99762E-004	0.00000E+000	-1.36102E-004	-2.40040E-001	3.40529E-001	3.57620E+000	9	...........
	48	0.653333	3.34121E-001	-3.99219E-004	0.00000E+000	-1.33387E-004	-2.40040E-001	3.34187E-001	3.57620E+000	9	...........
	49	0.666667	3.27766E-001	-3.99270E-004	0.00000E+000	-1.30867E-004	-2.40040E-001	3.27832E-001	3.57620E+000	9	...........
	50	0.68	3.21555E-001	-3.98980E-004	0.00000E+000	-1.28294E-004	-2.40040E-001	3.21618E-001	3.57620E+000	9	...........
	51	0.693333	3.15398E-001	-3.98800E-004	0.00000E+000	-1.25781E-004	-2.40040E-001	3.15463E-001	3.57620E+000	9	...........
	52	0.706667	3.09101E-001	-3.97849E-004	0.00000E+000	-1.22975E-004	-2.40040E-001	3.09168E-001	3.57620E+000	9	...........
	53	0.72	3.02888E-001	-3.98958E-004	0.00000E+000	-1.20840E-004	-2.40040E-001	3.02949E-001	3.57620E+000	9	...........
	54	0.733333	2.96819E-001	-3.98186E-004	0.00000E+000	-1.18189E-004	-2.40040E-001	2.96883E-001	3.57620E+000	9	...........
	55	0.746667	2.90778E-001	-3.99688E-004	0.00000E+000	-1.16220E-004	-2.40040E-001	2.90835E-001	3.57620E+000	9	...........
	56	0.76	2.84650E-001	-3.99007E-004	0.00000E+000	-1.13577E-004	-2.40040E-001	2.84707E-001	3.57620E+000	9	...........
	57	0.773333	2.78497E-001	-3.97884E-004	0.00000E+000	-1.10809E-004	-2.40040E-001	2.78551E-001	3.57620E+000	9	...........
	58	0.786667	2.72497E-001	-3.99573E-004	0.00000E+000	-1.08883E-004	-2.40040E-001	2.72554E-001	3.57620E+000	9	...........
	59	0.8	2.66485E-001	-3.99388E-004	0.00000E+000	-1.06431E-004	-2.40040E-001	2.66544E-001	3.57620E+000	9	...........
	60	0.813333	2.60605E-001	-3.98948E-004	0.00000E+000	-1.03968E-004	-2.40040E-001	2.60657E-001	3.57620E+000	9	...........
	61	0.826667	2.54746E-001	-3.99280E-004	0.00000E+000	-1.01715E-004	-2.40040E-001	2.54803E-001	3.57620E+000	9	...........
	62	0.84	2.48895E-001	-4.00037E-004	0.00000E+000	-9.95670E-005	-2.40040E-001	2.48943E-001	3.57620E+000	9	...........
	63	0.853333	2.43034E-001	-3.98696E-004	0.00000E+000	-9.68968E-005	-2.40040E-001	2.43083E-001	3.57620E+000	9	...........
	64	0.866667	2.37181E-001	-3.97822E-004	0.00000E+000	-9.43558E-005	-2.40040E-001	2.37226E-001	3.57620E+000	9	...........
	65	0.88	2.31450E-001	-3.98632E-004	0.00000E+000	-9.22634E-005	-2.40040E-001	2.31497E-001	3.57620E+000	9	...........
	66	0.893333	2.25726E-001	-3.99176E-004	0.00000E+000	-9.01046E-005	-2.40040E-001	2.25770E-001	3.57620E+000	9	...........
	67	0.906667	2.20066E-001	-3.99599E-004	0.00000E+000	-8.79382E-005	-2.40040E-001	2.20108E-001	3.57620E+000	9	...........
	68	0.92	2.14400E-001	-3.98408E-004	0.00000E+000	-8.54188E-005	-2.40040E-001	2.14441E-001	3.57620E+000	9	...........
	69	0.933333	2.08802E-001	-3.98438E-004	0.00000E+000	-8.31949E-005	-2.40040E-001	2.08837E-001	3.57620E+000	9	...........
	70	0.946667	2.03194E-001	-3.99937E-004	0.00000E+000	-8.12648E-005	-2.40040E-001	2.03231E-001	3.57620E+000	9	...........
	71	0.96	1.97634E-001	-3.97828E-004	0.00000E+000	-7.86244E-005	-2.40040E-001	1.97672E-001	3.57620E+000	9	...........
	72	0.97333	1.92119E-001	-3.98799E-004	0.00000E+000	-7.66168E-005	-2.40040E-001	1.92158E-001	3.57620E+000	9	...........
	73	0.98667	1.86705E-001	-3.98901E-004	0.00000E+000	-7.44767E-005	-2.40040E-001	1.86738E-001	3.57620E+000	9	...........
	74	1	1.81314E-001	-3.98527E-004	0.00000E+000	-7.22584E-005	-2.40040E-001	1.81349E-001	3.57620E+000	9	...........
	75	1.01333	1.75804E-001	-3.98022E-004	0.00000E+000	-6.99737E-005	-2.40040E-001	1.75840E-001	3.57620E+000	9	...........
	76	1.02667	1.70426E-001	-3.98548E-004	0.00000E+000	-6.79231E-005	-2.40040E-001	1.70457E-001	3.57620E+000	9	...........
	77	1.04	1.65049E-001	-3.99039E-004	0.00000E+000	-6.58607E-005	-2.40040E-001	1.65072E-001	3.57620E+000	9	...........
	78	1.05333	1.59759E-001	-3.98416E-004	0.00000E+000	-6.36506E-005	-2.40040E-001	1.59786E-001	3.57620E+000	9	...........
	79	1.06667	1.54504E-001	-3.99742E-004	0.00000E+000	-6.17617E-005	-2.40040E-001	1.54529E-001	3.57620E+000	9	...........
	80	1.08	1.49243E-001	-4.00148E-004	0.00000E+000	-5.97193E-005	-2.40040E-001	1.49263E-001	3.57620E+000	9	...........
	81	1.09333	1.43985E-001	-3.98326E-004	0.00000E+000	-5.73531E-005	-2.40040E-001	1.44012E-001	3.57620E+000	9	...........
	82	1.10667	1.38808E-001	-3.98273E-004	0.00000E+000	-5.52836E-005	-2.40040E-001	1.38836E-001	3.57620E+000	9	...........
	83	1.12	1.33699E-001	-3.98651E-004	0.00000E+000	-5.32993E-005	-2.40040E-001	1.33718E-001	3.57620E+000	9	...........
	84	1.13333	1.28634E-001	-4.00119E-004	0.00000E+000	-5.14690E-005	-2.40040E-001	1.28650E-001	3.57620E+000	9	...........
	85	1.14667	1.23506E-001	-3.99172E-004	0.00000E+000	-4.93002E-005	-2.40040E-001	1.23528E-001	3.57620E+000	9	...........
	86	1.16	1.18456E-001	-3.98300E-004	0.00000E+000	-4.71812E-005	-2.40040E-001	1.18474E-001	3.57620E+000	9	...........
	87	1.17333	1.13371E-001	-3.98807E-004	0.00000E+000	-4.52132E-005	-2.40040E-001	1.13389E-001	3.57620E+000	9	...........
	88	1.18667	1.08324E-001	-3.98530E-004	0.00000E+000	-4.31705E-005	-2.40040E-001	1.08340E-001	3.57620E+000	9	...........
	89	1.2	1.03329E-001	-3.98502E-004	0.00000E+000	-4.11769E-005	-2.40040E-001	1.03345E-001	3.57620E+000	9	...........
	90	1.21333	9.84104E-002	-3.98580E-004	0.00000E+000	-3.92244E-005	-2.40040E-001	9.84285E-002	3.57620E+000	9	...........
	91	1.22667	9.35133E-002	-3.98930E-004	0.00000E+000	-3.73053E-005	-2.40040E-001	9.35305E-002	3.57620E+000	9	...........
	92	1.24	8.86060E-002	-3.99413E-004	0.00000E+000	-3.53904E-005	-2.40040E-001	8.86257E-002	3.57620E+000	9	...........
	93	1.25333	8.37080E-002	-3.98837E-004	0.00000E+000	-3.33859E-005	-2.40040E-001	8.37136E-002	3.57620E+000	9	...........
	94	1.26667	7.88382E-002	-3.99907E-004	0.00000E+000	-3.15280E-005	-2.40040E-001	7.88445E-002	3.57620E+000	9	...........
	95	1.28	7.39878E-002	-3.99214E-004	0.00000E+000	-2.95369E-005	-2.40040E-001	7.39926E-002	3.57620E+000	9	...........
	96	1.29333	6.92286E-002	-3.99008E-004	0.00000E+000	-2.76228E-005	-2.40040E-001	6.92294E-002	3.57620E+000	9	...........
	97	1.30667	6.44749E-002	-3.98857E-004	0.00000E+000	-2.57163E-005	-2.40040E-001	6.44766E-002	3.57620E+000	9	...........
	98	1.32	5.97865E-002	-3.99861E-004	0.00000E+000	-2.39063E-005	-2.40040E-001	5.97917E-002	3.57620E+000	9	...........
	99	1.33333	5.51276E-002	-3.99006E-004	0.00000E+000	-2.19963E-005	-2.40040E-001	5.51298E-002	3.57620E+000	9	...........
	100	1.34667	5.04783E-002	-3.99773E-004	0.00000E+000	-2.01799E-005	-2.40040E-001	5.04881E-002	3.57620E+000	9	...........
	101	1.36	4.58898E-002	-3.98645E-004	0.00000E+000	-1.82937E-005	-2.40040E-001	4.58988E-002	3.57655E+000	9	...........
	102	1.37333	4.12710E-002	-3.98671E-004	0.00000E+000	-1.64536E-005	-2.40040E-001	4.12783E-002	3.57660E+000	9	...........
	103	1.38667	3.66766E-002	-3.98393E-004	0.00000E+000	-1.46117E-005	-2.40040E-001	3.66805E-002	3.57660E+000	9	...........
	104	1.4	3.21225E-002	-3.97761E-004	0.00000E+000	-1.27771E-005	-2.40040E-001	3.21213E-002	3.57660E+000	9	...........
	105	1.41333	2.75617E-002	-3.99289E-004	0.00000E+000	-1.10051E-005	-2.40040E-001	2.75574E-002	3.57660E+000	9	...........
	106	1.42667	2.30464E-002	-3.98382E-004	0.00000E+000	-9.18128E-006	-2.40040E-001	2.30427E-002	3.57660E+000	9	...........
	107	1.44	1.84447E-002	-3.99627E-004	0.00000E+000	-7.37102E-006	-2.40040E-001	1.84402E-002	3.57660E+000	9	...........
	108	1.45333	1.40078E-002	-3.98725E-004	0.00000E+000	-5.58528E-006	-2.40040E-001	1.39987E-002	3.57660E+000	9	...........
	109	1.46667	9.58572E-003	-3.98839E-004	0.00000E+000	-3.82315E-006	-2.40040E-001	9.56896E-003	3.57660E+000	9	...........
	110	1.48	5.17229E-003	-3.98772E-004	0.00000E+000	-2.06256E-006	-2.40040E-001	5.15224E-003	3.57660E+000	9	...........
	111	1.49	1.25969E-003	-3.99430E-004	0.00000E+000	-5.03157E-007	-2.40040E-001	1.24412E-003	3.57660E+000	9	...........
STARTTIMEOFFSET	QUANT	1656.158	Start Time Offset (s)
