EXPLAIN
TAG	PWR800_DISCHARGE
TITLE	LABEL	PWR Cyclic Charge Discharge (Cell) - Discharge Step	Test &Identifier
DATE	LABEL	12-7-2017	Date
TIME	LABEL	14:24:51	Time
NOTES	NOTES	3	&Notes...
	supercap test cell
	0.4mg
	6M KOH
PSTAT	PSTAT	IFC5000-01520	Potentiostat
CAPACITY	QUANT	1.00000E-003	Capacity (A-hr)
CELLTYPE	SELECTOR	1	&Cell Type
WORKINGCONNECTION	SELECTOR	0	&Working Lead
MAXDISCHARGETIME	VARIABLEANDUNITS	1.00000E+002	s	1.00000E+002	second(s)	Max &Discharge Time
DISCHARGEMODE	MULTIPARAM	0	4.00000E-004	&Discharge Mode	Constant Current	Amp(s)
SAMPLETIME	QUANT	1.00000E-002	Sa&mple Period (s)
DISCHARGESTOPAT1	MULTIPARAM	3	0.00000E+000	Discharge Stop At &1	Voltage < Limit	V
DISCHARGESTOPAT2	MULTIPARAM	0	0.00000E+000	Discharge Stop At &2	None	N/A
AESBHCSELECTOR	TOGGLE	F	Save Both Half Cells
IRCOMP	TOGGLE	F	IR &Measure
EOC	QUANT	0	Open Circuit (V)
SEQUENCER	TOGGLE	TRUE	Run as Sequence
PSTATMODEL	IQUANT	53	Pstat Model
PSTATSECTION	LABEL	IFC5000-01520	Pstat Section
PSTATSERIALNO	LABEL	01520	Pstat Serial Number
CTRLMODE	IQUANT	0	Control Mode
ELECTROMETER	IQUANT	1	RE=0 or CS=1
IESTAB	IQUANT	0	I/E Stability
CASPEED	IQUANT	4	Control Amp Speed
CONVENTION	IQUANT	1	Current Convention
ICHRANGE	IQUANT	2	Ich Range
ICHRANGEMODE	TOGGLE	T	Ich Auto Range
ICHOFFSETENABLE	TOGGLE	F	Ich Offset Enable
ICHOFFSET	QUANT	0	Ich Offset (V)
ICHFILTER	IQUANT	1	Ich Filter
VCHRANGE	IQUANT	2	Vch Range
VCHRANGEMODE	TOGGLE	T	Vch Auto Range
VCHOFFSETENABLE	TOGGLE	F	Vch Offset Enable
VCHOFFSET	QUANT	0	Vch Offset (V)
VCHFILTER	IQUANT	1	Vch Filter
IERANGELOWERLIMIT	IQUANT	9	I/E Range Lower Limit
IERANGEMODE	TOGGLE	F	I/E AutoRange
IERANGE	IQUANT	9	I/E Range
ACHSELECT	IQUANT	1	Ach Select
ACHRANGE	IQUANT	2	Ach Range
ACHOFFSETENABLE	TOGGLE	F	Ach Offset Enable
ACHOFFSET	QUANT	0	Ach Offset (V)
ACHFILTER	IQUANT	1	Ach Filter
CABLEID	IQUANT	14	Cable ID
DCCALDATE	LABEL	5-7-2017	DC Calibration Date
ACCALDATE	LABEL	12/3/2015	AC Calibration Date
FRAMEWORKVERSION	QUANT	7.01	Framework Version
INSTRUMENTVERSION	LABEL	4.00	Instrument Version
CURVE	TABLE	132
	Pt	T	Vf	Im	Vu	Pwr	Sig	Ach	Temp	IERange	Over
	#	s	V	A	V	W	V	V	deg C	#	bits
	0	0.013333	7.21177E-001	-3.99318E-004	0.00000E+000	-2.87979E-004	-2.40040E-001	7.21398E-001	3.57590E+000	9	...........
	1	0.026667	7.10209E-001	-3.98380E-004	0.00000E+000	-2.82933E-004	-2.40040E-001	7.10446E-001	3.57590E+000	9	...........
	2	0.04	7.00598E-001	-3.98303E-004	0.00000E+000	-2.79050E-004	-2.40040E-001	7.00824E-001	3.57590E+000	9	...........
	3	0.053333	6.91620E-001	-3.98767E-004	0.00000E+000	-2.75795E-004	-2.40040E-001	6.91827E-001	3.57590E+000	9	...........
	4	0.066667	6.83158E-001	-3.98548E-004	0.00000E+000	-2.72271E-004	-2.40040E-001	6.83368E-001	3.57590E+000	9	...........
	5	0.08	6.75068E-001	-3.98498E-004	0.00000E+000	-2.69013E-004	-2.40040E-001	6.75269E-001	3.57590E+000	9	...........
	6	0.093333	6.67217E-001	-3.99855E-004	0.00000E+000	-2.66790E-004	-2.40040E-001	6.67438E-001	3.57590E+000	9	...........
	7	0.106667	6.59579E-001	-3.98924E-004	0.00000E+000	-2.63122E-004	-2.40040E-001	6.59779E-001	3.57590E+000	9	...........
	8	0.12	6.52064E-001	-3.97282E-004	0.00000E+000	-2.59053E-004	-2.40040E-001	6.52289E-001	3.57590E+000	9	...........
	9	0.133333	6.44676E-001	-3.98075E-004	0.00000E+000	-2.56629E-004	-2.40040E-001	6.44928E-001	3.57590E+000	9	...........
	10	0.146667	6.37347E-001	-3.99270E-004	0.00000E+000	-2.54473E-004	-2.40040E-001	6.37589E-001	3.57590E+000	9	...........
	11	0.16	6.30234E-001	-3.98486E-004	0.00000E+000	-2.51140E-004	-2.40040E-001	6.30463E-001	3.57590E+000	9	...........
	12	0.173333	6.23124E-001	-3.99194E-004	0.00000E+000	-2.48747E-004	-2.40040E-001	6.23369E-001	3.57590E+000	9	...........
	13	0.186667	6.16129E-001	-3.98159E-004	0.00000E+000	-2.45317E-004	-2.40040E-001	6.16369E-001	3.57590E+000	9	...........
	14	0.2	6.09070E-001	-3.98699E-004	0.00000E+000	-2.42836E-004	-2.40040E-001	6.09321E-001	3.57590E+000	9	...........
	15	0.213333	6.02206E-001	-3.99096E-004	0.00000E+000	-2.40338E-004	-2.40040E-001	6.02442E-001	3.57590E+000	9	...........
	16	0.226667	5.95391E-001	-3.98781E-004	0.00000E+000	-2.37431E-004	-2.40040E-001	5.95640E-001	3.57590E+000	9	...........
	17	0.24	5.88589E-001	-3.98151E-004	0.00000E+000	-2.34347E-004	-2.40040E-001	5.88813E-001	3.57590E+000	9	...........
	18	0.253333	5.81745E-001	-3.98486E-004	0.00000E+000	-2.31818E-004	-2.40040E-001	5.81963E-001	3.57590E+000	9	...........
	19	0.266667	5.75038E-001	-3.98620E-004	0.00000E+000	-2.29221E-004	-2.40040E-001	5.75257E-001	3.57590E+000	9	...........
	20	0.28	5.68474E-001	-3.99358E-004	0.00000E+000	-2.27025E-004	-2.40040E-001	5.68686E-001	3.57590E+000	9	...........
	21	0.293333	5.61909E-001	-3.98345E-004	0.00000E+000	-2.23833E-004	-2.40040E-001	5.62110E-001	3.57590E+000	9	...........
	22	0.306667	5.55297E-001	-3.99119E-004	0.00000E+000	-2.21629E-004	-2.40040E-001	5.55495E-001	3.57590E+000	9	...........
	23	0.32	5.48750E-001	-3.98970E-004	0.00000E+000	-2.18935E-004	-2.40040E-001	5.48957E-001	3.57590E+000	9	...........
	24	0.333333	5.42231E-001	-3.98263E-004	0.00000E+000	-2.15951E-004	-2.40040E-001	5.42471E-001	3.57590E+000	9	...........
	25	0.346667	5.35746E-001	-3.98968E-004	0.00000E+000	-2.13745E-004	-2.40040E-001	5.35961E-001	3.57590E+000	9	...........
	26	0.36	5.29303E-001	-3.98882E-004	0.00000E+000	-2.11130E-004	-2.40040E-001	5.29529E-001	3.57590E+000	9	...........
	27	0.373333	5.22932E-001	-3.97789E-004	0.00000E+000	-2.08017E-004	-2.40040E-001	5.23160E-001	3.57590E+000	9	...........
	28	0.386667	5.16522E-001	-3.98443E-004	0.00000E+000	-2.05805E-004	-2.40040E-001	5.16743E-001	3.57590E+000	9	...........
	29	0.4	5.10155E-001	-3.98200E-004	0.00000E+000	-2.03144E-004	-2.40040E-001	5.10370E-001	3.57590E+000	9	...........
	30	0.413333	5.03891E-001	-3.99171E-004	0.00000E+000	-2.01139E-004	-2.40040E-001	5.04110E-001	3.57590E+000	9	...........
	31	0.426667	4.97622E-001	-3.98804E-004	0.00000E+000	-1.98454E-004	-2.40040E-001	4.97824E-001	3.57590E+000	9	...........
	32	0.44	4.91419E-001	-3.98270E-004	0.00000E+000	-1.95717E-004	-2.40040E-001	4.91593E-001	3.57590E+000	9	...........
	33	0.453333	4.85329E-001	-4.00041E-004	0.00000E+000	-1.94151E-004	-2.40040E-001	4.85482E-001	3.57590E+000	9	...........
	34	0.466667	4.79288E-001	-3.96791E-004	0.00000E+000	-1.90177E-004	-2.40040E-001	4.79383E-001	3.57620E+000	9	...........
	35	0.48	4.73112E-001	-3.98263E-004	0.00000E+000	-1.88423E-004	-2.40040E-001	4.73202E-001	3.57650E+000	9	...........
	36	0.493333	4.66990E-001	-3.99059E-004	0.00000E+000	-1.86357E-004	-2.40040E-001	4.67081E-001	3.57650E+000	9	...........
	37	0.506667	4.60919E-001	-3.99321E-004	0.00000E+000	-1.84055E-004	-2.40040E-001	4.61006E-001	3.57650E+000	9	...........
	38	0.52	4.54863E-001	-3.98785E-004	0.00000E+000	-1.81393E-004	-2.40040E-001	4.54947E-001	3.57650E+000	9	...........
	39	0.533333	4.48827E-001	-3.99388E-004	0.00000E+000	-1.79256E-004	-2.40040E-001	4.48921E-001	3.57650E+000	9	...........
	40	0.546667	4.42857E-001	-3.97649E-004	0.00000E+000	-1.76101E-004	-2.40040E-001	4.42947E-001	3.57650E+000	9	...........
	41	0.56	4.36922E-001	-3.98980E-004	0.00000E+000	-1.74323E-004	-2.40040E-001	4.37009E-001	3.57650E+000	9	...........
	42	0.573333	4.30976E-001	-3.99812E-004	0.00000E+000	-1.72309E-004	-2.40040E-001	4.31062E-001	3.57650E+000	9	...........
	43	0.586667	4.25027E-001	-3.99639E-004	0.00000E+000	-1.69857E-004	-2.40040E-001	4.25112E-001	3.57650E+000	9	...........
	44	0.6	4.19145E-001	-3.99353E-004	0.00000E+000	-1.67387E-004	-2.40040E-001	4.19227E-001	3.57650E+000	9	...........
	45	0.613333	4.13309E-001	-3.99635E-004	0.00000E+000	-1.65173E-004	-2.40040E-001	4.13391E-001	3.57650E+000	9	...........
	46	0.626667	4.07537E-001	-3.98916E-004	0.00000E+000	-1.62573E-004	-2.40040E-001	4.07614E-001	3.57650E+000	9	...........
	47	0.64	4.01762E-001	-3.98416E-004	0.00000E+000	-1.60068E-004	-2.40040E-001	4.01835E-001	3.57650E+000	9	...........
	48	0.653333	3.95991E-001	-3.98043E-004	0.00000E+000	-1.57621E-004	-2.40040E-001	3.96064E-001	3.57650E+000	9	...........
	49	0.666667	3.90193E-001	-3.97669E-004	0.00000E+000	-1.55167E-004	-2.40040E-001	3.90262E-001	3.57650E+000	9	...........
	50	0.68	3.84408E-001	-3.97328E-004	0.00000E+000	-1.52736E-004	-2.40040E-001	3.84481E-001	3.57650E+000	9	...........
	51	0.693333	3.78749E-001	-3.98666E-004	0.00000E+000	-1.50994E-004	-2.40040E-001	3.78818E-001	3.57650E+000	9	...........
	52	0.706667	3.73059E-001	-3.97927E-004	0.00000E+000	-1.48450E-004	-2.40040E-001	3.73131E-001	3.57650E+000	9	...........
	53	0.72	3.67451E-001	-3.98443E-004	0.00000E+000	-1.46408E-004	-2.40040E-001	3.67516E-001	3.57650E+000	9	...........
	54	0.733333	3.61895E-001	-3.97424E-004	0.00000E+000	-1.43826E-004	-2.40040E-001	3.61970E-001	3.57650E+000	9	...........
	55	0.746667	3.56408E-001	-3.99646E-004	0.00000E+000	-1.42437E-004	-2.40040E-001	3.56474E-001	3.57650E+000	9	...........
	56	0.76	3.50793E-001	-3.98058E-004	0.00000E+000	-1.39636E-004	-2.40040E-001	3.50862E-001	3.57650E+000	9	...........
	57	0.773333	3.45225E-001	-4.00343E-004	0.00000E+000	-1.38209E-004	-2.40040E-001	3.45294E-001	3.57650E+000	9	...........
	58	0.786667	3.39740E-001	-3.97548E-004	0.00000E+000	-1.35063E-004	-2.40040E-001	3.39808E-001	3.57650E+000	9	...........
	59	0.8	3.34271E-001	-3.97135E-004	0.00000E+000	-1.32751E-004	-2.40040E-001	3.34335E-001	3.57650E+000	9	...........
	60	0.813333	3.28771E-001	-3.99002E-004	0.00000E+000	-1.31180E-004	-2.40040E-001	3.28831E-001	3.57650E+000	9	...........
	61	0.826667	3.23385E-001	-3.98662E-004	0.00000E+000	-1.28921E-004	-2.40040E-001	3.23447E-001	3.57650E+000	9	...........
	62	0.84	3.17984E-001	-3.98651E-004	0.00000E+000	-1.26765E-004	-2.40040E-001	3.18047E-001	3.57650E+000	9	...........
	63	0.853333	3.12564E-001	-3.98948E-004	0.00000E+000	-1.24697E-004	-2.40040E-001	3.12623E-001	3.57650E+000	9	...........
	64	0.866667	3.07211E-001	-3.98156E-004	0.00000E+000	-1.22318E-004	-2.40040E-001	3.07267E-001	3.57650E+000	9	...........
	65	0.88	3.01902E-001	-3.98229E-004	0.00000E+000	-1.20226E-004	-2.40040E-001	3.01959E-001	3.57650E+000	9	...........
	66	0.893333	2.96599E-001	-3.97625E-004	0.00000E+000	-1.17935E-004	-2.40040E-001	2.96655E-001	3.57650E+000	9	...........
	67	0.906667	2.91271E-001	-3.98456E-004	0.00000E+000	-1.16059E-004	-2.40040E-001	2.91324E-001	3.57650E+000	9	...........
	68	0.92	2.86020E-001	-3.99913E-004	0.00000E+000	-1.14383E-004	-2.40040E-001	2.86076E-001	3.57650E+000	9	...........
	69	0.933333	2.80755E-001	-3.97927E-004	0.00000E+000	-1.11720E-004	-2.40040E-001	2.80812E-001	3.57650E+000	9	...........
	70	0.946667	2.75616E-001	-3.98289E-004	0.00000E+000	-1.09775E-004	-2.40040E-001	2.75673E-001	3.57650E+000	9	...........
	71	0.96	2.70492E-001	-3.99251E-004	0.00000E+000	-1.07994E-004	-2.40040E-001	2.70541E-001	3.57650E+000	9	...........
	72	0.97333	2.65389E-001	-3.97131E-004	0.00000E+000	-1.05394E-004	-2.40040E-001	2.65443E-001	3.57650E+000	9	...........
	73	0.98667	2.60252E-001	-3.99042E-004	0.00000E+000	-1.03851E-004	-2.40040E-001	2.60305E-001	3.57650E+000	9	...........
	74	1	2.55168E-001	-3.98104E-004	0.00000E+000	-1.01583E-004	-2.40040E-001	2.55220E-001	3.57650E+000	9	...........
	75	1.01333	2.50125E-001	-3.99796E-004	0.00000E+000	-9.99990E-005	-2.40040E-001	2.50171E-001	3.57650E+000	9	...........
	76	1.02667	2.45118E-001	-3.98965E-004	0.00000E+000	-9.77934E-005	-2.40040E-001	2.45167E-001	3.57650E+000	9	...........
	77	1.04	2.40072E-001	-3.98315E-004	0.00000E+000	-9.56246E-005	-2.40040E-001	2.40119E-001	3.57650E+000	9	...........
	78	1.05333	2.35016E-001	-3.99362E-004	0.00000E+000	-9.38562E-005	-2.40040E-001	2.35058E-001	3.57650E+000	9	...........
	79	1.06667	2.30149E-001	-3.98457E-004	0.00000E+000	-9.17047E-005	-2.40040E-001	2.30191E-001	3.57650E+000	9	...........
	80	1.08	2.25184E-001	-3.98848E-004	0.00000E+000	-8.98142E-005	-2.40040E-001	2.25221E-001	3.57650E+000	9	...........
	81	1.09333	2.20224E-001	-3.98239E-004	0.00000E+000	-8.77019E-005	-2.40040E-001	2.20261E-001	3.57650E+000	9	...........
	82	1.10667	2.15250E-001	-3.99940E-004	0.00000E+000	-8.60870E-005	-2.40040E-001	2.15282E-001	3.57650E+000	9	...........
	83	1.12	2.10293E-001	-4.00161E-004	0.00000E+000	-8.41512E-005	-2.40040E-001	2.10328E-001	3.57650E+000	9	...........
	84	1.13333	2.05468E-001	-3.98915E-004	0.00000E+000	-8.19641E-005	-2.40040E-001	2.05497E-001	3.57650E+000	9	...........
	85	1.14667	2.00620E-001	-3.98484E-004	0.00000E+000	-7.99438E-005	-2.40040E-001	2.00660E-001	3.57650E+000	9	...........
	86	1.16	1.95838E-001	-3.97943E-004	0.00000E+000	-7.79323E-005	-2.40040E-001	1.95874E-001	3.57650E+000	9	...........
	87	1.17333	1.91050E-001	-3.99000E-004	0.00000E+000	-7.62289E-005	-2.40040E-001	1.91086E-001	3.57650E+000	9	...........
	88	1.18667	1.86249E-001	-3.98547E-004	0.00000E+000	-7.42289E-005	-2.40040E-001	1.86284E-001	3.57650E+000	9	...........
	89	1.2	1.81503E-001	-3.99164E-004	0.00000E+000	-7.24494E-005	-2.40040E-001	1.81537E-001	3.57650E+000	9	...........
	90	1.21333	1.76805E-001	-3.99780E-004	0.00000E+000	-7.06833E-005	-2.40040E-001	1.76836E-001	3.57650E+000	9	...........
	91	1.22667	1.72131E-001	-3.98889E-004	0.00000E+000	-6.86611E-005	-2.40040E-001	1.72166E-001	3.57650E+000	9	...........
	92	1.24	1.67406E-001	-3.98522E-004	0.00000E+000	-6.67148E-005	-2.40040E-001	1.67443E-001	3.57650E+000	9	...........
	93	1.25333	1.62768E-001	-3.98536E-004	0.00000E+000	-6.48690E-005	-2.40040E-001	1.62796E-001	3.57650E+000	9	...........
	94	1.26667	1.58082E-001	-3.97467E-004	0.00000E+000	-6.28323E-005	-2.40040E-001	1.58107E-001	3.57650E+000	9	...........
	95	1.28	1.53450E-001	-3.99175E-004	0.00000E+000	-6.12536E-005	-2.40040E-001	1.53477E-001	3.57650E+000	9	...........
	96	1.29333	1.48851E-001	-3.98756E-004	0.00000E+000	-5.93554E-005	-2.40040E-001	1.48878E-001	3.57650E+000	9	...........
	97	1.30667	1.44252E-001	-3.99640E-004	0.00000E+000	-5.76486E-005	-2.40040E-001	1.44274E-001	3.57650E+000	9	...........
	98	1.32	1.39753E-001	-3.98517E-004	0.00000E+000	-5.56940E-005	-2.40040E-001	1.39778E-001	3.57650E+000	9	...........
	99	1.33333	1.35288E-001	-3.98363E-004	0.00000E+000	-5.38939E-005	-2.40040E-001	1.35310E-001	3.57650E+000	9	...........
	100	1.34667	1.30774E-001	-3.98345E-004	0.00000E+000	-5.20930E-005	-2.40040E-001	1.30800E-001	3.57650E+000	9	...........
	101	1.36	1.26314E-001	-3.99005E-004	0.00000E+000	-5.03998E-005	-2.40040E-001	1.26335E-001	3.57650E+000	9	...........
	102	1.37333	1.21757E-001	-3.99837E-004	0.00000E+000	-4.86828E-005	-2.40040E-001	1.21782E-001	3.57650E+000	9	...........
	103	1.38667	1.17341E-001	-3.99057E-004	0.00000E+000	-4.68259E-005	-2.40040E-001	1.17365E-001	3.57650E+000	9	...........
	104	1.4	1.12883E-001	-3.98329E-004	0.00000E+000	-4.49644E-005	-2.40040E-001	1.12902E-001	3.57650E+000	9	...........
	105	1.41333	1.08457E-001	-3.99165E-004	0.00000E+000	-4.32920E-005	-2.40040E-001	1.08477E-001	3.57650E+000	9	...........
	106	1.42667	1.04023E-001	-3.98120E-004	0.00000E+000	-4.14137E-005	-2.40040E-001	1.04041E-001	3.57650E+000	9	...........
	107	1.44	9.96510E-002	-3.99389E-004	0.00000E+000	-3.97995E-005	-2.40040E-001	9.96677E-002	3.57650E+000	9	...........
	108	1.45333	9.52609E-002	-3.98013E-004	0.00000E+000	-3.79151E-005	-2.40040E-001	9.52744E-002	3.57650E+000	9	...........
	109	1.46667	9.09249E-002	-3.99508E-004	0.00000E+000	-3.63252E-005	-2.40040E-001	9.09458E-002	3.57675E+000	9	...........
	110	1.48	8.65329E-002	-3.97946E-004	0.00000E+000	-3.44354E-005	-2.40040E-001	8.65524E-002	3.57700E+000	9	...........
	111	1.49333	8.21936E-002	-3.98878E-004	0.00000E+000	-3.27852E-005	-2.40040E-001	8.22056E-002	3.57700E+000	9	...........
	112	1.50667	7.79146E-002	-3.98930E-004	0.00000E+000	-3.10825E-005	-2.40040E-001	7.79175E-002	3.57700E+000	9	...........
	113	1.52	7.36691E-002	-3.98591E-004	0.00000E+000	-2.93638E-005	-2.40040E-001	7.36801E-002	3.57700E+000	9	...........
	114	1.53333	6.94769E-002	-3.98924E-004	0.00000E+000	-2.77160E-005	-2.40040E-001	6.94844E-002	3.57700E+000	9	...........
	115	1.54667	6.52896E-002	-3.98349E-004	0.00000E+000	-2.60080E-005	-2.40040E-001	6.52957E-002	3.57700E+000	9	...........
	116	1.56	6.10475E-002	-4.00506E-004	0.00000E+000	-2.44498E-005	-2.40040E-001	6.10537E-002	3.57700E+000	9	...........
	117	1.57333	5.68117E-002	-3.97810E-004	0.00000E+000	-2.26003E-005	-2.40040E-001	5.68209E-002	3.57700E+000	9	...........
	118	1.58667	5.26933E-002	-3.97906E-004	0.00000E+000	-2.09670E-005	-2.40040E-001	5.26966E-002	3.57700E+000	9	...........
	119	1.6	4.85817E-002	-4.00271E-004	0.00000E+000	-1.94458E-005	-2.40040E-001	4.85893E-002	3.57700E+000	9	...........
	120	1.61333	4.43736E-002	-3.99576E-004	0.00000E+000	-1.77306E-005	-2.40040E-001	4.43791E-002	3.57700E+000	9	...........
	121	1.62667	4.02268E-002	-3.98875E-004	0.00000E+000	-1.60455E-005	-2.40040E-001	4.02339E-002	3.57700E+000	9	...........
	122	1.64	3.61097E-002	-3.97735E-004	0.00000E+000	-1.43621E-005	-2.40040E-001	3.61106E-002	3.57700E+000	9	...........
	123	1.65333	3.20208E-002	-3.98416E-004	0.00000E+000	-1.27576E-005	-2.40040E-001	3.20193E-002	3.57700E+000	9	...........
	124	1.66667	2.79262E-002	-3.98327E-004	0.00000E+000	-1.11238E-005	-2.40040E-001	2.79256E-002	3.57700E+000	9	...........
	125	1.68	2.38648E-002	-3.98026E-004	0.00000E+000	-9.49882E-006	-2.40040E-001	2.38537E-002	3.57700E+000	9	...........
	126	1.69333	1.98342E-002	-3.99561E-004	0.00000E+000	-7.92498E-006	-2.40040E-001	1.98297E-002	3.57700E+000	9	...........
	127	1.70667	1.58286E-002	-3.98816E-004	0.00000E+000	-6.31270E-006	-2.40040E-001	1.58173E-002	3.57700E+000	9	...........
	128	1.72	1.17973E-002	-3.97982E-004	0.00000E+000	-4.69513E-006	-2.40040E-001	1.17842E-002	3.57700E+000	9	...........
	129	1.73333	7.77233E-003	-3.98221E-004	0.00000E+000	-3.09510E-006	-2.40040E-001	7.75615E-003	3.57700E+000	9	...........
	130	1.74667	3.82974E-003	-3.99735E-004	0.00000E+000	-1.53088E-006	-2.40040E-001	3.81299E-003	3.57700E+000	9	...........
	131	1.755	6.31682E-004	-3.99526E-004	0.00000E+000	-2.52374E-007	-2.40040E-001	6.12557E-004	3.57700E+000	9	...........
STARTTIMEOFFSET	QUANT	300.2633	Start Time Offset (s)
