EXPLAIN
TAG	PWR800_DISCHARGE
TITLE	LABEL	PWR Cyclic Charge Discharge (Cell) - Discharge Step	Test &Identifier
DATE	LABEL	12-7-2017	Date
TIME	LABEL	15:07:57	Time
NOTES	NOTES	3	&Notes...
	supercap test cell
	0.4mg
	6M KOH
PSTAT	PSTAT	IFC5000-01520	Potentiostat
CAPACITY	QUANT	1.00000E-003	Capacity (A-hr)
CELLTYPE	SELECTOR	1	&Cell Type
WORKINGCONNECTION	SELECTOR	0	&Working Lead
MAXDISCHARGETIME	VARIABLEANDUNITS	1.00000E+002	s	1.00000E+002	second(s)	Max &Discharge Time
DISCHARGEMODE	MULTIPARAM	0	4.00000E-004	&Discharge Mode	Constant Current	Amp(s)
SAMPLETIME	QUANT	1.00000E-002	Sa&mple Period (s)
DISCHARGESTOPAT1	MULTIPARAM	3	0.00000E+000	Discharge Stop At &1	Voltage < Limit	V
DISCHARGESTOPAT2	MULTIPARAM	0	0.00000E+000	Discharge Stop At &2	None	N/A
AESBHCSELECTOR	TOGGLE	F	Save Both Half Cells
IRCOMP	TOGGLE	F	IR &Measure
EOC	QUANT	0	Open Circuit (V)
SEQUENCER	TOGGLE	TRUE	Run as Sequence
PSTATMODEL	IQUANT	53	Pstat Model
PSTATSECTION	LABEL	IFC5000-01520	Pstat Section
PSTATSERIALNO	LABEL	01520	Pstat Serial Number
CTRLMODE	IQUANT	0	Control Mode
ELECTROMETER	IQUANT	1	RE=0 or CS=1
IESTAB	IQUANT	0	I/E Stability
CASPEED	IQUANT	4	Control Amp Speed
CONVENTION	IQUANT	1	Current Convention
ICHRANGE	IQUANT	2	Ich Range
ICHRANGEMODE	TOGGLE	T	Ich Auto Range
ICHOFFSETENABLE	TOGGLE	F	Ich Offset Enable
ICHOFFSET	QUANT	0	Ich Offset (V)
ICHFILTER	IQUANT	1	Ich Filter
VCHRANGE	IQUANT	2	Vch Range
VCHRANGEMODE	TOGGLE	T	Vch Auto Range
VCHOFFSETENABLE	TOGGLE	F	Vch Offset Enable
VCHOFFSET	QUANT	0	Vch Offset (V)
VCHFILTER	IQUANT	1	Vch Filter
IERANGELOWERLIMIT	IQUANT	9	I/E Range Lower Limit
IERANGEMODE	TOGGLE	F	I/E AutoRange
IERANGE	IQUANT	9	I/E Range
ACHSELECT	IQUANT	1	Ach Select
ACHRANGE	IQUANT	2	Ach Range
ACHOFFSETENABLE	TOGGLE	F	Ach Offset Enable
ACHOFFSET	QUANT	0	Ach Offset (V)
ACHFILTER	IQUANT	1	Ach Filter
CABLEID	IQUANT	14	Cable ID
DCCALDATE	LABEL	5-7-2017	DC Calibration Date
ACCALDATE	LABEL	12/3/2015	AC Calibration Date
FRAMEWORKVERSION	QUANT	7.01	Framework Version
INSTRUMENTVERSION	LABEL	4.00	Instrument Version
CURVE	TABLE	106
	Pt	T	Vf	Im	Vu	Pwr	Sig	Ach	Temp	IERange	Over
	#	s	V	A	V	W	V	V	deg C	#	bits
	0	0.013333	6.89405E-001	-3.98693E-004	0.00000E+000	-2.74861E-004	-2.40040E-001	6.89630E-001	3.57700E+000	9	...........
	1	0.026667	6.76169E-001	-3.99070E-004	0.00000E+000	-2.69839E-004	-2.40040E-001	6.76379E-001	3.57700E+000	9	...........
	2	0.04	6.64593E-001	-3.99680E-004	0.00000E+000	-2.65625E-004	-2.40040E-001	6.64802E-001	3.57700E+000	9	...........
	3	0.053333	6.54006E-001	-3.99614E-004	0.00000E+000	-2.61350E-004	-2.40040E-001	6.54211E-001	3.57700E+000	9	...........
	4	0.066667	6.43986E-001	-3.98727E-004	0.00000E+000	-2.56775E-004	-2.40040E-001	6.44199E-001	3.57700E+000	9	...........
	5	0.08	6.34426E-001	-3.99159E-004	0.00000E+000	-2.53237E-004	-2.40040E-001	6.34642E-001	3.57700E+000	9	...........
	6	0.093333	6.25291E-001	-3.98335E-004	0.00000E+000	-2.49076E-004	-2.40040E-001	6.25488E-001	3.57700E+000	9	...........
	7	0.106667	6.16314E-001	-3.99954E-004	0.00000E+000	-2.46498E-004	-2.40040E-001	6.16523E-001	3.57700E+000	9	...........
	8	0.12	6.07567E-001	-3.99067E-004	0.00000E+000	-2.42460E-004	-2.40040E-001	6.07805E-001	3.57700E+000	9	...........
	9	0.133333	5.99034E-001	-3.98860E-004	0.00000E+000	-2.38931E-004	-2.40040E-001	5.99267E-001	3.57700E+000	9	...........
	10	0.146667	5.90546E-001	-3.99259E-004	0.00000E+000	-2.35781E-004	-2.40040E-001	5.90780E-001	3.57700E+000	9	...........
	11	0.16	5.82135E-001	-3.98210E-004	0.00000E+000	-2.31812E-004	-2.40040E-001	5.82333E-001	3.57700E+000	9	...........
	12	0.173333	5.73900E-001	-3.99640E-004	0.00000E+000	-2.29353E-004	-2.40040E-001	5.74078E-001	3.57700E+000	9	...........
	13	0.186667	5.65787E-001	-3.97696E-004	0.00000E+000	-2.25011E-004	-2.40040E-001	5.65962E-001	3.57700E+000	9	...........
	14	0.2	5.57667E-001	-3.98200E-004	0.00000E+000	-2.22063E-004	-2.40040E-001	5.57846E-001	3.57700E+000	9	...........
	15	0.213333	5.49613E-001	-3.99157E-004	0.00000E+000	-2.19382E-004	-2.40040E-001	5.49777E-001	3.57700E+000	9	...........
	16	0.226667	5.41712E-001	-3.98343E-004	0.00000E+000	-2.15787E-004	-2.40040E-001	5.41865E-001	3.57700E+000	9	...........
	17	0.24	5.33799E-001	-3.98120E-004	0.00000E+000	-2.12516E-004	-2.40040E-001	5.33950E-001	3.57700E+000	9	...........
	18	0.253333	5.25915E-001	-3.99374E-004	0.00000E+000	-2.10037E-004	-2.40040E-001	5.26077E-001	3.57700E+000	9	...........
	19	0.266667	5.18145E-001	-4.00217E-004	0.00000E+000	-2.07371E-004	-2.40040E-001	5.18315E-001	3.57700E+000	9	...........
	20	0.28	5.10378E-001	-3.98303E-004	0.00000E+000	-2.03285E-004	-2.40040E-001	5.10563E-001	3.57700E+000	9	...........
	21	0.293333	5.02548E-001	-3.98673E-004	0.00000E+000	-2.00352E-004	-2.40040E-001	5.02745E-001	3.57700E+000	9	...........
	22	0.306667	4.94919E-001	-3.98481E-004	0.00000E+000	-1.97216E-004	-2.40040E-001	4.95120E-001	3.57700E+000	9	...........
	23	0.32	4.87340E-001	-3.98525E-004	0.00000E+000	-1.94217E-004	-2.40040E-001	4.87526E-001	3.57700E+000	9	...........
	24	0.333333	4.79976E-001	-3.98724E-004	0.00000E+000	-1.91378E-004	-2.40040E-001	4.80074E-001	3.57700E+000	9	...........
	25	0.346667	4.72437E-001	-3.98986E-004	0.00000E+000	-1.88496E-004	-2.40040E-001	4.72528E-001	3.57700E+000	9	...........
	26	0.36	4.64893E-001	-3.98449E-004	0.00000E+000	-1.85236E-004	-2.40040E-001	4.64987E-001	3.57700E+000	9	...........
	27	0.373333	4.57517E-001	-3.98247E-004	0.00000E+000	-1.82205E-004	-2.40040E-001	4.57610E-001	3.57700E+000	9	...........
	28	0.386667	4.50144E-001	-3.99964E-004	0.00000E+000	-1.80041E-004	-2.40040E-001	4.50235E-001	3.57700E+000	9	...........
	29	0.4	4.42810E-001	-3.98433E-004	0.00000E+000	-1.76430E-004	-2.40040E-001	4.42898E-001	3.57700E+000	9	...........
	30	0.413333	4.35566E-001	-3.97858E-004	0.00000E+000	-1.73293E-004	-2.40040E-001	4.35657E-001	3.57700E+000	9	...........
	31	0.426667	4.28339E-001	-3.98575E-004	0.00000E+000	-1.70725E-004	-2.40040E-001	4.28426E-001	3.57700E+000	9	...........
	32	0.44	4.21099E-001	-3.98704E-004	0.00000E+000	-1.67894E-004	-2.40040E-001	4.21184E-001	3.57700E+000	9	...........
	33	0.453333	4.13928E-001	-3.99182E-004	0.00000E+000	-1.65233E-004	-2.40040E-001	4.14007E-001	3.57700E+000	9	...........
	34	0.466667	4.06751E-001	-3.99849E-004	0.00000E+000	-1.62639E-004	-2.40040E-001	4.06830E-001	3.57700E+000	9	...........
	35	0.48	3.99600E-001	-3.97543E-004	0.00000E+000	-1.58858E-004	-2.40040E-001	3.99672E-001	3.57700E+000	9	...........
	36	0.493333	3.92509E-001	-3.98890E-004	0.00000E+000	-1.56568E-004	-2.40040E-001	3.92586E-001	3.57700E+000	9	...........
	37	0.506667	3.85508E-001	-3.99821E-004	0.00000E+000	-1.54134E-004	-2.40040E-001	3.85581E-001	3.57700E+000	9	...........
	38	0.52	3.78517E-001	-3.99303E-004	0.00000E+000	-1.51143E-004	-2.40040E-001	3.78588E-001	3.57669E+000	9	...........
	39	0.533333	3.71517E-001	-3.99859E-004	0.00000E+000	-1.48554E-004	-2.40040E-001	3.71582E-001	3.57650E+000	9	...........
	40	0.546667	3.64726E-001	-3.99508E-004	0.00000E+000	-1.45711E-004	-2.40040E-001	3.64794E-001	3.57650E+000	9	...........
	41	0.56	3.57915E-001	-3.98680E-004	0.00000E+000	-1.42693E-004	-2.40040E-001	3.57979E-001	3.57650E+000	9	...........
	42	0.573333	3.51168E-001	-4.00760E-004	0.00000E+000	-1.40734E-004	-2.40040E-001	3.51234E-001	3.57650E+000	9	...........
	43	0.586667	3.44350E-001	-3.99109E-004	0.00000E+000	-1.37433E-004	-2.40040E-001	3.44417E-001	3.57650E+000	9	...........
	44	0.6	3.37566E-001	-3.98278E-004	0.00000E+000	-1.34445E-004	-2.40040E-001	3.37635E-001	3.57650E+000	9	...........
	45	0.613333	3.30852E-001	-3.99795E-004	0.00000E+000	-1.32273E-004	-2.40040E-001	3.30914E-001	3.57650E+000	9	...........
	46	0.626667	3.24235E-001	-3.99602E-004	0.00000E+000	-1.29565E-004	-2.40040E-001	3.24302E-001	3.57650E+000	9	...........
	47	0.64	3.17717E-001	-3.98950E-004	0.00000E+000	-1.26753E-004	-2.40040E-001	3.17776E-001	3.57650E+000	9	...........
	48	0.653333	3.11152E-001	-3.99004E-004	0.00000E+000	-1.24151E-004	-2.40040E-001	3.11213E-001	3.57650E+000	9	...........
	49	0.666667	3.04692E-001	-3.99294E-004	0.00000E+000	-1.21662E-004	-2.40040E-001	3.04751E-001	3.57650E+000	9	...........
	50	0.68	2.98263E-001	-3.98397E-004	0.00000E+000	-1.18827E-004	-2.40040E-001	2.98321E-001	3.57650E+000	9	...........
	51	0.693333	2.91830E-001	-3.98869E-004	0.00000E+000	-1.16402E-004	-2.40040E-001	2.91884E-001	3.57650E+000	9	...........
	52	0.706667	2.85386E-001	-3.98657E-004	0.00000E+000	-1.13771E-004	-2.40040E-001	2.85439E-001	3.57650E+000	9	...........
	53	0.72	2.79165E-001	-3.98597E-004	0.00000E+000	-1.11274E-004	-2.40040E-001	2.79222E-001	3.57650E+000	9	...........
	54	0.733333	2.72872E-001	-3.99246E-004	0.00000E+000	-1.08943E-004	-2.40040E-001	2.72925E-001	3.57650E+000	9	...........
	55	0.746667	2.66644E-001	-3.98674E-004	0.00000E+000	-1.06304E-004	-2.40040E-001	2.66701E-001	3.57650E+000	9	...........
	56	0.76	2.60445E-001	-3.97612E-004	0.00000E+000	-1.03556E-004	-2.40040E-001	2.60494E-001	3.57650E+000	9	...........
	57	0.773333	2.54241E-001	-3.97951E-004	0.00000E+000	-1.01175E-004	-2.40040E-001	2.54286E-001	3.57650E+000	9	...........
	58	0.786667	2.48087E-001	-3.99165E-004	0.00000E+000	-9.90275E-005	-2.40040E-001	2.48132E-001	3.57650E+000	9	...........
	59	0.8	2.42067E-001	-3.99116E-004	0.00000E+000	-9.66127E-005	-2.40040E-001	2.42113E-001	3.57650E+000	9	...........
	60	0.813333	2.36101E-001	-3.98976E-004	0.00000E+000	-9.41987E-005	-2.40040E-001	2.36144E-001	3.57650E+000	9	...........
	61	0.826667	2.30072E-001	-3.99906E-004	0.00000E+000	-9.20074E-005	-2.40040E-001	2.30107E-001	3.57650E+000	9	...........
	62	0.84	2.24092E-001	-3.99033E-004	0.00000E+000	-8.94203E-005	-2.40040E-001	2.24128E-001	3.57650E+000	9	...........
	63	0.853333	2.18169E-001	-3.99912E-004	0.00000E+000	-8.72483E-005	-2.40040E-001	2.18211E-001	3.57650E+000	9	...........
	64	0.866667	2.12235E-001	-3.98642E-004	0.00000E+000	-8.46056E-005	-2.40040E-001	2.12269E-001	3.57650E+000	9	...........
	65	0.88	2.06327E-001	-3.98835E-004	0.00000E+000	-8.22905E-005	-2.40040E-001	2.06364E-001	3.57650E+000	9	...........
	66	0.893333	2.00462E-001	-3.98853E-004	0.00000E+000	-7.99549E-005	-2.40040E-001	2.00500E-001	3.57650E+000	9	...........
	67	0.906667	1.94707E-001	-3.98819E-004	0.00000E+000	-7.76527E-005	-2.40040E-001	1.94740E-001	3.57650E+000	9	...........
	68	0.92	1.89007E-001	-3.98254E-004	0.00000E+000	-7.52728E-005	-2.40040E-001	1.89038E-001	3.57650E+000	9	...........
	69	0.933333	1.83306E-001	-3.98924E-004	0.00000E+000	-7.31253E-005	-2.40040E-001	1.83330E-001	3.57650E+000	9	...........
	70	0.946667	1.77638E-001	-3.98833E-004	0.00000E+000	-7.08481E-005	-2.40040E-001	1.77672E-001	3.57650E+000	9	...........
	71	0.96	1.71984E-001	-3.98397E-004	0.00000E+000	-6.85180E-005	-2.40040E-001	1.72019E-001	3.57650E+000	9	...........
	72	0.97333	1.66470E-001	-3.98743E-004	0.00000E+000	-6.63785E-005	-2.40040E-001	1.66503E-001	3.57650E+000	9	...........
	73	0.98667	1.60893E-001	-3.99050E-004	0.00000E+000	-6.42042E-005	-2.40040E-001	1.60919E-001	3.57650E+000	9	...........
	74	1	1.55323E-001	-3.98215E-004	0.00000E+000	-6.18520E-005	-2.40040E-001	1.55351E-001	3.57650E+000	9	...........
	75	1.01333	1.49851E-001	-3.97297E-004	0.00000E+000	-5.95353E-005	-2.40040E-001	1.49874E-001	3.57650E+000	9	...........
	76	1.02667	1.44349E-001	-3.99067E-004	0.00000E+000	-5.76048E-005	-2.40040E-001	1.44375E-001	3.57650E+000	9	...........
	77	1.04	1.38989E-001	-3.99054E-004	0.00000E+000	-5.54642E-005	-2.40040E-001	1.39009E-001	3.57650E+000	9	...........
	78	1.05333	1.33777E-001	-3.99404E-004	0.00000E+000	-5.34310E-005	-2.40040E-001	1.33803E-001	3.57650E+000	9	...........
	79	1.06667	1.28373E-001	-3.99082E-004	0.00000E+000	-5.12313E-005	-2.40040E-001	1.28398E-001	3.57650E+000	9	...........
	80	1.08	1.22989E-001	-3.98452E-004	0.00000E+000	-4.90052E-005	-2.40040E-001	1.23009E-001	3.57650E+000	9	...........
	81	1.09333	1.17748E-001	-3.99214E-004	0.00000E+000	-4.70065E-005	-2.40040E-001	1.17768E-001	3.57650E+000	9	...........
	82	1.10667	1.12552E-001	-3.98961E-004	0.00000E+000	-4.49039E-005	-2.40040E-001	1.12579E-001	3.57650E+000	9	...........
	83	1.12	1.07328E-001	-3.97850E-004	0.00000E+000	-4.27004E-005	-2.40040E-001	1.07346E-001	3.57650E+000	9	...........
	84	1.13333	1.02132E-001	-3.98830E-004	0.00000E+000	-4.07333E-005	-2.40040E-001	1.02154E-001	3.57650E+000	9	...........
	85	1.14667	9.69858E-002	-3.99265E-004	0.00000E+000	-3.87230E-005	-2.40040E-001	9.70026E-002	3.57650E+000	9	...........
	86	1.16	9.19484E-002	-3.97997E-004	0.00000E+000	-3.65952E-005	-2.40040E-001	9.19630E-002	3.57650E+000	9	...........
	87	1.17333	8.68843E-002	-3.98755E-004	0.00000E+000	-3.46455E-005	-2.40040E-001	8.68981E-002	3.57650E+000	9	...........
	88	1.18667	8.18170E-002	-3.98607E-004	0.00000E+000	-3.26128E-005	-2.40040E-001	8.18272E-002	3.57650E+000	9	...........
	89	1.2	7.67711E-002	-3.98494E-004	0.00000E+000	-3.05928E-005	-2.40040E-001	7.67813E-002	3.57650E+000	9	...........
	90	1.21333	7.17297E-002	-3.98727E-004	0.00000E+000	-2.86006E-005	-2.40040E-001	7.17355E-002	3.57650E+000	9	...........
	91	1.22667	6.67803E-002	-3.99490E-004	0.00000E+000	-2.66781E-005	-2.40040E-001	6.67836E-002	3.57650E+000	9	...........
	92	1.24	6.18710E-002	-3.99577E-004	0.00000E+000	-2.47223E-005	-2.40040E-001	6.18745E-002	3.57650E+000	9	...........
	93	1.25333	5.70853E-002	-3.98398E-004	0.00000E+000	-2.27427E-005	-2.40040E-001	5.70805E-002	3.57650E+000	9	...........
	94	1.26667	5.22562E-002	-3.98065E-004	0.00000E+000	-2.08014E-005	-2.40040E-001	5.22513E-002	3.57650E+000	9	...........
	95	1.28	4.74348E-002	-3.97557E-004	0.00000E+000	-1.88580E-005	-2.40040E-001	4.74350E-002	3.57650E+000	9	...........
	96	1.29333	4.27518E-002	-3.98440E-004	0.00000E+000	-1.70340E-005	-2.40040E-001	4.27569E-002	3.57650E+000	9	...........
	97	1.30667	3.79915E-002	-4.00094E-004	0.00000E+000	-1.52002E-005	-2.40040E-001	3.79924E-002	3.57650E+000	9	...........
	98	1.32	3.32105E-002	-3.98418E-004	0.00000E+000	-1.32316E-005	-2.40040E-001	3.32069E-002	3.57650E+000	9	...........
	99	1.33333	2.85365E-002	-3.98605E-004	0.00000E+000	-1.13748E-005	-2.40040E-001	2.85276E-002	3.57650E+000	9	...........
	100	1.34667	2.38901E-002	-3.99596E-004	0.00000E+000	-9.54641E-006	-2.40040E-001	2.38867E-002	3.57650E+000	9	...........
	101	1.36	1.92222E-002	-3.99068E-004	0.00000E+000	-7.67095E-006	-2.40040E-001	1.92138E-002	3.57650E+000	9	...........
	102	1.37333	1.46479E-002	-3.98791E-004	0.00000E+000	-5.84144E-006	-2.40040E-001	1.46321E-002	3.57650E+000	9	...........
	103	1.38667	1.01268E-002	-3.99545E-004	0.00000E+000	-4.04610E-006	-2.40040E-001	1.01134E-002	3.57650E+000	9	...........
	104	1.4	5.56557E-003	-3.99215E-004	0.00000E+000	-2.22186E-006	-2.40040E-001	5.54356E-003	3.57650E+000	9	...........
	105	1.41167	1.26808E-003	-3.99600E-004	0.00000E+000	-5.06724E-007	-2.40040E-001	1.24637E-003	3.57650E+000	9	...........
STARTTIMEOFFSET	QUANT	2344.464	Start Time Offset (s)
