EXPLAIN
TAG	PWR800_DISCHARGE
TITLE	LABEL	PWR Cyclic Charge Discharge (Cell) - Discharge Step	Test &Identifier
DATE	LABEL	12-7-2017	Date
TIME	LABEL	15:15:09	Time
NOTES	NOTES	3	&Notes...
	supercap test cell
	0.4mg
	6M KOH
PSTAT	PSTAT	IFC5000-01520	Potentiostat
CAPACITY	QUANT	1.00000E-003	Capacity (A-hr)
CELLTYPE	SELECTOR	1	&Cell Type
WORKINGCONNECTION	SELECTOR	0	&Working Lead
MAXDISCHARGETIME	VARIABLEANDUNITS	1.00000E+002	s	1.00000E+002	second(s)	Max &Discharge Time
DISCHARGEMODE	MULTIPARAM	0	4.00000E-004	&Discharge Mode	Constant Current	Amp(s)
SAMPLETIME	QUANT	1.00000E-002	Sa&mple Period (s)
DISCHARGESTOPAT1	MULTIPARAM	3	0.00000E+000	Discharge Stop At &1	Voltage < Limit	V
DISCHARGESTOPAT2	MULTIPARAM	0	0.00000E+000	Discharge Stop At &2	None	N/A
AESBHCSELECTOR	TOGGLE	F	Save Both Half Cells
IRCOMP	TOGGLE	F	IR &Measure
EOC	QUANT	0	Open Circuit (V)
SEQUENCER	TOGGLE	TRUE	Run as Sequence
PSTATMODEL	IQUANT	53	Pstat Model
PSTATSECTION	LABEL	IFC5000-01520	Pstat Section
PSTATSERIALNO	LABEL	01520	Pstat Serial Number
CTRLMODE	IQUANT	0	Control Mode
ELECTROMETER	IQUANT	1	RE=0 or CS=1
IESTAB	IQUANT	0	I/E Stability
CASPEED	IQUANT	4	Control Amp Speed
CONVENTION	IQUANT	1	Current Convention
ICHRANGE	IQUANT	2	Ich Range
ICHRANGEMODE	TOGGLE	T	Ich Auto Range
ICHOFFSETENABLE	TOGGLE	F	Ich Offset Enable
ICHOFFSET	QUANT	0	Ich Offset (V)
ICHFILTER	IQUANT	1	Ich Filter
VCHRANGE	IQUANT	2	Vch Range
VCHRANGEMODE	TOGGLE	T	Vch Auto Range
VCHOFFSETENABLE	TOGGLE	F	Vch Offset Enable
VCHOFFSET	QUANT	0	Vch Offset (V)
VCHFILTER	IQUANT	1	Vch Filter
IERANGELOWERLIMIT	IQUANT	9	I/E Range Lower Limit
IERANGEMODE	TOGGLE	F	I/E AutoRange
IERANGE	IQUANT	9	I/E Range
ACHSELECT	IQUANT	1	Ach Select
ACHRANGE	IQUANT	2	Ach Range
ACHOFFSETENABLE	TOGGLE	F	Ach Offset Enable
ACHOFFSET	QUANT	0	Ach Offset (V)
ACHFILTER	IQUANT	1	Ach Filter
CABLEID	IQUANT	14	Cable ID
DCCALDATE	LABEL	5-7-2017	DC Calibration Date
ACCALDATE	LABEL	12/3/2015	AC Calibration Date
FRAMEWORKVERSION	QUANT	7.01	Framework Version
INSTRUMENTVERSION	LABEL	4.00	Instrument Version
CURVE	TABLE	104
	Pt	T	Vf	Im	Vu	Pwr	Sig	Ach	Temp	IERange	Over
	#	s	V	A	V	W	V	V	deg C	#	bits
	0	0.013333	6.85504E-001	-3.98038E-004	0.00000E+000	-2.72857E-004	-2.40040E-001	6.85740E-001	3.57690E+000	9	...........
	1	0.026667	6.71917E-001	-3.99190E-004	0.00000E+000	-2.68222E-004	-2.40040E-001	6.72165E-001	3.57690E+000	9	...........
	2	0.04	6.60019E-001	-3.98164E-004	0.00000E+000	-2.62796E-004	-2.40040E-001	6.60262E-001	3.57690E+000	9	...........
	3	0.053333	6.49128E-001	-3.99007E-004	0.00000E+000	-2.59007E-004	-2.40040E-001	6.49357E-001	3.57690E+000	9	...........
	4	0.066667	6.38986E-001	-3.98177E-004	0.00000E+000	-2.54430E-004	-2.40040E-001	6.39217E-001	3.57690E+000	9	...........
	5	0.08	6.29340E-001	-3.99508E-004	0.00000E+000	-2.51427E-004	-2.40040E-001	6.29561E-001	3.57690E+000	9	...........
	6	0.093333	6.19946E-001	-3.98486E-004	0.00000E+000	-2.47040E-004	-2.40040E-001	6.20173E-001	3.57690E+000	9	...........
	7	0.106667	6.10787E-001	-3.97400E-004	0.00000E+000	-2.42727E-004	-2.40040E-001	6.11033E-001	3.57690E+000	9	...........
	8	0.12	6.01928E-001	-3.98458E-004	0.00000E+000	-2.39843E-004	-2.40040E-001	6.02165E-001	3.57690E+000	9	...........
	9	0.133333	5.93236E-001	-3.97861E-004	0.00000E+000	-2.36025E-004	-2.40040E-001	5.93472E-001	3.57690E+000	9	...........
	10	0.146667	5.84567E-001	-3.98105E-004	0.00000E+000	-2.32719E-004	-2.40040E-001	5.84791E-001	3.57690E+000	9	...........
	11	0.16	5.76071E-001	-3.98570E-004	0.00000E+000	-2.29604E-004	-2.40040E-001	5.76282E-001	3.57690E+000	9	...........
	12	0.173333	5.67641E-001	-3.98845E-004	0.00000E+000	-2.26401E-004	-2.40040E-001	5.67872E-001	3.57690E+000	9	...........
	13	0.186667	5.59329E-001	-3.99049E-004	0.00000E+000	-2.23200E-004	-2.40040E-001	5.59550E-001	3.57690E+000	9	...........
	14	0.2	5.51130E-001	-3.98679E-004	0.00000E+000	-2.19724E-004	-2.40040E-001	5.51325E-001	3.57690E+000	9	...........
	15	0.213333	5.42980E-001	-3.99045E-004	0.00000E+000	-2.16673E-004	-2.40040E-001	5.43167E-001	3.57690E+000	9	...........
	16	0.226667	5.34843E-001	-3.98408E-004	0.00000E+000	-2.13086E-004	-2.40040E-001	5.35042E-001	3.57690E+000	9	...........
	17	0.24	5.26896E-001	-3.98210E-004	0.00000E+000	-2.09815E-004	-2.40040E-001	5.27067E-001	3.57690E+000	9	...........
	18	0.253333	5.18932E-001	-3.98624E-004	0.00000E+000	-2.06859E-004	-2.40040E-001	5.19100E-001	3.57690E+000	9	...........
	19	0.266667	5.11060E-001	-3.98787E-004	0.00000E+000	-2.03804E-004	-2.40040E-001	5.11231E-001	3.57690E+000	9	...........
	20	0.28	5.03226E-001	-3.97570E-004	0.00000E+000	-2.00067E-004	-2.40040E-001	5.03396E-001	3.57690E+000	9	...........
	21	0.293333	4.95446E-001	-3.98333E-004	0.00000E+000	-1.97353E-004	-2.40040E-001	4.95635E-001	3.57690E+000	9	...........
	22	0.306667	4.87766E-001	-3.98495E-004	0.00000E+000	-1.94372E-004	-2.40040E-001	4.87911E-001	3.57690E+000	9	...........
	23	0.32	4.80285E-001	-3.99029E-004	0.00000E+000	-1.91648E-004	-2.40040E-001	4.80379E-001	3.57690E+000	9	...........
	24	0.333333	4.72638E-001	-4.00027E-004	0.00000E+000	-1.89068E-004	-2.40040E-001	4.72729E-001	3.57690E+000	9	...........
	25	0.346667	4.64879E-001	-3.98048E-004	0.00000E+000	-1.85044E-004	-2.40040E-001	4.64975E-001	3.57700E+000	9	...........
	26	0.36	4.57300E-001	-3.98808E-004	0.00000E+000	-1.82375E-004	-2.40040E-001	4.57395E-001	3.57710E+000	9	...........
	27	0.373333	4.49854E-001	-3.98342E-004	0.00000E+000	-1.79196E-004	-2.40040E-001	4.49949E-001	3.57710E+000	9	...........
	28	0.386667	4.42373E-001	-3.99719E-004	0.00000E+000	-1.76825E-004	-2.40040E-001	4.42465E-001	3.57710E+000	9	...........
	29	0.4	4.34979E-001	-3.98619E-004	0.00000E+000	-1.73391E-004	-2.40040E-001	4.35067E-001	3.57710E+000	9	...........
	30	0.413333	4.27583E-001	-3.98610E-004	0.00000E+000	-1.70439E-004	-2.40040E-001	4.27674E-001	3.57710E+000	9	...........
	31	0.426667	4.20227E-001	-3.97548E-004	0.00000E+000	-1.67060E-004	-2.40040E-001	4.20313E-001	3.57710E+000	9	...........
	32	0.44	4.13024E-001	-3.99200E-004	0.00000E+000	-1.64879E-004	-2.40040E-001	4.13104E-001	3.57710E+000	9	...........
	33	0.453333	4.05672E-001	-3.99823E-004	0.00000E+000	-1.62197E-004	-2.40040E-001	4.05750E-001	3.57710E+000	9	...........
	34	0.466667	3.98431E-001	-3.98027E-004	0.00000E+000	-1.58586E-004	-2.40040E-001	3.98507E-001	3.57710E+000	9	...........
	35	0.48	3.91270E-001	-3.99553E-004	0.00000E+000	-1.56333E-004	-2.40040E-001	3.91343E-001	3.57710E+000	9	...........
	36	0.493333	3.84119E-001	-3.98950E-004	0.00000E+000	-1.53244E-004	-2.40040E-001	3.84186E-001	3.57710E+000	9	...........
	37	0.506667	3.77068E-001	-3.98414E-004	0.00000E+000	-1.50229E-004	-2.40040E-001	3.77144E-001	3.57710E+000	9	...........
	38	0.52	3.70002E-001	-3.99069E-004	0.00000E+000	-1.47656E-004	-2.40040E-001	3.70071E-001	3.57710E+000	9	...........
	39	0.533333	3.63029E-001	-3.98578E-004	0.00000E+000	-1.44695E-004	-2.40040E-001	3.63096E-001	3.57710E+000	9	...........
	40	0.546667	3.56166E-001	-3.99529E-004	0.00000E+000	-1.42299E-004	-2.40040E-001	3.56232E-001	3.57710E+000	9	...........
	41	0.56	3.49220E-001	-3.99157E-004	0.00000E+000	-1.39394E-004	-2.40040E-001	3.49284E-001	3.57710E+000	9	...........
	42	0.573333	3.42314E-001	-3.99074E-004	0.00000E+000	-1.36609E-004	-2.40040E-001	3.42379E-001	3.57710E+000	9	...........
	43	0.586667	3.35518E-001	-3.99313E-004	0.00000E+000	-1.33976E-004	-2.40040E-001	3.35578E-001	3.57710E+000	9	...........
	44	0.6	3.28708E-001	-3.98477E-004	0.00000E+000	-1.30983E-004	-2.40040E-001	3.28771E-001	3.57710E+000	9	...........
	45	0.613333	3.21905E-001	-3.98683E-004	0.00000E+000	-1.28338E-004	-2.40040E-001	3.21965E-001	3.57710E+000	9	...........
	46	0.626667	3.15187E-001	-3.98367E-004	0.00000E+000	-1.25560E-004	-2.40040E-001	3.15245E-001	3.57710E+000	9	...........
	47	0.64	3.08526E-001	-3.97525E-004	0.00000E+000	-1.22647E-004	-2.40040E-001	3.08585E-001	3.57710E+000	9	...........
	48	0.653333	3.01928E-001	-3.99219E-004	0.00000E+000	-1.20536E-004	-2.40040E-001	3.01982E-001	3.57710E+000	9	...........
	49	0.666667	2.95279E-001	-3.99560E-004	0.00000E+000	-1.17982E-004	-2.40040E-001	2.95336E-001	3.57710E+000	9	...........
	50	0.68	2.88715E-001	-3.98905E-004	0.00000E+000	-1.15170E-004	-2.40040E-001	2.88772E-001	3.57710E+000	9	...........
	51	0.693333	2.82211E-001	-3.97814E-004	0.00000E+000	-1.12268E-004	-2.40040E-001	2.82268E-001	3.57710E+000	9	...........
	52	0.706667	2.75702E-001	-3.98368E-004	0.00000E+000	-1.09831E-004	-2.40040E-001	2.75754E-001	3.57710E+000	9	...........
	53	0.72	2.69266E-001	-4.00170E-004	0.00000E+000	-1.07752E-004	-2.40040E-001	2.69318E-001	3.57710E+000	9	...........
	54	0.733333	2.62873E-001	-3.99444E-004	0.00000E+000	-1.05003E-004	-2.40040E-001	2.62928E-001	3.57710E+000	9	...........
	55	0.746667	2.56580E-001	-3.98440E-004	0.00000E+000	-1.02231E-004	-2.40040E-001	2.56627E-001	3.57710E+000	9	...........
	56	0.76	2.50272E-001	-3.99571E-004	0.00000E+000	-1.00002E-004	-2.40040E-001	2.50326E-001	3.57710E+000	9	...........
	57	0.773333	2.44136E-001	-3.98509E-004	0.00000E+000	-9.72903E-005	-2.40040E-001	2.44176E-001	3.57710E+000	9	...........
	58	0.786667	2.37953E-001	-3.98563E-004	0.00000E+000	-9.48393E-005	-2.40040E-001	2.37993E-001	3.57710E+000	9	...........
	59	0.8	2.31785E-001	-3.99390E-004	0.00000E+000	-9.25725E-005	-2.40040E-001	2.31829E-001	3.57710E+000	9	...........
	60	0.813333	2.25755E-001	-3.97432E-004	0.00000E+000	-8.97221E-005	-2.40040E-001	2.25799E-001	3.57710E+000	9	...........
	61	0.826667	2.19676E-001	-3.98070E-004	0.00000E+000	-8.74462E-005	-2.40040E-001	2.19719E-001	3.57710E+000	9	...........
	62	0.84	2.13630E-001	-3.99352E-004	0.00000E+000	-8.53137E-005	-2.40040E-001	2.13674E-001	3.57710E+000	9	...........
	63	0.853333	2.07672E-001	-3.99238E-004	0.00000E+000	-8.29103E-005	-2.40040E-001	2.07702E-001	3.57710E+000	9	...........
	64	0.866667	2.01744E-001	-3.98829E-004	0.00000E+000	-8.04613E-005	-2.40040E-001	2.01776E-001	3.57710E+000	9	...........
	65	0.88	1.95828E-001	-3.99362E-004	0.00000E+000	-7.82061E-005	-2.40040E-001	1.95863E-001	3.57710E+000	9	...........
	66	0.893333	1.89941E-001	-3.98261E-004	0.00000E+000	-7.56461E-005	-2.40040E-001	1.89979E-001	3.57710E+000	9	...........
	67	0.906667	1.84207E-001	-3.99061E-004	0.00000E+000	-7.35100E-005	-2.40040E-001	1.84240E-001	3.57710E+000	9	...........
	68	0.92	1.78430E-001	-3.98771E-004	0.00000E+000	-7.11527E-005	-2.40040E-001	1.78466E-001	3.57710E+000	9	...........
	69	0.933333	1.72685E-001	-3.98581E-004	0.00000E+000	-6.88289E-005	-2.40040E-001	1.72719E-001	3.57710E+000	9	...........
	70	0.946667	1.66995E-001	-3.97825E-004	0.00000E+000	-6.64346E-005	-2.40040E-001	1.67028E-001	3.57710E+000	9	...........
	71	0.96	1.61408E-001	-3.98359E-004	0.00000E+000	-6.42983E-005	-2.40040E-001	1.61439E-001	3.57710E+000	9	...........
	72	0.97333	1.55764E-001	-3.99113E-004	0.00000E+000	-6.21673E-005	-2.40040E-001	1.55793E-001	3.57710E+000	9	...........
	73	0.98667	1.50182E-001	-4.00047E-004	0.00000E+000	-6.00799E-005	-2.40040E-001	1.50209E-001	3.57710E+000	9	...........
	74	1	1.44701E-001	-3.99374E-004	0.00000E+000	-5.77897E-005	-2.40040E-001	1.44719E-001	3.57710E+000	9	...........
	75	1.01333	1.39153E-001	-3.98239E-004	0.00000E+000	-5.54164E-005	-2.40040E-001	1.39172E-001	3.57710E+000	9	...........
	76	1.02667	1.33709E-001	-3.98831E-004	0.00000E+000	-5.33275E-005	-2.40040E-001	1.33730E-001	3.57710E+000	9	...........
	77	1.04	1.28302E-001	-3.98334E-004	0.00000E+000	-5.11073E-005	-2.40040E-001	1.28319E-001	3.57710E+000	9	...........
	78	1.05333	1.22892E-001	-3.97826E-004	0.00000E+000	-4.88898E-005	-2.40040E-001	1.22914E-001	3.57710E+000	9	...........
	79	1.06667	1.17529E-001	-3.99049E-004	0.00000E+000	-4.68998E-005	-2.40040E-001	1.17549E-001	3.57710E+000	9	...........
	80	1.08	1.12251E-001	-3.98660E-004	0.00000E+000	-4.47500E-005	-2.40040E-001	1.12275E-001	3.57710E+000	9	...........
	81	1.09333	1.06996E-001	-3.97551E-004	0.00000E+000	-4.25364E-005	-2.40040E-001	1.07011E-001	3.57710E+000	9	...........
	82	1.10667	1.01800E-001	-3.99188E-004	0.00000E+000	-4.06374E-005	-2.40040E-001	1.01824E-001	3.57710E+000	9	...........
	83	1.12	9.65034E-002	-3.98270E-004	0.00000E+000	-3.84344E-005	-2.40040E-001	9.65264E-002	3.57710E+000	9	...........
	84	1.13333	9.13428E-002	-3.98162E-004	0.00000E+000	-3.63692E-005	-2.40040E-001	9.13588E-002	3.57710E+000	9	...........
	85	1.14667	8.61890E-002	-3.98179E-004	0.00000E+000	-3.43187E-005	-2.40040E-001	8.62053E-002	3.57710E+000	9	...........
	86	1.16	8.10563E-002	-4.00721E-004	0.00000E+000	-3.24810E-005	-2.40040E-001	8.10713E-002	3.57710E+000	9	...........
	87	1.17333	7.60473E-002	-3.97314E-004	0.00000E+000	-3.02147E-005	-2.40040E-001	7.60594E-002	3.57710E+000	9	...........
	88	1.18667	7.10405E-002	-3.97938E-004	0.00000E+000	-2.82697E-005	-2.40040E-001	7.10472E-002	3.57710E+000	9	...........
	89	1.2	6.60194E-002	-3.98982E-004	0.00000E+000	-2.63406E-005	-2.40040E-001	6.60278E-002	3.57710E+000	9	...........
	90	1.21333	6.10557E-002	-3.98812E-004	0.00000E+000	-2.43498E-005	-2.40040E-001	6.10590E-002	3.57710E+000	9	...........
	91	1.22667	5.60609E-002	-4.00390E-004	0.00000E+000	-2.24462E-005	-2.40040E-001	5.60615E-002	3.57710E+000	9	...........
	92	1.24	5.12021E-002	-3.99105E-004	0.00000E+000	-2.04350E-005	-2.40040E-001	5.12000E-002	3.57710E+000	9	...........
	93	1.25333	4.63578E-002	-3.98807E-004	0.00000E+000	-1.84878E-005	-2.40040E-001	4.63608E-002	3.57710E+000	9	...........
	94	1.26667	4.15160E-002	-3.98044E-004	0.00000E+000	-1.65252E-005	-2.40040E-001	4.15229E-002	3.57710E+000	9	...........
	95	1.28	3.66749E-002	-3.99073E-004	0.00000E+000	-1.46360E-005	-2.40040E-001	3.66744E-002	3.57710E+000	9	...........
	96	1.29333	3.18596E-002	-3.99134E-004	0.00000E+000	-1.27163E-005	-2.40040E-001	3.18593E-002	3.57710E+000	9	...........
	97	1.30667	2.71485E-002	-3.99030E-004	0.00000E+000	-1.08331E-005	-2.40040E-001	2.71438E-002	3.57710E+000	9	...........
	98	1.32	2.24453E-002	-3.98220E-004	0.00000E+000	-8.93815E-006	-2.40040E-001	2.24340E-002	3.57710E+000	9	...........
	99	1.33333	1.77862E-002	-3.99122E-004	0.00000E+000	-7.09886E-006	-2.40040E-001	1.77696E-002	3.57710E+000	9	...........
	100	1.34667	1.30953E-002	-3.98672E-004	0.00000E+000	-5.22074E-006	-2.40040E-001	1.30810E-002	3.57740E+000	9	...........
	101	1.36	8.42687E-003	-3.99179E-004	0.00000E+000	-3.36383E-006	-2.40040E-001	8.40882E-003	3.57770E+000	9	...........
	102	1.37333	3.83643E-003	-3.97932E-004	0.00000E+000	-1.52664E-006	-2.40040E-001	3.81789E-003	3.57770E+000	9	...........
	103	1.38	3.93424E-004	-3.99044E-004	0.00000E+000	-1.56993E-007	-2.40040E-001	3.74416E-004	3.57770E+000	9	...........
STARTTIMEOFFSET	QUANT	2679.77	Start Time Offset (s)
