EXPLAIN
TAG	PWR800_DISCHARGE
TITLE	LABEL	PWR Cyclic Charge Discharge (Cell) - Discharge Step	Test &Identifier
DATE	LABEL	12-7-2017	Date
TIME	LABEL	14:54:56	Time
NOTES	NOTES	3	&Notes...
	supercap test cell
	0.4mg
	6M KOH
PSTAT	PSTAT	IFC5000-01520	Potentiostat
CAPACITY	QUANT	1.00000E-003	Capacity (A-hr)
CELLTYPE	SELECTOR	1	&Cell Type
WORKINGCONNECTION	SELECTOR	0	&Working Lead
MAXDISCHARGETIME	VARIABLEANDUNITS	1.00000E+002	s	1.00000E+002	second(s)	Max &Discharge Time
DISCHARGEMODE	MULTIPARAM	0	4.00000E-004	&Discharge Mode	Constant Current	Amp(s)
SAMPLETIME	QUANT	1.00000E-002	Sa&mple Period (s)
DISCHARGESTOPAT1	MULTIPARAM	3	0.00000E+000	Discharge Stop At &1	Voltage < Limit	V
DISCHARGESTOPAT2	MULTIPARAM	0	0.00000E+000	Discharge Stop At &2	None	N/A
AESBHCSELECTOR	TOGGLE	F	Save Both Half Cells
IRCOMP	TOGGLE	F	IR &Measure
EOC	QUANT	0	Open Circuit (V)
SEQUENCER	TOGGLE	TRUE	Run as Sequence
PSTATMODEL	IQUANT	53	Pstat Model
PSTATSECTION	LABEL	IFC5000-01520	Pstat Section
PSTATSERIALNO	LABEL	01520	Pstat Serial Number
CTRLMODE	IQUANT	0	Control Mode
ELECTROMETER	IQUANT	1	RE=0 or CS=1
IESTAB	IQUANT	0	I/E Stability
CASPEED	IQUANT	4	Control Amp Speed
CONVENTION	IQUANT	1	Current Convention
ICHRANGE	IQUANT	2	Ich Range
ICHRANGEMODE	TOGGLE	T	Ich Auto Range
ICHOFFSETENABLE	TOGGLE	F	Ich Offset Enable
ICHOFFSET	QUANT	0	Ich Offset (V)
ICHFILTER	IQUANT	1	Ich Filter
VCHRANGE	IQUANT	2	Vch Range
VCHRANGEMODE	TOGGLE	T	Vch Auto Range
VCHOFFSETENABLE	TOGGLE	F	Vch Offset Enable
VCHOFFSET	QUANT	0	Vch Offset (V)
VCHFILTER	IQUANT	1	Vch Filter
IERANGELOWERLIMIT	IQUANT	9	I/E Range Lower Limit
IERANGEMODE	TOGGLE	F	I/E AutoRange
IERANGE	IQUANT	9	I/E Range
ACHSELECT	IQUANT	1	Ach Select
ACHRANGE	IQUANT	2	Ach Range
ACHOFFSETENABLE	TOGGLE	F	Ach Offset Enable
ACHOFFSET	QUANT	0	Ach Offset (V)
ACHFILTER	IQUANT	1	Ach Filter
CABLEID	IQUANT	14	Cable ID
DCCALDATE	LABEL	5-7-2017	DC Calibration Date
ACCALDATE	LABEL	12/3/2015	AC Calibration Date
FRAMEWORKVERSION	QUANT	7.01	Framework Version
INSTRUMENTVERSION	LABEL	4.00	Instrument Version
CURVE	TABLE	111
	Pt	T	Vf	Im	Vu	Pwr	Sig	Ach	Temp	IERange	Over
	#	s	V	A	V	W	V	V	deg C	#	bits
	0	0.013333	6.97031E-001	-3.98648E-004	0.00000E+000	-2.77870E-004	-2.40040E-001	6.97269E-001	3.57680E+000	9	...........
	1	0.026667	6.84464E-001	-3.99045E-004	0.00000E+000	-2.73132E-004	-2.40040E-001	6.84717E-001	3.57680E+000	9	...........
	2	0.04	6.73432E-001	-4.00374E-004	0.00000E+000	-2.69625E-004	-2.40040E-001	6.73638E-001	3.57680E+000	9	...........
	3	0.053333	6.63269E-001	-3.98680E-004	0.00000E+000	-2.64432E-004	-2.40040E-001	6.63477E-001	3.57680E+000	9	...........
	4	0.066667	6.53728E-001	-3.98579E-004	0.00000E+000	-2.60562E-004	-2.40040E-001	6.53939E-001	3.57680E+000	9	...........
	5	0.08	6.44511E-001	-4.00117E-004	0.00000E+000	-2.57880E-004	-2.40040E-001	6.44736E-001	3.57680E+000	9	...........
	6	0.093333	6.35536E-001	-3.99202E-004	0.00000E+000	-2.53707E-004	-2.40040E-001	6.35713E-001	3.57680E+000	9	...........
	7	0.106667	6.26903E-001	-3.99859E-004	0.00000E+000	-2.50673E-004	-2.40040E-001	6.27106E-001	3.57680E+000	9	...........
	8	0.12	6.18418E-001	-3.97902E-004	0.00000E+000	-2.46069E-004	-2.40040E-001	6.18614E-001	3.57680E+000	9	...........
	9	0.133333	6.10052E-001	-3.99390E-004	0.00000E+000	-2.43648E-004	-2.40040E-001	6.10288E-001	3.57680E+000	9	...........
	10	0.146667	6.01853E-001	-3.98563E-004	0.00000E+000	-2.39876E-004	-2.40040E-001	6.02103E-001	3.57680E+000	9	...........
	11	0.16	5.93765E-001	-3.99001E-004	0.00000E+000	-2.36913E-004	-2.40040E-001	5.93993E-001	3.57680E+000	9	...........
	12	0.173333	5.85715E-001	-3.97570E-004	0.00000E+000	-2.32863E-004	-2.40040E-001	5.85925E-001	3.57680E+000	9	...........
	13	0.186667	5.77786E-001	-3.99077E-004	0.00000E+000	-2.30581E-004	-2.40040E-001	5.78018E-001	3.57680E+000	9	...........
	14	0.2	5.69950E-001	-3.99844E-004	0.00000E+000	-2.27891E-004	-2.40040E-001	5.70141E-001	3.57680E+000	9	...........
	15	0.213333	5.62154E-001	-3.99925E-004	0.00000E+000	-2.24820E-004	-2.40040E-001	5.62377E-001	3.57680E+000	9	...........
	16	0.226667	5.54444E-001	-3.98843E-004	0.00000E+000	-2.21136E-004	-2.40040E-001	5.54655E-001	3.57680E+000	9	...........
	17	0.24	5.46739E-001	-3.99071E-004	0.00000E+000	-2.18187E-004	-2.40040E-001	5.46934E-001	3.57680E+000	9	...........
	18	0.253333	5.39137E-001	-3.97987E-004	0.00000E+000	-2.14570E-004	-2.40040E-001	5.39345E-001	3.57680E+000	9	...........
	19	0.266667	5.31585E-001	-3.99371E-004	0.00000E+000	-2.12300E-004	-2.40040E-001	5.31795E-001	3.57645E+000	9	...........
	20	0.28	5.23984E-001	-3.98645E-004	0.00000E+000	-2.08883E-004	-2.40040E-001	5.24217E-001	3.57630E+000	9	...........
	21	0.293333	5.16549E-001	-3.98737E-004	0.00000E+000	-2.05967E-004	-2.40040E-001	5.16733E-001	3.57630E+000	9	...........
	22	0.306667	5.09056E-001	-3.98475E-004	0.00000E+000	-2.02846E-004	-2.40040E-001	5.09291E-001	3.57630E+000	9	...........
	23	0.32	5.01723E-001	-3.97538E-004	0.00000E+000	-1.99454E-004	-2.40040E-001	5.01948E-001	3.57630E+000	9	...........
	24	0.333333	4.94420E-001	-3.99782E-004	0.00000E+000	-1.97661E-004	-2.40040E-001	4.94616E-001	3.57630E+000	9	...........
	25	0.346667	4.87105E-001	-4.00591E-004	0.00000E+000	-1.95130E-004	-2.40040E-001	4.87297E-001	3.57630E+000	9	...........
	26	0.36	4.80090E-001	-3.99347E-004	0.00000E+000	-1.91722E-004	-2.40040E-001	4.80187E-001	3.57630E+000	9	...........
	27	0.373333	4.72859E-001	-3.98706E-004	0.00000E+000	-1.88532E-004	-2.40040E-001	4.72954E-001	3.57630E+000	9	...........
	28	0.386667	4.65659E-001	-3.99041E-004	0.00000E+000	-1.85817E-004	-2.40040E-001	4.65759E-001	3.57630E+000	9	...........
	29	0.4	4.58566E-001	-3.99563E-004	0.00000E+000	-1.83226E-004	-2.40040E-001	4.58661E-001	3.57630E+000	9	...........
	30	0.413333	4.51443E-001	-3.98805E-004	0.00000E+000	-1.80038E-004	-2.40040E-001	4.51537E-001	3.57630E+000	9	...........
	31	0.426667	4.44433E-001	-3.98052E-004	0.00000E+000	-1.76907E-004	-2.40040E-001	4.44528E-001	3.57630E+000	9	...........
	32	0.44	4.37366E-001	-3.98801E-004	0.00000E+000	-1.74422E-004	-2.40040E-001	4.37454E-001	3.57630E+000	9	...........
	33	0.453333	4.30343E-001	-3.98851E-004	0.00000E+000	-1.71643E-004	-2.40040E-001	4.30428E-001	3.57630E+000	9	...........
	34	0.466667	4.23395E-001	-3.99073E-004	0.00000E+000	-1.68965E-004	-2.40040E-001	4.23480E-001	3.57630E+000	9	...........
	35	0.48	4.16422E-001	-3.97752E-004	0.00000E+000	-1.65633E-004	-2.40040E-001	4.16505E-001	3.57630E+000	9	...........
	36	0.493333	4.09542E-001	-3.98530E-004	0.00000E+000	-1.63215E-004	-2.40040E-001	4.09622E-001	3.57630E+000	9	...........
	37	0.506667	4.02756E-001	-3.99345E-004	0.00000E+000	-1.60838E-004	-2.40040E-001	4.02837E-001	3.57630E+000	9	...........
	38	0.52	3.95982E-001	-3.99524E-004	0.00000E+000	-1.58204E-004	-2.40040E-001	3.96060E-001	3.57630E+000	9	...........
	39	0.533333	3.89323E-001	-3.99654E-004	0.00000E+000	-1.55595E-004	-2.40040E-001	3.89397E-001	3.57630E+000	9	...........
	40	0.546667	3.82631E-001	-3.98747E-004	0.00000E+000	-1.52573E-004	-2.40040E-001	3.82697E-001	3.57630E+000	9	...........
	41	0.56	3.75961E-001	-3.97660E-004	0.00000E+000	-1.49505E-004	-2.40040E-001	3.76034E-001	3.57630E+000	9	...........
	42	0.573333	3.69370E-001	-3.99337E-004	0.00000E+000	-1.47503E-004	-2.40040E-001	3.69443E-001	3.57630E+000	9	...........
	43	0.586667	3.62771E-001	-3.99153E-004	0.00000E+000	-1.44801E-004	-2.40040E-001	3.62832E-001	3.57630E+000	9	...........
	44	0.6	3.56234E-001	-3.98052E-004	0.00000E+000	-1.41800E-004	-2.40040E-001	3.56300E-001	3.57630E+000	9	...........
	45	0.613333	3.49742E-001	-3.98152E-004	0.00000E+000	-1.39250E-004	-2.40040E-001	3.49805E-001	3.57630E+000	9	...........
	46	0.626667	3.43249E-001	-3.99502E-004	0.00000E+000	-1.37129E-004	-2.40040E-001	3.43312E-001	3.57630E+000	9	...........
	47	0.64	3.36802E-001	-3.99618E-004	0.00000E+000	-1.34592E-004	-2.40040E-001	3.36869E-001	3.57630E+000	9	...........
	48	0.653333	3.30439E-001	-3.98287E-004	0.00000E+000	-1.31610E-004	-2.40040E-001	3.30505E-001	3.57630E+000	9	...........
	49	0.666667	3.24072E-001	-3.98028E-004	0.00000E+000	-1.28990E-004	-2.40040E-001	3.24137E-001	3.57630E+000	9	...........
	50	0.68	3.17707E-001	-3.99243E-004	0.00000E+000	-1.26842E-004	-2.40040E-001	3.17775E-001	3.57630E+000	9	...........
	51	0.693333	3.11435E-001	-3.99517E-004	0.00000E+000	-1.24424E-004	-2.40040E-001	3.11502E-001	3.57630E+000	9	...........
	52	0.706667	3.05282E-001	-3.98272E-004	0.00000E+000	-1.21585E-004	-2.40040E-001	3.05345E-001	3.57630E+000	9	...........
	53	0.72	2.99012E-001	-3.99531E-004	0.00000E+000	-1.19465E-004	-2.40040E-001	2.99067E-001	3.57630E+000	9	...........
	54	0.733333	2.92851E-001	-3.98445E-004	0.00000E+000	-1.16685E-004	-2.40040E-001	2.92906E-001	3.57630E+000	9	...........
	55	0.746667	2.86804E-001	-3.99823E-004	0.00000E+000	-1.14671E-004	-2.40040E-001	2.86858E-001	3.57630E+000	9	...........
	56	0.76	2.80792E-001	-3.99751E-004	0.00000E+000	-1.12247E-004	-2.40040E-001	2.80845E-001	3.57630E+000	9	...........
	57	0.773333	2.74752E-001	-3.97572E-004	0.00000E+000	-1.09233E-004	-2.40040E-001	2.74804E-001	3.57630E+000	9	...........
	58	0.786667	2.68698E-001	-4.00138E-004	0.00000E+000	-1.07516E-004	-2.40040E-001	2.68751E-001	3.57630E+000	9	...........
	59	0.8	2.62630E-001	-3.98868E-004	0.00000E+000	-1.04755E-004	-2.40040E-001	2.62687E-001	3.57630E+000	9	...........
	60	0.813333	2.56702E-001	-3.98523E-004	0.00000E+000	-1.02302E-004	-2.40040E-001	2.56757E-001	3.57630E+000	9	...........
	61	0.826667	2.50780E-001	-3.98525E-004	0.00000E+000	-9.99421E-005	-2.40040E-001	2.50834E-001	3.57630E+000	9	...........
	62	0.84	2.44885E-001	-3.99071E-004	0.00000E+000	-9.77267E-005	-2.40040E-001	2.44933E-001	3.57630E+000	9	...........
	63	0.853333	2.39070E-001	-3.99132E-004	0.00000E+000	-9.54205E-005	-2.40040E-001	2.39112E-001	3.57630E+000	9	...........
	64	0.866667	2.33284E-001	-3.99151E-004	0.00000E+000	-9.31155E-005	-2.40040E-001	2.33323E-001	3.57630E+000	9	...........
	65	0.88	2.27520E-001	-3.98948E-004	0.00000E+000	-9.07684E-005	-2.40040E-001	2.27558E-001	3.57630E+000	9	...........
	66	0.893333	2.21812E-001	-3.99490E-004	0.00000E+000	-8.86117E-005	-2.40040E-001	2.21850E-001	3.57630E+000	9	...........
	67	0.906667	2.16089E-001	-3.98149E-004	0.00000E+000	-8.60354E-005	-2.40040E-001	2.16124E-001	3.57630E+000	9	...........
	68	0.92	2.10437E-001	-3.99254E-004	0.00000E+000	-8.40179E-005	-2.40040E-001	2.10472E-001	3.57630E+000	9	...........
	69	0.933333	2.04858E-001	-3.98927E-004	0.00000E+000	-8.17235E-005	-2.40040E-001	2.04896E-001	3.57630E+000	9	...........
	70	0.946667	1.99344E-001	-4.00091E-004	0.00000E+000	-7.97555E-005	-2.40040E-001	1.99382E-001	3.57630E+000	9	...........
	71	0.96	1.93841E-001	-3.98618E-004	0.00000E+000	-7.72685E-005	-2.40040E-001	1.93875E-001	3.57630E+000	9	...........
	72	0.97333	1.88371E-001	-3.98321E-004	0.00000E+000	-7.50322E-005	-2.40040E-001	1.88404E-001	3.57630E+000	9	...........
	73	0.98667	1.82856E-001	-3.99068E-004	0.00000E+000	-7.29720E-005	-2.40040E-001	1.82887E-001	3.57630E+000	9	...........
	74	1	1.77420E-001	-3.99109E-004	0.00000E+000	-7.08099E-005	-2.40040E-001	1.77450E-001	3.57630E+000	9	...........
	75	1.01333	1.72005E-001	-3.98477E-004	0.00000E+000	-6.85401E-005	-2.40040E-001	1.72033E-001	3.57630E+000	9	...........
	76	1.02667	1.66617E-001	-3.98662E-004	0.00000E+000	-6.64240E-005	-2.40040E-001	1.66641E-001	3.57630E+000	9	...........
	77	1.04	1.61140E-001	-3.97668E-004	0.00000E+000	-6.40804E-005	-2.40040E-001	1.61170E-001	3.57630E+000	9	...........
	78	1.05333	1.55790E-001	-3.98621E-004	0.00000E+000	-6.21010E-005	-2.40040E-001	1.55812E-001	3.57630E+000	9	...........
	79	1.06667	1.50524E-001	-3.99525E-004	0.00000E+000	-6.01380E-005	-2.40040E-001	1.50547E-001	3.57630E+000	9	...........
	80	1.08	1.45220E-001	-3.98774E-004	0.00000E+000	-5.79101E-005	-2.40040E-001	1.45246E-001	3.57630E+000	9	...........
	81	1.09333	1.39983E-001	-3.98011E-004	0.00000E+000	-5.57148E-005	-2.40040E-001	1.40006E-001	3.57630E+000	9	...........
	82	1.10667	1.34742E-001	-3.98058E-004	0.00000E+000	-5.36354E-005	-2.40040E-001	1.34762E-001	3.57630E+000	9	...........
	83	1.12	1.29587E-001	-3.98183E-004	0.00000E+000	-5.15992E-005	-2.40040E-001	1.29608E-001	3.57630E+000	9	...........
	84	1.13333	1.24391E-001	-3.99235E-004	0.00000E+000	-4.96613E-005	-2.40040E-001	1.24416E-001	3.57630E+000	9	...........
	85	1.14667	1.19343E-001	-3.98417E-004	0.00000E+000	-4.75484E-005	-2.40040E-001	1.19367E-001	3.57630E+000	9	...........
	86	1.16	1.14392E-001	-3.98981E-004	0.00000E+000	-4.56404E-005	-2.40040E-001	1.14413E-001	3.57630E+000	9	...........
	87	1.17333	1.09372E-001	-3.98460E-004	0.00000E+000	-4.35803E-005	-2.40040E-001	1.09390E-001	3.57630E+000	9	...........
	88	1.18667	1.04337E-001	-3.99250E-004	0.00000E+000	-4.16567E-005	-2.40040E-001	1.04353E-001	3.57630E+000	9	...........
	89	1.2	9.93748E-002	-3.98912E-004	0.00000E+000	-3.96418E-005	-2.40040E-001	9.93891E-002	3.57630E+000	9	...........
	90	1.21333	9.43818E-002	-3.99526E-004	0.00000E+000	-3.77080E-005	-2.40040E-001	9.43920E-002	3.57630E+000	9	...........
	91	1.22667	8.94549E-002	-3.98700E-004	0.00000E+000	-3.56656E-005	-2.40040E-001	8.94717E-002	3.57630E+000	9	...........
	92	1.24	8.46766E-002	-3.99157E-004	0.00000E+000	-3.37993E-005	-2.40040E-001	8.46917E-002	3.57630E+000	9	...........
	93	1.25333	7.97837E-002	-3.98948E-004	0.00000E+000	-3.18295E-005	-2.40040E-001	7.98009E-002	3.57630E+000	9	...........
	94	1.26667	7.50273E-002	-3.98850E-004	0.00000E+000	-2.99246E-005	-2.40040E-001	7.50386E-002	3.57672E+000	9	...........
	95	1.28	7.02716E-002	-3.98978E-004	0.00000E+000	-2.80368E-005	-2.40040E-001	7.02825E-002	3.57690E+000	9	...........
	96	1.29333	6.54544E-002	-3.99021E-004	0.00000E+000	-2.61177E-005	-2.40040E-001	6.54610E-002	3.57690E+000	9	...........
	97	1.30667	6.06314E-002	-3.99139E-004	0.00000E+000	-2.42003E-005	-2.40040E-001	6.06408E-002	3.57690E+000	9	...........
	98	1.32	5.59170E-002	-3.99505E-004	0.00000E+000	-2.23391E-005	-2.40040E-001	5.59230E-002	3.57690E+000	9	...........
	99	1.33333	5.10993E-002	-3.98372E-004	0.00000E+000	-2.03565E-005	-2.40040E-001	5.11040E-002	3.57690E+000	9	...........
	100	1.34667	4.64096E-002	-3.99582E-004	0.00000E+000	-1.85445E-005	-2.40040E-001	4.64190E-002	3.57690E+000	9	...........
	101	1.36	4.17539E-002	-3.99081E-004	0.00000E+000	-1.66632E-005	-2.40040E-001	4.17623E-002	3.57690E+000	9	...........
	102	1.37333	3.71051E-002	-3.97456E-004	0.00000E+000	-1.47476E-005	-2.40040E-001	3.71047E-002	3.57690E+000	9	...........
	103	1.38667	3.25782E-002	-3.99588E-004	0.00000E+000	-1.30178E-005	-2.40040E-001	3.25793E-002	3.57690E+000	9	...........
	104	1.4	2.81181E-002	-3.98224E-004	0.00000E+000	-1.11973E-005	-2.40040E-001	2.81175E-002	3.57690E+000	9	...........
	105	1.41333	2.35833E-002	-3.99815E-004	0.00000E+000	-9.42894E-006	-2.40040E-001	2.35757E-002	3.57690E+000	9	...........
	106	1.42667	1.91002E-002	-3.98799E-004	0.00000E+000	-7.61714E-006	-2.40040E-001	1.90918E-002	3.57690E+000	9	...........
	107	1.44	1.46222E-002	-3.98129E-004	0.00000E+000	-5.82151E-006	-2.40040E-001	1.46124E-002	3.57690E+000	9	...........
	108	1.45333	1.01733E-002	-3.97577E-004	0.00000E+000	-4.04468E-006	-2.40040E-001	1.01578E-002	3.57690E+000	9	...........
	109	1.46667	5.76775E-003	-3.98995E-004	0.00000E+000	-2.30130E-006	-2.40040E-001	5.75376E-003	3.57690E+000	9	...........
	110	1.47833	1.64293E-003	-4.00478E-004	0.00000E+000	-6.57959E-007	-2.40040E-001	1.62087E-003	3.57690E+000	9	...........
STARTTIMEOFFSET	QUANT	1735.061	Start Time Offset (s)
