EXPLAIN
TAG	PWR800_DISCHARGE
TITLE	LABEL	PWR Cyclic Charge Discharge (Cell) - Discharge Step	Test &Identifier
DATE	LABEL	12-7-2017	Date
TIME	LABEL	14:37:50	Time
NOTES	NOTES	3	&Notes...
	supercap test cell
	0.4mg
	6M KOH
PSTAT	PSTAT	IFC5000-01520	Potentiostat
CAPACITY	QUANT	1.00000E-003	Capacity (A-hr)
CELLTYPE	SELECTOR	1	&Cell Type
WORKINGCONNECTION	SELECTOR	0	&Working Lead
MAXDISCHARGETIME	VARIABLEANDUNITS	1.00000E+002	s	1.00000E+002	second(s)	Max &Discharge Time
DISCHARGEMODE	MULTIPARAM	0	4.00000E-004	&Discharge Mode	Constant Current	Amp(s)
SAMPLETIME	QUANT	1.00000E-002	Sa&mple Period (s)
DISCHARGESTOPAT1	MULTIPARAM	3	0.00000E+000	Discharge Stop At &1	Voltage < Limit	V
DISCHARGESTOPAT2	MULTIPARAM	0	0.00000E+000	Discharge Stop At &2	None	N/A
AESBHCSELECTOR	TOGGLE	F	Save Both Half Cells
IRCOMP	TOGGLE	F	IR &Measure
EOC	QUANT	0	Open Circuit (V)
SEQUENCER	TOGGLE	TRUE	Run as Sequence
PSTATMODEL	IQUANT	53	Pstat Model
PSTATSECTION	LABEL	IFC5000-01520	Pstat Section
PSTATSERIALNO	LABEL	01520	Pstat Serial Number
CTRLMODE	IQUANT	0	Control Mode
ELECTROMETER	IQUANT	1	RE=0 or CS=1
IESTAB	IQUANT	0	I/E Stability
CASPEED	IQUANT	4	Control Amp Speed
CONVENTION	IQUANT	1	Current Convention
ICHRANGE	IQUANT	2	Ich Range
ICHRANGEMODE	TOGGLE	T	Ich Auto Range
ICHOFFSETENABLE	TOGGLE	F	Ich Offset Enable
ICHOFFSET	QUANT	0	Ich Offset (V)
ICHFILTER	IQUANT	1	Ich Filter
VCHRANGE	IQUANT	2	Vch Range
VCHRANGEMODE	TOGGLE	T	Vch Auto Range
VCHOFFSETENABLE	TOGGLE	F	Vch Offset Enable
VCHOFFSET	QUANT	0	Vch Offset (V)
VCHFILTER	IQUANT	1	Vch Filter
IERANGELOWERLIMIT	IQUANT	9	I/E Range Lower Limit
IERANGEMODE	TOGGLE	F	I/E AutoRange
IERANGE	IQUANT	9	I/E Range
ACHSELECT	IQUANT	1	Ach Select
ACHRANGE	IQUANT	2	Ach Range
ACHOFFSETENABLE	TOGGLE	F	Ach Offset Enable
ACHOFFSET	QUANT	0	Ach Offset (V)
ACHFILTER	IQUANT	1	Ach Filter
CABLEID	IQUANT	14	Cable ID
DCCALDATE	LABEL	5-7-2017	DC Calibration Date
ACCALDATE	LABEL	12/3/2015	AC Calibration Date
FRAMEWORKVERSION	QUANT	7.01	Framework Version
INSTRUMENTVERSION	LABEL	4.00	Instrument Version
CURVE	TABLE	120
	Pt	T	Vf	Im	Vu	Pwr	Sig	Ach	Temp	IERange	Over
	#	s	V	A	V	W	V	V	deg C	#	bits
	0	0.013333	7.08975E-001	-3.99341E-004	0.00000E+000	-2.83122E-004	-2.40040E-001	7.09169E-001	3.57630E+000	9	...........
	1	0.026667	6.97260E-001	-3.98828E-004	0.00000E+000	-2.78087E-004	-2.40040E-001	6.97428E-001	3.57630E+000	9	...........
	2	0.04	6.86862E-001	-3.99093E-004	0.00000E+000	-2.74121E-004	-2.40040E-001	6.87072E-001	3.57630E+000	9	...........
	3	0.053333	6.77347E-001	-3.98768E-004	0.00000E+000	-2.70104E-004	-2.40040E-001	6.77535E-001	3.57630E+000	9	...........
	4	0.066667	6.68301E-001	-3.98651E-004	0.00000E+000	-2.66419E-004	-2.40040E-001	6.68519E-001	3.57630E+000	9	...........
	5	0.08	6.59609E-001	-3.99490E-004	0.00000E+000	-2.63507E-004	-2.40040E-001	6.59828E-001	3.57630E+000	9	...........
	6	0.093333	6.51213E-001	-3.99264E-004	0.00000E+000	-2.60006E-004	-2.40040E-001	6.51411E-001	3.57630E+000	9	...........
	7	0.106667	6.42975E-001	-3.98625E-004	0.00000E+000	-2.56306E-004	-2.40040E-001	6.43179E-001	3.57630E+000	9	...........
	8	0.12	6.34885E-001	-3.99674E-004	0.00000E+000	-2.53747E-004	-2.40040E-001	6.35098E-001	3.57630E+000	9	...........
	9	0.133333	6.26981E-001	-3.98001E-004	0.00000E+000	-2.49539E-004	-2.40040E-001	6.27211E-001	3.57630E+000	9	...........
	10	0.146667	6.19208E-001	-3.99313E-004	0.00000E+000	-2.47257E-004	-2.40040E-001	6.19409E-001	3.57630E+000	9	...........
	11	0.16	6.11539E-001	-3.98998E-004	0.00000E+000	-2.44003E-004	-2.40040E-001	6.11782E-001	3.57630E+000	9	...........
	12	0.173333	6.03881E-001	-3.97991E-004	0.00000E+000	-2.40339E-004	-2.40040E-001	6.04150E-001	3.57630E+000	9	...........
	13	0.186667	5.96328E-001	-3.98499E-004	0.00000E+000	-2.37636E-004	-2.40040E-001	5.96555E-001	3.57630E+000	9	...........
	14	0.2	5.88815E-001	-3.98449E-004	0.00000E+000	-2.34613E-004	-2.40040E-001	5.89068E-001	3.57630E+000	9	...........
	15	0.213333	5.81415E-001	-3.98611E-004	0.00000E+000	-2.31759E-004	-2.40040E-001	5.81673E-001	3.57630E+000	9	...........
	16	0.226667	5.74101E-001	-3.98112E-004	0.00000E+000	-2.28557E-004	-2.40040E-001	5.74333E-001	3.57630E+000	9	...........
	17	0.24	5.66847E-001	-3.99035E-004	0.00000E+000	-2.26192E-004	-2.40040E-001	5.67060E-001	3.57630E+000	9	...........
	18	0.253333	5.59605E-001	-3.98031E-004	0.00000E+000	-2.22740E-004	-2.40040E-001	5.59846E-001	3.57630E+000	9	...........
	19	0.266667	5.52338E-001	-3.98776E-004	0.00000E+000	-2.20259E-004	-2.40040E-001	5.52550E-001	3.57630E+000	9	...........
	20	0.28	5.45193E-001	-3.99727E-004	0.00000E+000	-2.17928E-004	-2.40040E-001	5.45417E-001	3.57630E+000	9	...........
	21	0.293333	5.38117E-001	-3.99421E-004	0.00000E+000	-2.14935E-004	-2.40040E-001	5.38335E-001	3.57630E+000	9	...........
	22	0.306667	5.31018E-001	-3.99018E-004	0.00000E+000	-2.11885E-004	-2.40040E-001	5.31227E-001	3.57630E+000	9	...........
	23	0.32	5.23993E-001	-3.99123E-004	0.00000E+000	-2.09137E-004	-2.40040E-001	5.24219E-001	3.57630E+000	9	...........
	24	0.333333	5.17076E-001	-3.98056E-004	0.00000E+000	-2.05825E-004	-2.40040E-001	5.17264E-001	3.57630E+000	9	...........
	25	0.346667	5.10077E-001	-3.98992E-004	0.00000E+000	-2.03517E-004	-2.40040E-001	5.10315E-001	3.57611E+000	9	...........
	26	0.36	5.03137E-001	-3.97630E-004	0.00000E+000	-2.00062E-004	-2.40040E-001	5.03403E-001	3.57600E+000	9	...........
	27	0.373333	4.96280E-001	-3.99476E-004	0.00000E+000	-1.98252E-004	-2.40040E-001	4.96510E-001	3.57600E+000	9	...........
	28	0.386667	4.89476E-001	-3.99687E-004	0.00000E+000	-1.95637E-004	-2.40040E-001	4.89703E-001	3.57600E+000	9	...........
	29	0.4	4.82815E-001	-4.00357E-004	0.00000E+000	-1.93298E-004	-2.40040E-001	4.82955E-001	3.57600E+000	9	...........
	30	0.413333	4.76166E-001	-3.99157E-004	0.00000E+000	-1.90065E-004	-2.40040E-001	4.76268E-001	3.57600E+000	9	...........
	31	0.426667	4.69445E-001	-3.99123E-004	0.00000E+000	-1.87366E-004	-2.40040E-001	4.69545E-001	3.57600E+000	9	...........
	32	0.44	4.62763E-001	-3.98782E-004	0.00000E+000	-1.84542E-004	-2.40040E-001	4.62856E-001	3.57600E+000	9	...........
	33	0.453333	4.56168E-001	-3.98445E-004	0.00000E+000	-1.81758E-004	-2.40040E-001	4.56261E-001	3.57600E+000	9	...........
	34	0.466667	4.49633E-001	-3.97973E-004	0.00000E+000	-1.78942E-004	-2.40040E-001	4.49726E-001	3.57600E+000	9	...........
	35	0.48	4.43059E-001	-3.99227E-004	0.00000E+000	-1.76881E-004	-2.40040E-001	4.43152E-001	3.57600E+000	9	...........
	36	0.493333	4.36481E-001	-4.00242E-004	0.00000E+000	-1.74698E-004	-2.40040E-001	4.36573E-001	3.57600E+000	9	...........
	37	0.506667	4.29959E-001	-3.98328E-004	0.00000E+000	-1.71265E-004	-2.40040E-001	4.30043E-001	3.57600E+000	9	...........
	38	0.52	4.23541E-001	-3.99430E-004	0.00000E+000	-1.69175E-004	-2.40040E-001	4.23632E-001	3.57600E+000	9	...........
	39	0.533333	4.17137E-001	-3.98451E-004	0.00000E+000	-1.66209E-004	-2.40040E-001	4.17218E-001	3.57600E+000	9	...........
	40	0.546667	4.10829E-001	-3.99643E-004	0.00000E+000	-1.64185E-004	-2.40040E-001	4.10912E-001	3.57600E+000	9	...........
	41	0.56	4.04469E-001	-3.98628E-004	0.00000E+000	-1.61233E-004	-2.40040E-001	4.04544E-001	3.57600E+000	9	...........
	42	0.573333	3.98125E-001	-3.98224E-004	0.00000E+000	-1.58543E-004	-2.40040E-001	3.98208E-001	3.57600E+000	9	...........
	43	0.586667	3.91798E-001	-3.99090E-004	0.00000E+000	-1.56363E-004	-2.40040E-001	3.91873E-001	3.57600E+000	9	...........
	44	0.6	3.85426E-001	-3.98412E-004	0.00000E+000	-1.53559E-004	-2.40040E-001	3.85506E-001	3.57600E+000	9	...........
	45	0.613333	3.79211E-001	-3.99829E-004	0.00000E+000	-1.51620E-004	-2.40040E-001	3.79280E-001	3.57600E+000	9	...........
	46	0.626667	3.73056E-001	-3.99190E-004	0.00000E+000	-1.48920E-004	-2.40040E-001	3.73129E-001	3.57600E+000	9	...........
	47	0.64	3.66878E-001	-3.98933E-004	0.00000E+000	-1.46360E-004	-2.40040E-001	3.66952E-001	3.57600E+000	9	...........
	48	0.653333	3.60784E-001	-3.99253E-004	0.00000E+000	-1.44044E-004	-2.40040E-001	3.60856E-001	3.57600E+000	9	...........
	49	0.666667	3.54743E-001	-3.99978E-004	0.00000E+000	-1.41890E-004	-2.40040E-001	3.54811E-001	3.57600E+000	9	...........
	50	0.68	3.48730E-001	-3.98823E-004	0.00000E+000	-1.39082E-004	-2.40040E-001	3.48793E-001	3.57600E+000	9	...........
	51	0.693333	3.42735E-001	-3.99406E-004	0.00000E+000	-1.36891E-004	-2.40040E-001	3.42797E-001	3.57600E+000	9	...........
	52	0.706667	3.36786E-001	-4.00684E-004	0.00000E+000	-1.34944E-004	-2.40040E-001	3.36858E-001	3.57600E+000	9	...........
	53	0.72	3.30782E-001	-3.97300E-004	0.00000E+000	-1.31419E-004	-2.40040E-001	3.30848E-001	3.57600E+000	9	...........
	54	0.733333	3.24871E-001	-3.98942E-004	0.00000E+000	-1.29605E-004	-2.40040E-001	3.24938E-001	3.57600E+000	9	...........
	55	0.746667	3.19096E-001	-3.98598E-004	0.00000E+000	-1.27191E-004	-2.40040E-001	3.19161E-001	3.57600E+000	9	...........
	56	0.76	3.13235E-001	-3.97515E-004	0.00000E+000	-1.24516E-004	-2.40040E-001	3.13296E-001	3.57600E+000	9	...........
	57	0.773333	3.07364E-001	-3.98701E-004	0.00000E+000	-1.22546E-004	-2.40040E-001	3.07426E-001	3.57600E+000	9	...........
	58	0.786667	3.01611E-001	-3.99464E-004	0.00000E+000	-1.20483E-004	-2.40040E-001	3.01672E-001	3.57600E+000	9	...........
	59	0.8	2.95893E-001	-3.98599E-004	0.00000E+000	-1.17943E-004	-2.40040E-001	2.95953E-001	3.57600E+000	9	...........
	60	0.813333	2.90168E-001	-3.98908E-004	0.00000E+000	-1.15750E-004	-2.40040E-001	2.90223E-001	3.57600E+000	9	...........
	61	0.826667	2.84480E-001	-3.99181E-004	0.00000E+000	-1.13559E-004	-2.40040E-001	2.84537E-001	3.57600E+000	9	...........
	62	0.84	2.78833E-001	-3.99177E-004	0.00000E+000	-1.11304E-004	-2.40040E-001	2.78883E-001	3.57600E+000	9	...........
	63	0.853333	2.73193E-001	-3.99300E-004	0.00000E+000	-1.09086E-004	-2.40040E-001	2.73244E-001	3.57600E+000	9	...........
	64	0.866667	2.67559E-001	-3.98468E-004	0.00000E+000	-1.06614E-004	-2.40040E-001	2.67609E-001	3.57600E+000	9	...........
	65	0.88	2.61964E-001	-4.00224E-004	0.00000E+000	-1.04844E-004	-2.40040E-001	2.62010E-001	3.57600E+000	9	...........
	66	0.893333	2.56497E-001	-3.98734E-004	0.00000E+000	-1.02274E-004	-2.40040E-001	2.56549E-001	3.57600E+000	9	...........
	67	0.906667	2.51056E-001	-3.99349E-004	0.00000E+000	-1.00259E-004	-2.40040E-001	2.51107E-001	3.57600E+000	9	...........
	68	0.92	2.45538E-001	-3.98473E-004	0.00000E+000	-9.78402E-005	-2.40040E-001	2.45593E-001	3.57600E+000	9	...........
	69	0.933333	2.40081E-001	-3.99586E-004	0.00000E+000	-9.59331E-005	-2.40040E-001	2.40123E-001	3.57600E+000	9	...........
	70	0.946667	2.34698E-001	-3.99763E-004	0.00000E+000	-9.38236E-005	-2.40040E-001	2.34745E-001	3.57600E+000	9	...........
	71	0.96	2.29304E-001	-3.98676E-004	0.00000E+000	-9.14179E-005	-2.40040E-001	2.29346E-001	3.57600E+000	9	...........
	72	0.97333	2.23958E-001	-3.98753E-004	0.00000E+000	-8.93041E-005	-2.40040E-001	2.24001E-001	3.57600E+000	9	...........
	73	0.98667	2.18618E-001	-3.99622E-004	0.00000E+000	-8.73644E-005	-2.40040E-001	2.18660E-001	3.57600E+000	9	...........
	74	1	2.13368E-001	-3.98801E-004	0.00000E+000	-8.50915E-005	-2.40040E-001	2.13409E-001	3.57600E+000	9	...........
	75	1.01333	2.08215E-001	-3.98828E-004	0.00000E+000	-8.30419E-005	-2.40040E-001	2.08252E-001	3.57600E+000	9	...........
	76	1.02667	2.02934E-001	-3.99250E-004	0.00000E+000	-8.10213E-005	-2.40040E-001	2.02979E-001	3.57600E+000	9	...........
	77	1.04	1.97740E-001	-4.00342E-004	0.00000E+000	-7.91635E-005	-2.40040E-001	1.97778E-001	3.57600E+000	9	...........
	78	1.05333	1.92527E-001	-3.99897E-004	0.00000E+000	-7.69909E-005	-2.40040E-001	1.92564E-001	3.57600E+000	9	...........
	79	1.06667	1.87386E-001	-3.98424E-004	0.00000E+000	-7.46591E-005	-2.40040E-001	1.87421E-001	3.57600E+000	9	...........
	80	1.08	1.82290E-001	-3.98021E-004	0.00000E+000	-7.25551E-005	-2.40040E-001	1.82323E-001	3.57600E+000	9	...........
	81	1.09333	1.77249E-001	-3.98733E-004	0.00000E+000	-7.06749E-005	-2.40040E-001	1.77287E-001	3.57600E+000	9	...........
	82	1.10667	1.72113E-001	-3.99058E-004	0.00000E+000	-6.86833E-005	-2.40040E-001	1.72151E-001	3.57600E+000	9	...........
	83	1.12	1.66994E-001	-3.99190E-004	0.00000E+000	-6.66621E-005	-2.40040E-001	1.67020E-001	3.57600E+000	9	...........
	84	1.13333	1.61931E-001	-3.97798E-004	0.00000E+000	-6.44158E-005	-2.40040E-001	1.61960E-001	3.57600E+000	9	...........
	85	1.14667	1.56943E-001	-3.99162E-004	0.00000E+000	-6.26455E-005	-2.40040E-001	1.56968E-001	3.57600E+000	9	...........
	86	1.16	1.51974E-001	-3.98859E-004	0.00000E+000	-6.06165E-005	-2.40040E-001	1.52003E-001	3.57600E+000	9	...........
	87	1.17333	1.46986E-001	-3.98005E-004	0.00000E+000	-5.85010E-005	-2.40040E-001	1.47013E-001	3.57600E+000	9	...........
	88	1.18667	1.42112E-001	-3.98252E-004	0.00000E+000	-5.65964E-005	-2.40040E-001	1.42138E-001	3.57600E+000	9	...........
	89	1.2	1.37187E-001	-3.99939E-004	0.00000E+000	-5.48666E-005	-2.40040E-001	1.37215E-001	3.57600E+000	9	...........
	90	1.21333	1.32315E-001	-3.99105E-004	0.00000E+000	-5.28076E-005	-2.40040E-001	1.32341E-001	3.57600E+000	9	...........
	91	1.22667	1.27523E-001	-3.99277E-004	0.00000E+000	-5.09169E-005	-2.40040E-001	1.27550E-001	3.57600E+000	9	...........
	92	1.24	1.22791E-001	-3.99116E-004	0.00000E+000	-4.90080E-005	-2.40040E-001	1.22814E-001	3.57600E+000	9	...........
	93	1.25333	1.18038E-001	-3.97304E-004	0.00000E+000	-4.68971E-005	-2.40040E-001	1.18058E-001	3.57600E+000	9	...........
	94	1.26667	1.13197E-001	-3.99005E-004	0.00000E+000	-4.51661E-005	-2.40040E-001	1.13230E-001	3.57600E+000	9	...........
	95	1.28	1.08446E-001	-3.99377E-004	0.00000E+000	-4.33107E-005	-2.40040E-001	1.08469E-001	3.57600E+000	9	...........
	96	1.29333	1.03656E-001	-3.99517E-004	0.00000E+000	-4.14121E-005	-2.40040E-001	1.03674E-001	3.57600E+000	9	...........
	97	1.30667	9.89351E-002	-3.98997E-004	0.00000E+000	-3.94748E-005	-2.40040E-001	9.89582E-002	3.57600E+000	9	...........
	98	1.32	9.42831E-002	-3.98165E-004	0.00000E+000	-3.75403E-005	-2.40040E-001	9.43071E-002	3.57600E+000	9	...........
	99	1.33333	8.96127E-002	-3.98044E-004	0.00000E+000	-3.56698E-005	-2.40040E-001	8.96341E-002	3.57600E+000	9	...........
	100	1.34667	8.50523E-002	-3.99608E-004	0.00000E+000	-3.39876E-005	-2.40040E-001	8.50669E-002	3.57600E+000	9	...........
	101	1.36	8.04266E-002	-3.99180E-004	0.00000E+000	-3.21047E-005	-2.40040E-001	8.04440E-002	3.57600E+000	9	...........
	102	1.37333	7.58008E-002	-3.98311E-004	0.00000E+000	-3.01923E-005	-2.40040E-001	7.58165E-002	3.57600E+000	9	...........
	103	1.38667	7.12121E-002	-3.98817E-004	0.00000E+000	-2.84006E-005	-2.40040E-001	7.12217E-002	3.57600E+000	9	...........
	104	1.4	6.66426E-002	-3.98028E-004	0.00000E+000	-2.65256E-005	-2.40040E-001	6.66483E-002	3.57600E+000	9	...........
	105	1.41333	6.20979E-002	-3.99692E-004	0.00000E+000	-2.48200E-005	-2.40040E-001	6.21019E-002	3.57600E+000	9	...........
	106	1.42667	5.76419E-002	-3.99875E-004	0.00000E+000	-2.30496E-005	-2.40040E-001	5.76495E-002	3.57600E+000	9	...........
	107	1.44	5.31515E-002	-3.97751E-004	0.00000E+000	-2.11411E-005	-2.40040E-001	5.31558E-002	3.57600E+000	9	...........
	108	1.45333	4.86805E-002	-3.96095E-004	0.00000E+000	-1.92821E-005	-2.40040E-001	4.86888E-002	3.57600E+000	9	...........
	109	1.46667	4.42520E-002	-3.99776E-004	0.00000E+000	-1.76909E-005	-2.40040E-001	4.42647E-002	3.57600E+000	9	...........
	110	1.48	3.98981E-002	-3.99123E-004	0.00000E+000	-1.59243E-005	-2.40040E-001	3.99085E-002	3.57600E+000	9	...........
	111	1.49333	3.55339E-002	-3.99648E-004	0.00000E+000	-1.42011E-005	-2.40040E-001	3.55410E-002	3.57600E+000	9	...........
	112	1.50667	3.12281E-002	-3.98718E-004	0.00000E+000	-1.24512E-005	-2.40040E-001	3.12294E-002	3.57600E+000	9	...........
	113	1.52	2.68646E-002	-3.98949E-004	0.00000E+000	-1.07176E-005	-2.40040E-001	2.68628E-002	3.57600E+000	9	...........
	114	1.53333	2.25314E-002	-3.97554E-004	0.00000E+000	-8.95745E-006	-2.40040E-001	2.25313E-002	3.57600E+000	9	...........
	115	1.54667	1.82723E-002	-3.98303E-004	0.00000E+000	-7.27793E-006	-2.40040E-001	1.82676E-002	3.57600E+000	9	...........
	116	1.56	1.40649E-002	-3.98302E-004	0.00000E+000	-5.60206E-006	-2.40040E-001	1.40545E-002	3.57600E+000	9	...........
	117	1.57333	9.85265E-003	-3.99903E-004	0.00000E+000	-3.94011E-006	-2.40040E-001	9.84059E-003	3.57600E+000	9	...........
	118	1.58667	5.66596E-003	-3.98287E-004	0.00000E+000	-2.25668E-006	-2.40040E-001	5.65559E-003	3.57600E+000	9	...........
	119	1.6	1.47390E-003	-3.97857E-004	0.00000E+000	-5.86403E-007	-2.40040E-001	1.45372E-003	3.57600E+000	9	...........
STARTTIMEOFFSET	QUANT	924.5968	Start Time Offset (s)
