EXPLAIN
TAG	PWR800_DISCHARGE
TITLE	LABEL	PWR Cyclic Charge Discharge (Cell) - Discharge Step	Test &Identifier
DATE	LABEL	12-7-2017	Date
TIME	LABEL	14:42:03	Time
NOTES	NOTES	3	&Notes...
	supercap test cell
	0.4mg
	6M KOH
PSTAT	PSTAT	IFC5000-01520	Potentiostat
CAPACITY	QUANT	1.00000E-003	Capacity (A-hr)
CELLTYPE	SELECTOR	1	&Cell Type
WORKINGCONNECTION	SELECTOR	0	&Working Lead
MAXDISCHARGETIME	VARIABLEANDUNITS	1.00000E+002	s	1.00000E+002	second(s)	Max &Discharge Time
DISCHARGEMODE	MULTIPARAM	0	4.00000E-004	&Discharge Mode	Constant Current	Amp(s)
SAMPLETIME	QUANT	1.00000E-002	Sa&mple Period (s)
DISCHARGESTOPAT1	MULTIPARAM	3	0.00000E+000	Discharge Stop At &1	Voltage < Limit	V
DISCHARGESTOPAT2	MULTIPARAM	0	0.00000E+000	Discharge Stop At &2	None	N/A
AESBHCSELECTOR	TOGGLE	F	Save Both Half Cells
IRCOMP	TOGGLE	F	IR &Measure
EOC	QUANT	0	Open Circuit (V)
SEQUENCER	TOGGLE	TRUE	Run as Sequence
PSTATMODEL	IQUANT	53	Pstat Model
PSTATSECTION	LABEL	IFC5000-01520	Pstat Section
PSTATSERIALNO	LABEL	01520	Pstat Serial Number
CTRLMODE	IQUANT	0	Control Mode
ELECTROMETER	IQUANT	1	RE=0 or CS=1
IESTAB	IQUANT	0	I/E Stability
CASPEED	IQUANT	4	Control Amp Speed
CONVENTION	IQUANT	1	Current Convention
ICHRANGE	IQUANT	2	Ich Range
ICHRANGEMODE	TOGGLE	T	Ich Auto Range
ICHOFFSETENABLE	TOGGLE	F	Ich Offset Enable
ICHOFFSET	QUANT	0	Ich Offset (V)
ICHFILTER	IQUANT	1	Ich Filter
VCHRANGE	IQUANT	2	Vch Range
VCHRANGEMODE	TOGGLE	T	Vch Auto Range
VCHOFFSETENABLE	TOGGLE	F	Vch Offset Enable
VCHOFFSET	QUANT	0	Vch Offset (V)
VCHFILTER	IQUANT	1	Vch Filter
IERANGELOWERLIMIT	IQUANT	9	I/E Range Lower Limit
IERANGEMODE	TOGGLE	F	I/E AutoRange
IERANGE	IQUANT	9	I/E Range
ACHSELECT	IQUANT	1	Ach Select
ACHRANGE	IQUANT	2	Ach Range
ACHOFFSETENABLE	TOGGLE	F	Ach Offset Enable
ACHOFFSET	QUANT	0	Ach Offset (V)
ACHFILTER	IQUANT	1	Ach Filter
CABLEID	IQUANT	14	Cable ID
DCCALDATE	LABEL	5-7-2017	DC Calibration Date
ACCALDATE	LABEL	12/3/2015	AC Calibration Date
FRAMEWORKVERSION	QUANT	7.01	Framework Version
INSTRUMENTVERSION	LABEL	4.00	Instrument Version
CURVE	TABLE	118
	Pt	T	Vf	Im	Vu	Pwr	Sig	Ach	Temp	IERange	Over
	#	s	V	A	V	W	V	V	deg C	#	bits
	0	0.013333	7.07704E-001	-3.98164E-004	0.00000E+000	-2.81783E-004	-2.40040E-001	7.07956E-001	3.57600E+000	9	...........
	1	0.026667	6.95796E-001	-3.98185E-004	0.00000E+000	-2.77056E-004	-2.40040E-001	6.96020E-001	3.57600E+000	9	...........
	2	0.04	6.85205E-001	-3.98434E-004	0.00000E+000	-2.73009E-004	-2.40040E-001	6.85444E-001	3.57600E+000	9	...........
	3	0.053333	6.75515E-001	-3.98849E-004	0.00000E+000	-2.69428E-004	-2.40040E-001	6.75745E-001	3.57600E+000	9	...........
	4	0.066667	6.66341E-001	-3.98955E-004	0.00000E+000	-2.65840E-004	-2.40040E-001	6.66560E-001	3.57600E+000	9	...........
	5	0.08	6.57518E-001	-3.99089E-004	0.00000E+000	-2.62408E-004	-2.40040E-001	6.57730E-001	3.57600E+000	9	...........
	6	0.093333	6.49003E-001	-3.99900E-004	0.00000E+000	-2.59536E-004	-2.40040E-001	6.49219E-001	3.57600E+000	9	...........
	7	0.106667	6.40637E-001	-3.99526E-004	0.00000E+000	-2.55951E-004	-2.40040E-001	6.40848E-001	3.57600E+000	9	...........
	8	0.12	6.32376E-001	-3.97682E-004	0.00000E+000	-2.51485E-004	-2.40040E-001	6.32592E-001	3.57600E+000	9	...........
	9	0.133333	6.24351E-001	-3.99326E-004	0.00000E+000	-2.49320E-004	-2.40040E-001	6.24534E-001	3.57600E+000	9	...........
	10	0.146667	6.16459E-001	-3.98210E-004	0.00000E+000	-2.45480E-004	-2.40040E-001	6.16656E-001	3.57600E+000	9	...........
	11	0.16	6.08546E-001	-3.99706E-004	0.00000E+000	-2.43240E-004	-2.40040E-001	6.08798E-001	3.57600E+000	9	...........
	12	0.173333	6.00770E-001	-3.99077E-004	0.00000E+000	-2.39753E-004	-2.40040E-001	6.00990E-001	3.57600E+000	9	...........
	13	0.186667	5.93182E-001	-3.97493E-004	0.00000E+000	-2.35786E-004	-2.40040E-001	5.93407E-001	3.57600E+000	9	...........
	14	0.2	5.85522E-001	-3.97937E-004	0.00000E+000	-2.33001E-004	-2.40040E-001	5.85732E-001	3.57600E+000	9	...........
	15	0.213333	5.77975E-001	-3.97702E-004	0.00000E+000	-2.29862E-004	-2.40040E-001	5.78181E-001	3.57600E+000	9	...........
	16	0.226667	5.70587E-001	-3.98280E-004	0.00000E+000	-2.27254E-004	-2.40040E-001	5.70781E-001	3.57600E+000	9	...........
	17	0.24	5.63178E-001	-3.99656E-004	0.00000E+000	-2.25078E-004	-2.40040E-001	5.63405E-001	3.57600E+000	9	...........
	18	0.253333	5.55857E-001	-3.98843E-004	0.00000E+000	-2.21699E-004	-2.40040E-001	5.56062E-001	3.57600E+000	9	...........
	19	0.266667	5.48544E-001	-3.97803E-004	0.00000E+000	-2.18212E-004	-2.40040E-001	5.48724E-001	3.57600E+000	9	...........
	20	0.28	5.41205E-001	-3.98946E-004	0.00000E+000	-2.15912E-004	-2.40040E-001	5.41421E-001	3.57600E+000	9	...........
	21	0.293333	5.33945E-001	-3.98562E-004	0.00000E+000	-2.12810E-004	-2.40040E-001	5.34150E-001	3.57600E+000	9	...........
	22	0.306667	5.26726E-001	-3.97372E-004	0.00000E+000	-2.09306E-004	-2.40040E-001	5.26917E-001	3.57600E+000	9	...........
	23	0.32	5.19616E-001	-3.99158E-004	0.00000E+000	-2.07409E-004	-2.40040E-001	5.19824E-001	3.57600E+000	9	...........
	24	0.333333	5.12603E-001	-3.99936E-004	0.00000E+000	-2.05008E-004	-2.40040E-001	5.12795E-001	3.57600E+000	9	...........
	25	0.346667	5.05491E-001	-3.98462E-004	0.00000E+000	-2.01419E-004	-2.40040E-001	5.05738E-001	3.57600E+000	9	...........
	26	0.36	4.98499E-001	-3.98899E-004	0.00000E+000	-1.98851E-004	-2.40040E-001	4.98734E-001	3.57600E+000	9	...........
	27	0.373333	4.91527E-001	-3.99353E-004	0.00000E+000	-1.96293E-004	-2.40040E-001	4.91745E-001	3.57600E+000	9	...........
	28	0.386667	4.84656E-001	-3.99421E-004	0.00000E+000	-1.93582E-004	-2.40040E-001	4.84812E-001	3.57600E+000	9	...........
	29	0.4	4.77976E-001	-3.99299E-004	0.00000E+000	-1.90855E-004	-2.40040E-001	4.78071E-001	3.57600E+000	9	...........
	30	0.413333	4.71100E-001	-3.98425E-004	0.00000E+000	-1.87698E-004	-2.40040E-001	4.71199E-001	3.57600E+000	9	...........
	31	0.426667	4.64291E-001	-3.99167E-004	0.00000E+000	-1.85329E-004	-2.40040E-001	4.64383E-001	3.57600E+000	9	...........
	32	0.44	4.57517E-001	-3.97903E-004	0.00000E+000	-1.82047E-004	-2.40040E-001	4.57612E-001	3.57600E+000	9	...........
	33	0.453333	4.50775E-001	-3.98394E-004	0.00000E+000	-1.79586E-004	-2.40040E-001	4.50862E-001	3.57600E+000	9	...........
	34	0.466667	4.44053E-001	-3.99110E-004	0.00000E+000	-1.77226E-004	-2.40040E-001	4.44146E-001	3.57600E+000	9	...........
	35	0.48	4.37464E-001	-3.98967E-004	0.00000E+000	-1.74533E-004	-2.40040E-001	4.37549E-001	3.57600E+000	9	...........
	36	0.493333	4.30813E-001	-3.99133E-004	0.00000E+000	-1.71952E-004	-2.40040E-001	4.30900E-001	3.57600E+000	9	...........
	37	0.506667	4.24176E-001	-3.99502E-004	0.00000E+000	-1.69459E-004	-2.40040E-001	4.24259E-001	3.57600E+000	9	...........
	38	0.52	4.17607E-001	-3.98792E-004	0.00000E+000	-1.66538E-004	-2.40040E-001	4.17690E-001	3.57600E+000	9	...........
	39	0.533333	4.11050E-001	-3.98791E-004	0.00000E+000	-1.63923E-004	-2.40040E-001	4.11138E-001	3.57600E+000	9	...........
	40	0.546667	4.04549E-001	-3.96421E-004	0.00000E+000	-1.60372E-004	-2.40040E-001	4.04630E-001	3.57600E+000	9	...........
	41	0.56	3.98048E-001	-3.98605E-004	0.00000E+000	-1.58664E-004	-2.40040E-001	3.98127E-001	3.57600E+000	9	...........
	42	0.573333	3.91709E-001	-3.98115E-004	0.00000E+000	-1.55946E-004	-2.40040E-001	3.91787E-001	3.57600E+000	9	...........
	43	0.586667	3.85283E-001	-3.97852E-004	0.00000E+000	-1.53286E-004	-2.40040E-001	3.85358E-001	3.57600E+000	9	...........
	44	0.6	3.79017E-001	-3.98184E-004	0.00000E+000	-1.50919E-004	-2.40040E-001	3.79091E-001	3.57600E+000	9	...........
	45	0.613333	3.72751E-001	-3.98320E-004	0.00000E+000	-1.48474E-004	-2.40040E-001	3.72826E-001	3.57600E+000	9	...........
	46	0.626667	3.66416E-001	-3.98944E-004	0.00000E+000	-1.46179E-004	-2.40040E-001	3.66493E-001	3.57600E+000	9	...........
	47	0.64	3.60160E-001	-3.98553E-004	0.00000E+000	-1.43543E-004	-2.40040E-001	3.60228E-001	3.57600E+000	9	...........
	48	0.653333	3.53978E-001	-3.98895E-004	0.00000E+000	-1.41200E-004	-2.40040E-001	3.54052E-001	3.57600E+000	9	...........
	49	0.666667	3.47771E-001	-3.99120E-004	0.00000E+000	-1.38802E-004	-2.40040E-001	3.47844E-001	3.57600E+000	9	...........
	50	0.68	3.41620E-001	-3.98044E-004	0.00000E+000	-1.35980E-004	-2.40040E-001	3.41687E-001	3.57600E+000	9	...........
	51	0.693333	3.35547E-001	-3.98988E-004	0.00000E+000	-1.33879E-004	-2.40040E-001	3.35616E-001	3.57600E+000	9	...........
	52	0.706667	3.29486E-001	-3.98640E-004	0.00000E+000	-1.31346E-004	-2.40040E-001	3.29556E-001	3.57600E+000	9	...........
	53	0.72	3.23561E-001	-3.99164E-004	0.00000E+000	-1.29154E-004	-2.40040E-001	3.23630E-001	3.57600E+000	9	...........
	54	0.733333	3.17582E-001	-3.99113E-004	0.00000E+000	-1.26751E-004	-2.40040E-001	3.17650E-001	3.57600E+000	9	...........
	55	0.746667	3.11583E-001	-3.99067E-004	0.00000E+000	-1.24342E-004	-2.40040E-001	3.11649E-001	3.57600E+000	9	...........
	56	0.76	3.05641E-001	-3.98174E-004	0.00000E+000	-1.21698E-004	-2.40040E-001	3.05704E-001	3.57600E+000	9	...........
	57	0.773333	2.99737E-001	-3.98925E-004	0.00000E+000	-1.19572E-004	-2.40040E-001	2.99800E-001	3.57600E+000	9	...........
	58	0.786667	2.93792E-001	-3.99900E-004	0.00000E+000	-1.17488E-004	-2.40040E-001	2.93852E-001	3.57600E+000	9	...........
	59	0.8	2.87972E-001	-3.98096E-004	0.00000E+000	-1.14640E-004	-2.40040E-001	2.88033E-001	3.57600E+000	9	...........
	60	0.813333	2.82192E-001	-3.99570E-004	0.00000E+000	-1.12755E-004	-2.40040E-001	2.82254E-001	3.57600E+000	9	...........
	61	0.826667	2.76403E-001	-3.99269E-004	0.00000E+000	-1.10359E-004	-2.40040E-001	2.76464E-001	3.57600E+000	9	...........
	62	0.84	2.70861E-001	-3.97802E-004	0.00000E+000	-1.07749E-004	-2.40040E-001	2.70915E-001	3.57600E+000	9	...........
	63	0.853333	2.65160E-001	-3.99341E-004	0.00000E+000	-1.05889E-004	-2.40040E-001	2.65209E-001	3.57600E+000	9	...........
	64	0.866667	2.59501E-001	-3.98399E-004	0.00000E+000	-1.03385E-004	-2.40040E-001	2.59562E-001	3.57600E+000	9	...........
	65	0.88	2.53893E-001	-3.99300E-004	0.00000E+000	-1.01380E-004	-2.40040E-001	2.53948E-001	3.57600E+000	9	...........
	66	0.893333	2.48353E-001	-3.97936E-004	0.00000E+000	-9.88287E-005	-2.40040E-001	2.48407E-001	3.57600E+000	9	...........
	67	0.906667	2.42785E-001	-3.98959E-004	0.00000E+000	-9.68614E-005	-2.40040E-001	2.42830E-001	3.57600E+000	9	...........
	68	0.92	2.37191E-001	-3.97492E-004	0.00000E+000	-9.42817E-005	-2.40040E-001	2.37236E-001	3.57600E+000	9	...........
	69	0.933333	2.31637E-001	-3.99255E-004	0.00000E+000	-9.24824E-005	-2.40040E-001	2.31679E-001	3.57675E+000	9	...........
	70	0.946667	2.26185E-001	-3.99163E-004	0.00000E+000	-9.02846E-005	-2.40040E-001	2.26233E-001	3.57750E+000	9	...........
	71	0.96	2.20744E-001	-3.98886E-004	0.00000E+000	-8.80520E-005	-2.40040E-001	2.20790E-001	3.57750E+000	9	...........
	72	0.97333	2.15362E-001	-3.98792E-004	0.00000E+000	-8.58847E-005	-2.40040E-001	2.15406E-001	3.57750E+000	9	...........
	73	0.98667	2.10063E-001	-3.98414E-004	0.00000E+000	-8.36923E-005	-2.40040E-001	2.10107E-001	3.57750E+000	9	...........
	74	1	2.04682E-001	-3.99130E-004	0.00000E+000	-8.16949E-005	-2.40040E-001	2.04728E-001	3.57750E+000	9	...........
	75	1.01333	1.99399E-001	-3.97951E-004	0.00000E+000	-7.93509E-005	-2.40040E-001	1.99440E-001	3.57750E+000	9	...........
	76	1.02667	1.94105E-001	-3.98892E-004	0.00000E+000	-7.74268E-005	-2.40040E-001	1.94139E-001	3.57750E+000	9	...........
	77	1.04	1.88851E-001	-3.98168E-004	0.00000E+000	-7.51942E-005	-2.40040E-001	1.88896E-001	3.57750E+000	9	...........
	78	1.05333	1.83580E-001	-3.99456E-004	0.00000E+000	-7.33321E-005	-2.40040E-001	1.83620E-001	3.57750E+000	9	...........
	79	1.06667	1.78383E-001	-3.99889E-004	0.00000E+000	-7.13332E-005	-2.40040E-001	1.78421E-001	3.57750E+000	9	...........
	80	1.08	1.73295E-001	-3.98911E-004	0.00000E+000	-6.91294E-005	-2.40040E-001	1.73336E-001	3.57750E+000	9	...........
	81	1.09333	1.68110E-001	-3.98070E-004	0.00000E+000	-6.69196E-005	-2.40040E-001	1.68144E-001	3.57750E+000	9	...........
	82	1.10667	1.62949E-001	-4.00639E-004	0.00000E+000	-6.52837E-005	-2.40040E-001	1.62975E-001	3.57750E+000	9	...........
	83	1.12	1.57908E-001	-3.98577E-004	0.00000E+000	-6.29385E-005	-2.40040E-001	1.57943E-001	3.57750E+000	9	...........
	84	1.13333	1.52835E-001	-3.99076E-004	0.00000E+000	-6.09930E-005	-2.40040E-001	1.52865E-001	3.57750E+000	9	...........
	85	1.14667	1.47834E-001	-3.99235E-004	0.00000E+000	-5.90205E-005	-2.40040E-001	1.47860E-001	3.57750E+000	9	...........
	86	1.16	1.42876E-001	-3.98849E-004	0.00000E+000	-5.69859E-005	-2.40040E-001	1.42901E-001	3.57750E+000	9	...........
	87	1.17333	1.38031E-001	-3.96967E-004	0.00000E+000	-5.47936E-005	-2.40040E-001	1.38056E-001	3.57750E+000	9	...........
	88	1.18667	1.33081E-001	-3.98245E-004	0.00000E+000	-5.29986E-005	-2.40040E-001	1.33105E-001	3.57750E+000	9	...........
	89	1.2	1.28162E-001	-3.98719E-004	0.00000E+000	-5.11005E-005	-2.40040E-001	1.28191E-001	3.57750E+000	9	...........
	90	1.21333	1.23234E-001	-3.98949E-004	0.00000E+000	-4.91640E-005	-2.40040E-001	1.23265E-001	3.57750E+000	9	...........
	91	1.22667	1.18331E-001	-3.98666E-004	0.00000E+000	-4.71745E-005	-2.40040E-001	1.18355E-001	3.57750E+000	9	...........
	92	1.24	1.13494E-001	-3.98445E-004	0.00000E+000	-4.52211E-005	-2.40040E-001	1.13524E-001	3.57750E+000	9	...........
	93	1.25333	1.08680E-001	-3.99760E-004	0.00000E+000	-4.34457E-005	-2.40040E-001	1.08708E-001	3.57750E+000	9	...........
	94	1.26667	1.03934E-001	-3.99209E-004	0.00000E+000	-4.14913E-005	-2.40040E-001	1.03952E-001	3.57750E+000	9	...........
	95	1.28	9.91513E-002	-3.99460E-004	0.00000E+000	-3.96069E-005	-2.40040E-001	9.91716E-002	3.57750E+000	9	...........
	96	1.29333	9.44062E-002	-4.00036E-004	0.00000E+000	-3.77658E-005	-2.40040E-001	9.44243E-002	3.57750E+000	9	...........
	97	1.30667	8.97023E-002	-3.99237E-004	0.00000E+000	-3.58124E-005	-2.40040E-001	8.97262E-002	3.57750E+000	9	...........
	98	1.32	8.50232E-002	-3.99275E-004	0.00000E+000	-3.39477E-005	-2.40040E-001	8.50461E-002	3.57750E+000	9	...........
	99	1.33333	8.04206E-002	-3.99194E-004	0.00000E+000	-3.21034E-005	-2.40040E-001	8.04303E-002	3.57750E+000	9	...........
	100	1.34667	7.57870E-002	-3.98531E-004	0.00000E+000	-3.02035E-005	-2.40040E-001	7.58026E-002	3.57750E+000	9	...........
	101	1.36	7.12012E-002	-3.99649E-004	0.00000E+000	-2.84555E-005	-2.40040E-001	7.12205E-002	3.57750E+000	9	...........
	102	1.37333	6.66427E-002	-3.99188E-004	0.00000E+000	-2.66030E-005	-2.40040E-001	6.66516E-002	3.57750E+000	9	...........
	103	1.38667	6.19981E-002	-3.99470E-004	0.00000E+000	-2.47664E-005	-2.40040E-001	6.20083E-002	3.57750E+000	9	...........
	104	1.4	5.74380E-002	-3.99143E-004	0.00000E+000	-2.29260E-005	-2.40040E-001	5.74453E-002	3.57750E+000	9	...........
	105	1.41333	5.28873E-002	-3.98631E-004	0.00000E+000	-2.10825E-005	-2.40040E-001	5.28872E-002	3.57750E+000	9	...........
	106	1.42667	4.83640E-002	-3.98574E-004	0.00000E+000	-1.92766E-005	-2.40040E-001	4.83667E-002	3.57750E+000	9	...........
	107	1.44	4.39308E-002	-3.98884E-004	0.00000E+000	-1.75233E-005	-2.40040E-001	4.39385E-002	3.57750E+000	9	...........
	108	1.45333	3.94878E-002	-3.99600E-004	0.00000E+000	-1.57793E-005	-2.40040E-001	3.94965E-002	3.57750E+000	9	...........
	109	1.46667	3.50370E-002	-3.98078E-004	0.00000E+000	-1.39475E-005	-2.40040E-001	3.50438E-002	3.57750E+000	9	...........
	110	1.48	3.06447E-002	-3.98878E-004	0.00000E+000	-1.22235E-005	-2.40040E-001	3.06478E-002	3.57750E+000	9	...........
	111	1.49333	2.62747E-002	-3.98875E-004	0.00000E+000	-1.04803E-005	-2.40040E-001	2.62783E-002	3.57750E+000	9	...........
	112	1.50667	2.19601E-002	-3.99539E-004	0.00000E+000	-8.77390E-006	-2.40040E-001	2.19609E-002	3.57750E+000	9	...........
	113	1.52	1.76791E-002	-3.99478E-004	0.00000E+000	-7.06240E-006	-2.40040E-001	1.76719E-002	3.57750E+000	9	...........
	114	1.53333	1.33724E-002	-3.99825E-004	0.00000E+000	-5.34662E-006	-2.40040E-001	1.33640E-002	3.57750E+000	9	...........
	115	1.54667	9.09619E-003	-3.98642E-004	0.00000E+000	-3.62612E-006	-2.40040E-001	9.08584E-003	3.57750E+000	9	...........
	116	1.56	4.79486E-003	-3.98069E-004	0.00000E+000	-1.90868E-006	-2.40040E-001	4.77643E-003	3.57750E+000	9	...........
	117	1.57	1.02510E-003	-3.97894E-004	0.00000E+000	-4.07879E-007	-2.40040E-001	1.00591E-003	3.57750E+000	9	...........
STARTTIMEOFFSET	QUANT	1125.72	Start Time Offset (s)
