EXPLAIN
TAG	PWR800_DISCHARGE
TITLE	LABEL	PWR Cyclic Charge Discharge (Cell) - Discharge Step	Test &Identifier
DATE	LABEL	12-7-2017	Date
TIME	LABEL	14:51:12	Time
NOTES	NOTES	3	&Notes...
	supercap test cell
	0.4mg
	6M KOH
PSTAT	PSTAT	IFC5000-01520	Potentiostat
CAPACITY	QUANT	1.00000E-003	Capacity (A-hr)
CELLTYPE	SELECTOR	1	&Cell Type
WORKINGCONNECTION	SELECTOR	0	&Working Lead
MAXDISCHARGETIME	VARIABLEANDUNITS	1.00000E+002	s	1.00000E+002	second(s)	Max &Discharge Time
DISCHARGEMODE	MULTIPARAM	0	4.00000E-004	&Discharge Mode	Constant Current	Amp(s)
SAMPLETIME	QUANT	1.00000E-002	Sa&mple Period (s)
DISCHARGESTOPAT1	MULTIPARAM	3	0.00000E+000	Discharge Stop At &1	Voltage < Limit	V
DISCHARGESTOPAT2	MULTIPARAM	0	0.00000E+000	Discharge Stop At &2	None	N/A
AESBHCSELECTOR	TOGGLE	F	Save Both Half Cells
IRCOMP	TOGGLE	F	IR &Measure
EOC	QUANT	0	Open Circuit (V)
SEQUENCER	TOGGLE	TRUE	Run as Sequence
PSTATMODEL	IQUANT	53	Pstat Model
PSTATSECTION	LABEL	IFC5000-01520	Pstat Section
PSTATSERIALNO	LABEL	01520	Pstat Serial Number
CTRLMODE	IQUANT	0	Control Mode
ELECTROMETER	IQUANT	1	RE=0 or CS=1
IESTAB	IQUANT	0	I/E Stability
CASPEED	IQUANT	4	Control Amp Speed
CONVENTION	IQUANT	1	Current Convention
ICHRANGE	IQUANT	2	Ich Range
ICHRANGEMODE	TOGGLE	T	Ich Auto Range
ICHOFFSETENABLE	TOGGLE	F	Ich Offset Enable
ICHOFFSET	QUANT	0	Ich Offset (V)
ICHFILTER	IQUANT	1	Ich Filter
VCHRANGE	IQUANT	2	Vch Range
VCHRANGEMODE	TOGGLE	T	Vch Auto Range
VCHOFFSETENABLE	TOGGLE	F	Vch Offset Enable
VCHOFFSET	QUANT	0	Vch Offset (V)
VCHFILTER	IQUANT	1	Vch Filter
IERANGELOWERLIMIT	IQUANT	9	I/E Range Lower Limit
IERANGEMODE	TOGGLE	F	I/E AutoRange
IERANGE	IQUANT	9	I/E Range
ACHSELECT	IQUANT	1	Ach Select
ACHRANGE	IQUANT	2	Ach Range
ACHOFFSETENABLE	TOGGLE	F	Ach Offset Enable
ACHOFFSET	QUANT	0	Ach Offset (V)
ACHFILTER	IQUANT	1	Ach Filter
CABLEID	IQUANT	14	Cable ID
DCCALDATE	LABEL	5-7-2017	DC Calibration Date
ACCALDATE	LABEL	12/3/2015	AC Calibration Date
FRAMEWORKVERSION	QUANT	7.01	Framework Version
INSTRUMENTVERSION	LABEL	4.00	Instrument Version
CURVE	TABLE	113
	Pt	T	Vf	Im	Vu	Pwr	Sig	Ach	Temp	IERange	Over
	#	s	V	A	V	W	V	V	deg C	#	bits
	0	0.013333	7.01086E-001	-3.97582E-004	0.00000E+000	-2.78739E-004	-2.40040E-001	7.01324E-001	3.57610E+000	9	...........
	1	0.026667	6.88637E-001	-3.99065E-004	0.00000E+000	-2.74811E-004	-2.40040E-001	6.88874E-001	3.57610E+000	9	...........
	2	0.04	6.77721E-001	-3.99354E-004	0.00000E+000	-2.70651E-004	-2.40040E-001	6.77954E-001	3.57610E+000	9	...........
	3	0.053333	6.67617E-001	-3.98200E-004	0.00000E+000	-2.65845E-004	-2.40040E-001	6.67837E-001	3.57610E+000	9	...........
	4	0.066667	6.58062E-001	-3.99318E-004	0.00000E+000	-2.62776E-004	-2.40040E-001	6.58289E-001	3.57610E+000	9	...........
	5	0.08	6.48990E-001	-3.98833E-004	0.00000E+000	-2.58839E-004	-2.40040E-001	6.49188E-001	3.57610E+000	9	...........
	6	0.093333	6.40221E-001	-3.99268E-004	0.00000E+000	-2.55619E-004	-2.40040E-001	6.40409E-001	3.57610E+000	9	...........
	7	0.106667	6.31594E-001	-3.99591E-004	0.00000E+000	-2.52379E-004	-2.40040E-001	6.31811E-001	3.57610E+000	9	...........
	8	0.12	6.23257E-001	-3.99271E-004	0.00000E+000	-2.48848E-004	-2.40040E-001	6.23417E-001	3.57610E+000	9	...........
	9	0.133333	6.15010E-001	-3.99046E-004	0.00000E+000	-2.45417E-004	-2.40040E-001	6.15214E-001	3.57610E+000	9	...........
	10	0.146667	6.06882E-001	-3.98409E-004	0.00000E+000	-2.41787E-004	-2.40040E-001	6.07122E-001	3.57610E+000	9	...........
	11	0.16	5.98932E-001	-3.99255E-004	0.00000E+000	-2.39127E-004	-2.40040E-001	5.99175E-001	3.57610E+000	9	...........
	12	0.173333	5.91054E-001	-3.99043E-004	0.00000E+000	-2.35856E-004	-2.40040E-001	5.91303E-001	3.57610E+000	9	...........
	13	0.186667	5.83158E-001	-3.98217E-004	0.00000E+000	-2.32223E-004	-2.40040E-001	5.83423E-001	3.57610E+000	9	...........
	14	0.2	5.75368E-001	-3.97122E-004	0.00000E+000	-2.28491E-004	-2.40040E-001	5.75588E-001	3.57610E+000	9	...........
	15	0.213333	5.67570E-001	-3.99284E-004	0.00000E+000	-2.26622E-004	-2.40040E-001	5.67786E-001	3.57610E+000	9	...........
	16	0.226667	5.59908E-001	-3.98142E-004	0.00000E+000	-2.22923E-004	-2.40040E-001	5.60132E-001	3.57610E+000	9	...........
	17	0.24	5.52317E-001	-3.99288E-004	0.00000E+000	-2.20533E-004	-2.40040E-001	5.52517E-001	3.57610E+000	9	...........
	18	0.253333	5.44676E-001	-3.99720E-004	0.00000E+000	-2.17718E-004	-2.40040E-001	5.44862E-001	3.57610E+000	9	...........
	19	0.266667	5.37156E-001	-3.98347E-004	0.00000E+000	-2.13974E-004	-2.40040E-001	5.37364E-001	3.57610E+000	9	...........
	20	0.28	5.29687E-001	-3.99050E-004	0.00000E+000	-2.11372E-004	-2.40040E-001	5.29867E-001	3.57610E+000	9	...........
	21	0.293333	5.22311E-001	-3.99201E-004	0.00000E+000	-2.08507E-004	-2.40040E-001	5.22539E-001	3.57610E+000	9	...........
	22	0.306667	5.15007E-001	-3.99090E-004	0.00000E+000	-2.05534E-004	-2.40040E-001	5.15193E-001	3.57610E+000	9	...........
	23	0.32	5.07619E-001	-3.99288E-004	0.00000E+000	-2.02686E-004	-2.40040E-001	5.07865E-001	3.57610E+000	9	...........
	24	0.333333	5.00395E-001	-3.98658E-004	0.00000E+000	-1.99487E-004	-2.40040E-001	5.00625E-001	3.57610E+000	9	...........
	25	0.346667	4.93151E-001	-3.99011E-004	0.00000E+000	-1.96773E-004	-2.40040E-001	4.93368E-001	3.57610E+000	9	...........
	26	0.36	4.86065E-001	-3.98533E-004	0.00000E+000	-1.93713E-004	-2.40040E-001	4.86212E-001	3.57610E+000	9	...........
	27	0.373333	4.79077E-001	-3.98704E-004	0.00000E+000	-1.91010E-004	-2.40040E-001	4.79175E-001	3.57610E+000	9	...........
	28	0.386667	4.71932E-001	-4.00574E-004	0.00000E+000	-1.89044E-004	-2.40040E-001	4.72027E-001	3.57610E+000	9	...........
	29	0.4	4.64923E-001	-3.97962E-004	0.00000E+000	-1.85022E-004	-2.40040E-001	4.65016E-001	3.57610E+000	9	...........
	30	0.413333	4.57968E-001	-3.99689E-004	0.00000E+000	-1.83045E-004	-2.40040E-001	4.58061E-001	3.57610E+000	9	...........
	31	0.426667	4.50933E-001	-3.98976E-004	0.00000E+000	-1.79912E-004	-2.40040E-001	4.51027E-001	3.57610E+000	9	...........
	32	0.44	4.43962E-001	-3.97683E-004	0.00000E+000	-1.76556E-004	-2.40040E-001	4.44054E-001	3.57610E+000	9	...........
	33	0.453333	4.36911E-001	-3.99522E-004	0.00000E+000	-1.74556E-004	-2.40040E-001	4.36998E-001	3.57610E+000	9	...........
	34	0.466667	4.30031E-001	-3.99843E-004	0.00000E+000	-1.71945E-004	-2.40040E-001	4.30113E-001	3.57610E+000	9	...........
	35	0.48	4.23188E-001	-3.99474E-004	0.00000E+000	-1.69053E-004	-2.40040E-001	4.23271E-001	3.57610E+000	9	...........
	36	0.493333	4.16379E-001	-3.98262E-004	0.00000E+000	-1.65828E-004	-2.40040E-001	4.16459E-001	3.57610E+000	9	...........
	37	0.506667	4.09663E-001	-3.99258E-004	0.00000E+000	-1.63561E-004	-2.40040E-001	4.09739E-001	3.57610E+000	9	...........
	38	0.52	4.02887E-001	-3.98968E-004	0.00000E+000	-1.60739E-004	-2.40040E-001	4.02959E-001	3.57610E+000	9	...........
	39	0.533333	3.96137E-001	-3.99706E-004	0.00000E+000	-1.58338E-004	-2.40040E-001	3.96211E-001	3.57610E+000	9	...........
	40	0.546667	3.89407E-001	-3.99253E-004	0.00000E+000	-1.55472E-004	-2.40040E-001	3.89484E-001	3.57610E+000	9	...........
	41	0.56	3.82802E-001	-3.98485E-004	0.00000E+000	-1.52541E-004	-2.40040E-001	3.82878E-001	3.57610E+000	9	...........
	42	0.573333	3.76297E-001	-3.99424E-004	0.00000E+000	-1.50302E-004	-2.40040E-001	3.76371E-001	3.57610E+000	9	...........
	43	0.586667	3.69813E-001	-3.98616E-004	0.00000E+000	-1.47413E-004	-2.40040E-001	3.69888E-001	3.57610E+000	9	...........
	44	0.6	3.63313E-001	-3.99183E-004	0.00000E+000	-1.45029E-004	-2.40040E-001	3.63388E-001	3.57610E+000	9	...........
	45	0.613333	3.56788E-001	-3.99118E-004	0.00000E+000	-1.42401E-004	-2.40040E-001	3.56860E-001	3.57610E+000	9	...........
	46	0.626667	3.50289E-001	-3.98616E-004	0.00000E+000	-1.39631E-004	-2.40040E-001	3.50360E-001	3.57610E+000	9	...........
	47	0.64	3.43859E-001	-4.00268E-004	0.00000E+000	-1.37636E-004	-2.40040E-001	3.43925E-001	3.57610E+000	9	...........
	48	0.653333	3.37457E-001	-3.99268E-004	0.00000E+000	-1.34736E-004	-2.40040E-001	3.37524E-001	3.57610E+000	9	...........
	49	0.666667	3.31163E-001	-3.99475E-004	0.00000E+000	-1.32292E-004	-2.40040E-001	3.31225E-001	3.57610E+000	9	...........
	50	0.68	3.24885E-001	-3.99976E-004	0.00000E+000	-1.29946E-004	-2.40040E-001	3.24949E-001	3.57610E+000	9	...........
	51	0.693333	3.18697E-001	-3.99579E-004	0.00000E+000	-1.27345E-004	-2.40040E-001	3.18757E-001	3.57610E+000	9	...........
	52	0.706667	3.12544E-001	-3.99022E-004	0.00000E+000	-1.24712E-004	-2.40040E-001	3.12611E-001	3.57610E+000	9	...........
	53	0.72	3.06394E-001	-3.98199E-004	0.00000E+000	-1.22006E-004	-2.40040E-001	3.06457E-001	3.57610E+000	9	...........
	54	0.733333	3.00188E-001	-3.99155E-004	0.00000E+000	-1.19821E-004	-2.40040E-001	3.00247E-001	3.57610E+000	9	...........
	55	0.746667	2.94081E-001	-3.99092E-004	0.00000E+000	-1.17365E-004	-2.40040E-001	2.94138E-001	3.57610E+000	9	...........
	56	0.76	2.88108E-001	-3.98791E-004	0.00000E+000	-1.14895E-004	-2.40040E-001	2.88163E-001	3.57610E+000	9	...........
	57	0.773333	2.82090E-001	-3.98935E-004	0.00000E+000	-1.12536E-004	-2.40040E-001	2.82149E-001	3.57610E+000	9	...........
	58	0.786667	2.76106E-001	-3.98434E-004	0.00000E+000	-1.10010E-004	-2.40040E-001	2.76163E-001	3.57610E+000	9	...........
	59	0.8	2.70218E-001	-3.97492E-004	0.00000E+000	-1.07410E-004	-2.40040E-001	2.70270E-001	3.57610E+000	9	...........
	60	0.813333	2.64283E-001	-3.99885E-004	0.00000E+000	-1.05683E-004	-2.40040E-001	2.64338E-001	3.57610E+000	9	...........
	61	0.826667	2.58380E-001	-3.99202E-004	0.00000E+000	-1.03146E-004	-2.40040E-001	2.58434E-001	3.57610E+000	9	...........
	62	0.84	2.52549E-001	-3.99523E-004	0.00000E+000	-1.00899E-004	-2.40040E-001	2.52600E-001	3.57610E+000	9	...........
	63	0.853333	2.46641E-001	-3.98702E-004	0.00000E+000	-9.83362E-005	-2.40040E-001	2.46685E-001	3.57610E+000	9	...........
	64	0.866667	2.40962E-001	-3.97623E-004	0.00000E+000	-9.58119E-005	-2.40040E-001	2.41012E-001	3.57610E+000	9	...........
	65	0.88	2.35347E-001	-3.98823E-004	0.00000E+000	-9.38618E-005	-2.40040E-001	2.35393E-001	3.57610E+000	9	...........
	66	0.893333	2.29650E-001	-3.98495E-004	0.00000E+000	-9.15142E-005	-2.40040E-001	2.29690E-001	3.57610E+000	9	...........
	67	0.906667	2.23995E-001	-3.98605E-004	0.00000E+000	-8.92856E-005	-2.40040E-001	2.24043E-001	3.57610E+000	9	...........
	68	0.92	2.18430E-001	-3.98776E-004	0.00000E+000	-8.71045E-005	-2.40040E-001	2.18469E-001	3.57666E+000	9	...........
	69	0.933333	2.12799E-001	-3.97851E-004	0.00000E+000	-8.46624E-005	-2.40040E-001	2.12834E-001	3.57760E+000	9	...........
	70	0.946667	2.07211E-001	-3.97248E-004	0.00000E+000	-8.23142E-005	-2.40040E-001	2.07255E-001	3.57760E+000	9	...........
	71	0.96	2.01683E-001	-3.98580E-004	0.00000E+000	-8.03869E-005	-2.40040E-001	2.01722E-001	3.57760E+000	9	...........
	72	0.97333	1.96143E-001	-3.98937E-004	0.00000E+000	-7.82489E-005	-2.40040E-001	1.96184E-001	3.57760E+000	9	...........
	73	0.98667	1.90636E-001	-3.98755E-004	0.00000E+000	-7.60170E-005	-2.40040E-001	1.90673E-001	3.57760E+000	9	...........
	74	1	1.85239E-001	-3.98926E-004	0.00000E+000	-7.38968E-005	-2.40040E-001	1.85278E-001	3.57760E+000	9	...........
	75	1.01333	1.79819E-001	-3.99025E-004	0.00000E+000	-7.17523E-005	-2.40040E-001	1.79854E-001	3.57760E+000	9	...........
	76	1.02667	1.74427E-001	-3.98351E-004	0.00000E+000	-6.94830E-005	-2.40040E-001	1.74461E-001	3.57760E+000	9	...........
	77	1.04	1.69152E-001	-3.98741E-004	0.00000E+000	-6.74476E-005	-2.40040E-001	1.69184E-001	3.57760E+000	9	...........
	78	1.05333	1.63828E-001	-4.00630E-004	0.00000E+000	-6.56343E-005	-2.40040E-001	1.63853E-001	3.57760E+000	9	...........
	79	1.06667	1.58531E-001	-3.97316E-004	0.00000E+000	-6.29868E-005	-2.40040E-001	1.58558E-001	3.57760E+000	9	...........
	80	1.08	1.53303E-001	-3.99024E-004	0.00000E+000	-6.11717E-005	-2.40040E-001	1.53330E-001	3.57760E+000	9	...........
	81	1.09333	1.48105E-001	-3.99481E-004	0.00000E+000	-5.91652E-005	-2.40040E-001	1.48130E-001	3.57760E+000	9	...........
	82	1.10667	1.42885E-001	-3.99319E-004	0.00000E+000	-5.70568E-005	-2.40040E-001	1.42908E-001	3.57760E+000	9	...........
	83	1.12	1.37750E-001	-3.98048E-004	0.00000E+000	-5.48312E-005	-2.40040E-001	1.37777E-001	3.57760E+000	9	...........
	84	1.13333	1.32643E-001	-4.00183E-004	0.00000E+000	-5.30815E-005	-2.40040E-001	1.32669E-001	3.57760E+000	9	...........
	85	1.14667	1.27435E-001	-3.98381E-004	0.00000E+000	-5.07675E-005	-2.40040E-001	1.27460E-001	3.57760E+000	9	...........
	86	1.16	1.22359E-001	-3.97642E-004	0.00000E+000	-4.86551E-005	-2.40040E-001	1.22384E-001	3.57760E+000	9	...........
	87	1.17333	1.17354E-001	-3.99275E-004	0.00000E+000	-4.68564E-005	-2.40040E-001	1.17377E-001	3.57760E+000	9	...........
	88	1.18667	1.12361E-001	-3.98245E-004	0.00000E+000	-4.47472E-005	-2.40040E-001	1.12384E-001	3.57760E+000	9	...........
	89	1.2	1.07409E-001	-3.99223E-004	0.00000E+000	-4.28800E-005	-2.40040E-001	1.07431E-001	3.57760E+000	9	...........
	90	1.21333	1.02401E-001	-3.99006E-004	0.00000E+000	-4.08587E-005	-2.40040E-001	1.02421E-001	3.57760E+000	9	...........
	91	1.22667	9.74576E-002	-4.00684E-004	0.00000E+000	-3.90497E-005	-2.40040E-001	9.74742E-002	3.57760E+000	9	...........
	92	1.24	9.26348E-002	-3.98944E-004	0.00000E+000	-3.69561E-005	-2.40040E-001	9.26455E-002	3.57760E+000	9	...........
	93	1.25333	8.77806E-002	-3.98412E-004	0.00000E+000	-3.49729E-005	-2.40040E-001	8.77881E-002	3.57760E+000	9	...........
	94	1.26667	8.29186E-002	-3.98693E-004	0.00000E+000	-3.30590E-005	-2.40040E-001	8.29270E-002	3.57760E+000	9	...........
	95	1.28	7.80217E-002	-3.99003E-004	0.00000E+000	-3.11309E-005	-2.40040E-001	7.80290E-002	3.57760E+000	9	...........
	96	1.29333	7.32317E-002	-3.97982E-004	0.00000E+000	-2.91449E-005	-2.40040E-001	7.32413E-002	3.57760E+000	9	...........
	97	1.30667	6.85191E-002	-3.97460E-004	0.00000E+000	-2.72336E-005	-2.40040E-001	6.85228E-002	3.57760E+000	9	...........
	98	1.32	6.37692E-002	-3.97338E-004	0.00000E+000	-2.53379E-005	-2.40040E-001	6.37744E-002	3.57760E+000	9	...........
	99	1.33333	5.91035E-002	-3.99272E-004	0.00000E+000	-2.35984E-005	-2.40040E-001	5.91100E-002	3.57760E+000	9	...........
	100	1.34667	5.43547E-002	-3.97815E-004	0.00000E+000	-2.16231E-005	-2.40040E-001	5.43577E-002	3.57760E+000	9	...........
	101	1.36	4.96178E-002	-3.98272E-004	0.00000E+000	-1.97613E-005	-2.40040E-001	4.96195E-002	3.57760E+000	9	...........
	102	1.37333	4.50418E-002	-3.98519E-004	0.00000E+000	-1.79500E-005	-2.40040E-001	4.50455E-002	3.57760E+000	9	...........
	103	1.38667	4.03805E-002	-3.98517E-004	0.00000E+000	-1.60923E-005	-2.40040E-001	4.03872E-002	3.57760E+000	9	...........
	104	1.4	3.58661E-002	-3.98419E-004	0.00000E+000	-1.42897E-005	-2.40040E-001	3.58713E-002	3.57760E+000	9	...........
	105	1.41333	3.14131E-002	-3.99004E-004	0.00000E+000	-1.25339E-005	-2.40040E-001	3.14093E-002	3.57760E+000	9	...........
	106	1.42667	2.68703E-002	-3.99387E-004	0.00000E+000	-1.07316E-005	-2.40040E-001	2.68608E-002	3.57760E+000	9	...........
	107	1.44	2.23982E-002	-3.99369E-004	0.00000E+000	-8.94514E-006	-2.40040E-001	2.23917E-002	3.57760E+000	9	...........
	108	1.45333	1.78427E-002	-3.98706E-004	0.00000E+000	-7.11399E-006	-2.40040E-001	1.78385E-002	3.57760E+000	9	...........
	109	1.46667	1.34901E-002	-4.00049E-004	0.00000E+000	-5.39669E-006	-2.40040E-001	1.34782E-002	3.57760E+000	9	...........
	110	1.48	9.04282E-003	-3.99117E-004	0.00000E+000	-3.60914E-006	-2.40040E-001	9.03321E-003	3.57760E+000	9	...........
	111	1.49333	4.62569E-003	-3.98301E-004	0.00000E+000	-1.84242E-006	-2.40040E-001	4.60824E-003	3.57760E+000	9	...........
	112	1.50167	1.07497E-003	-3.99245E-004	0.00000E+000	-4.29176E-007	-2.40040E-001	1.05506E-003	3.57760E+000	9	...........
STARTTIMEOFFSET	QUANT	1558.354	Start Time Offset (s)
