EXPLAIN
TAG	PWR800_DISCHARGE
TITLE	LABEL	PWR Cyclic Charge Discharge (Cell) - Discharge Step	Test &Identifier
DATE	LABEL	12-7-2017	Date
TIME	LABEL	14:25:04	Time
NOTES	NOTES	3	&Notes...
	supercap test cell
	0.4mg
	6M KOH
PSTAT	PSTAT	IFC5000-01520	Potentiostat
CAPACITY	QUANT	1.00000E-003	Capacity (A-hr)
CELLTYPE	SELECTOR	1	&Cell Type
WORKINGCONNECTION	SELECTOR	0	&Working Lead
MAXDISCHARGETIME	VARIABLEANDUNITS	1.00000E+002	s	1.00000E+002	second(s)	Max &Discharge Time
DISCHARGEMODE	MULTIPARAM	0	4.00000E-004	&Discharge Mode	Constant Current	Amp(s)
SAMPLETIME	QUANT	1.00000E-002	Sa&mple Period (s)
DISCHARGESTOPAT1	MULTIPARAM	3	0.00000E+000	Discharge Stop At &1	Voltage < Limit	V
DISCHARGESTOPAT2	MULTIPARAM	0	0.00000E+000	Discharge Stop At &2	None	N/A
AESBHCSELECTOR	TOGGLE	F	Save Both Half Cells
IRCOMP	TOGGLE	F	IR &Measure
EOC	QUANT	0	Open Circuit (V)
SEQUENCER	TOGGLE	TRUE	Run as Sequence
PSTATMODEL	IQUANT	53	Pstat Model
PSTATSECTION	LABEL	IFC5000-01520	Pstat Section
PSTATSERIALNO	LABEL	01520	Pstat Serial Number
CTRLMODE	IQUANT	0	Control Mode
ELECTROMETER	IQUANT	1	RE=0 or CS=1
IESTAB	IQUANT	0	I/E Stability
CASPEED	IQUANT	4	Control Amp Speed
CONVENTION	IQUANT	1	Current Convention
ICHRANGE	IQUANT	2	Ich Range
ICHRANGEMODE	TOGGLE	T	Ich Auto Range
ICHOFFSETENABLE	TOGGLE	F	Ich Offset Enable
ICHOFFSET	QUANT	0	Ich Offset (V)
ICHFILTER	IQUANT	1	Ich Filter
VCHRANGE	IQUANT	2	Vch Range
VCHRANGEMODE	TOGGLE	T	Vch Auto Range
VCHOFFSETENABLE	TOGGLE	F	Vch Offset Enable
VCHOFFSET	QUANT	0	Vch Offset (V)
VCHFILTER	IQUANT	1	Vch Filter
IERANGELOWERLIMIT	IQUANT	9	I/E Range Lower Limit
IERANGEMODE	TOGGLE	F	I/E AutoRange
IERANGE	IQUANT	9	I/E Range
ACHSELECT	IQUANT	1	Ach Select
ACHRANGE	IQUANT	2	Ach Range
ACHOFFSETENABLE	TOGGLE	F	Ach Offset Enable
ACHOFFSET	QUANT	0	Ach Offset (V)
ACHFILTER	IQUANT	1	Ach Filter
CABLEID	IQUANT	14	Cable ID
DCCALDATE	LABEL	5-7-2017	DC Calibration Date
ACCALDATE	LABEL	12/3/2015	AC Calibration Date
FRAMEWORKVERSION	QUANT	7.01	Framework Version
INSTRUMENTVERSION	LABEL	4.00	Instrument Version
CURVE	TABLE	132
	Pt	T	Vf	Im	Vu	Pwr	Sig	Ach	Temp	IERange	Over
	#	s	V	A	V	W	V	V	deg C	#	bits
	0	0.013333	7.20331E-001	-3.98212E-004	0.00000E+000	-2.86845E-004	-2.40040E-001	7.20561E-001	3.57680E+000	9	...........
	1	0.026667	7.09400E-001	-3.99793E-004	0.00000E+000	-2.83613E-004	-2.40040E-001	7.09630E-001	3.57680E+000	9	...........
	2	0.04	6.99729E-001	-3.97648E-004	0.00000E+000	-2.78246E-004	-2.40040E-001	6.99977E-001	3.57680E+000	9	...........
	3	0.053333	6.90745E-001	-3.99561E-004	0.00000E+000	-2.75995E-004	-2.40040E-001	6.90987E-001	3.57680E+000	9	...........
	4	0.066667	6.82286E-001	-3.99646E-004	0.00000E+000	-2.72673E-004	-2.40040E-001	6.82539E-001	3.57680E+000	9	...........
	5	0.08	6.74174E-001	-3.99287E-004	0.00000E+000	-2.69189E-004	-2.40040E-001	6.74404E-001	3.57630E+000	9	...........
	6	0.093333	6.66279E-001	-3.97739E-004	0.00000E+000	-2.65005E-004	-2.40040E-001	6.66532E-001	3.57580E+000	9	...........
	7	0.106667	6.58699E-001	-3.98875E-004	0.00000E+000	-2.62738E-004	-2.40040E-001	6.58900E-001	3.57580E+000	9	...........
	8	0.12	6.51205E-001	-3.98351E-004	0.00000E+000	-2.59408E-004	-2.40040E-001	6.51427E-001	3.57580E+000	9	...........
	9	0.133333	6.43779E-001	-3.97332E-004	0.00000E+000	-2.55794E-004	-2.40040E-001	6.44007E-001	3.57580E+000	9	...........
	10	0.146667	6.36415E-001	-3.97898E-004	0.00000E+000	-2.53228E-004	-2.40040E-001	6.36627E-001	3.57580E+000	9	...........
	11	0.16	6.29209E-001	-3.98199E-004	0.00000E+000	-2.50550E-004	-2.40040E-001	6.29424E-001	3.57580E+000	9	...........
	12	0.173333	6.22149E-001	-3.99432E-004	0.00000E+000	-2.48506E-004	-2.40040E-001	6.22351E-001	3.57580E+000	9	...........
	13	0.186667	6.15032E-001	-3.98058E-004	0.00000E+000	-2.44819E-004	-2.40040E-001	6.15259E-001	3.57580E+000	9	...........
	14	0.2	6.07981E-001	-3.97897E-004	0.00000E+000	-2.41914E-004	-2.40040E-001	6.08248E-001	3.57580E+000	9	...........
	15	0.213333	6.01119E-001	-3.98069E-004	0.00000E+000	-2.39286E-004	-2.40040E-001	6.01371E-001	3.57580E+000	9	...........
	16	0.226667	5.94270E-001	-3.98224E-004	0.00000E+000	-2.36652E-004	-2.40040E-001	5.94513E-001	3.57580E+000	9	...........
	17	0.24	5.87426E-001	-3.98176E-004	0.00000E+000	-2.33899E-004	-2.40040E-001	5.87666E-001	3.57580E+000	9	...........
	18	0.253333	5.80557E-001	-3.99131E-004	0.00000E+000	-2.31719E-004	-2.40040E-001	5.80800E-001	3.57580E+000	9	...........
	19	0.266667	5.73875E-001	-3.98127E-004	0.00000E+000	-2.28475E-004	-2.40040E-001	5.74091E-001	3.57580E+000	9	...........
	20	0.28	5.67214E-001	-3.98519E-004	0.00000E+000	-2.26045E-004	-2.40040E-001	5.67433E-001	3.57580E+000	9	...........
	21	0.293333	5.60450E-001	-3.98522E-004	0.00000E+000	-2.23351E-004	-2.40040E-001	5.60685E-001	3.57580E+000	9	...........
	22	0.306667	5.53836E-001	-3.99080E-004	0.00000E+000	-2.21025E-004	-2.40040E-001	5.54059E-001	3.57580E+000	9	...........
	23	0.32	5.47316E-001	-3.98124E-004	0.00000E+000	-2.17900E-004	-2.40040E-001	5.47510E-001	3.57580E+000	9	...........
	24	0.333333	5.40795E-001	-3.98400E-004	0.00000E+000	-2.15453E-004	-2.40040E-001	5.40994E-001	3.57580E+000	9	...........
	25	0.346667	5.34289E-001	-3.98990E-004	0.00000E+000	-2.13176E-004	-2.40040E-001	5.34452E-001	3.57580E+000	9	...........
	26	0.36	5.27819E-001	-3.98237E-004	0.00000E+000	-2.10197E-004	-2.40040E-001	5.27964E-001	3.57580E+000	9	...........
	27	0.373333	5.21474E-001	-3.99289E-004	0.00000E+000	-2.08219E-004	-2.40040E-001	5.21626E-001	3.57580E+000	9	...........
	28	0.386667	5.15149E-001	-3.98854E-004	0.00000E+000	-2.05469E-004	-2.40040E-001	5.15325E-001	3.57580E+000	9	...........
	29	0.4	5.08712E-001	-3.99495E-004	0.00000E+000	-2.03228E-004	-2.40040E-001	5.08925E-001	3.57580E+000	9	...........
	30	0.413333	5.02338E-001	-3.98854E-004	0.00000E+000	-2.00360E-004	-2.40040E-001	5.02569E-001	3.57580E+000	9	...........
	31	0.426667	4.96051E-001	-3.99364E-004	0.00000E+000	-1.98105E-004	-2.40040E-001	4.96248E-001	3.57580E+000	9	...........
	32	0.44	4.89842E-001	-3.98088E-004	0.00000E+000	-1.95001E-004	-2.40040E-001	4.90038E-001	3.57580E+000	9	...........
	33	0.453333	4.83758E-001	-3.98965E-004	0.00000E+000	-1.93002E-004	-2.40040E-001	4.83892E-001	3.57580E+000	9	...........
	34	0.466667	4.77664E-001	-3.98418E-004	0.00000E+000	-1.90310E-004	-2.40040E-001	4.77757E-001	3.57580E+000	9	...........
	35	0.48	4.71494E-001	-3.97291E-004	0.00000E+000	-1.87320E-004	-2.40040E-001	4.71590E-001	3.57580E+000	9	...........
	36	0.493333	4.65435E-001	-3.99538E-004	0.00000E+000	-1.85959E-004	-2.40040E-001	4.65526E-001	3.57580E+000	9	...........
	37	0.506667	4.59342E-001	-3.99189E-004	0.00000E+000	-1.83364E-004	-2.40040E-001	4.59430E-001	3.57580E+000	9	...........
	38	0.52	4.53276E-001	-3.99107E-004	0.00000E+000	-1.80906E-004	-2.40040E-001	4.53362E-001	3.57580E+000	9	...........
	39	0.533333	4.47201E-001	-3.98890E-004	0.00000E+000	-1.78384E-004	-2.40040E-001	4.47289E-001	3.57580E+000	9	...........
	40	0.546667	4.41262E-001	-3.97628E-004	0.00000E+000	-1.75458E-004	-2.40040E-001	4.41347E-001	3.57580E+000	9	...........
	41	0.56	4.35273E-001	-3.99163E-004	0.00000E+000	-1.73745E-004	-2.40040E-001	4.35361E-001	3.57580E+000	9	...........
	42	0.573333	4.29421E-001	-4.00172E-004	0.00000E+000	-1.71842E-004	-2.40040E-001	4.29508E-001	3.57580E+000	9	...........
	43	0.586667	4.23500E-001	-3.98712E-004	0.00000E+000	-1.68855E-004	-2.40040E-001	4.23582E-001	3.57580E+000	9	...........
	44	0.6	4.17546E-001	-3.97729E-004	0.00000E+000	-1.66070E-004	-2.40040E-001	4.17628E-001	3.57580E+000	9	...........
	45	0.613333	4.11707E-001	-3.98922E-004	0.00000E+000	-1.64239E-004	-2.40040E-001	4.11785E-001	3.57580E+000	9	...........
	46	0.626667	4.05833E-001	-4.00522E-004	0.00000E+000	-1.62545E-004	-2.40040E-001	4.05907E-001	3.57580E+000	9	...........
	47	0.64	4.00028E-001	-3.99777E-004	0.00000E+000	-1.59922E-004	-2.40040E-001	4.00098E-001	3.57580E+000	9	...........
	48	0.653333	3.94223E-001	-3.98846E-004	0.00000E+000	-1.57234E-004	-2.40040E-001	3.94300E-001	3.57580E+000	9	...........
	49	0.666667	3.88525E-001	-3.99652E-004	0.00000E+000	-1.55275E-004	-2.40040E-001	3.88591E-001	3.57580E+000	9	...........
	50	0.68	3.82873E-001	-3.98790E-004	0.00000E+000	-1.52686E-004	-2.40040E-001	3.82944E-001	3.57580E+000	9	...........
	51	0.693333	3.77137E-001	-3.98995E-004	0.00000E+000	-1.50476E-004	-2.40040E-001	3.77200E-001	3.57580E+000	9	...........
	52	0.706667	3.71456E-001	-3.97881E-004	0.00000E+000	-1.47795E-004	-2.40040E-001	3.71524E-001	3.57580E+000	9	...........
	53	0.72	3.65874E-001	-3.98724E-004	0.00000E+000	-1.45883E-004	-2.40040E-001	3.65939E-001	3.57580E+000	9	...........
	54	0.733333	3.60253E-001	-3.98088E-004	0.00000E+000	-1.43413E-004	-2.40040E-001	3.60325E-001	3.57580E+000	9	...........
	55	0.746667	3.54700E-001	-3.98571E-004	0.00000E+000	-1.41373E-004	-2.40040E-001	3.54765E-001	3.57580E+000	9	...........
	56	0.76	3.49146E-001	-3.98642E-004	0.00000E+000	-1.39184E-004	-2.40040E-001	3.49206E-001	3.57580E+000	9	...........
	57	0.773333	3.43595E-001	-3.96602E-004	0.00000E+000	-1.36270E-004	-2.40040E-001	3.43661E-001	3.57580E+000	9	...........
	58	0.786667	3.37974E-001	-4.00136E-004	0.00000E+000	-1.35236E-004	-2.40040E-001	3.38034E-001	3.57580E+000	9	...........
	59	0.8	3.32490E-001	-3.98231E-004	0.00000E+000	-1.32408E-004	-2.40040E-001	3.32548E-001	3.57580E+000	9	...........
	60	0.813333	3.27040E-001	-4.00566E-004	0.00000E+000	-1.31001E-004	-2.40040E-001	3.27103E-001	3.57580E+000	9	...........
	61	0.826667	3.21639E-001	-3.97456E-004	0.00000E+000	-1.27838E-004	-2.40040E-001	3.21697E-001	3.57580E+000	9	...........
	62	0.84	3.16230E-001	-4.00265E-004	0.00000E+000	-1.26576E-004	-2.40040E-001	3.16290E-001	3.57580E+000	9	...........
	63	0.853333	3.10869E-001	-3.98540E-004	0.00000E+000	-1.23894E-004	-2.40040E-001	3.10918E-001	3.57580E+000	9	...........
	64	0.866667	3.05505E-001	-3.98289E-004	0.00000E+000	-1.21679E-004	-2.40040E-001	3.05559E-001	3.57580E+000	9	...........
	65	0.88	3.00147E-001	-3.98114E-004	0.00000E+000	-1.19493E-004	-2.40040E-001	3.00199E-001	3.57580E+000	9	...........
	66	0.893333	2.94812E-001	-3.98759E-004	0.00000E+000	-1.17559E-004	-2.40040E-001	2.94868E-001	3.57580E+000	9	...........
	67	0.906667	2.89555E-001	-3.99882E-004	0.00000E+000	-1.15788E-004	-2.40040E-001	2.89605E-001	3.57580E+000	9	...........
	68	0.92	2.84354E-001	-3.98896E-004	0.00000E+000	-1.13428E-004	-2.40040E-001	2.84409E-001	3.57580E+000	9	...........
	69	0.933333	2.79152E-001	-3.97811E-004	0.00000E+000	-1.11050E-004	-2.40040E-001	2.79209E-001	3.57580E+000	9	...........
	70	0.946667	2.73947E-001	-3.98998E-004	0.00000E+000	-1.09304E-004	-2.40040E-001	2.73995E-001	3.57580E+000	9	...........
	71	0.96	2.68705E-001	-3.98667E-004	0.00000E+000	-1.07124E-004	-2.40040E-001	2.68752E-001	3.57580E+000	9	...........
	72	0.97333	2.63474E-001	-3.98669E-004	0.00000E+000	-1.05039E-004	-2.40040E-001	2.63522E-001	3.57580E+000	9	...........
	73	0.98667	2.58406E-001	-3.99549E-004	0.00000E+000	-1.03246E-004	-2.40040E-001	2.58452E-001	3.57580E+000	9	...........
	74	1	2.53327E-001	-3.98260E-004	0.00000E+000	-1.00890E-004	-2.40040E-001	2.53374E-001	3.57580E+000	9	...........
	75	1.01333	2.48171E-001	-3.98586E-004	0.00000E+000	-9.89176E-005	-2.40040E-001	2.48220E-001	3.57580E+000	9	...........
	76	1.02667	2.43106E-001	-3.99202E-004	0.00000E+000	-9.70484E-005	-2.40040E-001	2.43147E-001	3.57580E+000	9	...........
	77	1.04	2.38111E-001	-3.98343E-004	0.00000E+000	-9.48497E-005	-2.40040E-001	2.38151E-001	3.57580E+000	9	...........
	78	1.05333	2.33115E-001	-3.99011E-004	0.00000E+000	-9.30157E-005	-2.40040E-001	2.33154E-001	3.57580E+000	9	...........
	79	1.06667	2.28182E-001	-3.97632E-004	0.00000E+000	-9.07326E-005	-2.40040E-001	2.28226E-001	3.57580E+000	9	...........
	80	1.08	2.23204E-001	-3.98261E-004	0.00000E+000	-8.88937E-005	-2.40040E-001	2.23243E-001	3.57585E+000	9	...........
	81	1.09333	2.18234E-001	-3.98522E-004	0.00000E+000	-8.69709E-005	-2.40040E-001	2.18273E-001	3.57590E+000	9	...........
	82	1.10667	2.13303E-001	-3.98867E-004	0.00000E+000	-8.50795E-005	-2.40040E-001	2.13338E-001	3.57590E+000	9	...........
	83	1.12	2.08448E-001	-3.99893E-004	0.00000E+000	-8.33567E-005	-2.40040E-001	2.08481E-001	3.57590E+000	9	...........
	84	1.13333	2.03580E-001	-3.98105E-004	0.00000E+000	-8.10463E-005	-2.40040E-001	2.03614E-001	3.57590E+000	9	...........
	85	1.14667	1.98784E-001	-3.99291E-004	0.00000E+000	-7.93726E-005	-2.40040E-001	1.98825E-001	3.57590E+000	9	...........
	86	1.16	1.93894E-001	-3.99920E-004	0.00000E+000	-7.75420E-005	-2.40040E-001	1.93928E-001	3.57590E+000	9	...........
	87	1.17333	1.89092E-001	-3.97647E-004	0.00000E+000	-7.51918E-005	-2.40040E-001	1.89131E-001	3.57590E+000	9	...........
	88	1.18667	1.84346E-001	-3.98839E-004	0.00000E+000	-7.35242E-005	-2.40040E-001	1.84381E-001	3.57590E+000	9	...........
	89	1.2	1.79603E-001	-3.99146E-004	0.00000E+000	-7.16879E-005	-2.40040E-001	1.79641E-001	3.57590E+000	9	...........
	90	1.21333	1.74907E-001	-3.98952E-004	0.00000E+000	-6.97794E-005	-2.40040E-001	1.74941E-001	3.57590E+000	9	...........
	91	1.22667	1.70166E-001	-3.99911E-004	0.00000E+000	-6.80512E-005	-2.40040E-001	1.70202E-001	3.57590E+000	9	...........
	92	1.24	1.65435E-001	-3.98305E-004	0.00000E+000	-6.58934E-005	-2.40040E-001	1.65471E-001	3.57590E+000	9	...........
	93	1.25333	1.60773E-001	-3.98718E-004	0.00000E+000	-6.41031E-005	-2.40040E-001	1.60803E-001	3.57590E+000	9	...........
	94	1.26667	1.56113E-001	-3.97838E-004	0.00000E+000	-6.21076E-005	-2.40040E-001	1.56142E-001	3.57590E+000	9	...........
	95	1.28	1.51495E-001	-3.99411E-004	0.00000E+000	-6.05085E-005	-2.40040E-001	1.51519E-001	3.57590E+000	9	...........
	96	1.29333	1.46833E-001	-3.99284E-004	0.00000E+000	-5.86280E-005	-2.40040E-001	1.46861E-001	3.57590E+000	9	...........
	97	1.30667	1.42274E-001	-3.99729E-004	0.00000E+000	-5.68711E-005	-2.40040E-001	1.42305E-001	3.57590E+000	9	...........
	98	1.32	1.37730E-001	-3.98695E-004	0.00000E+000	-5.49122E-005	-2.40040E-001	1.37755E-001	3.57590E+000	9	...........
	99	1.33333	1.33261E-001	-3.98013E-004	0.00000E+000	-5.30397E-005	-2.40040E-001	1.33288E-001	3.57590E+000	9	...........
	100	1.34667	1.28741E-001	-4.00747E-004	0.00000E+000	-5.15924E-005	-2.40040E-001	1.28763E-001	3.57590E+000	9	...........
	101	1.36	1.24233E-001	-3.98989E-004	0.00000E+000	-4.95676E-005	-2.40040E-001	1.24260E-001	3.57590E+000	9	...........
	102	1.37333	1.19750E-001	-3.98926E-004	0.00000E+000	-4.77715E-005	-2.40040E-001	1.19778E-001	3.57590E+000	9	...........
	103	1.38667	1.15212E-001	-3.99341E-004	0.00000E+000	-4.60088E-005	-2.40040E-001	1.15231E-001	3.57590E+000	9	...........
	104	1.4	1.10783E-001	-3.98273E-004	0.00000E+000	-4.41218E-005	-2.40040E-001	1.10808E-001	3.57590E+000	9	...........
	105	1.41333	1.06389E-001	-4.00097E-004	0.00000E+000	-4.25660E-005	-2.40040E-001	1.06412E-001	3.57590E+000	9	...........
	106	1.42667	1.02062E-001	-3.99514E-004	0.00000E+000	-4.07753E-005	-2.40040E-001	1.02077E-001	3.57590E+000	9	...........
	107	1.44	9.76808E-002	-3.99030E-004	0.00000E+000	-3.89776E-005	-2.40040E-001	9.77028E-002	3.57590E+000	9	...........
	108	1.45333	9.33213E-002	-3.98179E-004	0.00000E+000	-3.71586E-005	-2.40040E-001	9.33343E-002	3.57590E+000	9	...........
	109	1.46667	8.90685E-002	-3.98790E-004	0.00000E+000	-3.55196E-005	-2.40040E-001	8.90784E-002	3.57590E+000	9	...........
	110	1.48	8.46836E-002	-3.99126E-004	0.00000E+000	-3.37994E-005	-2.40040E-001	8.46996E-002	3.57590E+000	9	...........
	111	1.49333	8.04239E-002	-3.99103E-004	0.00000E+000	-3.20974E-005	-2.40040E-001	8.04331E-002	3.57590E+000	9	...........
	112	1.50667	7.61684E-002	-3.99221E-004	0.00000E+000	-3.04080E-005	-2.40040E-001	7.61735E-002	3.57590E+000	9	...........
	113	1.52	7.18884E-002	-3.98540E-004	0.00000E+000	-2.86504E-005	-2.40040E-001	7.19017E-002	3.57590E+000	9	...........
	114	1.53333	6.76798E-002	-3.98346E-004	0.00000E+000	-2.69600E-005	-2.40040E-001	6.76844E-002	3.57590E+000	9	...........
	115	1.54667	6.34546E-002	-3.99607E-004	0.00000E+000	-2.53569E-005	-2.40040E-001	6.34663E-002	3.57590E+000	9	...........
	116	1.56	5.91601E-002	-3.98686E-004	0.00000E+000	-2.35863E-005	-2.40040E-001	5.91614E-002	3.57590E+000	9	...........
	117	1.57333	5.48922E-002	-3.99023E-004	0.00000E+000	-2.19032E-005	-2.40040E-001	5.48988E-002	3.57590E+000	9	...........
	118	1.58667	5.07239E-002	-3.98173E-004	0.00000E+000	-2.01969E-005	-2.40040E-001	5.07304E-002	3.57590E+000	9	...........
	119	1.6	4.66594E-002	-3.99600E-004	0.00000E+000	-1.86451E-005	-2.40040E-001	4.66657E-002	3.57590E+000	9	...........
	120	1.61333	4.24997E-002	-3.98495E-004	0.00000E+000	-1.69359E-005	-2.40040E-001	4.25082E-002	3.57590E+000	9	...........
	121	1.62667	3.83549E-002	-3.97650E-004	0.00000E+000	-1.52518E-005	-2.40040E-001	3.83579E-002	3.57590E+000	9	...........
	122	1.64	3.41637E-002	-3.97298E-004	0.00000E+000	-1.35732E-005	-2.40040E-001	3.41668E-002	3.57590E+000	9	...........
	123	1.65333	3.01421E-002	-3.98135E-004	0.00000E+000	-1.20006E-005	-2.40040E-001	3.01400E-002	3.57590E+000	9	...........
	124	1.66667	2.60323E-002	-4.00192E-004	0.00000E+000	-1.04179E-005	-2.40040E-001	2.60310E-002	3.57590E+000	9	...........
	125	1.68	2.19783E-002	-3.98966E-004	0.00000E+000	-8.76858E-006	-2.40040E-001	2.19764E-002	3.57590E+000	9	...........
	126	1.69333	1.78902E-002	-3.99772E-004	0.00000E+000	-7.15199E-006	-2.40040E-001	1.78833E-002	3.57590E+000	9	...........
	127	1.70667	1.38356E-002	-3.98730E-004	0.00000E+000	-5.51668E-006	-2.40040E-001	1.38238E-002	3.57590E+000	9	...........
	128	1.72	9.86458E-003	-3.99005E-004	0.00000E+000	-3.93602E-006	-2.40040E-001	9.85366E-003	3.57590E+000	9	...........
	129	1.73333	5.88556E-003	-3.97783E-004	0.00000E+000	-2.34118E-006	-2.40040E-001	5.86781E-003	3.57590E+000	9	...........
	130	1.74667	1.98580E-003	-3.99302E-004	0.00000E+000	-7.92936E-007	-2.40040E-001	1.96527E-003	3.57590E+000	9	...........
	131	1.74833	-2.58019E-004	-4.00107E-004	0.00000E+000	1.03235E-007	-2.40040E-001	-2.77999E-004	3.57590E+000	9	...........
STARTTIMEOFFSET	QUANT	311.1383	Start Time Offset (s)
