EXPLAIN
TAG	PWR800_DISCHARGE
TITLE	LABEL	PWR Cyclic Charge Discharge (Cell) - Discharge Step	Test &Identifier
DATE	LABEL	12-7-2017	Date
TIME	LABEL	14:27:22	Time
NOTES	NOTES	3	&Notes...
	supercap test cell
	0.4mg
	6M KOH
PSTAT	PSTAT	IFC5000-01520	Potentiostat
CAPACITY	QUANT	1.00000E-003	Capacity (A-hr)
CELLTYPE	SELECTOR	1	&Cell Type
WORKINGCONNECTION	SELECTOR	0	&Working Lead
MAXDISCHARGETIME	VARIABLEANDUNITS	1.00000E+002	s	1.00000E+002	second(s)	Max &Discharge Time
DISCHARGEMODE	MULTIPARAM	0	4.00000E-004	&Discharge Mode	Constant Current	Amp(s)
SAMPLETIME	QUANT	1.00000E-002	Sa&mple Period (s)
DISCHARGESTOPAT1	MULTIPARAM	3	0.00000E+000	Discharge Stop At &1	Voltage < Limit	V
DISCHARGESTOPAT2	MULTIPARAM	0	0.00000E+000	Discharge Stop At &2	None	N/A
AESBHCSELECTOR	TOGGLE	F	Save Both Half Cells
IRCOMP	TOGGLE	F	IR &Measure
EOC	QUANT	0	Open Circuit (V)
SEQUENCER	TOGGLE	TRUE	Run as Sequence
PSTATMODEL	IQUANT	53	Pstat Model
PSTATSECTION	LABEL	IFC5000-01520	Pstat Section
PSTATSERIALNO	LABEL	01520	Pstat Serial Number
CTRLMODE	IQUANT	0	Control Mode
ELECTROMETER	IQUANT	1	RE=0 or CS=1
IESTAB	IQUANT	0	I/E Stability
CASPEED	IQUANT	4	Control Amp Speed
CONVENTION	IQUANT	1	Current Convention
ICHRANGE	IQUANT	2	Ich Range
ICHRANGEMODE	TOGGLE	T	Ich Auto Range
ICHOFFSETENABLE	TOGGLE	F	Ich Offset Enable
ICHOFFSET	QUANT	0	Ich Offset (V)
ICHFILTER	IQUANT	1	Ich Filter
VCHRANGE	IQUANT	2	Vch Range
VCHRANGEMODE	TOGGLE	T	Vch Auto Range
VCHOFFSETENABLE	TOGGLE	F	Vch Offset Enable
VCHOFFSET	QUANT	0	Vch Offset (V)
VCHFILTER	IQUANT	1	Vch Filter
IERANGELOWERLIMIT	IQUANT	9	I/E Range Lower Limit
IERANGEMODE	TOGGLE	F	I/E AutoRange
IERANGE	IQUANT	9	I/E Range
ACHSELECT	IQUANT	1	Ach Select
ACHRANGE	IQUANT	2	Ach Range
ACHOFFSETENABLE	TOGGLE	F	Ach Offset Enable
ACHOFFSET	QUANT	0	Ach Offset (V)
ACHFILTER	IQUANT	1	Ach Filter
CABLEID	IQUANT	14	Cable ID
DCCALDATE	LABEL	5-7-2017	DC Calibration Date
ACCALDATE	LABEL	12/3/2015	AC Calibration Date
FRAMEWORKVERSION	QUANT	7.01	Framework Version
INSTRUMENTVERSION	LABEL	4.00	Instrument Version
CURVE	TABLE	129
	Pt	T	Vf	Im	Vu	Pwr	Sig	Ach	Temp	IERange	Over
	#	s	V	A	V	W	V	V	deg C	#	bits
	0	0.013333	7.18913E-001	-3.98392E-004	0.00000E+000	-2.86409E-004	-2.40040E-001	7.19128E-001	3.57640E+000	9	...........
	1	0.026667	7.07838E-001	-3.98818E-004	0.00000E+000	-2.82298E-004	-2.40040E-001	7.08038E-001	3.57640E+000	9	...........
	2	0.04	6.98019E-001	-3.99820E-004	0.00000E+000	-2.79082E-004	-2.40040E-001	6.98230E-001	3.57640E+000	9	...........
	3	0.053333	6.89021E-001	-3.97372E-004	0.00000E+000	-2.73797E-004	-2.40040E-001	6.89225E-001	3.57640E+000	9	...........
	4	0.066667	6.80458E-001	-3.97958E-004	0.00000E+000	-2.70794E-004	-2.40040E-001	6.80663E-001	3.57640E+000	9	...........
	5	0.08	6.72196E-001	-3.98393E-004	0.00000E+000	-2.67798E-004	-2.40040E-001	6.72380E-001	3.57640E+000	9	...........
	6	0.093333	6.64187E-001	-3.98724E-004	0.00000E+000	-2.64827E-004	-2.40040E-001	6.64437E-001	3.57640E+000	9	...........
	7	0.106667	6.56407E-001	-3.99765E-004	0.00000E+000	-2.62408E-004	-2.40040E-001	6.56615E-001	3.57640E+000	9	...........
	8	0.12	6.48816E-001	-3.98659E-004	0.00000E+000	-2.58657E-004	-2.40040E-001	6.49037E-001	3.57640E+000	9	...........
	9	0.133333	6.41392E-001	-3.99898E-004	0.00000E+000	-2.56492E-004	-2.40040E-001	6.41608E-001	3.57640E+000	9	...........
	10	0.146667	6.33924E-001	-3.96704E-004	0.00000E+000	-2.51480E-004	-2.40040E-001	6.34142E-001	3.57640E+000	9	...........
	11	0.16	6.26622E-001	-3.97662E-004	0.00000E+000	-2.49184E-004	-2.40040E-001	6.26822E-001	3.57640E+000	9	...........
	12	0.173333	6.19440E-001	-3.98884E-004	0.00000E+000	-2.47085E-004	-2.40040E-001	6.19618E-001	3.57640E+000	9	...........
	13	0.186667	6.12166E-001	-3.97937E-004	0.00000E+000	-2.43604E-004	-2.40040E-001	6.12418E-001	3.57640E+000	9	...........
	14	0.2	6.05083E-001	-3.99072E-004	0.00000E+000	-2.41471E-004	-2.40040E-001	6.05332E-001	3.57640E+000	9	...........
	15	0.213333	5.98070E-001	-3.98517E-004	0.00000E+000	-2.38341E-004	-2.40040E-001	5.98288E-001	3.57640E+000	9	...........
	16	0.226667	5.91115E-001	-3.98662E-004	0.00000E+000	-2.35655E-004	-2.40040E-001	5.91365E-001	3.57640E+000	9	...........
	17	0.24	5.84141E-001	-3.99053E-004	0.00000E+000	-2.33103E-004	-2.40040E-001	5.84391E-001	3.57640E+000	9	...........
	18	0.253333	5.77289E-001	-3.99165E-004	0.00000E+000	-2.30433E-004	-2.40040E-001	5.77546E-001	3.57640E+000	9	...........
	19	0.266667	5.70507E-001	-3.99272E-004	0.00000E+000	-2.27788E-004	-2.40040E-001	5.70730E-001	3.57640E+000	9	...........
	20	0.28	5.63722E-001	-3.99350E-004	0.00000E+000	-2.25123E-004	-2.40040E-001	5.63985E-001	3.57640E+000	9	...........
	21	0.293333	5.56942E-001	-3.99220E-004	0.00000E+000	-2.22342E-004	-2.40040E-001	5.57189E-001	3.57640E+000	9	...........
	22	0.306667	5.50192E-001	-3.98465E-004	0.00000E+000	-2.19232E-004	-2.40040E-001	5.50421E-001	3.57640E+000	9	...........
	23	0.32	5.43484E-001	-3.99648E-004	0.00000E+000	-2.17202E-004	-2.40040E-001	5.43729E-001	3.57640E+000	9	...........
	24	0.333333	5.36845E-001	-3.98701E-004	0.00000E+000	-2.14041E-004	-2.40040E-001	5.37100E-001	3.57640E+000	9	...........
	25	0.346667	5.30177E-001	-3.98998E-004	0.00000E+000	-2.11540E-004	-2.40040E-001	5.30436E-001	3.57640E+000	9	...........
	26	0.36	5.23655E-001	-3.98367E-004	0.00000E+000	-2.08607E-004	-2.40040E-001	5.23891E-001	3.57640E+000	9	...........
	27	0.373333	5.17113E-001	-3.98472E-004	0.00000E+000	-2.06055E-004	-2.40040E-001	5.17336E-001	3.57640E+000	9	...........
	28	0.386667	5.10668E-001	-3.97752E-004	0.00000E+000	-2.03119E-004	-2.40040E-001	5.10883E-001	3.57640E+000	9	...........
	29	0.4	5.04189E-001	-3.97657E-004	0.00000E+000	-2.00494E-004	-2.40040E-001	5.04416E-001	3.57640E+000	9	...........
	30	0.413333	4.97727E-001	-3.99229E-004	0.00000E+000	-1.98707E-004	-2.40040E-001	4.97944E-001	3.57640E+000	9	...........
	31	0.426667	4.91309E-001	-3.98594E-004	0.00000E+000	-1.95833E-004	-2.40040E-001	4.91500E-001	3.57640E+000	9	...........
	32	0.44	4.85087E-001	-3.99085E-004	0.00000E+000	-1.93591E-004	-2.40040E-001	4.85228E-001	3.57640E+000	9	...........
	33	0.453333	4.78813E-001	-3.98900E-004	0.00000E+000	-1.90999E-004	-2.40040E-001	4.78910E-001	3.57640E+000	9	...........
	34	0.466667	4.72493E-001	-3.98927E-004	0.00000E+000	-1.88490E-004	-2.40040E-001	4.72583E-001	3.57640E+000	9	...........
	35	0.48	4.66170E-001	-3.97518E-004	0.00000E+000	-1.85311E-004	-2.40040E-001	4.66263E-001	3.57640E+000	9	...........
	36	0.493333	4.59894E-001	-3.99819E-004	0.00000E+000	-1.83874E-004	-2.40040E-001	4.59985E-001	3.57640E+000	9	...........
	37	0.506667	4.53734E-001	-3.99866E-004	0.00000E+000	-1.81433E-004	-2.40040E-001	4.53823E-001	3.57640E+000	9	...........
	38	0.52	4.47576E-001	-4.00151E-004	0.00000E+000	-1.79098E-004	-2.40040E-001	4.47664E-001	3.57640E+000	9	...........
	39	0.533333	4.41446E-001	-3.98423E-004	0.00000E+000	-1.75882E-004	-2.40040E-001	4.41534E-001	3.57640E+000	9	...........
	40	0.546667	4.35345E-001	-3.99786E-004	0.00000E+000	-1.74045E-004	-2.40040E-001	4.35430E-001	3.57640E+000	9	...........
	41	0.56	4.29279E-001	-3.99262E-004	0.00000E+000	-1.71395E-004	-2.40040E-001	4.29361E-001	3.57640E+000	9	...........
	42	0.573333	4.23256E-001	-3.98097E-004	0.00000E+000	-1.68497E-004	-2.40040E-001	4.23344E-001	3.57640E+000	9	...........
	43	0.586667	4.17242E-001	-3.98969E-004	0.00000E+000	-1.66467E-004	-2.40040E-001	4.17328E-001	3.57640E+000	9	...........
	44	0.6	4.11250E-001	-3.99217E-004	0.00000E+000	-1.64178E-004	-2.40040E-001	4.11333E-001	3.57640E+000	9	...........
	45	0.613333	4.05216E-001	-3.99867E-004	0.00000E+000	-1.62033E-004	-2.40040E-001	4.05295E-001	3.57640E+000	9	...........
	46	0.626667	3.99340E-001	-3.99153E-004	0.00000E+000	-1.59398E-004	-2.40040E-001	3.99413E-001	3.57640E+000	9	...........
	47	0.64	3.93458E-001	-3.98370E-004	0.00000E+000	-1.56742E-004	-2.40040E-001	3.93529E-001	3.57672E+000	9	...........
	48	0.653333	3.87542E-001	-3.97273E-004	0.00000E+000	-1.53960E-004	-2.40040E-001	3.87609E-001	3.57790E+000	9	...........
	49	0.666667	3.81710E-001	-3.98154E-004	0.00000E+000	-1.51980E-004	-2.40040E-001	3.81780E-001	3.57790E+000	9	...........
	50	0.68	3.76012E-001	-3.98936E-004	0.00000E+000	-1.50005E-004	-2.40040E-001	3.76083E-001	3.57790E+000	9	...........
	51	0.693333	3.70305E-001	-3.97377E-004	0.00000E+000	-1.47151E-004	-2.40040E-001	3.70369E-001	3.57790E+000	9	...........
	52	0.706667	3.64615E-001	-3.98396E-004	0.00000E+000	-1.45261E-004	-2.40040E-001	3.64682E-001	3.57790E+000	9	...........
	53	0.72	3.58810E-001	-3.99374E-004	0.00000E+000	-1.43299E-004	-2.40040E-001	3.58873E-001	3.57790E+000	9	...........
	54	0.733333	3.53046E-001	-3.98974E-004	0.00000E+000	-1.40856E-004	-2.40040E-001	3.53111E-001	3.57790E+000	9	...........
	55	0.746667	3.47393E-001	-3.99089E-004	0.00000E+000	-1.38641E-004	-2.40040E-001	3.47459E-001	3.57790E+000	9	...........
	56	0.76	3.41789E-001	-3.98907E-004	0.00000E+000	-1.36342E-004	-2.40040E-001	3.41849E-001	3.57790E+000	9	...........
	57	0.773333	3.36168E-001	-3.98624E-004	0.00000E+000	-1.34005E-004	-2.40040E-001	3.36231E-001	3.57790E+000	9	...........
	58	0.786667	3.30577E-001	-3.97643E-004	0.00000E+000	-1.31452E-004	-2.40040E-001	3.30636E-001	3.57790E+000	9	...........
	59	0.8	3.25009E-001	-3.98516E-004	0.00000E+000	-1.29521E-004	-2.40040E-001	3.25071E-001	3.57790E+000	9	...........
	60	0.813333	3.19466E-001	-3.98015E-004	0.00000E+000	-1.27152E-004	-2.40040E-001	3.19527E-001	3.57790E+000	9	...........
	61	0.826667	3.13877E-001	-3.97925E-004	0.00000E+000	-1.24900E-004	-2.40040E-001	3.13932E-001	3.57790E+000	9	...........
	62	0.84	3.08364E-001	-3.99043E-004	0.00000E+000	-1.23051E-004	-2.40040E-001	3.08421E-001	3.57790E+000	9	...........
	63	0.853333	3.03037E-001	-3.98613E-004	0.00000E+000	-1.20795E-004	-2.40040E-001	3.03097E-001	3.57790E+000	9	...........
	64	0.866667	2.97643E-001	-3.99412E-004	0.00000E+000	-1.18882E-004	-2.40040E-001	2.97705E-001	3.57790E+000	9	...........
	65	0.88	2.92223E-001	-3.99066E-004	0.00000E+000	-1.16616E-004	-2.40040E-001	2.92278E-001	3.57790E+000	9	...........
	66	0.893333	2.86890E-001	-3.98075E-004	0.00000E+000	-1.14204E-004	-2.40040E-001	2.86946E-001	3.57790E+000	9	...........
	67	0.906667	2.81632E-001	-3.98920E-004	0.00000E+000	-1.12349E-004	-2.40040E-001	2.81689E-001	3.57790E+000	9	...........
	68	0.92	2.76294E-001	-3.99226E-004	0.00000E+000	-1.10304E-004	-2.40040E-001	2.76345E-001	3.57790E+000	9	...........
	69	0.933333	2.70926E-001	-3.98825E-004	0.00000E+000	-1.08052E-004	-2.40040E-001	2.70977E-001	3.57790E+000	9	...........
	70	0.946667	2.65667E-001	-3.99959E-004	0.00000E+000	-1.06256E-004	-2.40040E-001	2.65721E-001	3.57790E+000	9	...........
	71	0.96	2.60448E-001	-3.98050E-004	0.00000E+000	-1.03671E-004	-2.40040E-001	2.60501E-001	3.57790E+000	9	...........
	72	0.97333	2.55245E-001	-3.98952E-004	0.00000E+000	-1.01831E-004	-2.40040E-001	2.55292E-001	3.57790E+000	9	...........
	73	0.98667	2.50037E-001	-3.98050E-004	0.00000E+000	-9.95272E-005	-2.40040E-001	2.50081E-001	3.57790E+000	9	...........
	74	1	2.44889E-001	-3.98802E-004	0.00000E+000	-9.76623E-005	-2.40040E-001	2.44929E-001	3.57790E+000	9	...........
	75	1.01333	2.39796E-001	-3.98367E-004	0.00000E+000	-9.55266E-005	-2.40040E-001	2.39831E-001	3.57790E+000	9	...........
	76	1.02667	2.34749E-001	-3.99155E-004	0.00000E+000	-9.37015E-005	-2.40040E-001	2.34792E-001	3.57790E+000	9	...........
	77	1.04	2.29708E-001	-3.97407E-004	0.00000E+000	-9.12876E-005	-2.40040E-001	2.29750E-001	3.57790E+000	9	...........
	78	1.05333	2.24668E-001	-3.99479E-004	0.00000E+000	-8.97503E-005	-2.40040E-001	2.24713E-001	3.57790E+000	9	...........
	79	1.06667	2.19626E-001	-3.97947E-004	0.00000E+000	-8.73995E-005	-2.40040E-001	2.19661E-001	3.57790E+000	9	...........
	80	1.08	2.14591E-001	-3.98793E-004	0.00000E+000	-8.55772E-005	-2.40040E-001	2.14629E-001	3.57790E+000	9	...........
	81	1.09333	2.09568E-001	-3.98626E-004	0.00000E+000	-8.35393E-005	-2.40040E-001	2.09607E-001	3.57790E+000	9	...........
	82	1.10667	2.04624E-001	-3.99454E-004	0.00000E+000	-8.17380E-005	-2.40040E-001	2.04664E-001	3.57790E+000	9	...........
	83	1.12	1.99661E-001	-3.98743E-004	0.00000E+000	-7.96134E-005	-2.40040E-001	1.99699E-001	3.57790E+000	9	...........
	84	1.13333	1.94831E-001	-3.98724E-004	0.00000E+000	-7.76836E-005	-2.40040E-001	1.94867E-001	3.57790E+000	9	...........
	85	1.14667	1.90017E-001	-3.97650E-004	0.00000E+000	-7.55603E-005	-2.40040E-001	1.90055E-001	3.57790E+000	9	...........
	86	1.16	1.85152E-001	-3.98953E-004	0.00000E+000	-7.38672E-005	-2.40040E-001	1.85186E-001	3.57790E+000	9	...........
	87	1.17333	1.80309E-001	-3.97905E-004	0.00000E+000	-7.17460E-005	-2.40040E-001	1.80341E-001	3.57790E+000	9	...........
	88	1.18667	1.75464E-001	-3.98054E-004	0.00000E+000	-6.98443E-005	-2.40040E-001	1.75498E-001	3.57790E+000	9	...........
	89	1.2	1.70699E-001	-3.98592E-004	0.00000E+000	-6.80391E-005	-2.40040E-001	1.70728E-001	3.57790E+000	9	...........
	90	1.21333	1.65921E-001	-3.99629E-004	0.00000E+000	-6.63067E-005	-2.40040E-001	1.65947E-001	3.57790E+000	9	...........
	91	1.22667	1.61107E-001	-3.98004E-004	0.00000E+000	-6.41211E-005	-2.40040E-001	1.61138E-001	3.57790E+000	9	...........
	92	1.24	1.56346E-001	-3.97958E-004	0.00000E+000	-6.22193E-005	-2.40040E-001	1.56376E-001	3.57790E+000	9	...........
	93	1.25333	1.51702E-001	-3.98534E-004	0.00000E+000	-6.04585E-005	-2.40040E-001	1.51719E-001	3.57790E+000	9	...........
	94	1.26667	1.47019E-001	-3.98113E-004	0.00000E+000	-5.85304E-005	-2.40040E-001	1.47046E-001	3.57790E+000	9	...........
	95	1.28	1.42344E-001	-3.98732E-004	0.00000E+000	-5.67570E-005	-2.40040E-001	1.42370E-001	3.57790E+000	9	...........
	96	1.29333	1.37698E-001	-3.98434E-004	0.00000E+000	-5.48635E-005	-2.40040E-001	1.37716E-001	3.57790E+000	9	...........
	97	1.30667	1.33159E-001	-3.98984E-004	0.00000E+000	-5.31282E-005	-2.40040E-001	1.33180E-001	3.57790E+000	9	...........
	98	1.32	1.28565E-001	-3.98433E-004	0.00000E+000	-5.12246E-005	-2.40040E-001	1.28583E-001	3.57790E+000	9	...........
	99	1.33333	1.23896E-001	-3.98553E-004	0.00000E+000	-4.93790E-005	-2.40040E-001	1.23920E-001	3.57790E+000	9	...........
	100	1.34667	1.19296E-001	-3.99494E-004	0.00000E+000	-4.76580E-005	-2.40040E-001	1.19314E-001	3.57790E+000	9	...........
	101	1.36	1.14851E-001	-3.97874E-004	0.00000E+000	-4.56961E-005	-2.40040E-001	1.14871E-001	3.57790E+000	9	...........
	102	1.37333	1.10385E-001	-3.97999E-004	0.00000E+000	-4.39331E-005	-2.40040E-001	1.10399E-001	3.57790E+000	9	...........
	103	1.38667	1.05851E-001	-3.99137E-004	0.00000E+000	-4.22490E-005	-2.40040E-001	1.05867E-001	3.57790E+000	9	...........
	104	1.4	1.01370E-001	-4.00134E-004	0.00000E+000	-4.05617E-005	-2.40040E-001	1.01386E-001	3.57790E+000	9	...........
	105	1.41333	9.69018E-002	-3.98932E-004	0.00000E+000	-3.86572E-005	-2.40040E-001	9.69216E-002	3.57790E+000	9	...........
	106	1.42667	9.24655E-002	-3.97280E-004	0.00000E+000	-3.67347E-005	-2.40040E-001	9.24820E-002	3.57790E+000	9	...........
	107	1.44	8.80100E-002	-3.99036E-004	0.00000E+000	-3.51192E-005	-2.40040E-001	8.80274E-002	3.57790E+000	9	...........
	108	1.45333	8.36994E-002	-3.97241E-004	0.00000E+000	-3.32488E-005	-2.40040E-001	8.37120E-002	3.57790E+000	9	...........
	109	1.46667	7.92780E-002	-3.97701E-004	0.00000E+000	-3.15289E-005	-2.40040E-001	7.92878E-002	3.57790E+000	9	...........
	110	1.48	7.48919E-002	-3.98051E-004	0.00000E+000	-2.98108E-005	-2.40040E-001	7.49019E-002	3.57790E+000	9	...........
	111	1.49333	7.05127E-002	-3.99392E-004	0.00000E+000	-2.81622E-005	-2.40040E-001	7.05225E-002	3.57790E+000	9	...........
	112	1.50667	6.62920E-002	-3.99241E-004	0.00000E+000	-2.64665E-005	-2.40040E-001	6.63014E-002	3.57790E+000	9	...........
	113	1.52	6.20112E-002	-3.98694E-004	0.00000E+000	-2.47235E-005	-2.40040E-001	6.20148E-002	3.57790E+000	9	...........
	114	1.53333	5.77066E-002	-3.98122E-004	0.00000E+000	-2.29742E-005	-2.40040E-001	5.77079E-002	3.57790E+000	9	...........
	115	1.54667	5.35085E-002	-3.98066E-004	0.00000E+000	-2.12999E-005	-2.40040E-001	5.35135E-002	3.57790E+000	9	...........
	116	1.56	4.92791E-002	-3.99629E-004	0.00000E+000	-1.96934E-005	-2.40040E-001	4.92853E-002	3.57790E+000	9	...........
	117	1.57333	4.50135E-002	-3.98810E-004	0.00000E+000	-1.79519E-005	-2.40040E-001	4.50171E-002	3.57790E+000	9	...........
	118	1.58667	4.08689E-002	-3.98535E-004	0.00000E+000	-1.62877E-005	-2.40040E-001	4.08718E-002	3.57790E+000	9	...........
	119	1.6	3.66282E-002	-4.00506E-004	0.00000E+000	-1.46698E-005	-2.40040E-001	3.66307E-002	3.57790E+000	9	...........
	120	1.61333	3.24336E-002	-3.98736E-004	0.00000E+000	-1.29325E-005	-2.40040E-001	3.24306E-002	3.57790E+000	9	...........
	121	1.62667	2.82208E-002	-3.99518E-004	0.00000E+000	-1.12747E-005	-2.40040E-001	2.82244E-002	3.57790E+000	9	...........
	122	1.64	2.40504E-002	-3.98029E-004	0.00000E+000	-9.57275E-006	-2.40040E-001	2.40444E-002	3.57777E+000	9	...........
	123	1.65333	1.99309E-002	-3.98774E-004	0.00000E+000	-7.94793E-006	-2.40040E-001	1.99221E-002	3.57730E+000	9	...........
	124	1.66667	1.58336E-002	-3.98314E-004	0.00000E+000	-6.30676E-006	-2.40040E-001	1.58230E-002	3.57730E+000	9	...........
	125	1.68	1.17905E-002	-3.98986E-004	0.00000E+000	-4.70425E-006	-2.40040E-001	1.17780E-002	3.57730E+000	9	...........
	126	1.69333	7.68869E-003	-3.98222E-004	0.00000E+000	-3.06180E-006	-2.40040E-001	7.67298E-003	3.57730E+000	9	...........
	127	1.70667	3.60764E-003	-3.99379E-004	0.00000E+000	-1.44082E-006	-2.40040E-001	3.59375E-003	3.57730E+000	9	...........
	128	1.71333	6.55288E-004	-3.98421E-004	0.00000E+000	-2.61080E-007	-2.40040E-001	6.45388E-004	3.57730E+000	9	...........
STARTTIMEOFFSET	QUANT	421.97	Start Time Offset (s)
