EXPLAIN
TAG	PWR800_DISCHARGE
TITLE	LABEL	PWR Cyclic Charge Discharge (Cell) - Discharge Step	Test &Identifier
DATE	LABEL	12-7-2017	Date
TIME	LABEL	14:37:33	Time
NOTES	NOTES	3	&Notes...
	supercap test cell
	0.4mg
	6M KOH
PSTAT	PSTAT	IFC5000-01520	Potentiostat
CAPACITY	QUANT	1.00000E-003	Capacity (A-hr)
CELLTYPE	SELECTOR	1	&Cell Type
WORKINGCONNECTION	SELECTOR	0	&Working Lead
MAXDISCHARGETIME	VARIABLEANDUNITS	1.00000E+002	s	1.00000E+002	second(s)	Max &Discharge Time
DISCHARGEMODE	MULTIPARAM	0	4.00000E-004	&Discharge Mode	Constant Current	Amp(s)
SAMPLETIME	QUANT	1.00000E-002	Sa&mple Period (s)
DISCHARGESTOPAT1	MULTIPARAM	3	0.00000E+000	Discharge Stop At &1	Voltage < Limit	V
DISCHARGESTOPAT2	MULTIPARAM	0	0.00000E+000	Discharge Stop At &2	None	N/A
AESBHCSELECTOR	TOGGLE	F	Save Both Half Cells
IRCOMP	TOGGLE	F	IR &Measure
EOC	QUANT	0	Open Circuit (V)
SEQUENCER	TOGGLE	TRUE	Run as Sequence
PSTATMODEL	IQUANT	53	Pstat Model
PSTATSECTION	LABEL	IFC5000-01520	Pstat Section
PSTATSERIALNO	LABEL	01520	Pstat Serial Number
CTRLMODE	IQUANT	0	Control Mode
ELECTROMETER	IQUANT	1	RE=0 or CS=1
IESTAB	IQUANT	0	I/E Stability
CASPEED	IQUANT	4	Control Amp Speed
CONVENTION	IQUANT	1	Current Convention
ICHRANGE	IQUANT	2	Ich Range
ICHRANGEMODE	TOGGLE	T	Ich Auto Range
ICHOFFSETENABLE	TOGGLE	F	Ich Offset Enable
ICHOFFSET	QUANT	0	Ich Offset (V)
ICHFILTER	IQUANT	1	Ich Filter
VCHRANGE	IQUANT	2	Vch Range
VCHRANGEMODE	TOGGLE	T	Vch Auto Range
VCHOFFSETENABLE	TOGGLE	F	Vch Offset Enable
VCHOFFSET	QUANT	0	Vch Offset (V)
VCHFILTER	IQUANT	1	Vch Filter
IERANGELOWERLIMIT	IQUANT	9	I/E Range Lower Limit
IERANGEMODE	TOGGLE	F	I/E AutoRange
IERANGE	IQUANT	9	I/E Range
ACHSELECT	IQUANT	1	Ach Select
ACHRANGE	IQUANT	2	Ach Range
ACHOFFSETENABLE	TOGGLE	F	Ach Offset Enable
ACHOFFSET	QUANT	0	Ach Offset (V)
ACHFILTER	IQUANT	1	Ach Filter
CABLEID	IQUANT	14	Cable ID
DCCALDATE	LABEL	5-7-2017	DC Calibration Date
ACCALDATE	LABEL	12/3/2015	AC Calibration Date
FRAMEWORKVERSION	QUANT	7.01	Framework Version
INSTRUMENTVERSION	LABEL	4.00	Instrument Version
CURVE	TABLE	121
	Pt	T	Vf	Im	Vu	Pwr	Sig	Ach	Temp	IERange	Over
	#	s	V	A	V	W	V	V	deg C	#	bits
	0	0.013333	7.10748E-001	-3.98137E-004	0.00000E+000	-2.82975E-004	-2.40040E-001	7.11003E-001	3.57620E+000	9	...........
	1	0.026667	6.99007E-001	-3.98377E-004	0.00000E+000	-2.78468E-004	-2.40040E-001	6.99244E-001	3.57620E+000	9	...........
	2	0.04	6.88668E-001	-4.00190E-004	0.00000E+000	-2.75598E-004	-2.40040E-001	6.88910E-001	3.57620E+000	9	...........
	3	0.053333	6.79122E-001	-3.98274E-004	0.00000E+000	-2.70477E-004	-2.40040E-001	6.79343E-001	3.57620E+000	9	...........
	4	0.066667	6.70103E-001	-4.00183E-004	0.00000E+000	-2.68163E-004	-2.40040E-001	6.70334E-001	3.57620E+000	9	...........
	5	0.08	6.61381E-001	-3.97919E-004	0.00000E+000	-2.63176E-004	-2.40040E-001	6.61608E-001	3.57620E+000	9	...........
	6	0.093333	6.52930E-001	-3.98882E-004	0.00000E+000	-2.60442E-004	-2.40040E-001	6.53188E-001	3.57620E+000	9	...........
	7	0.106667	6.44695E-001	-3.99234E-004	0.00000E+000	-2.57384E-004	-2.40040E-001	6.44926E-001	3.57620E+000	9	...........
	8	0.12	6.36617E-001	-3.99123E-004	0.00000E+000	-2.54088E-004	-2.40040E-001	6.36846E-001	3.57620E+000	9	...........
	9	0.133333	6.28688E-001	-3.98860E-004	0.00000E+000	-2.50759E-004	-2.40040E-001	6.28901E-001	3.57620E+000	9	...........
	10	0.146667	6.20931E-001	-3.99902E-004	0.00000E+000	-2.48312E-004	-2.40040E-001	6.21134E-001	3.57620E+000	9	...........
	11	0.16	6.13264E-001	-3.98776E-004	0.00000E+000	-2.44555E-004	-2.40040E-001	6.13479E-001	3.57620E+000	9	...........
	12	0.173333	6.05649E-001	-3.99413E-004	0.00000E+000	-2.41904E-004	-2.40040E-001	6.05880E-001	3.57620E+000	9	...........
	13	0.186667	5.98110E-001	-4.00478E-004	0.00000E+000	-2.39530E-004	-2.40040E-001	5.98356E-001	3.57620E+000	9	...........
	14	0.2	5.90740E-001	-3.98329E-004	0.00000E+000	-2.35309E-004	-2.40040E-001	5.90972E-001	3.57620E+000	9	...........
	15	0.213333	5.83306E-001	-3.98322E-004	0.00000E+000	-2.32343E-004	-2.40040E-001	5.83532E-001	3.57620E+000	9	...........
	16	0.226667	5.75896E-001	-3.98550E-004	0.00000E+000	-2.29523E-004	-2.40040E-001	5.76123E-001	3.57620E+000	9	...........
	17	0.24	5.68657E-001	-3.98334E-004	0.00000E+000	-2.26515E-004	-2.40040E-001	5.68843E-001	3.57620E+000	9	...........
	18	0.253333	5.61394E-001	-3.96989E-004	0.00000E+000	-2.22867E-004	-2.40040E-001	5.61608E-001	3.57620E+000	9	...........
	19	0.266667	5.54164E-001	-3.98834E-004	0.00000E+000	-2.21020E-004	-2.40040E-001	5.54386E-001	3.57620E+000	9	...........
	20	0.28	5.47005E-001	-3.99604E-004	0.00000E+000	-2.18585E-004	-2.40040E-001	5.47224E-001	3.57620E+000	9	...........
	21	0.293333	5.39972E-001	-3.99023E-004	0.00000E+000	-2.15461E-004	-2.40040E-001	5.40175E-001	3.57620E+000	9	...........
	22	0.306667	5.32841E-001	-3.98847E-004	0.00000E+000	-2.12522E-004	-2.40040E-001	5.33041E-001	3.57620E+000	9	...........
	23	0.32	5.25789E-001	-3.99460E-004	0.00000E+000	-2.10032E-004	-2.40040E-001	5.26000E-001	3.57620E+000	9	...........
	24	0.333333	5.18869E-001	-3.98920E-004	0.00000E+000	-2.06987E-004	-2.40040E-001	5.19064E-001	3.57620E+000	9	...........
	25	0.346667	5.11948E-001	-3.97806E-004	0.00000E+000	-2.03656E-004	-2.40040E-001	5.12176E-001	3.57620E+000	9	...........
	26	0.36	5.05054E-001	-4.00012E-004	0.00000E+000	-2.02028E-004	-2.40040E-001	5.05298E-001	3.57620E+000	9	...........
	27	0.373333	4.98252E-001	-3.99071E-004	0.00000E+000	-1.98838E-004	-2.40040E-001	4.98459E-001	3.57620E+000	9	...........
	28	0.386667	4.91396E-001	-3.98115E-004	0.00000E+000	-1.95632E-004	-2.40040E-001	4.91619E-001	3.57620E+000	9	...........
	29	0.4	4.84755E-001	-3.98627E-004	0.00000E+000	-1.93236E-004	-2.40040E-001	4.84908E-001	3.57620E+000	9	...........
	30	0.413333	4.78152E-001	-3.98493E-004	0.00000E+000	-1.90540E-004	-2.40040E-001	4.78250E-001	3.57620E+000	9	...........
	31	0.426667	4.71416E-001	-3.99031E-004	0.00000E+000	-1.88110E-004	-2.40040E-001	4.71518E-001	3.57620E+000	9	...........
	32	0.44	4.64661E-001	-3.98409E-004	0.00000E+000	-1.85125E-004	-2.40040E-001	4.64752E-001	3.57620E+000	9	...........
	33	0.453333	4.57993E-001	-3.99022E-004	0.00000E+000	-1.82749E-004	-2.40040E-001	4.58088E-001	3.57620E+000	9	...........
	34	0.466667	4.51398E-001	-3.98262E-004	0.00000E+000	-1.79775E-004	-2.40040E-001	4.51484E-001	3.57620E+000	9	...........
	35	0.48	4.44796E-001	-3.98907E-004	0.00000E+000	-1.77433E-004	-2.40040E-001	4.44888E-001	3.57620E+000	9	...........
	36	0.493333	4.38287E-001	-3.99516E-004	0.00000E+000	-1.75102E-004	-2.40040E-001	4.38377E-001	3.57620E+000	9	...........
	37	0.506667	4.31725E-001	-3.99182E-004	0.00000E+000	-1.72337E-004	-2.40040E-001	4.31814E-001	3.57620E+000	9	...........
	38	0.52	4.25264E-001	-3.99174E-004	0.00000E+000	-1.69754E-004	-2.40040E-001	4.25347E-001	3.57620E+000	9	...........
	39	0.533333	4.18821E-001	-3.99118E-004	0.00000E+000	-1.67159E-004	-2.40040E-001	4.18910E-001	3.57620E+000	9	...........
	40	0.546667	4.12475E-001	-3.97593E-004	0.00000E+000	-1.63997E-004	-2.40040E-001	4.12559E-001	3.57620E+000	9	...........
	41	0.56	4.06065E-001	-3.98294E-004	0.00000E+000	-1.61733E-004	-2.40040E-001	4.06145E-001	3.57620E+000	9	...........
	42	0.573333	3.99632E-001	-3.98789E-004	0.00000E+000	-1.59369E-004	-2.40040E-001	3.99709E-001	3.57620E+000	9	...........
	43	0.586667	3.93330E-001	-3.98192E-004	0.00000E+000	-1.56620E-004	-2.40040E-001	3.93406E-001	3.57620E+000	9	...........
	44	0.6	3.87095E-001	-3.99110E-004	0.00000E+000	-1.54494E-004	-2.40040E-001	3.87173E-001	3.57620E+000	9	...........
	45	0.613333	3.80856E-001	-3.99403E-004	0.00000E+000	-1.52115E-004	-2.40040E-001	3.80928E-001	3.57620E+000	9	...........
	46	0.626667	3.74660E-001	-3.98541E-004	0.00000E+000	-1.49317E-004	-2.40040E-001	3.74732E-001	3.57620E+000	9	...........
	47	0.64	3.68475E-001	-4.00358E-004	0.00000E+000	-1.47522E-004	-2.40040E-001	3.68554E-001	3.57620E+000	9	...........
	48	0.653333	3.62361E-001	-3.98079E-004	0.00000E+000	-1.44248E-004	-2.40040E-001	3.62439E-001	3.57620E+000	9	...........
	49	0.666667	3.56240E-001	-4.00820E-004	0.00000E+000	-1.42788E-004	-2.40040E-001	3.56313E-001	3.57620E+000	9	...........
	50	0.68	3.50148E-001	-3.97797E-004	0.00000E+000	-1.39288E-004	-2.40040E-001	3.50215E-001	3.57620E+000	9	...........
	51	0.693333	3.44143E-001	-3.98382E-004	0.00000E+000	-1.37101E-004	-2.40040E-001	3.44216E-001	3.57620E+000	9	...........
	52	0.706667	3.38167E-001	-3.98472E-004	0.00000E+000	-1.34750E-004	-2.40040E-001	3.38234E-001	3.57620E+000	9	...........
	53	0.72	3.32254E-001	-3.98675E-004	0.00000E+000	-1.32462E-004	-2.40040E-001	3.32328E-001	3.57620E+000	9	...........
	54	0.733333	3.26335E-001	-3.99116E-004	0.00000E+000	-1.30246E-004	-2.40040E-001	3.26395E-001	3.57620E+000	9	...........
	55	0.746667	3.20435E-001	-3.98692E-004	0.00000E+000	-1.27755E-004	-2.40040E-001	3.20500E-001	3.57620E+000	9	...........
	56	0.76	3.14676E-001	-3.99041E-004	0.00000E+000	-1.25569E-004	-2.40040E-001	3.14738E-001	3.57620E+000	9	...........
	57	0.773333	3.08787E-001	-3.99374E-004	0.00000E+000	-1.23322E-004	-2.40040E-001	3.08854E-001	3.57620E+000	9	...........
	58	0.786667	3.03060E-001	-3.98668E-004	0.00000E+000	-1.20820E-004	-2.40040E-001	3.03122E-001	3.57620E+000	9	...........
	59	0.8	2.97309E-001	-3.98393E-004	0.00000E+000	-1.18446E-004	-2.40040E-001	2.97371E-001	3.57620E+000	9	...........
	60	0.813333	2.91611E-001	-3.99709E-004	0.00000E+000	-1.16560E-004	-2.40040E-001	2.91671E-001	3.57620E+000	9	...........
	61	0.826667	2.86024E-001	-3.99724E-004	0.00000E+000	-1.14331E-004	-2.40040E-001	2.86085E-001	3.57620E+000	9	...........
	62	0.84	2.80389E-001	-3.98980E-004	0.00000E+000	-1.11870E-004	-2.40040E-001	2.80446E-001	3.57620E+000	9	...........
	63	0.853333	2.74712E-001	-3.98314E-004	0.00000E+000	-1.09422E-004	-2.40040E-001	2.74769E-001	3.57620E+000	9	...........
	64	0.866667	2.69136E-001	-3.99252E-004	0.00000E+000	-1.07453E-004	-2.40040E-001	2.69194E-001	3.57620E+000	9	...........
	65	0.88	2.63616E-001	-3.99536E-004	0.00000E+000	-1.05324E-004	-2.40040E-001	2.63668E-001	3.57620E+000	9	...........
	66	0.893333	2.58155E-001	-3.99062E-004	0.00000E+000	-1.03020E-004	-2.40040E-001	2.58210E-001	3.57620E+000	9	...........
	67	0.906667	2.52688E-001	-3.98031E-004	0.00000E+000	-1.00578E-004	-2.40040E-001	2.52739E-001	3.57620E+000	9	...........
	68	0.92	2.47257E-001	-3.98532E-004	0.00000E+000	-9.85400E-005	-2.40040E-001	2.47302E-001	3.57620E+000	9	...........
	69	0.933333	2.41889E-001	-3.99283E-004	0.00000E+000	-9.65821E-005	-2.40040E-001	2.41929E-001	3.57620E+000	9	...........
	70	0.946667	2.36401E-001	-3.97491E-004	0.00000E+000	-9.39674E-005	-2.40040E-001	2.36442E-001	3.57740E+000	9	...........
	71	0.96	2.30935E-001	-3.98781E-004	0.00000E+000	-9.20924E-005	-2.40040E-001	2.30975E-001	3.57740E+000	9	...........
	72	0.97333	2.25592E-001	-3.97251E-004	0.00000E+000	-8.96167E-005	-2.40040E-001	2.25637E-001	3.57740E+000	9	...........
	73	0.98667	2.20322E-001	-3.98213E-004	0.00000E+000	-8.77351E-005	-2.40040E-001	2.20366E-001	3.57740E+000	9	...........
	74	1	2.15062E-001	-3.99794E-004	0.00000E+000	-8.59804E-005	-2.40040E-001	2.15101E-001	3.57740E+000	9	...........
	75	1.01333	2.09812E-001	-3.99622E-004	0.00000E+000	-8.38457E-005	-2.40040E-001	2.09854E-001	3.57740E+000	9	...........
	76	1.02667	2.04612E-001	-3.99087E-004	0.00000E+000	-8.16579E-005	-2.40040E-001	2.04653E-001	3.57740E+000	9	...........
	77	1.04	1.99420E-001	-3.98389E-004	0.00000E+000	-7.94467E-005	-2.40040E-001	1.99459E-001	3.57740E+000	9	...........
	78	1.05333	1.94200E-001	-3.97461E-004	0.00000E+000	-7.71868E-005	-2.40040E-001	1.94236E-001	3.57740E+000	9	...........
	79	1.06667	1.88992E-001	-3.96626E-004	0.00000E+000	-7.49591E-005	-2.40040E-001	1.89029E-001	3.57740E+000	9	...........
	80	1.08	1.83857E-001	-3.98062E-004	0.00000E+000	-7.31864E-005	-2.40040E-001	1.83886E-001	3.57740E+000	9	...........
	81	1.09333	1.78762E-001	-3.99548E-004	0.00000E+000	-7.14239E-005	-2.40040E-001	1.78792E-001	3.57740E+000	9	...........
	82	1.10667	1.73671E-001	-3.99784E-004	0.00000E+000	-6.94309E-005	-2.40040E-001	1.73703E-001	3.57740E+000	9	...........
	83	1.12	1.68651E-001	-3.98268E-004	0.00000E+000	-6.71684E-005	-2.40040E-001	1.68681E-001	3.57740E+000	9	...........
	84	1.13333	1.63629E-001	-3.98601E-004	0.00000E+000	-6.52228E-005	-2.40040E-001	1.63648E-001	3.57740E+000	9	...........
	85	1.14667	1.58565E-001	-3.99728E-004	0.00000E+000	-6.33827E-005	-2.40040E-001	1.58593E-001	3.57740E+000	9	...........
	86	1.16	1.53685E-001	-3.97114E-004	0.00000E+000	-6.10305E-005	-2.40040E-001	1.53711E-001	3.57740E+000	9	...........
	87	1.17333	1.48729E-001	-3.98782E-004	0.00000E+000	-5.93105E-005	-2.40040E-001	1.48761E-001	3.57740E+000	9	...........
	88	1.18667	1.43818E-001	-3.97693E-004	0.00000E+000	-5.71954E-005	-2.40040E-001	1.43843E-001	3.57740E+000	9	...........
	89	1.2	1.38895E-001	-3.99771E-004	0.00000E+000	-5.55261E-005	-2.40040E-001	1.38922E-001	3.57740E+000	9	...........
	90	1.21333	1.34055E-001	-3.98509E-004	0.00000E+000	-5.34220E-005	-2.40040E-001	1.34081E-001	3.57740E+000	9	...........
	91	1.22667	1.29204E-001	-3.97703E-004	0.00000E+000	-5.13847E-005	-2.40040E-001	1.29233E-001	3.57740E+000	9	...........
	92	1.24	1.24435E-001	-3.99632E-004	0.00000E+000	-4.97284E-005	-2.40040E-001	1.24462E-001	3.57740E+000	9	...........
	93	1.25333	1.19590E-001	-3.99206E-004	0.00000E+000	-4.77413E-005	-2.40040E-001	1.19618E-001	3.57740E+000	9	...........
	94	1.26667	1.14729E-001	-3.98786E-004	0.00000E+000	-4.57525E-005	-2.40040E-001	1.14753E-001	3.57740E+000	9	...........
	95	1.28	1.09949E-001	-3.99098E-004	0.00000E+000	-4.38805E-005	-2.40040E-001	1.09975E-001	3.57740E+000	9	...........
	96	1.29333	1.05265E-001	-3.99862E-004	0.00000E+000	-4.20915E-005	-2.40040E-001	1.05286E-001	3.57740E+000	9	...........
	97	1.30667	1.00484E-001	-3.99141E-004	0.00000E+000	-4.01074E-005	-2.40040E-001	1.00503E-001	3.57740E+000	9	...........
	98	1.32	9.58248E-002	-3.97745E-004	0.00000E+000	-3.81138E-005	-2.40040E-001	9.58461E-002	3.57740E+000	9	...........
	99	1.33333	9.12438E-002	-3.98923E-004	0.00000E+000	-3.63993E-005	-2.40040E-001	9.12592E-002	3.57740E+000	9	...........
	100	1.34667	8.66063E-002	-3.99415E-004	0.00000E+000	-3.45918E-005	-2.40040E-001	8.66314E-002	3.57740E+000	9	...........
	101	1.36	8.20325E-002	-3.98919E-004	0.00000E+000	-3.27243E-005	-2.40040E-001	8.20465E-002	3.57740E+000	9	...........
	102	1.37333	7.74845E-002	-3.98269E-004	0.00000E+000	-3.08597E-005	-2.40040E-001	7.75003E-002	3.57740E+000	9	...........
	103	1.38667	7.28793E-002	-3.97990E-004	0.00000E+000	-2.90053E-005	-2.40040E-001	7.28917E-002	3.57740E+000	9	...........
	104	1.4	6.83199E-002	-3.98595E-004	0.00000E+000	-2.72319E-005	-2.40040E-001	6.83276E-002	3.57740E+000	9	...........
	105	1.41333	6.37818E-002	-3.99650E-004	0.00000E+000	-2.54904E-005	-2.40040E-001	6.37898E-002	3.57740E+000	9	...........
	106	1.42667	5.93298E-002	-3.98633E-004	0.00000E+000	-2.36508E-005	-2.40040E-001	5.93438E-002	3.57740E+000	9	...........
	107	1.44	5.49532E-002	-3.98578E-004	0.00000E+000	-2.19032E-005	-2.40040E-001	5.49528E-002	3.57740E+000	9	...........
	108	1.45333	5.03994E-002	-3.99192E-004	0.00000E+000	-2.01190E-005	-2.40040E-001	5.04023E-002	3.57740E+000	9	...........
	109	1.46667	4.60720E-002	-3.98510E-004	0.00000E+000	-1.83602E-005	-2.40040E-001	4.60850E-002	3.57740E+000	9	...........
	110	1.48	4.16467E-002	-3.98666E-004	0.00000E+000	-1.66031E-005	-2.40040E-001	4.16557E-002	3.57740E+000	9	...........
	111	1.49333	3.72913E-002	-3.99138E-004	0.00000E+000	-1.48844E-005	-2.40040E-001	3.72960E-002	3.57740E+000	9	...........
	112	1.50667	3.28910E-002	-3.99254E-004	0.00000E+000	-1.31319E-005	-2.40040E-001	3.28913E-002	3.57740E+000	9	...........
	113	1.52	2.85269E-002	-3.98475E-004	0.00000E+000	-1.13672E-005	-2.40040E-001	2.85318E-002	3.57740E+000	9	...........
	114	1.53333	2.43199E-002	-4.00319E-004	0.00000E+000	-9.73572E-006	-2.40040E-001	2.43156E-002	3.57740E+000	9	...........
	115	1.54667	2.00776E-002	-3.98908E-004	0.00000E+000	-8.00912E-006	-2.40040E-001	2.00702E-002	3.57740E+000	9	...........
	116	1.56	1.57838E-002	-3.99230E-004	0.00000E+000	-6.30137E-006	-2.40040E-001	1.57734E-002	3.57740E+000	9	...........
	117	1.57333	1.14927E-002	-3.98796E-004	0.00000E+000	-4.58324E-006	-2.40040E-001	1.14815E-002	3.57740E+000	9	...........
	118	1.58667	7.24201E-003	-3.99855E-004	0.00000E+000	-2.89576E-006	-2.40040E-001	7.23223E-003	3.57740E+000	9	...........
	119	1.6	3.04493E-003	-3.99487E-004	0.00000E+000	-1.21641E-006	-2.40040E-001	3.02946E-003	3.57740E+000	9	...........
	120	1.605	1.75259E-004	-3.99592E-004	0.00000E+000	-7.00321E-008	-2.40040E-001	1.67156E-004	3.57740E+000	9	...........
STARTTIMEOFFSET	QUANT	911.4419	Start Time Offset (s)
