EXPLAIN
TAG	PWR800_DISCHARGE
TITLE	LABEL	PWR Cyclic Charge Discharge (Cell) - Discharge Step	Test &Identifier
DATE	LABEL	12-7-2017	Date
TIME	LABEL	15:10:43	Time
NOTES	NOTES	3	&Notes...
	supercap test cell
	0.4mg
	6M KOH
PSTAT	PSTAT	IFC5000-01520	Potentiostat
CAPACITY	QUANT	1.00000E-003	Capacity (A-hr)
CELLTYPE	SELECTOR	1	&Cell Type
WORKINGCONNECTION	SELECTOR	0	&Working Lead
MAXDISCHARGETIME	VARIABLEANDUNITS	1.00000E+002	s	1.00000E+002	second(s)	Max &Discharge Time
DISCHARGEMODE	MULTIPARAM	0	4.00000E-004	&Discharge Mode	Constant Current	Amp(s)
SAMPLETIME	QUANT	1.00000E-002	Sa&mple Period (s)
DISCHARGESTOPAT1	MULTIPARAM	3	0.00000E+000	Discharge Stop At &1	Voltage < Limit	V
DISCHARGESTOPAT2	MULTIPARAM	0	0.00000E+000	Discharge Stop At &2	None	N/A
AESBHCSELECTOR	TOGGLE	F	Save Both Half Cells
IRCOMP	TOGGLE	F	IR &Measure
EOC	QUANT	0	Open Circuit (V)
SEQUENCER	TOGGLE	TRUE	Run as Sequence
PSTATMODEL	IQUANT	53	Pstat Model
PSTATSECTION	LABEL	IFC5000-01520	Pstat Section
PSTATSERIALNO	LABEL	01520	Pstat Serial Number
CTRLMODE	IQUANT	0	Control Mode
ELECTROMETER	IQUANT	1	RE=0 or CS=1
IESTAB	IQUANT	0	I/E Stability
CASPEED	IQUANT	4	Control Amp Speed
CONVENTION	IQUANT	1	Current Convention
ICHRANGE	IQUANT	2	Ich Range
ICHRANGEMODE	TOGGLE	T	Ich Auto Range
ICHOFFSETENABLE	TOGGLE	F	Ich Offset Enable
ICHOFFSET	QUANT	0	Ich Offset (V)
ICHFILTER	IQUANT	1	Ich Filter
VCHRANGE	IQUANT	2	Vch Range
VCHRANGEMODE	TOGGLE	T	Vch Auto Range
VCHOFFSETENABLE	TOGGLE	F	Vch Offset Enable
VCHOFFSET	QUANT	0	Vch Offset (V)
VCHFILTER	IQUANT	1	Vch Filter
IERANGELOWERLIMIT	IQUANT	9	I/E Range Lower Limit
IERANGEMODE	TOGGLE	F	I/E AutoRange
IERANGE	IQUANT	9	I/E Range
ACHSELECT	IQUANT	1	Ach Select
ACHRANGE	IQUANT	2	Ach Range
ACHOFFSETENABLE	TOGGLE	F	Ach Offset Enable
ACHOFFSET	QUANT	0	Ach Offset (V)
ACHFILTER	IQUANT	1	Ach Filter
CABLEID	IQUANT	14	Cable ID
DCCALDATE	LABEL	5-7-2017	DC Calibration Date
ACCALDATE	LABEL	12/3/2015	AC Calibration Date
FRAMEWORKVERSION	QUANT	7.01	Framework Version
INSTRUMENTVERSION	LABEL	4.00	Instrument Version
CURVE	TABLE	105
	Pt	T	Vf	Im	Vu	Pwr	Sig	Ach	Temp	IERange	Over
	#	s	V	A	V	W	V	V	deg C	#	bits
	0	0.013333	6.88161E-001	-3.98475E-004	0.00000E+000	-2.74215E-004	-2.40040E-001	6.88405E-001	3.57670E+000	9	...........
	1	0.026667	6.74856E-001	-3.97890E-004	0.00000E+000	-2.68519E-004	-2.40040E-001	6.75090E-001	3.57670E+000	9	...........
	2	0.04	6.63244E-001	-3.97823E-004	0.00000E+000	-2.63854E-004	-2.40040E-001	6.63483E-001	3.57670E+000	9	...........
	3	0.053333	6.52613E-001	-3.99467E-004	0.00000E+000	-2.60697E-004	-2.40040E-001	6.52836E-001	3.57670E+000	9	...........
	4	0.066667	6.42579E-001	-3.99617E-004	0.00000E+000	-2.56785E-004	-2.40040E-001	6.42813E-001	3.57670E+000	9	...........
	5	0.08	6.32994E-001	-3.99703E-004	0.00000E+000	-2.53010E-004	-2.40040E-001	6.33213E-001	3.57670E+000	9	...........
	6	0.093333	6.23744E-001	-3.99234E-004	0.00000E+000	-2.49020E-004	-2.40040E-001	6.23957E-001	3.57670E+000	9	...........
	7	0.106667	6.14662E-001	-3.98764E-004	0.00000E+000	-2.45105E-004	-2.40040E-001	6.14907E-001	3.57670E+000	9	...........
	8	0.12	6.05849E-001	-3.98147E-004	0.00000E+000	-2.41217E-004	-2.40040E-001	6.06108E-001	3.57670E+000	9	...........
	9	0.133333	5.97221E-001	-3.98623E-004	0.00000E+000	-2.38066E-004	-2.40040E-001	5.97438E-001	3.57670E+000	9	...........
	10	0.146667	5.88744E-001	-3.98768E-004	0.00000E+000	-2.34772E-004	-2.40040E-001	5.88986E-001	3.57670E+000	9	...........
	11	0.16	5.80337E-001	-3.99242E-004	0.00000E+000	-2.31695E-004	-2.40040E-001	5.80576E-001	3.57670E+000	9	...........
	12	0.173333	5.71984E-001	-3.98521E-004	0.00000E+000	-2.27948E-004	-2.40040E-001	5.72213E-001	3.57670E+000	9	...........
	13	0.186667	5.63710E-001	-3.98622E-004	0.00000E+000	-2.24707E-004	-2.40040E-001	5.63938E-001	3.57670E+000	9	...........
	14	0.2	5.55597E-001	-3.98917E-004	0.00000E+000	-2.21637E-004	-2.40040E-001	5.55824E-001	3.57670E+000	9	...........
	15	0.213333	5.47521E-001	-3.97923E-004	0.00000E+000	-2.17871E-004	-2.40040E-001	5.47740E-001	3.57670E+000	9	...........
	16	0.226667	5.39500E-001	-3.99542E-004	0.00000E+000	-2.15553E-004	-2.40040E-001	5.39716E-001	3.57670E+000	9	...........
	17	0.24	5.31555E-001	-3.99239E-004	0.00000E+000	-2.12217E-004	-2.40040E-001	5.31777E-001	3.57670E+000	9	...........
	18	0.253333	5.23631E-001	-3.99590E-004	0.00000E+000	-2.09238E-004	-2.40040E-001	5.23849E-001	3.57670E+000	9	...........
	19	0.266667	5.15770E-001	-3.99260E-004	0.00000E+000	-2.05926E-004	-2.40040E-001	5.15983E-001	3.57670E+000	9	...........
	20	0.28	5.07863E-001	-3.98459E-004	0.00000E+000	-2.02363E-004	-2.40040E-001	5.08106E-001	3.57670E+000	9	...........
	21	0.293333	5.00125E-001	-3.98909E-004	0.00000E+000	-1.99505E-004	-2.40040E-001	5.00350E-001	3.57670E+000	9	...........
	22	0.306667	4.92473E-001	-3.98839E-004	0.00000E+000	-1.96417E-004	-2.40040E-001	4.92690E-001	3.57670E+000	9	...........
	23	0.32	4.84953E-001	-3.99160E-004	0.00000E+000	-1.93574E-004	-2.40040E-001	4.85128E-001	3.57670E+000	9	...........
	24	0.333333	4.77577E-001	-3.99036E-004	0.00000E+000	-1.90571E-004	-2.40040E-001	4.77672E-001	3.57670E+000	9	...........
	25	0.346667	4.70016E-001	-3.99237E-004	0.00000E+000	-1.87647E-004	-2.40040E-001	4.70113E-001	3.57670E+000	9	...........
	26	0.36	4.62475E-001	-3.98114E-004	0.00000E+000	-1.84118E-004	-2.40040E-001	4.62565E-001	3.57670E+000	9	...........
	27	0.373333	4.55004E-001	-3.98676E-004	0.00000E+000	-1.81399E-004	-2.40040E-001	4.55099E-001	3.57670E+000	9	...........
	28	0.386667	4.47556E-001	-3.99277E-004	0.00000E+000	-1.78699E-004	-2.40040E-001	4.47646E-001	3.57670E+000	9	...........
	29	0.4	4.40133E-001	-3.98719E-004	0.00000E+000	-1.75489E-004	-2.40040E-001	4.40223E-001	3.57670E+000	9	...........
	30	0.413333	4.32799E-001	-3.99840E-004	0.00000E+000	-1.73050E-004	-2.40040E-001	4.32886E-001	3.57670E+000	9	...........
	31	0.426667	4.25546E-001	-4.00522E-004	0.00000E+000	-1.70441E-004	-2.40040E-001	4.25634E-001	3.57670E+000	9	...........
	32	0.44	4.18304E-001	-3.98586E-004	0.00000E+000	-1.66730E-004	-2.40040E-001	4.18390E-001	3.57670E+000	9	...........
	33	0.453333	4.11093E-001	-3.98214E-004	0.00000E+000	-1.63703E-004	-2.40040E-001	4.11171E-001	3.57670E+000	9	...........
	34	0.466667	4.03925E-001	-3.98869E-004	0.00000E+000	-1.61113E-004	-2.40040E-001	4.04002E-001	3.57670E+000	9	...........
	35	0.48	3.96811E-001	-3.98515E-004	0.00000E+000	-1.58135E-004	-2.40040E-001	3.96889E-001	3.57670E+000	9	...........
	36	0.493333	3.89771E-001	-3.97513E-004	0.00000E+000	-1.54939E-004	-2.40040E-001	3.89846E-001	3.57670E+000	9	...........
	37	0.506667	3.82774E-001	-3.98703E-004	0.00000E+000	-1.52613E-004	-2.40040E-001	3.82849E-001	3.57670E+000	9	...........
	38	0.52	3.75765E-001	-3.98669E-004	0.00000E+000	-1.49806E-004	-2.40040E-001	3.75838E-001	3.57670E+000	9	...........
	39	0.533333	3.68811E-001	-3.97885E-004	0.00000E+000	-1.46744E-004	-2.40040E-001	3.68876E-001	3.57670E+000	9	...........
	40	0.546667	3.61821E-001	-3.99322E-004	0.00000E+000	-1.44483E-004	-2.40040E-001	3.61889E-001	3.57670E+000	9	...........
	41	0.56	3.54864E-001	-3.97727E-004	0.00000E+000	-1.41139E-004	-2.40040E-001	3.54936E-001	3.57670E+000	9	...........
	42	0.573333	3.48029E-001	-3.98548E-004	0.00000E+000	-1.38706E-004	-2.40040E-001	3.48097E-001	3.57670E+000	9	...........
	43	0.586667	3.41300E-001	-3.98279E-004	0.00000E+000	-1.35933E-004	-2.40040E-001	3.41365E-001	3.57670E+000	9	...........
	44	0.6	3.34536E-001	-3.97797E-004	0.00000E+000	-1.33077E-004	-2.40040E-001	3.34599E-001	3.57675E+000	9	...........
	45	0.613333	3.27820E-001	-3.98184E-004	0.00000E+000	-1.30533E-004	-2.40040E-001	3.27882E-001	3.57710E+000	9	...........
	46	0.626667	3.21155E-001	-3.97951E-004	0.00000E+000	-1.27804E-004	-2.40040E-001	3.21216E-001	3.57710E+000	9	...........
	47	0.64	3.14561E-001	-3.99469E-004	0.00000E+000	-1.25658E-004	-2.40040E-001	3.14619E-001	3.57710E+000	9	...........
	48	0.653333	3.08060E-001	-3.98666E-004	0.00000E+000	-1.22813E-004	-2.40040E-001	3.08123E-001	3.57710E+000	9	...........
	49	0.666667	3.01540E-001	-3.98048E-004	0.00000E+000	-1.20027E-004	-2.40040E-001	3.01596E-001	3.57710E+000	9	...........
	50	0.68	2.95021E-001	-3.98015E-004	0.00000E+000	-1.17423E-004	-2.40040E-001	2.95076E-001	3.57710E+000	9	...........
	51	0.693333	2.88613E-001	-3.98011E-004	0.00000E+000	-1.14871E-004	-2.40040E-001	2.88674E-001	3.57710E+000	9	...........
	52	0.706667	2.82201E-001	-3.97214E-004	0.00000E+000	-1.12094E-004	-2.40040E-001	2.82257E-001	3.57710E+000	9	...........
	53	0.72	2.75902E-001	-3.98821E-004	0.00000E+000	-1.10036E-004	-2.40040E-001	2.75957E-001	3.57710E+000	9	...........
	54	0.733333	2.69573E-001	-3.97831E-004	0.00000E+000	-1.07245E-004	-2.40040E-001	2.69633E-001	3.57710E+000	9	...........
	55	0.746667	2.63300E-001	-3.98927E-004	0.00000E+000	-1.05038E-004	-2.40040E-001	2.63354E-001	3.57710E+000	9	...........
	56	0.76	2.57070E-001	-3.99437E-004	0.00000E+000	-1.02683E-004	-2.40040E-001	2.57119E-001	3.57710E+000	9	...........
	57	0.773333	2.50866E-001	-3.98472E-004	0.00000E+000	-9.99629E-005	-2.40040E-001	2.50918E-001	3.57710E+000	9	...........
	58	0.786667	2.44744E-001	-3.99994E-004	0.00000E+000	-9.78962E-005	-2.40040E-001	2.44786E-001	3.57710E+000	9	...........
	59	0.8	2.38648E-001	-3.98654E-004	0.00000E+000	-9.51380E-005	-2.40040E-001	2.38694E-001	3.57710E+000	9	...........
	60	0.813333	2.32648E-001	-3.98907E-004	0.00000E+000	-9.28051E-005	-2.40040E-001	2.32692E-001	3.57710E+000	9	...........
	61	0.826667	2.26596E-001	-3.99165E-004	0.00000E+000	-9.04490E-005	-2.40040E-001	2.26637E-001	3.57710E+000	9	...........
	62	0.84	2.20611E-001	-3.98741E-004	0.00000E+000	-8.79664E-005	-2.40040E-001	2.20649E-001	3.57710E+000	9	...........
	63	0.853333	2.14661E-001	-3.99427E-004	0.00000E+000	-8.57413E-005	-2.40040E-001	2.14699E-001	3.57710E+000	9	...........
	64	0.866667	2.08708E-001	-3.98498E-004	0.00000E+000	-8.31696E-005	-2.40040E-001	2.08742E-001	3.57710E+000	9	...........
	65	0.88	2.02823E-001	-3.98036E-004	0.00000E+000	-8.07310E-005	-2.40040E-001	2.02861E-001	3.57710E+000	9	...........
	66	0.893333	1.97022E-001	-3.98249E-004	0.00000E+000	-7.84636E-005	-2.40040E-001	1.97057E-001	3.57710E+000	9	...........
	67	0.906667	1.91293E-001	-4.00319E-004	0.00000E+000	-7.65782E-005	-2.40040E-001	1.91333E-001	3.57710E+000	9	...........
	68	0.92	1.85490E-001	-3.98142E-004	0.00000E+000	-7.38514E-005	-2.40040E-001	1.85522E-001	3.57710E+000	9	...........
	69	0.933333	1.79786E-001	-3.98260E-004	0.00000E+000	-7.16017E-005	-2.40040E-001	1.79822E-001	3.57710E+000	9	...........
	70	0.946667	1.74158E-001	-3.98205E-004	0.00000E+000	-6.93506E-005	-2.40040E-001	1.74193E-001	3.57710E+000	9	...........
	71	0.96	1.68499E-001	-3.98110E-004	0.00000E+000	-6.70810E-005	-2.40040E-001	1.68533E-001	3.57710E+000	9	...........
	72	0.97333	1.62812E-001	-3.97917E-004	0.00000E+000	-6.47858E-005	-2.40040E-001	1.62843E-001	3.57710E+000	9	...........
	73	0.98667	1.57243E-001	-3.97995E-004	0.00000E+000	-6.25819E-005	-2.40040E-001	1.57271E-001	3.57710E+000	9	...........
	74	1	1.51782E-001	-3.99614E-004	0.00000E+000	-6.06543E-005	-2.40040E-001	1.51806E-001	3.57710E+000	9	...........
	75	1.01333	1.46298E-001	-3.98829E-004	0.00000E+000	-5.83480E-005	-2.40040E-001	1.46322E-001	3.57710E+000	9	...........
	76	1.02667	1.40786E-001	-3.99418E-004	0.00000E+000	-5.62325E-005	-2.40040E-001	1.40812E-001	3.57710E+000	9	...........
	77	1.04	1.35377E-001	-3.98776E-004	0.00000E+000	-5.39850E-005	-2.40040E-001	1.35398E-001	3.57710E+000	9	...........
	78	1.05333	1.30132E-001	-3.97670E-004	0.00000E+000	-5.17496E-005	-2.40040E-001	1.30151E-001	3.57710E+000	9	...........
	79	1.06667	1.24851E-001	-3.98510E-004	0.00000E+000	-4.97544E-005	-2.40040E-001	1.24873E-001	3.57710E+000	9	...........
	80	1.08	1.19570E-001	-3.99250E-004	0.00000E+000	-4.77383E-005	-2.40040E-001	1.19593E-001	3.57710E+000	9	...........
	81	1.09333	1.14316E-001	-3.98751E-004	0.00000E+000	-4.55837E-005	-2.40040E-001	1.14335E-001	3.57710E+000	9	...........
	82	1.10667	1.09104E-001	-3.98275E-004	0.00000E+000	-4.34534E-005	-2.40040E-001	1.09130E-001	3.57710E+000	9	...........
	83	1.12	1.03876E-001	-3.98020E-004	0.00000E+000	-4.13447E-005	-2.40040E-001	1.03897E-001	3.57710E+000	9	...........
	84	1.13333	9.86644E-002	-3.98087E-004	0.00000E+000	-3.92771E-005	-2.40040E-001	9.86865E-002	3.57710E+000	9	...........
	85	1.14667	9.34702E-002	-3.98644E-004	0.00000E+000	-3.72613E-005	-2.40040E-001	9.34847E-002	3.57710E+000	9	...........
	86	1.16	8.84100E-002	-3.98477E-004	0.00000E+000	-3.52294E-005	-2.40040E-001	8.84328E-002	3.57710E+000	9	...........
	87	1.17333	8.32836E-002	-3.97736E-004	0.00000E+000	-3.31249E-005	-2.40040E-001	8.32981E-002	3.57710E+000	9	...........
	88	1.18667	7.81931E-002	-3.98482E-004	0.00000E+000	-3.11586E-005	-2.40040E-001	7.82007E-002	3.57710E+000	9	...........
	89	1.2	7.31853E-002	-3.99074E-004	0.00000E+000	-2.92063E-005	-2.40040E-001	7.31926E-002	3.57710E+000	9	...........
	90	1.21333	6.82820E-002	-3.97406E-004	0.00000E+000	-2.71357E-005	-2.40040E-001	6.82800E-002	3.57710E+000	9	...........
	91	1.22667	6.33460E-002	-3.99440E-004	0.00000E+000	-2.53029E-005	-2.40040E-001	6.33427E-002	3.57710E+000	9	...........
	92	1.24	5.84363E-002	-3.98686E-004	0.00000E+000	-2.32978E-005	-2.40040E-001	5.84321E-002	3.57710E+000	9	...........
	93	1.25333	5.34930E-002	-3.97823E-004	0.00000E+000	-2.12807E-005	-2.40040E-001	5.34893E-002	3.57710E+000	9	...........
	94	1.26667	4.86172E-002	-3.99056E-004	0.00000E+000	-1.94010E-005	-2.40040E-001	4.86179E-002	3.57710E+000	9	...........
	95	1.28	4.38921E-002	-3.98808E-004	0.00000E+000	-1.75045E-005	-2.40040E-001	4.38946E-002	3.57710E+000	9	...........
	96	1.29333	3.90754E-002	-3.98546E-004	0.00000E+000	-1.55733E-005	-2.40040E-001	3.90761E-002	3.57710E+000	9	...........
	97	1.30667	3.42766E-002	-3.98963E-004	0.00000E+000	-1.36751E-005	-2.40040E-001	3.42758E-002	3.57710E+000	9	...........
	98	1.32	2.95057E-002	-3.99235E-004	0.00000E+000	-1.17797E-005	-2.40040E-001	2.95013E-002	3.57710E+000	9	...........
	99	1.33333	2.48357E-002	-3.97837E-004	0.00000E+000	-9.88056E-006	-2.40040E-001	2.48309E-002	3.57710E+000	9	...........
	100	1.34667	2.01834E-002	-3.98816E-004	0.00000E+000	-8.04945E-006	-2.40040E-001	2.01716E-002	3.57710E+000	9	...........
	101	1.36	1.55450E-002	-3.98235E-004	0.00000E+000	-6.19058E-006	-2.40040E-001	1.55371E-002	3.57710E+000	9	...........
	102	1.37333	1.08641E-002	-3.98369E-004	0.00000E+000	-4.32793E-006	-2.40040E-001	1.08450E-002	3.57710E+000	9	...........
	103	1.38667	6.24948E-003	-3.98497E-004	0.00000E+000	-2.49040E-006	-2.40040E-001	6.23279E-003	3.57710E+000	9	...........
	104	1.4	1.69257E-003	-3.99433E-004	0.00000E+000	-6.76068E-007	-2.40040E-001	1.67313E-003	3.57710E+000	9	...........
STARTTIMEOFFSET	QUANT	2473.38	Start Time Offset (s)
