EXPLAIN
TAG	PWR800_DISCHARGE
TITLE	LABEL	PWR Cyclic Charge Discharge (Cell) - Discharge Step	Test &Identifier
DATE	LABEL	12-7-2017	Date
TIME	LABEL	14:27:17	Time
NOTES	NOTES	3	&Notes...
	supercap test cell
	0.4mg
	6M KOH
PSTAT	PSTAT	IFC5000-01520	Potentiostat
CAPACITY	QUANT	1.00000E-003	Capacity (A-hr)
CELLTYPE	SELECTOR	1	&Cell Type
WORKINGCONNECTION	SELECTOR	0	&Working Lead
MAXDISCHARGETIME	VARIABLEANDUNITS	1.00000E+002	s	1.00000E+002	second(s)	Max &Discharge Time
DISCHARGEMODE	MULTIPARAM	0	4.00000E-004	&Discharge Mode	Constant Current	Amp(s)
SAMPLETIME	QUANT	1.00000E-002	Sa&mple Period (s)
DISCHARGESTOPAT1	MULTIPARAM	3	0.00000E+000	Discharge Stop At &1	Voltage < Limit	V
DISCHARGESTOPAT2	MULTIPARAM	0	0.00000E+000	Discharge Stop At &2	None	N/A
AESBHCSELECTOR	TOGGLE	F	Save Both Half Cells
IRCOMP	TOGGLE	F	IR &Measure
EOC	QUANT	0	Open Circuit (V)
SEQUENCER	TOGGLE	TRUE	Run as Sequence
PSTATMODEL	IQUANT	53	Pstat Model
PSTATSECTION	LABEL	IFC5000-01520	Pstat Section
PSTATSERIALNO	LABEL	01520	Pstat Serial Number
CTRLMODE	IQUANT	0	Control Mode
ELECTROMETER	IQUANT	1	RE=0 or CS=1
IESTAB	IQUANT	0	I/E Stability
CASPEED	IQUANT	4	Control Amp Speed
CONVENTION	IQUANT	1	Current Convention
ICHRANGE	IQUANT	2	Ich Range
ICHRANGEMODE	TOGGLE	T	Ich Auto Range
ICHOFFSETENABLE	TOGGLE	F	Ich Offset Enable
ICHOFFSET	QUANT	0	Ich Offset (V)
ICHFILTER	IQUANT	1	Ich Filter
VCHRANGE	IQUANT	2	Vch Range
VCHRANGEMODE	TOGGLE	T	Vch Auto Range
VCHOFFSETENABLE	TOGGLE	F	Vch Offset Enable
VCHOFFSET	QUANT	0	Vch Offset (V)
VCHFILTER	IQUANT	1	Vch Filter
IERANGELOWERLIMIT	IQUANT	9	I/E Range Lower Limit
IERANGEMODE	TOGGLE	F	I/E AutoRange
IERANGE	IQUANT	9	I/E Range
ACHSELECT	IQUANT	1	Ach Select
ACHRANGE	IQUANT	2	Ach Range
ACHOFFSETENABLE	TOGGLE	F	Ach Offset Enable
ACHOFFSET	QUANT	0	Ach Offset (V)
ACHFILTER	IQUANT	1	Ach Filter
CABLEID	IQUANT	14	Cable ID
DCCALDATE	LABEL	5-7-2017	DC Calibration Date
ACCALDATE	LABEL	12/3/2015	AC Calibration Date
FRAMEWORKVERSION	QUANT	7.01	Framework Version
INSTRUMENTVERSION	LABEL	4.00	Instrument Version
CURVE	TABLE	129
	Pt	T	Vf	Im	Vu	Pwr	Sig	Ach	Temp	IERange	Over
	#	s	V	A	V	W	V	V	deg C	#	bits
	0	0.013333	7.16485E-001	-3.98025E-004	0.00000E+000	-2.85179E-004	-2.40040E-001	7.16691E-001	3.57590E+000	9	...........
	1	0.026667	7.05381E-001	-3.98978E-004	0.00000E+000	-2.81432E-004	-2.40040E-001	7.05574E-001	3.57590E+000	9	...........
	2	0.04	6.95540E-001	-3.99274E-004	0.00000E+000	-2.77711E-004	-2.40040E-001	6.95749E-001	3.57590E+000	9	...........
	3	0.053333	6.86531E-001	-3.99836E-004	0.00000E+000	-2.74500E-004	-2.40040E-001	6.86777E-001	3.57590E+000	9	...........
	4	0.066667	6.78015E-001	-3.97737E-004	0.00000E+000	-2.69672E-004	-2.40040E-001	6.78237E-001	3.57590E+000	9	...........
	5	0.08	6.69798E-001	-3.98872E-004	0.00000E+000	-2.67163E-004	-2.40040E-001	6.70025E-001	3.57590E+000	9	...........
	6	0.093333	6.61786E-001	-3.99736E-004	0.00000E+000	-2.64539E-004	-2.40040E-001	6.62022E-001	3.57590E+000	9	...........
	7	0.106667	6.53961E-001	-3.99208E-004	0.00000E+000	-2.61067E-004	-2.40040E-001	6.54177E-001	3.57590E+000	9	...........
	8	0.12	6.46333E-001	-3.97842E-004	0.00000E+000	-2.57139E-004	-2.40040E-001	6.46524E-001	3.57590E+000	9	...........
	9	0.133333	6.38844E-001	-3.98611E-004	0.00000E+000	-2.54650E-004	-2.40040E-001	6.39004E-001	3.57590E+000	9	...........
	10	0.146667	6.31412E-001	-3.98993E-004	0.00000E+000	-2.51929E-004	-2.40040E-001	6.31604E-001	3.57590E+000	9	...........
	11	0.16	6.24106E-001	-3.99108E-004	0.00000E+000	-2.49086E-004	-2.40040E-001	6.24282E-001	3.57590E+000	9	...........
	12	0.173333	6.16896E-001	-3.98918E-004	0.00000E+000	-2.46091E-004	-2.40040E-001	6.17071E-001	3.57590E+000	9	...........
	13	0.186667	6.09682E-001	-3.98472E-004	0.00000E+000	-2.42941E-004	-2.40040E-001	6.09917E-001	3.57590E+000	9	...........
	14	0.2	6.02674E-001	-3.98753E-004	0.00000E+000	-2.40318E-004	-2.40040E-001	6.02928E-001	3.57590E+000	9	...........
	15	0.213333	5.95692E-001	-3.98423E-004	0.00000E+000	-2.37337E-004	-2.40040E-001	5.95907E-001	3.57590E+000	9	...........
	16	0.226667	5.88742E-001	-3.97006E-004	0.00000E+000	-2.33734E-004	-2.40040E-001	5.88976E-001	3.57590E+000	9	...........
	17	0.24	5.81834E-001	-3.98579E-004	0.00000E+000	-2.31907E-004	-2.40040E-001	5.82046E-001	3.57590E+000	9	...........
	18	0.253333	5.75015E-001	-3.99213E-004	0.00000E+000	-2.29553E-004	-2.40040E-001	5.75210E-001	3.57590E+000	9	...........
	19	0.266667	5.68223E-001	-3.97758E-004	0.00000E+000	-2.26015E-004	-2.40040E-001	5.68380E-001	3.57590E+000	9	...........
	20	0.28	5.61418E-001	-3.99065E-004	0.00000E+000	-2.24042E-004	-2.40040E-001	5.61615E-001	3.57590E+000	9	...........
	21	0.293333	5.54688E-001	-3.99402E-004	0.00000E+000	-2.21543E-004	-2.40040E-001	5.54909E-001	3.57590E+000	9	...........
	22	0.306667	5.48023E-001	-3.99708E-004	0.00000E+000	-2.19049E-004	-2.40040E-001	5.48229E-001	3.57590E+000	9	...........
	23	0.32	5.41398E-001	-3.97988E-004	0.00000E+000	-2.15470E-004	-2.40040E-001	5.41599E-001	3.57590E+000	9	...........
	24	0.333333	5.34752E-001	-3.98752E-004	0.00000E+000	-2.13233E-004	-2.40040E-001	5.34952E-001	3.57590E+000	9	...........
	25	0.346667	5.28205E-001	-3.98858E-004	0.00000E+000	-2.10679E-004	-2.40040E-001	5.28400E-001	3.57590E+000	9	...........
	26	0.36	5.21709E-001	-3.98527E-004	0.00000E+000	-2.07915E-004	-2.40040E-001	5.21889E-001	3.57590E+000	9	...........
	27	0.373333	5.15196E-001	-3.98383E-004	0.00000E+000	-2.05245E-004	-2.40040E-001	5.15371E-001	3.57590E+000	9	...........
	28	0.386667	5.08689E-001	-3.98219E-004	0.00000E+000	-2.02570E-004	-2.40040E-001	5.08905E-001	3.57590E+000	9	...........
	29	0.4	5.02233E-001	-3.99464E-004	0.00000E+000	-2.00624E-004	-2.40040E-001	5.02464E-001	3.57590E+000	9	...........
	30	0.413333	4.95821E-001	-3.98961E-004	0.00000E+000	-1.97813E-004	-2.40040E-001	4.96018E-001	3.57590E+000	9	...........
	31	0.426667	4.89394E-001	-3.98203E-004	0.00000E+000	-1.94878E-004	-2.40040E-001	4.89620E-001	3.57590E+000	9	...........
	32	0.44	4.83268E-001	-3.99288E-004	0.00000E+000	-1.92963E-004	-2.40040E-001	4.83380E-001	3.57590E+000	9	...........
	33	0.453333	4.77039E-001	-3.98205E-004	0.00000E+000	-1.89959E-004	-2.40040E-001	4.77133E-001	3.57590E+000	9	...........
	34	0.466667	4.70725E-001	-3.98440E-004	0.00000E+000	-1.87556E-004	-2.40040E-001	4.70822E-001	3.57590E+000	9	...........
	35	0.48	4.64442E-001	-3.99040E-004	0.00000E+000	-1.85331E-004	-2.40040E-001	4.64534E-001	3.57590E+000	9	...........
	36	0.493333	4.58145E-001	-3.98369E-004	0.00000E+000	-1.82510E-004	-2.40040E-001	4.58230E-001	3.57590E+000	9	...........
	37	0.506667	4.51960E-001	-3.98918E-004	0.00000E+000	-1.80295E-004	-2.40040E-001	4.52048E-001	3.57590E+000	9	...........
	38	0.52	4.45880E-001	-3.98882E-004	0.00000E+000	-1.77854E-004	-2.40040E-001	4.45972E-001	3.57590E+000	9	...........
	39	0.533333	4.39787E-001	-3.98654E-004	0.00000E+000	-1.75323E-004	-2.40040E-001	4.39880E-001	3.57590E+000	9	...........
	40	0.546667	4.33690E-001	-3.99277E-004	0.00000E+000	-1.73163E-004	-2.40040E-001	4.33770E-001	3.57590E+000	9	...........
	41	0.56	4.27679E-001	-3.97778E-004	0.00000E+000	-1.70121E-004	-2.40040E-001	4.27768E-001	3.57590E+000	9	...........
	42	0.573333	4.21746E-001	-3.99084E-004	0.00000E+000	-1.68312E-004	-2.40040E-001	4.21833E-001	3.57590E+000	9	...........
	43	0.586667	4.15726E-001	-3.98399E-004	0.00000E+000	-1.65625E-004	-2.40040E-001	4.15807E-001	3.57590E+000	9	...........
	44	0.6	4.09725E-001	-3.99281E-004	0.00000E+000	-1.63596E-004	-2.40040E-001	4.09803E-001	3.57590E+000	9	...........
	45	0.613333	4.03769E-001	-3.99939E-004	0.00000E+000	-1.61483E-004	-2.40040E-001	4.03844E-001	3.57590E+000	9	...........
	46	0.626667	3.97897E-001	-3.99374E-004	0.00000E+000	-1.58910E-004	-2.40040E-001	3.97969E-001	3.57590E+000	9	...........
	47	0.64	3.92051E-001	-3.97612E-004	0.00000E+000	-1.55884E-004	-2.40040E-001	3.92128E-001	3.57590E+000	9	...........
	48	0.653333	3.86231E-001	-3.99137E-004	0.00000E+000	-1.54159E-004	-2.40040E-001	3.86307E-001	3.57590E+000	9	...........
	49	0.666667	3.80363E-001	-3.98712E-004	0.00000E+000	-1.51655E-004	-2.40040E-001	3.80432E-001	3.57590E+000	9	...........
	50	0.68	3.74581E-001	-3.99106E-004	0.00000E+000	-1.49498E-004	-2.40040E-001	3.74652E-001	3.57590E+000	9	...........
	51	0.693333	3.68804E-001	-3.98653E-004	0.00000E+000	-1.47025E-004	-2.40040E-001	3.68874E-001	3.57590E+000	9	...........
	52	0.706667	3.63096E-001	-3.99023E-004	0.00000E+000	-1.44884E-004	-2.40040E-001	3.63165E-001	3.57590E+000	9	...........
	53	0.72	3.57417E-001	-3.98850E-004	0.00000E+000	-1.42556E-004	-2.40040E-001	3.57481E-001	3.57590E+000	9	...........
	54	0.733333	3.51769E-001	-3.98971E-004	0.00000E+000	-1.40346E-004	-2.40040E-001	3.51832E-001	3.57590E+000	9	...........
	55	0.746667	3.46087E-001	-3.98247E-004	0.00000E+000	-1.37828E-004	-2.40040E-001	3.46152E-001	3.57590E+000	9	...........
	56	0.76	3.40561E-001	-3.99126E-004	0.00000E+000	-1.35927E-004	-2.40040E-001	3.40624E-001	3.57590E+000	9	...........
	57	0.773333	3.34990E-001	-3.99661E-004	0.00000E+000	-1.33882E-004	-2.40040E-001	3.35056E-001	3.57590E+000	9	...........
	58	0.786667	3.29423E-001	-3.97989E-004	0.00000E+000	-1.31107E-004	-2.40040E-001	3.29491E-001	3.57590E+000	9	...........
	59	0.8	3.23825E-001	-3.99386E-004	0.00000E+000	-1.29331E-004	-2.40040E-001	3.23890E-001	3.57590E+000	9	...........
	60	0.813333	3.18347E-001	-3.98928E-004	0.00000E+000	-1.26997E-004	-2.40040E-001	3.18407E-001	3.57590E+000	9	...........
	61	0.826667	3.12807E-001	-3.98136E-004	0.00000E+000	-1.24540E-004	-2.40040E-001	3.12870E-001	3.57590E+000	9	...........
	62	0.84	3.07363E-001	-3.97674E-004	0.00000E+000	-1.22230E-004	-2.40040E-001	3.07427E-001	3.57590E+000	9	...........
	63	0.853333	3.01931E-001	-3.98992E-004	0.00000E+000	-1.20468E-004	-2.40040E-001	3.01990E-001	3.57590E+000	9	...........
	64	0.866667	2.96505E-001	-3.99270E-004	0.00000E+000	-1.18385E-004	-2.40040E-001	2.96565E-001	3.57590E+000	9	...........
	65	0.88	2.91065E-001	-3.99710E-004	0.00000E+000	-1.16341E-004	-2.40040E-001	2.91120E-001	3.57590E+000	9	...........
	66	0.893333	2.85719E-001	-3.98278E-004	0.00000E+000	-1.13796E-004	-2.40040E-001	2.85778E-001	3.57590E+000	9	...........
	67	0.906667	2.80400E-001	-3.98690E-004	0.00000E+000	-1.11793E-004	-2.40040E-001	2.80454E-001	3.57590E+000	9	...........
	68	0.92	2.75159E-001	-3.98211E-004	0.00000E+000	-1.09572E-004	-2.40040E-001	2.75216E-001	3.57590E+000	9	...........
	69	0.933333	2.69872E-001	-3.97632E-004	0.00000E+000	-1.07310E-004	-2.40040E-001	2.69929E-001	3.57590E+000	9	...........
	70	0.946667	2.64572E-001	-3.98341E-004	0.00000E+000	-1.05390E-004	-2.40040E-001	2.64630E-001	3.57590E+000	9	...........
	71	0.96	2.59366E-001	-3.97549E-004	0.00000E+000	-1.03111E-004	-2.40040E-001	2.59418E-001	3.57590E+000	9	...........
	72	0.97333	2.54255E-001	-3.98836E-004	0.00000E+000	-1.01406E-004	-2.40040E-001	2.54300E-001	3.57590E+000	9	...........
	73	0.98667	2.49102E-001	-3.98315E-004	0.00000E+000	-9.92211E-005	-2.40040E-001	2.49151E-001	3.57590E+000	9	...........
	74	1	2.43919E-001	-3.99061E-004	0.00000E+000	-9.73389E-005	-2.40040E-001	2.43957E-001	3.57594E+000	9	...........
	75	1.01333	2.38770E-001	-3.98751E-004	0.00000E+000	-9.52096E-005	-2.40040E-001	2.38808E-001	3.57600E+000	9	...........
	76	1.02667	2.33673E-001	-3.99340E-004	0.00000E+000	-9.33150E-005	-2.40040E-001	2.33721E-001	3.57600E+000	9	...........
	77	1.04	2.28598E-001	-3.99541E-004	0.00000E+000	-9.13342E-005	-2.40040E-001	2.28640E-001	3.57600E+000	9	...........
	78	1.05333	2.23558E-001	-3.97367E-004	0.00000E+000	-8.88346E-005	-2.40040E-001	2.23599E-001	3.57600E+000	9	...........
	79	1.06667	2.18588E-001	-3.98347E-004	0.00000E+000	-8.70738E-005	-2.40040E-001	2.18624E-001	3.57600E+000	9	...........
	80	1.08	2.13571E-001	-3.98710E-004	0.00000E+000	-8.51530E-005	-2.40040E-001	2.13610E-001	3.57600E+000	9	...........
	81	1.09333	2.08581E-001	-3.98632E-004	0.00000E+000	-8.31471E-005	-2.40040E-001	2.08619E-001	3.57600E+000	9	...........
	82	1.10667	2.03707E-001	-3.98799E-004	0.00000E+000	-8.12381E-005	-2.40040E-001	2.03748E-001	3.57600E+000	9	...........
	83	1.12	1.98782E-001	-3.98979E-004	0.00000E+000	-7.93098E-005	-2.40040E-001	1.98819E-001	3.57600E+000	9	...........
	84	1.13333	1.93869E-001	-3.98716E-004	0.00000E+000	-7.72986E-005	-2.40040E-001	1.93908E-001	3.57600E+000	9	...........
	85	1.14667	1.89009E-001	-3.98066E-004	0.00000E+000	-7.52380E-005	-2.40040E-001	1.89045E-001	3.57600E+000	9	...........
	86	1.16	1.84212E-001	-3.98432E-004	0.00000E+000	-7.33962E-005	-2.40040E-001	1.84249E-001	3.57600E+000	9	...........
	87	1.17333	1.79342E-001	-3.99922E-004	0.00000E+000	-7.17228E-005	-2.40040E-001	1.79384E-001	3.57600E+000	9	...........
	88	1.18667	1.74561E-001	-3.98681E-004	0.00000E+000	-6.95943E-005	-2.40040E-001	1.74592E-001	3.57600E+000	9	...........
	89	1.2	1.69773E-001	-3.99531E-004	0.00000E+000	-6.78298E-005	-2.40040E-001	1.69809E-001	3.57600E+000	9	...........
	90	1.21333	1.64964E-001	-3.98807E-004	0.00000E+000	-6.57890E-005	-2.40040E-001	1.64991E-001	3.57600E+000	9	...........
	91	1.22667	1.60217E-001	-3.98525E-004	0.00000E+000	-6.38505E-005	-2.40040E-001	1.60248E-001	3.57600E+000	9	...........
	92	1.24	1.55567E-001	-3.98562E-004	0.00000E+000	-6.20030E-005	-2.40040E-001	1.55595E-001	3.57600E+000	9	...........
	93	1.25333	1.50824E-001	-3.99401E-004	0.00000E+000	-6.02391E-005	-2.40040E-001	1.50849E-001	3.57600E+000	9	...........
	94	1.26667	1.46175E-001	-3.98656E-004	0.00000E+000	-5.82736E-005	-2.40040E-001	1.46205E-001	3.57600E+000	9	...........
	95	1.28	1.41536E-001	-3.99870E-004	0.00000E+000	-5.65959E-005	-2.40040E-001	1.41565E-001	3.57600E+000	9	...........
	96	1.29333	1.36928E-001	-3.99202E-004	0.00000E+000	-5.46619E-005	-2.40040E-001	1.36953E-001	3.57600E+000	9	...........
	97	1.30667	1.32351E-001	-3.98921E-004	0.00000E+000	-5.27976E-005	-2.40040E-001	1.32372E-001	3.57600E+000	9	...........
	98	1.32	1.27657E-001	-3.99718E-004	0.00000E+000	-5.10269E-005	-2.40040E-001	1.27678E-001	3.57600E+000	9	...........
	99	1.33333	1.23064E-001	-3.99048E-004	0.00000E+000	-4.91086E-005	-2.40040E-001	1.23081E-001	3.57600E+000	9	...........
	100	1.34667	1.18540E-001	-3.99097E-004	0.00000E+000	-4.73091E-005	-2.40040E-001	1.18560E-001	3.57600E+000	9	...........
	101	1.36	1.14006E-001	-3.99240E-004	0.00000E+000	-4.55157E-005	-2.40040E-001	1.14024E-001	3.57600E+000	9	...........
	102	1.37333	1.09545E-001	-3.98137E-004	0.00000E+000	-4.36140E-005	-2.40040E-001	1.09560E-001	3.57600E+000	9	...........
	103	1.38667	1.05051E-001	-3.98496E-004	0.00000E+000	-4.18625E-005	-2.40040E-001	1.05069E-001	3.57600E+000	9	...........
	104	1.4	1.00541E-001	-3.99131E-004	0.00000E+000	-4.01290E-005	-2.40040E-001	1.00562E-001	3.57600E+000	9	...........
	105	1.41333	9.60392E-002	-3.99078E-004	0.00000E+000	-3.83271E-005	-2.40040E-001	9.60556E-002	3.57600E+000	9	...........
	106	1.42667	9.17005E-002	-3.98552E-004	0.00000E+000	-3.65474E-005	-2.40040E-001	9.17194E-002	3.57600E+000	9	...........
	107	1.44	8.72635E-002	-3.97676E-004	0.00000E+000	-3.47026E-005	-2.40040E-001	8.72828E-002	3.57600E+000	9	...........
	108	1.45333	8.27901E-002	-3.99651E-004	0.00000E+000	-3.30872E-005	-2.40040E-001	8.28009E-002	3.57600E+000	9	...........
	109	1.46667	7.83711E-002	-3.97685E-004	0.00000E+000	-3.11670E-005	-2.40040E-001	7.83839E-002	3.57600E+000	9	...........
	110	1.48	7.40088E-002	-3.98636E-004	0.00000E+000	-2.95026E-005	-2.40040E-001	7.40158E-002	3.57600E+000	9	...........
	111	1.49333	6.96872E-002	-3.97981E-004	0.00000E+000	-2.77342E-005	-2.40040E-001	6.97013E-002	3.57600E+000	9	...........
	112	1.50667	6.52976E-002	-3.99483E-004	0.00000E+000	-2.60853E-005	-2.40040E-001	6.53060E-002	3.57600E+000	9	...........
	113	1.52	6.10212E-002	-3.99022E-004	0.00000E+000	-2.43488E-005	-2.40040E-001	6.10318E-002	3.57600E+000	9	...........
	114	1.53333	5.67836E-002	-3.99570E-004	0.00000E+000	-2.26890E-005	-2.40040E-001	5.67977E-002	3.57600E+000	9	...........
	115	1.54667	5.25834E-002	-3.98393E-004	0.00000E+000	-2.09488E-005	-2.40040E-001	5.25953E-002	3.57600E+000	9	...........
	116	1.56	4.84032E-002	-3.97878E-004	0.00000E+000	-1.92586E-005	-2.40040E-001	4.84007E-002	3.57600E+000	9	...........
	117	1.57333	4.41894E-002	-3.99604E-004	0.00000E+000	-1.76583E-005	-2.40040E-001	4.41994E-002	3.57600E+000	9	...........
	118	1.58667	3.99421E-002	-3.99602E-004	0.00000E+000	-1.59610E-005	-2.40040E-001	3.99471E-002	3.57600E+000	9	...........
	119	1.6	3.57789E-002	-3.99048E-004	0.00000E+000	-1.42775E-005	-2.40040E-001	3.57801E-002	3.57600E+000	9	...........
	120	1.61333	3.15140E-002	-3.98734E-004	0.00000E+000	-1.25657E-005	-2.40040E-001	3.15094E-002	3.57600E+000	9	...........
	121	1.62667	2.73857E-002	-3.97496E-004	0.00000E+000	-1.08857E-005	-2.40040E-001	2.73836E-002	3.57600E+000	9	...........
	122	1.64	2.32509E-002	-3.99343E-004	0.00000E+000	-9.28507E-006	-2.40040E-001	2.32427E-002	3.57600E+000	9	...........
	123	1.65333	1.91271E-002	-3.99560E-004	0.00000E+000	-7.64242E-006	-2.40040E-001	1.91189E-002	3.57600E+000	9	...........
	124	1.66667	1.49835E-002	-3.99655E-004	0.00000E+000	-5.98824E-006	-2.40040E-001	1.49730E-002	3.57600E+000	9	...........
	125	1.68	1.09540E-002	-3.98874E-004	0.00000E+000	-4.36925E-006	-2.40040E-001	1.09394E-002	3.57600E+000	9	...........
	126	1.69333	6.84707E-003	-3.99047E-004	0.00000E+000	-2.73230E-006	-2.40040E-001	6.83007E-003	3.57600E+000	9	...........
	127	1.70667	2.76361E-003	-4.00481E-004	0.00000E+000	-1.10677E-006	-2.40040E-001	2.74065E-003	3.57600E+000	9	...........
	128	1.71167	2.30148E-006	-3.99820E-004	0.00000E+000	-9.20179E-010	-2.40040E-001	-1.24411E-005	3.57600E+000	9	...........
STARTTIMEOFFSET	QUANT	418.4333	Start Time Offset (s)
