EXPLAIN
TAG	PWR800_DISCHARGE
TITLE	LABEL	PWR Cyclic Charge Discharge (Cell) - Discharge Step	Test &Identifier
DATE	LABEL	12-7-2017	Date
TIME	LABEL	14:29:15	Time
NOTES	NOTES	3	&Notes...
	supercap test cell
	0.4mg
	6M KOH
PSTAT	PSTAT	IFC5000-01520	Potentiostat
CAPACITY	QUANT	1.00000E-003	Capacity (A-hr)
CELLTYPE	SELECTOR	1	&Cell Type
WORKINGCONNECTION	SELECTOR	0	&Working Lead
MAXDISCHARGETIME	VARIABLEANDUNITS	1.00000E+002	s	1.00000E+002	second(s)	Max &Discharge Time
DISCHARGEMODE	MULTIPARAM	0	4.00000E-004	&Discharge Mode	Constant Current	Amp(s)
SAMPLETIME	QUANT	1.00000E-002	Sa&mple Period (s)
DISCHARGESTOPAT1	MULTIPARAM	3	0.00000E+000	Discharge Stop At &1	Voltage < Limit	V
DISCHARGESTOPAT2	MULTIPARAM	0	0.00000E+000	Discharge Stop At &2	None	N/A
AESBHCSELECTOR	TOGGLE	F	Save Both Half Cells
IRCOMP	TOGGLE	F	IR &Measure
EOC	QUANT	0	Open Circuit (V)
SEQUENCER	TOGGLE	TRUE	Run as Sequence
PSTATMODEL	IQUANT	53	Pstat Model
PSTATSECTION	LABEL	IFC5000-01520	Pstat Section
PSTATSERIALNO	LABEL	01520	Pstat Serial Number
CTRLMODE	IQUANT	0	Control Mode
ELECTROMETER	IQUANT	1	RE=0 or CS=1
IESTAB	IQUANT	0	I/E Stability
CASPEED	IQUANT	4	Control Amp Speed
CONVENTION	IQUANT	1	Current Convention
ICHRANGE	IQUANT	2	Ich Range
ICHRANGEMODE	TOGGLE	T	Ich Auto Range
ICHOFFSETENABLE	TOGGLE	F	Ich Offset Enable
ICHOFFSET	QUANT	0	Ich Offset (V)
ICHFILTER	IQUANT	1	Ich Filter
VCHRANGE	IQUANT	2	Vch Range
VCHRANGEMODE	TOGGLE	T	Vch Auto Range
VCHOFFSETENABLE	TOGGLE	F	Vch Offset Enable
VCHOFFSET	QUANT	0	Vch Offset (V)
VCHFILTER	IQUANT	1	Vch Filter
IERANGELOWERLIMIT	IQUANT	9	I/E Range Lower Limit
IERANGEMODE	TOGGLE	F	I/E AutoRange
IERANGE	IQUANT	9	I/E Range
ACHSELECT	IQUANT	1	Ach Select
ACHRANGE	IQUANT	2	Ach Range
ACHOFFSETENABLE	TOGGLE	F	Ach Offset Enable
ACHOFFSET	QUANT	0	Ach Offset (V)
ACHFILTER	IQUANT	1	Ach Filter
CABLEID	IQUANT	14	Cable ID
DCCALDATE	LABEL	5-7-2017	DC Calibration Date
ACCALDATE	LABEL	12/3/2015	AC Calibration Date
FRAMEWORKVERSION	QUANT	7.01	Framework Version
INSTRUMENTVERSION	LABEL	4.00	Instrument Version
CURVE	TABLE	127
	Pt	T	Vf	Im	Vu	Pwr	Sig	Ach	Temp	IERange	Over
	#	s	V	A	V	W	V	V	deg C	#	bits
	0	0.013333	7.16317E-001	-3.98691E-004	0.00000E+000	-2.85589E-004	-2.40040E-001	7.16568E-001	3.57640E+000	9	...........
	1	0.026667	7.05110E-001	-3.99736E-004	0.00000E+000	-2.81857E-004	-2.40040E-001	7.05386E-001	3.57640E+000	9	...........
	2	0.04	6.95102E-001	-3.97670E-004	0.00000E+000	-2.76421E-004	-2.40040E-001	6.95377E-001	3.57640E+000	9	...........
	3	0.053333	6.85884E-001	-3.97669E-004	0.00000E+000	-2.72754E-004	-2.40040E-001	6.86175E-001	3.57640E+000	9	...........
	4	0.066667	6.77199E-001	-3.99853E-004	0.00000E+000	-2.70780E-004	-2.40040E-001	6.77444E-001	3.57640E+000	9	...........
	5	0.08	6.68857E-001	-3.97674E-004	0.00000E+000	-2.65987E-004	-2.40040E-001	6.69117E-001	3.57640E+000	9	...........
	6	0.093333	6.60859E-001	-3.97565E-004	0.00000E+000	-2.62735E-004	-2.40040E-001	6.61125E-001	3.57640E+000	9	...........
	7	0.106667	6.53047E-001	-3.98626E-004	0.00000E+000	-2.60321E-004	-2.40040E-001	6.53307E-001	3.57640E+000	9	...........
	8	0.12	6.45289E-001	-3.99886E-004	0.00000E+000	-2.58042E-004	-2.40040E-001	6.45551E-001	3.57640E+000	9	...........
	9	0.133333	6.37617E-001	-3.99473E-004	0.00000E+000	-2.54711E-004	-2.40040E-001	6.37883E-001	3.57640E+000	9	...........
	10	0.146667	6.30119E-001	-3.98989E-004	0.00000E+000	-2.51410E-004	-2.40040E-001	6.30358E-001	3.57640E+000	9	...........
	11	0.16	6.22804E-001	-3.99939E-004	0.00000E+000	-2.49084E-004	-2.40040E-001	6.23026E-001	3.57640E+000	9	...........
	12	0.173333	6.15486E-001	-3.98561E-004	0.00000E+000	-2.45309E-004	-2.40040E-001	6.15707E-001	3.57640E+000	9	...........
	13	0.186667	6.08207E-001	-3.99137E-004	0.00000E+000	-2.42758E-004	-2.40040E-001	6.08468E-001	3.57640E+000	9	...........
	14	0.2	6.01066E-001	-3.98303E-004	0.00000E+000	-2.39406E-004	-2.40040E-001	6.01327E-001	3.57640E+000	9	...........
	15	0.213333	5.93967E-001	-3.99680E-004	0.00000E+000	-2.37397E-004	-2.40040E-001	5.94200E-001	3.57640E+000	9	...........
	16	0.226667	5.86862E-001	-3.98834E-004	0.00000E+000	-2.34061E-004	-2.40040E-001	5.87108E-001	3.57640E+000	9	...........
	17	0.24	5.79842E-001	-3.97936E-004	0.00000E+000	-2.30740E-004	-2.40040E-001	5.80095E-001	3.57640E+000	9	...........
	18	0.253333	5.72918E-001	-3.99138E-004	0.00000E+000	-2.28673E-004	-2.40040E-001	5.73113E-001	3.57640E+000	9	...........
	19	0.266667	5.66057E-001	-3.98581E-004	0.00000E+000	-2.25620E-004	-2.40040E-001	5.66231E-001	3.57640E+000	9	...........
	20	0.28	5.59102E-001	-3.98423E-004	0.00000E+000	-2.22759E-004	-2.40040E-001	5.59317E-001	3.57640E+000	9	...........
	21	0.293333	5.52277E-001	-3.99144E-004	0.00000E+000	-2.20438E-004	-2.40040E-001	5.52477E-001	3.57640E+000	9	...........
	22	0.306667	5.45414E-001	-3.99303E-004	0.00000E+000	-2.17786E-004	-2.40040E-001	5.45636E-001	3.57640E+000	9	...........
	23	0.32	5.38723E-001	-3.99872E-004	0.00000E+000	-2.15420E-004	-2.40040E-001	5.38930E-001	3.57640E+000	9	...........
	24	0.333333	5.32028E-001	-3.98594E-004	0.00000E+000	-2.12063E-004	-2.40040E-001	5.32226E-001	3.57640E+000	9	...........
	25	0.346667	5.25358E-001	-3.98920E-004	0.00000E+000	-2.09576E-004	-2.40040E-001	5.25537E-001	3.57640E+000	9	...........
	26	0.36	5.18732E-001	-3.99568E-004	0.00000E+000	-2.07269E-004	-2.40040E-001	5.18914E-001	3.57640E+000	9	...........
	27	0.373333	5.12067E-001	-3.98682E-004	0.00000E+000	-2.04152E-004	-2.40040E-001	5.12256E-001	3.57640E+000	9	...........
	28	0.386667	5.05448E-001	-3.98824E-004	0.00000E+000	-2.01585E-004	-2.40040E-001	5.05658E-001	3.57640E+000	9	...........
	29	0.4	4.98961E-001	-3.97930E-004	0.00000E+000	-1.98551E-004	-2.40040E-001	4.99165E-001	3.57640E+000	9	...........
	30	0.413333	4.92512E-001	-3.99156E-004	0.00000E+000	-1.96589E-004	-2.40040E-001	4.92704E-001	3.57640E+000	9	...........
	31	0.426667	4.86146E-001	-3.98721E-004	0.00000E+000	-1.93837E-004	-2.40040E-001	4.86320E-001	3.57640E+000	9	...........
	32	0.44	4.79901E-001	-3.98864E-004	0.00000E+000	-1.91415E-004	-2.40040E-001	4.79996E-001	3.57640E+000	9	...........
	33	0.453333	4.73520E-001	-3.98634E-004	0.00000E+000	-1.88762E-004	-2.40040E-001	4.73611E-001	3.57654E+000	9	...........
	34	0.466667	4.67214E-001	-3.98512E-004	0.00000E+000	-1.86190E-004	-2.40040E-001	4.67303E-001	3.57660E+000	9	...........
	35	0.48	4.60924E-001	-3.99262E-004	0.00000E+000	-1.84029E-004	-2.40040E-001	4.61017E-001	3.57660E+000	9	...........
	36	0.493333	4.54637E-001	-3.98869E-004	0.00000E+000	-1.81340E-004	-2.40040E-001	4.54725E-001	3.57660E+000	9	...........
	37	0.506667	4.48353E-001	-3.97772E-004	0.00000E+000	-1.78342E-004	-2.40040E-001	4.48444E-001	3.57660E+000	9	...........
	38	0.52	4.42082E-001	-3.99361E-004	0.00000E+000	-1.76550E-004	-2.40040E-001	4.42171E-001	3.57660E+000	9	...........
	39	0.533333	4.35862E-001	-3.99909E-004	0.00000E+000	-1.74305E-004	-2.40040E-001	4.35954E-001	3.57660E+000	9	...........
	40	0.546667	4.29695E-001	-3.98288E-004	0.00000E+000	-1.71143E-004	-2.40040E-001	4.29784E-001	3.57660E+000	9	...........
	41	0.56	4.23521E-001	-3.98630E-004	0.00000E+000	-1.68828E-004	-2.40040E-001	4.23609E-001	3.57660E+000	9	...........
	42	0.573333	4.17459E-001	-3.99140E-004	0.00000E+000	-1.66624E-004	-2.40040E-001	4.17547E-001	3.57660E+000	9	...........
	43	0.586667	4.11364E-001	-3.98161E-004	0.00000E+000	-1.63789E-004	-2.40040E-001	4.11448E-001	3.57660E+000	9	...........
	44	0.6	4.05216E-001	-3.99727E-004	0.00000E+000	-1.61976E-004	-2.40040E-001	4.05292E-001	3.57660E+000	9	...........
	45	0.613333	3.99250E-001	-3.99151E-004	0.00000E+000	-1.59361E-004	-2.40040E-001	3.99322E-001	3.57660E+000	9	...........
	46	0.626667	3.93252E-001	-3.99032E-004	0.00000E+000	-1.56920E-004	-2.40040E-001	3.93319E-001	3.57660E+000	9	...........
	47	0.64	3.87256E-001	-3.98586E-004	0.00000E+000	-1.54355E-004	-2.40040E-001	3.87331E-001	3.57660E+000	9	...........
	48	0.653333	3.81389E-001	-3.98286E-004	0.00000E+000	-1.51902E-004	-2.40040E-001	3.81463E-001	3.57660E+000	9	...........
	49	0.666667	3.75526E-001	-3.99035E-004	0.00000E+000	-1.49848E-004	-2.40040E-001	3.75598E-001	3.57660E+000	9	...........
	50	0.68	3.69725E-001	-3.98306E-004	0.00000E+000	-1.47264E-004	-2.40040E-001	3.69787E-001	3.57660E+000	9	...........
	51	0.693333	3.63843E-001	-3.99786E-004	0.00000E+000	-1.45459E-004	-2.40040E-001	3.63912E-001	3.57660E+000	9	...........
	52	0.706667	3.58023E-001	-3.98901E-004	0.00000E+000	-1.42816E-004	-2.40040E-001	3.58093E-001	3.57660E+000	9	...........
	53	0.72	3.52224E-001	-4.00240E-004	0.00000E+000	-1.40974E-004	-2.40040E-001	3.52288E-001	3.57660E+000	9	...........
	54	0.733333	3.46426E-001	-3.99874E-004	0.00000E+000	-1.38527E-004	-2.40040E-001	3.46495E-001	3.57660E+000	9	...........
	55	0.746667	3.40733E-001	-3.99237E-004	0.00000E+000	-1.36033E-004	-2.40040E-001	3.40799E-001	3.57660E+000	9	...........
	56	0.76	3.35075E-001	-3.98557E-004	0.00000E+000	-1.33547E-004	-2.40040E-001	3.35143E-001	3.57660E+000	9	...........
	57	0.773333	3.29410E-001	-4.00478E-004	0.00000E+000	-1.31922E-004	-2.40040E-001	3.29469E-001	3.57660E+000	9	...........
	58	0.786667	3.23777E-001	-3.98501E-004	0.00000E+000	-1.29026E-004	-2.40040E-001	3.23839E-001	3.57660E+000	9	...........
	59	0.8	3.18154E-001	-3.98111E-004	0.00000E+000	-1.26661E-004	-2.40040E-001	3.18216E-001	3.57660E+000	9	...........
	60	0.813333	3.12601E-001	-4.00337E-004	0.00000E+000	-1.25146E-004	-2.40040E-001	3.12661E-001	3.57660E+000	9	...........
	61	0.826667	3.07089E-001	-3.99291E-004	0.00000E+000	-1.22618E-004	-2.40040E-001	3.07147E-001	3.57660E+000	9	...........
	62	0.84	3.01594E-001	-3.96566E-004	0.00000E+000	-1.19602E-004	-2.40040E-001	3.01653E-001	3.57660E+000	9	...........
	63	0.853333	2.96129E-001	-3.98469E-004	0.00000E+000	-1.17998E-004	-2.40040E-001	2.96183E-001	3.57660E+000	9	...........
	64	0.866667	2.90665E-001	-3.98654E-004	0.00000E+000	-1.15875E-004	-2.40040E-001	2.90723E-001	3.57660E+000	9	...........
	65	0.88	2.85268E-001	-3.99664E-004	0.00000E+000	-1.14011E-004	-2.40040E-001	2.85325E-001	3.57660E+000	9	...........
	66	0.893333	2.79860E-001	-3.98152E-004	0.00000E+000	-1.11427E-004	-2.40040E-001	2.79912E-001	3.57660E+000	9	...........
	67	0.906667	2.74535E-001	-3.98592E-004	0.00000E+000	-1.09427E-004	-2.40040E-001	2.74587E-001	3.57660E+000	9	...........
	68	0.92	2.69171E-001	-3.99174E-004	0.00000E+000	-1.07446E-004	-2.40040E-001	2.69228E-001	3.57660E+000	9	...........
	69	0.933333	2.63818E-001	-3.99436E-004	0.00000E+000	-1.05378E-004	-2.40040E-001	2.63873E-001	3.57660E+000	9	...........
	70	0.946667	2.58546E-001	-3.99587E-004	0.00000E+000	-1.03311E-004	-2.40040E-001	2.58602E-001	3.57660E+000	9	...........
	71	0.96	2.53254E-001	-3.98590E-004	0.00000E+000	-1.00944E-004	-2.40040E-001	2.53302E-001	3.57660E+000	9	...........
	72	0.97333	2.47991E-001	-3.98684E-004	0.00000E+000	-9.88701E-005	-2.40040E-001	2.48041E-001	3.57660E+000	9	...........
	73	0.98667	2.42770E-001	-3.98988E-004	0.00000E+000	-9.68622E-005	-2.40040E-001	2.42816E-001	3.57660E+000	9	...........
	74	1	2.37576E-001	-3.98629E-004	0.00000E+000	-9.47046E-005	-2.40040E-001	2.37615E-001	3.57660E+000	9	...........
	75	1.01333	2.32409E-001	-3.98842E-004	0.00000E+000	-9.26945E-005	-2.40040E-001	2.32453E-001	3.57660E+000	9	...........
	76	1.02667	2.27311E-001	-3.97896E-004	0.00000E+000	-9.04459E-005	-2.40040E-001	2.27349E-001	3.57660E+000	9	...........
	77	1.04	2.22175E-001	-3.98881E-004	0.00000E+000	-8.86215E-005	-2.40040E-001	2.22211E-001	3.57660E+000	9	...........
	78	1.05333	2.16958E-001	-3.98300E-004	0.00000E+000	-8.64143E-005	-2.40040E-001	2.17002E-001	3.57660E+000	9	...........
	79	1.06667	2.11792E-001	-3.99042E-004	0.00000E+000	-8.45138E-005	-2.40040E-001	2.11834E-001	3.57660E+000	9	...........
	80	1.08	2.06820E-001	-3.97882E-004	0.00000E+000	-8.22899E-005	-2.40040E-001	2.06856E-001	3.57660E+000	9	...........
	81	1.09333	2.01819E-001	-3.98901E-004	0.00000E+000	-8.05059E-005	-2.40040E-001	2.01863E-001	3.57660E+000	9	...........
	82	1.10667	1.96892E-001	-3.98618E-004	0.00000E+000	-7.84845E-005	-2.40040E-001	1.96931E-001	3.57660E+000	9	...........
	83	1.12	1.91995E-001	-3.98466E-004	0.00000E+000	-7.65035E-005	-2.40040E-001	1.92037E-001	3.57660E+000	9	...........
	84	1.13333	1.87120E-001	-3.99774E-004	0.00000E+000	-7.48056E-005	-2.40040E-001	1.87153E-001	3.57660E+000	9	...........
	85	1.14667	1.82260E-001	-3.98954E-004	0.00000E+000	-7.27132E-005	-2.40040E-001	1.82297E-001	3.57660E+000	9	...........
	86	1.16	1.77381E-001	-3.97599E-004	0.00000E+000	-7.05265E-005	-2.40040E-001	1.77412E-001	3.57660E+000	9	...........
	87	1.17333	1.72485E-001	-3.98500E-004	0.00000E+000	-6.87353E-005	-2.40040E-001	1.72519E-001	3.57660E+000	9	...........
	88	1.18667	1.67679E-001	-3.99236E-004	0.00000E+000	-6.69434E-005	-2.40040E-001	1.67711E-001	3.57660E+000	9	...........
	89	1.2	1.62853E-001	-3.99950E-004	0.00000E+000	-6.51331E-005	-2.40040E-001	1.62887E-001	3.57660E+000	9	...........
	90	1.21333	1.58037E-001	-3.98279E-004	0.00000E+000	-6.29430E-005	-2.40040E-001	1.58065E-001	3.57660E+000	9	...........
	91	1.22667	1.53293E-001	-3.97738E-004	0.00000E+000	-6.09704E-005	-2.40040E-001	1.53326E-001	3.57660E+000	9	...........
	92	1.24	1.48541E-001	-3.97534E-004	0.00000E+000	-5.90500E-005	-2.40040E-001	1.48572E-001	3.57660E+000	9	...........
	93	1.25333	1.43838E-001	-3.98033E-004	0.00000E+000	-5.72523E-005	-2.40040E-001	1.43866E-001	3.57660E+000	9	...........
	94	1.26667	1.39131E-001	-3.98943E-004	0.00000E+000	-5.55055E-005	-2.40040E-001	1.39156E-001	3.57660E+000	9	...........
	95	1.28	1.34421E-001	-3.98162E-004	0.00000E+000	-5.35212E-005	-2.40040E-001	1.34447E-001	3.57660E+000	9	...........
	96	1.29333	1.29786E-001	-3.98982E-004	0.00000E+000	-5.17821E-005	-2.40040E-001	1.29800E-001	3.57660E+000	9	...........
	97	1.30667	1.25061E-001	-3.97327E-004	0.00000E+000	-4.96899E-005	-2.40040E-001	1.25083E-001	3.57660E+000	9	...........
	98	1.32	1.20484E-001	-3.98852E-004	0.00000E+000	-4.80553E-005	-2.40040E-001	1.20503E-001	3.57660E+000	9	...........
	99	1.33333	1.15950E-001	-3.98654E-004	0.00000E+000	-4.62240E-005	-2.40040E-001	1.15968E-001	3.57660E+000	9	...........
	100	1.34667	1.11400E-001	-3.97652E-004	0.00000E+000	-4.42984E-005	-2.40040E-001	1.11423E-001	3.57660E+000	9	...........
	101	1.36	1.06918E-001	-3.99545E-004	0.00000E+000	-4.27185E-005	-2.40040E-001	1.06932E-001	3.57660E+000	9	...........
	102	1.37333	1.02416E-001	-3.98359E-004	0.00000E+000	-4.07984E-005	-2.40040E-001	1.02442E-001	3.57660E+000	9	...........
	103	1.38667	9.79607E-002	-3.98731E-004	0.00000E+000	-3.90600E-005	-2.40040E-001	9.79821E-002	3.57660E+000	9	...........
	104	1.4	9.34783E-002	-3.97314E-004	0.00000E+000	-3.71403E-005	-2.40040E-001	9.34932E-002	3.57660E+000	9	...........
	105	1.41333	8.90197E-002	-3.98328E-004	0.00000E+000	-3.54590E-005	-2.40040E-001	8.90302E-002	3.57660E+000	9	...........
	106	1.42667	8.45447E-002	-3.97847E-004	0.00000E+000	-3.36358E-005	-2.40040E-001	8.45590E-002	3.57660E+000	9	...........
	107	1.44	8.01431E-002	-3.98688E-004	0.00000E+000	-3.19521E-005	-2.40040E-001	8.01570E-002	3.57660E+000	9	...........
	108	1.45333	7.57222E-002	-3.98579E-004	0.00000E+000	-3.01813E-005	-2.40040E-001	7.57333E-002	3.57688E+000	9	...........
	109	1.46667	7.13853E-002	-3.97677E-004	0.00000E+000	-2.83883E-005	-2.40040E-001	7.13942E-002	3.57700E+000	9	...........
	110	1.48	6.70454E-002	-3.98968E-004	0.00000E+000	-2.67489E-005	-2.40040E-001	6.70515E-002	3.57700E+000	9	...........
	111	1.49333	6.27761E-002	-3.99890E-004	0.00000E+000	-2.51035E-005	-2.40040E-001	6.27828E-002	3.57700E+000	9	...........
	112	1.50667	5.84720E-002	-3.99513E-004	0.00000E+000	-2.33603E-005	-2.40040E-001	5.84791E-002	3.57700E+000	9	...........
	113	1.52	5.40768E-002	-3.98743E-004	0.00000E+000	-2.15627E-005	-2.40040E-001	5.40750E-002	3.57700E+000	9	...........
	114	1.53333	4.97544E-002	-3.98872E-004	0.00000E+000	-1.98456E-005	-2.40040E-001	4.97620E-002	3.57700E+000	9	...........
	115	1.54667	4.54601E-002	-3.98604E-004	0.00000E+000	-1.81206E-005	-2.40040E-001	4.54696E-002	3.57700E+000	9	...........
	116	1.56	4.11849E-002	-3.97979E-004	0.00000E+000	-1.63907E-005	-2.40040E-001	4.11967E-002	3.57700E+000	9	...........
	117	1.57333	3.70534E-002	-3.99169E-004	0.00000E+000	-1.47906E-005	-2.40040E-001	3.70606E-002	3.57700E+000	9	...........
	118	1.58667	3.28958E-002	-3.98473E-004	0.00000E+000	-1.31081E-005	-2.40040E-001	3.28976E-002	3.57700E+000	9	...........
	119	1.6	2.87723E-002	-4.00288E-004	0.00000E+000	-1.15172E-005	-2.40040E-001	2.87705E-002	3.57700E+000	9	...........
	120	1.61333	2.45583E-002	-3.99075E-004	0.00000E+000	-9.80061E-006	-2.40040E-001	2.45559E-002	3.57700E+000	9	...........
	121	1.62667	2.03815E-002	-3.98799E-004	0.00000E+000	-8.12810E-006	-2.40040E-001	2.03763E-002	3.57700E+000	9	...........
	122	1.64	1.61404E-002	-3.98122E-004	0.00000E+000	-6.42583E-006	-2.40040E-001	1.61349E-002	3.57700E+000	9	...........
	123	1.65333	1.20759E-002	-3.99114E-004	0.00000E+000	-4.81964E-006	-2.40040E-001	1.20625E-002	3.57700E+000	9	...........
	124	1.66667	8.01177E-003	-3.99543E-004	0.00000E+000	-3.20105E-006	-2.40040E-001	7.99622E-003	3.57700E+000	9	...........
	125	1.68	3.85699E-003	-3.98090E-004	0.00000E+000	-1.53543E-006	-2.40040E-001	3.84383E-003	3.57700E+000	9	...........
	126	1.68833	5.91578E-004	-3.98506E-004	0.00000E+000	-2.35747E-007	-2.40040E-001	5.75737E-004	3.57700E+000	9	...........
STARTTIMEOFFSET	QUANT	513.1751	Start Time Offset (s)
