EXPLAIN
TAG	PWR800_DISCHARGE
TITLE	LABEL	PWR Cyclic Charge Discharge (Cell) - Discharge Step	Test &Identifier
DATE	LABEL	12-7-2017	Date
TIME	LABEL	14:26:11	Time
NOTES	NOTES	3	&Notes...
	supercap test cell
	0.4mg
	6M KOH
PSTAT	PSTAT	IFC5000-01520	Potentiostat
CAPACITY	QUANT	1.00000E-003	Capacity (A-hr)
CELLTYPE	SELECTOR	1	&Cell Type
WORKINGCONNECTION	SELECTOR	0	&Working Lead
MAXDISCHARGETIME	VARIABLEANDUNITS	1.00000E+002	s	1.00000E+002	second(s)	Max &Discharge Time
DISCHARGEMODE	MULTIPARAM	0	4.00000E-004	&Discharge Mode	Constant Current	Amp(s)
SAMPLETIME	QUANT	1.00000E-002	Sa&mple Period (s)
DISCHARGESTOPAT1	MULTIPARAM	3	0.00000E+000	Discharge Stop At &1	Voltage < Limit	V
DISCHARGESTOPAT2	MULTIPARAM	0	0.00000E+000	Discharge Stop At &2	None	N/A
AESBHCSELECTOR	TOGGLE	F	Save Both Half Cells
IRCOMP	TOGGLE	F	IR &Measure
EOC	QUANT	0	Open Circuit (V)
SEQUENCER	TOGGLE	TRUE	Run as Sequence
PSTATMODEL	IQUANT	53	Pstat Model
PSTATSECTION	LABEL	IFC5000-01520	Pstat Section
PSTATSERIALNO	LABEL	01520	Pstat Serial Number
CTRLMODE	IQUANT	0	Control Mode
ELECTROMETER	IQUANT	1	RE=0 or CS=1
IESTAB	IQUANT	0	I/E Stability
CASPEED	IQUANT	4	Control Amp Speed
CONVENTION	IQUANT	1	Current Convention
ICHRANGE	IQUANT	2	Ich Range
ICHRANGEMODE	TOGGLE	T	Ich Auto Range
ICHOFFSETENABLE	TOGGLE	F	Ich Offset Enable
ICHOFFSET	QUANT	0	Ich Offset (V)
ICHFILTER	IQUANT	1	Ich Filter
VCHRANGE	IQUANT	2	Vch Range
VCHRANGEMODE	TOGGLE	T	Vch Auto Range
VCHOFFSETENABLE	TOGGLE	F	Vch Offset Enable
VCHOFFSET	QUANT	0	Vch Offset (V)
VCHFILTER	IQUANT	1	Vch Filter
IERANGELOWERLIMIT	IQUANT	9	I/E Range Lower Limit
IERANGEMODE	TOGGLE	F	I/E AutoRange
IERANGE	IQUANT	9	I/E Range
ACHSELECT	IQUANT	1	Ach Select
ACHRANGE	IQUANT	2	Ach Range
ACHOFFSETENABLE	TOGGLE	F	Ach Offset Enable
ACHOFFSET	QUANT	0	Ach Offset (V)
ACHFILTER	IQUANT	1	Ach Filter
CABLEID	IQUANT	14	Cable ID
DCCALDATE	LABEL	5-7-2017	DC Calibration Date
ACCALDATE	LABEL	12/3/2015	AC Calibration Date
FRAMEWORKVERSION	QUANT	7.01	Framework Version
INSTRUMENTVERSION	LABEL	4.00	Instrument Version
CURVE	TABLE	130
	Pt	T	Vf	Im	Vu	Pwr	Sig	Ach	Temp	IERange	Over
	#	s	V	A	V	W	V	V	deg C	#	bits
	0	0.013333	7.21466E-001	-3.98760E-004	0.00000E+000	-2.87692E-004	-2.40040E-001	7.21726E-001	3.57580E+000	9	...........
	1	0.026667	7.10456E-001	-3.98153E-004	0.00000E+000	-2.82870E-004	-2.40040E-001	7.10700E-001	3.57580E+000	9	...........
	2	0.04	7.00730E-001	-4.00141E-004	0.00000E+000	-2.80391E-004	-2.40040E-001	7.00964E-001	3.57580E+000	9	...........
	3	0.053333	6.91722E-001	-3.99526E-004	0.00000E+000	-2.76361E-004	-2.40040E-001	6.91957E-001	3.57580E+000	9	...........
	4	0.066667	6.83111E-001	-3.98569E-004	0.00000E+000	-2.72267E-004	-2.40040E-001	6.83380E-001	3.57580E+000	9	...........
	5	0.08	6.74868E-001	-3.99822E-004	0.00000E+000	-2.69827E-004	-2.40040E-001	6.75105E-001	3.57580E+000	9	...........
	6	0.093333	6.66884E-001	-3.98709E-004	0.00000E+000	-2.65893E-004	-2.40040E-001	6.67140E-001	3.57580E+000	9	...........
	7	0.106667	6.59125E-001	-3.98093E-004	0.00000E+000	-2.62393E-004	-2.40040E-001	6.59382E-001	3.57580E+000	9	...........
	8	0.12	6.51583E-001	-3.98049E-004	0.00000E+000	-2.59362E-004	-2.40040E-001	6.51844E-001	3.57580E+000	9	...........
	9	0.133333	6.44107E-001	-3.97126E-004	0.00000E+000	-2.55791E-004	-2.40040E-001	6.44372E-001	3.57580E+000	9	...........
	10	0.146667	6.36723E-001	-3.99119E-004	0.00000E+000	-2.54128E-004	-2.40040E-001	6.36984E-001	3.57580E+000	9	...........
	11	0.16	6.29389E-001	-3.98954E-004	0.00000E+000	-2.51097E-004	-2.40040E-001	6.29646E-001	3.57580E+000	9	...........
	12	0.173333	6.22191E-001	-3.99891E-004	0.00000E+000	-2.48809E-004	-2.40040E-001	6.22416E-001	3.57580E+000	9	...........
	13	0.186667	6.15128E-001	-3.98380E-004	0.00000E+000	-2.45055E-004	-2.40040E-001	6.15371E-001	3.57580E+000	9	...........
	14	0.2	6.08074E-001	-3.99190E-004	0.00000E+000	-2.42737E-004	-2.40040E-001	6.08341E-001	3.57580E+000	9	...........
	15	0.213333	6.01099E-001	-3.98484E-004	0.00000E+000	-2.39528E-004	-2.40040E-001	6.01346E-001	3.57580E+000	9	...........
	16	0.226667	5.94222E-001	-3.98731E-004	0.00000E+000	-2.36935E-004	-2.40040E-001	5.94458E-001	3.57580E+000	9	...........
	17	0.24	5.87322E-001	-3.98501E-004	0.00000E+000	-2.34048E-004	-2.40040E-001	5.87558E-001	3.57580E+000	9	...........
	18	0.253333	5.80540E-001	-3.98781E-004	0.00000E+000	-2.31508E-004	-2.40040E-001	5.80737E-001	3.57580E+000	9	...........
	19	0.266667	5.73794E-001	-3.98106E-004	0.00000E+000	-2.28431E-004	-2.40040E-001	5.74002E-001	3.57580E+000	9	...........
	20	0.28	5.67119E-001	-3.97817E-004	0.00000E+000	-2.25610E-004	-2.40040E-001	5.67290E-001	3.57580E+000	9	...........
	21	0.293333	5.60427E-001	-3.99299E-004	0.00000E+000	-2.23778E-004	-2.40040E-001	5.60622E-001	3.57580E+000	9	...........
	22	0.306667	5.53780E-001	-3.98560E-004	0.00000E+000	-2.20715E-004	-2.40040E-001	5.53980E-001	3.57580E+000	9	...........
	23	0.32	5.47162E-001	-3.98921E-004	0.00000E+000	-2.18274E-004	-2.40040E-001	5.47325E-001	3.57580E+000	9	...........
	24	0.333333	5.40549E-001	-4.00180E-004	0.00000E+000	-2.16317E-004	-2.40040E-001	5.40706E-001	3.57580E+000	9	...........
	25	0.346667	5.33882E-001	-3.96943E-004	0.00000E+000	-2.11921E-004	-2.40040E-001	5.34071E-001	3.57582E+000	9	...........
	26	0.36	5.27348E-001	-3.98041E-004	0.00000E+000	-2.09906E-004	-2.40040E-001	5.27537E-001	3.57590E+000	9	...........
	27	0.373333	5.20843E-001	-3.98994E-004	0.00000E+000	-2.07813E-004	-2.40040E-001	5.21014E-001	3.57590E+000	9	...........
	28	0.386667	5.14375E-001	-3.98088E-004	0.00000E+000	-2.04767E-004	-2.40040E-001	5.14540E-001	3.57590E+000	9	...........
	29	0.4	5.07902E-001	-3.99067E-004	0.00000E+000	-2.02687E-004	-2.40040E-001	5.08143E-001	3.57590E+000	9	...........
	30	0.413333	5.01522E-001	-3.99060E-004	0.00000E+000	-2.00137E-004	-2.40040E-001	5.01746E-001	3.57590E+000	9	...........
	31	0.426667	4.95253E-001	-3.97399E-004	0.00000E+000	-1.96813E-004	-2.40040E-001	4.95464E-001	3.57590E+000	9	...........
	32	0.44	4.89033E-001	-3.98733E-004	0.00000E+000	-1.94994E-004	-2.40040E-001	4.89213E-001	3.57590E+000	9	...........
	33	0.453333	4.82960E-001	-4.00065E-004	0.00000E+000	-1.93215E-004	-2.40040E-001	4.83054E-001	3.57590E+000	9	...........
	34	0.466667	4.76726E-001	-3.99023E-004	0.00000E+000	-1.90224E-004	-2.40040E-001	4.76822E-001	3.57590E+000	9	...........
	35	0.48	4.70527E-001	-3.98845E-004	0.00000E+000	-1.87667E-004	-2.40040E-001	4.70620E-001	3.57590E+000	9	...........
	36	0.493333	4.64316E-001	-3.99548E-004	0.00000E+000	-1.85517E-004	-2.40040E-001	4.64411E-001	3.57590E+000	9	...........
	37	0.506667	4.58231E-001	-3.98652E-004	0.00000E+000	-1.82675E-004	-2.40040E-001	4.58316E-001	3.57590E+000	9	...........
	38	0.52	4.52093E-001	-4.00268E-004	0.00000E+000	-1.80958E-004	-2.40040E-001	4.52185E-001	3.57590E+000	9	...........
	39	0.533333	4.46017E-001	-4.00204E-004	0.00000E+000	-1.78498E-004	-2.40040E-001	4.46109E-001	3.57590E+000	9	...........
	40	0.546667	4.39921E-001	-3.98404E-004	0.00000E+000	-1.75266E-004	-2.40040E-001	4.40012E-001	3.57590E+000	9	...........
	41	0.56	4.33877E-001	-3.98885E-004	0.00000E+000	-1.73067E-004	-2.40040E-001	4.33961E-001	3.57590E+000	9	...........
	42	0.573333	4.27860E-001	-3.98431E-004	0.00000E+000	-1.70473E-004	-2.40040E-001	4.27945E-001	3.57590E+000	9	...........
	43	0.586667	4.21899E-001	-3.98650E-004	0.00000E+000	-1.68190E-004	-2.40040E-001	4.21979E-001	3.57590E+000	9	...........
	44	0.6	4.15887E-001	-3.98545E-004	0.00000E+000	-1.65750E-004	-2.40040E-001	4.15971E-001	3.57590E+000	9	...........
	45	0.613333	4.09911E-001	-3.97740E-004	0.00000E+000	-1.63038E-004	-2.40040E-001	4.09987E-001	3.57590E+000	9	...........
	46	0.626667	4.04028E-001	-3.98573E-004	0.00000E+000	-1.61035E-004	-2.40040E-001	4.04106E-001	3.57590E+000	9	...........
	47	0.64	3.98147E-001	-3.99051E-004	0.00000E+000	-1.58881E-004	-2.40040E-001	3.98222E-001	3.57590E+000	9	...........
	48	0.653333	3.92311E-001	-3.98422E-004	0.00000E+000	-1.56305E-004	-2.40040E-001	3.92379E-001	3.57590E+000	9	...........
	49	0.666667	3.86500E-001	-3.97832E-004	0.00000E+000	-1.53762E-004	-2.40040E-001	3.86574E-001	3.57590E+000	9	...........
	50	0.68	3.80715E-001	-3.99215E-004	0.00000E+000	-1.51987E-004	-2.40040E-001	3.80788E-001	3.57590E+000	9	...........
	51	0.693333	3.74873E-001	-3.99637E-004	0.00000E+000	-1.49813E-004	-2.40040E-001	3.74942E-001	3.57590E+000	9	...........
	52	0.706667	3.69109E-001	-3.98526E-004	0.00000E+000	-1.47100E-004	-2.40040E-001	3.69178E-001	3.57590E+000	9	...........
	53	0.72	3.63410E-001	-3.97572E-004	0.00000E+000	-1.44482E-004	-2.40040E-001	3.63480E-001	3.57590E+000	9	...........
	54	0.733333	3.57746E-001	-3.99896E-004	0.00000E+000	-1.43061E-004	-2.40040E-001	3.57817E-001	3.57590E+000	9	...........
	55	0.746667	3.52080E-001	-3.99902E-004	0.00000E+000	-1.40798E-004	-2.40040E-001	3.52142E-001	3.57590E+000	9	...........
	56	0.76	3.46588E-001	-3.98736E-004	0.00000E+000	-1.38197E-004	-2.40040E-001	3.46650E-001	3.57590E+000	9	...........
	57	0.773333	3.41055E-001	-3.97287E-004	0.00000E+000	-1.35497E-004	-2.40040E-001	3.41122E-001	3.57590E+000	9	...........
	58	0.786667	3.35599E-001	-3.98811E-004	0.00000E+000	-1.33841E-004	-2.40040E-001	3.35663E-001	3.57590E+000	9	...........
	59	0.8	3.30130E-001	-3.99322E-004	0.00000E+000	-1.31828E-004	-2.40040E-001	3.30190E-001	3.57590E+000	9	...........
	60	0.813333	3.24567E-001	-3.99189E-004	0.00000E+000	-1.29564E-004	-2.40040E-001	3.24632E-001	3.57590E+000	9	...........
	61	0.826667	3.18988E-001	-3.99635E-004	0.00000E+000	-1.27479E-004	-2.40040E-001	3.19053E-001	3.57590E+000	9	...........
	62	0.84	3.13562E-001	-3.97880E-004	0.00000E+000	-1.24760E-004	-2.40040E-001	3.13625E-001	3.57590E+000	9	...........
	63	0.853333	3.08132E-001	-3.98341E-004	0.00000E+000	-1.22742E-004	-2.40040E-001	3.08189E-001	3.57590E+000	9	...........
	64	0.866667	3.02762E-001	-3.99420E-004	0.00000E+000	-1.20929E-004	-2.40040E-001	3.02813E-001	3.57590E+000	9	...........
	65	0.88	2.97372E-001	-3.97971E-004	0.00000E+000	-1.18345E-004	-2.40040E-001	2.97431E-001	3.57590E+000	9	...........
	66	0.893333	2.92057E-001	-3.97840E-004	0.00000E+000	-1.16192E-004	-2.40040E-001	2.92108E-001	3.57590E+000	9	...........
	67	0.906667	2.86701E-001	-3.98583E-004	0.00000E+000	-1.14274E-004	-2.40040E-001	2.86760E-001	3.57590E+000	9	...........
	68	0.92	2.81432E-001	-3.99275E-004	0.00000E+000	-1.12369E-004	-2.40040E-001	2.81481E-001	3.57590E+000	9	...........
	69	0.933333	2.76200E-001	-3.98250E-004	0.00000E+000	-1.09997E-004	-2.40040E-001	2.76249E-001	3.57590E+000	9	...........
	70	0.946667	2.70969E-001	-3.99851E-004	0.00000E+000	-1.08347E-004	-2.40040E-001	2.71019E-001	3.57590E+000	9	...........
	71	0.96	2.65721E-001	-3.97862E-004	0.00000E+000	-1.05721E-004	-2.40040E-001	2.65768E-001	3.57590E+000	9	...........
	72	0.97333	2.60572E-001	-3.98966E-004	0.00000E+000	-1.03959E-004	-2.40040E-001	2.60623E-001	3.57590E+000	9	...........
	73	0.98667	2.55408E-001	-3.99197E-004	0.00000E+000	-1.01958E-004	-2.40040E-001	2.55457E-001	3.57590E+000	9	...........
	74	1	2.50297E-001	-3.97653E-004	0.00000E+000	-9.95314E-005	-2.40040E-001	2.50343E-001	3.57590E+000	9	...........
	75	1.01333	2.45237E-001	-3.98282E-004	0.00000E+000	-9.76735E-005	-2.40040E-001	2.45280E-001	3.57590E+000	9	...........
	76	1.02667	2.40263E-001	-3.98706E-004	0.00000E+000	-9.57942E-005	-2.40040E-001	2.40309E-001	3.57590E+000	9	...........
	77	1.04	2.35249E-001	-3.99293E-004	0.00000E+000	-9.39334E-005	-2.40040E-001	2.35295E-001	3.57590E+000	9	...........
	78	1.05333	2.30239E-001	-3.99763E-004	0.00000E+000	-9.20409E-005	-2.40040E-001	2.30282E-001	3.57590E+000	9	...........
	79	1.06667	2.25245E-001	-3.97541E-004	0.00000E+000	-8.95442E-005	-2.40040E-001	2.25287E-001	3.57590E+000	9	...........
	80	1.08	2.20240E-001	-3.99951E-004	0.00000E+000	-8.80851E-005	-2.40040E-001	2.20282E-001	3.57590E+000	9	...........
	81	1.09333	2.15247E-001	-3.98735E-004	0.00000E+000	-8.58265E-005	-2.40040E-001	2.15286E-001	3.57590E+000	9	...........
	82	1.10667	2.10288E-001	-3.98099E-004	0.00000E+000	-8.37154E-005	-2.40040E-001	2.10324E-001	3.57590E+000	9	...........
	83	1.12	2.05319E-001	-3.99561E-004	0.00000E+000	-8.20375E-005	-2.40040E-001	2.05352E-001	3.57590E+000	9	...........
	84	1.13333	2.00462E-001	-3.99590E-004	0.00000E+000	-8.01027E-005	-2.40040E-001	2.00502E-001	3.57590E+000	9	...........
	85	1.14667	1.95668E-001	-3.99159E-004	0.00000E+000	-7.81027E-005	-2.40040E-001	1.95699E-001	3.57590E+000	9	...........
	86	1.16	1.90788E-001	-3.99596E-004	0.00000E+000	-7.62381E-005	-2.40040E-001	1.90819E-001	3.57590E+000	9	...........
	87	1.17333	1.85855E-001	-3.97997E-004	0.00000E+000	-7.39696E-005	-2.40040E-001	1.85886E-001	3.57590E+000	9	...........
	88	1.18667	1.81061E-001	-3.98275E-004	0.00000E+000	-7.21121E-005	-2.40040E-001	1.81094E-001	3.57590E+000	9	...........
	89	1.2	1.76311E-001	-3.99019E-004	0.00000E+000	-7.03512E-005	-2.40040E-001	1.76342E-001	3.57590E+000	9	...........
	90	1.21333	1.71477E-001	-3.99023E-004	0.00000E+000	-6.84233E-005	-2.40040E-001	1.71511E-001	3.57590E+000	9	...........
	91	1.22667	1.66733E-001	-3.99443E-004	0.00000E+000	-6.66004E-005	-2.40040E-001	1.66758E-001	3.57590E+000	9	...........
	92	1.24	1.62147E-001	-3.99128E-004	0.00000E+000	-6.47176E-005	-2.40040E-001	1.62175E-001	3.57590E+000	9	...........
	93	1.25333	1.57494E-001	-3.97689E-004	0.00000E+000	-6.26336E-005	-2.40040E-001	1.57519E-001	3.57590E+000	9	...........
	94	1.26667	1.52807E-001	-3.97188E-004	0.00000E+000	-6.06930E-005	-2.40040E-001	1.52827E-001	3.57590E+000	9	...........
	95	1.28	1.48115E-001	-3.97986E-004	0.00000E+000	-5.89478E-005	-2.40040E-001	1.48141E-001	3.57590E+000	9	...........
	96	1.29333	1.43482E-001	-3.99466E-004	0.00000E+000	-5.73160E-005	-2.40040E-001	1.43504E-001	3.57590E+000	9	...........
	97	1.30667	1.38778E-001	-3.99495E-004	0.00000E+000	-5.54410E-005	-2.40040E-001	1.38803E-001	3.57590E+000	9	...........
	98	1.32	1.34313E-001	-3.98300E-004	0.00000E+000	-5.34968E-005	-2.40040E-001	1.34338E-001	3.57590E+000	9	...........
	99	1.33333	1.29801E-001	-3.97900E-004	0.00000E+000	-5.16480E-005	-2.40040E-001	1.29826E-001	3.57590E+000	9	...........
	100	1.34667	1.25263E-001	-3.98828E-004	0.00000E+000	-4.99584E-005	-2.40040E-001	1.25283E-001	3.57590E+000	9	...........
	101	1.36	1.20750E-001	-3.99279E-004	0.00000E+000	-4.82131E-005	-2.40040E-001	1.20775E-001	3.57590E+000	9	...........
	102	1.37333	1.16309E-001	-3.99148E-004	0.00000E+000	-4.64243E-005	-2.40040E-001	1.16329E-001	3.57590E+000	9	...........
	103	1.38667	1.11808E-001	-3.99374E-004	0.00000E+000	-4.46534E-005	-2.40040E-001	1.11829E-001	3.57590E+000	9	...........
	104	1.4	1.07338E-001	-3.98487E-004	0.00000E+000	-4.27729E-005	-2.40040E-001	1.07363E-001	3.57590E+000	9	...........
	105	1.41333	1.02940E-001	-3.97911E-004	0.00000E+000	-4.09609E-005	-2.40040E-001	1.02954E-001	3.57590E+000	9	...........
	106	1.42667	9.84488E-002	-3.98495E-004	0.00000E+000	-3.92313E-005	-2.40040E-001	9.84663E-002	3.57590E+000	9	...........
	107	1.44	9.40246E-002	-3.98827E-004	0.00000E+000	-3.74995E-005	-2.40040E-001	9.40435E-002	3.57590E+000	9	...........
	108	1.45333	8.96791E-002	-3.97160E-004	0.00000E+000	-3.56170E-005	-2.40040E-001	8.96922E-002	3.57590E+000	9	...........
	109	1.46667	8.52500E-002	-3.99052E-004	0.00000E+000	-3.40192E-005	-2.40040E-001	8.52662E-002	3.57590E+000	9	...........
	110	1.48	8.08713E-002	-3.99382E-004	0.00000E+000	-3.22986E-005	-2.40040E-001	8.08845E-002	3.57590E+000	9	...........
	111	1.49333	7.64729E-002	-3.97882E-004	0.00000E+000	-3.04272E-005	-2.40040E-001	7.64793E-002	3.57590E+000	9	...........
	112	1.50667	7.20775E-002	-3.98587E-004	0.00000E+000	-2.87292E-005	-2.40040E-001	7.20822E-002	3.57590E+000	9	...........
	113	1.52	6.77910E-002	-3.98096E-004	0.00000E+000	-2.69873E-005	-2.40040E-001	6.78038E-002	3.57590E+000	9	...........
	114	1.53333	6.34404E-002	-3.98297E-004	0.00000E+000	-2.52681E-005	-2.40040E-001	6.34478E-002	3.57590E+000	9	...........
	115	1.54667	5.91895E-002	-3.97959E-004	0.00000E+000	-2.35550E-005	-2.40040E-001	5.91885E-002	3.57590E+000	9	...........
	116	1.56	5.49226E-002	-3.98413E-004	0.00000E+000	-2.18819E-005	-2.40040E-001	5.49228E-002	3.57590E+000	9	...........
	117	1.57333	5.06807E-002	-3.98750E-004	0.00000E+000	-2.02089E-005	-2.40040E-001	5.06815E-002	3.57590E+000	9	...........
	118	1.58667	4.65160E-002	-4.00426E-004	0.00000E+000	-1.86262E-005	-2.40040E-001	4.65210E-002	3.57590E+000	9	...........
	119	1.6	4.22557E-002	-3.99802E-004	0.00000E+000	-1.68939E-005	-2.40040E-001	4.22604E-002	3.57590E+000	9	...........
	120	1.61333	3.81110E-002	-3.99272E-004	0.00000E+000	-1.52166E-005	-2.40040E-001	3.81132E-002	3.57590E+000	9	...........
	121	1.62667	3.39449E-002	-3.99180E-004	0.00000E+000	-1.35501E-005	-2.40040E-001	3.39470E-002	3.57590E+000	9	...........
	122	1.64	2.98580E-002	-3.98706E-004	0.00000E+000	-1.19046E-005	-2.40040E-001	2.98567E-002	3.57590E+000	9	...........
	123	1.65333	2.57190E-002	-3.99648E-004	0.00000E+000	-1.02785E-005	-2.40040E-001	2.57108E-002	3.57590E+000	9	...........
	124	1.66667	2.16079E-002	-3.97653E-004	0.00000E+000	-8.59246E-006	-2.40040E-001	2.16033E-002	3.57590E+000	9	...........
	125	1.68	1.75489E-002	-3.99601E-004	0.00000E+000	-7.01255E-006	-2.40040E-001	1.75423E-002	3.57590E+000	9	...........
	126	1.69333	1.34739E-002	-3.98992E-004	0.00000E+000	-5.37599E-006	-2.40040E-001	1.34617E-002	3.57590E+000	9	...........
	127	1.70667	9.48905E-003	-3.98756E-004	0.00000E+000	-3.78382E-006	-2.40040E-001	9.47790E-003	3.57590E+000	9	...........
	128	1.72	5.49616E-003	-3.99233E-004	0.00000E+000	-2.19425E-006	-2.40040E-001	5.47966E-003	3.57590E+000	9	...........
	129	1.73333	1.50593E-003	-3.98438E-004	0.00000E+000	-6.00018E-007	-2.40040E-001	1.48659E-003	3.57590E+000	9	...........
STARTTIMEOFFSET	QUANT	365.1116	Start Time Offset (s)
