EXPLAIN
TAG	PWR800_DISCHARGE
TITLE	LABEL	PWR Cyclic Charge Discharge (Cell) - Discharge Step	Test &Identifier
DATE	LABEL	12-7-2017	Date
TIME	LABEL	14:53:04	Time
NOTES	NOTES	3	&Notes...
	supercap test cell
	0.4mg
	6M KOH
PSTAT	PSTAT	IFC5000-01520	Potentiostat
CAPACITY	QUANT	1.00000E-003	Capacity (A-hr)
CELLTYPE	SELECTOR	1	&Cell Type
WORKINGCONNECTION	SELECTOR	0	&Working Lead
MAXDISCHARGETIME	VARIABLEANDUNITS	1.00000E+002	s	1.00000E+002	second(s)	Max &Discharge Time
DISCHARGEMODE	MULTIPARAM	0	4.00000E-004	&Discharge Mode	Constant Current	Amp(s)
SAMPLETIME	QUANT	1.00000E-002	Sa&mple Period (s)
DISCHARGESTOPAT1	MULTIPARAM	3	0.00000E+000	Discharge Stop At &1	Voltage < Limit	V
DISCHARGESTOPAT2	MULTIPARAM	0	0.00000E+000	Discharge Stop At &2	None	N/A
AESBHCSELECTOR	TOGGLE	F	Save Both Half Cells
IRCOMP	TOGGLE	F	IR &Measure
EOC	QUANT	0	Open Circuit (V)
SEQUENCER	TOGGLE	TRUE	Run as Sequence
PSTATMODEL	IQUANT	53	Pstat Model
PSTATSECTION	LABEL	IFC5000-01520	Pstat Section
PSTATSERIALNO	LABEL	01520	Pstat Serial Number
CTRLMODE	IQUANT	0	Control Mode
ELECTROMETER	IQUANT	1	RE=0 or CS=1
IESTAB	IQUANT	0	I/E Stability
CASPEED	IQUANT	4	Control Amp Speed
CONVENTION	IQUANT	1	Current Convention
ICHRANGE	IQUANT	2	Ich Range
ICHRANGEMODE	TOGGLE	T	Ich Auto Range
ICHOFFSETENABLE	TOGGLE	F	Ich Offset Enable
ICHOFFSET	QUANT	0	Ich Offset (V)
ICHFILTER	IQUANT	1	Ich Filter
VCHRANGE	IQUANT	2	Vch Range
VCHRANGEMODE	TOGGLE	T	Vch Auto Range
VCHOFFSETENABLE	TOGGLE	F	Vch Offset Enable
VCHOFFSET	QUANT	0	Vch Offset (V)
VCHFILTER	IQUANT	1	Vch Filter
IERANGELOWERLIMIT	IQUANT	9	I/E Range Lower Limit
IERANGEMODE	TOGGLE	F	I/E AutoRange
IERANGE	IQUANT	9	I/E Range
ACHSELECT	IQUANT	1	Ach Select
ACHRANGE	IQUANT	2	Ach Range
ACHOFFSETENABLE	TOGGLE	F	Ach Offset Enable
ACHOFFSET	QUANT	0	Ach Offset (V)
ACHFILTER	IQUANT	1	Ach Filter
CABLEID	IQUANT	14	Cable ID
DCCALDATE	LABEL	5-7-2017	DC Calibration Date
ACCALDATE	LABEL	12/3/2015	AC Calibration Date
FRAMEWORKVERSION	QUANT	7.01	Framework Version
INSTRUMENTVERSION	LABEL	4.00	Instrument Version
CURVE	TABLE	112
	Pt	T	Vf	Im	Vu	Pwr	Sig	Ach	Temp	IERange	Over
	#	s	V	A	V	W	V	V	deg C	#	bits
	0	0.013333	6.99129E-001	-3.98240E-004	0.00000E+000	-2.78421E-004	-2.40040E-001	6.99387E-001	3.57620E+000	9	...........
	1	0.026667	6.86656E-001	-3.98968E-004	0.00000E+000	-2.73954E-004	-2.40040E-001	6.86917E-001	3.57620E+000	9	...........
	2	0.04	6.75732E-001	-3.98101E-004	0.00000E+000	-2.69010E-004	-2.40040E-001	6.76000E-001	3.57620E+000	9	...........
	3	0.053333	6.65616E-001	-3.98272E-004	0.00000E+000	-2.65096E-004	-2.40040E-001	6.65872E-001	3.57620E+000	9	...........
	4	0.066667	6.56103E-001	-3.99781E-004	0.00000E+000	-2.62298E-004	-2.40040E-001	6.56350E-001	3.57620E+000	9	...........
	5	0.08	6.46886E-001	-3.98266E-004	0.00000E+000	-2.57632E-004	-2.40040E-001	6.47142E-001	3.57620E+000	9	...........
	6	0.093333	6.38046E-001	-3.99442E-004	0.00000E+000	-2.54862E-004	-2.40040E-001	6.38276E-001	3.57620E+000	9	...........
	7	0.106667	6.29402E-001	-3.99628E-004	0.00000E+000	-2.51527E-004	-2.40040E-001	6.29662E-001	3.57620E+000	9	...........
	8	0.12	6.21030E-001	-3.98662E-004	0.00000E+000	-2.47581E-004	-2.40040E-001	6.21228E-001	3.57620E+000	9	...........
	9	0.133333	6.12682E-001	-3.99355E-004	0.00000E+000	-2.44678E-004	-2.40040E-001	6.12923E-001	3.57620E+000	9	...........
	10	0.146667	6.04472E-001	-3.98294E-004	0.00000E+000	-2.40757E-004	-2.40040E-001	6.04737E-001	3.57620E+000	9	...........
	11	0.16	5.96441E-001	-3.98963E-004	0.00000E+000	-2.37957E-004	-2.40040E-001	5.96691E-001	3.57620E+000	9	...........
	12	0.173333	5.88484E-001	-3.98723E-004	0.00000E+000	-2.34642E-004	-2.40040E-001	5.88727E-001	3.57620E+000	9	...........
	13	0.186667	5.80536E-001	-3.98352E-004	0.00000E+000	-2.31258E-004	-2.40040E-001	5.80757E-001	3.57620E+000	9	...........
	14	0.2	5.72699E-001	-3.97987E-004	0.00000E+000	-2.27927E-004	-2.40040E-001	5.72932E-001	3.57620E+000	9	...........
	15	0.213333	5.64921E-001	-3.97675E-004	0.00000E+000	-2.24655E-004	-2.40040E-001	5.65179E-001	3.57620E+000	9	...........
	16	0.226667	5.57236E-001	-3.99289E-004	0.00000E+000	-2.22498E-004	-2.40040E-001	5.57460E-001	3.57620E+000	9	...........
	17	0.24	5.49557E-001	-3.98437E-004	0.00000E+000	-2.18964E-004	-2.40040E-001	5.49811E-001	3.57620E+000	9	...........
	18	0.253333	5.41957E-001	-3.98973E-004	0.00000E+000	-2.16226E-004	-2.40040E-001	5.42191E-001	3.57620E+000	9	...........
	19	0.266667	5.34461E-001	-3.99273E-004	0.00000E+000	-2.13396E-004	-2.40040E-001	5.34674E-001	3.57620E+000	9	...........
	20	0.28	5.26960E-001	-3.98296E-004	0.00000E+000	-2.09886E-004	-2.40040E-001	5.27177E-001	3.57620E+000	9	...........
	21	0.293333	5.19491E-001	-3.99409E-004	0.00000E+000	-2.07490E-004	-2.40040E-001	5.19691E-001	3.57620E+000	9	...........
	22	0.306667	5.12023E-001	-3.99280E-004	0.00000E+000	-2.04441E-004	-2.40040E-001	5.12248E-001	3.57620E+000	9	...........
	23	0.32	5.04584E-001	-3.97735E-004	0.00000E+000	-2.00691E-004	-2.40040E-001	5.04819E-001	3.57620E+000	9	...........
	24	0.333333	4.97324E-001	-3.99826E-004	0.00000E+000	-1.98843E-004	-2.40040E-001	4.97543E-001	3.57620E+000	9	...........
	25	0.346667	4.90003E-001	-3.99131E-004	0.00000E+000	-1.95575E-004	-2.40040E-001	4.90218E-001	3.57620E+000	9	...........
	26	0.36	4.83039E-001	-3.99426E-004	0.00000E+000	-1.92938E-004	-2.40040E-001	4.83142E-001	3.57620E+000	9	...........
	27	0.373333	4.75926E-001	-3.99424E-004	0.00000E+000	-1.90096E-004	-2.40040E-001	4.76024E-001	3.57620E+000	9	...........
	28	0.386667	4.68672E-001	-3.97173E-004	0.00000E+000	-1.86144E-004	-2.40040E-001	4.68768E-001	3.57620E+000	9	...........
	29	0.4	4.61474E-001	-3.99141E-004	0.00000E+000	-1.84193E-004	-2.40040E-001	4.61571E-001	3.57620E+000	9	...........
	30	0.413333	4.54540E-001	-3.97850E-004	0.00000E+000	-1.80839E-004	-2.40040E-001	4.54622E-001	3.57620E+000	9	...........
	31	0.426667	4.47518E-001	-3.97970E-004	0.00000E+000	-1.78098E-004	-2.40040E-001	4.47614E-001	3.57620E+000	9	...........
	32	0.44	4.40588E-001	-3.97707E-004	0.00000E+000	-1.75225E-004	-2.40040E-001	4.40678E-001	3.57620E+000	9	...........
	33	0.453333	4.33604E-001	-3.98565E-004	0.00000E+000	-1.72819E-004	-2.40040E-001	4.33688E-001	3.57620E+000	9	...........
	34	0.466667	4.26659E-001	-3.99417E-004	0.00000E+000	-1.70415E-004	-2.40040E-001	4.26742E-001	3.57620E+000	9	...........
	35	0.48	4.19802E-001	-3.97738E-004	0.00000E+000	-1.66971E-004	-2.40040E-001	4.19884E-001	3.57620E+000	9	...........
	36	0.493333	4.13056E-001	-4.00367E-004	0.00000E+000	-1.65374E-004	-2.40040E-001	4.13137E-001	3.57620E+000	9	...........
	37	0.506667	4.06101E-001	-3.98945E-004	0.00000E+000	-1.62012E-004	-2.40040E-001	4.06175E-001	3.57620E+000	9	...........
	38	0.52	3.99293E-001	-3.99731E-004	0.00000E+000	-1.59610E-004	-2.40040E-001	3.99365E-001	3.57620E+000	9	...........
	39	0.533333	3.92682E-001	-4.00006E-004	0.00000E+000	-1.57076E-004	-2.40040E-001	3.92756E-001	3.57620E+000	9	...........
	40	0.546667	3.85987E-001	-3.98435E-004	0.00000E+000	-1.53791E-004	-2.40040E-001	3.86063E-001	3.57620E+000	9	...........
	41	0.56	3.79409E-001	-3.97814E-004	0.00000E+000	-1.50934E-004	-2.40040E-001	3.79480E-001	3.57620E+000	9	...........
	42	0.573333	3.72864E-001	-3.98665E-004	0.00000E+000	-1.48648E-004	-2.40040E-001	3.72935E-001	3.57620E+000	9	...........
	43	0.586667	3.66248E-001	-3.98896E-004	0.00000E+000	-1.46095E-004	-2.40040E-001	3.66320E-001	3.57620E+000	9	...........
	44	0.6	3.59718E-001	-3.99296E-004	0.00000E+000	-1.43634E-004	-2.40040E-001	3.59792E-001	3.57620E+000	9	...........
	45	0.613333	3.53228E-001	-3.98807E-004	0.00000E+000	-1.40870E-004	-2.40040E-001	3.53296E-001	3.57620E+000	9	...........
	46	0.626667	3.46794E-001	-4.00034E-004	0.00000E+000	-1.38729E-004	-2.40040E-001	3.46861E-001	3.57620E+000	9	...........
	47	0.64	3.40374E-001	-3.98742E-004	0.00000E+000	-1.35721E-004	-2.40040E-001	3.40440E-001	3.57620E+000	9	...........
	48	0.653333	3.33973E-001	-3.98504E-004	0.00000E+000	-1.33090E-004	-2.40040E-001	3.34037E-001	3.57620E+000	9	...........
	49	0.666667	3.27636E-001	-3.99638E-004	0.00000E+000	-1.30935E-004	-2.40040E-001	3.27702E-001	3.57620E+000	9	...........
	50	0.68	3.21370E-001	-3.99297E-004	0.00000E+000	-1.28322E-004	-2.40040E-001	3.21429E-001	3.57620E+000	9	...........
	51	0.693333	3.15060E-001	-3.98661E-004	0.00000E+000	-1.25602E-004	-2.40040E-001	3.15121E-001	3.57620E+000	9	...........
	52	0.706667	3.08825E-001	-3.98403E-004	0.00000E+000	-1.23037E-004	-2.40040E-001	3.08887E-001	3.57620E+000	9	...........
	53	0.72	3.02597E-001	-3.98065E-004	0.00000E+000	-1.20453E-004	-2.40040E-001	3.02659E-001	3.57620E+000	9	...........
	54	0.733333	2.96466E-001	-3.98533E-004	0.00000E+000	-1.18151E-004	-2.40040E-001	2.96523E-001	3.57620E+000	9	...........
	55	0.746667	2.90435E-001	-3.98826E-004	0.00000E+000	-1.15833E-004	-2.40040E-001	2.90491E-001	3.57620E+000	9	...........
	56	0.76	2.84354E-001	-3.98368E-004	0.00000E+000	-1.13277E-004	-2.40040E-001	2.84411E-001	3.57620E+000	9	...........
	57	0.773333	2.78304E-001	-3.99007E-004	0.00000E+000	-1.11045E-004	-2.40040E-001	2.78358E-001	3.57620E+000	9	...........
	58	0.786667	2.72234E-001	-3.98382E-004	0.00000E+000	-1.08453E-004	-2.40040E-001	2.72290E-001	3.57620E+000	9	...........
	59	0.8	2.66335E-001	-3.97444E-004	0.00000E+000	-1.05853E-004	-2.40040E-001	2.66387E-001	3.57620E+000	9	...........
	60	0.813333	2.60342E-001	-3.99439E-004	0.00000E+000	-1.03991E-004	-2.40040E-001	2.60397E-001	3.57620E+000	9	...........
	61	0.826667	2.54435E-001	-3.98648E-004	0.00000E+000	-1.01430E-004	-2.40040E-001	2.54488E-001	3.57620E+000	9	...........
	62	0.84	2.48543E-001	-3.98842E-004	0.00000E+000	-9.91294E-005	-2.40040E-001	2.48584E-001	3.57620E+000	9	...........
	63	0.853333	2.42796E-001	-3.97751E-004	0.00000E+000	-9.65721E-005	-2.40040E-001	2.42843E-001	3.57620E+000	9	...........
	64	0.866667	2.37123E-001	-3.98918E-004	0.00000E+000	-9.45924E-005	-2.40040E-001	2.37162E-001	3.57620E+000	9	...........
	65	0.88	2.31403E-001	-3.98587E-004	0.00000E+000	-9.22342E-005	-2.40040E-001	2.31447E-001	3.57620E+000	9	...........
	66	0.893333	2.25737E-001	-3.99393E-004	0.00000E+000	-9.01576E-005	-2.40040E-001	2.25777E-001	3.57620E+000	9	...........
	67	0.906667	2.20045E-001	-3.98456E-004	0.00000E+000	-8.76782E-005	-2.40040E-001	2.20091E-001	3.57620E+000	9	...........
	68	0.92	2.14398E-001	-3.98632E-004	0.00000E+000	-8.54658E-005	-2.40040E-001	2.14439E-001	3.57742E+000	9	...........
	69	0.933333	2.08798E-001	-3.98234E-004	0.00000E+000	-8.31507E-005	-2.40040E-001	2.08838E-001	3.57760E+000	9	...........
	70	0.946667	2.03178E-001	-3.99376E-004	0.00000E+000	-8.11446E-005	-2.40040E-001	2.03218E-001	3.57760E+000	9	...........
	71	0.96	1.97613E-001	-3.98336E-004	0.00000E+000	-7.87166E-005	-2.40040E-001	1.97651E-001	3.57760E+000	9	...........
	72	0.97333	1.92108E-001	-3.96283E-004	0.00000E+000	-7.61293E-005	-2.40040E-001	1.92145E-001	3.57760E+000	9	...........
	73	0.98667	1.86609E-001	-3.97613E-004	0.00000E+000	-7.41981E-005	-2.40040E-001	1.86643E-001	3.57760E+000	9	...........
	74	1	1.81148E-001	-3.99605E-004	0.00000E+000	-7.23878E-005	-2.40040E-001	1.81183E-001	3.57760E+000	9	...........
	75	1.01333	1.75756E-001	-3.97343E-004	0.00000E+000	-6.98356E-005	-2.40040E-001	1.75789E-001	3.57760E+000	9	...........
	76	1.02667	1.70437E-001	-3.97747E-004	0.00000E+000	-6.77909E-005	-2.40040E-001	1.70466E-001	3.57760E+000	9	...........
	77	1.04	1.65046E-001	-3.98722E-004	0.00000E+000	-6.58074E-005	-2.40040E-001	1.65072E-001	3.57760E+000	9	...........
	78	1.05333	1.59719E-001	-3.99068E-004	0.00000E+000	-6.37387E-005	-2.40040E-001	1.59751E-001	3.57760E+000	9	...........
	79	1.06667	1.54430E-001	-3.99602E-004	0.00000E+000	-6.17104E-005	-2.40040E-001	1.54449E-001	3.57760E+000	9	...........
	80	1.08	1.49159E-001	-3.98785E-004	0.00000E+000	-5.94826E-005	-2.40040E-001	1.49179E-001	3.57760E+000	9	...........
	81	1.09333	1.43951E-001	-3.99650E-004	0.00000E+000	-5.75302E-005	-2.40040E-001	1.43974E-001	3.57760E+000	9	...........
	82	1.10667	1.38755E-001	-3.98701E-004	0.00000E+000	-5.53219E-005	-2.40040E-001	1.38775E-001	3.57760E+000	9	...........
	83	1.12	1.33518E-001	-4.00150E-004	0.00000E+000	-5.34273E-005	-2.40040E-001	1.33537E-001	3.57760E+000	9	...........
	84	1.13333	1.28391E-001	-3.99011E-004	0.00000E+000	-5.12294E-005	-2.40040E-001	1.28411E-001	3.57760E+000	9	...........
	85	1.14667	1.23314E-001	-3.98317E-004	0.00000E+000	-4.91182E-005	-2.40040E-001	1.23337E-001	3.57760E+000	9	...........
	86	1.16	1.18186E-001	-3.99245E-004	0.00000E+000	-4.71851E-005	-2.40040E-001	1.18211E-001	3.57760E+000	9	...........
	87	1.17333	1.13066E-001	-3.99672E-004	0.00000E+000	-4.51893E-005	-2.40040E-001	1.13084E-001	3.57760E+000	9	...........
	88	1.18667	1.08066E-001	-3.98174E-004	0.00000E+000	-4.30289E-005	-2.40040E-001	1.08088E-001	3.57760E+000	9	...........
	89	1.2	1.03103E-001	-3.98103E-004	0.00000E+000	-4.10457E-005	-2.40040E-001	1.03122E-001	3.57760E+000	9	...........
	90	1.21333	9.81516E-002	-3.97303E-004	0.00000E+000	-3.89959E-005	-2.40040E-001	9.81643E-002	3.57760E+000	9	...........
	91	1.22667	9.32218E-002	-3.99316E-004	0.00000E+000	-3.72249E-005	-2.40040E-001	9.32307E-002	3.57760E+000	9	...........
	92	1.24	8.82673E-002	-3.98968E-004	0.00000E+000	-3.52158E-005	-2.40040E-001	8.82784E-002	3.57760E+000	9	...........
	93	1.25333	8.33995E-002	-3.98350E-004	0.00000E+000	-3.32222E-005	-2.40040E-001	8.34068E-002	3.57760E+000	9	...........
	94	1.26667	7.85583E-002	-3.99742E-004	0.00000E+000	-3.14030E-005	-2.40040E-001	7.85707E-002	3.57760E+000	9	...........
	95	1.28	7.37440E-002	-3.98127E-004	0.00000E+000	-2.93595E-005	-2.40040E-001	7.37459E-002	3.57760E+000	9	...........
	96	1.29333	6.89661E-002	-4.00072E-004	0.00000E+000	-2.75914E-005	-2.40040E-001	6.89723E-002	3.57760E+000	9	...........
	97	1.30667	6.42441E-002	-3.98877E-004	0.00000E+000	-2.56255E-005	-2.40040E-001	6.42518E-002	3.57760E+000	9	...........
	98	1.32	5.95396E-002	-3.98702E-004	0.00000E+000	-2.37385E-005	-2.40040E-001	5.95488E-002	3.57760E+000	9	...........
	99	1.33333	5.47805E-002	-3.99050E-004	0.00000E+000	-2.18602E-005	-2.40040E-001	5.47813E-002	3.57760E+000	9	...........
	100	1.34667	5.01061E-002	-3.99542E-004	0.00000E+000	-2.00195E-005	-2.40040E-001	5.01083E-002	3.57760E+000	9	...........
	101	1.36	4.55227E-002	-3.99377E-004	0.00000E+000	-1.81807E-005	-2.40040E-001	4.55268E-002	3.57760E+000	9	...........
	102	1.37333	4.09177E-002	-3.98858E-004	0.00000E+000	-1.63203E-005	-2.40040E-001	4.09269E-002	3.57760E+000	9	...........
	103	1.38667	3.63375E-002	-3.97741E-004	0.00000E+000	-1.44529E-005	-2.40040E-001	3.63403E-002	3.57760E+000	9	...........
	104	1.4	3.17772E-002	-3.98988E-004	0.00000E+000	-1.26787E-005	-2.40040E-001	3.17796E-002	3.57760E+000	9	...........
	105	1.41333	2.72455E-002	-3.99057E-004	0.00000E+000	-1.08725E-005	-2.40040E-001	2.72402E-002	3.57760E+000	9	...........
	106	1.42667	2.27349E-002	-3.98077E-004	0.00000E+000	-9.05023E-006	-2.40040E-001	2.27259E-002	3.57760E+000	9	...........
	107	1.44	1.82299E-002	-4.00347E-004	0.00000E+000	-7.29828E-006	-2.40040E-001	1.82193E-002	3.57760E+000	9	...........
	108	1.45333	1.38211E-002	-3.98744E-004	0.00000E+000	-5.51109E-006	-2.40040E-001	1.38040E-002	3.57760E+000	9	...........
	109	1.46667	9.45489E-003	-4.00113E-004	0.00000E+000	-3.78302E-006	-2.40040E-001	9.43965E-003	3.57760E+000	9	...........
	110	1.48	5.07438E-003	-3.99523E-004	0.00000E+000	-2.02733E-006	-2.40040E-001	5.05874E-003	3.57760E+000	9	...........
	111	1.49	1.21285E-003	-3.97623E-004	0.00000E+000	-4.82258E-007	-2.40040E-001	1.19740E-003	3.57760E+000	9	...........
STARTTIMEOFFSET	QUANT	1647.016	Start Time Offset (s)
