EXPLAIN
TAG	PWR800_DISCHARGE
TITLE	LABEL	PWR Cyclic Charge Discharge (Cell) - Discharge Step	Test &Identifier
DATE	LABEL	12-7-2017	Date
TIME	LABEL	15:01:51	Time
NOTES	NOTES	3	&Notes...
	supercap test cell
	0.4mg
	6M KOH
PSTAT	PSTAT	IFC5000-01520	Potentiostat
CAPACITY	QUANT	1.00000E-003	Capacity (A-hr)
CELLTYPE	SELECTOR	1	&Cell Type
WORKINGCONNECTION	SELECTOR	0	&Working Lead
MAXDISCHARGETIME	VARIABLEANDUNITS	1.00000E+002	s	1.00000E+002	second(s)	Max &Discharge Time
DISCHARGEMODE	MULTIPARAM	0	4.00000E-004	&Discharge Mode	Constant Current	Amp(s)
SAMPLETIME	QUANT	1.00000E-002	Sa&mple Period (s)
DISCHARGESTOPAT1	MULTIPARAM	3	0.00000E+000	Discharge Stop At &1	Voltage < Limit	V
DISCHARGESTOPAT2	MULTIPARAM	0	0.00000E+000	Discharge Stop At &2	None	N/A
AESBHCSELECTOR	TOGGLE	F	Save Both Half Cells
IRCOMP	TOGGLE	F	IR &Measure
EOC	QUANT	0	Open Circuit (V)
SEQUENCER	TOGGLE	TRUE	Run as Sequence
PSTATMODEL	IQUANT	53	Pstat Model
PSTATSECTION	LABEL	IFC5000-01520	Pstat Section
PSTATSERIALNO	LABEL	01520	Pstat Serial Number
CTRLMODE	IQUANT	0	Control Mode
ELECTROMETER	IQUANT	1	RE=0 or CS=1
IESTAB	IQUANT	0	I/E Stability
CASPEED	IQUANT	4	Control Amp Speed
CONVENTION	IQUANT	1	Current Convention
ICHRANGE	IQUANT	2	Ich Range
ICHRANGEMODE	TOGGLE	T	Ich Auto Range
ICHOFFSETENABLE	TOGGLE	F	Ich Offset Enable
ICHOFFSET	QUANT	0	Ich Offset (V)
ICHFILTER	IQUANT	1	Ich Filter
VCHRANGE	IQUANT	2	Vch Range
VCHRANGEMODE	TOGGLE	T	Vch Auto Range
VCHOFFSETENABLE	TOGGLE	F	Vch Offset Enable
VCHOFFSET	QUANT	0	Vch Offset (V)
VCHFILTER	IQUANT	1	Vch Filter
IERANGELOWERLIMIT	IQUANT	9	I/E Range Lower Limit
IERANGEMODE	TOGGLE	F	I/E AutoRange
IERANGE	IQUANT	9	I/E Range
ACHSELECT	IQUANT	1	Ach Select
ACHRANGE	IQUANT	2	Ach Range
ACHOFFSETENABLE	TOGGLE	F	Ach Offset Enable
ACHOFFSET	QUANT	0	Ach Offset (V)
ACHFILTER	IQUANT	1	Ach Filter
CABLEID	IQUANT	14	Cable ID
DCCALDATE	LABEL	5-7-2017	DC Calibration Date
ACCALDATE	LABEL	12/3/2015	AC Calibration Date
FRAMEWORKVERSION	QUANT	7.01	Framework Version
INSTRUMENTVERSION	LABEL	4.00	Instrument Version
CURVE	TABLE	108
	Pt	T	Vf	Im	Vu	Pwr	Sig	Ach	Temp	IERange	Over
	#	s	V	A	V	W	V	V	deg C	#	bits
	0	0.013333	6.91158E-001	-3.99324E-004	0.00000E+000	-2.75996E-004	-2.40040E-001	6.91409E-001	3.57650E+000	9	...........
	1	0.026667	6.78193E-001	-3.98552E-004	0.00000E+000	-2.70295E-004	-2.40040E-001	6.78444E-001	3.57650E+000	9	...........
	2	0.04	6.66868E-001	-3.98664E-004	0.00000E+000	-2.65856E-004	-2.40040E-001	6.67117E-001	3.57650E+000	9	...........
	3	0.053333	6.56465E-001	-3.98313E-004	0.00000E+000	-2.61479E-004	-2.40040E-001	6.56698E-001	3.57650E+000	9	...........
	4	0.066667	6.46695E-001	-3.98918E-004	0.00000E+000	-2.57978E-004	-2.40040E-001	6.46903E-001	3.57650E+000	9	...........
	5	0.08	6.37341E-001	-3.98951E-004	0.00000E+000	-2.54268E-004	-2.40040E-001	6.37522E-001	3.57650E+000	9	...........
	6	0.093333	6.28214E-001	-3.98079E-004	0.00000E+000	-2.50079E-004	-2.40040E-001	6.28404E-001	3.57650E+000	9	...........
	7	0.106667	6.19390E-001	-3.97193E-004	0.00000E+000	-2.46018E-004	-2.40040E-001	6.19579E-001	3.57650E+000	9	...........
	8	0.12	6.10733E-001	-3.99017E-004	0.00000E+000	-2.43693E-004	-2.40040E-001	6.10951E-001	3.57650E+000	9	...........
	9	0.133333	6.02260E-001	-4.00852E-004	0.00000E+000	-2.41418E-004	-2.40040E-001	6.02486E-001	3.57650E+000	9	...........
	10	0.146667	5.93946E-001	-3.97330E-004	0.00000E+000	-2.35992E-004	-2.40040E-001	5.94152E-001	3.57650E+000	9	...........
	11	0.16	5.85665E-001	-3.97700E-004	0.00000E+000	-2.32919E-004	-2.40040E-001	5.85923E-001	3.57650E+000	9	...........
	12	0.173333	5.77454E-001	-3.97525E-004	0.00000E+000	-2.29552E-004	-2.40040E-001	5.77670E-001	3.57650E+000	9	...........
	13	0.186667	5.69393E-001	-3.99244E-004	0.00000E+000	-2.27327E-004	-2.40040E-001	5.69627E-001	3.57650E+000	9	...........
	14	0.2	5.61419E-001	-3.99404E-004	0.00000E+000	-2.24233E-004	-2.40040E-001	5.61690E-001	3.57650E+000	9	...........
	15	0.213333	5.53581E-001	-3.98976E-004	0.00000E+000	-2.20866E-004	-2.40040E-001	5.53810E-001	3.57650E+000	9	...........
	16	0.226667	5.45738E-001	-3.98018E-004	0.00000E+000	-2.17213E-004	-2.40040E-001	5.45961E-001	3.57650E+000	9	...........
	17	0.24	5.37908E-001	-3.98877E-004	0.00000E+000	-2.14559E-004	-2.40040E-001	5.38115E-001	3.57650E+000	9	...........
	18	0.253333	5.30154E-001	-3.97668E-004	0.00000E+000	-2.10825E-004	-2.40040E-001	5.30332E-001	3.57650E+000	9	...........
	19	0.266667	5.22443E-001	-3.97373E-004	0.00000E+000	-2.07605E-004	-2.40040E-001	5.22619E-001	3.57650E+000	9	...........
	20	0.28	5.14829E-001	-3.98727E-004	0.00000E+000	-2.05276E-004	-2.40040E-001	5.15010E-001	3.57650E+000	9	...........
	21	0.293333	5.07183E-001	-3.99310E-004	0.00000E+000	-2.02523E-004	-2.40040E-001	5.07404E-001	3.57650E+000	9	...........
	22	0.306667	4.99644E-001	-3.99797E-004	0.00000E+000	-1.99756E-004	-2.40040E-001	4.99875E-001	3.57650E+000	9	...........
	23	0.32	4.92226E-001	-3.99846E-004	0.00000E+000	-1.96815E-004	-2.40040E-001	4.92425E-001	3.57650E+000	9	...........
	24	0.333333	4.84885E-001	-3.99571E-004	0.00000E+000	-1.93746E-004	-2.40040E-001	4.85028E-001	3.57650E+000	9	...........
	25	0.346667	4.77617E-001	-3.99379E-004	0.00000E+000	-1.90750E-004	-2.40040E-001	4.77712E-001	3.57650E+000	9	...........
	26	0.36	4.70257E-001	-3.99741E-004	0.00000E+000	-1.87981E-004	-2.40040E-001	4.70355E-001	3.57650E+000	9	...........
	27	0.373333	4.62939E-001	-3.98610E-004	0.00000E+000	-1.84532E-004	-2.40040E-001	4.63022E-001	3.57650E+000	9	...........
	28	0.386667	4.55671E-001	-3.99155E-004	0.00000E+000	-1.81884E-004	-2.40040E-001	4.55760E-001	3.57650E+000	9	...........
	29	0.4	4.48433E-001	-3.98549E-004	0.00000E+000	-1.78722E-004	-2.40040E-001	4.48525E-001	3.57650E+000	9	...........
	30	0.413333	4.41227E-001	-3.98250E-004	0.00000E+000	-1.75719E-004	-2.40040E-001	4.41320E-001	3.57650E+000	9	...........
	31	0.426667	4.34061E-001	-3.99100E-004	0.00000E+000	-1.73234E-004	-2.40040E-001	4.34144E-001	3.57650E+000	9	...........
	32	0.44	4.26872E-001	-3.99390E-004	0.00000E+000	-1.70488E-004	-2.40040E-001	4.26963E-001	3.57650E+000	9	...........
	33	0.453333	4.19745E-001	-3.99326E-004	0.00000E+000	-1.67615E-004	-2.40040E-001	4.19829E-001	3.57650E+000	9	...........
	34	0.466667	4.12764E-001	-3.97410E-004	0.00000E+000	-1.64036E-004	-2.40040E-001	4.12843E-001	3.57650E+000	9	...........
	35	0.48	4.05802E-001	-3.97492E-004	0.00000E+000	-1.61303E-004	-2.40040E-001	4.05882E-001	3.57650E+000	9	...........
	36	0.493333	3.98819E-001	-3.99045E-004	0.00000E+000	-1.59147E-004	-2.40040E-001	3.98894E-001	3.57650E+000	9	...........
	37	0.506667	3.91885E-001	-3.99262E-004	0.00000E+000	-1.56465E-004	-2.40040E-001	3.91960E-001	3.57650E+000	9	...........
	38	0.52	3.85053E-001	-3.98925E-004	0.00000E+000	-1.53607E-004	-2.40040E-001	3.85125E-001	3.57650E+000	9	...........
	39	0.533333	3.78255E-001	-3.98559E-004	0.00000E+000	-1.50757E-004	-2.40040E-001	3.78331E-001	3.57620E+000	9	...........
	40	0.546667	3.71475E-001	-3.98328E-004	0.00000E+000	-1.47969E-004	-2.40040E-001	3.71546E-001	3.57620E+000	9	...........
	41	0.56	3.64680E-001	-3.98792E-004	0.00000E+000	-1.45431E-004	-2.40040E-001	3.64750E-001	3.57620E+000	9	...........
	42	0.573333	3.57989E-001	-3.98946E-004	0.00000E+000	-1.42818E-004	-2.40040E-001	3.58057E-001	3.57620E+000	9	...........
	43	0.586667	3.51265E-001	-3.98324E-004	0.00000E+000	-1.39917E-004	-2.40040E-001	3.51334E-001	3.57620E+000	9	...........
	44	0.6	3.44589E-001	-3.99223E-004	0.00000E+000	-1.37568E-004	-2.40040E-001	3.44658E-001	3.57620E+000	9	...........
	45	0.613333	3.37913E-001	-3.98734E-004	0.00000E+000	-1.34738E-004	-2.40040E-001	3.37980E-001	3.57620E+000	9	...........
	46	0.626667	3.31388E-001	-3.98820E-004	0.00000E+000	-1.32164E-004	-2.40040E-001	3.31451E-001	3.57620E+000	9	...........
	47	0.64	3.24899E-001	-3.97712E-004	0.00000E+000	-1.29216E-004	-2.40040E-001	3.24962E-001	3.57620E+000	9	...........
	48	0.653333	3.18383E-001	-3.99428E-004	0.00000E+000	-1.27171E-004	-2.40040E-001	3.18445E-001	3.57620E+000	9	...........
	49	0.666667	3.11973E-001	-3.98748E-004	0.00000E+000	-1.24399E-004	-2.40040E-001	3.12036E-001	3.57620E+000	9	...........
	50	0.68	3.05548E-001	-3.99646E-004	0.00000E+000	-1.22111E-004	-2.40040E-001	3.05613E-001	3.57620E+000	9	...........
	51	0.693333	2.99169E-001	-3.98454E-004	0.00000E+000	-1.19205E-004	-2.40040E-001	2.99230E-001	3.57620E+000	9	...........
	52	0.706667	2.92919E-001	-3.98725E-004	0.00000E+000	-1.16794E-004	-2.40040E-001	2.92979E-001	3.57620E+000	9	...........
	53	0.72	2.86724E-001	-3.98597E-004	0.00000E+000	-1.14287E-004	-2.40040E-001	2.86785E-001	3.57620E+000	9	...........
	54	0.733333	2.80523E-001	-3.98677E-004	0.00000E+000	-1.11838E-004	-2.40040E-001	2.80574E-001	3.57620E+000	9	...........
	55	0.746667	2.74297E-001	-3.98290E-004	0.00000E+000	-1.09250E-004	-2.40040E-001	2.74353E-001	3.57620E+000	9	...........
	56	0.76	2.68127E-001	-3.98497E-004	0.00000E+000	-1.06848E-004	-2.40040E-001	2.68184E-001	3.57620E+000	9	...........
	57	0.773333	2.62048E-001	-3.99525E-004	0.00000E+000	-1.04695E-004	-2.40040E-001	2.62099E-001	3.57620E+000	9	...........
	58	0.786667	2.56089E-001	-3.98596E-004	0.00000E+000	-1.02076E-004	-2.40040E-001	2.56139E-001	3.57620E+000	9	...........
	59	0.8	2.50096E-001	-3.99881E-004	0.00000E+000	-1.00009E-004	-2.40040E-001	2.50148E-001	3.57620E+000	9	...........
	60	0.813333	2.44087E-001	-3.97821E-004	0.00000E+000	-9.71030E-005	-2.40040E-001	2.44129E-001	3.57620E+000	9	...........
	61	0.826667	2.38131E-001	-3.99033E-004	0.00000E+000	-9.50222E-005	-2.40040E-001	2.38174E-001	3.57620E+000	9	...........
	62	0.84	2.32167E-001	-3.99080E-004	0.00000E+000	-9.26531E-005	-2.40040E-001	2.32207E-001	3.57620E+000	9	...........
	63	0.853333	2.26313E-001	-3.98499E-004	0.00000E+000	-9.01855E-005	-2.40040E-001	2.26347E-001	3.57620E+000	9	...........
	64	0.866667	2.20451E-001	-3.98491E-004	0.00000E+000	-8.78478E-005	-2.40040E-001	2.20492E-001	3.57620E+000	9	...........
	65	0.88	2.14648E-001	-3.98632E-004	0.00000E+000	-8.55657E-005	-2.40040E-001	2.14684E-001	3.57620E+000	9	...........
	66	0.893333	2.08907E-001	-3.98972E-004	0.00000E+000	-8.33479E-005	-2.40040E-001	2.08939E-001	3.57620E+000	9	...........
	67	0.906667	2.03201E-001	-3.99847E-004	0.00000E+000	-8.12495E-005	-2.40040E-001	2.03239E-001	3.57620E+000	9	...........
	68	0.92	1.97490E-001	-3.99099E-004	0.00000E+000	-7.88180E-005	-2.40040E-001	1.97527E-001	3.57620E+000	9	...........
	69	0.933333	1.91757E-001	-3.98867E-004	0.00000E+000	-7.64854E-005	-2.40040E-001	1.91792E-001	3.57620E+000	9	...........
	70	0.946667	1.86104E-001	-3.98532E-004	0.00000E+000	-7.41683E-005	-2.40040E-001	1.86137E-001	3.57620E+000	9	...........
	71	0.96	1.80603E-001	-3.97577E-004	0.00000E+000	-7.18035E-005	-2.40040E-001	1.80637E-001	3.57620E+000	9	...........
	72	0.97333	1.75019E-001	-3.98848E-004	0.00000E+000	-6.98059E-005	-2.40040E-001	1.75048E-001	3.57620E+000	9	...........
	73	0.98667	1.69517E-001	-3.98112E-004	0.00000E+000	-6.74867E-005	-2.40040E-001	1.69544E-001	3.57620E+000	9	...........
	74	1	1.63999E-001	-3.98989E-004	0.00000E+000	-6.54339E-005	-2.40040E-001	1.64028E-001	3.57620E+000	9	...........
	75	1.01333	1.58478E-001	-3.99935E-004	0.00000E+000	-6.33808E-005	-2.40040E-001	1.58511E-001	3.57620E+000	9	...........
	76	1.02667	1.53049E-001	-3.98451E-004	0.00000E+000	-6.09825E-005	-2.40040E-001	1.53074E-001	3.57620E+000	9	...........
	77	1.04	1.47624E-001	-3.98894E-004	0.00000E+000	-5.88862E-005	-2.40040E-001	1.47646E-001	3.57620E+000	9	...........
	78	1.05333	1.42297E-001	-3.99356E-004	0.00000E+000	-5.68272E-005	-2.40040E-001	1.42318E-001	3.57620E+000	9	...........
	79	1.06667	1.36976E-001	-3.98665E-004	0.00000E+000	-5.46076E-005	-2.40040E-001	1.37001E-001	3.57620E+000	9	...........
	80	1.08	1.31697E-001	-3.98145E-004	0.00000E+000	-5.24343E-005	-2.40040E-001	1.31721E-001	3.57620E+000	9	...........
	81	1.09333	1.26405E-001	-3.99431E-004	0.00000E+000	-5.04900E-005	-2.40040E-001	1.26426E-001	3.57620E+000	9	...........
	82	1.10667	1.21129E-001	-3.98449E-004	0.00000E+000	-4.82639E-005	-2.40040E-001	1.21153E-001	3.57620E+000	9	...........
	83	1.12	1.16007E-001	-3.98806E-004	0.00000E+000	-4.62644E-005	-2.40040E-001	1.16030E-001	3.57620E+000	9	...........
	84	1.13333	1.10869E-001	-3.98294E-004	0.00000E+000	-4.41586E-005	-2.40040E-001	1.10887E-001	3.57620E+000	9	...........
	85	1.14667	1.05704E-001	-3.98357E-004	0.00000E+000	-4.21078E-005	-2.40040E-001	1.05723E-001	3.57620E+000	9	...........
	86	1.16	1.00591E-001	-3.98976E-004	0.00000E+000	-4.01334E-005	-2.40040E-001	1.00610E-001	3.57620E+000	9	...........
	87	1.17333	9.56016E-002	-3.97725E-004	0.00000E+000	-3.80231E-005	-2.40040E-001	9.56144E-002	3.57620E+000	9	...........
	88	1.18667	9.06789E-002	-3.98545E-004	0.00000E+000	-3.61396E-005	-2.40040E-001	9.06916E-002	3.57620E+000	9	...........
	89	1.2	8.56545E-002	-3.98897E-004	0.00000E+000	-3.41673E-005	-2.40040E-001	8.56677E-002	3.57620E+000	9	...........
	90	1.21333	8.06758E-002	-3.98745E-004	0.00000E+000	-3.21691E-005	-2.40040E-001	8.06856E-002	3.57620E+000	9	...........
	91	1.22667	7.58199E-002	-3.98954E-004	0.00000E+000	-3.02487E-005	-2.40040E-001	7.58310E-002	3.57620E+000	9	...........
	92	1.24	7.08701E-002	-3.97225E-004	0.00000E+000	-2.81513E-005	-2.40040E-001	7.08786E-002	3.57620E+000	9	...........
	93	1.25333	6.60352E-002	-3.99097E-004	0.00000E+000	-2.63544E-005	-2.40040E-001	6.60417E-002	3.57620E+000	9	...........
	94	1.26667	6.11871E-002	-3.98505E-004	0.00000E+000	-2.43834E-005	-2.40040E-001	6.11956E-002	3.57620E+000	9	...........
	95	1.28	5.64319E-002	-3.98224E-004	0.00000E+000	-2.24725E-005	-2.40040E-001	5.64384E-002	3.57620E+000	9	...........
	96	1.29333	5.16880E-002	-3.98992E-004	0.00000E+000	-2.06231E-005	-2.40040E-001	5.16960E-002	3.57620E+000	9	...........
	97	1.30667	4.69827E-002	-3.98914E-004	0.00000E+000	-1.87421E-005	-2.40040E-001	4.69932E-002	3.57620E+000	9	...........
	98	1.32	4.23227E-002	-3.97899E-004	0.00000E+000	-1.68402E-005	-2.40040E-001	4.23275E-002	3.57620E+000	9	...........
	99	1.33333	3.76264E-002	-3.98420E-004	0.00000E+000	-1.49911E-005	-2.40040E-001	3.76272E-002	3.57620E+000	9	...........
	100	1.34667	3.28924E-002	-3.99023E-004	0.00000E+000	-1.31248E-005	-2.40040E-001	3.28934E-002	3.57620E+000	9	...........
	101	1.36	2.82454E-002	-4.00259E-004	0.00000E+000	-1.13055E-005	-2.40040E-001	2.82427E-002	3.57620E+000	9	...........
	102	1.37333	2.35999E-002	-3.99232E-004	0.00000E+000	-9.42186E-006	-2.40040E-001	2.35890E-002	3.57620E+000	9	...........
	103	1.38667	1.89816E-002	-3.99403E-004	0.00000E+000	-7.58132E-006	-2.40040E-001	1.89704E-002	3.57620E+000	9	...........
	104	1.4	1.44643E-002	-3.98928E-004	0.00000E+000	-5.77021E-006	-2.40040E-001	1.44524E-002	3.57620E+000	9	...........
	105	1.41333	9.92091E-003	-3.98189E-004	0.00000E+000	-3.95040E-006	-2.40040E-001	9.90351E-003	3.57620E+000	9	...........
	106	1.42667	5.49567E-003	-3.97603E-004	0.00000E+000	-2.18509E-006	-2.40040E-001	5.47696E-003	3.57620E+000	9	...........
	107	1.43833	1.27762E-003	-3.99628E-004	0.00000E+000	-5.10571E-007	-2.40040E-001	1.25481E-003	3.57620E+000	9	...........
STARTTIMEOFFSET	QUANT	2059.566	Start Time Offset (s)
