EXPLAIN
TAG	PWR800_DISCHARGE
TITLE	LABEL	PWR Cyclic Charge Discharge (Cell) - Discharge Step	Test &Identifier
DATE	LABEL	12-7-2017	Date
TIME	LABEL	14:22:53	Time
NOTES	NOTES	3	&Notes...
	supercap test cell
	0.4mg
	6M KOH
PSTAT	PSTAT	IFC5000-01520	Potentiostat
CAPACITY	QUANT	1.00000E-003	Capacity (A-hr)
CELLTYPE	SELECTOR	1	&Cell Type
WORKINGCONNECTION	SELECTOR	0	&Working Lead
MAXDISCHARGETIME	VARIABLEANDUNITS	1.00000E+002	s	1.00000E+002	second(s)	Max &Discharge Time
DISCHARGEMODE	MULTIPARAM	0	4.00000E-004	&Discharge Mode	Constant Current	Amp(s)
SAMPLETIME	QUANT	1.00000E-002	Sa&mple Period (s)
DISCHARGESTOPAT1	MULTIPARAM	3	0.00000E+000	Discharge Stop At &1	Voltage < Limit	V
DISCHARGESTOPAT2	MULTIPARAM	0	0.00000E+000	Discharge Stop At &2	None	N/A
AESBHCSELECTOR	TOGGLE	F	Save Both Half Cells
IRCOMP	TOGGLE	F	IR &Measure
EOC	QUANT	0	Open Circuit (V)
SEQUENCER	TOGGLE	TRUE	Run as Sequence
PSTATMODEL	IQUANT	53	Pstat Model
PSTATSECTION	LABEL	IFC5000-01520	Pstat Section
PSTATSERIALNO	LABEL	01520	Pstat Serial Number
CTRLMODE	IQUANT	0	Control Mode
ELECTROMETER	IQUANT	1	RE=0 or CS=1
IESTAB	IQUANT	0	I/E Stability
CASPEED	IQUANT	4	Control Amp Speed
CONVENTION	IQUANT	1	Current Convention
ICHRANGE	IQUANT	2	Ich Range
ICHRANGEMODE	TOGGLE	T	Ich Auto Range
ICHOFFSETENABLE	TOGGLE	F	Ich Offset Enable
ICHOFFSET	QUANT	0	Ich Offset (V)
ICHFILTER	IQUANT	1	Ich Filter
VCHRANGE	IQUANT	2	Vch Range
VCHRANGEMODE	TOGGLE	T	Vch Auto Range
VCHOFFSETENABLE	TOGGLE	F	Vch Offset Enable
VCHOFFSET	QUANT	0	Vch Offset (V)
VCHFILTER	IQUANT	1	Vch Filter
IERANGELOWERLIMIT	IQUANT	9	I/E Range Lower Limit
IERANGEMODE	TOGGLE	F	I/E AutoRange
IERANGE	IQUANT	9	I/E Range
ACHSELECT	IQUANT	1	Ach Select
ACHRANGE	IQUANT	2	Ach Range
ACHOFFSETENABLE	TOGGLE	F	Ach Offset Enable
ACHOFFSET	QUANT	0	Ach Offset (V)
ACHFILTER	IQUANT	1	Ach Filter
CABLEID	IQUANT	14	Cable ID
DCCALDATE	LABEL	5-7-2017	DC Calibration Date
ACCALDATE	LABEL	12/3/2015	AC Calibration Date
FRAMEWORKVERSION	QUANT	7.01	Framework Version
INSTRUMENTVERSION	LABEL	4.00	Instrument Version
CURVE	TABLE	135
	Pt	T	Vf	Im	Vu	Pwr	Sig	Ach	Temp	IERange	Over
	#	s	V	A	V	W	V	V	deg C	#	bits
	0	0.013333	7.21684E-001	-3.97312E-004	0.00000E+000	-2.86734E-004	-2.40040E-001	7.21911E-001	3.57570E+000	9	...........
	1	0.026667	7.10987E-001	-3.98516E-004	0.00000E+000	-2.83339E-004	-2.40040E-001	7.11276E-001	3.57570E+000	9	...........
	2	0.04	7.01602E-001	-3.99179E-004	0.00000E+000	-2.80065E-004	-2.40040E-001	7.01843E-001	3.57570E+000	9	...........
	3	0.053333	6.92882E-001	-3.98502E-004	0.00000E+000	-2.76115E-004	-2.40040E-001	6.93100E-001	3.57570E+000	9	...........
	4	0.066667	6.84583E-001	-3.98560E-004	0.00000E+000	-2.72848E-004	-2.40040E-001	6.84818E-001	3.57570E+000	9	...........
	5	0.08	6.76550E-001	-3.98587E-004	0.00000E+000	-2.69664E-004	-2.40040E-001	6.76777E-001	3.57570E+000	9	...........
	6	0.093333	6.68879E-001	-3.98296E-004	0.00000E+000	-2.66411E-004	-2.40040E-001	6.69100E-001	3.57570E+000	9	...........
	7	0.106667	6.61322E-001	-3.96827E-004	0.00000E+000	-2.62430E-004	-2.40040E-001	6.61565E-001	3.57570E+000	9	...........
	8	0.12	6.53944E-001	-3.97782E-004	0.00000E+000	-2.60127E-004	-2.40040E-001	6.54197E-001	3.57570E+000	9	...........
	9	0.133333	6.46733E-001	-3.98533E-004	0.00000E+000	-2.57745E-004	-2.40040E-001	6.46959E-001	3.57570E+000	9	...........
	10	0.146667	6.39634E-001	-3.99486E-004	0.00000E+000	-2.55525E-004	-2.40040E-001	6.39822E-001	3.57570E+000	9	...........
	11	0.16	6.32566E-001	-3.98492E-004	0.00000E+000	-2.52072E-004	-2.40040E-001	6.32784E-001	3.57570E+000	9	...........
	12	0.173333	6.25609E-001	-3.99363E-004	0.00000E+000	-2.49845E-004	-2.40040E-001	6.25813E-001	3.57570E+000	9	...........
	13	0.186667	6.18774E-001	-3.98260E-004	0.00000E+000	-2.46433E-004	-2.40040E-001	6.18948E-001	3.57570E+000	9	...........
	14	0.2	6.11885E-001	-3.97852E-004	0.00000E+000	-2.43440E-004	-2.40040E-001	6.12097E-001	3.57570E+000	9	...........
	15	0.213333	6.05138E-001	-3.99165E-004	0.00000E+000	-2.41550E-004	-2.40040E-001	6.05360E-001	3.57570E+000	9	...........
	16	0.226667	5.98541E-001	-4.00314E-004	0.00000E+000	-2.39604E-004	-2.40040E-001	5.98737E-001	3.57570E+000	9	...........
	17	0.24	5.91804E-001	-3.99591E-004	0.00000E+000	-2.36479E-004	-2.40040E-001	5.92020E-001	3.57570E+000	9	...........
	18	0.253333	5.85125E-001	-3.98920E-004	0.00000E+000	-2.33418E-004	-2.40040E-001	5.85341E-001	3.57570E+000	9	...........
	19	0.266667	5.78568E-001	-3.99653E-004	0.00000E+000	-2.31226E-004	-2.40040E-001	5.78787E-001	3.57570E+000	9	...........
	20	0.28	5.72067E-001	-3.98810E-004	0.00000E+000	-2.28146E-004	-2.40040E-001	5.72260E-001	3.57570E+000	9	...........
	21	0.293333	5.65562E-001	-3.98057E-004	0.00000E+000	-2.25126E-004	-2.40040E-001	5.65776E-001	3.57570E+000	9	...........
	22	0.306667	5.59056E-001	-3.98409E-004	0.00000E+000	-2.22733E-004	-2.40040E-001	5.59277E-001	3.57570E+000	9	...........
	23	0.32	5.52663E-001	-3.98940E-004	0.00000E+000	-2.20479E-004	-2.40040E-001	5.52892E-001	3.57570E+000	9	...........
	24	0.333333	5.46345E-001	-3.98425E-004	0.00000E+000	-2.17677E-004	-2.40040E-001	5.46529E-001	3.57570E+000	9	...........
	25	0.346667	5.40004E-001	-3.99353E-004	0.00000E+000	-2.15652E-004	-2.40040E-001	5.40191E-001	3.57570E+000	9	...........
	26	0.36	5.33657E-001	-3.98859E-004	0.00000E+000	-2.12854E-004	-2.40040E-001	5.33861E-001	3.57570E+000	9	...........
	27	0.373333	5.27426E-001	-3.98821E-004	0.00000E+000	-2.10349E-004	-2.40040E-001	5.27635E-001	3.57570E+000	9	...........
	28	0.386667	5.21147E-001	-3.99200E-004	0.00000E+000	-2.08042E-004	-2.40040E-001	5.21372E-001	3.57570E+000	9	...........
	29	0.4	5.14963E-001	-3.99193E-004	0.00000E+000	-2.05570E-004	-2.40040E-001	5.15156E-001	3.57570E+000	9	...........
	30	0.413333	5.08793E-001	-3.98688E-004	0.00000E+000	-2.02850E-004	-2.40040E-001	5.09008E-001	3.57570E+000	9	...........
	31	0.426667	5.02645E-001	-3.99455E-004	0.00000E+000	-2.00784E-004	-2.40040E-001	5.02886E-001	3.57570E+000	9	...........
	32	0.44	4.96574E-001	-3.99601E-004	0.00000E+000	-1.98431E-004	-2.40040E-001	4.96796E-001	3.57570E+000	9	...........
	33	0.453333	4.90525E-001	-3.99407E-004	0.00000E+000	-1.95919E-004	-2.40040E-001	4.90729E-001	3.57570E+000	9	...........
	34	0.466667	4.84549E-001	-3.99528E-004	0.00000E+000	-1.93591E-004	-2.40040E-001	4.84709E-001	3.57570E+000	9	...........
	35	0.48	4.78575E-001	-3.99813E-004	0.00000E+000	-1.91340E-004	-2.40040E-001	4.78677E-001	3.57570E+000	9	...........
	36	0.493333	4.72549E-001	-3.98645E-004	0.00000E+000	-1.88379E-004	-2.40040E-001	4.72644E-001	3.57570E+000	9	...........
	37	0.506667	4.66542E-001	-3.99889E-004	0.00000E+000	-1.86565E-004	-2.40040E-001	4.66640E-001	3.57570E+000	9	...........
	38	0.52	4.60618E-001	-3.98458E-004	0.00000E+000	-1.83537E-004	-2.40040E-001	4.60711E-001	3.57570E+000	9	...........
	39	0.533333	4.54549E-001	-3.99240E-004	0.00000E+000	-1.81474E-004	-2.40040E-001	4.54642E-001	3.57570E+000	9	...........
	40	0.546667	4.48705E-001	-3.98895E-004	0.00000E+000	-1.78986E-004	-2.40040E-001	4.48799E-001	3.57570E+000	9	...........
	41	0.56	4.42899E-001	-3.98472E-004	0.00000E+000	-1.76483E-004	-2.40040E-001	4.42994E-001	3.57570E+000	9	...........
	42	0.573333	4.37018E-001	-3.98501E-004	0.00000E+000	-1.74152E-004	-2.40040E-001	4.37110E-001	3.57570E+000	9	...........
	43	0.586667	4.31223E-001	-3.98417E-004	0.00000E+000	-1.71806E-004	-2.40040E-001	4.31313E-001	3.57570E+000	9	...........
	44	0.6	4.25518E-001	-3.99182E-004	0.00000E+000	-1.69859E-004	-2.40040E-001	4.25609E-001	3.57570E+000	9	...........
	45	0.613333	4.19803E-001	-3.99090E-004	0.00000E+000	-1.67539E-004	-2.40040E-001	4.19888E-001	3.57570E+000	9	...........
	46	0.626667	4.14064E-001	-3.99632E-004	0.00000E+000	-1.65473E-004	-2.40040E-001	4.14149E-001	3.57570E+000	9	...........
	47	0.64	4.08354E-001	-3.99745E-004	0.00000E+000	-1.63237E-004	-2.40040E-001	4.08434E-001	3.57570E+000	9	...........
	48	0.653333	4.02720E-001	-3.99235E-004	0.00000E+000	-1.60780E-004	-2.40040E-001	4.02797E-001	3.57570E+000	9	...........
	49	0.666667	3.97053E-001	-3.98851E-004	0.00000E+000	-1.58365E-004	-2.40040E-001	3.97128E-001	3.57570E+000	9	...........
	50	0.68	3.91421E-001	-3.97392E-004	0.00000E+000	-1.55548E-004	-2.40040E-001	3.91491E-001	3.57570E+000	9	...........
	51	0.693333	3.85829E-001	-3.98606E-004	0.00000E+000	-1.53794E-004	-2.40040E-001	3.85901E-001	3.57570E+000	9	...........
	52	0.706667	3.80275E-001	-3.98504E-004	0.00000E+000	-1.51541E-004	-2.40040E-001	3.80344E-001	3.57570E+000	9	...........
	53	0.72	3.74766E-001	-3.99473E-004	0.00000E+000	-1.49709E-004	-2.40040E-001	3.74836E-001	3.57570E+000	9	...........
	54	0.733333	3.69307E-001	-4.00297E-004	0.00000E+000	-1.47833E-004	-2.40040E-001	3.69374E-001	3.57570E+000	9	...........
	55	0.746667	3.63840E-001	-3.99519E-004	0.00000E+000	-1.45361E-004	-2.40040E-001	3.63911E-001	3.57570E+000	9	...........
	56	0.76	3.58414E-001	-3.97949E-004	0.00000E+000	-1.42630E-004	-2.40040E-001	3.58480E-001	3.57570E+000	9	...........
	57	0.773333	3.52936E-001	-3.97872E-004	0.00000E+000	-1.40423E-004	-2.40040E-001	3.53005E-001	3.57570E+000	9	...........
	58	0.786667	3.47519E-001	-3.98606E-004	0.00000E+000	-1.38523E-004	-2.40040E-001	3.47585E-001	3.57570E+000	9	...........
	59	0.8	3.42133E-001	-4.00039E-004	0.00000E+000	-1.36866E-004	-2.40040E-001	3.42197E-001	3.57570E+000	9	...........
	60	0.813333	3.36704E-001	-3.98361E-004	0.00000E+000	-1.34130E-004	-2.40040E-001	3.36767E-001	3.57570E+000	9	...........
	61	0.826667	3.31411E-001	-3.98678E-004	0.00000E+000	-1.32126E-004	-2.40040E-001	3.31473E-001	3.57570E+000	9	...........
	62	0.84	3.26104E-001	-3.99177E-004	0.00000E+000	-1.30173E-004	-2.40040E-001	3.26162E-001	3.57570E+000	9	...........
	63	0.853333	3.20855E-001	-3.98502E-004	0.00000E+000	-1.27861E-004	-2.40040E-001	3.20912E-001	3.57570E+000	9	...........
	64	0.866667	3.15556E-001	-3.98695E-004	0.00000E+000	-1.25811E-004	-2.40040E-001	3.15613E-001	3.57570E+000	9	...........
	65	0.88	3.10344E-001	-3.99356E-004	0.00000E+000	-1.23938E-004	-2.40040E-001	3.10406E-001	3.57570E+000	9	...........
	66	0.893333	3.05130E-001	-3.99667E-004	0.00000E+000	-1.21950E-004	-2.40040E-001	3.05189E-001	3.57570E+000	9	...........
	67	0.906667	3.00011E-001	-3.98563E-004	0.00000E+000	-1.19573E-004	-2.40040E-001	3.00065E-001	3.57570E+000	9	...........
	68	0.92	2.94841E-001	-3.98994E-004	0.00000E+000	-1.17640E-004	-2.40040E-001	2.94891E-001	3.57570E+000	9	...........
	69	0.933333	2.89781E-001	-3.98686E-004	0.00000E+000	-1.15532E-004	-2.40040E-001	2.89834E-001	3.57570E+000	9	...........
	70	0.946667	2.84703E-001	-3.98401E-004	0.00000E+000	-1.13426E-004	-2.40040E-001	2.84756E-001	3.57570E+000	9	...........
	71	0.96	2.79593E-001	-3.99386E-004	0.00000E+000	-1.11665E-004	-2.40040E-001	2.79641E-001	3.57570E+000	9	...........
	72	0.97333	2.74449E-001	-3.99577E-004	0.00000E+000	-1.09663E-004	-2.40040E-001	2.74501E-001	3.57570E+000	9	...........
	73	0.98667	2.69378E-001	-3.99276E-004	0.00000E+000	-1.07556E-004	-2.40040E-001	2.69429E-001	3.57570E+000	9	...........
	74	1	2.64344E-001	-3.98932E-004	0.00000E+000	-1.05456E-004	-2.40040E-001	2.64394E-001	3.57570E+000	9	...........
	75	1.01333	2.59266E-001	-3.98234E-004	0.00000E+000	-1.03249E-004	-2.40040E-001	2.59309E-001	3.57570E+000	9	...........
	76	1.02667	2.54219E-001	-3.99340E-004	0.00000E+000	-1.01520E-004	-2.40040E-001	2.54269E-001	3.57570E+000	9	...........
	77	1.04	2.49355E-001	-3.99370E-004	0.00000E+000	-9.95848E-005	-2.40040E-001	2.49398E-001	3.57570E+000	9	...........
	78	1.05333	2.44400E-001	-3.97948E-004	0.00000E+000	-9.72585E-005	-2.40040E-001	2.44442E-001	3.57570E+000	9	...........
	79	1.06667	2.39518E-001	-3.97775E-004	0.00000E+000	-9.52741E-005	-2.40040E-001	2.39556E-001	3.57570E+000	9	...........
	80	1.08	2.34642E-001	-3.97372E-004	0.00000E+000	-9.32401E-005	-2.40040E-001	2.34688E-001	3.57570E+000	9	...........
	81	1.09333	2.29778E-001	-3.99287E-004	0.00000E+000	-9.17471E-005	-2.40040E-001	2.29808E-001	3.57570E+000	9	...........
	82	1.10667	2.24943E-001	-3.98751E-004	0.00000E+000	-8.96961E-005	-2.40040E-001	2.24981E-001	3.57570E+000	9	...........
	83	1.12	2.20099E-001	-3.99389E-004	0.00000E+000	-8.79049E-005	-2.40040E-001	2.20137E-001	3.57570E+000	9	...........
	84	1.13333	2.15266E-001	-3.98900E-004	0.00000E+000	-8.58696E-005	-2.40040E-001	2.15309E-001	3.57570E+000	9	...........
	85	1.14667	2.10494E-001	-3.99280E-004	0.00000E+000	-8.40461E-005	-2.40040E-001	2.10533E-001	3.57570E+000	9	...........
	86	1.16	2.05704E-001	-3.98384E-004	0.00000E+000	-8.19492E-005	-2.40040E-001	2.05739E-001	3.57570E+000	9	...........
	87	1.17333	2.01001E-001	-3.99078E-004	0.00000E+000	-8.02153E-005	-2.40040E-001	2.01033E-001	3.57570E+000	9	...........
	88	1.18667	1.96350E-001	-3.98731E-004	0.00000E+000	-7.82910E-005	-2.40040E-001	1.96385E-001	3.57570E+000	9	...........
	89	1.2	1.91650E-001	-3.99420E-004	0.00000E+000	-7.65488E-005	-2.40040E-001	1.91688E-001	3.57570E+000	9	...........
	90	1.21333	1.86950E-001	-3.99521E-004	0.00000E+000	-7.46905E-005	-2.40040E-001	1.86978E-001	3.57570E+000	9	...........
	91	1.22667	1.82306E-001	-3.98999E-004	0.00000E+000	-7.27399E-005	-2.40040E-001	1.82336E-001	3.57570E+000	9	...........
	92	1.24	1.77651E-001	-3.98751E-004	0.00000E+000	-7.08386E-005	-2.40040E-001	1.77682E-001	3.57570E+000	9	...........
	93	1.25333	1.72973E-001	-3.99632E-004	0.00000E+000	-6.91255E-005	-2.40040E-001	1.73004E-001	3.57570E+000	9	...........
	94	1.26667	1.68333E-001	-3.99066E-004	0.00000E+000	-6.71758E-005	-2.40040E-001	1.68366E-001	3.57570E+000	9	...........
	95	1.28	1.63717E-001	-3.96557E-004	0.00000E+000	-6.49229E-005	-2.40040E-001	1.63748E-001	3.57570E+000	9	...........
	96	1.29333	1.59137E-001	-3.98936E-004	0.00000E+000	-6.34856E-005	-2.40040E-001	1.59162E-001	3.57570E+000	9	...........
	97	1.30667	1.54640E-001	-3.99490E-004	0.00000E+000	-6.17771E-005	-2.40040E-001	1.54674E-001	3.57570E+000	9	...........
	98	1.32	1.50141E-001	-3.98682E-004	0.00000E+000	-5.98586E-005	-2.40040E-001	1.50168E-001	3.57570E+000	9	...........
	99	1.33333	1.45598E-001	-3.99315E-004	0.00000E+000	-5.81394E-005	-2.40040E-001	1.45626E-001	3.57570E+000	9	...........
	100	1.34667	1.41076E-001	-3.99232E-004	0.00000E+000	-5.63222E-005	-2.40040E-001	1.41104E-001	3.57570E+000	9	...........
	101	1.36	1.36584E-001	-3.99092E-004	0.00000E+000	-5.45094E-005	-2.40040E-001	1.36609E-001	3.57570E+000	9	...........
	102	1.37333	1.32133E-001	-3.99879E-004	0.00000E+000	-5.28371E-005	-2.40040E-001	1.32157E-001	3.57570E+000	9	...........
	103	1.38667	1.27715E-001	-3.99041E-004	0.00000E+000	-5.09636E-005	-2.40040E-001	1.27737E-001	3.57570E+000	9	...........
	104	1.4	1.23290E-001	-3.98918E-004	0.00000E+000	-4.91825E-005	-2.40040E-001	1.23313E-001	3.57570E+000	9	...........
	105	1.41333	1.18781E-001	-3.97825E-004	0.00000E+000	-4.72540E-005	-2.40040E-001	1.18804E-001	3.57570E+000	9	...........
	106	1.42667	1.14436E-001	-3.99125E-004	0.00000E+000	-4.56742E-005	-2.40040E-001	1.14458E-001	3.57570E+000	9	...........
	107	1.44	1.10065E-001	-3.99147E-004	0.00000E+000	-4.39320E-005	-2.40040E-001	1.10082E-001	3.57570E+000	9	...........
	108	1.45333	1.05659E-001	-3.98947E-004	0.00000E+000	-4.21522E-005	-2.40040E-001	1.05683E-001	3.57579E+000	9	...........
	109	1.46667	1.01318E-001	-3.98758E-004	0.00000E+000	-4.04015E-005	-2.40040E-001	1.01336E-001	3.57580E+000	9	...........
	110	1.48	9.70534E-002	-3.99179E-004	0.00000E+000	-3.87417E-005	-2.40040E-001	9.70728E-002	3.57580E+000	9	...........
	111	1.49333	9.27904E-002	-3.99204E-004	0.00000E+000	-3.70423E-005	-2.40040E-001	9.28145E-002	3.57580E+000	9	...........
	112	1.50667	8.85359E-002	-3.98619E-004	0.00000E+000	-3.52921E-005	-2.40040E-001	8.85605E-002	3.57580E+000	9	...........
	113	1.52	8.42362E-002	-3.99251E-004	0.00000E+000	-3.36314E-005	-2.40040E-001	8.42504E-002	3.57580E+000	9	...........
	114	1.53333	7.99897E-002	-3.98431E-004	0.00000E+000	-3.18704E-005	-2.40040E-001	8.00010E-002	3.57580E+000	9	...........
	115	1.54667	7.57345E-002	-3.98530E-004	0.00000E+000	-3.01825E-005	-2.40040E-001	7.57478E-002	3.57580E+000	9	...........
	116	1.56	7.15297E-002	-3.99738E-004	0.00000E+000	-2.85931E-005	-2.40040E-001	7.15366E-002	3.57580E+000	9	...........
	117	1.57333	6.73375E-002	-3.98819E-004	0.00000E+000	-2.68554E-005	-2.40040E-001	6.73554E-002	3.57580E+000	9	...........
	118	1.58667	6.31251E-002	-3.99041E-004	0.00000E+000	-2.51895E-005	-2.40040E-001	6.31351E-002	3.57580E+000	9	...........
	119	1.6	5.90336E-002	-3.98848E-004	0.00000E+000	-2.35454E-005	-2.40040E-001	5.90397E-002	3.57580E+000	9	...........
	120	1.61333	5.48645E-002	-3.98155E-004	0.00000E+000	-2.18446E-005	-2.40040E-001	5.48701E-002	3.57580E+000	9	...........
	121	1.62667	5.06540E-002	-3.99507E-004	0.00000E+000	-2.02366E-005	-2.40040E-001	5.06553E-002	3.57580E+000	9	...........
	122	1.64	4.65986E-002	-3.97287E-004	0.00000E+000	-1.85130E-005	-2.40040E-001	4.66065E-002	3.57580E+000	9	...........
	123	1.65333	4.25308E-002	-3.97930E-004	0.00000E+000	-1.69243E-005	-2.40040E-001	4.25357E-002	3.57580E+000	9	...........
	124	1.66667	3.85162E-002	-3.98258E-004	0.00000E+000	-1.53394E-005	-2.40040E-001	3.85200E-002	3.57580E+000	9	...........
	125	1.68	3.45623E-002	-3.99668E-004	0.00000E+000	-1.38134E-005	-2.40040E-001	3.45623E-002	3.57580E+000	9	...........
	126	1.69333	3.05286E-002	-3.98570E-004	0.00000E+000	-1.21678E-005	-2.40040E-001	3.05287E-002	3.57580E+000	9	...........
	127	1.70667	2.66003E-002	-3.98577E-004	0.00000E+000	-1.06023E-005	-2.40040E-001	2.65947E-002	3.57580E+000	9	...........
	128	1.72	2.26055E-002	-3.98828E-004	0.00000E+000	-9.01570E-006	-2.40040E-001	2.26032E-002	3.57580E+000	9	...........
	129	1.73333	1.86507E-002	-3.98285E-004	0.00000E+000	-7.42830E-006	-2.40040E-001	1.86454E-002	3.57580E+000	9	...........
	130	1.74667	1.46514E-002	-3.98080E-004	0.00000E+000	-5.83242E-006	-2.40040E-001	1.46458E-002	3.57580E+000	9	...........
	131	1.76	1.07152E-002	-3.99504E-004	0.00000E+000	-4.28076E-006	-2.40040E-001	1.07067E-002	3.57580E+000	9	...........
	132	1.77333	6.80182E-003	-3.98926E-004	0.00000E+000	-2.71342E-006	-2.40040E-001	6.78723E-003	3.57580E+000	9	...........
	133	1.78667	2.86212E-003	-3.99357E-004	0.00000E+000	-1.14301E-006	-2.40040E-001	2.84551E-003	3.57580E+000	9	...........
	134	1.79167	1.42322E-004	-3.98095E-004	0.00000E+000	-5.66579E-008	-2.40040E-001	1.26812E-004	3.57580E+000	9	...........
STARTTIMEOFFSET	QUANT	204.8849	Start Time Offset (s)
