EXPLAIN
TAG	PWR800_DISCHARGE
TITLE	LABEL	PWR Cyclic Charge Discharge (Cell) - Discharge Step	Test &Identifier
DATE	LABEL	12-7-2017	Date
TIME	LABEL	14:24:06	Time
NOTES	NOTES	3	&Notes...
	supercap test cell
	0.4mg
	6M KOH
PSTAT	PSTAT	IFC5000-01520	Potentiostat
CAPACITY	QUANT	1.00000E-003	Capacity (A-hr)
CELLTYPE	SELECTOR	1	&Cell Type
WORKINGCONNECTION	SELECTOR	0	&Working Lead
MAXDISCHARGETIME	VARIABLEANDUNITS	1.00000E+002	s	1.00000E+002	second(s)	Max &Discharge Time
DISCHARGEMODE	MULTIPARAM	0	4.00000E-004	&Discharge Mode	Constant Current	Amp(s)
SAMPLETIME	QUANT	1.00000E-002	Sa&mple Period (s)
DISCHARGESTOPAT1	MULTIPARAM	3	0.00000E+000	Discharge Stop At &1	Voltage < Limit	V
DISCHARGESTOPAT2	MULTIPARAM	0	0.00000E+000	Discharge Stop At &2	None	N/A
AESBHCSELECTOR	TOGGLE	F	Save Both Half Cells
IRCOMP	TOGGLE	F	IR &Measure
EOC	QUANT	0	Open Circuit (V)
SEQUENCER	TOGGLE	TRUE	Run as Sequence
PSTATMODEL	IQUANT	53	Pstat Model
PSTATSECTION	LABEL	IFC5000-01520	Pstat Section
PSTATSERIALNO	LABEL	01520	Pstat Serial Number
CTRLMODE	IQUANT	0	Control Mode
ELECTROMETER	IQUANT	1	RE=0 or CS=1
IESTAB	IQUANT	0	I/E Stability
CASPEED	IQUANT	4	Control Amp Speed
CONVENTION	IQUANT	1	Current Convention
ICHRANGE	IQUANT	2	Ich Range
ICHRANGEMODE	TOGGLE	T	Ich Auto Range
ICHOFFSETENABLE	TOGGLE	F	Ich Offset Enable
ICHOFFSET	QUANT	0	Ich Offset (V)
ICHFILTER	IQUANT	1	Ich Filter
VCHRANGE	IQUANT	2	Vch Range
VCHRANGEMODE	TOGGLE	T	Vch Auto Range
VCHOFFSETENABLE	TOGGLE	F	Vch Offset Enable
VCHOFFSET	QUANT	0	Vch Offset (V)
VCHFILTER	IQUANT	1	Vch Filter
IERANGELOWERLIMIT	IQUANT	9	I/E Range Lower Limit
IERANGEMODE	TOGGLE	F	I/E AutoRange
IERANGE	IQUANT	9	I/E Range
ACHSELECT	IQUANT	1	Ach Select
ACHRANGE	IQUANT	2	Ach Range
ACHOFFSETENABLE	TOGGLE	F	Ach Offset Enable
ACHOFFSET	QUANT	0	Ach Offset (V)
ACHFILTER	IQUANT	1	Ach Filter
CABLEID	IQUANT	14	Cable ID
DCCALDATE	LABEL	5-7-2017	DC Calibration Date
ACCALDATE	LABEL	12/3/2015	AC Calibration Date
FRAMEWORKVERSION	QUANT	7.01	Framework Version
INSTRUMENTVERSION	LABEL	4.00	Instrument Version
CURVE	TABLE	133
	Pt	T	Vf	Im	Vu	Pwr	Sig	Ach	Temp	IERange	Over
	#	s	V	A	V	W	V	V	deg C	#	bits
	0	0.013333	7.19221E-001	-3.99220E-004	0.00000E+000	-2.87127E-004	-2.40040E-001	7.19419E-001	3.57610E+000	9	...........
	1	0.026667	7.08403E-001	-3.98685E-004	0.00000E+000	-2.82430E-004	-2.40040E-001	7.08633E-001	3.57610E+000	9	...........
	2	0.04	6.98865E-001	-3.99523E-004	0.00000E+000	-2.79213E-004	-2.40040E-001	6.99074E-001	3.57610E+000	9	...........
	3	0.053333	6.90011E-001	-3.97240E-004	0.00000E+000	-2.74100E-004	-2.40040E-001	6.90230E-001	3.57610E+000	9	...........
	4	0.066667	6.81655E-001	-3.98753E-004	0.00000E+000	-2.71812E-004	-2.40040E-001	6.81859E-001	3.57610E+000	9	...........
	5	0.08	6.73599E-001	-3.98666E-004	0.00000E+000	-2.68541E-004	-2.40040E-001	6.73818E-001	3.57610E+000	9	...........
	6	0.093333	6.65731E-001	-3.99723E-004	0.00000E+000	-2.66108E-004	-2.40040E-001	6.65949E-001	3.57610E+000	9	...........
	7	0.106667	6.58082E-001	-3.98162E-004	0.00000E+000	-2.62024E-004	-2.40040E-001	6.58292E-001	3.57610E+000	9	...........
	8	0.12	6.50618E-001	-3.99878E-004	0.00000E+000	-2.60168E-004	-2.40040E-001	6.50839E-001	3.57610E+000	9	...........
	9	0.133333	6.43247E-001	-3.99432E-004	0.00000E+000	-2.56934E-004	-2.40040E-001	6.43502E-001	3.57610E+000	9	...........
	10	0.146667	6.36046E-001	-3.98546E-004	0.00000E+000	-2.53494E-004	-2.40040E-001	6.36293E-001	3.57610E+000	9	...........
	11	0.16	6.28931E-001	-3.98922E-004	0.00000E+000	-2.50894E-004	-2.40040E-001	6.29173E-001	3.57610E+000	9	...........
	12	0.173333	6.21875E-001	-3.98951E-004	0.00000E+000	-2.48098E-004	-2.40040E-001	6.22081E-001	3.57610E+000	9	...........
	13	0.186667	6.14910E-001	-3.98396E-004	0.00000E+000	-2.44978E-004	-2.40040E-001	6.15136E-001	3.57610E+000	9	...........
	14	0.2	6.07910E-001	-3.97801E-004	0.00000E+000	-2.41827E-004	-2.40040E-001	6.08178E-001	3.57610E+000	9	...........
	15	0.213333	6.01082E-001	-3.99068E-004	0.00000E+000	-2.39873E-004	-2.40040E-001	6.01328E-001	3.57610E+000	9	...........
	16	0.226667	5.94276E-001	-3.99709E-004	0.00000E+000	-2.37537E-004	-2.40040E-001	5.94511E-001	3.57610E+000	9	...........
	17	0.24	5.87516E-001	-3.99337E-004	0.00000E+000	-2.34617E-004	-2.40040E-001	5.87760E-001	3.57610E+000	9	...........
	18	0.253333	5.80882E-001	-3.99426E-004	0.00000E+000	-2.32020E-004	-2.40040E-001	5.81120E-001	3.57610E+000	9	...........
	19	0.266667	5.74302E-001	-3.98565E-004	0.00000E+000	-2.28897E-004	-2.40040E-001	5.74532E-001	3.57610E+000	9	...........
	20	0.28	5.67711E-001	-3.98574E-004	0.00000E+000	-2.26275E-004	-2.40040E-001	5.67939E-001	3.57610E+000	9	...........
	21	0.293333	5.61138E-001	-3.99031E-004	0.00000E+000	-2.23911E-004	-2.40040E-001	5.61376E-001	3.57610E+000	9	...........
	22	0.306667	5.54603E-001	-4.00849E-004	0.00000E+000	-2.22312E-004	-2.40040E-001	5.54820E-001	3.57610E+000	9	...........
	23	0.32	5.48077E-001	-3.98940E-004	0.00000E+000	-2.18649E-004	-2.40040E-001	5.48281E-001	3.57610E+000	9	...........
	24	0.333333	5.41633E-001	-3.97876E-004	0.00000E+000	-2.15503E-004	-2.40040E-001	5.41831E-001	3.57610E+000	9	...........
	25	0.346667	5.35175E-001	-3.98768E-004	0.00000E+000	-2.13411E-004	-2.40040E-001	5.35399E-001	3.57610E+000	9	...........
	26	0.36	5.28793E-001	-3.98616E-004	0.00000E+000	-2.10785E-004	-2.40040E-001	5.29007E-001	3.57610E+000	9	...........
	27	0.373333	5.22387E-001	-3.98513E-004	0.00000E+000	-2.08178E-004	-2.40040E-001	5.22582E-001	3.57610E+000	9	...........
	28	0.386667	5.16096E-001	-3.99636E-004	0.00000E+000	-2.06250E-004	-2.40040E-001	5.16299E-001	3.57610E+000	9	...........
	29	0.4	5.09749E-001	-3.98701E-004	0.00000E+000	-2.03237E-004	-2.40040E-001	5.09984E-001	3.57610E+000	9	...........
	30	0.413333	5.03451E-001	-3.98262E-004	0.00000E+000	-2.00506E-004	-2.40040E-001	5.03671E-001	3.57610E+000	9	...........
	31	0.426667	4.97244E-001	-3.99710E-004	0.00000E+000	-1.98753E-004	-2.40040E-001	4.97466E-001	3.57610E+000	9	...........
	32	0.44	4.91143E-001	-3.99601E-004	0.00000E+000	-1.96261E-004	-2.40040E-001	4.91355E-001	3.57610E+000	9	...........
	33	0.453333	4.85114E-001	-4.00482E-004	0.00000E+000	-1.94279E-004	-2.40040E-001	4.85247E-001	3.57610E+000	9	...........
	34	0.466667	4.79037E-001	-3.99830E-004	0.00000E+000	-1.91533E-004	-2.40040E-001	4.79130E-001	3.57610E+000	9	...........
	35	0.48	4.72908E-001	-4.00514E-004	0.00000E+000	-1.89406E-004	-2.40040E-001	4.73004E-001	3.57610E+000	9	...........
	36	0.493333	4.66862E-001	-3.98956E-004	0.00000E+000	-1.86257E-004	-2.40040E-001	4.66946E-001	3.57610E+000	9	...........
	37	0.506667	4.60883E-001	-3.99341E-004	0.00000E+000	-1.84049E-004	-2.40040E-001	4.60971E-001	3.57610E+000	9	...........
	38	0.52	4.54931E-001	-4.00093E-004	0.00000E+000	-1.82015E-004	-2.40040E-001	4.55022E-001	3.57610E+000	9	...........
	39	0.533333	4.49055E-001	-3.98248E-004	0.00000E+000	-1.78835E-004	-2.40040E-001	4.49141E-001	3.57610E+000	9	...........
	40	0.546667	4.43103E-001	-3.98004E-004	0.00000E+000	-1.76357E-004	-2.40040E-001	4.43196E-001	3.57610E+000	9	...........
	41	0.56	4.37103E-001	-3.98427E-004	0.00000E+000	-1.74153E-004	-2.40040E-001	4.37182E-001	3.57610E+000	9	...........
	42	0.573333	4.31187E-001	-3.99228E-004	0.00000E+000	-1.72142E-004	-2.40040E-001	4.31267E-001	3.57610E+000	9	...........
	43	0.586667	4.25328E-001	-3.99013E-004	0.00000E+000	-1.69711E-004	-2.40040E-001	4.25412E-001	3.57610E+000	9	...........
	44	0.6	4.19537E-001	-3.98898E-004	0.00000E+000	-1.67352E-004	-2.40040E-001	4.19624E-001	3.57610E+000	9	...........
	45	0.613333	4.13769E-001	-3.99035E-004	0.00000E+000	-1.65108E-004	-2.40040E-001	4.13850E-001	3.57610E+000	9	...........
	46	0.626667	4.07991E-001	-3.99479E-004	0.00000E+000	-1.62984E-004	-2.40040E-001	4.08071E-001	3.57610E+000	9	...........
	47	0.64	4.02269E-001	-4.00085E-004	0.00000E+000	-1.60942E-004	-2.40040E-001	4.02344E-001	3.57610E+000	9	...........
	48	0.653333	3.96533E-001	-3.98651E-004	0.00000E+000	-1.58078E-004	-2.40040E-001	3.96609E-001	3.57610E+000	9	...........
	49	0.666667	3.90781E-001	-3.98456E-004	0.00000E+000	-1.55709E-004	-2.40040E-001	3.90854E-001	3.57637E+000	9	...........
	50	0.68	3.85117E-001	-3.98297E-004	0.00000E+000	-1.53391E-004	-2.40040E-001	3.85187E-001	3.57720E+000	9	...........
	51	0.693333	3.79493E-001	-3.99121E-004	0.00000E+000	-1.51464E-004	-2.40040E-001	3.79562E-001	3.57720E+000	9	...........
	52	0.706667	3.73845E-001	-3.99069E-004	0.00000E+000	-1.49190E-004	-2.40040E-001	3.73915E-001	3.57720E+000	9	...........
	53	0.72	3.68333E-001	-3.99165E-004	0.00000E+000	-1.47026E-004	-2.40040E-001	3.68396E-001	3.57720E+000	9	...........
	54	0.733333	3.62799E-001	-3.98487E-004	0.00000E+000	-1.44571E-004	-2.40040E-001	3.62871E-001	3.57720E+000	9	...........
	55	0.746667	3.57237E-001	-3.97923E-004	0.00000E+000	-1.42153E-004	-2.40040E-001	3.57305E-001	3.57720E+000	9	...........
	56	0.76	3.51706E-001	-3.99934E-004	0.00000E+000	-1.40659E-004	-2.40040E-001	3.51771E-001	3.57720E+000	9	...........
	57	0.773333	3.46264E-001	-3.98549E-004	0.00000E+000	-1.38003E-004	-2.40040E-001	3.46321E-001	3.57720E+000	9	...........
	58	0.786667	3.40825E-001	-3.99564E-004	0.00000E+000	-1.36181E-004	-2.40040E-001	3.40887E-001	3.57720E+000	9	...........
	59	0.8	3.35398E-001	-3.98354E-004	0.00000E+000	-1.33607E-004	-2.40040E-001	3.35462E-001	3.57720E+000	9	...........
	60	0.813333	3.29925E-001	-4.00695E-004	0.00000E+000	-1.32199E-004	-2.40040E-001	3.29983E-001	3.57720E+000	9	...........
	61	0.826667	3.24542E-001	-4.00004E-004	0.00000E+000	-1.29818E-004	-2.40040E-001	3.24605E-001	3.57720E+000	9	...........
	62	0.84	3.19172E-001	-3.98038E-004	0.00000E+000	-1.27043E-004	-2.40040E-001	3.19229E-001	3.57720E+000	9	...........
	63	0.853333	3.13855E-001	-3.98080E-004	0.00000E+000	-1.24939E-004	-2.40040E-001	3.13911E-001	3.57720E+000	9	...........
	64	0.866667	3.08429E-001	-3.98617E-004	0.00000E+000	-1.22945E-004	-2.40040E-001	3.08489E-001	3.57720E+000	9	...........
	65	0.88	3.03080E-001	-3.98531E-004	0.00000E+000	-1.20787E-004	-2.40040E-001	3.03136E-001	3.57720E+000	9	...........
	66	0.893333	2.97846E-001	-3.99336E-004	0.00000E+000	-1.18940E-004	-2.40040E-001	2.97903E-001	3.57720E+000	9	...........
	67	0.906667	2.92569E-001	-3.98902E-004	0.00000E+000	-1.16706E-004	-2.40040E-001	2.92619E-001	3.57720E+000	9	...........
	68	0.92	2.87363E-001	-3.99533E-004	0.00000E+000	-1.14811E-004	-2.40040E-001	2.87421E-001	3.57720E+000	9	...........
	69	0.933333	2.82155E-001	-3.98682E-004	0.00000E+000	-1.12490E-004	-2.40040E-001	2.82209E-001	3.57720E+000	9	...........
	70	0.946667	2.77022E-001	-3.98690E-004	0.00000E+000	-1.10446E-004	-2.40040E-001	2.77076E-001	3.57720E+000	9	...........
	71	0.96	2.71882E-001	-3.98287E-004	0.00000E+000	-1.08287E-004	-2.40040E-001	2.71939E-001	3.57720E+000	9	...........
	72	0.97333	2.66789E-001	-4.00177E-004	0.00000E+000	-1.06763E-004	-2.40040E-001	2.66843E-001	3.57720E+000	9	...........
	73	0.98667	2.61748E-001	-3.99361E-004	0.00000E+000	-1.04532E-004	-2.40040E-001	2.61800E-001	3.57720E+000	9	...........
	74	1	2.56704E-001	-3.97444E-004	0.00000E+000	-1.02026E-004	-2.40040E-001	2.56750E-001	3.57720E+000	9	...........
	75	1.01333	2.51711E-001	-3.98597E-004	0.00000E+000	-1.00331E-004	-2.40040E-001	2.51756E-001	3.57720E+000	9	...........
	76	1.02667	2.46681E-001	-3.98528E-004	0.00000E+000	-9.83094E-005	-2.40040E-001	2.46725E-001	3.57720E+000	9	...........
	77	1.04	2.41694E-001	-3.98544E-004	0.00000E+000	-9.63255E-005	-2.40040E-001	2.41736E-001	3.57720E+000	9	...........
	78	1.05333	2.36736E-001	-3.97806E-004	0.00000E+000	-9.41752E-005	-2.40040E-001	2.36775E-001	3.57720E+000	9	...........
	79	1.06667	2.31825E-001	-3.99353E-004	0.00000E+000	-9.25799E-005	-2.40040E-001	2.31860E-001	3.57720E+000	9	...........
	80	1.08	2.26863E-001	-3.98934E-004	0.00000E+000	-9.05036E-005	-2.40040E-001	2.26905E-001	3.57720E+000	9	...........
	81	1.09333	2.21965E-001	-3.99056E-004	0.00000E+000	-8.85763E-005	-2.40040E-001	2.22007E-001	3.57720E+000	9	...........
	82	1.10667	2.17045E-001	-3.98312E-004	0.00000E+000	-8.64519E-005	-2.40040E-001	2.17083E-001	3.57720E+000	9	...........
	83	1.12	2.12264E-001	-3.98823E-004	0.00000E+000	-8.46559E-005	-2.40040E-001	2.12301E-001	3.57720E+000	9	...........
	84	1.13333	2.07399E-001	-3.98345E-004	0.00000E+000	-8.26164E-005	-2.40040E-001	2.07435E-001	3.57720E+000	9	...........
	85	1.14667	2.02655E-001	-3.99398E-004	0.00000E+000	-8.09400E-005	-2.40040E-001	2.02691E-001	3.57720E+000	9	...........
	86	1.16	1.97898E-001	-3.99751E-004	0.00000E+000	-7.91100E-005	-2.40040E-001	1.97934E-001	3.57720E+000	9	...........
	87	1.17333	1.93076E-001	-3.99661E-004	0.00000E+000	-7.71648E-005	-2.40040E-001	1.93113E-001	3.57720E+000	9	...........
	88	1.18667	1.88310E-001	-3.96966E-004	0.00000E+000	-7.47526E-005	-2.40040E-001	1.88348E-001	3.57720E+000	9	...........
	89	1.2	1.83550E-001	-3.99258E-004	0.00000E+000	-7.32838E-005	-2.40040E-001	1.83587E-001	3.57720E+000	9	...........
	90	1.21333	1.78872E-001	-3.97676E-004	0.00000E+000	-7.11329E-005	-2.40040E-001	1.78904E-001	3.57720E+000	9	...........
	91	1.22667	1.74200E-001	-3.98747E-004	0.00000E+000	-6.94618E-005	-2.40040E-001	1.74238E-001	3.57720E+000	9	...........
	92	1.24	1.69568E-001	-3.97106E-004	0.00000E+000	-6.73366E-005	-2.40040E-001	1.69604E-001	3.57720E+000	9	...........
	93	1.25333	1.64992E-001	-3.97207E-004	0.00000E+000	-6.55358E-005	-2.40040E-001	1.65019E-001	3.57720E+000	9	...........
	94	1.26667	1.60418E-001	-3.99002E-004	0.00000E+000	-6.40069E-005	-2.40040E-001	1.60444E-001	3.57720E+000	9	...........
	95	1.28	1.55758E-001	-3.98134E-004	0.00000E+000	-6.20126E-005	-2.40040E-001	1.55773E-001	3.57720E+000	9	...........
	96	1.29333	1.51168E-001	-3.98347E-004	0.00000E+000	-6.02172E-005	-2.40040E-001	1.51188E-001	3.57720E+000	9	...........
	97	1.30667	1.46616E-001	-3.98988E-004	0.00000E+000	-5.84980E-005	-2.40040E-001	1.46639E-001	3.57720E+000	9	...........
	98	1.32	1.42132E-001	-3.99436E-004	0.00000E+000	-5.67726E-005	-2.40040E-001	1.42148E-001	3.57720E+000	9	...........
	99	1.33333	1.37704E-001	-3.98529E-004	0.00000E+000	-5.48790E-005	-2.40040E-001	1.37724E-001	3.57720E+000	9	...........
	100	1.34667	1.33187E-001	-3.97274E-004	0.00000E+000	-5.29116E-005	-2.40040E-001	1.33207E-001	3.57720E+000	9	...........
	101	1.36	1.28705E-001	-3.98630E-004	0.00000E+000	-5.13058E-005	-2.40040E-001	1.28725E-001	3.57720E+000	9	...........
	102	1.37333	1.24146E-001	-3.99828E-004	0.00000E+000	-4.96369E-005	-2.40040E-001	1.24169E-001	3.57720E+000	9	...........
	103	1.38667	1.19729E-001	-3.98779E-004	0.00000E+000	-4.77453E-005	-2.40040E-001	1.19747E-001	3.57720E+000	9	...........
	104	1.4	1.15337E-001	-3.98680E-004	0.00000E+000	-4.59824E-005	-2.40040E-001	1.15356E-001	3.57720E+000	9	...........
	105	1.41333	1.10954E-001	-3.97898E-004	0.00000E+000	-4.41484E-005	-2.40040E-001	1.10977E-001	3.57720E+000	9	...........
	106	1.42667	1.06498E-001	-3.98456E-004	0.00000E+000	-4.24349E-005	-2.40040E-001	1.06517E-001	3.57720E+000	9	...........
	107	1.44	1.02072E-001	-3.98693E-004	0.00000E+000	-4.06955E-005	-2.40040E-001	1.02090E-001	3.57720E+000	9	...........
	108	1.45333	9.78035E-002	-3.97824E-004	0.00000E+000	-3.89086E-005	-2.40040E-001	9.78207E-002	3.57720E+000	9	...........
	109	1.46667	9.34731E-002	-3.98870E-004	0.00000E+000	-3.72836E-005	-2.40040E-001	9.34862E-002	3.57720E+000	9	...........
	110	1.48	8.91928E-002	-3.99202E-004	0.00000E+000	-3.56060E-005	-2.40040E-001	8.92102E-002	3.57720E+000	9	...........
	111	1.49333	8.48954E-002	-3.98351E-004	0.00000E+000	-3.38182E-005	-2.40040E-001	8.49130E-002	3.57720E+000	9	...........
	112	1.50667	8.07112E-002	-3.99729E-004	0.00000E+000	-3.22626E-005	-2.40040E-001	8.07265E-002	3.57720E+000	9	...........
	113	1.52	7.64326E-002	-3.98474E-004	0.00000E+000	-3.04564E-005	-2.40040E-001	7.64433E-002	3.57720E+000	9	...........
	114	1.53333	7.20837E-002	-3.99345E-004	0.00000E+000	-2.87862E-005	-2.40040E-001	7.20940E-002	3.57720E+000	9	...........
	115	1.54667	6.78056E-002	-3.98596E-004	0.00000E+000	-2.70270E-005	-2.40040E-001	6.78122E-002	3.57720E+000	9	...........
	116	1.56	6.36074E-002	-3.98834E-004	0.00000E+000	-2.53688E-005	-2.40040E-001	6.36144E-002	3.57720E+000	9	...........
	117	1.57333	5.93813E-002	-3.98171E-004	0.00000E+000	-2.36439E-005	-2.40040E-001	5.93833E-002	3.57720E+000	9	...........
	118	1.58667	5.51929E-002	-3.98138E-004	0.00000E+000	-2.19744E-005	-2.40040E-001	5.52001E-002	3.57720E+000	9	...........
	119	1.6	5.10431E-002	-3.99734E-004	0.00000E+000	-2.04036E-005	-2.40040E-001	5.10514E-002	3.57720E+000	9	...........
	120	1.61333	4.69828E-002	-3.98992E-004	0.00000E+000	-1.87458E-005	-2.40040E-001	4.69940E-002	3.57720E+000	9	...........
	121	1.62667	4.28334E-002	-3.98929E-004	0.00000E+000	-1.70875E-005	-2.40040E-001	4.28386E-002	3.57720E+000	9	...........
	122	1.64	3.88029E-002	-3.99488E-004	0.00000E+000	-1.55013E-005	-2.40040E-001	3.88066E-002	3.57720E+000	9	...........
	123	1.65333	3.46866E-002	-3.99187E-004	0.00000E+000	-1.38464E-005	-2.40040E-001	3.46889E-002	3.57720E+000	9	...........
	124	1.66667	3.06762E-002	-3.99248E-004	0.00000E+000	-1.22474E-005	-2.40040E-001	3.06782E-002	3.57697E+000	9	...........
	125	1.68	2.65732E-002	-3.99258E-004	0.00000E+000	-1.06096E-005	-2.40040E-001	2.65711E-002	3.57630E+000	9	...........
	126	1.69333	2.24918E-002	-3.99038E-004	0.00000E+000	-8.97507E-006	-2.40040E-001	2.24907E-002	3.57630E+000	9	...........
	127	1.70667	1.85466E-002	-3.99020E-004	0.00000E+000	-7.40045E-006	-2.40040E-001	1.85365E-002	3.57630E+000	9	...........
	128	1.72	1.45416E-002	-3.99552E-004	0.00000E+000	-5.81011E-006	-2.40040E-001	1.45345E-002	3.57630E+000	9	...........
	129	1.73333	1.05319E-002	-3.98135E-004	0.00000E+000	-4.19312E-006	-2.40040E-001	1.05192E-002	3.57630E+000	9	...........
	130	1.74667	6.61798E-003	-3.97820E-004	0.00000E+000	-2.63276E-006	-2.40040E-001	6.60651E-003	3.57630E+000	9	...........
	131	1.76	2.71152E-003	-3.99076E-004	0.00000E+000	-1.08210E-006	-2.40040E-001	2.69534E-003	3.57630E+000	9	...........
	132	1.765	5.94311E-005	-3.98084E-004	0.00000E+000	-2.36586E-008	-2.40040E-001	4.18184E-005	3.57630E+000	9	...........
STARTTIMEOFFSET	QUANT	263.8299	Start Time Offset (s)
