EXPLAIN
TAG	PWR800_DISCHARGE
TITLE	LABEL	PWR Cyclic Charge Discharge (Cell) - Discharge Step	Test &Identifier
DATE	LABEL	12-7-2017	Date
TIME	LABEL	15:19:05	Time
NOTES	NOTES	3	&Notes...
	supercap test cell
	0.4mg
	6M KOH
PSTAT	PSTAT	IFC5000-01520	Potentiostat
CAPACITY	QUANT	1.00000E-003	Capacity (A-hr)
CELLTYPE	SELECTOR	1	&Cell Type
WORKINGCONNECTION	SELECTOR	0	&Working Lead
MAXDISCHARGETIME	VARIABLEANDUNITS	1.00000E+002	s	1.00000E+002	second(s)	Max &Discharge Time
DISCHARGEMODE	MULTIPARAM	0	4.00000E-004	&Discharge Mode	Constant Current	Amp(s)
SAMPLETIME	QUANT	1.00000E-002	Sa&mple Period (s)
DISCHARGESTOPAT1	MULTIPARAM	3	0.00000E+000	Discharge Stop At &1	Voltage < Limit	V
DISCHARGESTOPAT2	MULTIPARAM	0	0.00000E+000	Discharge Stop At &2	None	N/A
AESBHCSELECTOR	TOGGLE	F	Save Both Half Cells
IRCOMP	TOGGLE	F	IR &Measure
EOC	QUANT	0	Open Circuit (V)
SEQUENCER	TOGGLE	TRUE	Run as Sequence
PSTATMODEL	IQUANT	53	Pstat Model
PSTATSECTION	LABEL	IFC5000-01520	Pstat Section
PSTATSERIALNO	LABEL	01520	Pstat Serial Number
CTRLMODE	IQUANT	0	Control Mode
ELECTROMETER	IQUANT	1	RE=0 or CS=1
IESTAB	IQUANT	0	I/E Stability
CASPEED	IQUANT	4	Control Amp Speed
CONVENTION	IQUANT	1	Current Convention
ICHRANGE	IQUANT	2	Ich Range
ICHRANGEMODE	TOGGLE	T	Ich Auto Range
ICHOFFSETENABLE	TOGGLE	F	Ich Offset Enable
ICHOFFSET	QUANT	0	Ich Offset (V)
ICHFILTER	IQUANT	1	Ich Filter
VCHRANGE	IQUANT	2	Vch Range
VCHRANGEMODE	TOGGLE	T	Vch Auto Range
VCHOFFSETENABLE	TOGGLE	F	Vch Offset Enable
VCHOFFSET	QUANT	0	Vch Offset (V)
VCHFILTER	IQUANT	1	Vch Filter
IERANGELOWERLIMIT	IQUANT	9	I/E Range Lower Limit
IERANGEMODE	TOGGLE	F	I/E AutoRange
IERANGE	IQUANT	9	I/E Range
ACHSELECT	IQUANT	1	Ach Select
ACHRANGE	IQUANT	2	Ach Range
ACHOFFSETENABLE	TOGGLE	F	Ach Offset Enable
ACHOFFSET	QUANT	0	Ach Offset (V)
ACHFILTER	IQUANT	1	Ach Filter
CABLEID	IQUANT	14	Cable ID
DCCALDATE	LABEL	5-7-2017	DC Calibration Date
ACCALDATE	LABEL	12/3/2015	AC Calibration Date
FRAMEWORKVERSION	QUANT	7.01	Framework Version
INSTRUMENTVERSION	LABEL	4.00	Instrument Version
CURVE	TABLE	103
	Pt	T	Vf	Im	Vu	Pwr	Sig	Ach	Temp	IERange	Over
	#	s	V	A	V	W	V	V	deg C	#	bits
	0	0.013333	6.83944E-001	-3.99129E-004	0.00000E+000	-2.72982E-004	-2.40040E-001	6.84154E-001	3.57780E+000	9	...........
	1	0.026667	6.70280E-001	-3.97584E-004	0.00000E+000	-2.66493E-004	-2.40040E-001	6.70463E-001	3.57780E+000	9	...........
	2	0.04	6.58391E-001	-3.99052E-004	0.00000E+000	-2.62732E-004	-2.40040E-001	6.58574E-001	3.57780E+000	9	...........
	3	0.053333	6.47527E-001	-3.97859E-004	0.00000E+000	-2.57625E-004	-2.40040E-001	6.47707E-001	3.57780E+000	9	...........
	4	0.066667	6.37281E-001	-3.98850E-004	0.00000E+000	-2.54179E-004	-2.40040E-001	6.37504E-001	3.57742E+000	9	...........
	5	0.08	6.27582E-001	-3.96646E-004	0.00000E+000	-2.48928E-004	-2.40040E-001	6.27781E-001	3.57680E+000	9	...........
	6	0.093333	6.18170E-001	-3.98159E-004	0.00000E+000	-2.46130E-004	-2.40040E-001	6.18333E-001	3.57680E+000	9	...........
	7	0.106667	6.08969E-001	-4.00172E-004	0.00000E+000	-2.43692E-004	-2.40040E-001	6.09195E-001	3.57680E+000	9	...........
	8	0.12	6.00073E-001	-3.99156E-004	0.00000E+000	-2.39523E-004	-2.40040E-001	6.00288E-001	3.57680E+000	9	...........
	9	0.133333	5.91274E-001	-3.99566E-004	0.00000E+000	-2.36253E-004	-2.40040E-001	5.91488E-001	3.57680E+000	9	...........
	10	0.146667	5.82617E-001	-3.98257E-004	0.00000E+000	-2.32031E-004	-2.40040E-001	5.82835E-001	3.57680E+000	9	...........
	11	0.16	5.74175E-001	-3.99390E-004	0.00000E+000	-2.29320E-004	-2.40040E-001	5.74381E-001	3.57680E+000	9	...........
	12	0.173333	5.65722E-001	-3.99782E-004	0.00000E+000	-2.26166E-004	-2.40040E-001	5.65943E-001	3.57680E+000	9	...........
	13	0.186667	5.57289E-001	-4.00043E-004	0.00000E+000	-2.22939E-004	-2.40040E-001	5.57542E-001	3.57680E+000	9	...........
	14	0.2	5.48999E-001	-3.99133E-004	0.00000E+000	-2.19124E-004	-2.40040E-001	5.49234E-001	3.57680E+000	9	...........
	15	0.213333	5.40750E-001	-3.98844E-004	0.00000E+000	-2.15675E-004	-2.40040E-001	5.40984E-001	3.57680E+000	9	...........
	16	0.226667	5.32613E-001	-3.99404E-004	0.00000E+000	-2.12728E-004	-2.40040E-001	5.32831E-001	3.57680E+000	9	...........
	17	0.24	5.24532E-001	-3.99376E-004	0.00000E+000	-2.09485E-004	-2.40040E-001	5.24770E-001	3.57680E+000	9	...........
	18	0.253333	5.16505E-001	-3.99056E-004	0.00000E+000	-2.06115E-004	-2.40040E-001	5.16726E-001	3.57680E+000	9	...........
	19	0.266667	5.08472E-001	-3.99841E-004	0.00000E+000	-2.03308E-004	-2.40040E-001	5.08701E-001	3.57680E+000	9	...........
	20	0.28	5.00600E-001	-3.98770E-004	0.00000E+000	-1.99624E-004	-2.40040E-001	5.00833E-001	3.57680E+000	9	...........
	21	0.293333	4.92837E-001	-3.98729E-004	0.00000E+000	-1.96509E-004	-2.40040E-001	4.93029E-001	3.57680E+000	9	...........
	22	0.306667	4.85134E-001	-3.98530E-004	0.00000E+000	-1.93340E-004	-2.40040E-001	4.85280E-001	3.57680E+000	9	...........
	23	0.32	4.77495E-001	-3.98993E-004	0.00000E+000	-1.90517E-004	-2.40040E-001	4.77590E-001	3.57680E+000	9	...........
	24	0.333333	4.69750E-001	-3.99210E-004	0.00000E+000	-1.87529E-004	-2.40040E-001	4.69846E-001	3.57680E+000	9	...........
	25	0.346667	4.62060E-001	-3.99233E-004	0.00000E+000	-1.84470E-004	-2.40040E-001	4.62153E-001	3.57680E+000	9	...........
	26	0.36	4.54416E-001	-3.99700E-004	0.00000E+000	-1.81630E-004	-2.40040E-001	4.54503E-001	3.57680E+000	9	...........
	27	0.373333	4.46844E-001	-3.98147E-004	0.00000E+000	-1.77910E-004	-2.40040E-001	4.46937E-001	3.57680E+000	9	...........
	28	0.386667	4.39271E-001	-3.99254E-004	0.00000E+000	-1.75381E-004	-2.40040E-001	4.39360E-001	3.57680E+000	9	...........
	29	0.4	4.31811E-001	-3.99574E-004	0.00000E+000	-1.72540E-004	-2.40040E-001	4.31900E-001	3.57680E+000	9	...........
	30	0.413333	4.24287E-001	-3.99034E-004	0.00000E+000	-1.69305E-004	-2.40040E-001	4.24368E-001	3.57680E+000	9	...........
	31	0.426667	4.16840E-001	-3.98343E-004	0.00000E+000	-1.66045E-004	-2.40040E-001	4.16928E-001	3.57680E+000	9	...........
	32	0.44	4.09469E-001	-3.98167E-004	0.00000E+000	-1.63037E-004	-2.40040E-001	4.09550E-001	3.57680E+000	9	...........
	33	0.453333	4.02166E-001	-3.98391E-004	0.00000E+000	-1.60219E-004	-2.40040E-001	4.02240E-001	3.57680E+000	9	...........
	34	0.466667	3.94938E-001	-3.97589E-004	0.00000E+000	-1.57023E-004	-2.40040E-001	3.95012E-001	3.57680E+000	9	...........
	35	0.48	3.87723E-001	-3.98720E-004	0.00000E+000	-1.54593E-004	-2.40040E-001	3.87795E-001	3.57680E+000	9	...........
	36	0.493333	3.80498E-001	-3.97655E-004	0.00000E+000	-1.51307E-004	-2.40040E-001	3.80575E-001	3.57680E+000	9	...........
	37	0.506667	3.73346E-001	-3.98235E-004	0.00000E+000	-1.48680E-004	-2.40040E-001	3.73417E-001	3.57680E+000	9	...........
	38	0.52	3.66246E-001	-3.99252E-004	0.00000E+000	-1.46224E-004	-2.40040E-001	3.66316E-001	3.57680E+000	9	...........
	39	0.533333	3.59185E-001	-3.98192E-004	0.00000E+000	-1.43024E-004	-2.40040E-001	3.59258E-001	3.57680E+000	9	...........
	40	0.546667	3.52146E-001	-3.98273E-004	0.00000E+000	-1.40250E-004	-2.40040E-001	3.52218E-001	3.57680E+000	9	...........
	41	0.56	3.45201E-001	-3.99616E-004	0.00000E+000	-1.37948E-004	-2.40040E-001	3.45264E-001	3.57680E+000	9	...........
	42	0.573333	3.38204E-001	-4.00202E-004	0.00000E+000	-1.35350E-004	-2.40040E-001	3.38269E-001	3.57680E+000	9	...........
	43	0.586667	3.31292E-001	-3.98907E-004	0.00000E+000	-1.32155E-004	-2.40040E-001	3.31354E-001	3.57680E+000	9	...........
	44	0.6	3.24462E-001	-3.98311E-004	0.00000E+000	-1.29237E-004	-2.40040E-001	3.24524E-001	3.57680E+000	9	...........
	45	0.613333	3.17708E-001	-3.98562E-004	0.00000E+000	-1.26626E-004	-2.40040E-001	3.17768E-001	3.57680E+000	9	...........
	46	0.626667	3.10960E-001	-3.97795E-004	0.00000E+000	-1.23698E-004	-2.40040E-001	3.11015E-001	3.57680E+000	9	...........
	47	0.64	3.04243E-001	-3.99967E-004	0.00000E+000	-1.21687E-004	-2.40040E-001	3.04304E-001	3.57680E+000	9	...........
	48	0.653333	2.97627E-001	-3.97398E-004	0.00000E+000	-1.18276E-004	-2.40040E-001	2.97685E-001	3.57680E+000	9	...........
	49	0.666667	2.91127E-001	-3.99114E-004	0.00000E+000	-1.16193E-004	-2.40040E-001	2.91184E-001	3.57680E+000	9	...........
	50	0.68	2.84589E-001	-3.98174E-004	0.00000E+000	-1.13316E-004	-2.40040E-001	2.84643E-001	3.57680E+000	9	...........
	51	0.693333	2.78055E-001	-3.99588E-004	0.00000E+000	-1.11107E-004	-2.40040E-001	2.78111E-001	3.57680E+000	9	...........
	52	0.706667	2.71574E-001	-3.98844E-004	0.00000E+000	-1.08316E-004	-2.40040E-001	2.71628E-001	3.57680E+000	9	...........
	53	0.72	2.65115E-001	-3.97736E-004	0.00000E+000	-1.05446E-004	-2.40040E-001	2.65170E-001	3.57680E+000	9	...........
	54	0.733333	2.58682E-001	-3.98404E-004	0.00000E+000	-1.03060E-004	-2.40040E-001	2.58737E-001	3.57680E+000	9	...........
	55	0.746667	2.52314E-001	-3.97645E-004	0.00000E+000	-1.00331E-004	-2.40040E-001	2.52365E-001	3.57680E+000	9	...........
	56	0.76	2.46049E-001	-3.98650E-004	0.00000E+000	-9.80874E-005	-2.40040E-001	2.46094E-001	3.57680E+000	9	...........
	57	0.773333	2.39866E-001	-3.98876E-004	0.00000E+000	-9.56768E-005	-2.40040E-001	2.39909E-001	3.57680E+000	9	...........
	58	0.786667	2.33627E-001	-3.98797E-004	0.00000E+000	-9.31697E-005	-2.40040E-001	2.33669E-001	3.57680E+000	9	...........
	59	0.8	2.27450E-001	-3.99923E-004	0.00000E+000	-9.09627E-005	-2.40040E-001	2.27483E-001	3.57680E+000	9	...........
	60	0.813333	2.21293E-001	-3.98306E-004	0.00000E+000	-8.81425E-005	-2.40040E-001	2.21340E-001	3.57680E+000	9	...........
	61	0.826667	2.15255E-001	-3.99121E-004	0.00000E+000	-8.59128E-005	-2.40040E-001	2.15292E-001	3.57680E+000	9	...........
	62	0.84	2.09171E-001	-4.00035E-004	0.00000E+000	-8.36758E-005	-2.40040E-001	2.09205E-001	3.57680E+000	9	...........
	63	0.853333	2.03195E-001	-3.99628E-004	0.00000E+000	-8.12026E-005	-2.40040E-001	2.03233E-001	3.57680E+000	9	...........
	64	0.866667	1.97270E-001	-3.98186E-004	0.00000E+000	-7.85501E-005	-2.40040E-001	1.97305E-001	3.57680E+000	9	...........
	65	0.88	1.91400E-001	-3.98961E-004	0.00000E+000	-7.63612E-005	-2.40040E-001	1.91435E-001	3.57680E+000	9	...........
	66	0.893333	1.85502E-001	-3.99363E-004	0.00000E+000	-7.40825E-005	-2.40040E-001	1.85536E-001	3.57680E+000	9	...........
	67	0.906667	1.79683E-001	-3.98960E-004	0.00000E+000	-7.16862E-005	-2.40040E-001	1.79714E-001	3.57680E+000	9	...........
	68	0.92	1.73867E-001	-3.98436E-004	0.00000E+000	-6.92750E-005	-2.40040E-001	1.73904E-001	3.57680E+000	9	...........
	69	0.933333	1.68150E-001	-3.98512E-004	0.00000E+000	-6.70097E-005	-2.40040E-001	1.68180E-001	3.57680E+000	9	...........
	70	0.946667	1.62506E-001	-3.99870E-004	0.00000E+000	-6.49812E-005	-2.40040E-001	1.62533E-001	3.57680E+000	9	...........
	71	0.96	1.56833E-001	-3.99110E-004	0.00000E+000	-6.25937E-005	-2.40040E-001	1.56863E-001	3.57680E+000	9	...........
	72	0.97333	1.51100E-001	-3.99336E-004	0.00000E+000	-6.03397E-005	-2.40040E-001	1.51127E-001	3.57680E+000	9	...........
	73	0.98667	1.45472E-001	-4.00207E-004	0.00000E+000	-5.82187E-005	-2.40040E-001	1.45494E-001	3.57680E+000	9	...........
	74	1	1.39913E-001	-3.99424E-004	0.00000E+000	-5.58848E-005	-2.40040E-001	1.39941E-001	3.57680E+000	9	...........
	75	1.01333	1.34341E-001	-3.99493E-004	0.00000E+000	-5.36682E-005	-2.40040E-001	1.34365E-001	3.57680E+000	9	...........
	76	1.02667	1.28903E-001	-3.99681E-004	0.00000E+000	-5.15202E-005	-2.40040E-001	1.28926E-001	3.57680E+000	9	...........
	77	1.04	1.23520E-001	-3.97682E-004	0.00000E+000	-4.91218E-005	-2.40040E-001	1.23540E-001	3.57680E+000	9	...........
	78	1.05333	1.18111E-001	-3.98815E-004	0.00000E+000	-4.71046E-005	-2.40040E-001	1.18131E-001	3.57680E+000	9	...........
	79	1.06667	1.12659E-001	-3.99679E-004	0.00000E+000	-4.50276E-005	-2.40040E-001	1.12682E-001	3.57684E+000	9	...........
	80	1.08	1.07380E-001	-3.99433E-004	0.00000E+000	-4.28913E-005	-2.40040E-001	1.07403E-001	3.57690E+000	9	...........
	81	1.09333	1.02198E-001	-3.98642E-004	0.00000E+000	-4.07405E-005	-2.40040E-001	1.02217E-001	3.57690E+000	9	...........
	82	1.10667	9.69410E-002	-3.98525E-004	0.00000E+000	-3.86334E-005	-2.40040E-001	9.69520E-002	3.57690E+000	9	...........
	83	1.12	9.16513E-002	-3.98624E-004	0.00000E+000	-3.65344E-005	-2.40040E-001	9.16630E-002	3.57690E+000	9	...........
	84	1.13333	8.64152E-002	-3.99325E-004	0.00000E+000	-3.45077E-005	-2.40040E-001	8.64295E-002	3.57690E+000	9	...........
	85	1.14667	8.13034E-002	-3.99306E-004	0.00000E+000	-3.24649E-005	-2.40040E-001	8.13130E-002	3.57690E+000	9	...........
	86	1.16	7.61984E-002	-3.99141E-004	0.00000E+000	-3.04139E-005	-2.40040E-001	7.62091E-002	3.57690E+000	9	...........
	87	1.17333	7.11156E-002	-3.99548E-004	0.00000E+000	-2.84141E-005	-2.40040E-001	7.11191E-002	3.57690E+000	9	...........
	88	1.18667	6.60841E-002	-3.98742E-004	0.00000E+000	-2.63505E-005	-2.40040E-001	6.60874E-002	3.57690E+000	9	...........
	89	1.2	6.10192E-002	-3.98870E-004	0.00000E+000	-2.43387E-005	-2.40040E-001	6.10235E-002	3.57690E+000	9	...........
	90	1.21333	5.60556E-002	-4.00279E-004	0.00000E+000	-2.24379E-005	-2.40040E-001	5.60587E-002	3.57690E+000	9	...........
	91	1.22667	5.11739E-002	-3.97605E-004	0.00000E+000	-2.03470E-005	-2.40040E-001	5.11713E-002	3.57690E+000	9	...........
	92	1.24	4.62454E-002	-3.99386E-004	0.00000E+000	-1.84697E-005	-2.40040E-001	4.62527E-002	3.57690E+000	9	...........
	93	1.25333	4.13728E-002	-3.97713E-004	0.00000E+000	-1.64545E-005	-2.40040E-001	4.13758E-002	3.57690E+000	9	...........
	94	1.26667	3.65777E-002	-3.97845E-004	0.00000E+000	-1.45522E-005	-2.40040E-001	3.65817E-002	3.57690E+000	9	...........
	95	1.28	3.17884E-002	-4.00122E-004	0.00000E+000	-1.27193E-005	-2.40040E-001	3.17889E-002	3.57690E+000	9	...........
	96	1.29333	2.69461E-002	-3.99563E-004	0.00000E+000	-1.07666E-005	-2.40040E-001	2.69455E-002	3.57690E+000	9	...........
	97	1.30667	2.22353E-002	-3.98305E-004	0.00000E+000	-8.85645E-006	-2.40040E-001	2.22255E-002	3.57690E+000	9	...........
	98	1.32	1.74954E-002	-3.99690E-004	0.00000E+000	-6.99273E-006	-2.40040E-001	1.74871E-002	3.57690E+000	9	...........
	99	1.33333	1.27652E-002	-3.98809E-004	0.00000E+000	-5.09087E-006	-2.40040E-001	1.27500E-002	3.57690E+000	9	...........
	100	1.34667	8.03222E-003	-3.97970E-004	0.00000E+000	-3.19658E-006	-2.40040E-001	8.01836E-003	3.57690E+000	9	...........
	101	1.36	3.42886E-003	-3.97685E-004	0.00000E+000	-1.36361E-006	-2.40040E-001	3.41352E-003	3.57690E+000	9	...........
	102	1.365	2.72099E-004	-3.98962E-004	0.00000E+000	-1.08557E-007	-2.40040E-001	2.58990E-004	3.57690E+000	9	...........
STARTTIMEOFFSET	QUANT	2863.954	Start Time Offset (s)
