EXPLAIN
TAG	PWR800_DISCHARGE
TITLE	LABEL	PWR Cyclic Charge Discharge (Cell) - Discharge Step	Test &Identifier
DATE	LABEL	12-7-2017	Date
TIME	LABEL	15:02:36	Time
NOTES	NOTES	3	&Notes...
	supercap test cell
	0.4mg
	6M KOH
PSTAT	PSTAT	IFC5000-01520	Potentiostat
CAPACITY	QUANT	1.00000E-003	Capacity (A-hr)
CELLTYPE	SELECTOR	1	&Cell Type
WORKINGCONNECTION	SELECTOR	0	&Working Lead
MAXDISCHARGETIME	VARIABLEANDUNITS	1.00000E+002	s	1.00000E+002	second(s)	Max &Discharge Time
DISCHARGEMODE	MULTIPARAM	0	4.00000E-004	&Discharge Mode	Constant Current	Amp(s)
SAMPLETIME	QUANT	1.00000E-002	Sa&mple Period (s)
DISCHARGESTOPAT1	MULTIPARAM	3	0.00000E+000	Discharge Stop At &1	Voltage < Limit	V
DISCHARGESTOPAT2	MULTIPARAM	0	0.00000E+000	Discharge Stop At &2	None	N/A
AESBHCSELECTOR	TOGGLE	F	Save Both Half Cells
IRCOMP	TOGGLE	F	IR &Measure
EOC	QUANT	0	Open Circuit (V)
SEQUENCER	TOGGLE	TRUE	Run as Sequence
PSTATMODEL	IQUANT	53	Pstat Model
PSTATSECTION	LABEL	IFC5000-01520	Pstat Section
PSTATSERIALNO	LABEL	01520	Pstat Serial Number
CTRLMODE	IQUANT	0	Control Mode
ELECTROMETER	IQUANT	1	RE=0 or CS=1
IESTAB	IQUANT	0	I/E Stability
CASPEED	IQUANT	4	Control Amp Speed
CONVENTION	IQUANT	1	Current Convention
ICHRANGE	IQUANT	2	Ich Range
ICHRANGEMODE	TOGGLE	T	Ich Auto Range
ICHOFFSETENABLE	TOGGLE	F	Ich Offset Enable
ICHOFFSET	QUANT	0	Ich Offset (V)
ICHFILTER	IQUANT	1	Ich Filter
VCHRANGE	IQUANT	2	Vch Range
VCHRANGEMODE	TOGGLE	T	Vch Auto Range
VCHOFFSETENABLE	TOGGLE	F	Vch Offset Enable
VCHOFFSET	QUANT	0	Vch Offset (V)
VCHFILTER	IQUANT	1	Vch Filter
IERANGELOWERLIMIT	IQUANT	9	I/E Range Lower Limit
IERANGEMODE	TOGGLE	F	I/E AutoRange
IERANGE	IQUANT	9	I/E Range
ACHSELECT	IQUANT	1	Ach Select
ACHRANGE	IQUANT	2	Ach Range
ACHOFFSETENABLE	TOGGLE	F	Ach Offset Enable
ACHOFFSET	QUANT	0	Ach Offset (V)
ACHFILTER	IQUANT	1	Ach Filter
CABLEID	IQUANT	14	Cable ID
DCCALDATE	LABEL	5-7-2017	DC Calibration Date
ACCALDATE	LABEL	12/3/2015	AC Calibration Date
FRAMEWORKVERSION	QUANT	7.01	Framework Version
INSTRUMENTVERSION	LABEL	4.00	Instrument Version
CURVE	TABLE	108
	Pt	T	Vf	Im	Vu	Pwr	Sig	Ach	Temp	IERange	Over
	#	s	V	A	V	W	V	V	deg C	#	bits
	0	0.013333	6.87364E-001	-3.98495E-004	0.00000E+000	-2.73911E-004	-2.40040E-001	6.87612E-001	3.57650E+000	9	...........
	1	0.026667	6.74398E-001	-3.99225E-004	0.00000E+000	-2.69237E-004	-2.40040E-001	6.74625E-001	3.57650E+000	9	...........
	2	0.04	6.62971E-001	-3.98745E-004	0.00000E+000	-2.64356E-004	-2.40040E-001	6.63207E-001	3.57650E+000	9	...........
	3	0.053333	6.52580E-001	-3.98819E-004	0.00000E+000	-2.60261E-004	-2.40040E-001	6.52795E-001	3.57650E+000	9	...........
	4	0.066667	6.42816E-001	-3.99364E-004	0.00000E+000	-2.56718E-004	-2.40040E-001	6.43027E-001	3.57650E+000	9	...........
	5	0.08	6.33518E-001	-3.99743E-004	0.00000E+000	-2.53244E-004	-2.40040E-001	6.33729E-001	3.57650E+000	9	...........
	6	0.093333	6.24506E-001	-3.98520E-004	0.00000E+000	-2.48878E-004	-2.40040E-001	6.24702E-001	3.57650E+000	9	...........
	7	0.106667	6.15688E-001	-3.99539E-004	0.00000E+000	-2.45991E-004	-2.40040E-001	6.15889E-001	3.57650E+000	9	...........
	8	0.12	6.07019E-001	-3.98334E-004	0.00000E+000	-2.41797E-004	-2.40040E-001	6.07285E-001	3.57650E+000	9	...........
	9	0.133333	5.98586E-001	-3.98359E-004	0.00000E+000	-2.38452E-004	-2.40040E-001	5.98811E-001	3.57650E+000	9	...........
	10	0.146667	5.90283E-001	-3.98330E-004	0.00000E+000	-2.35128E-004	-2.40040E-001	5.90532E-001	3.57650E+000	9	...........
	11	0.16	5.82089E-001	-3.99395E-004	0.00000E+000	-2.32483E-004	-2.40040E-001	5.82345E-001	3.57650E+000	9	...........
	12	0.173333	5.74020E-001	-3.98956E-004	0.00000E+000	-2.29009E-004	-2.40040E-001	5.74231E-001	3.57650E+000	9	...........
	13	0.186667	5.66013E-001	-3.97979E-004	0.00000E+000	-2.25261E-004	-2.40040E-001	5.66215E-001	3.57650E+000	9	...........
	14	0.2	5.58001E-001	-3.99287E-004	0.00000E+000	-2.22802E-004	-2.40040E-001	5.58230E-001	3.57650E+000	9	...........
	15	0.213333	5.50122E-001	-3.98584E-004	0.00000E+000	-2.19270E-004	-2.40040E-001	5.50352E-001	3.57650E+000	9	...........
	16	0.226667	5.42243E-001	-3.98505E-004	0.00000E+000	-2.16087E-004	-2.40040E-001	5.42466E-001	3.57650E+000	9	...........
	17	0.24	5.34376E-001	-4.00035E-004	0.00000E+000	-2.13769E-004	-2.40040E-001	5.34596E-001	3.57650E+000	9	...........
	18	0.253333	5.26599E-001	-3.99560E-004	0.00000E+000	-2.10407E-004	-2.40040E-001	5.26817E-001	3.57650E+000	9	...........
	19	0.266667	5.18939E-001	-3.99491E-004	0.00000E+000	-2.07312E-004	-2.40040E-001	5.19121E-001	3.57650E+000	9	...........
	20	0.28	5.11253E-001	-3.99959E-004	0.00000E+000	-2.04480E-004	-2.40040E-001	5.11435E-001	3.57650E+000	9	...........
	21	0.293333	5.03598E-001	-3.98974E-004	0.00000E+000	-2.00922E-004	-2.40040E-001	5.03801E-001	3.57650E+000	9	...........
	22	0.306667	4.96067E-001	-3.99092E-004	0.00000E+000	-1.97976E-004	-2.40040E-001	4.96253E-001	3.57650E+000	9	...........
	23	0.32	4.88589E-001	-3.98772E-004	0.00000E+000	-1.94836E-004	-2.40040E-001	4.88776E-001	3.57650E+000	9	...........
	24	0.333333	4.81416E-001	-3.97822E-004	0.00000E+000	-1.91518E-004	-2.40040E-001	4.81487E-001	3.57650E+000	9	...........
	25	0.346667	4.74013E-001	-3.98957E-004	0.00000E+000	-1.89111E-004	-2.40040E-001	4.74110E-001	3.57650E+000	9	...........
	26	0.36	4.66610E-001	-3.99140E-004	0.00000E+000	-1.86243E-004	-2.40040E-001	4.66704E-001	3.57650E+000	9	...........
	27	0.373333	4.59260E-001	-3.98830E-004	0.00000E+000	-1.83167E-004	-2.40040E-001	4.59349E-001	3.57650E+000	9	...........
	28	0.386667	4.51955E-001	-3.99289E-004	0.00000E+000	-1.80460E-004	-2.40040E-001	4.52044E-001	3.57650E+000	9	...........
	29	0.4	4.44685E-001	-3.98889E-004	0.00000E+000	-1.77380E-004	-2.40040E-001	4.44773E-001	3.57650E+000	9	...........
	30	0.413333	4.37529E-001	-3.97860E-004	0.00000E+000	-1.74075E-004	-2.40040E-001	4.37615E-001	3.57650E+000	9	...........
	31	0.426667	4.30416E-001	-3.99227E-004	0.00000E+000	-1.71834E-004	-2.40040E-001	4.30502E-001	3.57650E+000	9	...........
	32	0.44	4.23256E-001	-3.98524E-004	0.00000E+000	-1.68677E-004	-2.40040E-001	4.23335E-001	3.57650E+000	9	...........
	33	0.453333	4.16221E-001	-3.98346E-004	0.00000E+000	-1.65800E-004	-2.40040E-001	4.16298E-001	3.57650E+000	9	...........
	34	0.466667	4.09251E-001	-3.98909E-004	0.00000E+000	-1.63254E-004	-2.40040E-001	4.09323E-001	3.57650E+000	9	...........
	35	0.48	4.02223E-001	-3.99200E-004	0.00000E+000	-1.60567E-004	-2.40040E-001	4.02294E-001	3.57650E+000	9	...........
	36	0.493333	3.95279E-001	-3.97883E-004	0.00000E+000	-1.57275E-004	-2.40040E-001	3.95346E-001	3.57643E+000	9	...........
	37	0.506667	3.88393E-001	-3.98922E-004	0.00000E+000	-1.54939E-004	-2.40040E-001	3.88460E-001	3.57620E+000	9	...........
	38	0.52	3.81589E-001	-3.99295E-004	0.00000E+000	-1.52366E-004	-2.40040E-001	3.81653E-001	3.57620E+000	9	...........
	39	0.533333	3.74719E-001	-3.99081E-004	0.00000E+000	-1.49543E-004	-2.40040E-001	3.74786E-001	3.57620E+000	9	...........
	40	0.546667	3.67942E-001	-3.97913E-004	0.00000E+000	-1.46409E-004	-2.40040E-001	3.68007E-001	3.57620E+000	9	...........
	41	0.56	3.61222E-001	-4.00033E-004	0.00000E+000	-1.44501E-004	-2.40040E-001	3.61285E-001	3.57620E+000	9	...........
	42	0.573333	3.54474E-001	-3.99064E-004	0.00000E+000	-1.41458E-004	-2.40040E-001	3.54538E-001	3.57620E+000	9	...........
	43	0.586667	3.47863E-001	-3.98644E-004	0.00000E+000	-1.38674E-004	-2.40040E-001	3.47930E-001	3.57620E+000	9	...........
	44	0.6	3.41246E-001	-3.98120E-004	0.00000E+000	-1.35857E-004	-2.40040E-001	3.41309E-001	3.57620E+000	9	...........
	45	0.613333	3.34650E-001	-3.99149E-004	0.00000E+000	-1.33575E-004	-2.40040E-001	3.34721E-001	3.57620E+000	9	...........
	46	0.626667	3.28091E-001	-3.98144E-004	0.00000E+000	-1.30628E-004	-2.40040E-001	3.28153E-001	3.57620E+000	9	...........
	47	0.64	3.21606E-001	-3.99778E-004	0.00000E+000	-1.28571E-004	-2.40040E-001	3.21669E-001	3.57620E+000	9	...........
	48	0.653333	3.15177E-001	-3.99102E-004	0.00000E+000	-1.25788E-004	-2.40040E-001	3.15244E-001	3.57620E+000	9	...........
	49	0.666667	3.08719E-001	-3.98959E-004	0.00000E+000	-1.23166E-004	-2.40040E-001	3.08783E-001	3.57620E+000	9	...........
	50	0.68	3.02271E-001	-3.99582E-004	0.00000E+000	-1.20782E-004	-2.40040E-001	3.02332E-001	3.57620E+000	9	...........
	51	0.693333	2.95915E-001	-3.99305E-004	0.00000E+000	-1.18160E-004	-2.40040E-001	2.95971E-001	3.57620E+000	9	...........
	52	0.706667	2.89678E-001	-3.99065E-004	0.00000E+000	-1.15600E-004	-2.40040E-001	2.89735E-001	3.57620E+000	9	...........
	53	0.72	2.83536E-001	-3.99895E-004	0.00000E+000	-1.13385E-004	-2.40040E-001	2.83591E-001	3.57620E+000	9	...........
	54	0.733333	2.77276E-001	-3.99033E-004	0.00000E+000	-1.10642E-004	-2.40040E-001	2.77333E-001	3.57620E+000	9	...........
	55	0.746667	2.71050E-001	-3.97736E-004	0.00000E+000	-1.07806E-004	-2.40040E-001	2.71103E-001	3.57620E+000	9	...........
	56	0.76	2.64884E-001	-3.97987E-004	0.00000E+000	-1.05420E-004	-2.40040E-001	2.64940E-001	3.57620E+000	9	...........
	57	0.773333	2.58790E-001	-3.98137E-004	0.00000E+000	-1.03034E-004	-2.40040E-001	2.58851E-001	3.57620E+000	9	...........
	58	0.786667	2.52750E-001	-3.98303E-004	0.00000E+000	-1.00671E-004	-2.40040E-001	2.52802E-001	3.57620E+000	9	...........
	59	0.8	2.46756E-001	-3.98038E-004	0.00000E+000	-9.82186E-005	-2.40040E-001	2.46808E-001	3.57620E+000	9	...........
	60	0.813333	2.40815E-001	-3.99080E-004	0.00000E+000	-9.61047E-005	-2.40040E-001	2.40856E-001	3.57620E+000	9	...........
	61	0.826667	2.34872E-001	-3.97827E-004	0.00000E+000	-9.34382E-005	-2.40040E-001	2.34917E-001	3.57620E+000	9	...........
	62	0.84	2.28971E-001	-3.98285E-004	0.00000E+000	-9.11956E-005	-2.40040E-001	2.29012E-001	3.57620E+000	9	...........
	63	0.853333	2.23095E-001	-3.98729E-004	0.00000E+000	-8.89545E-005	-2.40040E-001	2.23137E-001	3.57620E+000	9	...........
	64	0.866667	2.17316E-001	-3.98503E-004	0.00000E+000	-8.66010E-005	-2.40040E-001	2.17361E-001	3.57620E+000	9	...........
	65	0.88	2.11457E-001	-3.97878E-004	0.00000E+000	-8.41341E-005	-2.40040E-001	2.11491E-001	3.57620E+000	9	...........
	66	0.893333	2.05655E-001	-3.98523E-004	0.00000E+000	-8.19583E-005	-2.40040E-001	2.05691E-001	3.57620E+000	9	...........
	67	0.906667	2.00061E-001	-3.99417E-004	0.00000E+000	-7.99076E-005	-2.40040E-001	2.00099E-001	3.57620E+000	9	...........
	68	0.92	1.94340E-001	-3.99523E-004	0.00000E+000	-7.76432E-005	-2.40040E-001	1.94372E-001	3.57620E+000	9	...........
	69	0.933333	1.88698E-001	-3.98013E-004	0.00000E+000	-7.51042E-005	-2.40040E-001	1.88730E-001	3.57620E+000	9	...........
	70	0.946667	1.83138E-001	-3.98940E-004	0.00000E+000	-7.30610E-005	-2.40040E-001	1.83173E-001	3.57620E+000	9	...........
	71	0.96	1.77520E-001	-3.99081E-004	0.00000E+000	-7.08450E-005	-2.40040E-001	1.77553E-001	3.57620E+000	9	...........
	72	0.97333	1.71993E-001	-3.99501E-004	0.00000E+000	-6.87114E-005	-2.40040E-001	1.72030E-001	3.57620E+000	9	...........
	73	0.98667	1.66544E-001	-3.99456E-004	0.00000E+000	-6.65272E-005	-2.40040E-001	1.66571E-001	3.57620E+000	9	...........
	74	1	1.61192E-001	-3.98868E-004	0.00000E+000	-6.42942E-005	-2.40040E-001	1.61221E-001	3.57620E+000	9	...........
	75	1.01333	1.55814E-001	-3.99749E-004	0.00000E+000	-6.22866E-005	-2.40040E-001	1.55837E-001	3.57620E+000	9	...........
	76	1.02667	1.50365E-001	-3.99263E-004	0.00000E+000	-6.00350E-005	-2.40040E-001	1.50390E-001	3.57620E+000	9	...........
	77	1.04	1.45038E-001	-3.98149E-004	0.00000E+000	-5.77466E-005	-2.40040E-001	1.45065E-001	3.57620E+000	9	...........
	78	1.05333	1.39691E-001	-3.98584E-004	0.00000E+000	-5.56786E-005	-2.40040E-001	1.39720E-001	3.57620E+000	9	...........
	79	1.06667	1.34459E-001	-3.97867E-004	0.00000E+000	-5.34969E-005	-2.40040E-001	1.34482E-001	3.57620E+000	9	...........
	80	1.08	1.29116E-001	-3.97432E-004	0.00000E+000	-5.13150E-005	-2.40040E-001	1.29137E-001	3.57620E+000	9	...........
	81	1.09333	1.23901E-001	-3.97526E-004	0.00000E+000	-4.92540E-005	-2.40040E-001	1.23924E-001	3.57620E+000	9	...........
	82	1.10667	1.18725E-001	-3.98807E-004	0.00000E+000	-4.73485E-005	-2.40040E-001	1.18747E-001	3.57620E+000	9	...........
	83	1.12	1.13541E-001	-3.98926E-004	0.00000E+000	-4.52946E-005	-2.40040E-001	1.13554E-001	3.57620E+000	9	...........
	84	1.13333	1.08449E-001	-3.98886E-004	0.00000E+000	-4.32587E-005	-2.40040E-001	1.08464E-001	3.57620E+000	9	...........
	85	1.14667	1.03305E-001	-3.99151E-004	0.00000E+000	-4.12344E-005	-2.40040E-001	1.03322E-001	3.57620E+000	9	...........
	86	1.16	9.83357E-002	-4.00242E-004	0.00000E+000	-3.93581E-005	-2.40040E-001	9.83458E-002	3.57620E+000	9	...........
	87	1.17333	9.32314E-002	-3.98368E-004	0.00000E+000	-3.71404E-005	-2.40040E-001	9.32431E-002	3.57620E+000	9	...........
	88	1.18667	8.82414E-002	-3.98119E-004	0.00000E+000	-3.51305E-005	-2.40040E-001	8.82583E-002	3.57620E+000	9	...........
	89	1.2	8.33167E-002	-3.98751E-004	0.00000E+000	-3.32226E-005	-2.40040E-001	8.33306E-002	3.57620E+000	9	...........
	90	1.21333	7.83895E-002	-4.00013E-004	0.00000E+000	-3.13568E-005	-2.40040E-001	7.83969E-002	3.57620E+000	9	...........
	91	1.22667	7.35715E-002	-3.99220E-004	0.00000E+000	-2.93712E-005	-2.40040E-001	7.35854E-002	3.57620E+000	9	...........
	92	1.24	6.87224E-002	-3.97830E-004	0.00000E+000	-2.73398E-005	-2.40040E-001	6.87290E-002	3.57620E+000	9	...........
	93	1.25333	6.38930E-002	-3.99002E-004	0.00000E+000	-2.54934E-005	-2.40040E-001	6.38994E-002	3.57620E+000	9	...........
	94	1.26667	5.90759E-002	-3.97999E-004	0.00000E+000	-2.35121E-005	-2.40040E-001	5.90847E-002	3.57620E+000	9	...........
	95	1.28	5.43002E-002	-3.99401E-004	0.00000E+000	-2.16875E-005	-2.40040E-001	5.43030E-002	3.57620E+000	9	...........
	96	1.29333	4.94981E-002	-4.00262E-004	0.00000E+000	-1.98122E-005	-2.40040E-001	4.94960E-002	3.57620E+000	9	...........
	97	1.30667	4.48150E-002	-3.99569E-004	0.00000E+000	-1.79067E-005	-2.40040E-001	4.48201E-002	3.57620E+000	9	...........
	98	1.32	4.00840E-002	-3.99566E-004	0.00000E+000	-1.60162E-005	-2.40040E-001	4.00929E-002	3.57620E+000	9	...........
	99	1.33333	3.54331E-002	-3.99536E-004	0.00000E+000	-1.41568E-005	-2.40040E-001	3.54342E-002	3.57620E+000	9	...........
	100	1.34667	3.08090E-002	-3.99381E-004	0.00000E+000	-1.23046E-005	-2.40040E-001	3.08105E-002	3.57620E+000	9	...........
	101	1.36	2.61948E-002	-3.98208E-004	0.00000E+000	-1.04310E-005	-2.40040E-001	2.61860E-002	3.57620E+000	9	...........
	102	1.37333	2.16131E-002	-3.99796E-004	0.00000E+000	-8.64083E-006	-2.40040E-001	2.16016E-002	3.57620E+000	9	...........
	103	1.38667	1.70541E-002	-3.98032E-004	0.00000E+000	-6.78810E-006	-2.40040E-001	1.70413E-002	3.57620E+000	9	...........
	104	1.4	1.25435E-002	-3.99275E-004	0.00000E+000	-5.00830E-006	-2.40040E-001	1.25274E-002	3.57620E+000	9	...........
	105	1.41333	7.97537E-003	-3.99976E-004	0.00000E+000	-3.18996E-006	-2.40040E-001	7.95314E-003	3.57620E+000	9	...........
	106	1.42667	3.44573E-003	-3.97653E-004	0.00000E+000	-1.37020E-006	-2.40040E-001	3.42883E-003	3.57620E+000	9	...........
	107	1.43167	3.18850E-004	-3.98965E-004	0.00000E+000	-1.27210E-007	-2.40040E-001	2.99467E-004	3.57620E+000	9	...........
STARTTIMEOFFSET	QUANT	2094.748	Start Time Offset (s)
