EXPLAIN
TAG	PWR800_DISCHARGE
TITLE	LABEL	PWR Cyclic Charge Discharge (Cell) - Discharge Step	Test &Identifier
DATE	LABEL	12-7-2017	Date
TIME	LABEL	14:32:44	Time
NOTES	NOTES	3	&Notes...
	supercap test cell
	0.4mg
	6M KOH
PSTAT	PSTAT	IFC5000-01520	Potentiostat
CAPACITY	QUANT	1.00000E-003	Capacity (A-hr)
CELLTYPE	SELECTOR	1	&Cell Type
WORKINGCONNECTION	SELECTOR	0	&Working Lead
MAXDISCHARGETIME	VARIABLEANDUNITS	1.00000E+002	s	1.00000E+002	second(s)	Max &Discharge Time
DISCHARGEMODE	MULTIPARAM	0	4.00000E-004	&Discharge Mode	Constant Current	Amp(s)
SAMPLETIME	QUANT	1.00000E-002	Sa&mple Period (s)
DISCHARGESTOPAT1	MULTIPARAM	3	0.00000E+000	Discharge Stop At &1	Voltage < Limit	V
DISCHARGESTOPAT2	MULTIPARAM	0	0.00000E+000	Discharge Stop At &2	None	N/A
AESBHCSELECTOR	TOGGLE	F	Save Both Half Cells
IRCOMP	TOGGLE	F	IR &Measure
EOC	QUANT	0	Open Circuit (V)
SEQUENCER	TOGGLE	TRUE	Run as Sequence
PSTATMODEL	IQUANT	53	Pstat Model
PSTATSECTION	LABEL	IFC5000-01520	Pstat Section
PSTATSERIALNO	LABEL	01520	Pstat Serial Number
CTRLMODE	IQUANT	0	Control Mode
ELECTROMETER	IQUANT	1	RE=0 or CS=1
IESTAB	IQUANT	0	I/E Stability
CASPEED	IQUANT	4	Control Amp Speed
CONVENTION	IQUANT	1	Current Convention
ICHRANGE	IQUANT	2	Ich Range
ICHRANGEMODE	TOGGLE	T	Ich Auto Range
ICHOFFSETENABLE	TOGGLE	F	Ich Offset Enable
ICHOFFSET	QUANT	0	Ich Offset (V)
ICHFILTER	IQUANT	1	Ich Filter
VCHRANGE	IQUANT	2	Vch Range
VCHRANGEMODE	TOGGLE	T	Vch Auto Range
VCHOFFSETENABLE	TOGGLE	F	Vch Offset Enable
VCHOFFSET	QUANT	0	Vch Offset (V)
VCHFILTER	IQUANT	1	Vch Filter
IERANGELOWERLIMIT	IQUANT	9	I/E Range Lower Limit
IERANGEMODE	TOGGLE	F	I/E AutoRange
IERANGE	IQUANT	9	I/E Range
ACHSELECT	IQUANT	1	Ach Select
ACHRANGE	IQUANT	2	Ach Range
ACHOFFSETENABLE	TOGGLE	F	Ach Offset Enable
ACHOFFSET	QUANT	0	Ach Offset (V)
ACHFILTER	IQUANT	1	Ach Filter
CABLEID	IQUANT	14	Cable ID
DCCALDATE	LABEL	5-7-2017	DC Calibration Date
ACCALDATE	LABEL	12/3/2015	AC Calibration Date
FRAMEWORKVERSION	QUANT	7.01	Framework Version
INSTRUMENTVERSION	LABEL	4.00	Instrument Version
CURVE	TABLE	124
	Pt	T	Vf	Im	Vu	Pwr	Sig	Ach	Temp	IERange	Over
	#	s	V	A	V	W	V	V	deg C	#	bits
	0	0.013333	7.12951E-001	-3.98176E-004	0.00000E+000	-2.83880E-004	-2.40040E-001	7.13205E-001	3.57650E+000	9	...........
	1	0.026667	7.01499E-001	-3.99165E-004	0.00000E+000	-2.80014E-004	-2.40040E-001	7.01750E-001	3.57650E+000	9	...........
	2	0.04	6.91354E-001	-3.99777E-004	0.00000E+000	-2.76388E-004	-2.40040E-001	6.91627E-001	3.57650E+000	9	...........
	3	0.053333	6.81955E-001	-3.97250E-004	0.00000E+000	-2.70906E-004	-2.40040E-001	6.82203E-001	3.57650E+000	9	...........
	4	0.066667	6.73129E-001	-3.98305E-004	0.00000E+000	-2.68111E-004	-2.40040E-001	6.73355E-001	3.57650E+000	9	...........
	5	0.08	6.64633E-001	-3.98935E-004	0.00000E+000	-2.65146E-004	-2.40040E-001	6.64864E-001	3.57650E+000	9	...........
	6	0.093333	6.56368E-001	-3.98828E-004	0.00000E+000	-2.61778E-004	-2.40040E-001	6.56589E-001	3.57650E+000	9	...........
	7	0.106667	6.48387E-001	-3.98183E-004	0.00000E+000	-2.58177E-004	-2.40040E-001	6.48599E-001	3.57650E+000	9	...........
	8	0.12	6.40538E-001	-3.97899E-004	0.00000E+000	-2.54869E-004	-2.40040E-001	6.40734E-001	3.57650E+000	9	...........
	9	0.133333	6.32850E-001	-3.97298E-004	0.00000E+000	-2.51430E-004	-2.40040E-001	6.33046E-001	3.57650E+000	9	...........
	10	0.146667	6.25197E-001	-3.98105E-004	0.00000E+000	-2.48894E-004	-2.40040E-001	6.25374E-001	3.57650E+000	9	...........
	11	0.16	6.17764E-001	-3.98770E-004	0.00000E+000	-2.46345E-004	-2.40040E-001	6.17953E-001	3.57650E+000	9	...........
	12	0.173333	6.10357E-001	-3.98453E-004	0.00000E+000	-2.43199E-004	-2.40040E-001	6.10565E-001	3.57650E+000	9	...........
	13	0.186667	6.02966E-001	-3.99063E-004	0.00000E+000	-2.40621E-004	-2.40040E-001	6.03182E-001	3.57642E+000	9	...........
	14	0.2	5.95628E-001	-3.98451E-004	0.00000E+000	-2.37328E-004	-2.40040E-001	5.95828E-001	3.57630E+000	9	...........
	15	0.213333	5.88364E-001	-3.99125E-004	0.00000E+000	-2.34831E-004	-2.40040E-001	5.88578E-001	3.57630E+000	9	...........
	16	0.226667	5.81216E-001	-3.98012E-004	0.00000E+000	-2.31331E-004	-2.40040E-001	5.81423E-001	3.57630E+000	9	...........
	17	0.24	5.74192E-001	-3.99167E-004	0.00000E+000	-2.29199E-004	-2.40040E-001	5.74372E-001	3.57630E+000	9	...........
	18	0.253333	5.67143E-001	-3.98998E-004	0.00000E+000	-2.26289E-004	-2.40040E-001	5.67337E-001	3.57630E+000	9	...........
	19	0.266667	5.60051E-001	-3.98823E-004	0.00000E+000	-2.23361E-004	-2.40040E-001	5.60251E-001	3.57630E+000	9	...........
	20	0.28	5.53046E-001	-3.97722E-004	0.00000E+000	-2.19958E-004	-2.40040E-001	5.53236E-001	3.57630E+000	9	...........
	21	0.293333	5.46027E-001	-3.99537E-004	0.00000E+000	-2.18158E-004	-2.40040E-001	5.46231E-001	3.57630E+000	9	...........
	22	0.306667	5.39254E-001	-3.99135E-004	0.00000E+000	-2.15236E-004	-2.40040E-001	5.39434E-001	3.57630E+000	9	...........
	23	0.32	5.32346E-001	-3.97526E-004	0.00000E+000	-2.11621E-004	-2.40040E-001	5.32520E-001	3.57630E+000	9	...........
	24	0.333333	5.25524E-001	-3.98225E-004	0.00000E+000	-2.09277E-004	-2.40040E-001	5.25710E-001	3.57630E+000	9	...........
	25	0.346667	5.18719E-001	-3.98271E-004	0.00000E+000	-2.06591E-004	-2.40040E-001	5.18894E-001	3.57630E+000	9	...........
	26	0.36	5.11967E-001	-3.97907E-004	0.00000E+000	-2.03715E-004	-2.40040E-001	5.12160E-001	3.57630E+000	9	...........
	27	0.373333	5.05257E-001	-3.99297E-004	0.00000E+000	-2.01748E-004	-2.40040E-001	5.05486E-001	3.57630E+000	9	...........
	28	0.386667	4.98572E-001	-3.98808E-004	0.00000E+000	-1.98835E-004	-2.40040E-001	4.98809E-001	3.57630E+000	9	...........
	29	0.4	4.91978E-001	-3.98891E-004	0.00000E+000	-1.96246E-004	-2.40040E-001	4.92189E-001	3.57630E+000	9	...........
	30	0.413333	4.85454E-001	-3.98522E-004	0.00000E+000	-1.93464E-004	-2.40040E-001	4.85633E-001	3.57630E+000	9	...........
	31	0.426667	4.79047E-001	-3.98554E-004	0.00000E+000	-1.90926E-004	-2.40040E-001	4.79154E-001	3.57630E+000	9	...........
	32	0.44	4.72520E-001	-3.99395E-004	0.00000E+000	-1.88722E-004	-2.40040E-001	4.72614E-001	3.57630E+000	9	...........
	33	0.453333	4.66047E-001	-3.99625E-004	0.00000E+000	-1.86244E-004	-2.40040E-001	4.66140E-001	3.57630E+000	9	...........
	34	0.466667	4.59654E-001	-3.97534E-004	0.00000E+000	-1.82728E-004	-2.40040E-001	4.59747E-001	3.57630E+000	9	...........
	35	0.48	4.53216E-001	-3.98261E-004	0.00000E+000	-1.80498E-004	-2.40040E-001	4.53311E-001	3.57630E+000	9	...........
	36	0.493333	4.46840E-001	-3.99654E-004	0.00000E+000	-1.78581E-004	-2.40040E-001	4.46932E-001	3.57630E+000	9	...........
	37	0.506667	4.40435E-001	-3.99774E-004	0.00000E+000	-1.76074E-004	-2.40040E-001	4.40529E-001	3.57630E+000	9	...........
	38	0.52	4.34130E-001	-3.98520E-004	0.00000E+000	-1.73009E-004	-2.40040E-001	4.34221E-001	3.57630E+000	9	...........
	39	0.533333	4.27905E-001	-3.98142E-004	0.00000E+000	-1.70367E-004	-2.40040E-001	4.27991E-001	3.57630E+000	9	...........
	40	0.546667	4.21581E-001	-3.98449E-004	0.00000E+000	-1.67978E-004	-2.40040E-001	4.21666E-001	3.57630E+000	9	...........
	41	0.56	4.15393E-001	-3.98436E-004	0.00000E+000	-1.65508E-004	-2.40040E-001	4.15480E-001	3.57630E+000	9	...........
	42	0.573333	4.09246E-001	-3.98588E-004	0.00000E+000	-1.63121E-004	-2.40040E-001	4.09328E-001	3.57630E+000	9	...........
	43	0.586667	4.03018E-001	-3.99528E-004	0.00000E+000	-1.61017E-004	-2.40040E-001	4.03099E-001	3.57630E+000	9	...........
	44	0.6	3.96805E-001	-3.99700E-004	0.00000E+000	-1.58603E-004	-2.40040E-001	3.96878E-001	3.57630E+000	9	...........
	45	0.613333	3.90641E-001	-3.99172E-004	0.00000E+000	-1.55933E-004	-2.40040E-001	3.90713E-001	3.57630E+000	9	...........
	46	0.626667	3.84614E-001	-3.97912E-004	0.00000E+000	-1.53043E-004	-2.40040E-001	3.84687E-001	3.57630E+000	9	...........
	47	0.64	3.78534E-001	-3.98621E-004	0.00000E+000	-1.50891E-004	-2.40040E-001	3.78609E-001	3.57630E+000	9	...........
	48	0.653333	3.72570E-001	-3.99008E-004	0.00000E+000	-1.48659E-004	-2.40040E-001	3.72637E-001	3.57630E+000	9	...........
	49	0.666667	3.66587E-001	-3.98748E-004	0.00000E+000	-1.46176E-004	-2.40040E-001	3.66658E-001	3.57630E+000	9	...........
	50	0.68	3.60556E-001	-3.98389E-004	0.00000E+000	-1.43642E-004	-2.40040E-001	3.60621E-001	3.57630E+000	9	...........
	51	0.693333	3.54716E-001	-3.97831E-004	0.00000E+000	-1.41117E-004	-2.40040E-001	3.54784E-001	3.57630E+000	9	...........
	52	0.706667	3.48877E-001	-3.99498E-004	0.00000E+000	-1.39376E-004	-2.40040E-001	3.48944E-001	3.57630E+000	9	...........
	53	0.72	3.43058E-001	-3.98411E-004	0.00000E+000	-1.36678E-004	-2.40040E-001	3.43124E-001	3.57630E+000	9	...........
	54	0.733333	3.37265E-001	-3.99338E-004	0.00000E+000	-1.34682E-004	-2.40040E-001	3.37327E-001	3.57630E+000	9	...........
	55	0.746667	3.31465E-001	-3.99411E-004	0.00000E+000	-1.32391E-004	-2.40040E-001	3.31530E-001	3.57630E+000	9	...........
	56	0.76	3.25694E-001	-3.97679E-004	0.00000E+000	-1.29522E-004	-2.40040E-001	3.25757E-001	3.57630E+000	9	...........
	57	0.773333	3.19937E-001	-3.97357E-004	0.00000E+000	-1.27129E-004	-2.40040E-001	3.19998E-001	3.57630E+000	9	...........
	58	0.786667	3.14259E-001	-3.98831E-004	0.00000E+000	-1.25336E-004	-2.40040E-001	3.14320E-001	3.57630E+000	9	...........
	59	0.8	3.08588E-001	-3.98060E-004	0.00000E+000	-1.22837E-004	-2.40040E-001	3.08654E-001	3.57630E+000	9	...........
	60	0.813333	3.02941E-001	-3.98888E-004	0.00000E+000	-1.20839E-004	-2.40040E-001	3.02998E-001	3.57630E+000	9	...........
	61	0.826667	2.97282E-001	-3.99173E-004	0.00000E+000	-1.18667E-004	-2.40040E-001	2.97335E-001	3.57630E+000	9	...........
	62	0.84	2.91712E-001	-3.97533E-004	0.00000E+000	-1.15965E-004	-2.40040E-001	2.91769E-001	3.57630E+000	9	...........
	63	0.853333	2.86187E-001	-3.98101E-004	0.00000E+000	-1.13931E-004	-2.40040E-001	2.86238E-001	3.57630E+000	9	...........
	64	0.866667	2.80740E-001	-3.98704E-004	0.00000E+000	-1.11932E-004	-2.40040E-001	2.80796E-001	3.57630E+000	9	...........
	65	0.88	2.75298E-001	-3.99941E-004	0.00000E+000	-1.10103E-004	-2.40040E-001	2.75356E-001	3.57630E+000	9	...........
	66	0.893333	2.69795E-001	-3.97023E-004	0.00000E+000	-1.07115E-004	-2.40040E-001	2.69851E-001	3.57630E+000	9	...........
	67	0.906667	2.64283E-001	-3.99087E-004	0.00000E+000	-1.05472E-004	-2.40040E-001	2.64346E-001	3.57630E+000	9	...........
	68	0.92	2.58914E-001	-3.98613E-004	0.00000E+000	-1.03207E-004	-2.40040E-001	2.58972E-001	3.57630E+000	9	...........
	69	0.933333	2.53460E-001	-3.99130E-004	0.00000E+000	-1.01163E-004	-2.40040E-001	2.53514E-001	3.57630E+000	9	...........
	70	0.946667	2.48092E-001	-3.99500E-004	0.00000E+000	-9.91129E-005	-2.40040E-001	2.48142E-001	3.57630E+000	9	...........
	71	0.96	2.42786E-001	-3.98895E-004	0.00000E+000	-9.68460E-005	-2.40040E-001	2.42831E-001	3.57630E+000	9	...........
	72	0.97333	2.37463E-001	-3.98975E-004	0.00000E+000	-9.47419E-005	-2.40040E-001	2.37506E-001	3.57630E+000	9	...........
	73	0.98667	2.32239E-001	-3.99531E-004	0.00000E+000	-9.27868E-005	-2.40040E-001	2.32284E-001	3.57630E+000	9	...........
	74	1	2.26965E-001	-3.98880E-004	0.00000E+000	-9.05320E-005	-2.40040E-001	2.27004E-001	3.57630E+000	9	...........
	75	1.01333	2.21689E-001	-3.97875E-004	0.00000E+000	-8.82043E-005	-2.40040E-001	2.21734E-001	3.57630E+000	9	...........
	76	1.02667	2.16486E-001	-3.97670E-004	0.00000E+000	-8.60900E-005	-2.40040E-001	2.16528E-001	3.57630E+000	9	...........
	77	1.04	2.11306E-001	-3.97422E-004	0.00000E+000	-8.39774E-005	-2.40040E-001	2.11347E-001	3.57630E+000	9	...........
	78	1.05333	2.06235E-001	-3.99042E-004	0.00000E+000	-8.22963E-005	-2.40040E-001	2.06272E-001	3.57630E+000	9	...........
	79	1.06667	2.01158E-001	-3.98843E-004	0.00000E+000	-8.02304E-005	-2.40040E-001	2.01197E-001	3.57630E+000	9	...........
	80	1.08	1.96028E-001	-3.98172E-004	0.00000E+000	-7.80527E-005	-2.40040E-001	1.96067E-001	3.57630E+000	9	...........
	81	1.09333	1.90990E-001	-3.97723E-004	0.00000E+000	-7.59612E-005	-2.40040E-001	1.91030E-001	3.57630E+000	9	...........
	82	1.10667	1.85913E-001	-3.98646E-004	0.00000E+000	-7.41133E-005	-2.40040E-001	1.85948E-001	3.57630E+000	9	...........
	83	1.12	1.80832E-001	-3.99264E-004	0.00000E+000	-7.21998E-005	-2.40040E-001	1.80872E-001	3.57630E+000	9	...........
	84	1.13333	1.75895E-001	-3.98019E-004	0.00000E+000	-7.00095E-005	-2.40040E-001	1.75928E-001	3.57630E+000	9	...........
	85	1.14667	1.71044E-001	-3.98761E-004	0.00000E+000	-6.82059E-005	-2.40040E-001	1.71073E-001	3.57630E+000	9	...........
	86	1.16	1.66086E-001	-3.98691E-004	0.00000E+000	-6.62169E-005	-2.40040E-001	1.66119E-001	3.57630E+000	9	...........
	87	1.17333	1.61176E-001	-3.99080E-004	0.00000E+000	-6.43222E-005	-2.40040E-001	1.61207E-001	3.57630E+000	9	...........
	88	1.18667	1.56309E-001	-3.98814E-004	0.00000E+000	-6.23380E-005	-2.40040E-001	1.56335E-001	3.57619E+000	9	...........
	89	1.2	1.51501E-001	-3.98302E-004	0.00000E+000	-6.03433E-005	-2.40040E-001	1.51531E-001	3.57600E+000	9	...........
	90	1.21333	1.46674E-001	-3.98232E-004	0.00000E+000	-5.84105E-005	-2.40040E-001	1.46699E-001	3.57600E+000	9	...........
	91	1.22667	1.41854E-001	-3.99425E-004	0.00000E+000	-5.66601E-005	-2.40040E-001	1.41880E-001	3.57600E+000	9	...........
	92	1.24	1.37129E-001	-4.00016E-004	0.00000E+000	-5.48539E-005	-2.40040E-001	1.37154E-001	3.57600E+000	9	...........
	93	1.25333	1.32406E-001	-3.99129E-004	0.00000E+000	-5.28473E-005	-2.40040E-001	1.32429E-001	3.57600E+000	9	...........
	94	1.26667	1.27712E-001	-3.98658E-004	0.00000E+000	-5.09135E-005	-2.40040E-001	1.27732E-001	3.57600E+000	9	...........
	95	1.28	1.23086E-001	-3.98179E-004	0.00000E+000	-4.90101E-005	-2.40040E-001	1.23102E-001	3.57600E+000	9	...........
	96	1.29333	1.18355E-001	-3.98847E-004	0.00000E+000	-4.72054E-005	-2.40040E-001	1.18377E-001	3.57600E+000	9	...........
	97	1.30667	1.13679E-001	-3.97952E-004	0.00000E+000	-4.52388E-005	-2.40040E-001	1.13700E-001	3.57600E+000	9	...........
	98	1.32	1.09048E-001	-3.98769E-004	0.00000E+000	-4.34851E-005	-2.40040E-001	1.09066E-001	3.57600E+000	9	...........
	99	1.33333	1.04403E-001	-3.98967E-004	0.00000E+000	-4.16534E-005	-2.40040E-001	1.04423E-001	3.57600E+000	9	...........
	100	1.34667	9.97978E-002	-3.98752E-004	0.00000E+000	-3.97946E-005	-2.40040E-001	9.98232E-002	3.57600E+000	9	...........
	101	1.36	9.53076E-002	-3.98907E-004	0.00000E+000	-3.80189E-005	-2.40040E-001	9.53235E-002	3.57600E+000	9	...........
	102	1.37333	9.08364E-002	-3.98692E-004	0.00000E+000	-3.62157E-005	-2.40040E-001	9.08533E-002	3.57600E+000	9	...........
	103	1.38667	8.62653E-002	-3.99222E-004	0.00000E+000	-3.44390E-005	-2.40040E-001	8.62710E-002	3.57600E+000	9	...........
	104	1.4	8.17917E-002	-3.97734E-004	0.00000E+000	-3.25313E-005	-2.40040E-001	8.18003E-002	3.57600E+000	9	...........
	105	1.41333	7.72359E-002	-3.97874E-004	0.00000E+000	-3.07301E-005	-2.40040E-001	7.72376E-002	3.57600E+000	9	...........
	106	1.42667	7.27328E-002	-3.98521E-004	0.00000E+000	-2.89855E-005	-2.40040E-001	7.27338E-002	3.57600E+000	9	...........
	107	1.44	6.83245E-002	-3.98260E-004	0.00000E+000	-2.72109E-005	-2.40040E-001	6.83287E-002	3.57600E+000	9	...........
	108	1.45333	6.39599E-002	-3.98844E-004	0.00000E+000	-2.55100E-005	-2.40040E-001	6.39659E-002	3.57600E+000	9	...........
	109	1.46667	5.95666E-002	-3.98245E-004	0.00000E+000	-2.37221E-005	-2.40040E-001	5.95700E-002	3.57600E+000	9	...........
	110	1.48	5.51793E-002	-3.99490E-004	0.00000E+000	-2.20435E-005	-2.40040E-001	5.51867E-002	3.57600E+000	9	...........
	111	1.49333	5.08501E-002	-4.00186E-004	0.00000E+000	-2.03495E-005	-2.40040E-001	5.08605E-002	3.57600E+000	9	...........
	112	1.50667	4.65604E-002	-3.98791E-004	0.00000E+000	-1.85679E-005	-2.40040E-001	4.65680E-002	3.57600E+000	9	...........
	113	1.52	4.21952E-002	-3.99448E-004	0.00000E+000	-1.68548E-005	-2.40040E-001	4.22016E-002	3.57600E+000	9	...........
	114	1.53333	3.78408E-002	-3.99217E-004	0.00000E+000	-1.51067E-005	-2.40040E-001	3.78471E-002	3.57600E+000	9	...........
	115	1.54667	3.35198E-002	-3.98910E-004	0.00000E+000	-1.33714E-005	-2.40040E-001	3.35225E-002	3.57600E+000	9	...........
	116	1.56	2.92654E-002	-3.99046E-004	0.00000E+000	-1.16782E-005	-2.40040E-001	2.92628E-002	3.57600E+000	9	...........
	117	1.57333	2.49742E-002	-3.98288E-004	0.00000E+000	-9.94694E-006	-2.40040E-001	2.49710E-002	3.57600E+000	9	...........
	118	1.58667	2.08413E-002	-3.98460E-004	0.00000E+000	-8.30442E-006	-2.40040E-001	2.08381E-002	3.57600E+000	9	...........
	119	1.6	1.66951E-002	-3.98253E-004	0.00000E+000	-6.64886E-006	-2.40040E-001	1.66844E-002	3.57600E+000	9	...........
	120	1.61333	1.24383E-002	-3.98683E-004	0.00000E+000	-4.95896E-006	-2.40040E-001	1.24274E-002	3.57600E+000	9	...........
	121	1.62667	8.21328E-003	-3.99466E-004	0.00000E+000	-3.28092E-006	-2.40040E-001	8.20220E-003	3.57600E+000	9	...........
	122	1.64	4.10584E-003	-3.98941E-004	0.00000E+000	-1.63799E-006	-2.40040E-001	4.09004E-003	3.57600E+000	9	...........
	123	1.64833	7.57160E-004	-3.98611E-004	0.00000E+000	-3.01812E-007	-2.40040E-001	7.50008E-004	3.57600E+000	9	...........
STARTTIMEOFFSET	QUANT	681.1968	Start Time Offset (s)
