EXPLAIN
TAG	PWR800_DISCHARGE
TITLE	LABEL	PWR Cyclic Charge Discharge (Cell) - Discharge Step	Test &Identifier
DATE	LABEL	12-7-2017	Date
TIME	LABEL	14:35:33	Time
NOTES	NOTES	3	&Notes...
	supercap test cell
	0.4mg
	6M KOH
PSTAT	PSTAT	IFC5000-01520	Potentiostat
CAPACITY	QUANT	1.00000E-003	Capacity (A-hr)
CELLTYPE	SELECTOR	1	&Cell Type
WORKINGCONNECTION	SELECTOR	0	&Working Lead
MAXDISCHARGETIME	VARIABLEANDUNITS	1.00000E+002	s	1.00000E+002	second(s)	Max &Discharge Time
DISCHARGEMODE	MULTIPARAM	0	4.00000E-004	&Discharge Mode	Constant Current	Amp(s)
SAMPLETIME	QUANT	1.00000E-002	Sa&mple Period (s)
DISCHARGESTOPAT1	MULTIPARAM	3	0.00000E+000	Discharge Stop At &1	Voltage < Limit	V
DISCHARGESTOPAT2	MULTIPARAM	0	0.00000E+000	Discharge Stop At &2	None	N/A
AESBHCSELECTOR	TOGGLE	F	Save Both Half Cells
IRCOMP	TOGGLE	F	IR &Measure
EOC	QUANT	0	Open Circuit (V)
SEQUENCER	TOGGLE	TRUE	Run as Sequence
PSTATMODEL	IQUANT	53	Pstat Model
PSTATSECTION	LABEL	IFC5000-01520	Pstat Section
PSTATSERIALNO	LABEL	01520	Pstat Serial Number
CTRLMODE	IQUANT	0	Control Mode
ELECTROMETER	IQUANT	1	RE=0 or CS=1
IESTAB	IQUANT	0	I/E Stability
CASPEED	IQUANT	4	Control Amp Speed
CONVENTION	IQUANT	1	Current Convention
ICHRANGE	IQUANT	2	Ich Range
ICHRANGEMODE	TOGGLE	T	Ich Auto Range
ICHOFFSETENABLE	TOGGLE	F	Ich Offset Enable
ICHOFFSET	QUANT	0	Ich Offset (V)
ICHFILTER	IQUANT	1	Ich Filter
VCHRANGE	IQUANT	2	Vch Range
VCHRANGEMODE	TOGGLE	T	Vch Auto Range
VCHOFFSETENABLE	TOGGLE	F	Vch Offset Enable
VCHOFFSET	QUANT	0	Vch Offset (V)
VCHFILTER	IQUANT	1	Vch Filter
IERANGELOWERLIMIT	IQUANT	9	I/E Range Lower Limit
IERANGEMODE	TOGGLE	F	I/E AutoRange
IERANGE	IQUANT	9	I/E Range
ACHSELECT	IQUANT	1	Ach Select
ACHRANGE	IQUANT	2	Ach Range
ACHOFFSETENABLE	TOGGLE	F	Ach Offset Enable
ACHOFFSET	QUANT	0	Ach Offset (V)
ACHFILTER	IQUANT	1	Ach Filter
CABLEID	IQUANT	14	Cable ID
DCCALDATE	LABEL	5-7-2017	DC Calibration Date
ACCALDATE	LABEL	12/3/2015	AC Calibration Date
FRAMEWORKVERSION	QUANT	7.01	Framework Version
INSTRUMENTVERSION	LABEL	4.00	Instrument Version
CURVE	TABLE	122
	Pt	T	Vf	Im	Vu	Pwr	Sig	Ach	Temp	IERange	Over
	#	s	V	A	V	W	V	V	deg C	#	bits
	0	0.013333	7.12595E-001	-3.99704E-004	0.00000E+000	-2.84827E-004	-2.40040E-001	7.12811E-001	3.57660E+000	9	...........
	1	0.026667	7.00982E-001	-3.99119E-004	0.00000E+000	-2.79775E-004	-2.40040E-001	7.01199E-001	3.57660E+000	9	...........
	2	0.04	6.90732E-001	-3.98958E-004	0.00000E+000	-2.75573E-004	-2.40040E-001	6.90959E-001	3.57660E+000	9	...........
	3	0.053333	6.81204E-001	-3.98397E-004	0.00000E+000	-2.71390E-004	-2.40040E-001	6.81419E-001	3.57660E+000	9	...........
	4	0.066667	6.72247E-001	-3.97786E-004	0.00000E+000	-2.67411E-004	-2.40040E-001	6.72453E-001	3.57660E+000	9	...........
	5	0.08	6.63558E-001	-3.99353E-004	0.00000E+000	-2.64994E-004	-2.40040E-001	6.63779E-001	3.57660E+000	9	...........
	6	0.093333	6.55239E-001	-3.98743E-004	0.00000E+000	-2.61272E-004	-2.40040E-001	6.55446E-001	3.57660E+000	9	...........
	7	0.106667	6.47096E-001	-3.98861E-004	0.00000E+000	-2.58101E-004	-2.40040E-001	6.47307E-001	3.57660E+000	9	...........
	8	0.12	6.39165E-001	-3.97260E-004	0.00000E+000	-2.53915E-004	-2.40040E-001	6.39388E-001	3.57660E+000	9	...........
	9	0.133333	6.31301E-001	-3.97733E-004	0.00000E+000	-2.51089E-004	-2.40040E-001	6.31549E-001	3.57660E+000	9	...........
	10	0.146667	6.23594E-001	-3.97923E-004	0.00000E+000	-2.48142E-004	-2.40040E-001	6.23818E-001	3.57660E+000	9	...........
	11	0.16	6.15933E-001	-3.98723E-004	0.00000E+000	-2.45587E-004	-2.40040E-001	6.16164E-001	3.57660E+000	9	...........
	12	0.173333	6.08319E-001	-3.97524E-004	0.00000E+000	-2.41821E-004	-2.40040E-001	6.08573E-001	3.57660E+000	9	...........
	13	0.186667	6.00870E-001	-3.98566E-004	0.00000E+000	-2.39486E-004	-2.40040E-001	6.01115E-001	3.57660E+000	9	...........
	14	0.2	5.93487E-001	-3.98809E-004	0.00000E+000	-2.36688E-004	-2.40040E-001	5.93691E-001	3.57660E+000	9	...........
	15	0.213333	5.86113E-001	-3.99379E-004	0.00000E+000	-2.34081E-004	-2.40040E-001	5.86333E-001	3.57660E+000	9	...........
	16	0.226667	5.78808E-001	-3.99689E-004	0.00000E+000	-2.31343E-004	-2.40040E-001	5.79022E-001	3.57660E+000	9	...........
	17	0.24	5.71600E-001	-3.98484E-004	0.00000E+000	-2.27774E-004	-2.40040E-001	5.71782E-001	3.57660E+000	9	...........
	18	0.253333	5.64455E-001	-3.98294E-004	0.00000E+000	-2.24819E-004	-2.40040E-001	5.64662E-001	3.57660E+000	9	...........
	19	0.266667	5.57210E-001	-3.99478E-004	0.00000E+000	-2.22593E-004	-2.40040E-001	5.57439E-001	3.57660E+000	9	...........
	20	0.28	5.50147E-001	-3.97994E-004	0.00000E+000	-2.18955E-004	-2.40040E-001	5.50349E-001	3.57641E+000	9	...........
	21	0.293333	5.43116E-001	-3.98731E-004	0.00000E+000	-2.16557E-004	-2.40040E-001	5.43334E-001	3.57630E+000	9	...........
	22	0.306667	5.36060E-001	-3.99168E-004	0.00000E+000	-2.13978E-004	-2.40040E-001	5.36259E-001	3.57630E+000	9	...........
	23	0.32	5.29082E-001	-3.98476E-004	0.00000E+000	-2.10826E-004	-2.40040E-001	5.29270E-001	3.57630E+000	9	...........
	24	0.333333	5.22182E-001	-3.97667E-004	0.00000E+000	-2.07655E-004	-2.40040E-001	5.22381E-001	3.57630E+000	9	...........
	25	0.346667	5.15348E-001	-3.98623E-004	0.00000E+000	-2.05430E-004	-2.40040E-001	5.15531E-001	3.57630E+000	9	...........
	26	0.36	5.08574E-001	-3.99104E-004	0.00000E+000	-2.02974E-004	-2.40040E-001	5.08799E-001	3.57630E+000	9	...........
	27	0.373333	5.01707E-001	-3.98183E-004	0.00000E+000	-1.99771E-004	-2.40040E-001	5.01929E-001	3.57630E+000	9	...........
	28	0.386667	4.94947E-001	-3.98548E-004	0.00000E+000	-1.97260E-004	-2.40040E-001	4.95164E-001	3.57630E+000	9	...........
	29	0.4	4.88219E-001	-3.99452E-004	0.00000E+000	-1.95020E-004	-2.40040E-001	4.88405E-001	3.57630E+000	9	...........
	30	0.413333	4.81698E-001	-3.98373E-004	0.00000E+000	-1.91895E-004	-2.40040E-001	4.81767E-001	3.57630E+000	9	...........
	31	0.426667	4.75009E-001	-3.98759E-004	0.00000E+000	-1.89414E-004	-2.40040E-001	4.75100E-001	3.57630E+000	9	...........
	32	0.44	4.68399E-001	-3.97839E-004	0.00000E+000	-1.86348E-004	-2.40040E-001	4.68486E-001	3.57630E+000	9	...........
	33	0.453333	4.61811E-001	-3.98558E-004	0.00000E+000	-1.84058E-004	-2.40040E-001	4.61895E-001	3.57630E+000	9	...........
	34	0.466667	4.55222E-001	-3.98683E-004	0.00000E+000	-1.81489E-004	-2.40040E-001	4.55308E-001	3.57630E+000	9	...........
	35	0.48	4.48671E-001	-3.98263E-004	0.00000E+000	-1.78689E-004	-2.40040E-001	4.48756E-001	3.57630E+000	9	...........
	36	0.493333	4.42074E-001	-3.98877E-004	0.00000E+000	-1.76333E-004	-2.40040E-001	4.42160E-001	3.57630E+000	9	...........
	37	0.506667	4.35668E-001	-3.97791E-004	0.00000E+000	-1.73305E-004	-2.40040E-001	4.35753E-001	3.57630E+000	9	...........
	38	0.52	4.29247E-001	-3.98457E-004	0.00000E+000	-1.71037E-004	-2.40040E-001	4.29332E-001	3.57630E+000	9	...........
	39	0.533333	4.22869E-001	-3.98570E-004	0.00000E+000	-1.68543E-004	-2.40040E-001	4.22955E-001	3.57630E+000	9	...........
	40	0.546667	4.16518E-001	-3.99331E-004	0.00000E+000	-1.66329E-004	-2.40040E-001	4.16602E-001	3.57630E+000	9	...........
	41	0.56	4.10161E-001	-3.98780E-004	0.00000E+000	-1.63564E-004	-2.40040E-001	4.10241E-001	3.57630E+000	9	...........
	42	0.573333	4.03850E-001	-3.98032E-004	0.00000E+000	-1.60745E-004	-2.40040E-001	4.03927E-001	3.57630E+000	9	...........
	43	0.586667	3.97575E-001	-3.98933E-004	0.00000E+000	-1.58606E-004	-2.40040E-001	3.97651E-001	3.57630E+000	9	...........
	44	0.6	3.91383E-001	-3.97991E-004	0.00000E+000	-1.55767E-004	-2.40040E-001	3.91458E-001	3.57630E+000	9	...........
	45	0.613333	3.85212E-001	-3.99160E-004	0.00000E+000	-1.53761E-004	-2.40040E-001	3.85289E-001	3.57630E+000	9	...........
	46	0.626667	3.79151E-001	-3.97042E-004	0.00000E+000	-1.50539E-004	-2.40040E-001	3.79226E-001	3.57630E+000	9	...........
	47	0.64	3.73087E-001	-3.98875E-004	0.00000E+000	-1.48815E-004	-2.40040E-001	3.73158E-001	3.57630E+000	9	...........
	48	0.653333	3.66950E-001	-3.99507E-004	0.00000E+000	-1.46599E-004	-2.40040E-001	3.67021E-001	3.57630E+000	9	...........
	49	0.666667	3.60831E-001	-3.99038E-004	0.00000E+000	-1.43985E-004	-2.40040E-001	3.60907E-001	3.57630E+000	9	...........
	50	0.68	3.54742E-001	-3.98842E-004	0.00000E+000	-1.41486E-004	-2.40040E-001	3.54806E-001	3.57630E+000	9	...........
	51	0.693333	3.48742E-001	-3.97914E-004	0.00000E+000	-1.38769E-004	-2.40040E-001	3.48808E-001	3.57630E+000	9	...........
	52	0.706667	3.42863E-001	-3.98629E-004	0.00000E+000	-1.36675E-004	-2.40040E-001	3.42926E-001	3.57630E+000	9	...........
	53	0.72	3.36969E-001	-3.98531E-004	0.00000E+000	-1.34293E-004	-2.40040E-001	3.37032E-001	3.57630E+000	9	...........
	54	0.733333	3.31088E-001	-3.98117E-004	0.00000E+000	-1.31812E-004	-2.40040E-001	3.31155E-001	3.57630E+000	9	...........
	55	0.746667	3.25236E-001	-3.99553E-004	0.00000E+000	-1.29949E-004	-2.40040E-001	3.25293E-001	3.57630E+000	9	...........
	56	0.76	3.19463E-001	-3.98793E-004	0.00000E+000	-1.27399E-004	-2.40040E-001	3.19526E-001	3.57630E+000	9	...........
	57	0.773333	3.13653E-001	-3.97770E-004	0.00000E+000	-1.24762E-004	-2.40040E-001	3.13711E-001	3.57630E+000	9	...........
	58	0.786667	3.07948E-001	-3.97938E-004	0.00000E+000	-1.22544E-004	-2.40040E-001	3.08008E-001	3.57630E+000	9	...........
	59	0.8	3.02144E-001	-3.99082E-004	0.00000E+000	-1.20580E-004	-2.40040E-001	3.02201E-001	3.57630E+000	9	...........
	60	0.813333	2.96388E-001	-3.99773E-004	0.00000E+000	-1.18488E-004	-2.40040E-001	2.96441E-001	3.57630E+000	9	...........
	61	0.826667	2.90752E-001	-3.99428E-004	0.00000E+000	-1.16135E-004	-2.40040E-001	2.90809E-001	3.57630E+000	9	...........
	62	0.84	2.85145E-001	-3.99071E-004	0.00000E+000	-1.13793E-004	-2.40040E-001	2.85200E-001	3.57630E+000	9	...........
	63	0.853333	2.79467E-001	-3.98190E-004	0.00000E+000	-1.11281E-004	-2.40040E-001	2.79524E-001	3.57630E+000	9	...........
	64	0.866667	2.73890E-001	-3.99774E-004	0.00000E+000	-1.09494E-004	-2.40040E-001	2.73941E-001	3.57630E+000	9	...........
	65	0.88	2.68399E-001	-3.98609E-004	0.00000E+000	-1.06986E-004	-2.40040E-001	2.68453E-001	3.57630E+000	9	...........
	66	0.893333	2.62930E-001	-3.99502E-004	0.00000E+000	-1.05041E-004	-2.40040E-001	2.62980E-001	3.57630E+000	9	...........
	67	0.906667	2.57429E-001	-3.99579E-004	0.00000E+000	-1.02863E-004	-2.40040E-001	2.57481E-001	3.57630E+000	9	...........
	68	0.92	2.51899E-001	-3.99053E-004	0.00000E+000	-1.00521E-004	-2.40040E-001	2.51948E-001	3.57630E+000	9	...........
	69	0.933333	2.46430E-001	-3.98612E-004	0.00000E+000	-9.82300E-005	-2.40040E-001	2.46476E-001	3.57630E+000	9	...........
	70	0.946667	2.41010E-001	-3.98530E-004	0.00000E+000	-9.60499E-005	-2.40040E-001	2.41053E-001	3.57630E+000	9	...........
	71	0.96	2.35683E-001	-3.98092E-004	0.00000E+000	-9.38235E-005	-2.40040E-001	2.35726E-001	3.57630E+000	9	...........
	72	0.97333	2.30265E-001	-3.98549E-004	0.00000E+000	-9.17719E-005	-2.40040E-001	2.30303E-001	3.57630E+000	9	...........
	73	0.98667	2.25047E-001	-3.98971E-004	0.00000E+000	-8.97871E-005	-2.40040E-001	2.25086E-001	3.57630E+000	9	...........
	74	1	2.19754E-001	-3.98994E-004	0.00000E+000	-8.76804E-005	-2.40040E-001	2.19790E-001	3.57630E+000	9	...........
	75	1.01333	2.14517E-001	-3.98625E-004	0.00000E+000	-8.55117E-005	-2.40040E-001	2.14552E-001	3.57630E+000	9	...........
	76	1.02667	2.09350E-001	-4.00096E-004	0.00000E+000	-8.37601E-005	-2.40040E-001	2.09384E-001	3.57630E+000	9	...........
	77	1.04	2.04236E-001	-3.99548E-004	0.00000E+000	-8.16021E-005	-2.40040E-001	2.04272E-001	3.57630E+000	9	...........
	78	1.05333	1.99088E-001	-3.98389E-004	0.00000E+000	-7.93148E-005	-2.40040E-001	1.99124E-001	3.57630E+000	9	...........
	79	1.06667	1.93874E-001	-4.00045E-004	0.00000E+000	-7.75584E-005	-2.40040E-001	1.93916E-001	3.57630E+000	9	...........
	80	1.08	1.88676E-001	-3.98435E-004	0.00000E+000	-7.51750E-005	-2.40040E-001	1.88714E-001	3.57630E+000	9	...........
	81	1.09333	1.83634E-001	-3.98199E-004	0.00000E+000	-7.31228E-005	-2.40040E-001	1.83666E-001	3.57630E+000	9	...........
	82	1.10667	1.78545E-001	-3.99980E-004	0.00000E+000	-7.14144E-005	-2.40040E-001	1.78579E-001	3.57630E+000	9	...........
	83	1.12	1.73447E-001	-3.99283E-004	0.00000E+000	-6.92547E-005	-2.40040E-001	1.73486E-001	3.57630E+000	9	...........
	84	1.13333	1.68514E-001	-3.96690E-004	0.00000E+000	-6.68478E-005	-2.40040E-001	1.68548E-001	3.57630E+000	9	...........
	85	1.14667	1.63508E-001	-3.99156E-004	0.00000E+000	-6.52651E-005	-2.40040E-001	1.63537E-001	3.57630E+000	9	...........
	86	1.16	1.58691E-001	-3.99050E-004	0.00000E+000	-6.33256E-005	-2.40040E-001	1.58723E-001	3.57630E+000	9	...........
	87	1.17333	1.53768E-001	-3.98110E-004	0.00000E+000	-6.12165E-005	-2.40040E-001	1.53791E-001	3.57630E+000	9	...........
	88	1.18667	1.48841E-001	-3.99184E-004	0.00000E+000	-5.94150E-005	-2.40040E-001	1.48868E-001	3.57630E+000	9	...........
	89	1.2	1.43852E-001	-3.99257E-004	0.00000E+000	-5.74340E-005	-2.40040E-001	1.43875E-001	3.57630E+000	9	...........
	90	1.21333	1.38990E-001	-3.98089E-004	0.00000E+000	-5.53303E-005	-2.40040E-001	1.39017E-001	3.57630E+000	9	...........
	91	1.22667	1.34076E-001	-3.97839E-004	0.00000E+000	-5.33409E-005	-2.40040E-001	1.34106E-001	3.57630E+000	9	...........
	92	1.24	1.29276E-001	-3.99756E-004	0.00000E+000	-5.16790E-005	-2.40040E-001	1.29299E-001	3.57630E+000	9	...........
	93	1.25333	1.24542E-001	-3.99448E-004	0.00000E+000	-4.97482E-005	-2.40040E-001	1.24566E-001	3.57630E+000	9	...........
	94	1.26667	1.19778E-001	-3.98367E-004	0.00000E+000	-4.77156E-005	-2.40040E-001	1.19798E-001	3.57630E+000	9	...........
	95	1.28	1.15021E-001	-3.99604E-004	0.00000E+000	-4.59629E-005	-2.40040E-001	1.15044E-001	3.57611E+000	9	...........
	96	1.29333	1.10302E-001	-3.97812E-004	0.00000E+000	-4.38797E-005	-2.40040E-001	1.10323E-001	3.57600E+000	9	...........
	97	1.30667	1.05732E-001	-3.98665E-004	0.00000E+000	-4.21518E-005	-2.40040E-001	1.05751E-001	3.57600E+000	9	...........
	98	1.32	1.01101E-001	-3.99172E-004	0.00000E+000	-4.03569E-005	-2.40040E-001	1.01120E-001	3.57600E+000	9	...........
	99	1.33333	9.64038E-002	-3.99087E-004	0.00000E+000	-3.84735E-005	-2.40040E-001	9.64207E-002	3.57600E+000	9	...........
	100	1.34667	9.17535E-002	-3.98864E-004	0.00000E+000	-3.65971E-005	-2.40040E-001	9.17643E-002	3.57600E+000	9	...........
	101	1.36	8.71345E-002	-3.98971E-004	0.00000E+000	-3.47641E-005	-2.40040E-001	8.71485E-002	3.57600E+000	9	...........
	102	1.37333	8.26035E-002	-3.98860E-004	0.00000E+000	-3.29473E-005	-2.40040E-001	8.26132E-002	3.57600E+000	9	...........
	103	1.38667	7.80812E-002	-3.98386E-004	0.00000E+000	-3.11065E-005	-2.40040E-001	7.80942E-002	3.57600E+000	9	...........
	104	1.4	7.36313E-002	-3.98776E-004	0.00000E+000	-2.93624E-005	-2.40040E-001	7.36390E-002	3.57600E+000	9	...........
	105	1.41333	6.91591E-002	-3.98495E-004	0.00000E+000	-2.75595E-005	-2.40040E-001	6.91656E-002	3.57600E+000	9	...........
	106	1.42667	6.46612E-002	-3.99486E-004	0.00000E+000	-2.58312E-005	-2.40040E-001	6.46679E-002	3.57600E+000	9	...........
	107	1.44	6.02021E-002	-3.98234E-004	0.00000E+000	-2.39746E-005	-2.40040E-001	6.02086E-002	3.57600E+000	9	...........
	108	1.45333	5.56755E-002	-3.98903E-004	0.00000E+000	-2.22091E-005	-2.40040E-001	5.56788E-002	3.57600E+000	9	...........
	109	1.46667	5.12690E-002	-3.99249E-004	0.00000E+000	-2.04691E-005	-2.40040E-001	5.12706E-002	3.57600E+000	9	...........
	110	1.48	4.69302E-002	-3.98678E-004	0.00000E+000	-1.87100E-005	-2.40040E-001	4.69365E-002	3.57600E+000	9	...........
	111	1.49333	4.26034E-002	-3.98818E-004	0.00000E+000	-1.69910E-005	-2.40040E-001	4.26095E-002	3.57600E+000	9	...........
	112	1.50667	3.82976E-002	-4.00582E-004	0.00000E+000	-1.53413E-005	-2.40040E-001	3.83011E-002	3.57600E+000	9	...........
	113	1.52	3.38868E-002	-3.99098E-004	0.00000E+000	-1.35242E-005	-2.40040E-001	3.38872E-002	3.57600E+000	9	...........
	114	1.53333	2.95872E-002	-3.98128E-004	0.00000E+000	-1.17795E-005	-2.40040E-001	2.95912E-002	3.57600E+000	9	...........
	115	1.54667	2.53350E-002	-3.99451E-004	0.00000E+000	-1.01201E-005	-2.40040E-001	2.53351E-002	3.57600E+000	9	...........
	116	1.56	2.11152E-002	-3.98765E-004	0.00000E+000	-8.41999E-006	-2.40040E-001	2.11110E-002	3.57600E+000	9	...........
	117	1.57333	1.68841E-002	-3.99118E-004	0.00000E+000	-6.73876E-006	-2.40040E-001	1.68781E-002	3.57600E+000	9	...........
	118	1.58667	1.26298E-002	-3.98756E-004	0.00000E+000	-5.03623E-006	-2.40040E-001	1.26209E-002	3.57600E+000	9	...........
	119	1.6	8.42375E-003	-3.98742E-004	0.00000E+000	-3.35890E-006	-2.40040E-001	8.40968E-003	3.57600E+000	9	...........
	120	1.61333	4.22674E-003	-3.99439E-004	0.00000E+000	-1.68832E-006	-2.40040E-001	4.21047E-003	3.57600E+000	9	...........
	121	1.62167	8.24995E-004	-3.99035E-004	0.00000E+000	-3.29201E-007	-2.40040E-001	8.08152E-004	3.57600E+000	9	...........
STARTTIMEOFFSET	QUANT	815.4403	Start Time Offset (s)
