EXPLAIN
TAG	PWR800_DISCHARGE
TITLE	LABEL	PWR Cyclic Charge Discharge (Cell) - Discharge Step	Test &Identifier
DATE	LABEL	12-7-2017	Date
TIME	LABEL	15:03:47	Time
NOTES	NOTES	3	&Notes...
	supercap test cell
	0.4mg
	6M KOH
PSTAT	PSTAT	IFC5000-01520	Potentiostat
CAPACITY	QUANT	1.00000E-003	Capacity (A-hr)
CELLTYPE	SELECTOR	1	&Cell Type
WORKINGCONNECTION	SELECTOR	0	&Working Lead
MAXDISCHARGETIME	VARIABLEANDUNITS	1.00000E+002	s	1.00000E+002	second(s)	Max &Discharge Time
DISCHARGEMODE	MULTIPARAM	0	4.00000E-004	&Discharge Mode	Constant Current	Amp(s)
SAMPLETIME	QUANT	1.00000E-002	Sa&mple Period (s)
DISCHARGESTOPAT1	MULTIPARAM	3	0.00000E+000	Discharge Stop At &1	Voltage < Limit	V
DISCHARGESTOPAT2	MULTIPARAM	0	0.00000E+000	Discharge Stop At &2	None	N/A
AESBHCSELECTOR	TOGGLE	F	Save Both Half Cells
IRCOMP	TOGGLE	F	IR &Measure
EOC	QUANT	0	Open Circuit (V)
SEQUENCER	TOGGLE	TRUE	Run as Sequence
PSTATMODEL	IQUANT	53	Pstat Model
PSTATSECTION	LABEL	IFC5000-01520	Pstat Section
PSTATSERIALNO	LABEL	01520	Pstat Serial Number
CTRLMODE	IQUANT	0	Control Mode
ELECTROMETER	IQUANT	1	RE=0 or CS=1
IESTAB	IQUANT	0	I/E Stability
CASPEED	IQUANT	4	Control Amp Speed
CONVENTION	IQUANT	1	Current Convention
ICHRANGE	IQUANT	2	Ich Range
ICHRANGEMODE	TOGGLE	T	Ich Auto Range
ICHOFFSETENABLE	TOGGLE	F	Ich Offset Enable
ICHOFFSET	QUANT	0	Ich Offset (V)
ICHFILTER	IQUANT	1	Ich Filter
VCHRANGE	IQUANT	2	Vch Range
VCHRANGEMODE	TOGGLE	T	Vch Auto Range
VCHOFFSETENABLE	TOGGLE	F	Vch Offset Enable
VCHOFFSET	QUANT	0	Vch Offset (V)
VCHFILTER	IQUANT	1	Vch Filter
IERANGELOWERLIMIT	IQUANT	9	I/E Range Lower Limit
IERANGEMODE	TOGGLE	F	I/E AutoRange
IERANGE	IQUANT	9	I/E Range
ACHSELECT	IQUANT	1	Ach Select
ACHRANGE	IQUANT	2	Ach Range
ACHOFFSETENABLE	TOGGLE	F	Ach Offset Enable
ACHOFFSET	QUANT	0	Ach Offset (V)
ACHFILTER	IQUANT	1	Ach Filter
CABLEID	IQUANT	14	Cable ID
DCCALDATE	LABEL	5-7-2017	DC Calibration Date
ACCALDATE	LABEL	12/3/2015	AC Calibration Date
FRAMEWORKVERSION	QUANT	7.01	Framework Version
INSTRUMENTVERSION	LABEL	4.00	Instrument Version
CURVE	TABLE	108
	Pt	T	Vf	Im	Vu	Pwr	Sig	Ach	Temp	IERange	Over
	#	s	V	A	V	W	V	V	deg C	#	bits
	0	0.013333	6.91063E-001	-3.99082E-004	0.00000E+000	-2.75791E-004	-2.40040E-001	6.91222E-001	3.57720E+000	9	...........
	1	0.026667	6.78056E-001	-3.99303E-004	0.00000E+000	-2.70750E-004	-2.40040E-001	6.78214E-001	3.57720E+000	9	...........
	2	0.04	6.66638E-001	-3.98971E-004	0.00000E+000	-2.65969E-004	-2.40040E-001	6.66787E-001	3.57720E+000	9	...........
	3	0.053333	6.56148E-001	-3.98186E-004	0.00000E+000	-2.61269E-004	-2.40040E-001	6.56319E-001	3.57720E+000	9	...........
	4	0.066667	6.46340E-001	-3.99148E-004	0.00000E+000	-2.57985E-004	-2.40040E-001	6.46529E-001	3.57720E+000	9	...........
	5	0.08	6.36973E-001	-3.99079E-004	0.00000E+000	-2.54203E-004	-2.40040E-001	6.37184E-001	3.57720E+000	9	...........
	6	0.093333	6.27918E-001	-3.99252E-004	0.00000E+000	-2.50698E-004	-2.40040E-001	6.28116E-001	3.57720E+000	9	...........
	7	0.106667	6.19065E-001	-3.98871E-004	0.00000E+000	-2.46927E-004	-2.40040E-001	6.19271E-001	3.57720E+000	9	...........
	8	0.12	6.10420E-001	-3.98905E-004	0.00000E+000	-2.43500E-004	-2.40040E-001	6.10658E-001	3.57720E+000	9	...........
	9	0.133333	6.01864E-001	-3.99226E-004	0.00000E+000	-2.40280E-004	-2.40040E-001	6.02113E-001	3.57720E+000	9	...........
	10	0.146667	5.93428E-001	-3.98891E-004	0.00000E+000	-2.36713E-004	-2.40040E-001	5.93657E-001	3.57720E+000	9	...........
	11	0.16	5.85153E-001	-3.99788E-004	0.00000E+000	-2.33937E-004	-2.40040E-001	5.85371E-001	3.57720E+000	9	...........
	12	0.173333	5.76967E-001	-3.98217E-004	0.00000E+000	-2.29758E-004	-2.40040E-001	5.77182E-001	3.57720E+000	9	...........
	13	0.186667	5.68899E-001	-3.99640E-004	0.00000E+000	-2.27355E-004	-2.40040E-001	5.69125E-001	3.57720E+000	9	...........
	14	0.2	5.60864E-001	-3.99164E-004	0.00000E+000	-2.23876E-004	-2.40040E-001	5.61087E-001	3.57720E+000	9	...........
	15	0.213333	5.52953E-001	-3.99034E-004	0.00000E+000	-2.20647E-004	-2.40040E-001	5.53170E-001	3.57720E+000	9	...........
	16	0.226667	5.45005E-001	-3.98048E-004	0.00000E+000	-2.16938E-004	-2.40040E-001	5.45236E-001	3.57720E+000	9	...........
	17	0.24	5.37151E-001	-3.98294E-004	0.00000E+000	-2.13944E-004	-2.40040E-001	5.37396E-001	3.57720E+000	9	...........
	18	0.253333	5.29382E-001	-3.98257E-004	0.00000E+000	-2.10830E-004	-2.40040E-001	5.29612E-001	3.57720E+000	9	...........
	19	0.266667	5.21657E-001	-3.98059E-004	0.00000E+000	-2.07650E-004	-2.40040E-001	5.21881E-001	3.57720E+000	9	...........
	20	0.28	5.14035E-001	-3.99284E-004	0.00000E+000	-2.05246E-004	-2.40040E-001	5.14228E-001	3.57720E+000	9	...........
	21	0.293333	5.06331E-001	-3.99270E-004	0.00000E+000	-2.02163E-004	-2.40040E-001	5.06541E-001	3.57720E+000	9	...........
	22	0.306667	4.98770E-001	-3.98681E-004	0.00000E+000	-1.98850E-004	-2.40040E-001	4.98983E-001	3.57720E+000	9	...........
	23	0.32	4.91267E-001	-3.99066E-004	0.00000E+000	-1.96048E-004	-2.40040E-001	4.91474E-001	3.57720E+000	9	...........
	24	0.333333	4.83866E-001	-3.98507E-004	0.00000E+000	-1.92824E-004	-2.40040E-001	4.83979E-001	3.57720E+000	9	...........
	25	0.346667	4.76414E-001	-3.98852E-004	0.00000E+000	-1.90019E-004	-2.40040E-001	4.76510E-001	3.57720E+000	9	...........
	26	0.36	4.68975E-001	-3.98185E-004	0.00000E+000	-1.86739E-004	-2.40040E-001	4.69075E-001	3.57720E+000	9	...........
	27	0.373333	4.61655E-001	-4.00027E-004	0.00000E+000	-1.84674E-004	-2.40040E-001	4.61746E-001	3.57720E+000	9	...........
	28	0.386667	4.54337E-001	-3.99368E-004	0.00000E+000	-1.81447E-004	-2.40040E-001	4.54428E-001	3.57720E+000	9	...........
	29	0.4	4.47084E-001	-3.98521E-004	0.00000E+000	-1.78172E-004	-2.40040E-001	4.47183E-001	3.57720E+000	9	...........
	30	0.413333	4.39845E-001	-3.99696E-004	0.00000E+000	-1.75804E-004	-2.40040E-001	4.39934E-001	3.57720E+000	9	...........
	31	0.426667	4.32643E-001	-3.98968E-004	0.00000E+000	-1.72611E-004	-2.40040E-001	4.32725E-001	3.57720E+000	9	...........
	32	0.44	4.25493E-001	-3.99886E-004	0.00000E+000	-1.70149E-004	-2.40040E-001	4.25581E-001	3.57720E+000	9	...........
	33	0.453333	4.18401E-001	-3.98892E-004	0.00000E+000	-1.66897E-004	-2.40040E-001	4.18489E-001	3.57720E+000	9	...........
	34	0.466667	4.11387E-001	-3.99452E-004	0.00000E+000	-1.64329E-004	-2.40040E-001	4.11465E-001	3.57720E+000	9	...........
	35	0.48	4.04377E-001	-3.99355E-004	0.00000E+000	-1.61490E-004	-2.40040E-001	4.04457E-001	3.57720E+000	9	...........
	36	0.493333	3.97386E-001	-3.98133E-004	0.00000E+000	-1.58212E-004	-2.40040E-001	3.97465E-001	3.57720E+000	9	...........
	37	0.506667	3.90420E-001	-3.98117E-004	0.00000E+000	-1.55432E-004	-2.40040E-001	3.90494E-001	3.57720E+000	9	...........
	38	0.52	3.83489E-001	-3.98503E-004	0.00000E+000	-1.52822E-004	-2.40040E-001	3.83563E-001	3.57720E+000	9	...........
	39	0.533333	3.76556E-001	-3.98902E-004	0.00000E+000	-1.50209E-004	-2.40040E-001	3.76626E-001	3.57720E+000	9	...........
	40	0.546667	3.69826E-001	-3.98687E-004	0.00000E+000	-1.47445E-004	-2.40040E-001	3.69894E-001	3.57720E+000	9	...........
	41	0.56	3.63011E-001	-4.00681E-004	0.00000E+000	-1.45451E-004	-2.40040E-001	3.63076E-001	3.57720E+000	9	...........
	42	0.573333	3.56299E-001	-3.98345E-004	0.00000E+000	-1.41930E-004	-2.40040E-001	3.56371E-001	3.57720E+000	9	...........
	43	0.586667	3.49557E-001	-3.99117E-004	0.00000E+000	-1.39514E-004	-2.40040E-001	3.49617E-001	3.57720E+000	9	...........
	44	0.6	3.42837E-001	-3.98910E-004	0.00000E+000	-1.36761E-004	-2.40040E-001	3.42901E-001	3.57720E+000	9	...........
	45	0.613333	3.36180E-001	-3.98925E-004	0.00000E+000	-1.34111E-004	-2.40040E-001	3.36250E-001	3.57720E+000	9	...........
	46	0.626667	3.29604E-001	-3.98941E-004	0.00000E+000	-1.31493E-004	-2.40040E-001	3.29668E-001	3.57720E+000	9	...........
	47	0.64	3.23077E-001	-3.98857E-004	0.00000E+000	-1.28862E-004	-2.40040E-001	3.23139E-001	3.57720E+000	9	...........
	48	0.653333	3.16629E-001	-3.98339E-004	0.00000E+000	-1.26126E-004	-2.40040E-001	3.16688E-001	3.57720E+000	9	...........
	49	0.666667	3.10150E-001	-3.98494E-004	0.00000E+000	-1.23593E-004	-2.40040E-001	3.10208E-001	3.57720E+000	9	...........
	50	0.68	3.03732E-001	-3.97665E-004	0.00000E+000	-1.20784E-004	-2.40040E-001	3.03793E-001	3.57720E+000	9	...........
	51	0.693333	2.97359E-001	-3.99262E-004	0.00000E+000	-1.18724E-004	-2.40040E-001	2.97415E-001	3.57720E+000	9	...........
	52	0.706667	2.91018E-001	-3.99853E-004	0.00000E+000	-1.16365E-004	-2.40040E-001	2.91079E-001	3.57720E+000	9	...........
	53	0.72	2.84710E-001	-3.99733E-004	0.00000E+000	-1.13808E-004	-2.40040E-001	2.84762E-001	3.57720E+000	9	...........
	54	0.733333	2.78428E-001	-3.99741E-004	0.00000E+000	-1.11299E-004	-2.40040E-001	2.78484E-001	3.57720E+000	9	...........
	55	0.746667	2.72220E-001	-3.98801E-004	0.00000E+000	-1.08562E-004	-2.40040E-001	2.72275E-001	3.57720E+000	9	...........
	56	0.76	2.66019E-001	-3.98163E-004	0.00000E+000	-1.05919E-004	-2.40040E-001	2.66070E-001	3.57720E+000	9	...........
	57	0.773333	2.59877E-001	-3.98393E-004	0.00000E+000	-1.03533E-004	-2.40040E-001	2.59929E-001	3.57720E+000	9	...........
	58	0.786667	2.53772E-001	-3.99491E-004	0.00000E+000	-1.01380E-004	-2.40040E-001	2.53824E-001	3.57720E+000	9	...........
	59	0.8	2.47743E-001	-3.99021E-004	0.00000E+000	-9.88546E-005	-2.40040E-001	2.47795E-001	3.57720E+000	9	...........
	60	0.813333	2.41715E-001	-3.98436E-004	0.00000E+000	-9.63080E-005	-2.40040E-001	2.41764E-001	3.57720E+000	9	...........
	61	0.826667	2.35715E-001	-3.97857E-004	0.00000E+000	-9.37811E-005	-2.40040E-001	2.35756E-001	3.57720E+000	9	...........
	62	0.84	2.29739E-001	-3.98227E-004	0.00000E+000	-9.14883E-005	-2.40040E-001	2.29784E-001	3.57720E+000	9	...........
	63	0.853333	2.23821E-001	-4.00070E-004	0.00000E+000	-8.95440E-005	-2.40040E-001	2.23861E-001	3.57720E+000	9	...........
	64	0.866667	2.17894E-001	-3.99393E-004	0.00000E+000	-8.70254E-005	-2.40040E-001	2.17933E-001	3.57720E+000	9	...........
	65	0.88	2.12063E-001	-3.99767E-004	0.00000E+000	-8.47757E-005	-2.40040E-001	2.12099E-001	3.57720E+000	9	...........
	66	0.893333	2.06285E-001	-3.98647E-004	0.00000E+000	-8.22347E-005	-2.40040E-001	2.06326E-001	3.57720E+000	9	...........
	67	0.906667	2.00554E-001	-3.99079E-004	0.00000E+000	-8.00370E-005	-2.40040E-001	2.00593E-001	3.57720E+000	9	...........
	68	0.92	1.94797E-001	-3.99041E-004	0.00000E+000	-7.77319E-005	-2.40040E-001	1.94834E-001	3.57764E+000	9	...........
	69	0.933333	1.89129E-001	-3.99049E-004	0.00000E+000	-7.54717E-005	-2.40040E-001	1.89165E-001	3.57770E+000	9	...........
	70	0.946667	1.83558E-001	-3.98830E-004	0.00000E+000	-7.32084E-005	-2.40040E-001	1.83594E-001	3.57770E+000	9	...........
	71	0.96	1.77992E-001	-3.97994E-004	0.00000E+000	-7.08398E-005	-2.40040E-001	1.78029E-001	3.57770E+000	9	...........
	72	0.97333	1.72489E-001	-3.98732E-004	0.00000E+000	-6.87770E-005	-2.40040E-001	1.72520E-001	3.57770E+000	9	...........
	73	0.98667	1.66981E-001	-3.99357E-004	0.00000E+000	-6.66852E-005	-2.40040E-001	1.67015E-001	3.57770E+000	9	...........
	74	1	1.61527E-001	-3.98350E-004	0.00000E+000	-6.43442E-005	-2.40040E-001	1.61556E-001	3.57770E+000	9	...........
	75	1.01333	1.56089E-001	-3.99310E-004	0.00000E+000	-6.23278E-005	-2.40040E-001	1.56117E-001	3.57770E+000	9	...........
	76	1.02667	1.50706E-001	-3.99067E-004	0.00000E+000	-6.01418E-005	-2.40040E-001	1.50732E-001	3.57770E+000	9	...........
	77	1.04	1.45364E-001	-3.98098E-004	0.00000E+000	-5.78690E-005	-2.40040E-001	1.45387E-001	3.57770E+000	9	...........
	78	1.05333	1.39985E-001	-3.99333E-004	0.00000E+000	-5.59009E-005	-2.40040E-001	1.40013E-001	3.57770E+000	9	...........
	79	1.06667	1.34648E-001	-3.98611E-004	0.00000E+000	-5.36724E-005	-2.40040E-001	1.34669E-001	3.57770E+000	9	...........
	80	1.08	1.29410E-001	-3.97926E-004	0.00000E+000	-5.14957E-005	-2.40040E-001	1.29431E-001	3.57770E+000	9	...........
	81	1.09333	1.24121E-001	-3.98952E-004	0.00000E+000	-4.95184E-005	-2.40040E-001	1.24141E-001	3.57770E+000	9	...........
	82	1.10667	1.18907E-001	-3.98889E-004	0.00000E+000	-4.74307E-005	-2.40040E-001	1.18923E-001	3.57770E+000	9	...........
	83	1.12	1.13803E-001	-3.98884E-004	0.00000E+000	-4.53944E-005	-2.40040E-001	1.13819E-001	3.57770E+000	9	...........
	84	1.13333	1.08663E-001	-3.99214E-004	0.00000E+000	-4.33796E-005	-2.40040E-001	1.08683E-001	3.57770E+000	9	...........
	85	1.14667	1.03528E-001	-3.97965E-004	0.00000E+000	-4.12007E-005	-2.40040E-001	1.03544E-001	3.57770E+000	9	...........
	86	1.16	9.84136E-002	-3.97502E-004	0.00000E+000	-3.91196E-005	-2.40040E-001	9.84312E-002	3.57770E+000	9	...........
	87	1.17333	9.33096E-002	-3.99083E-004	0.00000E+000	-3.72383E-005	-2.40040E-001	9.33294E-002	3.57770E+000	9	...........
	88	1.18667	8.83480E-002	-3.98837E-004	0.00000E+000	-3.52365E-005	-2.40040E-001	8.83566E-002	3.57770E+000	9	...........
	89	1.2	8.33708E-002	-3.99571E-004	0.00000E+000	-3.33125E-005	-2.40040E-001	8.33854E-002	3.57770E+000	9	...........
	90	1.21333	7.84610E-002	-3.99356E-004	0.00000E+000	-3.13339E-005	-2.40040E-001	7.84734E-002	3.57770E+000	9	...........
	91	1.22667	7.35274E-002	-3.98651E-004	0.00000E+000	-2.93118E-005	-2.40040E-001	7.35398E-002	3.57770E+000	9	...........
	92	1.24	6.86237E-002	-3.98100E-004	0.00000E+000	-2.73191E-005	-2.40040E-001	6.86266E-002	3.57770E+000	9	...........
	93	1.25333	6.37329E-002	-3.99296E-004	0.00000E+000	-2.54483E-005	-2.40040E-001	6.37451E-002	3.57770E+000	9	...........
	94	1.26667	5.88421E-002	-3.98754E-004	0.00000E+000	-2.34635E-005	-2.40040E-001	5.88503E-002	3.57770E+000	9	...........
	95	1.28	5.40025E-002	-3.99275E-004	0.00000E+000	-2.15618E-005	-2.40040E-001	5.40067E-002	3.57770E+000	9	...........
	96	1.29333	4.92135E-002	-3.98911E-004	0.00000E+000	-1.96318E-005	-2.40040E-001	4.92210E-002	3.57770E+000	9	...........
	97	1.30667	4.44049E-002	-3.98386E-004	0.00000E+000	-1.76903E-005	-2.40040E-001	4.44139E-002	3.57770E+000	9	...........
	98	1.32	3.97218E-002	-3.98544E-004	0.00000E+000	-1.58309E-005	-2.40040E-001	3.97265E-002	3.57770E+000	9	...........
	99	1.33333	3.50881E-002	-3.99085E-004	0.00000E+000	-1.40032E-005	-2.40040E-001	3.50893E-002	3.57770E+000	9	...........
	100	1.34667	3.04735E-002	-3.98643E-004	0.00000E+000	-1.21480E-005	-2.40040E-001	3.04672E-002	3.57770E+000	9	...........
	101	1.36	2.57514E-002	-3.98833E-004	0.00000E+000	-1.02705E-005	-2.40040E-001	2.57448E-002	3.57770E+000	9	...........
	102	1.37333	2.11662E-002	-3.99313E-004	0.00000E+000	-8.45193E-006	-2.40040E-001	2.11586E-002	3.57770E+000	9	...........
	103	1.38667	1.66660E-002	-3.98823E-004	0.00000E+000	-6.64679E-006	-2.40040E-001	1.66563E-002	3.57770E+000	9	...........
	104	1.4	1.21118E-002	-3.98982E-004	0.00000E+000	-4.83238E-006	-2.40040E-001	1.20943E-002	3.57770E+000	9	...........
	105	1.41333	7.54619E-003	-3.98517E-004	0.00000E+000	-3.00728E-006	-2.40040E-001	7.52953E-003	3.57770E+000	9	...........
	106	1.42667	2.96134E-003	-3.99288E-004	0.00000E+000	-1.18243E-006	-2.40040E-001	2.94543E-003	3.57770E+000	9	...........
	107	1.43	5.82798E-005	-3.98610E-004	0.00000E+000	-2.32309E-008	-2.40040E-001	4.15013E-005	3.57770E+000	9	...........
STARTTIMEOFFSET	QUANT	2150.27	Start Time Offset (s)
