EXPLAIN
TAG	PWR800_DISCHARGE
TITLE	LABEL	PWR Cyclic Charge Discharge (Cell) - Discharge Step	Test &Identifier
DATE	LABEL	12-7-2017	Date
TIME	LABEL	15:22:13	Time
NOTES	NOTES	3	&Notes...
	supercap test cell
	0.4mg
	6M KOH
PSTAT	PSTAT	IFC5000-01520	Potentiostat
CAPACITY	QUANT	1.00000E-003	Capacity (A-hr)
CELLTYPE	SELECTOR	1	&Cell Type
WORKINGCONNECTION	SELECTOR	0	&Working Lead
MAXDISCHARGETIME	VARIABLEANDUNITS	1.00000E+002	s	1.00000E+002	second(s)	Max &Discharge Time
DISCHARGEMODE	MULTIPARAM	0	4.00000E-004	&Discharge Mode	Constant Current	Amp(s)
SAMPLETIME	QUANT	1.00000E-002	Sa&mple Period (s)
DISCHARGESTOPAT1	MULTIPARAM	3	0.00000E+000	Discharge Stop At &1	Voltage < Limit	V
DISCHARGESTOPAT2	MULTIPARAM	0	0.00000E+000	Discharge Stop At &2	None	N/A
AESBHCSELECTOR	TOGGLE	F	Save Both Half Cells
IRCOMP	TOGGLE	F	IR &Measure
EOC	QUANT	0	Open Circuit (V)
SEQUENCER	TOGGLE	TRUE	Run as Sequence
PSTATMODEL	IQUANT	53	Pstat Model
PSTATSECTION	LABEL	IFC5000-01520	Pstat Section
PSTATSERIALNO	LABEL	01520	Pstat Serial Number
CTRLMODE	IQUANT	0	Control Mode
ELECTROMETER	IQUANT	1	RE=0 or CS=1
IESTAB	IQUANT	0	I/E Stability
CASPEED	IQUANT	4	Control Amp Speed
CONVENTION	IQUANT	1	Current Convention
ICHRANGE	IQUANT	2	Ich Range
ICHRANGEMODE	TOGGLE	T	Ich Auto Range
ICHOFFSETENABLE	TOGGLE	F	Ich Offset Enable
ICHOFFSET	QUANT	0	Ich Offset (V)
ICHFILTER	IQUANT	1	Ich Filter
VCHRANGE	IQUANT	2	Vch Range
VCHRANGEMODE	TOGGLE	T	Vch Auto Range
VCHOFFSETENABLE	TOGGLE	F	Vch Offset Enable
VCHOFFSET	QUANT	0	Vch Offset (V)
VCHFILTER	IQUANT	1	Vch Filter
IERANGELOWERLIMIT	IQUANT	9	I/E Range Lower Limit
IERANGEMODE	TOGGLE	F	I/E AutoRange
IERANGE	IQUANT	9	I/E Range
ACHSELECT	IQUANT	1	Ach Select
ACHRANGE	IQUANT	2	Ach Range
ACHOFFSETENABLE	TOGGLE	F	Ach Offset Enable
ACHOFFSET	QUANT	0	Ach Offset (V)
ACHFILTER	IQUANT	1	Ach Filter
CABLEID	IQUANT	14	Cable ID
DCCALDATE	LABEL	5-7-2017	DC Calibration Date
ACCALDATE	LABEL	12/3/2015	AC Calibration Date
FRAMEWORKVERSION	QUANT	7.01	Framework Version
INSTRUMENTVERSION	LABEL	4.00	Instrument Version
CURVE	TABLE	102
	Pt	T	Vf	Im	Vu	Pwr	Sig	Ach	Temp	IERange	Over
	#	s	V	A	V	W	V	V	deg C	#	bits
	0	0.013333	6.81611E-001	-3.98459E-004	0.00000E+000	-2.71594E-004	-2.40040E-001	6.81839E-001	3.57640E+000	9	...........
	1	0.026667	6.67761E-001	-3.98769E-004	0.00000E+000	-2.66282E-004	-2.40040E-001	6.67993E-001	3.57640E+000	9	...........
	2	0.04	6.55733E-001	-3.99317E-004	0.00000E+000	-2.61845E-004	-2.40040E-001	6.55984E-001	3.57640E+000	9	...........
	3	0.053333	6.44861E-001	-3.98103E-004	0.00000E+000	-2.56721E-004	-2.40040E-001	6.45102E-001	3.57640E+000	9	...........
	4	0.066667	6.34612E-001	-3.98263E-004	0.00000E+000	-2.52743E-004	-2.40040E-001	6.34852E-001	3.57640E+000	9	...........
	5	0.08	6.24850E-001	-3.99494E-004	0.00000E+000	-2.49624E-004	-2.40040E-001	6.25091E-001	3.57640E+000	9	...........
	6	0.093333	6.15418E-001	-3.99477E-004	0.00000E+000	-2.45845E-004	-2.40040E-001	6.15633E-001	3.57640E+000	9	...........
	7	0.106667	6.06217E-001	-3.98354E-004	0.00000E+000	-2.41489E-004	-2.40040E-001	6.06462E-001	3.57640E+000	9	...........
	8	0.12	5.97246E-001	-3.98827E-004	0.00000E+000	-2.38198E-004	-2.40040E-001	5.97473E-001	3.57640E+000	9	...........
	9	0.133333	5.88436E-001	-3.98687E-004	0.00000E+000	-2.34602E-004	-2.40040E-001	5.88668E-001	3.57640E+000	9	...........
	10	0.146667	5.79699E-001	-3.99423E-004	0.00000E+000	-2.31545E-004	-2.40040E-001	5.79932E-001	3.57640E+000	9	...........
	11	0.16	5.71140E-001	-3.99308E-004	0.00000E+000	-2.28061E-004	-2.40040E-001	5.71335E-001	3.57640E+000	9	...........
	12	0.173333	5.62644E-001	-3.99285E-004	0.00000E+000	-2.24656E-004	-2.40040E-001	5.62862E-001	3.57640E+000	9	...........
	13	0.186667	5.54283E-001	-3.99606E-004	0.00000E+000	-2.21495E-004	-2.40040E-001	5.54492E-001	3.57640E+000	9	...........
	14	0.2	5.46012E-001	-3.99180E-004	0.00000E+000	-2.17957E-004	-2.40040E-001	5.46217E-001	3.57640E+000	9	...........
	15	0.213333	5.37841E-001	-3.99195E-004	0.00000E+000	-2.14704E-004	-2.40040E-001	5.38047E-001	3.57655E+000	9	...........
	16	0.226667	5.29648E-001	-3.97830E-004	0.00000E+000	-2.10710E-004	-2.40040E-001	5.29864E-001	3.57660E+000	9	...........
	17	0.24	5.21565E-001	-3.98286E-004	0.00000E+000	-2.07732E-004	-2.40040E-001	5.21757E-001	3.57660E+000	9	...........
	18	0.253333	5.13496E-001	-3.99412E-004	0.00000E+000	-2.05096E-004	-2.40040E-001	5.13685E-001	3.57660E+000	9	...........
	19	0.266667	5.05401E-001	-3.98056E-004	0.00000E+000	-2.01178E-004	-2.40040E-001	5.05611E-001	3.57660E+000	9	...........
	20	0.28	4.97464E-001	-3.97850E-004	0.00000E+000	-1.97916E-004	-2.40040E-001	4.97686E-001	3.57660E+000	9	...........
	21	0.293333	4.89602E-001	-3.98782E-004	0.00000E+000	-1.95245E-004	-2.40040E-001	4.89818E-001	3.57660E+000	9	...........
	22	0.306667	4.81994E-001	-3.98523E-004	0.00000E+000	-1.92085E-004	-2.40040E-001	4.82088E-001	3.57660E+000	9	...........
	23	0.32	4.74182E-001	-3.99151E-004	0.00000E+000	-1.89270E-004	-2.40040E-001	4.74285E-001	3.57660E+000	9	...........
	24	0.333333	4.66418E-001	-3.99266E-004	0.00000E+000	-1.86225E-004	-2.40040E-001	4.66512E-001	3.57660E+000	9	...........
	25	0.346667	4.58736E-001	-3.98371E-004	0.00000E+000	-1.82747E-004	-2.40040E-001	4.58832E-001	3.57660E+000	9	...........
	26	0.36	4.50978E-001	-3.98168E-004	0.00000E+000	-1.79565E-004	-2.40040E-001	4.51077E-001	3.57660E+000	9	...........
	27	0.373333	4.43406E-001	-3.99017E-004	0.00000E+000	-1.76926E-004	-2.40040E-001	4.43503E-001	3.57660E+000	9	...........
	28	0.386667	4.35775E-001	-3.99391E-004	0.00000E+000	-1.74044E-004	-2.40040E-001	4.35863E-001	3.57660E+000	9	...........
	29	0.4	4.28158E-001	-3.98575E-004	0.00000E+000	-1.70653E-004	-2.40040E-001	4.28251E-001	3.57660E+000	9	...........
	30	0.413333	4.20621E-001	-3.98206E-004	0.00000E+000	-1.67494E-004	-2.40040E-001	4.20712E-001	3.57660E+000	9	...........
	31	0.426667	4.13142E-001	-3.97615E-004	0.00000E+000	-1.64272E-004	-2.40040E-001	4.13228E-001	3.57660E+000	9	...........
	32	0.44	4.05674E-001	-3.99418E-004	0.00000E+000	-1.62033E-004	-2.40040E-001	4.05753E-001	3.57660E+000	9	...........
	33	0.453333	3.98297E-001	-3.98986E-004	0.00000E+000	-1.58915E-004	-2.40040E-001	3.98376E-001	3.57660E+000	9	...........
	34	0.466667	3.91018E-001	-3.99092E-004	0.00000E+000	-1.56052E-004	-2.40040E-001	3.91095E-001	3.57660E+000	9	...........
	35	0.48	3.83726E-001	-3.99350E-004	0.00000E+000	-1.53241E-004	-2.40040E-001	3.83806E-001	3.57660E+000	9	...........
	36	0.493333	3.76475E-001	-3.98455E-004	0.00000E+000	-1.50009E-004	-2.40040E-001	3.76547E-001	3.57660E+000	9	...........
	37	0.506667	3.69232E-001	-3.98001E-004	0.00000E+000	-1.46955E-004	-2.40040E-001	3.69300E-001	3.57660E+000	9	...........
	38	0.52	3.62058E-001	-3.98759E-004	0.00000E+000	-1.44374E-004	-2.40040E-001	3.62131E-001	3.57660E+000	9	...........
	39	0.533333	3.55025E-001	-3.98544E-004	0.00000E+000	-1.41493E-004	-2.40040E-001	3.55091E-001	3.57660E+000	9	...........
	40	0.546667	3.47999E-001	-3.99349E-004	0.00000E+000	-1.38973E-004	-2.40040E-001	3.48068E-001	3.57660E+000	9	...........
	41	0.56	3.41010E-001	-3.98450E-004	0.00000E+000	-1.35875E-004	-2.40040E-001	3.41080E-001	3.57660E+000	9	...........
	42	0.573333	3.34033E-001	-3.98504E-004	0.00000E+000	-1.33114E-004	-2.40040E-001	3.34100E-001	3.57660E+000	9	...........
	43	0.586667	3.27080E-001	-3.98230E-004	0.00000E+000	-1.30253E-004	-2.40040E-001	3.27151E-001	3.57660E+000	9	...........
	44	0.6	3.20314E-001	-3.98481E-004	0.00000E+000	-1.27639E-004	-2.40040E-001	3.20380E-001	3.57660E+000	9	...........
	45	0.613333	3.13525E-001	-3.99038E-004	0.00000E+000	-1.25108E-004	-2.40040E-001	3.13591E-001	3.57660E+000	9	...........
	46	0.626667	3.06751E-001	-3.98286E-004	0.00000E+000	-1.22175E-004	-2.40040E-001	3.06815E-001	3.57660E+000	9	...........
	47	0.64	2.99978E-001	-3.98815E-004	0.00000E+000	-1.19636E-004	-2.40040E-001	3.00036E-001	3.57660E+000	9	...........
	48	0.653333	2.93327E-001	-4.00765E-004	0.00000E+000	-1.17555E-004	-2.40040E-001	2.93383E-001	3.57660E+000	9	...........
	49	0.666667	2.86644E-001	-3.99493E-004	0.00000E+000	-1.14512E-004	-2.40040E-001	2.86700E-001	3.57660E+000	9	...........
	50	0.68	2.80020E-001	-3.98643E-004	0.00000E+000	-1.11628E-004	-2.40040E-001	2.80075E-001	3.57660E+000	9	...........
	51	0.693333	2.73446E-001	-3.98567E-004	0.00000E+000	-1.08986E-004	-2.40040E-001	2.73508E-001	3.57660E+000	9	...........
	52	0.706667	2.66898E-001	-3.99151E-004	0.00000E+000	-1.06532E-004	-2.40040E-001	2.66954E-001	3.57660E+000	9	...........
	53	0.72	2.60524E-001	-3.97904E-004	0.00000E+000	-1.03663E-004	-2.40040E-001	2.60579E-001	3.57660E+000	9	...........
	54	0.733333	2.54126E-001	-3.98313E-004	0.00000E+000	-1.01222E-004	-2.40040E-001	2.54175E-001	3.57660E+000	9	...........
	55	0.746667	2.47751E-001	-3.98444E-004	0.00000E+000	-9.87148E-005	-2.40040E-001	2.47800E-001	3.57660E+000	9	...........
	56	0.76	2.41439E-001	-3.99083E-004	0.00000E+000	-9.63542E-005	-2.40040E-001	2.41478E-001	3.57660E+000	9	...........
	57	0.773333	2.35209E-001	-3.99476E-004	0.00000E+000	-9.39606E-005	-2.40040E-001	2.35253E-001	3.57660E+000	9	...........
	58	0.786667	2.28952E-001	-3.98767E-004	0.00000E+000	-9.12985E-005	-2.40040E-001	2.28992E-001	3.57660E+000	9	...........
	59	0.8	2.22811E-001	-3.99234E-004	0.00000E+000	-8.89540E-005	-2.40040E-001	2.22853E-001	3.57660E+000	9	...........
	60	0.813333	2.16709E-001	-3.99531E-004	0.00000E+000	-8.65822E-005	-2.40040E-001	2.16753E-001	3.57660E+000	9	...........
	61	0.826667	2.10636E-001	-3.98382E-004	0.00000E+000	-8.39135E-005	-2.40040E-001	2.10672E-001	3.57660E+000	9	...........
	62	0.84	2.04508E-001	-3.98048E-004	0.00000E+000	-8.14039E-005	-2.40040E-001	2.04551E-001	3.57660E+000	9	...........
	63	0.853333	1.98440E-001	-3.98876E-004	0.00000E+000	-7.91530E-005	-2.40040E-001	1.98476E-001	3.57660E+000	9	...........
	64	0.866667	1.92435E-001	-3.99396E-004	0.00000E+000	-7.68579E-005	-2.40040E-001	1.92470E-001	3.57660E+000	9	...........
	65	0.88	1.86495E-001	-3.98672E-004	0.00000E+000	-7.43505E-005	-2.40040E-001	1.86527E-001	3.57660E+000	9	...........
	66	0.893333	1.80757E-001	-3.98036E-004	0.00000E+000	-7.19477E-005	-2.40040E-001	1.80793E-001	3.57660E+000	9	...........
	67	0.906667	1.74841E-001	-3.99948E-004	0.00000E+000	-6.99274E-005	-2.40040E-001	1.74873E-001	3.57660E+000	9	...........
	68	0.92	1.69020E-001	-3.98541E-004	0.00000E+000	-6.73615E-005	-2.40040E-001	1.69051E-001	3.57660E+000	9	...........
	69	0.933333	1.63249E-001	-4.00208E-004	0.00000E+000	-6.53337E-005	-2.40040E-001	1.63277E-001	3.57660E+000	9	...........
	70	0.946667	1.57597E-001	-3.99066E-004	0.00000E+000	-6.28917E-005	-2.40040E-001	1.57622E-001	3.57660E+000	9	...........
	71	0.96	1.51821E-001	-3.99757E-004	0.00000E+000	-6.06915E-005	-2.40040E-001	1.51843E-001	3.57660E+000	9	...........
	72	0.97333	1.46148E-001	-3.98877E-004	0.00000E+000	-5.82950E-005	-2.40040E-001	1.46169E-001	3.57660E+000	9	...........
	73	0.98667	1.40579E-001	-3.99371E-004	0.00000E+000	-5.61432E-005	-2.40040E-001	1.40605E-001	3.57660E+000	9	...........
	74	1	1.35099E-001	-3.98113E-004	0.00000E+000	-5.37846E-005	-2.40040E-001	1.35121E-001	3.57660E+000	9	...........
	75	1.01333	1.29630E-001	-3.98574E-004	0.00000E+000	-5.16670E-005	-2.40040E-001	1.29656E-001	3.57660E+000	9	...........
	76	1.02667	1.24167E-001	-3.97933E-004	0.00000E+000	-4.94102E-005	-2.40040E-001	1.24188E-001	3.57660E+000	9	...........
	77	1.04	1.18703E-001	-3.97532E-004	0.00000E+000	-4.71883E-005	-2.40040E-001	1.18729E-001	3.57660E+000	9	...........
	78	1.05333	1.13201E-001	-3.98235E-004	0.00000E+000	-4.50806E-005	-2.40040E-001	1.13224E-001	3.57660E+000	9	...........
	79	1.06667	1.07824E-001	-3.99027E-004	0.00000E+000	-4.30245E-005	-2.40040E-001	1.07846E-001	3.57660E+000	9	...........
	80	1.08	1.02523E-001	-3.99391E-004	0.00000E+000	-4.09468E-005	-2.40040E-001	1.02546E-001	3.57660E+000	9	...........
	81	1.09333	9.72999E-002	-3.98871E-004	0.00000E+000	-3.88101E-005	-2.40040E-001	9.73193E-002	3.57660E+000	9	...........
	82	1.10667	9.20514E-002	-3.99126E-004	0.00000E+000	-3.67401E-005	-2.40040E-001	9.20691E-002	3.57660E+000	9	...........
	83	1.12	8.67478E-002	-3.98991E-004	0.00000E+000	-3.46116E-005	-2.40040E-001	8.67649E-002	3.57660E+000	9	...........
	84	1.13333	8.14804E-002	-3.98370E-004	0.00000E+000	-3.24593E-005	-2.40040E-001	8.14912E-002	3.57660E+000	9	...........
	85	1.14667	7.63414E-002	-3.98668E-004	0.00000E+000	-3.04348E-005	-2.40040E-001	7.63539E-002	3.57660E+000	9	...........
	86	1.16	7.12066E-002	-3.99114E-004	0.00000E+000	-2.84195E-005	-2.40040E-001	7.12190E-002	3.57660E+000	9	...........
	87	1.17333	6.61076E-002	-3.99088E-004	0.00000E+000	-2.63827E-005	-2.40040E-001	6.61222E-002	3.57660E+000	9	...........
	88	1.18667	6.11048E-002	-3.98430E-004	0.00000E+000	-2.43460E-005	-2.40040E-001	6.11066E-002	3.57660E+000	9	...........
	89	1.2	5.60243E-002	-3.99051E-004	0.00000E+000	-2.23566E-005	-2.40040E-001	5.60328E-002	3.57660E+000	9	...........
	90	1.21333	5.09768E-002	-3.98725E-004	0.00000E+000	-2.03257E-005	-2.40040E-001	5.09871E-002	3.57652E+000	9	...........
	91	1.22667	4.60943E-002	-3.98396E-004	0.00000E+000	-1.83638E-005	-2.40040E-001	4.60986E-002	3.57650E+000	9	...........
	92	1.24	4.11703E-002	-3.98473E-004	0.00000E+000	-1.64052E-005	-2.40040E-001	4.11797E-002	3.57650E+000	9	...........
	93	1.25333	3.62735E-002	-3.99403E-004	0.00000E+000	-1.44877E-005	-2.40040E-001	3.62791E-002	3.57650E+000	9	...........
	94	1.26667	3.14779E-002	-4.00612E-004	0.00000E+000	-1.26104E-005	-2.40040E-001	3.14834E-002	3.57650E+000	9	...........
	95	1.28	2.66929E-002	-3.98992E-004	0.00000E+000	-1.06503E-005	-2.40040E-001	2.66882E-002	3.57650E+000	9	...........
	96	1.29333	2.18056E-002	-3.99097E-004	0.00000E+000	-8.70253E-006	-2.40040E-001	2.17987E-002	3.57650E+000	9	...........
	97	1.30667	1.70432E-002	-3.99711E-004	0.00000E+000	-6.81236E-006	-2.40040E-001	1.70396E-002	3.57650E+000	9	...........
	98	1.32	1.22991E-002	-3.98860E-004	0.00000E+000	-4.90561E-006	-2.40040E-001	1.22895E-002	3.57650E+000	9	...........
	99	1.33333	7.49304E-003	-3.97960E-004	0.00000E+000	-2.98193E-006	-2.40040E-001	7.47777E-003	3.57650E+000	9	...........
	100	1.34667	2.82783E-003	-3.98871E-004	0.00000E+000	-1.12794E-006	-2.40040E-001	2.80556E-003	3.57650E+000	9	...........
	101	1.35	-7.68691E-005	-4.00006E-004	0.00000E+000	3.07481E-008	-2.40040E-001	-9.70005E-005	3.57650E+000	9	...........
STARTTIMEOFFSET	QUANT	3010.223	Start Time Offset (s)
