EXPLAIN
TAG	PWR800_DISCHARGE
TITLE	LABEL	PWR Cyclic Charge Discharge (Cell) - Discharge Step	Test &Identifier
DATE	LABEL	12-7-2017	Date
TIME	LABEL	15:13:13	Time
NOTES	NOTES	3	&Notes...
	supercap test cell
	0.4mg
	6M KOH
PSTAT	PSTAT	IFC5000-01520	Potentiostat
CAPACITY	QUANT	1.00000E-003	Capacity (A-hr)
CELLTYPE	SELECTOR	1	&Cell Type
WORKINGCONNECTION	SELECTOR	0	&Working Lead
MAXDISCHARGETIME	VARIABLEANDUNITS	1.00000E+002	s	1.00000E+002	second(s)	Max &Discharge Time
DISCHARGEMODE	MULTIPARAM	0	4.00000E-004	&Discharge Mode	Constant Current	Amp(s)
SAMPLETIME	QUANT	1.00000E-002	Sa&mple Period (s)
DISCHARGESTOPAT1	MULTIPARAM	3	0.00000E+000	Discharge Stop At &1	Voltage < Limit	V
DISCHARGESTOPAT2	MULTIPARAM	0	0.00000E+000	Discharge Stop At &2	None	N/A
AESBHCSELECTOR	TOGGLE	F	Save Both Half Cells
IRCOMP	TOGGLE	F	IR &Measure
EOC	QUANT	0	Open Circuit (V)
SEQUENCER	TOGGLE	TRUE	Run as Sequence
PSTATMODEL	IQUANT	53	Pstat Model
PSTATSECTION	LABEL	IFC5000-01520	Pstat Section
PSTATSERIALNO	LABEL	01520	Pstat Serial Number
CTRLMODE	IQUANT	0	Control Mode
ELECTROMETER	IQUANT	1	RE=0 or CS=1
IESTAB	IQUANT	0	I/E Stability
CASPEED	IQUANT	4	Control Amp Speed
CONVENTION	IQUANT	1	Current Convention
ICHRANGE	IQUANT	2	Ich Range
ICHRANGEMODE	TOGGLE	T	Ich Auto Range
ICHOFFSETENABLE	TOGGLE	F	Ich Offset Enable
ICHOFFSET	QUANT	0	Ich Offset (V)
ICHFILTER	IQUANT	1	Ich Filter
VCHRANGE	IQUANT	2	Vch Range
VCHRANGEMODE	TOGGLE	T	Vch Auto Range
VCHOFFSETENABLE	TOGGLE	F	Vch Offset Enable
VCHOFFSET	QUANT	0	Vch Offset (V)
VCHFILTER	IQUANT	1	Vch Filter
IERANGELOWERLIMIT	IQUANT	9	I/E Range Lower Limit
IERANGEMODE	TOGGLE	F	I/E AutoRange
IERANGE	IQUANT	9	I/E Range
ACHSELECT	IQUANT	1	Ach Select
ACHRANGE	IQUANT	2	Ach Range
ACHOFFSETENABLE	TOGGLE	F	Ach Offset Enable
ACHOFFSET	QUANT	0	Ach Offset (V)
ACHFILTER	IQUANT	1	Ach Filter
CABLEID	IQUANT	14	Cable ID
DCCALDATE	LABEL	5-7-2017	DC Calibration Date
ACCALDATE	LABEL	12/3/2015	AC Calibration Date
FRAMEWORKVERSION	QUANT	7.01	Framework Version
INSTRUMENTVERSION	LABEL	4.00	Instrument Version
CURVE	TABLE	104
	Pt	T	Vf	Im	Vu	Pwr	Sig	Ach	Temp	IERange	Over
	#	s	V	A	V	W	V	V	deg C	#	bits
	0	0.013333	6.86413E-001	-4.00199E-004	0.00000E+000	-2.74702E-004	-2.40040E-001	6.86652E-001	3.57640E+000	9	...........
	1	0.026667	6.72899E-001	-4.00185E-004	0.00000E+000	-2.69284E-004	-2.40040E-001	6.73138E-001	3.57640E+000	9	...........
	2	0.04	6.61046E-001	-3.98683E-004	0.00000E+000	-2.63548E-004	-2.40040E-001	6.61324E-001	3.57640E+000	9	...........
	3	0.053333	6.50285E-001	-3.98429E-004	0.00000E+000	-2.59093E-004	-2.40040E-001	6.50526E-001	3.57640E+000	9	...........
	4	0.066667	6.40211E-001	-3.97611E-004	0.00000E+000	-2.54555E-004	-2.40040E-001	6.40463E-001	3.57640E+000	9	...........
	5	0.08	6.30544E-001	-3.99499E-004	0.00000E+000	-2.51902E-004	-2.40040E-001	6.30779E-001	3.57640E+000	9	...........
	6	0.093333	6.21245E-001	-3.98522E-004	0.00000E+000	-2.47580E-004	-2.40040E-001	6.21439E-001	3.57640E+000	9	...........
	7	0.106667	6.12171E-001	-3.98349E-004	0.00000E+000	-2.43858E-004	-2.40040E-001	6.12432E-001	3.57640E+000	9	...........
	8	0.12	6.03342E-001	-3.98789E-004	0.00000E+000	-2.40606E-004	-2.40040E-001	6.03593E-001	3.57640E+000	9	...........
	9	0.133333	5.94677E-001	-3.98230E-004	0.00000E+000	-2.36818E-004	-2.40040E-001	5.94928E-001	3.57640E+000	9	...........
	10	0.146667	5.86137E-001	-3.98579E-004	0.00000E+000	-2.33622E-004	-2.40040E-001	5.86383E-001	3.57640E+000	9	...........
	11	0.16	5.77681E-001	-3.98281E-004	0.00000E+000	-2.30080E-004	-2.40040E-001	5.77901E-001	3.57640E+000	9	...........
	12	0.173333	5.69294E-001	-3.98454E-004	0.00000E+000	-2.26838E-004	-2.40040E-001	5.69483E-001	3.57636E+000	9	...........
	13	0.186667	5.60941E-001	-3.99288E-004	0.00000E+000	-2.23977E-004	-2.40040E-001	5.61173E-001	3.57630E+000	9	...........
	14	0.2	5.52687E-001	-3.99643E-004	0.00000E+000	-2.20877E-004	-2.40040E-001	5.52914E-001	3.57630E+000	9	...........
	15	0.213333	5.44569E-001	-3.98037E-004	0.00000E+000	-2.16759E-004	-2.40040E-001	5.44762E-001	3.57630E+000	9	...........
	16	0.226667	5.36591E-001	-3.99548E-004	0.00000E+000	-2.14394E-004	-2.40040E-001	5.36809E-001	3.57630E+000	9	...........
	17	0.24	5.28611E-001	-3.98345E-004	0.00000E+000	-2.10569E-004	-2.40040E-001	5.28826E-001	3.57630E+000	9	...........
	18	0.253333	5.20733E-001	-3.99711E-004	0.00000E+000	-2.08142E-004	-2.40040E-001	5.20927E-001	3.57630E+000	9	...........
	19	0.266667	5.12840E-001	-3.98786E-004	0.00000E+000	-2.04514E-004	-2.40040E-001	5.13016E-001	3.57630E+000	9	...........
	20	0.28	5.04962E-001	-3.98509E-004	0.00000E+000	-2.01232E-004	-2.40040E-001	5.05184E-001	3.57630E+000	9	...........
	21	0.293333	4.97163E-001	-3.98028E-004	0.00000E+000	-1.97885E-004	-2.40040E-001	4.97366E-001	3.57630E+000	9	...........
	22	0.306667	4.89429E-001	-3.98451E-004	0.00000E+000	-1.95013E-004	-2.40040E-001	4.89606E-001	3.57630E+000	9	...........
	23	0.32	4.81936E-001	-3.98919E-004	0.00000E+000	-1.92253E-004	-2.40040E-001	4.82013E-001	3.57630E+000	9	...........
	24	0.333333	4.74378E-001	-3.99374E-004	0.00000E+000	-1.89454E-004	-2.40040E-001	4.74473E-001	3.57630E+000	9	...........
	25	0.346667	4.66768E-001	-3.99057E-004	0.00000E+000	-1.86267E-004	-2.40040E-001	4.66859E-001	3.57630E+000	9	...........
	26	0.36	4.59171E-001	-3.98680E-004	0.00000E+000	-1.83062E-004	-2.40040E-001	4.59256E-001	3.57630E+000	9	...........
	27	0.373333	4.51668E-001	-3.97825E-004	0.00000E+000	-1.79685E-004	-2.40040E-001	4.51756E-001	3.57630E+000	9	...........
	28	0.386667	4.44162E-001	-3.98878E-004	0.00000E+000	-1.77167E-004	-2.40040E-001	4.44254E-001	3.57630E+000	9	...........
	29	0.4	4.36779E-001	-3.98594E-004	0.00000E+000	-1.74097E-004	-2.40040E-001	4.36871E-001	3.57630E+000	9	...........
	30	0.413333	4.29409E-001	-3.99516E-004	0.00000E+000	-1.71556E-004	-2.40040E-001	4.29495E-001	3.57630E+000	9	...........
	31	0.426667	4.22083E-001	-3.99449E-004	0.00000E+000	-1.68601E-004	-2.40040E-001	4.22169E-001	3.57630E+000	9	...........
	32	0.44	4.14779E-001	-3.97625E-004	0.00000E+000	-1.64926E-004	-2.40040E-001	4.14869E-001	3.57630E+000	9	...........
	33	0.453333	4.07501E-001	-3.98848E-004	0.00000E+000	-1.62531E-004	-2.40040E-001	4.07581E-001	3.57630E+000	9	...........
	34	0.466667	4.00297E-001	-3.98716E-004	0.00000E+000	-1.59605E-004	-2.40040E-001	4.00368E-001	3.57630E+000	9	...........
	35	0.48	3.93172E-001	-3.99085E-004	0.00000E+000	-1.56909E-004	-2.40040E-001	3.93251E-001	3.57630E+000	9	...........
	36	0.493333	3.86030E-001	-3.98177E-004	0.00000E+000	-1.53708E-004	-2.40040E-001	3.86104E-001	3.57630E+000	9	...........
	37	0.506667	3.78898E-001	-3.99230E-004	0.00000E+000	-1.51268E-004	-2.40040E-001	3.78971E-001	3.57630E+000	9	...........
	38	0.52	3.71837E-001	-3.98269E-004	0.00000E+000	-1.48091E-004	-2.40040E-001	3.71912E-001	3.57630E+000	9	...........
	39	0.533333	3.64794E-001	-3.98642E-004	0.00000E+000	-1.45422E-004	-2.40040E-001	3.64870E-001	3.57630E+000	9	...........
	40	0.546667	3.57863E-001	-4.00983E-004	0.00000E+000	-1.43497E-004	-2.40040E-001	3.57932E-001	3.57630E+000	9	...........
	41	0.56	3.50908E-001	-3.97590E-004	0.00000E+000	-1.39518E-004	-2.40040E-001	3.50972E-001	3.57630E+000	9	...........
	42	0.573333	3.43918E-001	-3.98544E-004	0.00000E+000	-1.37066E-004	-2.40040E-001	3.43988E-001	3.57630E+000	9	...........
	43	0.586667	3.37082E-001	-3.99882E-004	0.00000E+000	-1.34793E-004	-2.40040E-001	3.37150E-001	3.57630E+000	9	...........
	44	0.6	3.30220E-001	-3.99254E-004	0.00000E+000	-1.31842E-004	-2.40040E-001	3.30284E-001	3.57630E+000	9	...........
	45	0.613333	3.23590E-001	-3.99363E-004	0.00000E+000	-1.29230E-004	-2.40040E-001	3.23648E-001	3.57630E+000	9	...........
	46	0.626667	3.16929E-001	-3.97782E-004	0.00000E+000	-1.26068E-004	-2.40040E-001	3.16992E-001	3.57630E+000	9	...........
	47	0.64	3.10297E-001	-3.98410E-004	0.00000E+000	-1.23626E-004	-2.40040E-001	3.10356E-001	3.57630E+000	9	...........
	48	0.653333	3.03653E-001	-3.99752E-004	0.00000E+000	-1.21386E-004	-2.40040E-001	3.03714E-001	3.57630E+000	9	...........
	49	0.666667	2.97122E-001	-3.99690E-004	0.00000E+000	-1.18757E-004	-2.40040E-001	2.97177E-001	3.57630E+000	9	...........
	50	0.68	2.90557E-001	-3.97529E-004	0.00000E+000	-1.15505E-004	-2.40040E-001	2.90614E-001	3.57630E+000	9	...........
	51	0.693333	2.84104E-001	-3.98933E-004	0.00000E+000	-1.13338E-004	-2.40040E-001	2.84160E-001	3.57630E+000	9	...........
	52	0.706667	2.77684E-001	-3.99696E-004	0.00000E+000	-1.10989E-004	-2.40040E-001	2.77738E-001	3.57630E+000	9	...........
	53	0.72	2.71325E-001	-3.99923E-004	0.00000E+000	-1.08509E-004	-2.40040E-001	2.71373E-001	3.57630E+000	9	...........
	54	0.733333	2.64977E-001	-3.99505E-004	0.00000E+000	-1.05860E-004	-2.40040E-001	2.65024E-001	3.57630E+000	9	...........
	55	0.746667	2.58732E-001	-3.99001E-004	0.00000E+000	-1.03234E-004	-2.40040E-001	2.58786E-001	3.57630E+000	9	...........
	56	0.76	2.52535E-001	-3.97840E-004	0.00000E+000	-1.00468E-004	-2.40040E-001	2.52592E-001	3.57630E+000	9	...........
	57	0.773333	2.46263E-001	-3.99324E-004	0.00000E+000	-9.83389E-005	-2.40040E-001	2.46308E-001	3.57630E+000	9	...........
	58	0.786667	2.40115E-001	-3.98435E-004	0.00000E+000	-9.56704E-005	-2.40040E-001	2.40160E-001	3.57630E+000	9	...........
	59	0.8	2.33893E-001	-3.98060E-004	0.00000E+000	-9.31036E-005	-2.40040E-001	2.33932E-001	3.57630E+000	9	...........
	60	0.813333	2.27829E-001	-3.98802E-004	0.00000E+000	-9.08585E-005	-2.40040E-001	2.27866E-001	3.57630E+000	9	...........
	61	0.826667	2.21760E-001	-3.97663E-004	0.00000E+000	-8.81857E-005	-2.40040E-001	2.21799E-001	3.57630E+000	9	...........
	62	0.84	2.15806E-001	-3.98040E-004	0.00000E+000	-8.58996E-005	-2.40040E-001	2.15848E-001	3.57630E+000	9	...........
	63	0.853333	2.09905E-001	-3.99596E-004	0.00000E+000	-8.38772E-005	-2.40040E-001	2.09937E-001	3.57630E+000	9	...........
	64	0.866667	2.04001E-001	-3.98912E-004	0.00000E+000	-8.13787E-005	-2.40040E-001	2.04034E-001	3.57630E+000	9	...........
	65	0.88	1.98135E-001	-3.98375E-004	0.00000E+000	-7.89319E-005	-2.40040E-001	1.98168E-001	3.57630E+000	9	...........
	66	0.893333	1.92262E-001	-3.99212E-004	0.00000E+000	-7.67531E-005	-2.40040E-001	1.92303E-001	3.57630E+000	9	...........
	67	0.906667	1.86468E-001	-3.98670E-004	0.00000E+000	-7.43393E-005	-2.40040E-001	1.86501E-001	3.57630E+000	9	...........
	68	0.92	1.80698E-001	-3.99469E-004	0.00000E+000	-7.21834E-005	-2.40040E-001	1.80732E-001	3.57630E+000	9	...........
	69	0.933333	1.74914E-001	-3.98379E-004	0.00000E+000	-6.96823E-005	-2.40040E-001	1.74943E-001	3.57630E+000	9	...........
	70	0.946667	1.69236E-001	-3.98358E-004	0.00000E+000	-6.74166E-005	-2.40040E-001	1.69271E-001	3.57630E+000	9	...........
	71	0.96	1.63611E-001	-3.98038E-004	0.00000E+000	-6.51234E-005	-2.40040E-001	1.63642E-001	3.57630E+000	9	...........
	72	0.97333	1.58104E-001	-3.98309E-004	0.00000E+000	-6.29742E-005	-2.40040E-001	1.58131E-001	3.57630E+000	9	...........
	73	0.98667	1.52546E-001	-3.99866E-004	0.00000E+000	-6.09981E-005	-2.40040E-001	1.52574E-001	3.57630E+000	9	...........
	74	1	1.47006E-001	-3.98628E-004	0.00000E+000	-5.86006E-005	-2.40040E-001	1.47026E-001	3.57630E+000	9	...........
	75	1.01333	1.41513E-001	-3.99426E-004	0.00000E+000	-5.65238E-005	-2.40040E-001	1.41541E-001	3.57630E+000	9	...........
	76	1.02667	1.36057E-001	-3.97737E-004	0.00000E+000	-5.41149E-005	-2.40040E-001	1.36085E-001	3.57630E+000	9	...........
	77	1.04	1.30616E-001	-3.98743E-004	0.00000E+000	-5.20821E-005	-2.40040E-001	1.30638E-001	3.57630E+000	9	...........
	78	1.05333	1.25203E-001	-3.99358E-004	0.00000E+000	-5.00008E-005	-2.40040E-001	1.25226E-001	3.57630E+000	9	...........
	79	1.06667	1.19865E-001	-3.97928E-004	0.00000E+000	-4.76977E-005	-2.40040E-001	1.19886E-001	3.57630E+000	9	...........
	80	1.08	1.14527E-001	-3.98356E-004	0.00000E+000	-4.56225E-005	-2.40040E-001	1.14550E-001	3.57630E+000	9	...........
	81	1.09333	1.09235E-001	-3.97978E-004	0.00000E+000	-4.34733E-005	-2.40040E-001	1.09250E-001	3.57630E+000	9	...........
	82	1.10667	1.03950E-001	-3.99221E-004	0.00000E+000	-4.14992E-005	-2.40040E-001	1.03964E-001	3.57630E+000	9	...........
	83	1.12	9.87191E-002	-3.99944E-004	0.00000E+000	-3.94821E-005	-2.40040E-001	9.87323E-002	3.57630E+000	9	...........
	84	1.13333	9.35821E-002	-3.98637E-004	0.00000E+000	-3.73053E-005	-2.40040E-001	9.35966E-002	3.57630E+000	9	...........
	85	1.14667	8.85918E-002	-3.98947E-004	0.00000E+000	-3.53434E-005	-2.40040E-001	8.86073E-002	3.57630E+000	9	...........
	86	1.16	8.33953E-002	-4.00041E-004	0.00000E+000	-3.33615E-005	-2.40040E-001	8.34046E-002	3.57630E+000	9	...........
	87	1.17333	7.82988E-002	-3.98636E-004	0.00000E+000	-3.12128E-005	-2.40040E-001	7.83095E-002	3.57660E+000	9	...........
	88	1.18667	7.31764E-002	-3.99026E-004	0.00000E+000	-2.91993E-005	-2.40040E-001	7.31839E-002	3.57710E+000	9	...........
	89	1.2	6.80861E-002	-3.98964E-004	0.00000E+000	-2.71639E-005	-2.40040E-001	6.80934E-002	3.57710E+000	9	...........
	90	1.21333	6.31116E-002	-3.98698E-004	0.00000E+000	-2.51625E-005	-2.40040E-001	6.31159E-002	3.57710E+000	9	...........
	91	1.22667	5.81560E-002	-3.98816E-004	0.00000E+000	-2.31935E-005	-2.40040E-001	5.81581E-002	3.57710E+000	9	...........
	92	1.24	5.32304E-002	-3.98416E-004	0.00000E+000	-2.12078E-005	-2.40040E-001	5.32312E-002	3.57710E+000	9	...........
	93	1.25333	4.84073E-002	-3.99113E-004	0.00000E+000	-1.93200E-005	-2.40040E-001	4.84083E-002	3.57710E+000	9	...........
	94	1.26667	4.36257E-002	-3.99196E-004	0.00000E+000	-1.74152E-005	-2.40040E-001	4.36294E-002	3.57710E+000	9	...........
	95	1.28	3.86900E-002	-3.99430E-004	0.00000E+000	-1.54540E-005	-2.40040E-001	3.86942E-002	3.57710E+000	9	...........
	96	1.29333	3.38180E-002	-3.99664E-004	0.00000E+000	-1.35158E-005	-2.40040E-001	3.38147E-002	3.57710E+000	9	...........
	97	1.30667	2.90440E-002	-3.98251E-004	0.00000E+000	-1.15668E-005	-2.40040E-001	2.90380E-002	3.57710E+000	9	...........
	98	1.32	2.43058E-002	-3.98593E-004	0.00000E+000	-9.68809E-006	-2.40040E-001	2.42994E-002	3.57710E+000	9	...........
	99	1.33333	1.96525E-002	-3.98721E-004	0.00000E+000	-7.83587E-006	-2.40040E-001	1.96442E-002	3.57710E+000	9	...........
	100	1.34667	1.50033E-002	-3.99671E-004	0.00000E+000	-5.99639E-006	-2.40040E-001	1.49916E-002	3.57710E+000	9	...........
	101	1.36	1.03277E-002	-3.98542E-004	0.00000E+000	-4.11602E-006	-2.40040E-001	1.03173E-002	3.57710E+000	9	...........
	102	1.37333	5.73600E-003	-3.98717E-004	0.00000E+000	-2.28704E-006	-2.40040E-001	5.71630E-003	3.57710E+000	9	...........
	103	1.385	1.36979E-003	-3.98780E-004	0.00000E+000	-5.46245E-007	-2.40040E-001	1.34778E-003	3.57710E+000	9	...........
STARTTIMEOFFSET	QUANT	2589.722	Start Time Offset (s)
