EXPLAIN
TAG	PWR800_DISCHARGE
TITLE	LABEL	PWR Cyclic Charge Discharge (Cell) - Discharge Step	Test &Identifier
DATE	LABEL	12-7-2017	Date
TIME	LABEL	15:00:53	Time
NOTES	NOTES	3	&Notes...
	supercap test cell
	0.4mg
	6M KOH
PSTAT	PSTAT	IFC5000-01520	Potentiostat
CAPACITY	QUANT	1.00000E-003	Capacity (A-hr)
CELLTYPE	SELECTOR	1	&Cell Type
WORKINGCONNECTION	SELECTOR	0	&Working Lead
MAXDISCHARGETIME	VARIABLEANDUNITS	1.00000E+002	s	1.00000E+002	second(s)	Max &Discharge Time
DISCHARGEMODE	MULTIPARAM	0	4.00000E-004	&Discharge Mode	Constant Current	Amp(s)
SAMPLETIME	QUANT	1.00000E-002	Sa&mple Period (s)
DISCHARGESTOPAT1	MULTIPARAM	3	0.00000E+000	Discharge Stop At &1	Voltage < Limit	V
DISCHARGESTOPAT2	MULTIPARAM	0	0.00000E+000	Discharge Stop At &2	None	N/A
AESBHCSELECTOR	TOGGLE	F	Save Both Half Cells
IRCOMP	TOGGLE	F	IR &Measure
EOC	QUANT	0	Open Circuit (V)
SEQUENCER	TOGGLE	TRUE	Run as Sequence
PSTATMODEL	IQUANT	53	Pstat Model
PSTATSECTION	LABEL	IFC5000-01520	Pstat Section
PSTATSERIALNO	LABEL	01520	Pstat Serial Number
CTRLMODE	IQUANT	0	Control Mode
ELECTROMETER	IQUANT	1	RE=0 or CS=1
IESTAB	IQUANT	0	I/E Stability
CASPEED	IQUANT	4	Control Amp Speed
CONVENTION	IQUANT	1	Current Convention
ICHRANGE	IQUANT	2	Ich Range
ICHRANGEMODE	TOGGLE	T	Ich Auto Range
ICHOFFSETENABLE	TOGGLE	F	Ich Offset Enable
ICHOFFSET	QUANT	0	Ich Offset (V)
ICHFILTER	IQUANT	1	Ich Filter
VCHRANGE	IQUANT	2	Vch Range
VCHRANGEMODE	TOGGLE	T	Vch Auto Range
VCHOFFSETENABLE	TOGGLE	F	Vch Offset Enable
VCHOFFSET	QUANT	0	Vch Offset (V)
VCHFILTER	IQUANT	1	Vch Filter
IERANGELOWERLIMIT	IQUANT	9	I/E Range Lower Limit
IERANGEMODE	TOGGLE	F	I/E AutoRange
IERANGE	IQUANT	9	I/E Range
ACHSELECT	IQUANT	1	Ach Select
ACHRANGE	IQUANT	2	Ach Range
ACHOFFSETENABLE	TOGGLE	F	Ach Offset Enable
ACHOFFSET	QUANT	0	Ach Offset (V)
ACHFILTER	IQUANT	1	Ach Filter
CABLEID	IQUANT	14	Cable ID
DCCALDATE	LABEL	5-7-2017	DC Calibration Date
ACCALDATE	LABEL	12/3/2015	AC Calibration Date
FRAMEWORKVERSION	QUANT	7.01	Framework Version
INSTRUMENTVERSION	LABEL	4.00	Instrument Version
CURVE	TABLE	109
	Pt	T	Vf	Im	Vu	Pwr	Sig	Ach	Temp	IERange	Over
	#	s	V	A	V	W	V	V	deg C	#	bits
	0	0.013333	6.92741E-001	-3.99009E-004	0.00000E+000	-2.76410E-004	-2.40040E-001	6.92962E-001	3.57650E+000	9	...........
	1	0.026667	6.79849E-001	-3.99027E-004	0.00000E+000	-2.71278E-004	-2.40040E-001	6.80078E-001	3.57650E+000	9	...........
	2	0.04	6.68527E-001	-3.98988E-004	0.00000E+000	-2.66734E-004	-2.40040E-001	6.68733E-001	3.57650E+000	9	...........
	3	0.053333	6.58210E-001	-3.98337E-004	0.00000E+000	-2.62190E-004	-2.40040E-001	6.58409E-001	3.57650E+000	9	...........
	4	0.066667	6.48401E-001	-3.99105E-004	0.00000E+000	-2.58780E-004	-2.40040E-001	6.48606E-001	3.57650E+000	9	...........
	5	0.08	6.39010E-001	-3.98224E-004	0.00000E+000	-2.54469E-004	-2.40040E-001	6.39233E-001	3.57650E+000	9	...........
	6	0.093333	6.30001E-001	-3.99876E-004	0.00000E+000	-2.51922E-004	-2.40040E-001	6.30226E-001	3.57650E+000	9	...........
	7	0.106667	6.21214E-001	-3.98981E-004	0.00000E+000	-2.47853E-004	-2.40040E-001	6.21413E-001	3.57650E+000	9	...........
	8	0.12	6.12553E-001	-3.98027E-004	0.00000E+000	-2.43812E-004	-2.40040E-001	6.12791E-001	3.57650E+000	9	...........
	9	0.133333	6.04082E-001	-3.98079E-004	0.00000E+000	-2.40472E-004	-2.40040E-001	6.04342E-001	3.57650E+000	9	...........
	10	0.146667	5.95825E-001	-3.98289E-004	0.00000E+000	-2.37311E-004	-2.40040E-001	5.96060E-001	3.57650E+000	9	...........
	11	0.16	5.87626E-001	-3.98355E-004	0.00000E+000	-2.34084E-004	-2.40040E-001	5.87865E-001	3.57650E+000	9	...........
	12	0.173333	5.79538E-001	-3.98407E-004	0.00000E+000	-2.30892E-004	-2.40040E-001	5.79758E-001	3.57650E+000	9	...........
	13	0.186667	5.71489E-001	-3.99144E-004	0.00000E+000	-2.28106E-004	-2.40040E-001	5.71678E-001	3.57650E+000	9	...........
	14	0.2	5.63491E-001	-3.98919E-004	0.00000E+000	-2.24787E-004	-2.40040E-001	5.63707E-001	3.57650E+000	9	...........
	15	0.213333	5.55598E-001	-3.98293E-004	0.00000E+000	-2.21291E-004	-2.40040E-001	5.55817E-001	3.57650E+000	9	...........
	16	0.226667	5.47720E-001	-3.97089E-004	0.00000E+000	-2.17494E-004	-2.40040E-001	5.47940E-001	3.57650E+000	9	...........
	17	0.24	5.39941E-001	-3.99210E-004	0.00000E+000	-2.15550E-004	-2.40040E-001	5.40174E-001	3.57650E+000	9	...........
	18	0.253333	5.32136E-001	-3.98369E-004	0.00000E+000	-2.11986E-004	-2.40040E-001	5.32356E-001	3.57650E+000	9	...........
	19	0.266667	5.24462E-001	-3.98970E-004	0.00000E+000	-2.09244E-004	-2.40040E-001	5.24671E-001	3.57650E+000	9	...........
	20	0.28	5.16840E-001	-3.98151E-004	0.00000E+000	-2.05780E-004	-2.40040E-001	5.17049E-001	3.57650E+000	9	...........
	21	0.293333	5.09228E-001	-3.98746E-004	0.00000E+000	-2.03053E-004	-2.40040E-001	5.09444E-001	3.57650E+000	9	...........
	22	0.306667	5.01616E-001	-3.97903E-004	0.00000E+000	-1.99594E-004	-2.40040E-001	5.01866E-001	3.57650E+000	9	...........
	23	0.32	4.94169E-001	-3.98274E-004	0.00000E+000	-1.96815E-004	-2.40040E-001	4.94361E-001	3.57650E+000	9	...........
	24	0.333333	4.86751E-001	-3.96976E-004	0.00000E+000	-1.93228E-004	-2.40040E-001	4.86928E-001	3.57650E+000	9	...........
	25	0.346667	4.79544E-001	-3.97715E-004	0.00000E+000	-1.90722E-004	-2.40040E-001	4.79641E-001	3.57650E+000	9	...........
	26	0.36	4.72210E-001	-3.98777E-004	0.00000E+000	-1.88307E-004	-2.40040E-001	4.72310E-001	3.57650E+000	9	...........
	27	0.373333	4.64868E-001	-3.99085E-004	0.00000E+000	-1.85522E-004	-2.40040E-001	4.64963E-001	3.57650E+000	9	...........
	28	0.386667	4.57569E-001	-3.99602E-004	0.00000E+000	-1.82845E-004	-2.40040E-001	4.57657E-001	3.57650E+000	9	...........
	29	0.4	4.50290E-001	-3.98958E-004	0.00000E+000	-1.79647E-004	-2.40040E-001	4.50378E-001	3.57650E+000	9	...........
	30	0.413333	4.43136E-001	-3.99712E-004	0.00000E+000	-1.77127E-004	-2.40040E-001	4.43223E-001	3.57650E+000	9	...........
	31	0.426667	4.36051E-001	-3.99551E-004	0.00000E+000	-1.74225E-004	-2.40040E-001	4.36132E-001	3.57650E+000	9	...........
	32	0.44	4.28956E-001	-3.98969E-004	0.00000E+000	-1.71140E-004	-2.40040E-001	4.29038E-001	3.57650E+000	9	...........
	33	0.453333	4.21822E-001	-3.98883E-004	0.00000E+000	-1.68258E-004	-2.40040E-001	4.21907E-001	3.57650E+000	9	...........
	34	0.466667	4.14792E-001	-3.98537E-004	0.00000E+000	-1.65310E-004	-2.40040E-001	4.14879E-001	3.57650E+000	9	...........
	35	0.48	4.07856E-001	-3.99655E-004	0.00000E+000	-1.63002E-004	-2.40040E-001	4.07933E-001	3.57650E+000	9	...........
	36	0.493333	4.00874E-001	-3.98305E-004	0.00000E+000	-1.59670E-004	-2.40040E-001	4.00951E-001	3.57650E+000	9	...........
	37	0.506667	3.93975E-001	-3.98661E-004	0.00000E+000	-1.57063E-004	-2.40040E-001	3.94048E-001	3.57650E+000	9	...........
	38	0.52	3.87116E-001	-3.99153E-004	0.00000E+000	-1.54518E-004	-2.40040E-001	3.87186E-001	3.57650E+000	9	...........
	39	0.533333	3.80277E-001	-3.97215E-004	0.00000E+000	-1.51052E-004	-2.40040E-001	3.80345E-001	3.57650E+000	9	...........
	40	0.546667	3.73464E-001	-3.99117E-004	0.00000E+000	-1.49056E-004	-2.40040E-001	3.73530E-001	3.57650E+000	9	...........
	41	0.56	3.66759E-001	-3.98445E-004	0.00000E+000	-1.46133E-004	-2.40040E-001	3.66831E-001	3.57650E+000	9	...........
	42	0.573333	3.60152E-001	-3.99398E-004	0.00000E+000	-1.43844E-004	-2.40040E-001	3.60216E-001	3.57650E+000	9	...........
	43	0.586667	3.53505E-001	-3.99478E-004	0.00000E+000	-1.41218E-004	-2.40040E-001	3.53570E-001	3.57650E+000	9	...........
	44	0.6	3.46892E-001	-3.98205E-004	0.00000E+000	-1.38134E-004	-2.40040E-001	3.46955E-001	3.57650E+000	9	...........
	45	0.613333	3.40272E-001	-3.99667E-004	0.00000E+000	-1.35996E-004	-2.40040E-001	3.40333E-001	3.57650E+000	9	...........
	46	0.626667	3.33690E-001	-3.99103E-004	0.00000E+000	-1.33177E-004	-2.40040E-001	3.33752E-001	3.57650E+000	9	...........
	47	0.64	3.27166E-001	-3.98151E-004	0.00000E+000	-1.30261E-004	-2.40040E-001	3.27228E-001	3.57650E+000	9	...........
	48	0.653333	3.20732E-001	-3.99868E-004	0.00000E+000	-1.28250E-004	-2.40040E-001	3.20795E-001	3.57650E+000	9	...........
	49	0.666667	3.14256E-001	-3.98546E-004	0.00000E+000	-1.25245E-004	-2.40040E-001	3.14318E-001	3.57650E+000	9	...........
	50	0.68	3.07779E-001	-3.99118E-004	0.00000E+000	-1.22840E-004	-2.40040E-001	3.07839E-001	3.57650E+000	9	...........
	51	0.693333	3.01451E-001	-3.99693E-004	0.00000E+000	-1.20488E-004	-2.40040E-001	3.01511E-001	3.57650E+000	9	...........
	52	0.706667	2.95173E-001	-3.99293E-004	0.00000E+000	-1.17861E-004	-2.40040E-001	2.95231E-001	3.57650E+000	9	...........
	53	0.72	2.88903E-001	-3.98954E-004	0.00000E+000	-1.15259E-004	-2.40040E-001	2.88957E-001	3.57650E+000	9	...........
	54	0.733333	2.82673E-001	-3.98063E-004	0.00000E+000	-1.12522E-004	-2.40040E-001	2.82729E-001	3.57650E+000	9	...........
	55	0.746667	2.76449E-001	-3.98076E-004	0.00000E+000	-1.10048E-004	-2.40040E-001	2.76506E-001	3.57650E+000	9	...........
	56	0.76	2.70321E-001	-3.98291E-004	0.00000E+000	-1.07666E-004	-2.40040E-001	2.70382E-001	3.57729E+000	9	...........
	57	0.773333	2.64155E-001	-3.99425E-004	0.00000E+000	-1.05510E-004	-2.40040E-001	2.64209E-001	3.57770E+000	9	...........
	58	0.786667	2.58035E-001	-3.98804E-004	0.00000E+000	-1.02905E-004	-2.40040E-001	2.58084E-001	3.57770E+000	9	...........
	59	0.8	2.51917E-001	-3.98904E-004	0.00000E+000	-1.00491E-004	-2.40040E-001	2.51963E-001	3.57770E+000	9	...........
	60	0.813333	2.45984E-001	-3.98408E-004	0.00000E+000	-9.80020E-005	-2.40040E-001	2.46025E-001	3.57770E+000	9	...........
	61	0.826667	2.40030E-001	-3.99018E-004	0.00000E+000	-9.57764E-005	-2.40040E-001	2.40070E-001	3.57770E+000	9	...........
	62	0.84	2.34096E-001	-3.98907E-004	0.00000E+000	-9.33825E-005	-2.40040E-001	2.34132E-001	3.57770E+000	9	...........
	63	0.853333	2.28207E-001	-3.97748E-004	0.00000E+000	-9.07689E-005	-2.40040E-001	2.28250E-001	3.57770E+000	9	...........
	64	0.866667	2.22384E-001	-3.99269E-004	0.00000E+000	-8.87910E-005	-2.40040E-001	2.22423E-001	3.57770E+000	9	...........
	65	0.88	2.16588E-001	-3.98701E-004	0.00000E+000	-8.63539E-005	-2.40040E-001	2.16628E-001	3.57770E+000	9	...........
	66	0.893333	2.10787E-001	-3.99440E-004	0.00000E+000	-8.41966E-005	-2.40040E-001	2.10825E-001	3.57770E+000	9	...........
	67	0.906667	2.05029E-001	-3.99207E-004	0.00000E+000	-8.18492E-005	-2.40040E-001	2.05065E-001	3.57770E+000	9	...........
	68	0.92	1.99366E-001	-3.98627E-004	0.00000E+000	-7.94725E-005	-2.40040E-001	1.99400E-001	3.57770E+000	9	...........
	69	0.933333	1.93785E-001	-3.98876E-004	0.00000E+000	-7.72962E-005	-2.40040E-001	1.93822E-001	3.57770E+000	9	...........
	70	0.946667	1.88133E-001	-3.98468E-004	0.00000E+000	-7.49648E-005	-2.40040E-001	1.88165E-001	3.57770E+000	9	...........
	71	0.96	1.82515E-001	-3.97610E-004	0.00000E+000	-7.25697E-005	-2.40040E-001	1.82549E-001	3.57770E+000	9	...........
	72	0.97333	1.76933E-001	-3.98683E-004	0.00000E+000	-7.05403E-005	-2.40040E-001	1.76969E-001	3.57770E+000	9	...........
	73	0.98667	1.71346E-001	-3.98452E-004	0.00000E+000	-6.82730E-005	-2.40040E-001	1.71381E-001	3.57770E+000	9	...........
	74	1	1.65919E-001	-3.99177E-004	0.00000E+000	-6.62312E-005	-2.40040E-001	1.65946E-001	3.57770E+000	9	...........
	75	1.01333	1.60411E-001	-3.98475E-004	0.00000E+000	-6.39198E-005	-2.40040E-001	1.60436E-001	3.57770E+000	9	...........
	76	1.02667	1.54997E-001	-3.98849E-004	0.00000E+000	-6.18203E-005	-2.40040E-001	1.55024E-001	3.57770E+000	9	...........
	77	1.04	1.49555E-001	-3.99153E-004	0.00000E+000	-5.96954E-005	-2.40040E-001	1.49577E-001	3.57770E+000	9	...........
	78	1.05333	1.44189E-001	-3.99219E-004	0.00000E+000	-5.75631E-005	-2.40040E-001	1.44214E-001	3.57770E+000	9	...........
	79	1.06667	1.38931E-001	-3.98431E-004	0.00000E+000	-5.53543E-005	-2.40040E-001	1.38953E-001	3.57770E+000	9	...........
	80	1.08	1.33598E-001	-3.98608E-004	0.00000E+000	-5.32532E-005	-2.40040E-001	1.33620E-001	3.57770E+000	9	...........
	81	1.09333	1.28357E-001	-3.98791E-004	0.00000E+000	-5.11877E-005	-2.40040E-001	1.28377E-001	3.57770E+000	9	...........
	82	1.10667	1.23166E-001	-3.98471E-004	0.00000E+000	-4.90779E-005	-2.40040E-001	1.23185E-001	3.57770E+000	9	...........
	83	1.12	1.18049E-001	-3.97114E-004	0.00000E+000	-4.68787E-005	-2.40040E-001	1.18064E-001	3.57770E+000	9	...........
	84	1.13333	1.12938E-001	-3.99528E-004	0.00000E+000	-4.51219E-005	-2.40040E-001	1.12962E-001	3.57770E+000	9	...........
	85	1.14667	1.07891E-001	-3.99856E-004	0.00000E+000	-4.31409E-005	-2.40040E-001	1.07914E-001	3.57770E+000	9	...........
	86	1.16	1.02885E-001	-3.97491E-004	0.00000E+000	-4.08961E-005	-2.40040E-001	1.02901E-001	3.57770E+000	9	...........
	87	1.17333	9.78398E-002	-3.97418E-004	0.00000E+000	-3.88833E-005	-2.40040E-001	9.78586E-002	3.57770E+000	9	...........
	88	1.18667	9.27966E-002	-3.99993E-004	0.00000E+000	-3.71180E-005	-2.40040E-001	9.28156E-002	3.57770E+000	9	...........
	89	1.2	8.77616E-002	-3.98705E-004	0.00000E+000	-3.49910E-005	-2.40040E-001	8.77742E-002	3.57770E+000	9	...........
	90	1.21333	8.28412E-002	-3.99183E-004	0.00000E+000	-3.30688E-005	-2.40040E-001	8.28568E-002	3.57770E+000	9	...........
	91	1.22667	7.79811E-002	-3.99491E-004	0.00000E+000	-3.11527E-005	-2.40040E-001	7.79881E-002	3.57770E+000	9	...........
	92	1.24	7.30056E-002	-3.98351E-004	0.00000E+000	-2.90819E-005	-2.40040E-001	7.30136E-002	3.57770E+000	9	...........
	93	1.25333	6.80609E-002	-3.98690E-004	0.00000E+000	-2.71352E-005	-2.40040E-001	6.80624E-002	3.57770E+000	9	...........
	94	1.26667	6.32892E-002	-3.98730E-004	0.00000E+000	-2.52353E-005	-2.40040E-001	6.32972E-002	3.57770E+000	9	...........
	95	1.28	5.84683E-002	-3.97771E-004	0.00000E+000	-2.32570E-005	-2.40040E-001	5.84734E-002	3.57770E+000	9	...........
	96	1.29333	5.37225E-002	-3.98448E-004	0.00000E+000	-2.14056E-005	-2.40040E-001	5.37281E-002	3.57770E+000	9	...........
	97	1.30667	4.89799E-002	-3.97048E-004	0.00000E+000	-1.94474E-005	-2.40040E-001	4.89807E-002	3.57770E+000	9	...........
	98	1.32	4.42746E-002	-3.98467E-004	0.00000E+000	-1.76420E-005	-2.40040E-001	4.42779E-002	3.57770E+000	9	...........
	99	1.33333	3.96378E-002	-3.99177E-004	0.00000E+000	-1.58225E-005	-2.40040E-001	3.96382E-002	3.57770E+000	9	...........
	100	1.34667	3.50151E-002	-3.98750E-004	0.00000E+000	-1.39623E-005	-2.40040E-001	3.50131E-002	3.57770E+000	9	...........
	101	1.36	3.03480E-002	-3.98809E-004	0.00000E+000	-1.21031E-005	-2.40040E-001	3.03454E-002	3.57770E+000	9	...........
	102	1.37333	2.57695E-002	-3.98471E-004	0.00000E+000	-1.02684E-005	-2.40040E-001	2.57649E-002	3.57770E+000	9	...........
	103	1.38667	2.12080E-002	-3.97970E-004	0.00000E+000	-8.44012E-006	-2.40040E-001	2.11968E-002	3.57770E+000	9	...........
	104	1.4	1.66445E-002	-3.98704E-004	0.00000E+000	-6.63621E-006	-2.40040E-001	1.66337E-002	3.57770E+000	9	...........
	105	1.41333	1.20395E-002	-3.97436E-004	0.00000E+000	-4.78495E-006	-2.40040E-001	1.20231E-002	3.57770E+000	9	...........
	106	1.42667	7.64862E-003	-3.98616E-004	0.00000E+000	-3.04886E-006	-2.40040E-001	7.62677E-003	3.57770E+000	9	...........
	107	1.44	3.21057E-003	-3.98662E-004	0.00000E+000	-1.27993E-006	-2.40040E-001	3.18758E-003	3.57770E+000	9	...........
	108	1.445	9.75731E-005	-3.97689E-004	0.00000E+000	-3.88038E-008	-2.40040E-001	8.12950E-005	3.57770E+000	9	...........
STARTTIMEOFFSET	QUANT	2015.469	Start Time Offset (s)
