EXPLAIN
TAG	PWR800_DISCHARGE
TITLE	LABEL	PWR Cyclic Charge Discharge (Cell) - Discharge Step	Test &Identifier
DATE	LABEL	12-7-2017	Date
TIME	LABEL	15:24:23	Time
NOTES	NOTES	3	&Notes...
	supercap test cell
	0.4mg
	6M KOH
PSTAT	PSTAT	IFC5000-01520	Potentiostat
CAPACITY	QUANT	1.00000E-003	Capacity (A-hr)
CELLTYPE	SELECTOR	1	&Cell Type
WORKINGCONNECTION	SELECTOR	0	&Working Lead
MAXDISCHARGETIME	VARIABLEANDUNITS	1.00000E+002	s	1.00000E+002	second(s)	Max &Discharge Time
DISCHARGEMODE	MULTIPARAM	0	4.00000E-004	&Discharge Mode	Constant Current	Amp(s)
SAMPLETIME	QUANT	1.00000E-002	Sa&mple Period (s)
DISCHARGESTOPAT1	MULTIPARAM	3	0.00000E+000	Discharge Stop At &1	Voltage < Limit	V
DISCHARGESTOPAT2	MULTIPARAM	0	0.00000E+000	Discharge Stop At &2	None	N/A
AESBHCSELECTOR	TOGGLE	F	Save Both Half Cells
IRCOMP	TOGGLE	F	IR &Measure
EOC	QUANT	0	Open Circuit (V)
SEQUENCER	TOGGLE	TRUE	Run as Sequence
PSTATMODEL	IQUANT	53	Pstat Model
PSTATSECTION	LABEL	IFC5000-01520	Pstat Section
PSTATSERIALNO	LABEL	01520	Pstat Serial Number
CTRLMODE	IQUANT	0	Control Mode
ELECTROMETER	IQUANT	1	RE=0 or CS=1
IESTAB	IQUANT	0	I/E Stability
CASPEED	IQUANT	4	Control Amp Speed
CONVENTION	IQUANT	1	Current Convention
ICHRANGE	IQUANT	2	Ich Range
ICHRANGEMODE	TOGGLE	T	Ich Auto Range
ICHOFFSETENABLE	TOGGLE	F	Ich Offset Enable
ICHOFFSET	QUANT	0	Ich Offset (V)
ICHFILTER	IQUANT	1	Ich Filter
VCHRANGE	IQUANT	2	Vch Range
VCHRANGEMODE	TOGGLE	T	Vch Auto Range
VCHOFFSETENABLE	TOGGLE	F	Vch Offset Enable
VCHOFFSET	QUANT	0	Vch Offset (V)
VCHFILTER	IQUANT	1	Vch Filter
IERANGELOWERLIMIT	IQUANT	9	I/E Range Lower Limit
IERANGEMODE	TOGGLE	F	I/E AutoRange
IERANGE	IQUANT	9	I/E Range
ACHSELECT	IQUANT	1	Ach Select
ACHRANGE	IQUANT	2	Ach Range
ACHOFFSETENABLE	TOGGLE	F	Ach Offset Enable
ACHOFFSET	QUANT	0	Ach Offset (V)
ACHFILTER	IQUANT	1	Ach Filter
CABLEID	IQUANT	14	Cable ID
DCCALDATE	LABEL	5-7-2017	DC Calibration Date
ACCALDATE	LABEL	12/3/2015	AC Calibration Date
FRAMEWORKVERSION	QUANT	7.01	Framework Version
INSTRUMENTVERSION	LABEL	4.00	Instrument Version
CURVE	TABLE	101
	Pt	T	Vf	Im	Vu	Pwr	Sig	Ach	Temp	IERange	Over
	#	s	V	A	V	W	V	V	deg C	#	bits
	0	0.013333	6.79513E-001	-3.98843E-004	0.00000E+000	-2.71019E-004	-2.40040E-001	6.79737E-001	3.57693E+000	9	...........
	1	0.026667	6.65615E-001	-4.00193E-004	0.00000E+000	-2.66374E-004	-2.40040E-001	6.65852E-001	3.57640E+000	9	...........
	2	0.04	6.53574E-001	-3.98739E-004	0.00000E+000	-2.60605E-004	-2.40040E-001	6.53808E-001	3.57640E+000	9	...........
	3	0.053333	6.42629E-001	-3.98590E-004	0.00000E+000	-2.56145E-004	-2.40040E-001	6.42867E-001	3.57640E+000	9	...........
	4	0.066667	6.32299E-001	-3.99181E-004	0.00000E+000	-2.52402E-004	-2.40040E-001	6.32537E-001	3.57640E+000	9	...........
	5	0.08	6.22474E-001	-3.98798E-004	0.00000E+000	-2.48241E-004	-2.40040E-001	6.22674E-001	3.57640E+000	9	...........
	6	0.093333	6.12975E-001	-3.99374E-004	0.00000E+000	-2.44806E-004	-2.40040E-001	6.13236E-001	3.57640E+000	9	...........
	7	0.106667	6.03750E-001	-3.97671E-004	0.00000E+000	-2.40093E-004	-2.40040E-001	6.04021E-001	3.57640E+000	9	...........
	8	0.12	5.94700E-001	-3.99472E-004	0.00000E+000	-2.37566E-004	-2.40040E-001	5.94943E-001	3.57640E+000	9	...........
	9	0.133333	5.85834E-001	-3.98293E-004	0.00000E+000	-2.33333E-004	-2.40040E-001	5.86115E-001	3.57640E+000	9	...........
	10	0.146667	5.77155E-001	-3.98326E-004	0.00000E+000	-2.29896E-004	-2.40040E-001	5.77393E-001	3.57640E+000	9	...........
	11	0.16	5.68554E-001	-3.98756E-004	0.00000E+000	-2.26714E-004	-2.40040E-001	5.68786E-001	3.57640E+000	9	...........
	12	0.173333	5.60036E-001	-3.99443E-004	0.00000E+000	-2.23702E-004	-2.40040E-001	5.60289E-001	3.57640E+000	9	...........
	13	0.186667	5.51635E-001	-3.98774E-004	0.00000E+000	-2.19978E-004	-2.40040E-001	5.51865E-001	3.57640E+000	9	...........
	14	0.2	5.43332E-001	-3.97402E-004	0.00000E+000	-2.15921E-004	-2.40040E-001	5.43562E-001	3.57640E+000	9	...........
	15	0.213333	5.34965E-001	-3.99515E-004	0.00000E+000	-2.13727E-004	-2.40040E-001	5.35217E-001	3.57640E+000	9	...........
	16	0.226667	5.26750E-001	-3.98825E-004	0.00000E+000	-2.10081E-004	-2.40040E-001	5.26959E-001	3.57640E+000	9	...........
	17	0.24	5.18574E-001	-4.00119E-004	0.00000E+000	-2.07491E-004	-2.40040E-001	5.18796E-001	3.57640E+000	9	...........
	18	0.253333	5.10419E-001	-3.97641E-004	0.00000E+000	-2.02964E-004	-2.40040E-001	5.10663E-001	3.57640E+000	9	...........
	19	0.266667	5.02381E-001	-3.98735E-004	0.00000E+000	-2.00317E-004	-2.40040E-001	5.02629E-001	3.57640E+000	9	...........
	20	0.28	4.94468E-001	-3.98039E-004	0.00000E+000	-1.96818E-004	-2.40040E-001	4.94708E-001	3.57640E+000	9	...........
	21	0.293333	4.86618E-001	-3.98567E-004	0.00000E+000	-1.93950E-004	-2.40040E-001	4.86815E-001	3.57640E+000	9	...........
	22	0.306667	4.78956E-001	-3.98659E-004	0.00000E+000	-1.90940E-004	-2.40040E-001	4.79054E-001	3.57640E+000	9	...........
	23	0.32	4.71135E-001	-3.99293E-004	0.00000E+000	-1.88121E-004	-2.40040E-001	4.71235E-001	3.57640E+000	9	...........
	24	0.333333	4.63356E-001	-3.99490E-004	0.00000E+000	-1.85106E-004	-2.40040E-001	4.63455E-001	3.57640E+000	9	...........
	25	0.346667	4.55541E-001	-3.98338E-004	0.00000E+000	-1.81460E-004	-2.40040E-001	4.55635E-001	3.57640E+000	9	...........
	26	0.36	4.47815E-001	-3.98334E-004	0.00000E+000	-1.78380E-004	-2.40040E-001	4.47911E-001	3.57640E+000	9	...........
	27	0.373333	4.40154E-001	-3.98150E-004	0.00000E+000	-1.75247E-004	-2.40040E-001	4.40245E-001	3.57640E+000	9	...........
	28	0.386667	4.32543E-001	-3.98961E-004	0.00000E+000	-1.72568E-004	-2.40040E-001	4.32632E-001	3.57640E+000	9	...........
	29	0.4	4.25023E-001	-3.98731E-004	0.00000E+000	-1.69470E-004	-2.40040E-001	4.25110E-001	3.57640E+000	9	...........
	30	0.413333	4.17509E-001	-3.98434E-004	0.00000E+000	-1.66350E-004	-2.40040E-001	4.17595E-001	3.57640E+000	9	...........
	31	0.426667	4.10033E-001	-3.98422E-004	0.00000E+000	-1.63366E-004	-2.40040E-001	4.10117E-001	3.57640E+000	9	...........
	32	0.44	4.02632E-001	-3.98441E-004	0.00000E+000	-1.60425E-004	-2.40040E-001	4.02713E-001	3.57640E+000	9	...........
	33	0.453333	3.95289E-001	-3.98097E-004	0.00000E+000	-1.57363E-004	-2.40040E-001	3.95364E-001	3.57640E+000	9	...........
	34	0.466667	3.87923E-001	-3.98211E-004	0.00000E+000	-1.54475E-004	-2.40040E-001	3.88000E-001	3.57640E+000	9	...........
	35	0.48	3.80549E-001	-3.98633E-004	0.00000E+000	-1.51699E-004	-2.40040E-001	3.80625E-001	3.57640E+000	9	...........
	36	0.493333	3.73296E-001	-3.98912E-004	0.00000E+000	-1.48912E-004	-2.40040E-001	3.73367E-001	3.57640E+000	9	...........
	37	0.506667	3.66033E-001	-3.98926E-004	0.00000E+000	-1.46020E-004	-2.40040E-001	3.66109E-001	3.57640E+000	9	...........
	38	0.52	3.58928E-001	-3.98989E-004	0.00000E+000	-1.43208E-004	-2.40040E-001	3.59000E-001	3.57640E+000	9	...........
	39	0.533333	3.51841E-001	-3.97887E-004	0.00000E+000	-1.39993E-004	-2.40040E-001	3.51905E-001	3.57640E+000	9	...........
	40	0.546667	3.44679E-001	-3.98725E-004	0.00000E+000	-1.37432E-004	-2.40040E-001	3.44743E-001	3.57640E+000	9	...........
	41	0.56	3.37601E-001	-3.99427E-004	0.00000E+000	-1.34847E-004	-2.40040E-001	3.37663E-001	3.57640E+000	9	...........
	42	0.573333	3.30571E-001	-3.98798E-004	0.00000E+000	-1.31831E-004	-2.40040E-001	3.30632E-001	3.57640E+000	9	...........
	43	0.586667	3.23702E-001	-3.98460E-004	0.00000E+000	-1.28982E-004	-2.40040E-001	3.23770E-001	3.57640E+000	9	...........
	44	0.6	3.16853E-001	-3.98308E-004	0.00000E+000	-1.26205E-004	-2.40040E-001	3.16911E-001	3.57640E+000	9	...........
	45	0.613333	3.09932E-001	-4.00340E-004	0.00000E+000	-1.24078E-004	-2.40040E-001	3.09996E-001	3.57640E+000	9	...........
	46	0.626667	3.03100E-001	-3.99714E-004	0.00000E+000	-1.21153E-004	-2.40040E-001	3.03157E-001	3.57640E+000	9	...........
	47	0.64	2.96377E-001	-3.98724E-004	0.00000E+000	-1.18173E-004	-2.40040E-001	2.96433E-001	3.57640E+000	9	...........
	48	0.653333	2.89667E-001	-3.98668E-004	0.00000E+000	-1.15481E-004	-2.40040E-001	2.89734E-001	3.57640E+000	9	...........
	49	0.666667	2.83026E-001	-3.97754E-004	0.00000E+000	-1.12575E-004	-2.40040E-001	2.83090E-001	3.57640E+000	9	...........
	50	0.68	2.76390E-001	-3.97122E-004	0.00000E+000	-1.09760E-004	-2.40040E-001	2.76450E-001	3.57640E+000	9	...........
	51	0.693333	2.69896E-001	-3.97116E-004	0.00000E+000	-1.07180E-004	-2.40040E-001	2.69956E-001	3.57640E+000	9	...........
	52	0.706667	2.63343E-001	-3.99416E-004	0.00000E+000	-1.05183E-004	-2.40040E-001	2.63400E-001	3.57640E+000	9	...........
	53	0.72	2.56832E-001	-3.98142E-004	0.00000E+000	-1.02255E-004	-2.40040E-001	2.56884E-001	3.57640E+000	9	...........
	54	0.733333	2.50437E-001	-3.98600E-004	0.00000E+000	-9.98242E-005	-2.40040E-001	2.50489E-001	3.57640E+000	9	...........
	55	0.746667	2.44104E-001	-3.97507E-004	0.00000E+000	-9.70332E-005	-2.40040E-001	2.44151E-001	3.57640E+000	9	...........
	56	0.76	2.37804E-001	-3.99007E-004	0.00000E+000	-9.48854E-005	-2.40040E-001	2.37851E-001	3.57640E+000	9	...........
	57	0.773333	2.31519E-001	-3.97677E-004	0.00000E+000	-9.20696E-005	-2.40040E-001	2.31563E-001	3.57640E+000	9	...........
	58	0.786667	2.25306E-001	-3.98901E-004	0.00000E+000	-8.98747E-005	-2.40040E-001	2.25354E-001	3.57640E+000	9	...........
	59	0.8	2.19153E-001	-3.99317E-004	0.00000E+000	-8.75116E-005	-2.40040E-001	2.19196E-001	3.57640E+000	9	...........
	60	0.813333	2.12999E-001	-3.98546E-004	0.00000E+000	-8.48898E-005	-2.40040E-001	2.13044E-001	3.57640E+000	9	...........
	61	0.826667	2.06916E-001	-3.98758E-004	0.00000E+000	-8.25094E-005	-2.40040E-001	2.06957E-001	3.57640E+000	9	...........
	62	0.84	2.00825E-001	-3.99852E-004	0.00000E+000	-8.03002E-005	-2.40040E-001	2.00866E-001	3.57640E+000	9	...........
	63	0.853333	1.94952E-001	-3.99498E-004	0.00000E+000	-7.78830E-005	-2.40040E-001	1.94988E-001	3.57640E+000	9	...........
	64	0.866667	1.88873E-001	-3.98115E-004	0.00000E+000	-7.51933E-005	-2.40040E-001	1.88914E-001	3.57640E+000	9	...........
	65	0.88	1.83041E-001	-3.97586E-004	0.00000E+000	-7.27746E-005	-2.40040E-001	1.83074E-001	3.57640E+000	9	...........
	66	0.893333	1.77193E-001	-3.98674E-004	0.00000E+000	-7.06423E-005	-2.40040E-001	1.77229E-001	3.57640E+000	9	...........
	67	0.906667	1.71372E-001	-3.99109E-004	0.00000E+000	-6.83962E-005	-2.40040E-001	1.71401E-001	3.57640E+000	9	...........
	68	0.92	1.65543E-001	-3.98245E-004	0.00000E+000	-6.59266E-005	-2.40040E-001	1.65573E-001	3.57640E+000	9	...........
	69	0.933333	1.59728E-001	-3.98558E-004	0.00000E+000	-6.36608E-005	-2.40040E-001	1.59756E-001	3.57640E+000	9	...........
	70	0.946667	1.54028E-001	-3.99094E-004	0.00000E+000	-6.14717E-005	-2.40040E-001	1.54053E-001	3.57640E+000	9	...........
	71	0.96	1.48346E-001	-3.98412E-004	0.00000E+000	-5.91030E-005	-2.40040E-001	1.48368E-001	3.57640E+000	9	...........
	72	0.97333	1.42620E-001	-3.99306E-004	0.00000E+000	-5.69491E-005	-2.40040E-001	1.42644E-001	3.57640E+000	9	...........
	73	0.98667	1.37000E-001	-3.98902E-004	0.00000E+000	-5.46494E-005	-2.40040E-001	1.37021E-001	3.57640E+000	9	...........
	74	1	1.31456E-001	-3.98885E-004	0.00000E+000	-5.24359E-005	-2.40040E-001	1.31474E-001	3.57640E+000	9	...........
	75	1.01333	1.25915E-001	-3.99798E-004	0.00000E+000	-5.03405E-005	-2.40040E-001	1.25937E-001	3.57646E+000	9	...........
	76	1.02667	1.20425E-001	-3.98396E-004	0.00000E+000	-4.79768E-005	-2.40040E-001	1.20448E-001	3.57650E+000	9	...........
	77	1.04	1.15035E-001	-4.00053E-004	0.00000E+000	-4.60203E-005	-2.40040E-001	1.15054E-001	3.57650E+000	9	...........
	78	1.05333	1.09613E-001	-3.98337E-004	0.00000E+000	-4.36629E-005	-2.40040E-001	1.09633E-001	3.57650E+000	9	...........
	79	1.06667	1.04246E-001	-4.00192E-004	0.00000E+000	-4.17183E-005	-2.40040E-001	1.04265E-001	3.57650E+000	9	...........
	80	1.08	9.89157E-002	-3.98472E-004	0.00000E+000	-3.94151E-005	-2.40040E-001	9.89347E-002	3.57650E+000	9	...........
	81	1.09333	9.36454E-002	-3.99269E-004	0.00000E+000	-3.73897E-005	-2.40040E-001	9.36609E-002	3.57650E+000	9	...........
	82	1.10667	8.82931E-002	-3.99416E-004	0.00000E+000	-3.52656E-005	-2.40040E-001	8.83109E-002	3.57650E+000	9	...........
	83	1.12	8.30319E-002	-3.98475E-004	0.00000E+000	-3.30861E-005	-2.40040E-001	8.30453E-002	3.57650E+000	9	...........
	84	1.13333	7.77827E-002	-3.98155E-004	0.00000E+000	-3.09696E-005	-2.40040E-001	7.77933E-002	3.57650E+000	9	...........
	85	1.14667	7.26791E-002	-3.98695E-004	0.00000E+000	-2.89768E-005	-2.40040E-001	7.26899E-002	3.57650E+000	9	...........
	86	1.16	6.76645E-002	-3.99520E-004	0.00000E+000	-2.70333E-005	-2.40040E-001	6.76769E-002	3.57650E+000	9	...........
	87	1.17333	6.25575E-002	-3.99277E-004	0.00000E+000	-2.49778E-005	-2.40040E-001	6.25688E-002	3.57650E+000	9	...........
	88	1.18667	5.75336E-002	-3.98943E-004	0.00000E+000	-2.29526E-005	-2.40040E-001	5.75369E-002	3.57650E+000	9	...........
	89	1.2	5.24694E-002	-3.97100E-004	0.00000E+000	-2.08356E-005	-2.40040E-001	5.24755E-002	3.57650E+000	9	...........
	90	1.21333	4.75461E-002	-3.99057E-004	0.00000E+000	-1.89736E-005	-2.40040E-001	4.75489E-002	3.57650E+000	9	...........
	91	1.22667	4.26452E-002	-3.99657E-004	0.00000E+000	-1.70435E-005	-2.40040E-001	4.26484E-002	3.57650E+000	9	...........
	92	1.24	3.76673E-002	-3.98584E-004	0.00000E+000	-1.50136E-005	-2.40040E-001	3.76752E-002	3.57650E+000	9	...........
	93	1.25333	3.27026E-002	-3.97284E-004	0.00000E+000	-1.29922E-005	-2.40040E-001	3.27009E-002	3.57650E+000	9	...........
	94	1.26667	2.78902E-002	-3.97214E-004	0.00000E+000	-1.10784E-005	-2.40040E-001	2.78925E-002	3.57650E+000	9	...........
	95	1.28	2.30466E-002	-3.99640E-004	0.00000E+000	-9.21034E-006	-2.40040E-001	2.30457E-002	3.57650E+000	9	...........
	96	1.29333	1.82161E-002	-3.98858E-004	0.00000E+000	-7.26563E-006	-2.40040E-001	1.82056E-002	3.57650E+000	9	...........
	97	1.30667	1.33839E-002	-3.98900E-004	0.00000E+000	-5.33884E-006	-2.40040E-001	1.33738E-002	3.57650E+000	9	...........
	98	1.32	8.70273E-003	-3.98421E-004	0.00000E+000	-3.46735E-006	-2.40040E-001	8.68633E-003	3.57650E+000	9	...........
	99	1.33333	4.02287E-003	-3.98410E-004	0.00000E+000	-1.60275E-006	-2.40040E-001	4.00329E-003	3.57650E+000	9	...........
	100	1.34	6.19398E-004	-4.00498E-004	0.00000E+000	-2.48068E-007	-2.40040E-001	5.98612E-004	3.57650E+000	9	...........
STARTTIMEOFFSET	QUANT	3111.453	Start Time Offset (s)
