EXPLAIN
TAG	PWR800_DISCHARGE
TITLE	LABEL	PWR Cyclic Charge Discharge (Cell) - Discharge Step	Test &Identifier
DATE	LABEL	12-7-2017	Date
TIME	LABEL	15:23:48	Time
NOTES	NOTES	3	&Notes...
	supercap test cell
	0.4mg
	6M KOH
PSTAT	PSTAT	IFC5000-01520	Potentiostat
CAPACITY	QUANT	1.00000E-003	Capacity (A-hr)
CELLTYPE	SELECTOR	1	&Cell Type
WORKINGCONNECTION	SELECTOR	0	&Working Lead
MAXDISCHARGETIME	VARIABLEANDUNITS	1.00000E+002	s	1.00000E+002	second(s)	Max &Discharge Time
DISCHARGEMODE	MULTIPARAM	0	4.00000E-004	&Discharge Mode	Constant Current	Amp(s)
SAMPLETIME	QUANT	1.00000E-002	Sa&mple Period (s)
DISCHARGESTOPAT1	MULTIPARAM	3	0.00000E+000	Discharge Stop At &1	Voltage < Limit	V
DISCHARGESTOPAT2	MULTIPARAM	0	0.00000E+000	Discharge Stop At &2	None	N/A
AESBHCSELECTOR	TOGGLE	F	Save Both Half Cells
IRCOMP	TOGGLE	F	IR &Measure
EOC	QUANT	0	Open Circuit (V)
SEQUENCER	TOGGLE	TRUE	Run as Sequence
PSTATMODEL	IQUANT	53	Pstat Model
PSTATSECTION	LABEL	IFC5000-01520	Pstat Section
PSTATSERIALNO	LABEL	01520	Pstat Serial Number
CTRLMODE	IQUANT	0	Control Mode
ELECTROMETER	IQUANT	1	RE=0 or CS=1
IESTAB	IQUANT	0	I/E Stability
CASPEED	IQUANT	4	Control Amp Speed
CONVENTION	IQUANT	1	Current Convention
ICHRANGE	IQUANT	2	Ich Range
ICHRANGEMODE	TOGGLE	T	Ich Auto Range
ICHOFFSETENABLE	TOGGLE	F	Ich Offset Enable
ICHOFFSET	QUANT	0	Ich Offset (V)
ICHFILTER	IQUANT	1	Ich Filter
VCHRANGE	IQUANT	2	Vch Range
VCHRANGEMODE	TOGGLE	T	Vch Auto Range
VCHOFFSETENABLE	TOGGLE	F	Vch Offset Enable
VCHOFFSET	QUANT	0	Vch Offset (V)
VCHFILTER	IQUANT	1	Vch Filter
IERANGELOWERLIMIT	IQUANT	9	I/E Range Lower Limit
IERANGEMODE	TOGGLE	F	I/E AutoRange
IERANGE	IQUANT	9	I/E Range
ACHSELECT	IQUANT	1	Ach Select
ACHRANGE	IQUANT	2	Ach Range
ACHOFFSETENABLE	TOGGLE	F	Ach Offset Enable
ACHOFFSET	QUANT	0	Ach Offset (V)
ACHFILTER	IQUANT	1	Ach Filter
CABLEID	IQUANT	14	Cable ID
DCCALDATE	LABEL	5-7-2017	DC Calibration Date
ACCALDATE	LABEL	12/3/2015	AC Calibration Date
FRAMEWORKVERSION	QUANT	7.01	Framework Version
INSTRUMENTVERSION	LABEL	4.00	Instrument Version
CURVE	TABLE	101
	Pt	T	Vf	Im	Vu	Pwr	Sig	Ach	Temp	IERange	Over
	#	s	V	A	V	W	V	V	deg C	#	bits
	0	0.013333	6.80040E-001	-3.98769E-004	0.00000E+000	-2.71179E-004	-2.40040E-001	6.80249E-001	3.57780E+000	9	...........
	1	0.026667	6.66105E-001	-3.98526E-004	0.00000E+000	-2.65460E-004	-2.40040E-001	6.66307E-001	3.57780E+000	9	...........
	2	0.04	6.53981E-001	-3.99665E-004	0.00000E+000	-2.61373E-004	-2.40040E-001	6.54203E-001	3.57780E+000	9	...........
	3	0.053333	6.42965E-001	-3.99101E-004	0.00000E+000	-2.56608E-004	-2.40040E-001	6.43187E-001	3.57780E+000	9	...........
	4	0.066667	6.32590E-001	-3.97794E-004	0.00000E+000	-2.51640E-004	-2.40040E-001	6.32834E-001	3.57780E+000	9	...........
	5	0.08	6.22730E-001	-3.99766E-004	0.00000E+000	-2.48946E-004	-2.40040E-001	6.22957E-001	3.57780E+000	9	...........
	6	0.093333	6.13172E-001	-3.98701E-004	0.00000E+000	-2.44472E-004	-2.40040E-001	6.13423E-001	3.57780E+000	9	...........
	7	0.106667	6.03886E-001	-3.98761E-004	0.00000E+000	-2.40806E-004	-2.40040E-001	6.04150E-001	3.57780E+000	9	...........
	8	0.12	5.94869E-001	-3.98218E-004	0.00000E+000	-2.36887E-004	-2.40040E-001	5.95115E-001	3.57780E+000	9	...........
	9	0.133333	5.86018E-001	-3.97971E-004	0.00000E+000	-2.33218E-004	-2.40040E-001	5.86271E-001	3.57761E+000	9	...........
	10	0.146667	5.77316E-001	-3.97065E-004	0.00000E+000	-2.29232E-004	-2.40040E-001	5.77555E-001	3.57630E+000	9	...........
	11	0.16	5.68739E-001	-3.98798E-004	0.00000E+000	-2.26812E-004	-2.40040E-001	5.68940E-001	3.57630E+000	9	...........
	12	0.173333	5.60212E-001	-3.98020E-004	0.00000E+000	-2.22975E-004	-2.40040E-001	5.60462E-001	3.57630E+000	9	...........
	13	0.186667	5.51819E-001	-3.98857E-004	0.00000E+000	-2.20097E-004	-2.40040E-001	5.52045E-001	3.57630E+000	9	...........
	14	0.2	5.43492E-001	-4.00151E-004	0.00000E+000	-2.17479E-004	-2.40040E-001	5.43700E-001	3.57630E+000	9	...........
	15	0.213333	5.35227E-001	-3.99040E-004	0.00000E+000	-2.13577E-004	-2.40040E-001	5.35457E-001	3.57630E+000	9	...........
	16	0.226667	5.27012E-001	-3.97848E-004	0.00000E+000	-2.09671E-004	-2.40040E-001	5.27249E-001	3.57630E+000	9	...........
	17	0.24	5.18897E-001	-3.99118E-004	0.00000E+000	-2.07101E-004	-2.40040E-001	5.19090E-001	3.57630E+000	9	...........
	18	0.253333	5.10761E-001	-3.99028E-004	0.00000E+000	-2.03808E-004	-2.40040E-001	5.11031E-001	3.57630E+000	9	...........
	19	0.266667	5.02681E-001	-3.98786E-004	0.00000E+000	-2.00462E-004	-2.40040E-001	5.02938E-001	3.57630E+000	9	...........
	20	0.28	4.94736E-001	-3.98131E-004	0.00000E+000	-1.96970E-004	-2.40040E-001	4.94991E-001	3.57630E+000	9	...........
	21	0.293333	4.86875E-001	-3.97911E-004	0.00000E+000	-1.93733E-004	-2.40040E-001	4.87065E-001	3.57630E+000	9	...........
	22	0.306667	4.79176E-001	-3.98881E-004	0.00000E+000	-1.91134E-004	-2.40040E-001	4.79271E-001	3.57630E+000	9	...........
	23	0.32	4.71253E-001	-3.99434E-004	0.00000E+000	-1.88235E-004	-2.40040E-001	4.71349E-001	3.57630E+000	9	...........
	24	0.333333	4.63426E-001	-3.98841E-004	0.00000E+000	-1.84833E-004	-2.40040E-001	4.63516E-001	3.57630E+000	9	...........
	25	0.346667	4.55701E-001	-3.98984E-004	0.00000E+000	-1.81818E-004	-2.40040E-001	4.55799E-001	3.57630E+000	9	...........
	26	0.36	4.48072E-001	-3.97633E-004	0.00000E+000	-1.78168E-004	-2.40040E-001	4.48165E-001	3.57630E+000	9	...........
	27	0.373333	4.40416E-001	-3.98313E-004	0.00000E+000	-1.75424E-004	-2.40040E-001	4.40506E-001	3.57630E+000	9	...........
	28	0.386667	4.32845E-001	-3.99536E-004	0.00000E+000	-1.72937E-004	-2.40040E-001	4.32929E-001	3.57630E+000	9	...........
	29	0.4	4.25290E-001	-3.98475E-004	0.00000E+000	-1.69467E-004	-2.40040E-001	4.25376E-001	3.57630E+000	9	...........
	30	0.413333	4.17788E-001	-3.96804E-004	0.00000E+000	-1.65780E-004	-2.40040E-001	4.17870E-001	3.57630E+000	9	...........
	31	0.426667	4.10273E-001	-4.00066E-004	0.00000E+000	-1.64136E-004	-2.40040E-001	4.10354E-001	3.57630E+000	9	...........
	32	0.44	4.02829E-001	-3.97819E-004	0.00000E+000	-1.60253E-004	-2.40040E-001	4.02910E-001	3.57630E+000	9	...........
	33	0.453333	3.95484E-001	-3.98174E-004	0.00000E+000	-1.57471E-004	-2.40040E-001	3.95557E-001	3.57630E+000	9	...........
	34	0.466667	3.88148E-001	-3.97387E-004	0.00000E+000	-1.54245E-004	-2.40040E-001	3.88221E-001	3.57630E+000	9	...........
	35	0.48	3.80910E-001	-4.00352E-004	0.00000E+000	-1.52498E-004	-2.40040E-001	3.80979E-001	3.57630E+000	9	...........
	36	0.493333	3.73656E-001	-3.99348E-004	0.00000E+000	-1.49219E-004	-2.40040E-001	3.73718E-001	3.57630E+000	9	...........
	37	0.506667	3.66454E-001	-3.99792E-004	0.00000E+000	-1.46505E-004	-2.40040E-001	3.66520E-001	3.57630E+000	9	...........
	38	0.52	3.59277E-001	-3.98795E-004	0.00000E+000	-1.43278E-004	-2.40040E-001	3.59342E-001	3.57630E+000	9	...........
	39	0.533333	3.52123E-001	-3.99959E-004	0.00000E+000	-1.40834E-004	-2.40040E-001	3.52186E-001	3.57630E+000	9	...........
	40	0.546667	3.45076E-001	-3.99324E-004	0.00000E+000	-1.37797E-004	-2.40040E-001	3.45137E-001	3.57630E+000	9	...........
	41	0.56	3.38054E-001	-3.98471E-004	0.00000E+000	-1.34705E-004	-2.40040E-001	3.38116E-001	3.57630E+000	9	...........
	42	0.573333	3.31075E-001	-3.98538E-004	0.00000E+000	-1.31946E-004	-2.40040E-001	3.31138E-001	3.57630E+000	9	...........
	43	0.586667	3.24176E-001	-3.98535E-004	0.00000E+000	-1.29195E-004	-2.40040E-001	3.24235E-001	3.57630E+000	9	...........
	44	0.6	3.17295E-001	-3.99031E-004	0.00000E+000	-1.26610E-004	-2.40040E-001	3.17361E-001	3.57630E+000	9	...........
	45	0.613333	3.10485E-001	-3.98515E-004	0.00000E+000	-1.23733E-004	-2.40040E-001	3.10547E-001	3.57630E+000	9	...........
	46	0.626667	3.03668E-001	-3.98546E-004	0.00000E+000	-1.21025E-004	-2.40040E-001	3.03729E-001	3.57630E+000	9	...........
	47	0.64	2.96971E-001	-3.99049E-004	0.00000E+000	-1.18506E-004	-2.40040E-001	2.97028E-001	3.57630E+000	9	...........
	48	0.653333	2.90307E-001	-3.99331E-004	0.00000E+000	-1.15929E-004	-2.40040E-001	2.90363E-001	3.57630E+000	9	...........
	49	0.666667	2.83687E-001	-3.98212E-004	0.00000E+000	-1.12968E-004	-2.40040E-001	2.83745E-001	3.57630E+000	9	...........
	50	0.68	2.77053E-001	-3.99455E-004	0.00000E+000	-1.10670E-004	-2.40040E-001	2.77111E-001	3.57630E+000	9	...........
	51	0.693333	2.70444E-001	-3.98913E-004	0.00000E+000	-1.07883E-004	-2.40040E-001	2.70500E-001	3.57630E+000	9	...........
	52	0.706667	2.63922E-001	-3.99026E-004	0.00000E+000	-1.05312E-004	-2.40040E-001	2.63971E-001	3.57630E+000	9	...........
	53	0.72	2.57441E-001	-3.97789E-004	0.00000E+000	-1.02407E-004	-2.40040E-001	2.57493E-001	3.57630E+000	9	...........
	54	0.733333	2.51015E-001	-3.98707E-004	0.00000E+000	-1.00082E-004	-2.40040E-001	2.51062E-001	3.57630E+000	9	...........
	55	0.746667	2.44647E-001	-3.98282E-004	0.00000E+000	-9.74387E-005	-2.40040E-001	2.44695E-001	3.57630E+000	9	...........
	56	0.76	2.38448E-001	-3.97683E-004	0.00000E+000	-9.48267E-005	-2.40040E-001	2.38494E-001	3.57630E+000	9	...........
	57	0.773333	2.32137E-001	-3.98033E-004	0.00000E+000	-9.23980E-005	-2.40040E-001	2.32180E-001	3.57630E+000	9	...........
	58	0.786667	2.25845E-001	-3.98849E-004	0.00000E+000	-9.00782E-005	-2.40040E-001	2.25888E-001	3.57630E+000	9	...........
	59	0.8	2.19664E-001	-3.97645E-004	0.00000E+000	-8.73483E-005	-2.40040E-001	2.19708E-001	3.57630E+000	9	...........
	60	0.813333	2.13582E-001	-3.98642E-004	0.00000E+000	-8.51428E-005	-2.40040E-001	2.13623E-001	3.57630E+000	9	...........
	61	0.826667	2.07498E-001	-3.99374E-004	0.00000E+000	-8.28694E-005	-2.40040E-001	2.07545E-001	3.57630E+000	9	...........
	62	0.84	2.01477E-001	-3.99511E-004	0.00000E+000	-8.04921E-005	-2.40040E-001	2.01518E-001	3.57630E+000	9	...........
	63	0.853333	1.95450E-001	-3.97740E-004	0.00000E+000	-7.77384E-005	-2.40040E-001	1.95486E-001	3.57630E+000	9	...........
	64	0.866667	1.89412E-001	-3.97596E-004	0.00000E+000	-7.53095E-005	-2.40040E-001	1.89448E-001	3.57630E+000	9	...........
	65	0.88	1.83461E-001	-3.99237E-004	0.00000E+000	-7.32444E-005	-2.40040E-001	1.83500E-001	3.57630E+000	9	...........
	66	0.893333	1.77587E-001	-3.98790E-004	0.00000E+000	-7.08200E-005	-2.40040E-001	1.77616E-001	3.57630E+000	9	...........
	67	0.906667	1.71769E-001	-3.99297E-004	0.00000E+000	-6.85868E-005	-2.40040E-001	1.71799E-001	3.57630E+000	9	...........
	68	0.92	1.66034E-001	-3.98108E-004	0.00000E+000	-6.60993E-005	-2.40040E-001	1.66060E-001	3.57630E+000	9	...........
	69	0.933333	1.60266E-001	-3.98603E-004	0.00000E+000	-6.38824E-005	-2.40040E-001	1.60297E-001	3.57630E+000	9	...........
	70	0.946667	1.54568E-001	-3.98770E-004	0.00000E+000	-6.16370E-005	-2.40040E-001	1.54590E-001	3.57630E+000	9	...........
	71	0.96	1.48909E-001	-3.97934E-004	0.00000E+000	-5.92558E-005	-2.40040E-001	1.48931E-001	3.57630E+000	9	...........
	72	0.97333	1.43219E-001	-3.99310E-004	0.00000E+000	-5.71889E-005	-2.40040E-001	1.43243E-001	3.57630E+000	9	...........
	73	0.98667	1.37610E-001	-3.98494E-004	0.00000E+000	-5.48367E-005	-2.40040E-001	1.37632E-001	3.57630E+000	9	...........
	74	1	1.32082E-001	-3.99470E-004	0.00000E+000	-5.27630E-005	-2.40040E-001	1.32105E-001	3.57630E+000	9	...........
	75	1.01333	1.26556E-001	-3.99206E-004	0.00000E+000	-5.05218E-005	-2.40040E-001	1.26573E-001	3.57630E+000	9	...........
	76	1.02667	1.21062E-001	-3.97389E-004	0.00000E+000	-4.81086E-005	-2.40040E-001	1.21083E-001	3.57630E+000	9	...........
	77	1.04	1.15634E-001	-3.98311E-004	0.00000E+000	-4.60582E-005	-2.40040E-001	1.15656E-001	3.57630E+000	9	...........
	78	1.05333	1.10296E-001	-3.98644E-004	0.00000E+000	-4.39687E-005	-2.40040E-001	1.10315E-001	3.57630E+000	9	...........
	79	1.06667	1.04887E-001	-3.98478E-004	0.00000E+000	-4.17951E-005	-2.40040E-001	1.04909E-001	3.57630E+000	9	...........
	80	1.08	9.95478E-002	-3.98005E-004	0.00000E+000	-3.96205E-005	-2.40040E-001	9.95653E-002	3.57630E+000	9	...........
	81	1.09333	9.41635E-002	-3.97850E-004	0.00000E+000	-3.74629E-005	-2.40040E-001	9.41767E-002	3.57630E+000	9	...........
	82	1.10667	8.88967E-002	-3.98876E-004	0.00000E+000	-3.54588E-005	-2.40040E-001	8.89150E-002	3.57630E+000	9	...........
	83	1.12	8.37104E-002	-3.99331E-004	0.00000E+000	-3.34282E-005	-2.40040E-001	8.37224E-002	3.57630E+000	9	...........
	84	1.13333	7.85418E-002	-3.99239E-004	0.00000E+000	-3.13569E-005	-2.40040E-001	7.85504E-002	3.57634E+000	9	...........
	85	1.14667	7.33503E-002	-3.99169E-004	0.00000E+000	-2.92791E-005	-2.40040E-001	7.33570E-002	3.57660E+000	9	...........
	86	1.16	6.81940E-002	-3.98405E-004	0.00000E+000	-2.71688E-005	-2.40040E-001	6.81982E-002	3.57660E+000	9	...........
	87	1.17333	6.30907E-002	-3.99213E-004	0.00000E+000	-2.51866E-005	-2.40040E-001	6.30993E-002	3.57660E+000	9	...........
	88	1.18667	5.79999E-002	-3.99782E-004	0.00000E+000	-2.31873E-005	-2.40040E-001	5.80036E-002	3.57660E+000	9	...........
	89	1.2	5.29460E-002	-3.99008E-004	0.00000E+000	-2.11259E-005	-2.40040E-001	5.29521E-002	3.57660E+000	9	...........
	90	1.21333	4.79616E-002	-3.98267E-004	0.00000E+000	-1.91015E-005	-2.40040E-001	4.79688E-002	3.57660E+000	9	...........
	91	1.22667	4.29568E-002	-3.99542E-004	0.00000E+000	-1.71630E-005	-2.40040E-001	4.29652E-002	3.57660E+000	9	...........
	92	1.24	3.80734E-002	-3.98826E-004	0.00000E+000	-1.51847E-005	-2.40040E-001	3.80725E-002	3.57660E+000	9	...........
	93	1.25333	3.32197E-002	-3.98104E-004	0.00000E+000	-1.32249E-005	-2.40040E-001	3.32197E-002	3.57660E+000	9	...........
	94	1.26667	2.83443E-002	-3.97093E-004	0.00000E+000	-1.12553E-005	-2.40040E-001	2.83450E-002	3.57660E+000	9	...........
	95	1.28	2.35684E-002	-3.99581E-004	0.00000E+000	-9.41750E-006	-2.40040E-001	2.35647E-002	3.57660E+000	9	...........
	96	1.29333	1.87489E-002	-3.98217E-004	0.00000E+000	-7.46611E-006	-2.40040E-001	1.87394E-002	3.57660E+000	9	...........
	97	1.30667	1.40913E-002	-3.99465E-004	0.00000E+000	-5.62899E-006	-2.40040E-001	1.40787E-002	3.57660E+000	9	...........
	98	1.32	9.41364E-003	-3.98709E-004	0.00000E+000	-3.75331E-006	-2.40040E-001	9.39672E-003	3.57660E+000	9	...........
	99	1.33333	4.74726E-003	-3.98309E-004	0.00000E+000	-1.89088E-006	-2.40040E-001	4.72950E-003	3.57660E+000	9	...........
	100	1.34167	1.02878E-003	-3.98484E-004	0.00000E+000	-4.09953E-007	-2.40040E-001	1.00329E-003	3.57660E+000	9	...........
STARTTIMEOFFSET	QUANT	3084.16	Start Time Offset (s)
