EXPLAIN
TAG	PWR800_DISCHARGE
TITLE	LABEL	PWR Cyclic Charge Discharge (Cell) - Discharge Step	Test &Identifier
DATE	LABEL	12-7-2017	Date
TIME	LABEL	15:03:51	Time
NOTES	NOTES	3	&Notes...
	supercap test cell
	0.4mg
	6M KOH
PSTAT	PSTAT	IFC5000-01520	Potentiostat
CAPACITY	QUANT	1.00000E-003	Capacity (A-hr)
CELLTYPE	SELECTOR	1	&Cell Type
WORKINGCONNECTION	SELECTOR	0	&Working Lead
MAXDISCHARGETIME	VARIABLEANDUNITS	1.00000E+002	s	1.00000E+002	second(s)	Max &Discharge Time
DISCHARGEMODE	MULTIPARAM	0	4.00000E-004	&Discharge Mode	Constant Current	Amp(s)
SAMPLETIME	QUANT	1.00000E-002	Sa&mple Period (s)
DISCHARGESTOPAT1	MULTIPARAM	3	0.00000E+000	Discharge Stop At &1	Voltage < Limit	V
DISCHARGESTOPAT2	MULTIPARAM	0	0.00000E+000	Discharge Stop At &2	None	N/A
AESBHCSELECTOR	TOGGLE	F	Save Both Half Cells
IRCOMP	TOGGLE	F	IR &Measure
EOC	QUANT	0	Open Circuit (V)
SEQUENCER	TOGGLE	TRUE	Run as Sequence
PSTATMODEL	IQUANT	53	Pstat Model
PSTATSECTION	LABEL	IFC5000-01520	Pstat Section
PSTATSERIALNO	LABEL	01520	Pstat Serial Number
CTRLMODE	IQUANT	0	Control Mode
ELECTROMETER	IQUANT	1	RE=0 or CS=1
IESTAB	IQUANT	0	I/E Stability
CASPEED	IQUANT	4	Control Amp Speed
CONVENTION	IQUANT	1	Current Convention
ICHRANGE	IQUANT	2	Ich Range
ICHRANGEMODE	TOGGLE	T	Ich Auto Range
ICHOFFSETENABLE	TOGGLE	F	Ich Offset Enable
ICHOFFSET	QUANT	0	Ich Offset (V)
ICHFILTER	IQUANT	1	Ich Filter
VCHRANGE	IQUANT	2	Vch Range
VCHRANGEMODE	TOGGLE	T	Vch Auto Range
VCHOFFSETENABLE	TOGGLE	F	Vch Offset Enable
VCHOFFSET	QUANT	0	Vch Offset (V)
VCHFILTER	IQUANT	1	Vch Filter
IERANGELOWERLIMIT	IQUANT	9	I/E Range Lower Limit
IERANGEMODE	TOGGLE	F	I/E AutoRange
IERANGE	IQUANT	9	I/E Range
ACHSELECT	IQUANT	1	Ach Select
ACHRANGE	IQUANT	2	Ach Range
ACHOFFSETENABLE	TOGGLE	F	Ach Offset Enable
ACHOFFSET	QUANT	0	Ach Offset (V)
ACHFILTER	IQUANT	1	Ach Filter
CABLEID	IQUANT	14	Cable ID
DCCALDATE	LABEL	5-7-2017	DC Calibration Date
ACCALDATE	LABEL	12/3/2015	AC Calibration Date
FRAMEWORKVERSION	QUANT	7.01	Framework Version
INSTRUMENTVERSION	LABEL	4.00	Instrument Version
CURVE	TABLE	108
	Pt	T	Vf	Im	Vu	Pwr	Sig	Ach	Temp	IERange	Over
	#	s	V	A	V	W	V	V	deg C	#	bits
	0	0.013333	6.92551E-001	-3.97770E-004	0.00000E+000	-2.75476E-004	-2.40040E-001	6.92762E-001	3.57700E+000	9	...........
	1	0.026667	6.79531E-001	-3.98657E-004	0.00000E+000	-2.70900E-004	-2.40040E-001	6.79748E-001	3.57700E+000	9	...........
	2	0.04	6.68113E-001	-3.99508E-004	0.00000E+000	-2.66917E-004	-2.40040E-001	6.68317E-001	3.57700E+000	9	...........
	3	0.053333	6.57598E-001	-3.99319E-004	0.00000E+000	-2.62591E-004	-2.40040E-001	6.57819E-001	3.57700E+000	9	...........
	4	0.066667	6.47743E-001	-3.98148E-004	0.00000E+000	-2.57898E-004	-2.40040E-001	6.47969E-001	3.57700E+000	9	...........
	5	0.08	6.38315E-001	-3.98076E-004	0.00000E+000	-2.54098E-004	-2.40040E-001	6.38539E-001	3.57700E+000	9	...........
	6	0.093333	6.29215E-001	-3.99310E-004	0.00000E+000	-2.51252E-004	-2.40040E-001	6.29424E-001	3.57700E+000	9	...........
	7	0.106667	6.20493E-001	-3.97002E-004	0.00000E+000	-2.46337E-004	-2.40040E-001	6.20677E-001	3.57700E+000	9	...........
	8	0.12	6.11730E-001	-3.99142E-004	0.00000E+000	-2.44167E-004	-2.40040E-001	6.11984E-001	3.57700E+000	9	...........
	9	0.133333	6.03267E-001	-3.99612E-004	0.00000E+000	-2.41072E-004	-2.40040E-001	6.03490E-001	3.57700E+000	9	...........
	10	0.146667	5.94875E-001	-3.98289E-004	0.00000E+000	-2.36932E-004	-2.40040E-001	5.95092E-001	3.57700E+000	9	...........
	11	0.16	5.86599E-001	-3.99890E-004	0.00000E+000	-2.34575E-004	-2.40040E-001	5.86817E-001	3.57700E+000	9	...........
	12	0.173333	5.78433E-001	-3.98859E-004	0.00000E+000	-2.30713E-004	-2.40040E-001	5.78630E-001	3.57700E+000	9	...........
	13	0.186667	5.70336E-001	-3.98961E-004	0.00000E+000	-2.27542E-004	-2.40040E-001	5.70510E-001	3.57700E+000	9	...........
	14	0.2	5.62238E-001	-3.98395E-004	0.00000E+000	-2.23993E-004	-2.40040E-001	5.62455E-001	3.57700E+000	9	...........
	15	0.213333	5.54266E-001	-3.98812E-004	0.00000E+000	-2.21048E-004	-2.40040E-001	5.54482E-001	3.57640E+000	9	...........
	16	0.226667	5.46363E-001	-3.98675E-004	0.00000E+000	-2.17821E-004	-2.40040E-001	5.46570E-001	3.57620E+000	9	...........
	17	0.24	5.38504E-001	-3.98352E-004	0.00000E+000	-2.14514E-004	-2.40040E-001	5.38681E-001	3.57620E+000	9	...........
	18	0.253333	5.30634E-001	-3.98652E-004	0.00000E+000	-2.11538E-004	-2.40040E-001	5.30830E-001	3.57620E+000	9	...........
	19	0.266667	5.22870E-001	-3.98920E-004	0.00000E+000	-2.08583E-004	-2.40040E-001	5.23051E-001	3.57620E+000	9	...........
	20	0.28	5.15244E-001	-3.99159E-004	0.00000E+000	-2.05665E-004	-2.40040E-001	5.15400E-001	3.57620E+000	9	...........
	21	0.293333	5.07453E-001	-3.98890E-004	0.00000E+000	-2.02418E-004	-2.40040E-001	5.07679E-001	3.57620E+000	9	...........
	22	0.306667	4.99852E-001	-3.98889E-004	0.00000E+000	-1.99385E-004	-2.40040E-001	5.00073E-001	3.57620E+000	9	...........
	23	0.32	4.92311E-001	-3.98932E-004	0.00000E+000	-1.96399E-004	-2.40040E-001	4.92539E-001	3.57620E+000	9	...........
	24	0.333333	4.84978E-001	-3.99522E-004	0.00000E+000	-1.93759E-004	-2.40040E-001	4.85124E-001	3.57620E+000	9	...........
	25	0.346667	4.77639E-001	-3.99371E-004	0.00000E+000	-1.90755E-004	-2.40040E-001	4.77737E-001	3.57620E+000	9	...........
	26	0.36	4.70209E-001	-3.98231E-004	0.00000E+000	-1.87252E-004	-2.40040E-001	4.70304E-001	3.57620E+000	9	...........
	27	0.373333	4.62825E-001	-3.99868E-004	0.00000E+000	-1.85069E-004	-2.40040E-001	4.62918E-001	3.57620E+000	9	...........
	28	0.386667	4.55488E-001	-4.00000E-004	0.00000E+000	-1.82195E-004	-2.40040E-001	4.55573E-001	3.57620E+000	9	...........
	29	0.4	4.48289E-001	-3.98801E-004	0.00000E+000	-1.78778E-004	-2.40040E-001	4.48380E-001	3.57620E+000	9	...........
	30	0.413333	4.41029E-001	-3.99725E-004	0.00000E+000	-1.76291E-004	-2.40040E-001	4.41122E-001	3.57620E+000	9	...........
	31	0.426667	4.33803E-001	-3.99554E-004	0.00000E+000	-1.73328E-004	-2.40040E-001	4.33887E-001	3.57620E+000	9	...........
	32	0.44	4.26595E-001	-3.98952E-004	0.00000E+000	-1.70191E-004	-2.40040E-001	4.26678E-001	3.57620E+000	9	...........
	33	0.453333	4.19488E-001	-3.99413E-004	0.00000E+000	-1.67549E-004	-2.40040E-001	4.19573E-001	3.57620E+000	9	...........
	34	0.466667	4.12434E-001	-3.97491E-004	0.00000E+000	-1.63939E-004	-2.40040E-001	4.12519E-001	3.57620E+000	9	...........
	35	0.48	4.05344E-001	-3.98964E-004	0.00000E+000	-1.61717E-004	-2.40040E-001	4.05425E-001	3.57620E+000	9	...........
	36	0.493333	3.98356E-001	-3.98869E-004	0.00000E+000	-1.58892E-004	-2.40040E-001	3.98433E-001	3.57620E+000	9	...........
	37	0.506667	3.91387E-001	-3.98952E-004	0.00000E+000	-1.56145E-004	-2.40040E-001	3.91461E-001	3.57620E+000	9	...........
	38	0.52	3.84432E-001	-3.98771E-004	0.00000E+000	-1.53300E-004	-2.40040E-001	3.84508E-001	3.57620E+000	9	...........
	39	0.533333	3.77562E-001	-3.98418E-004	0.00000E+000	-1.50427E-004	-2.40040E-001	3.77640E-001	3.57620E+000	9	...........
	40	0.546667	3.70798E-001	-3.96612E-004	0.00000E+000	-1.47063E-004	-2.40040E-001	3.70868E-001	3.57620E+000	9	...........
	41	0.56	3.63945E-001	-3.99631E-004	0.00000E+000	-1.45444E-004	-2.40040E-001	3.64022E-001	3.57620E+000	9	...........
	42	0.573333	3.57102E-001	-3.99556E-004	0.00000E+000	-1.42682E-004	-2.40040E-001	3.57168E-001	3.57620E+000	9	...........
	43	0.586667	3.50349E-001	-3.98399E-004	0.00000E+000	-1.39579E-004	-2.40040E-001	3.50420E-001	3.57620E+000	9	...........
	44	0.6	3.43655E-001	-3.99376E-004	0.00000E+000	-1.37248E-004	-2.40040E-001	3.43723E-001	3.57620E+000	9	...........
	45	0.613333	3.37059E-001	-3.98370E-004	0.00000E+000	-1.34274E-004	-2.40040E-001	3.37118E-001	3.57620E+000	9	...........
	46	0.626667	3.30483E-001	-3.98228E-004	0.00000E+000	-1.31607E-004	-2.40040E-001	3.30544E-001	3.57620E+000	9	...........
	47	0.64	3.23896E-001	-3.99610E-004	0.00000E+000	-1.29432E-004	-2.40040E-001	3.23958E-001	3.57620E+000	9	...........
	48	0.653333	3.17332E-001	-3.98722E-004	0.00000E+000	-1.26527E-004	-2.40040E-001	3.17396E-001	3.57620E+000	9	...........
	49	0.666667	3.10785E-001	-3.98230E-004	0.00000E+000	-1.23764E-004	-2.40040E-001	3.10845E-001	3.57620E+000	9	...........
	50	0.68	3.04369E-001	-3.98621E-004	0.00000E+000	-1.21328E-004	-2.40040E-001	3.04429E-001	3.57620E+000	9	...........
	51	0.693333	2.98026E-001	-3.99949E-004	0.00000E+000	-1.19195E-004	-2.40040E-001	2.98086E-001	3.57620E+000	9	...........
	52	0.706667	2.91736E-001	-3.99337E-004	0.00000E+000	-1.16501E-004	-2.40040E-001	2.91795E-001	3.57620E+000	9	...........
	53	0.72	2.85490E-001	-3.98921E-004	0.00000E+000	-1.13888E-004	-2.40040E-001	2.85547E-001	3.57620E+000	9	...........
	54	0.733333	2.79279E-001	-3.99380E-004	0.00000E+000	-1.11538E-004	-2.40040E-001	2.79338E-001	3.57620E+000	9	...........
	55	0.746667	2.73100E-001	-3.98171E-004	0.00000E+000	-1.08740E-004	-2.40040E-001	2.73155E-001	3.57620E+000	9	...........
	56	0.76	2.66895E-001	-3.98089E-004	0.00000E+000	-1.06248E-004	-2.40040E-001	2.66951E-001	3.57620E+000	9	...........
	57	0.773333	2.60740E-001	-3.98942E-004	0.00000E+000	-1.04020E-004	-2.40040E-001	2.60793E-001	3.57620E+000	9	...........
	58	0.786667	2.54565E-001	-3.98630E-004	0.00000E+000	-1.01477E-004	-2.40040E-001	2.54619E-001	3.57620E+000	9	...........
	59	0.8	2.48491E-001	-3.98177E-004	0.00000E+000	-9.89436E-005	-2.40040E-001	2.48542E-001	3.57620E+000	9	...........
	60	0.813333	2.42450E-001	-3.99080E-004	0.00000E+000	-9.67571E-005	-2.40040E-001	2.42494E-001	3.57620E+000	9	...........
	61	0.826667	2.36486E-001	-3.99434E-004	0.00000E+000	-9.44607E-005	-2.40040E-001	2.36523E-001	3.57620E+000	9	...........
	62	0.84	2.30546E-001	-3.99043E-004	0.00000E+000	-9.19979E-005	-2.40040E-001	2.30585E-001	3.57620E+000	9	...........
	63	0.853333	2.24672E-001	-3.97890E-004	0.00000E+000	-8.93948E-005	-2.40040E-001	2.24711E-001	3.57620E+000	9	...........
	64	0.866667	2.18847E-001	-3.98537E-004	0.00000E+000	-8.72187E-005	-2.40040E-001	2.18884E-001	3.57620E+000	9	...........
	65	0.88	2.13043E-001	-3.98948E-004	0.00000E+000	-8.49930E-005	-2.40040E-001	2.13087E-001	3.57620E+000	9	...........
	66	0.893333	2.07244E-001	-3.98030E-004	0.00000E+000	-8.24894E-005	-2.40040E-001	2.07284E-001	3.57620E+000	9	...........
	67	0.906667	2.01500E-001	-3.98283E-004	0.00000E+000	-8.02540E-005	-2.40040E-001	2.01537E-001	3.57620E+000	9	...........
	68	0.92	1.95793E-001	-3.99722E-004	0.00000E+000	-7.82628E-005	-2.40040E-001	1.95829E-001	3.57620E+000	9	...........
	69	0.933333	1.90086E-001	-3.99231E-004	0.00000E+000	-7.58881E-005	-2.40040E-001	1.90112E-001	3.57620E+000	9	...........
	70	0.946667	1.84473E-001	-3.98659E-004	0.00000E+000	-7.35420E-005	-2.40040E-001	1.84504E-001	3.57620E+000	9	...........
	71	0.96	1.78877E-001	-3.97512E-004	0.00000E+000	-7.11056E-005	-2.40040E-001	1.78912E-001	3.57620E+000	9	...........
	72	0.97333	1.73378E-001	-3.99347E-004	0.00000E+000	-6.92381E-005	-2.40040E-001	1.73408E-001	3.57620E+000	9	...........
	73	0.98667	1.67851E-001	-3.97821E-004	0.00000E+000	-6.67744E-005	-2.40040E-001	1.67881E-001	3.57620E+000	9	...........
	74	1	1.62347E-001	-3.97674E-004	0.00000E+000	-6.45610E-005	-2.40040E-001	1.62374E-001	3.57620E+000	9	...........
	75	1.01333	1.56838E-001	-3.99339E-004	0.00000E+000	-6.26316E-005	-2.40040E-001	1.56858E-001	3.57620E+000	9	...........
	76	1.02667	1.51345E-001	-3.98486E-004	0.00000E+000	-6.03089E-005	-2.40040E-001	1.51365E-001	3.57620E+000	9	...........
	77	1.04	1.45961E-001	-3.98445E-004	0.00000E+000	-5.81574E-005	-2.40040E-001	1.45981E-001	3.57620E+000	9	...........
	78	1.05333	1.40578E-001	-3.99220E-004	0.00000E+000	-5.61217E-005	-2.40040E-001	1.40600E-001	3.57620E+000	9	...........
	79	1.06667	1.35251E-001	-3.98868E-004	0.00000E+000	-5.39473E-005	-2.40040E-001	1.35272E-001	3.57620E+000	9	...........
	80	1.08	1.29946E-001	-3.98089E-004	0.00000E+000	-5.17301E-005	-2.40040E-001	1.29962E-001	3.57620E+000	9	...........
	81	1.09333	1.24723E-001	-3.98692E-004	0.00000E+000	-4.97261E-005	-2.40040E-001	1.24745E-001	3.57620E+000	9	...........
	82	1.10667	1.19536E-001	-3.98600E-004	0.00000E+000	-4.76471E-005	-2.40040E-001	1.19564E-001	3.57620E+000	9	...........
	83	1.12	1.14390E-001	-3.97977E-004	0.00000E+000	-4.55246E-005	-2.40040E-001	1.14413E-001	3.57620E+000	9	...........
	84	1.13333	1.09346E-001	-3.98663E-004	0.00000E+000	-4.35922E-005	-2.40040E-001	1.09365E-001	3.57620E+000	9	...........
	85	1.14667	1.04202E-001	-3.97780E-004	0.00000E+000	-4.14494E-005	-2.40040E-001	1.04219E-001	3.57620E+000	9	...........
	86	1.16	9.89853E-002	-3.98797E-004	0.00000E+000	-3.94750E-005	-2.40040E-001	9.90019E-002	3.57620E+000	9	...........
	87	1.17333	9.39011E-002	-3.98180E-004	0.00000E+000	-3.73895E-005	-2.40040E-001	9.39141E-002	3.57620E+000	9	...........
	88	1.18667	8.88816E-002	-3.99093E-004	0.00000E+000	-3.54720E-005	-2.40040E-001	8.88929E-002	3.57620E+000	9	...........
	89	1.2	8.38483E-002	-4.00760E-004	0.00000E+000	-3.36030E-005	-2.40040E-001	8.38632E-002	3.57620E+000	9	...........
	90	1.21333	7.88916E-002	-3.98815E-004	0.00000E+000	-3.14631E-005	-2.40040E-001	7.89007E-002	3.57627E+000	9	...........
	91	1.22667	7.39383E-002	-4.00007E-004	0.00000E+000	-2.95759E-005	-2.40040E-001	7.39481E-002	3.57630E+000	9	...........
	92	1.24	6.91026E-002	-3.99128E-004	0.00000E+000	-2.75808E-005	-2.40040E-001	6.91085E-002	3.57630E+000	9	...........
	93	1.25333	6.42648E-002	-3.99637E-004	0.00000E+000	-2.56825E-005	-2.40040E-001	6.42724E-002	3.57630E+000	9	...........
	94	1.26667	5.94125E-002	-3.97817E-004	0.00000E+000	-2.36353E-005	-2.40040E-001	5.94201E-002	3.57630E+000	9	...........
	95	1.28	5.46195E-002	-3.98747E-004	0.00000E+000	-2.17794E-005	-2.40040E-001	5.46258E-002	3.57630E+000	9	...........
	96	1.29333	4.99471E-002	-3.99340E-004	0.00000E+000	-1.99459E-005	-2.40040E-001	4.99508E-002	3.57630E+000	9	...........
	97	1.30667	4.52507E-002	-3.99343E-004	0.00000E+000	-1.80706E-005	-2.40040E-001	4.52619E-002	3.57630E+000	9	...........
	98	1.32	4.05638E-002	-3.99146E-004	0.00000E+000	-1.61909E-005	-2.40040E-001	4.05659E-002	3.57630E+000	9	...........
	99	1.33333	3.58401E-002	-3.98387E-004	0.00000E+000	-1.42783E-005	-2.40040E-001	3.58399E-002	3.57630E+000	9	...........
	100	1.34667	3.11817E-002	-3.98222E-004	0.00000E+000	-1.24172E-005	-2.40040E-001	3.11777E-002	3.57630E+000	9	...........
	101	1.36	2.64926E-002	-3.98978E-004	0.00000E+000	-1.05700E-005	-2.40040E-001	2.64859E-002	3.57630E+000	9	...........
	102	1.37333	2.18818E-002	-3.99046E-004	0.00000E+000	-8.73184E-006	-2.40040E-001	2.18726E-002	3.57630E+000	9	...........
	103	1.38667	1.72523E-002	-3.98873E-004	0.00000E+000	-6.88148E-006	-2.40040E-001	1.72385E-002	3.57630E+000	9	...........
	104	1.4	1.27488E-002	-3.99305E-004	0.00000E+000	-5.09067E-006	-2.40040E-001	1.27376E-002	3.57630E+000	9	...........
	105	1.41333	8.28543E-003	-3.98325E-004	0.00000E+000	-3.30030E-006	-2.40040E-001	8.27162E-003	3.57630E+000	9	...........
	106	1.42667	3.68852E-003	-3.99830E-004	0.00000E+000	-1.47478E-006	-2.40040E-001	3.67171E-003	3.57630E+000	9	...........
	107	1.43333	3.44670E-004	-3.98998E-004	0.00000E+000	-1.37523E-007	-2.40040E-001	3.16878E-004	3.57630E+000	9	...........
STARTTIMEOFFSET	QUANT	2153.187	Start Time Offset (s)
