EXPLAIN
TAG	PWR800_DISCHARGE
TITLE	LABEL	PWR Cyclic Charge Discharge (Cell) - Discharge Step	Test &Identifier
DATE	LABEL	12-7-2017	Date
TIME	LABEL	15:03:29	Time
NOTES	NOTES	3	&Notes...
	supercap test cell
	0.4mg
	6M KOH
PSTAT	PSTAT	IFC5000-01520	Potentiostat
CAPACITY	QUANT	1.00000E-003	Capacity (A-hr)
CELLTYPE	SELECTOR	1	&Cell Type
WORKINGCONNECTION	SELECTOR	0	&Working Lead
MAXDISCHARGETIME	VARIABLEANDUNITS	1.00000E+002	s	1.00000E+002	second(s)	Max &Discharge Time
DISCHARGEMODE	MULTIPARAM	0	4.00000E-004	&Discharge Mode	Constant Current	Amp(s)
SAMPLETIME	QUANT	1.00000E-002	Sa&mple Period (s)
DISCHARGESTOPAT1	MULTIPARAM	3	0.00000E+000	Discharge Stop At &1	Voltage < Limit	V
DISCHARGESTOPAT2	MULTIPARAM	0	0.00000E+000	Discharge Stop At &2	None	N/A
AESBHCSELECTOR	TOGGLE	F	Save Both Half Cells
IRCOMP	TOGGLE	F	IR &Measure
EOC	QUANT	0	Open Circuit (V)
SEQUENCER	TOGGLE	TRUE	Run as Sequence
PSTATMODEL	IQUANT	53	Pstat Model
PSTATSECTION	LABEL	IFC5000-01520	Pstat Section
PSTATSERIALNO	LABEL	01520	Pstat Serial Number
CTRLMODE	IQUANT	0	Control Mode
ELECTROMETER	IQUANT	1	RE=0 or CS=1
IESTAB	IQUANT	0	I/E Stability
CASPEED	IQUANT	4	Control Amp Speed
CONVENTION	IQUANT	1	Current Convention
ICHRANGE	IQUANT	2	Ich Range
ICHRANGEMODE	TOGGLE	T	Ich Auto Range
ICHOFFSETENABLE	TOGGLE	F	Ich Offset Enable
ICHOFFSET	QUANT	0	Ich Offset (V)
ICHFILTER	IQUANT	1	Ich Filter
VCHRANGE	IQUANT	2	Vch Range
VCHRANGEMODE	TOGGLE	T	Vch Auto Range
VCHOFFSETENABLE	TOGGLE	F	Vch Offset Enable
VCHOFFSET	QUANT	0	Vch Offset (V)
VCHFILTER	IQUANT	1	Vch Filter
IERANGELOWERLIMIT	IQUANT	9	I/E Range Lower Limit
IERANGEMODE	TOGGLE	F	I/E AutoRange
IERANGE	IQUANT	9	I/E Range
ACHSELECT	IQUANT	1	Ach Select
ACHRANGE	IQUANT	2	Ach Range
ACHOFFSETENABLE	TOGGLE	F	Ach Offset Enable
ACHOFFSET	QUANT	0	Ach Offset (V)
ACHFILTER	IQUANT	1	Ach Filter
CABLEID	IQUANT	14	Cable ID
DCCALDATE	LABEL	5-7-2017	DC Calibration Date
ACCALDATE	LABEL	12/3/2015	AC Calibration Date
FRAMEWORKVERSION	QUANT	7.01	Framework Version
INSTRUMENTVERSION	LABEL	4.00	Instrument Version
CURVE	TABLE	108
	Pt	T	Vf	Im	Vu	Pwr	Sig	Ach	Temp	IERange	Over
	#	s	V	A	V	W	V	V	deg C	#	bits
	0	0.013333	6.91302E-001	-3.98172E-004	0.00000E+000	-2.75257E-004	-2.40040E-001	6.91568E-001	3.57650E+000	9	...........
	1	0.026667	6.78301E-001	-3.99408E-004	0.00000E+000	-2.70919E-004	-2.40040E-001	6.78545E-001	3.57650E+000	9	...........
	2	0.04	6.66785E-001	-3.98353E-004	0.00000E+000	-2.65616E-004	-2.40040E-001	6.67053E-001	3.57650E+000	9	...........
	3	0.053333	6.56295E-001	-3.98075E-004	0.00000E+000	-2.61255E-004	-2.40040E-001	6.56529E-001	3.57650E+000	9	...........
	4	0.066667	6.46443E-001	-3.99271E-004	0.00000E+000	-2.58106E-004	-2.40040E-001	6.46676E-001	3.57650E+000	9	...........
	5	0.08	6.37033E-001	-3.98551E-004	0.00000E+000	-2.53890E-004	-2.40040E-001	6.37263E-001	3.57650E+000	9	...........
	6	0.093333	6.27944E-001	-3.99281E-004	0.00000E+000	-2.50726E-004	-2.40040E-001	6.28173E-001	3.57650E+000	9	...........
	7	0.106667	6.19147E-001	-3.98815E-004	0.00000E+000	-2.46925E-004	-2.40040E-001	6.19367E-001	3.57650E+000	9	...........
	8	0.12	6.10468E-001	-3.98144E-004	0.00000E+000	-2.43054E-004	-2.40040E-001	6.10741E-001	3.57650E+000	9	...........
	9	0.133333	6.01988E-001	-3.98418E-004	0.00000E+000	-2.39842E-004	-2.40040E-001	6.02237E-001	3.57650E+000	9	...........
	10	0.146667	5.93635E-001	-3.97981E-004	0.00000E+000	-2.36255E-004	-2.40040E-001	5.93852E-001	3.57650E+000	9	...........
	11	0.16	5.85301E-001	-3.98493E-004	0.00000E+000	-2.33238E-004	-2.40040E-001	5.85543E-001	3.57650E+000	9	...........
	12	0.173333	5.77217E-001	-3.99417E-004	0.00000E+000	-2.30550E-004	-2.40040E-001	5.77452E-001	3.57650E+000	9	...........
	13	0.186667	5.69129E-001	-3.99159E-004	0.00000E+000	-2.27173E-004	-2.40040E-001	5.69340E-001	3.57650E+000	9	...........
	14	0.2	5.61134E-001	-3.99098E-004	0.00000E+000	-2.23947E-004	-2.40040E-001	5.61350E-001	3.57650E+000	9	...........
	15	0.213333	5.53186E-001	-3.99247E-004	0.00000E+000	-2.20858E-004	-2.40040E-001	5.53396E-001	3.57650E+000	9	...........
	16	0.226667	5.45275E-001	-3.99222E-004	0.00000E+000	-2.17686E-004	-2.40040E-001	5.45481E-001	3.57650E+000	9	...........
	17	0.24	5.37455E-001	-3.97990E-004	0.00000E+000	-2.13902E-004	-2.40040E-001	5.37650E-001	3.57650E+000	9	...........
	18	0.253333	5.29681E-001	-4.00180E-004	0.00000E+000	-2.11968E-004	-2.40040E-001	5.29897E-001	3.57650E+000	9	...........
	19	0.266667	5.21966E-001	-3.97847E-004	0.00000E+000	-2.07662E-004	-2.40040E-001	5.22145E-001	3.57650E+000	9	...........
	20	0.28	5.14344E-001	-3.98927E-004	0.00000E+000	-2.05186E-004	-2.40040E-001	5.14517E-001	3.57650E+000	9	...........
	21	0.293333	5.06701E-001	-3.99009E-004	0.00000E+000	-2.02179E-004	-2.40040E-001	5.06913E-001	3.57650E+000	9	...........
	22	0.306667	4.99136E-001	-3.97629E-004	0.00000E+000	-1.98471E-004	-2.40040E-001	4.99354E-001	3.57650E+000	9	...........
	23	0.32	4.91607E-001	-3.99205E-004	0.00000E+000	-1.96252E-004	-2.40040E-001	4.91800E-001	3.57650E+000	9	...........
	24	0.333333	4.84345E-001	-3.98266E-004	0.00000E+000	-1.92898E-004	-2.40040E-001	4.84460E-001	3.57650E+000	9	...........
	25	0.346667	4.76914E-001	-3.97529E-004	0.00000E+000	-1.89587E-004	-2.40040E-001	4.77012E-001	3.57650E+000	9	...........
	26	0.36	4.69462E-001	-3.98247E-004	0.00000E+000	-1.86962E-004	-2.40040E-001	4.69560E-001	3.57650E+000	9	...........
	27	0.373333	4.62163E-001	-3.98475E-004	0.00000E+000	-1.84160E-004	-2.40040E-001	4.62260E-001	3.57650E+000	9	...........
	28	0.386667	4.54838E-001	-3.98433E-004	0.00000E+000	-1.81222E-004	-2.40040E-001	4.54934E-001	3.57650E+000	9	...........
	29	0.4	4.47552E-001	-3.97790E-004	0.00000E+000	-1.78032E-004	-2.40040E-001	4.47644E-001	3.57650E+000	9	...........
	30	0.413333	4.40304E-001	-3.98814E-004	0.00000E+000	-1.75599E-004	-2.40040E-001	4.40393E-001	3.57650E+000	9	...........
	31	0.426667	4.33112E-001	-3.99196E-004	0.00000E+000	-1.72897E-004	-2.40040E-001	4.33205E-001	3.57650E+000	9	...........
	32	0.44	4.25900E-001	-3.98504E-004	0.00000E+000	-1.69723E-004	-2.40040E-001	4.25991E-001	3.57650E+000	9	...........
	33	0.453333	4.18762E-001	-3.99251E-004	0.00000E+000	-1.67191E-004	-2.40040E-001	4.18855E-001	3.57650E+000	9	...........
	34	0.466667	4.11737E-001	-3.98201E-004	0.00000E+000	-1.63954E-004	-2.40040E-001	4.11823E-001	3.57650E+000	9	...........
	35	0.48	4.04767E-001	-3.99239E-004	0.00000E+000	-1.61599E-004	-2.40040E-001	4.04845E-001	3.57650E+000	9	...........
	36	0.493333	3.97818E-001	-3.98870E-004	0.00000E+000	-1.58677E-004	-2.40040E-001	3.97892E-001	3.57650E+000	9	...........
	37	0.506667	3.90845E-001	-3.97895E-004	0.00000E+000	-1.55515E-004	-2.40040E-001	3.90920E-001	3.57650E+000	9	...........
	38	0.52	3.83997E-001	-3.99451E-004	0.00000E+000	-1.53388E-004	-2.40040E-001	3.84070E-001	3.57650E+000	9	...........
	39	0.533333	3.77193E-001	-3.99254E-004	0.00000E+000	-1.50596E-004	-2.40040E-001	3.77267E-001	3.57650E+000	9	...........
	40	0.546667	3.70378E-001	-3.98424E-004	0.00000E+000	-1.47567E-004	-2.40040E-001	3.70446E-001	3.57650E+000	9	...........
	41	0.56	3.63557E-001	-3.98243E-004	0.00000E+000	-1.44784E-004	-2.40040E-001	3.63629E-001	3.57650E+000	9	...........
	42	0.573333	3.56827E-001	-3.98748E-004	0.00000E+000	-1.42284E-004	-2.40040E-001	3.56893E-001	3.57650E+000	9	...........
	43	0.586667	3.50141E-001	-3.97898E-004	0.00000E+000	-1.39320E-004	-2.40040E-001	3.50212E-001	3.57650E+000	9	...........
	44	0.6	3.43509E-001	-3.97643E-004	0.00000E+000	-1.36594E-004	-2.40040E-001	3.43572E-001	3.57637E+000	9	...........
	45	0.613333	3.36857E-001	-3.97613E-004	0.00000E+000	-1.33939E-004	-2.40040E-001	3.36923E-001	3.57630E+000	9	...........
	46	0.626667	3.30293E-001	-3.99465E-004	0.00000E+000	-1.31940E-004	-2.40040E-001	3.30358E-001	3.57630E+000	9	...........
	47	0.64	3.23773E-001	-3.98217E-004	0.00000E+000	-1.28932E-004	-2.40040E-001	3.23846E-001	3.57630E+000	9	...........
	48	0.653333	3.17310E-001	-3.98238E-004	0.00000E+000	-1.26365E-004	-2.40040E-001	3.17376E-001	3.57630E+000	9	...........
	49	0.666667	3.10777E-001	-3.99124E-004	0.00000E+000	-1.24039E-004	-2.40040E-001	3.10837E-001	3.57630E+000	9	...........
	50	0.68	3.04380E-001	-3.99010E-004	0.00000E+000	-1.21451E-004	-2.40040E-001	3.04441E-001	3.57630E+000	9	...........
	51	0.693333	2.98081E-001	-3.98707E-004	0.00000E+000	-1.18847E-004	-2.40040E-001	2.98135E-001	3.57630E+000	9	...........
	52	0.706667	2.91780E-001	-3.99912E-004	0.00000E+000	-1.16686E-004	-2.40040E-001	2.91839E-001	3.57630E+000	9	...........
	53	0.72	2.85532E-001	-3.98927E-004	0.00000E+000	-1.13906E-004	-2.40040E-001	2.85584E-001	3.57630E+000	9	...........
	54	0.733333	2.79241E-001	-3.97948E-004	0.00000E+000	-1.11123E-004	-2.40040E-001	2.79294E-001	3.57630E+000	9	...........
	55	0.746667	2.73036E-001	-3.98852E-004	0.00000E+000	-1.08901E-004	-2.40040E-001	2.73090E-001	3.57630E+000	9	...........
	56	0.76	2.66889E-001	-3.98519E-004	0.00000E+000	-1.06360E-004	-2.40040E-001	2.66941E-001	3.57630E+000	9	...........
	57	0.773333	2.60779E-001	-3.98024E-004	0.00000E+000	-1.03796E-004	-2.40040E-001	2.60830E-001	3.57630E+000	9	...........
	58	0.786667	2.54736E-001	-3.98262E-004	0.00000E+000	-1.01452E-004	-2.40040E-001	2.54787E-001	3.57630E+000	9	...........
	59	0.8	2.48616E-001	-3.98792E-004	0.00000E+000	-9.91458E-005	-2.40040E-001	2.48664E-001	3.57630E+000	9	...........
	60	0.813333	2.42576E-001	-3.99219E-004	0.00000E+000	-9.68407E-005	-2.40040E-001	2.42616E-001	3.57630E+000	9	...........
	61	0.826667	2.36661E-001	-3.98154E-004	0.00000E+000	-9.42274E-005	-2.40040E-001	2.36695E-001	3.57630E+000	9	...........
	62	0.84	2.30771E-001	-3.97811E-004	0.00000E+000	-9.18035E-005	-2.40040E-001	2.30809E-001	3.57630E+000	9	...........
	63	0.853333	2.24816E-001	-3.98824E-004	0.00000E+000	-8.96618E-005	-2.40040E-001	2.24856E-001	3.57630E+000	9	...........
	64	0.866667	2.18895E-001	-3.98749E-004	0.00000E+000	-8.72842E-005	-2.40040E-001	2.18937E-001	3.57630E+000	9	...........
	65	0.88	2.12976E-001	-3.99510E-004	0.00000E+000	-8.50858E-005	-2.40040E-001	2.13015E-001	3.57630E+000	9	...........
	66	0.893333	2.07208E-001	-3.99106E-004	0.00000E+000	-8.26981E-005	-2.40040E-001	2.07245E-001	3.57630E+000	9	...........
	67	0.906667	2.01465E-001	-3.98823E-004	0.00000E+000	-8.03489E-005	-2.40040E-001	2.01504E-001	3.57630E+000	9	...........
	68	0.92	1.95742E-001	-3.99390E-004	0.00000E+000	-7.81773E-005	-2.40040E-001	1.95779E-001	3.57630E+000	9	...........
	69	0.933333	1.90058E-001	-3.98606E-004	0.00000E+000	-7.57583E-005	-2.40040E-001	1.90090E-001	3.57630E+000	9	...........
	70	0.946667	1.84455E-001	-3.97919E-004	0.00000E+000	-7.33979E-005	-2.40040E-001	1.84488E-001	3.57630E+000	9	...........
	71	0.96	1.78874E-001	-3.98413E-004	0.00000E+000	-7.12660E-005	-2.40040E-001	1.78903E-001	3.57630E+000	9	...........
	72	0.97333	1.73252E-001	-3.99811E-004	0.00000E+000	-6.92679E-005	-2.40040E-001	1.73286E-001	3.57630E+000	9	...........
	73	0.98667	1.67757E-001	-3.98971E-004	0.00000E+000	-6.69302E-005	-2.40040E-001	1.67787E-001	3.57630E+000	9	...........
	74	1	1.62224E-001	-3.99244E-004	0.00000E+000	-6.47669E-005	-2.40040E-001	1.62248E-001	3.57630E+000	9	...........
	75	1.01333	1.56792E-001	-3.98569E-004	0.00000E+000	-6.24922E-005	-2.40040E-001	1.56821E-001	3.57630E+000	9	...........
	76	1.02667	1.51425E-001	-3.98067E-004	0.00000E+000	-6.02773E-005	-2.40040E-001	1.51454E-001	3.57630E+000	9	...........
	77	1.04	1.46059E-001	-3.98583E-004	0.00000E+000	-5.82166E-005	-2.40040E-001	1.46082E-001	3.57630E+000	9	...........
	78	1.05333	1.40670E-001	-3.98818E-004	0.00000E+000	-5.61018E-005	-2.40040E-001	1.40701E-001	3.57630E+000	9	...........
	79	1.06667	1.35372E-001	-3.99598E-004	0.00000E+000	-5.40945E-005	-2.40040E-001	1.35395E-001	3.57630E+000	9	...........
	80	1.08	1.30093E-001	-3.99617E-004	0.00000E+000	-5.19874E-005	-2.40040E-001	1.30115E-001	3.57630E+000	9	...........
	81	1.09333	1.24899E-001	-3.99334E-004	0.00000E+000	-4.98765E-005	-2.40040E-001	1.24918E-001	3.57630E+000	9	...........
	82	1.10667	1.19831E-001	-3.98761E-004	0.00000E+000	-4.77840E-005	-2.40040E-001	1.19860E-001	3.57630E+000	9	...........
	83	1.12	1.14674E-001	-3.99224E-004	0.00000E+000	-4.57808E-005	-2.40040E-001	1.14692E-001	3.57630E+000	9	...........
	84	1.13333	1.09473E-001	-3.99247E-004	0.00000E+000	-4.37069E-005	-2.40040E-001	1.09487E-001	3.57630E+000	9	...........
	85	1.14667	1.04341E-001	-3.98844E-004	0.00000E+000	-4.16159E-005	-2.40040E-001	1.04358E-001	3.57630E+000	9	...........
	86	1.16	9.92646E-002	-3.98037E-004	0.00000E+000	-3.95110E-005	-2.40040E-001	9.92815E-002	3.57630E+000	9	...........
	87	1.17333	9.43035E-002	-3.98546E-004	0.00000E+000	-3.75843E-005	-2.40040E-001	9.43157E-002	3.57630E+000	9	...........
	88	1.18667	8.93503E-002	-3.98463E-004	0.00000E+000	-3.56028E-005	-2.40040E-001	8.93645E-002	3.57630E+000	9	...........
	89	1.2	8.43208E-002	-3.98649E-004	0.00000E+000	-3.36144E-005	-2.40040E-001	8.43331E-002	3.57630E+000	9	...........
	90	1.21333	7.94469E-002	-3.98353E-004	0.00000E+000	-3.16479E-005	-2.40040E-001	7.94571E-002	3.57630E+000	9	...........
	91	1.22667	7.45328E-002	-3.98629E-004	0.00000E+000	-2.97109E-005	-2.40040E-001	7.45387E-002	3.57630E+000	9	...........
	92	1.24	6.96352E-002	-3.98185E-004	0.00000E+000	-2.77277E-005	-2.40040E-001	6.96438E-002	3.57630E+000	9	...........
	93	1.25333	6.47712E-002	-3.99390E-004	0.00000E+000	-2.58690E-005	-2.40040E-001	6.47752E-002	3.57630E+000	9	...........
	94	1.26667	5.99591E-002	-3.98852E-004	0.00000E+000	-2.39148E-005	-2.40040E-001	5.99614E-002	3.57630E+000	9	...........
	95	1.28	5.50945E-002	-3.99895E-004	0.00000E+000	-2.20320E-005	-2.40040E-001	5.51036E-002	3.57630E+000	9	...........
	96	1.29333	5.03568E-002	-3.98192E-004	0.00000E+000	-2.00517E-005	-2.40040E-001	5.03547E-002	3.57630E+000	9	...........
	97	1.30667	4.56257E-002	-3.97714E-004	0.00000E+000	-1.81460E-005	-2.40040E-001	4.56336E-002	3.57630E+000	9	...........
	98	1.32	4.08757E-002	-3.99021E-004	0.00000E+000	-1.63103E-005	-2.40040E-001	4.08825E-002	3.57630E+000	9	...........
	99	1.33333	3.62282E-002	-3.98419E-004	0.00000E+000	-1.44340E-005	-2.40040E-001	3.62341E-002	3.57630E+000	9	...........
	100	1.34667	3.15543E-002	-3.98275E-004	0.00000E+000	-1.25673E-005	-2.40040E-001	3.15499E-002	3.57630E+000	9	...........
	101	1.36	2.68605E-002	-3.98476E-004	0.00000E+000	-1.07033E-005	-2.40040E-001	2.68567E-002	3.57630E+000	9	...........
	102	1.37333	2.22174E-002	-3.99080E-004	0.00000E+000	-8.86653E-006	-2.40040E-001	2.22122E-002	3.57630E+000	9	...........
	103	1.38667	1.76016E-002	-3.97830E-004	0.00000E+000	-7.00244E-006	-2.40040E-001	1.75898E-002	3.57630E+000	9	...........
	104	1.4	1.30640E-002	-3.99530E-004	0.00000E+000	-5.21946E-006	-2.40040E-001	1.30551E-002	3.57630E+000	9	...........
	105	1.41333	8.57248E-003	-3.97907E-004	0.00000E+000	-3.41105E-006	-2.40040E-001	8.55751E-003	3.57630E+000	9	...........
	106	1.42667	4.06735E-003	-4.00301E-004	0.00000E+000	-1.62816E-006	-2.40040E-001	4.05281E-003	3.57630E+000	9	...........
	107	1.43333	7.77022E-004	-3.99094E-004	0.00000E+000	-3.10105E-007	-2.40040E-001	7.52356E-004	3.57630E+000	9	...........
STARTTIMEOFFSET	QUANT	2135.676	Start Time Offset (s)
