EXPLAIN
TAG	PWR800_DISCHARGE
TITLE	LABEL	PWR Cyclic Charge Discharge (Cell) - Discharge Step	Test &Identifier
DATE	LABEL	12-7-2017	Date
TIME	LABEL	15:17:57	Time
NOTES	NOTES	3	&Notes...
	supercap test cell
	0.4mg
	6M KOH
PSTAT	PSTAT	IFC5000-01520	Potentiostat
CAPACITY	QUANT	1.00000E-003	Capacity (A-hr)
CELLTYPE	SELECTOR	1	&Cell Type
WORKINGCONNECTION	SELECTOR	0	&Working Lead
MAXDISCHARGETIME	VARIABLEANDUNITS	1.00000E+002	s	1.00000E+002	second(s)	Max &Discharge Time
DISCHARGEMODE	MULTIPARAM	0	4.00000E-004	&Discharge Mode	Constant Current	Amp(s)
SAMPLETIME	QUANT	1.00000E-002	Sa&mple Period (s)
DISCHARGESTOPAT1	MULTIPARAM	3	0.00000E+000	Discharge Stop At &1	Voltage < Limit	V
DISCHARGESTOPAT2	MULTIPARAM	0	0.00000E+000	Discharge Stop At &2	None	N/A
AESBHCSELECTOR	TOGGLE	F	Save Both Half Cells
IRCOMP	TOGGLE	F	IR &Measure
EOC	QUANT	0	Open Circuit (V)
SEQUENCER	TOGGLE	TRUE	Run as Sequence
PSTATMODEL	IQUANT	53	Pstat Model
PSTATSECTION	LABEL	IFC5000-01520	Pstat Section
PSTATSERIALNO	LABEL	01520	Pstat Serial Number
CTRLMODE	IQUANT	0	Control Mode
ELECTROMETER	IQUANT	1	RE=0 or CS=1
IESTAB	IQUANT	0	I/E Stability
CASPEED	IQUANT	4	Control Amp Speed
CONVENTION	IQUANT	1	Current Convention
ICHRANGE	IQUANT	2	Ich Range
ICHRANGEMODE	TOGGLE	T	Ich Auto Range
ICHOFFSETENABLE	TOGGLE	F	Ich Offset Enable
ICHOFFSET	QUANT	0	Ich Offset (V)
ICHFILTER	IQUANT	1	Ich Filter
VCHRANGE	IQUANT	2	Vch Range
VCHRANGEMODE	TOGGLE	T	Vch Auto Range
VCHOFFSETENABLE	TOGGLE	F	Vch Offset Enable
VCHOFFSET	QUANT	0	Vch Offset (V)
VCHFILTER	IQUANT	1	Vch Filter
IERANGELOWERLIMIT	IQUANT	9	I/E Range Lower Limit
IERANGEMODE	TOGGLE	F	I/E AutoRange
IERANGE	IQUANT	9	I/E Range
ACHSELECT	IQUANT	1	Ach Select
ACHRANGE	IQUANT	2	Ach Range
ACHOFFSETENABLE	TOGGLE	F	Ach Offset Enable
ACHOFFSET	QUANT	0	Ach Offset (V)
ACHFILTER	IQUANT	1	Ach Filter
CABLEID	IQUANT	14	Cable ID
DCCALDATE	LABEL	5-7-2017	DC Calibration Date
ACCALDATE	LABEL	12/3/2015	AC Calibration Date
FRAMEWORKVERSION	QUANT	7.01	Framework Version
INSTRUMENTVERSION	LABEL	4.00	Instrument Version
CURVE	TABLE	103
	Pt	T	Vf	Im	Vu	Pwr	Sig	Ach	Temp	IERange	Over
	#	s	V	A	V	W	V	V	deg C	#	bits
	0	0.013333	6.83590E-001	-3.98621E-004	0.00000E+000	-2.72493E-004	-2.40040E-001	6.83823E-001	3.57740E+000	9	...........
	1	0.026667	6.69973E-001	-3.98573E-004	0.00000E+000	-2.67033E-004	-2.40040E-001	6.70203E-001	3.57740E+000	9	...........
	2	0.04	6.58031E-001	-3.99565E-004	0.00000E+000	-2.62926E-004	-2.40040E-001	6.58278E-001	3.57740E+000	9	...........
	3	0.053333	6.47152E-001	-3.99667E-004	0.00000E+000	-2.58645E-004	-2.40040E-001	6.47377E-001	3.57740E+000	9	...........
	4	0.066667	6.36921E-001	-3.98991E-004	0.00000E+000	-2.54125E-004	-2.40040E-001	6.37146E-001	3.57740E+000	9	...........
	5	0.08	6.27198E-001	-3.97781E-004	0.00000E+000	-2.49488E-004	-2.40040E-001	6.27417E-001	3.57740E+000	9	...........
	6	0.093333	6.17820E-001	-3.98653E-004	0.00000E+000	-2.46296E-004	-2.40040E-001	6.18012E-001	3.57740E+000	9	...........
	7	0.106667	6.08633E-001	-3.98408E-004	0.00000E+000	-2.42484E-004	-2.40040E-001	6.08869E-001	3.57740E+000	9	...........
	8	0.12	5.99732E-001	-3.97823E-004	0.00000E+000	-2.38587E-004	-2.40040E-001	5.99965E-001	3.57740E+000	9	...........
	9	0.133333	5.91016E-001	-3.98751E-004	0.00000E+000	-2.35668E-004	-2.40040E-001	5.91242E-001	3.57740E+000	9	...........
	10	0.146667	5.82374E-001	-3.99318E-004	0.00000E+000	-2.32552E-004	-2.40040E-001	5.82612E-001	3.57740E+000	9	...........
	11	0.16	5.73899E-001	-3.97614E-004	0.00000E+000	-2.28190E-004	-2.40040E-001	5.74118E-001	3.57740E+000	9	...........
	12	0.173333	5.65489E-001	-3.98644E-004	0.00000E+000	-2.25429E-004	-2.40040E-001	5.65718E-001	3.57740E+000	9	...........
	13	0.186667	5.57124E-001	-3.99090E-004	0.00000E+000	-2.22342E-004	-2.40040E-001	5.57360E-001	3.57740E+000	9	...........
	14	0.2	5.48921E-001	-3.98555E-004	0.00000E+000	-2.18775E-004	-2.40040E-001	5.49166E-001	3.57740E+000	9	...........
	15	0.213333	5.40793E-001	-3.99283E-004	0.00000E+000	-2.15929E-004	-2.40040E-001	5.41032E-001	3.57740E+000	9	...........
	16	0.226667	5.32735E-001	-3.98257E-004	0.00000E+000	-2.12165E-004	-2.40040E-001	5.32961E-001	3.57740E+000	9	...........
	17	0.24	5.24690E-001	-3.98957E-004	0.00000E+000	-2.09329E-004	-2.40040E-001	5.24925E-001	3.57740E+000	9	...........
	18	0.253333	5.16666E-001	-3.99549E-004	0.00000E+000	-2.06433E-004	-2.40040E-001	5.16882E-001	3.57740E+000	9	...........
	19	0.266667	5.08756E-001	-3.98090E-004	0.00000E+000	-2.02531E-004	-2.40040E-001	5.08983E-001	3.57740E+000	9	...........
	20	0.28	5.00904E-001	-3.98493E-004	0.00000E+000	-1.99607E-004	-2.40040E-001	5.01170E-001	3.57740E+000	9	...........
	21	0.293333	4.93072E-001	-3.99779E-004	0.00000E+000	-1.97120E-004	-2.40040E-001	4.93318E-001	3.57740E+000	9	...........
	22	0.306667	4.85373E-001	-3.99795E-004	0.00000E+000	-1.94050E-004	-2.40040E-001	4.85565E-001	3.57740E+000	9	...........
	23	0.32	4.77847E-001	-3.99180E-004	0.00000E+000	-1.90747E-004	-2.40040E-001	4.77948E-001	3.57740E+000	9	...........
	24	0.333333	4.70166E-001	-3.99575E-004	0.00000E+000	-1.87867E-004	-2.40040E-001	4.70261E-001	3.57740E+000	9	...........
	25	0.346667	4.62456E-001	-3.99138E-004	0.00000E+000	-1.84584E-004	-2.40040E-001	4.62552E-001	3.57740E+000	9	...........
	26	0.36	4.54839E-001	-3.97116E-004	0.00000E+000	-1.80624E-004	-2.40040E-001	4.54934E-001	3.57740E+000	9	...........
	27	0.373333	4.47315E-001	-3.98329E-004	0.00000E+000	-1.78179E-004	-2.40040E-001	4.47412E-001	3.57740E+000	9	...........
	28	0.386667	4.39763E-001	-3.99555E-004	0.00000E+000	-1.75710E-004	-2.40040E-001	4.39853E-001	3.57740E+000	9	...........
	29	0.4	4.32247E-001	-3.98998E-004	0.00000E+000	-1.72466E-004	-2.40040E-001	4.32340E-001	3.57740E+000	9	...........
	30	0.413333	4.24841E-001	-3.98004E-004	0.00000E+000	-1.69088E-004	-2.40040E-001	4.24934E-001	3.57740E+000	9	...........
	31	0.426667	4.17457E-001	-3.99125E-004	0.00000E+000	-1.66618E-004	-2.40040E-001	4.17547E-001	3.57740E+000	9	...........
	32	0.44	4.10088E-001	-3.98138E-004	0.00000E+000	-1.63272E-004	-2.40040E-001	4.10170E-001	3.57740E+000	9	...........
	33	0.453333	4.02790E-001	-3.98698E-004	0.00000E+000	-1.60591E-004	-2.40040E-001	4.02871E-001	3.57740E+000	9	...........
	34	0.466667	3.95534E-001	-3.97681E-004	0.00000E+000	-1.57297E-004	-2.40040E-001	3.95612E-001	3.57740E+000	9	...........
	35	0.48	3.88323E-001	-3.98405E-004	0.00000E+000	-1.54710E-004	-2.40040E-001	3.88392E-001	3.57740E+000	9	...........
	36	0.493333	3.81126E-001	-3.99052E-004	0.00000E+000	-1.52089E-004	-2.40040E-001	3.81202E-001	3.57740E+000	9	...........
	37	0.506667	3.73951E-001	-3.99873E-004	0.00000E+000	-1.49533E-004	-2.40040E-001	3.74024E-001	3.57740E+000	9	...........
	38	0.52	3.66901E-001	-3.99106E-004	0.00000E+000	-1.46433E-004	-2.40040E-001	3.66979E-001	3.57740E+000	9	...........
	39	0.533333	3.59880E-001	-3.97842E-004	0.00000E+000	-1.43176E-004	-2.40040E-001	3.59956E-001	3.57740E+000	9	...........
	40	0.546667	3.52899E-001	-3.98605E-004	0.00000E+000	-1.40668E-004	-2.40040E-001	3.52970E-001	3.57740E+000	9	...........
	41	0.56	3.46032E-001	-3.98491E-004	0.00000E+000	-1.37890E-004	-2.40040E-001	3.46102E-001	3.57740E+000	9	...........
	42	0.573333	3.39022E-001	-3.99219E-004	0.00000E+000	-1.35344E-004	-2.40040E-001	3.39088E-001	3.57740E+000	9	...........
	43	0.586667	3.32113E-001	-3.98843E-004	0.00000E+000	-1.32461E-004	-2.40040E-001	3.32178E-001	3.57740E+000	9	...........
	44	0.6	3.25330E-001	-3.97934E-004	0.00000E+000	-1.29460E-004	-2.40040E-001	3.25398E-001	3.57740E+000	9	...........
	45	0.613333	3.18626E-001	-3.99793E-004	0.00000E+000	-1.27384E-004	-2.40040E-001	3.18691E-001	3.57740E+000	9	...........
	46	0.626667	3.11890E-001	-3.98231E-004	0.00000E+000	-1.24204E-004	-2.40040E-001	3.11956E-001	3.57740E+000	9	...........
	47	0.64	3.05104E-001	-3.99042E-004	0.00000E+000	-1.21749E-004	-2.40040E-001	3.05165E-001	3.57740E+000	9	...........
	48	0.653333	2.98398E-001	-3.98329E-004	0.00000E+000	-1.18861E-004	-2.40040E-001	2.98456E-001	3.57740E+000	9	...........
	49	0.666667	2.91775E-001	-3.97805E-004	0.00000E+000	-1.16069E-004	-2.40040E-001	2.91838E-001	3.57740E+000	9	...........
	50	0.68	2.85185E-001	-3.98138E-004	0.00000E+000	-1.13543E-004	-2.40040E-001	2.85245E-001	3.57740E+000	9	...........
	51	0.693333	2.78728E-001	-3.98132E-004	0.00000E+000	-1.10971E-004	-2.40040E-001	2.78786E-001	3.57740E+000	9	...........
	52	0.706667	2.72242E-001	-3.98329E-004	0.00000E+000	-1.08442E-004	-2.40040E-001	2.72300E-001	3.57740E+000	9	...........
	53	0.72	2.65816E-001	-3.98794E-004	0.00000E+000	-1.06006E-004	-2.40040E-001	2.65873E-001	3.57740E+000	9	...........
	54	0.733333	2.59397E-001	-3.98816E-004	0.00000E+000	-1.03452E-004	-2.40040E-001	2.59451E-001	3.57740E+000	9	...........
	55	0.746667	2.53086E-001	-3.99789E-004	0.00000E+000	-1.01181E-004	-2.40040E-001	2.53142E-001	3.57740E+000	9	...........
	56	0.76	2.46812E-001	-3.98842E-004	0.00000E+000	-9.84388E-005	-2.40040E-001	2.46859E-001	3.57740E+000	9	...........
	57	0.773333	2.40579E-001	-3.98913E-004	0.00000E+000	-9.59699E-005	-2.40040E-001	2.40627E-001	3.57740E+000	9	...........
	58	0.786667	2.34392E-001	-3.98566E-004	0.00000E+000	-9.34205E-005	-2.40040E-001	2.34436E-001	3.57740E+000	9	...........
	59	0.8	2.28186E-001	-4.00268E-004	0.00000E+000	-9.13356E-005	-2.40040E-001	2.28229E-001	3.57740E+000	9	...........
	60	0.813333	2.22052E-001	-3.98513E-004	0.00000E+000	-8.84907E-005	-2.40040E-001	2.22098E-001	3.57740E+000	9	...........
	61	0.826667	2.15988E-001	-3.99835E-004	0.00000E+000	-8.63595E-005	-2.40040E-001	2.16031E-001	3.57740E+000	9	...........
	62	0.84	2.09882E-001	-3.99079E-004	0.00000E+000	-8.37595E-005	-2.40040E-001	2.09922E-001	3.57740E+000	9	...........
	63	0.853333	2.03856E-001	-3.97982E-004	0.00000E+000	-8.11312E-005	-2.40040E-001	2.03903E-001	3.57740E+000	9	...........
	64	0.866667	1.97957E-001	-3.97960E-004	0.00000E+000	-7.87789E-005	-2.40040E-001	1.97998E-001	3.57740E+000	9	...........
	65	0.88	1.92094E-001	-3.99334E-004	0.00000E+000	-7.67098E-005	-2.40040E-001	1.92134E-001	3.57765E+000	9	...........
	66	0.893333	1.86135E-001	-3.97717E-004	0.00000E+000	-7.40292E-005	-2.40040E-001	1.86172E-001	3.57780E+000	9	...........
	67	0.906667	1.80272E-001	-3.99285E-004	0.00000E+000	-7.19801E-005	-2.40040E-001	1.80309E-001	3.57780E+000	9	...........
	68	0.92	1.74451E-001	-3.99394E-004	0.00000E+000	-6.96746E-005	-2.40040E-001	1.74484E-001	3.57780E+000	9	...........
	69	0.933333	1.68728E-001	-3.99090E-004	0.00000E+000	-6.73377E-005	-2.40040E-001	1.68760E-001	3.57780E+000	9	...........
	70	0.946667	1.62991E-001	-3.98507E-004	0.00000E+000	-6.49531E-005	-2.40040E-001	1.63024E-001	3.57780E+000	9	...........
	71	0.96	1.57311E-001	-3.99419E-004	0.00000E+000	-6.28332E-005	-2.40040E-001	1.57340E-001	3.57780E+000	9	...........
	72	0.97333	1.51680E-001	-3.98947E-004	0.00000E+000	-6.05124E-005	-2.40040E-001	1.51706E-001	3.57780E+000	9	...........
	73	0.98667	1.46102E-001	-3.98553E-004	0.00000E+000	-5.82293E-005	-2.40040E-001	1.46123E-001	3.57780E+000	9	...........
	74	1	1.40559E-001	-3.99077E-004	0.00000E+000	-5.60941E-005	-2.40040E-001	1.40591E-001	3.57780E+000	9	...........
	75	1.01333	1.35078E-001	-3.99573E-004	0.00000E+000	-5.39734E-005	-2.40040E-001	1.35103E-001	3.57780E+000	9	...........
	76	1.02667	1.29626E-001	-3.98935E-004	0.00000E+000	-5.17125E-005	-2.40040E-001	1.29645E-001	3.57780E+000	9	...........
	77	1.04	1.24239E-001	-3.98125E-004	0.00000E+000	-4.94625E-005	-2.40040E-001	1.24259E-001	3.57780E+000	9	...........
	78	1.05333	1.18747E-001	-3.98296E-004	0.00000E+000	-4.72963E-005	-2.40040E-001	1.18764E-001	3.57780E+000	9	...........
	79	1.06667	1.13399E-001	-3.99561E-004	0.00000E+000	-4.53098E-005	-2.40040E-001	1.13421E-001	3.57780E+000	9	...........
	80	1.08	1.08168E-001	-3.99078E-004	0.00000E+000	-4.31677E-005	-2.40040E-001	1.08189E-001	3.57780E+000	9	...........
	81	1.09333	1.02940E-001	-3.98421E-004	0.00000E+000	-4.10134E-005	-2.40040E-001	1.02956E-001	3.57780E+000	9	...........
	82	1.10667	9.76603E-002	-3.98432E-004	0.00000E+000	-3.89110E-005	-2.40040E-001	9.76782E-002	3.57780E+000	9	...........
	83	1.12	9.24810E-002	-3.98523E-004	0.00000E+000	-3.68558E-005	-2.40040E-001	9.24942E-002	3.57780E+000	9	...........
	84	1.13333	8.72514E-002	-3.98007E-004	0.00000E+000	-3.47267E-005	-2.40040E-001	8.72663E-002	3.57780E+000	9	...........
	85	1.14667	8.20890E-002	-3.98827E-004	0.00000E+000	-3.27393E-005	-2.40040E-001	8.20964E-002	3.57780E+000	9	...........
	86	1.16	7.69832E-002	-3.99112E-004	0.00000E+000	-3.07249E-005	-2.40040E-001	7.69926E-002	3.57780E+000	9	...........
	87	1.17333	7.19303E-002	-3.98881E-004	0.00000E+000	-2.86917E-005	-2.40040E-001	7.19370E-002	3.57780E+000	9	...........
	88	1.18667	6.68698E-002	-3.99984E-004	0.00000E+000	-2.67468E-005	-2.40040E-001	6.68832E-002	3.57780E+000	9	...........
	89	1.2	6.18351E-002	-3.99552E-004	0.00000E+000	-2.47064E-005	-2.40040E-001	6.18494E-002	3.57780E+000	9	...........
	90	1.21333	5.67730E-002	-3.99159E-004	0.00000E+000	-2.26615E-005	-2.40040E-001	5.67810E-002	3.57780E+000	9	...........
	91	1.22667	5.18521E-002	-3.98775E-004	0.00000E+000	-2.06773E-005	-2.40040E-001	5.18602E-002	3.57780E+000	9	...........
	92	1.24	4.70314E-002	-3.99348E-004	0.00000E+000	-1.87819E-005	-2.40040E-001	4.70357E-002	3.57780E+000	9	...........
	93	1.25333	4.20979E-002	-3.99320E-004	0.00000E+000	-1.68105E-005	-2.40040E-001	4.21058E-002	3.57780E+000	9	...........
	94	1.26667	3.73125E-002	-3.97894E-004	0.00000E+000	-1.48464E-005	-2.40040E-001	3.73136E-002	3.57780E+000	9	...........
	95	1.28	3.24814E-002	-3.99103E-004	0.00000E+000	-1.29634E-005	-2.40040E-001	3.24789E-002	3.57780E+000	9	...........
	96	1.29333	2.77014E-002	-3.98277E-004	0.00000E+000	-1.10328E-005	-2.40040E-001	2.76994E-002	3.57780E+000	9	...........
	97	1.30667	2.30251E-002	-3.98446E-004	0.00000E+000	-9.17424E-006	-2.40040E-001	2.30254E-002	3.57780E+000	9	...........
	98	1.32	1.82833E-002	-3.98884E-004	0.00000E+000	-7.29292E-006	-2.40040E-001	1.82731E-002	3.57780E+000	9	...........
	99	1.33333	1.35088E-002	-3.97757E-004	0.00000E+000	-5.37324E-006	-2.40040E-001	1.34974E-002	3.57780E+000	9	...........
	100	1.34667	8.78717E-003	-3.98206E-004	0.00000E+000	-3.49911E-006	-2.40040E-001	8.77596E-003	3.57780E+000	9	...........
	101	1.36	4.17968E-003	-3.98231E-004	0.00000E+000	-1.66448E-006	-2.40040E-001	4.16232E-003	3.57780E+000	9	...........
	102	1.36667	6.90452E-004	-3.98573E-004	0.00000E+000	-2.75195E-007	-2.40040E-001	6.63733E-004	3.57780E+000	9	...........
STARTTIMEOFFSET	QUANT	2811.157	Start Time Offset (s)
