EXPLAIN
TAG	PWR800_DISCHARGE
TITLE	LABEL	PWR Cyclic Charge Discharge (Cell) - Discharge Step	Test &Identifier
DATE	LABEL	12-7-2017	Date
TIME	LABEL	14:57:48	Time
NOTES	NOTES	3	&Notes...
	supercap test cell
	0.4mg
	6M KOH
PSTAT	PSTAT	IFC5000-01520	Potentiostat
CAPACITY	QUANT	1.00000E-003	Capacity (A-hr)
CELLTYPE	SELECTOR	1	&Cell Type
WORKINGCONNECTION	SELECTOR	0	&Working Lead
MAXDISCHARGETIME	VARIABLEANDUNITS	1.00000E+002	s	1.00000E+002	second(s)	Max &Discharge Time
DISCHARGEMODE	MULTIPARAM	0	4.00000E-004	&Discharge Mode	Constant Current	Amp(s)
SAMPLETIME	QUANT	1.00000E-002	Sa&mple Period (s)
DISCHARGESTOPAT1	MULTIPARAM	3	0.00000E+000	Discharge Stop At &1	Voltage < Limit	V
DISCHARGESTOPAT2	MULTIPARAM	0	0.00000E+000	Discharge Stop At &2	None	N/A
AESBHCSELECTOR	TOGGLE	F	Save Both Half Cells
IRCOMP	TOGGLE	F	IR &Measure
EOC	QUANT	0	Open Circuit (V)
SEQUENCER	TOGGLE	TRUE	Run as Sequence
PSTATMODEL	IQUANT	53	Pstat Model
PSTATSECTION	LABEL	IFC5000-01520	Pstat Section
PSTATSERIALNO	LABEL	01520	Pstat Serial Number
CTRLMODE	IQUANT	0	Control Mode
ELECTROMETER	IQUANT	1	RE=0 or CS=1
IESTAB	IQUANT	0	I/E Stability
CASPEED	IQUANT	4	Control Amp Speed
CONVENTION	IQUANT	1	Current Convention
ICHRANGE	IQUANT	2	Ich Range
ICHRANGEMODE	TOGGLE	T	Ich Auto Range
ICHOFFSETENABLE	TOGGLE	F	Ich Offset Enable
ICHOFFSET	QUANT	0	Ich Offset (V)
ICHFILTER	IQUANT	1	Ich Filter
VCHRANGE	IQUANT	2	Vch Range
VCHRANGEMODE	TOGGLE	T	Vch Auto Range
VCHOFFSETENABLE	TOGGLE	F	Vch Offset Enable
VCHOFFSET	QUANT	0	Vch Offset (V)
VCHFILTER	IQUANT	1	Vch Filter
IERANGELOWERLIMIT	IQUANT	9	I/E Range Lower Limit
IERANGEMODE	TOGGLE	F	I/E AutoRange
IERANGE	IQUANT	9	I/E Range
ACHSELECT	IQUANT	1	Ach Select
ACHRANGE	IQUANT	2	Ach Range
ACHOFFSETENABLE	TOGGLE	F	Ach Offset Enable
ACHOFFSET	QUANT	0	Ach Offset (V)
ACHFILTER	IQUANT	1	Ach Filter
CABLEID	IQUANT	14	Cable ID
DCCALDATE	LABEL	5-7-2017	DC Calibration Date
ACCALDATE	LABEL	12/3/2015	AC Calibration Date
FRAMEWORKVERSION	QUANT	7.01	Framework Version
INSTRUMENTVERSION	LABEL	4.00	Instrument Version
CURVE	TABLE	110
	Pt	T	Vf	Im	Vu	Pwr	Sig	Ach	Temp	IERange	Over
	#	s	V	A	V	W	V	V	deg C	#	bits
	0	0.013333	6.95584E-001	-3.99004E-004	0.00000E+000	-2.77541E-004	-2.40040E-001	6.95829E-001	3.57670E+000	9	...........
	1	0.026667	6.82769E-001	-3.97769E-004	0.00000E+000	-2.71584E-004	-2.40040E-001	6.83015E-001	3.57670E+000	9	...........
	2	0.04	6.71496E-001	-3.98063E-004	0.00000E+000	-2.67298E-004	-2.40040E-001	6.71727E-001	3.57670E+000	9	...........
	3	0.053333	6.61166E-001	-3.98212E-004	0.00000E+000	-2.63284E-004	-2.40040E-001	6.61400E-001	3.57670E+000	9	...........
	4	0.066667	6.51487E-001	-3.99432E-004	0.00000E+000	-2.60225E-004	-2.40040E-001	6.51734E-001	3.57670E+000	9	...........
	5	0.08	6.42196E-001	-4.00098E-004	0.00000E+000	-2.56942E-004	-2.40040E-001	6.42428E-001	3.57670E+000	9	...........
	6	0.093333	6.33219E-001	-3.99423E-004	0.00000E+000	-2.52922E-004	-2.40040E-001	6.33451E-001	3.57670E+000	9	...........
	7	0.106667	6.24512E-001	-3.97446E-004	0.00000E+000	-2.48210E-004	-2.40040E-001	6.24703E-001	3.57670E+000	9	...........
	8	0.12	6.15915E-001	-3.99851E-004	0.00000E+000	-2.46274E-004	-2.40040E-001	6.16121E-001	3.57670E+000	9	...........
	9	0.133333	6.07483E-001	-3.99893E-004	0.00000E+000	-2.42928E-004	-2.40040E-001	6.07731E-001	3.57670E+000	9	...........
	10	0.146667	5.99277E-001	-3.98591E-004	0.00000E+000	-2.38866E-004	-2.40040E-001	5.99492E-001	3.57670E+000	9	...........
	11	0.16	5.91250E-001	-3.98855E-004	0.00000E+000	-2.35823E-004	-2.40040E-001	5.91481E-001	3.57670E+000	9	...........
	12	0.173333	5.83258E-001	-3.98558E-004	0.00000E+000	-2.32462E-004	-2.40040E-001	5.83468E-001	3.57670E+000	9	...........
	13	0.186667	5.75274E-001	-3.97986E-004	0.00000E+000	-2.28951E-004	-2.40040E-001	5.75487E-001	3.57657E+000	9	...........
	14	0.2	5.67454E-001	-3.99415E-004	0.00000E+000	-2.26649E-004	-2.40040E-001	5.67648E-001	3.57630E+000	9	...........
	15	0.213333	5.59579E-001	-3.99680E-004	0.00000E+000	-2.23653E-004	-2.40040E-001	5.59809E-001	3.57630E+000	9	...........
	16	0.226667	5.51784E-001	-3.98085E-004	0.00000E+000	-2.19657E-004	-2.40040E-001	5.52010E-001	3.57630E+000	9	...........
	17	0.24	5.44049E-001	-3.99065E-004	0.00000E+000	-2.17111E-004	-2.40040E-001	5.44227E-001	3.57630E+000	9	...........
	18	0.253333	5.36311E-001	-3.98569E-004	0.00000E+000	-2.13757E-004	-2.40040E-001	5.36495E-001	3.57630E+000	9	...........
	19	0.266667	5.28671E-001	-3.98764E-004	0.00000E+000	-2.10815E-004	-2.40040E-001	5.28842E-001	3.57630E+000	9	...........
	20	0.28	5.21094E-001	-3.99045E-004	0.00000E+000	-2.07940E-004	-2.40040E-001	5.21254E-001	3.57630E+000	9	...........
	21	0.293333	5.13539E-001	-3.98089E-004	0.00000E+000	-2.04434E-004	-2.40040E-001	5.13703E-001	3.57630E+000	9	...........
	22	0.306667	5.06028E-001	-3.98082E-004	0.00000E+000	-2.01441E-004	-2.40040E-001	5.06255E-001	3.57630E+000	9	...........
	23	0.32	4.98587E-001	-4.00236E-004	0.00000E+000	-1.99552E-004	-2.40040E-001	4.98813E-001	3.57630E+000	9	...........
	24	0.333333	4.91173E-001	-3.98933E-004	0.00000E+000	-1.95945E-004	-2.40040E-001	4.91370E-001	3.57630E+000	9	...........
	25	0.346667	4.83953E-001	-3.97266E-004	0.00000E+000	-1.92258E-004	-2.40040E-001	4.84067E-001	3.57630E+000	9	...........
	26	0.36	4.76752E-001	-3.97920E-004	0.00000E+000	-1.89709E-004	-2.40040E-001	4.76850E-001	3.57630E+000	9	...........
	27	0.373333	4.69523E-001	-3.98476E-004	0.00000E+000	-1.87094E-004	-2.40040E-001	4.69618E-001	3.57630E+000	9	...........
	28	0.386667	4.62311E-001	-3.97696E-004	0.00000E+000	-1.83859E-004	-2.40040E-001	4.62402E-001	3.57630E+000	9	...........
	29	0.4	4.55065E-001	-3.98369E-004	0.00000E+000	-1.81284E-004	-2.40040E-001	4.55152E-001	3.57630E+000	9	...........
	30	0.413333	4.47872E-001	-3.98944E-004	0.00000E+000	-1.78676E-004	-2.40040E-001	4.47964E-001	3.57630E+000	9	...........
	31	0.426667	4.40726E-001	-3.99897E-004	0.00000E+000	-1.76245E-004	-2.40040E-001	4.40814E-001	3.57630E+000	9	...........
	32	0.44	4.33603E-001	-3.98874E-004	0.00000E+000	-1.72953E-004	-2.40040E-001	4.33692E-001	3.57630E+000	9	...........
	33	0.453333	4.26499E-001	-3.99158E-004	0.00000E+000	-1.70241E-004	-2.40040E-001	4.26587E-001	3.57630E+000	9	...........
	34	0.466667	4.19513E-001	-3.99064E-004	0.00000E+000	-1.67412E-004	-2.40040E-001	4.19592E-001	3.57630E+000	9	...........
	35	0.48	4.12639E-001	-3.99222E-004	0.00000E+000	-1.64735E-004	-2.40040E-001	4.12716E-001	3.57630E+000	9	...........
	36	0.493333	4.05792E-001	-3.98281E-004	0.00000E+000	-1.61619E-004	-2.40040E-001	4.05867E-001	3.57630E+000	9	...........
	37	0.506667	3.98958E-001	-3.98496E-004	0.00000E+000	-1.58983E-004	-2.40040E-001	3.99030E-001	3.57630E+000	9	...........
	38	0.52	3.92100E-001	-3.98025E-004	0.00000E+000	-1.56065E-004	-2.40040E-001	3.92168E-001	3.57630E+000	9	...........
	39	0.533333	3.85298E-001	-3.98789E-004	0.00000E+000	-1.53653E-004	-2.40040E-001	3.85370E-001	3.57630E+000	9	...........
	40	0.546667	3.78624E-001	-3.99851E-004	0.00000E+000	-1.51393E-004	-2.40040E-001	3.78695E-001	3.57630E+000	9	...........
	41	0.56	3.71973E-001	-3.98097E-004	0.00000E+000	-1.48081E-004	-2.40040E-001	3.72034E-001	3.57630E+000	9	...........
	42	0.573333	3.65269E-001	-3.98021E-004	0.00000E+000	-1.45384E-004	-2.40040E-001	3.65337E-001	3.57630E+000	9	...........
	43	0.586667	3.58661E-001	-3.98735E-004	0.00000E+000	-1.43011E-004	-2.40040E-001	3.58731E-001	3.57630E+000	9	...........
	44	0.6	3.52020E-001	-3.98939E-004	0.00000E+000	-1.40435E-004	-2.40040E-001	3.52089E-001	3.57630E+000	9	...........
	45	0.613333	3.45431E-001	-3.99046E-004	0.00000E+000	-1.37843E-004	-2.40040E-001	3.45497E-001	3.57630E+000	9	...........
	46	0.626667	3.38932E-001	-3.98158E-004	0.00000E+000	-1.34948E-004	-2.40040E-001	3.38995E-001	3.57630E+000	9	...........
	47	0.64	3.32509E-001	-3.98706E-004	0.00000E+000	-1.32573E-004	-2.40040E-001	3.32566E-001	3.57630E+000	9	...........
	48	0.653333	3.26030E-001	-4.00155E-004	0.00000E+000	-1.30463E-004	-2.40040E-001	3.26087E-001	3.57630E+000	9	...........
	49	0.666667	3.19597E-001	-3.98949E-004	0.00000E+000	-1.27503E-004	-2.40040E-001	3.19655E-001	3.57630E+000	9	...........
	50	0.68	3.13191E-001	-3.99301E-004	0.00000E+000	-1.25057E-004	-2.40040E-001	3.13251E-001	3.57630E+000	9	...........
	51	0.693333	3.06838E-001	-3.99339E-004	0.00000E+000	-1.22532E-004	-2.40040E-001	3.06895E-001	3.57630E+000	9	...........
	52	0.706667	3.00616E-001	-3.99414E-004	0.00000E+000	-1.20070E-004	-2.40040E-001	3.00672E-001	3.57630E+000	9	...........
	53	0.72	2.94375E-001	-3.98877E-004	0.00000E+000	-1.17419E-004	-2.40040E-001	2.94432E-001	3.57630E+000	9	...........
	54	0.733333	2.88160E-001	-3.99137E-004	0.00000E+000	-1.15015E-004	-2.40040E-001	2.88216E-001	3.57630E+000	9	...........
	55	0.746667	2.81962E-001	-3.99688E-004	0.00000E+000	-1.12697E-004	-2.40040E-001	2.82016E-001	3.57630E+000	9	...........
	56	0.76	2.75822E-001	-3.97709E-004	0.00000E+000	-1.09697E-004	-2.40040E-001	2.75873E-001	3.57630E+000	9	...........
	57	0.773333	2.69749E-001	-3.98811E-004	0.00000E+000	-1.07579E-004	-2.40040E-001	2.69799E-001	3.57630E+000	9	...........
	58	0.786667	2.63697E-001	-3.97255E-004	0.00000E+000	-1.04755E-004	-2.40040E-001	2.63749E-001	3.57630E+000	9	...........
	59	0.8	2.57706E-001	-3.98708E-004	0.00000E+000	-1.02750E-004	-2.40040E-001	2.57752E-001	3.57630E+000	9	...........
	60	0.813333	2.51689E-001	-3.98329E-004	0.00000E+000	-1.00255E-004	-2.40040E-001	2.51736E-001	3.57630E+000	9	...........
	61	0.826667	2.45806E-001	-3.98811E-004	0.00000E+000	-9.80301E-005	-2.40040E-001	2.45849E-001	3.57630E+000	9	...........
	62	0.84	2.39915E-001	-3.98424E-004	0.00000E+000	-9.55879E-005	-2.40040E-001	2.39960E-001	3.57630E+000	9	...........
	63	0.853333	2.34025E-001	-3.99667E-004	0.00000E+000	-9.35321E-005	-2.40040E-001	2.34070E-001	3.57630E+000	9	...........
	64	0.866667	2.28208E-001	-3.99776E-004	0.00000E+000	-9.12320E-005	-2.40040E-001	2.28248E-001	3.57630E+000	9	...........
	65	0.88	2.22458E-001	-3.99238E-004	0.00000E+000	-8.88138E-005	-2.40040E-001	2.22503E-001	3.57630E+000	9	...........
	66	0.893333	2.16723E-001	-4.00990E-004	0.00000E+000	-8.69036E-005	-2.40040E-001	2.16760E-001	3.57630E+000	9	...........
	67	0.906667	2.11030E-001	-3.98805E-004	0.00000E+000	-8.41599E-005	-2.40040E-001	2.11069E-001	3.57630E+000	9	...........
	68	0.92	2.05320E-001	-3.98607E-004	0.00000E+000	-8.18419E-005	-2.40040E-001	2.05354E-001	3.57630E+000	9	...........
	69	0.933333	1.99697E-001	-3.98568E-004	0.00000E+000	-7.95927E-005	-2.40040E-001	1.99735E-001	3.57630E+000	9	...........
	70	0.946667	1.94113E-001	-3.98851E-004	0.00000E+000	-7.74220E-005	-2.40040E-001	1.94151E-001	3.57630E+000	9	...........
	71	0.96	1.88504E-001	-3.99276E-004	0.00000E+000	-7.52650E-005	-2.40040E-001	1.88548E-001	3.57630E+000	9	...........
	72	0.97333	1.82961E-001	-3.99180E-004	0.00000E+000	-7.30344E-005	-2.40040E-001	1.82996E-001	3.57630E+000	9	...........
	73	0.98667	1.77467E-001	-3.99410E-004	0.00000E+000	-7.08821E-005	-2.40040E-001	1.77503E-001	3.57630E+000	9	...........
	74	1	1.71977E-001	-3.99416E-004	0.00000E+000	-6.86902E-005	-2.40040E-001	1.72015E-001	3.57630E+000	9	...........
	75	1.01333	1.66579E-001	-3.98304E-004	0.00000E+000	-6.63491E-005	-2.40040E-001	1.66607E-001	3.57630E+000	9	...........
	76	1.02667	1.61153E-001	-3.99228E-004	0.00000E+000	-6.43370E-005	-2.40040E-001	1.61183E-001	3.57630E+000	9	...........
	77	1.04	1.55774E-001	-3.99279E-004	0.00000E+000	-6.21971E-005	-2.40040E-001	1.55801E-001	3.57630E+000	9	...........
	78	1.05333	1.50321E-001	-3.98482E-004	0.00000E+000	-5.99001E-005	-2.40040E-001	1.50345E-001	3.57630E+000	9	...........
	79	1.06667	1.44972E-001	-3.99635E-004	0.00000E+000	-5.79356E-005	-2.40040E-001	1.44996E-001	3.57630E+000	9	...........
	80	1.08	1.39703E-001	-3.99342E-004	0.00000E+000	-5.57892E-005	-2.40040E-001	1.39723E-001	3.57630E+000	9	...........
	81	1.09333	1.34536E-001	-3.98024E-004	0.00000E+000	-5.35486E-005	-2.40040E-001	1.34554E-001	3.57630E+000	9	...........
	82	1.10667	1.29298E-001	-3.99437E-004	0.00000E+000	-5.16462E-005	-2.40040E-001	1.29318E-001	3.57630E+000	9	...........
	83	1.12	1.24193E-001	-3.97155E-004	0.00000E+000	-4.93240E-005	-2.40040E-001	1.24213E-001	3.57630E+000	9	...........
	84	1.13333	1.19082E-001	-3.98473E-004	0.00000E+000	-4.74509E-005	-2.40040E-001	1.19104E-001	3.57630E+000	9	...........
	85	1.14667	1.13986E-001	-3.98008E-004	0.00000E+000	-4.53674E-005	-2.40040E-001	1.14003E-001	3.57630E+000	9	...........
	86	1.16	1.08840E-001	-3.98399E-004	0.00000E+000	-4.33615E-005	-2.40040E-001	1.08861E-001	3.57630E+000	9	...........
	87	1.17333	1.03736E-001	-3.97984E-004	0.00000E+000	-4.12854E-005	-2.40040E-001	1.03750E-001	3.57630E+000	9	...........
	88	1.18667	9.88547E-002	-3.98018E-004	0.00000E+000	-3.93459E-005	-2.40040E-001	9.88699E-002	3.57630E+000	9	...........
	89	1.2	9.39044E-002	-3.97779E-004	0.00000E+000	-3.73532E-005	-2.40040E-001	9.39233E-002	3.57630E+000	9	...........
	90	1.21333	8.88601E-002	-3.99447E-004	0.00000E+000	-3.54949E-005	-2.40040E-001	8.88767E-002	3.57630E+000	9	...........
	91	1.22667	8.39468E-002	-3.99128E-004	0.00000E+000	-3.35055E-005	-2.40040E-001	8.39608E-002	3.57630E+000	9	...........
	92	1.24	7.91253E-002	-3.98613E-004	0.00000E+000	-3.15404E-005	-2.40040E-001	7.91345E-002	3.57630E+000	9	...........
	93	1.25333	7.41487E-002	-3.99185E-004	0.00000E+000	-2.95991E-005	-2.40040E-001	7.41591E-002	3.57630E+000	9	...........
	94	1.26667	6.92890E-002	-3.99742E-004	0.00000E+000	-2.76977E-005	-2.40040E-001	6.92967E-002	3.57630E+000	9	...........
	95	1.28	6.44890E-002	-3.99212E-004	0.00000E+000	-2.57448E-005	-2.40040E-001	6.44989E-002	3.57630E+000	9	...........
	96	1.29333	5.97254E-002	-3.98104E-004	0.00000E+000	-2.37769E-005	-2.40040E-001	5.97396E-002	3.57630E+000	9	...........
	97	1.30667	5.49047E-002	-3.99794E-004	0.00000E+000	-2.19506E-005	-2.40040E-001	5.49113E-002	3.57630E+000	9	...........
	98	1.32	5.02109E-002	-3.97942E-004	0.00000E+000	-1.99810E-005	-2.40040E-001	5.02119E-002	3.57630E+000	9	...........
	99	1.33333	4.55416E-002	-3.98744E-004	0.00000E+000	-1.81594E-005	-2.40040E-001	4.55479E-002	3.57630E+000	9	...........
	100	1.34667	4.08285E-002	-3.99213E-004	0.00000E+000	-1.62993E-005	-2.40040E-001	4.08267E-002	3.57630E+000	9	...........
	101	1.36	3.62512E-002	-3.99503E-004	0.00000E+000	-1.44825E-005	-2.40040E-001	3.62541E-002	3.57630E+000	9	...........
	102	1.37333	3.16577E-002	-3.99776E-004	0.00000E+000	-1.26560E-005	-2.40040E-001	3.16552E-002	3.57630E+000	9	...........
	103	1.38667	2.70291E-002	-4.00379E-004	0.00000E+000	-1.08219E-005	-2.40040E-001	2.70269E-002	3.57630E+000	9	...........
	104	1.4	2.25065E-002	-3.98330E-004	0.00000E+000	-8.96500E-006	-2.40040E-001	2.24974E-002	3.57630E+000	9	...........
	105	1.41333	1.79901E-002	-3.98955E-004	0.00000E+000	-7.17723E-006	-2.40040E-001	1.79784E-002	3.57630E+000	9	...........
	106	1.42667	1.34414E-002	-3.99826E-004	0.00000E+000	-5.37421E-006	-2.40040E-001	1.34330E-002	3.57630E+000	9	...........
	107	1.44	9.02321E-003	-3.98501E-004	0.00000E+000	-3.59576E-006	-2.40040E-001	9.00647E-003	3.57630E+000	9	...........
	108	1.45333	4.59160E-003	-3.98842E-004	0.00000E+000	-1.83132E-006	-2.40040E-001	4.57231E-003	3.57630E+000	9	...........
	109	1.46167	1.01542E-003	-3.98963E-004	0.00000E+000	-4.05117E-007	-2.40040E-001	9.97439E-004	3.57630E+000	9	...........
STARTTIMEOFFSET	QUANT	1870.235	Start Time Offset (s)
