EXPLAIN
TAG	PWR800_DISCHARGE
TITLE	LABEL	PWR Cyclic Charge Discharge (Cell) - Discharge Step	Test &Identifier
DATE	LABEL	12-7-2017	Date
TIME	LABEL	15:00:50	Time
NOTES	NOTES	3	&Notes...
	supercap test cell
	0.4mg
	6M KOH
PSTAT	PSTAT	IFC5000-01520	Potentiostat
CAPACITY	QUANT	1.00000E-003	Capacity (A-hr)
CELLTYPE	SELECTOR	1	&Cell Type
WORKINGCONNECTION	SELECTOR	0	&Working Lead
MAXDISCHARGETIME	VARIABLEANDUNITS	1.00000E+002	s	1.00000E+002	second(s)	Max &Discharge Time
DISCHARGEMODE	MULTIPARAM	0	4.00000E-004	&Discharge Mode	Constant Current	Amp(s)
SAMPLETIME	QUANT	1.00000E-002	Sa&mple Period (s)
DISCHARGESTOPAT1	MULTIPARAM	3	0.00000E+000	Discharge Stop At &1	Voltage < Limit	V
DISCHARGESTOPAT2	MULTIPARAM	0	0.00000E+000	Discharge Stop At &2	None	N/A
AESBHCSELECTOR	TOGGLE	F	Save Both Half Cells
IRCOMP	TOGGLE	F	IR &Measure
EOC	QUANT	0	Open Circuit (V)
SEQUENCER	TOGGLE	TRUE	Run as Sequence
PSTATMODEL	IQUANT	53	Pstat Model
PSTATSECTION	LABEL	IFC5000-01520	Pstat Section
PSTATSERIALNO	LABEL	01520	Pstat Serial Number
CTRLMODE	IQUANT	0	Control Mode
ELECTROMETER	IQUANT	1	RE=0 or CS=1
IESTAB	IQUANT	0	I/E Stability
CASPEED	IQUANT	4	Control Amp Speed
CONVENTION	IQUANT	1	Current Convention
ICHRANGE	IQUANT	2	Ich Range
ICHRANGEMODE	TOGGLE	T	Ich Auto Range
ICHOFFSETENABLE	TOGGLE	F	Ich Offset Enable
ICHOFFSET	QUANT	0	Ich Offset (V)
ICHFILTER	IQUANT	1	Ich Filter
VCHRANGE	IQUANT	2	Vch Range
VCHRANGEMODE	TOGGLE	T	Vch Auto Range
VCHOFFSETENABLE	TOGGLE	F	Vch Offset Enable
VCHOFFSET	QUANT	0	Vch Offset (V)
VCHFILTER	IQUANT	1	Vch Filter
IERANGELOWERLIMIT	IQUANT	9	I/E Range Lower Limit
IERANGEMODE	TOGGLE	F	I/E AutoRange
IERANGE	IQUANT	9	I/E Range
ACHSELECT	IQUANT	1	Ach Select
ACHRANGE	IQUANT	2	Ach Range
ACHOFFSETENABLE	TOGGLE	F	Ach Offset Enable
ACHOFFSET	QUANT	0	Ach Offset (V)
ACHFILTER	IQUANT	1	Ach Filter
CABLEID	IQUANT	14	Cable ID
DCCALDATE	LABEL	5-7-2017	DC Calibration Date
ACCALDATE	LABEL	12/3/2015	AC Calibration Date
FRAMEWORKVERSION	QUANT	7.01	Framework Version
INSTRUMENTVERSION	LABEL	4.00	Instrument Version
CURVE	TABLE	109
	Pt	T	Vf	Im	Vu	Pwr	Sig	Ach	Temp	IERange	Over
	#	s	V	A	V	W	V	V	deg C	#	bits
	0	0.013333	6.92407E-001	-3.99027E-004	0.00000E+000	-2.76289E-004	-2.40040E-001	6.92643E-001	3.57670E+000	9	...........
	1	0.026667	6.79465E-001	-3.98686E-004	0.00000E+000	-2.70893E-004	-2.40040E-001	6.79687E-001	3.57670E+000	9	...........
	2	0.04	6.68187E-001	-3.98053E-004	0.00000E+000	-2.65974E-004	-2.40040E-001	6.68403E-001	3.57670E+000	9	...........
	3	0.053333	6.57783E-001	-3.98834E-004	0.00000E+000	-2.62347E-004	-2.40040E-001	6.57999E-001	3.57670E+000	9	...........
	4	0.066667	6.47996E-001	-3.98830E-004	0.00000E+000	-2.58440E-004	-2.40040E-001	6.48214E-001	3.57670E+000	9	...........
	5	0.08	6.38647E-001	-3.98034E-004	0.00000E+000	-2.54204E-004	-2.40040E-001	6.38862E-001	3.57670E+000	9	...........
	6	0.093333	6.29592E-001	-3.99104E-004	0.00000E+000	-2.51273E-004	-2.40040E-001	6.29811E-001	3.57670E+000	9	...........
	7	0.106667	6.20846E-001	-3.99165E-004	0.00000E+000	-2.47820E-004	-2.40040E-001	6.21047E-001	3.57670E+000	9	...........
	8	0.12	6.12190E-001	-3.98721E-004	0.00000E+000	-2.44093E-004	-2.40040E-001	6.12442E-001	3.57670E+000	9	...........
	9	0.133333	6.03807E-001	-3.97549E-004	0.00000E+000	-2.40043E-004	-2.40040E-001	6.04058E-001	3.57670E+000	9	...........
	10	0.146667	5.95488E-001	-4.00113E-004	0.00000E+000	-2.38262E-004	-2.40040E-001	5.95712E-001	3.57670E+000	9	...........
	11	0.16	5.87287E-001	-3.98532E-004	0.00000E+000	-2.34053E-004	-2.40040E-001	5.87503E-001	3.57670E+000	9	...........
	12	0.173333	5.79084E-001	-3.99158E-004	0.00000E+000	-2.31146E-004	-2.40040E-001	5.79300E-001	3.57670E+000	9	...........
	13	0.186667	5.71054E-001	-3.99557E-004	0.00000E+000	-2.28169E-004	-2.40040E-001	5.71263E-001	3.57670E+000	9	...........
	14	0.2	5.63132E-001	-3.99296E-004	0.00000E+000	-2.24856E-004	-2.40040E-001	5.63357E-001	3.57670E+000	9	...........
	15	0.213333	5.55268E-001	-3.97845E-004	0.00000E+000	-2.20910E-004	-2.40040E-001	5.55456E-001	3.57670E+000	9	...........
	16	0.226667	5.47431E-001	-3.99916E-004	0.00000E+000	-2.18926E-004	-2.40040E-001	5.47630E-001	3.57670E+000	9	...........
	17	0.24	5.39655E-001	-3.98470E-004	0.00000E+000	-2.15036E-004	-2.40040E-001	5.39865E-001	3.57670E+000	9	...........
	18	0.253333	5.31925E-001	-3.98675E-004	0.00000E+000	-2.12065E-004	-2.40040E-001	5.32104E-001	3.57670E+000	9	...........
	19	0.266667	5.24254E-001	-3.98349E-004	0.00000E+000	-2.08836E-004	-2.40040E-001	5.24439E-001	3.57670E+000	9	...........
	20	0.28	5.16585E-001	-3.97631E-004	0.00000E+000	-2.05410E-004	-2.40040E-001	5.16750E-001	3.57670E+000	9	...........
	21	0.293333	5.09066E-001	-3.98381E-004	0.00000E+000	-2.02802E-004	-2.40040E-001	5.09273E-001	3.57670E+000	9	...........
	22	0.306667	5.01549E-001	-3.99846E-004	0.00000E+000	-2.00543E-004	-2.40040E-001	5.01765E-001	3.57670E+000	9	...........
	23	0.32	4.94058E-001	-3.98551E-004	0.00000E+000	-1.96907E-004	-2.40040E-001	4.94244E-001	3.57670E+000	9	...........
	24	0.333333	4.86640E-001	-3.98670E-004	0.00000E+000	-1.94008E-004	-2.40040E-001	4.86780E-001	3.57670E+000	9	...........
	25	0.346667	4.79489E-001	-3.98057E-004	0.00000E+000	-1.90864E-004	-2.40040E-001	4.79576E-001	3.57670E+000	9	...........
	26	0.36	4.72121E-001	-3.99403E-004	0.00000E+000	-1.88567E-004	-2.40040E-001	4.72212E-001	3.57670E+000	9	...........
	27	0.373333	4.64864E-001	-3.99181E-004	0.00000E+000	-1.85565E-004	-2.40040E-001	4.64953E-001	3.57670E+000	9	...........
	28	0.386667	4.57563E-001	-3.99462E-004	0.00000E+000	-1.82779E-004	-2.40040E-001	4.57652E-001	3.57670E+000	9	...........
	29	0.4	4.50229E-001	-3.98127E-004	0.00000E+000	-1.79248E-004	-2.40040E-001	4.50319E-001	3.57670E+000	9	...........
	30	0.413333	4.43053E-001	-3.99689E-004	0.00000E+000	-1.77083E-004	-2.40040E-001	4.43140E-001	3.57670E+000	9	...........
	31	0.426667	4.35931E-001	-3.98876E-004	0.00000E+000	-1.73882E-004	-2.40040E-001	4.36013E-001	3.57670E+000	9	...........
	32	0.44	4.28775E-001	-3.99782E-004	0.00000E+000	-1.71417E-004	-2.40040E-001	4.28859E-001	3.57670E+000	9	...........
	33	0.453333	4.21657E-001	-3.99139E-004	0.00000E+000	-1.68299E-004	-2.40040E-001	4.21734E-001	3.57670E+000	9	...........
	34	0.466667	4.14561E-001	-3.98072E-004	0.00000E+000	-1.65025E-004	-2.40040E-001	4.14640E-001	3.57670E+000	9	...........
	35	0.48	4.07550E-001	-3.98944E-004	0.00000E+000	-1.62590E-004	-2.40040E-001	4.07631E-001	3.57670E+000	9	...........
	36	0.493333	4.00625E-001	-3.98087E-004	0.00000E+000	-1.59484E-004	-2.40040E-001	4.00697E-001	3.57670E+000	9	...........
	37	0.506667	3.93854E-001	-3.97995E-004	0.00000E+000	-1.56752E-004	-2.40040E-001	3.93919E-001	3.57670E+000	9	...........
	38	0.52	3.87036E-001	-3.98953E-004	0.00000E+000	-1.54409E-004	-2.40040E-001	3.87110E-001	3.57670E+000	9	...........
	39	0.533333	3.80191E-001	-3.99191E-004	0.00000E+000	-1.51769E-004	-2.40040E-001	3.80266E-001	3.57670E+000	9	...........
	40	0.546667	3.73417E-001	-3.99266E-004	0.00000E+000	-1.49093E-004	-2.40040E-001	3.73484E-001	3.57682E+000	9	...........
	41	0.56	3.66700E-001	-3.98567E-004	0.00000E+000	-1.46154E-004	-2.40040E-001	3.66762E-001	3.57720E+000	9	...........
	42	0.573333	3.59968E-001	-3.98064E-004	0.00000E+000	-1.43290E-004	-2.40040E-001	3.60039E-001	3.57720E+000	9	...........
	43	0.586667	3.53258E-001	-3.99513E-004	0.00000E+000	-1.41131E-004	-2.40040E-001	3.53321E-001	3.57720E+000	9	...........
	44	0.6	3.46625E-001	-3.97806E-004	0.00000E+000	-1.37889E-004	-2.40040E-001	3.46683E-001	3.57720E+000	9	...........
	45	0.613333	3.40019E-001	-3.99278E-004	0.00000E+000	-1.35762E-004	-2.40040E-001	3.40079E-001	3.57720E+000	9	...........
	46	0.626667	3.33477E-001	-3.99274E-004	0.00000E+000	-1.33149E-004	-2.40040E-001	3.33539E-001	3.57720E+000	9	...........
	47	0.64	3.26993E-001	-3.98314E-004	0.00000E+000	-1.30246E-004	-2.40040E-001	3.27052E-001	3.57720E+000	9	...........
	48	0.653333	3.20520E-001	-3.99882E-004	0.00000E+000	-1.28170E-004	-2.40040E-001	3.20580E-001	3.57720E+000	9	...........
	49	0.666667	3.14164E-001	-3.97531E-004	0.00000E+000	-1.24890E-004	-2.40040E-001	3.14223E-001	3.57720E+000	9	...........
	50	0.68	3.07843E-001	-3.99840E-004	0.00000E+000	-1.23088E-004	-2.40040E-001	3.07901E-001	3.57720E+000	9	...........
	51	0.693333	3.01510E-001	-3.99379E-004	0.00000E+000	-1.20417E-004	-2.40040E-001	3.01568E-001	3.57720E+000	9	...........
	52	0.706667	2.95175E-001	-3.98412E-004	0.00000E+000	-1.17601E-004	-2.40040E-001	2.95235E-001	3.57720E+000	9	...........
	53	0.72	2.88916E-001	-3.98155E-004	0.00000E+000	-1.15033E-004	-2.40040E-001	2.88973E-001	3.57720E+000	9	...........
	54	0.733333	2.82745E-001	-3.98724E-004	0.00000E+000	-1.12737E-004	-2.40040E-001	2.82800E-001	3.57720E+000	9	...........
	55	0.746667	2.76581E-001	-3.98941E-004	0.00000E+000	-1.10339E-004	-2.40040E-001	2.76636E-001	3.57720E+000	9	...........
	56	0.76	2.70383E-001	-3.98472E-004	0.00000E+000	-1.07740E-004	-2.40040E-001	2.70435E-001	3.57720E+000	9	...........
	57	0.773333	2.64213E-001	-3.98154E-004	0.00000E+000	-1.05197E-004	-2.40040E-001	2.64268E-001	3.57720E+000	9	...........
	58	0.786667	2.58134E-001	-3.98854E-004	0.00000E+000	-1.02958E-004	-2.40040E-001	2.58187E-001	3.57720E+000	9	...........
	59	0.8	2.52100E-001	-3.98678E-004	0.00000E+000	-1.00507E-004	-2.40040E-001	2.52155E-001	3.57720E+000	9	...........
	60	0.813333	2.46047E-001	-3.98146E-004	0.00000E+000	-9.79625E-005	-2.40040E-001	2.46093E-001	3.57720E+000	9	...........
	61	0.826667	2.40056E-001	-3.99132E-004	0.00000E+000	-9.58140E-005	-2.40040E-001	2.40098E-001	3.57720E+000	9	...........
	62	0.84	2.34111E-001	-3.99143E-004	0.00000E+000	-9.34439E-005	-2.40040E-001	2.34156E-001	3.57720E+000	9	...........
	63	0.853333	2.28195E-001	-3.98357E-004	0.00000E+000	-9.09032E-005	-2.40040E-001	2.28239E-001	3.57720E+000	9	...........
	64	0.866667	2.22356E-001	-3.98827E-004	0.00000E+000	-8.86818E-005	-2.40040E-001	2.22396E-001	3.57720E+000	9	...........
	65	0.88	2.16626E-001	-3.99866E-004	0.00000E+000	-8.66215E-005	-2.40040E-001	2.16666E-001	3.57720E+000	9	...........
	66	0.893333	2.10863E-001	-3.98156E-004	0.00000E+000	-8.39566E-005	-2.40040E-001	2.10900E-001	3.57720E+000	9	...........
	67	0.906667	2.05094E-001	-3.98950E-004	0.00000E+000	-8.18223E-005	-2.40040E-001	2.05127E-001	3.57720E+000	9	...........
	68	0.92	1.99412E-001	-3.99707E-004	0.00000E+000	-7.97064E-005	-2.40040E-001	1.99445E-001	3.57720E+000	9	...........
	69	0.933333	1.93721E-001	-3.98463E-004	0.00000E+000	-7.71905E-005	-2.40040E-001	1.93751E-001	3.57720E+000	9	...........
	70	0.946667	1.88115E-001	-3.99083E-004	0.00000E+000	-7.50737E-005	-2.40040E-001	1.88148E-001	3.57720E+000	9	...........
	71	0.96	1.82504E-001	-3.98778E-004	0.00000E+000	-7.27785E-005	-2.40040E-001	1.82535E-001	3.57720E+000	9	...........
	72	0.97333	1.76981E-001	-3.98636E-004	0.00000E+000	-7.05512E-005	-2.40040E-001	1.77014E-001	3.57720E+000	9	...........
	73	0.98667	1.71456E-001	-4.00143E-004	0.00000E+000	-6.86068E-005	-2.40040E-001	1.71484E-001	3.57720E+000	9	...........
	74	1	1.66035E-001	-3.98865E-004	0.00000E+000	-6.62256E-005	-2.40040E-001	1.66060E-001	3.57720E+000	9	...........
	75	1.01333	1.60659E-001	-3.99096E-004	0.00000E+000	-6.41183E-005	-2.40040E-001	1.60676E-001	3.57720E+000	9	...........
	76	1.02667	1.55224E-001	-3.99218E-004	0.00000E+000	-6.19681E-005	-2.40040E-001	1.55243E-001	3.57720E+000	9	...........
	77	1.04	1.49863E-001	-3.98566E-004	0.00000E+000	-5.97301E-005	-2.40040E-001	1.49878E-001	3.57720E+000	9	...........
	78	1.05333	1.44493E-001	-3.98112E-004	0.00000E+000	-5.75244E-005	-2.40040E-001	1.44508E-001	3.57720E+000	9	...........
	79	1.06667	1.39116E-001	-3.99470E-004	0.00000E+000	-5.55728E-005	-2.40040E-001	1.39131E-001	3.57720E+000	9	...........
	80	1.08	1.33854E-001	-3.98309E-004	0.00000E+000	-5.33154E-005	-2.40040E-001	1.33874E-001	3.57720E+000	9	...........
	81	1.09333	1.28634E-001	-3.98330E-004	0.00000E+000	-5.12387E-005	-2.40040E-001	1.28655E-001	3.57720E+000	9	...........
	82	1.10667	1.23357E-001	-3.97242E-004	0.00000E+000	-4.90025E-005	-2.40040E-001	1.23374E-001	3.57720E+000	9	...........
	83	1.12	1.18203E-001	-3.98311E-004	0.00000E+000	-4.70818E-005	-2.40040E-001	1.18227E-001	3.57720E+000	9	...........
	84	1.13333	1.13068E-001	-3.98922E-004	0.00000E+000	-4.51054E-005	-2.40040E-001	1.13087E-001	3.57720E+000	9	...........
	85	1.14667	1.07881E-001	-3.98472E-004	0.00000E+000	-4.29876E-005	-2.40040E-001	1.07898E-001	3.57720E+000	9	...........
	86	1.16	1.02823E-001	-3.99062E-004	0.00000E+000	-4.10326E-005	-2.40040E-001	1.02838E-001	3.57720E+000	9	...........
	87	1.17333	9.77915E-002	-3.98312E-004	0.00000E+000	-3.89516E-005	-2.40040E-001	9.78111E-002	3.57720E+000	9	...........
	88	1.18667	9.27976E-002	-3.98811E-004	0.00000E+000	-3.70088E-005	-2.40040E-001	9.28123E-002	3.57720E+000	9	...........
	89	1.2	8.77789E-002	-3.97900E-004	0.00000E+000	-3.49272E-005	-2.40040E-001	8.77929E-002	3.57720E+000	9	...........
	90	1.21333	8.28248E-002	-3.99615E-004	0.00000E+000	-3.30980E-005	-2.40040E-001	8.28431E-002	3.57720E+000	9	...........
	91	1.22667	7.79267E-002	-3.98983E-004	0.00000E+000	-3.10915E-005	-2.40040E-001	7.79392E-002	3.57720E+000	9	...........
	92	1.24	7.30085E-002	-3.98584E-004	0.00000E+000	-2.91001E-005	-2.40040E-001	7.30160E-002	3.57720E+000	9	...........
	93	1.25333	6.81680E-002	-3.97867E-004	0.00000E+000	-2.71218E-005	-2.40040E-001	6.81785E-002	3.57720E+000	9	...........
	94	1.26667	6.32975E-002	-3.98275E-004	0.00000E+000	-2.52098E-005	-2.40040E-001	6.33011E-002	3.57720E+000	9	...........
	95	1.28	5.84073E-002	-3.99896E-004	0.00000E+000	-2.33569E-005	-2.40040E-001	5.84157E-002	3.57720E+000	9	...........
	96	1.29333	5.36919E-002	-3.98289E-004	0.00000E+000	-2.13849E-005	-2.40040E-001	5.36922E-002	3.57720E+000	9	...........
	97	1.30667	4.89837E-002	-3.98559E-004	0.00000E+000	-1.95229E-005	-2.40040E-001	4.89879E-002	3.57720E+000	9	...........
	98	1.32	4.43146E-002	-3.99322E-004	0.00000E+000	-1.76958E-005	-2.40040E-001	4.43217E-002	3.57720E+000	9	...........
	99	1.33333	3.96103E-002	-3.97672E-004	0.00000E+000	-1.57519E-005	-2.40040E-001	3.96099E-002	3.57720E+000	9	...........
	100	1.34667	3.50701E-002	-3.99184E-004	0.00000E+000	-1.39994E-005	-2.40040E-001	3.50740E-002	3.57720E+000	9	...........
	101	1.36	3.04494E-002	-3.98900E-004	0.00000E+000	-1.21463E-005	-2.40040E-001	3.04459E-002	3.57720E+000	9	...........
	102	1.37333	2.58408E-002	-4.00037E-004	0.00000E+000	-1.03373E-005	-2.40040E-001	2.58356E-002	3.57720E+000	9	...........
	103	1.38667	2.12651E-002	-3.97762E-004	0.00000E+000	-8.45846E-006	-2.40040E-001	2.12550E-002	3.57720E+000	9	...........
	104	1.4	1.67550E-002	-3.98973E-004	0.00000E+000	-6.68480E-006	-2.40040E-001	1.67483E-002	3.57720E+000	9	...........
	105	1.41333	1.21211E-002	-3.99119E-004	0.00000E+000	-4.83777E-006	-2.40040E-001	1.21074E-002	3.57720E+000	9	...........
	106	1.42667	7.59241E-003	-3.98762E-004	0.00000E+000	-3.02757E-006	-2.40040E-001	7.57421E-003	3.57720E+000	9	...........
	107	1.44	3.11610E-003	-3.98985E-004	0.00000E+000	-1.24328E-006	-2.40040E-001	3.10176E-003	3.57720E+000	9	...........
	108	1.445	3.40698E-005	-3.99912E-004	0.00000E+000	-1.36249E-008	-2.40040E-001	2.09622E-005	3.57720E+000	9	...........
STARTTIMEOFFSET	QUANT	2012.521	Start Time Offset (s)
