EXPLAIN
TAG	PWR800_DISCHARGE
TITLE	LABEL	PWR Cyclic Charge Discharge (Cell) - Discharge Step	Test &Identifier
DATE	LABEL	12-7-2017	Date
TIME	LABEL	14:22:02	Time
NOTES	NOTES	3	&Notes...
	supercap test cell
	0.4mg
	6M KOH
PSTAT	PSTAT	IFC5000-01520	Potentiostat
CAPACITY	QUANT	1.00000E-003	Capacity (A-hr)
CELLTYPE	SELECTOR	1	&Cell Type
WORKINGCONNECTION	SELECTOR	0	&Working Lead
MAXDISCHARGETIME	VARIABLEANDUNITS	1.00000E+002	s	1.00000E+002	second(s)	Max &Discharge Time
DISCHARGEMODE	MULTIPARAM	0	4.00000E-004	&Discharge Mode	Constant Current	Amp(s)
SAMPLETIME	QUANT	1.00000E-002	Sa&mple Period (s)
DISCHARGESTOPAT1	MULTIPARAM	3	0.00000E+000	Discharge Stop At &1	Voltage < Limit	V
DISCHARGESTOPAT2	MULTIPARAM	0	0.00000E+000	Discharge Stop At &2	None	N/A
AESBHCSELECTOR	TOGGLE	F	Save Both Half Cells
IRCOMP	TOGGLE	F	IR &Measure
EOC	QUANT	0	Open Circuit (V)
SEQUENCER	TOGGLE	TRUE	Run as Sequence
PSTATMODEL	IQUANT	53	Pstat Model
PSTATSECTION	LABEL	IFC5000-01520	Pstat Section
PSTATSERIALNO	LABEL	01520	Pstat Serial Number
CTRLMODE	IQUANT	0	Control Mode
ELECTROMETER	IQUANT	1	RE=0 or CS=1
IESTAB	IQUANT	0	I/E Stability
CASPEED	IQUANT	4	Control Amp Speed
CONVENTION	IQUANT	1	Current Convention
ICHRANGE	IQUANT	2	Ich Range
ICHRANGEMODE	TOGGLE	T	Ich Auto Range
ICHOFFSETENABLE	TOGGLE	F	Ich Offset Enable
ICHOFFSET	QUANT	0	Ich Offset (V)
ICHFILTER	IQUANT	1	Ich Filter
VCHRANGE	IQUANT	2	Vch Range
VCHRANGEMODE	TOGGLE	T	Vch Auto Range
VCHOFFSETENABLE	TOGGLE	F	Vch Offset Enable
VCHOFFSET	QUANT	0	Vch Offset (V)
VCHFILTER	IQUANT	1	Vch Filter
IERANGELOWERLIMIT	IQUANT	9	I/E Range Lower Limit
IERANGEMODE	TOGGLE	F	I/E AutoRange
IERANGE	IQUANT	9	I/E Range
ACHSELECT	IQUANT	1	Ach Select
ACHRANGE	IQUANT	2	Ach Range
ACHOFFSETENABLE	TOGGLE	F	Ach Offset Enable
ACHOFFSET	QUANT	0	Ach Offset (V)
ACHFILTER	IQUANT	1	Ach Filter
CABLEID	IQUANT	14	Cable ID
DCCALDATE	LABEL	5-7-2017	DC Calibration Date
ACCALDATE	LABEL	12/3/2015	AC Calibration Date
FRAMEWORKVERSION	QUANT	7.01	Framework Version
INSTRUMENTVERSION	LABEL	4.00	Instrument Version
CURVE	TABLE	136
	Pt	T	Vf	Im	Vu	Pwr	Sig	Ach	Temp	IERange	Over
	#	s	V	A	V	W	V	V	deg C	#	bits
	0	0.013333	7.22811E-001	-3.97736E-004	0.00000E+000	-2.87488E-004	-2.40040E-001	7.23008E-001	3.57570E+000	9	...........
	1	0.026667	7.12172E-001	-3.97575E-004	0.00000E+000	-2.83142E-004	-2.40040E-001	7.12405E-001	3.57570E+000	9	...........
	2	0.04	7.02761E-001	-3.98850E-004	0.00000E+000	-2.80296E-004	-2.40040E-001	7.02974E-001	3.57570E+000	9	...........
	3	0.053333	6.94033E-001	-3.99078E-004	0.00000E+000	-2.76973E-004	-2.40040E-001	6.94242E-001	3.57570E+000	9	...........
	4	0.066667	6.85730E-001	-3.98816E-004	0.00000E+000	-2.73480E-004	-2.40040E-001	6.85954E-001	3.57570E+000	9	...........
	5	0.08	6.77764E-001	-3.96933E-004	0.00000E+000	-2.69027E-004	-2.40040E-001	6.77973E-001	3.57570E+000	9	...........
	6	0.093333	6.70153E-001	-3.97969E-004	0.00000E+000	-2.66700E-004	-2.40040E-001	6.70353E-001	3.57570E+000	9	...........
	7	0.106667	6.62714E-001	-3.98886E-004	0.00000E+000	-2.64348E-004	-2.40040E-001	6.62935E-001	3.57570E+000	9	...........
	8	0.12	6.55442E-001	-3.98785E-004	0.00000E+000	-2.61381E-004	-2.40040E-001	6.55668E-001	3.57570E+000	9	...........
	9	0.133333	6.48319E-001	-3.97661E-004	0.00000E+000	-2.57811E-004	-2.40040E-001	6.48556E-001	3.57570E+000	9	...........
	10	0.146667	6.41262E-001	-3.99134E-004	0.00000E+000	-2.55950E-004	-2.40040E-001	6.41504E-001	3.57570E+000	9	...........
	11	0.16	6.34300E-001	-3.98903E-004	0.00000E+000	-2.53024E-004	-2.40040E-001	6.34508E-001	3.57570E+000	9	...........
	12	0.173333	6.27413E-001	-4.00034E-004	0.00000E+000	-2.50986E-004	-2.40040E-001	6.27633E-001	3.57570E+000	9	...........
	13	0.186667	6.20586E-001	-3.98960E-004	0.00000E+000	-2.47589E-004	-2.40040E-001	6.20769E-001	3.57570E+000	9	...........
	14	0.2	6.13813E-001	-3.98323E-004	0.00000E+000	-2.44496E-004	-2.40040E-001	6.14034E-001	3.57570E+000	9	...........
	15	0.213333	6.07167E-001	-3.98997E-004	0.00000E+000	-2.42258E-004	-2.40040E-001	6.07392E-001	3.57570E+000	9	...........
	16	0.226667	6.00515E-001	-3.98851E-004	0.00000E+000	-2.39516E-004	-2.40040E-001	6.00742E-001	3.57570E+000	9	...........
	17	0.24	5.93952E-001	-3.98040E-004	0.00000E+000	-2.36417E-004	-2.40040E-001	5.94182E-001	3.57605E+000	9	...........
	18	0.253333	5.87446E-001	-3.98771E-004	0.00000E+000	-2.34256E-004	-2.40040E-001	5.87661E-001	3.57640E+000	9	...........
	19	0.266667	5.80951E-001	-4.00049E-004	0.00000E+000	-2.32409E-004	-2.40040E-001	5.81185E-001	3.57640E+000	9	...........
	20	0.28	5.74474E-001	-3.98721E-004	0.00000E+000	-2.29055E-004	-2.40040E-001	5.74655E-001	3.57640E+000	9	...........
	21	0.293333	5.68049E-001	-3.98924E-004	0.00000E+000	-2.26608E-004	-2.40040E-001	5.68212E-001	3.57640E+000	9	...........
	22	0.306667	5.61598E-001	-3.97582E-004	0.00000E+000	-2.23281E-004	-2.40040E-001	5.61761E-001	3.57640E+000	9	...........
	23	0.32	5.55325E-001	-4.00314E-004	0.00000E+000	-2.22304E-004	-2.40040E-001	5.55480E-001	3.57640E+000	9	...........
	24	0.333333	5.49012E-001	-3.97954E-004	0.00000E+000	-2.18481E-004	-2.40040E-001	5.49165E-001	3.57640E+000	9	...........
	25	0.346667	5.42696E-001	-3.99049E-004	0.00000E+000	-2.16562E-004	-2.40040E-001	5.42866E-001	3.57640E+000	9	...........
	26	0.36	5.36436E-001	-3.98929E-004	0.00000E+000	-2.14000E-004	-2.40040E-001	5.36630E-001	3.57640E+000	9	...........
	27	0.373333	5.30174E-001	-3.98131E-004	0.00000E+000	-2.11079E-004	-2.40040E-001	5.30365E-001	3.57640E+000	9	...........
	28	0.386667	5.23929E-001	-3.99345E-004	0.00000E+000	-2.09228E-004	-2.40040E-001	5.24148E-001	3.57640E+000	9	...........
	29	0.4	5.17753E-001	-3.99811E-004	0.00000E+000	-2.07003E-004	-2.40040E-001	5.17964E-001	3.57640E+000	9	...........
	30	0.413333	5.11646E-001	-3.99206E-004	0.00000E+000	-2.04252E-004	-2.40040E-001	5.11845E-001	3.57640E+000	9	...........
	31	0.426667	5.05488E-001	-3.99622E-004	0.00000E+000	-2.02004E-004	-2.40040E-001	5.05726E-001	3.57640E+000	9	...........
	32	0.44	4.99426E-001	-3.97923E-004	0.00000E+000	-1.98733E-004	-2.40040E-001	4.99659E-001	3.57640E+000	9	...........
	33	0.453333	4.93453E-001	-3.98964E-004	0.00000E+000	-1.96870E-004	-2.40040E-001	4.93674E-001	3.57640E+000	9	...........
	34	0.466667	4.87498E-001	-3.98584E-004	0.00000E+000	-1.94309E-004	-2.40040E-001	4.87696E-001	3.57640E+000	9	...........
	35	0.48	4.81721E-001	-3.99157E-004	0.00000E+000	-1.92282E-004	-2.40040E-001	4.81821E-001	3.57640E+000	9	...........
	36	0.493333	4.75832E-001	-3.98832E-004	0.00000E+000	-1.89777E-004	-2.40040E-001	4.75924E-001	3.57640E+000	9	...........
	37	0.506667	4.69947E-001	-3.97192E-004	0.00000E+000	-1.86659E-004	-2.40040E-001	4.70044E-001	3.57640E+000	9	...........
	38	0.52	4.64098E-001	-3.98785E-004	0.00000E+000	-1.85076E-004	-2.40040E-001	4.64188E-001	3.57640E+000	9	...........
	39	0.533333	4.58237E-001	-3.96962E-004	0.00000E+000	-1.81903E-004	-2.40040E-001	4.58328E-001	3.57640E+000	9	...........
	40	0.546667	4.52385E-001	-3.98075E-004	0.00000E+000	-1.80083E-004	-2.40040E-001	4.52478E-001	3.57640E+000	9	...........
	41	0.56	4.46632E-001	-3.99063E-004	0.00000E+000	-1.78234E-004	-2.40040E-001	4.46722E-001	3.57640E+000	9	...........
	42	0.573333	4.40841E-001	-3.97153E-004	0.00000E+000	-1.75081E-004	-2.40040E-001	4.40929E-001	3.57640E+000	9	...........
	43	0.586667	4.35037E-001	-3.97934E-004	0.00000E+000	-1.73116E-004	-2.40040E-001	4.35117E-001	3.57640E+000	9	...........
	44	0.6	4.29262E-001	-3.99272E-004	0.00000E+000	-1.71392E-004	-2.40040E-001	4.29349E-001	3.57640E+000	9	...........
	45	0.613333	4.23571E-001	-3.98502E-004	0.00000E+000	-1.68794E-004	-2.40040E-001	4.23656E-001	3.57640E+000	9	...........
	46	0.626667	4.17872E-001	-3.98457E-004	0.00000E+000	-1.66504E-004	-2.40040E-001	4.17955E-001	3.57640E+000	9	...........
	47	0.64	4.12249E-001	-3.98195E-004	0.00000E+000	-1.64155E-004	-2.40040E-001	4.12332E-001	3.57640E+000	9	...........
	48	0.653333	4.06676E-001	-3.99905E-004	0.00000E+000	-1.62632E-004	-2.40040E-001	4.06755E-001	3.57640E+000	9	...........
	49	0.666667	4.01112E-001	-3.99826E-004	0.00000E+000	-1.60375E-004	-2.40040E-001	4.01186E-001	3.57640E+000	9	...........
	50	0.68	3.95533E-001	-3.97819E-004	0.00000E+000	-1.57350E-004	-2.40040E-001	3.95609E-001	3.57640E+000	9	...........
	51	0.693333	3.89960E-001	-3.98507E-004	0.00000E+000	-1.55402E-004	-2.40040E-001	3.90028E-001	3.57640E+000	9	...........
	52	0.706667	3.84435E-001	-3.98955E-004	0.00000E+000	-1.53372E-004	-2.40040E-001	3.84504E-001	3.57640E+000	9	...........
	53	0.72	3.78905E-001	-3.98005E-004	0.00000E+000	-1.50806E-004	-2.40040E-001	3.78981E-001	3.57640E+000	9	...........
	54	0.733333	3.73459E-001	-3.98316E-004	0.00000E+000	-1.48754E-004	-2.40040E-001	3.73528E-001	3.57640E+000	9	...........
	55	0.746667	3.67944E-001	-3.98441E-004	0.00000E+000	-1.46604E-004	-2.40040E-001	3.68015E-001	3.57640E+000	9	...........
	56	0.76	3.62471E-001	-4.00661E-004	0.00000E+000	-1.45228E-004	-2.40040E-001	3.62537E-001	3.57640E+000	9	...........
	57	0.773333	3.57068E-001	-3.98608E-004	0.00000E+000	-1.42330E-004	-2.40040E-001	3.57135E-001	3.57640E+000	9	...........
	58	0.786667	3.51679E-001	-3.99465E-004	0.00000E+000	-1.40483E-004	-2.40040E-001	3.51749E-001	3.57640E+000	9	...........
	59	0.8	3.46330E-001	-3.99310E-004	0.00000E+000	-1.38293E-004	-2.40040E-001	3.46398E-001	3.57640E+000	9	...........
	60	0.813333	3.41046E-001	-3.99102E-004	0.00000E+000	-1.36112E-004	-2.40040E-001	3.41109E-001	3.57640E+000	9	...........
	61	0.826667	3.35710E-001	-3.98993E-004	0.00000E+000	-1.33946E-004	-2.40040E-001	3.35770E-001	3.57640E+000	9	...........
	62	0.84	3.30458E-001	-3.98357E-004	0.00000E+000	-1.31640E-004	-2.40040E-001	3.30517E-001	3.57640E+000	9	...........
	63	0.853333	3.25167E-001	-3.99152E-004	0.00000E+000	-1.29791E-004	-2.40040E-001	3.25232E-001	3.57640E+000	9	...........
	64	0.866667	3.19942E-001	-4.00446E-004	0.00000E+000	-1.28119E-004	-2.40040E-001	3.20002E-001	3.57640E+000	9	...........
	65	0.88	3.14832E-001	-3.98379E-004	0.00000E+000	-1.25422E-004	-2.40040E-001	3.14897E-001	3.57640E+000	9	...........
	66	0.893333	3.09625E-001	-3.98235E-004	0.00000E+000	-1.23303E-004	-2.40040E-001	3.09684E-001	3.57640E+000	9	...........
	67	0.906667	3.04438E-001	-3.98851E-004	0.00000E+000	-1.21425E-004	-2.40040E-001	3.04503E-001	3.57640E+000	9	...........
	68	0.92	2.99312E-001	-3.98129E-004	0.00000E+000	-1.19165E-004	-2.40040E-001	2.99377E-001	3.57640E+000	9	...........
	69	0.933333	2.94247E-001	-3.98383E-004	0.00000E+000	-1.17223E-004	-2.40040E-001	2.94311E-001	3.57640E+000	9	...........
	70	0.946667	2.89126E-001	-3.98814E-004	0.00000E+000	-1.15307E-004	-2.40040E-001	2.89187E-001	3.57640E+000	9	...........
	71	0.96	2.84040E-001	-3.97623E-004	0.00000E+000	-1.12941E-004	-2.40040E-001	2.84099E-001	3.57640E+000	9	...........
	72	0.97333	2.78965E-001	-3.97921E-004	0.00000E+000	-1.11006E-004	-2.40040E-001	2.79021E-001	3.57640E+000	9	...........
	73	0.98667	2.73903E-001	-3.99691E-004	0.00000E+000	-1.09477E-004	-2.40040E-001	2.73959E-001	3.57640E+000	9	...........
	74	1	2.68893E-001	-3.98414E-004	0.00000E+000	-1.07131E-004	-2.40040E-001	2.68944E-001	3.57640E+000	9	...........
	75	1.01333	2.63936E-001	-3.98694E-004	0.00000E+000	-1.05230E-004	-2.40040E-001	2.63986E-001	3.57640E+000	9	...........
	76	1.02667	2.58896E-001	-4.00152E-004	0.00000E+000	-1.03598E-004	-2.40040E-001	2.58948E-001	3.57640E+000	9	...........
	77	1.04	2.53937E-001	-3.97749E-004	0.00000E+000	-1.01003E-004	-2.40040E-001	2.53992E-001	3.57640E+000	9	...........
	78	1.05333	2.49098E-001	-3.97403E-004	0.00000E+000	-9.89922E-005	-2.40040E-001	2.49146E-001	3.57640E+000	9	...........
	79	1.06667	2.44312E-001	-3.98770E-004	0.00000E+000	-9.74242E-005	-2.40040E-001	2.44357E-001	3.57640E+000	9	...........
	80	1.08	2.39392E-001	-4.00581E-004	0.00000E+000	-9.58959E-005	-2.40040E-001	2.39435E-001	3.57640E+000	9	...........
	81	1.09333	2.34506E-001	-3.99563E-004	0.00000E+000	-9.36998E-005	-2.40040E-001	2.34547E-001	3.57640E+000	9	...........
	82	1.10667	2.29716E-001	-3.97516E-004	0.00000E+000	-9.13157E-005	-2.40040E-001	2.29753E-001	3.57640E+000	9	...........
	83	1.12	2.24931E-001	-3.98205E-004	0.00000E+000	-8.95687E-005	-2.40040E-001	2.24974E-001	3.57640E+000	9	...........
	84	1.13333	2.20063E-001	-3.98267E-004	0.00000E+000	-8.76435E-005	-2.40040E-001	2.20104E-001	3.57640E+000	9	...........
	85	1.14667	2.15364E-001	-3.97742E-004	0.00000E+000	-8.56592E-005	-2.40040E-001	2.15407E-001	3.57640E+000	9	...........
	86	1.16	2.10589E-001	-3.98890E-004	0.00000E+000	-8.40016E-005	-2.40040E-001	2.10631E-001	3.57640E+000	9	...........
	87	1.17333	2.05924E-001	-3.98864E-004	0.00000E+000	-8.21358E-005	-2.40040E-001	2.05968E-001	3.57640E+000	9	...........
	88	1.18667	2.01236E-001	-3.99235E-004	0.00000E+000	-8.03407E-005	-2.40040E-001	2.01278E-001	3.57640E+000	9	...........
	89	1.2	1.96454E-001	-3.98857E-004	0.00000E+000	-7.83572E-005	-2.40040E-001	1.96492E-001	3.57640E+000	9	...........
	90	1.21333	1.91821E-001	-4.00134E-004	0.00000E+000	-7.67542E-005	-2.40040E-001	1.91861E-001	3.57640E+000	9	...........
	91	1.22667	1.87224E-001	-3.99334E-004	0.00000E+000	-7.47650E-005	-2.40040E-001	1.87258E-001	3.57640E+000	9	...........
	92	1.24	1.82576E-001	-3.98308E-004	0.00000E+000	-7.27214E-005	-2.40040E-001	1.82617E-001	3.57640E+000	9	...........
	93	1.25333	1.78003E-001	-3.98730E-004	0.00000E+000	-7.09752E-005	-2.40040E-001	1.78043E-001	3.57640E+000	9	...........
	94	1.26667	1.73436E-001	-3.97943E-004	0.00000E+000	-6.90174E-005	-2.40040E-001	1.73477E-001	3.57640E+000	9	...........
	95	1.28	1.68869E-001	-3.98578E-004	0.00000E+000	-6.73074E-005	-2.40040E-001	1.68903E-001	3.57640E+000	9	...........
	96	1.29333	1.64310E-001	-3.99395E-004	0.00000E+000	-6.56247E-005	-2.40040E-001	1.64348E-001	3.57640E+000	9	...........
	97	1.30667	1.59768E-001	-3.98875E-004	0.00000E+000	-6.37275E-005	-2.40040E-001	1.59803E-001	3.57640E+000	9	...........
	98	1.32	1.55314E-001	-3.99011E-004	0.00000E+000	-6.19719E-005	-2.40040E-001	1.55350E-001	3.57640E+000	9	...........
	99	1.33333	1.50833E-001	-3.98632E-004	0.00000E+000	-6.01269E-005	-2.40040E-001	1.50866E-001	3.57640E+000	9	...........
	100	1.34667	1.46368E-001	-3.98362E-004	0.00000E+000	-5.83073E-005	-2.40040E-001	1.46392E-001	3.57640E+000	9	...........
	101	1.36	1.41825E-001	-3.98693E-004	0.00000E+000	-5.65446E-005	-2.40040E-001	1.41854E-001	3.57640E+000	9	...........
	102	1.37333	1.37338E-001	-3.97555E-004	0.00000E+000	-5.45995E-005	-2.40040E-001	1.37364E-001	3.57640E+000	9	...........
	103	1.38667	1.32942E-001	-3.99873E-004	0.00000E+000	-5.31598E-005	-2.40040E-001	1.32967E-001	3.57640E+000	9	...........
	104	1.4	1.28598E-001	-3.99743E-004	0.00000E+000	-5.14062E-005	-2.40040E-001	1.28619E-001	3.57640E+000	9	...........
	105	1.41333	1.24232E-001	-3.99125E-004	0.00000E+000	-4.95840E-005	-2.40040E-001	1.24256E-001	3.57640E+000	9	...........
	106	1.42667	1.19893E-001	-3.98361E-004	0.00000E+000	-4.77605E-005	-2.40040E-001	1.19921E-001	3.57640E+000	9	...........
	107	1.44	1.15522E-001	-3.99117E-004	0.00000E+000	-4.61066E-005	-2.40040E-001	1.15548E-001	3.57640E+000	9	...........
	108	1.45333	1.11303E-001	-3.97192E-004	0.00000E+000	-4.42086E-005	-2.40040E-001	1.11329E-001	3.57640E+000	9	...........
	109	1.46667	1.06940E-001	-3.98783E-004	0.00000E+000	-4.26458E-005	-2.40040E-001	1.06962E-001	3.57640E+000	9	...........
	110	1.48	1.02651E-001	-3.99411E-004	0.00000E+000	-4.09999E-005	-2.40040E-001	1.02673E-001	3.57640E+000	9	...........
	111	1.49333	9.83983E-002	-3.99185E-004	0.00000E+000	-3.92792E-005	-2.40040E-001	9.84180E-002	3.57640E+000	9	...........
	112	1.50667	9.41241E-002	-3.99292E-004	0.00000E+000	-3.75830E-005	-2.40040E-001	9.41449E-002	3.57640E+000	9	...........
	113	1.52	8.98824E-002	-3.99312E-004	0.00000E+000	-3.58911E-005	-2.40040E-001	8.98995E-002	3.57640E+000	9	...........
	114	1.53333	8.56432E-002	-3.98649E-004	0.00000E+000	-3.41416E-005	-2.40040E-001	8.56621E-002	3.57640E+000	9	...........
	115	1.54667	8.14435E-002	-4.00180E-004	0.00000E+000	-3.25921E-005	-2.40040E-001	8.14580E-002	3.57640E+000	9	...........
	116	1.56	7.71822E-002	-4.00101E-004	0.00000E+000	-3.08807E-005	-2.40040E-001	7.71908E-002	3.57640E+000	9	...........
	117	1.57333	7.29619E-002	-3.98020E-004	0.00000E+000	-2.90403E-005	-2.40040E-001	7.29700E-002	3.57640E+000	9	...........
	118	1.58667	6.87483E-002	-3.99585E-004	0.00000E+000	-2.74707E-005	-2.40040E-001	6.87542E-002	3.57640E+000	9	...........
	119	1.6	6.46461E-002	-3.98881E-004	0.00000E+000	-2.57861E-005	-2.40040E-001	6.46527E-002	3.57640E+000	9	...........
	120	1.61333	6.05362E-002	-3.97919E-004	0.00000E+000	-2.40885E-005	-2.40040E-001	6.05372E-002	3.57640E+000	9	...........
	121	1.62667	5.63666E-002	-4.00413E-004	0.00000E+000	-2.25699E-005	-2.40040E-001	5.63720E-002	3.57640E+000	9	...........
	122	1.64	5.23160E-002	-3.97664E-004	0.00000E+000	-2.08042E-005	-2.40040E-001	5.23281E-002	3.57640E+000	9	...........
	123	1.65333	4.82813E-002	-3.97650E-004	0.00000E+000	-1.91990E-005	-2.40040E-001	4.82930E-002	3.57640E+000	9	...........
	124	1.66667	4.41799E-002	-3.99067E-004	0.00000E+000	-1.76307E-005	-2.40040E-001	4.41864E-002	3.57640E+000	9	...........
	125	1.68	4.02249E-002	-3.98505E-004	0.00000E+000	-1.60298E-005	-2.40040E-001	4.02298E-002	3.57640E+000	9	...........
	126	1.69333	3.62375E-002	-3.98815E-004	0.00000E+000	-1.44520E-005	-2.40040E-001	3.62403E-002	3.57640E+000	9	...........
	127	1.70667	3.22828E-002	-3.98236E-004	0.00000E+000	-1.28562E-005	-2.40040E-001	3.22832E-002	3.57640E+000	9	...........
	128	1.72	2.83145E-002	-3.99103E-004	0.00000E+000	-1.13004E-005	-2.40040E-001	2.83173E-002	3.57640E+000	9	...........
	129	1.73333	2.43094E-002	-3.99329E-004	0.00000E+000	-9.70744E-006	-2.40040E-001	2.43056E-002	3.57640E+000	9	...........
	130	1.74667	2.03174E-002	-3.98914E-004	0.00000E+000	-8.10487E-006	-2.40040E-001	2.03110E-002	3.57640E+000	9	...........
	131	1.76	1.64269E-002	-4.00002E-004	0.00000E+000	-6.57080E-006	-2.40040E-001	1.64222E-002	3.57640E+000	9	...........
	132	1.77333	1.24997E-002	-3.99854E-004	0.00000E+000	-4.99807E-006	-2.40040E-001	1.24890E-002	3.57640E+000	9	...........
	133	1.78667	8.61117E-003	-3.98890E-004	0.00000E+000	-3.43491E-006	-2.40040E-001	8.59895E-003	3.57640E+000	9	...........
	134	1.8	4.75340E-003	-3.99643E-004	0.00000E+000	-1.89966E-006	-2.40040E-001	4.74107E-003	3.57640E+000	9	...........
	135	1.81167	1.11163E-003	-3.97951E-004	0.00000E+000	-4.42376E-007	-2.40040E-001	1.09812E-003	3.57640E+000	9	...........
STARTTIMEOFFSET	QUANT	163.7416	Start Time Offset (s)
