EXPLAIN
TAG	PWR800_DISCHARGE
TITLE	LABEL	PWR Cyclic Charge Discharge (Cell) - Discharge Step	Test &Identifier
DATE	LABEL	12-7-2017	Date
TIME	LABEL	15:14:22	Time
NOTES	NOTES	3	&Notes...
	supercap test cell
	0.4mg
	6M KOH
PSTAT	PSTAT	IFC5000-01520	Potentiostat
CAPACITY	QUANT	1.00000E-003	Capacity (A-hr)
CELLTYPE	SELECTOR	1	&Cell Type
WORKINGCONNECTION	SELECTOR	0	&Working Lead
MAXDISCHARGETIME	VARIABLEANDUNITS	1.00000E+002	s	1.00000E+002	second(s)	Max &Discharge Time
DISCHARGEMODE	MULTIPARAM	0	4.00000E-004	&Discharge Mode	Constant Current	Amp(s)
SAMPLETIME	QUANT	1.00000E-002	Sa&mple Period (s)
DISCHARGESTOPAT1	MULTIPARAM	3	0.00000E+000	Discharge Stop At &1	Voltage < Limit	V
DISCHARGESTOPAT2	MULTIPARAM	0	0.00000E+000	Discharge Stop At &2	None	N/A
AESBHCSELECTOR	TOGGLE	F	Save Both Half Cells
IRCOMP	TOGGLE	F	IR &Measure
EOC	QUANT	0	Open Circuit (V)
SEQUENCER	TOGGLE	TRUE	Run as Sequence
PSTATMODEL	IQUANT	53	Pstat Model
PSTATSECTION	LABEL	IFC5000-01520	Pstat Section
PSTATSERIALNO	LABEL	01520	Pstat Serial Number
CTRLMODE	IQUANT	0	Control Mode
ELECTROMETER	IQUANT	1	RE=0 or CS=1
IESTAB	IQUANT	0	I/E Stability
CASPEED	IQUANT	4	Control Amp Speed
CONVENTION	IQUANT	1	Current Convention
ICHRANGE	IQUANT	2	Ich Range
ICHRANGEMODE	TOGGLE	T	Ich Auto Range
ICHOFFSETENABLE	TOGGLE	F	Ich Offset Enable
ICHOFFSET	QUANT	0	Ich Offset (V)
ICHFILTER	IQUANT	1	Ich Filter
VCHRANGE	IQUANT	2	Vch Range
VCHRANGEMODE	TOGGLE	T	Vch Auto Range
VCHOFFSETENABLE	TOGGLE	F	Vch Offset Enable
VCHOFFSET	QUANT	0	Vch Offset (V)
VCHFILTER	IQUANT	1	Vch Filter
IERANGELOWERLIMIT	IQUANT	9	I/E Range Lower Limit
IERANGEMODE	TOGGLE	F	I/E AutoRange
IERANGE	IQUANT	9	I/E Range
ACHSELECT	IQUANT	1	Ach Select
ACHRANGE	IQUANT	2	Ach Range
ACHOFFSETENABLE	TOGGLE	F	Ach Offset Enable
ACHOFFSET	QUANT	0	Ach Offset (V)
ACHFILTER	IQUANT	1	Ach Filter
CABLEID	IQUANT	14	Cable ID
DCCALDATE	LABEL	5-7-2017	DC Calibration Date
ACCALDATE	LABEL	12/3/2015	AC Calibration Date
FRAMEWORKVERSION	QUANT	7.01	Framework Version
INSTRUMENTVERSION	LABEL	4.00	Instrument Version
CURVE	TABLE	104
	Pt	T	Vf	Im	Vu	Pwr	Sig	Ach	Temp	IERange	Over
	#	s	V	A	V	W	V	V	deg C	#	bits
	0	0.013333	6.85253E-001	-3.99278E-004	0.00000E+000	-2.73607E-004	-2.40040E-001	6.85512E-001	3.57700E+000	9	...........
	1	0.026667	6.71787E-001	-3.97488E-004	0.00000E+000	-2.67028E-004	-2.40040E-001	6.72020E-001	3.57700E+000	9	...........
	2	0.04	6.59990E-001	-3.98331E-004	0.00000E+000	-2.62895E-004	-2.40040E-001	6.60240E-001	3.57700E+000	9	...........
	3	0.053333	6.49261E-001	-3.97826E-004	0.00000E+000	-2.58293E-004	-2.40040E-001	6.49502E-001	3.57700E+000	9	...........
	4	0.066667	6.39124E-001	-3.99558E-004	0.00000E+000	-2.55367E-004	-2.40040E-001	6.39358E-001	3.57700E+000	9	...........
	5	0.08	6.29512E-001	-3.98309E-004	0.00000E+000	-2.50740E-004	-2.40040E-001	6.29748E-001	3.57700E+000	9	...........
	6	0.093333	6.20259E-001	-3.98759E-004	0.00000E+000	-2.47334E-004	-2.40040E-001	6.20469E-001	3.57700E+000	9	...........
	7	0.106667	6.11100E-001	-3.98217E-004	0.00000E+000	-2.43350E-004	-2.40040E-001	6.11353E-001	3.57700E+000	9	...........
	8	0.12	6.02154E-001	-3.98003E-004	0.00000E+000	-2.39659E-004	-2.40040E-001	6.02417E-001	3.57700E+000	9	...........
	9	0.133333	5.93463E-001	-3.99121E-004	0.00000E+000	-2.36864E-004	-2.40040E-001	5.93702E-001	3.57700E+000	9	...........
	10	0.146667	5.84851E-001	-3.98336E-004	0.00000E+000	-2.32968E-004	-2.40040E-001	5.85072E-001	3.57700E+000	9	...........
	11	0.16	5.76473E-001	-3.98953E-004	0.00000E+000	-2.29986E-004	-2.40040E-001	5.76703E-001	3.57700E+000	9	...........
	12	0.173333	5.68081E-001	-3.98695E-004	0.00000E+000	-2.26491E-004	-2.40040E-001	5.68299E-001	3.57700E+000	9	...........
	13	0.186667	5.59792E-001	-3.98868E-004	0.00000E+000	-2.23283E-004	-2.40040E-001	5.60037E-001	3.57700E+000	9	...........
	14	0.2	5.51630E-001	-3.98785E-004	0.00000E+000	-2.19982E-004	-2.40040E-001	5.51862E-001	3.57700E+000	9	...........
	15	0.213333	5.43476E-001	-3.98227E-004	0.00000E+000	-2.16427E-004	-2.40040E-001	5.43699E-001	3.57700E+000	9	...........
	16	0.226667	5.35386E-001	-3.98295E-004	0.00000E+000	-2.13241E-004	-2.40040E-001	5.35604E-001	3.57700E+000	9	...........
	17	0.24	5.27379E-001	-3.98979E-004	0.00000E+000	-2.10413E-004	-2.40040E-001	5.27610E-001	3.57700E+000	9	...........
	18	0.253333	5.19448E-001	-3.98077E-004	0.00000E+000	-2.06780E-004	-2.40040E-001	5.19634E-001	3.57700E+000	9	...........
	19	0.266667	5.11494E-001	-3.99232E-004	0.00000E+000	-2.04205E-004	-2.40040E-001	5.11719E-001	3.57700E+000	9	...........
	20	0.28	5.03613E-001	-3.99269E-004	0.00000E+000	-2.01077E-004	-2.40040E-001	5.03850E-001	3.57700E+000	9	...........
	21	0.293333	4.95833E-001	-3.99066E-004	0.00000E+000	-1.97870E-004	-2.40040E-001	4.96041E-001	3.57700E+000	9	...........
	22	0.306667	4.88012E-001	-3.98990E-004	0.00000E+000	-1.94712E-004	-2.40040E-001	4.88230E-001	3.57700E+000	9	...........
	23	0.32	4.80650E-001	-3.98308E-004	0.00000E+000	-1.91447E-004	-2.40040E-001	4.80748E-001	3.57700E+000	9	...........
	24	0.333333	4.73001E-001	-3.99803E-004	0.00000E+000	-1.89107E-004	-2.40040E-001	4.73100E-001	3.57700E+000	9	...........
	25	0.346667	4.65394E-001	-3.98502E-004	0.00000E+000	-1.85460E-004	-2.40040E-001	4.65492E-001	3.57700E+000	9	...........
	26	0.36	4.57846E-001	-3.98095E-004	0.00000E+000	-1.82266E-004	-2.40040E-001	4.57942E-001	3.57700E+000	9	...........
	27	0.373333	4.50296E-001	-3.97341E-004	0.00000E+000	-1.78921E-004	-2.40040E-001	4.50399E-001	3.57700E+000	9	...........
	28	0.386667	4.42856E-001	-3.98180E-004	0.00000E+000	-1.76336E-004	-2.40040E-001	4.42953E-001	3.57700E+000	9	...........
	29	0.4	4.35470E-001	-3.98071E-004	0.00000E+000	-1.73348E-004	-2.40040E-001	4.35562E-001	3.57700E+000	9	...........
	30	0.413333	4.28049E-001	-3.99085E-004	0.00000E+000	-1.70828E-004	-2.40040E-001	4.28141E-001	3.57700E+000	9	...........
	31	0.426667	4.20705E-001	-3.99268E-004	0.00000E+000	-1.67974E-004	-2.40040E-001	4.20795E-001	3.57700E+000	9	...........
	32	0.44	4.13382E-001	-3.99158E-004	0.00000E+000	-1.65005E-004	-2.40040E-001	4.13465E-001	3.57700E+000	9	...........
	33	0.453333	4.06147E-001	-3.98308E-004	0.00000E+000	-1.61772E-004	-2.40040E-001	4.06234E-001	3.57700E+000	9	...........
	34	0.466667	3.98931E-001	-3.97411E-004	0.00000E+000	-1.58540E-004	-2.40040E-001	3.99013E-001	3.57700E+000	9	...........
	35	0.48	3.91768E-001	-3.98073E-004	0.00000E+000	-1.55952E-004	-2.40040E-001	3.91846E-001	3.57700E+000	9	...........
	36	0.493333	3.84635E-001	-3.98001E-004	0.00000E+000	-1.53085E-004	-2.40040E-001	3.84712E-001	3.57700E+000	9	...........
	37	0.506667	3.77573E-001	-3.98687E-004	0.00000E+000	-1.50534E-004	-2.40040E-001	3.77647E-001	3.57700E+000	9	...........
	38	0.52	3.70472E-001	-4.00225E-004	0.00000E+000	-1.48272E-004	-2.40040E-001	3.70552E-001	3.57700E+000	9	...........
	39	0.533333	3.63441E-001	-3.98743E-004	0.00000E+000	-1.44919E-004	-2.40040E-001	3.63512E-001	3.57700E+000	9	...........
	40	0.546667	3.56488E-001	-3.99189E-004	0.00000E+000	-1.42306E-004	-2.40040E-001	3.56558E-001	3.57700E+000	9	...........
	41	0.56	3.49581E-001	-3.97670E-004	0.00000E+000	-1.39018E-004	-2.40040E-001	3.49648E-001	3.57700E+000	9	...........
	42	0.573333	3.42635E-001	-3.99583E-004	0.00000E+000	-1.36911E-004	-2.40040E-001	3.42701E-001	3.57700E+000	9	...........
	43	0.586667	3.35746E-001	-3.99019E-004	0.00000E+000	-1.33969E-004	-2.40040E-001	3.35809E-001	3.57700E+000	9	...........
	44	0.6	3.28998E-001	-3.98960E-004	0.00000E+000	-1.31257E-004	-2.40040E-001	3.29062E-001	3.57700E+000	9	...........
	45	0.613333	3.22257E-001	-3.98472E-004	0.00000E+000	-1.28410E-004	-2.40040E-001	3.22323E-001	3.57700E+000	9	...........
	46	0.626667	3.15570E-001	-3.98297E-004	0.00000E+000	-1.25691E-004	-2.40040E-001	3.15634E-001	3.57700E+000	9	...........
	47	0.64	3.08886E-001	-3.99401E-004	0.00000E+000	-1.23369E-004	-2.40040E-001	3.08945E-001	3.57700E+000	9	...........
	48	0.653333	3.02261E-001	-3.98889E-004	0.00000E+000	-1.20568E-004	-2.40040E-001	3.02316E-001	3.57700E+000	9	...........
	49	0.666667	2.95734E-001	-3.98922E-004	0.00000E+000	-1.17975E-004	-2.40040E-001	2.95789E-001	3.57717E+000	9	...........
	50	0.68	2.89261E-001	-3.98812E-004	0.00000E+000	-1.15361E-004	-2.40040E-001	2.89315E-001	3.57770E+000	9	...........
	51	0.693333	2.82797E-001	-3.99117E-004	0.00000E+000	-1.12869E-004	-2.40040E-001	2.82857E-001	3.57770E+000	9	...........
	52	0.706667	2.76337E-001	-3.97703E-004	0.00000E+000	-1.09900E-004	-2.40040E-001	2.76390E-001	3.57770E+000	9	...........
	53	0.72	2.69960E-001	-3.98665E-004	0.00000E+000	-1.07623E-004	-2.40040E-001	2.70014E-001	3.57770E+000	9	...........
	54	0.733333	2.63645E-001	-3.99508E-004	0.00000E+000	-1.05328E-004	-2.40040E-001	2.63697E-001	3.57770E+000	9	...........
	55	0.746667	2.57328E-001	-3.99645E-004	0.00000E+000	-1.02840E-004	-2.40040E-001	2.57384E-001	3.57770E+000	9	...........
	56	0.76	2.51058E-001	-3.98508E-004	0.00000E+000	-1.00049E-004	-2.40040E-001	2.51115E-001	3.57770E+000	9	...........
	57	0.773333	2.44864E-001	-3.99713E-004	0.00000E+000	-9.78752E-005	-2.40040E-001	2.44912E-001	3.57770E+000	9	...........
	58	0.786667	2.38689E-001	-3.97779E-004	0.00000E+000	-9.49453E-005	-2.40040E-001	2.38727E-001	3.57770E+000	9	...........
	59	0.8	2.32487E-001	-3.98762E-004	0.00000E+000	-9.27071E-005	-2.40040E-001	2.32532E-001	3.57770E+000	9	...........
	60	0.813333	2.26392E-001	-3.99451E-004	0.00000E+000	-9.04324E-005	-2.40040E-001	2.26437E-001	3.57770E+000	9	...........
	61	0.826667	2.20417E-001	-3.98797E-004	0.00000E+000	-8.79014E-005	-2.40040E-001	2.20459E-001	3.57770E+000	9	...........
	62	0.84	2.14404E-001	-3.98696E-004	0.00000E+000	-8.54819E-005	-2.40040E-001	2.14440E-001	3.57770E+000	9	...........
	63	0.853333	2.08522E-001	-3.97328E-004	0.00000E+000	-8.28515E-005	-2.40040E-001	2.08560E-001	3.57770E+000	9	...........
	64	0.866667	2.02652E-001	-3.98396E-004	0.00000E+000	-8.07358E-005	-2.40040E-001	2.02692E-001	3.57770E+000	9	...........
	65	0.88	1.96799E-001	-3.99428E-004	0.00000E+000	-7.86072E-005	-2.40040E-001	1.96837E-001	3.57770E+000	9	...........
	66	0.893333	1.90896E-001	-3.98232E-004	0.00000E+000	-7.60208E-005	-2.40040E-001	1.90935E-001	3.57770E+000	9	...........
	67	0.906667	1.85089E-001	-3.99707E-004	0.00000E+000	-7.39814E-005	-2.40040E-001	1.85118E-001	3.57770E+000	9	...........
	68	0.92	1.79302E-001	-3.98833E-004	0.00000E+000	-7.15115E-005	-2.40040E-001	1.79343E-001	3.57770E+000	9	...........
	69	0.933333	1.73628E-001	-3.99141E-004	0.00000E+000	-6.93021E-005	-2.40040E-001	1.73656E-001	3.57770E+000	9	...........
	70	0.946667	1.67988E-001	-3.98523E-004	0.00000E+000	-6.69472E-005	-2.40040E-001	1.68022E-001	3.57770E+000	9	...........
	71	0.96	1.62379E-001	-3.99420E-004	0.00000E+000	-6.48574E-005	-2.40040E-001	1.62407E-001	3.57770E+000	9	...........
	72	0.97333	1.56783E-001	-3.98796E-004	0.00000E+000	-6.25246E-005	-2.40040E-001	1.56808E-001	3.57770E+000	9	...........
	73	0.98667	1.51201E-001	-3.98654E-004	0.00000E+000	-6.02771E-005	-2.40040E-001	1.51233E-001	3.57770E+000	9	...........
	74	1	1.45606E-001	-3.99038E-004	0.00000E+000	-5.81022E-005	-2.40040E-001	1.45629E-001	3.57770E+000	9	...........
	75	1.01333	1.40099E-001	-3.98970E-004	0.00000E+000	-5.58953E-005	-2.40040E-001	1.40124E-001	3.57770E+000	9	...........
	76	1.02667	1.34660E-001	-3.98239E-004	0.00000E+000	-5.36270E-005	-2.40040E-001	1.34680E-001	3.57770E+000	9	...........
	77	1.04	1.29205E-001	-3.98374E-004	0.00000E+000	-5.14719E-005	-2.40040E-001	1.29225E-001	3.57770E+000	9	...........
	78	1.05333	1.23772E-001	-3.99528E-004	0.00000E+000	-4.94504E-005	-2.40040E-001	1.23798E-001	3.57770E+000	9	...........
	79	1.06667	1.18557E-001	-3.99259E-004	0.00000E+000	-4.73349E-005	-2.40040E-001	1.18581E-001	3.57770E+000	9	...........
	80	1.08	1.13304E-001	-3.99557E-004	0.00000E+000	-4.52715E-005	-2.40040E-001	1.13322E-001	3.57770E+000	9	...........
	81	1.09333	1.08015E-001	-3.98618E-004	0.00000E+000	-4.30566E-005	-2.40040E-001	1.08032E-001	3.57770E+000	9	...........
	82	1.10667	1.02732E-001	-3.99273E-004	0.00000E+000	-4.10183E-005	-2.40040E-001	1.02751E-001	3.57770E+000	9	...........
	83	1.12	9.74829E-002	-3.98245E-004	0.00000E+000	-3.88220E-005	-2.40040E-001	9.75007E-002	3.57770E+000	9	...........
	84	1.13333	9.22984E-002	-3.98576E-004	0.00000E+000	-3.67879E-005	-2.40040E-001	9.23168E-002	3.57770E+000	9	...........
	85	1.14667	8.70719E-002	-3.98069E-004	0.00000E+000	-3.46606E-005	-2.40040E-001	8.70881E-002	3.57770E+000	9	...........
	86	1.16	8.19260E-002	-3.99718E-004	0.00000E+000	-3.27473E-005	-2.40040E-001	8.19398E-002	3.57770E+000	9	...........
	87	1.17333	7.69265E-002	-3.99114E-004	0.00000E+000	-3.07024E-005	-2.40040E-001	7.69429E-002	3.57770E+000	9	...........
	88	1.18667	7.18066E-002	-3.98966E-004	0.00000E+000	-2.86484E-005	-2.40040E-001	7.18153E-002	3.57770E+000	9	...........
	89	1.2	6.68533E-002	-3.99009E-004	0.00000E+000	-2.66751E-005	-2.40040E-001	6.68613E-002	3.57770E+000	9	...........
	90	1.21333	6.18671E-002	-3.98641E-004	0.00000E+000	-2.46628E-005	-2.40040E-001	6.18782E-002	3.57770E+000	9	...........
	91	1.22667	5.68943E-002	-3.98625E-004	0.00000E+000	-2.26795E-005	-2.40040E-001	5.69033E-002	3.57770E+000	9	...........
	92	1.24	5.19063E-002	-3.99052E-004	0.00000E+000	-2.07133E-005	-2.40040E-001	5.19016E-002	3.57770E+000	9	...........
	93	1.25333	4.70364E-002	-3.99128E-004	0.00000E+000	-1.87735E-005	-2.40040E-001	4.70431E-002	3.57770E+000	9	...........
	94	1.26667	4.22055E-002	-3.98825E-004	0.00000E+000	-1.68326E-005	-2.40040E-001	4.22103E-002	3.57770E+000	9	...........
	95	1.28	3.73973E-002	-4.00089E-004	0.00000E+000	-1.49622E-005	-2.40040E-001	3.74034E-002	3.57770E+000	9	...........
	96	1.29333	3.26645E-002	-3.99008E-004	0.00000E+000	-1.30334E-005	-2.40040E-001	3.26611E-002	3.57770E+000	9	...........
	97	1.30667	2.78857E-002	-3.98303E-004	0.00000E+000	-1.11069E-005	-2.40040E-001	2.78862E-002	3.57770E+000	9	...........
	98	1.32	2.31739E-002	-3.98637E-004	0.00000E+000	-9.23799E-006	-2.40040E-001	2.31691E-002	3.57770E+000	9	...........
	99	1.33333	1.84550E-002	-3.99171E-004	0.00000E+000	-7.36670E-006	-2.40040E-001	1.84448E-002	3.57770E+000	9	...........
	100	1.34667	1.38354E-002	-3.98181E-004	0.00000E+000	-5.50899E-006	-2.40040E-001	1.38221E-002	3.57770E+000	9	...........
	101	1.36	9.17365E-003	-3.98926E-004	0.00000E+000	-3.65961E-006	-2.40040E-001	9.16082E-003	3.57770E+000	9	...........
	102	1.37333	4.55599E-003	-3.98230E-004	0.00000E+000	-1.81433E-006	-2.40040E-001	4.53977E-003	3.57770E+000	9	...........
	103	1.38167	8.22032E-004	-3.98394E-004	0.00000E+000	-3.27493E-007	-2.40040E-001	8.04388E-004	3.57770E+000	9	...........
STARTTIMEOFFSET	QUANT	2643.273	Start Time Offset (s)
