EXPLAIN
TAG	PWR800_DISCHARGE
TITLE	LABEL	PWR Cyclic Charge Discharge (Cell) - Discharge Step	Test &Identifier
DATE	LABEL	12-7-2017	Date
TIME	LABEL	14:36:48	Time
NOTES	NOTES	3	&Notes...
	supercap test cell
	0.4mg
	6M KOH
PSTAT	PSTAT	IFC5000-01520	Potentiostat
CAPACITY	QUANT	1.00000E-003	Capacity (A-hr)
CELLTYPE	SELECTOR	1	&Cell Type
WORKINGCONNECTION	SELECTOR	0	&Working Lead
MAXDISCHARGETIME	VARIABLEANDUNITS	1.00000E+002	s	1.00000E+002	second(s)	Max &Discharge Time
DISCHARGEMODE	MULTIPARAM	0	4.00000E-004	&Discharge Mode	Constant Current	Amp(s)
SAMPLETIME	QUANT	1.00000E-002	Sa&mple Period (s)
DISCHARGESTOPAT1	MULTIPARAM	3	0.00000E+000	Discharge Stop At &1	Voltage < Limit	V
DISCHARGESTOPAT2	MULTIPARAM	0	0.00000E+000	Discharge Stop At &2	None	N/A
AESBHCSELECTOR	TOGGLE	F	Save Both Half Cells
IRCOMP	TOGGLE	F	IR &Measure
EOC	QUANT	0	Open Circuit (V)
SEQUENCER	TOGGLE	TRUE	Run as Sequence
PSTATMODEL	IQUANT	53	Pstat Model
PSTATSECTION	LABEL	IFC5000-01520	Pstat Section
PSTATSERIALNO	LABEL	01520	Pstat Serial Number
CTRLMODE	IQUANT	0	Control Mode
ELECTROMETER	IQUANT	1	RE=0 or CS=1
IESTAB	IQUANT	0	I/E Stability
CASPEED	IQUANT	4	Control Amp Speed
CONVENTION	IQUANT	1	Current Convention
ICHRANGE	IQUANT	2	Ich Range
ICHRANGEMODE	TOGGLE	T	Ich Auto Range
ICHOFFSETENABLE	TOGGLE	F	Ich Offset Enable
ICHOFFSET	QUANT	0	Ich Offset (V)
ICHFILTER	IQUANT	1	Ich Filter
VCHRANGE	IQUANT	2	Vch Range
VCHRANGEMODE	TOGGLE	T	Vch Auto Range
VCHOFFSETENABLE	TOGGLE	F	Vch Offset Enable
VCHOFFSET	QUANT	0	Vch Offset (V)
VCHFILTER	IQUANT	1	Vch Filter
IERANGELOWERLIMIT	IQUANT	9	I/E Range Lower Limit
IERANGEMODE	TOGGLE	F	I/E AutoRange
IERANGE	IQUANT	9	I/E Range
ACHSELECT	IQUANT	1	Ach Select
ACHRANGE	IQUANT	2	Ach Range
ACHOFFSETENABLE	TOGGLE	F	Ach Offset Enable
ACHOFFSET	QUANT	0	Ach Offset (V)
ACHFILTER	IQUANT	1	Ach Filter
CABLEID	IQUANT	14	Cable ID
DCCALDATE	LABEL	5-7-2017	DC Calibration Date
ACCALDATE	LABEL	12/3/2015	AC Calibration Date
FRAMEWORKVERSION	QUANT	7.01	Framework Version
INSTRUMENTVERSION	LABEL	4.00	Instrument Version
CURVE	TABLE	121
	Pt	T	Vf	Im	Vu	Pwr	Sig	Ach	Temp	IERange	Over
	#	s	V	A	V	W	V	V	deg C	#	bits
	0	0.013333	7.09777E-001	-3.98552E-004	0.00000E+000	-2.82883E-004	-2.40040E-001	7.10008E-001	3.57620E+000	9	...........
	1	0.026667	6.98098E-001	-3.98866E-004	0.00000E+000	-2.78447E-004	-2.40040E-001	6.98330E-001	3.57620E+000	9	...........
	2	0.04	6.87789E-001	-3.98812E-004	0.00000E+000	-2.74299E-004	-2.40040E-001	6.87987E-001	3.57620E+000	9	...........
	3	0.053333	6.78218E-001	-3.98815E-004	0.00000E+000	-2.70483E-004	-2.40040E-001	6.78438E-001	3.57620E+000	9	...........
	4	0.066667	6.69236E-001	-3.99072E-004	0.00000E+000	-2.67073E-004	-2.40040E-001	6.69442E-001	3.57620E+000	9	...........
	5	0.08	6.60694E-001	-3.98862E-004	0.00000E+000	-2.63526E-004	-2.40040E-001	6.60892E-001	3.57620E+000	9	...........
	6	0.093333	6.52305E-001	-3.98127E-004	0.00000E+000	-2.59700E-004	-2.40040E-001	6.52478E-001	3.57620E+000	9	...........
	7	0.106667	6.44104E-001	-3.98174E-004	0.00000E+000	-2.56466E-004	-2.40040E-001	6.44296E-001	3.57620E+000	9	...........
	8	0.12	6.36115E-001	-3.99119E-004	0.00000E+000	-2.53886E-004	-2.40040E-001	6.36334E-001	3.57620E+000	9	...........
	9	0.133333	6.28230E-001	-3.98968E-004	0.00000E+000	-2.50643E-004	-2.40040E-001	6.28442E-001	3.57620E+000	9	...........
	10	0.146667	6.20504E-001	-3.98418E-004	0.00000E+000	-2.47220E-004	-2.40040E-001	6.20693E-001	3.57620E+000	9	...........
	11	0.16	6.12804E-001	-3.98519E-004	0.00000E+000	-2.44214E-004	-2.40040E-001	6.13071E-001	3.57620E+000	9	...........
	12	0.173333	6.05255E-001	-3.98927E-004	0.00000E+000	-2.41453E-004	-2.40040E-001	6.05503E-001	3.57620E+000	9	...........
	13	0.186667	5.97749E-001	-3.97476E-004	0.00000E+000	-2.37591E-004	-2.40040E-001	5.97995E-001	3.57620E+000	9	...........
	14	0.2	5.90495E-001	-3.98665E-004	0.00000E+000	-2.35409E-004	-2.40040E-001	5.90730E-001	3.57620E+000	9	...........
	15	0.213333	5.83117E-001	-3.98731E-004	0.00000E+000	-2.32507E-004	-2.40040E-001	5.83385E-001	3.57620E+000	9	...........
	16	0.226667	5.75831E-001	-3.99671E-004	0.00000E+000	-2.30143E-004	-2.40040E-001	5.76058E-001	3.57620E+000	9	...........
	17	0.24	5.68603E-001	-3.97803E-004	0.00000E+000	-2.26192E-004	-2.40040E-001	5.68816E-001	3.57620E+000	9	...........
	18	0.253333	5.61351E-001	-3.98352E-004	0.00000E+000	-2.23615E-004	-2.40040E-001	5.61567E-001	3.57620E+000	9	...........
	19	0.266667	5.54202E-001	-3.98851E-004	0.00000E+000	-2.21044E-004	-2.40040E-001	5.54407E-001	3.57620E+000	9	...........
	20	0.28	5.47026E-001	-4.00009E-004	0.00000E+000	-2.18815E-004	-2.40040E-001	5.47212E-001	3.57620E+000	9	...........
	21	0.293333	5.39972E-001	-3.99610E-004	0.00000E+000	-2.15778E-004	-2.40040E-001	5.40192E-001	3.57620E+000	9	...........
	22	0.306667	5.32933E-001	-3.98906E-004	0.00000E+000	-2.12590E-004	-2.40040E-001	5.33136E-001	3.57620E+000	9	...........
	23	0.32	5.25997E-001	-3.99667E-004	0.00000E+000	-2.10224E-004	-2.40040E-001	5.26196E-001	3.57620E+000	9	...........
	24	0.333333	5.18992E-001	-3.98061E-004	0.00000E+000	-2.06591E-004	-2.40040E-001	5.19189E-001	3.57620E+000	9	...........
	25	0.346667	5.12003E-001	-3.98926E-004	0.00000E+000	-2.04251E-004	-2.40040E-001	5.12234E-001	3.57620E+000	9	...........
	26	0.36	5.05103E-001	-3.99359E-004	0.00000E+000	-2.01718E-004	-2.40040E-001	5.05326E-001	3.57620E+000	9	...........
	27	0.373333	4.98258E-001	-3.98352E-004	0.00000E+000	-1.98482E-004	-2.40040E-001	4.98499E-001	3.57620E+000	9	...........
	28	0.386667	4.91509E-001	-3.98870E-004	0.00000E+000	-1.96048E-004	-2.40040E-001	4.91705E-001	3.57620E+000	9	...........
	29	0.4	4.84908E-001	-3.98623E-004	0.00000E+000	-1.93295E-004	-2.40040E-001	4.85028E-001	3.57620E+000	9	...........
	30	0.413333	4.78278E-001	-3.97663E-004	0.00000E+000	-1.90193E-004	-2.40040E-001	4.78374E-001	3.57620E+000	9	...........
	31	0.426667	4.71570E-001	-3.98960E-004	0.00000E+000	-1.88138E-004	-2.40040E-001	4.71665E-001	3.57620E+000	9	...........
	32	0.44	4.64939E-001	-3.98751E-004	0.00000E+000	-1.85395E-004	-2.40040E-001	4.65033E-001	3.57620E+000	9	...........
	33	0.453333	4.58338E-001	-3.99446E-004	0.00000E+000	-1.83081E-004	-2.40040E-001	4.58432E-001	3.57620E+000	9	...........
	34	0.466667	4.51776E-001	-3.99397E-004	0.00000E+000	-1.80438E-004	-2.40040E-001	4.51865E-001	3.57620E+000	9	...........
	35	0.48	4.45180E-001	-3.99123E-004	0.00000E+000	-1.77682E-004	-2.40040E-001	4.45272E-001	3.57620E+000	9	...........
	36	0.493333	4.38646E-001	-3.98648E-004	0.00000E+000	-1.74865E-004	-2.40040E-001	4.38742E-001	3.57620E+000	9	...........
	37	0.506667	4.32184E-001	-3.98914E-004	0.00000E+000	-1.72404E-004	-2.40040E-001	4.32275E-001	3.57620E+000	9	...........
	38	0.52	4.25725E-001	-3.99455E-004	0.00000E+000	-1.70058E-004	-2.40040E-001	4.25814E-001	3.57600E+000	9	...........
	39	0.533333	4.19337E-001	-3.99301E-004	0.00000E+000	-1.67442E-004	-2.40040E-001	4.19424E-001	3.57600E+000	9	...........
	40	0.546667	4.12996E-001	-3.98618E-004	0.00000E+000	-1.64627E-004	-2.40040E-001	4.13080E-001	3.57600E+000	9	...........
	41	0.56	4.06636E-001	-3.96774E-004	0.00000E+000	-1.61342E-004	-2.40040E-001	4.06717E-001	3.57600E+000	9	...........
	42	0.573333	4.00318E-001	-3.99113E-004	0.00000E+000	-1.59772E-004	-2.40040E-001	4.00390E-001	3.57600E+000	9	...........
	43	0.586667	3.94031E-001	-3.98509E-004	0.00000E+000	-1.57025E-004	-2.40040E-001	3.94112E-001	3.57600E+000	9	...........
	44	0.6	3.87711E-001	-3.99304E-004	0.00000E+000	-1.54814E-004	-2.40040E-001	3.87781E-001	3.57600E+000	9	...........
	45	0.613333	3.81513E-001	-3.97573E-004	0.00000E+000	-1.51679E-004	-2.40040E-001	3.81592E-001	3.57600E+000	9	...........
	46	0.626667	3.75333E-001	-3.98252E-004	0.00000E+000	-1.49477E-004	-2.40040E-001	3.75402E-001	3.57600E+000	9	...........
	47	0.64	3.69259E-001	-3.99181E-004	0.00000E+000	-1.47401E-004	-2.40040E-001	3.69325E-001	3.57600E+000	9	...........
	48	0.653333	3.63120E-001	-3.99277E-004	0.00000E+000	-1.44985E-004	-2.40040E-001	3.63188E-001	3.57600E+000	9	...........
	49	0.666667	3.56930E-001	-3.99631E-004	0.00000E+000	-1.42640E-004	-2.40040E-001	3.57002E-001	3.57600E+000	9	...........
	50	0.68	3.50904E-001	-3.97820E-004	0.00000E+000	-1.39597E-004	-2.40040E-001	3.50972E-001	3.57600E+000	9	...........
	51	0.693333	3.44908E-001	-3.99924E-004	0.00000E+000	-1.37937E-004	-2.40040E-001	3.44979E-001	3.57600E+000	9	...........
	52	0.706667	3.38992E-001	-3.98975E-004	0.00000E+000	-1.35249E-004	-2.40040E-001	3.39055E-001	3.57600E+000	9	...........
	53	0.72	3.33128E-001	-3.97929E-004	0.00000E+000	-1.32561E-004	-2.40040E-001	3.33192E-001	3.57600E+000	9	...........
	54	0.733333	3.27250E-001	-3.98770E-004	0.00000E+000	-1.30498E-004	-2.40040E-001	3.27313E-001	3.57600E+000	9	...........
	55	0.746667	3.21382E-001	-3.98628E-004	0.00000E+000	-1.28112E-004	-2.40040E-001	3.21444E-001	3.57600E+000	9	...........
	56	0.76	3.15476E-001	-3.98528E-004	0.00000E+000	-1.25726E-004	-2.40040E-001	3.15538E-001	3.57600E+000	9	...........
	57	0.773333	3.09719E-001	-3.98865E-004	0.00000E+000	-1.23536E-004	-2.40040E-001	3.09783E-001	3.57600E+000	9	...........
	58	0.786667	3.03923E-001	-3.98615E-004	0.00000E+000	-1.21148E-004	-2.40040E-001	3.03982E-001	3.57600E+000	9	...........
	59	0.8	2.98187E-001	-3.98907E-004	0.00000E+000	-1.18949E-004	-2.40040E-001	2.98246E-001	3.57600E+000	9	...........
	60	0.813333	2.92523E-001	-3.99929E-004	0.00000E+000	-1.16989E-004	-2.40040E-001	2.92584E-001	3.57600E+000	9	...........
	61	0.826667	2.86787E-001	-3.98214E-004	0.00000E+000	-1.14203E-004	-2.40040E-001	2.86852E-001	3.57600E+000	9	...........
	62	0.84	2.81220E-001	-3.99378E-004	0.00000E+000	-1.12313E-004	-2.40040E-001	2.81285E-001	3.57600E+000	9	...........
	63	0.853333	2.75754E-001	-4.00366E-004	0.00000E+000	-1.10403E-004	-2.40040E-001	2.75815E-001	3.57600E+000	9	...........
	64	0.866667	2.70208E-001	-3.99764E-004	0.00000E+000	-1.08019E-004	-2.40040E-001	2.70267E-001	3.57600E+000	9	...........
	65	0.88	2.64631E-001	-3.98875E-004	0.00000E+000	-1.05555E-004	-2.40040E-001	2.64686E-001	3.57600E+000	9	...........
	66	0.893333	2.59004E-001	-3.99102E-004	0.00000E+000	-1.03369E-004	-2.40040E-001	2.59062E-001	3.57600E+000	9	...........
	67	0.906667	2.53578E-001	-3.97655E-004	0.00000E+000	-1.00836E-004	-2.40040E-001	2.53635E-001	3.57600E+000	9	...........
	68	0.92	2.48134E-001	-3.98615E-004	0.00000E+000	-9.89099E-005	-2.40040E-001	2.48187E-001	3.57600E+000	9	...........
	69	0.933333	2.42733E-001	-3.98709E-004	0.00000E+000	-9.67798E-005	-2.40040E-001	2.42780E-001	3.57600E+000	9	...........
	70	0.946667	2.37342E-001	-3.97900E-004	0.00000E+000	-9.44383E-005	-2.40040E-001	2.37386E-001	3.57600E+000	9	...........
	71	0.96	2.31971E-001	-3.98473E-004	0.00000E+000	-9.24343E-005	-2.40040E-001	2.32014E-001	3.57600E+000	9	...........
	72	0.97333	2.26713E-001	-3.97498E-004	0.00000E+000	-9.01177E-005	-2.40040E-001	2.26754E-001	3.57600E+000	9	...........
	73	0.98667	2.21473E-001	-3.97933E-004	0.00000E+000	-8.81314E-005	-2.40040E-001	2.21514E-001	3.57600E+000	9	...........
	74	1	2.16161E-001	-3.97339E-004	0.00000E+000	-8.58891E-005	-2.40040E-001	2.16203E-001	3.57600E+000	9	...........
	75	1.01333	2.10997E-001	-3.99106E-004	0.00000E+000	-8.42102E-005	-2.40040E-001	2.11033E-001	3.57600E+000	9	...........
	76	1.02667	2.05677E-001	-3.99031E-004	0.00000E+000	-8.20716E-005	-2.40040E-001	2.05714E-001	3.57600E+000	9	...........
	77	1.04	2.00331E-001	-3.99057E-004	0.00000E+000	-7.99436E-005	-2.40040E-001	2.00375E-001	3.57600E+000	9	...........
	78	1.05333	1.95163E-001	-3.98735E-004	0.00000E+000	-7.78186E-005	-2.40040E-001	1.95201E-001	3.57600E+000	9	...........
	79	1.06667	1.90084E-001	-3.97789E-004	0.00000E+000	-7.56132E-005	-2.40040E-001	1.90120E-001	3.57600E+000	9	...........
	80	1.08	1.85037E-001	-3.99033E-004	0.00000E+000	-7.38358E-005	-2.40040E-001	1.85071E-001	3.57600E+000	9	...........
	81	1.09333	1.79894E-001	-3.99208E-004	0.00000E+000	-7.18153E-005	-2.40040E-001	1.79933E-001	3.57600E+000	9	...........
	82	1.10667	1.74802E-001	-3.99829E-004	0.00000E+000	-6.98910E-005	-2.40040E-001	1.74834E-001	3.57600E+000	9	...........
	83	1.12	1.69765E-001	-3.98816E-004	0.00000E+000	-6.77048E-005	-2.40040E-001	1.69799E-001	3.57600E+000	9	...........
	84	1.13333	1.64877E-001	-3.98837E-004	0.00000E+000	-6.57593E-005	-2.40040E-001	1.64903E-001	3.57600E+000	9	...........
	85	1.14667	1.59873E-001	-3.99414E-004	0.00000E+000	-6.38554E-005	-2.40040E-001	1.59895E-001	3.57600E+000	9	...........
	86	1.16	1.54865E-001	-3.98628E-004	0.00000E+000	-6.17337E-005	-2.40040E-001	1.54888E-001	3.57600E+000	9	...........
	87	1.17333	1.49926E-001	-3.98454E-004	0.00000E+000	-5.97388E-005	-2.40040E-001	1.49956E-001	3.57600E+000	9	...........
	88	1.18667	1.45114E-001	-3.99424E-004	0.00000E+000	-5.79620E-005	-2.40040E-001	1.45140E-001	3.57600E+000	9	...........
	89	1.2	1.40227E-001	-3.98744E-004	0.00000E+000	-5.59145E-005	-2.40040E-001	1.40250E-001	3.57600E+000	9	...........
	90	1.21333	1.35333E-001	-3.99106E-004	0.00000E+000	-5.40122E-005	-2.40040E-001	1.35351E-001	3.57600E+000	9	...........
	91	1.22667	1.30474E-001	-3.98147E-004	0.00000E+000	-5.19477E-005	-2.40040E-001	1.30487E-001	3.57600E+000	9	...........
	92	1.24	1.25706E-001	-3.97379E-004	0.00000E+000	-4.99527E-005	-2.40040E-001	1.25728E-001	3.57600E+000	9	...........
	93	1.25333	1.20859E-001	-3.99736E-004	0.00000E+000	-4.83117E-005	-2.40040E-001	1.20887E-001	3.57600E+000	9	...........
	94	1.26667	1.16044E-001	-3.99429E-004	0.00000E+000	-4.63513E-005	-2.40040E-001	1.16064E-001	3.57600E+000	9	...........
	95	1.28	1.11344E-001	-3.99158E-004	0.00000E+000	-4.44439E-005	-2.40040E-001	1.11368E-001	3.57600E+000	9	...........
	96	1.29333	1.06710E-001	-3.98559E-004	0.00000E+000	-4.25302E-005	-2.40040E-001	1.06735E-001	3.57600E+000	9	...........
	97	1.30667	1.01977E-001	-3.99912E-004	0.00000E+000	-4.07820E-005	-2.40040E-001	1.01998E-001	3.57600E+000	9	...........
	98	1.32	9.73160E-002	-3.99058E-004	0.00000E+000	-3.88348E-005	-2.40040E-001	9.73354E-002	3.57600E+000	9	...........
	99	1.33333	9.26585E-002	-3.99267E-004	0.00000E+000	-3.69955E-005	-2.40040E-001	9.26777E-002	3.57600E+000	9	...........
	100	1.34667	8.80947E-002	-3.98496E-004	0.00000E+000	-3.51054E-005	-2.40040E-001	8.81090E-002	3.57600E+000	9	...........
	101	1.36	8.36636E-002	-3.98511E-004	0.00000E+000	-3.33409E-005	-2.40040E-001	8.36741E-002	3.57600E+000	9	...........
	102	1.37333	7.91105E-002	-3.99720E-004	0.00000E+000	-3.16221E-005	-2.40040E-001	7.91193E-002	3.57600E+000	9	...........
	103	1.38667	7.45601E-002	-3.98604E-004	0.00000E+000	-2.97199E-005	-2.40040E-001	7.45689E-002	3.57600E+000	9	...........
	104	1.4	7.00918E-002	-3.98560E-004	0.00000E+000	-2.79358E-005	-2.40040E-001	7.01058E-002	3.57600E+000	9	...........
	105	1.41333	6.54841E-002	-3.98606E-004	0.00000E+000	-2.61024E-005	-2.40040E-001	6.54956E-002	3.57600E+000	9	...........
	106	1.42667	6.09662E-002	-3.98290E-004	0.00000E+000	-2.42822E-005	-2.40040E-001	6.09781E-002	3.57600E+000	9	...........
	107	1.44	5.65539E-002	-3.98483E-004	0.00000E+000	-2.25358E-005	-2.40040E-001	5.65575E-002	3.57600E+000	9	...........
	108	1.45333	5.20388E-002	-3.97924E-004	0.00000E+000	-2.07075E-005	-2.40040E-001	5.20466E-002	3.57600E+000	9	...........
	109	1.46667	4.76551E-002	-3.99200E-004	0.00000E+000	-1.90239E-005	-2.40040E-001	4.76635E-002	3.57600E+000	9	...........
	110	1.48	4.33834E-002	-3.99580E-004	0.00000E+000	-1.73352E-005	-2.40040E-001	4.33945E-002	3.57600E+000	9	...........
	111	1.49333	3.89448E-002	-3.98603E-004	0.00000E+000	-1.55235E-005	-2.40040E-001	3.89513E-002	3.57600E+000	9	...........
	112	1.50667	3.45657E-002	-3.97462E-004	0.00000E+000	-1.37386E-005	-2.40040E-001	3.45737E-002	3.57600E+000	9	...........
	113	1.52	3.02609E-002	-3.98374E-004	0.00000E+000	-1.20551E-005	-2.40040E-001	3.02661E-002	3.57650E+000	9	...........
	114	1.53333	2.60325E-002	-3.98498E-004	0.00000E+000	-1.03739E-005	-2.40040E-001	2.60348E-002	3.57650E+000	9	...........
	115	1.54667	2.18510E-002	-3.97620E-004	0.00000E+000	-8.68837E-006	-2.40040E-001	2.18496E-002	3.57650E+000	9	...........
	116	1.56	1.75668E-002	-3.98714E-004	0.00000E+000	-7.00413E-006	-2.40040E-001	1.75579E-002	3.57650E+000	9	...........
	117	1.57333	1.31976E-002	-3.98839E-004	0.00000E+000	-5.26372E-006	-2.40040E-001	1.31835E-002	3.57650E+000	9	...........
	118	1.58667	8.91170E-003	-3.98697E-004	0.00000E+000	-3.55307E-006	-2.40040E-001	8.90257E-003	3.57650E+000	9	...........
	119	1.6	4.66580E-003	-3.99229E-004	0.00000E+000	-1.86272E-006	-2.40040E-001	4.65331E-003	3.57650E+000	9	...........
	120	1.61	9.89222E-004	-3.98899E-004	0.00000E+000	-3.94600E-007	-2.40040E-001	9.73006E-004	3.57650E+000	9	...........
STARTTIMEOFFSET	QUANT	875.1469	Start Time Offset (s)
