EXPLAIN
TAG	PWR800_DISCHARGE
TITLE	LABEL	PWR Cyclic Charge Discharge (Cell) - Discharge Step	Test &Identifier
DATE	LABEL	12-7-2017	Date
TIME	LABEL	15:06:05	Time
NOTES	NOTES	3	&Notes...
	supercap test cell
	0.4mg
	6M KOH
PSTAT	PSTAT	IFC5000-01520	Potentiostat
CAPACITY	QUANT	1.00000E-003	Capacity (A-hr)
CELLTYPE	SELECTOR	1	&Cell Type
WORKINGCONNECTION	SELECTOR	0	&Working Lead
MAXDISCHARGETIME	VARIABLEANDUNITS	1.00000E+002	s	1.00000E+002	second(s)	Max &Discharge Time
DISCHARGEMODE	MULTIPARAM	0	4.00000E-004	&Discharge Mode	Constant Current	Amp(s)
SAMPLETIME	QUANT	1.00000E-002	Sa&mple Period (s)
DISCHARGESTOPAT1	MULTIPARAM	3	0.00000E+000	Discharge Stop At &1	Voltage < Limit	V
DISCHARGESTOPAT2	MULTIPARAM	0	0.00000E+000	Discharge Stop At &2	None	N/A
AESBHCSELECTOR	TOGGLE	F	Save Both Half Cells
IRCOMP	TOGGLE	F	IR &Measure
EOC	QUANT	0	Open Circuit (V)
SEQUENCER	TOGGLE	TRUE	Run as Sequence
PSTATMODEL	IQUANT	53	Pstat Model
PSTATSECTION	LABEL	IFC5000-01520	Pstat Section
PSTATSERIALNO	LABEL	01520	Pstat Serial Number
CTRLMODE	IQUANT	0	Control Mode
ELECTROMETER	IQUANT	1	RE=0 or CS=1
IESTAB	IQUANT	0	I/E Stability
CASPEED	IQUANT	4	Control Amp Speed
CONVENTION	IQUANT	1	Current Convention
ICHRANGE	IQUANT	2	Ich Range
ICHRANGEMODE	TOGGLE	T	Ich Auto Range
ICHOFFSETENABLE	TOGGLE	F	Ich Offset Enable
ICHOFFSET	QUANT	0	Ich Offset (V)
ICHFILTER	IQUANT	1	Ich Filter
VCHRANGE	IQUANT	2	Vch Range
VCHRANGEMODE	TOGGLE	T	Vch Auto Range
VCHOFFSETENABLE	TOGGLE	F	Vch Offset Enable
VCHOFFSET	QUANT	0	Vch Offset (V)
VCHFILTER	IQUANT	1	Vch Filter
IERANGELOWERLIMIT	IQUANT	9	I/E Range Lower Limit
IERANGEMODE	TOGGLE	F	I/E AutoRange
IERANGE	IQUANT	9	I/E Range
ACHSELECT	IQUANT	1	Ach Select
ACHRANGE	IQUANT	2	Ach Range
ACHOFFSETENABLE	TOGGLE	F	Ach Offset Enable
ACHOFFSET	QUANT	0	Ach Offset (V)
ACHFILTER	IQUANT	1	Ach Filter
CABLEID	IQUANT	14	Cable ID
DCCALDATE	LABEL	5-7-2017	DC Calibration Date
ACCALDATE	LABEL	12/3/2015	AC Calibration Date
FRAMEWORKVERSION	QUANT	7.01	Framework Version
INSTRUMENTVERSION	LABEL	4.00	Instrument Version
CURVE	TABLE	107
	Pt	T	Vf	Im	Vu	Pwr	Sig	Ach	Temp	IERange	Over
	#	s	V	A	V	W	V	V	deg C	#	bits
	0	0.013333	6.91562E-001	-3.98399E-004	0.00000E+000	-2.75517E-004	-2.40040E-001	6.91790E-001	3.57630E+000	9	...........
	1	0.026667	6.78400E-001	-3.99355E-004	0.00000E+000	-2.70923E-004	-2.40040E-001	6.78602E-001	3.57630E+000	9	...........
	2	0.04	6.66868E-001	-3.99287E-004	0.00000E+000	-2.66271E-004	-2.40040E-001	6.67068E-001	3.57630E+000	9	...........
	3	0.053333	6.56370E-001	-3.99055E-004	0.00000E+000	-2.61928E-004	-2.40040E-001	6.56549E-001	3.57630E+000	9	...........
	4	0.066667	6.46415E-001	-3.98308E-004	0.00000E+000	-2.57473E-004	-2.40040E-001	6.46609E-001	3.57630E+000	9	...........
	5	0.08	6.36927E-001	-3.98857E-004	0.00000E+000	-2.54043E-004	-2.40040E-001	6.37123E-001	3.57630E+000	9	...........
	6	0.093333	6.27745E-001	-3.98190E-004	0.00000E+000	-2.49962E-004	-2.40040E-001	6.27917E-001	3.57630E+000	9	...........
	7	0.106667	6.18789E-001	-3.98828E-004	0.00000E+000	-2.46790E-004	-2.40040E-001	6.18967E-001	3.57630E+000	9	...........
	8	0.12	6.10041E-001	-3.98933E-004	0.00000E+000	-2.43366E-004	-2.40040E-001	6.10241E-001	3.57630E+000	9	...........
	9	0.133333	6.01507E-001	-3.97842E-004	0.00000E+000	-2.39305E-004	-2.40040E-001	6.01737E-001	3.57630E+000	9	...........
	10	0.146667	5.93097E-001	-3.99165E-004	0.00000E+000	-2.36743E-004	-2.40040E-001	5.93318E-001	3.57630E+000	9	...........
	11	0.16	5.84810E-001	-3.98647E-004	0.00000E+000	-2.33133E-004	-2.40040E-001	5.85031E-001	3.57630E+000	9	...........
	12	0.173333	5.76583E-001	-3.97953E-004	0.00000E+000	-2.29453E-004	-2.40040E-001	5.76826E-001	3.57630E+000	9	...........
	13	0.186667	5.68485E-001	-3.98683E-004	0.00000E+000	-2.26646E-004	-2.40040E-001	5.68726E-001	3.57630E+000	9	...........
	14	0.2	5.60321E-001	-3.98073E-004	0.00000E+000	-2.23049E-004	-2.40040E-001	5.60585E-001	3.57630E+000	9	...........
	15	0.213333	5.52264E-001	-3.99038E-004	0.00000E+000	-2.20374E-004	-2.40040E-001	5.52511E-001	3.57630E+000	9	...........
	16	0.226667	5.44291E-001	-3.98881E-004	0.00000E+000	-2.17108E-004	-2.40040E-001	5.44532E-001	3.57630E+000	9	...........
	17	0.24	5.36362E-001	-3.97214E-004	0.00000E+000	-2.13051E-004	-2.40040E-001	5.36587E-001	3.57630E+000	9	...........
	18	0.253333	5.28526E-001	-3.98824E-004	0.00000E+000	-2.10789E-004	-2.40040E-001	5.28751E-001	3.57630E+000	9	...........
	19	0.266667	5.20784E-001	-3.98341E-004	0.00000E+000	-2.07449E-004	-2.40040E-001	5.20970E-001	3.57630E+000	9	...........
	20	0.28	5.13052E-001	-4.00260E-004	0.00000E+000	-2.05354E-004	-2.40040E-001	5.13249E-001	3.57630E+000	9	...........
	21	0.293333	5.05349E-001	-3.99661E-004	0.00000E+000	-2.01968E-004	-2.40040E-001	5.05560E-001	3.57630E+000	9	...........
	22	0.306667	4.97825E-001	-3.99781E-004	0.00000E+000	-1.99021E-004	-2.40040E-001	4.98010E-001	3.57630E+000	9	...........
	23	0.32	4.90253E-001	-3.98671E-004	0.00000E+000	-1.95449E-004	-2.40040E-001	4.90409E-001	3.57630E+000	9	...........
	24	0.333333	4.82902E-001	-3.98395E-004	0.00000E+000	-1.92386E-004	-2.40040E-001	4.83004E-001	3.57630E+000	9	...........
	25	0.346667	4.75444E-001	-3.98812E-004	0.00000E+000	-1.89613E-004	-2.40040E-001	4.75542E-001	3.57630E+000	9	...........
	26	0.36	4.68032E-001	-3.99363E-004	0.00000E+000	-1.86915E-004	-2.40040E-001	4.68129E-001	3.57630E+000	9	...........
	27	0.373333	4.60616E-001	-3.98501E-004	0.00000E+000	-1.83556E-004	-2.40040E-001	4.60707E-001	3.57630E+000	9	...........
	28	0.386667	4.53194E-001	-3.99141E-004	0.00000E+000	-1.80888E-004	-2.40040E-001	4.53288E-001	3.57630E+000	9	...........
	29	0.4	4.45876E-001	-3.98357E-004	0.00000E+000	-1.77618E-004	-2.40040E-001	4.45973E-001	3.57630E+000	9	...........
	30	0.413333	4.38613E-001	-3.99870E-004	0.00000E+000	-1.75388E-004	-2.40040E-001	4.38702E-001	3.57630E+000	9	...........
	31	0.426667	4.31349E-001	-3.98759E-004	0.00000E+000	-1.72004E-004	-2.40040E-001	4.31432E-001	3.57630E+000	9	...........
	32	0.44	4.24107E-001	-3.98685E-004	0.00000E+000	-1.69085E-004	-2.40040E-001	4.24194E-001	3.57630E+000	9	...........
	33	0.453333	4.16936E-001	-3.98640E-004	0.00000E+000	-1.66207E-004	-2.40040E-001	4.17021E-001	3.57630E+000	9	...........
	34	0.466667	4.09850E-001	-3.98018E-004	0.00000E+000	-1.63127E-004	-2.40040E-001	4.09929E-001	3.57630E+000	9	...........
	35	0.48	4.02766E-001	-3.98804E-004	0.00000E+000	-1.60625E-004	-2.40040E-001	4.02842E-001	3.57630E+000	9	...........
	36	0.493333	3.95720E-001	-3.98973E-004	0.00000E+000	-1.57881E-004	-2.40040E-001	3.95794E-001	3.57630E+000	9	...........
	37	0.506667	3.88689E-001	-3.98279E-004	0.00000E+000	-1.54807E-004	-2.40040E-001	3.88765E-001	3.57630E+000	9	...........
	38	0.52	3.81703E-001	-3.98951E-004	0.00000E+000	-1.52281E-004	-2.40040E-001	3.81775E-001	3.57630E+000	9	...........
	39	0.533333	3.74838E-001	-3.96183E-004	0.00000E+000	-1.48504E-004	-2.40040E-001	3.74906E-001	3.57630E+000	9	...........
	40	0.546667	3.67966E-001	-3.97086E-004	0.00000E+000	-1.46114E-004	-2.40040E-001	3.68041E-001	3.57630E+000	9	...........
	41	0.56	3.61113E-001	-3.98684E-004	0.00000E+000	-1.43970E-004	-2.40040E-001	3.61182E-001	3.57630E+000	9	...........
	42	0.573333	3.54323E-001	-3.98569E-004	0.00000E+000	-1.41222E-004	-2.40040E-001	3.54390E-001	3.57630E+000	9	...........
	43	0.586667	3.47542E-001	-3.98781E-004	0.00000E+000	-1.38593E-004	-2.40040E-001	3.47612E-001	3.57630E+000	9	...........
	44	0.6	3.40780E-001	-3.99544E-004	0.00000E+000	-1.36157E-004	-2.40040E-001	3.40844E-001	3.57630E+000	9	...........
	45	0.613333	3.34112E-001	-3.98352E-004	0.00000E+000	-1.33094E-004	-2.40040E-001	3.34174E-001	3.57630E+000	9	...........
	46	0.626667	3.27630E-001	-3.99117E-004	0.00000E+000	-1.30763E-004	-2.40040E-001	3.27692E-001	3.57630E+000	9	...........
	47	0.64	3.21119E-001	-3.99417E-004	0.00000E+000	-1.28260E-004	-2.40040E-001	3.21181E-001	3.57630E+000	9	...........
	48	0.653333	3.14598E-001	-3.99499E-004	0.00000E+000	-1.25682E-004	-2.40040E-001	3.14664E-001	3.57630E+000	9	...........
	49	0.666667	3.08122E-001	-3.98954E-004	0.00000E+000	-1.22927E-004	-2.40040E-001	3.08181E-001	3.57630E+000	9	...........
	50	0.68	3.01704E-001	-3.98704E-004	0.00000E+000	-1.20291E-004	-2.40040E-001	3.01766E-001	3.57630E+000	9	...........
	51	0.693333	2.95273E-001	-3.99615E-004	0.00000E+000	-1.17995E-004	-2.40040E-001	2.95338E-001	3.57630E+000	9	...........
	52	0.706667	2.88864E-001	-3.98928E-004	0.00000E+000	-1.15236E-004	-2.40040E-001	2.88924E-001	3.57630E+000	9	...........
	53	0.72	2.82513E-001	-3.99234E-004	0.00000E+000	-1.12789E-004	-2.40040E-001	2.82571E-001	3.57630E+000	9	...........
	54	0.733333	2.76173E-001	-4.00200E-004	0.00000E+000	-1.10524E-004	-2.40040E-001	2.76230E-001	3.57630E+000	9	...........
	55	0.746667	2.69932E-001	-3.98876E-004	0.00000E+000	-1.07669E-004	-2.40040E-001	2.69985E-001	3.57630E+000	9	...........
	56	0.76	2.63780E-001	-3.98107E-004	0.00000E+000	-1.05013E-004	-2.40040E-001	2.63832E-001	3.57630E+000	9	...........
	57	0.773333	2.57654E-001	-3.97610E-004	0.00000E+000	-1.02446E-004	-2.40040E-001	2.57711E-001	3.57630E+000	9	...........
	58	0.786667	2.51578E-001	-3.98662E-004	0.00000E+000	-1.00295E-004	-2.40040E-001	2.51631E-001	3.57630E+000	9	...........
	59	0.8	2.45504E-001	-3.98892E-004	0.00000E+000	-9.79295E-005	-2.40040E-001	2.45547E-001	3.57630E+000	9	...........
	60	0.813333	2.39482E-001	-3.99213E-004	0.00000E+000	-9.56042E-005	-2.40040E-001	2.39524E-001	3.57630E+000	9	...........
	61	0.826667	2.33452E-001	-3.97756E-004	0.00000E+000	-9.28568E-005	-2.40040E-001	2.33494E-001	3.57630E+000	9	...........
	62	0.84	2.27518E-001	-3.99814E-004	0.00000E+000	-9.09648E-005	-2.40040E-001	2.27562E-001	3.57647E+000	9	...........
	63	0.853333	2.21630E-001	-3.98485E-004	0.00000E+000	-8.83162E-005	-2.40040E-001	2.21674E-001	3.57770E+000	9	...........
	64	0.866667	2.15773E-001	-3.99350E-004	0.00000E+000	-8.61692E-005	-2.40040E-001	2.15815E-001	3.57770E+000	9	...........
	65	0.88	2.09954E-001	-3.98704E-004	0.00000E+000	-8.37095E-005	-2.40040E-001	2.09992E-001	3.57770E+000	9	...........
	66	0.893333	2.04171E-001	-3.98462E-004	0.00000E+000	-8.13544E-005	-2.40040E-001	2.04208E-001	3.57770E+000	9	...........
	67	0.906667	1.98461E-001	-3.99137E-004	0.00000E+000	-7.92131E-005	-2.40040E-001	1.98495E-001	3.57770E+000	9	...........
	68	0.92	1.92728E-001	-3.98310E-004	0.00000E+000	-7.67656E-005	-2.40040E-001	1.92762E-001	3.57770E+000	9	...........
	69	0.933333	1.86942E-001	-3.99342E-004	0.00000E+000	-7.46536E-005	-2.40040E-001	1.86978E-001	3.57770E+000	9	...........
	70	0.946667	1.81253E-001	-3.98965E-004	0.00000E+000	-7.23135E-005	-2.40040E-001	1.81296E-001	3.57770E+000	9	...........
	71	0.96	1.75581E-001	-3.98598E-004	0.00000E+000	-6.99860E-005	-2.40040E-001	1.75616E-001	3.57770E+000	9	...........
	72	0.97333	1.70032E-001	-3.99019E-004	0.00000E+000	-6.78459E-005	-2.40040E-001	1.70068E-001	3.57770E+000	9	...........
	73	0.98667	1.64598E-001	-3.98188E-004	0.00000E+000	-6.55411E-005	-2.40040E-001	1.64630E-001	3.57770E+000	9	...........
	74	1	1.59104E-001	-3.98150E-004	0.00000E+000	-6.33474E-005	-2.40040E-001	1.59138E-001	3.57770E+000	9	...........
	75	1.01333	1.53638E-001	-3.98958E-004	0.00000E+000	-6.12950E-005	-2.40040E-001	1.53666E-001	3.57770E+000	9	...........
	76	1.02667	1.48282E-001	-3.99185E-004	0.00000E+000	-5.91919E-005	-2.40040E-001	1.48310E-001	3.57770E+000	9	...........
	77	1.04	1.42923E-001	-3.99121E-004	0.00000E+000	-5.70436E-005	-2.40040E-001	1.42946E-001	3.57770E+000	9	...........
	78	1.05333	1.37554E-001	-3.99056E-004	0.00000E+000	-5.48916E-005	-2.40040E-001	1.37578E-001	3.57770E+000	9	...........
	79	1.06667	1.32178E-001	-3.98582E-004	0.00000E+000	-5.26839E-005	-2.40040E-001	1.32203E-001	3.57770E+000	9	...........
	80	1.08	1.26886E-001	-3.98582E-004	0.00000E+000	-5.05744E-005	-2.40040E-001	1.26907E-001	3.57770E+000	9	...........
	81	1.09333	1.21643E-001	-4.00600E-004	0.00000E+000	-4.87302E-005	-2.40040E-001	1.21667E-001	3.57770E+000	9	...........
	82	1.10667	1.16462E-001	-3.97305E-004	0.00000E+000	-4.62710E-005	-2.40040E-001	1.16478E-001	3.57770E+000	9	...........
	83	1.12	1.11364E-001	-3.97987E-004	0.00000E+000	-4.43215E-005	-2.40040E-001	1.11386E-001	3.57770E+000	9	...........
	84	1.13333	1.06171E-001	-3.98839E-004	0.00000E+000	-4.23451E-005	-2.40040E-001	1.06191E-001	3.57770E+000	9	...........
	85	1.14667	1.00995E-001	-3.99807E-004	0.00000E+000	-4.03785E-005	-2.40040E-001	1.01012E-001	3.57770E+000	9	...........
	86	1.16	9.58529E-002	-3.99214E-004	0.00000E+000	-3.82658E-005	-2.40040E-001	9.58651E-002	3.57770E+000	9	...........
	87	1.17333	9.07263E-002	-3.98889E-004	0.00000E+000	-3.61897E-005	-2.40040E-001	9.07388E-002	3.57770E+000	9	...........
	88	1.18667	8.57281E-002	-3.98445E-004	0.00000E+000	-3.41579E-005	-2.40040E-001	8.57447E-002	3.57770E+000	9	...........
	89	1.2	8.07583E-002	-3.99566E-004	0.00000E+000	-3.22682E-005	-2.40040E-001	8.07671E-002	3.57770E+000	9	...........
	90	1.21333	7.57714E-002	-3.98803E-004	0.00000E+000	-3.02179E-005	-2.40040E-001	7.57788E-002	3.57770E+000	9	...........
	91	1.22667	7.07904E-002	-3.98943E-004	0.00000E+000	-2.82413E-005	-2.40040E-001	7.08030E-002	3.57770E+000	9	...........
	92	1.24	6.58590E-002	-3.99539E-004	0.00000E+000	-2.63132E-005	-2.40040E-001	6.58656E-002	3.57770E+000	9	...........
	93	1.25333	6.09814E-002	-3.99271E-004	0.00000E+000	-2.43481E-005	-2.40040E-001	6.09846E-002	3.57770E+000	9	...........
	94	1.26667	5.61380E-002	-3.98004E-004	0.00000E+000	-2.23432E-005	-2.40040E-001	5.61433E-002	3.57770E+000	9	...........
	95	1.28	5.14434E-002	-3.98112E-004	0.00000E+000	-2.04802E-005	-2.40040E-001	5.14507E-002	3.57770E+000	9	...........
	96	1.29333	4.67020E-002	-3.99430E-004	0.00000E+000	-1.86542E-005	-2.40040E-001	4.67052E-002	3.57770E+000	9	...........
	97	1.30667	4.19747E-002	-3.98512E-004	0.00000E+000	-1.67274E-005	-2.40040E-001	4.19771E-002	3.57770E+000	9	...........
	98	1.32	3.71646E-002	-3.99005E-004	0.00000E+000	-1.48289E-005	-2.40040E-001	3.71668E-002	3.57770E+000	9	...........
	99	1.33333	3.23998E-002	-3.99127E-004	0.00000E+000	-1.29316E-005	-2.40040E-001	3.23986E-002	3.57770E+000	9	...........
	100	1.34667	2.77059E-002	-3.99123E-004	0.00000E+000	-1.10581E-005	-2.40040E-001	2.77036E-002	3.57770E+000	9	...........
	101	1.36	2.31105E-002	-3.98930E-004	0.00000E+000	-9.21949E-006	-2.40040E-001	2.30981E-002	3.57770E+000	9	...........
	102	1.37333	1.85659E-002	-3.99551E-004	0.00000E+000	-7.41801E-006	-2.40040E-001	1.85565E-002	3.57770E+000	9	...........
	103	1.38667	1.39995E-002	-3.98428E-004	0.00000E+000	-5.57778E-006	-2.40040E-001	1.39851E-002	3.57770E+000	9	...........
	104	1.4	9.37564E-003	-3.98720E-004	0.00000E+000	-3.73825E-006	-2.40040E-001	9.36338E-003	3.57770E+000	9	...........
	105	1.41333	4.82115E-003	-3.97337E-004	0.00000E+000	-1.91562E-006	-2.40040E-001	4.80260E-003	3.57770E+000	9	...........
	106	1.42333	8.96036E-004	-3.99167E-004	0.00000E+000	-3.57669E-007	-2.40040E-001	8.71895E-004	3.57770E+000	9	...........
STARTTIMEOFFSET	QUANT	2257.825	Start Time Offset (s)
