EXPLAIN
TAG	PWR800_DISCHARGE
TITLE	LABEL	PWR Cyclic Charge Discharge (Cell) - Discharge Step	Test &Identifier
DATE	LABEL	12-7-2017	Date
TIME	LABEL	14:24:33	Time
NOTES	NOTES	3	&Notes...
	supercap test cell
	0.4mg
	6M KOH
PSTAT	PSTAT	IFC5000-01520	Potentiostat
CAPACITY	QUANT	1.00000E-003	Capacity (A-hr)
CELLTYPE	SELECTOR	1	&Cell Type
WORKINGCONNECTION	SELECTOR	0	&Working Lead
MAXDISCHARGETIME	VARIABLEANDUNITS	1.00000E+002	s	1.00000E+002	second(s)	Max &Discharge Time
DISCHARGEMODE	MULTIPARAM	0	4.00000E-004	&Discharge Mode	Constant Current	Amp(s)
SAMPLETIME	QUANT	1.00000E-002	Sa&mple Period (s)
DISCHARGESTOPAT1	MULTIPARAM	3	0.00000E+000	Discharge Stop At &1	Voltage < Limit	V
DISCHARGESTOPAT2	MULTIPARAM	0	0.00000E+000	Discharge Stop At &2	None	N/A
AESBHCSELECTOR	TOGGLE	F	Save Both Half Cells
IRCOMP	TOGGLE	F	IR &Measure
EOC	QUANT	0	Open Circuit (V)
SEQUENCER	TOGGLE	TRUE	Run as Sequence
PSTATMODEL	IQUANT	53	Pstat Model
PSTATSECTION	LABEL	IFC5000-01520	Pstat Section
PSTATSERIALNO	LABEL	01520	Pstat Serial Number
CTRLMODE	IQUANT	0	Control Mode
ELECTROMETER	IQUANT	1	RE=0 or CS=1
IESTAB	IQUANT	0	I/E Stability
CASPEED	IQUANT	4	Control Amp Speed
CONVENTION	IQUANT	1	Current Convention
ICHRANGE	IQUANT	2	Ich Range
ICHRANGEMODE	TOGGLE	T	Ich Auto Range
ICHOFFSETENABLE	TOGGLE	F	Ich Offset Enable
ICHOFFSET	QUANT	0	Ich Offset (V)
ICHFILTER	IQUANT	1	Ich Filter
VCHRANGE	IQUANT	2	Vch Range
VCHRANGEMODE	TOGGLE	T	Vch Auto Range
VCHOFFSETENABLE	TOGGLE	F	Vch Offset Enable
VCHOFFSET	QUANT	0	Vch Offset (V)
VCHFILTER	IQUANT	1	Vch Filter
IERANGELOWERLIMIT	IQUANT	9	I/E Range Lower Limit
IERANGEMODE	TOGGLE	F	I/E AutoRange
IERANGE	IQUANT	9	I/E Range
ACHSELECT	IQUANT	1	Ach Select
ACHRANGE	IQUANT	2	Ach Range
ACHOFFSETENABLE	TOGGLE	F	Ach Offset Enable
ACHOFFSET	QUANT	0	Ach Offset (V)
ACHFILTER	IQUANT	1	Ach Filter
CABLEID	IQUANT	14	Cable ID
DCCALDATE	LABEL	5-7-2017	DC Calibration Date
ACCALDATE	LABEL	12/3/2015	AC Calibration Date
FRAMEWORKVERSION	QUANT	7.01	Framework Version
INSTRUMENTVERSION	LABEL	4.00	Instrument Version
CURVE	TABLE	132
	Pt	T	Vf	Im	Vu	Pwr	Sig	Ach	Temp	IERange	Over
	#	s	V	A	V	W	V	V	deg C	#	bits
	0	0.013333	7.20939E-001	-3.98228E-004	0.00000E+000	-2.87098E-004	-2.40040E-001	7.21164E-001	3.57640E+000	9	...........
	1	0.026667	7.10030E-001	-3.99687E-004	0.00000E+000	-2.83790E-004	-2.40040E-001	7.10265E-001	3.57640E+000	9	...........
	2	0.04	7.00443E-001	-3.99181E-004	0.00000E+000	-2.79604E-004	-2.40040E-001	7.00659E-001	3.57640E+000	9	...........
	3	0.053333	6.91552E-001	-3.99652E-004	0.00000E+000	-2.76380E-004	-2.40040E-001	6.91765E-001	3.57640E+000	9	...........
	4	0.066667	6.83126E-001	-3.98262E-004	0.00000E+000	-2.72064E-004	-2.40040E-001	6.83322E-001	3.57640E+000	9	...........
	5	0.08	6.74961E-001	-3.97606E-004	0.00000E+000	-2.68368E-004	-2.40040E-001	6.75163E-001	3.57640E+000	9	...........
	6	0.093333	6.67118E-001	-3.98460E-004	0.00000E+000	-2.65820E-004	-2.40040E-001	6.67335E-001	3.57640E+000	9	...........
	7	0.106667	6.59515E-001	-3.98285E-004	0.00000E+000	-2.62675E-004	-2.40040E-001	6.59748E-001	3.57640E+000	9	...........
	8	0.12	6.52010E-001	-3.97602E-004	0.00000E+000	-2.59240E-004	-2.40040E-001	6.52234E-001	3.57640E+000	9	...........
	9	0.133333	6.44660E-001	-3.98595E-004	0.00000E+000	-2.56958E-004	-2.40040E-001	6.44893E-001	3.57640E+000	9	...........
	10	0.146667	6.37306E-001	-3.99121E-004	0.00000E+000	-2.54362E-004	-2.40040E-001	6.37511E-001	3.57640E+000	9	...........
	11	0.16	6.30153E-001	-3.99018E-004	0.00000E+000	-2.51442E-004	-2.40040E-001	6.30353E-001	3.57640E+000	9	...........
	12	0.173333	6.23058E-001	-3.98027E-004	0.00000E+000	-2.47994E-004	-2.40040E-001	6.23239E-001	3.57640E+000	9	...........
	13	0.186667	6.16063E-001	-3.98688E-004	0.00000E+000	-2.45617E-004	-2.40040E-001	6.16278E-001	3.57640E+000	9	...........
	14	0.2	6.09110E-001	-3.97522E-004	0.00000E+000	-2.42134E-004	-2.40040E-001	6.09363E-001	3.57640E+000	9	...........
	15	0.213333	6.02195E-001	-3.98734E-004	0.00000E+000	-2.40116E-004	-2.40040E-001	6.02457E-001	3.57640E+000	9	...........
	16	0.226667	5.95331E-001	-3.97555E-004	0.00000E+000	-2.36677E-004	-2.40040E-001	5.95548E-001	3.57640E+000	9	...........
	17	0.24	5.88550E-001	-3.98766E-004	0.00000E+000	-2.34694E-004	-2.40040E-001	5.88782E-001	3.57640E+000	9	...........
	18	0.253333	5.81799E-001	-3.97834E-004	0.00000E+000	-2.31460E-004	-2.40040E-001	5.82011E-001	3.57640E+000	9	...........
	19	0.266667	5.75105E-001	-3.99591E-004	0.00000E+000	-2.29807E-004	-2.40040E-001	5.75325E-001	3.57640E+000	9	...........
	20	0.28	5.68438E-001	-3.98246E-004	0.00000E+000	-2.26378E-004	-2.40040E-001	5.68615E-001	3.57640E+000	9	...........
	21	0.293333	5.61822E-001	-3.98384E-004	0.00000E+000	-2.23821E-004	-2.40040E-001	5.62050E-001	3.57640E+000	9	...........
	22	0.306667	5.55284E-001	-3.97975E-004	0.00000E+000	-2.20989E-004	-2.40040E-001	5.55522E-001	3.57640E+000	9	...........
	23	0.32	5.48753E-001	-3.99426E-004	0.00000E+000	-2.19186E-004	-2.40040E-001	5.48949E-001	3.57640E+000	9	...........
	24	0.333333	5.42324E-001	-4.00103E-004	0.00000E+000	-2.16986E-004	-2.40040E-001	5.42525E-001	3.57640E+000	9	...........
	25	0.346667	5.35876E-001	-3.99294E-004	0.00000E+000	-2.13972E-004	-2.40040E-001	5.36071E-001	3.57640E+000	9	...........
	26	0.36	5.29442E-001	-3.99835E-004	0.00000E+000	-2.11689E-004	-2.40040E-001	5.29644E-001	3.57640E+000	9	...........
	27	0.373333	5.23015E-001	-3.98900E-004	0.00000E+000	-2.08631E-004	-2.40040E-001	5.23210E-001	3.57640E+000	9	...........
	28	0.386667	5.16636E-001	-3.98695E-004	0.00000E+000	-2.05980E-004	-2.40040E-001	5.16840E-001	3.57640E+000	9	...........
	29	0.4	5.10270E-001	-3.98571E-004	0.00000E+000	-2.03379E-004	-2.40040E-001	5.10499E-001	3.57640E+000	9	...........
	30	0.413333	5.03906E-001	-3.99950E-004	0.00000E+000	-2.01537E-004	-2.40040E-001	5.04145E-001	3.57640E+000	9	...........
	31	0.426667	4.97708E-001	-3.98886E-004	0.00000E+000	-1.98529E-004	-2.40040E-001	4.97905E-001	3.57640E+000	9	...........
	32	0.44	4.91563E-001	-3.99861E-004	0.00000E+000	-1.96557E-004	-2.40040E-001	4.91749E-001	3.57640E+000	9	...........
	33	0.453333	4.85485E-001	-4.00117E-004	0.00000E+000	-1.94251E-004	-2.40040E-001	4.85647E-001	3.57640E+000	9	...........
	34	0.466667	4.79427E-001	-3.98326E-004	0.00000E+000	-1.90968E-004	-2.40040E-001	4.79519E-001	3.57640E+000	9	...........
	35	0.48	4.73257E-001	-3.99197E-004	0.00000E+000	-1.88923E-004	-2.40040E-001	4.73348E-001	3.57640E+000	9	...........
	36	0.493333	4.67065E-001	-3.99688E-004	0.00000E+000	-1.86680E-004	-2.40040E-001	4.67157E-001	3.57640E+000	9	...........
	37	0.506667	4.61018E-001	-3.99387E-004	0.00000E+000	-1.84125E-004	-2.40040E-001	4.61103E-001	3.57640E+000	9	...........
	38	0.52	4.54924E-001	-3.98630E-004	0.00000E+000	-1.81347E-004	-2.40040E-001	4.55010E-001	3.57640E+000	9	...........
	39	0.533333	4.48955E-001	-3.98446E-004	0.00000E+000	-1.78884E-004	-2.40040E-001	4.49044E-001	3.57634E+000	9	...........
	40	0.546667	4.42976E-001	-3.98534E-004	0.00000E+000	-1.76541E-004	-2.40040E-001	4.43062E-001	3.57590E+000	9	...........
	41	0.56	4.36998E-001	-3.98210E-004	0.00000E+000	-1.74017E-004	-2.40040E-001	4.37087E-001	3.57590E+000	9	...........
	42	0.573333	4.31073E-001	-3.99736E-004	0.00000E+000	-1.72315E-004	-2.40040E-001	4.31159E-001	3.57590E+000	9	...........
	43	0.586667	4.25282E-001	-3.99828E-004	0.00000E+000	-1.70040E-004	-2.40040E-001	4.25365E-001	3.57590E+000	9	...........
	44	0.6	4.19503E-001	-3.97844E-004	0.00000E+000	-1.66896E-004	-2.40040E-001	4.19584E-001	3.57590E+000	9	...........
	45	0.613333	4.13610E-001	-3.99744E-004	0.00000E+000	-1.65338E-004	-2.40040E-001	4.13695E-001	3.57590E+000	9	...........
	46	0.626667	4.07704E-001	-3.98626E-004	0.00000E+000	-1.62521E-004	-2.40040E-001	4.07785E-001	3.57590E+000	9	...........
	47	0.64	4.01997E-001	-3.99306E-004	0.00000E+000	-1.60520E-004	-2.40040E-001	4.02071E-001	3.57590E+000	9	...........
	48	0.653333	3.96253E-001	-3.98595E-004	0.00000E+000	-1.57945E-004	-2.40040E-001	3.96330E-001	3.57590E+000	9	...........
	49	0.666667	3.90526E-001	-3.98260E-004	0.00000E+000	-1.55531E-004	-2.40040E-001	3.90599E-001	3.57590E+000	9	...........
	50	0.68	3.84848E-001	-3.97310E-004	0.00000E+000	-1.52904E-004	-2.40040E-001	3.84915E-001	3.57590E+000	9	...........
	51	0.693333	3.79280E-001	-4.00075E-004	0.00000E+000	-1.51741E-004	-2.40040E-001	3.79352E-001	3.57590E+000	9	...........
	52	0.706667	3.73725E-001	-3.98556E-004	0.00000E+000	-1.48950E-004	-2.40040E-001	3.73793E-001	3.57590E+000	9	...........
	53	0.72	3.68064E-001	-3.97677E-004	0.00000E+000	-1.46370E-004	-2.40040E-001	3.68135E-001	3.57590E+000	9	...........
	54	0.733333	3.62434E-001	-4.00390E-004	0.00000E+000	-1.45115E-004	-2.40040E-001	3.62499E-001	3.57590E+000	9	...........
	55	0.746667	3.56830E-001	-3.99221E-004	0.00000E+000	-1.42454E-004	-2.40040E-001	3.56896E-001	3.57590E+000	9	...........
	56	0.76	3.51227E-001	-3.98309E-004	0.00000E+000	-1.39897E-004	-2.40040E-001	3.51293E-001	3.57590E+000	9	...........
	57	0.773333	3.45720E-001	-3.99442E-004	0.00000E+000	-1.38095E-004	-2.40040E-001	3.45786E-001	3.57590E+000	9	...........
	58	0.786667	3.40196E-001	-3.98669E-004	0.00000E+000	-1.35625E-004	-2.40040E-001	3.40252E-001	3.57590E+000	9	...........
	59	0.8	3.34692E-001	-3.97439E-004	0.00000E+000	-1.33020E-004	-2.40040E-001	3.34754E-001	3.57590E+000	9	...........
	60	0.813333	3.29279E-001	-3.99398E-004	0.00000E+000	-1.31513E-004	-2.40040E-001	3.29343E-001	3.57590E+000	9	...........
	61	0.826667	3.23929E-001	-3.98171E-004	0.00000E+000	-1.28979E-004	-2.40040E-001	3.23990E-001	3.57590E+000	9	...........
	62	0.84	3.18534E-001	-3.98559E-004	0.00000E+000	-1.26955E-004	-2.40040E-001	3.18588E-001	3.57590E+000	9	...........
	63	0.853333	3.13119E-001	-3.96451E-004	0.00000E+000	-1.24136E-004	-2.40040E-001	3.13182E-001	3.57590E+000	9	...........
	64	0.866667	3.07818E-001	-3.98922E-004	0.00000E+000	-1.22795E-004	-2.40040E-001	3.07874E-001	3.57590E+000	9	...........
	65	0.88	3.02515E-001	-3.99555E-004	0.00000E+000	-1.20871E-004	-2.40040E-001	3.02576E-001	3.57590E+000	9	...........
	66	0.893333	2.97225E-001	-3.98812E-004	0.00000E+000	-1.18537E-004	-2.40040E-001	2.97289E-001	3.57590E+000	9	...........
	67	0.906667	2.91931E-001	-3.97913E-004	0.00000E+000	-1.16163E-004	-2.40040E-001	2.91988E-001	3.57590E+000	9	...........
	68	0.92	2.86729E-001	-3.99221E-004	0.00000E+000	-1.14468E-004	-2.40040E-001	2.86785E-001	3.57590E+000	9	...........
	69	0.933333	2.81552E-001	-4.00117E-004	0.00000E+000	-1.12654E-004	-2.40040E-001	2.81600E-001	3.57590E+000	9	...........
	70	0.946667	2.76357E-001	-3.99191E-004	0.00000E+000	-1.10319E-004	-2.40040E-001	2.76408E-001	3.57590E+000	9	...........
	71	0.96	2.71184E-001	-3.98695E-004	0.00000E+000	-1.08120E-004	-2.40040E-001	2.71231E-001	3.57590E+000	9	...........
	72	0.97333	2.66098E-001	-3.97919E-004	0.00000E+000	-1.05885E-004	-2.40040E-001	2.66157E-001	3.57590E+000	9	...........
	73	0.98667	2.60921E-001	-3.99736E-004	0.00000E+000	-1.04299E-004	-2.40040E-001	2.60973E-001	3.57590E+000	9	...........
	74	1	2.55901E-001	-3.99229E-004	0.00000E+000	-1.02163E-004	-2.40040E-001	2.55945E-001	3.57590E+000	9	...........
	75	1.01333	2.50807E-001	-3.99557E-004	0.00000E+000	-1.00212E-004	-2.40040E-001	2.50855E-001	3.57590E+000	9	...........
	76	1.02667	2.45836E-001	-3.99092E-004	0.00000E+000	-9.81110E-005	-2.40040E-001	2.45881E-001	3.57590E+000	9	...........
	77	1.04	2.40852E-001	-3.98710E-004	0.00000E+000	-9.60302E-005	-2.40040E-001	2.40903E-001	3.57590E+000	9	...........
	78	1.05333	2.35799E-001	-3.99196E-004	0.00000E+000	-9.41299E-005	-2.40040E-001	2.35843E-001	3.57590E+000	9	...........
	79	1.06667	2.30796E-001	-3.99536E-004	0.00000E+000	-9.22113E-005	-2.40040E-001	2.30839E-001	3.57590E+000	9	...........
	80	1.08	2.25900E-001	-3.98136E-004	0.00000E+000	-8.99392E-005	-2.40040E-001	2.25937E-001	3.57590E+000	9	...........
	81	1.09333	2.21105E-001	-3.97918E-004	0.00000E+000	-8.79816E-005	-2.40040E-001	2.21145E-001	3.57590E+000	9	...........
	82	1.10667	2.16194E-001	-3.99274E-004	0.00000E+000	-8.63207E-005	-2.40040E-001	2.16234E-001	3.57590E+000	9	...........
	83	1.12	2.11296E-001	-3.99175E-004	0.00000E+000	-8.43442E-005	-2.40040E-001	2.11332E-001	3.57590E+000	9	...........
	84	1.13333	2.06487E-001	-3.99528E-004	0.00000E+000	-8.24973E-005	-2.40040E-001	2.06527E-001	3.57590E+000	9	...........
	85	1.14667	2.01607E-001	-3.98850E-004	0.00000E+000	-8.04110E-005	-2.40040E-001	2.01644E-001	3.57590E+000	9	...........
	86	1.16	1.96740E-001	-4.00122E-004	0.00000E+000	-7.87199E-005	-2.40040E-001	1.96775E-001	3.57590E+000	9	...........
	87	1.17333	1.92002E-001	-3.98551E-004	0.00000E+000	-7.65227E-005	-2.40040E-001	1.92036E-001	3.57590E+000	9	...........
	88	1.18667	1.87287E-001	-3.97904E-004	0.00000E+000	-7.45222E-005	-2.40040E-001	1.87319E-001	3.57590E+000	9	...........
	89	1.2	1.82520E-001	-3.99076E-004	0.00000E+000	-7.28395E-005	-2.40040E-001	1.82555E-001	3.57590E+000	9	...........
	90	1.21333	1.77845E-001	-3.98924E-004	0.00000E+000	-7.09465E-005	-2.40040E-001	1.77877E-001	3.57590E+000	9	...........
	91	1.22667	1.73127E-001	-3.98814E-004	0.00000E+000	-6.90453E-005	-2.40040E-001	1.73166E-001	3.57590E+000	9	...........
	92	1.24	1.68469E-001	-3.98498E-004	0.00000E+000	-6.71347E-005	-2.40040E-001	1.68507E-001	3.57590E+000	9	...........
	93	1.25333	1.63789E-001	-3.98883E-004	0.00000E+000	-6.53328E-005	-2.40040E-001	1.63821E-001	3.57590E+000	9	...........
	94	1.26667	1.59167E-001	-3.97871E-004	0.00000E+000	-6.33277E-005	-2.40040E-001	1.59197E-001	3.57590E+000	9	...........
	95	1.28	1.54578E-001	-3.98165E-004	0.00000E+000	-6.15477E-005	-2.40040E-001	1.54605E-001	3.57590E+000	9	...........
	96	1.29333	1.49978E-001	-3.98307E-004	0.00000E+000	-5.97375E-005	-2.40040E-001	1.50009E-001	3.57590E+000	9	...........
	97	1.30667	1.45460E-001	-3.96973E-004	0.00000E+000	-5.77435E-005	-2.40040E-001	1.45483E-001	3.57590E+000	9	...........
	98	1.32	1.40908E-001	-3.98389E-004	0.00000E+000	-5.61361E-005	-2.40040E-001	1.40933E-001	3.57590E+000	9	...........
	99	1.33333	1.36379E-001	-3.99202E-004	0.00000E+000	-5.44430E-005	-2.40040E-001	1.36404E-001	3.57590E+000	9	...........
	100	1.34667	1.31831E-001	-3.99531E-004	0.00000E+000	-5.26705E-005	-2.40040E-001	1.31855E-001	3.57590E+000	9	...........
	101	1.36	1.27346E-001	-3.97816E-004	0.00000E+000	-5.06605E-005	-2.40040E-001	1.27366E-001	3.57590E+000	9	...........
	102	1.37333	1.22897E-001	-3.98415E-004	0.00000E+000	-4.89639E-005	-2.40040E-001	1.22914E-001	3.57590E+000	9	...........
	103	1.38667	1.18407E-001	-3.98874E-004	0.00000E+000	-4.72295E-005	-2.40040E-001	1.18432E-001	3.57590E+000	9	...........
	104	1.4	1.13959E-001	-3.97954E-004	0.00000E+000	-4.53506E-005	-2.40040E-001	1.13986E-001	3.57590E+000	9	...........
	105	1.41333	1.09520E-001	-3.99524E-004	0.00000E+000	-4.37558E-005	-2.40040E-001	1.09545E-001	3.57590E+000	9	...........
	106	1.42667	1.05155E-001	-3.99541E-004	0.00000E+000	-4.20136E-005	-2.40040E-001	1.05171E-001	3.57590E+000	9	...........
	107	1.44	1.00769E-001	-3.97820E-004	0.00000E+000	-4.00880E-005	-2.40040E-001	1.00788E-001	3.57590E+000	9	...........
	108	1.45333	9.63879E-002	-3.98591E-004	0.00000E+000	-3.84193E-005	-2.40040E-001	9.63987E-002	3.57590E+000	9	...........
	109	1.46667	9.20520E-002	-3.99671E-004	0.00000E+000	-3.67905E-005	-2.40040E-001	9.20697E-002	3.57590E+000	9	...........
	110	1.48	8.77482E-002	-3.99271E-004	0.00000E+000	-3.50353E-005	-2.40040E-001	8.77649E-002	3.57590E+000	9	...........
	111	1.49333	8.34322E-002	-3.99120E-004	0.00000E+000	-3.32994E-005	-2.40040E-001	8.34474E-002	3.57590E+000	9	...........
	112	1.50667	7.91578E-002	-3.98226E-004	0.00000E+000	-3.15227E-005	-2.40040E-001	7.91738E-002	3.57590E+000	9	...........
	113	1.52	7.48114E-002	-3.98322E-004	0.00000E+000	-2.97990E-005	-2.40040E-001	7.48193E-002	3.57590E+000	9	...........
	114	1.53333	7.05579E-002	-3.99022E-004	0.00000E+000	-2.81541E-005	-2.40040E-001	7.05685E-002	3.57600E+000	9	...........
	115	1.54667	6.63330E-002	-3.98844E-004	0.00000E+000	-2.64565E-005	-2.40040E-001	6.63376E-002	3.57670E+000	9	...........
	116	1.56	6.21103E-002	-3.98213E-004	0.00000E+000	-2.47332E-005	-2.40040E-001	6.21135E-002	3.57670E+000	9	...........
	117	1.57333	5.79370E-002	-3.99080E-004	0.00000E+000	-2.31215E-005	-2.40040E-001	5.79441E-002	3.57670E+000	9	...........
	118	1.58667	5.37159E-002	-3.98670E-004	0.00000E+000	-2.14149E-005	-2.40040E-001	5.37158E-002	3.57670E+000	9	...........
	119	1.6	4.94988E-002	-4.00071E-004	0.00000E+000	-1.98031E-005	-2.40040E-001	4.94990E-002	3.57670E+000	9	...........
	120	1.61333	4.52949E-002	-3.99607E-004	0.00000E+000	-1.81002E-005	-2.40040E-001	4.53035E-002	3.57670E+000	9	...........
	121	1.62667	4.11241E-002	-3.97700E-004	0.00000E+000	-1.63550E-005	-2.40040E-001	4.11304E-002	3.57670E+000	9	...........
	122	1.64	3.69923E-002	-3.99490E-004	0.00000E+000	-1.47780E-005	-2.40040E-001	3.69943E-002	3.57670E+000	9	...........
	123	1.65333	3.29461E-002	-3.97953E-004	0.00000E+000	-1.31110E-005	-2.40040E-001	3.29490E-002	3.57670E+000	9	...........
	124	1.66667	2.89315E-002	-3.99147E-004	0.00000E+000	-1.15479E-005	-2.40040E-001	2.89310E-002	3.57670E+000	9	...........
	125	1.68	2.48395E-002	-3.97934E-004	0.00000E+000	-9.88447E-006	-2.40040E-001	2.48365E-002	3.57670E+000	9	...........
	126	1.69333	2.08074E-002	-3.97030E-004	0.00000E+000	-8.26117E-006	-2.40040E-001	2.08027E-002	3.57670E+000	9	...........
	127	1.70667	1.67476E-002	-3.98616E-004	0.00000E+000	-6.67585E-006	-2.40040E-001	1.67393E-002	3.57670E+000	9	...........
	128	1.72	1.27244E-002	-3.98973E-004	0.00000E+000	-5.07669E-006	-2.40040E-001	1.27169E-002	3.57670E+000	9	...........
	129	1.73333	8.72144E-003	-3.98548E-004	0.00000E+000	-3.47591E-006	-2.40040E-001	8.71188E-003	3.57670E+000	9	...........
	130	1.74667	4.85096E-003	-3.98910E-004	0.00000E+000	-1.93510E-006	-2.40040E-001	4.83722E-003	3.57670E+000	9	...........
	131	1.75833	1.10787E-003	-3.97861E-004	0.00000E+000	-4.40779E-007	-2.40040E-001	1.09037E-003	3.57670E+000	9	...........
STARTTIMEOFFSET	QUANT	285.7233	Start Time Offset (s)
