EXPLAIN
TAG	PWR800_DISCHARGE
TITLE	LABEL	PWR Cyclic Charge Discharge (Cell) - Discharge Step	Test &Identifier
DATE	LABEL	12-7-2017	Date
TIME	LABEL	14:36:31	Time
NOTES	NOTES	3	&Notes...
	supercap test cell
	0.4mg
	6M KOH
PSTAT	PSTAT	IFC5000-01520	Potentiostat
CAPACITY	QUANT	1.00000E-003	Capacity (A-hr)
CELLTYPE	SELECTOR	1	&Cell Type
WORKINGCONNECTION	SELECTOR	0	&Working Lead
MAXDISCHARGETIME	VARIABLEANDUNITS	1.00000E+002	s	1.00000E+002	second(s)	Max &Discharge Time
DISCHARGEMODE	MULTIPARAM	0	4.00000E-004	&Discharge Mode	Constant Current	Amp(s)
SAMPLETIME	QUANT	1.00000E-002	Sa&mple Period (s)
DISCHARGESTOPAT1	MULTIPARAM	3	0.00000E+000	Discharge Stop At &1	Voltage < Limit	V
DISCHARGESTOPAT2	MULTIPARAM	0	0.00000E+000	Discharge Stop At &2	None	N/A
AESBHCSELECTOR	TOGGLE	F	Save Both Half Cells
IRCOMP	TOGGLE	F	IR &Measure
EOC	QUANT	0	Open Circuit (V)
SEQUENCER	TOGGLE	TRUE	Run as Sequence
PSTATMODEL	IQUANT	53	Pstat Model
PSTATSECTION	LABEL	IFC5000-01520	Pstat Section
PSTATSERIALNO	LABEL	01520	Pstat Serial Number
CTRLMODE	IQUANT	0	Control Mode
ELECTROMETER	IQUANT	1	RE=0 or CS=1
IESTAB	IQUANT	0	I/E Stability
CASPEED	IQUANT	4	Control Amp Speed
CONVENTION	IQUANT	1	Current Convention
ICHRANGE	IQUANT	2	Ich Range
ICHRANGEMODE	TOGGLE	T	Ich Auto Range
ICHOFFSETENABLE	TOGGLE	F	Ich Offset Enable
ICHOFFSET	QUANT	0	Ich Offset (V)
ICHFILTER	IQUANT	1	Ich Filter
VCHRANGE	IQUANT	2	Vch Range
VCHRANGEMODE	TOGGLE	T	Vch Auto Range
VCHOFFSETENABLE	TOGGLE	F	Vch Offset Enable
VCHOFFSET	QUANT	0	Vch Offset (V)
VCHFILTER	IQUANT	1	Vch Filter
IERANGELOWERLIMIT	IQUANT	9	I/E Range Lower Limit
IERANGEMODE	TOGGLE	F	I/E AutoRange
IERANGE	IQUANT	9	I/E Range
ACHSELECT	IQUANT	1	Ach Select
ACHRANGE	IQUANT	2	Ach Range
ACHOFFSETENABLE	TOGGLE	F	Ach Offset Enable
ACHOFFSET	QUANT	0	Ach Offset (V)
ACHFILTER	IQUANT	1	Ach Filter
CABLEID	IQUANT	14	Cable ID
DCCALDATE	LABEL	5-7-2017	DC Calibration Date
ACCALDATE	LABEL	12/3/2015	AC Calibration Date
FRAMEWORKVERSION	QUANT	7.01	Framework Version
INSTRUMENTVERSION	LABEL	4.00	Instrument Version
CURVE	TABLE	121
	Pt	T	Vf	Im	Vu	Pwr	Sig	Ach	Temp	IERange	Over
	#	s	V	A	V	W	V	V	deg C	#	bits
	0	0.013333	7.11332E-001	-3.98880E-004	0.00000E+000	-2.83736E-004	-2.40040E-001	7.11575E-001	3.57650E+000	9	...........
	1	0.026667	6.99720E-001	-3.97807E-004	0.00000E+000	-2.78354E-004	-2.40040E-001	6.99919E-001	3.57650E+000	9	...........
	2	0.04	6.89407E-001	-3.99176E-004	0.00000E+000	-2.75195E-004	-2.40040E-001	6.89625E-001	3.57650E+000	9	...........
	3	0.053333	6.79883E-001	-3.98821E-004	0.00000E+000	-2.71151E-004	-2.40040E-001	6.80057E-001	3.57650E+000	9	...........
	4	0.066667	6.70827E-001	-3.97875E-004	0.00000E+000	-2.66905E-004	-2.40040E-001	6.71008E-001	3.57650E+000	9	...........
	5	0.08	6.62124E-001	-3.98806E-004	0.00000E+000	-2.64059E-004	-2.40040E-001	6.62332E-001	3.57650E+000	9	...........
	6	0.093333	6.53681E-001	-3.98968E-004	0.00000E+000	-2.60797E-004	-2.40040E-001	6.53894E-001	3.57645E+000	9	...........
	7	0.106667	6.45519E-001	-3.98343E-004	0.00000E+000	-2.57138E-004	-2.40040E-001	6.45724E-001	3.57600E+000	9	...........
	8	0.12	6.37452E-001	-3.97902E-004	0.00000E+000	-2.53643E-004	-2.40040E-001	6.37684E-001	3.57600E+000	9	...........
	9	0.133333	6.29587E-001	-3.98638E-004	0.00000E+000	-2.50977E-004	-2.40040E-001	6.29796E-001	3.57600E+000	9	...........
	10	0.146667	6.21831E-001	-3.99070E-004	0.00000E+000	-2.48154E-004	-2.40040E-001	6.22013E-001	3.57600E+000	9	...........
	11	0.16	6.14062E-001	-3.98518E-004	0.00000E+000	-2.44715E-004	-2.40040E-001	6.14304E-001	3.57600E+000	9	...........
	12	0.173333	6.06511E-001	-3.99438E-004	0.00000E+000	-2.42263E-004	-2.40040E-001	6.06737E-001	3.57600E+000	9	...........
	13	0.186667	5.99053E-001	-3.98540E-004	0.00000E+000	-2.38746E-004	-2.40040E-001	5.99292E-001	3.57600E+000	9	...........
	14	0.2	5.91693E-001	-4.00524E-004	0.00000E+000	-2.36987E-004	-2.40040E-001	5.91940E-001	3.57600E+000	9	...........
	15	0.213333	5.84421E-001	-3.98296E-004	0.00000E+000	-2.32772E-004	-2.40040E-001	5.84631E-001	3.57600E+000	9	...........
	16	0.226667	5.77118E-001	-3.99078E-004	0.00000E+000	-2.30315E-004	-2.40040E-001	5.77353E-001	3.57600E+000	9	...........
	17	0.24	5.69806E-001	-3.99701E-004	0.00000E+000	-2.27752E-004	-2.40040E-001	5.70006E-001	3.57600E+000	9	...........
	18	0.253333	5.62516E-001	-3.98982E-004	0.00000E+000	-2.24434E-004	-2.40040E-001	5.62747E-001	3.57600E+000	9	...........
	19	0.266667	5.55293E-001	-3.98839E-004	0.00000E+000	-2.21472E-004	-2.40040E-001	5.55517E-001	3.57600E+000	9	...........
	20	0.28	5.48205E-001	-3.98878E-004	0.00000E+000	-2.18667E-004	-2.40040E-001	5.48384E-001	3.57600E+000	9	...........
	21	0.293333	5.41138E-001	-3.98998E-004	0.00000E+000	-2.15913E-004	-2.40040E-001	5.41342E-001	3.57600E+000	9	...........
	22	0.306667	5.34144E-001	-3.97940E-004	0.00000E+000	-2.12557E-004	-2.40040E-001	5.34377E-001	3.57600E+000	9	...........
	23	0.32	5.27230E-001	-3.99238E-004	0.00000E+000	-2.10490E-004	-2.40040E-001	5.27429E-001	3.57600E+000	9	...........
	24	0.333333	5.20195E-001	-3.97330E-004	0.00000E+000	-2.06689E-004	-2.40040E-001	5.20396E-001	3.57600E+000	9	...........
	25	0.346667	5.13272E-001	-4.00091E-004	0.00000E+000	-2.05356E-004	-2.40040E-001	5.13474E-001	3.57600E+000	9	...........
	26	0.36	5.06402E-001	-3.98021E-004	0.00000E+000	-2.01559E-004	-2.40040E-001	5.06630E-001	3.57600E+000	9	...........
	27	0.373333	4.99496E-001	-3.98240E-004	0.00000E+000	-1.98920E-004	-2.40040E-001	4.99701E-001	3.57600E+000	9	...........
	28	0.386667	4.92571E-001	-3.98217E-004	0.00000E+000	-1.96150E-004	-2.40040E-001	4.92779E-001	3.57600E+000	9	...........
	29	0.4	4.85940E-001	-3.98729E-004	0.00000E+000	-1.93759E-004	-2.40040E-001	4.86067E-001	3.57600E+000	9	...........
	30	0.413333	4.79537E-001	-3.98392E-004	0.00000E+000	-1.91043E-004	-2.40040E-001	4.79637E-001	3.57600E+000	9	...........
	31	0.426667	4.72869E-001	-3.98239E-004	0.00000E+000	-1.88315E-004	-2.40040E-001	4.72963E-001	3.57600E+000	9	...........
	32	0.44	4.66172E-001	-3.98873E-004	0.00000E+000	-1.85943E-004	-2.40040E-001	4.66271E-001	3.57600E+000	9	...........
	33	0.453333	4.59480E-001	-3.99145E-004	0.00000E+000	-1.83399E-004	-2.40040E-001	4.59578E-001	3.57600E+000	9	...........
	34	0.466667	4.52893E-001	-3.96644E-004	0.00000E+000	-1.79637E-004	-2.40040E-001	4.52985E-001	3.57600E+000	9	...........
	35	0.48	4.46310E-001	-3.98836E-004	0.00000E+000	-1.78005E-004	-2.40040E-001	4.46405E-001	3.57600E+000	9	...........
	36	0.493333	4.39829E-001	-4.00193E-004	0.00000E+000	-1.76017E-004	-2.40040E-001	4.39928E-001	3.57600E+000	9	...........
	37	0.506667	4.33334E-001	-3.98991E-004	0.00000E+000	-1.72896E-004	-2.40040E-001	4.33429E-001	3.57600E+000	9	...........
	38	0.52	4.26860E-001	-3.97564E-004	0.00000E+000	-1.69704E-004	-2.40040E-001	4.26951E-001	3.57600E+000	9	...........
	39	0.533333	4.20383E-001	-3.98032E-004	0.00000E+000	-1.67326E-004	-2.40040E-001	4.20477E-001	3.57600E+000	9	...........
	40	0.546667	4.13959E-001	-3.99964E-004	0.00000E+000	-1.65568E-004	-2.40040E-001	4.14053E-001	3.57600E+000	9	...........
	41	0.56	4.07540E-001	-3.98959E-004	0.00000E+000	-1.62592E-004	-2.40040E-001	4.07619E-001	3.57600E+000	9	...........
	42	0.573333	4.01319E-001	-3.98188E-004	0.00000E+000	-1.59800E-004	-2.40040E-001	4.01395E-001	3.57600E+000	9	...........
	43	0.586667	3.95051E-001	-3.98975E-004	0.00000E+000	-1.57615E-004	-2.40040E-001	3.95122E-001	3.57600E+000	9	...........
	44	0.6	3.88889E-001	-3.98296E-004	0.00000E+000	-1.54893E-004	-2.40040E-001	3.88958E-001	3.57600E+000	9	...........
	45	0.613333	3.82659E-001	-3.99312E-004	0.00000E+000	-1.52800E-004	-2.40040E-001	3.82733E-001	3.57600E+000	9	...........
	46	0.626667	3.76367E-001	-3.97700E-004	0.00000E+000	-1.49681E-004	-2.40040E-001	3.76440E-001	3.57600E+000	9	...........
	47	0.64	3.70145E-001	-4.00532E-004	0.00000E+000	-1.48255E-004	-2.40040E-001	3.70214E-001	3.57600E+000	9	...........
	48	0.653333	3.64017E-001	-3.98062E-004	0.00000E+000	-1.44902E-004	-2.40040E-001	3.64090E-001	3.57600E+000	9	...........
	49	0.666667	3.57905E-001	-3.98779E-004	0.00000E+000	-1.42725E-004	-2.40040E-001	3.57976E-001	3.57600E+000	9	...........
	50	0.68	3.51884E-001	-3.98443E-004	0.00000E+000	-1.40205E-004	-2.40040E-001	3.51951E-001	3.57600E+000	9	...........
	51	0.693333	3.45883E-001	-3.98078E-004	0.00000E+000	-1.37688E-004	-2.40040E-001	3.45951E-001	3.57600E+000	9	...........
	52	0.706667	3.40021E-001	-3.98952E-004	0.00000E+000	-1.35652E-004	-2.40040E-001	3.40088E-001	3.57600E+000	9	...........
	53	0.72	3.34030E-001	-3.99249E-004	0.00000E+000	-1.33361E-004	-2.40040E-001	3.34092E-001	3.57600E+000	9	...........
	54	0.733333	3.28171E-001	-3.98273E-004	0.00000E+000	-1.30702E-004	-2.40040E-001	3.28236E-001	3.57600E+000	9	...........
	55	0.746667	3.22298E-001	-4.00241E-004	0.00000E+000	-1.28997E-004	-2.40040E-001	3.22361E-001	3.57600E+000	9	...........
	56	0.76	3.16456E-001	-3.98301E-004	0.00000E+000	-1.26045E-004	-2.40040E-001	3.16523E-001	3.57600E+000	9	...........
	57	0.773333	3.10673E-001	-3.98775E-004	0.00000E+000	-1.23889E-004	-2.40040E-001	3.10731E-001	3.57600E+000	9	...........
	58	0.786667	3.04985E-001	-3.97908E-004	0.00000E+000	-1.21356E-004	-2.40040E-001	3.05042E-001	3.57600E+000	9	...........
	59	0.8	2.99294E-001	-3.99067E-004	0.00000E+000	-1.19438E-004	-2.40040E-001	2.99352E-001	3.57600E+000	9	...........
	60	0.813333	2.93601E-001	-3.98815E-004	0.00000E+000	-1.17092E-004	-2.40040E-001	2.93653E-001	3.57600E+000	9	...........
	61	0.826667	2.88016E-001	-3.99309E-004	0.00000E+000	-1.15007E-004	-2.40040E-001	2.88061E-001	3.57600E+000	9	...........
	62	0.84	2.82351E-001	-3.98860E-004	0.00000E+000	-1.12619E-004	-2.40040E-001	2.82404E-001	3.57600E+000	9	...........
	63	0.853333	2.76763E-001	-3.97991E-004	0.00000E+000	-1.10149E-004	-2.40040E-001	2.76814E-001	3.57600E+000	9	...........
	64	0.866667	2.71035E-001	-3.99098E-004	0.00000E+000	-1.08170E-004	-2.40040E-001	2.71090E-001	3.57600E+000	9	...........
	65	0.88	2.65483E-001	-3.99596E-004	0.00000E+000	-1.06086E-004	-2.40040E-001	2.65542E-001	3.57600E+000	9	...........
	66	0.893333	2.59911E-001	-3.98668E-004	0.00000E+000	-1.03618E-004	-2.40040E-001	2.59961E-001	3.57600E+000	9	...........
	67	0.906667	2.54398E-001	-3.98434E-004	0.00000E+000	-1.01361E-004	-2.40040E-001	2.54452E-001	3.57600E+000	9	...........
	68	0.92	2.49017E-001	-3.99749E-004	0.00000E+000	-9.95442E-005	-2.40040E-001	2.49071E-001	3.57600E+000	9	...........
	69	0.933333	2.43687E-001	-3.99772E-004	0.00000E+000	-9.74194E-005	-2.40040E-001	2.43736E-001	3.57600E+000	9	...........
	70	0.946667	2.38311E-001	-3.98037E-004	0.00000E+000	-9.48568E-005	-2.40040E-001	2.38357E-001	3.57600E+000	9	...........
	71	0.96	2.32915E-001	-3.98491E-004	0.00000E+000	-9.28144E-005	-2.40040E-001	2.32961E-001	3.57600E+000	9	...........
	72	0.97333	2.27656E-001	-3.99851E-004	0.00000E+000	-9.10285E-005	-2.40040E-001	2.27702E-001	3.57600E+000	9	...........
	73	0.98667	2.22349E-001	-3.98089E-004	0.00000E+000	-8.85149E-005	-2.40040E-001	2.22393E-001	3.57600E+000	9	...........
	74	1	2.17017E-001	-3.99233E-004	0.00000E+000	-8.66406E-005	-2.40040E-001	2.17061E-001	3.57600E+000	9	...........
	75	1.01333	2.11759E-001	-3.99779E-004	0.00000E+000	-8.46567E-005	-2.40040E-001	2.11797E-001	3.57600E+000	9	...........
	76	1.02667	2.06480E-001	-3.98905E-004	0.00000E+000	-8.23658E-005	-2.40040E-001	2.06519E-001	3.57600E+000	9	...........
	77	1.04	2.01291E-001	-3.98053E-004	0.00000E+000	-8.01244E-005	-2.40040E-001	2.01339E-001	3.57600E+000	9	...........
	78	1.05333	1.96094E-001	-3.98615E-004	0.00000E+000	-7.81658E-005	-2.40040E-001	1.96139E-001	3.57600E+000	9	...........
	79	1.06667	1.90917E-001	-3.99359E-004	0.00000E+000	-7.62444E-005	-2.40040E-001	1.90954E-001	3.57600E+000	9	...........
	80	1.08	1.85831E-001	-3.98872E-004	0.00000E+000	-7.41227E-005	-2.40040E-001	1.85874E-001	3.57600E+000	9	...........
	81	1.09333	1.80822E-001	-3.99336E-004	0.00000E+000	-7.22087E-005	-2.40040E-001	1.80865E-001	3.57600E+000	9	...........
	82	1.10667	1.75753E-001	-3.99806E-004	0.00000E+000	-7.02673E-005	-2.40040E-001	1.75794E-001	3.57600E+000	9	...........
	83	1.12	1.70738E-001	-3.98498E-004	0.00000E+000	-6.80387E-005	-2.40040E-001	1.70776E-001	3.57600E+000	9	...........
	84	1.13333	1.65641E-001	-3.97789E-004	0.00000E+000	-6.58901E-005	-2.40040E-001	1.65681E-001	3.57600E+000	9	...........
	85	1.14667	1.60625E-001	-3.98289E-004	0.00000E+000	-6.39751E-005	-2.40040E-001	1.60655E-001	3.57600E+000	9	...........
	86	1.16	1.55767E-001	-3.99920E-004	0.00000E+000	-6.22942E-005	-2.40040E-001	1.55799E-001	3.57600E+000	9	...........
	87	1.17333	1.50831E-001	-3.98754E-004	0.00000E+000	-6.01445E-005	-2.40040E-001	1.50861E-001	3.57600E+000	9	...........
	88	1.18667	1.45930E-001	-3.99005E-004	0.00000E+000	-5.82267E-005	-2.40040E-001	1.45956E-001	3.57600E+000	9	...........
	89	1.2	1.41033E-001	-3.97639E-004	0.00000E+000	-5.60802E-005	-2.40040E-001	1.41061E-001	3.57600E+000	9	...........
	90	1.21333	1.36147E-001	-3.98621E-004	0.00000E+000	-5.42712E-005	-2.40040E-001	1.36168E-001	3.57600E+000	9	...........
	91	1.22667	1.31318E-001	-3.97194E-004	0.00000E+000	-5.21587E-005	-2.40040E-001	1.31340E-001	3.57600E+000	9	...........
	92	1.24	1.26499E-001	-3.98156E-004	0.00000E+000	-5.03665E-005	-2.40040E-001	1.26522E-001	3.57600E+000	9	...........
	93	1.25333	1.21739E-001	-3.97844E-004	0.00000E+000	-4.84332E-005	-2.40040E-001	1.21768E-001	3.57600E+000	9	...........
	94	1.26667	1.16974E-001	-3.97970E-004	0.00000E+000	-4.65521E-005	-2.40040E-001	1.16997E-001	3.57600E+000	9	...........
	95	1.28	1.12202E-001	-3.98466E-004	0.00000E+000	-4.47088E-005	-2.40040E-001	1.12224E-001	3.57600E+000	9	...........
	96	1.29333	1.07510E-001	-3.98718E-004	0.00000E+000	-4.28661E-005	-2.40040E-001	1.07533E-001	3.57600E+000	9	...........
	97	1.30667	1.02918E-001	-3.98388E-004	0.00000E+000	-4.10015E-005	-2.40040E-001	1.02941E-001	3.57600E+000	9	...........
	98	1.32	9.82135E-002	-4.00348E-004	0.00000E+000	-3.93196E-005	-2.40040E-001	9.82381E-002	3.57600E+000	9	...........
	99	1.33333	9.35117E-002	-3.98557E-004	0.00000E+000	-3.72698E-005	-2.40040E-001	9.35311E-002	3.57600E+000	9	...........
	100	1.34667	8.89539E-002	-3.98785E-004	0.00000E+000	-3.54735E-005	-2.40040E-001	8.89756E-002	3.57600E+000	9	...........
	101	1.36	8.43339E-002	-3.99768E-004	0.00000E+000	-3.37140E-005	-2.40040E-001	8.43509E-002	3.57600E+000	9	...........
	102	1.37333	7.98004E-002	-3.98532E-004	0.00000E+000	-3.18030E-005	-2.40040E-001	7.98134E-002	3.57600E+000	9	...........
	103	1.38667	7.53250E-002	-3.98347E-004	0.00000E+000	-3.00055E-005	-2.40040E-001	7.53373E-002	3.57600E+000	9	...........
	104	1.4	7.07493E-002	-3.98719E-004	0.00000E+000	-2.82091E-005	-2.40040E-001	7.07578E-002	3.57600E+000	9	...........
	105	1.41333	6.62597E-002	-3.98854E-004	0.00000E+000	-2.64280E-005	-2.40040E-001	6.62679E-002	3.57600E+000	9	...........
	106	1.42667	6.17527E-002	-3.98646E-004	0.00000E+000	-2.46174E-005	-2.40040E-001	6.17658E-002	3.57600E+000	9	...........
	107	1.44	5.73078E-002	-3.99048E-004	0.00000E+000	-2.28686E-005	-2.40040E-001	5.73150E-002	3.57600E+000	9	...........
	108	1.45333	5.28327E-002	-3.98685E-004	0.00000E+000	-2.10636E-005	-2.40040E-001	5.28479E-002	3.57600E+000	9	...........
	109	1.46667	4.84026E-002	-3.99400E-004	0.00000E+000	-1.93320E-005	-2.40040E-001	4.84087E-002	3.57600E+000	9	...........
	110	1.48	4.39813E-002	-3.99651E-004	0.00000E+000	-1.75772E-005	-2.40040E-001	4.39907E-002	3.57600E+000	9	...........
	111	1.49333	3.96314E-002	-3.98832E-004	0.00000E+000	-1.58063E-005	-2.40040E-001	3.96353E-002	3.57600E+000	9	...........
	112	1.50667	3.52822E-002	-3.98866E-004	0.00000E+000	-1.40729E-005	-2.40040E-001	3.52884E-002	3.57600E+000	9	...........
	113	1.52	3.08991E-002	-3.98427E-004	0.00000E+000	-1.23110E-005	-2.40040E-001	3.09033E-002	3.57600E+000	9	...........
	114	1.53333	2.66767E-002	-3.97597E-004	0.00000E+000	-1.06065E-005	-2.40040E-001	2.66751E-002	3.57600E+000	9	...........
	115	1.54667	2.24138E-002	-3.98772E-004	0.00000E+000	-8.93800E-006	-2.40040E-001	2.24109E-002	3.57600E+000	9	...........
	116	1.56	1.81526E-002	-3.97999E-004	0.00000E+000	-7.22471E-006	-2.40040E-001	1.81419E-002	3.57600E+000	9	...........
	117	1.57333	1.39677E-002	-3.98559E-004	0.00000E+000	-5.56696E-006	-2.40040E-001	1.39621E-002	3.57600E+000	9	...........
	118	1.58667	9.76950E-003	-3.98470E-004	0.00000E+000	-3.89285E-006	-2.40040E-001	9.75920E-003	3.57600E+000	9	...........
	119	1.6	5.48894E-003	-3.97864E-004	0.00000E+000	-2.18385E-006	-2.40040E-001	5.47413E-003	3.57600E+000	9	...........
	120	1.61167	1.56345E-003	-3.98863E-004	0.00000E+000	-6.23601E-007	-2.40040E-001	1.54816E-003	3.57600E+000	9	...........
STARTTIMEOFFSET	QUANT	861.9152	Start Time Offset (s)
