EXPLAIN
TAG	PWR800_DISCHARGE
TITLE	LABEL	PWR Cyclic Charge Discharge (Cell) - Discharge Step	Test &Identifier
DATE	LABEL	12-7-2017	Date
TIME	LABEL	14:51:16	Time
NOTES	NOTES	3	&Notes...
	supercap test cell
	0.4mg
	6M KOH
PSTAT	PSTAT	IFC5000-01520	Potentiostat
CAPACITY	QUANT	1.00000E-003	Capacity (A-hr)
CELLTYPE	SELECTOR	1	&Cell Type
WORKINGCONNECTION	SELECTOR	0	&Working Lead
MAXDISCHARGETIME	VARIABLEANDUNITS	1.00000E+002	s	1.00000E+002	second(s)	Max &Discharge Time
DISCHARGEMODE	MULTIPARAM	0	4.00000E-004	&Discharge Mode	Constant Current	Amp(s)
SAMPLETIME	QUANT	1.00000E-002	Sa&mple Period (s)
DISCHARGESTOPAT1	MULTIPARAM	3	0.00000E+000	Discharge Stop At &1	Voltage < Limit	V
DISCHARGESTOPAT2	MULTIPARAM	0	0.00000E+000	Discharge Stop At &2	None	N/A
AESBHCSELECTOR	TOGGLE	F	Save Both Half Cells
IRCOMP	TOGGLE	F	IR &Measure
EOC	QUANT	0	Open Circuit (V)
SEQUENCER	TOGGLE	TRUE	Run as Sequence
PSTATMODEL	IQUANT	53	Pstat Model
PSTATSECTION	LABEL	IFC5000-01520	Pstat Section
PSTATSERIALNO	LABEL	01520	Pstat Serial Number
CTRLMODE	IQUANT	0	Control Mode
ELECTROMETER	IQUANT	1	RE=0 or CS=1
IESTAB	IQUANT	0	I/E Stability
CASPEED	IQUANT	4	Control Amp Speed
CONVENTION	IQUANT	1	Current Convention
ICHRANGE	IQUANT	2	Ich Range
ICHRANGEMODE	TOGGLE	T	Ich Auto Range
ICHOFFSETENABLE	TOGGLE	F	Ich Offset Enable
ICHOFFSET	QUANT	0	Ich Offset (V)
ICHFILTER	IQUANT	1	Ich Filter
VCHRANGE	IQUANT	2	Vch Range
VCHRANGEMODE	TOGGLE	T	Vch Auto Range
VCHOFFSETENABLE	TOGGLE	F	Vch Offset Enable
VCHOFFSET	QUANT	0	Vch Offset (V)
VCHFILTER	IQUANT	1	Vch Filter
IERANGELOWERLIMIT	IQUANT	9	I/E Range Lower Limit
IERANGEMODE	TOGGLE	F	I/E AutoRange
IERANGE	IQUANT	9	I/E Range
ACHSELECT	IQUANT	1	Ach Select
ACHRANGE	IQUANT	2	Ach Range
ACHOFFSETENABLE	TOGGLE	F	Ach Offset Enable
ACHOFFSET	QUANT	0	Ach Offset (V)
ACHFILTER	IQUANT	1	Ach Filter
CABLEID	IQUANT	14	Cable ID
DCCALDATE	LABEL	5-7-2017	DC Calibration Date
ACCALDATE	LABEL	12/3/2015	AC Calibration Date
FRAMEWORKVERSION	QUANT	7.01	Framework Version
INSTRUMENTVERSION	LABEL	4.00	Instrument Version
CURVE	TABLE	113
	Pt	T	Vf	Im	Vu	Pwr	Sig	Ach	Temp	IERange	Over
	#	s	V	A	V	W	V	V	deg C	#	bits
	0	0.013333	6.98057E-001	-4.00170E-004	0.00000E+000	-2.79341E-004	-2.40040E-001	6.98284E-001	3.57650E+000	9	...........
	1	0.026667	6.85651E-001	-4.00147E-004	0.00000E+000	-2.74361E-004	-2.40040E-001	6.85904E-001	3.57640E+000	9	...........
	2	0.04	6.74767E-001	-3.98181E-004	0.00000E+000	-2.68679E-004	-2.40040E-001	6.74985E-001	3.57640E+000	9	...........
	3	0.053333	6.64845E-001	-3.99189E-004	0.00000E+000	-2.65398E-004	-2.40040E-001	6.65069E-001	3.57640E+000	9	...........
	4	0.066667	6.55395E-001	-3.98704E-004	0.00000E+000	-2.61309E-004	-2.40040E-001	6.55627E-001	3.57640E+000	9	...........
	5	0.08	6.46307E-001	-4.00384E-004	0.00000E+000	-2.58771E-004	-2.40040E-001	6.46547E-001	3.57640E+000	9	...........
	6	0.093333	6.37597E-001	-3.98751E-004	0.00000E+000	-2.54243E-004	-2.40040E-001	6.37839E-001	3.57640E+000	9	...........
	7	0.106667	6.29040E-001	-3.99174E-004	0.00000E+000	-2.51096E-004	-2.40040E-001	6.29262E-001	3.57640E+000	9	...........
	8	0.12	6.20650E-001	-3.98950E-004	0.00000E+000	-2.47608E-004	-2.40040E-001	6.20871E-001	3.57640E+000	9	...........
	9	0.133333	6.12411E-001	-3.99952E-004	0.00000E+000	-2.44935E-004	-2.40040E-001	6.12667E-001	3.57640E+000	9	...........
	10	0.146667	6.04289E-001	-3.98356E-004	0.00000E+000	-2.40722E-004	-2.40040E-001	6.04581E-001	3.57640E+000	9	...........
	11	0.16	5.96356E-001	-3.98858E-004	0.00000E+000	-2.37861E-004	-2.40040E-001	5.96618E-001	3.57640E+000	9	...........
	12	0.173333	5.88424E-001	-3.99024E-004	0.00000E+000	-2.34795E-004	-2.40040E-001	5.88667E-001	3.57640E+000	9	...........
	13	0.186667	5.80576E-001	-3.98298E-004	0.00000E+000	-2.31242E-004	-2.40040E-001	5.80841E-001	3.57640E+000	9	...........
	14	0.2	5.72874E-001	-3.99096E-004	0.00000E+000	-2.28632E-004	-2.40040E-001	5.73096E-001	3.57640E+000	9	...........
	15	0.213333	5.65223E-001	-3.99098E-004	0.00000E+000	-2.25579E-004	-2.40040E-001	5.65421E-001	3.57640E+000	9	...........
	16	0.226667	5.57560E-001	-3.99053E-004	0.00000E+000	-2.22496E-004	-2.40040E-001	5.57774E-001	3.57640E+000	9	...........
	17	0.24	5.49951E-001	-3.99265E-004	0.00000E+000	-2.19576E-004	-2.40040E-001	5.50147E-001	3.57640E+000	9	...........
	18	0.253333	5.42371E-001	-3.99536E-004	0.00000E+000	-2.16696E-004	-2.40040E-001	5.42556E-001	3.57640E+000	9	...........
	19	0.266667	5.34835E-001	-3.97854E-004	0.00000E+000	-2.12786E-004	-2.40040E-001	5.35042E-001	3.57640E+000	9	...........
	20	0.28	5.27375E-001	-3.98402E-004	0.00000E+000	-2.10107E-004	-2.40040E-001	5.27590E-001	3.57640E+000	9	...........
	21	0.293333	5.20019E-001	-3.99076E-004	0.00000E+000	-2.07527E-004	-2.40040E-001	5.20198E-001	3.57640E+000	9	...........
	22	0.306667	5.12670E-001	-3.97796E-004	0.00000E+000	-2.03938E-004	-2.40040E-001	5.12840E-001	3.57640E+000	9	...........
	23	0.32	5.05254E-001	-3.99902E-004	0.00000E+000	-2.02052E-004	-2.40040E-001	5.05493E-001	3.57640E+000	9	...........
	24	0.333333	4.97982E-001	-3.98118E-004	0.00000E+000	-1.98255E-004	-2.40040E-001	4.98183E-001	3.57640E+000	9	...........
	25	0.346667	4.90752E-001	-3.98402E-004	0.00000E+000	-1.95516E-004	-2.40040E-001	4.90958E-001	3.57640E+000	9	...........
	26	0.36	4.83761E-001	-3.98947E-004	0.00000E+000	-1.92995E-004	-2.40040E-001	4.83892E-001	3.57640E+000	9	...........
	27	0.373333	4.76739E-001	-3.97688E-004	0.00000E+000	-1.89594E-004	-2.40040E-001	4.76833E-001	3.57640E+000	9	...........
	28	0.386667	4.69635E-001	-3.99298E-004	0.00000E+000	-1.87524E-004	-2.40040E-001	4.69722E-001	3.57640E+000	9	...........
	29	0.4	4.62563E-001	-3.98009E-004	0.00000E+000	-1.84104E-004	-2.40040E-001	4.62656E-001	3.57640E+000	9	...........
	30	0.413333	4.55578E-001	-3.98540E-004	0.00000E+000	-1.81566E-004	-2.40040E-001	4.55670E-001	3.57640E+000	9	...........
	31	0.426667	4.48601E-001	-3.98080E-004	0.00000E+000	-1.78579E-004	-2.40040E-001	4.48689E-001	3.57640E+000	9	...........
	32	0.44	4.41708E-001	-3.98825E-004	0.00000E+000	-1.76164E-004	-2.40040E-001	4.41797E-001	3.57640E+000	9	...........
	33	0.453333	4.34791E-001	-3.98932E-004	0.00000E+000	-1.73452E-004	-2.40040E-001	4.34876E-001	3.57640E+000	9	...........
	34	0.466667	4.27816E-001	-3.98205E-004	0.00000E+000	-1.70358E-004	-2.40040E-001	4.27898E-001	3.57640E+000	9	...........
	35	0.48	4.21056E-001	-3.98811E-004	0.00000E+000	-1.67922E-004	-2.40040E-001	4.21139E-001	3.57640E+000	9	...........
	36	0.493333	4.14261E-001	-3.98151E-004	0.00000E+000	-1.64938E-004	-2.40040E-001	4.14338E-001	3.57640E+000	9	...........
	37	0.506667	4.07518E-001	-3.98422E-004	0.00000E+000	-1.62364E-004	-2.40040E-001	4.07597E-001	3.57640E+000	9	...........
	38	0.52	4.00720E-001	-3.99281E-004	0.00000E+000	-1.60000E-004	-2.40040E-001	4.00797E-001	3.57640E+000	9	...........
	39	0.533333	3.94041E-001	-3.99187E-004	0.00000E+000	-1.57296E-004	-2.40040E-001	3.94115E-001	3.57640E+000	9	...........
	40	0.546667	3.87407E-001	-3.99036E-004	0.00000E+000	-1.54590E-004	-2.40040E-001	3.87483E-001	3.57640E+000	9	...........
	41	0.56	3.80712E-001	-3.99420E-004	0.00000E+000	-1.52064E-004	-2.40040E-001	3.80784E-001	3.57640E+000	9	...........
	42	0.573333	3.74148E-001	-3.99488E-004	0.00000E+000	-1.49468E-004	-2.40040E-001	3.74214E-001	3.57640E+000	9	...........
	43	0.586667	3.67587E-001	-3.97408E-004	0.00000E+000	-1.46082E-004	-2.40040E-001	3.67656E-001	3.57640E+000	9	...........
	44	0.6	3.61041E-001	-4.00437E-004	0.00000E+000	-1.44574E-004	-2.40040E-001	3.61110E-001	3.57640E+000	9	...........
	45	0.613333	3.54575E-001	-3.99079E-004	0.00000E+000	-1.41503E-004	-2.40040E-001	3.54636E-001	3.57640E+000	9	...........
	46	0.626667	3.48081E-001	-4.00244E-004	0.00000E+000	-1.39317E-004	-2.40040E-001	3.48147E-001	3.57640E+000	9	...........
	47	0.64	3.41641E-001	-3.99538E-004	0.00000E+000	-1.36498E-004	-2.40040E-001	3.41706E-001	3.57640E+000	9	...........
	48	0.653333	3.35303E-001	-3.98765E-004	0.00000E+000	-1.33707E-004	-2.40040E-001	3.35371E-001	3.57640E+000	9	...........
	49	0.666667	3.29021E-001	-3.99427E-004	0.00000E+000	-1.31420E-004	-2.40040E-001	3.29077E-001	3.57640E+000	9	...........
	50	0.68	3.22731E-001	-3.98218E-004	0.00000E+000	-1.28517E-004	-2.40040E-001	3.22791E-001	3.57640E+000	9	...........
	51	0.693333	3.16500E-001	-3.99021E-004	0.00000E+000	-1.26290E-004	-2.40040E-001	3.16561E-001	3.57640E+000	9	...........
	52	0.706667	3.10352E-001	-3.99435E-004	0.00000E+000	-1.23965E-004	-2.40040E-001	3.10409E-001	3.57640E+000	9	...........
	53	0.72	3.04205E-001	-3.99373E-004	0.00000E+000	-1.21491E-004	-2.40040E-001	3.04266E-001	3.57640E+000	9	...........
	54	0.733333	2.98070E-001	-3.98594E-004	0.00000E+000	-1.18809E-004	-2.40040E-001	2.98133E-001	3.57640E+000	9	...........
	55	0.746667	2.92001E-001	-3.99565E-004	0.00000E+000	-1.16673E-004	-2.40040E-001	2.92060E-001	3.57640E+000	9	...........
	56	0.76	2.85986E-001	-3.98452E-004	0.00000E+000	-1.13952E-004	-2.40040E-001	2.86041E-001	3.57640E+000	9	...........
	57	0.773333	2.79929E-001	-3.97870E-004	0.00000E+000	-1.11375E-004	-2.40040E-001	2.79987E-001	3.57640E+000	9	...........
	58	0.786667	2.73939E-001	-3.98459E-004	0.00000E+000	-1.09154E-004	-2.40040E-001	2.73999E-001	3.57640E+000	9	...........
	59	0.8	2.68066E-001	-3.99612E-004	0.00000E+000	-1.07122E-004	-2.40040E-001	2.68117E-001	3.57640E+000	9	...........
	60	0.813333	2.62188E-001	-3.98714E-004	0.00000E+000	-1.04538E-004	-2.40040E-001	2.62244E-001	3.57640E+000	9	...........
	61	0.826667	2.56369E-001	-3.98897E-004	0.00000E+000	-1.02265E-004	-2.40040E-001	2.56424E-001	3.57640E+000	9	...........
	62	0.84	2.50588E-001	-3.97934E-004	0.00000E+000	-9.97176E-005	-2.40040E-001	2.50643E-001	3.57640E+000	9	...........
	63	0.853333	2.44831E-001	-3.98658E-004	0.00000E+000	-9.76039E-005	-2.40040E-001	2.44872E-001	3.57640E+000	9	...........
	64	0.866667	2.39136E-001	-3.98855E-004	0.00000E+000	-9.53805E-005	-2.40040E-001	2.39176E-001	3.57640E+000	9	...........
	65	0.88	2.33406E-001	-3.98036E-004	0.00000E+000	-9.29039E-005	-2.40040E-001	2.33451E-001	3.57640E+000	9	...........
	66	0.893333	2.27784E-001	-3.98984E-004	0.00000E+000	-9.08824E-005	-2.40040E-001	2.27827E-001	3.57640E+000	9	...........
	67	0.906667	2.22163E-001	-3.98954E-004	0.00000E+000	-8.86328E-005	-2.40040E-001	2.22204E-001	3.57640E+000	9	...........
	68	0.92	2.16550E-001	-4.01078E-004	0.00000E+000	-8.68534E-005	-2.40040E-001	2.16592E-001	3.57640E+000	9	...........
	69	0.933333	2.10938E-001	-4.00729E-004	0.00000E+000	-8.45289E-005	-2.40040E-001	2.10971E-001	3.57640E+000	9	...........
	70	0.946667	2.05457E-001	-3.99326E-004	0.00000E+000	-8.20442E-005	-2.40040E-001	2.05494E-001	3.57640E+000	9	...........
	71	0.96	1.99944E-001	-3.99447E-004	0.00000E+000	-7.98672E-005	-2.40040E-001	1.99986E-001	3.57640E+000	9	...........
	72	0.97333	1.94447E-001	-3.99665E-004	0.00000E+000	-7.77135E-005	-2.40040E-001	1.94482E-001	3.57640E+000	9	...........
	73	0.98667	1.88963E-001	-3.99151E-004	0.00000E+000	-7.54249E-005	-2.40040E-001	1.88991E-001	3.57640E+000	9	...........
	74	1	1.83578E-001	-3.98333E-004	0.00000E+000	-7.31253E-005	-2.40040E-001	1.83612E-001	3.57640E+000	9	...........
	75	1.01333	1.78276E-001	-3.99494E-004	0.00000E+000	-7.12203E-005	-2.40040E-001	1.78302E-001	3.57630E+000	9	...........
	76	1.02667	1.72896E-001	-3.99652E-004	0.00000E+000	-6.90983E-005	-2.40040E-001	1.72922E-001	3.57620E+000	9	...........
	77	1.04	1.67553E-001	-3.98359E-004	0.00000E+000	-6.67464E-005	-2.40040E-001	1.67581E-001	3.57620E+000	9	...........
	78	1.05333	1.62236E-001	-3.99771E-004	0.00000E+000	-6.48572E-005	-2.40040E-001	1.62260E-001	3.57620E+000	9	...........
	79	1.06667	1.57032E-001	-3.98587E-004	0.00000E+000	-6.25909E-005	-2.40040E-001	1.57055E-001	3.57620E+000	9	...........
	80	1.08	1.51790E-001	-3.98281E-004	0.00000E+000	-6.04549E-005	-2.40040E-001	1.51808E-001	3.57620E+000	9	...........
	81	1.09333	1.46547E-001	-3.98964E-004	0.00000E+000	-5.84669E-005	-2.40040E-001	1.46563E-001	3.57620E+000	9	...........
	82	1.10667	1.41300E-001	-3.99457E-004	0.00000E+000	-5.64435E-005	-2.40040E-001	1.41324E-001	3.57620E+000	9	...........
	83	1.12	1.36146E-001	-3.98704E-004	0.00000E+000	-5.42819E-005	-2.40040E-001	1.36171E-001	3.57620E+000	9	...........
	84	1.13333	1.31071E-001	-3.99326E-004	0.00000E+000	-5.23402E-005	-2.40040E-001	1.31096E-001	3.57620E+000	9	...........
	85	1.14667	1.25947E-001	-3.98312E-004	0.00000E+000	-5.01664E-005	-2.40040E-001	1.25968E-001	3.57620E+000	9	...........
	86	1.16	1.20895E-001	-3.98089E-004	0.00000E+000	-4.81269E-005	-2.40040E-001	1.20919E-001	3.57620E+000	9	...........
	87	1.17333	1.15902E-001	-3.98681E-004	0.00000E+000	-4.62079E-005	-2.40040E-001	1.15925E-001	3.57620E+000	9	...........
	88	1.18667	1.10893E-001	-3.98960E-004	0.00000E+000	-4.42421E-005	-2.40040E-001	1.10914E-001	3.57620E+000	9	...........
	89	1.2	1.05978E-001	-3.99849E-004	0.00000E+000	-4.23754E-005	-2.40040E-001	1.06005E-001	3.57620E+000	9	...........
	90	1.21333	1.01013E-001	-3.99861E-004	0.00000E+000	-4.03910E-005	-2.40040E-001	1.01035E-001	3.57620E+000	9	...........
	91	1.22667	9.60309E-002	-3.99148E-004	0.00000E+000	-3.83305E-005	-2.40040E-001	9.60515E-002	3.57620E+000	9	...........
	92	1.24	9.12451E-002	-3.98900E-004	0.00000E+000	-3.63977E-005	-2.40040E-001	9.12632E-002	3.57620E+000	9	...........
	93	1.25333	8.63618E-002	-3.99196E-004	0.00000E+000	-3.44753E-005	-2.40040E-001	8.63788E-002	3.57620E+000	9	...........
	94	1.26667	8.15597E-002	-3.98229E-004	0.00000E+000	-3.24794E-005	-2.40040E-001	8.15709E-002	3.57620E+000	9	...........
	95	1.28	7.68056E-002	-3.99394E-004	0.00000E+000	-3.06757E-005	-2.40040E-001	7.68172E-002	3.57620E+000	9	...........
	96	1.29333	7.19428E-002	-3.99641E-004	0.00000E+000	-2.87513E-005	-2.40040E-001	7.19499E-002	3.57620E+000	9	...........
	97	1.30667	6.71970E-002	-3.98333E-004	0.00000E+000	-2.67668E-005	-2.40040E-001	6.72040E-002	3.57620E+000	9	...........
	98	1.32	6.24665E-002	-3.99715E-004	0.00000E+000	-2.49688E-005	-2.40040E-001	6.24757E-002	3.57620E+000	9	...........
	99	1.33333	5.77334E-002	-3.98079E-004	0.00000E+000	-2.29824E-005	-2.40040E-001	5.77369E-002	3.57620E+000	9	...........
	100	1.34667	5.30999E-002	-4.00232E-004	0.00000E+000	-2.12522E-005	-2.40040E-001	5.31014E-002	3.57620E+000	9	...........
	101	1.36	4.84735E-002	-3.99770E-004	0.00000E+000	-1.93782E-005	-2.40040E-001	4.84789E-002	3.57620E+000	9	...........
	102	1.37333	4.38244E-002	-3.98420E-004	0.00000E+000	-1.74605E-005	-2.40040E-001	4.38339E-002	3.57620E+000	9	...........
	103	1.38667	3.92323E-002	-3.97179E-004	0.00000E+000	-1.55822E-005	-2.40040E-001	3.92337E-002	3.57620E+000	9	...........
	104	1.4	3.47708E-002	-3.99686E-004	0.00000E+000	-1.38974E-005	-2.40040E-001	3.47713E-002	3.57620E+000	9	...........
	105	1.41333	3.02642E-002	-3.99587E-004	0.00000E+000	-1.20932E-005	-2.40040E-001	3.02665E-002	3.57620E+000	9	...........
	106	1.42667	2.57031E-002	-3.97875E-004	0.00000E+000	-1.02266E-005	-2.40040E-001	2.57009E-002	3.57620E+000	9	...........
	107	1.44	2.11475E-002	-3.99752E-004	0.00000E+000	-8.45376E-006	-2.40040E-001	2.11428E-002	3.57620E+000	9	...........
	108	1.45333	1.66783E-002	-3.98994E-004	0.00000E+000	-6.65455E-006	-2.40040E-001	1.66702E-002	3.57620E+000	9	...........
	109	1.46667	1.23236E-002	-4.00055E-004	0.00000E+000	-4.93013E-006	-2.40040E-001	1.23053E-002	3.57620E+000	9	...........
	110	1.48	7.99939E-003	-4.00075E-004	0.00000E+000	-3.20036E-006	-2.40040E-001	7.98869E-003	3.57620E+000	9	...........
	111	1.49333	3.57262E-003	-3.98897E-004	0.00000E+000	-1.42511E-006	-2.40040E-001	3.55783E-003	3.57620E+000	9	...........
	112	1.5	2.98269E-004	-3.99879E-004	0.00000E+000	-1.19272E-007	-2.40040E-001	2.76709E-004	3.57620E+000	9	...........
STARTTIMEOFFSET	QUANT	1561.423	Start Time Offset (s)
