EXPLAIN
TAG	PWR800_DISCHARGE
TITLE	LABEL	PWR Cyclic Charge Discharge (Cell) - Discharge Step	Test &Identifier
DATE	LABEL	12-7-2017	Date
TIME	LABEL	15:11:08	Time
NOTES	NOTES	3	&Notes...
	supercap test cell
	0.4mg
	6M KOH
PSTAT	PSTAT	IFC5000-01520	Potentiostat
CAPACITY	QUANT	1.00000E-003	Capacity (A-hr)
CELLTYPE	SELECTOR	1	&Cell Type
WORKINGCONNECTION	SELECTOR	0	&Working Lead
MAXDISCHARGETIME	VARIABLEANDUNITS	1.00000E+002	s	1.00000E+002	second(s)	Max &Discharge Time
DISCHARGEMODE	MULTIPARAM	0	4.00000E-004	&Discharge Mode	Constant Current	Amp(s)
SAMPLETIME	QUANT	1.00000E-002	Sa&mple Period (s)
DISCHARGESTOPAT1	MULTIPARAM	3	0.00000E+000	Discharge Stop At &1	Voltage < Limit	V
DISCHARGESTOPAT2	MULTIPARAM	0	0.00000E+000	Discharge Stop At &2	None	N/A
AESBHCSELECTOR	TOGGLE	F	Save Both Half Cells
IRCOMP	TOGGLE	F	IR &Measure
EOC	QUANT	0	Open Circuit (V)
SEQUENCER	TOGGLE	TRUE	Run as Sequence
PSTATMODEL	IQUANT	53	Pstat Model
PSTATSECTION	LABEL	IFC5000-01520	Pstat Section
PSTATSERIALNO	LABEL	01520	Pstat Serial Number
CTRLMODE	IQUANT	0	Control Mode
ELECTROMETER	IQUANT	1	RE=0 or CS=1
IESTAB	IQUANT	0	I/E Stability
CASPEED	IQUANT	4	Control Amp Speed
CONVENTION	IQUANT	1	Current Convention
ICHRANGE	IQUANT	2	Ich Range
ICHRANGEMODE	TOGGLE	T	Ich Auto Range
ICHOFFSETENABLE	TOGGLE	F	Ich Offset Enable
ICHOFFSET	QUANT	0	Ich Offset (V)
ICHFILTER	IQUANT	1	Ich Filter
VCHRANGE	IQUANT	2	Vch Range
VCHRANGEMODE	TOGGLE	T	Vch Auto Range
VCHOFFSETENABLE	TOGGLE	F	Vch Offset Enable
VCHOFFSET	QUANT	0	Vch Offset (V)
VCHFILTER	IQUANT	1	Vch Filter
IERANGELOWERLIMIT	IQUANT	9	I/E Range Lower Limit
IERANGEMODE	TOGGLE	F	I/E AutoRange
IERANGE	IQUANT	9	I/E Range
ACHSELECT	IQUANT	1	Ach Select
ACHRANGE	IQUANT	2	Ach Range
ACHOFFSETENABLE	TOGGLE	F	Ach Offset Enable
ACHOFFSET	QUANT	0	Ach Offset (V)
ACHFILTER	IQUANT	1	Ach Filter
CABLEID	IQUANT	14	Cable ID
DCCALDATE	LABEL	5-7-2017	DC Calibration Date
ACCALDATE	LABEL	12/3/2015	AC Calibration Date
FRAMEWORKVERSION	QUANT	7.01	Framework Version
INSTRUMENTVERSION	LABEL	4.00	Instrument Version
CURVE	TABLE	105
	Pt	T	Vf	Im	Vu	Pwr	Sig	Ach	Temp	IERange	Over
	#	s	V	A	V	W	V	V	deg C	#	bits
	0	0.013333	6.86076E-001	-3.98459E-004	0.00000E+000	-2.73373E-004	-2.40040E-001	6.86320E-001	3.57710E+000	9	...........
	1	0.026667	6.72816E-001	-3.97613E-004	0.00000E+000	-2.67521E-004	-2.40040E-001	6.73028E-001	3.57710E+000	9	...........
	2	0.04	6.61170E-001	-3.99642E-004	0.00000E+000	-2.64231E-004	-2.40040E-001	6.61424E-001	3.57710E+000	9	...........
	3	0.053333	6.50561E-001	-3.99578E-004	0.00000E+000	-2.59950E-004	-2.40040E-001	6.50786E-001	3.57710E+000	9	...........
	4	0.066667	6.40526E-001	-3.98623E-004	0.00000E+000	-2.55328E-004	-2.40040E-001	6.40761E-001	3.57710E+000	9	...........
	5	0.08	6.30918E-001	-3.98787E-004	0.00000E+000	-2.51602E-004	-2.40040E-001	6.31126E-001	3.57710E+000	9	...........
	6	0.093333	6.21677E-001	-3.98511E-004	0.00000E+000	-2.47746E-004	-2.40040E-001	6.21847E-001	3.57710E+000	9	...........
	7	0.106667	6.12704E-001	-3.98320E-004	0.00000E+000	-2.44052E-004	-2.40040E-001	6.12896E-001	3.57710E+000	9	...........
	8	0.12	6.03933E-001	-3.98495E-004	0.00000E+000	-2.40664E-004	-2.40040E-001	6.04156E-001	3.57710E+000	9	...........
	9	0.133333	5.95398E-001	-3.98370E-004	0.00000E+000	-2.37188E-004	-2.40040E-001	5.95630E-001	3.57710E+000	9	...........
	10	0.146667	5.86921E-001	-3.99206E-004	0.00000E+000	-2.34302E-004	-2.40040E-001	5.87155E-001	3.57710E+000	9	...........
	11	0.16	5.78544E-001	-3.97226E-004	0.00000E+000	-2.29813E-004	-2.40040E-001	5.78776E-001	3.57710E+000	9	...........
	12	0.173333	5.70296E-001	-3.99466E-004	0.00000E+000	-2.27814E-004	-2.40040E-001	5.70496E-001	3.57710E+000	9	...........
	13	0.186667	5.62123E-001	-3.98499E-004	0.00000E+000	-2.24005E-004	-2.40040E-001	5.62334E-001	3.57710E+000	9	...........
	14	0.2	5.53995E-001	-3.98710E-004	0.00000E+000	-2.20884E-004	-2.40040E-001	5.54190E-001	3.57710E+000	9	...........
	15	0.213333	5.45939E-001	-3.98516E-004	0.00000E+000	-2.17565E-004	-2.40040E-001	5.46146E-001	3.57710E+000	9	...........
	16	0.226667	5.37890E-001	-3.99655E-004	0.00000E+000	-2.14971E-004	-2.40040E-001	5.38094E-001	3.57710E+000	9	...........
	17	0.24	5.29881E-001	-3.98325E-004	0.00000E+000	-2.11065E-004	-2.40040E-001	5.30111E-001	3.57710E+000	9	...........
	18	0.253333	5.22076E-001	-3.99572E-004	0.00000E+000	-2.08607E-004	-2.40040E-001	5.22280E-001	3.57710E+000	9	...........
	19	0.266667	5.14304E-001	-3.98696E-004	0.00000E+000	-2.05051E-004	-2.40040E-001	5.14490E-001	3.57710E+000	9	...........
	20	0.28	5.06434E-001	-3.99317E-004	0.00000E+000	-2.02227E-004	-2.40040E-001	5.06680E-001	3.57710E+000	9	...........
	21	0.293333	4.98753E-001	-3.99597E-004	0.00000E+000	-1.99300E-004	-2.40040E-001	4.98990E-001	3.57710E+000	9	...........
	22	0.306667	4.91092E-001	-3.99011E-004	0.00000E+000	-1.95951E-004	-2.40040E-001	4.91320E-001	3.57710E+000	9	...........
	23	0.32	4.83689E-001	-3.98264E-004	0.00000E+000	-1.92636E-004	-2.40040E-001	4.83834E-001	3.57710E+000	9	...........
	24	0.333333	4.76260E-001	-3.99293E-004	0.00000E+000	-1.90167E-004	-2.40040E-001	4.76356E-001	3.57710E+000	9	...........
	25	0.346667	4.68699E-001	-3.99017E-004	0.00000E+000	-1.87019E-004	-2.40040E-001	4.68793E-001	3.57710E+000	9	...........
	26	0.36	4.61207E-001	-3.98936E-004	0.00000E+000	-1.83992E-004	-2.40040E-001	4.61300E-001	3.57710E+000	9	...........
	27	0.373333	4.53739E-001	-3.98492E-004	0.00000E+000	-1.80811E-004	-2.40040E-001	4.53829E-001	3.57710E+000	9	...........
	28	0.386667	4.46325E-001	-3.98503E-004	0.00000E+000	-1.77862E-004	-2.40040E-001	4.46418E-001	3.57710E+000	9	...........
	29	0.4	4.38989E-001	-3.97704E-004	0.00000E+000	-1.74587E-004	-2.40040E-001	4.39077E-001	3.57710E+000	9	...........
	30	0.413333	4.31693E-001	-4.00043E-004	0.00000E+000	-1.72696E-004	-2.40040E-001	4.31783E-001	3.57710E+000	9	...........
	31	0.426667	4.24381E-001	-3.99217E-004	0.00000E+000	-1.69420E-004	-2.40040E-001	4.24470E-001	3.57710E+000	9	...........
	32	0.44	4.17140E-001	-3.97928E-004	0.00000E+000	-1.65992E-004	-2.40040E-001	4.17222E-001	3.57710E+000	9	...........
	33	0.453333	4.09909E-001	-3.98702E-004	0.00000E+000	-1.63432E-004	-2.40040E-001	4.09989E-001	3.57710E+000	9	...........
	34	0.466667	4.02696E-001	-3.99445E-004	0.00000E+000	-1.60855E-004	-2.40040E-001	4.02776E-001	3.57710E+000	9	...........
	35	0.48	3.95536E-001	-3.99270E-004	0.00000E+000	-1.57926E-004	-2.40040E-001	3.95612E-001	3.57710E+000	9	...........
	36	0.493333	3.88453E-001	-3.99175E-004	0.00000E+000	-1.55061E-004	-2.40040E-001	3.88526E-001	3.57710E+000	9	...........
	37	0.506667	3.81431E-001	-3.97950E-004	0.00000E+000	-1.51790E-004	-2.40040E-001	3.81500E-001	3.57710E+000	9	...........
	38	0.52	3.74420E-001	-3.99184E-004	0.00000E+000	-1.49463E-004	-2.40040E-001	3.74490E-001	3.57710E+000	9	...........
	39	0.533333	3.67495E-001	-3.97986E-004	0.00000E+000	-1.46258E-004	-2.40040E-001	3.67565E-001	3.57710E+000	9	...........
	40	0.546667	3.60615E-001	-3.97863E-004	0.00000E+000	-1.43476E-004	-2.40040E-001	3.60682E-001	3.57710E+000	9	...........
	41	0.56	3.53856E-001	-3.99180E-004	0.00000E+000	-1.41252E-004	-2.40040E-001	3.53918E-001	3.57710E+000	9	...........
	42	0.573333	3.47069E-001	-3.99341E-004	0.00000E+000	-1.38599E-004	-2.40040E-001	3.47133E-001	3.57710E+000	9	...........
	43	0.586667	3.40249E-001	-3.98902E-004	0.00000E+000	-1.35726E-004	-2.40040E-001	3.40316E-001	3.57710E+000	9	...........
	44	0.6	3.33450E-001	-3.98957E-004	0.00000E+000	-1.33032E-004	-2.40040E-001	3.33512E-001	3.57710E+000	9	...........
	45	0.613333	3.26743E-001	-3.98071E-004	0.00000E+000	-1.30067E-004	-2.40040E-001	3.26805E-001	3.57710E+000	9	...........
	46	0.626667	3.20097E-001	-3.97733E-004	0.00000E+000	-1.27313E-004	-2.40040E-001	3.20157E-001	3.57710E+000	9	...........
	47	0.64	3.13370E-001	-3.98878E-004	0.00000E+000	-1.24996E-004	-2.40040E-001	3.13430E-001	3.57710E+000	9	...........
	48	0.653333	3.06780E-001	-3.98007E-004	0.00000E+000	-1.22101E-004	-2.40040E-001	3.06841E-001	3.57710E+000	9	...........
	49	0.666667	3.00252E-001	-3.97466E-004	0.00000E+000	-1.19340E-004	-2.40040E-001	3.00312E-001	3.57710E+000	9	...........
	50	0.68	2.93750E-001	-3.98997E-004	0.00000E+000	-1.17205E-004	-2.40040E-001	2.93802E-001	3.57710E+000	9	...........
	51	0.693333	2.87362E-001	-3.98893E-004	0.00000E+000	-1.14627E-004	-2.40040E-001	2.87417E-001	3.57710E+000	9	...........
	52	0.706667	2.81052E-001	-3.98982E-004	0.00000E+000	-1.12135E-004	-2.40040E-001	2.81103E-001	3.57710E+000	9	...........
	53	0.72	2.74730E-001	-3.98933E-004	0.00000E+000	-1.09599E-004	-2.40040E-001	2.74790E-001	3.57710E+000	9	...........
	54	0.733333	2.68418E-001	-3.98544E-004	0.00000E+000	-1.06976E-004	-2.40040E-001	2.68469E-001	3.57710E+000	9	...........
	55	0.746667	2.62120E-001	-3.98624E-004	0.00000E+000	-1.04487E-004	-2.40040E-001	2.62175E-001	3.57710E+000	9	...........
	56	0.76	2.55866E-001	-3.98362E-004	0.00000E+000	-1.01927E-004	-2.40040E-001	2.55920E-001	3.57710E+000	9	...........
	57	0.773333	2.49693E-001	-4.00026E-004	0.00000E+000	-9.98840E-005	-2.40040E-001	2.49743E-001	3.57710E+000	9	...........
	58	0.786667	2.43484E-001	-3.98332E-004	0.00000E+000	-9.69875E-005	-2.40040E-001	2.43524E-001	3.57710E+000	9	...........
	59	0.8	2.37373E-001	-3.98460E-004	0.00000E+000	-9.45839E-005	-2.40040E-001	2.37409E-001	3.57710E+000	9	...........
	60	0.813333	2.31300E-001	-3.99986E-004	0.00000E+000	-9.25167E-005	-2.40040E-001	2.31342E-001	3.57710E+000	9	...........
	61	0.826667	2.25311E-001	-3.99455E-004	0.00000E+000	-9.00015E-005	-2.40040E-001	2.25345E-001	3.57757E+000	9	...........
	62	0.84	2.19372E-001	-3.98622E-004	0.00000E+000	-8.74463E-005	-2.40040E-001	2.19403E-001	3.57770E+000	9	...........
	63	0.853333	2.13365E-001	-3.99458E-004	0.00000E+000	-8.52303E-005	-2.40040E-001	2.13399E-001	3.57770E+000	9	...........
	64	0.866667	2.07365E-001	-3.98280E-004	0.00000E+000	-8.25893E-005	-2.40040E-001	2.07396E-001	3.57770E+000	9	...........
	65	0.88	2.01396E-001	-3.98797E-004	0.00000E+000	-8.03160E-005	-2.40040E-001	2.01428E-001	3.57770E+000	9	...........
	66	0.893333	1.95609E-001	-3.96952E-004	0.00000E+000	-7.76474E-005	-2.40040E-001	1.95644E-001	3.57770E+000	9	...........
	67	0.906667	1.89912E-001	-3.98907E-004	0.00000E+000	-7.57574E-005	-2.40040E-001	1.89942E-001	3.57770E+000	9	...........
	68	0.92	1.84210E-001	-3.99123E-004	0.00000E+000	-7.35224E-005	-2.40040E-001	1.84243E-001	3.57770E+000	9	...........
	69	0.933333	1.78523E-001	-3.98062E-004	0.00000E+000	-7.10632E-005	-2.40040E-001	1.78558E-001	3.57770E+000	9	...........
	70	0.946667	1.72810E-001	-3.98728E-004	0.00000E+000	-6.89042E-005	-2.40040E-001	1.72842E-001	3.57770E+000	9	...........
	71	0.96	1.67162E-001	-3.99991E-004	0.00000E+000	-6.68632E-005	-2.40040E-001	1.67192E-001	3.57770E+000	9	...........
	72	0.97333	1.61645E-001	-3.98048E-004	0.00000E+000	-6.43425E-005	-2.40040E-001	1.61674E-001	3.57770E+000	9	...........
	73	0.98667	1.56113E-001	-3.98375E-004	0.00000E+000	-6.21915E-005	-2.40040E-001	1.56131E-001	3.57770E+000	9	...........
	74	1	1.50611E-001	-3.98801E-004	0.00000E+000	-6.00636E-005	-2.40040E-001	1.50637E-001	3.57770E+000	9	...........
	75	1.01333	1.45051E-001	-3.98500E-004	0.00000E+000	-5.78028E-005	-2.40040E-001	1.45074E-001	3.57770E+000	9	...........
	76	1.02667	1.39556E-001	-3.97865E-004	0.00000E+000	-5.55244E-005	-2.40040E-001	1.39581E-001	3.57770E+000	9	...........
	77	1.04	1.34060E-001	-3.97929E-004	0.00000E+000	-5.33465E-005	-2.40040E-001	1.34080E-001	3.57770E+000	9	...........
	78	1.05333	1.28660E-001	-3.99019E-004	0.00000E+000	-5.13379E-005	-2.40040E-001	1.28681E-001	3.57770E+000	9	...........
	79	1.06667	1.23444E-001	-3.97632E-004	0.00000E+000	-4.90854E-005	-2.40040E-001	1.23471E-001	3.57770E+000	9	...........
	80	1.08	1.18167E-001	-3.98558E-004	0.00000E+000	-4.70965E-005	-2.40040E-001	1.18191E-001	3.57770E+000	9	...........
	81	1.09333	1.12974E-001	-3.98915E-004	0.00000E+000	-4.50671E-005	-2.40040E-001	1.12992E-001	3.57770E+000	9	...........
	82	1.10667	1.07738E-001	-3.98615E-004	0.00000E+000	-4.29460E-005	-2.40040E-001	1.07754E-001	3.57770E+000	9	...........
	83	1.12	1.02549E-001	-3.98396E-004	0.00000E+000	-4.08553E-005	-2.40040E-001	1.02565E-001	3.57770E+000	9	...........
	84	1.13333	9.74090E-002	-3.99343E-004	0.00000E+000	-3.88996E-005	-2.40040E-001	9.74218E-002	3.57770E+000	9	...........
	85	1.14667	9.22449E-002	-3.98703E-004	0.00000E+000	-3.67783E-005	-2.40040E-001	9.22535E-002	3.57770E+000	9	...........
	86	1.16	8.71628E-002	-3.99383E-004	0.00000E+000	-3.48114E-005	-2.40040E-001	8.71742E-002	3.57770E+000	9	...........
	87	1.17333	8.21239E-002	-3.98919E-004	0.00000E+000	-3.27608E-005	-2.40040E-001	8.21327E-002	3.57770E+000	9	...........
	88	1.18667	7.70900E-002	-3.99304E-004	0.00000E+000	-3.07824E-005	-2.40040E-001	7.70912E-002	3.57770E+000	9	...........
	89	1.2	7.21651E-002	-3.99873E-004	0.00000E+000	-2.88569E-005	-2.40040E-001	7.21672E-002	3.57770E+000	9	...........
	90	1.21333	6.72281E-002	-3.99305E-004	0.00000E+000	-2.68445E-005	-2.40040E-001	6.72331E-002	3.57770E+000	9	...........
	91	1.22667	6.22728E-002	-3.98074E-004	0.00000E+000	-2.47892E-005	-2.40040E-001	6.22737E-002	3.57770E+000	9	...........
	92	1.24	5.73292E-002	-3.98094E-004	0.00000E+000	-2.28224E-005	-2.40040E-001	5.73334E-002	3.57770E+000	9	...........
	93	1.25333	5.24981E-002	-3.98444E-004	0.00000E+000	-2.09175E-005	-2.40040E-001	5.25013E-002	3.57770E+000	9	...........
	94	1.26667	4.75955E-002	-3.99234E-004	0.00000E+000	-1.90017E-005	-2.40040E-001	4.75967E-002	3.57770E+000	9	...........
	95	1.28	4.27518E-002	-3.98697E-004	0.00000E+000	-1.70450E-005	-2.40040E-001	4.27576E-002	3.57770E+000	9	...........
	96	1.29333	3.80220E-002	-3.98769E-004	0.00000E+000	-1.51620E-005	-2.40040E-001	3.80232E-002	3.57770E+000	9	...........
	97	1.30667	3.31475E-002	-3.98501E-004	0.00000E+000	-1.32093E-005	-2.40040E-001	3.31431E-002	3.57770E+000	9	...........
	98	1.32	2.83785E-002	-3.98161E-004	0.00000E+000	-1.12992E-005	-2.40040E-001	2.83740E-002	3.57770E+000	9	...........
	99	1.33333	2.36776E-002	-3.98597E-004	0.00000E+000	-9.43783E-006	-2.40040E-001	2.36692E-002	3.57770E+000	9	...........
	100	1.34667	1.90572E-002	-3.99869E-004	0.00000E+000	-7.62039E-006	-2.40040E-001	1.90435E-002	3.57770E+000	9	...........
	101	1.36	1.43678E-002	-3.98400E-004	0.00000E+000	-5.72413E-006	-2.40040E-001	1.43575E-002	3.57770E+000	9	...........
	102	1.37333	9.78161E-003	-3.99149E-004	0.00000E+000	-3.90432E-006	-2.40040E-001	9.76550E-003	3.57770E+000	9	...........
	103	1.38667	5.16103E-003	-3.99461E-004	0.00000E+000	-2.06163E-006	-2.40040E-001	5.14436E-003	3.57770E+000	9	...........
	104	1.39667	1.17549E-003	-3.98527E-004	0.00000E+000	-4.68466E-007	-2.40040E-001	1.15634E-003	3.57770E+000	9	...........
STARTTIMEOFFSET	QUANT	2493.316	Start Time Offset (s)
