EXPLAIN
TAG	PWR800_DISCHARGE
TITLE	LABEL	PWR Cyclic Charge Discharge (Cell) - Discharge Step	Test &Identifier
DATE	LABEL	12-7-2017	Date
TIME	LABEL	14:30:24	Time
NOTES	NOTES	3	&Notes...
	supercap test cell
	0.4mg
	6M KOH
PSTAT	PSTAT	IFC5000-01520	Potentiostat
CAPACITY	QUANT	1.00000E-003	Capacity (A-hr)
CELLTYPE	SELECTOR	1	&Cell Type
WORKINGCONNECTION	SELECTOR	0	&Working Lead
MAXDISCHARGETIME	VARIABLEANDUNITS	1.00000E+002	s	1.00000E+002	second(s)	Max &Discharge Time
DISCHARGEMODE	MULTIPARAM	0	4.00000E-004	&Discharge Mode	Constant Current	Amp(s)
SAMPLETIME	QUANT	1.00000E-002	Sa&mple Period (s)
DISCHARGESTOPAT1	MULTIPARAM	3	0.00000E+000	Discharge Stop At &1	Voltage < Limit	V
DISCHARGESTOPAT2	MULTIPARAM	0	0.00000E+000	Discharge Stop At &2	None	N/A
AESBHCSELECTOR	TOGGLE	F	Save Both Half Cells
IRCOMP	TOGGLE	F	IR &Measure
EOC	QUANT	0	Open Circuit (V)
SEQUENCER	TOGGLE	TRUE	Run as Sequence
PSTATMODEL	IQUANT	53	Pstat Model
PSTATSECTION	LABEL	IFC5000-01520	Pstat Section
PSTATSERIALNO	LABEL	01520	Pstat Serial Number
CTRLMODE	IQUANT	0	Control Mode
ELECTROMETER	IQUANT	1	RE=0 or CS=1
IESTAB	IQUANT	0	I/E Stability
CASPEED	IQUANT	4	Control Amp Speed
CONVENTION	IQUANT	1	Current Convention
ICHRANGE	IQUANT	2	Ich Range
ICHRANGEMODE	TOGGLE	T	Ich Auto Range
ICHOFFSETENABLE	TOGGLE	F	Ich Offset Enable
ICHOFFSET	QUANT	0	Ich Offset (V)
ICHFILTER	IQUANT	1	Ich Filter
VCHRANGE	IQUANT	2	Vch Range
VCHRANGEMODE	TOGGLE	T	Vch Auto Range
VCHOFFSETENABLE	TOGGLE	F	Vch Offset Enable
VCHOFFSET	QUANT	0	Vch Offset (V)
VCHFILTER	IQUANT	1	Vch Filter
IERANGELOWERLIMIT	IQUANT	9	I/E Range Lower Limit
IERANGEMODE	TOGGLE	F	I/E AutoRange
IERANGE	IQUANT	9	I/E Range
ACHSELECT	IQUANT	1	Ach Select
ACHRANGE	IQUANT	2	Ach Range
ACHOFFSETENABLE	TOGGLE	F	Ach Offset Enable
ACHOFFSET	QUANT	0	Ach Offset (V)
ACHFILTER	IQUANT	1	Ach Filter
CABLEID	IQUANT	14	Cable ID
DCCALDATE	LABEL	5-7-2017	DC Calibration Date
ACCALDATE	LABEL	12/3/2015	AC Calibration Date
FRAMEWORKVERSION	QUANT	7.01	Framework Version
INSTRUMENTVERSION	LABEL	4.00	Instrument Version
CURVE	TABLE	126
	Pt	T	Vf	Im	Vu	Pwr	Sig	Ach	Temp	IERange	Over
	#	s	V	A	V	W	V	V	deg C	#	bits
	0	0.013333	7.15202E-001	-3.97326E-004	0.00000E+000	-2.84168E-004	-2.40040E-001	7.15423E-001	3.57590E+000	9	...........
	1	0.026667	7.03842E-001	-3.99392E-004	0.00000E+000	-2.81109E-004	-2.40040E-001	7.04074E-001	3.57590E+000	9	...........
	2	0.04	6.93744E-001	-3.99118E-004	0.00000E+000	-2.76886E-004	-2.40040E-001	6.94009E-001	3.57590E+000	9	...........
	3	0.053333	6.84484E-001	-3.99346E-004	0.00000E+000	-2.73346E-004	-2.40040E-001	6.84760E-001	3.57590E+000	9	...........
	4	0.066667	6.75732E-001	-3.99518E-004	0.00000E+000	-2.69967E-004	-2.40040E-001	6.75968E-001	3.57590E+000	9	...........
	5	0.08	6.67276E-001	-3.99693E-004	0.00000E+000	-2.66705E-004	-2.40040E-001	6.67530E-001	3.57590E+000	9	...........
	6	0.093333	6.59091E-001	-3.98188E-004	0.00000E+000	-2.62443E-004	-2.40040E-001	6.59334E-001	3.57590E+000	9	...........
	7	0.106667	6.51140E-001	-3.98992E-004	0.00000E+000	-2.59799E-004	-2.40040E-001	6.51404E-001	3.57590E+000	9	...........
	8	0.12	6.43348E-001	-3.98412E-004	0.00000E+000	-2.56318E-004	-2.40040E-001	6.43583E-001	3.57590E+000	9	...........
	9	0.133333	6.35690E-001	-3.98254E-004	0.00000E+000	-2.53166E-004	-2.40040E-001	6.35951E-001	3.57590E+000	9	...........
	10	0.146667	6.28204E-001	-3.99119E-004	0.00000E+000	-2.50728E-004	-2.40040E-001	6.28423E-001	3.57590E+000	9	...........
	11	0.16	6.20775E-001	-3.99570E-004	0.00000E+000	-2.48043E-004	-2.40040E-001	6.20977E-001	3.57590E+000	9	...........
	12	0.173333	6.13422E-001	-3.98709E-004	0.00000E+000	-2.44577E-004	-2.40040E-001	6.13665E-001	3.57590E+000	9	...........
	13	0.186667	6.06132E-001	-3.99283E-004	0.00000E+000	-2.42018E-004	-2.40040E-001	6.06346E-001	3.57590E+000	9	...........
	14	0.2	5.98949E-001	-3.97557E-004	0.00000E+000	-2.38116E-004	-2.40040E-001	5.99193E-001	3.57590E+000	9	...........
	15	0.213333	5.91899E-001	-3.98384E-004	0.00000E+000	-2.35803E-004	-2.40040E-001	5.92135E-001	3.57590E+000	9	...........
	16	0.226667	5.84729E-001	-3.97902E-004	0.00000E+000	-2.32665E-004	-2.40040E-001	5.84957E-001	3.57590E+000	9	...........
	17	0.24	5.77644E-001	-3.97139E-004	0.00000E+000	-2.29405E-004	-2.40040E-001	5.77866E-001	3.57590E+000	9	...........
	18	0.253333	5.70621E-001	-3.98405E-004	0.00000E+000	-2.27338E-004	-2.40040E-001	5.70835E-001	3.57590E+000	9	...........
	19	0.266667	5.63618E-001	-3.99898E-004	0.00000E+000	-2.25390E-004	-2.40040E-001	5.63870E-001	3.57590E+000	9	...........
	20	0.28	5.56690E-001	-3.98889E-004	0.00000E+000	-2.22057E-004	-2.40040E-001	5.56922E-001	3.57590E+000	9	...........
	21	0.293333	5.49803E-001	-3.99085E-004	0.00000E+000	-2.19419E-004	-2.40040E-001	5.50024E-001	3.57590E+000	9	...........
	22	0.306667	5.42951E-001	-3.98683E-004	0.00000E+000	-2.16465E-004	-2.40040E-001	5.43175E-001	3.57590E+000	9	...........
	23	0.32	5.36178E-001	-3.99826E-004	0.00000E+000	-2.14378E-004	-2.40040E-001	5.36385E-001	3.57590E+000	9	...........
	24	0.333333	5.29432E-001	-3.99694E-004	0.00000E+000	-2.11611E-004	-2.40040E-001	5.29631E-001	3.57590E+000	9	...........
	25	0.346667	5.22743E-001	-3.99162E-004	0.00000E+000	-2.08659E-004	-2.40040E-001	5.22931E-001	3.57590E+000	9	...........
	26	0.36	5.16020E-001	-3.98601E-004	0.00000E+000	-2.05686E-004	-2.40040E-001	5.16213E-001	3.57590E+000	9	...........
	27	0.373333	5.09378E-001	-3.98676E-004	0.00000E+000	-2.03077E-004	-2.40040E-001	5.09594E-001	3.57590E+000	9	...........
	28	0.386667	5.02780E-001	-3.97920E-004	0.00000E+000	-2.00066E-004	-2.40040E-001	5.03009E-001	3.57590E+000	9	...........
	29	0.4	4.96199E-001	-3.97658E-004	0.00000E+000	-1.97317E-004	-2.40040E-001	4.96404E-001	3.57590E+000	9	...........
	30	0.413333	4.89600E-001	-3.98819E-004	0.00000E+000	-1.95262E-004	-2.40040E-001	4.89806E-001	3.57590E+000	9	...........
	31	0.426667	4.83328E-001	-3.98568E-004	0.00000E+000	-1.92639E-004	-2.40040E-001	4.83441E-001	3.57590E+000	9	...........
	32	0.44	4.76993E-001	-3.98519E-004	0.00000E+000	-1.90091E-004	-2.40040E-001	4.77088E-001	3.57590E+000	9	...........
	33	0.453333	4.70614E-001	-3.96944E-004	0.00000E+000	-1.86807E-004	-2.40040E-001	4.70706E-001	3.57590E+000	9	...........
	34	0.466667	4.64190E-001	-3.98321E-004	0.00000E+000	-1.84896E-004	-2.40040E-001	4.64285E-001	3.57590E+000	9	...........
	35	0.48	4.57882E-001	-3.98377E-004	0.00000E+000	-1.82410E-004	-2.40040E-001	4.57977E-001	3.57590E+000	9	...........
	36	0.493333	4.51558E-001	-3.97539E-004	0.00000E+000	-1.79512E-004	-2.40040E-001	4.51657E-001	3.57590E+000	9	...........
	37	0.506667	4.45229E-001	-3.99255E-004	0.00000E+000	-1.77760E-004	-2.40040E-001	4.45318E-001	3.57590E+000	9	...........
	38	0.52	4.38938E-001	-3.98402E-004	0.00000E+000	-1.74874E-004	-2.40040E-001	4.39032E-001	3.57590E+000	9	...........
	39	0.533333	4.32724E-001	-3.98559E-004	0.00000E+000	-1.72466E-004	-2.40040E-001	4.32809E-001	3.57590E+000	9	...........
	40	0.546667	4.26517E-001	-3.99180E-004	0.00000E+000	-1.70257E-004	-2.40040E-001	4.26609E-001	3.57590E+000	9	...........
	41	0.56	4.20359E-001	-3.98594E-004	0.00000E+000	-1.67553E-004	-2.40040E-001	4.20449E-001	3.57590E+000	9	...........
	42	0.573333	4.14234E-001	-3.97137E-004	0.00000E+000	-1.64508E-004	-2.40040E-001	4.14322E-001	3.57590E+000	9	...........
	43	0.586667	4.08095E-001	-3.99531E-004	0.00000E+000	-1.63047E-004	-2.40040E-001	4.08175E-001	3.57590E+000	9	...........
	44	0.6	4.02081E-001	-3.98403E-004	0.00000E+000	-1.60190E-004	-2.40040E-001	4.02157E-001	3.57590E+000	9	...........
	45	0.613333	3.96060E-001	-3.97518E-004	0.00000E+000	-1.57441E-004	-2.40040E-001	3.96139E-001	3.57590E+000	9	...........
	46	0.626667	3.90100E-001	-3.98768E-004	0.00000E+000	-1.55559E-004	-2.40040E-001	3.90173E-001	3.57590E+000	9	...........
	47	0.64	3.84120E-001	-3.99034E-004	0.00000E+000	-1.53277E-004	-2.40040E-001	3.84197E-001	3.57590E+000	9	...........
	48	0.653333	3.78159E-001	-3.97711E-004	0.00000E+000	-1.50398E-004	-2.40040E-001	3.78233E-001	3.57590E+000	9	...........
	49	0.666667	3.72166E-001	-3.98717E-004	0.00000E+000	-1.48389E-004	-2.40040E-001	3.72237E-001	3.57590E+000	9	...........
	50	0.68	3.66283E-001	-3.99108E-004	0.00000E+000	-1.46186E-004	-2.40040E-001	3.66350E-001	3.57590E+000	9	...........
	51	0.693333	3.60530E-001	-3.98090E-004	0.00000E+000	-1.43524E-004	-2.40040E-001	3.60593E-001	3.57590E+000	9	...........
	52	0.706667	3.54663E-001	-3.99442E-004	0.00000E+000	-1.41667E-004	-2.40040E-001	3.54733E-001	3.57590E+000	9	...........
	53	0.72	3.48806E-001	-3.98314E-004	0.00000E+000	-1.38934E-004	-2.40040E-001	3.48873E-001	3.57642E+000	9	...........
	54	0.733333	3.42962E-001	-3.99515E-004	0.00000E+000	-1.37018E-004	-2.40040E-001	3.43028E-001	3.57730E+000	9	...........
	55	0.746667	3.37228E-001	-3.98936E-004	0.00000E+000	-1.34533E-004	-2.40040E-001	3.37289E-001	3.57730E+000	9	...........
	56	0.76	3.31564E-001	-3.98035E-004	0.00000E+000	-1.31974E-004	-2.40040E-001	3.31627E-001	3.57730E+000	9	...........
	57	0.773333	3.25889E-001	-3.99542E-004	0.00000E+000	-1.30206E-004	-2.40040E-001	3.25953E-001	3.57730E+000	9	...........
	58	0.786667	3.20182E-001	-3.99554E-004	0.00000E+000	-1.27930E-004	-2.40040E-001	3.20241E-001	3.57730E+000	9	...........
	59	0.8	3.14577E-001	-3.98678E-004	0.00000E+000	-1.25415E-004	-2.40040E-001	3.14632E-001	3.57730E+000	9	...........
	60	0.813333	3.09027E-001	-3.97542E-004	0.00000E+000	-1.22851E-004	-2.40040E-001	3.09089E-001	3.57730E+000	9	...........
	61	0.826667	3.03446E-001	-4.00062E-004	0.00000E+000	-1.21397E-004	-2.40040E-001	3.03502E-001	3.57730E+000	9	...........
	62	0.84	2.97926E-001	-4.00011E-004	0.00000E+000	-1.19174E-004	-2.40040E-001	2.97984E-001	3.57730E+000	9	...........
	63	0.853333	2.92395E-001	-3.97592E-004	0.00000E+000	-1.16254E-004	-2.40040E-001	2.92451E-001	3.57730E+000	9	...........
	64	0.866667	2.86831E-001	-3.98600E-004	0.00000E+000	-1.14331E-004	-2.40040E-001	2.86885E-001	3.57730E+000	9	...........
	65	0.88	2.81344E-001	-3.99299E-004	0.00000E+000	-1.12341E-004	-2.40040E-001	2.81400E-001	3.57730E+000	9	...........
	66	0.893333	2.75923E-001	-3.98380E-004	0.00000E+000	-1.09922E-004	-2.40040E-001	2.75979E-001	3.57730E+000	9	...........
	67	0.906667	2.70593E-001	-3.98982E-004	0.00000E+000	-1.07962E-004	-2.40040E-001	2.70646E-001	3.57730E+000	9	...........
	68	0.92	2.65220E-001	-3.97443E-004	0.00000E+000	-1.05410E-004	-2.40040E-001	2.65272E-001	3.57730E+000	9	...........
	69	0.933333	2.59834E-001	-3.98806E-004	0.00000E+000	-1.03623E-004	-2.40040E-001	2.59890E-001	3.57730E+000	9	...........
	70	0.946667	2.54559E-001	-3.99157E-004	0.00000E+000	-1.01609E-004	-2.40040E-001	2.54611E-001	3.57730E+000	9	...........
	71	0.96	2.49210E-001	-3.99381E-004	0.00000E+000	-9.95297E-005	-2.40040E-001	2.49268E-001	3.57730E+000	9	...........
	72	0.97333	2.43898E-001	-3.97851E-004	0.00000E+000	-9.70350E-005	-2.40040E-001	2.43945E-001	3.57730E+000	9	...........
	73	0.98667	2.38700E-001	-3.97475E-004	0.00000E+000	-9.48771E-005	-2.40040E-001	2.38745E-001	3.57730E+000	9	...........
	74	1	2.33406E-001	-3.99364E-004	0.00000E+000	-9.32139E-005	-2.40040E-001	2.33448E-001	3.57730E+000	9	...........
	75	1.01333	2.28214E-001	-3.99280E-004	0.00000E+000	-9.11214E-005	-2.40040E-001	2.28259E-001	3.57730E+000	9	...........
	76	1.02667	2.23074E-001	-3.99132E-004	0.00000E+000	-8.90362E-005	-2.40040E-001	2.23121E-001	3.57730E+000	9	...........
	77	1.04	2.17985E-001	-3.98331E-004	0.00000E+000	-8.68302E-005	-2.40040E-001	2.18029E-001	3.57730E+000	9	...........
	78	1.05333	2.12810E-001	-3.97578E-004	0.00000E+000	-8.46084E-005	-2.40040E-001	2.12849E-001	3.57730E+000	9	...........
	79	1.06667	2.07729E-001	-3.99377E-004	0.00000E+000	-8.29621E-005	-2.40040E-001	2.07767E-001	3.57730E+000	9	...........
	80	1.08	2.02714E-001	-3.99008E-004	0.00000E+000	-8.08848E-005	-2.40040E-001	2.02750E-001	3.57730E+000	9	...........
	81	1.09333	1.97715E-001	-3.99387E-004	0.00000E+000	-7.89645E-005	-2.40040E-001	1.97749E-001	3.57730E+000	9	...........
	82	1.10667	1.92709E-001	-3.99887E-004	0.00000E+000	-7.70616E-005	-2.40040E-001	1.92746E-001	3.57730E+000	9	...........
	83	1.12	1.87716E-001	-3.99344E-004	0.00000E+000	-7.49632E-005	-2.40040E-001	1.87752E-001	3.57730E+000	9	...........
	84	1.13333	1.82806E-001	-3.99655E-004	0.00000E+000	-7.30594E-005	-2.40040E-001	1.82838E-001	3.57730E+000	9	...........
	85	1.14667	1.77839E-001	-4.00420E-004	0.00000E+000	-7.12103E-005	-2.40040E-001	1.77872E-001	3.57730E+000	9	...........
	86	1.16	1.72836E-001	-3.99441E-004	0.00000E+000	-6.90376E-005	-2.40040E-001	1.72864E-001	3.57730E+000	9	...........
	87	1.17333	1.67958E-001	-3.98571E-004	0.00000E+000	-6.69431E-005	-2.40040E-001	1.67990E-001	3.57730E+000	9	...........
	88	1.18667	1.63191E-001	-3.98758E-004	0.00000E+000	-6.50739E-005	-2.40040E-001	1.63221E-001	3.57730E+000	9	...........
	89	1.2	1.58354E-001	-3.99281E-004	0.00000E+000	-6.32280E-005	-2.40040E-001	1.58381E-001	3.57730E+000	9	...........
	90	1.21333	1.53513E-001	-3.98917E-004	0.00000E+000	-6.12390E-005	-2.40040E-001	1.53542E-001	3.57730E+000	9	...........
	91	1.22667	1.48661E-001	-3.98099E-004	0.00000E+000	-5.91816E-005	-2.40040E-001	1.48688E-001	3.57730E+000	9	...........
	92	1.24	1.43956E-001	-3.98635E-004	0.00000E+000	-5.73860E-005	-2.40040E-001	1.43987E-001	3.57730E+000	9	...........
	93	1.25333	1.39334E-001	-3.99550E-004	0.00000E+000	-5.56710E-005	-2.40040E-001	1.39364E-001	3.57730E+000	9	...........
	94	1.26667	1.34567E-001	-3.98710E-004	0.00000E+000	-5.36531E-005	-2.40040E-001	1.34589E-001	3.57730E+000	9	...........
	95	1.28	1.29912E-001	-3.97795E-004	0.00000E+000	-5.16781E-005	-2.40040E-001	1.29941E-001	3.57730E+000	9	...........
	96	1.29333	1.25192E-001	-3.98310E-004	0.00000E+000	-4.98652E-005	-2.40040E-001	1.25222E-001	3.57730E+000	9	...........
	97	1.30667	1.20558E-001	-3.99343E-004	0.00000E+000	-4.81438E-005	-2.40040E-001	1.20580E-001	3.57730E+000	9	...........
	98	1.32	1.15819E-001	-3.98392E-004	0.00000E+000	-4.61414E-005	-2.40040E-001	1.15846E-001	3.57730E+000	9	...........
	99	1.33333	1.11208E-001	-3.97453E-004	0.00000E+000	-4.41999E-005	-2.40040E-001	1.11233E-001	3.57730E+000	9	...........
	100	1.34667	1.06574E-001	-3.99502E-004	0.00000E+000	-4.25765E-005	-2.40040E-001	1.06593E-001	3.57730E+000	9	...........
	101	1.36	1.01990E-001	-3.98341E-004	0.00000E+000	-4.06266E-005	-2.40040E-001	1.02008E-001	3.57730E+000	9	...........
	102	1.37333	9.74045E-002	-3.98793E-004	0.00000E+000	-3.88442E-005	-2.40040E-001	9.74217E-002	3.57730E+000	9	...........
	103	1.38667	9.28503E-002	-3.98362E-004	0.00000E+000	-3.69881E-005	-2.40040E-001	9.28647E-002	3.57730E+000	9	...........
	104	1.4	8.83110E-002	-3.98515E-004	0.00000E+000	-3.51932E-005	-2.40040E-001	8.83274E-002	3.57730E+000	9	...........
	105	1.41333	8.38727E-002	-3.97949E-004	0.00000E+000	-3.33770E-005	-2.40040E-001	8.38887E-002	3.57730E+000	9	...........
	106	1.42667	7.94610E-002	-3.98622E-004	0.00000E+000	-3.16749E-005	-2.40040E-001	7.94638E-002	3.57730E+000	9	...........
	107	1.44	7.50134E-002	-3.98067E-004	0.00000E+000	-2.98603E-005	-2.40040E-001	7.50181E-002	3.57730E+000	9	...........
	108	1.45333	7.05992E-002	-3.98983E-004	0.00000E+000	-2.81679E-005	-2.40040E-001	7.06044E-002	3.57730E+000	9	...........
	109	1.46667	6.62478E-002	-3.99092E-004	0.00000E+000	-2.64390E-005	-2.40040E-001	6.62577E-002	3.57730E+000	9	...........
	110	1.48	6.18608E-002	-3.99601E-004	0.00000E+000	-2.47196E-005	-2.40040E-001	6.18662E-002	3.57730E+000	9	...........
	111	1.49333	5.75245E-002	-3.98097E-004	0.00000E+000	-2.29003E-005	-2.40040E-001	5.75288E-002	3.57730E+000	9	...........
	112	1.50667	5.31789E-002	-3.98851E-004	0.00000E+000	-2.12105E-005	-2.40040E-001	5.31794E-002	3.57730E+000	9	...........
	113	1.52	4.88759E-002	-3.97758E-004	0.00000E+000	-1.94408E-005	-2.40040E-001	4.88806E-002	3.57730E+000	9	...........
	114	1.53333	4.46363E-002	-3.98390E-004	0.00000E+000	-1.77826E-005	-2.40040E-001	4.46506E-002	3.57730E+000	9	...........
	115	1.54667	4.03802E-002	-3.98541E-004	0.00000E+000	-1.60931E-005	-2.40040E-001	4.03859E-002	3.57730E+000	9	...........
	116	1.56	3.61813E-002	-3.99769E-004	0.00000E+000	-1.44641E-005	-2.40040E-001	3.61874E-002	3.57730E+000	9	...........
	117	1.57333	3.18852E-002	-3.97931E-004	0.00000E+000	-1.26881E-005	-2.40040E-001	3.18859E-002	3.57730E+000	9	...........
	118	1.58667	2.76812E-002	-3.98981E-004	0.00000E+000	-1.10443E-005	-2.40040E-001	2.76815E-002	3.57730E+000	9	...........
	119	1.6	2.35324E-002	-3.99114E-004	0.00000E+000	-9.39210E-006	-2.40040E-001	2.35305E-002	3.57730E+000	9	...........
	120	1.61333	1.93592E-002	-3.98313E-004	0.00000E+000	-7.71102E-006	-2.40040E-001	1.93509E-002	3.57730E+000	9	...........
	121	1.62667	1.51662E-002	-3.99496E-004	0.00000E+000	-6.05884E-006	-2.40040E-001	1.51575E-002	3.57730E+000	9	...........
	122	1.64	1.10019E-002	-4.00226E-004	0.00000E+000	-4.40326E-006	-2.40040E-001	1.09922E-002	3.57730E+000	9	...........
	123	1.65333	6.91071E-003	-3.99002E-004	0.00000E+000	-2.75739E-006	-2.40040E-001	6.89583E-003	3.57730E+000	9	...........
	124	1.66667	2.85266E-003	-3.99225E-004	0.00000E+000	-1.13885E-006	-2.40040E-001	2.83690E-003	3.57730E+000	9	...........
	125	1.67167	4.37806E-005	-3.99159E-004	0.00000E+000	-1.74754E-008	-2.40040E-001	2.41657E-005	3.57730E+000	9	...........
STARTTIMEOFFSET	QUANT	568.5517	Start Time Offset (s)
