EXPLAIN
TAG	PWR800_DISCHARGE
TITLE	LABEL	PWR Cyclic Charge Discharge (Cell) - Discharge Step	Test &Identifier
DATE	LABEL	12-7-2017	Date
TIME	LABEL	15:11:16	Time
NOTES	NOTES	3	&Notes...
	supercap test cell
	0.4mg
	6M KOH
PSTAT	PSTAT	IFC5000-01520	Potentiostat
CAPACITY	QUANT	1.00000E-003	Capacity (A-hr)
CELLTYPE	SELECTOR	1	&Cell Type
WORKINGCONNECTION	SELECTOR	0	&Working Lead
MAXDISCHARGETIME	VARIABLEANDUNITS	1.00000E+002	s	1.00000E+002	second(s)	Max &Discharge Time
DISCHARGEMODE	MULTIPARAM	0	4.00000E-004	&Discharge Mode	Constant Current	Amp(s)
SAMPLETIME	QUANT	1.00000E-002	Sa&mple Period (s)
DISCHARGESTOPAT1	MULTIPARAM	3	0.00000E+000	Discharge Stop At &1	Voltage < Limit	V
DISCHARGESTOPAT2	MULTIPARAM	0	0.00000E+000	Discharge Stop At &2	None	N/A
AESBHCSELECTOR	TOGGLE	F	Save Both Half Cells
IRCOMP	TOGGLE	F	IR &Measure
EOC	QUANT	0	Open Circuit (V)
SEQUENCER	TOGGLE	TRUE	Run as Sequence
PSTATMODEL	IQUANT	53	Pstat Model
PSTATSECTION	LABEL	IFC5000-01520	Pstat Section
PSTATSERIALNO	LABEL	01520	Pstat Serial Number
CTRLMODE	IQUANT	0	Control Mode
ELECTROMETER	IQUANT	1	RE=0 or CS=1
IESTAB	IQUANT	0	I/E Stability
CASPEED	IQUANT	4	Control Amp Speed
CONVENTION	IQUANT	1	Current Convention
ICHRANGE	IQUANT	2	Ich Range
ICHRANGEMODE	TOGGLE	T	Ich Auto Range
ICHOFFSETENABLE	TOGGLE	F	Ich Offset Enable
ICHOFFSET	QUANT	0	Ich Offset (V)
ICHFILTER	IQUANT	1	Ich Filter
VCHRANGE	IQUANT	2	Vch Range
VCHRANGEMODE	TOGGLE	T	Vch Auto Range
VCHOFFSETENABLE	TOGGLE	F	Vch Offset Enable
VCHOFFSET	QUANT	0	Vch Offset (V)
VCHFILTER	IQUANT	1	Vch Filter
IERANGELOWERLIMIT	IQUANT	9	I/E Range Lower Limit
IERANGEMODE	TOGGLE	F	I/E AutoRange
IERANGE	IQUANT	9	I/E Range
ACHSELECT	IQUANT	1	Ach Select
ACHRANGE	IQUANT	2	Ach Range
ACHOFFSETENABLE	TOGGLE	F	Ach Offset Enable
ACHOFFSET	QUANT	0	Ach Offset (V)
ACHFILTER	IQUANT	1	Ach Filter
CABLEID	IQUANT	14	Cable ID
DCCALDATE	LABEL	5-7-2017	DC Calibration Date
ACCALDATE	LABEL	12/3/2015	AC Calibration Date
FRAMEWORKVERSION	QUANT	7.01	Framework Version
INSTRUMENTVERSION	LABEL	4.00	Instrument Version
CURVE	TABLE	105
	Pt	T	Vf	Im	Vu	Pwr	Sig	Ach	Temp	IERange	Over
	#	s	V	A	V	W	V	V	deg C	#	bits
	0	0.013333	6.88914E-001	-3.97782E-004	0.00000E+000	-2.74037E-004	-2.40040E-001	6.89118E-001	3.57630E+000	9	...........
	1	0.026667	6.75565E-001	-3.99200E-004	0.00000E+000	-2.69686E-004	-2.40040E-001	6.75763E-001	3.57630E+000	9	...........
	2	0.04	6.63884E-001	-3.98327E-004	0.00000E+000	-2.64443E-004	-2.40040E-001	6.64100E-001	3.57630E+000	9	...........
	3	0.053333	6.53152E-001	-3.98942E-004	0.00000E+000	-2.60569E-004	-2.40040E-001	6.53360E-001	3.57630E+000	9	...........
	4	0.066667	6.43123E-001	-3.98569E-004	0.00000E+000	-2.56329E-004	-2.40040E-001	6.43328E-001	3.57630E+000	9	...........
	5	0.08	6.33528E-001	-3.97890E-004	0.00000E+000	-2.52075E-004	-2.40040E-001	6.33738E-001	3.57630E+000	9	...........
	6	0.093333	6.24257E-001	-3.98511E-004	0.00000E+000	-2.48774E-004	-2.40040E-001	6.24442E-001	3.57630E+000	9	...........
	7	0.106667	6.15223E-001	-3.98098E-004	0.00000E+000	-2.44919E-004	-2.40040E-001	6.15462E-001	3.57630E+000	9	...........
	8	0.12	6.06447E-001	-3.98532E-004	0.00000E+000	-2.41689E-004	-2.40040E-001	6.06696E-001	3.57630E+000	9	...........
	9	0.133333	5.97814E-001	-3.97672E-004	0.00000E+000	-2.37734E-004	-2.40040E-001	5.98046E-001	3.57630E+000	9	...........
	10	0.146667	5.89312E-001	-3.98468E-004	0.00000E+000	-2.34822E-004	-2.40040E-001	5.89558E-001	3.57630E+000	9	...........
	11	0.16	5.80885E-001	-3.98532E-004	0.00000E+000	-2.31501E-004	-2.40040E-001	5.81123E-001	3.57630E+000	9	...........
	12	0.173333	5.72527E-001	-3.99031E-004	0.00000E+000	-2.28456E-004	-2.40040E-001	5.72761E-001	3.57630E+000	9	...........
	13	0.186667	5.64406E-001	-3.99037E-004	0.00000E+000	-2.25219E-004	-2.40040E-001	5.64636E-001	3.57630E+000	9	...........
	14	0.2	5.56272E-001	-3.99104E-004	0.00000E+000	-2.22011E-004	-2.40040E-001	5.56509E-001	3.57630E+000	9	...........
	15	0.213333	5.48190E-001	-3.98481E-004	0.00000E+000	-2.18443E-004	-2.40040E-001	5.48409E-001	3.57630E+000	9	...........
	16	0.226667	5.40197E-001	-3.99098E-004	0.00000E+000	-2.15592E-004	-2.40040E-001	5.40405E-001	3.57630E+000	9	...........
	17	0.24	5.32224E-001	-3.99939E-004	0.00000E+000	-2.12857E-004	-2.40040E-001	5.32440E-001	3.57630E+000	9	...........
	18	0.253333	5.24364E-001	-3.98824E-004	0.00000E+000	-2.09129E-004	-2.40040E-001	5.24540E-001	3.57630E+000	9	...........
	19	0.266667	5.16489E-001	-3.99257E-004	0.00000E+000	-2.06212E-004	-2.40040E-001	5.16654E-001	3.57630E+000	9	...........
	20	0.28	5.08617E-001	-3.99420E-004	0.00000E+000	-2.03152E-004	-2.40040E-001	5.08823E-001	3.57630E+000	9	...........
	21	0.293333	5.00877E-001	-3.97760E-004	0.00000E+000	-1.99229E-004	-2.40040E-001	5.01085E-001	3.57630E+000	9	...........
	22	0.306667	4.93185E-001	-3.99716E-004	0.00000E+000	-1.97134E-004	-2.40040E-001	4.93371E-001	3.57630E+000	9	...........
	23	0.32	4.85582E-001	-3.98279E-004	0.00000E+000	-1.93397E-004	-2.40040E-001	4.85721E-001	3.57630E+000	9	...........
	24	0.333333	4.78130E-001	-3.98426E-004	0.00000E+000	-1.90499E-004	-2.40040E-001	4.78230E-001	3.57630E+000	9	...........
	25	0.346667	4.70573E-001	-3.98252E-004	0.00000E+000	-1.87407E-004	-2.40040E-001	4.70664E-001	3.57630E+000	9	...........
	26	0.36	4.63063E-001	-3.98070E-004	0.00000E+000	-1.84331E-004	-2.40040E-001	4.63152E-001	3.57630E+000	9	...........
	27	0.373333	4.55538E-001	-3.98909E-004	0.00000E+000	-1.81718E-004	-2.40040E-001	4.55627E-001	3.57630E+000	9	...........
	28	0.386667	4.48158E-001	-3.99172E-004	0.00000E+000	-1.78892E-004	-2.40040E-001	4.48247E-001	3.57630E+000	9	...........
	29	0.4	4.40729E-001	-3.99489E-004	0.00000E+000	-1.76066E-004	-2.40040E-001	4.40818E-001	3.57630E+000	9	...........
	30	0.413333	4.33397E-001	-3.98964E-004	0.00000E+000	-1.72910E-004	-2.40040E-001	4.33479E-001	3.57630E+000	9	...........
	31	0.426667	4.26102E-001	-3.99731E-004	0.00000E+000	-1.70326E-004	-2.40040E-001	4.26179E-001	3.57630E+000	9	...........
	32	0.44	4.18923E-001	-3.98260E-004	0.00000E+000	-1.66840E-004	-2.40040E-001	4.19007E-001	3.57630E+000	9	...........
	33	0.453333	4.11668E-001	-3.98865E-004	0.00000E+000	-1.64200E-004	-2.40040E-001	4.11749E-001	3.57630E+000	9	...........
	34	0.466667	4.04501E-001	-3.98073E-004	0.00000E+000	-1.61021E-004	-2.40040E-001	4.04575E-001	3.57630E+000	9	...........
	35	0.48	3.97324E-001	-3.98243E-004	0.00000E+000	-1.58231E-004	-2.40040E-001	3.97395E-001	3.57630E+000	9	...........
	36	0.493333	3.90171E-001	-3.98865E-004	0.00000E+000	-1.55625E-004	-2.40040E-001	3.90242E-001	3.57630E+000	9	...........
	37	0.506667	3.83116E-001	-3.98475E-004	0.00000E+000	-1.52662E-004	-2.40040E-001	3.83191E-001	3.57630E+000	9	...........
	38	0.52	3.76113E-001	-3.98288E-004	0.00000E+000	-1.49802E-004	-2.40040E-001	3.76184E-001	3.57630E+000	9	...........
	39	0.533333	3.69220E-001	-3.99667E-004	0.00000E+000	-1.47565E-004	-2.40040E-001	3.69290E-001	3.57630E+000	9	...........
	40	0.546667	3.62319E-001	-3.97169E-004	0.00000E+000	-1.43902E-004	-2.40040E-001	3.62388E-001	3.57630E+000	9	...........
	41	0.56	3.55396E-001	-3.98237E-004	0.00000E+000	-1.41532E-004	-2.40040E-001	3.55462E-001	3.57630E+000	9	...........
	42	0.573333	3.48532E-001	-3.97476E-004	0.00000E+000	-1.38533E-004	-2.40040E-001	3.48599E-001	3.57630E+000	9	...........
	43	0.586667	3.41760E-001	-3.98970E-004	0.00000E+000	-1.36352E-004	-2.40040E-001	3.41822E-001	3.57630E+000	9	...........
	44	0.6	3.34931E-001	-4.00192E-004	0.00000E+000	-1.34037E-004	-2.40040E-001	3.34995E-001	3.57630E+000	9	...........
	45	0.613333	3.28171E-001	-3.98866E-004	0.00000E+000	-1.30896E-004	-2.40040E-001	3.28229E-001	3.57630E+000	9	...........
	46	0.626667	3.21523E-001	-3.99382E-004	0.00000E+000	-1.28411E-004	-2.40040E-001	3.21576E-001	3.57630E+000	9	...........
	47	0.64	3.14896E-001	-3.97543E-004	0.00000E+000	-1.25185E-004	-2.40040E-001	3.14948E-001	3.57630E+000	9	...........
	48	0.653333	3.08274E-001	-3.97929E-004	0.00000E+000	-1.22671E-004	-2.40040E-001	3.08330E-001	3.57630E+000	9	...........
	49	0.666667	3.01770E-001	-3.99172E-004	0.00000E+000	-1.20458E-004	-2.40040E-001	3.01826E-001	3.57630E+000	9	...........
	50	0.68	2.95304E-001	-3.97912E-004	0.00000E+000	-1.17505E-004	-2.40040E-001	2.95352E-001	3.57630E+000	9	...........
	51	0.693333	2.88801E-001	-3.97996E-004	0.00000E+000	-1.14942E-004	-2.40040E-001	2.88858E-001	3.57630E+000	9	...........
	52	0.706667	2.82362E-001	-3.99066E-004	0.00000E+000	-1.12681E-004	-2.40040E-001	2.82417E-001	3.57630E+000	9	...........
	53	0.72	2.75967E-001	-4.00259E-004	0.00000E+000	-1.10458E-004	-2.40040E-001	2.76021E-001	3.57630E+000	9	...........
	54	0.733333	2.69618E-001	-3.98183E-004	0.00000E+000	-1.07357E-004	-2.40040E-001	2.69665E-001	3.57630E+000	9	...........
	55	0.746667	2.63271E-001	-3.99075E-004	0.00000E+000	-1.05065E-004	-2.40040E-001	2.63323E-001	3.57630E+000	9	...........
	56	0.76	2.57096E-001	-3.98719E-004	0.00000E+000	-1.02509E-004	-2.40040E-001	2.57151E-001	3.57630E+000	9	...........
	57	0.773333	2.50891E-001	-3.98372E-004	0.00000E+000	-9.99477E-005	-2.40040E-001	2.50942E-001	3.57630E+000	9	...........
	58	0.786667	2.44679E-001	-3.98774E-004	0.00000E+000	-9.75716E-005	-2.40040E-001	2.44724E-001	3.57630E+000	9	...........
	59	0.8	2.38495E-001	-3.99857E-004	0.00000E+000	-9.53639E-005	-2.40040E-001	2.38536E-001	3.57630E+000	9	...........
	60	0.813333	2.32439E-001	-3.99546E-004	0.00000E+000	-9.28703E-005	-2.40040E-001	2.32480E-001	3.57630E+000	9	...........
	61	0.826667	2.26461E-001	-3.99149E-004	0.00000E+000	-9.03916E-005	-2.40040E-001	2.26499E-001	3.57630E+000	9	...........
	62	0.84	2.20520E-001	-3.98570E-004	0.00000E+000	-8.78927E-005	-2.40040E-001	2.20560E-001	3.57630E+000	9	...........
	63	0.853333	2.14603E-001	-3.98630E-004	0.00000E+000	-8.55472E-005	-2.40040E-001	2.14638E-001	3.57630E+000	9	...........
	64	0.866667	2.08671E-001	-3.99018E-004	0.00000E+000	-8.32636E-005	-2.40040E-001	2.08709E-001	3.57630E+000	9	...........
	65	0.88	2.02793E-001	-3.98852E-004	0.00000E+000	-8.08845E-005	-2.40040E-001	2.02828E-001	3.57630E+000	9	...........
	66	0.893333	1.96984E-001	-3.99138E-004	0.00000E+000	-7.86238E-005	-2.40040E-001	1.97025E-001	3.57630E+000	9	...........
	67	0.906667	1.91210E-001	-3.98707E-004	0.00000E+000	-7.62366E-005	-2.40040E-001	1.91246E-001	3.57630E+000	9	...........
	68	0.92	1.85427E-001	-3.98911E-004	0.00000E+000	-7.39689E-005	-2.40040E-001	1.85460E-001	3.57630E+000	9	...........
	69	0.933333	1.79609E-001	-3.98382E-004	0.00000E+000	-7.15529E-005	-2.40040E-001	1.79639E-001	3.57630E+000	9	...........
	70	0.946667	1.73878E-001	-3.99832E-004	0.00000E+000	-6.95219E-005	-2.40040E-001	1.73912E-001	3.57630E+000	9	...........
	71	0.96	1.68224E-001	-3.98612E-004	0.00000E+000	-6.70563E-005	-2.40040E-001	1.68259E-001	3.57630E+000	9	...........
	72	0.97333	1.62610E-001	-3.99159E-004	0.00000E+000	-6.49072E-005	-2.40040E-001	1.62643E-001	3.57630E+000	9	...........
	73	0.98667	1.57066E-001	-3.98175E-004	0.00000E+000	-6.25397E-005	-2.40040E-001	1.57090E-001	3.57630E+000	9	...........
	74	1	1.51578E-001	-4.00126E-004	0.00000E+000	-6.06502E-005	-2.40040E-001	1.51602E-001	3.57630E+000	9	...........
	75	1.01333	1.46077E-001	-3.99597E-004	0.00000E+000	-5.83718E-005	-2.40040E-001	1.46098E-001	3.57630E+000	9	...........
	76	1.02667	1.40678E-001	-3.98716E-004	0.00000E+000	-5.60905E-005	-2.40040E-001	1.40705E-001	3.57630E+000	9	...........
	77	1.04	1.35290E-001	-3.98443E-004	0.00000E+000	-5.39054E-005	-2.40040E-001	1.35313E-001	3.57630E+000	9	...........
	78	1.05333	1.29871E-001	-3.99251E-004	0.00000E+000	-5.18513E-005	-2.40040E-001	1.29890E-001	3.57630E+000	9	...........
	79	1.06667	1.24528E-001	-3.99294E-004	0.00000E+000	-4.97232E-005	-2.40040E-001	1.24545E-001	3.57630E+000	9	...........
	80	1.08	1.19218E-001	-3.99464E-004	0.00000E+000	-4.76234E-005	-2.40040E-001	1.19236E-001	3.57630E+000	9	...........
	81	1.09333	1.13962E-001	-3.97748E-004	0.00000E+000	-4.53283E-005	-2.40040E-001	1.13979E-001	3.57630E+000	9	...........
	82	1.10667	1.08764E-001	-3.99164E-004	0.00000E+000	-4.34148E-005	-2.40040E-001	1.08781E-001	3.57630E+000	9	...........
	83	1.12	1.03579E-001	-3.98436E-004	0.00000E+000	-4.12696E-005	-2.40040E-001	1.03596E-001	3.57630E+000	9	...........
	84	1.13333	9.84425E-002	-3.99056E-004	0.00000E+000	-3.92841E-005	-2.40040E-001	9.84613E-002	3.57630E+000	9	...........
	85	1.14667	9.33357E-002	-3.98576E-004	0.00000E+000	-3.72014E-005	-2.40040E-001	9.33469E-002	3.57630E+000	9	...........
	86	1.16	8.82193E-002	-3.97459E-004	0.00000E+000	-3.50636E-005	-2.40040E-001	8.82321E-002	3.57630E+000	9	...........
	87	1.17333	8.30846E-002	-4.00518E-004	0.00000E+000	-3.32769E-005	-2.40040E-001	8.31004E-002	3.57630E+000	9	...........
	88	1.18667	7.79305E-002	-3.98536E-004	0.00000E+000	-3.10581E-005	-2.40040E-001	7.79385E-002	3.57630E+000	9	...........
	89	1.2	7.28547E-002	-3.97854E-004	0.00000E+000	-2.89855E-005	-2.40040E-001	7.28641E-002	3.57630E+000	9	...........
	90	1.21333	6.78773E-002	-3.99626E-004	0.00000E+000	-2.71256E-005	-2.40040E-001	6.78857E-002	3.57630E+000	9	...........
	91	1.22667	6.29660E-002	-3.99752E-004	0.00000E+000	-2.51708E-005	-2.40040E-001	6.29663E-002	3.57630E+000	9	...........
	92	1.24	5.80080E-002	-3.97921E-004	0.00000E+000	-2.30826E-005	-2.40040E-001	5.80128E-002	3.57630E+000	9	...........
	93	1.25333	5.30581E-002	-3.98697E-004	0.00000E+000	-2.11541E-005	-2.40040E-001	5.30594E-002	3.57630E+000	9	...........
	94	1.26667	4.82350E-002	-3.98859E-004	0.00000E+000	-1.92390E-005	-2.40040E-001	4.82427E-002	3.57630E+000	9	...........
	95	1.28	4.34882E-002	-3.98572E-004	0.00000E+000	-1.73332E-005	-2.40040E-001	4.34908E-002	3.57630E+000	9	...........
	96	1.29333	3.87259E-002	-3.99457E-004	0.00000E+000	-1.54694E-005	-2.40040E-001	3.87290E-002	3.57630E+000	9	...........
	97	1.30667	3.39933E-002	-3.99750E-004	0.00000E+000	-1.35888E-005	-2.40040E-001	3.39900E-002	3.57630E+000	9	...........
	98	1.32	2.92023E-002	-3.98717E-004	0.00000E+000	-1.16434E-005	-2.40040E-001	2.91983E-002	3.57630E+000	9	...........
	99	1.33333	2.45325E-002	-3.99203E-004	0.00000E+000	-9.79346E-006	-2.40040E-001	2.45232E-002	3.57630E+000	9	...........
	100	1.34667	1.98883E-002	-3.98580E-004	0.00000E+000	-7.92708E-006	-2.40040E-001	1.98797E-002	3.57630E+000	9	...........
	101	1.36	1.51939E-002	-3.98845E-004	0.00000E+000	-6.06001E-006	-2.40040E-001	1.51790E-002	3.57630E+000	9	...........
	102	1.37333	1.05178E-002	-3.98596E-004	0.00000E+000	-4.19237E-006	-2.40040E-001	1.05036E-002	3.57630E+000	9	...........
	103	1.38667	5.91336E-003	-3.97426E-004	0.00000E+000	-2.35012E-006	-2.40040E-001	5.89965E-003	3.57630E+000	9	...........
	104	1.39833	1.60841E-003	-3.99010E-004	0.00000E+000	-6.41771E-007	-2.40040E-001	1.58829E-003	3.57630E+000	9	...........
STARTTIMEOFFSET	QUANT	2499.011	Start Time Offset (s)
