EXPLAIN
TAG	PWR800_DISCHARGE
TITLE	LABEL	PWR Cyclic Charge Discharge (Cell) - Discharge Step	Test &Identifier
DATE	LABEL	12-7-2017	Date
TIME	LABEL	14:41:15	Time
NOTES	NOTES	3	&Notes...
	supercap test cell
	0.4mg
	6M KOH
PSTAT	PSTAT	IFC5000-01520	Potentiostat
CAPACITY	QUANT	1.00000E-003	Capacity (A-hr)
CELLTYPE	SELECTOR	1	&Cell Type
WORKINGCONNECTION	SELECTOR	0	&Working Lead
MAXDISCHARGETIME	VARIABLEANDUNITS	1.00000E+002	s	1.00000E+002	second(s)	Max &Discharge Time
DISCHARGEMODE	MULTIPARAM	0	4.00000E-004	&Discharge Mode	Constant Current	Amp(s)
SAMPLETIME	QUANT	1.00000E-002	Sa&mple Period (s)
DISCHARGESTOPAT1	MULTIPARAM	3	0.00000E+000	Discharge Stop At &1	Voltage < Limit	V
DISCHARGESTOPAT2	MULTIPARAM	0	0.00000E+000	Discharge Stop At &2	None	N/A
AESBHCSELECTOR	TOGGLE	F	Save Both Half Cells
IRCOMP	TOGGLE	F	IR &Measure
EOC	QUANT	0	Open Circuit (V)
SEQUENCER	TOGGLE	TRUE	Run as Sequence
PSTATMODEL	IQUANT	53	Pstat Model
PSTATSECTION	LABEL	IFC5000-01520	Pstat Section
PSTATSERIALNO	LABEL	01520	Pstat Serial Number
CTRLMODE	IQUANT	0	Control Mode
ELECTROMETER	IQUANT	1	RE=0 or CS=1
IESTAB	IQUANT	0	I/E Stability
CASPEED	IQUANT	4	Control Amp Speed
CONVENTION	IQUANT	1	Current Convention
ICHRANGE	IQUANT	2	Ich Range
ICHRANGEMODE	TOGGLE	T	Ich Auto Range
ICHOFFSETENABLE	TOGGLE	F	Ich Offset Enable
ICHOFFSET	QUANT	0	Ich Offset (V)
ICHFILTER	IQUANT	1	Ich Filter
VCHRANGE	IQUANT	2	Vch Range
VCHRANGEMODE	TOGGLE	T	Vch Auto Range
VCHOFFSETENABLE	TOGGLE	F	Vch Offset Enable
VCHOFFSET	QUANT	0	Vch Offset (V)
VCHFILTER	IQUANT	1	Vch Filter
IERANGELOWERLIMIT	IQUANT	9	I/E Range Lower Limit
IERANGEMODE	TOGGLE	F	I/E AutoRange
IERANGE	IQUANT	9	I/E Range
ACHSELECT	IQUANT	1	Ach Select
ACHRANGE	IQUANT	2	Ach Range
ACHOFFSETENABLE	TOGGLE	F	Ach Offset Enable
ACHOFFSET	QUANT	0	Ach Offset (V)
ACHFILTER	IQUANT	1	Ach Filter
CABLEID	IQUANT	14	Cable ID
DCCALDATE	LABEL	5-7-2017	DC Calibration Date
ACCALDATE	LABEL	12/3/2015	AC Calibration Date
FRAMEWORKVERSION	QUANT	7.01	Framework Version
INSTRUMENTVERSION	LABEL	4.00	Instrument Version
CURVE	TABLE	118
	Pt	T	Vf	Im	Vu	Pwr	Sig	Ach	Temp	IERange	Over
	#	s	V	A	V	W	V	V	deg C	#	bits
	0	0.013333	7.04892E-001	-3.99180E-004	0.00000E+000	-2.81379E-004	-2.40040E-001	7.05163E-001	3.57670E+000	9	...........
	1	0.026667	6.92998E-001	-3.98466E-004	0.00000E+000	-2.76136E-004	-2.40040E-001	6.93282E-001	3.57670E+000	9	...........
	2	0.04	6.82496E-001	-3.99022E-004	0.00000E+000	-2.72331E-004	-2.40040E-001	6.82758E-001	3.57670E+000	9	...........
	3	0.053333	6.72785E-001	-3.97886E-004	0.00000E+000	-2.67692E-004	-2.40040E-001	6.73029E-001	3.57670E+000	9	...........
	4	0.066667	6.63604E-001	-3.99376E-004	0.00000E+000	-2.65028E-004	-2.40040E-001	6.63847E-001	3.57670E+000	9	...........
	5	0.08	6.54795E-001	-3.98469E-004	0.00000E+000	-2.60915E-004	-2.40040E-001	6.55053E-001	3.57670E+000	9	...........
	6	0.093333	6.46294E-001	-3.99336E-004	0.00000E+000	-2.58088E-004	-2.40040E-001	6.46542E-001	3.57670E+000	9	...........
	7	0.106667	6.38000E-001	-3.99884E-004	0.00000E+000	-2.55126E-004	-2.40040E-001	6.38268E-001	3.57670E+000	9	...........
	8	0.12	6.29832E-001	-3.98453E-004	0.00000E+000	-2.50958E-004	-2.40040E-001	6.30094E-001	3.57670E+000	9	...........
	9	0.133333	6.21875E-001	-3.97673E-004	0.00000E+000	-2.47303E-004	-2.40040E-001	6.22102E-001	3.57670E+000	9	...........
	10	0.146667	6.13993E-001	-3.98837E-004	0.00000E+000	-2.44884E-004	-2.40040E-001	6.14268E-001	3.57670E+000	9	...........
	11	0.16	6.06178E-001	-3.97523E-004	0.00000E+000	-2.40969E-004	-2.40040E-001	6.06448E-001	3.57670E+000	9	...........
	12	0.173333	5.98495E-001	-3.98934E-004	0.00000E+000	-2.38760E-004	-2.40040E-001	5.98737E-001	3.57670E+000	9	...........
	13	0.186667	5.90906E-001	-3.98640E-004	0.00000E+000	-2.35559E-004	-2.40040E-001	5.91170E-001	3.57670E+000	9	...........
	14	0.2	5.83362E-001	-3.98928E-004	0.00000E+000	-2.32720E-004	-2.40040E-001	5.83608E-001	3.57670E+000	9	...........
	15	0.213333	5.75947E-001	-3.97310E-004	0.00000E+000	-2.28829E-004	-2.40040E-001	5.76163E-001	3.57670E+000	9	...........
	16	0.226667	5.68522E-001	-3.98369E-004	0.00000E+000	-2.26481E-004	-2.40040E-001	5.68743E-001	3.57670E+000	9	...........
	17	0.24	5.61129E-001	-3.98064E-004	0.00000E+000	-2.23365E-004	-2.40040E-001	5.61370E-001	3.57670E+000	9	...........
	18	0.253333	5.53766E-001	-3.98732E-004	0.00000E+000	-2.20804E-004	-2.40040E-001	5.53977E-001	3.57670E+000	9	...........
	19	0.266667	5.46476E-001	-3.99420E-004	0.00000E+000	-2.18273E-004	-2.40040E-001	5.46697E-001	3.57670E+000	9	...........
	20	0.28	5.39272E-001	-3.99400E-004	0.00000E+000	-2.15385E-004	-2.40040E-001	5.39489E-001	3.57670E+000	9	...........
	21	0.293333	5.32016E-001	-3.98791E-004	0.00000E+000	-2.12163E-004	-2.40040E-001	5.32225E-001	3.57670E+000	9	...........
	22	0.306667	5.24868E-001	-3.98678E-004	0.00000E+000	-2.09253E-004	-2.40040E-001	5.25060E-001	3.57670E+000	9	...........
	23	0.32	5.17830E-001	-3.98417E-004	0.00000E+000	-2.06312E-004	-2.40040E-001	5.18024E-001	3.57670E+000	9	...........
	24	0.333333	5.10724E-001	-3.99448E-004	0.00000E+000	-2.04008E-004	-2.40040E-001	5.10953E-001	3.57670E+000	9	...........
	25	0.346667	5.03605E-001	-3.98163E-004	0.00000E+000	-2.00517E-004	-2.40040E-001	5.03853E-001	3.57670E+000	9	...........
	26	0.36	4.96572E-001	-3.98682E-004	0.00000E+000	-1.97975E-004	-2.40040E-001	4.96823E-001	3.57670E+000	9	...........
	27	0.373333	4.89687E-001	-3.99493E-004	0.00000E+000	-1.95627E-004	-2.40040E-001	4.89918E-001	3.57670E+000	9	...........
	28	0.386667	4.83033E-001	-3.98418E-004	0.00000E+000	-1.92449E-004	-2.40040E-001	4.83151E-001	3.57670E+000	9	...........
	29	0.4	4.76265E-001	-3.98728E-004	0.00000E+000	-1.89900E-004	-2.40040E-001	4.76370E-001	3.57670E+000	9	...........
	30	0.413333	4.69454E-001	-3.98265E-004	0.00000E+000	-1.86967E-004	-2.40040E-001	4.69551E-001	3.57670E+000	9	...........
	31	0.426667	4.62626E-001	-3.99372E-004	0.00000E+000	-1.84760E-004	-2.40040E-001	4.62729E-001	3.57670E+000	9	...........
	32	0.44	4.55835E-001	-3.99440E-004	0.00000E+000	-1.82079E-004	-2.40040E-001	4.55930E-001	3.57670E+000	9	...........
	33	0.453333	4.49196E-001	-3.98918E-004	0.00000E+000	-1.79192E-004	-2.40040E-001	4.49296E-001	3.57670E+000	9	...........
	34	0.466667	4.42568E-001	-3.97956E-004	0.00000E+000	-1.76123E-004	-2.40040E-001	4.42663E-001	3.57670E+000	9	...........
	35	0.48	4.35910E-001	-3.98942E-004	0.00000E+000	-1.73903E-004	-2.40040E-001	4.35999E-001	3.57670E+000	9	...........
	36	0.493333	4.29273E-001	-3.98203E-004	0.00000E+000	-1.70938E-004	-2.40040E-001	4.29363E-001	3.57670E+000	9	...........
	37	0.506667	4.22707E-001	-3.98940E-004	0.00000E+000	-1.68634E-004	-2.40040E-001	4.22794E-001	3.57670E+000	9	...........
	38	0.52	4.16129E-001	-3.99182E-004	0.00000E+000	-1.66111E-004	-2.40040E-001	4.16216E-001	3.57670E+000	9	...........
	39	0.533333	4.09687E-001	-3.98261E-004	0.00000E+000	-1.63163E-004	-2.40040E-001	4.09768E-001	3.57670E+000	9	...........
	40	0.546667	4.03254E-001	-3.99925E-004	0.00000E+000	-1.61271E-004	-2.40040E-001	4.03326E-001	3.57670E+000	9	...........
	41	0.56	3.96868E-001	-3.98644E-004	0.00000E+000	-1.58209E-004	-2.40040E-001	3.96937E-001	3.57670E+000	9	...........
	42	0.573333	3.90462E-001	-3.98898E-004	0.00000E+000	-1.55754E-004	-2.40040E-001	3.90532E-001	3.57670E+000	9	...........
	43	0.586667	3.84129E-001	-3.98641E-004	0.00000E+000	-1.53130E-004	-2.40040E-001	3.84200E-001	3.57670E+000	9	...........
	44	0.6	3.77834E-001	-3.99270E-004	0.00000E+000	-1.50858E-004	-2.40040E-001	3.77910E-001	3.57670E+000	9	...........
	45	0.613333	3.71589E-001	-3.99438E-004	0.00000E+000	-1.48427E-004	-2.40040E-001	3.71655E-001	3.57670E+000	9	...........
	46	0.626667	3.65343E-001	-3.98487E-004	0.00000E+000	-1.45585E-004	-2.40040E-001	3.65413E-001	3.57670E+000	9	...........
	47	0.64	3.59156E-001	-3.98396E-004	0.00000E+000	-1.43086E-004	-2.40040E-001	3.59222E-001	3.57670E+000	9	...........
	48	0.653333	3.53005E-001	-3.97650E-004	0.00000E+000	-1.40372E-004	-2.40040E-001	3.53074E-001	3.57670E+000	9	...........
	49	0.666667	3.46891E-001	-3.98895E-004	0.00000E+000	-1.38373E-004	-2.40040E-001	3.46963E-001	3.57722E+000	9	...........
	50	0.68	3.40847E-001	-3.98751E-004	0.00000E+000	-1.35913E-004	-2.40040E-001	3.40913E-001	3.57740E+000	9	...........
	51	0.693333	3.34781E-001	-3.98781E-004	0.00000E+000	-1.33504E-004	-2.40040E-001	3.34850E-001	3.57740E+000	9	...........
	52	0.706667	3.28733E-001	-3.99502E-004	0.00000E+000	-1.31330E-004	-2.40040E-001	3.28806E-001	3.57740E+000	9	...........
	53	0.72	3.22745E-001	-3.98818E-004	0.00000E+000	-1.28717E-004	-2.40040E-001	3.22813E-001	3.57740E+000	9	...........
	54	0.733333	3.16764E-001	-3.98725E-004	0.00000E+000	-1.26302E-004	-2.40040E-001	3.16832E-001	3.57740E+000	9	...........
	55	0.746667	3.10751E-001	-3.99238E-004	0.00000E+000	-1.24063E-004	-2.40040E-001	3.10813E-001	3.57740E+000	9	...........
	56	0.76	3.04871E-001	-3.98221E-004	0.00000E+000	-1.21406E-004	-2.40040E-001	3.04943E-001	3.57740E+000	9	...........
	57	0.773333	2.99084E-001	-3.99917E-004	0.00000E+000	-1.19609E-004	-2.40040E-001	2.99142E-001	3.57740E+000	9	...........
	58	0.786667	2.93284E-001	-3.98870E-004	0.00000E+000	-1.16982E-004	-2.40040E-001	2.93343E-001	3.57740E+000	9	...........
	59	0.8	2.87510E-001	-3.99566E-004	0.00000E+000	-1.14879E-004	-2.40040E-001	2.87572E-001	3.57740E+000	9	...........
	60	0.813333	2.81739E-001	-3.98695E-004	0.00000E+000	-1.12328E-004	-2.40040E-001	2.81800E-001	3.57740E+000	9	...........
	61	0.826667	2.76006E-001	-3.98719E-004	0.00000E+000	-1.10049E-004	-2.40040E-001	2.76065E-001	3.57740E+000	9	...........
	62	0.84	2.70338E-001	-3.99096E-004	0.00000E+000	-1.07891E-004	-2.40040E-001	2.70396E-001	3.57740E+000	9	...........
	63	0.853333	2.64726E-001	-3.98691E-004	0.00000E+000	-1.05544E-004	-2.40040E-001	2.64789E-001	3.57740E+000	9	...........
	64	0.866667	2.59102E-001	-3.99194E-004	0.00000E+000	-1.03432E-004	-2.40040E-001	2.59159E-001	3.57740E+000	9	...........
	65	0.88	2.53485E-001	-3.99312E-004	0.00000E+000	-1.01219E-004	-2.40040E-001	2.53538E-001	3.57740E+000	9	...........
	66	0.893333	2.47883E-001	-3.98022E-004	0.00000E+000	-9.86628E-005	-2.40040E-001	2.47934E-001	3.57740E+000	9	...........
	67	0.906667	2.42338E-001	-3.98635E-004	0.00000E+000	-9.66045E-005	-2.40040E-001	2.42380E-001	3.57740E+000	9	...........
	68	0.92	2.36811E-001	-3.99815E-004	0.00000E+000	-9.46804E-005	-2.40040E-001	2.36857E-001	3.57740E+000	9	...........
	69	0.933333	2.31258E-001	-3.98194E-004	0.00000E+000	-9.20856E-005	-2.40040E-001	2.31306E-001	3.57740E+000	9	...........
	70	0.946667	2.25838E-001	-3.98632E-004	0.00000E+000	-9.00263E-005	-2.40040E-001	2.25884E-001	3.57740E+000	9	...........
	71	0.96	2.20349E-001	-3.99122E-004	0.00000E+000	-8.79463E-005	-2.40040E-001	2.20391E-001	3.57740E+000	9	...........
	72	0.97333	2.14959E-001	-3.98653E-004	0.00000E+000	-8.56939E-005	-2.40040E-001	2.14995E-001	3.57740E+000	9	...........
	73	0.98667	2.09635E-001	-3.98139E-004	0.00000E+000	-8.34638E-005	-2.40040E-001	2.09683E-001	3.57740E+000	9	...........
	74	1	2.04342E-001	-3.98728E-004	0.00000E+000	-8.14770E-005	-2.40040E-001	2.04373E-001	3.57740E+000	9	...........
	75	1.01333	1.99047E-001	-3.99099E-004	0.00000E+000	-7.94394E-005	-2.40040E-001	1.99090E-001	3.57740E+000	9	...........
	76	1.02667	1.93804E-001	-3.98059E-004	0.00000E+000	-7.71453E-005	-2.40040E-001	1.93846E-001	3.57740E+000	9	...........
	77	1.04	1.88572E-001	-3.97907E-004	0.00000E+000	-7.50340E-005	-2.40040E-001	1.88612E-001	3.57740E+000	9	...........
	78	1.05333	1.83421E-001	-3.97801E-004	0.00000E+000	-7.29650E-005	-2.40040E-001	1.83460E-001	3.57740E+000	9	...........
	79	1.06667	1.78213E-001	-3.99253E-004	0.00000E+000	-7.11520E-005	-2.40040E-001	1.78254E-001	3.57740E+000	9	...........
	80	1.08	1.73064E-001	-3.99009E-004	0.00000E+000	-6.90541E-005	-2.40040E-001	1.73100E-001	3.57740E+000	9	...........
	81	1.09333	1.67899E-001	-3.98705E-004	0.00000E+000	-6.69422E-005	-2.40040E-001	1.67936E-001	3.57740E+000	9	...........
	82	1.10667	1.62827E-001	-3.99144E-004	0.00000E+000	-6.49913E-005	-2.40040E-001	1.62856E-001	3.57740E+000	9	...........
	83	1.12	1.57732E-001	-3.99069E-004	0.00000E+000	-6.29459E-005	-2.40040E-001	1.57760E-001	3.57740E+000	9	...........
	84	1.13333	1.52682E-001	-3.98100E-004	0.00000E+000	-6.07827E-005	-2.40040E-001	1.52704E-001	3.57740E+000	9	...........
	85	1.14667	1.47676E-001	-3.98817E-004	0.00000E+000	-5.88956E-005	-2.40040E-001	1.47703E-001	3.57740E+000	9	...........
	86	1.16	1.42629E-001	-3.98546E-004	0.00000E+000	-5.68443E-005	-2.40040E-001	1.42649E-001	3.57740E+000	9	...........
	87	1.17333	1.37653E-001	-4.00024E-004	0.00000E+000	-5.50645E-005	-2.40040E-001	1.37676E-001	3.57740E+000	9	...........
	88	1.18667	1.32755E-001	-3.98872E-004	0.00000E+000	-5.29522E-005	-2.40040E-001	1.32779E-001	3.57740E+000	9	...........
	89	1.2	1.27877E-001	-3.99271E-004	0.00000E+000	-5.10574E-005	-2.40040E-001	1.27901E-001	3.57740E+000	9	...........
	90	1.21333	1.22963E-001	-3.98418E-004	0.00000E+000	-4.89906E-005	-2.40040E-001	1.22981E-001	3.57740E+000	9	...........
	91	1.22667	1.18083E-001	-3.98685E-004	0.00000E+000	-4.70781E-005	-2.40040E-001	1.18107E-001	3.57740E+000	9	...........
	92	1.24	1.13234E-001	-3.99656E-004	0.00000E+000	-4.52546E-005	-2.40040E-001	1.13250E-001	3.57740E+000	9	...........
	93	1.25333	1.08481E-001	-3.99059E-004	0.00000E+000	-4.32902E-005	-2.40040E-001	1.08494E-001	3.57740E+000	9	...........
	94	1.26667	1.03611E-001	-3.99314E-004	0.00000E+000	-4.13733E-005	-2.40040E-001	1.03630E-001	3.57740E+000	9	...........
	95	1.28	9.87736E-002	-3.99864E-004	0.00000E+000	-3.94960E-005	-2.40040E-001	9.87931E-002	3.57740E+000	9	...........
	96	1.29333	9.40922E-002	-3.98350E-004	0.00000E+000	-3.74816E-005	-2.40040E-001	9.41074E-002	3.57740E+000	9	...........
	97	1.30667	8.93315E-002	-4.00068E-004	0.00000E+000	-3.57387E-005	-2.40040E-001	8.93534E-002	3.57740E+000	9	...........
	98	1.32	8.46065E-002	-3.98146E-004	0.00000E+000	-3.36857E-005	-2.40040E-001	8.46207E-002	3.57740E+000	9	...........
	99	1.33333	7.98988E-002	-3.99274E-004	0.00000E+000	-3.19015E-005	-2.40040E-001	7.99108E-002	3.57740E+000	9	...........
	100	1.34667	7.52736E-002	-3.97853E-004	0.00000E+000	-2.99478E-005	-2.40040E-001	7.52830E-002	3.57740E+000	9	...........
	101	1.36	7.06993E-002	-3.98083E-004	0.00000E+000	-2.81442E-005	-2.40040E-001	7.07106E-002	3.57740E+000	9	...........
	102	1.37333	6.61543E-002	-3.98720E-004	0.00000E+000	-2.63770E-005	-2.40040E-001	6.61576E-002	3.57740E+000	9	...........
	103	1.38667	6.15547E-002	-3.99343E-004	0.00000E+000	-2.45814E-005	-2.40040E-001	6.15590E-002	3.57740E+000	9	...........
	104	1.4	5.69954E-002	-3.99839E-004	0.00000E+000	-2.27890E-005	-2.40040E-001	5.70014E-002	3.57740E+000	9	...........
	105	1.41333	5.24357E-002	-4.00192E-004	0.00000E+000	-2.09843E-005	-2.40040E-001	5.24425E-002	3.57740E+000	9	...........
	106	1.42667	4.79145E-002	-3.98984E-004	0.00000E+000	-1.91172E-005	-2.40040E-001	4.79158E-002	3.57740E+000	9	...........
	107	1.44	4.34683E-002	-3.99526E-004	0.00000E+000	-1.73667E-005	-2.40040E-001	4.34740E-002	3.57740E+000	9	...........
	108	1.45333	3.90111E-002	-3.99000E-004	0.00000E+000	-1.55654E-005	-2.40040E-001	3.90109E-002	3.57740E+000	9	...........
	109	1.46667	3.45245E-002	-3.98504E-004	0.00000E+000	-1.37581E-005	-2.40040E-001	3.45303E-002	3.57740E+000	9	...........
	110	1.48	3.00976E-002	-3.99716E-004	0.00000E+000	-1.20305E-005	-2.40040E-001	3.00958E-002	3.57740E+000	9	...........
	111	1.49333	2.56712E-002	-3.97886E-004	0.00000E+000	-1.02142E-005	-2.40040E-001	2.56684E-002	3.57740E+000	9	...........
	112	1.50667	2.13288E-002	-3.99462E-004	0.00000E+000	-8.52003E-006	-2.40040E-001	2.13251E-002	3.57740E+000	9	...........
	113	1.52	1.71291E-002	-3.98792E-004	0.00000E+000	-6.83092E-006	-2.40040E-001	1.71202E-002	3.57740E+000	9	...........
	114	1.53333	1.28433E-002	-3.97715E-004	0.00000E+000	-5.10798E-006	-2.40040E-001	1.28318E-002	3.57740E+000	9	...........
	115	1.54667	8.56594E-003	-3.99128E-004	0.00000E+000	-3.41891E-006	-2.40040E-001	8.55284E-003	3.57740E+000	9	...........
	116	1.56	4.24934E-003	-3.99199E-004	0.00000E+000	-1.69633E-006	-2.40040E-001	4.23142E-003	3.57740E+000	9	...........
	117	1.56833	8.11520E-004	-4.00278E-004	0.00000E+000	-3.24834E-007	-2.40040E-001	7.93416E-004	3.57740E+000	9	...........
STARTTIMEOFFSET	QUANT	1087.157	Start Time Offset (s)
