EXPLAIN
TAG	PWR800_DISCHARGE
TITLE	LABEL	PWR Cyclic Charge Discharge (Cell) - Discharge Step	Test &Identifier
DATE	LABEL	12-7-2017	Date
TIME	LABEL	14:27:13	Time
NOTES	NOTES	3	&Notes...
	supercap test cell
	0.4mg
	6M KOH
PSTAT	PSTAT	IFC5000-01520	Potentiostat
CAPACITY	QUANT	1.00000E-003	Capacity (A-hr)
CELLTYPE	SELECTOR	1	&Cell Type
WORKINGCONNECTION	SELECTOR	0	&Working Lead
MAXDISCHARGETIME	VARIABLEANDUNITS	1.00000E+002	s	1.00000E+002	second(s)	Max &Discharge Time
DISCHARGEMODE	MULTIPARAM	0	4.00000E-004	&Discharge Mode	Constant Current	Amp(s)
SAMPLETIME	QUANT	1.00000E-002	Sa&mple Period (s)
DISCHARGESTOPAT1	MULTIPARAM	3	0.00000E+000	Discharge Stop At &1	Voltage < Limit	V
DISCHARGESTOPAT2	MULTIPARAM	0	0.00000E+000	Discharge Stop At &2	None	N/A
AESBHCSELECTOR	TOGGLE	F	Save Both Half Cells
IRCOMP	TOGGLE	F	IR &Measure
EOC	QUANT	0	Open Circuit (V)
SEQUENCER	TOGGLE	TRUE	Run as Sequence
PSTATMODEL	IQUANT	53	Pstat Model
PSTATSECTION	LABEL	IFC5000-01520	Pstat Section
PSTATSERIALNO	LABEL	01520	Pstat Serial Number
CTRLMODE	IQUANT	0	Control Mode
ELECTROMETER	IQUANT	1	RE=0 or CS=1
IESTAB	IQUANT	0	I/E Stability
CASPEED	IQUANT	4	Control Amp Speed
CONVENTION	IQUANT	1	Current Convention
ICHRANGE	IQUANT	2	Ich Range
ICHRANGEMODE	TOGGLE	T	Ich Auto Range
ICHOFFSETENABLE	TOGGLE	F	Ich Offset Enable
ICHOFFSET	QUANT	0	Ich Offset (V)
ICHFILTER	IQUANT	1	Ich Filter
VCHRANGE	IQUANT	2	Vch Range
VCHRANGEMODE	TOGGLE	T	Vch Auto Range
VCHOFFSETENABLE	TOGGLE	F	Vch Offset Enable
VCHOFFSET	QUANT	0	Vch Offset (V)
VCHFILTER	IQUANT	1	Vch Filter
IERANGELOWERLIMIT	IQUANT	9	I/E Range Lower Limit
IERANGEMODE	TOGGLE	F	I/E AutoRange
IERANGE	IQUANT	9	I/E Range
ACHSELECT	IQUANT	1	Ach Select
ACHRANGE	IQUANT	2	Ach Range
ACHOFFSETENABLE	TOGGLE	F	Ach Offset Enable
ACHOFFSET	QUANT	0	Ach Offset (V)
ACHFILTER	IQUANT	1	Ach Filter
CABLEID	IQUANT	14	Cable ID
DCCALDATE	LABEL	5-7-2017	DC Calibration Date
ACCALDATE	LABEL	12/3/2015	AC Calibration Date
FRAMEWORKVERSION	QUANT	7.01	Framework Version
INSTRUMENTVERSION	LABEL	4.00	Instrument Version
CURVE	TABLE	129
	Pt	T	Vf	Im	Vu	Pwr	Sig	Ach	Temp	IERange	Over
	#	s	V	A	V	W	V	V	deg C	#	bits
	0	0.013333	7.17664E-001	-3.98916E-004	0.00000E+000	-2.86287E-004	-2.40040E-001	7.17901E-001	3.57630E+000	9	...........
	1	0.026667	7.06645E-001	-3.99247E-004	0.00000E+000	-2.82126E-004	-2.40040E-001	7.06881E-001	3.57630E+000	9	...........
	2	0.04	6.96845E-001	-3.98329E-004	0.00000E+000	-2.77574E-004	-2.40040E-001	6.97068E-001	3.57630E+000	9	...........
	3	0.053333	6.87724E-001	-3.98880E-004	0.00000E+000	-2.74320E-004	-2.40040E-001	6.87930E-001	3.57630E+000	9	...........
	4	0.066667	6.79154E-001	-3.97886E-004	0.00000E+000	-2.70226E-004	-2.40040E-001	6.79362E-001	3.57630E+000	9	...........
	5	0.08	6.71001E-001	-3.99552E-004	0.00000E+000	-2.68100E-004	-2.40040E-001	6.71184E-001	3.57630E+000	9	...........
	6	0.093333	6.63010E-001	-3.99168E-004	0.00000E+000	-2.64652E-004	-2.40040E-001	6.63230E-001	3.57630E+000	9	...........
	7	0.106667	6.55225E-001	-3.98162E-004	0.00000E+000	-2.60886E-004	-2.40040E-001	6.55417E-001	3.57630E+000	9	...........
	8	0.12	6.47640E-001	-3.97303E-004	0.00000E+000	-2.57309E-004	-2.40040E-001	6.47834E-001	3.57630E+000	9	...........
	9	0.133333	6.40152E-001	-3.98173E-004	0.00000E+000	-2.54891E-004	-2.40040E-001	6.40336E-001	3.57630E+000	9	...........
	10	0.146667	6.32724E-001	-3.98490E-004	0.00000E+000	-2.52134E-004	-2.40040E-001	6.32924E-001	3.57630E+000	9	...........
	11	0.16	6.25543E-001	-3.97750E-004	0.00000E+000	-2.48809E-004	-2.40040E-001	6.25743E-001	3.57630E+000	9	...........
	12	0.173333	6.18346E-001	-3.98434E-004	0.00000E+000	-2.46370E-004	-2.40040E-001	6.18539E-001	3.57630E+000	9	...........
	13	0.186667	6.11126E-001	-3.98248E-004	0.00000E+000	-2.43380E-004	-2.40040E-001	6.11366E-001	3.57630E+000	9	...........
	14	0.2	6.04071E-001	-3.98468E-004	0.00000E+000	-2.40703E-004	-2.40040E-001	6.04313E-001	3.57630E+000	9	...........
	15	0.213333	5.97092E-001	-3.97946E-004	0.00000E+000	-2.37610E-004	-2.40040E-001	5.97297E-001	3.57630E+000	9	...........
	16	0.226667	5.90142E-001	-3.98607E-004	0.00000E+000	-2.35235E-004	-2.40040E-001	5.90350E-001	3.57630E+000	9	...........
	17	0.24	5.83268E-001	-3.97537E-004	0.00000E+000	-2.31871E-004	-2.40040E-001	5.83463E-001	3.57630E+000	9	...........
	18	0.253333	5.76417E-001	-3.98294E-004	0.00000E+000	-2.29583E-004	-2.40040E-001	5.76622E-001	3.57630E+000	9	...........
	19	0.266667	5.69529E-001	-3.99307E-004	0.00000E+000	-2.27417E-004	-2.40040E-001	5.69723E-001	3.57630E+000	9	...........
	20	0.28	5.62748E-001	-3.98965E-004	0.00000E+000	-2.24517E-004	-2.40040E-001	5.62962E-001	3.57630E+000	9	...........
	21	0.293333	5.56066E-001	-3.99332E-004	0.00000E+000	-2.22055E-004	-2.40040E-001	5.56264E-001	3.57630E+000	9	...........
	22	0.306667	5.49406E-001	-3.99369E-004	0.00000E+000	-2.19416E-004	-2.40040E-001	5.49607E-001	3.57630E+000	9	...........
	23	0.32	5.42757E-001	-3.99847E-004	0.00000E+000	-2.17020E-004	-2.40040E-001	5.42955E-001	3.57630E+000	9	...........
	24	0.333333	5.36126E-001	-3.97988E-004	0.00000E+000	-2.13372E-004	-2.40040E-001	5.36355E-001	3.57630E+000	9	...........
	25	0.346667	5.29553E-001	-3.99122E-004	0.00000E+000	-2.11356E-004	-2.40040E-001	5.29775E-001	3.57630E+000	9	...........
	26	0.36	5.23001E-001	-3.98317E-004	0.00000E+000	-2.08320E-004	-2.40040E-001	5.23197E-001	3.57630E+000	9	...........
	27	0.373333	5.16461E-001	-3.98800E-004	0.00000E+000	-2.05965E-004	-2.40040E-001	5.16667E-001	3.57630E+000	9	...........
	28	0.386667	5.09966E-001	-3.97450E-004	0.00000E+000	-2.02686E-004	-2.40040E-001	5.10199E-001	3.57630E+000	9	...........
	29	0.4	5.03462E-001	-4.00561E-004	0.00000E+000	-2.01667E-004	-2.40040E-001	5.03710E-001	3.57630E+000	9	...........
	30	0.413333	4.97094E-001	-3.98404E-004	0.00000E+000	-1.98044E-004	-2.40040E-001	4.97354E-001	3.57630E+000	9	...........
	31	0.426667	4.90655E-001	-3.98631E-004	0.00000E+000	-1.95590E-004	-2.40040E-001	4.90916E-001	3.57630E+000	9	...........
	32	0.44	4.84457E-001	-3.99936E-004	0.00000E+000	-1.93751E-004	-2.40040E-001	4.84591E-001	3.57630E+000	9	...........
	33	0.453333	4.78207E-001	-4.00300E-004	0.00000E+000	-1.91426E-004	-2.40040E-001	4.78310E-001	3.57630E+000	9	...........
	34	0.466667	4.71897E-001	-3.99542E-004	0.00000E+000	-1.88543E-004	-2.40040E-001	4.71996E-001	3.57630E+000	9	...........
	35	0.48	4.65654E-001	-3.99087E-004	0.00000E+000	-1.85836E-004	-2.40040E-001	4.65751E-001	3.57630E+000	9	...........
	36	0.493333	4.59443E-001	-4.00035E-004	0.00000E+000	-1.83793E-004	-2.40040E-001	4.59539E-001	3.57630E+000	9	...........
	37	0.506667	4.53201E-001	-3.99164E-004	0.00000E+000	-1.80901E-004	-2.40040E-001	4.53295E-001	3.57630E+000	9	...........
	38	0.52	4.47032E-001	-3.98450E-004	0.00000E+000	-1.78120E-004	-2.40040E-001	4.47124E-001	3.57630E+000	9	...........
	39	0.533333	4.40846E-001	-3.98972E-004	0.00000E+000	-1.75885E-004	-2.40040E-001	4.40934E-001	3.57630E+000	9	...........
	40	0.546667	4.34749E-001	-3.99798E-004	0.00000E+000	-1.73812E-004	-2.40040E-001	4.34839E-001	3.57630E+000	9	...........
	41	0.56	4.28683E-001	-3.99965E-004	0.00000E+000	-1.71458E-004	-2.40040E-001	4.28771E-001	3.57630E+000	9	...........
	42	0.573333	4.22654E-001	-3.98500E-004	0.00000E+000	-1.68428E-004	-2.40040E-001	4.22740E-001	3.57630E+000	9	...........
	43	0.586667	4.16704E-001	-3.98037E-004	0.00000E+000	-1.65864E-004	-2.40040E-001	4.16789E-001	3.57630E+000	9	...........
	44	0.6	4.10673E-001	-3.99837E-004	0.00000E+000	-1.64202E-004	-2.40040E-001	4.10755E-001	3.57692E+000	9	...........
	45	0.613333	4.04683E-001	-3.98471E-004	0.00000E+000	-1.61255E-004	-2.40040E-001	4.04761E-001	3.57730E+000	9	...........
	46	0.626667	3.98750E-001	-3.98345E-004	0.00000E+000	-1.58840E-004	-2.40040E-001	3.98823E-001	3.57730E+000	9	...........
	47	0.64	3.92879E-001	-3.98415E-004	0.00000E+000	-1.56529E-004	-2.40040E-001	3.92950E-001	3.57730E+000	9	...........
	48	0.653333	3.87095E-001	-3.99131E-004	0.00000E+000	-1.54502E-004	-2.40040E-001	3.87176E-001	3.57730E+000	9	...........
	49	0.666667	3.81281E-001	-3.98331E-004	0.00000E+000	-1.51876E-004	-2.40040E-001	3.81350E-001	3.57730E+000	9	...........
	50	0.68	3.75484E-001	-3.99191E-004	0.00000E+000	-1.49890E-004	-2.40040E-001	3.75553E-001	3.57730E+000	9	...........
	51	0.693333	3.69698E-001	-3.99632E-004	0.00000E+000	-1.47744E-004	-2.40040E-001	3.69765E-001	3.57730E+000	9	...........
	52	0.706667	3.63927E-001	-3.98434E-004	0.00000E+000	-1.45001E-004	-2.40040E-001	3.63999E-001	3.57730E+000	9	...........
	53	0.72	3.58190E-001	-3.99451E-004	0.00000E+000	-1.43079E-004	-2.40040E-001	3.58258E-001	3.57730E+000	9	...........
	54	0.733333	3.52473E-001	-3.97970E-004	0.00000E+000	-1.40274E-004	-2.40040E-001	3.52539E-001	3.57730E+000	9	...........
	55	0.746667	3.46866E-001	-3.98583E-004	0.00000E+000	-1.38255E-004	-2.40040E-001	3.46933E-001	3.57730E+000	9	...........
	56	0.76	3.41224E-001	-3.99589E-004	0.00000E+000	-1.36349E-004	-2.40040E-001	3.41288E-001	3.57730E+000	9	...........
	57	0.773333	3.35718E-001	-3.99402E-004	0.00000E+000	-1.34087E-004	-2.40040E-001	3.35783E-001	3.57730E+000	9	...........
	58	0.786667	3.30151E-001	-3.98437E-004	0.00000E+000	-1.31545E-004	-2.40040E-001	3.30220E-001	3.57730E+000	9	...........
	59	0.8	3.24630E-001	-3.98260E-004	0.00000E+000	-1.29287E-004	-2.40040E-001	3.24694E-001	3.57730E+000	9	...........
	60	0.813333	3.19084E-001	-3.98691E-004	0.00000E+000	-1.27216E-004	-2.40040E-001	3.19150E-001	3.57730E+000	9	...........
	61	0.826667	3.13623E-001	-3.97971E-004	0.00000E+000	-1.24813E-004	-2.40040E-001	3.13681E-001	3.57730E+000	9	...........
	62	0.84	3.08143E-001	-3.98711E-004	0.00000E+000	-1.22860E-004	-2.40040E-001	3.08206E-001	3.57730E+000	9	...........
	63	0.853333	3.02703E-001	-3.98680E-004	0.00000E+000	-1.20682E-004	-2.40040E-001	3.02759E-001	3.57730E+000	9	...........
	64	0.866667	2.97305E-001	-3.99627E-004	0.00000E+000	-1.18811E-004	-2.40040E-001	2.97364E-001	3.57730E+000	9	...........
	65	0.88	2.91973E-001	-3.97551E-004	0.00000E+000	-1.16074E-004	-2.40040E-001	2.92027E-001	3.57730E+000	9	...........
	66	0.893333	2.86556E-001	-3.97785E-004	0.00000E+000	-1.13988E-004	-2.40040E-001	2.86617E-001	3.57730E+000	9	...........
	67	0.906667	2.81226E-001	-3.98352E-004	0.00000E+000	-1.12027E-004	-2.40040E-001	2.81290E-001	3.57730E+000	9	...........
	68	0.92	2.75938E-001	-3.99701E-004	0.00000E+000	-1.10293E-004	-2.40040E-001	2.75997E-001	3.57730E+000	9	...........
	69	0.933333	2.70664E-001	-3.98645E-004	0.00000E+000	-1.07899E-004	-2.40040E-001	2.70722E-001	3.57730E+000	9	...........
	70	0.946667	2.65456E-001	-3.99824E-004	0.00000E+000	-1.06136E-004	-2.40040E-001	2.65514E-001	3.57730E+000	9	...........
	71	0.96	2.60225E-001	-3.99001E-004	0.00000E+000	-1.03830E-004	-2.40040E-001	2.60278E-001	3.57730E+000	9	...........
	72	0.97333	2.55066E-001	-3.97680E-004	0.00000E+000	-1.01435E-004	-2.40040E-001	2.55118E-001	3.57730E+000	9	...........
	73	0.98667	2.49929E-001	-3.99532E-004	0.00000E+000	-9.98548E-005	-2.40040E-001	2.49978E-001	3.57730E+000	9	...........
	74	1	2.44791E-001	-3.98025E-004	0.00000E+000	-9.74328E-005	-2.40040E-001	2.44836E-001	3.57730E+000	9	...........
	75	1.01333	2.39632E-001	-3.98379E-004	0.00000E+000	-9.54645E-005	-2.40040E-001	2.39681E-001	3.57730E+000	9	...........
	76	1.02667	2.34609E-001	-3.99561E-004	0.00000E+000	-9.37403E-005	-2.40040E-001	2.34652E-001	3.57730E+000	9	...........
	77	1.04	2.29571E-001	-3.99710E-004	0.00000E+000	-9.17616E-005	-2.40040E-001	2.29614E-001	3.57730E+000	9	...........
	78	1.05333	2.24456E-001	-3.97758E-004	0.00000E+000	-8.92793E-005	-2.40040E-001	2.24496E-001	3.57730E+000	9	...........
	79	1.06667	2.19416E-001	-4.01082E-004	0.00000E+000	-8.80036E-005	-2.40040E-001	2.19462E-001	3.57730E+000	9	...........
	80	1.08	2.14466E-001	-3.99182E-004	0.00000E+000	-8.56111E-005	-2.40040E-001	2.14508E-001	3.57730E+000	9	...........
	81	1.09333	2.09613E-001	-3.99370E-004	0.00000E+000	-8.37132E-005	-2.40040E-001	2.09650E-001	3.57730E+000	9	...........
	82	1.10667	2.04640E-001	-3.98378E-004	0.00000E+000	-8.15241E-005	-2.40040E-001	2.04682E-001	3.57730E+000	9	...........
	83	1.12	1.99697E-001	-3.98209E-004	0.00000E+000	-7.95212E-005	-2.40040E-001	1.99739E-001	3.57730E+000	9	...........
	84	1.13333	1.94878E-001	-3.96550E-004	0.00000E+000	-7.72787E-005	-2.40040E-001	1.94920E-001	3.57730E+000	9	...........
	85	1.14667	1.89944E-001	-3.99033E-004	0.00000E+000	-7.57939E-005	-2.40040E-001	1.89978E-001	3.57730E+000	9	...........
	86	1.16	1.85091E-001	-4.00961E-004	0.00000E+000	-7.42143E-005	-2.40040E-001	1.85122E-001	3.57730E+000	9	...........
	87	1.17333	1.80238E-001	-3.99430E-004	0.00000E+000	-7.19927E-005	-2.40040E-001	1.80278E-001	3.57730E+000	9	...........
	88	1.18667	1.75379E-001	-3.99530E-004	0.00000E+000	-7.00691E-005	-2.40040E-001	1.75416E-001	3.57730E+000	9	...........
	89	1.2	1.70626E-001	-3.97314E-004	0.00000E+000	-6.77923E-005	-2.40040E-001	1.70656E-001	3.57730E+000	9	...........
	90	1.21333	1.65862E-001	-4.00274E-004	0.00000E+000	-6.63905E-005	-2.40040E-001	1.65890E-001	3.57730E+000	9	...........
	91	1.22667	1.61135E-001	-3.98925E-004	0.00000E+000	-6.42806E-005	-2.40040E-001	1.61167E-001	3.57730E+000	9	...........
	92	1.24	1.56494E-001	-3.98481E-004	0.00000E+000	-6.23597E-005	-2.40040E-001	1.56517E-001	3.57730E+000	9	...........
	93	1.25333	1.51818E-001	-3.99492E-004	0.00000E+000	-6.06499E-005	-2.40040E-001	1.51847E-001	3.57730E+000	9	...........
	94	1.26667	1.47138E-001	-3.98959E-004	0.00000E+000	-5.87022E-005	-2.40040E-001	1.47157E-001	3.57730E+000	9	...........
	95	1.28	1.42449E-001	-3.98426E-004	0.00000E+000	-5.67554E-005	-2.40040E-001	1.42476E-001	3.57730E+000	9	...........
	96	1.29333	1.37779E-001	-3.99690E-004	0.00000E+000	-5.50687E-005	-2.40040E-001	1.37806E-001	3.57730E+000	9	...........
	97	1.30667	1.33103E-001	-3.99223E-004	0.00000E+000	-5.31379E-005	-2.40040E-001	1.33128E-001	3.57730E+000	9	...........
	98	1.32	1.28516E-001	-3.99329E-004	0.00000E+000	-5.13202E-005	-2.40040E-001	1.28536E-001	3.57730E+000	9	...........
	99	1.33333	1.23971E-001	-3.98683E-004	0.00000E+000	-4.94250E-005	-2.40040E-001	1.23995E-001	3.57730E+000	9	...........
	100	1.34667	1.19401E-001	-3.98932E-004	0.00000E+000	-4.76330E-005	-2.40040E-001	1.19429E-001	3.57730E+000	9	...........
	101	1.36	1.14893E-001	-3.98281E-004	0.00000E+000	-4.57595E-005	-2.40040E-001	1.14916E-001	3.57730E+000	9	...........
	102	1.37333	1.10427E-001	-3.98419E-004	0.00000E+000	-4.39961E-005	-2.40040E-001	1.10453E-001	3.57730E+000	9	...........
	103	1.38667	1.05960E-001	-3.98522E-004	0.00000E+000	-4.22275E-005	-2.40040E-001	1.05979E-001	3.57730E+000	9	...........
	104	1.4	1.01502E-001	-3.99759E-004	0.00000E+000	-4.05763E-005	-2.40040E-001	1.01523E-001	3.57730E+000	9	...........
	105	1.41333	9.70555E-002	-4.00193E-004	0.00000E+000	-3.88409E-005	-2.40040E-001	9.70735E-002	3.57730E+000	9	...........
	106	1.42667	9.25598E-002	-3.99216E-004	0.00000E+000	-3.69513E-005	-2.40040E-001	9.25780E-002	3.57730E+000	9	...........
	107	1.44	8.81383E-002	-3.98398E-004	0.00000E+000	-3.51141E-005	-2.40040E-001	8.81554E-002	3.57730E+000	9	...........
	108	1.45333	8.38206E-002	-3.98998E-004	0.00000E+000	-3.34442E-005	-2.40040E-001	8.38369E-002	3.57730E+000	9	...........
	109	1.46667	7.94840E-002	-3.98375E-004	0.00000E+000	-3.16644E-005	-2.40040E-001	7.94960E-002	3.57730E+000	9	...........
	110	1.48	7.51807E-002	-3.99149E-004	0.00000E+000	-3.00083E-005	-2.40040E-001	7.51896E-002	3.57730E+000	9	...........
	111	1.49333	7.08803E-002	-3.98451E-004	0.00000E+000	-2.82423E-005	-2.40040E-001	7.08880E-002	3.57730E+000	9	...........
	112	1.50667	6.65539E-002	-3.97714E-004	0.00000E+000	-2.64695E-005	-2.40040E-001	6.65636E-002	3.57730E+000	9	...........
	113	1.52	6.22009E-002	-3.99726E-004	0.00000E+000	-2.48633E-005	-2.40040E-001	6.22099E-002	3.57730E+000	9	...........
	114	1.53333	5.79834E-002	-3.97755E-004	0.00000E+000	-2.30632E-005	-2.40040E-001	5.79915E-002	3.57730E+000	9	...........
	115	1.54667	5.37205E-002	-3.97912E-004	0.00000E+000	-2.13761E-005	-2.40040E-001	5.37318E-002	3.57730E+000	9	...........
	116	1.56	4.93855E-002	-3.98693E-004	0.00000E+000	-1.96896E-005	-2.40040E-001	4.93894E-002	3.57730E+000	9	...........
	117	1.57333	4.51652E-002	-3.99665E-004	0.00000E+000	-1.80509E-005	-2.40040E-001	4.51752E-002	3.57730E+000	9	...........
	118	1.58667	4.08939E-002	-3.98878E-004	0.00000E+000	-1.63117E-005	-2.40040E-001	4.09006E-002	3.57730E+000	9	...........
	119	1.6	3.66261E-002	-3.99154E-004	0.00000E+000	-1.46194E-005	-2.40040E-001	3.66296E-002	3.57667E+000	9	...........
	120	1.61333	3.25401E-002	-3.96921E-004	0.00000E+000	-1.29159E-005	-2.40040E-001	3.25406E-002	3.57630E+000	9	...........
	121	1.62667	2.83729E-002	-3.98905E-004	0.00000E+000	-1.13181E-005	-2.40040E-001	2.83743E-002	3.57630E+000	9	...........
	122	1.64	2.42485E-002	-3.99247E-004	0.00000E+000	-9.68115E-006	-2.40040E-001	2.42482E-002	3.57630E+000	9	...........
	123	1.65333	2.01630E-002	-3.97846E-004	0.00000E+000	-8.02175E-006	-2.40040E-001	2.01586E-002	3.57630E+000	9	...........
	124	1.66667	1.60693E-002	-4.00410E-004	0.00000E+000	-6.43429E-006	-2.40040E-001	1.60597E-002	3.57630E+000	9	...........
	125	1.68	1.18838E-002	-3.98879E-004	0.00000E+000	-4.74021E-006	-2.40040E-001	1.18782E-002	3.57630E+000	9	...........
	126	1.69333	7.83018E-003	-3.98809E-004	0.00000E+000	-3.12275E-006	-2.40040E-001	7.81736E-003	3.57630E+000	9	...........
	127	1.70667	3.77628E-003	-3.97783E-004	0.00000E+000	-1.50214E-006	-2.40040E-001	3.76195E-003	3.57630E+000	9	...........
	128	1.71333	7.63807E-004	-3.97804E-004	0.00000E+000	-3.03846E-007	-2.40040E-001	7.50178E-004	3.57630E+000	9	...........
STARTTIMEOFFSET	QUANT	414.8966	Start Time Offset (s)
