EXPLAIN
TAG	PWR800_DISCHARGE
TITLE	LABEL	PWR Cyclic Charge Discharge (Cell) - Discharge Step	Test &Identifier
DATE	LABEL	12-7-2017	Date
TIME	LABEL	14:26:59	Time
NOTES	NOTES	3	&Notes...
	supercap test cell
	0.4mg
	6M KOH
PSTAT	PSTAT	IFC5000-01520	Potentiostat
CAPACITY	QUANT	1.00000E-003	Capacity (A-hr)
CELLTYPE	SELECTOR	1	&Cell Type
WORKINGCONNECTION	SELECTOR	0	&Working Lead
MAXDISCHARGETIME	VARIABLEANDUNITS	1.00000E+002	s	1.00000E+002	second(s)	Max &Discharge Time
DISCHARGEMODE	MULTIPARAM	0	4.00000E-004	&Discharge Mode	Constant Current	Amp(s)
SAMPLETIME	QUANT	1.00000E-002	Sa&mple Period (s)
DISCHARGESTOPAT1	MULTIPARAM	3	0.00000E+000	Discharge Stop At &1	Voltage < Limit	V
DISCHARGESTOPAT2	MULTIPARAM	0	0.00000E+000	Discharge Stop At &2	None	N/A
AESBHCSELECTOR	TOGGLE	F	Save Both Half Cells
IRCOMP	TOGGLE	F	IR &Measure
EOC	QUANT	0	Open Circuit (V)
SEQUENCER	TOGGLE	TRUE	Run as Sequence
PSTATMODEL	IQUANT	53	Pstat Model
PSTATSECTION	LABEL	IFC5000-01520	Pstat Section
PSTATSERIALNO	LABEL	01520	Pstat Serial Number
CTRLMODE	IQUANT	0	Control Mode
ELECTROMETER	IQUANT	1	RE=0 or CS=1
IESTAB	IQUANT	0	I/E Stability
CASPEED	IQUANT	4	Control Amp Speed
CONVENTION	IQUANT	1	Current Convention
ICHRANGE	IQUANT	2	Ich Range
ICHRANGEMODE	TOGGLE	T	Ich Auto Range
ICHOFFSETENABLE	TOGGLE	F	Ich Offset Enable
ICHOFFSET	QUANT	0	Ich Offset (V)
ICHFILTER	IQUANT	1	Ich Filter
VCHRANGE	IQUANT	2	Vch Range
VCHRANGEMODE	TOGGLE	T	Vch Auto Range
VCHOFFSETENABLE	TOGGLE	F	Vch Offset Enable
VCHOFFSET	QUANT	0	Vch Offset (V)
VCHFILTER	IQUANT	1	Vch Filter
IERANGELOWERLIMIT	IQUANT	9	I/E Range Lower Limit
IERANGEMODE	TOGGLE	F	I/E AutoRange
IERANGE	IQUANT	9	I/E Range
ACHSELECT	IQUANT	1	Ach Select
ACHRANGE	IQUANT	2	Ach Range
ACHOFFSETENABLE	TOGGLE	F	Ach Offset Enable
ACHOFFSET	QUANT	0	Ach Offset (V)
ACHFILTER	IQUANT	1	Ach Filter
CABLEID	IQUANT	14	Cable ID
DCCALDATE	LABEL	5-7-2017	DC Calibration Date
ACCALDATE	LABEL	12/3/2015	AC Calibration Date
FRAMEWORKVERSION	QUANT	7.01	Framework Version
INSTRUMENTVERSION	LABEL	4.00	Instrument Version
CURVE	TABLE	129
	Pt	T	Vf	Im	Vu	Pwr	Sig	Ach	Temp	IERange	Over
	#	s	V	A	V	W	V	V	deg C	#	bits
	0	0.013333	7.17362E-001	-3.98971E-004	0.00000E+000	-2.86206E-004	-2.40040E-001	7.17646E-001	3.57580E+000	9	...........
	1	0.026667	7.06242E-001	-3.99308E-004	0.00000E+000	-2.82009E-004	-2.40040E-001	7.06525E-001	3.57580E+000	9	...........
	2	0.04	6.96484E-001	-3.98916E-004	0.00000E+000	-2.77838E-004	-2.40040E-001	6.96747E-001	3.57580E+000	9	...........
	3	0.053333	6.87460E-001	-3.98172E-004	0.00000E+000	-2.73727E-004	-2.40040E-001	6.87709E-001	3.57580E+000	9	...........
	4	0.066667	6.78947E-001	-3.96959E-004	0.00000E+000	-2.69514E-004	-2.40040E-001	6.79202E-001	3.57580E+000	9	...........
	5	0.08	6.70742E-001	-3.98462E-004	0.00000E+000	-2.67265E-004	-2.40040E-001	6.70967E-001	3.57580E+000	9	...........
	6	0.093333	6.62716E-001	-3.98022E-004	0.00000E+000	-2.63775E-004	-2.40040E-001	6.62964E-001	3.57580E+000	9	...........
	7	0.106667	6.54918E-001	-3.99645E-004	0.00000E+000	-2.61735E-004	-2.40040E-001	6.55158E-001	3.57580E+000	9	...........
	8	0.12	6.47323E-001	-3.98707E-004	0.00000E+000	-2.58092E-004	-2.40040E-001	6.47531E-001	3.57580E+000	9	...........
	9	0.133333	6.39797E-001	-3.99309E-004	0.00000E+000	-2.55477E-004	-2.40040E-001	6.40008E-001	3.57580E+000	9	...........
	10	0.146667	6.32406E-001	-3.98515E-004	0.00000E+000	-2.52023E-004	-2.40040E-001	6.32589E-001	3.57580E+000	9	...........
	11	0.16	6.25124E-001	-3.97061E-004	0.00000E+000	-2.48212E-004	-2.40040E-001	6.25328E-001	3.57580E+000	9	...........
	12	0.173333	6.17974E-001	-3.98117E-004	0.00000E+000	-2.46025E-004	-2.40040E-001	6.18152E-001	3.57580E+000	9	...........
	13	0.186667	6.10748E-001	-3.99362E-004	0.00000E+000	-2.43909E-004	-2.40040E-001	6.10977E-001	3.57580E+000	9	...........
	14	0.2	6.03623E-001	-3.98220E-004	0.00000E+000	-2.40375E-004	-2.40040E-001	6.03858E-001	3.57580E+000	9	...........
	15	0.213333	5.96656E-001	-3.97753E-004	0.00000E+000	-2.37322E-004	-2.40040E-001	5.96870E-001	3.57580E+000	9	...........
	16	0.226667	5.89644E-001	-3.99157E-004	0.00000E+000	-2.35361E-004	-2.40040E-001	5.89878E-001	3.57580E+000	9	...........
	17	0.24	5.82661E-001	-3.98756E-004	0.00000E+000	-2.32340E-004	-2.40040E-001	5.82880E-001	3.57580E+000	9	...........
	18	0.253333	5.75895E-001	-3.98004E-004	0.00000E+000	-2.29209E-004	-2.40040E-001	5.76095E-001	3.57580E+000	9	...........
	19	0.266667	5.69111E-001	-3.98596E-004	0.00000E+000	-2.26845E-004	-2.40040E-001	5.69312E-001	3.57580E+000	9	...........
	20	0.28	5.62322E-001	-3.99331E-004	0.00000E+000	-2.24553E-004	-2.40040E-001	5.62540E-001	3.57580E+000	9	...........
	21	0.293333	5.55557E-001	-3.99664E-004	0.00000E+000	-2.22036E-004	-2.40040E-001	5.55770E-001	3.57580E+000	9	...........
	22	0.306667	5.48896E-001	-3.98186E-004	0.00000E+000	-2.18563E-004	-2.40040E-001	5.49094E-001	3.57580E+000	9	...........
	23	0.32	5.42236E-001	-4.00364E-004	0.00000E+000	-2.17092E-004	-2.40040E-001	5.42454E-001	3.57580E+000	9	...........
	24	0.333333	5.35623E-001	-4.00075E-004	0.00000E+000	-2.14290E-004	-2.40040E-001	5.35861E-001	3.57580E+000	9	...........
	25	0.346667	5.29028E-001	-3.98951E-004	0.00000E+000	-2.11056E-004	-2.40040E-001	5.29245E-001	3.57580E+000	9	...........
	26	0.36	5.22531E-001	-3.98848E-004	0.00000E+000	-2.08410E-004	-2.40040E-001	5.22726E-001	3.57580E+000	9	...........
	27	0.373333	5.16033E-001	-3.98856E-004	0.00000E+000	-2.05823E-004	-2.40040E-001	5.16221E-001	3.57580E+000	9	...........
	28	0.386667	5.09566E-001	-3.98265E-004	0.00000E+000	-2.02943E-004	-2.40040E-001	5.09796E-001	3.57580E+000	9	...........
	29	0.4	5.03119E-001	-4.00217E-004	0.00000E+000	-2.01357E-004	-2.40040E-001	5.03333E-001	3.57580E+000	9	...........
	30	0.413333	4.96699E-001	-3.98776E-004	0.00000E+000	-1.98072E-004	-2.40040E-001	4.96915E-001	3.57580E+000	9	...........
	31	0.426667	4.90401E-001	-3.99817E-004	0.00000E+000	-1.96071E-004	-2.40040E-001	4.90596E-001	3.57580E+000	9	...........
	32	0.44	4.84229E-001	-3.99166E-004	0.00000E+000	-1.93288E-004	-2.40040E-001	4.84333E-001	3.57580E+000	9	...........
	33	0.453333	4.77952E-001	-3.99171E-004	0.00000E+000	-1.90784E-004	-2.40040E-001	4.78054E-001	3.57580E+000	9	...........
	34	0.466667	4.71667E-001	-3.98598E-004	0.00000E+000	-1.88005E-004	-2.40040E-001	4.71767E-001	3.57580E+000	9	...........
	35	0.48	4.65510E-001	-3.98324E-004	0.00000E+000	-1.85424E-004	-2.40040E-001	4.65603E-001	3.57580E+000	9	...........
	36	0.493333	4.59283E-001	-3.97817E-004	0.00000E+000	-1.82711E-004	-2.40040E-001	4.59373E-001	3.57580E+000	9	...........
	37	0.506667	4.53092E-001	-3.99440E-004	0.00000E+000	-1.80983E-004	-2.40040E-001	4.53184E-001	3.57580E+000	9	...........
	38	0.52	4.46899E-001	-3.98228E-004	0.00000E+000	-1.77968E-004	-2.40040E-001	4.46989E-001	3.57580E+000	9	...........
	39	0.533333	4.40790E-001	-3.99123E-004	0.00000E+000	-1.75929E-004	-2.40040E-001	4.40878E-001	3.57580E+000	9	...........
	40	0.546667	4.34733E-001	-3.99572E-004	0.00000E+000	-1.73707E-004	-2.40040E-001	4.34817E-001	3.57580E+000	9	...........
	41	0.56	4.28681E-001	-3.99526E-004	0.00000E+000	-1.71269E-004	-2.40040E-001	4.28767E-001	3.57580E+000	9	...........
	42	0.573333	4.22668E-001	-3.98958E-004	0.00000E+000	-1.68627E-004	-2.40040E-001	4.22755E-001	3.57580E+000	9	...........
	43	0.586667	4.16714E-001	-3.98583E-004	0.00000E+000	-1.66095E-004	-2.40040E-001	4.16793E-001	3.57580E+000	9	...........
	44	0.6	4.10710E-001	-3.98542E-004	0.00000E+000	-1.63685E-004	-2.40040E-001	4.10789E-001	3.57580E+000	9	...........
	45	0.613333	4.04777E-001	-3.98655E-004	0.00000E+000	-1.61366E-004	-2.40040E-001	4.04849E-001	3.57580E+000	9	...........
	46	0.626667	3.98897E-001	-3.99235E-004	0.00000E+000	-1.59254E-004	-2.40040E-001	3.98963E-001	3.57580E+000	9	...........
	47	0.64	3.93028E-001	-3.99292E-004	0.00000E+000	-1.56933E-004	-2.40040E-001	3.93099E-001	3.57580E+000	9	...........
	48	0.653333	3.87140E-001	-3.98891E-004	0.00000E+000	-1.54427E-004	-2.40040E-001	3.87215E-001	3.57580E+000	9	...........
	49	0.666667	3.81344E-001	-4.00026E-004	0.00000E+000	-1.52548E-004	-2.40040E-001	3.81415E-001	3.57580E+000	9	...........
	50	0.68	3.75568E-001	-3.97951E-004	0.00000E+000	-1.49457E-004	-2.40040E-001	3.75630E-001	3.57580E+000	9	...........
	51	0.693333	3.69801E-001	-3.98682E-004	0.00000E+000	-1.47433E-004	-2.40040E-001	3.69871E-001	3.57580E+000	9	...........
	52	0.706667	3.64082E-001	-3.99428E-004	0.00000E+000	-1.45424E-004	-2.40040E-001	3.64152E-001	3.57580E+000	9	...........
	53	0.72	3.58411E-001	-3.99732E-004	0.00000E+000	-1.43269E-004	-2.40040E-001	3.58481E-001	3.57617E+000	9	...........
	54	0.733333	3.52753E-001	-3.99038E-004	0.00000E+000	-1.40762E-004	-2.40040E-001	3.52821E-001	3.57730E+000	9	...........
	55	0.746667	3.47168E-001	-3.98528E-004	0.00000E+000	-1.38356E-004	-2.40040E-001	3.47237E-001	3.57730E+000	9	...........
	56	0.76	3.41488E-001	-3.98693E-004	0.00000E+000	-1.36149E-004	-2.40040E-001	3.41555E-001	3.57730E+000	9	...........
	57	0.773333	3.35924E-001	-3.99208E-004	0.00000E+000	-1.34104E-004	-2.40040E-001	3.35987E-001	3.57730E+000	9	...........
	58	0.786667	3.30365E-001	-3.97713E-004	0.00000E+000	-1.31391E-004	-2.40040E-001	3.30429E-001	3.57730E+000	9	...........
	59	0.8	3.24878E-001	-3.98732E-004	0.00000E+000	-1.29539E-004	-2.40040E-001	3.24941E-001	3.57730E+000	9	...........
	60	0.813333	3.19411E-001	-3.99592E-004	0.00000E+000	-1.27634E-004	-2.40040E-001	3.19478E-001	3.57730E+000	9	...........
	61	0.826667	3.13954E-001	-3.97635E-004	0.00000E+000	-1.24839E-004	-2.40040E-001	3.14014E-001	3.57730E+000	9	...........
	62	0.84	3.08525E-001	-3.99135E-004	0.00000E+000	-1.23143E-004	-2.40040E-001	3.08584E-001	3.57730E+000	9	...........
	63	0.853333	3.02952E-001	-3.99505E-004	0.00000E+000	-1.21031E-004	-2.40040E-001	3.03011E-001	3.57730E+000	9	...........
	64	0.866667	2.97569E-001	-3.98050E-004	0.00000E+000	-1.18447E-004	-2.40040E-001	2.97629E-001	3.57730E+000	9	...........
	65	0.88	2.92203E-001	-3.98878E-004	0.00000E+000	-1.16553E-004	-2.40040E-001	2.92256E-001	3.57730E+000	9	...........
	66	0.893333	2.86851E-001	-3.98503E-004	0.00000E+000	-1.14311E-004	-2.40040E-001	2.86907E-001	3.57730E+000	9	...........
	67	0.906667	2.81593E-001	-3.99371E-004	0.00000E+000	-1.12460E-004	-2.40040E-001	2.81650E-001	3.57730E+000	9	...........
	68	0.92	2.76361E-001	-3.98509E-004	0.00000E+000	-1.10132E-004	-2.40040E-001	2.76415E-001	3.57730E+000	9	...........
	69	0.933333	2.71114E-001	-3.98172E-004	0.00000E+000	-1.07950E-004	-2.40040E-001	2.71167E-001	3.57730E+000	9	...........
	70	0.946667	2.65845E-001	-3.98792E-004	0.00000E+000	-1.06017E-004	-2.40040E-001	2.65904E-001	3.57730E+000	9	...........
	71	0.96	2.60599E-001	-3.98416E-004	0.00000E+000	-1.03827E-004	-2.40040E-001	2.60646E-001	3.57730E+000	9	...........
	72	0.97333	2.55434E-001	-3.98747E-004	0.00000E+000	-1.01854E-004	-2.40040E-001	2.55483E-001	3.57730E+000	9	...........
	73	0.98667	2.50300E-001	-4.00372E-004	0.00000E+000	-1.00213E-004	-2.40040E-001	2.50349E-001	3.57730E+000	9	...........
	74	1	2.45190E-001	-3.98053E-004	0.00000E+000	-9.75987E-005	-2.40040E-001	2.45233E-001	3.57730E+000	9	...........
	75	1.01333	2.40069E-001	-3.98522E-004	0.00000E+000	-9.56728E-005	-2.40040E-001	2.40107E-001	3.57730E+000	9	...........
	76	1.02667	2.35017E-001	-3.98072E-004	0.00000E+000	-9.35538E-005	-2.40040E-001	2.35060E-001	3.57730E+000	9	...........
	77	1.04	2.29923E-001	-3.99958E-004	0.00000E+000	-9.19595E-005	-2.40040E-001	2.29964E-001	3.57730E+000	9	...........
	78	1.05333	2.24882E-001	-3.98476E-004	0.00000E+000	-8.96100E-005	-2.40040E-001	2.24920E-001	3.57730E+000	9	...........
	79	1.06667	2.19862E-001	-3.98959E-004	0.00000E+000	-8.77162E-005	-2.40040E-001	2.19907E-001	3.57730E+000	9	...........
	80	1.08	2.14807E-001	-3.99010E-004	0.00000E+000	-8.57102E-005	-2.40040E-001	2.14842E-001	3.57730E+000	9	...........
	81	1.09333	2.09851E-001	-3.98604E-004	0.00000E+000	-8.36476E-005	-2.40040E-001	2.09890E-001	3.57730E+000	9	...........
	82	1.10667	2.04955E-001	-3.99159E-004	0.00000E+000	-8.18097E-005	-2.40040E-001	2.04989E-001	3.57730E+000	9	...........
	83	1.12	1.99969E-001	-3.98749E-004	0.00000E+000	-7.97375E-005	-2.40040E-001	2.00004E-001	3.57730E+000	9	...........
	84	1.13333	1.95038E-001	-3.98856E-004	0.00000E+000	-7.77919E-005	-2.40040E-001	1.95075E-001	3.57730E+000	9	...........
	85	1.14667	1.90180E-001	-3.98309E-004	0.00000E+000	-7.57504E-005	-2.40040E-001	1.90212E-001	3.57730E+000	9	...........
	86	1.16	1.85384E-001	-3.98660E-004	0.00000E+000	-7.39053E-005	-2.40040E-001	1.85412E-001	3.57730E+000	9	...........
	87	1.17333	1.80572E-001	-3.96952E-004	0.00000E+000	-7.16782E-005	-2.40040E-001	1.80610E-001	3.57730E+000	9	...........
	88	1.18667	1.75741E-001	-3.99538E-004	0.00000E+000	-7.02149E-005	-2.40040E-001	1.75778E-001	3.57730E+000	9	...........
	89	1.2	1.71040E-001	-3.99366E-004	0.00000E+000	-6.83075E-005	-2.40040E-001	1.71069E-001	3.57730E+000	9	...........
	90	1.21333	1.66311E-001	-3.97425E-004	0.00000E+000	-6.60962E-005	-2.40040E-001	1.66338E-001	3.57730E+000	9	...........
	91	1.22667	1.61596E-001	-3.99915E-004	0.00000E+000	-6.46247E-005	-2.40040E-001	1.61622E-001	3.57730E+000	9	...........
	92	1.24	1.56910E-001	-3.99452E-004	0.00000E+000	-6.26779E-005	-2.40040E-001	1.56935E-001	3.57730E+000	9	...........
	93	1.25333	1.52183E-001	-4.00733E-004	0.00000E+000	-6.09848E-005	-2.40040E-001	1.52205E-001	3.57730E+000	9	...........
	94	1.26667	1.47500E-001	-3.99594E-004	0.00000E+000	-5.89401E-005	-2.40040E-001	1.47520E-001	3.57730E+000	9	...........
	95	1.28	1.42879E-001	-3.98947E-004	0.00000E+000	-5.70011E-005	-2.40040E-001	1.42899E-001	3.57730E+000	9	...........
	96	1.29333	1.38248E-001	-3.99887E-004	0.00000E+000	-5.52836E-005	-2.40040E-001	1.38270E-001	3.57730E+000	9	...........
	97	1.30667	1.33642E-001	-3.97835E-004	0.00000E+000	-5.31675E-005	-2.40040E-001	1.33668E-001	3.57730E+000	9	...........
	98	1.32	1.29072E-001	-3.98583E-004	0.00000E+000	-5.14460E-005	-2.40040E-001	1.29100E-001	3.57730E+000	9	...........
	99	1.33333	1.24532E-001	-3.98647E-004	0.00000E+000	-4.96444E-005	-2.40040E-001	1.24551E-001	3.57730E+000	9	...........
	100	1.34667	1.19959E-001	-3.99095E-004	0.00000E+000	-4.78749E-005	-2.40040E-001	1.19982E-001	3.57730E+000	9	...........
	101	1.36	1.15466E-001	-3.99048E-004	0.00000E+000	-4.60765E-005	-2.40040E-001	1.15485E-001	3.57730E+000	9	...........
	102	1.37333	1.10929E-001	-4.00002E-004	0.00000E+000	-4.43720E-005	-2.40040E-001	1.10948E-001	3.57730E+000	9	...........
	103	1.38667	1.06380E-001	-3.99611E-004	0.00000E+000	-4.25106E-005	-2.40040E-001	1.06403E-001	3.57730E+000	9	...........
	104	1.4	1.01899E-001	-3.98766E-004	0.00000E+000	-4.06340E-005	-2.40040E-001	1.01919E-001	3.57730E+000	9	...........
	105	1.41333	9.74886E-002	-3.98406E-004	0.00000E+000	-3.88401E-005	-2.40040E-001	9.75062E-002	3.57730E+000	9	...........
	106	1.42667	9.30833E-002	-3.99084E-004	0.00000E+000	-3.71481E-005	-2.40040E-001	9.30972E-002	3.57730E+000	9	...........
	107	1.44	8.87857E-002	-3.99229E-004	0.00000E+000	-3.54458E-005	-2.40040E-001	8.88073E-002	3.57730E+000	9	...........
	108	1.45333	8.43145E-002	-3.98848E-004	0.00000E+000	-3.36287E-005	-2.40040E-001	8.43357E-002	3.57730E+000	9	...........
	109	1.46667	8.00129E-002	-3.97823E-004	0.00000E+000	-3.18309E-005	-2.40040E-001	8.00247E-002	3.57730E+000	9	...........
	110	1.48	7.57163E-002	-3.97642E-004	0.00000E+000	-3.01080E-005	-2.40040E-001	7.57271E-002	3.57730E+000	9	...........
	111	1.49333	7.13743E-002	-3.98307E-004	0.00000E+000	-2.84289E-005	-2.40040E-001	7.13792E-002	3.57730E+000	9	...........
	112	1.50667	6.71054E-002	-3.97914E-004	0.00000E+000	-2.67022E-005	-2.40040E-001	6.71139E-002	3.57730E+000	9	...........
	113	1.52	6.27137E-002	-3.97551E-004	0.00000E+000	-2.49319E-005	-2.40040E-001	6.27195E-002	3.57730E+000	9	...........
	114	1.53333	5.84676E-002	-3.97948E-004	0.00000E+000	-2.32670E-005	-2.40040E-001	5.84785E-002	3.57730E+000	9	...........
	115	1.54667	5.41902E-002	-3.98525E-004	0.00000E+000	-2.15962E-005	-2.40040E-001	5.41933E-002	3.57730E+000	9	...........
	116	1.56	4.99745E-002	-4.00020E-004	0.00000E+000	-1.99908E-005	-2.40040E-001	4.99760E-002	3.57730E+000	9	...........
	117	1.57333	4.58077E-002	-3.98048E-004	0.00000E+000	-1.82337E-005	-2.40040E-001	4.58119E-002	3.57730E+000	9	...........
	118	1.58667	4.15180E-002	-3.98236E-004	0.00000E+000	-1.65340E-005	-2.40040E-001	4.15268E-002	3.57730E+000	9	...........
	119	1.6	3.73983E-002	-3.97876E-004	0.00000E+000	-1.48799E-005	-2.40040E-001	3.74010E-002	3.57730E+000	9	...........
	120	1.61333	3.33056E-002	-3.99700E-004	0.00000E+000	-1.33123E-005	-2.40040E-001	3.33075E-002	3.57730E+000	9	...........
	121	1.62667	2.91464E-002	-3.98944E-004	0.00000E+000	-1.16278E-005	-2.40040E-001	2.91443E-002	3.57730E+000	9	...........
	122	1.64	2.49332E-002	-3.99706E-004	0.00000E+000	-9.96596E-006	-2.40040E-001	2.49304E-002	3.57730E+000	9	...........
	123	1.65333	2.08058E-002	-3.97533E-004	0.00000E+000	-8.27099E-006	-2.40040E-001	2.07981E-002	3.57730E+000	9	...........
	124	1.66667	1.67462E-002	-3.98031E-004	0.00000E+000	-6.66549E-006	-2.40040E-001	1.67388E-002	3.57730E+000	9	...........
	125	1.68	1.26791E-002	-3.98209E-004	0.00000E+000	-5.04893E-006	-2.40040E-001	1.26689E-002	3.57730E+000	9	...........
	126	1.69333	8.55349E-003	-3.98846E-004	0.00000E+000	-3.41152E-006	-2.40040E-001	8.53893E-003	3.57730E+000	9	...........
	127	1.70667	4.53189E-003	-3.98887E-004	0.00000E+000	-1.80771E-006	-2.40040E-001	4.51652E-003	3.57730E+000	9	...........
	128	1.71667	9.19896E-004	-3.97416E-004	0.00000E+000	-3.65581E-007	-2.40040E-001	9.04130E-004	3.57730E+000	9	...........
STARTTIMEOFFSET	QUANT	404.2666	Start Time Offset (s)
