EXPLAIN
TAG	PWR800_DISCHARGE
TITLE	LABEL	PWR Cyclic Charge Discharge (Cell) - Discharge Step	Test &Identifier
DATE	LABEL	12-7-2017	Date
TIME	LABEL	14:38:11	Time
NOTES	NOTES	3	&Notes...
	supercap test cell
	0.4mg
	6M KOH
PSTAT	PSTAT	IFC5000-01520	Potentiostat
CAPACITY	QUANT	1.00000E-003	Capacity (A-hr)
CELLTYPE	SELECTOR	1	&Cell Type
WORKINGCONNECTION	SELECTOR	0	&Working Lead
MAXDISCHARGETIME	VARIABLEANDUNITS	1.00000E+002	s	1.00000E+002	second(s)	Max &Discharge Time
DISCHARGEMODE	MULTIPARAM	0	4.00000E-004	&Discharge Mode	Constant Current	Amp(s)
SAMPLETIME	QUANT	1.00000E-002	Sa&mple Period (s)
DISCHARGESTOPAT1	MULTIPARAM	3	0.00000E+000	Discharge Stop At &1	Voltage < Limit	V
DISCHARGESTOPAT2	MULTIPARAM	0	0.00000E+000	Discharge Stop At &2	None	N/A
AESBHCSELECTOR	TOGGLE	F	Save Both Half Cells
IRCOMP	TOGGLE	F	IR &Measure
EOC	QUANT	0	Open Circuit (V)
SEQUENCER	TOGGLE	TRUE	Run as Sequence
PSTATMODEL	IQUANT	53	Pstat Model
PSTATSECTION	LABEL	IFC5000-01520	Pstat Section
PSTATSERIALNO	LABEL	01520	Pstat Serial Number
CTRLMODE	IQUANT	0	Control Mode
ELECTROMETER	IQUANT	1	RE=0 or CS=1
IESTAB	IQUANT	0	I/E Stability
CASPEED	IQUANT	4	Control Amp Speed
CONVENTION	IQUANT	1	Current Convention
ICHRANGE	IQUANT	2	Ich Range
ICHRANGEMODE	TOGGLE	T	Ich Auto Range
ICHOFFSETENABLE	TOGGLE	F	Ich Offset Enable
ICHOFFSET	QUANT	0	Ich Offset (V)
ICHFILTER	IQUANT	1	Ich Filter
VCHRANGE	IQUANT	2	Vch Range
VCHRANGEMODE	TOGGLE	T	Vch Auto Range
VCHOFFSETENABLE	TOGGLE	F	Vch Offset Enable
VCHOFFSET	QUANT	0	Vch Offset (V)
VCHFILTER	IQUANT	1	Vch Filter
IERANGELOWERLIMIT	IQUANT	9	I/E Range Lower Limit
IERANGEMODE	TOGGLE	F	I/E AutoRange
IERANGE	IQUANT	9	I/E Range
ACHSELECT	IQUANT	1	Ach Select
ACHRANGE	IQUANT	2	Ach Range
ACHOFFSETENABLE	TOGGLE	F	Ach Offset Enable
ACHOFFSET	QUANT	0	Ach Offset (V)
ACHFILTER	IQUANT	1	Ach Filter
CABLEID	IQUANT	14	Cable ID
DCCALDATE	LABEL	5-7-2017	DC Calibration Date
ACCALDATE	LABEL	12/3/2015	AC Calibration Date
FRAMEWORKVERSION	QUANT	7.01	Framework Version
INSTRUMENTVERSION	LABEL	4.00	Instrument Version
CURVE	TABLE	120
	Pt	T	Vf	Im	Vu	Pwr	Sig	Ach	Temp	IERange	Over
	#	s	V	A	V	W	V	V	deg C	#	bits
	0	0.013333	7.06776E-001	-3.97145E-004	0.00000E+000	-2.80693E-004	-2.40040E-001	7.06989E-001	3.57670E+000	9	...........
	1	0.026667	6.95025E-001	-3.98931E-004	0.00000E+000	-2.77267E-004	-2.40040E-001	6.95259E-001	3.57670E+000	9	...........
	2	0.04	6.84626E-001	-3.99419E-004	0.00000E+000	-2.73452E-004	-2.40040E-001	6.84854E-001	3.57670E+000	9	...........
	3	0.053333	6.75001E-001	-3.99001E-004	0.00000E+000	-2.69326E-004	-2.40040E-001	6.75250E-001	3.57670E+000	9	...........
	4	0.066667	6.65844E-001	-3.99204E-004	0.00000E+000	-2.65808E-004	-2.40040E-001	6.66087E-001	3.57670E+000	9	...........
	5	0.08	6.57109E-001	-3.97772E-004	0.00000E+000	-2.61379E-004	-2.40040E-001	6.57336E-001	3.57670E+000	9	...........
	6	0.093333	6.48684E-001	-3.97675E-004	0.00000E+000	-2.57965E-004	-2.40040E-001	6.48919E-001	3.57670E+000	9	...........
	7	0.106667	6.40473E-001	-3.99232E-004	0.00000E+000	-2.55698E-004	-2.40040E-001	6.40694E-001	3.57670E+000	9	...........
	8	0.12	6.32393E-001	-3.99768E-004	0.00000E+000	-2.52810E-004	-2.40040E-001	6.32619E-001	3.57670E+000	9	...........
	9	0.133333	6.24473E-001	-3.99157E-004	0.00000E+000	-2.49263E-004	-2.40040E-001	6.24681E-001	3.57670E+000	9	...........
	10	0.146667	6.16696E-001	-3.97886E-004	0.00000E+000	-2.45375E-004	-2.40040E-001	6.16910E-001	3.57670E+000	9	...........
	11	0.16	6.08946E-001	-3.99125E-004	0.00000E+000	-2.43046E-004	-2.40040E-001	6.09173E-001	3.57670E+000	9	...........
	12	0.173333	6.01316E-001	-3.99336E-004	0.00000E+000	-2.40127E-004	-2.40040E-001	6.01557E-001	3.57670E+000	9	...........
	13	0.186667	5.93818E-001	-3.98914E-004	0.00000E+000	-2.36882E-004	-2.40040E-001	5.94058E-001	3.57670E+000	9	...........
	14	0.2	5.86292E-001	-3.98275E-004	0.00000E+000	-2.33505E-004	-2.40040E-001	5.86531E-001	3.57670E+000	9	...........
	15	0.213333	5.78897E-001	-3.99157E-004	0.00000E+000	-2.31071E-004	-2.40040E-001	5.79145E-001	3.57670E+000	9	...........
	16	0.226667	5.71644E-001	-3.99239E-004	0.00000E+000	-2.28222E-004	-2.40040E-001	5.71845E-001	3.57670E+000	9	...........
	17	0.24	5.64359E-001	-3.98897E-004	0.00000E+000	-2.25121E-004	-2.40040E-001	5.64583E-001	3.57670E+000	9	...........
	18	0.253333	5.57146E-001	-4.00278E-004	0.00000E+000	-2.23014E-004	-2.40040E-001	5.57361E-001	3.57670E+000	9	...........
	19	0.266667	5.50080E-001	-3.99539E-004	0.00000E+000	-2.19778E-004	-2.40040E-001	5.50271E-001	3.57670E+000	9	...........
	20	0.28	5.42982E-001	-3.98748E-004	0.00000E+000	-2.16513E-004	-2.40040E-001	5.43184E-001	3.57670E+000	9	...........
	21	0.293333	5.35874E-001	-3.98698E-004	0.00000E+000	-2.13652E-004	-2.40040E-001	5.36059E-001	3.57670E+000	9	...........
	22	0.306667	5.28853E-001	-3.99934E-004	0.00000E+000	-2.11506E-004	-2.40040E-001	5.29039E-001	3.57670E+000	9	...........
	23	0.32	5.21837E-001	-3.98490E-004	0.00000E+000	-2.07946E-004	-2.40040E-001	5.22001E-001	3.57670E+000	9	...........
	24	0.333333	5.14878E-001	-3.99101E-004	0.00000E+000	-2.05488E-004	-2.40040E-001	5.15046E-001	3.57670E+000	9	...........
	25	0.346667	5.07940E-001	-3.98822E-004	0.00000E+000	-2.02578E-004	-2.40040E-001	5.08153E-001	3.57670E+000	9	...........
	26	0.36	5.01022E-001	-3.97748E-004	0.00000E+000	-1.99280E-004	-2.40040E-001	5.01239E-001	3.57670E+000	9	...........
	27	0.373333	4.94194E-001	-3.98609E-004	0.00000E+000	-1.96990E-004	-2.40040E-001	4.94384E-001	3.57670E+000	9	...........
	28	0.386667	4.87394E-001	-3.97541E-004	0.00000E+000	-1.93759E-004	-2.40040E-001	4.87564E-001	3.57670E+000	9	...........
	29	0.4	4.80894E-001	-3.99119E-004	0.00000E+000	-1.91934E-004	-2.40040E-001	4.80992E-001	3.57670E+000	9	...........
	30	0.413333	4.74142E-001	-3.99047E-004	0.00000E+000	-1.89205E-004	-2.40040E-001	4.74240E-001	3.57670E+000	9	...........
	31	0.426667	4.67375E-001	-3.97947E-004	0.00000E+000	-1.85990E-004	-2.40040E-001	4.67468E-001	3.57670E+000	9	...........
	32	0.44	4.60652E-001	-3.99902E-004	0.00000E+000	-1.84216E-004	-2.40040E-001	4.60746E-001	3.57670E+000	9	...........
	33	0.453333	4.53991E-001	-3.98176E-004	0.00000E+000	-1.80768E-004	-2.40040E-001	4.54082E-001	3.57670E+000	9	...........
	34	0.466667	4.47335E-001	-3.99225E-004	0.00000E+000	-1.78587E-004	-2.40040E-001	4.47427E-001	3.57670E+000	9	...........
	35	0.48	4.40785E-001	-3.98422E-004	0.00000E+000	-1.75619E-004	-2.40040E-001	4.40876E-001	3.57670E+000	9	...........
	36	0.493333	4.34339E-001	-3.98768E-004	0.00000E+000	-1.73201E-004	-2.40040E-001	4.34429E-001	3.57670E+000	9	...........
	37	0.506667	4.27858E-001	-3.98920E-004	0.00000E+000	-1.70681E-004	-2.40040E-001	4.27949E-001	3.57670E+000	9	...........
	38	0.52	4.21368E-001	-3.97871E-004	0.00000E+000	-1.67650E-004	-2.40040E-001	4.21459E-001	3.57670E+000	9	...........
	39	0.533333	4.15015E-001	-3.99494E-004	0.00000E+000	-1.65796E-004	-2.40040E-001	4.15107E-001	3.57670E+000	9	...........
	40	0.546667	4.08628E-001	-3.99166E-004	0.00000E+000	-1.63110E-004	-2.40040E-001	4.08715E-001	3.57670E+000	9	...........
	41	0.56	4.02285E-001	-3.98441E-004	0.00000E+000	-1.60287E-004	-2.40040E-001	4.02367E-001	3.57670E+000	9	...........
	42	0.573333	3.96031E-001	-3.98030E-004	0.00000E+000	-1.57632E-004	-2.40040E-001	3.96115E-001	3.57670E+000	9	...........
	43	0.586667	3.89715E-001	-3.98759E-004	0.00000E+000	-1.55403E-004	-2.40040E-001	3.89797E-001	3.57670E+000	9	...........
	44	0.6	3.83493E-001	-3.99164E-004	0.00000E+000	-1.53076E-004	-2.40040E-001	3.83571E-001	3.57722E+000	9	...........
	45	0.613333	3.77209E-001	-3.99738E-004	0.00000E+000	-1.50785E-004	-2.40040E-001	3.77286E-001	3.57740E+000	9	...........
	46	0.626667	3.70954E-001	-3.98642E-004	0.00000E+000	-1.47878E-004	-2.40040E-001	3.71027E-001	3.57740E+000	9	...........
	47	0.64	3.64804E-001	-3.99038E-004	0.00000E+000	-1.45570E-004	-2.40040E-001	3.64878E-001	3.57740E+000	9	...........
	48	0.653333	3.58759E-001	-3.98163E-004	0.00000E+000	-1.42845E-004	-2.40040E-001	3.58834E-001	3.57740E+000	9	...........
	49	0.666667	3.52749E-001	-3.97702E-004	0.00000E+000	-1.40289E-004	-2.40040E-001	3.52816E-001	3.57740E+000	9	...........
	50	0.68	3.46689E-001	-3.99707E-004	0.00000E+000	-1.38574E-004	-2.40040E-001	3.46762E-001	3.57740E+000	9	...........
	51	0.693333	3.40638E-001	-3.98522E-004	0.00000E+000	-1.35752E-004	-2.40040E-001	3.40710E-001	3.57740E+000	9	...........
	52	0.706667	3.34614E-001	-3.98667E-004	0.00000E+000	-1.33399E-004	-2.40040E-001	3.34682E-001	3.57740E+000	9	...........
	53	0.72	3.28730E-001	-3.99156E-004	0.00000E+000	-1.31215E-004	-2.40040E-001	3.28800E-001	3.57740E+000	9	...........
	54	0.733333	3.22779E-001	-3.98915E-004	0.00000E+000	-1.28761E-004	-2.40040E-001	3.22851E-001	3.57740E+000	9	...........
	55	0.746667	3.16885E-001	-3.97928E-004	0.00000E+000	-1.26097E-004	-2.40040E-001	3.16952E-001	3.57740E+000	9	...........
	56	0.76	3.11084E-001	-3.98271E-004	0.00000E+000	-1.23896E-004	-2.40040E-001	3.11147E-001	3.57740E+000	9	...........
	57	0.773333	3.05286E-001	-3.97955E-004	0.00000E+000	-1.21490E-004	-2.40040E-001	3.05350E-001	3.57740E+000	9	...........
	58	0.786667	2.99599E-001	-3.97802E-004	0.00000E+000	-1.19181E-004	-2.40040E-001	2.99659E-001	3.57740E+000	9	...........
	59	0.8	2.93892E-001	-3.98532E-004	0.00000E+000	-1.17125E-004	-2.40040E-001	2.93953E-001	3.57740E+000	9	...........
	60	0.813333	2.88136E-001	-3.98666E-004	0.00000E+000	-1.14870E-004	-2.40040E-001	2.88198E-001	3.57740E+000	9	...........
	61	0.826667	2.82467E-001	-3.98325E-004	0.00000E+000	-1.12514E-004	-2.40040E-001	2.82526E-001	3.57740E+000	9	...........
	62	0.84	2.76845E-001	-3.99380E-004	0.00000E+000	-1.10566E-004	-2.40040E-001	2.76900E-001	3.57740E+000	9	...........
	63	0.853333	2.71221E-001	-3.98815E-004	0.00000E+000	-1.08167E-004	-2.40040E-001	2.71282E-001	3.57740E+000	9	...........
	64	0.866667	2.65668E-001	-3.98534E-004	0.00000E+000	-1.05878E-004	-2.40040E-001	2.65729E-001	3.57740E+000	9	...........
	65	0.88	2.60157E-001	-3.98668E-004	0.00000E+000	-1.03716E-004	-2.40040E-001	2.60212E-001	3.57740E+000	9	...........
	66	0.893333	2.54601E-001	-3.98445E-004	0.00000E+000	-1.01445E-004	-2.40040E-001	2.54655E-001	3.57740E+000	9	...........
	67	0.906667	2.49097E-001	-3.98651E-004	0.00000E+000	-9.93026E-005	-2.40040E-001	2.49149E-001	3.57740E+000	9	...........
	68	0.92	2.43734E-001	-3.99093E-004	0.00000E+000	-9.72724E-005	-2.40040E-001	2.43781E-001	3.57740E+000	9	...........
	69	0.933333	2.38260E-001	-3.99141E-004	0.00000E+000	-9.50994E-005	-2.40040E-001	2.38307E-001	3.57740E+000	9	...........
	70	0.946667	2.32789E-001	-3.98432E-004	0.00000E+000	-9.27507E-005	-2.40040E-001	2.32829E-001	3.57740E+000	9	...........
	71	0.96	2.27469E-001	-3.97039E-004	0.00000E+000	-9.03141E-005	-2.40040E-001	2.27511E-001	3.57740E+000	9	...........
	72	0.97333	2.22131E-001	-3.99134E-004	0.00000E+000	-8.86600E-005	-2.40040E-001	2.22170E-001	3.57740E+000	9	...........
	73	0.98667	2.16840E-001	-3.99207E-004	0.00000E+000	-8.65641E-005	-2.40040E-001	2.16881E-001	3.57740E+000	9	...........
	74	1	2.11473E-001	-3.98136E-004	0.00000E+000	-8.41950E-005	-2.40040E-001	2.11516E-001	3.57740E+000	9	...........
	75	1.01333	2.06224E-001	-3.99256E-004	0.00000E+000	-8.23363E-005	-2.40040E-001	2.06264E-001	3.57740E+000	9	...........
	76	1.02667	2.01067E-001	-3.99821E-004	0.00000E+000	-8.03908E-005	-2.40040E-001	2.01104E-001	3.57740E+000	9	...........
	77	1.04	1.95862E-001	-3.98112E-004	0.00000E+000	-7.79750E-005	-2.40040E-001	1.95896E-001	3.57740E+000	9	...........
	78	1.05333	1.90683E-001	-3.97916E-004	0.00000E+000	-7.58760E-005	-2.40040E-001	1.90720E-001	3.57740E+000	9	...........
	79	1.06667	1.85591E-001	-3.99324E-004	0.00000E+000	-7.41109E-005	-2.40040E-001	1.85625E-001	3.57740E+000	9	...........
	80	1.08	1.80521E-001	-3.97905E-004	0.00000E+000	-7.18303E-005	-2.40040E-001	1.80559E-001	3.57740E+000	9	...........
	81	1.09333	1.75387E-001	-3.98431E-004	0.00000E+000	-6.98795E-005	-2.40040E-001	1.75417E-001	3.57740E+000	9	...........
	82	1.10667	1.70357E-001	-3.98889E-004	0.00000E+000	-6.79535E-005	-2.40040E-001	1.70392E-001	3.57740E+000	9	...........
	83	1.12	1.65344E-001	-3.99017E-004	0.00000E+000	-6.59748E-005	-2.40040E-001	1.65374E-001	3.57740E+000	9	...........
	84	1.13333	1.60384E-001	-3.98895E-004	0.00000E+000	-6.39765E-005	-2.40040E-001	1.60411E-001	3.57740E+000	9	...........
	85	1.14667	1.55333E-001	-3.98641E-004	0.00000E+000	-6.19221E-005	-2.40040E-001	1.55365E-001	3.57740E+000	9	...........
	86	1.16	1.50381E-001	-3.99235E-004	0.00000E+000	-6.00373E-005	-2.40040E-001	1.50407E-001	3.57740E+000	9	...........
	87	1.17333	1.45475E-001	-3.97497E-004	0.00000E+000	-5.78259E-005	-2.40040E-001	1.45504E-001	3.57740E+000	9	...........
	88	1.18667	1.40511E-001	-3.97148E-004	0.00000E+000	-5.58036E-005	-2.40040E-001	1.40544E-001	3.57740E+000	9	...........
	89	1.2	1.35700E-001	-3.98550E-004	0.00000E+000	-5.40832E-005	-2.40040E-001	1.35725E-001	3.57740E+000	9	...........
	90	1.21333	1.30804E-001	-4.00400E-004	0.00000E+000	-5.23739E-005	-2.40040E-001	1.30827E-001	3.57740E+000	9	...........
	91	1.22667	1.25875E-001	-3.99054E-004	0.00000E+000	-5.02309E-005	-2.40040E-001	1.25897E-001	3.57740E+000	9	...........
	92	1.24	1.21111E-001	-3.99437E-004	0.00000E+000	-4.83762E-005	-2.40040E-001	1.21136E-001	3.57740E+000	9	...........
	93	1.25333	1.16349E-001	-3.97278E-004	0.00000E+000	-4.62230E-005	-2.40040E-001	1.16371E-001	3.57740E+000	9	...........
	94	1.26667	1.11594E-001	-3.99220E-004	0.00000E+000	-4.45504E-005	-2.40040E-001	1.11619E-001	3.57740E+000	9	...........
	95	1.28	1.06845E-001	-3.98826E-004	0.00000E+000	-4.26124E-005	-2.40040E-001	1.06865E-001	3.57740E+000	9	...........
	96	1.29333	1.02117E-001	-3.97759E-004	0.00000E+000	-4.06179E-005	-2.40040E-001	1.02137E-001	3.57740E+000	9	...........
	97	1.30667	9.73773E-002	-3.99115E-004	0.00000E+000	-3.88647E-005	-2.40040E-001	9.73977E-002	3.57740E+000	9	...........
	98	1.32	9.27420E-002	-3.98534E-004	0.00000E+000	-3.69608E-005	-2.40040E-001	9.27603E-002	3.57740E+000	9	...........
	99	1.33333	8.81230E-002	-3.98095E-004	0.00000E+000	-3.50813E-005	-2.40040E-001	8.81424E-002	3.57740E+000	9	...........
	100	1.34667	8.34865E-002	-3.97646E-004	0.00000E+000	-3.31980E-005	-2.40040E-001	8.35005E-002	3.57740E+000	9	...........
	101	1.36	7.88597E-002	-3.99676E-004	0.00000E+000	-3.15184E-005	-2.40040E-001	7.88742E-002	3.57740E+000	9	...........
	102	1.37333	7.42121E-002	-3.99043E-004	0.00000E+000	-2.96138E-005	-2.40040E-001	7.42182E-002	3.57740E+000	9	...........
	103	1.38667	6.97071E-002	-3.99238E-004	0.00000E+000	-2.78297E-005	-2.40040E-001	6.97177E-002	3.57740E+000	9	...........
	104	1.4	6.52016E-002	-3.98914E-004	0.00000E+000	-2.60098E-005	-2.40040E-001	6.52036E-002	3.57740E+000	9	...........
	105	1.41333	6.07050E-002	-3.97302E-004	0.00000E+000	-2.41182E-005	-2.40040E-001	6.07144E-002	3.57740E+000	9	...........
	106	1.42667	5.62245E-002	-3.98047E-004	0.00000E+000	-2.23800E-005	-2.40040E-001	5.62332E-002	3.57740E+000	9	...........
	107	1.44	5.17023E-002	-3.99197E-004	0.00000E+000	-2.06394E-005	-2.40040E-001	5.17039E-002	3.57740E+000	9	...........
	108	1.45333	4.73256E-002	-3.98802E-004	0.00000E+000	-1.88735E-005	-2.40040E-001	4.73326E-002	3.57740E+000	9	...........
	109	1.46667	4.28606E-002	-3.98167E-004	0.00000E+000	-1.70657E-005	-2.40040E-001	4.28691E-002	3.57740E+000	9	...........
	110	1.48	3.84279E-002	-3.98968E-004	0.00000E+000	-1.53315E-005	-2.40040E-001	3.84305E-002	3.57740E+000	9	...........
	111	1.49333	3.41332E-002	-3.97926E-004	0.00000E+000	-1.35825E-005	-2.40040E-001	3.41327E-002	3.57740E+000	9	...........
	112	1.50667	2.97736E-002	-3.97889E-004	0.00000E+000	-1.18466E-005	-2.40040E-001	2.97726E-002	3.57740E+000	9	...........
	113	1.52	2.53787E-002	-3.98483E-004	0.00000E+000	-1.01130E-005	-2.40040E-001	2.53762E-002	3.57740E+000	9	...........
	114	1.53333	2.10917E-002	-3.98521E-004	0.00000E+000	-8.40547E-006	-2.40040E-001	2.10877E-002	3.57740E+000	9	...........
	115	1.54667	1.68651E-002	-4.00490E-004	0.00000E+000	-6.75428E-006	-2.40040E-001	1.68586E-002	3.57740E+000	9	...........
	116	1.56	1.26496E-002	-4.00098E-004	0.00000E+000	-5.06107E-006	-2.40040E-001	1.26368E-002	3.57740E+000	9	...........
	117	1.57333	8.45463E-003	-3.97676E-004	0.00000E+000	-3.36220E-006	-2.40040E-001	8.44486E-003	3.57740E+000	9	...........
	118	1.58667	4.20805E-003	-3.98540E-004	0.00000E+000	-1.67708E-006	-2.40040E-001	4.18991E-003	3.57740E+000	9	...........
	119	1.595	7.89175E-004	-3.98656E-004	0.00000E+000	-3.14610E-007	-2.40040E-001	7.67868E-004	3.57686E+000	9	...........
STARTTIMEOFFSET	QUANT	940.9901	Start Time Offset (s)
