EXPLAIN
TAG	PWR800_DISCHARGE
TITLE	LABEL	PWR Cyclic Charge Discharge (Cell) - Discharge Step	Test &Identifier
DATE	LABEL	12-7-2017	Date
TIME	LABEL	14:55:00	Time
NOTES	NOTES	3	&Notes...
	supercap test cell
	0.4mg
	6M KOH
PSTAT	PSTAT	IFC5000-01520	Potentiostat
CAPACITY	QUANT	1.00000E-003	Capacity (A-hr)
CELLTYPE	SELECTOR	1	&Cell Type
WORKINGCONNECTION	SELECTOR	0	&Working Lead
MAXDISCHARGETIME	VARIABLEANDUNITS	1.00000E+002	s	1.00000E+002	second(s)	Max &Discharge Time
DISCHARGEMODE	MULTIPARAM	0	4.00000E-004	&Discharge Mode	Constant Current	Amp(s)
SAMPLETIME	QUANT	1.00000E-002	Sa&mple Period (s)
DISCHARGESTOPAT1	MULTIPARAM	3	0.00000E+000	Discharge Stop At &1	Voltage < Limit	V
DISCHARGESTOPAT2	MULTIPARAM	0	0.00000E+000	Discharge Stop At &2	None	N/A
AESBHCSELECTOR	TOGGLE	F	Save Both Half Cells
IRCOMP	TOGGLE	F	IR &Measure
EOC	QUANT	0	Open Circuit (V)
SEQUENCER	TOGGLE	TRUE	Run as Sequence
PSTATMODEL	IQUANT	53	Pstat Model
PSTATSECTION	LABEL	IFC5000-01520	Pstat Section
PSTATSERIALNO	LABEL	01520	Pstat Serial Number
CTRLMODE	IQUANT	0	Control Mode
ELECTROMETER	IQUANT	1	RE=0 or CS=1
IESTAB	IQUANT	0	I/E Stability
CASPEED	IQUANT	4	Control Amp Speed
CONVENTION	IQUANT	1	Current Convention
ICHRANGE	IQUANT	2	Ich Range
ICHRANGEMODE	TOGGLE	T	Ich Auto Range
ICHOFFSETENABLE	TOGGLE	F	Ich Offset Enable
ICHOFFSET	QUANT	0	Ich Offset (V)
ICHFILTER	IQUANT	1	Ich Filter
VCHRANGE	IQUANT	2	Vch Range
VCHRANGEMODE	TOGGLE	T	Vch Auto Range
VCHOFFSETENABLE	TOGGLE	F	Vch Offset Enable
VCHOFFSET	QUANT	0	Vch Offset (V)
VCHFILTER	IQUANT	1	Vch Filter
IERANGELOWERLIMIT	IQUANT	9	I/E Range Lower Limit
IERANGEMODE	TOGGLE	F	I/E AutoRange
IERANGE	IQUANT	9	I/E Range
ACHSELECT	IQUANT	1	Ach Select
ACHRANGE	IQUANT	2	Ach Range
ACHOFFSETENABLE	TOGGLE	F	Ach Offset Enable
ACHOFFSET	QUANT	0	Ach Offset (V)
ACHFILTER	IQUANT	1	Ach Filter
CABLEID	IQUANT	14	Cable ID
DCCALDATE	LABEL	5-7-2017	DC Calibration Date
ACCALDATE	LABEL	12/3/2015	AC Calibration Date
FRAMEWORKVERSION	QUANT	7.01	Framework Version
INSTRUMENTVERSION	LABEL	4.00	Instrument Version
CURVE	TABLE	111
	Pt	T	Vf	Im	Vu	Pwr	Sig	Ach	Temp	IERange	Over
	#	s	V	A	V	W	V	V	deg C	#	bits
	0	0.013333	6.97908E-001	-3.99266E-004	0.00000E+000	-2.78651E-004	-2.40040E-001	6.98133E-001	3.57650E+000	9	...........
	1	0.026667	6.85215E-001	-3.99551E-004	0.00000E+000	-2.73778E-004	-2.40040E-001	6.85459E-001	3.57650E+000	9	...........
	2	0.04	6.74067E-001	-3.99750E-004	0.00000E+000	-2.69458E-004	-2.40040E-001	6.74318E-001	3.57650E+000	9	...........
	3	0.053333	6.63859E-001	-3.98394E-004	0.00000E+000	-2.64477E-004	-2.40040E-001	6.64055E-001	3.57650E+000	9	...........
	4	0.066667	6.54204E-001	-3.98172E-004	0.00000E+000	-2.60486E-004	-2.40040E-001	6.54444E-001	3.57650E+000	9	...........
	5	0.08	6.45035E-001	-3.98433E-004	0.00000E+000	-2.57003E-004	-2.40040E-001	6.45246E-001	3.57650E+000	9	...........
	6	0.093333	6.36122E-001	-3.98531E-004	0.00000E+000	-2.53514E-004	-2.40040E-001	6.36344E-001	3.57650E+000	9	...........
	7	0.106667	6.27438E-001	-3.99201E-004	0.00000E+000	-2.50474E-004	-2.40040E-001	6.27662E-001	3.57650E+000	9	...........
	8	0.12	6.18931E-001	-3.97367E-004	0.00000E+000	-2.45943E-004	-2.40040E-001	6.19142E-001	3.57650E+000	9	...........
	9	0.133333	6.10535E-001	-3.99854E-004	0.00000E+000	-2.44125E-004	-2.40040E-001	6.10816E-001	3.57650E+000	9	...........
	10	0.146667	6.02310E-001	-3.97534E-004	0.00000E+000	-2.39439E-004	-2.40040E-001	6.02592E-001	3.57650E+000	9	...........
	11	0.16	5.94211E-001	-3.99228E-004	0.00000E+000	-2.37226E-004	-2.40040E-001	5.94431E-001	3.57650E+000	9	...........
	12	0.173333	5.86142E-001	-3.98760E-004	0.00000E+000	-2.33730E-004	-2.40040E-001	5.86373E-001	3.57650E+000	9	...........
	13	0.186667	5.78234E-001	-3.98297E-004	0.00000E+000	-2.30309E-004	-2.40040E-001	5.78470E-001	3.57650E+000	9	...........
	14	0.2	5.70409E-001	-3.99443E-004	0.00000E+000	-2.27846E-004	-2.40040E-001	5.70612E-001	3.57650E+000	9	...........
	15	0.213333	5.62564E-001	-3.98238E-004	0.00000E+000	-2.24035E-004	-2.40040E-001	5.62785E-001	3.57650E+000	9	...........
	16	0.226667	5.54771E-001	-3.98584E-004	0.00000E+000	-2.21123E-004	-2.40040E-001	5.54989E-001	3.57650E+000	9	...........
	17	0.24	5.47059E-001	-3.99632E-004	0.00000E+000	-2.18622E-004	-2.40040E-001	5.47271E-001	3.57650E+000	9	...........
	18	0.253333	5.39460E-001	-3.99612E-004	0.00000E+000	-2.15574E-004	-2.40040E-001	5.39676E-001	3.57650E+000	9	...........
	19	0.266667	5.31872E-001	-3.99343E-004	0.00000E+000	-2.12399E-004	-2.40040E-001	5.32077E-001	3.57650E+000	9	...........
	20	0.28	5.24314E-001	-3.97114E-004	0.00000E+000	-2.08212E-004	-2.40040E-001	5.24510E-001	3.57650E+000	9	...........
	21	0.293333	5.16881E-001	-3.98836E-004	0.00000E+000	-2.06151E-004	-2.40040E-001	5.17092E-001	3.57650E+000	9	...........
	22	0.306667	5.09437E-001	-3.98872E-004	0.00000E+000	-2.03200E-004	-2.40040E-001	5.09648E-001	3.57650E+000	9	...........
	23	0.32	5.01987E-001	-3.99725E-004	0.00000E+000	-2.00657E-004	-2.40040E-001	5.02208E-001	3.57650E+000	9	...........
	24	0.333333	4.94617E-001	-3.98567E-004	0.00000E+000	-1.97138E-004	-2.40040E-001	4.94859E-001	3.57650E+000	9	...........
	25	0.346667	4.87241E-001	-3.99488E-004	0.00000E+000	-1.94647E-004	-2.40040E-001	4.87458E-001	3.57650E+000	9	...........
	26	0.36	4.80210E-001	-3.98793E-004	0.00000E+000	-1.91504E-004	-2.40040E-001	4.80309E-001	3.57650E+000	9	...........
	27	0.373333	4.73057E-001	-3.98588E-004	0.00000E+000	-1.88555E-004	-2.40040E-001	4.73150E-001	3.57650E+000	9	...........
	28	0.386667	4.65828E-001	-4.00096E-004	0.00000E+000	-1.86376E-004	-2.40040E-001	4.65925E-001	3.57650E+000	9	...........
	29	0.4	4.58658E-001	-3.99255E-004	0.00000E+000	-1.83122E-004	-2.40040E-001	4.58755E-001	3.57650E+000	9	...........
	30	0.413333	4.51676E-001	-3.97717E-004	0.00000E+000	-1.79639E-004	-2.40040E-001	4.51769E-001	3.57650E+000	9	...........
	31	0.426667	4.44614E-001	-3.98881E-004	0.00000E+000	-1.77348E-004	-2.40040E-001	4.44702E-001	3.57650E+000	9	...........
	32	0.44	4.37569E-001	-3.99556E-004	0.00000E+000	-1.74833E-004	-2.40040E-001	4.37658E-001	3.57639E+000	9	...........
	33	0.453333	4.30615E-001	-3.99641E-004	0.00000E+000	-1.72091E-004	-2.40040E-001	4.30704E-001	3.57620E+000	9	...........
	34	0.466667	4.23681E-001	-3.97789E-004	0.00000E+000	-1.68536E-004	-2.40040E-001	4.23767E-001	3.57620E+000	9	...........
	35	0.48	4.16723E-001	-3.98033E-004	0.00000E+000	-1.65869E-004	-2.40040E-001	4.16813E-001	3.57620E+000	9	...........
	36	0.493333	4.09895E-001	-3.99242E-004	0.00000E+000	-1.63647E-004	-2.40040E-001	4.09977E-001	3.57620E+000	9	...........
	37	0.506667	4.03049E-001	-4.00410E-004	0.00000E+000	-1.61385E-004	-2.40040E-001	4.03126E-001	3.57620E+000	9	...........
	38	0.52	3.96268E-001	-3.98931E-004	0.00000E+000	-1.58084E-004	-2.40040E-001	3.96347E-001	3.57620E+000	9	...........
	39	0.533333	3.89542E-001	-3.98972E-004	0.00000E+000	-1.55416E-004	-2.40040E-001	3.89619E-001	3.57620E+000	9	...........
	40	0.546667	3.82893E-001	-3.98890E-004	0.00000E+000	-1.52732E-004	-2.40040E-001	3.82965E-001	3.57620E+000	9	...........
	41	0.56	3.76293E-001	-3.98001E-004	0.00000E+000	-1.49765E-004	-2.40040E-001	3.76362E-001	3.57620E+000	9	...........
	42	0.573333	3.69646E-001	-3.97957E-004	0.00000E+000	-1.47103E-004	-2.40040E-001	3.69718E-001	3.57620E+000	9	...........
	43	0.586667	3.63035E-001	-3.98549E-004	0.00000E+000	-1.44687E-004	-2.40040E-001	3.63105E-001	3.57620E+000	9	...........
	44	0.6	3.56446E-001	-3.98490E-004	0.00000E+000	-1.42040E-004	-2.40040E-001	3.56517E-001	3.57620E+000	9	...........
	45	0.613333	3.49916E-001	-3.98805E-004	0.00000E+000	-1.39548E-004	-2.40040E-001	3.49986E-001	3.57620E+000	9	...........
	46	0.626667	3.43427E-001	-3.99572E-004	0.00000E+000	-1.37224E-004	-2.40040E-001	3.43491E-001	3.57620E+000	9	...........
	47	0.64	3.36958E-001	-4.00152E-004	0.00000E+000	-1.34835E-004	-2.40040E-001	3.37025E-001	3.57620E+000	9	...........
	48	0.653333	3.30646E-001	-3.99400E-004	0.00000E+000	-1.32060E-004	-2.40040E-001	3.30710E-001	3.57620E+000	9	...........
	49	0.666667	3.24350E-001	-3.99338E-004	0.00000E+000	-1.29525E-004	-2.40040E-001	3.24419E-001	3.57620E+000	9	...........
	50	0.68	3.17945E-001	-3.99648E-004	0.00000E+000	-1.27066E-004	-2.40040E-001	3.18007E-001	3.57620E+000	9	...........
	51	0.693333	3.11707E-001	-3.99814E-004	0.00000E+000	-1.24625E-004	-2.40040E-001	3.11769E-001	3.57620E+000	9	...........
	52	0.706667	3.05443E-001	-3.98679E-004	0.00000E+000	-1.21774E-004	-2.40040E-001	3.05503E-001	3.57620E+000	9	...........
	53	0.72	2.99212E-001	-3.98889E-004	0.00000E+000	-1.19352E-004	-2.40040E-001	2.99267E-001	3.57620E+000	9	...........
	54	0.733333	2.92992E-001	-4.00135E-004	0.00000E+000	-1.17236E-004	-2.40040E-001	2.93044E-001	3.57620E+000	9	...........
	55	0.746667	2.86766E-001	-3.99075E-004	0.00000E+000	-1.14441E-004	-2.40040E-001	2.86822E-001	3.57620E+000	9	...........
	56	0.76	2.80695E-001	-3.98907E-004	0.00000E+000	-1.11971E-004	-2.40040E-001	2.80753E-001	3.57620E+000	9	...........
	57	0.773333	2.74668E-001	-3.99468E-004	0.00000E+000	-1.09721E-004	-2.40040E-001	2.74722E-001	3.57620E+000	9	...........
	58	0.786667	2.68735E-001	-3.98319E-004	0.00000E+000	-1.07042E-004	-2.40040E-001	2.68789E-001	3.57620E+000	9	...........
	59	0.8	2.62792E-001	-3.99958E-004	0.00000E+000	-1.05106E-004	-2.40040E-001	2.62850E-001	3.57620E+000	9	...........
	60	0.813333	2.56892E-001	-3.99213E-004	0.00000E+000	-1.02554E-004	-2.40040E-001	2.56953E-001	3.57620E+000	9	...........
	61	0.826667	2.50995E-001	-3.99502E-004	0.00000E+000	-1.00273E-004	-2.40040E-001	2.51052E-001	3.57620E+000	9	...........
	62	0.84	2.45061E-001	-3.99054E-004	0.00000E+000	-9.77927E-005	-2.40040E-001	2.45112E-001	3.57620E+000	9	...........
	63	0.853333	2.39147E-001	-3.98322E-004	0.00000E+000	-9.52573E-005	-2.40040E-001	2.39191E-001	3.57620E+000	9	...........
	64	0.866667	2.33348E-001	-3.98633E-004	0.00000E+000	-9.30201E-005	-2.40040E-001	2.33397E-001	3.57620E+000	9	...........
	65	0.88	2.27608E-001	-3.99277E-004	0.00000E+000	-9.08788E-005	-2.40040E-001	2.27654E-001	3.57620E+000	9	...........
	66	0.893333	2.21907E-001	-3.98493E-004	0.00000E+000	-8.84282E-005	-2.40040E-001	2.21947E-001	3.57620E+000	9	...........
	67	0.906667	2.16297E-001	-3.99113E-004	0.00000E+000	-8.63270E-005	-2.40040E-001	2.16341E-001	3.57620E+000	9	...........
	68	0.92	2.10714E-001	-3.98099E-004	0.00000E+000	-8.38849E-005	-2.40040E-001	2.10752E-001	3.57620E+000	9	...........
	69	0.933333	2.05064E-001	-3.98298E-004	0.00000E+000	-8.16765E-005	-2.40040E-001	2.05102E-001	3.57620E+000	9	...........
	70	0.946667	1.99464E-001	-3.99473E-004	0.00000E+000	-7.96805E-005	-2.40040E-001	1.99501E-001	3.57620E+000	9	...........
	71	0.96	1.93853E-001	-3.97884E-004	0.00000E+000	-7.71310E-005	-2.40040E-001	1.93887E-001	3.57620E+000	9	...........
	72	0.97333	1.88368E-001	-3.98835E-004	0.00000E+000	-7.51276E-005	-2.40040E-001	1.88403E-001	3.57620E+000	9	...........
	73	0.98667	1.82822E-001	-3.98901E-004	0.00000E+000	-7.29279E-005	-2.40040E-001	1.82861E-001	3.57620E+000	9	...........
	74	1	1.77352E-001	-3.99234E-004	0.00000E+000	-7.08049E-005	-2.40040E-001	1.77385E-001	3.57620E+000	9	...........
	75	1.01333	1.71923E-001	-3.98647E-004	0.00000E+000	-6.85364E-005	-2.40040E-001	1.71956E-001	3.57620E+000	9	...........
	76	1.02667	1.66580E-001	-3.98270E-004	0.00000E+000	-6.63437E-005	-2.40040E-001	1.66612E-001	3.57620E+000	9	...........
	77	1.04	1.61204E-001	-3.99394E-004	0.00000E+000	-6.43840E-005	-2.40040E-001	1.61232E-001	3.57620E+000	9	...........
	78	1.05333	1.55869E-001	-3.97727E-004	0.00000E+000	-6.19933E-005	-2.40040E-001	1.55896E-001	3.57620E+000	9	...........
	79	1.06667	1.50539E-001	-3.98790E-004	0.00000E+000	-6.00332E-005	-2.40040E-001	1.50565E-001	3.57620E+000	9	...........
	80	1.08	1.45337E-001	-3.99505E-004	0.00000E+000	-5.80628E-005	-2.40040E-001	1.45361E-001	3.57620E+000	9	...........
	81	1.09333	1.40114E-001	-3.98487E-004	0.00000E+000	-5.58336E-005	-2.40040E-001	1.40143E-001	3.57620E+000	9	...........
	82	1.10667	1.34944E-001	-3.98349E-004	0.00000E+000	-5.37548E-005	-2.40040E-001	1.34965E-001	3.57620E+000	9	...........
	83	1.12	1.29834E-001	-3.99097E-004	0.00000E+000	-5.18164E-005	-2.40040E-001	1.29863E-001	3.57620E+000	9	...........
	84	1.13333	1.24696E-001	-3.98387E-004	0.00000E+000	-4.96774E-005	-2.40040E-001	1.24719E-001	3.57620E+000	9	...........
	85	1.14667	1.19567E-001	-3.98856E-004	0.00000E+000	-4.76901E-005	-2.40040E-001	1.19590E-001	3.57620E+000	9	...........
	86	1.16	1.14429E-001	-4.00294E-004	0.00000E+000	-4.58051E-005	-2.40040E-001	1.14447E-001	3.57620E+000	9	...........
	87	1.17333	1.09354E-001	-3.98889E-004	0.00000E+000	-4.36199E-005	-2.40040E-001	1.09373E-001	3.57620E+000	9	...........
	88	1.18667	1.04364E-001	-3.98433E-004	0.00000E+000	-4.15823E-005	-2.40040E-001	1.04384E-001	3.57620E+000	9	...........
	89	1.2	9.93851E-002	-3.99636E-004	0.00000E+000	-3.97178E-005	-2.40040E-001	9.94061E-002	3.57620E+000	9	...........
	90	1.21333	9.44601E-002	-3.98966E-004	0.00000E+000	-3.76863E-005	-2.40040E-001	9.44779E-002	3.57620E+000	9	...........
	91	1.22667	8.94606E-002	-3.98594E-004	0.00000E+000	-3.56584E-005	-2.40040E-001	8.94830E-002	3.57620E+000	9	...........
	92	1.24	8.46163E-002	-3.98928E-004	0.00000E+000	-3.37558E-005	-2.40040E-001	8.46305E-002	3.57620E+000	9	...........
	93	1.25333	7.97268E-002	-3.98226E-004	0.00000E+000	-3.17493E-005	-2.40040E-001	7.97402E-002	3.57620E+000	9	...........
	94	1.26667	7.48944E-002	-3.97754E-004	0.00000E+000	-2.97895E-005	-2.40040E-001	7.49067E-002	3.57620E+000	9	...........
	95	1.28	7.01635E-002	-3.98161E-004	0.00000E+000	-2.79364E-005	-2.40040E-001	7.01732E-002	3.57620E+000	9	...........
	96	1.29333	6.53237E-002	-3.99791E-004	0.00000E+000	-2.61158E-005	-2.40040E-001	6.53340E-002	3.57620E+000	9	...........
	97	1.30667	6.04558E-002	-3.98373E-004	0.00000E+000	-2.40840E-005	-2.40040E-001	6.04642E-002	3.57620E+000	9	...........
	98	1.32	5.57480E-002	-3.98801E-004	0.00000E+000	-2.22324E-005	-2.40040E-001	5.57523E-002	3.57620E+000	9	...........
	99	1.33333	5.10929E-002	-3.99389E-004	0.00000E+000	-2.04059E-005	-2.40040E-001	5.10967E-002	3.57620E+000	9	...........
	100	1.34667	4.64857E-002	-3.98634E-004	0.00000E+000	-1.85308E-005	-2.40040E-001	4.64946E-002	3.57620E+000	9	...........
	101	1.36	4.18887E-002	-3.98034E-004	0.00000E+000	-1.66731E-005	-2.40040E-001	4.18961E-002	3.57620E+000	9	...........
	102	1.37333	3.72101E-002	-3.98571E-004	0.00000E+000	-1.48309E-005	-2.40040E-001	3.72112E-002	3.57620E+000	9	...........
	103	1.38667	3.26127E-002	-3.97896E-004	0.00000E+000	-1.29764E-005	-2.40040E-001	3.26148E-002	3.57620E+000	9	...........
	104	1.4	2.79670E-002	-3.97981E-004	0.00000E+000	-1.11303E-005	-2.40040E-001	2.79627E-002	3.57620E+000	9	...........
	105	1.41333	2.35041E-002	-4.00485E-004	0.00000E+000	-9.41304E-006	-2.40040E-001	2.34977E-002	3.57620E+000	9	...........
	106	1.42667	1.89443E-002	-3.98700E-004	0.00000E+000	-7.55308E-006	-2.40040E-001	1.89310E-002	3.57620E+000	9	...........
	107	1.44	1.44139E-002	-3.98920E-004	0.00000E+000	-5.74998E-006	-2.40040E-001	1.44070E-002	3.57639E+000	9	...........
	108	1.45333	9.90242E-003	-3.99897E-004	0.00000E+000	-3.95995E-006	-2.40040E-001	9.89057E-003	3.57670E+000	9	...........
	109	1.46667	5.41921E-003	-3.98054E-004	0.00000E+000	-2.15714E-006	-2.40040E-001	5.40135E-003	3.57670E+000	9	...........
	110	1.47833	1.34592E-003	-3.98482E-004	0.00000E+000	-5.36326E-007	-2.40040E-001	1.32660E-003	3.57670E+000	9	...........
STARTTIMEOFFSET	QUANT	1738.079	Start Time Offset (s)
