EXPLAIN
TAG	PWR800_DISCHARGE
TITLE	LABEL	PWR Cyclic Charge Discharge (Cell) - Discharge Step	Test &Identifier
DATE	LABEL	12-7-2017	Date
TIME	LABEL	15:20:13	Time
NOTES	NOTES	3	&Notes...
	supercap test cell
	0.4mg
	6M KOH
PSTAT	PSTAT	IFC5000-01520	Potentiostat
CAPACITY	QUANT	1.00000E-003	Capacity (A-hr)
CELLTYPE	SELECTOR	1	&Cell Type
WORKINGCONNECTION	SELECTOR	0	&Working Lead
MAXDISCHARGETIME	VARIABLEANDUNITS	1.00000E+002	s	1.00000E+002	second(s)	Max &Discharge Time
DISCHARGEMODE	MULTIPARAM	0	4.00000E-004	&Discharge Mode	Constant Current	Amp(s)
SAMPLETIME	QUANT	1.00000E-002	Sa&mple Period (s)
DISCHARGESTOPAT1	MULTIPARAM	3	0.00000E+000	Discharge Stop At &1	Voltage < Limit	V
DISCHARGESTOPAT2	MULTIPARAM	0	0.00000E+000	Discharge Stop At &2	None	N/A
AESBHCSELECTOR	TOGGLE	F	Save Both Half Cells
IRCOMP	TOGGLE	F	IR &Measure
EOC	QUANT	0	Open Circuit (V)
SEQUENCER	TOGGLE	TRUE	Run as Sequence
PSTATMODEL	IQUANT	53	Pstat Model
PSTATSECTION	LABEL	IFC5000-01520	Pstat Section
PSTATSERIALNO	LABEL	01520	Pstat Serial Number
CTRLMODE	IQUANT	0	Control Mode
ELECTROMETER	IQUANT	1	RE=0 or CS=1
IESTAB	IQUANT	0	I/E Stability
CASPEED	IQUANT	4	Control Amp Speed
CONVENTION	IQUANT	1	Current Convention
ICHRANGE	IQUANT	2	Ich Range
ICHRANGEMODE	TOGGLE	T	Ich Auto Range
ICHOFFSETENABLE	TOGGLE	F	Ich Offset Enable
ICHOFFSET	QUANT	0	Ich Offset (V)
ICHFILTER	IQUANT	1	Ich Filter
VCHRANGE	IQUANT	2	Vch Range
VCHRANGEMODE	TOGGLE	T	Vch Auto Range
VCHOFFSETENABLE	TOGGLE	F	Vch Offset Enable
VCHOFFSET	QUANT	0	Vch Offset (V)
VCHFILTER	IQUANT	1	Vch Filter
IERANGELOWERLIMIT	IQUANT	9	I/E Range Lower Limit
IERANGEMODE	TOGGLE	F	I/E AutoRange
IERANGE	IQUANT	9	I/E Range
ACHSELECT	IQUANT	1	Ach Select
ACHRANGE	IQUANT	2	Ach Range
ACHOFFSETENABLE	TOGGLE	F	Ach Offset Enable
ACHOFFSET	QUANT	0	Ach Offset (V)
ACHFILTER	IQUANT	1	Ach Filter
CABLEID	IQUANT	14	Cable ID
DCCALDATE	LABEL	5-7-2017	DC Calibration Date
ACCALDATE	LABEL	12/3/2015	AC Calibration Date
FRAMEWORKVERSION	QUANT	7.01	Framework Version
INSTRUMENTVERSION	LABEL	4.00	Instrument Version
CURVE	TABLE	102
	Pt	T	Vf	Im	Vu	Pwr	Sig	Ach	Temp	IERange	Over
	#	s	V	A	V	W	V	V	deg C	#	bits
	0	0.013333	6.83150E-001	-3.99352E-004	0.00000E+000	-2.72818E-004	-2.40040E-001	6.83389E-001	3.57740E+000	9	...........
	1	0.026667	6.69420E-001	-3.97739E-004	0.00000E+000	-2.66255E-004	-2.40040E-001	6.69652E-001	3.57740E+000	9	...........
	2	0.04	6.57428E-001	-3.98960E-004	0.00000E+000	-2.62288E-004	-2.40040E-001	6.57633E-001	3.57740E+000	9	...........
	3	0.053333	6.46445E-001	-3.97514E-004	0.00000E+000	-2.56971E-004	-2.40040E-001	6.46659E-001	3.57740E+000	9	...........
	4	0.066667	6.36209E-001	-3.99543E-004	0.00000E+000	-2.54193E-004	-2.40040E-001	6.36403E-001	3.57740E+000	9	...........
	5	0.08	6.26397E-001	-3.98958E-004	0.00000E+000	-2.49906E-004	-2.40040E-001	6.26561E-001	3.57740E+000	9	...........
	6	0.093333	6.16896E-001	-3.97858E-004	0.00000E+000	-2.45437E-004	-2.40040E-001	6.17077E-001	3.57740E+000	9	...........
	7	0.106667	6.07662E-001	-3.98147E-004	0.00000E+000	-2.41939E-004	-2.40040E-001	6.07871E-001	3.57740E+000	9	...........
	8	0.12	5.98704E-001	-3.99751E-004	0.00000E+000	-2.39333E-004	-2.40040E-001	5.98922E-001	3.57740E+000	9	...........
	9	0.133333	5.89893E-001	-3.98268E-004	0.00000E+000	-2.34935E-004	-2.40040E-001	5.90107E-001	3.57740E+000	9	...........
	10	0.146667	5.81190E-001	-3.99123E-004	0.00000E+000	-2.31966E-004	-2.40040E-001	5.81403E-001	3.57740E+000	9	...........
	11	0.16	5.72654E-001	-3.98552E-004	0.00000E+000	-2.28233E-004	-2.40040E-001	5.72817E-001	3.57740E+000	9	...........
	12	0.173333	5.64192E-001	-3.98330E-004	0.00000E+000	-2.24735E-004	-2.40040E-001	5.64345E-001	3.57740E+000	9	...........
	13	0.186667	5.55852E-001	-3.98793E-004	0.00000E+000	-2.21670E-004	-2.40040E-001	5.56022E-001	3.57740E+000	9	...........
	14	0.2	5.47634E-001	-3.99060E-004	0.00000E+000	-2.18539E-004	-2.40040E-001	5.47831E-001	3.57740E+000	9	...........
	15	0.213333	5.39387E-001	-3.99157E-004	0.00000E+000	-2.15300E-004	-2.40040E-001	5.39577E-001	3.57740E+000	9	...........
	16	0.226667	5.31185E-001	-3.98517E-004	0.00000E+000	-2.11686E-004	-2.40040E-001	5.31380E-001	3.57740E+000	9	...........
	17	0.24	5.23089E-001	-3.99093E-004	0.00000E+000	-2.08761E-004	-2.40040E-001	5.23304E-001	3.57740E+000	9	...........
	18	0.253333	5.15083E-001	-3.97060E-004	0.00000E+000	-2.04519E-004	-2.40040E-001	5.15300E-001	3.57740E+000	9	...........
	19	0.266667	5.07033E-001	-3.96580E-004	0.00000E+000	-2.01079E-004	-2.40040E-001	5.07313E-001	3.57740E+000	9	...........
	20	0.28	4.99088E-001	-3.99963E-004	0.00000E+000	-1.99617E-004	-2.40040E-001	4.99339E-001	3.57740E+000	9	...........
	21	0.293333	4.91212E-001	-3.97670E-004	0.00000E+000	-1.95340E-004	-2.40040E-001	4.91449E-001	3.57740E+000	9	...........
	22	0.306667	4.83534E-001	-3.99042E-004	0.00000E+000	-1.92950E-004	-2.40040E-001	4.83708E-001	3.57740E+000	9	...........
	23	0.32	4.75869E-001	-3.98953E-004	0.00000E+000	-1.89849E-004	-2.40040E-001	4.75968E-001	3.57740E+000	9	...........
	24	0.333333	4.68115E-001	-3.99398E-004	0.00000E+000	-1.86964E-004	-2.40040E-001	4.68213E-001	3.57740E+000	9	...........
	25	0.346667	4.60407E-001	-3.98877E-004	0.00000E+000	-1.83646E-004	-2.40040E-001	4.60506E-001	3.57740E+000	9	...........
	26	0.36	4.52706E-001	-3.98748E-004	0.00000E+000	-1.80516E-004	-2.40040E-001	4.52803E-001	3.57740E+000	9	...........
	27	0.373333	4.45011E-001	-3.98230E-004	0.00000E+000	-1.77217E-004	-2.40040E-001	4.45101E-001	3.57740E+000	9	...........
	28	0.386667	4.37441E-001	-3.98524E-004	0.00000E+000	-1.74331E-004	-2.40040E-001	4.37532E-001	3.57740E+000	9	...........
	29	0.4	4.29977E-001	-3.98470E-004	0.00000E+000	-1.71333E-004	-2.40040E-001	4.30064E-001	3.57740E+000	9	...........
	30	0.413333	4.22493E-001	-3.99348E-004	0.00000E+000	-1.68722E-004	-2.40040E-001	4.22583E-001	3.57740E+000	9	...........
	31	0.426667	4.15065E-001	-3.98477E-004	0.00000E+000	-1.65394E-004	-2.40040E-001	4.15148E-001	3.57740E+000	9	...........
	32	0.44	4.07688E-001	-3.98114E-004	0.00000E+000	-1.62306E-004	-2.40040E-001	4.07768E-001	3.57740E+000	9	...........
	33	0.453333	4.00401E-001	-3.98949E-004	0.00000E+000	-1.59740E-004	-2.40040E-001	4.00472E-001	3.57740E+000	9	...........
	34	0.466667	3.93109E-001	-3.98258E-004	0.00000E+000	-1.56559E-004	-2.40040E-001	3.93179E-001	3.57740E+000	9	...........
	35	0.48	3.85835E-001	-3.98087E-004	0.00000E+000	-1.53596E-004	-2.40040E-001	3.85909E-001	3.57740E+000	9	...........
	36	0.493333	3.78533E-001	-3.98975E-004	0.00000E+000	-1.51025E-004	-2.40040E-001	3.78603E-001	3.57740E+000	9	...........
	37	0.506667	3.71262E-001	-3.97701E-004	0.00000E+000	-1.47651E-004	-2.40040E-001	3.71332E-001	3.57740E+000	9	...........
	38	0.52	3.64238E-001	-3.99269E-004	0.00000E+000	-1.45429E-004	-2.40040E-001	3.64309E-001	3.57740E+000	9	...........
	39	0.533333	3.57149E-001	-3.98570E-004	0.00000E+000	-1.42349E-004	-2.40040E-001	3.57216E-001	3.57731E+000	9	...........
	40	0.546667	3.50184E-001	-3.98889E-004	0.00000E+000	-1.39684E-004	-2.40040E-001	3.50253E-001	3.57670E+000	9	...........
	41	0.56	3.43258E-001	-3.98967E-004	0.00000E+000	-1.36948E-004	-2.40040E-001	3.43324E-001	3.57670E+000	9	...........
	42	0.573333	3.36389E-001	-3.98632E-004	0.00000E+000	-1.34095E-004	-2.40040E-001	3.36456E-001	3.57670E+000	9	...........
	43	0.586667	3.29430E-001	-3.98560E-004	0.00000E+000	-1.31298E-004	-2.40040E-001	3.29493E-001	3.57670E+000	9	...........
	44	0.6	3.22540E-001	-3.98122E-004	0.00000E+000	-1.28410E-004	-2.40040E-001	3.22604E-001	3.57670E+000	9	...........
	45	0.613333	3.15757E-001	-3.98286E-004	0.00000E+000	-1.25762E-004	-2.40040E-001	3.15813E-001	3.57670E+000	9	...........
	46	0.626667	3.08956E-001	-4.00282E-004	0.00000E+000	-1.23669E-004	-2.40040E-001	3.09020E-001	3.57670E+000	9	...........
	47	0.64	3.02208E-001	-3.99437E-004	0.00000E+000	-1.20713E-004	-2.40040E-001	3.02264E-001	3.57670E+000	9	...........
	48	0.653333	2.95537E-001	-3.98184E-004	0.00000E+000	-1.17678E-004	-2.40040E-001	2.95592E-001	3.57670E+000	9	...........
	49	0.666667	2.88905E-001	-3.99917E-004	0.00000E+000	-1.15538E-004	-2.40040E-001	2.88964E-001	3.57670E+000	9	...........
	50	0.68	2.82319E-001	-3.99652E-004	0.00000E+000	-1.12829E-004	-2.40040E-001	2.82379E-001	3.57670E+000	9	...........
	51	0.693333	2.75780E-001	-3.99465E-004	0.00000E+000	-1.10165E-004	-2.40040E-001	2.75835E-001	3.57670E+000	9	...........
	52	0.706667	2.69249E-001	-3.99741E-004	0.00000E+000	-1.07630E-004	-2.40040E-001	2.69309E-001	3.57670E+000	9	...........
	53	0.72	2.62770E-001	-3.98069E-004	0.00000E+000	-1.04600E-004	-2.40040E-001	2.62831E-001	3.57670E+000	9	...........
	54	0.733333	2.56387E-001	-3.99351E-004	0.00000E+000	-1.02388E-004	-2.40040E-001	2.56437E-001	3.57670E+000	9	...........
	55	0.746667	2.50048E-001	-3.99087E-004	0.00000E+000	-9.97910E-005	-2.40040E-001	2.50099E-001	3.57670E+000	9	...........
	56	0.76	2.43760E-001	-3.98368E-004	0.00000E+000	-9.71062E-005	-2.40040E-001	2.43805E-001	3.57670E+000	9	...........
	57	0.773333	2.37519E-001	-3.98581E-004	0.00000E+000	-9.46705E-005	-2.40040E-001	2.37560E-001	3.57670E+000	9	...........
	58	0.786667	2.31290E-001	-3.97888E-004	0.00000E+000	-9.20277E-005	-2.40040E-001	2.31329E-001	3.57670E+000	9	...........
	59	0.8	2.25130E-001	-3.98991E-004	0.00000E+000	-8.98247E-005	-2.40040E-001	2.25175E-001	3.57670E+000	9	...........
	60	0.813333	2.19010E-001	-3.97821E-004	0.00000E+000	-8.71268E-005	-2.40040E-001	2.19050E-001	3.57670E+000	9	...........
	61	0.826667	2.12859E-001	-3.98549E-004	0.00000E+000	-8.48348E-005	-2.40040E-001	2.12899E-001	3.57670E+000	9	...........
	62	0.84	2.06813E-001	-3.99010E-004	0.00000E+000	-8.25206E-005	-2.40040E-001	2.06848E-001	3.57670E+000	9	...........
	63	0.853333	2.00827E-001	-3.98588E-004	0.00000E+000	-8.00472E-005	-2.40040E-001	2.00861E-001	3.57670E+000	9	...........
	64	0.866667	1.94880E-001	-3.98481E-004	0.00000E+000	-7.76560E-005	-2.40040E-001	1.94919E-001	3.57670E+000	9	...........
	65	0.88	1.89053E-001	-3.98502E-004	0.00000E+000	-7.53379E-005	-2.40040E-001	1.89086E-001	3.57670E+000	9	...........
	66	0.893333	1.83242E-001	-3.99989E-004	0.00000E+000	-7.32946E-005	-2.40040E-001	1.83271E-001	3.57670E+000	9	...........
	67	0.906667	1.77473E-001	-3.99051E-004	0.00000E+000	-7.08207E-005	-2.40040E-001	1.77505E-001	3.57670E+000	9	...........
	68	0.92	1.71680E-001	-3.98523E-004	0.00000E+000	-6.84186E-005	-2.40040E-001	1.71706E-001	3.57670E+000	9	...........
	69	0.933333	1.65947E-001	-3.99178E-004	0.00000E+000	-6.62426E-005	-2.40040E-001	1.65974E-001	3.57670E+000	9	...........
	70	0.946667	1.60251E-001	-3.97844E-004	0.00000E+000	-6.37547E-005	-2.40040E-001	1.60275E-001	3.57670E+000	9	...........
	71	0.96	1.54525E-001	-3.98734E-004	0.00000E+000	-6.16145E-005	-2.40040E-001	1.54550E-001	3.57670E+000	9	...........
	72	0.97333	1.48875E-001	-3.99362E-004	0.00000E+000	-5.94551E-005	-2.40040E-001	1.48899E-001	3.57670E+000	9	...........
	73	0.98667	1.43271E-001	-3.98919E-004	0.00000E+000	-5.71533E-005	-2.40040E-001	1.43292E-001	3.57670E+000	9	...........
	74	1	1.37793E-001	-3.97994E-004	0.00000E+000	-5.48406E-005	-2.40040E-001	1.37817E-001	3.57670E+000	9	...........
	75	1.01333	1.32295E-001	-3.98582E-004	0.00000E+000	-5.27304E-005	-2.40040E-001	1.32317E-001	3.57670E+000	9	...........
	76	1.02667	1.26792E-001	-3.98171E-004	0.00000E+000	-5.04847E-005	-2.40040E-001	1.26809E-001	3.57670E+000	9	...........
	77	1.04	1.21323E-001	-3.97862E-004	0.00000E+000	-4.82698E-005	-2.40040E-001	1.21343E-001	3.57670E+000	9	...........
	78	1.05333	1.15876E-001	-3.98948E-004	0.00000E+000	-4.62286E-005	-2.40040E-001	1.15892E-001	3.57670E+000	9	...........
	79	1.06667	1.10500E-001	-3.97524E-004	0.00000E+000	-4.39265E-005	-2.40040E-001	1.10522E-001	3.57670E+000	9	...........
	80	1.08	1.05096E-001	-3.97729E-004	0.00000E+000	-4.17998E-005	-2.40040E-001	1.05112E-001	3.57670E+000	9	...........
	81	1.09333	9.97975E-002	-3.99734E-004	0.00000E+000	-3.98924E-005	-2.40040E-001	9.98180E-002	3.57670E+000	9	...........
	82	1.10667	9.45607E-002	-3.98110E-004	0.00000E+000	-3.76456E-005	-2.40040E-001	9.45819E-002	3.57670E+000	9	...........
	83	1.12	8.94080E-002	-3.98250E-004	0.00000E+000	-3.56067E-005	-2.40040E-001	8.94211E-002	3.57670E+000	9	...........
	84	1.13333	8.42741E-002	-3.98535E-004	0.00000E+000	-3.35862E-005	-2.40040E-001	8.42915E-002	3.57670E+000	9	...........
	85	1.14667	7.91329E-002	-3.98460E-004	0.00000E+000	-3.15313E-005	-2.40040E-001	7.91415E-002	3.57670E+000	9	...........
	86	1.16	7.40366E-002	-3.98040E-004	0.00000E+000	-2.94696E-005	-2.40040E-001	7.40484E-002	3.57670E+000	9	...........
	87	1.17333	6.90180E-002	-3.97688E-004	0.00000E+000	-2.74476E-005	-2.40040E-001	6.90235E-002	3.57670E+000	9	...........
	88	1.18667	6.39727E-002	-3.97911E-004	0.00000E+000	-2.54555E-005	-2.40040E-001	6.39807E-002	3.57670E+000	9	...........
	89	1.2	5.89588E-002	-3.99392E-004	0.00000E+000	-2.35477E-005	-2.40040E-001	5.89649E-002	3.57670E+000	9	...........
	90	1.21333	5.39432E-002	-3.98647E-004	0.00000E+000	-2.15043E-005	-2.40040E-001	5.39508E-002	3.57670E+000	9	...........
	91	1.22667	4.90069E-002	-3.98950E-004	0.00000E+000	-1.95513E-005	-2.40040E-001	4.90049E-002	3.57670E+000	9	...........
	92	1.24	4.41138E-002	-3.99379E-004	0.00000E+000	-1.76181E-005	-2.40040E-001	4.41151E-002	3.57670E+000	9	...........
	93	1.25333	3.92410E-002	-3.98278E-004	0.00000E+000	-1.56288E-005	-2.40040E-001	3.92427E-002	3.57670E+000	9	...........
	94	1.26667	3.43766E-002	-3.99000E-004	0.00000E+000	-1.37163E-005	-2.40040E-001	3.43769E-002	3.57670E+000	9	...........
	95	1.28	2.95779E-002	-3.98631E-004	0.00000E+000	-1.17907E-005	-2.40040E-001	2.95737E-002	3.57670E+000	9	...........
	96	1.29333	2.46994E-002	-3.98805E-004	0.00000E+000	-9.85024E-006	-2.40040E-001	2.46987E-002	3.57670E+000	9	...........
	97	1.30667	1.99216E-002	-3.99247E-004	0.00000E+000	-7.95363E-006	-2.40040E-001	1.99167E-002	3.57670E+000	9	...........
	98	1.32	1.52102E-002	-3.98945E-004	0.00000E+000	-6.06804E-006	-2.40040E-001	1.51995E-002	3.57670E+000	9	...........
	99	1.33333	1.04407E-002	-3.99414E-004	0.00000E+000	-4.17015E-006	-2.40040E-001	1.04256E-002	3.57670E+000	9	...........
	100	1.34667	5.81898E-003	-3.98318E-004	0.00000E+000	-2.31780E-006	-2.40040E-001	5.80795E-003	3.57670E+000	9	...........
	101	1.35833	1.50881E-003	-4.00803E-004	0.00000E+000	-6.04737E-007	-2.40040E-001	1.49121E-003	3.57670E+000	9	...........
STARTTIMEOFFSET	QUANT	2916.582	Start Time Offset (s)
