EXPLAIN
TAG	PWR800_DISCHARGE
TITLE	LABEL	PWR Cyclic Charge Discharge (Cell) - Discharge Step	Test &Identifier
DATE	LABEL	12-7-2017	Date
TIME	LABEL	14:39:41	Time
NOTES	NOTES	3	&Notes...
	supercap test cell
	0.4mg
	6M KOH
PSTAT	PSTAT	IFC5000-01520	Potentiostat
CAPACITY	QUANT	1.00000E-003	Capacity (A-hr)
CELLTYPE	SELECTOR	1	&Cell Type
WORKINGCONNECTION	SELECTOR	0	&Working Lead
MAXDISCHARGETIME	VARIABLEANDUNITS	1.00000E+002	s	1.00000E+002	second(s)	Max &Discharge Time
DISCHARGEMODE	MULTIPARAM	0	4.00000E-004	&Discharge Mode	Constant Current	Amp(s)
SAMPLETIME	QUANT	1.00000E-002	Sa&mple Period (s)
DISCHARGESTOPAT1	MULTIPARAM	3	0.00000E+000	Discharge Stop At &1	Voltage < Limit	V
DISCHARGESTOPAT2	MULTIPARAM	0	0.00000E+000	Discharge Stop At &2	None	N/A
AESBHCSELECTOR	TOGGLE	F	Save Both Half Cells
IRCOMP	TOGGLE	F	IR &Measure
EOC	QUANT	0	Open Circuit (V)
SEQUENCER	TOGGLE	TRUE	Run as Sequence
PSTATMODEL	IQUANT	53	Pstat Model
PSTATSECTION	LABEL	IFC5000-01520	Pstat Section
PSTATSERIALNO	LABEL	01520	Pstat Serial Number
CTRLMODE	IQUANT	0	Control Mode
ELECTROMETER	IQUANT	1	RE=0 or CS=1
IESTAB	IQUANT	0	I/E Stability
CASPEED	IQUANT	4	Control Amp Speed
CONVENTION	IQUANT	1	Current Convention
ICHRANGE	IQUANT	2	Ich Range
ICHRANGEMODE	TOGGLE	T	Ich Auto Range
ICHOFFSETENABLE	TOGGLE	F	Ich Offset Enable
ICHOFFSET	QUANT	0	Ich Offset (V)
ICHFILTER	IQUANT	1	Ich Filter
VCHRANGE	IQUANT	2	Vch Range
VCHRANGEMODE	TOGGLE	T	Vch Auto Range
VCHOFFSETENABLE	TOGGLE	F	Vch Offset Enable
VCHOFFSET	QUANT	0	Vch Offset (V)
VCHFILTER	IQUANT	1	Vch Filter
IERANGELOWERLIMIT	IQUANT	9	I/E Range Lower Limit
IERANGEMODE	TOGGLE	F	I/E AutoRange
IERANGE	IQUANT	9	I/E Range
ACHSELECT	IQUANT	1	Ach Select
ACHRANGE	IQUANT	2	Ach Range
ACHOFFSETENABLE	TOGGLE	F	Ach Offset Enable
ACHOFFSET	QUANT	0	Ach Offset (V)
ACHFILTER	IQUANT	1	Ach Filter
CABLEID	IQUANT	14	Cable ID
DCCALDATE	LABEL	5-7-2017	DC Calibration Date
ACCALDATE	LABEL	12/3/2015	AC Calibration Date
FRAMEWORKVERSION	QUANT	7.01	Framework Version
INSTRUMENTVERSION	LABEL	4.00	Instrument Version
CURVE	TABLE	119
	Pt	T	Vf	Im	Vu	Pwr	Sig	Ach	Temp	IERange	Over
	#	s	V	A	V	W	V	V	deg C	#	bits
	0	0.013333	7.08650E-001	-3.98956E-004	0.00000E+000	-2.82720E-004	-2.40040E-001	7.08915E-001	3.57650E+000	9	...........
	1	0.026667	6.96784E-001	-3.98905E-004	0.00000E+000	-2.77951E-004	-2.40040E-001	6.97030E-001	3.57650E+000	9	...........
	2	0.04	6.86256E-001	-4.00264E-004	0.00000E+000	-2.74684E-004	-2.40040E-001	6.86519E-001	3.57650E+000	9	...........
	3	0.053333	6.76587E-001	-3.99680E-004	0.00000E+000	-2.70418E-004	-2.40040E-001	6.76829E-001	3.57650E+000	9	...........
	4	0.066667	6.67386E-001	-3.98956E-004	0.00000E+000	-2.66258E-004	-2.40040E-001	6.67643E-001	3.57650E+000	9	...........
	5	0.08	6.58596E-001	-4.00327E-004	0.00000E+000	-2.63654E-004	-2.40040E-001	6.58829E-001	3.57650E+000	9	...........
	6	0.093333	6.50083E-001	-3.98452E-004	0.00000E+000	-2.59027E-004	-2.40040E-001	6.50328E-001	3.57650E+000	9	...........
	7	0.106667	6.41821E-001	-3.98106E-004	0.00000E+000	-2.55513E-004	-2.40040E-001	6.42058E-001	3.57650E+000	9	...........
	8	0.12	6.33701E-001	-3.99251E-004	0.00000E+000	-2.53006E-004	-2.40040E-001	6.33944E-001	3.57650E+000	9	...........
	9	0.133333	6.25778E-001	-3.98468E-004	0.00000E+000	-2.49352E-004	-2.40040E-001	6.26011E-001	3.57650E+000	9	...........
	10	0.146667	6.17950E-001	-3.98311E-004	0.00000E+000	-2.46136E-004	-2.40040E-001	6.18193E-001	3.57650E+000	9	...........
	11	0.16	6.10116E-001	-3.97542E-004	0.00000E+000	-2.42547E-004	-2.40040E-001	6.10390E-001	3.57650E+000	9	...........
	12	0.173333	6.02415E-001	-3.98997E-004	0.00000E+000	-2.40362E-004	-2.40040E-001	6.02676E-001	3.57650E+000	9	...........
	13	0.186667	5.94875E-001	-3.98009E-004	0.00000E+000	-2.36766E-004	-2.40040E-001	5.95127E-001	3.57650E+000	9	...........
	14	0.2	5.87368E-001	-3.98664E-004	0.00000E+000	-2.34162E-004	-2.40040E-001	5.87615E-001	3.57650E+000	9	...........
	15	0.213333	5.79878E-001	-3.98327E-004	0.00000E+000	-2.30981E-004	-2.40040E-001	5.80115E-001	3.57650E+000	9	...........
	16	0.226667	5.72556E-001	-3.98218E-004	0.00000E+000	-2.28002E-004	-2.40040E-001	5.72762E-001	3.57650E+000	9	...........
	17	0.24	5.65217E-001	-3.98253E-004	0.00000E+000	-2.25099E-004	-2.40040E-001	5.65402E-001	3.57650E+000	9	...........
	18	0.253333	5.57856E-001	-3.98980E-004	0.00000E+000	-2.22574E-004	-2.40040E-001	5.58057E-001	3.57650E+000	9	...........
	19	0.266667	5.50589E-001	-3.98806E-004	0.00000E+000	-2.19578E-004	-2.40040E-001	5.50777E-001	3.57650E+000	9	...........
	20	0.28	5.43420E-001	-3.98222E-004	0.00000E+000	-2.16402E-004	-2.40040E-001	5.43602E-001	3.57650E+000	9	...........
	21	0.293333	5.36288E-001	-3.99785E-004	0.00000E+000	-2.14400E-004	-2.40040E-001	5.36501E-001	3.57650E+000	9	...........
	22	0.306667	5.29227E-001	-4.00211E-004	0.00000E+000	-2.11802E-004	-2.40040E-001	5.29427E-001	3.57650E+000	9	...........
	23	0.32	5.22132E-001	-3.98282E-004	0.00000E+000	-2.07956E-004	-2.40040E-001	5.22317E-001	3.57650E+000	9	...........
	24	0.333333	5.15020E-001	-4.00033E-004	0.00000E+000	-2.06025E-004	-2.40040E-001	5.15216E-001	3.57650E+000	9	...........
	25	0.346667	5.07982E-001	-3.98975E-004	0.00000E+000	-2.02672E-004	-2.40040E-001	5.08228E-001	3.57650E+000	9	...........
	26	0.36	5.01044E-001	-3.98691E-004	0.00000E+000	-1.99762E-004	-2.40040E-001	5.01290E-001	3.57650E+000	9	...........
	27	0.373333	4.94077E-001	-3.97742E-004	0.00000E+000	-1.96515E-004	-2.40040E-001	4.94320E-001	3.57650E+000	9	...........
	28	0.386667	4.87254E-001	-3.99274E-004	0.00000E+000	-1.94548E-004	-2.40040E-001	4.87450E-001	3.57650E+000	9	...........
	29	0.4	4.80729E-001	-3.99393E-004	0.00000E+000	-1.92000E-004	-2.40040E-001	4.80829E-001	3.57650E+000	9	...........
	30	0.413333	4.73839E-001	-3.98803E-004	0.00000E+000	-1.88969E-004	-2.40040E-001	4.73938E-001	3.57650E+000	9	...........
	31	0.426667	4.67029E-001	-3.97863E-004	0.00000E+000	-1.85814E-004	-2.40040E-001	4.67123E-001	3.57650E+000	9	...........
	32	0.44	4.60274E-001	-3.98528E-004	0.00000E+000	-1.83432E-004	-2.40040E-001	4.60370E-001	3.57650E+000	9	...........
	33	0.453333	4.53599E-001	-3.99078E-004	0.00000E+000	-1.81021E-004	-2.40040E-001	4.53692E-001	3.57650E+000	9	...........
	34	0.466667	4.46959E-001	-3.98643E-004	0.00000E+000	-1.78177E-004	-2.40040E-001	4.47056E-001	3.57650E+000	9	...........
	35	0.48	4.40356E-001	-3.98474E-004	0.00000E+000	-1.75471E-004	-2.40040E-001	4.40445E-001	3.57650E+000	9	...........
	36	0.493333	4.33762E-001	-3.98526E-004	0.00000E+000	-1.72865E-004	-2.40040E-001	4.33852E-001	3.57650E+000	9	...........
	37	0.506667	4.27230E-001	-3.97870E-004	0.00000E+000	-1.69982E-004	-2.40040E-001	4.27320E-001	3.57650E+000	9	...........
	38	0.52	4.20686E-001	-3.98750E-004	0.00000E+000	-1.67749E-004	-2.40040E-001	4.20777E-001	3.57650E+000	9	...........
	39	0.533333	4.14272E-001	-3.98499E-004	0.00000E+000	-1.65087E-004	-2.40040E-001	4.14356E-001	3.57650E+000	9	...........
	40	0.546667	4.07845E-001	-3.98581E-004	0.00000E+000	-1.62559E-004	-2.40040E-001	4.07925E-001	3.57650E+000	9	...........
	41	0.56	4.01370E-001	-3.98977E-004	0.00000E+000	-1.60138E-004	-2.40040E-001	4.01450E-001	3.57650E+000	9	...........
	42	0.573333	3.95013E-001	-3.97746E-004	0.00000E+000	-1.57115E-004	-2.40040E-001	3.95091E-001	3.57650E+000	9	...........
	43	0.586667	3.88726E-001	-3.97678E-004	0.00000E+000	-1.54588E-004	-2.40040E-001	3.88800E-001	3.57650E+000	9	...........
	44	0.6	3.82310E-001	-3.97510E-004	0.00000E+000	-1.51972E-004	-2.40040E-001	3.82385E-001	3.57650E+000	9	...........
	45	0.613333	3.76127E-001	-3.98773E-004	0.00000E+000	-1.49989E-004	-2.40040E-001	3.76199E-001	3.57650E+000	9	...........
	46	0.626667	3.69936E-001	-3.98143E-004	0.00000E+000	-1.47287E-004	-2.40040E-001	3.70004E-001	3.57650E+000	9	...........
	47	0.64	3.63775E-001	-3.98248E-004	0.00000E+000	-1.44872E-004	-2.40040E-001	3.63844E-001	3.57650E+000	9	...........
	48	0.653333	3.57623E-001	-3.98873E-004	0.00000E+000	-1.42646E-004	-2.40040E-001	3.57691E-001	3.57650E+000	9	...........
	49	0.666667	3.51491E-001	-3.98481E-004	0.00000E+000	-1.40062E-004	-2.40040E-001	3.51555E-001	3.57650E+000	9	...........
	50	0.68	3.45352E-001	-3.98456E-004	0.00000E+000	-1.37607E-004	-2.40040E-001	3.45419E-001	3.57650E+000	9	...........
	51	0.693333	3.39322E-001	-3.99448E-004	0.00000E+000	-1.35542E-004	-2.40040E-001	3.39383E-001	3.57650E+000	9	...........
	52	0.706667	3.33187E-001	-3.98892E-004	0.00000E+000	-1.32905E-004	-2.40040E-001	3.33252E-001	3.57650E+000	9	...........
	53	0.72	3.27195E-001	-3.97800E-004	0.00000E+000	-1.30158E-004	-2.40040E-001	3.27257E-001	3.57650E+000	9	...........
	54	0.733333	3.21357E-001	-3.99541E-004	0.00000E+000	-1.28395E-004	-2.40040E-001	3.21423E-001	3.57650E+000	9	...........
	55	0.746667	3.15365E-001	-3.99692E-004	0.00000E+000	-1.26049E-004	-2.40040E-001	3.15431E-001	3.57650E+000	9	...........
	56	0.76	3.09500E-001	-3.99673E-004	0.00000E+000	-1.23699E-004	-2.40040E-001	3.09562E-001	3.57650E+000	9	...........
	57	0.773333	3.03665E-001	-3.99845E-004	0.00000E+000	-1.21419E-004	-2.40040E-001	3.03728E-001	3.57650E+000	9	...........
	58	0.786667	2.97854E-001	-3.97517E-004	0.00000E+000	-1.18402E-004	-2.40040E-001	2.97913E-001	3.57650E+000	9	...........
	59	0.8	2.92046E-001	-3.97794E-004	0.00000E+000	-1.16174E-004	-2.40040E-001	2.92101E-001	3.57650E+000	9	...........
	60	0.813333	2.86322E-001	-3.97951E-004	0.00000E+000	-1.13942E-004	-2.40040E-001	2.86375E-001	3.57650E+000	9	...........
	61	0.826667	2.80574E-001	-3.98456E-004	0.00000E+000	-1.11796E-004	-2.40040E-001	2.80630E-001	3.57650E+000	9	...........
	62	0.84	2.74921E-001	-3.97859E-004	0.00000E+000	-1.09380E-004	-2.40040E-001	2.74976E-001	3.57650E+000	9	...........
	63	0.853333	2.69352E-001	-3.98024E-004	0.00000E+000	-1.07208E-004	-2.40040E-001	2.69399E-001	3.57650E+000	9	...........
	64	0.866667	2.63710E-001	-3.98018E-004	0.00000E+000	-1.04961E-004	-2.40040E-001	2.63762E-001	3.57650E+000	9	...........
	65	0.88	2.58120E-001	-3.97789E-004	0.00000E+000	-1.02677E-004	-2.40040E-001	2.58173E-001	3.57650E+000	9	...........
	66	0.893333	2.52647E-001	-3.98636E-004	0.00000E+000	-1.00714E-004	-2.40040E-001	2.52698E-001	3.57650E+000	9	...........
	67	0.906667	2.47141E-001	-3.99523E-004	0.00000E+000	-9.87383E-005	-2.40040E-001	2.47188E-001	3.57650E+000	9	...........
	68	0.92	2.41694E-001	-3.99121E-004	0.00000E+000	-9.64652E-005	-2.40040E-001	2.41736E-001	3.57650E+000	9	...........
	69	0.933333	2.36300E-001	-3.98402E-004	0.00000E+000	-9.41424E-005	-2.40040E-001	2.36347E-001	3.57650E+000	9	...........
	70	0.946667	2.30876E-001	-3.97895E-004	0.00000E+000	-9.18641E-005	-2.40040E-001	2.30918E-001	3.57650E+000	9	...........
	71	0.96	2.25364E-001	-3.98567E-004	0.00000E+000	-8.98224E-005	-2.40040E-001	2.25407E-001	3.57650E+000	9	...........
	72	0.97333	2.19995E-001	-3.98655E-004	0.00000E+000	-8.77020E-005	-2.40040E-001	2.20041E-001	3.57650E+000	9	...........
	73	0.98667	2.14620E-001	-3.98508E-004	0.00000E+000	-8.55278E-005	-2.40040E-001	2.14660E-001	3.57650E+000	9	...........
	74	1	2.09286E-001	-3.98966E-004	0.00000E+000	-8.34978E-005	-2.40040E-001	2.09315E-001	3.57650E+000	9	...........
	75	1.01333	2.04076E-001	-3.98510E-004	0.00000E+000	-8.13266E-005	-2.40040E-001	2.04118E-001	3.57650E+000	9	...........
	76	1.02667	1.98779E-001	-3.98287E-004	0.00000E+000	-7.91712E-005	-2.40040E-001	1.98822E-001	3.57650E+000	9	...........
	77	1.04	1.93574E-001	-3.99491E-004	0.00000E+000	-7.73311E-005	-2.40040E-001	1.93613E-001	3.57650E+000	9	...........
	78	1.05333	1.88378E-001	-3.98777E-004	0.00000E+000	-7.51208E-005	-2.40040E-001	1.88414E-001	3.57650E+000	9	...........
	79	1.06667	1.83189E-001	-3.98177E-004	0.00000E+000	-7.29417E-005	-2.40040E-001	1.83228E-001	3.57650E+000	9	...........
	80	1.08	1.78004E-001	-3.99054E-004	0.00000E+000	-7.10331E-005	-2.40040E-001	1.78038E-001	3.57650E+000	9	...........
	81	1.09333	1.72906E-001	-3.99501E-004	0.00000E+000	-6.90761E-005	-2.40040E-001	1.72940E-001	3.57650E+000	9	...........
	82	1.10667	1.67809E-001	-3.97423E-004	0.00000E+000	-6.66913E-005	-2.40040E-001	1.67843E-001	3.57650E+000	9	...........
	83	1.12	1.62693E-001	-3.99672E-004	0.00000E+000	-6.50240E-005	-2.40040E-001	1.62724E-001	3.57650E+000	9	...........
	84	1.13333	1.57625E-001	-3.98782E-004	0.00000E+000	-6.28579E-005	-2.40040E-001	1.57655E-001	3.57650E+000	9	...........
	85	1.14667	1.52638E-001	-3.97944E-004	0.00000E+000	-6.07413E-005	-2.40040E-001	1.52664E-001	3.57650E+000	9	...........
	86	1.16	1.47570E-001	-3.98616E-004	0.00000E+000	-5.88238E-005	-2.40040E-001	1.47599E-001	3.57650E+000	9	...........
	87	1.17333	1.42636E-001	-3.99147E-004	0.00000E+000	-5.69327E-005	-2.40040E-001	1.42666E-001	3.57650E+000	9	...........
	88	1.18667	1.37729E-001	-3.98033E-004	0.00000E+000	-5.48209E-005	-2.40040E-001	1.37757E-001	3.57650E+000	9	...........
	89	1.2	1.32851E-001	-3.99408E-004	0.00000E+000	-5.30620E-005	-2.40040E-001	1.32877E-001	3.57650E+000	9	...........
	90	1.21333	1.27955E-001	-3.98375E-004	0.00000E+000	-5.09740E-005	-2.40040E-001	1.27977E-001	3.57650E+000	9	...........
	91	1.22667	1.23149E-001	-3.98665E-004	0.00000E+000	-4.90950E-005	-2.40040E-001	1.23174E-001	3.57670E+000	9	...........
	92	1.24	1.18368E-001	-3.98180E-004	0.00000E+000	-4.71320E-005	-2.40040E-001	1.18398E-001	3.57690E+000	9	...........
	93	1.25333	1.13587E-001	-3.98917E-004	0.00000E+000	-4.53119E-005	-2.40040E-001	1.13615E-001	3.57690E+000	9	...........
	94	1.26667	1.08775E-001	-3.98688E-004	0.00000E+000	-4.33673E-005	-2.40040E-001	1.08803E-001	3.57690E+000	9	...........
	95	1.28	1.04004E-001	-3.99158E-004	0.00000E+000	-4.15139E-005	-2.40040E-001	1.04030E-001	3.57690E+000	9	...........
	96	1.29333	9.92258E-002	-3.98920E-004	0.00000E+000	-3.95831E-005	-2.40040E-001	9.92483E-002	3.57690E+000	9	...........
	97	1.30667	9.45073E-002	-3.99885E-004	0.00000E+000	-3.77920E-005	-2.40040E-001	9.45279E-002	3.57690E+000	9	...........
	98	1.32	8.98509E-002	-3.96877E-004	0.00000E+000	-3.56597E-005	-2.40040E-001	8.98678E-002	3.57690E+000	9	...........
	99	1.33333	8.51666E-002	-3.99224E-004	0.00000E+000	-3.40006E-005	-2.40040E-001	8.51854E-002	3.57690E+000	9	...........
	100	1.34667	8.05793E-002	-4.00082E-004	0.00000E+000	-3.22383E-005	-2.40040E-001	8.05910E-002	3.57690E+000	9	...........
	101	1.36	7.59395E-002	-3.97874E-004	0.00000E+000	-3.02143E-005	-2.40040E-001	7.59508E-002	3.57690E+000	9	...........
	102	1.37333	7.13673E-002	-3.97828E-004	0.00000E+000	-2.83919E-005	-2.40040E-001	7.13747E-002	3.57690E+000	9	...........
	103	1.38667	6.68847E-002	-3.99173E-004	0.00000E+000	-2.66985E-005	-2.40040E-001	6.68955E-002	3.57690E+000	9	...........
	104	1.4	6.24065E-002	-3.98890E-004	0.00000E+000	-2.48933E-005	-2.40040E-001	6.24128E-002	3.57690E+000	9	...........
	105	1.41333	5.78855E-002	-3.98918E-004	0.00000E+000	-2.30915E-005	-2.40040E-001	5.78901E-002	3.57690E+000	9	...........
	106	1.42667	5.33170E-002	-3.98973E-004	0.00000E+000	-2.12720E-005	-2.40040E-001	5.33181E-002	3.57690E+000	9	...........
	107	1.44	4.89471E-002	-3.99299E-004	0.00000E+000	-1.95445E-005	-2.40040E-001	4.89501E-002	3.57690E+000	9	...........
	108	1.45333	4.45431E-002	-3.97752E-004	0.00000E+000	-1.77171E-005	-2.40040E-001	4.45535E-002	3.57690E+000	9	...........
	109	1.46667	3.99951E-002	-3.98168E-004	0.00000E+000	-1.59248E-005	-2.40040E-001	4.00060E-002	3.57690E+000	9	...........
	110	1.48	3.55009E-002	-3.99370E-004	0.00000E+000	-1.41780E-005	-2.40040E-001	3.55055E-002	3.57690E+000	9	...........
	111	1.49333	3.10507E-002	-3.98941E-004	0.00000E+000	-1.23874E-005	-2.40040E-001	3.10521E-002	3.57690E+000	9	...........
	112	1.50667	2.66470E-002	-3.98039E-004	0.00000E+000	-1.06066E-005	-2.40040E-001	2.66455E-002	3.57690E+000	9	...........
	113	1.52	2.23040E-002	-3.98735E-004	0.00000E+000	-8.89338E-006	-2.40040E-001	2.23017E-002	3.57690E+000	9	...........
	114	1.53333	1.80615E-002	-3.98022E-004	0.00000E+000	-7.18886E-006	-2.40040E-001	1.80550E-002	3.57690E+000	9	...........
	115	1.54667	1.37854E-002	-3.99924E-004	0.00000E+000	-5.51313E-006	-2.40040E-001	1.37753E-002	3.57690E+000	9	...........
	116	1.56	9.51957E-003	-3.96617E-004	0.00000E+000	-3.77563E-006	-2.40040E-001	9.50932E-003	3.57690E+000	9	...........
	117	1.57333	5.26289E-003	-4.00320E-004	0.00000E+000	-2.10684E-006	-2.40040E-001	5.24994E-003	3.57690E+000	9	...........
	118	1.585	1.23983E-003	-3.99903E-004	0.00000E+000	-4.95812E-007	-2.40040E-001	1.22044E-003	3.57690E+000	9	...........
STARTTIMEOFFSET	QUANT	1012.747	Start Time Offset (s)
