EXPLAIN
TAG	PWR800_DISCHARGE
TITLE	LABEL	PWR Cyclic Charge Discharge (Cell) - Discharge Step	Test &Identifier
DATE	LABEL	12-7-2017	Date
TIME	LABEL	14:44:25	Time
NOTES	NOTES	3	&Notes...
	supercap test cell
	0.4mg
	6M KOH
PSTAT	PSTAT	IFC5000-01520	Potentiostat
CAPACITY	QUANT	1.00000E-003	Capacity (A-hr)
CELLTYPE	SELECTOR	1	&Cell Type
WORKINGCONNECTION	SELECTOR	0	&Working Lead
MAXDISCHARGETIME	VARIABLEANDUNITS	1.00000E+002	s	1.00000E+002	second(s)	Max &Discharge Time
DISCHARGEMODE	MULTIPARAM	0	4.00000E-004	&Discharge Mode	Constant Current	Amp(s)
SAMPLETIME	QUANT	1.00000E-002	Sa&mple Period (s)
DISCHARGESTOPAT1	MULTIPARAM	3	0.00000E+000	Discharge Stop At &1	Voltage < Limit	V
DISCHARGESTOPAT2	MULTIPARAM	0	0.00000E+000	Discharge Stop At &2	None	N/A
AESBHCSELECTOR	TOGGLE	F	Save Both Half Cells
IRCOMP	TOGGLE	F	IR &Measure
EOC	QUANT	0	Open Circuit (V)
SEQUENCER	TOGGLE	TRUE	Run as Sequence
PSTATMODEL	IQUANT	53	Pstat Model
PSTATSECTION	LABEL	IFC5000-01520	Pstat Section
PSTATSERIALNO	LABEL	01520	Pstat Serial Number
CTRLMODE	IQUANT	0	Control Mode
ELECTROMETER	IQUANT	1	RE=0 or CS=1
IESTAB	IQUANT	0	I/E Stability
CASPEED	IQUANT	4	Control Amp Speed
CONVENTION	IQUANT	1	Current Convention
ICHRANGE	IQUANT	2	Ich Range
ICHRANGEMODE	TOGGLE	T	Ich Auto Range
ICHOFFSETENABLE	TOGGLE	F	Ich Offset Enable
ICHOFFSET	QUANT	0	Ich Offset (V)
ICHFILTER	IQUANT	1	Ich Filter
VCHRANGE	IQUANT	2	Vch Range
VCHRANGEMODE	TOGGLE	T	Vch Auto Range
VCHOFFSETENABLE	TOGGLE	F	Vch Offset Enable
VCHOFFSET	QUANT	0	Vch Offset (V)
VCHFILTER	IQUANT	1	Vch Filter
IERANGELOWERLIMIT	IQUANT	9	I/E Range Lower Limit
IERANGEMODE	TOGGLE	F	I/E AutoRange
IERANGE	IQUANT	9	I/E Range
ACHSELECT	IQUANT	1	Ach Select
ACHRANGE	IQUANT	2	Ach Range
ACHOFFSETENABLE	TOGGLE	F	Ach Offset Enable
ACHOFFSET	QUANT	0	Ach Offset (V)
ACHFILTER	IQUANT	1	Ach Filter
CABLEID	IQUANT	14	Cable ID
DCCALDATE	LABEL	5-7-2017	DC Calibration Date
ACCALDATE	LABEL	12/3/2015	AC Calibration Date
FRAMEWORKVERSION	QUANT	7.01	Framework Version
INSTRUMENTVERSION	LABEL	4.00	Instrument Version
CURVE	TABLE	114
	Pt	T	Vf	Im	Vu	Pwr	Sig	Ach	Temp	IERange	Over
	#	s	V	A	V	W	V	V	deg C	#	bits
	0	0.013333	6.75460E-001	-3.98212E-004	0.00000E+000	-2.68976E-004	-2.40040E-001	6.75720E-001	3.57730E+000	9	...........
	1	0.026667	6.65986E-001	-3.99365E-004	0.00000E+000	-2.65971E-004	-2.40040E-001	6.66245E-001	3.57730E+000	9	...........
	2	0.04	6.56957E-001	-3.98158E-004	0.00000E+000	-2.61573E-004	-2.40040E-001	6.57194E-001	3.57730E+000	9	...........
	3	0.053333	6.48311E-001	-3.99636E-004	0.00000E+000	-2.59088E-004	-2.40040E-001	6.48553E-001	3.57730E+000	9	...........
	4	0.066667	6.39863E-001	-3.99063E-004	0.00000E+000	-2.55345E-004	-2.40040E-001	6.40108E-001	3.57730E+000	9	...........
	5	0.08	6.31584E-001	-3.97812E-004	0.00000E+000	-2.51252E-004	-2.40040E-001	6.31842E-001	3.57730E+000	9	...........
	6	0.093333	6.23469E-001	-4.00484E-004	0.00000E+000	-2.49689E-004	-2.40040E-001	6.23693E-001	3.57730E+000	9	...........
	7	0.106667	6.15449E-001	-3.99269E-004	0.00000E+000	-2.45730E-004	-2.40040E-001	6.15672E-001	3.57730E+000	9	...........
	8	0.12	6.07533E-001	-3.97845E-004	0.00000E+000	-2.41704E-004	-2.40040E-001	6.07798E-001	3.57730E+000	9	...........
	9	0.133333	5.99738E-001	-3.97454E-004	0.00000E+000	-2.38368E-004	-2.40040E-001	5.99976E-001	3.57730E+000	9	...........
	10	0.146667	5.92010E-001	-4.00103E-004	0.00000E+000	-2.36865E-004	-2.40040E-001	5.92256E-001	3.57730E+000	9	...........
	11	0.16	5.84334E-001	-3.97838E-004	0.00000E+000	-2.32470E-004	-2.40040E-001	5.84570E-001	3.57730E+000	9	...........
	12	0.173333	5.76733E-001	-3.98622E-004	0.00000E+000	-2.29899E-004	-2.40040E-001	5.76978E-001	3.57730E+000	9	...........
	13	0.186667	5.69214E-001	-3.98950E-004	0.00000E+000	-2.27088E-004	-2.40040E-001	5.69407E-001	3.57730E+000	9	...........
	14	0.2	5.61697E-001	-3.98760E-004	0.00000E+000	-2.23982E-004	-2.40040E-001	5.61912E-001	3.57670E+000	9	...........
	15	0.213333	5.54200E-001	-3.98051E-004	0.00000E+000	-2.20600E-004	-2.40040E-001	5.54436E-001	3.57610E+000	9	...........
	16	0.226667	5.46818E-001	-3.98435E-004	0.00000E+000	-2.17872E-004	-2.40040E-001	5.47035E-001	3.57610E+000	9	...........
	17	0.24	5.39408E-001	-3.98292E-004	0.00000E+000	-2.14842E-004	-2.40040E-001	5.39650E-001	3.57610E+000	9	...........
	18	0.253333	5.32086E-001	-3.99623E-004	0.00000E+000	-2.12634E-004	-2.40040E-001	5.32326E-001	3.57610E+000	9	...........
	19	0.266667	5.24843E-001	-3.98603E-004	0.00000E+000	-2.09204E-004	-2.40040E-001	5.25097E-001	3.57610E+000	9	...........
	20	0.28	5.17666E-001	-3.99314E-004	0.00000E+000	-2.06711E-004	-2.40040E-001	5.17881E-001	3.57610E+000	9	...........
	21	0.293333	5.10503E-001	-3.99554E-004	0.00000E+000	-2.03974E-004	-2.40040E-001	5.10748E-001	3.57610E+000	9	...........
	22	0.306667	5.03311E-001	-3.99139E-004	0.00000E+000	-2.00891E-004	-2.40040E-001	5.03568E-001	3.57610E+000	9	...........
	23	0.32	4.96191E-001	-3.98865E-004	0.00000E+000	-1.97913E-004	-2.40040E-001	4.96426E-001	3.57610E+000	9	...........
	24	0.333333	4.89191E-001	-3.99893E-004	0.00000E+000	-1.95624E-004	-2.40040E-001	4.89425E-001	3.57610E+000	9	...........
	25	0.346667	4.82428E-001	-3.97778E-004	0.00000E+000	-1.91899E-004	-2.40040E-001	4.82528E-001	3.57610E+000	9	...........
	26	0.36	4.75459E-001	-3.97926E-004	0.00000E+000	-1.89198E-004	-2.40040E-001	4.75556E-001	3.57610E+000	9	...........
	27	0.373333	4.68583E-001	-3.98388E-004	0.00000E+000	-1.86678E-004	-2.40040E-001	4.68677E-001	3.57610E+000	9	...........
	28	0.386667	4.61665E-001	-3.99264E-004	0.00000E+000	-1.84326E-004	-2.40040E-001	4.61763E-001	3.57610E+000	9	...........
	29	0.4	4.54854E-001	-3.97960E-004	0.00000E+000	-1.81014E-004	-2.40040E-001	4.54953E-001	3.57610E+000	9	...........
	30	0.413333	4.48102E-001	-3.99248E-004	0.00000E+000	-1.78904E-004	-2.40040E-001	4.48198E-001	3.57610E+000	9	...........
	31	0.426667	4.41318E-001	-3.99287E-004	0.00000E+000	-1.76212E-004	-2.40040E-001	4.41414E-001	3.57610E+000	9	...........
	32	0.44	4.34556E-001	-3.98154E-004	0.00000E+000	-1.73020E-004	-2.40040E-001	4.34641E-001	3.57610E+000	9	...........
	33	0.453333	4.27865E-001	-3.99687E-004	0.00000E+000	-1.71012E-004	-2.40040E-001	4.27954E-001	3.57610E+000	9	...........
	34	0.466667	4.21199E-001	-3.98533E-004	0.00000E+000	-1.67862E-004	-2.40040E-001	4.21285E-001	3.57610E+000	9	...........
	35	0.48	4.14638E-001	-3.99780E-004	0.00000E+000	-1.65764E-004	-2.40040E-001	4.14723E-001	3.57610E+000	9	...........
	36	0.493333	4.08056E-001	-4.00223E-004	0.00000E+000	-1.63313E-004	-2.40040E-001	4.08141E-001	3.57610E+000	9	...........
	37	0.506667	4.01525E-001	-3.98405E-004	0.00000E+000	-1.59970E-004	-2.40040E-001	4.01605E-001	3.57610E+000	9	...........
	38	0.52	3.94975E-001	-3.99681E-004	0.00000E+000	-1.57864E-004	-2.40040E-001	3.95058E-001	3.57610E+000	9	...........
	39	0.533333	3.88493E-001	-3.99007E-004	0.00000E+000	-1.55012E-004	-2.40040E-001	3.88570E-001	3.57610E+000	9	...........
	40	0.546667	3.82007E-001	-3.99037E-004	0.00000E+000	-1.52435E-004	-2.40040E-001	3.82080E-001	3.57610E+000	9	...........
	41	0.56	3.75659E-001	-3.99814E-004	0.00000E+000	-1.50193E-004	-2.40040E-001	3.75730E-001	3.57610E+000	9	...........
	42	0.573333	3.69327E-001	-3.98433E-004	0.00000E+000	-1.47152E-004	-2.40040E-001	3.69395E-001	3.57610E+000	9	...........
	43	0.586667	3.62913E-001	-3.98486E-004	0.00000E+000	-1.44616E-004	-2.40040E-001	3.62987E-001	3.57610E+000	9	...........
	44	0.6	3.56625E-001	-3.99814E-004	0.00000E+000	-1.42584E-004	-2.40040E-001	3.56689E-001	3.57610E+000	9	...........
	45	0.613333	3.50419E-001	-3.97764E-004	0.00000E+000	-1.39384E-004	-2.40040E-001	3.50482E-001	3.57610E+000	9	...........
	46	0.626667	3.44174E-001	-3.98123E-004	0.00000E+000	-1.37023E-004	-2.40040E-001	3.44240E-001	3.57610E+000	9	...........
	47	0.64	3.38049E-001	-3.98452E-004	0.00000E+000	-1.34696E-004	-2.40040E-001	3.38110E-001	3.57610E+000	9	...........
	48	0.653333	3.31953E-001	-3.96774E-004	0.00000E+000	-1.31710E-004	-2.40040E-001	3.32017E-001	3.57610E+000	9	...........
	49	0.666667	3.25772E-001	-3.99195E-004	0.00000E+000	-1.30046E-004	-2.40040E-001	3.25839E-001	3.57610E+000	9	...........
	50	0.68	3.19750E-001	-3.98771E-004	0.00000E+000	-1.27507E-004	-2.40040E-001	3.19807E-001	3.57610E+000	9	...........
	51	0.693333	3.13756E-001	-3.97733E-004	0.00000E+000	-1.24791E-004	-2.40040E-001	3.13822E-001	3.57610E+000	9	...........
	52	0.706667	3.07697E-001	-3.99745E-004	0.00000E+000	-1.23000E-004	-2.40040E-001	3.07763E-001	3.57610E+000	9	...........
	53	0.72	3.01757E-001	-3.99103E-004	0.00000E+000	-1.20432E-004	-2.40040E-001	3.01817E-001	3.57610E+000	9	...........
	54	0.733333	2.95868E-001	-3.99070E-004	0.00000E+000	-1.18072E-004	-2.40040E-001	2.95932E-001	3.57610E+000	9	...........
	55	0.746667	2.89952E-001	-3.99168E-004	0.00000E+000	-1.15740E-004	-2.40040E-001	2.90007E-001	3.57610E+000	9	...........
	56	0.76	2.83971E-001	-3.97983E-004	0.00000E+000	-1.13016E-004	-2.40040E-001	2.84034E-001	3.57610E+000	9	...........
	57	0.773333	2.78129E-001	-3.99317E-004	0.00000E+000	-1.11062E-004	-2.40040E-001	2.78184E-001	3.57610E+000	9	...........
	58	0.786667	2.72294E-001	-3.99778E-004	0.00000E+000	-1.08857E-004	-2.40040E-001	2.72351E-001	3.57610E+000	9	...........
	59	0.8	2.66496E-001	-3.98758E-004	0.00000E+000	-1.06267E-004	-2.40040E-001	2.66557E-001	3.57610E+000	9	...........
	60	0.813333	2.60782E-001	-3.98939E-004	0.00000E+000	-1.04036E-004	-2.40040E-001	2.60834E-001	3.57610E+000	9	...........
	61	0.826667	2.55065E-001	-3.98025E-004	0.00000E+000	-1.01522E-004	-2.40040E-001	2.55122E-001	3.57610E+000	9	...........
	62	0.84	2.49419E-001	-3.97805E-004	0.00000E+000	-9.92203E-005	-2.40040E-001	2.49475E-001	3.57610E+000	9	...........
	63	0.853333	2.43819E-001	-3.98859E-004	0.00000E+000	-9.72496E-005	-2.40040E-001	2.43868E-001	3.57610E+000	9	...........
	64	0.866667	2.38356E-001	-3.99132E-004	0.00000E+000	-9.51354E-005	-2.40040E-001	2.38396E-001	3.57610E+000	9	...........
	65	0.88	2.32774E-001	-3.99787E-004	0.00000E+000	-9.30601E-005	-2.40040E-001	2.32819E-001	3.57610E+000	9	...........
	66	0.893333	2.27286E-001	-4.00340E-004	0.00000E+000	-9.09918E-005	-2.40040E-001	2.27329E-001	3.57610E+000	9	...........
	67	0.906667	2.21760E-001	-3.97251E-004	0.00000E+000	-8.80945E-005	-2.40040E-001	2.21798E-001	3.57610E+000	9	...........
	68	0.92	2.16283E-001	-3.98889E-004	0.00000E+000	-8.62730E-005	-2.40040E-001	2.16322E-001	3.57610E+000	9	...........
	69	0.933333	2.10795E-001	-3.98270E-004	0.00000E+000	-8.39532E-005	-2.40040E-001	2.10830E-001	3.57610E+000	9	...........
	70	0.946667	2.05395E-001	-3.99830E-004	0.00000E+000	-8.21230E-005	-2.40040E-001	2.05433E-001	3.57610E+000	9	...........
	71	0.96	1.99984E-001	-3.99384E-004	0.00000E+000	-7.98705E-005	-2.40040E-001	2.00024E-001	3.57610E+000	9	...........
	72	0.97333	1.94583E-001	-3.97924E-004	0.00000E+000	-7.74291E-005	-2.40040E-001	1.94621E-001	3.57610E+000	9	...........
	73	0.98667	1.89267E-001	-3.99669E-004	0.00000E+000	-7.56443E-005	-2.40040E-001	1.89303E-001	3.57610E+000	9	...........
	74	1	1.84002E-001	-3.98693E-004	0.00000E+000	-7.33602E-005	-2.40040E-001	1.84037E-001	3.57610E+000	9	...........
	75	1.01333	1.78731E-001	-4.00169E-004	0.00000E+000	-7.15227E-005	-2.40040E-001	1.78768E-001	3.57610E+000	9	...........
	76	1.02667	1.73484E-001	-3.98785E-004	0.00000E+000	-6.91828E-005	-2.40040E-001	1.73513E-001	3.57610E+000	9	...........
	77	1.04	1.68224E-001	-3.98954E-004	0.00000E+000	-6.71135E-005	-2.40040E-001	1.68248E-001	3.57610E+000	9	...........
	78	1.05333	1.63068E-001	-3.98916E-004	0.00000E+000	-6.50504E-005	-2.40040E-001	1.63098E-001	3.57610E+000	9	...........
	79	1.06667	1.57917E-001	-3.99095E-004	0.00000E+000	-6.30239E-005	-2.40040E-001	1.57941E-001	3.57610E+000	9	...........
	80	1.08	1.52866E-001	-3.98801E-004	0.00000E+000	-6.09633E-005	-2.40040E-001	1.52893E-001	3.57610E+000	9	...........
	81	1.09333	1.47758E-001	-4.00456E-004	0.00000E+000	-5.91704E-005	-2.40040E-001	1.47783E-001	3.57610E+000	9	...........
	82	1.10667	1.42597E-001	-3.99696E-004	0.00000E+000	-5.69955E-005	-2.40040E-001	1.42623E-001	3.57610E+000	9	...........
	83	1.12	1.37540E-001	-3.99586E-004	0.00000E+000	-5.49590E-005	-2.40040E-001	1.37563E-001	3.57610E+000	9	...........
	84	1.13333	1.32619E-001	-3.98406E-004	0.00000E+000	-5.28363E-005	-2.40040E-001	1.32642E-001	3.57610E+000	9	...........
	85	1.14667	1.27754E-001	-3.99275E-004	0.00000E+000	-5.10091E-005	-2.40040E-001	1.27774E-001	3.57610E+000	9	...........
	86	1.16	1.22793E-001	-3.99857E-004	0.00000E+000	-4.90995E-005	-2.40040E-001	1.22806E-001	3.57610E+000	9	...........
	87	1.17333	1.17903E-001	-3.97648E-004	0.00000E+000	-4.68840E-005	-2.40040E-001	1.17916E-001	3.57610E+000	9	...........
	88	1.18667	1.13015E-001	-3.99514E-004	0.00000E+000	-4.51509E-005	-2.40040E-001	1.13034E-001	3.57610E+000	9	...........
	89	1.2	1.08114E-001	-3.99089E-004	0.00000E+000	-4.31470E-005	-2.40040E-001	1.08133E-001	3.57620E+000	9	...........
	90	1.21333	1.03202E-001	-4.01074E-004	0.00000E+000	-4.13916E-005	-2.40040E-001	1.03217E-001	3.57630E+000	9	...........
	91	1.22667	9.83636E-002	-3.98651E-004	0.00000E+000	-3.92128E-005	-2.40040E-001	9.83810E-002	3.57630E+000	9	...........
	92	1.24	9.36473E-002	-3.99493E-004	0.00000E+000	-3.74114E-005	-2.40040E-001	9.36655E-002	3.57630E+000	9	...........
	93	1.25333	8.89206E-002	-3.98642E-004	0.00000E+000	-3.54475E-005	-2.40040E-001	8.89380E-002	3.57630E+000	9	...........
	94	1.26667	8.42263E-002	-4.00074E-004	0.00000E+000	-3.36968E-005	-2.40040E-001	8.42362E-002	3.57630E+000	9	...........
	95	1.28	7.95489E-002	-3.99266E-004	0.00000E+000	-3.17612E-005	-2.40040E-001	7.95514E-002	3.57630E+000	9	...........
	96	1.29333	7.49197E-002	-3.99149E-004	0.00000E+000	-2.99041E-005	-2.40040E-001	7.49282E-002	3.57630E+000	9	...........
	97	1.30667	7.02355E-002	-3.99485E-004	0.00000E+000	-2.80580E-005	-2.40040E-001	7.02395E-002	3.57630E+000	9	...........
	98	1.32	6.55395E-002	-3.99502E-004	0.00000E+000	-2.61832E-005	-2.40040E-001	6.55512E-002	3.57630E+000	9	...........
	99	1.33333	6.09488E-002	-3.98646E-004	0.00000E+000	-2.42970E-005	-2.40040E-001	6.09613E-002	3.57630E+000	9	...........
	100	1.34667	5.63579E-002	-3.98762E-004	0.00000E+000	-2.24734E-005	-2.40040E-001	5.63676E-002	3.57630E+000	9	...........
	101	1.36	5.17573E-002	-3.97986E-004	0.00000E+000	-2.05987E-005	-2.40040E-001	5.17672E-002	3.57630E+000	9	...........
	102	1.37333	4.72872E-002	-3.98809E-004	0.00000E+000	-1.88586E-005	-2.40040E-001	4.72930E-002	3.57630E+000	9	...........
	103	1.38667	4.28347E-002	-3.99085E-004	0.00000E+000	-1.70947E-005	-2.40040E-001	4.28448E-002	3.57630E+000	9	...........
	104	1.4	3.83222E-002	-3.99464E-004	0.00000E+000	-1.53083E-005	-2.40040E-001	3.83221E-002	3.57630E+000	9	...........
	105	1.41333	3.39077E-002	-3.97937E-004	0.00000E+000	-1.34931E-005	-2.40040E-001	3.39106E-002	3.57630E+000	9	...........
	106	1.42667	2.94532E-002	-4.00078E-004	0.00000E+000	-1.17836E-005	-2.40040E-001	2.94512E-002	3.57630E+000	9	...........
	107	1.44	2.50219E-002	-3.98423E-004	0.00000E+000	-9.96928E-006	-2.40040E-001	2.50207E-002	3.57630E+000	9	...........
	108	1.45333	2.06703E-002	-3.97958E-004	0.00000E+000	-8.22590E-006	-2.40040E-001	2.06643E-002	3.57630E+000	9	...........
	109	1.46667	1.62638E-002	-3.99606E-004	0.00000E+000	-6.49911E-006	-2.40040E-001	1.62553E-002	3.57630E+000	9	...........
	110	1.48	1.19006E-002	-3.98527E-004	0.00000E+000	-4.74272E-006	-2.40040E-001	1.18928E-002	3.57630E+000	9	...........
	111	1.49333	7.54513E-003	-3.99523E-004	0.00000E+000	-3.01445E-006	-2.40040E-001	7.52911E-003	3.57630E+000	9	...........
	112	1.50667	3.26834E-003	-3.99130E-004	0.00000E+000	-1.30449E-006	-2.40040E-001	3.24892E-003	3.57630E+000	9	...........
	113	1.51167	3.61864E-004	-4.00993E-004	0.00000E+000	-1.45105E-007	-2.40040E-001	3.40880E-004	3.57630E+000	9	...........
STARTTIMEOFFSET	QUANT	1237.429	Start Time Offset (s)
