EXPLAIN
TAG	PWR800_DISCHARGE
TITLE	LABEL	PWR Cyclic Charge Discharge (Cell) - Discharge Step	Test &Identifier
DATE	LABEL	12-7-2017	Date
TIME	LABEL	15:01:47	Time
NOTES	NOTES	3	&Notes...
	supercap test cell
	0.4mg
	6M KOH
PSTAT	PSTAT	IFC5000-01520	Potentiostat
CAPACITY	QUANT	1.00000E-003	Capacity (A-hr)
CELLTYPE	SELECTOR	1	&Cell Type
WORKINGCONNECTION	SELECTOR	0	&Working Lead
MAXDISCHARGETIME	VARIABLEANDUNITS	1.00000E+002	s	1.00000E+002	second(s)	Max &Discharge Time
DISCHARGEMODE	MULTIPARAM	0	4.00000E-004	&Discharge Mode	Constant Current	Amp(s)
SAMPLETIME	QUANT	1.00000E-002	Sa&mple Period (s)
DISCHARGESTOPAT1	MULTIPARAM	3	0.00000E+000	Discharge Stop At &1	Voltage < Limit	V
DISCHARGESTOPAT2	MULTIPARAM	0	0.00000E+000	Discharge Stop At &2	None	N/A
AESBHCSELECTOR	TOGGLE	F	Save Both Half Cells
IRCOMP	TOGGLE	F	IR &Measure
EOC	QUANT	0	Open Circuit (V)
SEQUENCER	TOGGLE	TRUE	Run as Sequence
PSTATMODEL	IQUANT	53	Pstat Model
PSTATSECTION	LABEL	IFC5000-01520	Pstat Section
PSTATSERIALNO	LABEL	01520	Pstat Serial Number
CTRLMODE	IQUANT	0	Control Mode
ELECTROMETER	IQUANT	1	RE=0 or CS=1
IESTAB	IQUANT	0	I/E Stability
CASPEED	IQUANT	4	Control Amp Speed
CONVENTION	IQUANT	1	Current Convention
ICHRANGE	IQUANT	2	Ich Range
ICHRANGEMODE	TOGGLE	T	Ich Auto Range
ICHOFFSETENABLE	TOGGLE	F	Ich Offset Enable
ICHOFFSET	QUANT	0	Ich Offset (V)
ICHFILTER	IQUANT	1	Ich Filter
VCHRANGE	IQUANT	2	Vch Range
VCHRANGEMODE	TOGGLE	T	Vch Auto Range
VCHOFFSETENABLE	TOGGLE	F	Vch Offset Enable
VCHOFFSET	QUANT	0	Vch Offset (V)
VCHFILTER	IQUANT	1	Vch Filter
IERANGELOWERLIMIT	IQUANT	9	I/E Range Lower Limit
IERANGEMODE	TOGGLE	F	I/E AutoRange
IERANGE	IQUANT	9	I/E Range
ACHSELECT	IQUANT	1	Ach Select
ACHRANGE	IQUANT	2	Ach Range
ACHOFFSETENABLE	TOGGLE	F	Ach Offset Enable
ACHOFFSET	QUANT	0	Ach Offset (V)
ACHFILTER	IQUANT	1	Ach Filter
CABLEID	IQUANT	14	Cable ID
DCCALDATE	LABEL	5-7-2017	DC Calibration Date
ACCALDATE	LABEL	12/3/2015	AC Calibration Date
FRAMEWORKVERSION	QUANT	7.01	Framework Version
INSTRUMENTVERSION	LABEL	4.00	Instrument Version
CURVE	TABLE	108
	Pt	T	Vf	Im	Vu	Pwr	Sig	Ach	Temp	IERange	Over
	#	s	V	A	V	W	V	V	deg C	#	bits
	0	0.013333	6.92210E-001	-3.97616E-004	0.00000E+000	-2.75234E-004	-2.40040E-001	6.92425E-001	3.57740E+000	9	...........
	1	0.026667	6.79205E-001	-3.99519E-004	0.00000E+000	-2.71355E-004	-2.40040E-001	6.79428E-001	3.57740E+000	9	...........
	2	0.04	6.67854E-001	-3.99345E-004	0.00000E+000	-2.66704E-004	-2.40040E-001	6.68077E-001	3.57740E+000	9	...........
	3	0.053333	6.57434E-001	-3.99569E-004	0.00000E+000	-2.62690E-004	-2.40040E-001	6.57638E-001	3.57740E+000	9	...........
	4	0.066667	6.47657E-001	-3.97032E-004	0.00000E+000	-2.57140E-004	-2.40040E-001	6.47858E-001	3.57740E+000	9	...........
	5	0.08	6.38279E-001	-3.96993E-004	0.00000E+000	-2.53392E-004	-2.40040E-001	6.38486E-001	3.57740E+000	9	...........
	6	0.093333	6.29244E-001	-3.98473E-004	0.00000E+000	-2.50737E-004	-2.40040E-001	6.29464E-001	3.57740E+000	9	...........
	7	0.106667	6.20471E-001	-3.97158E-004	0.00000E+000	-2.46425E-004	-2.40040E-001	6.20657E-001	3.57740E+000	9	...........
	8	0.12	6.11805E-001	-3.99766E-004	0.00000E+000	-2.44579E-004	-2.40040E-001	6.12054E-001	3.57740E+000	9	...........
	9	0.133333	6.03271E-001	-3.99116E-004	0.00000E+000	-2.40775E-004	-2.40040E-001	6.03495E-001	3.57740E+000	9	...........
	10	0.146667	5.94946E-001	-3.99583E-004	0.00000E+000	-2.37731E-004	-2.40040E-001	5.95152E-001	3.57740E+000	9	...........
	11	0.16	5.86772E-001	-3.97373E-004	0.00000E+000	-2.33167E-004	-2.40040E-001	5.86976E-001	3.57740E+000	9	...........
	12	0.173333	5.78613E-001	-3.99050E-004	0.00000E+000	-2.30895E-004	-2.40040E-001	5.78826E-001	3.57740E+000	9	...........
	13	0.186667	5.70586E-001	-3.99665E-004	0.00000E+000	-2.28043E-004	-2.40040E-001	5.70792E-001	3.57740E+000	9	...........
	14	0.2	5.62592E-001	-3.99351E-004	0.00000E+000	-2.24672E-004	-2.40040E-001	5.62836E-001	3.57740E+000	9	...........
	15	0.213333	5.54561E-001	-3.99040E-004	0.00000E+000	-2.21292E-004	-2.40040E-001	5.54795E-001	3.57740E+000	9	...........
	16	0.226667	5.46705E-001	-3.99046E-004	0.00000E+000	-2.18160E-004	-2.40040E-001	5.46909E-001	3.57740E+000	9	...........
	17	0.24	5.38917E-001	-3.98533E-004	0.00000E+000	-2.14776E-004	-2.40040E-001	5.39135E-001	3.57740E+000	9	...........
	18	0.253333	5.31164E-001	-3.99046E-004	0.00000E+000	-2.11959E-004	-2.40040E-001	5.31369E-001	3.57740E+000	9	...........
	19	0.266667	5.23499E-001	-3.99043E-004	0.00000E+000	-2.08898E-004	-2.40040E-001	5.23690E-001	3.57740E+000	9	...........
	20	0.28	5.15940E-001	-3.97954E-004	0.00000E+000	-2.05320E-004	-2.40040E-001	5.16099E-001	3.57740E+000	9	...........
	21	0.293333	5.08303E-001	-3.97626E-004	0.00000E+000	-2.02114E-004	-2.40040E-001	5.08491E-001	3.57740E+000	9	...........
	22	0.306667	5.00734E-001	-3.98359E-004	0.00000E+000	-1.99472E-004	-2.40040E-001	5.00938E-001	3.57740E+000	9	...........
	23	0.32	4.93250E-001	-3.98829E-004	0.00000E+000	-1.96722E-004	-2.40040E-001	4.93414E-001	3.57740E+000	9	...........
	24	0.333333	4.85850E-001	-3.99538E-004	0.00000E+000	-1.94115E-004	-2.40040E-001	4.85998E-001	3.57740E+000	9	...........
	25	0.346667	4.78550E-001	-3.99014E-004	0.00000E+000	-1.90948E-004	-2.40040E-001	4.78645E-001	3.57740E+000	9	...........
	26	0.36	4.71159E-001	-3.99493E-004	0.00000E+000	-1.88224E-004	-2.40040E-001	4.71256E-001	3.57740E+000	9	...........
	27	0.373333	4.63789E-001	-3.98754E-004	0.00000E+000	-1.84938E-004	-2.40040E-001	4.63879E-001	3.57740E+000	9	...........
	28	0.386667	4.56509E-001	-3.98632E-004	0.00000E+000	-1.81979E-004	-2.40040E-001	4.56603E-001	3.57661E+000	9	...........
	29	0.4	4.49247E-001	-3.96950E-004	0.00000E+000	-1.78328E-004	-2.40040E-001	4.49336E-001	3.57650E+000	9	...........
	30	0.413333	4.42063E-001	-3.99451E-004	0.00000E+000	-1.76583E-004	-2.40040E-001	4.42153E-001	3.57650E+000	9	...........
	31	0.426667	4.34900E-001	-3.98162E-004	0.00000E+000	-1.73161E-004	-2.40040E-001	4.34987E-001	3.57650E+000	9	...........
	32	0.44	4.27838E-001	-3.99718E-004	0.00000E+000	-1.71014E-004	-2.40040E-001	4.27921E-001	3.57650E+000	9	...........
	33	0.453333	4.20758E-001	-3.99324E-004	0.00000E+000	-1.68019E-004	-2.40040E-001	4.20843E-001	3.57650E+000	9	...........
	34	0.466667	4.13692E-001	-3.99314E-004	0.00000E+000	-1.65193E-004	-2.40040E-001	4.13771E-001	3.57650E+000	9	...........
	35	0.48	4.06679E-001	-3.99965E-004	0.00000E+000	-1.62657E-004	-2.40040E-001	4.06756E-001	3.57650E+000	9	...........
	36	0.493333	3.99771E-001	-3.97820E-004	0.00000E+000	-1.59037E-004	-2.40040E-001	3.99844E-001	3.57650E+000	9	...........
	37	0.506667	3.92817E-001	-3.98694E-004	0.00000E+000	-1.56614E-004	-2.40040E-001	3.92895E-001	3.57650E+000	9	...........
	38	0.52	3.85890E-001	-3.99307E-004	0.00000E+000	-1.54089E-004	-2.40040E-001	3.85959E-001	3.57650E+000	9	...........
	39	0.533333	3.79097E-001	-3.98126E-004	0.00000E+000	-1.50928E-004	-2.40040E-001	3.79170E-001	3.57650E+000	9	...........
	40	0.546667	3.72332E-001	-3.98546E-004	0.00000E+000	-1.48391E-004	-2.40040E-001	3.72400E-001	3.57650E+000	9	...........
	41	0.56	3.65640E-001	-3.98724E-004	0.00000E+000	-1.45790E-004	-2.40040E-001	3.65708E-001	3.57650E+000	9	...........
	42	0.573333	3.58967E-001	-3.98586E-004	0.00000E+000	-1.43079E-004	-2.40040E-001	3.59030E-001	3.57650E+000	9	...........
	43	0.586667	3.52364E-001	-3.98739E-004	0.00000E+000	-1.40501E-004	-2.40040E-001	3.52431E-001	3.57650E+000	9	...........
	44	0.6	3.45760E-001	-3.97950E-004	0.00000E+000	-1.37595E-004	-2.40040E-001	3.45828E-001	3.57650E+000	9	...........
	45	0.613333	3.39167E-001	-3.98350E-004	0.00000E+000	-1.35107E-004	-2.40040E-001	3.39239E-001	3.57650E+000	9	...........
	46	0.626667	3.32623E-001	-3.98780E-004	0.00000E+000	-1.32643E-004	-2.40040E-001	3.32683E-001	3.57650E+000	9	...........
	47	0.64	3.26144E-001	-3.99440E-004	0.00000E+000	-1.30275E-004	-2.40040E-001	3.26205E-001	3.57650E+000	9	...........
	48	0.653333	3.19654E-001	-3.99287E-004	0.00000E+000	-1.27633E-004	-2.40040E-001	3.19715E-001	3.57650E+000	9	...........
	49	0.666667	3.13166E-001	-3.99011E-004	0.00000E+000	-1.24957E-004	-2.40040E-001	3.13229E-001	3.57650E+000	9	...........
	50	0.68	3.06665E-001	-3.98095E-004	0.00000E+000	-1.22082E-004	-2.40040E-001	3.06719E-001	3.57650E+000	9	...........
	51	0.693333	3.00244E-001	-3.99121E-004	0.00000E+000	-1.19834E-004	-2.40040E-001	3.00299E-001	3.57650E+000	9	...........
	52	0.706667	2.93915E-001	-3.98832E-004	0.00000E+000	-1.17223E-004	-2.40040E-001	2.93969E-001	3.57650E+000	9	...........
	53	0.72	2.87629E-001	-3.99420E-004	0.00000E+000	-1.14885E-004	-2.40040E-001	2.87687E-001	3.57650E+000	9	...........
	54	0.733333	2.81488E-001	-3.99180E-004	0.00000E+000	-1.12364E-004	-2.40040E-001	2.81546E-001	3.57650E+000	9	...........
	55	0.746667	2.75390E-001	-3.98636E-004	0.00000E+000	-1.09780E-004	-2.40040E-001	2.75441E-001	3.57650E+000	9	...........
	56	0.76	2.69232E-001	-3.98629E-004	0.00000E+000	-1.07324E-004	-2.40040E-001	2.69284E-001	3.57650E+000	9	...........
	57	0.773333	2.63084E-001	-3.97228E-004	0.00000E+000	-1.04504E-004	-2.40040E-001	2.63139E-001	3.57650E+000	9	...........
	58	0.786667	2.56997E-001	-3.98575E-004	0.00000E+000	-1.02433E-004	-2.40040E-001	2.57048E-001	3.57650E+000	9	...........
	59	0.8	2.51001E-001	-3.99390E-004	0.00000E+000	-1.00247E-004	-2.40040E-001	2.51050E-001	3.57650E+000	9	...........
	60	0.813333	2.44935E-001	-3.99195E-004	0.00000E+000	-9.77766E-005	-2.40040E-001	2.44980E-001	3.57650E+000	9	...........
	61	0.826667	2.38961E-001	-3.99083E-004	0.00000E+000	-9.53654E-005	-2.40040E-001	2.39003E-001	3.57650E+000	9	...........
	62	0.84	2.32974E-001	-3.98385E-004	0.00000E+000	-9.28136E-005	-2.40040E-001	2.33020E-001	3.57650E+000	9	...........
	63	0.853333	2.27057E-001	-3.98264E-004	0.00000E+000	-9.04288E-005	-2.40040E-001	2.27100E-001	3.57650E+000	9	...........
	64	0.866667	2.21275E-001	-3.98656E-004	0.00000E+000	-8.82128E-005	-2.40040E-001	2.21315E-001	3.57650E+000	9	...........
	65	0.88	2.15542E-001	-3.99910E-004	0.00000E+000	-8.61974E-005	-2.40040E-001	2.15588E-001	3.57650E+000	9	...........
	66	0.893333	2.09811E-001	-3.98615E-004	0.00000E+000	-8.36338E-005	-2.40040E-001	2.09854E-001	3.57650E+000	9	...........
	67	0.906667	2.04074E-001	-3.99013E-004	0.00000E+000	-8.14282E-005	-2.40040E-001	2.04113E-001	3.57650E+000	9	...........
	68	0.92	1.98453E-001	-3.98610E-004	0.00000E+000	-7.91055E-005	-2.40040E-001	1.98493E-001	3.57650E+000	9	...........
	69	0.933333	1.92795E-001	-3.99683E-004	0.00000E+000	-7.70570E-005	-2.40040E-001	1.92833E-001	3.57650E+000	9	...........
	70	0.946667	1.87106E-001	-3.97764E-004	0.00000E+000	-7.44241E-005	-2.40040E-001	1.87141E-001	3.57650E+000	9	...........
	71	0.96	1.81506E-001	-3.99188E-004	0.00000E+000	-7.24549E-005	-2.40040E-001	1.81541E-001	3.57650E+000	9	...........
	72	0.97333	1.75955E-001	-3.98914E-004	0.00000E+000	-7.01909E-005	-2.40040E-001	1.75990E-001	3.57650E+000	9	...........
	73	0.98667	1.70358E-001	-3.98736E-004	0.00000E+000	-6.79279E-005	-2.40040E-001	1.70390E-001	3.57650E+000	9	...........
	74	1	1.64860E-001	-3.98296E-004	0.00000E+000	-6.56632E-005	-2.40040E-001	1.64893E-001	3.57650E+000	9	...........
	75	1.01333	1.59480E-001	-3.98756E-004	0.00000E+000	-6.35935E-005	-2.40040E-001	1.59503E-001	3.57650E+000	9	...........
	76	1.02667	1.54114E-001	-3.98806E-004	0.00000E+000	-6.14615E-005	-2.40040E-001	1.54132E-001	3.57650E+000	9	...........
	77	1.04	1.48670E-001	-3.98841E-004	0.00000E+000	-5.92955E-005	-2.40040E-001	1.48693E-001	3.57650E+000	9	...........
	78	1.05333	1.43353E-001	-3.98251E-004	0.00000E+000	-5.70906E-005	-2.40040E-001	1.43374E-001	3.57650E+000	9	...........
	79	1.06667	1.38021E-001	-3.98584E-004	0.00000E+000	-5.50131E-005	-2.40040E-001	1.38043E-001	3.57650E+000	9	...........
	80	1.08	1.32739E-001	-3.99917E-004	0.00000E+000	-5.30847E-005	-2.40040E-001	1.32758E-001	3.57650E+000	9	...........
	81	1.09333	1.27479E-001	-3.98460E-004	0.00000E+000	-5.07955E-005	-2.40040E-001	1.27503E-001	3.57650E+000	9	...........
	82	1.10667	1.22239E-001	-3.99532E-004	0.00000E+000	-4.88383E-005	-2.40040E-001	1.22266E-001	3.57650E+000	9	...........
	83	1.12	1.16948E-001	-3.99512E-004	0.00000E+000	-4.67220E-005	-2.40040E-001	1.16970E-001	3.57650E+000	9	...........
	84	1.13333	1.11811E-001	-3.99366E-004	0.00000E+000	-4.46536E-005	-2.40040E-001	1.11835E-001	3.57650E+000	9	...........
	85	1.14667	1.06656E-001	-3.99898E-004	0.00000E+000	-4.26517E-005	-2.40040E-001	1.06680E-001	3.57650E+000	9	...........
	86	1.16	1.01569E-001	-3.99134E-004	0.00000E+000	-4.05395E-005	-2.40040E-001	1.01588E-001	3.57650E+000	9	...........
	87	1.17333	9.65531E-002	-3.98441E-004	0.00000E+000	-3.84707E-005	-2.40040E-001	9.65701E-002	3.57650E+000	9	...........
	88	1.18667	9.14855E-002	-3.98791E-004	0.00000E+000	-3.64836E-005	-2.40040E-001	9.14987E-002	3.57650E+000	9	...........
	89	1.2	8.64622E-002	-3.97864E-004	0.00000E+000	-3.44002E-005	-2.40040E-001	8.64760E-002	3.57650E+000	9	...........
	90	1.21333	8.15315E-002	-3.98969E-004	0.00000E+000	-3.25285E-005	-2.40040E-001	8.15450E-002	3.57650E+000	9	...........
	91	1.22667	7.66446E-002	-3.99293E-004	0.00000E+000	-3.06036E-005	-2.40040E-001	7.66496E-002	3.57650E+000	9	...........
	92	1.24	7.17873E-002	-3.97317E-004	0.00000E+000	-2.85224E-005	-2.40040E-001	7.17988E-002	3.57650E+000	9	...........
	93	1.25333	6.70546E-002	-3.98530E-004	0.00000E+000	-2.67233E-005	-2.40040E-001	6.70662E-002	3.57650E+000	9	...........
	94	1.26667	6.21909E-002	-3.98336E-004	0.00000E+000	-2.47729E-005	-2.40040E-001	6.21914E-002	3.57650E+000	9	...........
	95	1.28	5.73491E-002	-3.99180E-004	0.00000E+000	-2.28926E-005	-2.40040E-001	5.73504E-002	3.57650E+000	9	...........
	96	1.29333	5.24963E-002	-3.99139E-004	0.00000E+000	-2.09533E-005	-2.40040E-001	5.25007E-002	3.57650E+000	9	...........
	97	1.30667	4.77779E-002	-3.98932E-004	0.00000E+000	-1.90602E-005	-2.40040E-001	4.77840E-002	3.57650E+000	9	...........
	98	1.32	4.30863E-002	-3.99417E-004	0.00000E+000	-1.72094E-005	-2.40040E-001	4.30920E-002	3.57650E+000	9	...........
	99	1.33333	3.84410E-002	-3.97934E-004	0.00000E+000	-1.52970E-005	-2.40040E-001	3.84398E-002	3.57650E+000	9	...........
	100	1.34667	3.37556E-002	-3.98515E-004	0.00000E+000	-1.34521E-005	-2.40040E-001	3.37524E-002	3.57650E+000	9	...........
	101	1.36	2.90723E-002	-3.98891E-004	0.00000E+000	-1.15967E-005	-2.40040E-001	2.90675E-002	3.57650E+000	9	...........
	102	1.37333	2.44776E-002	-3.98144E-004	0.00000E+000	-9.74561E-006	-2.40040E-001	2.44684E-002	3.57650E+000	9	...........
	103	1.38667	1.99215E-002	-3.98250E-004	0.00000E+000	-7.93375E-006	-2.40040E-001	1.99140E-002	3.57703E+000	9	...........
	104	1.4	1.53322E-002	-4.00189E-004	0.00000E+000	-6.13579E-006	-2.40040E-001	1.53204E-002	3.57710E+000	9	...........
	105	1.41333	1.08644E-002	-3.98958E-004	0.00000E+000	-4.33443E-006	-2.40040E-001	1.08477E-002	3.57710E+000	9	...........
	106	1.42667	6.38594E-003	-3.99471E-004	0.00000E+000	-2.55100E-006	-2.40040E-001	6.36956E-003	3.57710E+000	9	...........
	107	1.44	1.87165E-003	-3.98373E-004	0.00000E+000	-7.45616E-007	-2.40040E-001	1.85383E-003	3.57710E+000	9	...........
STARTTIMEOFFSET	QUANT	2056.631	Start Time Offset (s)
