EXPLAIN
TAG	PWR800_DISCHARGE
TITLE	LABEL	PWR Cyclic Charge Discharge (Cell) - Discharge Step	Test &Identifier
DATE	LABEL	12-7-2017	Date
TIME	LABEL	14:58:26	Time
NOTES	NOTES	3	&Notes...
	supercap test cell
	0.4mg
	6M KOH
PSTAT	PSTAT	IFC5000-01520	Potentiostat
CAPACITY	QUANT	1.00000E-003	Capacity (A-hr)
CELLTYPE	SELECTOR	1	&Cell Type
WORKINGCONNECTION	SELECTOR	0	&Working Lead
MAXDISCHARGETIME	VARIABLEANDUNITS	1.00000E+002	s	1.00000E+002	second(s)	Max &Discharge Time
DISCHARGEMODE	MULTIPARAM	0	4.00000E-004	&Discharge Mode	Constant Current	Amp(s)
SAMPLETIME	QUANT	1.00000E-002	Sa&mple Period (s)
DISCHARGESTOPAT1	MULTIPARAM	3	0.00000E+000	Discharge Stop At &1	Voltage < Limit	V
DISCHARGESTOPAT2	MULTIPARAM	0	0.00000E+000	Discharge Stop At &2	None	N/A
AESBHCSELECTOR	TOGGLE	F	Save Both Half Cells
IRCOMP	TOGGLE	F	IR &Measure
EOC	QUANT	0	Open Circuit (V)
SEQUENCER	TOGGLE	TRUE	Run as Sequence
PSTATMODEL	IQUANT	53	Pstat Model
PSTATSECTION	LABEL	IFC5000-01520	Pstat Section
PSTATSERIALNO	LABEL	01520	Pstat Serial Number
CTRLMODE	IQUANT	0	Control Mode
ELECTROMETER	IQUANT	1	RE=0 or CS=1
IESTAB	IQUANT	0	I/E Stability
CASPEED	IQUANT	4	Control Amp Speed
CONVENTION	IQUANT	1	Current Convention
ICHRANGE	IQUANT	2	Ich Range
ICHRANGEMODE	TOGGLE	T	Ich Auto Range
ICHOFFSETENABLE	TOGGLE	F	Ich Offset Enable
ICHOFFSET	QUANT	0	Ich Offset (V)
ICHFILTER	IQUANT	1	Ich Filter
VCHRANGE	IQUANT	2	Vch Range
VCHRANGEMODE	TOGGLE	T	Vch Auto Range
VCHOFFSETENABLE	TOGGLE	F	Vch Offset Enable
VCHOFFSET	QUANT	0	Vch Offset (V)
VCHFILTER	IQUANT	1	Vch Filter
IERANGELOWERLIMIT	IQUANT	9	I/E Range Lower Limit
IERANGEMODE	TOGGLE	F	I/E AutoRange
IERANGE	IQUANT	9	I/E Range
ACHSELECT	IQUANT	1	Ach Select
ACHRANGE	IQUANT	2	Ach Range
ACHOFFSETENABLE	TOGGLE	F	Ach Offset Enable
ACHOFFSET	QUANT	0	Ach Offset (V)
ACHFILTER	IQUANT	1	Ach Filter
CABLEID	IQUANT	14	Cable ID
DCCALDATE	LABEL	5-7-2017	DC Calibration Date
ACCALDATE	LABEL	12/3/2015	AC Calibration Date
FRAMEWORKVERSION	QUANT	7.01	Framework Version
INSTRUMENTVERSION	LABEL	4.00	Instrument Version
CURVE	TABLE	110
	Pt	T	Vf	Im	Vu	Pwr	Sig	Ach	Temp	IERange	Over
	#	s	V	A	V	W	V	V	deg C	#	bits
	0	0.013333	6.95346E-001	-4.01077E-004	0.00000E+000	-2.78887E-004	-2.40040E-001	6.95562E-001	3.57770E+000	9	...........
	1	0.026667	6.82462E-001	-3.98436E-004	0.00000E+000	-2.71918E-004	-2.40040E-001	6.82705E-001	3.57770E+000	9	...........
	2	0.04	6.71252E-001	-3.99003E-004	0.00000E+000	-2.67832E-004	-2.40040E-001	6.71484E-001	3.57770E+000	9	...........
	3	0.053333	6.60938E-001	-3.99928E-004	0.00000E+000	-2.64328E-004	-2.40040E-001	6.61172E-001	3.57770E+000	9	...........
	4	0.066667	6.51168E-001	-3.98244E-004	0.00000E+000	-2.59324E-004	-2.40040E-001	6.51384E-001	3.57770E+000	9	...........
	5	0.08	6.41877E-001	-3.99014E-004	0.00000E+000	-2.56118E-004	-2.40040E-001	6.42104E-001	3.57770E+000	9	...........
	6	0.093333	6.32875E-001	-3.98772E-004	0.00000E+000	-2.52373E-004	-2.40040E-001	6.33064E-001	3.57770E+000	9	...........
	7	0.106667	6.24127E-001	-3.99048E-004	0.00000E+000	-2.49057E-004	-2.40040E-001	6.24306E-001	3.57770E+000	9	...........
	8	0.12	6.15516E-001	-4.00222E-004	0.00000E+000	-2.46343E-004	-2.40040E-001	6.15731E-001	3.57770E+000	9	...........
	9	0.133333	6.07041E-001	-3.98477E-004	0.00000E+000	-2.41892E-004	-2.40040E-001	6.07281E-001	3.57770E+000	9	...........
	10	0.146667	5.98771E-001	-3.99391E-004	0.00000E+000	-2.39144E-004	-2.40040E-001	5.98953E-001	3.57770E+000	9	...........
	11	0.16	5.90547E-001	-3.98293E-004	0.00000E+000	-2.35211E-004	-2.40040E-001	5.90760E-001	3.57770E+000	9	...........
	12	0.173333	5.82458E-001	-3.99529E-004	0.00000E+000	-2.32709E-004	-2.40040E-001	5.82671E-001	3.57770E+000	9	...........
	13	0.186667	5.74461E-001	-3.98746E-004	0.00000E+000	-2.29064E-004	-2.40040E-001	5.74661E-001	3.57770E+000	9	...........
	14	0.2	5.66511E-001	-3.98446E-004	0.00000E+000	-2.25724E-004	-2.40040E-001	5.66692E-001	3.57770E+000	9	...........
	15	0.213333	5.58607E-001	-3.98271E-004	0.00000E+000	-2.22477E-004	-2.40040E-001	5.58829E-001	3.57770E+000	9	...........
	16	0.226667	5.50819E-001	-3.98647E-004	0.00000E+000	-2.19582E-004	-2.40040E-001	5.51036E-001	3.57770E+000	9	...........
	17	0.24	5.43158E-001	-3.99864E-004	0.00000E+000	-2.17189E-004	-2.40040E-001	5.43366E-001	3.57770E+000	9	...........
	18	0.253333	5.35406E-001	-3.98579E-004	0.00000E+000	-2.13401E-004	-2.40040E-001	5.35639E-001	3.57770E+000	9	...........
	19	0.266667	5.27789E-001	-3.98927E-004	0.00000E+000	-2.10549E-004	-2.40040E-001	5.28001E-001	3.57770E+000	9	...........
	20	0.28	5.20209E-001	-3.99292E-004	0.00000E+000	-2.07715E-004	-2.40040E-001	5.20426E-001	3.57695E+000	9	...........
	21	0.293333	5.12701E-001	-4.00072E-004	0.00000E+000	-2.05117E-004	-2.40040E-001	5.12925E-001	3.57620E+000	9	...........
	22	0.306667	5.05204E-001	-3.98940E-004	0.00000E+000	-2.01546E-004	-2.40040E-001	5.05469E-001	3.57620E+000	9	...........
	23	0.32	4.97715E-001	-3.98732E-004	0.00000E+000	-1.98455E-004	-2.40040E-001	4.97961E-001	3.57620E+000	9	...........
	24	0.333333	4.90303E-001	-3.99404E-004	0.00000E+000	-1.95829E-004	-2.40040E-001	4.90510E-001	3.57620E+000	9	...........
	25	0.346667	4.83113E-001	-3.98476E-004	0.00000E+000	-1.92509E-004	-2.40040E-001	4.83215E-001	3.57620E+000	9	...........
	26	0.36	4.75844E-001	-3.99511E-004	0.00000E+000	-1.90105E-004	-2.40040E-001	4.75940E-001	3.57620E+000	9	...........
	27	0.373333	4.68618E-001	-3.99498E-004	0.00000E+000	-1.87212E-004	-2.40040E-001	4.68713E-001	3.57620E+000	9	...........
	28	0.386667	4.61377E-001	-3.97587E-004	0.00000E+000	-1.83437E-004	-2.40040E-001	4.61467E-001	3.57620E+000	9	...........
	29	0.4	4.54127E-001	-3.98980E-004	0.00000E+000	-1.81187E-004	-2.40040E-001	4.54221E-001	3.57620E+000	9	...........
	30	0.413333	4.46936E-001	-3.99113E-004	0.00000E+000	-1.78378E-004	-2.40040E-001	4.47031E-001	3.57620E+000	9	...........
	31	0.426667	4.39783E-001	-3.98428E-004	0.00000E+000	-1.75222E-004	-2.40040E-001	4.39868E-001	3.57620E+000	9	...........
	32	0.44	4.32719E-001	-3.99964E-004	0.00000E+000	-1.73072E-004	-2.40040E-001	4.32804E-001	3.57620E+000	9	...........
	33	0.453333	4.25713E-001	-3.98009E-004	0.00000E+000	-1.69438E-004	-2.40040E-001	4.25800E-001	3.57620E+000	9	...........
	34	0.466667	4.18665E-001	-3.97986E-004	0.00000E+000	-1.66623E-004	-2.40040E-001	4.18750E-001	3.57620E+000	9	...........
	35	0.48	4.11631E-001	-3.98246E-004	0.00000E+000	-1.63930E-004	-2.40040E-001	4.11712E-001	3.57620E+000	9	...........
	36	0.493333	4.04737E-001	-3.98131E-004	0.00000E+000	-1.61138E-004	-2.40040E-001	4.04815E-001	3.57620E+000	9	...........
	37	0.506667	3.97732E-001	-3.99503E-004	0.00000E+000	-1.58895E-004	-2.40040E-001	3.97807E-001	3.57620E+000	9	...........
	38	0.52	3.90863E-001	-4.00002E-004	0.00000E+000	-1.56346E-004	-2.40040E-001	3.90938E-001	3.57620E+000	9	...........
	39	0.533333	3.84051E-001	-3.98570E-004	0.00000E+000	-1.53071E-004	-2.40040E-001	3.84125E-001	3.57620E+000	9	...........
	40	0.546667	3.77323E-001	-3.99034E-004	0.00000E+000	-1.50565E-004	-2.40040E-001	3.77396E-001	3.57620E+000	9	...........
	41	0.56	3.70635E-001	-3.97801E-004	0.00000E+000	-1.47439E-004	-2.40040E-001	3.70707E-001	3.57620E+000	9	...........
	42	0.573333	3.63937E-001	-3.98997E-004	0.00000E+000	-1.45210E-004	-2.40040E-001	3.64013E-001	3.57620E+000	9	...........
	43	0.586667	3.57337E-001	-3.98068E-004	0.00000E+000	-1.42244E-004	-2.40040E-001	3.57406E-001	3.57620E+000	9	...........
	44	0.6	3.50774E-001	-3.99487E-004	0.00000E+000	-1.40129E-004	-2.40040E-001	3.50837E-001	3.57620E+000	9	...........
	45	0.613333	3.44199E-001	-3.98579E-004	0.00000E+000	-1.37191E-004	-2.40040E-001	3.44265E-001	3.57620E+000	9	...........
	46	0.626667	3.37670E-001	-3.99025E-004	0.00000E+000	-1.34739E-004	-2.40040E-001	3.37734E-001	3.57620E+000	9	...........
	47	0.64	3.31218E-001	-3.98928E-004	0.00000E+000	-1.32132E-004	-2.40040E-001	3.31277E-001	3.57620E+000	9	...........
	48	0.653333	3.24816E-001	-3.98649E-004	0.00000E+000	-1.29487E-004	-2.40040E-001	3.24876E-001	3.57620E+000	9	...........
	49	0.666667	3.18417E-001	-3.99852E-004	0.00000E+000	-1.27320E-004	-2.40040E-001	3.18475E-001	3.57620E+000	9	...........
	50	0.68	3.12083E-001	-3.99331E-004	0.00000E+000	-1.24625E-004	-2.40040E-001	3.12134E-001	3.57620E+000	9	...........
	51	0.693333	3.05781E-001	-3.98817E-004	0.00000E+000	-1.21951E-004	-2.40040E-001	3.05841E-001	3.57620E+000	9	...........
	52	0.706667	2.99498E-001	-3.98425E-004	0.00000E+000	-1.19327E-004	-2.40040E-001	2.99555E-001	3.57620E+000	9	...........
	53	0.72	2.93259E-001	-3.97737E-004	0.00000E+000	-1.16640E-004	-2.40040E-001	2.93321E-001	3.57620E+000	9	...........
	54	0.733333	2.87018E-001	-3.98097E-004	0.00000E+000	-1.14261E-004	-2.40040E-001	2.87080E-001	3.57620E+000	9	...........
	55	0.746667	2.80814E-001	-3.99082E-004	0.00000E+000	-1.12068E-004	-2.40040E-001	2.80867E-001	3.57620E+000	9	...........
	56	0.76	2.74708E-001	-3.99151E-004	0.00000E+000	-1.09650E-004	-2.40040E-001	2.74759E-001	3.57620E+000	9	...........
	57	0.773333	2.68628E-001	-3.98102E-004	0.00000E+000	-1.06941E-004	-2.40040E-001	2.68685E-001	3.57620E+000	9	...........
	58	0.786667	2.62520E-001	-3.97916E-004	0.00000E+000	-1.04461E-004	-2.40040E-001	2.62576E-001	3.57620E+000	9	...........
	59	0.8	2.56490E-001	-3.98934E-004	0.00000E+000	-1.02323E-004	-2.40040E-001	2.56542E-001	3.57620E+000	9	...........
	60	0.813333	2.50438E-001	-4.00085E-004	0.00000E+000	-1.00196E-004	-2.40040E-001	2.50488E-001	3.57620E+000	9	...........
	61	0.826667	2.44481E-001	-3.99301E-004	0.00000E+000	-9.76216E-005	-2.40040E-001	2.44528E-001	3.57620E+000	9	...........
	62	0.84	2.38613E-001	-3.99390E-004	0.00000E+000	-9.52996E-005	-2.40040E-001	2.38663E-001	3.57620E+000	9	...........
	63	0.853333	2.32745E-001	-3.98446E-004	0.00000E+000	-9.27362E-005	-2.40040E-001	2.32787E-001	3.57620E+000	9	...........
	64	0.866667	2.26969E-001	-3.99406E-004	0.00000E+000	-9.06529E-005	-2.40040E-001	2.27011E-001	3.57620E+000	9	...........
	65	0.88	2.21106E-001	-3.98955E-004	0.00000E+000	-8.82114E-005	-2.40040E-001	2.21146E-001	3.57620E+000	9	...........
	66	0.893333	2.15336E-001	-3.99232E-004	0.00000E+000	-8.59693E-005	-2.40040E-001	2.15379E-001	3.57620E+000	9	...........
	67	0.906667	2.09590E-001	-3.99772E-004	0.00000E+000	-8.37882E-005	-2.40040E-001	2.09632E-001	3.57620E+000	9	...........
	68	0.92	2.03998E-001	-3.98730E-004	0.00000E+000	-8.13401E-005	-2.40040E-001	2.04039E-001	3.57620E+000	9	...........
	69	0.933333	1.98339E-001	-3.98339E-004	0.00000E+000	-7.90061E-005	-2.40040E-001	1.98374E-001	3.57620E+000	9	...........
	70	0.946667	1.92626E-001	-3.99321E-004	0.00000E+000	-7.69195E-005	-2.40040E-001	1.92666E-001	3.57620E+000	9	...........
	71	0.96	1.87077E-001	-3.98748E-004	0.00000E+000	-7.45964E-005	-2.40040E-001	1.87105E-001	3.57620E+000	9	...........
	72	0.97333	1.81601E-001	-3.98961E-004	0.00000E+000	-7.24518E-005	-2.40040E-001	1.81637E-001	3.57620E+000	9	...........
	73	0.98667	1.76112E-001	-3.99610E-004	0.00000E+000	-7.03758E-005	-2.40040E-001	1.76138E-001	3.57620E+000	9	...........
	74	1	1.70640E-001	-3.98228E-004	0.00000E+000	-6.79536E-005	-2.40040E-001	1.70669E-001	3.57620E+000	9	...........
	75	1.01333	1.65188E-001	-3.99850E-004	0.00000E+000	-6.60505E-005	-2.40040E-001	1.65211E-001	3.57620E+000	9	...........
	76	1.02667	1.59709E-001	-3.98235E-004	0.00000E+000	-6.36018E-005	-2.40040E-001	1.59728E-001	3.57620E+000	9	...........
	77	1.04	1.54348E-001	-3.98700E-004	0.00000E+000	-6.15386E-005	-2.40040E-001	1.54361E-001	3.57620E+000	9	...........
	78	1.05333	1.48982E-001	-3.99405E-004	0.00000E+000	-5.95042E-005	-2.40040E-001	1.49002E-001	3.57620E+000	9	...........
	79	1.06667	1.43631E-001	-3.98493E-004	0.00000E+000	-5.72358E-005	-2.40040E-001	1.43655E-001	3.57620E+000	9	...........
	80	1.08	1.38421E-001	-3.99302E-004	0.00000E+000	-5.52717E-005	-2.40040E-001	1.38447E-001	3.57620E+000	9	...........
	81	1.09333	1.33255E-001	-3.98998E-004	0.00000E+000	-5.31686E-005	-2.40040E-001	1.33277E-001	3.57620E+000	9	...........
	82	1.10667	1.27999E-001	-3.98786E-004	0.00000E+000	-5.10445E-005	-2.40040E-001	1.28019E-001	3.57620E+000	9	...........
	83	1.12	1.22778E-001	-3.98996E-004	0.00000E+000	-4.89879E-005	-2.40040E-001	1.22798E-001	3.57620E+000	9	...........
	84	1.13333	1.17676E-001	-3.99048E-004	0.00000E+000	-4.69584E-005	-2.40040E-001	1.17704E-001	3.57620E+000	9	...........
	85	1.14667	1.12616E-001	-3.99039E-004	0.00000E+000	-4.49383E-005	-2.40040E-001	1.12637E-001	3.57620E+000	9	...........
	86	1.16	1.07587E-001	-3.98993E-004	0.00000E+000	-4.29263E-005	-2.40040E-001	1.07604E-001	3.57620E+000	9	...........
	87	1.17333	1.02517E-001	-3.98920E-004	0.00000E+000	-4.08961E-005	-2.40040E-001	1.02533E-001	3.57620E+000	9	...........
	88	1.18667	9.75000E-002	-3.99964E-004	0.00000E+000	-3.89965E-005	-2.40040E-001	9.75142E-002	3.57620E+000	9	...........
	89	1.2	9.25215E-002	-4.00093E-004	0.00000E+000	-3.70172E-005	-2.40040E-001	9.25362E-002	3.57620E+000	9	...........
	90	1.21333	8.76087E-002	-3.98518E-004	0.00000E+000	-3.49136E-005	-2.40040E-001	8.76198E-002	3.57620E+000	9	...........
	91	1.22667	8.26762E-002	-4.00010E-004	0.00000E+000	-3.30713E-005	-2.40040E-001	8.26825E-002	3.57620E+000	9	...........
	92	1.24	7.77441E-002	-3.99083E-004	0.00000E+000	-3.10264E-005	-2.40040E-001	7.77475E-002	3.57620E+000	9	...........
	93	1.25333	7.28976E-002	-3.98471E-004	0.00000E+000	-2.90476E-005	-2.40040E-001	7.29019E-002	3.57620E+000	9	...........
	94	1.26667	6.80442E-002	-3.98222E-004	0.00000E+000	-2.70967E-005	-2.40040E-001	6.80426E-002	3.57620E+000	9	...........
	95	1.28	6.32054E-002	-3.97456E-004	0.00000E+000	-2.51214E-005	-2.40040E-001	6.32084E-002	3.57635E+000	9	...........
	96	1.29333	5.83234E-002	-3.98612E-004	0.00000E+000	-2.32484E-005	-2.40040E-001	5.83227E-002	3.57650E+000	9	...........
	97	1.30667	5.35256E-002	-3.98137E-004	0.00000E+000	-2.13106E-005	-2.40040E-001	5.35238E-002	3.57650E+000	9	...........
	98	1.32	4.87627E-002	-3.98212E-004	0.00000E+000	-1.94179E-005	-2.40040E-001	4.87646E-002	3.57650E+000	9	...........
	99	1.33333	4.41335E-002	-3.98704E-004	0.00000E+000	-1.75962E-005	-2.40040E-001	4.41389E-002	3.57650E+000	9	...........
	100	1.34667	3.95985E-002	-3.99102E-004	0.00000E+000	-1.58038E-005	-2.40040E-001	3.96028E-002	3.57650E+000	9	...........
	101	1.36	3.49510E-002	-3.97535E-004	0.00000E+000	-1.38943E-005	-2.40040E-001	3.49464E-002	3.57650E+000	9	...........
	102	1.37333	3.02572E-002	-3.98112E-004	0.00000E+000	-1.20458E-005	-2.40040E-001	3.02489E-002	3.57650E+000	9	...........
	103	1.38667	2.56877E-002	-3.98931E-004	0.00000E+000	-1.02476E-005	-2.40040E-001	2.56834E-002	3.57650E+000	9	...........
	104	1.4	2.11488E-002	-3.98187E-004	0.00000E+000	-8.42119E-006	-2.40040E-001	2.11422E-002	3.57650E+000	9	...........
	105	1.41333	1.66029E-002	-3.98761E-004	0.00000E+000	-6.62060E-006	-2.40040E-001	1.65922E-002	3.57650E+000	9	...........
	106	1.42667	1.21846E-002	-3.98934E-004	0.00000E+000	-4.86087E-006	-2.40040E-001	1.21728E-002	3.57650E+000	9	...........
	107	1.44	7.67718E-003	-3.99620E-004	0.00000E+000	-3.06795E-006	-2.40040E-001	7.65886E-003	3.57650E+000	9	...........
	108	1.45333	3.16943E-003	-3.98424E-004	0.00000E+000	-1.26278E-006	-2.40040E-001	3.15038E-003	3.57650E+000	9	...........
	109	1.45833	5.62943E-005	-3.99909E-004	0.00000E+000	-2.25126E-008	-2.40040E-001	3.00054E-005	3.57650E+000	9	...........
STARTTIMEOFFSET	QUANT	1900.015	Start Time Offset (s)
