EXPLAIN
TAG	PWR800_DISCHARGE
TITLE	LABEL	PWR Cyclic Charge Discharge (Cell) - Discharge Step	Test &Identifier
DATE	LABEL	12-7-2017	Date
TIME	LABEL	14:33:52	Time
NOTES	NOTES	3	&Notes...
	supercap test cell
	0.4mg
	6M KOH
PSTAT	PSTAT	IFC5000-01520	Potentiostat
CAPACITY	QUANT	1.00000E-003	Capacity (A-hr)
CELLTYPE	SELECTOR	1	&Cell Type
WORKINGCONNECTION	SELECTOR	0	&Working Lead
MAXDISCHARGETIME	VARIABLEANDUNITS	1.00000E+002	s	1.00000E+002	second(s)	Max &Discharge Time
DISCHARGEMODE	MULTIPARAM	0	4.00000E-004	&Discharge Mode	Constant Current	Amp(s)
SAMPLETIME	QUANT	1.00000E-002	Sa&mple Period (s)
DISCHARGESTOPAT1	MULTIPARAM	3	0.00000E+000	Discharge Stop At &1	Voltage < Limit	V
DISCHARGESTOPAT2	MULTIPARAM	0	0.00000E+000	Discharge Stop At &2	None	N/A
AESBHCSELECTOR	TOGGLE	F	Save Both Half Cells
IRCOMP	TOGGLE	F	IR &Measure
EOC	QUANT	0	Open Circuit (V)
SEQUENCER	TOGGLE	TRUE	Run as Sequence
PSTATMODEL	IQUANT	53	Pstat Model
PSTATSECTION	LABEL	IFC5000-01520	Pstat Section
PSTATSERIALNO	LABEL	01520	Pstat Serial Number
CTRLMODE	IQUANT	0	Control Mode
ELECTROMETER	IQUANT	1	RE=0 or CS=1
IESTAB	IQUANT	0	I/E Stability
CASPEED	IQUANT	4	Control Amp Speed
CONVENTION	IQUANT	1	Current Convention
ICHRANGE	IQUANT	2	Ich Range
ICHRANGEMODE	TOGGLE	T	Ich Auto Range
ICHOFFSETENABLE	TOGGLE	F	Ich Offset Enable
ICHOFFSET	QUANT	0	Ich Offset (V)
ICHFILTER	IQUANT	1	Ich Filter
VCHRANGE	IQUANT	2	Vch Range
VCHRANGEMODE	TOGGLE	T	Vch Auto Range
VCHOFFSETENABLE	TOGGLE	F	Vch Offset Enable
VCHOFFSET	QUANT	0	Vch Offset (V)
VCHFILTER	IQUANT	1	Vch Filter
IERANGELOWERLIMIT	IQUANT	9	I/E Range Lower Limit
IERANGEMODE	TOGGLE	F	I/E AutoRange
IERANGE	IQUANT	9	I/E Range
ACHSELECT	IQUANT	1	Ach Select
ACHRANGE	IQUANT	2	Ach Range
ACHOFFSETENABLE	TOGGLE	F	Ach Offset Enable
ACHOFFSET	QUANT	0	Ach Offset (V)
ACHFILTER	IQUANT	1	Ach Filter
CABLEID	IQUANT	14	Cable ID
DCCALDATE	LABEL	5-7-2017	DC Calibration Date
ACCALDATE	LABEL	12/3/2015	AC Calibration Date
FRAMEWORKVERSION	QUANT	7.01	Framework Version
INSTRUMENTVERSION	LABEL	4.00	Instrument Version
CURVE	TABLE	123
	Pt	T	Vf	Im	Vu	Pwr	Sig	Ach	Temp	IERange	Over
	#	s	V	A	V	W	V	V	deg C	#	bits
	0	0.013333	7.13165E-001	-3.98592E-004	0.00000E+000	-2.84262E-004	-2.40040E-001	7.13414E-001	3.57590E+000	9	...........
	1	0.026667	7.01632E-001	-3.98955E-004	0.00000E+000	-2.79920E-004	-2.40040E-001	7.01869E-001	3.57590E+000	9	...........
	2	0.04	6.91484E-001	-3.99658E-004	0.00000E+000	-2.76358E-004	-2.40040E-001	6.91705E-001	3.57590E+000	9	...........
	3	0.053333	6.82059E-001	-3.99248E-004	0.00000E+000	-2.72311E-004	-2.40040E-001	6.82289E-001	3.57590E+000	9	...........
	4	0.066667	6.73133E-001	-3.98660E-004	0.00000E+000	-2.68351E-004	-2.40040E-001	6.73367E-001	3.57590E+000	9	...........
	5	0.08	6.64525E-001	-3.96847E-004	0.00000E+000	-2.63715E-004	-2.40040E-001	6.64799E-001	3.57590E+000	9	...........
	6	0.093333	6.56320E-001	-3.98567E-004	0.00000E+000	-2.61587E-004	-2.40040E-001	6.56541E-001	3.57590E+000	9	...........
	7	0.106667	6.48276E-001	-3.97879E-004	0.00000E+000	-2.57935E-004	-2.40040E-001	6.48526E-001	3.57590E+000	9	...........
	8	0.12	6.40364E-001	-3.98597E-004	0.00000E+000	-2.55247E-004	-2.40040E-001	6.40613E-001	3.57590E+000	9	...........
	9	0.133333	6.32513E-001	-3.99590E-004	0.00000E+000	-2.52746E-004	-2.40040E-001	6.32766E-001	3.57590E+000	9	...........
	10	0.146667	6.24876E-001	-3.98396E-004	0.00000E+000	-2.48948E-004	-2.40040E-001	6.25134E-001	3.57590E+000	9	...........
	11	0.16	6.17387E-001	-3.98676E-004	0.00000E+000	-2.46137E-004	-2.40040E-001	6.17652E-001	3.57590E+000	9	...........
	12	0.173333	6.09773E-001	-3.98521E-004	0.00000E+000	-2.43007E-004	-2.40040E-001	6.10068E-001	3.57590E+000	9	...........
	13	0.186667	6.02344E-001	-3.98972E-004	0.00000E+000	-2.40318E-004	-2.40040E-001	6.02638E-001	3.57590E+000	9	...........
	14	0.2	5.95111E-001	-3.99396E-004	0.00000E+000	-2.37685E-004	-2.40040E-001	5.95348E-001	3.57590E+000	9	...........
	15	0.213333	5.87801E-001	-3.99019E-004	0.00000E+000	-2.34544E-004	-2.40040E-001	5.88021E-001	3.57590E+000	9	...........
	16	0.226667	5.80561E-001	-3.98261E-004	0.00000E+000	-2.31215E-004	-2.40040E-001	5.80791E-001	3.57590E+000	9	...........
	17	0.24	5.73391E-001	-3.98955E-004	0.00000E+000	-2.28757E-004	-2.40040E-001	5.73593E-001	3.57590E+000	9	...........
	18	0.253333	5.66366E-001	-3.98681E-004	0.00000E+000	-2.25799E-004	-2.40040E-001	5.66555E-001	3.57590E+000	9	...........
	19	0.266667	5.59177E-001	-3.99238E-004	0.00000E+000	-2.23244E-004	-2.40040E-001	5.59399E-001	3.57590E+000	9	...........
	20	0.28	5.52105E-001	-4.00330E-004	0.00000E+000	-2.21025E-004	-2.40040E-001	5.52330E-001	3.57590E+000	9	...........
	21	0.293333	5.45189E-001	-3.98386E-004	0.00000E+000	-2.17196E-004	-2.40040E-001	5.45420E-001	3.57590E+000	9	...........
	22	0.306667	5.38315E-001	-3.98891E-004	0.00000E+000	-2.14729E-004	-2.40040E-001	5.38519E-001	3.57590E+000	9	...........
	23	0.32	5.31267E-001	-3.98239E-004	0.00000E+000	-2.11571E-004	-2.40040E-001	5.31465E-001	3.57590E+000	9	...........
	24	0.333333	5.24376E-001	-3.98086E-004	0.00000E+000	-2.08747E-004	-2.40040E-001	5.24551E-001	3.57590E+000	9	...........
	25	0.346667	5.17536E-001	-3.98426E-004	0.00000E+000	-2.06200E-004	-2.40040E-001	5.17689E-001	3.57590E+000	9	...........
	26	0.36	5.10689E-001	-3.99246E-004	0.00000E+000	-2.03890E-004	-2.40040E-001	5.10856E-001	3.57590E+000	9	...........
	27	0.373333	5.03885E-001	-3.98178E-004	0.00000E+000	-2.00636E-004	-2.40040E-001	5.04086E-001	3.57590E+000	9	...........
	28	0.386667	4.97138E-001	-3.98742E-004	0.00000E+000	-1.98229E-004	-2.40040E-001	4.97314E-001	3.57590E+000	9	...........
	29	0.4	4.90454E-001	-3.98021E-004	0.00000E+000	-1.95211E-004	-2.40040E-001	4.90630E-001	3.57590E+000	9	...........
	30	0.413333	4.83916E-001	-3.99908E-004	0.00000E+000	-1.93522E-004	-2.40040E-001	4.84040E-001	3.57590E+000	9	...........
	31	0.426667	4.77425E-001	-3.98785E-004	0.00000E+000	-1.90390E-004	-2.40040E-001	4.77521E-001	3.57590E+000	9	...........
	32	0.44	4.70826E-001	-3.98942E-004	0.00000E+000	-1.87832E-004	-2.40040E-001	4.70913E-001	3.57590E+000	9	...........
	33	0.453333	4.64262E-001	-3.97707E-004	0.00000E+000	-1.84640E-004	-2.40040E-001	4.64346E-001	3.57590E+000	9	...........
	34	0.466667	4.57677E-001	-3.97989E-004	0.00000E+000	-1.82151E-004	-2.40040E-001	4.57763E-001	3.57590E+000	9	...........
	35	0.48	4.51206E-001	-3.99397E-004	0.00000E+000	-1.80210E-004	-2.40040E-001	4.51297E-001	3.57590E+000	9	...........
	36	0.493333	4.44831E-001	-3.98896E-004	0.00000E+000	-1.77441E-004	-2.40040E-001	4.44918E-001	3.57590E+000	9	...........
	37	0.506667	4.38465E-001	-3.98217E-004	0.00000E+000	-1.74604E-004	-2.40040E-001	4.38554E-001	3.57590E+000	9	...........
	38	0.52	4.32108E-001	-3.98499E-004	0.00000E+000	-1.72194E-004	-2.40040E-001	4.32189E-001	3.57590E+000	9	...........
	39	0.533333	4.25739E-001	-3.99053E-004	0.00000E+000	-1.69892E-004	-2.40040E-001	4.25829E-001	3.57590E+000	9	...........
	40	0.546667	4.19471E-001	-3.98966E-004	0.00000E+000	-1.67354E-004	-2.40040E-001	4.19558E-001	3.57590E+000	9	...........
	41	0.56	4.13268E-001	-3.97948E-004	0.00000E+000	-1.64459E-004	-2.40040E-001	4.13348E-001	3.57590E+000	9	...........
	42	0.573333	4.06986E-001	-3.98681E-004	0.00000E+000	-1.62258E-004	-2.40040E-001	4.07068E-001	3.57590E+000	9	...........
	43	0.586667	4.00788E-001	-3.99241E-004	0.00000E+000	-1.60011E-004	-2.40040E-001	4.00867E-001	3.57590E+000	9	...........
	44	0.6	3.94671E-001	-3.97901E-004	0.00000E+000	-1.57040E-004	-2.40040E-001	3.94747E-001	3.57590E+000	9	...........
	45	0.613333	3.88554E-001	-3.98670E-004	0.00000E+000	-1.54905E-004	-2.40040E-001	3.88627E-001	3.57678E+000	9	...........
	46	0.626667	3.82413E-001	-3.99505E-004	0.00000E+000	-1.52776E-004	-2.40040E-001	3.82494E-001	3.57710E+000	9	...........
	47	0.64	3.76346E-001	-3.97645E-004	0.00000E+000	-1.49652E-004	-2.40040E-001	3.76421E-001	3.57710E+000	9	...........
	48	0.653333	3.70244E-001	-3.98333E-004	0.00000E+000	-1.47480E-004	-2.40040E-001	3.70315E-001	3.57710E+000	9	...........
	49	0.666667	3.64182E-001	-3.98725E-004	0.00000E+000	-1.45208E-004	-2.40040E-001	3.64252E-001	3.57710E+000	9	...........
	50	0.68	3.58181E-001	-3.97951E-004	0.00000E+000	-1.42538E-004	-2.40040E-001	3.58247E-001	3.57710E+000	9	...........
	51	0.693333	3.52301E-001	-3.98178E-004	0.00000E+000	-1.40279E-004	-2.40040E-001	3.52367E-001	3.57710E+000	9	...........
	52	0.706667	3.46334E-001	-3.98244E-004	0.00000E+000	-1.37925E-004	-2.40040E-001	3.46407E-001	3.57710E+000	9	...........
	53	0.72	3.40467E-001	-3.98505E-004	0.00000E+000	-1.35678E-004	-2.40040E-001	3.40535E-001	3.57710E+000	9	...........
	54	0.733333	3.34677E-001	-3.99547E-004	0.00000E+000	-1.33719E-004	-2.40040E-001	3.34740E-001	3.57710E+000	9	...........
	55	0.746667	3.28860E-001	-3.98120E-004	0.00000E+000	-1.30926E-004	-2.40040E-001	3.28920E-001	3.57710E+000	9	...........
	56	0.76	3.23051E-001	-3.97462E-004	0.00000E+000	-1.28401E-004	-2.40040E-001	3.23112E-001	3.57710E+000	9	...........
	57	0.773333	3.17332E-001	-3.98438E-004	0.00000E+000	-1.26437E-004	-2.40040E-001	3.17396E-001	3.57710E+000	9	...........
	58	0.786667	3.11632E-001	-3.98382E-004	0.00000E+000	-1.24148E-004	-2.40040E-001	3.11685E-001	3.57710E+000	9	...........
	59	0.8	3.05846E-001	-3.99877E-004	0.00000E+000	-1.22301E-004	-2.40040E-001	3.05904E-001	3.57710E+000	9	...........
	60	0.813333	3.00210E-001	-3.98654E-004	0.00000E+000	-1.19680E-004	-2.40040E-001	3.00264E-001	3.57710E+000	9	...........
	61	0.826667	2.94552E-001	-3.98747E-004	0.00000E+000	-1.17452E-004	-2.40040E-001	2.94614E-001	3.57710E+000	9	...........
	62	0.84	2.88989E-001	-3.97148E-004	0.00000E+000	-1.14771E-004	-2.40040E-001	2.89046E-001	3.57710E+000	9	...........
	63	0.853333	2.83408E-001	-3.99206E-004	0.00000E+000	-1.13138E-004	-2.40040E-001	2.83459E-001	3.57710E+000	9	...........
	64	0.866667	2.77875E-001	-3.99742E-004	0.00000E+000	-1.11078E-004	-2.40040E-001	2.77932E-001	3.57710E+000	9	...........
	65	0.88	2.72296E-001	-3.99057E-004	0.00000E+000	-1.08662E-004	-2.40040E-001	2.72350E-001	3.57710E+000	9	...........
	66	0.893333	2.66860E-001	-3.99304E-004	0.00000E+000	-1.06558E-004	-2.40040E-001	2.66917E-001	3.57710E+000	9	...........
	67	0.906667	2.61429E-001	-3.98398E-004	0.00000E+000	-1.04153E-004	-2.40040E-001	2.61488E-001	3.57710E+000	9	...........
	68	0.92	2.56015E-001	-3.97999E-004	0.00000E+000	-1.01894E-004	-2.40040E-001	2.56064E-001	3.57710E+000	9	...........
	69	0.933333	2.50601E-001	-3.98687E-004	0.00000E+000	-9.99114E-005	-2.40040E-001	2.50656E-001	3.57710E+000	9	...........
	70	0.946667	2.45282E-001	-3.97255E-004	0.00000E+000	-9.74395E-005	-2.40040E-001	2.45330E-001	3.57710E+000	9	...........
	71	0.96	2.39950E-001	-3.98995E-004	0.00000E+000	-9.57389E-005	-2.40040E-001	2.39996E-001	3.57710E+000	9	...........
	72	0.97333	2.34657E-001	-3.99968E-004	0.00000E+000	-9.38553E-005	-2.40040E-001	2.34699E-001	3.57710E+000	9	...........
	73	0.98667	2.29358E-001	-3.99273E-004	0.00000E+000	-9.15763E-005	-2.40040E-001	2.29399E-001	3.57710E+000	9	...........
	74	1	2.24034E-001	-3.98969E-004	0.00000E+000	-8.93826E-005	-2.40040E-001	2.24079E-001	3.57710E+000	9	...........
	75	1.01333	2.18808E-001	-3.98100E-004	0.00000E+000	-8.71073E-005	-2.40040E-001	2.18843E-001	3.57710E+000	9	...........
	76	1.02667	2.13633E-001	-3.99062E-004	0.00000E+000	-8.52526E-005	-2.40040E-001	2.13671E-001	3.57710E+000	9	...........
	77	1.04	2.08481E-001	-3.98825E-004	0.00000E+000	-8.31473E-005	-2.40040E-001	2.08518E-001	3.57710E+000	9	...........
	78	1.05333	2.03332E-001	-3.97673E-004	0.00000E+000	-8.08597E-005	-2.40040E-001	2.03373E-001	3.57710E+000	9	...........
	79	1.06667	1.98188E-001	-3.99366E-004	0.00000E+000	-7.91496E-005	-2.40040E-001	1.98229E-001	3.57710E+000	9	...........
	80	1.08	1.93052E-001	-3.98858E-004	0.00000E+000	-7.70006E-005	-2.40040E-001	1.93093E-001	3.57710E+000	9	...........
	81	1.09333	1.87975E-001	-3.97054E-004	0.00000E+000	-7.46361E-005	-2.40040E-001	1.88012E-001	3.57710E+000	9	...........
	82	1.10667	1.82940E-001	-3.98283E-004	0.00000E+000	-7.28618E-005	-2.40040E-001	1.82975E-001	3.57710E+000	9	...........
	83	1.12	1.77886E-001	-3.98762E-004	0.00000E+000	-7.09341E-005	-2.40040E-001	1.77923E-001	3.57710E+000	9	...........
	84	1.13333	1.72920E-001	-3.98048E-004	0.00000E+000	-6.88304E-005	-2.40040E-001	1.72953E-001	3.57710E+000	9	...........
	85	1.14667	1.67959E-001	-3.98063E-004	0.00000E+000	-6.68582E-005	-2.40040E-001	1.67998E-001	3.57710E+000	9	...........
	86	1.16	1.62990E-001	-3.97891E-004	0.00000E+000	-6.48524E-005	-2.40040E-001	1.63018E-001	3.57710E+000	9	...........
	87	1.17333	1.58076E-001	-3.99613E-004	0.00000E+000	-6.31692E-005	-2.40040E-001	1.58104E-001	3.57710E+000	9	...........
	88	1.18667	1.53247E-001	-3.98755E-004	0.00000E+000	-6.11080E-005	-2.40040E-001	1.53277E-001	3.57710E+000	9	...........
	89	1.2	1.48418E-001	-3.98739E-004	0.00000E+000	-5.91799E-005	-2.40040E-001	1.48443E-001	3.57710E+000	9	...........
	90	1.21333	1.43647E-001	-3.98799E-004	0.00000E+000	-5.72863E-005	-2.40040E-001	1.43675E-001	3.57710E+000	9	...........
	91	1.22667	1.38799E-001	-3.98384E-004	0.00000E+000	-5.52955E-005	-2.40040E-001	1.38821E-001	3.57710E+000	9	...........
	92	1.24	1.34035E-001	-3.98936E-004	0.00000E+000	-5.34714E-005	-2.40040E-001	1.34060E-001	3.57710E+000	9	...........
	93	1.25333	1.29264E-001	-4.00453E-004	0.00000E+000	-5.17642E-005	-2.40040E-001	1.29288E-001	3.57710E+000	9	...........
	94	1.26667	1.24453E-001	-4.00827E-004	0.00000E+000	-4.98843E-005	-2.40040E-001	1.24479E-001	3.57710E+000	9	...........
	95	1.28	1.19699E-001	-3.99522E-004	0.00000E+000	-4.78226E-005	-2.40040E-001	1.19719E-001	3.57710E+000	9	...........
	96	1.29333	1.14983E-001	-3.98424E-004	0.00000E+000	-4.58118E-005	-2.40040E-001	1.15007E-001	3.57710E+000	9	...........
	97	1.30667	1.10396E-001	-3.99089E-004	0.00000E+000	-4.40578E-005	-2.40040E-001	1.10417E-001	3.57710E+000	9	...........
	98	1.32	1.05796E-001	-3.99180E-004	0.00000E+000	-4.22318E-005	-2.40040E-001	1.05821E-001	3.57710E+000	9	...........
	99	1.33333	1.01133E-001	-3.98466E-004	0.00000E+000	-4.02979E-005	-2.40040E-001	1.01151E-001	3.57710E+000	9	...........
	100	1.34667	9.65403E-002	-3.99076E-004	0.00000E+000	-3.85269E-005	-2.40040E-001	9.65574E-002	3.57710E+000	9	...........
	101	1.36	9.19327E-002	-3.98626E-004	0.00000E+000	-3.66467E-005	-2.40040E-001	9.19582E-002	3.57710E+000	9	...........
	102	1.37333	8.73845E-002	-3.99180E-004	0.00000E+000	-3.48822E-005	-2.40040E-001	8.74012E-002	3.57710E+000	9	...........
	103	1.38667	8.28584E-002	-4.01068E-004	0.00000E+000	-3.32319E-005	-2.40040E-001	8.28770E-002	3.57710E+000	9	...........
	104	1.4	7.83571E-002	-3.98061E-004	0.00000E+000	-3.11909E-005	-2.40040E-001	7.83665E-002	3.57710E+000	9	...........
	105	1.41333	7.38460E-002	-3.99059E-004	0.00000E+000	-2.94689E-005	-2.40040E-001	7.38559E-002	3.57710E+000	9	...........
	106	1.42667	6.93392E-002	-3.98480E-004	0.00000E+000	-2.76303E-005	-2.40040E-001	6.93513E-002	3.57710E+000	9	...........
	107	1.44	6.48969E-002	-3.97509E-004	0.00000E+000	-2.57971E-005	-2.40040E-001	6.49010E-002	3.57710E+000	9	...........
	108	1.45333	6.04473E-002	-3.98478E-004	0.00000E+000	-2.40869E-005	-2.40040E-001	6.04512E-002	3.57710E+000	9	...........
	109	1.46667	5.60472E-002	-3.98502E-004	0.00000E+000	-2.23349E-005	-2.40040E-001	5.60490E-002	3.57710E+000	9	...........
	110	1.48	5.16764E-002	-3.99039E-004	0.00000E+000	-2.06209E-005	-2.40040E-001	5.16800E-002	3.57710E+000	9	...........
	111	1.49333	4.73560E-002	-3.98927E-004	0.00000E+000	-1.88916E-005	-2.40040E-001	4.73583E-002	3.57710E+000	9	...........
	112	1.50667	4.30362E-002	-4.00327E-004	0.00000E+000	-1.72286E-005	-2.40040E-001	4.30460E-002	3.57710E+000	9	...........
	113	1.52	3.86921E-002	-3.98854E-004	0.00000E+000	-1.54325E-005	-2.40040E-001	3.86967E-002	3.57710E+000	9	...........
	114	1.53333	3.44568E-002	-3.99366E-004	0.00000E+000	-1.37609E-005	-2.40040E-001	3.44633E-002	3.57710E+000	9	...........
	115	1.54667	3.01727E-002	-3.97292E-004	0.00000E+000	-1.19874E-005	-2.40040E-001	3.01733E-002	3.57710E+000	9	...........
	116	1.56	2.58786E-002	-3.99712E-004	0.00000E+000	-1.03440E-005	-2.40040E-001	2.58742E-002	3.57710E+000	9	...........
	117	1.57333	2.16275E-002	-3.98596E-004	0.00000E+000	-8.62065E-006	-2.40040E-001	2.16248E-002	3.57710E+000	9	...........
	118	1.58667	1.73947E-002	-3.99118E-004	0.00000E+000	-6.94253E-006	-2.40040E-001	1.73915E-002	3.57710E+000	9	...........
	119	1.6	1.32086E-002	-3.99019E-004	0.00000E+000	-5.27049E-006	-2.40040E-001	1.31992E-002	3.57710E+000	9	...........
	120	1.61333	8.99881E-003	-3.98139E-004	0.00000E+000	-3.58278E-006	-2.40040E-001	8.98372E-003	3.57666E+000	9	...........
	121	1.62667	4.84547E-003	-3.97849E-004	0.00000E+000	-1.92776E-006	-2.40040E-001	4.82633E-003	3.57650E+000	9	...........
	122	1.63667	1.21050E-003	-3.98855E-004	0.00000E+000	-4.82814E-007	-2.40040E-001	1.19625E-003	3.57650E+000	9	...........
STARTTIMEOFFSET	QUANT	735.2153	Start Time Offset (s)
