EXPLAIN
TAG	PWR800_DISCHARGE
TITLE	LABEL	PWR Cyclic Charge Discharge (Cell) - Discharge Step	Test &Identifier
DATE	LABEL	12-7-2017	Date
TIME	LABEL	15:07:23	Time
NOTES	NOTES	3	&Notes...
	supercap test cell
	0.4mg
	6M KOH
PSTAT	PSTAT	IFC5000-01520	Potentiostat
CAPACITY	QUANT	1.00000E-003	Capacity (A-hr)
CELLTYPE	SELECTOR	1	&Cell Type
WORKINGCONNECTION	SELECTOR	0	&Working Lead
MAXDISCHARGETIME	VARIABLEANDUNITS	1.00000E+002	s	1.00000E+002	second(s)	Max &Discharge Time
DISCHARGEMODE	MULTIPARAM	0	4.00000E-004	&Discharge Mode	Constant Current	Amp(s)
SAMPLETIME	QUANT	1.00000E-002	Sa&mple Period (s)
DISCHARGESTOPAT1	MULTIPARAM	3	0.00000E+000	Discharge Stop At &1	Voltage < Limit	V
DISCHARGESTOPAT2	MULTIPARAM	0	0.00000E+000	Discharge Stop At &2	None	N/A
AESBHCSELECTOR	TOGGLE	F	Save Both Half Cells
IRCOMP	TOGGLE	F	IR &Measure
EOC	QUANT	0	Open Circuit (V)
SEQUENCER	TOGGLE	TRUE	Run as Sequence
PSTATMODEL	IQUANT	53	Pstat Model
PSTATSECTION	LABEL	IFC5000-01520	Pstat Section
PSTATSERIALNO	LABEL	01520	Pstat Serial Number
CTRLMODE	IQUANT	0	Control Mode
ELECTROMETER	IQUANT	1	RE=0 or CS=1
IESTAB	IQUANT	0	I/E Stability
CASPEED	IQUANT	4	Control Amp Speed
CONVENTION	IQUANT	1	Current Convention
ICHRANGE	IQUANT	2	Ich Range
ICHRANGEMODE	TOGGLE	T	Ich Auto Range
ICHOFFSETENABLE	TOGGLE	F	Ich Offset Enable
ICHOFFSET	QUANT	0	Ich Offset (V)
ICHFILTER	IQUANT	1	Ich Filter
VCHRANGE	IQUANT	2	Vch Range
VCHRANGEMODE	TOGGLE	T	Vch Auto Range
VCHOFFSETENABLE	TOGGLE	F	Vch Offset Enable
VCHOFFSET	QUANT	0	Vch Offset (V)
VCHFILTER	IQUANT	1	Vch Filter
IERANGELOWERLIMIT	IQUANT	9	I/E Range Lower Limit
IERANGEMODE	TOGGLE	F	I/E AutoRange
IERANGE	IQUANT	9	I/E Range
ACHSELECT	IQUANT	1	Ach Select
ACHRANGE	IQUANT	2	Ach Range
ACHOFFSETENABLE	TOGGLE	F	Ach Offset Enable
ACHOFFSET	QUANT	0	Ach Offset (V)
ACHFILTER	IQUANT	1	Ach Filter
CABLEID	IQUANT	14	Cable ID
DCCALDATE	LABEL	5-7-2017	DC Calibration Date
ACCALDATE	LABEL	12/3/2015	AC Calibration Date
FRAMEWORKVERSION	QUANT	7.01	Framework Version
INSTRUMENTVERSION	LABEL	4.00	Instrument Version
CURVE	TABLE	107
	Pt	T	Vf	Im	Vu	Pwr	Sig	Ach	Temp	IERange	Over
	#	s	V	A	V	W	V	V	deg C	#	bits
	0	0.013333	6.90094E-001	-3.98901E-004	0.00000E+000	-2.75279E-004	-2.40040E-001	6.90329E-001	3.57630E+000	9	...........
	1	0.026667	6.76813E-001	-3.99449E-004	0.00000E+000	-2.70352E-004	-2.40040E-001	6.77048E-001	3.57630E+000	9	...........
	2	0.04	6.65280E-001	-3.98369E-004	0.00000E+000	-2.65027E-004	-2.40040E-001	6.65515E-001	3.57630E+000	9	...........
	3	0.053333	6.54621E-001	-3.98481E-004	0.00000E+000	-2.60854E-004	-2.40040E-001	6.54854E-001	3.57630E+000	9	...........
	4	0.066667	6.44612E-001	-3.98760E-004	0.00000E+000	-2.57046E-004	-2.40040E-001	6.44852E-001	3.57630E+000	9	...........
	5	0.08	6.35025E-001	-3.99205E-004	0.00000E+000	-2.53505E-004	-2.40040E-001	6.35268E-001	3.57630E+000	9	...........
	6	0.093333	6.25839E-001	-3.99389E-004	0.00000E+000	-2.49953E-004	-2.40040E-001	6.26048E-001	3.57630E+000	9	...........
	7	0.106667	6.16849E-001	-3.98376E-004	0.00000E+000	-2.45738E-004	-2.40040E-001	6.17074E-001	3.57630E+000	9	...........
	8	0.12	6.08082E-001	-3.99163E-004	0.00000E+000	-2.42724E-004	-2.40040E-001	6.08362E-001	3.57630E+000	9	...........
	9	0.133333	5.99459E-001	-3.97961E-004	0.00000E+000	-2.38562E-004	-2.40040E-001	5.99711E-001	3.57630E+000	9	...........
	10	0.146667	5.90955E-001	-3.98260E-004	0.00000E+000	-2.35354E-004	-2.40040E-001	5.91203E-001	3.57630E+000	9	...........
	11	0.16	5.82613E-001	-3.99113E-004	0.00000E+000	-2.32528E-004	-2.40040E-001	5.82853E-001	3.57630E+000	9	...........
	12	0.173333	5.74384E-001	-3.98030E-004	0.00000E+000	-2.28622E-004	-2.40040E-001	5.74580E-001	3.57630E+000	9	...........
	13	0.186667	5.66156E-001	-3.98033E-004	0.00000E+000	-2.25349E-004	-2.40040E-001	5.66372E-001	3.57630E+000	9	...........
	14	0.2	5.58096E-001	-3.99529E-004	0.00000E+000	-2.22976E-004	-2.40040E-001	5.58310E-001	3.57630E+000	9	...........
	15	0.213333	5.50096E-001	-3.99367E-004	0.00000E+000	-2.19690E-004	-2.40040E-001	5.50286E-001	3.57630E+000	9	...........
	16	0.226667	5.42103E-001	-3.98792E-004	0.00000E+000	-2.16186E-004	-2.40040E-001	5.42324E-001	3.57630E+000	9	...........
	17	0.24	5.34181E-001	-3.99754E-004	0.00000E+000	-2.13541E-004	-2.40040E-001	5.34381E-001	3.57630E+000	9	...........
	18	0.253333	5.26325E-001	-3.98270E-004	0.00000E+000	-2.09619E-004	-2.40040E-001	5.26520E-001	3.57630E+000	9	...........
	19	0.266667	5.18481E-001	-3.98234E-004	0.00000E+000	-2.06477E-004	-2.40040E-001	5.18681E-001	3.57630E+000	9	...........
	20	0.28	5.10676E-001	-3.98169E-004	0.00000E+000	-2.03335E-004	-2.40040E-001	5.10880E-001	3.57630E+000	9	...........
	21	0.293333	5.02970E-001	-3.98047E-004	0.00000E+000	-2.00205E-004	-2.40040E-001	5.03184E-001	3.57630E+000	9	...........
	22	0.306667	4.95358E-001	-3.98784E-004	0.00000E+000	-1.97541E-004	-2.40040E-001	4.95554E-001	3.57630E+000	9	...........
	23	0.32	4.87871E-001	-4.00028E-004	0.00000E+000	-1.95162E-004	-2.40040E-001	4.88035E-001	3.57630E+000	9	...........
	24	0.333333	4.80600E-001	-3.98142E-004	0.00000E+000	-1.91347E-004	-2.40040E-001	4.80696E-001	3.57630E+000	9	...........
	25	0.346667	4.73067E-001	-3.98587E-004	0.00000E+000	-1.88558E-004	-2.40040E-001	4.73161E-001	3.57630E+000	9	...........
	26	0.36	4.65599E-001	-3.98486E-004	0.00000E+000	-1.85535E-004	-2.40040E-001	4.65695E-001	3.57630E+000	9	...........
	27	0.373333	4.58206E-001	-3.97338E-004	0.00000E+000	-1.82063E-004	-2.40040E-001	4.58298E-001	3.57630E+000	9	...........
	28	0.386667	4.50881E-001	-3.97972E-004	0.00000E+000	-1.79438E-004	-2.40040E-001	4.50971E-001	3.57630E+000	9	...........
	29	0.4	4.43502E-001	-3.99090E-004	0.00000E+000	-1.76997E-004	-2.40040E-001	4.43595E-001	3.57630E+000	9	...........
	30	0.413333	4.36159E-001	-3.98200E-004	0.00000E+000	-1.73679E-004	-2.40040E-001	4.36243E-001	3.57630E+000	9	...........
	31	0.426667	4.28901E-001	-3.98341E-004	0.00000E+000	-1.70848E-004	-2.40040E-001	4.28989E-001	3.57630E+000	9	...........
	32	0.44	4.21622E-001	-3.99787E-004	0.00000E+000	-1.68559E-004	-2.40040E-001	4.21707E-001	3.57630E+000	9	...........
	33	0.453333	4.14459E-001	-3.99032E-004	0.00000E+000	-1.65382E-004	-2.40040E-001	4.14544E-001	3.57630E+000	9	...........
	34	0.466667	4.07324E-001	-4.00686E-004	0.00000E+000	-1.63209E-004	-2.40040E-001	4.07404E-001	3.57630E+000	9	...........
	35	0.48	4.00261E-001	-3.98992E-004	0.00000E+000	-1.59701E-004	-2.40040E-001	4.00339E-001	3.57630E+000	9	...........
	36	0.493333	3.93269E-001	-3.97636E-004	0.00000E+000	-1.56378E-004	-2.40040E-001	3.93343E-001	3.57630E+000	9	...........
	37	0.506667	3.86254E-001	-3.99353E-004	0.00000E+000	-1.54252E-004	-2.40040E-001	3.86330E-001	3.57630E+000	9	...........
	38	0.52	3.79274E-001	-3.98642E-004	0.00000E+000	-1.51194E-004	-2.40040E-001	3.79347E-001	3.57630E+000	9	...........
	39	0.533333	3.72410E-001	-4.00522E-004	0.00000E+000	-1.49159E-004	-2.40040E-001	3.72478E-001	3.57630E+000	9	...........
	40	0.546667	3.65581E-001	-3.99561E-004	0.00000E+000	-1.46072E-004	-2.40040E-001	3.65659E-001	3.57630E+000	9	...........
	41	0.56	3.58637E-001	-3.98253E-004	0.00000E+000	-1.42828E-004	-2.40040E-001	3.58706E-001	3.57630E+000	9	...........
	42	0.573333	3.51781E-001	-3.98792E-004	0.00000E+000	-1.40287E-004	-2.40040E-001	3.51845E-001	3.57630E+000	9	...........
	43	0.586667	3.45046E-001	-3.98493E-004	0.00000E+000	-1.37498E-004	-2.40040E-001	3.45107E-001	3.57630E+000	9	...........
	44	0.6	3.38341E-001	-3.98347E-004	0.00000E+000	-1.34777E-004	-2.40040E-001	3.38400E-001	3.57630E+000	9	...........
	45	0.613333	3.31722E-001	-3.99653E-004	0.00000E+000	-1.32574E-004	-2.40040E-001	3.31780E-001	3.57630E+000	9	...........
	46	0.626667	3.25146E-001	-3.98114E-004	0.00000E+000	-1.29445E-004	-2.40040E-001	3.25202E-001	3.57630E+000	9	...........
	47	0.64	3.18589E-001	-3.99803E-004	0.00000E+000	-1.27373E-004	-2.40040E-001	3.18642E-001	3.57630E+000	9	...........
	48	0.653333	3.12012E-001	-3.98901E-004	0.00000E+000	-1.24462E-004	-2.40040E-001	3.12074E-001	3.57630E+000	9	...........
	49	0.666667	3.05444E-001	-3.99491E-004	0.00000E+000	-1.22022E-004	-2.40040E-001	3.05504E-001	3.57630E+000	9	...........
	50	0.68	2.99023E-001	-3.98866E-004	0.00000E+000	-1.19270E-004	-2.40040E-001	2.99081E-001	3.57630E+000	9	...........
	51	0.693333	2.92640E-001	-3.99013E-004	0.00000E+000	-1.16767E-004	-2.40040E-001	2.92694E-001	3.57630E+000	9	...........
	52	0.706667	2.86327E-001	-3.99646E-004	0.00000E+000	-1.14429E-004	-2.40040E-001	2.86381E-001	3.57630E+000	9	...........
	53	0.72	2.79985E-001	-3.98554E-004	0.00000E+000	-1.11589E-004	-2.40040E-001	2.80036E-001	3.57630E+000	9	...........
	54	0.733333	2.73699E-001	-3.98641E-004	0.00000E+000	-1.09108E-004	-2.40040E-001	2.73752E-001	3.57630E+000	9	...........
	55	0.746667	2.67430E-001	-3.98933E-004	0.00000E+000	-1.06687E-004	-2.40040E-001	2.67480E-001	3.57630E+000	9	...........
	56	0.76	2.61297E-001	-3.98406E-004	0.00000E+000	-1.04102E-004	-2.40040E-001	2.61346E-001	3.57630E+000	9	...........
	57	0.773333	2.55072E-001	-3.99310E-004	0.00000E+000	-1.01853E-004	-2.40040E-001	2.55121E-001	3.57630E+000	9	...........
	58	0.786667	2.48900E-001	-3.99210E-004	0.00000E+000	-9.93636E-005	-2.40040E-001	2.48952E-001	3.57630E+000	9	...........
	59	0.8	2.42875E-001	-3.97752E-004	0.00000E+000	-9.66038E-005	-2.40040E-001	2.42920E-001	3.57630E+000	9	...........
	60	0.813333	2.36827E-001	-3.99001E-004	0.00000E+000	-9.44942E-005	-2.40040E-001	2.36867E-001	3.57630E+000	9	...........
	61	0.826667	2.30856E-001	-3.98759E-004	0.00000E+000	-9.20560E-005	-2.40040E-001	2.30894E-001	3.57630E+000	9	...........
	62	0.84	2.24893E-001	-3.99431E-004	0.00000E+000	-8.98294E-005	-2.40040E-001	2.24930E-001	3.57630E+000	9	...........
	63	0.853333	2.18972E-001	-3.98873E-004	0.00000E+000	-8.73420E-005	-2.40040E-001	2.19014E-001	3.57630E+000	9	...........
	64	0.866667	2.13170E-001	-3.97606E-004	0.00000E+000	-8.47577E-005	-2.40040E-001	2.13203E-001	3.57630E+000	9	...........
	65	0.88	2.07308E-001	-4.00471E-004	0.00000E+000	-8.30207E-005	-2.40040E-001	2.07345E-001	3.57630E+000	9	...........
	66	0.893333	2.01521E-001	-3.98582E-004	0.00000E+000	-8.03228E-005	-2.40040E-001	2.01560E-001	3.57630E+000	9	...........
	67	0.906667	1.95753E-001	-3.99072E-004	0.00000E+000	-7.81193E-005	-2.40040E-001	1.95785E-001	3.57630E+000	9	...........
	68	0.92	1.89954E-001	-3.98619E-004	0.00000E+000	-7.57192E-005	-2.40040E-001	1.89984E-001	3.57630E+000	9	...........
	69	0.933333	1.84316E-001	-3.98899E-004	0.00000E+000	-7.35233E-005	-2.40040E-001	1.84346E-001	3.57630E+000	9	...........
	70	0.946667	1.78687E-001	-3.99301E-004	0.00000E+000	-7.13500E-005	-2.40040E-001	1.78721E-001	3.57630E+000	9	...........
	71	0.96	1.73022E-001	-3.99181E-004	0.00000E+000	-6.90670E-005	-2.40040E-001	1.73050E-001	3.57630E+000	9	...........
	72	0.97333	1.67545E-001	-3.97579E-004	0.00000E+000	-6.66126E-005	-2.40040E-001	1.67575E-001	3.57674E+000	9	...........
	73	0.98667	1.62099E-001	-3.98771E-004	0.00000E+000	-6.46405E-005	-2.40040E-001	1.62122E-001	3.57680E+000	9	...........
	74	1	1.56510E-001	-3.99178E-004	0.00000E+000	-6.24752E-005	-2.40040E-001	1.56536E-001	3.57680E+000	9	...........
	75	1.01333	1.50953E-001	-3.96410E-004	0.00000E+000	-5.98394E-005	-2.40040E-001	1.50978E-001	3.57680E+000	9	...........
	76	1.02667	1.45568E-001	-3.99078E-004	0.00000E+000	-5.80929E-005	-2.40040E-001	1.45588E-001	3.57680E+000	9	...........
	77	1.04	1.40167E-001	-3.99364E-004	0.00000E+000	-5.59775E-005	-2.40040E-001	1.40187E-001	3.57680E+000	9	...........
	78	1.05333	1.34776E-001	-3.99232E-004	0.00000E+000	-5.38069E-005	-2.40040E-001	1.34795E-001	3.57680E+000	9	...........
	79	1.06667	1.29459E-001	-3.99480E-004	0.00000E+000	-5.17164E-005	-2.40040E-001	1.29479E-001	3.57680E+000	9	...........
	80	1.08	1.24210E-001	-3.97949E-004	0.00000E+000	-4.94292E-005	-2.40040E-001	1.24226E-001	3.57680E+000	9	...........
	81	1.09333	1.18969E-001	-3.97948E-004	0.00000E+000	-4.73434E-005	-2.40040E-001	1.18992E-001	3.57680E+000	9	...........
	82	1.10667	1.13780E-001	-3.97173E-004	0.00000E+000	-4.51901E-005	-2.40040E-001	1.13803E-001	3.57680E+000	9	...........
	83	1.12	1.08559E-001	-3.99825E-004	0.00000E+000	-4.34048E-005	-2.40040E-001	1.08583E-001	3.57680E+000	9	...........
	84	1.13333	1.03477E-001	-3.99555E-004	0.00000E+000	-4.13447E-005	-2.40040E-001	1.03495E-001	3.57680E+000	9	...........
	85	1.14667	9.83366E-002	-3.98201E-004	0.00000E+000	-3.91577E-005	-2.40040E-001	9.83614E-002	3.57680E+000	9	...........
	86	1.16	9.33223E-002	-3.98979E-004	0.00000E+000	-3.72337E-005	-2.40040E-001	9.33385E-002	3.57680E+000	9	...........
	87	1.17333	8.82998E-002	-3.98634E-004	0.00000E+000	-3.51993E-005	-2.40040E-001	8.83177E-002	3.57680E+000	9	...........
	88	1.18667	8.32403E-002	-3.98212E-004	0.00000E+000	-3.31473E-005	-2.40040E-001	8.32508E-002	3.57680E+000	9	...........
	89	1.2	7.82453E-002	-3.98417E-004	0.00000E+000	-3.11742E-005	-2.40040E-001	7.82493E-002	3.57680E+000	9	...........
	90	1.21333	7.31615E-002	-3.98068E-004	0.00000E+000	-2.91232E-005	-2.40040E-001	7.31669E-002	3.57680E+000	9	...........
	91	1.22667	6.82404E-002	-3.97549E-004	0.00000E+000	-2.71289E-005	-2.40040E-001	6.82424E-002	3.57680E+000	9	...........
	92	1.24	6.33409E-002	-3.98946E-004	0.00000E+000	-2.52696E-005	-2.40040E-001	6.33395E-002	3.57680E+000	9	...........
	93	1.25333	5.84310E-002	-3.98652E-004	0.00000E+000	-2.32936E-005	-2.40040E-001	5.84324E-002	3.57680E+000	9	...........
	94	1.26667	5.35678E-002	-3.98799E-004	0.00000E+000	-2.13628E-005	-2.40040E-001	5.35609E-002	3.57680E+000	9	...........
	95	1.28	4.87115E-002	-3.97863E-004	0.00000E+000	-1.93805E-005	-2.40040E-001	4.87133E-002	3.57680E+000	9	...........
	96	1.29333	4.39571E-002	-3.99027E-004	0.00000E+000	-1.75401E-005	-2.40040E-001	4.39623E-002	3.57680E+000	9	...........
	97	1.30667	3.92471E-002	-3.98925E-004	0.00000E+000	-1.56567E-005	-2.40040E-001	3.92481E-002	3.57680E+000	9	...........
	98	1.32	3.45036E-002	-3.98877E-004	0.00000E+000	-1.37627E-005	-2.40040E-001	3.44985E-002	3.57680E+000	9	...........
	99	1.33333	2.98038E-002	-3.99042E-004	0.00000E+000	-1.18930E-005	-2.40040E-001	2.98008E-002	3.57680E+000	9	...........
	100	1.34667	2.51555E-002	-3.98904E-004	0.00000E+000	-1.00346E-005	-2.40040E-001	2.51502E-002	3.57680E+000	9	...........
	101	1.36	2.05565E-002	-3.98305E-004	0.00000E+000	-8.18775E-006	-2.40040E-001	2.05487E-002	3.57680E+000	9	...........
	102	1.37333	1.59455E-002	-3.98752E-004	0.00000E+000	-6.35829E-006	-2.40040E-001	1.59357E-002	3.57680E+000	9	...........
	103	1.38667	1.14235E-002	-3.98937E-004	0.00000E+000	-4.55726E-006	-2.40040E-001	1.14037E-002	3.57680E+000	9	...........
	104	1.4	6.90147E-003	-3.99338E-004	0.00000E+000	-2.75602E-006	-2.40040E-001	6.88963E-003	3.57680E+000	9	...........
	105	1.41333	2.40423E-003	-3.98281E-004	0.00000E+000	-9.57559E-007	-2.40040E-001	2.38570E-003	3.57680E+000	9	...........
	106	1.415	-1.40389E-004	-4.00140E-004	0.00000E+000	5.61753E-008	-2.40040E-001	-1.60570E-004	3.57680E+000	9	...........
STARTTIMEOFFSET	QUANT	2318.562	Start Time Offset (s)
