EXPLAIN
TAG	PWR800_DISCHARGE
TITLE	LABEL	PWR Cyclic Charge Discharge (Cell) - Discharge Step	Test &Identifier
DATE	LABEL	12-7-2017	Date
TIME	LABEL	14:52:57	Time
NOTES	NOTES	3	&Notes...
	supercap test cell
	0.4mg
	6M KOH
PSTAT	PSTAT	IFC5000-01520	Potentiostat
CAPACITY	QUANT	1.00000E-003	Capacity (A-hr)
CELLTYPE	SELECTOR	1	&Cell Type
WORKINGCONNECTION	SELECTOR	0	&Working Lead
MAXDISCHARGETIME	VARIABLEANDUNITS	1.00000E+002	s	1.00000E+002	second(s)	Max &Discharge Time
DISCHARGEMODE	MULTIPARAM	0	4.00000E-004	&Discharge Mode	Constant Current	Amp(s)
SAMPLETIME	QUANT	1.00000E-002	Sa&mple Period (s)
DISCHARGESTOPAT1	MULTIPARAM	3	0.00000E+000	Discharge Stop At &1	Voltage < Limit	V
DISCHARGESTOPAT2	MULTIPARAM	0	0.00000E+000	Discharge Stop At &2	None	N/A
AESBHCSELECTOR	TOGGLE	F	Save Both Half Cells
IRCOMP	TOGGLE	F	IR &Measure
EOC	QUANT	0	Open Circuit (V)
SEQUENCER	TOGGLE	TRUE	Run as Sequence
PSTATMODEL	IQUANT	53	Pstat Model
PSTATSECTION	LABEL	IFC5000-01520	Pstat Section
PSTATSERIALNO	LABEL	01520	Pstat Serial Number
CTRLMODE	IQUANT	0	Control Mode
ELECTROMETER	IQUANT	1	RE=0 or CS=1
IESTAB	IQUANT	0	I/E Stability
CASPEED	IQUANT	4	Control Amp Speed
CONVENTION	IQUANT	1	Current Convention
ICHRANGE	IQUANT	2	Ich Range
ICHRANGEMODE	TOGGLE	T	Ich Auto Range
ICHOFFSETENABLE	TOGGLE	F	Ich Offset Enable
ICHOFFSET	QUANT	0	Ich Offset (V)
ICHFILTER	IQUANT	1	Ich Filter
VCHRANGE	IQUANT	2	Vch Range
VCHRANGEMODE	TOGGLE	T	Vch Auto Range
VCHOFFSETENABLE	TOGGLE	F	Vch Offset Enable
VCHOFFSET	QUANT	0	Vch Offset (V)
VCHFILTER	IQUANT	1	Vch Filter
IERANGELOWERLIMIT	IQUANT	9	I/E Range Lower Limit
IERANGEMODE	TOGGLE	F	I/E AutoRange
IERANGE	IQUANT	9	I/E Range
ACHSELECT	IQUANT	1	Ach Select
ACHRANGE	IQUANT	2	Ach Range
ACHOFFSETENABLE	TOGGLE	F	Ach Offset Enable
ACHOFFSET	QUANT	0	Ach Offset (V)
ACHFILTER	IQUANT	1	Ach Filter
CABLEID	IQUANT	14	Cable ID
DCCALDATE	LABEL	5-7-2017	DC Calibration Date
ACCALDATE	LABEL	12/3/2015	AC Calibration Date
FRAMEWORKVERSION	QUANT	7.01	Framework Version
INSTRUMENTVERSION	LABEL	4.00	Instrument Version
CURVE	TABLE	112
	Pt	T	Vf	Im	Vu	Pwr	Sig	Ach	Temp	IERange	Over
	#	s	V	A	V	W	V	V	deg C	#	bits
	0	0.013333	6.99759E-001	-3.98978E-004	0.00000E+000	-2.79188E-004	-2.40040E-001	6.99992E-001	3.57620E+000	9	...........
	1	0.026667	6.87268E-001	-3.98617E-004	0.00000E+000	-2.73956E-004	-2.40040E-001	6.87495E-001	3.57620E+000	9	...........
	2	0.04	6.76211E-001	-4.00705E-004	0.00000E+000	-2.70961E-004	-2.40040E-001	6.76420E-001	3.57620E+000	9	...........
	3	0.053333	6.66131E-001	-4.00427E-004	0.00000E+000	-2.66737E-004	-2.40040E-001	6.66328E-001	3.57620E+000	9	...........
	4	0.066667	6.56645E-001	-3.98063E-004	0.00000E+000	-2.61386E-004	-2.40040E-001	6.56844E-001	3.57620E+000	9	...........
	5	0.08	6.47457E-001	-3.99458E-004	0.00000E+000	-2.58632E-004	-2.40040E-001	6.47633E-001	3.57620E+000	9	...........
	6	0.093333	6.38552E-001	-3.98183E-004	0.00000E+000	-2.54261E-004	-2.40040E-001	6.38752E-001	3.57620E+000	9	...........
	7	0.106667	6.29885E-001	-3.98621E-004	0.00000E+000	-2.51085E-004	-2.40040E-001	6.30089E-001	3.57620E+000	9	...........
	8	0.12	6.21467E-001	-3.98043E-004	0.00000E+000	-2.47370E-004	-2.40040E-001	6.21658E-001	3.57620E+000	9	...........
	9	0.133333	6.13167E-001	-4.00749E-004	0.00000E+000	-2.45726E-004	-2.40040E-001	6.13397E-001	3.57620E+000	9	...........
	10	0.146667	6.04894E-001	-3.97889E-004	0.00000E+000	-2.40681E-004	-2.40040E-001	6.05153E-001	3.57620E+000	9	...........
	11	0.16	5.96842E-001	-3.97855E-004	0.00000E+000	-2.37457E-004	-2.40040E-001	5.97071E-001	3.57620E+000	9	...........
	12	0.173333	5.88850E-001	-3.98912E-004	0.00000E+000	-2.34900E-004	-2.40040E-001	5.89106E-001	3.57620E+000	9	...........
	13	0.186667	5.80962E-001	-3.99786E-004	0.00000E+000	-2.32260E-004	-2.40040E-001	5.81202E-001	3.57620E+000	9	...........
	14	0.2	5.73123E-001	-3.99800E-004	0.00000E+000	-2.29135E-004	-2.40040E-001	5.73338E-001	3.57620E+000	9	...........
	15	0.213333	5.65384E-001	-3.98131E-004	0.00000E+000	-2.25097E-004	-2.40040E-001	5.65610E-001	3.57620E+000	9	...........
	16	0.226667	5.57691E-001	-3.99352E-004	0.00000E+000	-2.22715E-004	-2.40040E-001	5.57896E-001	3.57620E+000	9	...........
	17	0.24	5.50122E-001	-3.96887E-004	0.00000E+000	-2.18336E-004	-2.40040E-001	5.50305E-001	3.57620E+000	9	...........
	18	0.253333	5.42501E-001	-3.99482E-004	0.00000E+000	-2.16719E-004	-2.40040E-001	5.42680E-001	3.57620E+000	9	...........
	19	0.266667	5.35023E-001	-3.99004E-004	0.00000E+000	-2.13476E-004	-2.40040E-001	5.35216E-001	3.57620E+000	9	...........
	20	0.28	5.27566E-001	-3.97861E-004	0.00000E+000	-2.09898E-004	-2.40040E-001	5.27776E-001	3.57620E+000	9	...........
	21	0.293333	5.20155E-001	-4.00060E-004	0.00000E+000	-2.08093E-004	-2.40040E-001	5.20324E-001	3.57620E+000	9	...........
	22	0.306667	5.12663E-001	-3.99657E-004	0.00000E+000	-2.04890E-004	-2.40040E-001	5.12828E-001	3.57620E+000	9	...........
	23	0.32	5.05252E-001	-3.98479E-004	0.00000E+000	-2.01332E-004	-2.40040E-001	5.05436E-001	3.57620E+000	9	...........
	24	0.333333	4.97938E-001	-3.99504E-004	0.00000E+000	-1.98928E-004	-2.40040E-001	4.98128E-001	3.57620E+000	9	...........
	25	0.346667	4.90750E-001	-3.98251E-004	0.00000E+000	-1.95442E-004	-2.40040E-001	4.90926E-001	3.57620E+000	9	...........
	26	0.36	4.83599E-001	-3.99585E-004	0.00000E+000	-1.93239E-004	-2.40040E-001	4.83727E-001	3.57620E+000	9	...........
	27	0.373333	4.76463E-001	-3.99315E-004	0.00000E+000	-1.90259E-004	-2.40040E-001	4.76556E-001	3.57620E+000	9	...........
	28	0.386667	4.69273E-001	-3.98363E-004	0.00000E+000	-1.86941E-004	-2.40040E-001	4.69370E-001	3.57620E+000	9	...........
	29	0.4	4.62158E-001	-3.99710E-004	0.00000E+000	-1.84729E-004	-2.40040E-001	4.62253E-001	3.57620E+000	9	...........
	30	0.413333	4.55109E-001	-3.98209E-004	0.00000E+000	-1.81229E-004	-2.40040E-001	4.55202E-001	3.57620E+000	9	...........
	31	0.426667	4.48058E-001	-3.98819E-004	0.00000E+000	-1.78694E-004	-2.40040E-001	4.48151E-001	3.57620E+000	9	...........
	32	0.44	4.41042E-001	-3.97915E-004	0.00000E+000	-1.75498E-004	-2.40040E-001	4.41133E-001	3.57620E+000	9	...........
	33	0.453333	4.34095E-001	-3.98945E-004	0.00000E+000	-1.73180E-004	-2.40040E-001	4.34184E-001	3.57620E+000	9	...........
	34	0.466667	4.27162E-001	-3.99431E-004	0.00000E+000	-1.70622E-004	-2.40040E-001	4.27255E-001	3.57620E+000	9	...........
	35	0.48	4.20250E-001	-4.00033E-004	0.00000E+000	-1.68114E-004	-2.40040E-001	4.20343E-001	3.57620E+000	9	...........
	36	0.493333	4.13442E-001	-3.97054E-004	0.00000E+000	-1.64159E-004	-2.40040E-001	4.13530E-001	3.57620E+000	9	...........
	37	0.506667	4.06659E-001	-3.98694E-004	0.00000E+000	-1.62132E-004	-2.40040E-001	4.06737E-001	3.57620E+000	9	...........
	38	0.52	3.99892E-001	-3.98673E-004	0.00000E+000	-1.59426E-004	-2.40040E-001	3.99973E-001	3.57620E+000	9	...........
	39	0.533333	3.93179E-001	-3.98560E-004	0.00000E+000	-1.56705E-004	-2.40040E-001	3.93256E-001	3.57620E+000	9	...........
	40	0.546667	3.86442E-001	-3.99085E-004	0.00000E+000	-1.54224E-004	-2.40040E-001	3.86518E-001	3.57620E+000	9	...........
	41	0.56	3.79843E-001	-3.99148E-004	0.00000E+000	-1.51613E-004	-2.40040E-001	3.79921E-001	3.57620E+000	9	...........
	42	0.573333	3.73193E-001	-3.97179E-004	0.00000E+000	-1.48224E-004	-2.40040E-001	3.73265E-001	3.57620E+000	9	...........
	43	0.586667	3.66621E-001	-3.99168E-004	0.00000E+000	-1.46343E-004	-2.40040E-001	3.66692E-001	3.57620E+000	9	...........
	44	0.6	3.60136E-001	-3.99284E-004	0.00000E+000	-1.43797E-004	-2.40040E-001	3.60211E-001	3.57620E+000	9	...........
	45	0.613333	3.53677E-001	-3.98712E-004	0.00000E+000	-1.41015E-004	-2.40040E-001	3.53751E-001	3.57620E+000	9	...........
	46	0.626667	3.47245E-001	-3.98966E-004	0.00000E+000	-1.38539E-004	-2.40040E-001	3.47310E-001	3.57620E+000	9	...........
	47	0.64	3.40791E-001	-3.98836E-004	0.00000E+000	-1.35920E-004	-2.40040E-001	3.40861E-001	3.57620E+000	9	...........
	48	0.653333	3.34346E-001	-3.98363E-004	0.00000E+000	-1.33191E-004	-2.40040E-001	3.34413E-001	3.57620E+000	9	...........
	49	0.666667	3.27976E-001	-3.98503E-004	0.00000E+000	-1.30699E-004	-2.40040E-001	3.28044E-001	3.57620E+000	9	...........
	50	0.68	3.21731E-001	-3.97791E-004	0.00000E+000	-1.27982E-004	-2.40040E-001	3.21792E-001	3.57620E+000	9	...........
	51	0.693333	3.15522E-001	-3.98761E-004	0.00000E+000	-1.25818E-004	-2.40040E-001	3.15587E-001	3.57620E+000	9	...........
	52	0.706667	3.09314E-001	-3.98942E-004	0.00000E+000	-1.23398E-004	-2.40040E-001	3.09377E-001	3.57620E+000	9	...........
	53	0.72	3.03127E-001	-3.98024E-004	0.00000E+000	-1.20652E-004	-2.40040E-001	3.03186E-001	3.57620E+000	9	...........
	54	0.733333	2.96938E-001	-3.98811E-004	0.00000E+000	-1.18422E-004	-2.40040E-001	2.96993E-001	3.57620E+000	9	...........
	55	0.746667	2.90786E-001	-3.99190E-004	0.00000E+000	-1.16079E-004	-2.40040E-001	2.90845E-001	3.57620E+000	9	...........
	56	0.76	2.84790E-001	-3.98278E-004	0.00000E+000	-1.13425E-004	-2.40040E-001	2.84847E-001	3.57620E+000	9	...........
	57	0.773333	2.78779E-001	-3.99955E-004	0.00000E+000	-1.11499E-004	-2.40040E-001	2.78838E-001	3.57620E+000	9	...........
	58	0.786667	2.72835E-001	-3.97442E-004	0.00000E+000	-1.08436E-004	-2.40040E-001	2.72891E-001	3.57620E+000	9	...........
	59	0.8	2.66937E-001	-3.99310E-004	0.00000E+000	-1.06591E-004	-2.40040E-001	2.66988E-001	3.57620E+000	9	...........
	60	0.813333	2.60943E-001	-3.99554E-004	0.00000E+000	-1.04261E-004	-2.40040E-001	2.60996E-001	3.57620E+000	9	...........
	61	0.826667	2.55006E-001	-3.99438E-004	0.00000E+000	-1.01859E-004	-2.40040E-001	2.55057E-001	3.57620E+000	9	...........
	62	0.84	2.49143E-001	-3.99797E-004	0.00000E+000	-9.96066E-005	-2.40040E-001	2.49190E-001	3.57620E+000	9	...........
	63	0.853333	2.43254E-001	-3.98981E-004	0.00000E+000	-9.70536E-005	-2.40040E-001	2.43296E-001	3.57620E+000	9	...........
	64	0.866667	2.37513E-001	-3.99109E-004	0.00000E+000	-9.47938E-005	-2.40040E-001	2.37555E-001	3.57620E+000	9	...........
	65	0.88	2.31729E-001	-3.99067E-004	0.00000E+000	-9.24753E-005	-2.40040E-001	2.31771E-001	3.57620E+000	9	...........
	66	0.893333	2.26054E-001	-3.98846E-004	0.00000E+000	-9.01607E-005	-2.40040E-001	2.26097E-001	3.57620E+000	9	...........
	67	0.906667	2.20348E-001	-3.98551E-004	0.00000E+000	-8.78200E-005	-2.40040E-001	2.20391E-001	3.57620E+000	9	...........
	68	0.92	2.14725E-001	-3.98356E-004	0.00000E+000	-8.55371E-005	-2.40040E-001	2.14765E-001	3.57620E+000	9	...........
	69	0.933333	2.09117E-001	-3.99959E-004	0.00000E+000	-8.36380E-005	-2.40040E-001	2.09155E-001	3.57620E+000	9	...........
	70	0.946667	2.03590E-001	-3.98450E-004	0.00000E+000	-8.11204E-005	-2.40040E-001	2.03627E-001	3.57620E+000	9	...........
	71	0.96	1.98015E-001	-3.98515E-004	0.00000E+000	-7.89118E-005	-2.40040E-001	1.98054E-001	3.57620E+000	9	...........
	72	0.97333	1.92457E-001	-3.99394E-004	0.00000E+000	-7.68662E-005	-2.40040E-001	1.92490E-001	3.57620E+000	9	...........
	73	0.98667	1.87024E-001	-3.98716E-004	0.00000E+000	-7.45692E-005	-2.40040E-001	1.87056E-001	3.57620E+000	9	...........
	74	1	1.81565E-001	-3.99179E-004	0.00000E+000	-7.24771E-005	-2.40040E-001	1.81604E-001	3.57620E+000	9	...........
	75	1.01333	1.76192E-001	-3.98448E-004	0.00000E+000	-7.02034E-005	-2.40040E-001	1.76224E-001	3.57620E+000	9	...........
	76	1.02667	1.70792E-001	-4.00783E-004	0.00000E+000	-6.84504E-005	-2.40040E-001	1.70825E-001	3.57620E+000	9	...........
	77	1.04	1.65377E-001	-3.99725E-004	0.00000E+000	-6.61055E-005	-2.40040E-001	1.65409E-001	3.57620E+000	9	...........
	78	1.05333	1.60051E-001	-3.99131E-004	0.00000E+000	-6.38812E-005	-2.40040E-001	1.60079E-001	3.57620E+000	9	...........
	79	1.06667	1.54771E-001	-3.99268E-004	0.00000E+000	-6.17950E-005	-2.40040E-001	1.54801E-001	3.57620E+000	9	...........
	80	1.08	1.49519E-001	-3.98550E-004	0.00000E+000	-5.95909E-005	-2.40040E-001	1.49536E-001	3.57620E+000	9	...........
	81	1.09333	1.44188E-001	-4.00092E-004	0.00000E+000	-5.76885E-005	-2.40040E-001	1.44208E-001	3.57620E+000	9	...........
	82	1.10667	1.38985E-001	-3.99447E-004	0.00000E+000	-5.55172E-005	-2.40040E-001	1.39004E-001	3.57620E+000	9	...........
	83	1.12	1.33911E-001	-3.97964E-004	0.00000E+000	-5.32919E-005	-2.40040E-001	1.33934E-001	3.57620E+000	9	...........
	84	1.13333	1.28795E-001	-3.98958E-004	0.00000E+000	-5.13838E-005	-2.40040E-001	1.28813E-001	3.57620E+000	9	...........
	85	1.14667	1.23660E-001	-3.98951E-004	0.00000E+000	-4.93344E-005	-2.40040E-001	1.23679E-001	3.57620E+000	9	...........
	86	1.16	1.18570E-001	-3.99936E-004	0.00000E+000	-4.74205E-005	-2.40040E-001	1.18590E-001	3.57620E+000	9	...........
	87	1.17333	1.13524E-001	-3.97033E-004	0.00000E+000	-4.50728E-005	-2.40040E-001	1.13545E-001	3.57620E+000	9	...........
	88	1.18667	1.08504E-001	-3.99017E-004	0.00000E+000	-4.32949E-005	-2.40040E-001	1.08530E-001	3.57620E+000	9	...........
	89	1.2	1.03428E-001	-3.98486E-004	0.00000E+000	-4.12148E-005	-2.40040E-001	1.03449E-001	3.57620E+000	9	...........
	90	1.21333	9.84434E-002	-3.98628E-004	0.00000E+000	-3.92423E-005	-2.40040E-001	9.84676E-002	3.57620E+000	9	...........
	91	1.22667	9.36083E-002	-3.98969E-004	0.00000E+000	-3.73468E-005	-2.40040E-001	9.36311E-002	3.57620E+000	9	...........
	92	1.24	8.88037E-002	-3.98196E-004	0.00000E+000	-3.53612E-005	-2.40040E-001	8.88245E-002	3.57620E+000	9	...........
	93	1.25333	8.39533E-002	-3.98533E-004	0.00000E+000	-3.34582E-005	-2.40040E-001	8.39621E-002	3.57620E+000	9	...........
	94	1.26667	7.91113E-002	-3.99691E-004	0.00000E+000	-3.16200E-005	-2.40040E-001	7.91253E-002	3.57620E+000	9	...........
	95	1.28	7.43004E-002	-3.99427E-004	0.00000E+000	-2.96776E-005	-2.40040E-001	7.43098E-002	3.57620E+000	9	...........
	96	1.29333	6.94845E-002	-3.99418E-004	0.00000E+000	-2.77534E-005	-2.40040E-001	6.94946E-002	3.57620E+000	9	...........
	97	1.30667	6.47605E-002	-3.97706E-004	0.00000E+000	-2.57556E-005	-2.40040E-001	6.47675E-002	3.57620E+000	9	...........
	98	1.32	6.00884E-002	-3.99248E-004	0.00000E+000	-2.39902E-005	-2.40040E-001	6.00922E-002	3.57620E+000	9	...........
	99	1.33333	5.53784E-002	-3.99585E-004	0.00000E+000	-2.21283E-005	-2.40040E-001	5.53810E-002	3.57620E+000	9	...........
	100	1.34667	5.06558E-002	-3.98892E-004	0.00000E+000	-2.02062E-005	-2.40040E-001	5.06601E-002	3.57620E+000	9	...........
	101	1.36	4.59915E-002	-3.98969E-004	0.00000E+000	-1.83492E-005	-2.40040E-001	4.59988E-002	3.57620E+000	9	...........
	102	1.37333	4.14150E-002	-3.97667E-004	0.00000E+000	-1.64694E-005	-2.40040E-001	4.14183E-002	3.57620E+000	9	...........
	103	1.38667	3.69267E-002	-3.98932E-004	0.00000E+000	-1.47312E-005	-2.40040E-001	3.69290E-002	3.57620E+000	9	...........
	104	1.4	3.24327E-002	-3.99518E-004	0.00000E+000	-1.29574E-005	-2.40040E-001	3.24314E-002	3.57620E+000	9	...........
	105	1.41333	2.77783E-002	-3.99043E-004	0.00000E+000	-1.10847E-005	-2.40040E-001	2.77780E-002	3.57620E+000	9	...........
	106	1.42667	2.31887E-002	-3.99540E-004	0.00000E+000	-9.26479E-006	-2.40040E-001	2.31822E-002	3.57620E+000	9	...........
	107	1.44	1.87227E-002	-3.98982E-004	0.00000E+000	-7.47002E-006	-2.40040E-001	1.87166E-002	3.57620E+000	9	...........
	108	1.45333	1.42566E-002	-3.99078E-004	0.00000E+000	-5.68948E-006	-2.40040E-001	1.42465E-002	3.57620E+000	9	...........
	109	1.46667	9.86741E-003	-3.99312E-004	0.00000E+000	-3.94017E-006	-2.40040E-001	9.85587E-003	3.57620E+000	9	...........
	110	1.48	5.40517E-003	-3.98975E-004	0.00000E+000	-2.15653E-006	-2.40040E-001	5.39189E-003	3.57620E+000	9	...........
	111	1.49167	1.32248E-003	-3.97788E-004	0.00000E+000	-5.26067E-007	-2.40040E-001	1.30701E-003	3.57620E+000	9	...........
STARTTIMEOFFSET	QUANT	1640.923	Start Time Offset (s)
