EXPLAIN
TAG	PWR800_DISCHARGE
TITLE	LABEL	PWR Cyclic Charge Discharge (Cell) - Discharge Step	Test &Identifier
DATE	LABEL	12-7-2017	Date
TIME	LABEL	15:02:47	Time
NOTES	NOTES	3	&Notes...
	supercap test cell
	0.4mg
	6M KOH
PSTAT	PSTAT	IFC5000-01520	Potentiostat
CAPACITY	QUANT	1.00000E-003	Capacity (A-hr)
CELLTYPE	SELECTOR	1	&Cell Type
WORKINGCONNECTION	SELECTOR	0	&Working Lead
MAXDISCHARGETIME	VARIABLEANDUNITS	1.00000E+002	s	1.00000E+002	second(s)	Max &Discharge Time
DISCHARGEMODE	MULTIPARAM	0	4.00000E-004	&Discharge Mode	Constant Current	Amp(s)
SAMPLETIME	QUANT	1.00000E-002	Sa&mple Period (s)
DISCHARGESTOPAT1	MULTIPARAM	3	0.00000E+000	Discharge Stop At &1	Voltage < Limit	V
DISCHARGESTOPAT2	MULTIPARAM	0	0.00000E+000	Discharge Stop At &2	None	N/A
AESBHCSELECTOR	TOGGLE	F	Save Both Half Cells
IRCOMP	TOGGLE	F	IR &Measure
EOC	QUANT	0	Open Circuit (V)
SEQUENCER	TOGGLE	TRUE	Run as Sequence
PSTATMODEL	IQUANT	53	Pstat Model
PSTATSECTION	LABEL	IFC5000-01520	Pstat Section
PSTATSERIALNO	LABEL	01520	Pstat Serial Number
CTRLMODE	IQUANT	0	Control Mode
ELECTROMETER	IQUANT	1	RE=0 or CS=1
IESTAB	IQUANT	0	I/E Stability
CASPEED	IQUANT	4	Control Amp Speed
CONVENTION	IQUANT	1	Current Convention
ICHRANGE	IQUANT	2	Ich Range
ICHRANGEMODE	TOGGLE	T	Ich Auto Range
ICHOFFSETENABLE	TOGGLE	F	Ich Offset Enable
ICHOFFSET	QUANT	0	Ich Offset (V)
ICHFILTER	IQUANT	1	Ich Filter
VCHRANGE	IQUANT	2	Vch Range
VCHRANGEMODE	TOGGLE	T	Vch Auto Range
VCHOFFSETENABLE	TOGGLE	F	Vch Offset Enable
VCHOFFSET	QUANT	0	Vch Offset (V)
VCHFILTER	IQUANT	1	Vch Filter
IERANGELOWERLIMIT	IQUANT	9	I/E Range Lower Limit
IERANGEMODE	TOGGLE	F	I/E AutoRange
IERANGE	IQUANT	9	I/E Range
ACHSELECT	IQUANT	1	Ach Select
ACHRANGE	IQUANT	2	Ach Range
ACHOFFSETENABLE	TOGGLE	F	Ach Offset Enable
ACHOFFSET	QUANT	0	Ach Offset (V)
ACHFILTER	IQUANT	1	Ach Filter
CABLEID	IQUANT	14	Cable ID
DCCALDATE	LABEL	5-7-2017	DC Calibration Date
ACCALDATE	LABEL	12/3/2015	AC Calibration Date
FRAMEWORKVERSION	QUANT	7.01	Framework Version
INSTRUMENTVERSION	LABEL	4.00	Instrument Version
CURVE	TABLE	108
	Pt	T	Vf	Im	Vu	Pwr	Sig	Ach	Temp	IERange	Over
	#	s	V	A	V	W	V	V	deg C	#	bits
	0	0.013333	6.91618E-001	-3.98533E-004	0.00000E+000	-2.75633E-004	-2.40040E-001	6.91819E-001	3.57730E+000	9	...........
	1	0.026667	6.78645E-001	-3.98492E-004	0.00000E+000	-2.70434E-004	-2.40040E-001	6.78872E-001	3.57730E+000	9	...........
	2	0.04	6.67273E-001	-3.99144E-004	0.00000E+000	-2.66338E-004	-2.40040E-001	6.67484E-001	3.57730E+000	9	...........
	3	0.053333	6.56779E-001	-3.99158E-004	0.00000E+000	-2.62159E-004	-2.40040E-001	6.57021E-001	3.57730E+000	9	...........
	4	0.066667	6.46927E-001	-3.99068E-004	0.00000E+000	-2.58168E-004	-2.40040E-001	6.47162E-001	3.57730E+000	9	...........
	5	0.08	6.37515E-001	-3.97511E-004	0.00000E+000	-2.53419E-004	-2.40040E-001	6.37758E-001	3.57730E+000	9	...........
	6	0.093333	6.28409E-001	-3.97832E-004	0.00000E+000	-2.50001E-004	-2.40040E-001	6.28637E-001	3.57730E+000	9	...........
	7	0.106667	6.19572E-001	-3.98209E-004	0.00000E+000	-2.46719E-004	-2.40040E-001	6.19784E-001	3.57730E+000	9	...........
	8	0.12	6.10828E-001	-3.98127E-004	0.00000E+000	-2.43187E-004	-2.40040E-001	6.11112E-001	3.57730E+000	9	...........
	9	0.133333	6.02359E-001	-4.00027E-004	0.00000E+000	-2.40960E-004	-2.40040E-001	6.02626E-001	3.57730E+000	9	...........
	10	0.146667	5.93993E-001	-3.98687E-004	0.00000E+000	-2.36818E-004	-2.40040E-001	5.94253E-001	3.57730E+000	9	...........
	11	0.16	5.85712E-001	-3.99323E-004	0.00000E+000	-2.33888E-004	-2.40040E-001	5.85966E-001	3.57730E+000	9	...........
	12	0.173333	5.77564E-001	-3.98246E-004	0.00000E+000	-2.30012E-004	-2.40040E-001	5.77823E-001	3.57730E+000	9	...........
	13	0.186667	5.69486E-001	-3.99158E-004	0.00000E+000	-2.27315E-004	-2.40040E-001	5.69731E-001	3.57730E+000	9	...........
	14	0.2	5.61506E-001	-3.98181E-004	0.00000E+000	-2.23581E-004	-2.40040E-001	5.61750E-001	3.57730E+000	9	...........
	15	0.213333	5.53527E-001	-3.99000E-004	0.00000E+000	-2.20857E-004	-2.40040E-001	5.53737E-001	3.57730E+000	9	...........
	16	0.226667	5.45596E-001	-3.98371E-004	0.00000E+000	-2.17349E-004	-2.40040E-001	5.45815E-001	3.57730E+000	9	...........
	17	0.24	5.37764E-001	-3.98949E-004	0.00000E+000	-2.14540E-004	-2.40040E-001	5.38004E-001	3.57730E+000	9	...........
	18	0.253333	5.29977E-001	-3.99583E-004	0.00000E+000	-2.11770E-004	-2.40040E-001	5.30204E-001	3.57730E+000	9	...........
	19	0.266667	5.22254E-001	-3.98826E-004	0.00000E+000	-2.08289E-004	-2.40040E-001	5.22455E-001	3.57730E+000	9	...........
	20	0.28	5.14575E-001	-3.98327E-004	0.00000E+000	-2.04969E-004	-2.40040E-001	5.14737E-001	3.57730E+000	9	...........
	21	0.293333	5.06895E-001	-3.99630E-004	0.00000E+000	-2.02571E-004	-2.40040E-001	5.07091E-001	3.57675E+000	9	...........
	22	0.306667	4.99316E-001	-3.98728E-004	0.00000E+000	-1.99091E-004	-2.40040E-001	4.99504E-001	3.57620E+000	9	...........
	23	0.32	4.91777E-001	-3.98891E-004	0.00000E+000	-1.96165E-004	-2.40040E-001	4.91955E-001	3.57620E+000	9	...........
	24	0.333333	4.84392E-001	-3.99972E-004	0.00000E+000	-1.93743E-004	-2.40040E-001	4.84541E-001	3.57620E+000	9	...........
	25	0.346667	4.77066E-001	-3.99195E-004	0.00000E+000	-1.90442E-004	-2.40040E-001	4.77161E-001	3.57620E+000	9	...........
	26	0.36	4.69662E-001	-3.99275E-004	0.00000E+000	-1.87524E-004	-2.40040E-001	4.69753E-001	3.57620E+000	9	...........
	27	0.373333	4.62254E-001	-3.98932E-004	0.00000E+000	-1.84408E-004	-2.40040E-001	4.62346E-001	3.57620E+000	9	...........
	28	0.386667	4.55006E-001	-3.98395E-004	0.00000E+000	-1.81272E-004	-2.40040E-001	4.55094E-001	3.57620E+000	9	...........
	29	0.4	4.47649E-001	-3.97989E-004	0.00000E+000	-1.78160E-004	-2.40040E-001	4.47736E-001	3.57620E+000	9	...........
	30	0.413333	4.40410E-001	-3.98851E-004	0.00000E+000	-1.75658E-004	-2.40040E-001	4.40496E-001	3.57620E+000	9	...........
	31	0.426667	4.33275E-001	-3.98238E-004	0.00000E+000	-1.72547E-004	-2.40040E-001	4.33362E-001	3.57620E+000	9	...........
	32	0.44	4.26081E-001	-3.98204E-004	0.00000E+000	-1.69667E-004	-2.40040E-001	4.26162E-001	3.57620E+000	9	...........
	33	0.453333	4.18959E-001	-3.98538E-004	0.00000E+000	-1.66971E-004	-2.40040E-001	4.19046E-001	3.57620E+000	9	...........
	34	0.466667	4.11928E-001	-3.99294E-004	0.00000E+000	-1.64480E-004	-2.40040E-001	4.12008E-001	3.57620E+000	9	...........
	35	0.48	4.04934E-001	-3.97823E-004	0.00000E+000	-1.61092E-004	-2.40040E-001	4.05010E-001	3.57620E+000	9	...........
	36	0.493333	3.97991E-001	-3.98477E-004	0.00000E+000	-1.58590E-004	-2.40040E-001	3.98064E-001	3.57620E+000	9	...........
	37	0.506667	3.91062E-001	-3.97871E-004	0.00000E+000	-1.55592E-004	-2.40040E-001	3.91126E-001	3.57620E+000	9	...........
	38	0.52	3.84184E-001	-3.99224E-004	0.00000E+000	-1.53376E-004	-2.40040E-001	3.84252E-001	3.57620E+000	9	...........
	39	0.533333	3.77284E-001	-3.99110E-004	0.00000E+000	-1.50578E-004	-2.40040E-001	3.77358E-001	3.57620E+000	9	...........
	40	0.546667	3.70523E-001	-3.98991E-004	0.00000E+000	-1.47835E-004	-2.40040E-001	3.70589E-001	3.57620E+000	9	...........
	41	0.56	3.63788E-001	-3.97919E-004	0.00000E+000	-1.44758E-004	-2.40040E-001	3.63862E-001	3.57620E+000	9	...........
	42	0.573333	3.56923E-001	-3.98758E-004	0.00000E+000	-1.42326E-004	-2.40040E-001	3.56990E-001	3.57620E+000	9	...........
	43	0.586667	3.50228E-001	-3.98889E-004	0.00000E+000	-1.39702E-004	-2.40040E-001	3.50289E-001	3.57620E+000	9	...........
	44	0.6	3.43536E-001	-3.98510E-004	0.00000E+000	-1.36902E-004	-2.40040E-001	3.43605E-001	3.57620E+000	9	...........
	45	0.613333	3.36997E-001	-3.98874E-004	0.00000E+000	-1.34420E-004	-2.40040E-001	3.37066E-001	3.57620E+000	9	...........
	46	0.626667	3.30433E-001	-3.98858E-004	0.00000E+000	-1.31796E-004	-2.40040E-001	3.30497E-001	3.57620E+000	9	...........
	47	0.64	3.23925E-001	-3.98532E-004	0.00000E+000	-1.29094E-004	-2.40040E-001	3.23987E-001	3.57620E+000	9	...........
	48	0.653333	3.17481E-001	-3.98090E-004	0.00000E+000	-1.26386E-004	-2.40040E-001	3.17542E-001	3.57620E+000	9	...........
	49	0.666667	3.11022E-001	-3.99026E-004	0.00000E+000	-1.24106E-004	-2.40040E-001	3.11082E-001	3.57620E+000	9	...........
	50	0.68	3.04604E-001	-3.98584E-004	0.00000E+000	-1.21410E-004	-2.40040E-001	3.04666E-001	3.57620E+000	9	...........
	51	0.693333	2.98229E-001	-3.97952E-004	0.00000E+000	-1.18681E-004	-2.40040E-001	2.98288E-001	3.57620E+000	9	...........
	52	0.706667	2.91894E-001	-3.98402E-004	0.00000E+000	-1.16291E-004	-2.40040E-001	2.91951E-001	3.57620E+000	9	...........
	53	0.72	2.85615E-001	-3.98201E-004	0.00000E+000	-1.13732E-004	-2.40040E-001	2.85673E-001	3.57620E+000	9	...........
	54	0.733333	2.79389E-001	-3.97952E-004	0.00000E+000	-1.11183E-004	-2.40040E-001	2.79443E-001	3.57620E+000	9	...........
	55	0.746667	2.73184E-001	-3.99566E-004	0.00000E+000	-1.09155E-004	-2.40040E-001	2.73238E-001	3.57620E+000	9	...........
	56	0.76	2.67001E-001	-3.98025E-004	0.00000E+000	-1.06273E-004	-2.40040E-001	2.67055E-001	3.57620E+000	9	...........
	57	0.773333	2.60855E-001	-4.00164E-004	0.00000E+000	-1.04385E-004	-2.40040E-001	2.60908E-001	3.57620E+000	9	...........
	58	0.786667	2.54761E-001	-3.98380E-004	0.00000E+000	-1.01492E-004	-2.40040E-001	2.54810E-001	3.57620E+000	9	...........
	59	0.8	2.48680E-001	-3.98971E-004	0.00000E+000	-9.92161E-005	-2.40040E-001	2.48724E-001	3.57620E+000	9	...........
	60	0.813333	2.42667E-001	-3.98279E-004	0.00000E+000	-9.66493E-005	-2.40040E-001	2.42709E-001	3.57620E+000	9	...........
	61	0.826667	2.36633E-001	-4.00122E-004	0.00000E+000	-9.46822E-005	-2.40040E-001	2.36677E-001	3.57620E+000	9	...........
	62	0.84	2.30681E-001	-3.98378E-004	0.00000E+000	-9.18981E-005	-2.40040E-001	2.30727E-001	3.57620E+000	9	...........
	63	0.853333	2.24834E-001	-3.98757E-004	0.00000E+000	-8.96543E-005	-2.40040E-001	2.24872E-001	3.57620E+000	9	...........
	64	0.866667	2.19059E-001	-3.98868E-004	0.00000E+000	-8.73755E-005	-2.40040E-001	2.19099E-001	3.57620E+000	9	...........
	65	0.88	2.13308E-001	-3.98134E-004	0.00000E+000	-8.49253E-005	-2.40040E-001	2.13341E-001	3.57620E+000	9	...........
	66	0.893333	2.07529E-001	-3.98200E-004	0.00000E+000	-8.26378E-005	-2.40040E-001	2.07569E-001	3.57620E+000	9	...........
	67	0.906667	2.01838E-001	-3.98239E-004	0.00000E+000	-8.03797E-005	-2.40040E-001	2.01876E-001	3.57620E+000	9	...........
	68	0.92	1.96155E-001	-3.98946E-004	0.00000E+000	-7.82554E-005	-2.40040E-001	1.96198E-001	3.57620E+000	9	...........
	69	0.933333	1.90499E-001	-3.98953E-004	0.00000E+000	-7.60003E-005	-2.40040E-001	1.90541E-001	3.57620E+000	9	...........
	70	0.946667	1.84872E-001	-3.99419E-004	0.00000E+000	-7.38414E-005	-2.40040E-001	1.84903E-001	3.57620E+000	9	...........
	71	0.96	1.79233E-001	-3.99070E-004	0.00000E+000	-7.15264E-005	-2.40040E-001	1.79261E-001	3.57620E+000	9	...........
	72	0.97333	1.73689E-001	-4.00037E-004	0.00000E+000	-6.94818E-005	-2.40040E-001	1.73719E-001	3.57620E+000	9	...........
	73	0.98667	1.68169E-001	-3.99232E-004	0.00000E+000	-6.71385E-005	-2.40040E-001	1.68201E-001	3.57620E+000	9	...........
	74	1	1.62685E-001	-3.98368E-004	0.00000E+000	-6.48086E-005	-2.40040E-001	1.62713E-001	3.57620E+000	9	...........
	75	1.01333	1.57254E-001	-3.97982E-004	0.00000E+000	-6.25844E-005	-2.40040E-001	1.57280E-001	3.57620E+000	9	...........
	76	1.02667	1.51836E-001	-3.98274E-004	0.00000E+000	-6.04724E-005	-2.40040E-001	1.51858E-001	3.57620E+000	9	...........
	77	1.04	1.46551E-001	-3.98612E-004	0.00000E+000	-5.84171E-005	-2.40040E-001	1.46573E-001	3.57620E+000	9	...........
	78	1.05333	1.41215E-001	-3.99824E-004	0.00000E+000	-5.64611E-005	-2.40040E-001	1.41238E-001	3.57620E+000	9	...........
	79	1.06667	1.35953E-001	-4.00289E-004	0.00000E+000	-5.44203E-005	-2.40040E-001	1.35973E-001	3.57620E+000	9	...........
	80	1.08	1.30642E-001	-3.98582E-004	0.00000E+000	-5.20717E-005	-2.40040E-001	1.30664E-001	3.57620E+000	9	...........
	81	1.09333	1.25476E-001	-3.98472E-004	0.00000E+000	-4.99987E-005	-2.40040E-001	1.25494E-001	3.57620E+000	9	...........
	82	1.10667	1.20197E-001	-3.99128E-004	0.00000E+000	-4.79740E-005	-2.40040E-001	1.20226E-001	3.57620E+000	9	...........
	83	1.12	1.14984E-001	-3.98605E-004	0.00000E+000	-4.58331E-005	-2.40040E-001	1.15006E-001	3.57620E+000	9	...........
	84	1.13333	1.09794E-001	-3.98649E-004	0.00000E+000	-4.37693E-005	-2.40040E-001	1.09817E-001	3.57620E+000	9	...........
	85	1.14667	1.04694E-001	-3.98554E-004	0.00000E+000	-4.17262E-005	-2.40040E-001	1.04713E-001	3.57620E+000	9	...........
	86	1.16	9.96040E-002	-3.99262E-004	0.00000E+000	-3.97680E-005	-2.40040E-001	9.96266E-002	3.57620E+000	9	...........
	87	1.17333	9.45744E-002	-3.98391E-004	0.00000E+000	-3.76776E-005	-2.40040E-001	9.45894E-002	3.57620E+000	9	...........
	88	1.18667	8.95534E-002	-3.98571E-004	0.00000E+000	-3.56934E-005	-2.40040E-001	8.95681E-002	3.57620E+000	9	...........
	89	1.2	8.45845E-002	-3.98823E-004	0.00000E+000	-3.37342E-005	-2.40040E-001	8.46022E-002	3.57620E+000	9	...........
	90	1.21333	7.97148E-002	-3.98328E-004	0.00000E+000	-3.17526E-005	-2.40040E-001	7.97286E-002	3.57620E+000	9	...........
	91	1.22667	7.47954E-002	-3.99554E-004	0.00000E+000	-2.98848E-005	-2.40040E-001	7.47994E-002	3.57620E+000	9	...........
	92	1.24	6.98934E-002	-3.99350E-004	0.00000E+000	-2.79119E-005	-2.40040E-001	6.98985E-002	3.57620E+000	9	...........
	93	1.25333	6.50802E-002	-3.97405E-004	0.00000E+000	-2.58632E-005	-2.40040E-001	6.50896E-002	3.57620E+000	9	...........
	94	1.26667	6.01993E-002	-3.99009E-004	0.00000E+000	-2.40201E-005	-2.40040E-001	6.02069E-002	3.57620E+000	9	...........
	95	1.28	5.53736E-002	-3.97741E-004	0.00000E+000	-2.20244E-005	-2.40040E-001	5.53754E-002	3.57620E+000	9	...........
	96	1.29333	5.05539E-002	-3.99750E-004	0.00000E+000	-2.02089E-005	-2.40040E-001	5.05594E-002	3.57625E+000	9	...........
	97	1.30667	4.58042E-002	-3.98063E-004	0.00000E+000	-1.82330E-005	-2.40040E-001	4.58099E-002	3.57630E+000	9	...........
	98	1.32	4.11470E-002	-3.99206E-004	0.00000E+000	-1.64261E-005	-2.40040E-001	4.11477E-002	3.57630E+000	9	...........
	99	1.33333	3.65481E-002	-3.97952E-004	0.00000E+000	-1.45444E-005	-2.40040E-001	3.65514E-002	3.57630E+000	9	...........
	100	1.34667	3.18573E-002	-3.99580E-004	0.00000E+000	-1.27296E-005	-2.40040E-001	3.18542E-002	3.57630E+000	9	...........
	101	1.36	2.71486E-002	-3.99184E-004	0.00000E+000	-1.08373E-005	-2.40040E-001	2.71452E-002	3.57630E+000	9	...........
	102	1.37333	2.25487E-002	-3.97458E-004	0.00000E+000	-8.96217E-006	-2.40040E-001	2.25393E-002	3.57630E+000	9	...........
	103	1.38667	1.79596E-002	-3.99367E-004	0.00000E+000	-7.17246E-006	-2.40040E-001	1.79501E-002	3.57630E+000	9	...........
	104	1.4	1.34058E-002	-3.99112E-004	0.00000E+000	-5.35041E-006	-2.40040E-001	1.33910E-002	3.57630E+000	9	...........
	105	1.41333	8.89152E-003	-3.98259E-004	0.00000E+000	-3.54113E-006	-2.40040E-001	8.87321E-003	3.57630E+000	9	...........
	106	1.42667	4.39894E-003	-3.98261E-004	0.00000E+000	-1.75193E-006	-2.40040E-001	4.37858E-003	3.57630E+000	9	...........
	107	1.435	7.38760E-004	-3.99575E-004	0.00000E+000	-2.95190E-007	-2.40040E-001	7.16712E-004	3.57630E+000	9	...........
STARTTIMEOFFSET	QUANT	2103.525	Start Time Offset (s)
