EXPLAIN
TAG	PWR800_DISCHARGE
TITLE	LABEL	PWR Cyclic Charge Discharge (Cell) - Discharge Step	Test &Identifier
DATE	LABEL	12-7-2017	Date
TIME	LABEL	14:37:13	Time
NOTES	NOTES	3	&Notes...
	supercap test cell
	0.4mg
	6M KOH
PSTAT	PSTAT	IFC5000-01520	Potentiostat
CAPACITY	QUANT	1.00000E-003	Capacity (A-hr)
CELLTYPE	SELECTOR	1	&Cell Type
WORKINGCONNECTION	SELECTOR	0	&Working Lead
MAXDISCHARGETIME	VARIABLEANDUNITS	1.00000E+002	s	1.00000E+002	second(s)	Max &Discharge Time
DISCHARGEMODE	MULTIPARAM	0	4.00000E-004	&Discharge Mode	Constant Current	Amp(s)
SAMPLETIME	QUANT	1.00000E-002	Sa&mple Period (s)
DISCHARGESTOPAT1	MULTIPARAM	3	0.00000E+000	Discharge Stop At &1	Voltage < Limit	V
DISCHARGESTOPAT2	MULTIPARAM	0	0.00000E+000	Discharge Stop At &2	None	N/A
AESBHCSELECTOR	TOGGLE	F	Save Both Half Cells
IRCOMP	TOGGLE	F	IR &Measure
EOC	QUANT	0	Open Circuit (V)
SEQUENCER	TOGGLE	TRUE	Run as Sequence
PSTATMODEL	IQUANT	53	Pstat Model
PSTATSECTION	LABEL	IFC5000-01520	Pstat Section
PSTATSERIALNO	LABEL	01520	Pstat Serial Number
CTRLMODE	IQUANT	0	Control Mode
ELECTROMETER	IQUANT	1	RE=0 or CS=1
IESTAB	IQUANT	0	I/E Stability
CASPEED	IQUANT	4	Control Amp Speed
CONVENTION	IQUANT	1	Current Convention
ICHRANGE	IQUANT	2	Ich Range
ICHRANGEMODE	TOGGLE	T	Ich Auto Range
ICHOFFSETENABLE	TOGGLE	F	Ich Offset Enable
ICHOFFSET	QUANT	0	Ich Offset (V)
ICHFILTER	IQUANT	1	Ich Filter
VCHRANGE	IQUANT	2	Vch Range
VCHRANGEMODE	TOGGLE	T	Vch Auto Range
VCHOFFSETENABLE	TOGGLE	F	Vch Offset Enable
VCHOFFSET	QUANT	0	Vch Offset (V)
VCHFILTER	IQUANT	1	Vch Filter
IERANGELOWERLIMIT	IQUANT	9	I/E Range Lower Limit
IERANGEMODE	TOGGLE	F	I/E AutoRange
IERANGE	IQUANT	9	I/E Range
ACHSELECT	IQUANT	1	Ach Select
ACHRANGE	IQUANT	2	Ach Range
ACHOFFSETENABLE	TOGGLE	F	Ach Offset Enable
ACHOFFSET	QUANT	0	Ach Offset (V)
ACHFILTER	IQUANT	1	Ach Filter
CABLEID	IQUANT	14	Cable ID
DCCALDATE	LABEL	5-7-2017	DC Calibration Date
ACCALDATE	LABEL	12/3/2015	AC Calibration Date
FRAMEWORKVERSION	QUANT	7.01	Framework Version
INSTRUMENTVERSION	LABEL	4.00	Instrument Version
CURVE	TABLE	121
	Pt	T	Vf	Im	Vu	Pwr	Sig	Ach	Temp	IERange	Over
	#	s	V	A	V	W	V	V	deg C	#	bits
	0	0.013333	7.10860E-001	-3.98160E-004	0.00000E+000	-2.83036E-004	-2.40040E-001	7.11119E-001	3.57600E+000	9	...........
	1	0.026667	6.99084E-001	-3.98906E-004	0.00000E+000	-2.78869E-004	-2.40040E-001	6.99317E-001	3.57600E+000	9	...........
	2	0.04	6.88702E-001	-3.99535E-004	0.00000E+000	-2.75160E-004	-2.40040E-001	6.88945E-001	3.57600E+000	9	...........
	3	0.053333	6.79192E-001	-3.98532E-004	0.00000E+000	-2.70680E-004	-2.40040E-001	6.79440E-001	3.57600E+000	9	...........
	4	0.066667	6.70160E-001	-3.99265E-004	0.00000E+000	-2.67571E-004	-2.40040E-001	6.70402E-001	3.57600E+000	9	...........
	5	0.08	6.61517E-001	-3.98453E-004	0.00000E+000	-2.63584E-004	-2.40040E-001	6.61747E-001	3.57600E+000	9	...........
	6	0.093333	6.53100E-001	-3.98450E-004	0.00000E+000	-2.60228E-004	-2.40040E-001	6.53328E-001	3.57600E+000	9	...........
	7	0.106667	6.44905E-001	-3.98891E-004	0.00000E+000	-2.57246E-004	-2.40040E-001	6.45112E-001	3.57600E+000	9	...........
	8	0.12	6.36829E-001	-3.98745E-004	0.00000E+000	-2.53932E-004	-2.40040E-001	6.37036E-001	3.57600E+000	9	...........
	9	0.133333	6.29004E-001	-3.98114E-004	0.00000E+000	-2.50415E-004	-2.40040E-001	6.29211E-001	3.57600E+000	9	...........
	10	0.146667	6.21267E-001	-3.98890E-004	0.00000E+000	-2.47817E-004	-2.40040E-001	6.21457E-001	3.57600E+000	9	...........
	11	0.16	6.13567E-001	-3.99350E-004	0.00000E+000	-2.45028E-004	-2.40040E-001	6.13793E-001	3.57600E+000	9	...........
	12	0.173333	6.05960E-001	-3.98607E-004	0.00000E+000	-2.41540E-004	-2.40040E-001	6.06223E-001	3.57600E+000	9	...........
	13	0.186667	5.98500E-001	-3.97435E-004	0.00000E+000	-2.37865E-004	-2.40040E-001	5.98725E-001	3.57600E+000	9	...........
	14	0.2	5.91062E-001	-3.99473E-004	0.00000E+000	-2.36113E-004	-2.40040E-001	5.91312E-001	3.57600E+000	9	...........
	15	0.213333	5.83571E-001	-3.98994E-004	0.00000E+000	-2.32841E-004	-2.40040E-001	5.83811E-001	3.57600E+000	9	...........
	16	0.226667	5.76311E-001	-3.98770E-004	0.00000E+000	-2.29815E-004	-2.40040E-001	5.76523E-001	3.57600E+000	9	...........
	17	0.24	5.69049E-001	-3.98140E-004	0.00000E+000	-2.26562E-004	-2.40040E-001	5.69236E-001	3.57600E+000	9	...........
	18	0.253333	5.61808E-001	-3.99317E-004	0.00000E+000	-2.24339E-004	-2.40040E-001	5.62037E-001	3.57600E+000	9	...........
	19	0.266667	5.54656E-001	-3.96607E-004	0.00000E+000	-2.19981E-004	-2.40040E-001	5.54845E-001	3.57600E+000	9	...........
	20	0.28	5.47581E-001	-3.98623E-004	0.00000E+000	-2.18278E-004	-2.40040E-001	5.47776E-001	3.57600E+000	9	...........
	21	0.293333	5.40524E-001	-3.99302E-004	0.00000E+000	-2.15832E-004	-2.40040E-001	5.40712E-001	3.57600E+000	9	...........
	22	0.306667	5.33451E-001	-3.99129E-004	0.00000E+000	-2.12916E-004	-2.40040E-001	5.33664E-001	3.57600E+000	9	...........
	23	0.32	5.26448E-001	-3.99640E-004	0.00000E+000	-2.10390E-004	-2.40040E-001	5.26645E-001	3.57600E+000	9	...........
	24	0.333333	5.19535E-001	-3.98797E-004	0.00000E+000	-2.07189E-004	-2.40040E-001	5.19715E-001	3.57600E+000	9	...........
	25	0.346667	5.12640E-001	-4.00399E-004	0.00000E+000	-2.05261E-004	-2.40040E-001	5.12819E-001	3.57600E+000	9	...........
	26	0.36	5.05645E-001	-3.99408E-004	0.00000E+000	-2.01959E-004	-2.40040E-001	5.05866E-001	3.57600E+000	9	...........
	27	0.373333	4.98696E-001	-3.99784E-004	0.00000E+000	-1.99370E-004	-2.40040E-001	4.98903E-001	3.57600E+000	9	...........
	28	0.386667	4.91907E-001	-3.98331E-004	0.00000E+000	-1.95942E-004	-2.40040E-001	4.92104E-001	3.57600E+000	9	...........
	29	0.4	4.85291E-001	-3.99304E-004	0.00000E+000	-1.93779E-004	-2.40040E-001	4.85444E-001	3.57600E+000	9	...........
	30	0.413333	4.78685E-001	-3.98762E-004	0.00000E+000	-1.90882E-004	-2.40040E-001	4.78791E-001	3.57600E+000	9	...........
	31	0.426667	4.71939E-001	-3.99306E-004	0.00000E+000	-1.88448E-004	-2.40040E-001	4.72036E-001	3.57600E+000	9	...........
	32	0.44	4.65308E-001	-3.98853E-004	0.00000E+000	-1.85589E-004	-2.40040E-001	4.65402E-001	3.57600E+000	9	...........
	33	0.453333	4.58703E-001	-3.99074E-004	0.00000E+000	-1.83056E-004	-2.40040E-001	4.58798E-001	3.57600E+000	9	...........
	34	0.466667	4.52134E-001	-3.98711E-004	0.00000E+000	-1.80271E-004	-2.40040E-001	4.52225E-001	3.57600E+000	9	...........
	35	0.48	4.45583E-001	-3.98809E-004	0.00000E+000	-1.77703E-004	-2.40040E-001	4.45678E-001	3.57600E+000	9	...........
	36	0.493333	4.39046E-001	-3.99117E-004	0.00000E+000	-1.75231E-004	-2.40040E-001	4.39136E-001	3.57600E+000	9	...........
	37	0.506667	4.32586E-001	-3.98862E-004	0.00000E+000	-1.72542E-004	-2.40040E-001	4.32674E-001	3.57600E+000	9	...........
	38	0.52	4.26131E-001	-3.98157E-004	0.00000E+000	-1.69667E-004	-2.40040E-001	4.26222E-001	3.57600E+000	9	...........
	39	0.533333	4.19710E-001	-3.98887E-004	0.00000E+000	-1.67417E-004	-2.40040E-001	4.19797E-001	3.57600E+000	9	...........
	40	0.546667	4.13280E-001	-3.99332E-004	0.00000E+000	-1.65036E-004	-2.40040E-001	4.13368E-001	3.57600E+000	9	...........
	41	0.56	4.06902E-001	-3.99226E-004	0.00000E+000	-1.62446E-004	-2.40040E-001	4.06984E-001	3.57600E+000	9	...........
	42	0.573333	4.00600E-001	-4.00161E-004	0.00000E+000	-1.60304E-004	-2.40040E-001	4.00678E-001	3.57600E+000	9	...........
	43	0.586667	3.94396E-001	-3.97776E-004	0.00000E+000	-1.56881E-004	-2.40040E-001	3.94475E-001	3.57600E+000	9	...........
	44	0.6	3.88074E-001	-3.98477E-004	0.00000E+000	-1.54639E-004	-2.40040E-001	3.88151E-001	3.57600E+000	9	...........
	45	0.613333	3.81879E-001	-3.97939E-004	0.00000E+000	-1.51965E-004	-2.40040E-001	3.81955E-001	3.57600E+000	9	...........
	46	0.626667	3.75750E-001	-3.97826E-004	0.00000E+000	-1.49483E-004	-2.40040E-001	3.75820E-001	3.57600E+000	9	...........
	47	0.64	3.69573E-001	-3.98229E-004	0.00000E+000	-1.47175E-004	-2.40040E-001	3.69652E-001	3.57619E+000	9	...........
	48	0.653333	3.63405E-001	-3.99286E-004	0.00000E+000	-1.45102E-004	-2.40040E-001	3.63477E-001	3.57750E+000	9	...........
	49	0.666667	3.57263E-001	-3.98613E-004	0.00000E+000	-1.42410E-004	-2.40040E-001	3.57334E-001	3.57750E+000	9	...........
	50	0.68	3.51215E-001	-3.97717E-004	0.00000E+000	-1.39684E-004	-2.40040E-001	3.51284E-001	3.57750E+000	9	...........
	51	0.693333	3.45184E-001	-3.98424E-004	0.00000E+000	-1.37530E-004	-2.40040E-001	3.45255E-001	3.57750E+000	9	...........
	52	0.706667	3.39191E-001	-3.99278E-004	0.00000E+000	-1.35431E-004	-2.40040E-001	3.39261E-001	3.57750E+000	9	...........
	53	0.72	3.33227E-001	-3.98314E-004	0.00000E+000	-1.32729E-004	-2.40040E-001	3.33293E-001	3.57750E+000	9	...........
	54	0.733333	3.27330E-001	-3.99771E-004	0.00000E+000	-1.30857E-004	-2.40040E-001	3.27402E-001	3.57750E+000	9	...........
	55	0.746667	3.21555E-001	-3.99780E-004	0.00000E+000	-1.28552E-004	-2.40040E-001	3.21619E-001	3.57750E+000	9	...........
	56	0.76	3.15745E-001	-3.97176E-004	0.00000E+000	-1.25406E-004	-2.40040E-001	3.15811E-001	3.57750E+000	9	...........
	57	0.773333	3.09864E-001	-3.97018E-004	0.00000E+000	-1.23022E-004	-2.40040E-001	3.09928E-001	3.57750E+000	9	...........
	58	0.786667	3.04074E-001	-3.99645E-004	0.00000E+000	-1.21522E-004	-2.40040E-001	3.04140E-001	3.57750E+000	9	...........
	59	0.8	2.98314E-001	-3.97502E-004	0.00000E+000	-1.18581E-004	-2.40040E-001	2.98370E-001	3.57750E+000	9	...........
	60	0.813333	2.92562E-001	-3.98618E-004	0.00000E+000	-1.16620E-004	-2.40040E-001	2.92611E-001	3.57750E+000	9	...........
	61	0.826667	2.86865E-001	-3.99967E-004	0.00000E+000	-1.14737E-004	-2.40040E-001	2.86918E-001	3.57750E+000	9	...........
	62	0.84	2.81279E-001	-3.99672E-004	0.00000E+000	-1.12419E-004	-2.40040E-001	2.81332E-001	3.57750E+000	9	...........
	63	0.853333	2.75744E-001	-3.98571E-004	0.00000E+000	-1.09904E-004	-2.40040E-001	2.75800E-001	3.57750E+000	9	...........
	64	0.866667	2.70125E-001	-3.98670E-004	0.00000E+000	-1.07691E-004	-2.40040E-001	2.70176E-001	3.57750E+000	9	...........
	65	0.88	2.64500E-001	-3.98368E-004	0.00000E+000	-1.05368E-004	-2.40040E-001	2.64557E-001	3.57750E+000	9	...........
	66	0.893333	2.59030E-001	-3.98177E-004	0.00000E+000	-1.03140E-004	-2.40040E-001	2.59087E-001	3.57750E+000	9	...........
	67	0.906667	2.53463E-001	-3.98197E-004	0.00000E+000	-1.00928E-004	-2.40040E-001	2.53518E-001	3.57750E+000	9	...........
	68	0.92	2.48007E-001	-3.99071E-004	0.00000E+000	-9.89726E-005	-2.40040E-001	2.48055E-001	3.57750E+000	9	...........
	69	0.933333	2.42592E-001	-4.00243E-004	0.00000E+000	-9.70959E-005	-2.40040E-001	2.42639E-001	3.57750E+000	9	...........
	70	0.946667	2.37164E-001	-3.99157E-004	0.00000E+000	-9.46656E-005	-2.40040E-001	2.37210E-001	3.57750E+000	9	...........
	71	0.96	2.31774E-001	-3.98457E-004	0.00000E+000	-9.23521E-005	-2.40040E-001	2.31818E-001	3.57750E+000	9	...........
	72	0.97333	2.26482E-001	-3.98470E-004	0.00000E+000	-9.02463E-005	-2.40040E-001	2.26528E-001	3.57750E+000	9	...........
	73	0.98667	2.21162E-001	-3.98541E-004	0.00000E+000	-8.81420E-005	-2.40040E-001	2.21203E-001	3.57750E+000	9	...........
	74	1	2.15912E-001	-3.99227E-004	0.00000E+000	-8.61978E-005	-2.40040E-001	2.15951E-001	3.57750E+000	9	...........
	75	1.01333	2.10590E-001	-3.97478E-004	0.00000E+000	-8.37048E-005	-2.40040E-001	2.10622E-001	3.57750E+000	9	...........
	76	1.02667	2.05342E-001	-3.98983E-004	0.00000E+000	-8.19279E-005	-2.40040E-001	2.05381E-001	3.57750E+000	9	...........
	77	1.04	2.00162E-001	-3.98911E-004	0.00000E+000	-7.98470E-005	-2.40040E-001	2.00204E-001	3.57750E+000	9	...........
	78	1.05333	1.94945E-001	-3.98907E-004	0.00000E+000	-7.77651E-005	-2.40040E-001	1.94981E-001	3.57750E+000	9	...........
	79	1.06667	1.89720E-001	-3.99639E-004	0.00000E+000	-7.58193E-005	-2.40040E-001	1.89751E-001	3.57750E+000	9	...........
	80	1.08	1.84551E-001	-3.99864E-004	0.00000E+000	-7.37954E-005	-2.40040E-001	1.84591E-001	3.57750E+000	9	...........
	81	1.09333	1.79486E-001	-3.99475E-004	0.00000E+000	-7.17001E-005	-2.40040E-001	1.79520E-001	3.57750E+000	9	...........
	82	1.10667	1.74366E-001	-3.98945E-004	0.00000E+000	-6.95624E-005	-2.40040E-001	1.74404E-001	3.57750E+000	9	...........
	83	1.12	1.69327E-001	-3.99205E-004	0.00000E+000	-6.75961E-005	-2.40040E-001	1.69363E-001	3.57750E+000	9	...........
	84	1.13333	1.64282E-001	-3.98317E-004	0.00000E+000	-6.54362E-005	-2.40040E-001	1.64310E-001	3.57750E+000	9	...........
	85	1.14667	1.59324E-001	-3.99341E-004	0.00000E+000	-6.36246E-005	-2.40040E-001	1.59357E-001	3.57750E+000	9	...........
	86	1.16	1.54407E-001	-3.98968E-004	0.00000E+000	-6.16032E-005	-2.40040E-001	1.54439E-001	3.57750E+000	9	...........
	87	1.17333	1.49458E-001	-3.98745E-004	0.00000E+000	-5.95955E-005	-2.40040E-001	1.49490E-001	3.57750E+000	9	...........
	88	1.18667	1.44559E-001	-3.99458E-004	0.00000E+000	-5.77454E-005	-2.40040E-001	1.44589E-001	3.57750E+000	9	...........
	89	1.2	1.39623E-001	-3.99469E-004	0.00000E+000	-5.57749E-005	-2.40040E-001	1.39649E-001	3.57750E+000	9	...........
	90	1.21333	1.34622E-001	-3.98674E-004	0.00000E+000	-5.36703E-005	-2.40040E-001	1.34649E-001	3.57750E+000	9	...........
	91	1.22667	1.29778E-001	-3.99269E-004	0.00000E+000	-5.18161E-005	-2.40040E-001	1.29797E-001	3.57750E+000	9	...........
	92	1.24	1.24994E-001	-3.97332E-004	0.00000E+000	-4.96641E-005	-2.40040E-001	1.25020E-001	3.57750E+000	9	...........
	93	1.25333	1.20246E-001	-3.99056E-004	0.00000E+000	-4.79850E-005	-2.40040E-001	1.20270E-001	3.57750E+000	9	...........
	94	1.26667	1.15570E-001	-3.99080E-004	0.00000E+000	-4.61218E-005	-2.40040E-001	1.15590E-001	3.57750E+000	9	...........
	95	1.28	1.10828E-001	-3.99328E-004	0.00000E+000	-4.42566E-005	-2.40040E-001	1.10853E-001	3.57750E+000	9	...........
	96	1.29333	1.06134E-001	-3.99142E-004	0.00000E+000	-4.23623E-005	-2.40040E-001	1.06156E-001	3.57750E+000	9	...........
	97	1.30667	1.01380E-001	-3.99307E-004	0.00000E+000	-4.04817E-005	-2.40040E-001	1.01399E-001	3.57750E+000	9	...........
	98	1.32	9.67458E-002	-3.98810E-004	0.00000E+000	-3.85832E-005	-2.40040E-001	9.67655E-002	3.57750E+000	9	...........
	99	1.33333	9.21574E-002	-3.99174E-004	0.00000E+000	-3.67869E-005	-2.40040E-001	9.21760E-002	3.57750E+000	9	...........
	100	1.34667	8.75845E-002	-3.99349E-004	0.00000E+000	-3.49768E-005	-2.40040E-001	8.76036E-002	3.57750E+000	9	...........
	101	1.36	8.29232E-002	-3.98335E-004	0.00000E+000	-3.30312E-005	-2.40040E-001	8.29347E-002	3.57750E+000	9	...........
	102	1.37333	7.82796E-002	-4.00141E-004	0.00000E+000	-3.13229E-005	-2.40040E-001	7.82851E-002	3.57750E+000	9	...........
	103	1.38667	7.37478E-002	-3.98115E-004	0.00000E+000	-2.93601E-005	-2.40040E-001	7.37505E-002	3.57750E+000	9	...........
	104	1.4	6.92013E-002	-3.98901E-004	0.00000E+000	-2.76045E-005	-2.40040E-001	6.92112E-002	3.57750E+000	9	...........
	105	1.41333	6.47264E-002	-3.98289E-004	0.00000E+000	-2.57799E-005	-2.40040E-001	6.47362E-002	3.57750E+000	9	...........
	106	1.42667	6.01968E-002	-3.99587E-004	0.00000E+000	-2.40538E-005	-2.40040E-001	6.02054E-002	3.57750E+000	9	...........
	107	1.44	5.56981E-002	-3.98253E-004	0.00000E+000	-2.21819E-005	-2.40040E-001	5.57033E-002	3.57750E+000	9	...........
	108	1.45333	5.12768E-002	-3.99547E-004	0.00000E+000	-2.04875E-005	-2.40040E-001	5.12810E-002	3.57750E+000	9	...........
	109	1.46667	4.69077E-002	-3.98300E-004	0.00000E+000	-1.86833E-005	-2.40040E-001	4.69120E-002	3.57750E+000	9	...........
	110	1.48	4.25180E-002	-3.99657E-004	0.00000E+000	-1.69926E-005	-2.40040E-001	4.25236E-002	3.57750E+000	9	...........
	111	1.49333	3.81366E-002	-3.99983E-004	0.00000E+000	-1.52540E-005	-2.40040E-001	3.81379E-002	3.57750E+000	9	...........
	112	1.50667	3.38156E-002	-3.99060E-004	0.00000E+000	-1.34945E-005	-2.40040E-001	3.38162E-002	3.57750E+000	9	...........
	113	1.52	2.94957E-002	-3.98980E-004	0.00000E+000	-1.17682E-005	-2.40040E-001	2.94973E-002	3.57750E+000	9	...........
	114	1.53333	2.51738E-002	-3.98559E-004	0.00000E+000	-1.00332E-005	-2.40040E-001	2.51728E-002	3.57750E+000	9	...........
	115	1.54667	2.09789E-002	-3.98086E-004	0.00000E+000	-8.35142E-006	-2.40040E-001	2.09740E-002	3.57750E+000	9	...........
	116	1.56	1.67134E-002	-3.98427E-004	0.00000E+000	-6.65909E-006	-2.40040E-001	1.67057E-002	3.57750E+000	9	...........
	117	1.57333	1.24844E-002	-3.97772E-004	0.00000E+000	-4.96596E-006	-2.40040E-001	1.24765E-002	3.57750E+000	9	...........
	118	1.58667	8.30205E-003	-3.98613E-004	0.00000E+000	-3.30931E-006	-2.40040E-001	8.28847E-003	3.57750E+000	9	...........
	119	1.6	4.09248E-003	-3.99067E-004	0.00000E+000	-1.63317E-006	-2.40040E-001	4.08117E-003	3.57750E+000	9	...........
	120	1.60833	7.43785E-004	-3.99130E-004	0.00000E+000	-2.96867E-007	-2.40040E-001	7.26342E-004	3.57750E+000	9	...........
STARTTIMEOFFSET	QUANT	894.9635	Start Time Offset (s)
