EXPLAIN
TAG	PWR800_DISCHARGE
TITLE	LABEL	PWR Cyclic Charge Discharge (Cell) - Discharge Step	Test &Identifier
DATE	LABEL	12-7-2017	Date
TIME	LABEL	15:19:58	Time
NOTES	NOTES	3	&Notes...
	supercap test cell
	0.4mg
	6M KOH
PSTAT	PSTAT	IFC5000-01520	Potentiostat
CAPACITY	QUANT	1.00000E-003	Capacity (A-hr)
CELLTYPE	SELECTOR	1	&Cell Type
WORKINGCONNECTION	SELECTOR	0	&Working Lead
MAXDISCHARGETIME	VARIABLEANDUNITS	1.00000E+002	s	1.00000E+002	second(s)	Max &Discharge Time
DISCHARGEMODE	MULTIPARAM	0	4.00000E-004	&Discharge Mode	Constant Current	Amp(s)
SAMPLETIME	QUANT	1.00000E-002	Sa&mple Period (s)
DISCHARGESTOPAT1	MULTIPARAM	3	0.00000E+000	Discharge Stop At &1	Voltage < Limit	V
DISCHARGESTOPAT2	MULTIPARAM	0	0.00000E+000	Discharge Stop At &2	None	N/A
AESBHCSELECTOR	TOGGLE	F	Save Both Half Cells
IRCOMP	TOGGLE	F	IR &Measure
EOC	QUANT	0	Open Circuit (V)
SEQUENCER	TOGGLE	TRUE	Run as Sequence
PSTATMODEL	IQUANT	53	Pstat Model
PSTATSECTION	LABEL	IFC5000-01520	Pstat Section
PSTATSERIALNO	LABEL	01520	Pstat Serial Number
CTRLMODE	IQUANT	0	Control Mode
ELECTROMETER	IQUANT	1	RE=0 or CS=1
IESTAB	IQUANT	0	I/E Stability
CASPEED	IQUANT	4	Control Amp Speed
CONVENTION	IQUANT	1	Current Convention
ICHRANGE	IQUANT	2	Ich Range
ICHRANGEMODE	TOGGLE	T	Ich Auto Range
ICHOFFSETENABLE	TOGGLE	F	Ich Offset Enable
ICHOFFSET	QUANT	0	Ich Offset (V)
ICHFILTER	IQUANT	1	Ich Filter
VCHRANGE	IQUANT	2	Vch Range
VCHRANGEMODE	TOGGLE	T	Vch Auto Range
VCHOFFSETENABLE	TOGGLE	F	Vch Offset Enable
VCHOFFSET	QUANT	0	Vch Offset (V)
VCHFILTER	IQUANT	1	Vch Filter
IERANGELOWERLIMIT	IQUANT	9	I/E Range Lower Limit
IERANGEMODE	TOGGLE	F	I/E AutoRange
IERANGE	IQUANT	9	I/E Range
ACHSELECT	IQUANT	1	Ach Select
ACHRANGE	IQUANT	2	Ach Range
ACHOFFSETENABLE	TOGGLE	F	Ach Offset Enable
ACHOFFSET	QUANT	0	Ach Offset (V)
ACHFILTER	IQUANT	1	Ach Filter
CABLEID	IQUANT	14	Cable ID
DCCALDATE	LABEL	5-7-2017	DC Calibration Date
ACCALDATE	LABEL	12/3/2015	AC Calibration Date
FRAMEWORKVERSION	QUANT	7.01	Framework Version
INSTRUMENTVERSION	LABEL	4.00	Instrument Version
CURVE	TABLE	102
	Pt	T	Vf	Im	Vu	Pwr	Sig	Ach	Temp	IERange	Over
	#	s	V	A	V	W	V	V	deg C	#	bits
	0	0.013333	6.84521E-001	-3.97842E-004	0.00000E+000	-2.72331E-004	-2.40040E-001	6.84749E-001	3.57640E+000	9	...........
	1	0.026667	6.70763E-001	-3.98546E-004	0.00000E+000	-2.67330E-004	-2.40040E-001	6.70978E-001	3.57640E+000	9	...........
	2	0.04	6.58730E-001	-3.99223E-004	0.00000E+000	-2.62980E-004	-2.40040E-001	6.58974E-001	3.57640E+000	9	...........
	3	0.053333	6.47770E-001	-3.99329E-004	0.00000E+000	-2.58673E-004	-2.40040E-001	6.47991E-001	3.57640E+000	9	...........
	4	0.066667	6.37517E-001	-3.99452E-004	0.00000E+000	-2.54658E-004	-2.40040E-001	6.37756E-001	3.57640E+000	9	...........
	5	0.08	6.27717E-001	-3.97312E-004	0.00000E+000	-2.49400E-004	-2.40040E-001	6.27932E-001	3.57640E+000	9	...........
	6	0.093333	6.18291E-001	-3.99091E-004	0.00000E+000	-2.46754E-004	-2.40040E-001	6.18512E-001	3.57640E+000	9	...........
	7	0.106667	6.09095E-001	-3.98753E-004	0.00000E+000	-2.42879E-004	-2.40040E-001	6.09371E-001	3.57640E+000	9	...........
	8	0.12	6.00111E-001	-3.97748E-004	0.00000E+000	-2.38693E-004	-2.40040E-001	6.00371E-001	3.57640E+000	9	...........
	9	0.133333	5.91305E-001	-3.98714E-004	0.00000E+000	-2.35761E-004	-2.40040E-001	5.91548E-001	3.57640E+000	9	...........
	10	0.146667	5.82585E-001	-3.99476E-004	0.00000E+000	-2.32729E-004	-2.40040E-001	5.82822E-001	3.57640E+000	9	...........
	11	0.16	5.74026E-001	-3.99240E-004	0.00000E+000	-2.29174E-004	-2.40040E-001	5.74231E-001	3.57640E+000	9	...........
	12	0.173333	5.65564E-001	-3.99866E-004	0.00000E+000	-2.26150E-004	-2.40040E-001	5.65790E-001	3.57640E+000	9	...........
	13	0.186667	5.57212E-001	-3.99548E-004	0.00000E+000	-2.22633E-004	-2.40040E-001	5.57415E-001	3.57640E+000	9	...........
	14	0.2	5.48991E-001	-3.98676E-004	0.00000E+000	-2.18869E-004	-2.40040E-001	5.49170E-001	3.57640E+000	9	...........
	15	0.213333	5.40776E-001	-3.98494E-004	0.00000E+000	-2.15496E-004	-2.40040E-001	5.40930E-001	3.57640E+000	9	...........
	16	0.226667	5.32595E-001	-3.98476E-004	0.00000E+000	-2.12226E-004	-2.40040E-001	5.32769E-001	3.57640E+000	9	...........
	17	0.24	5.24544E-001	-3.98190E-004	0.00000E+000	-2.08868E-004	-2.40040E-001	5.24719E-001	3.57640E+000	9	...........
	18	0.253333	5.16529E-001	-3.98092E-004	0.00000E+000	-2.05626E-004	-2.40040E-001	5.16690E-001	3.57640E+000	9	...........
	19	0.266667	5.08498E-001	-3.98412E-004	0.00000E+000	-2.02592E-004	-2.40040E-001	5.08728E-001	3.57640E+000	9	...........
	20	0.28	5.00540E-001	-3.96840E-004	0.00000E+000	-1.98634E-004	-2.40040E-001	5.00745E-001	3.57640E+000	9	...........
	21	0.293333	4.92648E-001	-3.99408E-004	0.00000E+000	-1.96768E-004	-2.40040E-001	4.92844E-001	3.57640E+000	9	...........
	22	0.306667	4.84930E-001	-3.99540E-004	0.00000E+000	-1.93749E-004	-2.40040E-001	4.85061E-001	3.57640E+000	9	...........
	23	0.32	4.77254E-001	-3.97372E-004	0.00000E+000	-1.89647E-004	-2.40040E-001	4.77349E-001	3.57640E+000	9	...........
	24	0.333333	4.69522E-001	-3.98825E-004	0.00000E+000	-1.87257E-004	-2.40040E-001	4.69621E-001	3.57640E+000	9	...........
	25	0.346667	4.61808E-001	-3.98373E-004	0.00000E+000	-1.83972E-004	-2.40040E-001	4.61905E-001	3.57640E+000	9	...........
	26	0.36	4.54053E-001	-3.98658E-004	0.00000E+000	-1.81012E-004	-2.40040E-001	4.54146E-001	3.57640E+000	9	...........
	27	0.373333	4.46418E-001	-3.98526E-004	0.00000E+000	-1.77909E-004	-2.40040E-001	4.46516E-001	3.57640E+000	9	...........
	28	0.386667	4.38875E-001	-3.98621E-004	0.00000E+000	-1.74945E-004	-2.40040E-001	4.38962E-001	3.57640E+000	9	...........
	29	0.4	4.31427E-001	-4.00375E-004	0.00000E+000	-1.72733E-004	-2.40040E-001	4.31511E-001	3.57640E+000	9	...........
	30	0.413333	4.23895E-001	-3.99332E-004	0.00000E+000	-1.69275E-004	-2.40040E-001	4.23978E-001	3.57640E+000	9	...........
	31	0.426667	4.16405E-001	-3.98271E-004	0.00000E+000	-1.65842E-004	-2.40040E-001	4.16496E-001	3.57640E+000	9	...........
	32	0.44	4.09035E-001	-3.99806E-004	0.00000E+000	-1.63535E-004	-2.40040E-001	4.09113E-001	3.57640E+000	9	...........
	33	0.453333	4.01726E-001	-3.98124E-004	0.00000E+000	-1.59937E-004	-2.40040E-001	4.01809E-001	3.57640E+000	9	...........
	34	0.466667	3.94344E-001	-3.98306E-004	0.00000E+000	-1.57070E-004	-2.40040E-001	3.94419E-001	3.57640E+000	9	...........
	35	0.48	3.87087E-001	-3.98969E-004	0.00000E+000	-1.54436E-004	-2.40040E-001	3.87167E-001	3.57640E+000	9	...........
	36	0.493333	3.79864E-001	-3.98766E-004	0.00000E+000	-1.51477E-004	-2.40040E-001	3.79939E-001	3.57640E+000	9	...........
	37	0.506667	3.72664E-001	-3.99381E-004	0.00000E+000	-1.48835E-004	-2.40040E-001	3.72737E-001	3.57640E+000	9	...........
	38	0.52	3.65519E-001	-3.99447E-004	0.00000E+000	-1.46006E-004	-2.40040E-001	3.65596E-001	3.57640E+000	9	...........
	39	0.533333	3.58455E-001	-3.98086E-004	0.00000E+000	-1.42696E-004	-2.40040E-001	3.58522E-001	3.57640E+000	9	...........
	40	0.546667	3.51462E-001	-3.98533E-004	0.00000E+000	-1.40069E-004	-2.40040E-001	3.51528E-001	3.57640E+000	9	...........
	41	0.56	3.44443E-001	-3.98031E-004	0.00000E+000	-1.37099E-004	-2.40040E-001	3.44508E-001	3.57640E+000	9	...........
	42	0.573333	3.37421E-001	-3.98786E-004	0.00000E+000	-1.34559E-004	-2.40040E-001	3.37486E-001	3.57640E+000	9	...........
	43	0.586667	3.30547E-001	-3.97632E-004	0.00000E+000	-1.31436E-004	-2.40040E-001	3.30609E-001	3.57640E+000	9	...........
	44	0.6	3.23688E-001	-3.98317E-004	0.00000E+000	-1.28930E-004	-2.40040E-001	3.23749E-001	3.57640E+000	9	...........
	45	0.613333	3.16777E-001	-3.97947E-004	0.00000E+000	-1.26060E-004	-2.40040E-001	3.16841E-001	3.57640E+000	9	...........
	46	0.626667	3.09965E-001	-3.98113E-004	0.00000E+000	-1.23401E-004	-2.40040E-001	3.10027E-001	3.57640E+000	9	...........
	47	0.64	3.03296E-001	-3.98557E-004	0.00000E+000	-1.20881E-004	-2.40040E-001	3.03355E-001	3.57640E+000	9	...........
	48	0.653333	2.96653E-001	-3.97515E-004	0.00000E+000	-1.17924E-004	-2.40040E-001	2.96709E-001	3.57640E+000	9	...........
	49	0.666667	2.90005E-001	-4.00350E-004	0.00000E+000	-1.16104E-004	-2.40040E-001	2.90062E-001	3.57640E+000	9	...........
	50	0.68	2.83391E-001	-3.99084E-004	0.00000E+000	-1.13097E-004	-2.40040E-001	2.83452E-001	3.57640E+000	9	...........
	51	0.693333	2.76907E-001	-3.99524E-004	0.00000E+000	-1.10631E-004	-2.40040E-001	2.76964E-001	3.57640E+000	9	...........
	52	0.706667	2.70354E-001	-3.99954E-004	0.00000E+000	-1.08129E-004	-2.40040E-001	2.70412E-001	3.57640E+000	9	...........
	53	0.72	2.63861E-001	-3.98798E-004	0.00000E+000	-1.05227E-004	-2.40040E-001	2.63916E-001	3.57640E+000	9	...........
	54	0.733333	2.57474E-001	-3.98301E-004	0.00000E+000	-1.02552E-004	-2.40040E-001	2.57528E-001	3.57640E+000	9	...........
	55	0.746667	2.51176E-001	-3.98875E-004	0.00000E+000	-1.00188E-004	-2.40040E-001	2.51230E-001	3.57644E+000	9	...........
	56	0.76	2.44839E-001	-3.98063E-004	0.00000E+000	-9.74613E-005	-2.40040E-001	2.44886E-001	3.57780E+000	9	...........
	57	0.773333	2.38507E-001	-3.99807E-004	0.00000E+000	-9.53567E-005	-2.40040E-001	2.38551E-001	3.57780E+000	9	...........
	58	0.786667	2.32227E-001	-3.97891E-004	0.00000E+000	-9.24013E-005	-2.40040E-001	2.32267E-001	3.57780E+000	9	...........
	59	0.8	2.25992E-001	-3.98499E-004	0.00000E+000	-9.00574E-005	-2.40040E-001	2.26032E-001	3.57780E+000	9	...........
	60	0.813333	2.19815E-001	-4.00173E-004	0.00000E+000	-8.79641E-005	-2.40040E-001	2.19858E-001	3.57780E+000	9	...........
	61	0.826667	2.13658E-001	-3.98598E-004	0.00000E+000	-8.51634E-005	-2.40040E-001	2.13693E-001	3.57780E+000	9	...........
	62	0.84	2.07611E-001	-3.99419E-004	0.00000E+000	-8.29239E-005	-2.40040E-001	2.07649E-001	3.57780E+000	9	...........
	63	0.853333	2.01613E-001	-4.00076E-004	0.00000E+000	-8.06605E-005	-2.40040E-001	2.01649E-001	3.57780E+000	9	...........
	64	0.866667	1.95684E-001	-3.99278E-004	0.00000E+000	-7.81324E-005	-2.40040E-001	1.95722E-001	3.57780E+000	9	...........
	65	0.88	1.89817E-001	-3.99139E-004	0.00000E+000	-7.57633E-005	-2.40040E-001	1.89854E-001	3.57780E+000	9	...........
	66	0.893333	1.83944E-001	-3.98198E-004	0.00000E+000	-7.32460E-005	-2.40040E-001	1.83978E-001	3.57780E+000	9	...........
	67	0.906667	1.78141E-001	-4.00297E-004	0.00000E+000	-7.13094E-005	-2.40040E-001	1.78179E-001	3.57780E+000	9	...........
	68	0.92	1.72391E-001	-3.97989E-004	0.00000E+000	-6.86097E-005	-2.40040E-001	1.72428E-001	3.57780E+000	9	...........
	69	0.933333	1.66643E-001	-3.98975E-004	0.00000E+000	-6.64862E-005	-2.40040E-001	1.66675E-001	3.57780E+000	9	...........
	70	0.946667	1.60952E-001	-3.98423E-004	0.00000E+000	-6.41269E-005	-2.40040E-001	1.60982E-001	3.57780E+000	9	...........
	71	0.96	1.55263E-001	-3.98253E-004	0.00000E+000	-6.18340E-005	-2.40040E-001	1.55290E-001	3.57780E+000	9	...........
	72	0.97333	1.49613E-001	-3.99739E-004	0.00000E+000	-5.98062E-005	-2.40040E-001	1.49638E-001	3.57780E+000	9	...........
	73	0.98667	1.44016E-001	-3.98628E-004	0.00000E+000	-5.74088E-005	-2.40040E-001	1.44042E-001	3.57780E+000	9	...........
	74	1	1.38451E-001	-3.97231E-004	0.00000E+000	-5.49970E-005	-2.40040E-001	1.38472E-001	3.57780E+000	9	...........
	75	1.01333	1.32923E-001	-3.99871E-004	0.00000E+000	-5.31521E-005	-2.40040E-001	1.32947E-001	3.57780E+000	9	...........
	76	1.02667	1.27477E-001	-3.98949E-004	0.00000E+000	-5.08567E-005	-2.40040E-001	1.27504E-001	3.57780E+000	9	...........
	77	1.04	1.22063E-001	-3.98798E-004	0.00000E+000	-4.86786E-005	-2.40040E-001	1.22090E-001	3.57780E+000	9	...........
	78	1.05333	1.16620E-001	-3.99250E-004	0.00000E+000	-4.65607E-005	-2.40040E-001	1.16642E-001	3.57780E+000	9	...........
	79	1.06667	1.11234E-001	-3.99107E-004	0.00000E+000	-4.43943E-005	-2.40040E-001	1.11258E-001	3.57780E+000	9	...........
	80	1.08	1.06026E-001	-3.99067E-004	0.00000E+000	-4.23113E-005	-2.40040E-001	1.06042E-001	3.57780E+000	9	...........
	81	1.09333	1.00745E-001	-3.99221E-004	0.00000E+000	-4.02194E-005	-2.40040E-001	1.00760E-001	3.57780E+000	9	...........
	82	1.10667	9.55176E-002	-3.97567E-004	0.00000E+000	-3.79747E-005	-2.40040E-001	9.55298E-002	3.57780E+000	9	...........
	83	1.12	9.03333E-002	-3.98687E-004	0.00000E+000	-3.60148E-005	-2.40040E-001	9.03497E-002	3.57780E+000	9	...........
	84	1.13333	8.51994E-002	-3.99142E-004	0.00000E+000	-3.40066E-005	-2.40040E-001	8.52129E-002	3.57780E+000	9	...........
	85	1.14667	7.99349E-002	-3.99464E-004	0.00000E+000	-3.19311E-005	-2.40040E-001	7.99464E-002	3.57780E+000	9	...........
	86	1.16	7.47085E-002	-3.98300E-004	0.00000E+000	-2.97564E-005	-2.40040E-001	7.47172E-002	3.57780E+000	9	...........
	87	1.17333	6.95795E-002	-3.98744E-004	0.00000E+000	-2.77444E-005	-2.40040E-001	6.95883E-002	3.57780E+000	9	...........
	88	1.18667	6.45314E-002	-3.99869E-004	0.00000E+000	-2.58041E-005	-2.40040E-001	6.45320E-002	3.57780E+000	9	...........
	89	1.2	5.95710E-002	-3.98724E-004	0.00000E+000	-2.37524E-005	-2.40040E-001	5.95746E-002	3.57780E+000	9	...........
	90	1.21333	5.45944E-002	-3.99452E-004	0.00000E+000	-2.18078E-005	-2.40040E-001	5.45955E-002	3.57780E+000	9	...........
	91	1.22667	4.96785E-002	-3.99852E-004	0.00000E+000	-1.98640E-005	-2.40040E-001	4.96840E-002	3.57780E+000	9	...........
	92	1.24	4.47260E-002	-3.98580E-004	0.00000E+000	-1.78269E-005	-2.40040E-001	4.47289E-002	3.57780E+000	9	...........
	93	1.25333	3.97518E-002	-3.99354E-004	0.00000E+000	-1.58751E-005	-2.40040E-001	3.97589E-002	3.57780E+000	9	...........
	94	1.26667	3.49349E-002	-3.98448E-004	0.00000E+000	-1.39197E-005	-2.40040E-001	3.49383E-002	3.57780E+000	9	...........
	95	1.28	3.01861E-002	-3.98354E-004	0.00000E+000	-1.20247E-005	-2.40040E-001	3.01850E-002	3.57780E+000	9	...........
	96	1.29333	2.54093E-002	-3.98683E-004	0.00000E+000	-1.01303E-005	-2.40040E-001	2.54056E-002	3.57780E+000	9	...........
	97	1.30667	2.06240E-002	-3.99082E-004	0.00000E+000	-8.23066E-006	-2.40040E-001	2.06192E-002	3.57780E+000	9	...........
	98	1.32	1.58345E-002	-3.98740E-004	0.00000E+000	-6.31382E-006	-2.40040E-001	1.58263E-002	3.57780E+000	9	...........
	99	1.33333	1.11458E-002	-3.99732E-004	0.00000E+000	-4.45533E-006	-2.40040E-001	1.11329E-002	3.57780E+000	9	...........
	100	1.34667	6.57156E-003	-3.98149E-004	0.00000E+000	-2.61646E-006	-2.40040E-001	6.55251E-003	3.57780E+000	9	...........
	101	1.36	1.91122E-003	-3.97538E-004	0.00000E+000	-7.59784E-007	-2.40040E-001	1.89069E-003	3.57780E+000	9	...........
STARTTIMEOFFSET	QUANT	2905.518	Start Time Offset (s)
