EXPLAIN
TAG	PWR800_DISCHARGE
TITLE	LABEL	PWR Cyclic Charge Discharge (Cell) - Discharge Step	Test &Identifier
DATE	LABEL	12-7-2017	Date
TIME	LABEL	15:23:37	Time
NOTES	NOTES	3	&Notes...
	supercap test cell
	0.4mg
	6M KOH
PSTAT	PSTAT	IFC5000-01520	Potentiostat
CAPACITY	QUANT	1.00000E-003	Capacity (A-hr)
CELLTYPE	SELECTOR	1	&Cell Type
WORKINGCONNECTION	SELECTOR	0	&Working Lead
MAXDISCHARGETIME	VARIABLEANDUNITS	1.00000E+002	s	1.00000E+002	second(s)	Max &Discharge Time
DISCHARGEMODE	MULTIPARAM	0	4.00000E-004	&Discharge Mode	Constant Current	Amp(s)
SAMPLETIME	QUANT	1.00000E-002	Sa&mple Period (s)
DISCHARGESTOPAT1	MULTIPARAM	3	0.00000E+000	Discharge Stop At &1	Voltage < Limit	V
DISCHARGESTOPAT2	MULTIPARAM	0	0.00000E+000	Discharge Stop At &2	None	N/A
AESBHCSELECTOR	TOGGLE	F	Save Both Half Cells
IRCOMP	TOGGLE	F	IR &Measure
EOC	QUANT	0	Open Circuit (V)
SEQUENCER	TOGGLE	TRUE	Run as Sequence
PSTATMODEL	IQUANT	53	Pstat Model
PSTATSECTION	LABEL	IFC5000-01520	Pstat Section
PSTATSERIALNO	LABEL	01520	Pstat Serial Number
CTRLMODE	IQUANT	0	Control Mode
ELECTROMETER	IQUANT	1	RE=0 or CS=1
IESTAB	IQUANT	0	I/E Stability
CASPEED	IQUANT	4	Control Amp Speed
CONVENTION	IQUANT	1	Current Convention
ICHRANGE	IQUANT	2	Ich Range
ICHRANGEMODE	TOGGLE	T	Ich Auto Range
ICHOFFSETENABLE	TOGGLE	F	Ich Offset Enable
ICHOFFSET	QUANT	0	Ich Offset (V)
ICHFILTER	IQUANT	1	Ich Filter
VCHRANGE	IQUANT	2	Vch Range
VCHRANGEMODE	TOGGLE	T	Vch Auto Range
VCHOFFSETENABLE	TOGGLE	F	Vch Offset Enable
VCHOFFSET	QUANT	0	Vch Offset (V)
VCHFILTER	IQUANT	1	Vch Filter
IERANGELOWERLIMIT	IQUANT	9	I/E Range Lower Limit
IERANGEMODE	TOGGLE	F	I/E AutoRange
IERANGE	IQUANT	9	I/E Range
ACHSELECT	IQUANT	1	Ach Select
ACHRANGE	IQUANT	2	Ach Range
ACHOFFSETENABLE	TOGGLE	F	Ach Offset Enable
ACHOFFSET	QUANT	0	Ach Offset (V)
ACHFILTER	IQUANT	1	Ach Filter
CABLEID	IQUANT	14	Cable ID
DCCALDATE	LABEL	5-7-2017	DC Calibration Date
ACCALDATE	LABEL	12/3/2015	AC Calibration Date
FRAMEWORKVERSION	QUANT	7.01	Framework Version
INSTRUMENTVERSION	LABEL	4.00	Instrument Version
CURVE	TABLE	101
	Pt	T	Vf	Im	Vu	Pwr	Sig	Ach	Temp	IERange	Over
	#	s	V	A	V	W	V	V	deg C	#	bits
	0	0.013333	6.80489E-001	-3.98452E-004	0.00000E+000	-2.71142E-004	-2.40040E-001	6.80690E-001	3.57650E+000	9	...........
	1	0.026667	6.66560E-001	-3.99253E-004	0.00000E+000	-2.66126E-004	-2.40040E-001	6.66778E-001	3.57650E+000	9	...........
	2	0.04	6.54446E-001	-3.98645E-004	0.00000E+000	-2.60891E-004	-2.40040E-001	6.54668E-001	3.57650E+000	9	...........
	3	0.053333	6.43439E-001	-3.99027E-004	0.00000E+000	-2.56750E-004	-2.40040E-001	6.43681E-001	3.57650E+000	9	...........
	4	0.066667	6.33093E-001	-3.98784E-004	0.00000E+000	-2.52468E-004	-2.40040E-001	6.33322E-001	3.57650E+000	9	...........
	5	0.08	6.23246E-001	-3.98451E-004	0.00000E+000	-2.48333E-004	-2.40040E-001	6.23458E-001	3.57650E+000	9	...........
	6	0.093333	6.13728E-001	-3.98818E-004	0.00000E+000	-2.44766E-004	-2.40040E-001	6.13975E-001	3.57650E+000	9	...........
	7	0.106667	6.04442E-001	-3.98566E-004	0.00000E+000	-2.40910E-004	-2.40040E-001	6.04696E-001	3.57650E+000	9	...........
	8	0.12	5.95478E-001	-3.99690E-004	0.00000E+000	-2.38006E-004	-2.40040E-001	5.95711E-001	3.57650E+000	9	...........
	9	0.133333	5.86576E-001	-3.99233E-004	0.00000E+000	-2.34181E-004	-2.40040E-001	5.86815E-001	3.57650E+000	9	...........
	10	0.146667	5.77861E-001	-3.97471E-004	0.00000E+000	-2.29683E-004	-2.40040E-001	5.78076E-001	3.57650E+000	9	...........
	11	0.16	5.69284E-001	-3.98864E-004	0.00000E+000	-2.27067E-004	-2.40040E-001	5.69517E-001	3.57650E+000	9	...........
	12	0.173333	5.60761E-001	-3.98392E-004	0.00000E+000	-2.23403E-004	-2.40040E-001	5.61015E-001	3.57650E+000	9	...........
	13	0.186667	5.52372E-001	-3.98203E-004	0.00000E+000	-2.19956E-004	-2.40040E-001	5.52607E-001	3.57650E+000	9	...........
	14	0.2	5.44030E-001	-3.98502E-004	0.00000E+000	-2.16797E-004	-2.40040E-001	5.44274E-001	3.57650E+000	9	...........
	15	0.213333	5.35732E-001	-3.99552E-004	0.00000E+000	-2.14053E-004	-2.40040E-001	5.35999E-001	3.57650E+000	9	...........
	16	0.226667	5.27580E-001	-3.99469E-004	0.00000E+000	-2.10752E-004	-2.40040E-001	5.27829E-001	3.57650E+000	9	...........
	17	0.24	5.19432E-001	-3.99667E-004	0.00000E+000	-2.07600E-004	-2.40040E-001	5.19640E-001	3.57650E+000	9	...........
	18	0.253333	5.11433E-001	-3.99061E-004	0.00000E+000	-2.04093E-004	-2.40040E-001	5.11659E-001	3.57650E+000	9	...........
	19	0.266667	5.03355E-001	-3.99408E-004	0.00000E+000	-2.01044E-004	-2.40040E-001	5.03618E-001	3.57650E+000	9	...........
	20	0.28	4.95414E-001	-3.98606E-004	0.00000E+000	-1.97475E-004	-2.40040E-001	4.95674E-001	3.57650E+000	9	...........
	21	0.293333	4.87559E-001	-3.98530E-004	0.00000E+000	-1.94307E-004	-2.40040E-001	4.87758E-001	3.57650E+000	9	...........
	22	0.306667	4.79944E-001	-3.98587E-004	0.00000E+000	-1.91300E-004	-2.40040E-001	4.80047E-001	3.57650E+000	9	...........
	23	0.32	4.72117E-001	-3.99305E-004	0.00000E+000	-1.88519E-004	-2.40040E-001	4.72219E-001	3.57650E+000	9	...........
	24	0.333333	4.64326E-001	-3.99233E-004	0.00000E+000	-1.85374E-004	-2.40040E-001	4.64416E-001	3.57650E+000	9	...........
	25	0.346667	4.56541E-001	-3.98223E-004	0.00000E+000	-1.81805E-004	-2.40040E-001	4.56638E-001	3.57650E+000	9	...........
	26	0.36	4.48771E-001	-3.97832E-004	0.00000E+000	-1.78536E-004	-2.40040E-001	4.48861E-001	3.57650E+000	9	...........
	27	0.373333	4.41156E-001	-3.99201E-004	0.00000E+000	-1.76110E-004	-2.40040E-001	4.41244E-001	3.57650E+000	9	...........
	28	0.386667	4.33505E-001	-3.98353E-004	0.00000E+000	-1.72688E-004	-2.40040E-001	4.33593E-001	3.57650E+000	9	...........
	29	0.4	4.25925E-001	-3.98707E-004	0.00000E+000	-1.69819E-004	-2.40040E-001	4.26007E-001	3.57650E+000	9	...........
	30	0.413333	4.18276E-001	-3.99196E-004	0.00000E+000	-1.66974E-004	-2.40040E-001	4.18366E-001	3.57650E+000	9	...........
	31	0.426667	4.10839E-001	-3.99383E-004	0.00000E+000	-1.64082E-004	-2.40040E-001	4.10922E-001	3.57650E+000	9	...........
	32	0.44	4.03470E-001	-3.97659E-004	0.00000E+000	-1.60443E-004	-2.40040E-001	4.03548E-001	3.57650E+000	9	...........
	33	0.453333	3.96084E-001	-3.98446E-004	0.00000E+000	-1.57818E-004	-2.40040E-001	3.96161E-001	3.57650E+000	9	...........
	34	0.466667	3.88772E-001	-3.98910E-004	0.00000E+000	-1.55085E-004	-2.40040E-001	3.88851E-001	3.57650E+000	9	...........
	35	0.48	3.81476E-001	-3.98149E-004	0.00000E+000	-1.51884E-004	-2.40040E-001	3.81553E-001	3.57650E+000	9	...........
	36	0.493333	3.74235E-001	-3.99774E-004	0.00000E+000	-1.49610E-004	-2.40040E-001	3.74303E-001	3.57650E+000	9	...........
	37	0.506667	3.67030E-001	-3.99347E-004	0.00000E+000	-1.46573E-004	-2.40040E-001	3.67100E-001	3.57650E+000	9	...........
	38	0.52	3.59842E-001	-3.99386E-004	0.00000E+000	-1.43716E-004	-2.40040E-001	3.59915E-001	3.57650E+000	9	...........
	39	0.533333	3.52720E-001	-3.97388E-004	0.00000E+000	-1.40167E-004	-2.40040E-001	3.52787E-001	3.57650E+000	9	...........
	40	0.546667	3.45661E-001	-3.98873E-004	0.00000E+000	-1.37875E-004	-2.40040E-001	3.45729E-001	3.57650E+000	9	...........
	41	0.56	3.38619E-001	-3.98912E-004	0.00000E+000	-1.35079E-004	-2.40040E-001	3.38684E-001	3.57650E+000	9	...........
	42	0.573333	3.31634E-001	-3.98044E-004	0.00000E+000	-1.32005E-004	-2.40040E-001	3.31699E-001	3.57650E+000	9	...........
	43	0.586667	3.24721E-001	-3.99273E-004	0.00000E+000	-1.29652E-004	-2.40040E-001	3.24793E-001	3.57650E+000	9	...........
	44	0.6	3.17857E-001	-3.98679E-004	0.00000E+000	-1.26723E-004	-2.40040E-001	3.17919E-001	3.57650E+000	9	...........
	45	0.613333	3.10990E-001	-3.98948E-004	0.00000E+000	-1.24069E-004	-2.40040E-001	3.11057E-001	3.57650E+000	9	...........
	46	0.626667	3.04178E-001	-3.98452E-004	0.00000E+000	-1.21200E-004	-2.40040E-001	3.04240E-001	3.57650E+000	9	...........
	47	0.64	2.97456E-001	-3.97962E-004	0.00000E+000	-1.18376E-004	-2.40040E-001	2.97518E-001	3.57650E+000	9	...........
	48	0.653333	2.90712E-001	-3.99125E-004	0.00000E+000	-1.16030E-004	-2.40040E-001	2.90768E-001	3.57650E+000	9	...........
	49	0.666667	2.84135E-001	-3.99244E-004	0.00000E+000	-1.13439E-004	-2.40040E-001	2.84192E-001	3.57650E+000	9	...........
	50	0.68	2.77539E-001	-3.98798E-004	0.00000E+000	-1.10682E-004	-2.40040E-001	2.77592E-001	3.57650E+000	9	...........
	51	0.693333	2.71021E-001	-3.99344E-004	0.00000E+000	-1.08231E-004	-2.40040E-001	2.71078E-001	3.57650E+000	9	...........
	52	0.706667	2.64496E-001	-3.99251E-004	0.00000E+000	-1.05600E-004	-2.40040E-001	2.64558E-001	3.57780E+000	9	...........
	53	0.72	2.58035E-001	-3.97571E-004	0.00000E+000	-1.02587E-004	-2.40040E-001	2.58093E-001	3.57780E+000	9	...........
	54	0.733333	2.51638E-001	-3.99167E-004	0.00000E+000	-1.00446E-004	-2.40040E-001	2.51688E-001	3.57780E+000	9	...........
	55	0.746667	2.45297E-001	-3.99684E-004	0.00000E+000	-9.80413E-005	-2.40040E-001	2.45341E-001	3.57780E+000	9	...........
	56	0.76	2.38952E-001	-3.97961E-004	0.00000E+000	-9.50938E-005	-2.40040E-001	2.38991E-001	3.57780E+000	9	...........
	57	0.773333	2.32693E-001	-3.99437E-004	0.00000E+000	-9.29459E-005	-2.40040E-001	2.32736E-001	3.57780E+000	9	...........
	58	0.786667	2.26494E-001	-3.98892E-004	0.00000E+000	-9.03467E-005	-2.40040E-001	2.26535E-001	3.57780E+000	9	...........
	59	0.8	2.20299E-001	-3.99636E-004	0.00000E+000	-8.80394E-005	-2.40040E-001	2.20339E-001	3.57780E+000	9	...........
	60	0.813333	2.14167E-001	-3.98251E-004	0.00000E+000	-8.52924E-005	-2.40040E-001	2.14205E-001	3.57780E+000	9	...........
	61	0.826667	2.08063E-001	-3.98626E-004	0.00000E+000	-8.29393E-005	-2.40040E-001	2.08101E-001	3.57780E+000	9	...........
	62	0.84	2.01984E-001	-3.99222E-004	0.00000E+000	-8.06364E-005	-2.40040E-001	2.02023E-001	3.57780E+000	9	...........
	63	0.853333	1.95996E-001	-3.97432E-004	0.00000E+000	-7.78949E-005	-2.40040E-001	1.96034E-001	3.57780E+000	9	...........
	64	0.866667	1.90049E-001	-3.99665E-004	0.00000E+000	-7.59558E-005	-2.40040E-001	1.90089E-001	3.57780E+000	9	...........
	65	0.88	1.84107E-001	-3.98385E-004	0.00000E+000	-7.33457E-005	-2.40040E-001	1.84147E-001	3.57780E+000	9	...........
	66	0.893333	1.78154E-001	-3.98770E-004	0.00000E+000	-7.10422E-005	-2.40040E-001	1.78193E-001	3.57780E+000	9	...........
	67	0.906667	1.72252E-001	-3.98905E-004	0.00000E+000	-6.87123E-005	-2.40040E-001	1.72291E-001	3.57780E+000	9	...........
	68	0.92	1.66533E-001	-3.98815E-004	0.00000E+000	-6.64158E-005	-2.40040E-001	1.66560E-001	3.57780E+000	9	...........
	69	0.933333	1.60795E-001	-3.98673E-004	0.00000E+000	-6.41047E-005	-2.40040E-001	1.60825E-001	3.57780E+000	9	...........
	70	0.946667	1.55077E-001	-3.98431E-004	0.00000E+000	-6.17873E-005	-2.40040E-001	1.55107E-001	3.57780E+000	9	...........
	71	0.96	1.49321E-001	-3.98465E-004	0.00000E+000	-5.94992E-005	-2.40040E-001	1.49344E-001	3.57780E+000	9	...........
	72	0.97333	1.43685E-001	-3.98969E-004	0.00000E+000	-5.73258E-005	-2.40040E-001	1.43706E-001	3.57780E+000	9	...........
	73	0.98667	1.38063E-001	-3.99470E-004	0.00000E+000	-5.51520E-005	-2.40040E-001	1.38085E-001	3.57780E+000	9	...........
	74	1	1.32552E-001	-3.97242E-004	0.00000E+000	-5.26553E-005	-2.40040E-001	1.32576E-001	3.57780E+000	9	...........
	75	1.01333	1.27070E-001	-3.99302E-004	0.00000E+000	-5.07394E-005	-2.40040E-001	1.27095E-001	3.57780E+000	9	...........
	76	1.02667	1.21499E-001	-3.99159E-004	0.00000E+000	-4.84977E-005	-2.40040E-001	1.21523E-001	3.57780E+000	9	...........
	77	1.04	1.16017E-001	-3.98920E-004	0.00000E+000	-4.62816E-005	-2.40040E-001	1.16038E-001	3.57780E+000	9	...........
	78	1.05333	1.10603E-001	-3.99289E-004	0.00000E+000	-4.41627E-005	-2.40040E-001	1.10631E-001	3.57780E+000	9	...........
	79	1.06667	1.05302E-001	-3.98846E-004	0.00000E+000	-4.19991E-005	-2.40040E-001	1.05326E-001	3.57780E+000	9	...........
	80	1.08	9.98988E-002	-3.98823E-004	0.00000E+000	-3.98419E-005	-2.40040E-001	9.99183E-002	3.57780E+000	9	...........
	81	1.09333	9.45756E-002	-3.99042E-004	0.00000E+000	-3.77396E-005	-2.40040E-001	9.46010E-002	3.57780E+000	9	...........
	82	1.10667	8.94406E-002	-3.97978E-004	0.00000E+000	-3.55954E-005	-2.40040E-001	8.94576E-002	3.57780E+000	9	...........
	83	1.12	8.42861E-002	-3.98220E-004	0.00000E+000	-3.35644E-005	-2.40040E-001	8.43016E-002	3.57780E+000	9	...........
	84	1.13333	7.90757E-002	-3.98783E-004	0.00000E+000	-3.15341E-005	-2.40040E-001	7.90870E-002	3.57780E+000	9	...........
	85	1.14667	7.39314E-002	-3.98652E-004	0.00000E+000	-2.94729E-005	-2.40040E-001	7.39362E-002	3.57780E+000	9	...........
	86	1.16	6.87402E-002	-3.98893E-004	0.00000E+000	-2.74199E-005	-2.40040E-001	6.87497E-002	3.57780E+000	9	...........
	87	1.17333	6.36689E-002	-3.97895E-004	0.00000E+000	-2.53335E-005	-2.40040E-001	6.36756E-002	3.57780E+000	9	...........
	88	1.18667	5.86490E-002	-3.98757E-004	0.00000E+000	-2.33867E-005	-2.40040E-001	5.86563E-002	3.57780E+000	9	...........
	89	1.2	5.35907E-002	-3.98866E-004	0.00000E+000	-2.13755E-005	-2.40040E-001	5.35972E-002	3.57780E+000	9	...........
	90	1.21333	4.86810E-002	-3.98731E-004	0.00000E+000	-1.94106E-005	-2.40040E-001	4.86876E-002	3.57780E+000	9	...........
	91	1.22667	4.37922E-002	-3.98172E-004	0.00000E+000	-1.74368E-005	-2.40040E-001	4.38035E-002	3.57780E+000	9	...........
	92	1.24	3.88623E-002	-3.98584E-004	0.00000E+000	-1.54899E-005	-2.40040E-001	3.88710E-002	3.57780E+000	9	...........
	93	1.25333	3.39782E-002	-3.99038E-004	0.00000E+000	-1.35586E-005	-2.40040E-001	3.39786E-002	3.57780E+000	9	...........
	94	1.26667	2.91071E-002	-3.99351E-004	0.00000E+000	-1.16240E-005	-2.40040E-001	2.91073E-002	3.57780E+000	9	...........
	95	1.28	2.43124E-002	-3.98041E-004	0.00000E+000	-9.67733E-006	-2.40040E-001	2.43073E-002	3.57780E+000	9	...........
	96	1.29333	1.95625E-002	-3.98658E-004	0.00000E+000	-7.79874E-006	-2.40040E-001	1.95542E-002	3.57780E+000	9	...........
	97	1.30667	1.47363E-002	-3.98582E-004	0.00000E+000	-5.87361E-006	-2.40040E-001	1.47245E-002	3.57780E+000	9	...........
	98	1.32	1.00193E-002	-3.99470E-004	0.00000E+000	-4.00241E-006	-2.40040E-001	1.00059E-002	3.57780E+000	9	...........
	99	1.33333	5.30167E-003	-3.98845E-004	0.00000E+000	-2.11454E-006	-2.40040E-001	5.28295E-003	3.57780E+000	9	...........
	100	1.34333	1.20097E-003	-3.98496E-004	0.00000E+000	-4.78583E-007	-2.40040E-001	1.18068E-003	3.57780E+000	9	...........
STARTTIMEOFFSET	QUANT	3075.965	Start Time Offset (s)
