EXPLAIN
TAG	PWR800_DISCHARGE
TITLE	LABEL	PWR Cyclic Charge Discharge (Cell) - Discharge Step	Test &Identifier
DATE	LABEL	12-7-2017	Date
TIME	LABEL	14:36:27	Time
NOTES	NOTES	3	&Notes...
	supercap test cell
	0.4mg
	6M KOH
PSTAT	PSTAT	IFC5000-01520	Potentiostat
CAPACITY	QUANT	1.00000E-003	Capacity (A-hr)
CELLTYPE	SELECTOR	1	&Cell Type
WORKINGCONNECTION	SELECTOR	0	&Working Lead
MAXDISCHARGETIME	VARIABLEANDUNITS	1.00000E+002	s	1.00000E+002	second(s)	Max &Discharge Time
DISCHARGEMODE	MULTIPARAM	0	4.00000E-004	&Discharge Mode	Constant Current	Amp(s)
SAMPLETIME	QUANT	1.00000E-002	Sa&mple Period (s)
DISCHARGESTOPAT1	MULTIPARAM	3	0.00000E+000	Discharge Stop At &1	Voltage < Limit	V
DISCHARGESTOPAT2	MULTIPARAM	0	0.00000E+000	Discharge Stop At &2	None	N/A
AESBHCSELECTOR	TOGGLE	F	Save Both Half Cells
IRCOMP	TOGGLE	F	IR &Measure
EOC	QUANT	0	Open Circuit (V)
SEQUENCER	TOGGLE	TRUE	Run as Sequence
PSTATMODEL	IQUANT	53	Pstat Model
PSTATSECTION	LABEL	IFC5000-01520	Pstat Section
PSTATSERIALNO	LABEL	01520	Pstat Serial Number
CTRLMODE	IQUANT	0	Control Mode
ELECTROMETER	IQUANT	1	RE=0 or CS=1
IESTAB	IQUANT	0	I/E Stability
CASPEED	IQUANT	4	Control Amp Speed
CONVENTION	IQUANT	1	Current Convention
ICHRANGE	IQUANT	2	Ich Range
ICHRANGEMODE	TOGGLE	T	Ich Auto Range
ICHOFFSETENABLE	TOGGLE	F	Ich Offset Enable
ICHOFFSET	QUANT	0	Ich Offset (V)
ICHFILTER	IQUANT	1	Ich Filter
VCHRANGE	IQUANT	2	Vch Range
VCHRANGEMODE	TOGGLE	T	Vch Auto Range
VCHOFFSETENABLE	TOGGLE	F	Vch Offset Enable
VCHOFFSET	QUANT	0	Vch Offset (V)
VCHFILTER	IQUANT	1	Vch Filter
IERANGELOWERLIMIT	IQUANT	9	I/E Range Lower Limit
IERANGEMODE	TOGGLE	F	I/E AutoRange
IERANGE	IQUANT	9	I/E Range
ACHSELECT	IQUANT	1	Ach Select
ACHRANGE	IQUANT	2	Ach Range
ACHOFFSETENABLE	TOGGLE	F	Ach Offset Enable
ACHOFFSET	QUANT	0	Ach Offset (V)
ACHFILTER	IQUANT	1	Ach Filter
CABLEID	IQUANT	14	Cable ID
DCCALDATE	LABEL	5-7-2017	DC Calibration Date
ACCALDATE	LABEL	12/3/2015	AC Calibration Date
FRAMEWORKVERSION	QUANT	7.01	Framework Version
INSTRUMENTVERSION	LABEL	4.00	Instrument Version
CURVE	TABLE	121
	Pt	T	Vf	Im	Vu	Pwr	Sig	Ach	Temp	IERange	Over
	#	s	V	A	V	W	V	V	deg C	#	bits
	0	0.013333	7.09495E-001	-3.98802E-004	0.00000E+000	-2.82948E-004	-2.40040E-001	7.09764E-001	3.57660E+000	9	...........
	1	0.026667	6.97864E-001	-3.99374E-004	0.00000E+000	-2.78709E-004	-2.40040E-001	6.98117E-001	3.57660E+000	9	...........
	2	0.04	6.87574E-001	-3.97439E-004	0.00000E+000	-2.73269E-004	-2.40040E-001	6.87822E-001	3.57660E+000	9	...........
	3	0.053333	6.78067E-001	-3.97584E-004	0.00000E+000	-2.69589E-004	-2.40040E-001	6.78338E-001	3.57660E+000	9	...........
	4	0.066667	6.69070E-001	-3.99545E-004	0.00000E+000	-2.67324E-004	-2.40040E-001	6.69307E-001	3.57660E+000	9	...........
	5	0.08	6.60423E-001	-3.99306E-004	0.00000E+000	-2.63711E-004	-2.40040E-001	6.60655E-001	3.57660E+000	9	...........
	6	0.093333	6.52059E-001	-3.98802E-004	0.00000E+000	-2.60042E-004	-2.40040E-001	6.52263E-001	3.57660E+000	9	...........
	7	0.106667	6.43856E-001	-3.98592E-004	0.00000E+000	-2.56635E-004	-2.40040E-001	6.44086E-001	3.57660E+000	9	...........
	8	0.12	6.35830E-001	-3.97707E-004	0.00000E+000	-2.52874E-004	-2.40040E-001	6.36054E-001	3.57660E+000	9	...........
	9	0.133333	6.27911E-001	-3.99554E-004	0.00000E+000	-2.50885E-004	-2.40040E-001	6.28123E-001	3.57660E+000	9	...........
	10	0.146667	6.20174E-001	-3.97617E-004	0.00000E+000	-2.46592E-004	-2.40040E-001	6.20373E-001	3.57660E+000	9	...........
	11	0.16	6.12554E-001	-4.00490E-004	0.00000E+000	-2.45322E-004	-2.40040E-001	6.12787E-001	3.57660E+000	9	...........
	12	0.173333	6.04977E-001	-3.98993E-004	0.00000E+000	-2.41382E-004	-2.40040E-001	6.05222E-001	3.57660E+000	9	...........
	13	0.186667	5.97503E-001	-3.99053E-004	0.00000E+000	-2.38436E-004	-2.40040E-001	5.97753E-001	3.57660E+000	9	...........
	14	0.2	5.90116E-001	-3.99000E-004	0.00000E+000	-2.35456E-004	-2.40040E-001	5.90351E-001	3.57660E+000	9	...........
	15	0.213333	5.82717E-001	-3.97685E-004	0.00000E+000	-2.31738E-004	-2.40040E-001	5.82967E-001	3.57660E+000	9	...........
	16	0.226667	5.75463E-001	-3.98830E-004	0.00000E+000	-2.29512E-004	-2.40040E-001	5.75682E-001	3.57660E+000	9	...........
	17	0.24	5.68303E-001	-3.99053E-004	0.00000E+000	-2.26783E-004	-2.40040E-001	5.68502E-001	3.57638E+000	9	...........
	18	0.253333	5.61001E-001	-3.99064E-004	0.00000E+000	-2.23875E-004	-2.40040E-001	5.61236E-001	3.57600E+000	9	...........
	19	0.266667	5.53811E-001	-3.98973E-004	0.00000E+000	-2.20956E-004	-2.40040E-001	5.54051E-001	3.57600E+000	9	...........
	20	0.28	5.46733E-001	-3.99388E-004	0.00000E+000	-2.18359E-004	-2.40040E-001	5.46961E-001	3.57600E+000	9	...........
	21	0.293333	5.39731E-001	-3.98720E-004	0.00000E+000	-2.15201E-004	-2.40040E-001	5.39967E-001	3.57600E+000	9	...........
	22	0.306667	5.32708E-001	-3.98896E-004	0.00000E+000	-2.12495E-004	-2.40040E-001	5.32954E-001	3.57600E+000	9	...........
	23	0.32	5.25696E-001	-3.99235E-004	0.00000E+000	-2.09876E-004	-2.40040E-001	5.25941E-001	3.57600E+000	9	...........
	24	0.333333	5.18738E-001	-3.97775E-004	0.00000E+000	-2.06341E-004	-2.40040E-001	5.18918E-001	3.57600E+000	9	...........
	25	0.346667	5.11867E-001	-3.98997E-004	0.00000E+000	-2.04233E-004	-2.40040E-001	5.12078E-001	3.57600E+000	9	...........
	26	0.36	5.04972E-001	-3.99297E-004	0.00000E+000	-2.01634E-004	-2.40040E-001	5.05218E-001	3.57600E+000	9	...........
	27	0.373333	4.98111E-001	-3.99303E-004	0.00000E+000	-1.98897E-004	-2.40040E-001	4.98316E-001	3.57600E+000	9	...........
	28	0.386667	4.91356E-001	-3.99125E-004	0.00000E+000	-1.96112E-004	-2.40040E-001	4.91531E-001	3.57600E+000	9	...........
	29	0.4	4.84703E-001	-3.99472E-004	0.00000E+000	-1.93625E-004	-2.40040E-001	4.84830E-001	3.57600E+000	9	...........
	30	0.413333	4.78162E-001	-3.99092E-004	0.00000E+000	-1.90831E-004	-2.40040E-001	4.78264E-001	3.57600E+000	9	...........
	31	0.426667	4.71461E-001	-3.98331E-004	0.00000E+000	-1.87798E-004	-2.40040E-001	4.71562E-001	3.57600E+000	9	...........
	32	0.44	4.64808E-001	-3.97981E-004	0.00000E+000	-1.84985E-004	-2.40040E-001	4.64903E-001	3.57600E+000	9	...........
	33	0.453333	4.58183E-001	-4.00270E-004	0.00000E+000	-1.83397E-004	-2.40040E-001	4.58278E-001	3.57600E+000	9	...........
	34	0.466667	4.51632E-001	-3.99812E-004	0.00000E+000	-1.80568E-004	-2.40040E-001	4.51721E-001	3.57600E+000	9	...........
	35	0.48	4.45113E-001	-3.99207E-004	0.00000E+000	-1.77692E-004	-2.40040E-001	4.45207E-001	3.57600E+000	9	...........
	36	0.493333	4.38587E-001	-4.00433E-004	0.00000E+000	-1.75625E-004	-2.40040E-001	4.38682E-001	3.57600E+000	9	...........
	37	0.506667	4.32085E-001	-3.98957E-004	0.00000E+000	-1.72383E-004	-2.40040E-001	4.32177E-001	3.57600E+000	9	...........
	38	0.52	4.25635E-001	-3.99964E-004	0.00000E+000	-1.70239E-004	-2.40040E-001	4.25725E-001	3.57600E+000	9	...........
	39	0.533333	4.19226E-001	-3.99119E-004	0.00000E+000	-1.67321E-004	-2.40040E-001	4.19314E-001	3.57600E+000	9	...........
	40	0.546667	4.12812E-001	-3.97605E-004	0.00000E+000	-1.64136E-004	-2.40040E-001	4.12898E-001	3.57600E+000	9	...........
	41	0.56	4.06438E-001	-3.98222E-004	0.00000E+000	-1.61852E-004	-2.40040E-001	4.06514E-001	3.57600E+000	9	...........
	42	0.573333	4.00156E-001	-3.99452E-004	0.00000E+000	-1.59843E-004	-2.40040E-001	4.00234E-001	3.57600E+000	9	...........
	43	0.586667	3.93884E-001	-3.97326E-004	0.00000E+000	-1.56500E-004	-2.40040E-001	3.93955E-001	3.57600E+000	9	...........
	44	0.6	3.87610E-001	-3.98599E-004	0.00000E+000	-1.54501E-004	-2.40040E-001	3.87682E-001	3.57600E+000	9	...........
	45	0.613333	3.81459E-001	-3.99038E-004	0.00000E+000	-1.52216E-004	-2.40040E-001	3.81532E-001	3.57600E+000	9	...........
	46	0.626667	3.75350E-001	-3.99059E-004	0.00000E+000	-1.49787E-004	-2.40040E-001	3.75425E-001	3.57600E+000	9	...........
	47	0.64	3.69234E-001	-4.00005E-004	0.00000E+000	-1.47696E-004	-2.40040E-001	3.69305E-001	3.57600E+000	9	...........
	48	0.653333	3.63179E-001	-4.00342E-004	0.00000E+000	-1.45396E-004	-2.40040E-001	3.63251E-001	3.57600E+000	9	...........
	49	0.666667	3.57081E-001	-3.97938E-004	0.00000E+000	-1.42096E-004	-2.40040E-001	3.57148E-001	3.57600E+000	9	...........
	50	0.68	3.51013E-001	-3.99128E-004	0.00000E+000	-1.40099E-004	-2.40040E-001	3.51076E-001	3.57600E+000	9	...........
	51	0.693333	3.45087E-001	-3.98767E-004	0.00000E+000	-1.37609E-004	-2.40040E-001	3.45159E-001	3.57600E+000	9	...........
	52	0.706667	3.39108E-001	-3.99568E-004	0.00000E+000	-1.35497E-004	-2.40040E-001	3.39170E-001	3.57600E+000	9	...........
	53	0.72	3.33174E-001	-3.98004E-004	0.00000E+000	-1.32604E-004	-2.40040E-001	3.33233E-001	3.57600E+000	9	...........
	54	0.733333	3.27298E-001	-3.98411E-004	0.00000E+000	-1.30399E-004	-2.40040E-001	3.27355E-001	3.57600E+000	9	...........
	55	0.746667	3.21424E-001	-3.98008E-004	0.00000E+000	-1.27929E-004	-2.40040E-001	3.21481E-001	3.57600E+000	9	...........
	56	0.76	3.15606E-001	-3.98775E-004	0.00000E+000	-1.25856E-004	-2.40040E-001	3.15668E-001	3.57600E+000	9	...........
	57	0.773333	3.09871E-001	-3.98687E-004	0.00000E+000	-1.23542E-004	-2.40040E-001	3.09930E-001	3.57600E+000	9	...........
	58	0.786667	3.04171E-001	-3.99308E-004	0.00000E+000	-1.21458E-004	-2.40040E-001	3.04231E-001	3.57600E+000	9	...........
	59	0.8	2.98483E-001	-3.98914E-004	0.00000E+000	-1.19069E-004	-2.40040E-001	2.98541E-001	3.57600E+000	9	...........
	60	0.813333	2.92665E-001	-3.98148E-004	0.00000E+000	-1.16524E-004	-2.40040E-001	2.92719E-001	3.57600E+000	9	...........
	61	0.826667	2.86997E-001	-3.98955E-004	0.00000E+000	-1.14499E-004	-2.40040E-001	2.87051E-001	3.57600E+000	9	...........
	62	0.84	2.81416E-001	-3.98637E-004	0.00000E+000	-1.12183E-004	-2.40040E-001	2.81473E-001	3.57600E+000	9	...........
	63	0.853333	2.75799E-001	-3.98170E-004	0.00000E+000	-1.09815E-004	-2.40040E-001	2.75857E-001	3.57600E+000	9	...........
	64	0.866667	2.70263E-001	-3.98874E-004	0.00000E+000	-1.07801E-004	-2.40040E-001	2.70318E-001	3.57600E+000	9	...........
	65	0.88	2.64660E-001	-3.98521E-004	0.00000E+000	-1.05473E-004	-2.40040E-001	2.64718E-001	3.57600E+000	9	...........
	66	0.893333	2.59230E-001	-3.98262E-004	0.00000E+000	-1.03242E-004	-2.40040E-001	2.59285E-001	3.57600E+000	9	...........
	67	0.906667	2.53652E-001	-3.98878E-004	0.00000E+000	-1.01176E-004	-2.40040E-001	2.53704E-001	3.57600E+000	9	...........
	68	0.92	2.48213E-001	-4.00455E-004	0.00000E+000	-9.93979E-005	-2.40040E-001	2.48267E-001	3.57600E+000	9	...........
	69	0.933333	2.42867E-001	-3.98128E-004	0.00000E+000	-9.66922E-005	-2.40040E-001	2.42918E-001	3.57600E+000	9	...........
	70	0.946667	2.37440E-001	-3.98276E-004	0.00000E+000	-9.45668E-005	-2.40040E-001	2.37486E-001	3.57600E+000	9	...........
	71	0.96	2.32045E-001	-3.98721E-004	0.00000E+000	-9.25213E-005	-2.40040E-001	2.32089E-001	3.57600E+000	9	...........
	72	0.97333	2.26838E-001	-3.98652E-004	0.00000E+000	-9.04296E-005	-2.40040E-001	2.26881E-001	3.57600E+000	9	...........
	73	0.98667	2.21471E-001	-3.99015E-004	0.00000E+000	-8.83703E-005	-2.40040E-001	2.21510E-001	3.57600E+000	9	...........
	74	1	2.16144E-001	-4.00387E-004	0.00000E+000	-8.65412E-005	-2.40040E-001	2.16185E-001	3.57600E+000	9	...........
	75	1.01333	2.10925E-001	-3.98825E-004	0.00000E+000	-8.41220E-005	-2.40040E-001	2.10969E-001	3.57600E+000	9	...........
	76	1.02667	2.05739E-001	-3.98968E-004	0.00000E+000	-8.20831E-005	-2.40040E-001	2.05781E-001	3.57600E+000	9	...........
	77	1.04	2.00551E-001	-3.99247E-004	0.00000E+000	-8.00695E-005	-2.40040E-001	2.00593E-001	3.57600E+000	9	...........
	78	1.05333	1.95337E-001	-3.98039E-004	0.00000E+000	-7.77519E-005	-2.40040E-001	1.95371E-001	3.57600E+000	9	...........
	79	1.06667	1.90204E-001	-3.98894E-004	0.00000E+000	-7.58713E-005	-2.40040E-001	1.90241E-001	3.57600E+000	9	...........
	80	1.08	1.85098E-001	-3.98461E-004	0.00000E+000	-7.37545E-005	-2.40040E-001	1.85127E-001	3.57600E+000	9	...........
	81	1.09333	1.80012E-001	-3.98624E-004	0.00000E+000	-7.17569E-005	-2.40040E-001	1.80051E-001	3.57600E+000	9	...........
	82	1.10667	1.74888E-001	-3.97579E-004	0.00000E+000	-6.95320E-005	-2.40040E-001	1.74923E-001	3.57600E+000	9	...........
	83	1.12	1.69846E-001	-3.97878E-004	0.00000E+000	-6.75779E-005	-2.40040E-001	1.69882E-001	3.57600E+000	9	...........
	84	1.13333	1.64868E-001	-3.98532E-004	0.00000E+000	-6.57053E-005	-2.40040E-001	1.64898E-001	3.57600E+000	9	...........
	85	1.14667	1.59925E-001	-3.98862E-004	0.00000E+000	-6.37879E-005	-2.40040E-001	1.59956E-001	3.57600E+000	9	...........
	86	1.16	1.55005E-001	-3.99698E-004	0.00000E+000	-6.19553E-005	-2.40040E-001	1.55030E-001	3.57600E+000	9	...........
	87	1.17333	1.50080E-001	-3.98982E-004	0.00000E+000	-5.98793E-005	-2.40040E-001	1.50105E-001	3.57600E+000	9	...........
	88	1.18667	1.45270E-001	-3.99430E-004	0.00000E+000	-5.80254E-005	-2.40040E-001	1.45297E-001	3.57600E+000	9	...........
	89	1.2	1.40459E-001	-3.99665E-004	0.00000E+000	-5.61366E-005	-2.40040E-001	1.40492E-001	3.57600E+000	9	...........
	90	1.21333	1.35462E-001	-3.98506E-004	0.00000E+000	-5.39825E-005	-2.40040E-001	1.35491E-001	3.57600E+000	9	...........
	91	1.22667	1.30534E-001	-3.98905E-004	0.00000E+000	-5.20708E-005	-2.40040E-001	1.30560E-001	3.57600E+000	9	...........
	92	1.24	1.25695E-001	-3.97665E-004	0.00000E+000	-4.99846E-005	-2.40040E-001	1.25715E-001	3.57611E+000	9	...........
	93	1.25333	1.20987E-001	-3.99123E-004	0.00000E+000	-4.82886E-005	-2.40040E-001	1.21010E-001	3.57630E+000	9	...........
	94	1.26667	1.16230E-001	-4.00578E-004	0.00000E+000	-4.65591E-005	-2.40040E-001	1.16261E-001	3.57630E+000	9	...........
	95	1.28	1.11532E-001	-3.98783E-004	0.00000E+000	-4.44770E-005	-2.40040E-001	1.11549E-001	3.57630E+000	9	...........
	96	1.29333	1.06786E-001	-3.98523E-004	0.00000E+000	-4.25565E-005	-2.40040E-001	1.06810E-001	3.57630E+000	9	...........
	97	1.30667	1.02101E-001	-3.98322E-004	0.00000E+000	-4.06691E-005	-2.40040E-001	1.02130E-001	3.57630E+000	9	...........
	98	1.32	9.75020E-002	-3.98717E-004	0.00000E+000	-3.88757E-005	-2.40040E-001	9.75229E-002	3.57630E+000	9	...........
	99	1.33333	9.28429E-002	-3.98910E-004	0.00000E+000	-3.70360E-005	-2.40040E-001	9.28653E-002	3.57630E+000	9	...........
	100	1.34667	8.82275E-002	-3.99846E-004	0.00000E+000	-3.52774E-005	-2.40040E-001	8.82455E-002	3.57630E+000	9	...........
	101	1.36	8.37012E-002	-3.98732E-004	0.00000E+000	-3.33744E-005	-2.40040E-001	8.37176E-002	3.57630E+000	9	...........
	102	1.37333	7.90754E-002	-3.98576E-004	0.00000E+000	-3.15175E-005	-2.40040E-001	7.90893E-002	3.57630E+000	9	...........
	103	1.38667	7.45579E-002	-3.99235E-004	0.00000E+000	-2.97662E-005	-2.40040E-001	7.45728E-002	3.57630E+000	9	...........
	104	1.4	7.00411E-002	-3.98799E-004	0.00000E+000	-2.79323E-005	-2.40040E-001	7.00515E-002	3.57630E+000	9	...........
	105	1.41333	6.55340E-002	-3.99372E-004	0.00000E+000	-2.61724E-005	-2.40040E-001	6.55421E-002	3.57630E+000	9	...........
	106	1.42667	6.10239E-002	-3.99063E-004	0.00000E+000	-2.43524E-005	-2.40040E-001	6.10345E-002	3.57630E+000	9	...........
	107	1.44	5.66439E-002	-3.98473E-004	0.00000E+000	-2.25710E-005	-2.40040E-001	5.66524E-002	3.57630E+000	9	...........
	108	1.45333	5.21413E-002	-3.98421E-004	0.00000E+000	-2.07742E-005	-2.40040E-001	5.21495E-002	3.57630E+000	9	...........
	109	1.46667	4.78163E-002	-3.97415E-004	0.00000E+000	-1.90029E-005	-2.40040E-001	4.78199E-002	3.57630E+000	9	...........
	110	1.48	4.35316E-002	-4.00351E-004	0.00000E+000	-1.74279E-005	-2.40040E-001	4.35401E-002	3.57630E+000	9	...........
	111	1.49333	3.91583E-002	-3.98343E-004	0.00000E+000	-1.55984E-005	-2.40040E-001	3.91620E-002	3.57630E+000	9	...........
	112	1.50667	3.48337E-002	-3.98617E-004	0.00000E+000	-1.38853E-005	-2.40040E-001	3.48414E-002	3.57630E+000	9	...........
	113	1.52	3.06050E-002	-3.97896E-004	0.00000E+000	-1.21776E-005	-2.40040E-001	3.06080E-002	3.57630E+000	9	...........
	114	1.53333	2.61961E-002	-3.98672E-004	0.00000E+000	-1.04436E-005	-2.40040E-001	2.61935E-002	3.57630E+000	9	...........
	115	1.54667	2.18113E-002	-3.98451E-004	0.00000E+000	-8.69074E-006	-2.40040E-001	2.18050E-002	3.57630E+000	9	...........
	116	1.56	1.76146E-002	-3.99680E-004	0.00000E+000	-7.04021E-006	-2.40040E-001	1.76066E-002	3.57630E+000	9	...........
	117	1.57333	1.34311E-002	-3.98747E-004	0.00000E+000	-5.35561E-006	-2.40040E-001	1.34190E-002	3.57630E+000	9	...........
	118	1.58667	9.23282E-003	-3.99085E-004	0.00000E+000	-3.68468E-006	-2.40040E-001	9.21804E-003	3.57630E+000	9	...........
	119	1.6	4.90903E-003	-3.99085E-004	0.00000E+000	-1.95912E-006	-2.40040E-001	4.88993E-003	3.57630E+000	9	...........
	120	1.61	1.24202E-003	-3.99055E-004	0.00000E+000	-4.95633E-007	-2.40040E-001	1.22575E-003	3.57630E+000	9	...........
STARTTIMEOFFSET	QUANT	858.6086	Start Time Offset (s)
