EXPLAIN
TAG	PWR800_DISCHARGE
TITLE	LABEL	PWR Cyclic Charge Discharge (Cell) - Discharge Step	Test &Identifier
DATE	LABEL	12-7-2017	Date
TIME	LABEL	14:29:41	Time
NOTES	NOTES	3	&Notes...
	supercap test cell
	0.4mg
	6M KOH
PSTAT	PSTAT	IFC5000-01520	Potentiostat
CAPACITY	QUANT	1.00000E-003	Capacity (A-hr)
CELLTYPE	SELECTOR	1	&Cell Type
WORKINGCONNECTION	SELECTOR	0	&Working Lead
MAXDISCHARGETIME	VARIABLEANDUNITS	1.00000E+002	s	1.00000E+002	second(s)	Max &Discharge Time
DISCHARGEMODE	MULTIPARAM	0	4.00000E-004	&Discharge Mode	Constant Current	Amp(s)
SAMPLETIME	QUANT	1.00000E-002	Sa&mple Period (s)
DISCHARGESTOPAT1	MULTIPARAM	3	0.00000E+000	Discharge Stop At &1	Voltage < Limit	V
DISCHARGESTOPAT2	MULTIPARAM	0	0.00000E+000	Discharge Stop At &2	None	N/A
AESBHCSELECTOR	TOGGLE	F	Save Both Half Cells
IRCOMP	TOGGLE	F	IR &Measure
EOC	QUANT	0	Open Circuit (V)
SEQUENCER	TOGGLE	TRUE	Run as Sequence
PSTATMODEL	IQUANT	53	Pstat Model
PSTATSECTION	LABEL	IFC5000-01520	Pstat Section
PSTATSERIALNO	LABEL	01520	Pstat Serial Number
CTRLMODE	IQUANT	0	Control Mode
ELECTROMETER	IQUANT	1	RE=0 or CS=1
IESTAB	IQUANT	0	I/E Stability
CASPEED	IQUANT	4	Control Amp Speed
CONVENTION	IQUANT	1	Current Convention
ICHRANGE	IQUANT	2	Ich Range
ICHRANGEMODE	TOGGLE	T	Ich Auto Range
ICHOFFSETENABLE	TOGGLE	F	Ich Offset Enable
ICHOFFSET	QUANT	0	Ich Offset (V)
ICHFILTER	IQUANT	1	Ich Filter
VCHRANGE	IQUANT	2	Vch Range
VCHRANGEMODE	TOGGLE	T	Vch Auto Range
VCHOFFSETENABLE	TOGGLE	F	Vch Offset Enable
VCHOFFSET	QUANT	0	Vch Offset (V)
VCHFILTER	IQUANT	1	Vch Filter
IERANGELOWERLIMIT	IQUANT	9	I/E Range Lower Limit
IERANGEMODE	TOGGLE	F	I/E AutoRange
IERANGE	IQUANT	9	I/E Range
ACHSELECT	IQUANT	1	Ach Select
ACHRANGE	IQUANT	2	Ach Range
ACHOFFSETENABLE	TOGGLE	F	Ach Offset Enable
ACHOFFSET	QUANT	0	Ach Offset (V)
ACHFILTER	IQUANT	1	Ach Filter
CABLEID	IQUANT	14	Cable ID
DCCALDATE	LABEL	5-7-2017	DC Calibration Date
ACCALDATE	LABEL	12/3/2015	AC Calibration Date
FRAMEWORKVERSION	QUANT	7.01	Framework Version
INSTRUMENTVERSION	LABEL	4.00	Instrument Version
CURVE	TABLE	127
	Pt	T	Vf	Im	Vu	Pwr	Sig	Ach	Temp	IERange	Over
	#	s	V	A	V	W	V	V	deg C	#	bits
	0	0.013333	7.16317E-001	-3.98628E-004	0.00000E+000	-2.85544E-004	-2.40040E-001	7.16520E-001	3.57590E+000	9	...........
	1	0.026667	7.05019E-001	-3.98251E-004	0.00000E+000	-2.80775E-004	-2.40040E-001	7.05210E-001	3.57590E+000	9	...........
	2	0.04	6.94996E-001	-3.98845E-004	0.00000E+000	-2.77195E-004	-2.40040E-001	6.95223E-001	3.57590E+000	9	...........
	3	0.053333	6.85759E-001	-3.99025E-004	0.00000E+000	-2.73635E-004	-2.40040E-001	6.85987E-001	3.57590E+000	9	...........
	4	0.066667	6.77014E-001	-3.99909E-004	0.00000E+000	-2.70744E-004	-2.40040E-001	6.77239E-001	3.57590E+000	9	...........
	5	0.08	6.68739E-001	-3.98203E-004	0.00000E+000	-2.66294E-004	-2.40040E-001	6.68955E-001	3.57590E+000	9	...........
	6	0.093333	6.60609E-001	-3.98513E-004	0.00000E+000	-2.63262E-004	-2.40040E-001	6.60842E-001	3.57590E+000	9	...........
	7	0.106667	6.52639E-001	-3.99433E-004	0.00000E+000	-2.60686E-004	-2.40040E-001	6.52869E-001	3.57590E+000	9	...........
	8	0.12	6.44836E-001	-3.98328E-004	0.00000E+000	-2.56856E-004	-2.40040E-001	6.45086E-001	3.57590E+000	9	...........
	9	0.133333	6.37206E-001	-3.99122E-004	0.00000E+000	-2.54323E-004	-2.40040E-001	6.37463E-001	3.57590E+000	9	...........
	10	0.146667	6.29738E-001	-3.98504E-004	0.00000E+000	-2.50953E-004	-2.40040E-001	6.29999E-001	3.57590E+000	9	...........
	11	0.16	6.22405E-001	-3.99402E-004	0.00000E+000	-2.48590E-004	-2.40040E-001	6.22614E-001	3.57590E+000	9	...........
	12	0.173333	6.15025E-001	-3.98690E-004	0.00000E+000	-2.45204E-004	-2.40040E-001	6.15278E-001	3.57590E+000	9	...........
	13	0.186667	6.07684E-001	-3.99698E-004	0.00000E+000	-2.42890E-004	-2.40040E-001	6.07947E-001	3.57590E+000	9	...........
	14	0.2	6.00488E-001	-3.98460E-004	0.00000E+000	-2.39271E-004	-2.40040E-001	6.00748E-001	3.57590E+000	9	...........
	15	0.213333	5.93361E-001	-3.97483E-004	0.00000E+000	-2.35851E-004	-2.40040E-001	5.93570E-001	3.57590E+000	9	...........
	16	0.226667	5.86228E-001	-4.00310E-004	0.00000E+000	-2.34673E-004	-2.40040E-001	5.86458E-001	3.57590E+000	9	...........
	17	0.24	5.79154E-001	-3.98667E-004	0.00000E+000	-2.30889E-004	-2.40040E-001	5.79376E-001	3.57590E+000	9	...........
	18	0.253333	5.72157E-001	-3.97998E-004	0.00000E+000	-2.27717E-004	-2.40040E-001	5.72363E-001	3.57590E+000	9	...........
	19	0.266667	5.65273E-001	-3.99508E-004	0.00000E+000	-2.25831E-004	-2.40040E-001	5.65491E-001	3.57590E+000	9	...........
	20	0.28	5.58348E-001	-4.00237E-004	0.00000E+000	-2.23471E-004	-2.40040E-001	5.58594E-001	3.57590E+000	9	...........
	21	0.293333	5.51542E-001	-3.98928E-004	0.00000E+000	-2.20025E-004	-2.40040E-001	5.51759E-001	3.57590E+000	9	...........
	22	0.306667	5.44770E-001	-3.98054E-004	0.00000E+000	-2.16848E-004	-2.40040E-001	5.44996E-001	3.57590E+000	9	...........
	23	0.32	5.37960E-001	-3.97938E-004	0.00000E+000	-2.14075E-004	-2.40040E-001	5.38204E-001	3.57590E+000	9	...........
	24	0.333333	5.31301E-001	-3.98261E-004	0.00000E+000	-2.11597E-004	-2.40040E-001	5.31525E-001	3.57590E+000	9	...........
	25	0.346667	5.24600E-001	-3.99295E-004	0.00000E+000	-2.09470E-004	-2.40040E-001	5.24806E-001	3.57590E+000	9	...........
	26	0.36	5.18007E-001	-3.98359E-004	0.00000E+000	-2.06353E-004	-2.40040E-001	5.18174E-001	3.57590E+000	9	...........
	27	0.373333	5.11378E-001	-3.97761E-004	0.00000E+000	-2.03406E-004	-2.40040E-001	5.11568E-001	3.57590E+000	9	...........
	28	0.386667	5.04712E-001	-3.98279E-004	0.00000E+000	-2.01016E-004	-2.40040E-001	5.04966E-001	3.57590E+000	9	...........
	29	0.4	4.98214E-001	-3.98695E-004	0.00000E+000	-1.98635E-004	-2.40040E-001	4.98429E-001	3.57590E+000	9	...........
	30	0.413333	4.91793E-001	-3.99004E-004	0.00000E+000	-1.96228E-004	-2.40040E-001	4.91989E-001	3.57590E+000	9	...........
	31	0.426667	4.85353E-001	-3.98866E-004	0.00000E+000	-1.93591E-004	-2.40040E-001	4.85519E-001	3.57590E+000	9	...........
	32	0.44	4.79101E-001	-3.99201E-004	0.00000E+000	-1.91258E-004	-2.40040E-001	4.79200E-001	3.57590E+000	9	...........
	33	0.453333	4.72770E-001	-3.96795E-004	0.00000E+000	-1.87593E-004	-2.40040E-001	4.72861E-001	3.57590E+000	9	...........
	34	0.466667	4.66398E-001	-3.99536E-004	0.00000E+000	-1.86343E-004	-2.40040E-001	4.66489E-001	3.57590E+000	9	...........
	35	0.48	4.60106E-001	-3.99311E-004	0.00000E+000	-1.83725E-004	-2.40040E-001	4.60193E-001	3.57590E+000	9	...........
	36	0.493333	4.53787E-001	-3.99057E-004	0.00000E+000	-1.81087E-004	-2.40040E-001	4.53876E-001	3.57590E+000	9	...........
	37	0.506667	4.47491E-001	-3.98859E-004	0.00000E+000	-1.78486E-004	-2.40040E-001	4.47580E-001	3.57590E+000	9	...........
	38	0.52	4.41295E-001	-3.98042E-004	0.00000E+000	-1.75654E-004	-2.40040E-001	4.41385E-001	3.57590E+000	9	...........
	39	0.533333	4.35142E-001	-3.98442E-004	0.00000E+000	-1.73379E-004	-2.40040E-001	4.35231E-001	3.57590E+000	9	...........
	40	0.546667	4.29009E-001	-3.98948E-004	0.00000E+000	-1.71152E-004	-2.40040E-001	4.29099E-001	3.57590E+000	9	...........
	41	0.56	4.22808E-001	-3.98768E-004	0.00000E+000	-1.68602E-004	-2.40040E-001	4.22892E-001	3.57590E+000	9	...........
	42	0.573333	4.16596E-001	-3.98482E-004	0.00000E+000	-1.66006E-004	-2.40040E-001	4.16678E-001	3.57590E+000	9	...........
	43	0.586667	4.10418E-001	-4.00368E-004	0.00000E+000	-1.64318E-004	-2.40040E-001	4.10499E-001	3.57590E+000	9	...........
	44	0.6	4.04355E-001	-3.98500E-004	0.00000E+000	-1.61135E-004	-2.40040E-001	4.04428E-001	3.57665E+000	9	...........
	45	0.613333	3.98366E-001	-3.98081E-004	0.00000E+000	-1.58582E-004	-2.40040E-001	3.98435E-001	3.57690E+000	9	...........
	46	0.626667	3.92347E-001	-3.98754E-004	0.00000E+000	-1.56450E-004	-2.40040E-001	3.92423E-001	3.57690E+000	9	...........
	47	0.64	3.86424E-001	-3.98128E-004	0.00000E+000	-1.53846E-004	-2.40040E-001	3.86498E-001	3.57690E+000	9	...........
	48	0.653333	3.80465E-001	-3.97819E-004	0.00000E+000	-1.51356E-004	-2.40040E-001	3.80538E-001	3.57690E+000	9	...........
	49	0.666667	3.74560E-001	-3.99028E-004	0.00000E+000	-1.49460E-004	-2.40040E-001	3.74628E-001	3.57690E+000	9	...........
	50	0.68	3.68670E-001	-3.98146E-004	0.00000E+000	-1.46784E-004	-2.40040E-001	3.68740E-001	3.57690E+000	9	...........
	51	0.693333	3.62768E-001	-3.97110E-004	0.00000E+000	-1.44059E-004	-2.40040E-001	3.62842E-001	3.57690E+000	9	...........
	52	0.706667	3.56886E-001	-3.98267E-004	0.00000E+000	-1.42136E-004	-2.40040E-001	3.56954E-001	3.57690E+000	9	...........
	53	0.72	3.51196E-001	-3.99117E-004	0.00000E+000	-1.40168E-004	-2.40040E-001	3.51258E-001	3.57690E+000	9	...........
	54	0.733333	3.45468E-001	-3.97218E-004	0.00000E+000	-1.37226E-004	-2.40040E-001	3.45528E-001	3.57690E+000	9	...........
	55	0.746667	3.39745E-001	-3.97645E-004	0.00000E+000	-1.35098E-004	-2.40040E-001	3.39813E-001	3.57690E+000	9	...........
	56	0.76	3.34032E-001	-3.98085E-004	0.00000E+000	-1.32973E-004	-2.40040E-001	3.34094E-001	3.57690E+000	9	...........
	57	0.773333	3.28347E-001	-3.98119E-004	0.00000E+000	-1.30721E-004	-2.40040E-001	3.28410E-001	3.57690E+000	9	...........
	58	0.786667	3.22679E-001	-3.98335E-004	0.00000E+000	-1.28534E-004	-2.40040E-001	3.22742E-001	3.57690E+000	9	...........
	59	0.8	3.17135E-001	-3.99391E-004	0.00000E+000	-1.26661E-004	-2.40040E-001	3.17190E-001	3.57690E+000	9	...........
	60	0.813333	3.11569E-001	-3.98964E-004	0.00000E+000	-1.24305E-004	-2.40040E-001	3.11631E-001	3.57690E+000	9	...........
	61	0.826667	3.05971E-001	-3.99723E-004	0.00000E+000	-1.22304E-004	-2.40040E-001	3.06033E-001	3.57690E+000	9	...........
	62	0.84	3.00413E-001	-3.99386E-004	0.00000E+000	-1.19981E-004	-2.40040E-001	3.00471E-001	3.57690E+000	9	...........
	63	0.853333	2.94881E-001	-3.98973E-004	0.00000E+000	-1.17650E-004	-2.40040E-001	2.94940E-001	3.57690E+000	9	...........
	64	0.866667	2.89424E-001	-3.98528E-004	0.00000E+000	-1.15344E-004	-2.40040E-001	2.89481E-001	3.57690E+000	9	...........
	65	0.88	2.83968E-001	-3.99325E-004	0.00000E+000	-1.13396E-004	-2.40040E-001	2.84023E-001	3.57690E+000	9	...........
	66	0.893333	2.78547E-001	-3.98001E-004	0.00000E+000	-1.10862E-004	-2.40040E-001	2.78604E-001	3.57690E+000	9	...........
	67	0.906667	2.73199E-001	-3.98452E-004	0.00000E+000	-1.08857E-004	-2.40040E-001	2.73260E-001	3.57690E+000	9	...........
	68	0.92	2.67816E-001	-3.98497E-004	0.00000E+000	-1.06724E-004	-2.40040E-001	2.67873E-001	3.57690E+000	9	...........
	69	0.933333	2.62463E-001	-3.99331E-004	0.00000E+000	-1.04810E-004	-2.40040E-001	2.62521E-001	3.57690E+000	9	...........
	70	0.946667	2.57117E-001	-3.99267E-004	0.00000E+000	-1.02658E-004	-2.40040E-001	2.57172E-001	3.57690E+000	9	...........
	71	0.96	2.51848E-001	-3.99245E-004	0.00000E+000	-1.00549E-004	-2.40040E-001	2.51899E-001	3.57690E+000	9	...........
	72	0.97333	2.46591E-001	-3.99693E-004	0.00000E+000	-9.85606E-005	-2.40040E-001	2.46643E-001	3.57690E+000	9	...........
	73	0.98667	2.41440E-001	-3.98915E-004	0.00000E+000	-9.63138E-005	-2.40040E-001	2.41481E-001	3.57690E+000	9	...........
	74	1	2.36284E-001	-3.99052E-004	0.00000E+000	-9.42898E-005	-2.40040E-001	2.36327E-001	3.57690E+000	9	...........
	75	1.01333	2.31174E-001	-3.99024E-004	0.00000E+000	-9.22440E-005	-2.40040E-001	2.31214E-001	3.57690E+000	9	...........
	76	1.02667	2.25960E-001	-3.98168E-004	0.00000E+000	-8.99701E-005	-2.40040E-001	2.26009E-001	3.57690E+000	9	...........
	77	1.04	2.20831E-001	-3.98810E-004	0.00000E+000	-8.80698E-005	-2.40040E-001	2.20875E-001	3.57690E+000	9	...........
	78	1.05333	2.15817E-001	-3.99284E-004	0.00000E+000	-8.61722E-005	-2.40040E-001	2.15860E-001	3.57690E+000	9	...........
	79	1.06667	2.10791E-001	-3.98773E-004	0.00000E+000	-8.40576E-005	-2.40040E-001	2.10832E-001	3.57690E+000	9	...........
	80	1.08	2.05723E-001	-3.99133E-004	0.00000E+000	-8.21110E-005	-2.40040E-001	2.05760E-001	3.57690E+000	9	...........
	81	1.09333	2.00700E-001	-3.99025E-004	0.00000E+000	-8.00843E-005	-2.40040E-001	2.00739E-001	3.57690E+000	9	...........
	82	1.10667	1.95668E-001	-3.99036E-004	0.00000E+000	-7.80787E-005	-2.40040E-001	1.95703E-001	3.57690E+000	9	...........
	83	1.12	1.90693E-001	-3.99572E-004	0.00000E+000	-7.61954E-005	-2.40040E-001	1.90728E-001	3.57690E+000	9	...........
	84	1.13333	1.85733E-001	-3.98317E-004	0.00000E+000	-7.39807E-005	-2.40040E-001	1.85769E-001	3.57690E+000	9	...........
	85	1.14667	1.80890E-001	-3.99697E-004	0.00000E+000	-7.23011E-005	-2.40040E-001	1.80928E-001	3.57690E+000	9	...........
	86	1.16	1.76034E-001	-3.98557E-004	0.00000E+000	-7.01596E-005	-2.40040E-001	1.76064E-001	3.57690E+000	9	...........
	87	1.17333	1.71138E-001	-3.98321E-004	0.00000E+000	-6.81679E-005	-2.40040E-001	1.71170E-001	3.57690E+000	9	...........
	88	1.18667	1.66356E-001	-3.98078E-004	0.00000E+000	-6.62225E-005	-2.40040E-001	1.66382E-001	3.57690E+000	9	...........
	89	1.2	1.61549E-001	-3.98578E-004	0.00000E+000	-6.43897E-005	-2.40040E-001	1.61580E-001	3.57690E+000	9	...........
	90	1.21333	1.56730E-001	-3.99628E-004	0.00000E+000	-6.26338E-005	-2.40040E-001	1.56756E-001	3.57690E+000	9	...........
	91	1.22667	1.51983E-001	-3.98685E-004	0.00000E+000	-6.05935E-005	-2.40040E-001	1.52011E-001	3.57690E+000	9	...........
	92	1.24	1.47328E-001	-3.98368E-004	0.00000E+000	-5.86905E-005	-2.40040E-001	1.47351E-001	3.57690E+000	9	...........
	93	1.25333	1.42547E-001	-3.98872E-004	0.00000E+000	-5.68578E-005	-2.40040E-001	1.42577E-001	3.57690E+000	9	...........
	94	1.26667	1.37822E-001	-4.00712E-004	0.00000E+000	-5.52269E-005	-2.40040E-001	1.37840E-001	3.57690E+000	9	...........
	95	1.28	1.33194E-001	-3.98359E-004	0.00000E+000	-5.30592E-005	-2.40040E-001	1.33219E-001	3.57690E+000	9	...........
	96	1.29333	1.28620E-001	-3.98669E-004	0.00000E+000	-5.12768E-005	-2.40040E-001	1.28642E-001	3.57690E+000	9	...........
	97	1.30667	1.23953E-001	-3.98613E-004	0.00000E+000	-4.94094E-005	-2.40040E-001	1.23974E-001	3.57690E+000	9	...........
	98	1.32	1.19291E-001	-3.98977E-004	0.00000E+000	-4.75942E-005	-2.40040E-001	1.19313E-001	3.57690E+000	9	...........
	99	1.33333	1.14683E-001	-3.97075E-004	0.00000E+000	-4.55377E-005	-2.40040E-001	1.14701E-001	3.57690E+000	9	...........
	100	1.34667	1.10135E-001	-3.98320E-004	0.00000E+000	-4.38690E-005	-2.40040E-001	1.10155E-001	3.57690E+000	9	...........
	101	1.36	1.05613E-001	-3.98807E-004	0.00000E+000	-4.21193E-005	-2.40040E-001	1.05633E-001	3.57690E+000	9	...........
	102	1.37333	1.01004E-001	-3.97830E-004	0.00000E+000	-4.01823E-005	-2.40040E-001	1.01021E-001	3.57690E+000	9	...........
	103	1.38667	9.64847E-002	-3.99174E-004	0.00000E+000	-3.85142E-005	-2.40040E-001	9.65012E-002	3.57690E+000	9	...........
	104	1.4	9.19374E-002	-3.97973E-004	0.00000E+000	-3.65886E-005	-2.40040E-001	9.19501E-002	3.57690E+000	9	...........
	105	1.41333	8.75261E-002	-3.98846E-004	0.00000E+000	-3.49094E-005	-2.40040E-001	8.75457E-002	3.57690E+000	9	...........
	106	1.42667	8.30354E-002	-3.98318E-004	0.00000E+000	-3.30745E-005	-2.40040E-001	8.30469E-002	3.57690E+000	9	...........
	107	1.44	7.86288E-002	-3.97883E-004	0.00000E+000	-3.12851E-005	-2.40040E-001	7.86402E-002	3.57690E+000	9	...........
	108	1.45333	7.41324E-002	-3.98473E-004	0.00000E+000	-2.95398E-005	-2.40040E-001	7.41374E-002	3.57690E+000	9	...........
	109	1.46667	6.97178E-002	-3.98448E-004	0.00000E+000	-2.77789E-005	-2.40040E-001	6.97243E-002	3.57690E+000	9	...........
	110	1.48	6.53262E-002	-3.99269E-004	0.00000E+000	-2.60827E-005	-2.40040E-001	6.53303E-002	3.57690E+000	9	...........
	111	1.49333	6.10068E-002	-3.99591E-004	0.00000E+000	-2.43778E-005	-2.40040E-001	6.10046E-002	3.57690E+000	9	...........
	112	1.50667	5.67084E-002	-3.99704E-004	0.00000E+000	-2.26666E-005	-2.40040E-001	5.67151E-002	3.57690E+000	9	...........
	113	1.52	5.24397E-002	-3.98699E-004	0.00000E+000	-2.09076E-005	-2.40040E-001	5.24491E-002	3.57690E+000	9	...........
	114	1.53333	4.81389E-002	-3.97318E-004	0.00000E+000	-1.91265E-005	-2.40040E-001	4.81416E-002	3.57690E+000	9	...........
	115	1.54667	4.39267E-002	-3.99247E-004	0.00000E+000	-1.75376E-005	-2.40040E-001	4.39331E-002	3.57690E+000	9	...........
	116	1.56	3.97592E-002	-3.98088E-004	0.00000E+000	-1.58277E-005	-2.40040E-001	3.97680E-002	3.57690E+000	9	...........
	117	1.57333	3.55395E-002	-3.99131E-004	0.00000E+000	-1.41849E-005	-2.40040E-001	3.55456E-002	3.57690E+000	9	...........
	118	1.58667	3.13441E-002	-3.99628E-004	0.00000E+000	-1.25260E-005	-2.40040E-001	3.13462E-002	3.57690E+000	9	...........
	119	1.6	2.71474E-002	-3.98252E-004	0.00000E+000	-1.08115E-005	-2.40040E-001	2.71425E-002	3.57653E+000	9	...........
	120	1.61333	2.29183E-002	-3.98518E-004	0.00000E+000	-9.13336E-006	-2.40040E-001	2.29096E-002	3.57640E+000	9	...........
	121	1.62667	1.87302E-002	-4.00560E-004	0.00000E+000	-7.50258E-006	-2.40040E-001	1.87233E-002	3.57640E+000	9	...........
	122	1.64	1.46094E-002	-3.98697E-004	0.00000E+000	-5.82472E-006	-2.40040E-001	1.46059E-002	3.57640E+000	9	...........
	123	1.65333	1.04182E-002	-3.99686E-004	0.00000E+000	-4.16400E-006	-2.40040E-001	1.04099E-002	3.57640E+000	9	...........
	124	1.66667	6.25655E-003	-3.98364E-004	0.00000E+000	-2.49239E-006	-2.40040E-001	6.24426E-003	3.57640E+000	9	...........
	125	1.68	2.14480E-003	-3.97588E-004	0.00000E+000	-8.52749E-007	-2.40040E-001	2.12940E-003	3.57640E+000	9	...........
	126	1.68167	-1.55806E-004	-3.98440E-004	0.00000E+000	6.20793E-008	-2.40040E-001	-1.60971E-004	3.57640E+000	9	...........
STARTTIMEOFFSET	QUANT	534.015	Start Time Offset (s)
