EXPLAIN
TAG	PWR800_DISCHARGE
TITLE	LABEL	PWR Cyclic Charge Discharge (Cell) - Discharge Step	Test &Identifier
DATE	LABEL	12-7-2017	Date
TIME	LABEL	14:23:16	Time
NOTES	NOTES	3	&Notes...
	supercap test cell
	0.4mg
	6M KOH
PSTAT	PSTAT	IFC5000-01520	Potentiostat
CAPACITY	QUANT	1.00000E-003	Capacity (A-hr)
CELLTYPE	SELECTOR	1	&Cell Type
WORKINGCONNECTION	SELECTOR	0	&Working Lead
MAXDISCHARGETIME	VARIABLEANDUNITS	1.00000E+002	s	1.00000E+002	second(s)	Max &Discharge Time
DISCHARGEMODE	MULTIPARAM	0	4.00000E-004	&Discharge Mode	Constant Current	Amp(s)
SAMPLETIME	QUANT	1.00000E-002	Sa&mple Period (s)
DISCHARGESTOPAT1	MULTIPARAM	3	0.00000E+000	Discharge Stop At &1	Voltage < Limit	V
DISCHARGESTOPAT2	MULTIPARAM	0	0.00000E+000	Discharge Stop At &2	None	N/A
AESBHCSELECTOR	TOGGLE	F	Save Both Half Cells
IRCOMP	TOGGLE	F	IR &Measure
EOC	QUANT	0	Open Circuit (V)
SEQUENCER	TOGGLE	TRUE	Run as Sequence
PSTATMODEL	IQUANT	53	Pstat Model
PSTATSECTION	LABEL	IFC5000-01520	Pstat Section
PSTATSERIALNO	LABEL	01520	Pstat Serial Number
CTRLMODE	IQUANT	0	Control Mode
ELECTROMETER	IQUANT	1	RE=0 or CS=1
IESTAB	IQUANT	0	I/E Stability
CASPEED	IQUANT	4	Control Amp Speed
CONVENTION	IQUANT	1	Current Convention
ICHRANGE	IQUANT	2	Ich Range
ICHRANGEMODE	TOGGLE	T	Ich Auto Range
ICHOFFSETENABLE	TOGGLE	F	Ich Offset Enable
ICHOFFSET	QUANT	0	Ich Offset (V)
ICHFILTER	IQUANT	1	Ich Filter
VCHRANGE	IQUANT	2	Vch Range
VCHRANGEMODE	TOGGLE	T	Vch Auto Range
VCHOFFSETENABLE	TOGGLE	F	Vch Offset Enable
VCHOFFSET	QUANT	0	Vch Offset (V)
VCHFILTER	IQUANT	1	Vch Filter
IERANGELOWERLIMIT	IQUANT	9	I/E Range Lower Limit
IERANGEMODE	TOGGLE	F	I/E AutoRange
IERANGE	IQUANT	9	I/E Range
ACHSELECT	IQUANT	1	Ach Select
ACHRANGE	IQUANT	2	Ach Range
ACHOFFSETENABLE	TOGGLE	F	Ach Offset Enable
ACHOFFSET	QUANT	0	Ach Offset (V)
ACHFILTER	IQUANT	1	Ach Filter
CABLEID	IQUANT	14	Cable ID
DCCALDATE	LABEL	5-7-2017	DC Calibration Date
ACCALDATE	LABEL	12/3/2015	AC Calibration Date
FRAMEWORKVERSION	QUANT	7.01	Framework Version
INSTRUMENTVERSION	LABEL	4.00	Instrument Version
CURVE	TABLE	134
	Pt	T	Vf	Im	Vu	Pwr	Sig	Ach	Temp	IERange	Over
	#	s	V	A	V	W	V	V	deg C	#	bits
	0	0.013333	7.21678E-001	-4.00471E-004	0.00000E+000	-2.89011E-004	-2.40040E-001	7.21871E-001	3.57570E+000	9	...........
	1	0.026667	7.10959E-001	-3.97549E-004	0.00000E+000	-2.82641E-004	-2.40040E-001	7.11174E-001	3.57570E+000	9	...........
	2	0.04	7.01443E-001	-3.98235E-004	0.00000E+000	-2.79339E-004	-2.40040E-001	7.01648E-001	3.57570E+000	9	...........
	3	0.053333	6.92625E-001	-3.97781E-004	0.00000E+000	-2.75513E-004	-2.40040E-001	6.92853E-001	3.57570E+000	9	...........
	4	0.066667	6.84311E-001	-3.98371E-004	0.00000E+000	-2.72609E-004	-2.40040E-001	6.84494E-001	3.57570E+000	9	...........
	5	0.08	6.76283E-001	-3.98245E-004	0.00000E+000	-2.69326E-004	-2.40040E-001	6.76458E-001	3.57570E+000	9	...........
	6	0.093333	6.68473E-001	-3.99876E-004	0.00000E+000	-2.67307E-004	-2.40040E-001	6.68638E-001	3.57570E+000	9	...........
	7	0.106667	6.60897E-001	-3.97890E-004	0.00000E+000	-2.62965E-004	-2.40040E-001	6.61089E-001	3.57570E+000	9	...........
	8	0.12	6.53532E-001	-3.98090E-004	0.00000E+000	-2.60165E-004	-2.40040E-001	6.53719E-001	3.57570E+000	9	...........
	9	0.133333	6.46262E-001	-3.98840E-004	0.00000E+000	-2.57755E-004	-2.40040E-001	6.46443E-001	3.57570E+000	9	...........
	10	0.146667	6.39026E-001	-3.97404E-004	0.00000E+000	-2.53952E-004	-2.40040E-001	6.39251E-001	3.57570E+000	9	...........
	11	0.16	6.31896E-001	-3.98680E-004	0.00000E+000	-2.51924E-004	-2.40040E-001	6.32106E-001	3.57570E+000	9	...........
	12	0.173333	6.24861E-001	-3.98307E-004	0.00000E+000	-2.48887E-004	-2.40040E-001	6.25057E-001	3.57570E+000	9	...........
	13	0.186667	6.17964E-001	-3.99120E-004	0.00000E+000	-2.46642E-004	-2.40040E-001	6.18178E-001	3.57570E+000	9	...........
	14	0.2	6.11065E-001	-4.00151E-004	0.00000E+000	-2.44518E-004	-2.40040E-001	6.11347E-001	3.57570E+000	9	...........
	15	0.213333	6.04297E-001	-3.97969E-004	0.00000E+000	-2.40491E-004	-2.40040E-001	6.04531E-001	3.57570E+000	9	...........
	16	0.226667	5.97615E-001	-3.98357E-004	0.00000E+000	-2.38064E-004	-2.40040E-001	5.97836E-001	3.57570E+000	9	...........
	17	0.24	5.91010E-001	-3.97608E-004	0.00000E+000	-2.34990E-004	-2.40040E-001	5.91225E-001	3.57570E+000	9	...........
	18	0.253333	5.84361E-001	-3.98151E-004	0.00000E+000	-2.32664E-004	-2.40040E-001	5.84586E-001	3.57570E+000	9	...........
	19	0.266667	5.77780E-001	-3.98056E-004	0.00000E+000	-2.29989E-004	-2.40040E-001	5.78002E-001	3.57570E+000	9	...........
	20	0.28	5.71236E-001	-3.98656E-004	0.00000E+000	-2.27727E-004	-2.40040E-001	5.71443E-001	3.57570E+000	9	...........
	21	0.293333	5.64751E-001	-3.98758E-004	0.00000E+000	-2.25199E-004	-2.40040E-001	5.64962E-001	3.57570E+000	9	...........
	22	0.306667	5.58185E-001	-3.99024E-004	0.00000E+000	-2.22729E-004	-2.40040E-001	5.58419E-001	3.57570E+000	9	...........
	23	0.32	5.51693E-001	-3.97908E-004	0.00000E+000	-2.19523E-004	-2.40040E-001	5.51919E-001	3.57570E+000	9	...........
	24	0.333333	5.45310E-001	-3.99455E-004	0.00000E+000	-2.17827E-004	-2.40040E-001	5.45515E-001	3.57570E+000	9	...........
	25	0.346667	5.38919E-001	-3.99059E-004	0.00000E+000	-2.15061E-004	-2.40040E-001	5.39111E-001	3.57570E+000	9	...........
	26	0.36	5.32517E-001	-3.98890E-004	0.00000E+000	-2.12415E-004	-2.40040E-001	5.32711E-001	3.57570E+000	9	...........
	27	0.373333	5.26186E-001	-3.99073E-004	0.00000E+000	-2.09987E-004	-2.40040E-001	5.26387E-001	3.57570E+000	9	...........
	28	0.386667	5.19945E-001	-3.98458E-004	0.00000E+000	-2.07176E-004	-2.40040E-001	5.20114E-001	3.57570E+000	9	...........
	29	0.4	5.13766E-001	-3.99678E-004	0.00000E+000	-2.05341E-004	-2.40040E-001	5.13952E-001	3.57570E+000	9	...........
	30	0.413333	5.07471E-001	-4.00030E-004	0.00000E+000	-2.03004E-004	-2.40040E-001	5.07690E-001	3.57570E+000	9	...........
	31	0.426667	5.01280E-001	-3.99841E-004	0.00000E+000	-2.00432E-004	-2.40040E-001	5.01454E-001	3.57570E+000	9	...........
	32	0.44	4.95129E-001	-3.97836E-004	0.00000E+000	-1.96980E-004	-2.40040E-001	4.95318E-001	3.57570E+000	9	...........
	33	0.453333	4.89055E-001	-3.98602E-004	0.00000E+000	-1.94938E-004	-2.40040E-001	4.89228E-001	3.57570E+000	9	...........
	34	0.466667	4.83159E-001	-3.99932E-004	0.00000E+000	-1.93231E-004	-2.40040E-001	4.83278E-001	3.57570E+000	9	...........
	35	0.48	4.77202E-001	-3.98547E-004	0.00000E+000	-1.90187E-004	-2.40040E-001	4.77298E-001	3.57570E+000	9	...........
	36	0.493333	4.71187E-001	-3.98657E-004	0.00000E+000	-1.87842E-004	-2.40040E-001	4.71281E-001	3.57570E+000	9	...........
	37	0.506667	4.65253E-001	-3.98195E-004	0.00000E+000	-1.85261E-004	-2.40040E-001	4.65344E-001	3.57570E+000	9	...........
	38	0.52	4.59277E-001	-3.99350E-004	0.00000E+000	-1.83412E-004	-2.40040E-001	4.59374E-001	3.57570E+000	9	...........
	39	0.533333	4.53270E-001	-3.98021E-004	0.00000E+000	-1.80411E-004	-2.40040E-001	4.53363E-001	3.57570E+000	9	...........
	40	0.546667	4.47346E-001	-3.99456E-004	0.00000E+000	-1.78695E-004	-2.40040E-001	4.47436E-001	3.57570E+000	9	...........
	41	0.56	4.41453E-001	-3.98389E-004	0.00000E+000	-1.75870E-004	-2.40040E-001	4.41537E-001	3.57570E+000	9	...........
	42	0.573333	4.35621E-001	-3.98152E-004	0.00000E+000	-1.73443E-004	-2.40040E-001	4.35713E-001	3.57570E+000	9	...........
	43	0.586667	4.29732E-001	-3.98771E-004	0.00000E+000	-1.71364E-004	-2.40040E-001	4.29818E-001	3.57570E+000	9	...........
	44	0.6	4.23946E-001	-3.99595E-004	0.00000E+000	-1.69407E-004	-2.40040E-001	4.24034E-001	3.57658E+000	9	...........
	45	0.613333	4.18185E-001	-3.98226E-004	0.00000E+000	-1.66532E-004	-2.40040E-001	4.18270E-001	3.57670E+000	9	...........
	46	0.626667	4.12437E-001	-3.98698E-004	0.00000E+000	-1.64438E-004	-2.40040E-001	4.12512E-001	3.57670E+000	9	...........
	47	0.64	4.06718E-001	-3.98474E-004	0.00000E+000	-1.62066E-004	-2.40040E-001	4.06796E-001	3.57670E+000	9	...........
	48	0.653333	4.01021E-001	-3.98623E-004	0.00000E+000	-1.59856E-004	-2.40040E-001	4.01102E-001	3.57670E+000	9	...........
	49	0.666667	3.95361E-001	-3.99024E-004	0.00000E+000	-1.57759E-004	-2.40040E-001	3.95435E-001	3.57670E+000	9	...........
	50	0.68	3.89667E-001	-3.97667E-004	0.00000E+000	-1.54958E-004	-2.40040E-001	3.89743E-001	3.57670E+000	9	...........
	51	0.693333	3.84035E-001	-3.99020E-004	0.00000E+000	-1.53238E-004	-2.40040E-001	3.84105E-001	3.57670E+000	9	...........
	52	0.706667	3.78399E-001	-3.99060E-004	0.00000E+000	-1.51004E-004	-2.40040E-001	3.78475E-001	3.57670E+000	9	...........
	53	0.72	3.72805E-001	-3.97863E-004	0.00000E+000	-1.48325E-004	-2.40040E-001	3.72875E-001	3.57670E+000	9	...........
	54	0.733333	3.67271E-001	-3.98540E-004	0.00000E+000	-1.46372E-004	-2.40040E-001	3.67348E-001	3.57670E+000	9	...........
	55	0.746667	3.61872E-001	-3.98915E-004	0.00000E+000	-1.44356E-004	-2.40040E-001	3.61942E-001	3.57670E+000	9	...........
	56	0.76	3.56358E-001	-3.98805E-004	0.00000E+000	-1.42117E-004	-2.40040E-001	3.56422E-001	3.57670E+000	9	...........
	57	0.773333	3.50911E-001	-3.98271E-004	0.00000E+000	-1.39757E-004	-2.40040E-001	3.50971E-001	3.57670E+000	9	...........
	58	0.786667	3.45483E-001	-3.98437E-004	0.00000E+000	-1.37653E-004	-2.40040E-001	3.45552E-001	3.57670E+000	9	...........
	59	0.8	3.40019E-001	-3.97941E-004	0.00000E+000	-1.35308E-004	-2.40040E-001	3.40084E-001	3.57670E+000	9	...........
	60	0.813333	3.34700E-001	-3.98729E-004	0.00000E+000	-1.33455E-004	-2.40040E-001	3.34762E-001	3.57670E+000	9	...........
	61	0.826667	3.29444E-001	-3.98177E-004	0.00000E+000	-1.31177E-004	-2.40040E-001	3.29507E-001	3.57670E+000	9	...........
	62	0.84	3.24163E-001	-3.99067E-004	0.00000E+000	-1.29363E-004	-2.40040E-001	3.24228E-001	3.57670E+000	9	...........
	63	0.853333	3.18750E-001	-4.00323E-004	0.00000E+000	-1.27603E-004	-2.40040E-001	3.18810E-001	3.57670E+000	9	...........
	64	0.866667	3.13456E-001	-3.97361E-004	0.00000E+000	-1.24555E-004	-2.40040E-001	3.13518E-001	3.57670E+000	9	...........
	65	0.88	3.08209E-001	-3.98775E-004	0.00000E+000	-1.22906E-004	-2.40040E-001	3.08272E-001	3.57670E+000	9	...........
	66	0.893333	3.03033E-001	-3.97834E-004	0.00000E+000	-1.20557E-004	-2.40040E-001	3.03093E-001	3.57670E+000	9	...........
	67	0.906667	2.97797E-001	-3.98313E-004	0.00000E+000	-1.18617E-004	-2.40040E-001	2.97860E-001	3.57670E+000	9	...........
	68	0.92	2.92638E-001	-3.98694E-004	0.00000E+000	-1.16673E-004	-2.40040E-001	2.92690E-001	3.57670E+000	9	...........
	69	0.933333	2.87513E-001	-3.97855E-004	0.00000E+000	-1.14389E-004	-2.40040E-001	2.87569E-001	3.57670E+000	9	...........
	70	0.946667	2.82336E-001	-3.99008E-004	0.00000E+000	-1.12655E-004	-2.40040E-001	2.82391E-001	3.57670E+000	9	...........
	71	0.96	2.77282E-001	-3.99192E-004	0.00000E+000	-1.10689E-004	-2.40040E-001	2.77338E-001	3.57670E+000	9	...........
	72	0.97333	2.72235E-001	-3.98001E-004	0.00000E+000	-1.08350E-004	-2.40040E-001	2.72294E-001	3.57670E+000	9	...........
	73	0.98667	2.67178E-001	-3.98665E-004	0.00000E+000	-1.06514E-004	-2.40040E-001	2.67236E-001	3.57670E+000	9	...........
	74	1	2.62098E-001	-3.99170E-004	0.00000E+000	-1.04621E-004	-2.40040E-001	2.62152E-001	3.57670E+000	9	...........
	75	1.01333	2.57091E-001	-3.98864E-004	0.00000E+000	-1.02544E-004	-2.40040E-001	2.57141E-001	3.57670E+000	9	...........
	76	1.02667	2.52061E-001	-3.98718E-004	0.00000E+000	-1.00501E-004	-2.40040E-001	2.52112E-001	3.57670E+000	9	...........
	77	1.04	2.47095E-001	-4.00811E-004	0.00000E+000	-9.90385E-005	-2.40040E-001	2.47144E-001	3.57670E+000	9	...........
	78	1.05333	2.42187E-001	-3.97975E-004	0.00000E+000	-9.63842E-005	-2.40040E-001	2.42226E-001	3.57670E+000	9	...........
	79	1.06667	2.37263E-001	-3.98323E-004	0.00000E+000	-9.45073E-005	-2.40040E-001	2.37304E-001	3.57670E+000	9	...........
	80	1.08	2.32367E-001	-3.98859E-004	0.00000E+000	-9.26816E-005	-2.40040E-001	2.32411E-001	3.57670E+000	9	...........
	81	1.09333	2.27440E-001	-3.98335E-004	0.00000E+000	-9.05974E-005	-2.40040E-001	2.27478E-001	3.57670E+000	9	...........
	82	1.10667	2.22553E-001	-3.97137E-004	0.00000E+000	-8.83842E-005	-2.40040E-001	2.22593E-001	3.57670E+000	9	...........
	83	1.12	2.17763E-001	-3.98899E-004	0.00000E+000	-8.68655E-005	-2.40040E-001	2.17799E-001	3.57670E+000	9	...........
	84	1.13333	2.12946E-001	-3.98873E-004	0.00000E+000	-8.49384E-005	-2.40040E-001	2.12980E-001	3.57670E+000	9	...........
	85	1.14667	2.08224E-001	-3.98727E-004	0.00000E+000	-8.30246E-005	-2.40040E-001	2.08267E-001	3.57670E+000	9	...........
	86	1.16	2.03391E-001	-3.99180E-004	0.00000E+000	-8.11895E-005	-2.40040E-001	2.03428E-001	3.57670E+000	9	...........
	87	1.17333	1.98649E-001	-3.97884E-004	0.00000E+000	-7.90394E-005	-2.40040E-001	1.98685E-001	3.57670E+000	9	...........
	88	1.18667	1.93885E-001	-3.97827E-004	0.00000E+000	-7.71325E-005	-2.40040E-001	1.93919E-001	3.57670E+000	9	...........
	89	1.2	1.89124E-001	-3.97431E-004	0.00000E+000	-7.51636E-005	-2.40040E-001	1.89165E-001	3.57670E+000	9	...........
	90	1.21333	1.84414E-001	-3.98456E-004	0.00000E+000	-7.34807E-005	-2.40040E-001	1.84445E-001	3.57670E+000	9	...........
	91	1.22667	1.79762E-001	-3.99747E-004	0.00000E+000	-7.18592E-005	-2.40040E-001	1.79797E-001	3.57670E+000	9	...........
	92	1.24	1.75073E-001	-3.98756E-004	0.00000E+000	-6.98113E-005	-2.40040E-001	1.75105E-001	3.57670E+000	9	...........
	93	1.25333	1.70487E-001	-3.98429E-004	0.00000E+000	-6.79271E-005	-2.40040E-001	1.70518E-001	3.57670E+000	9	...........
	94	1.26667	1.65895E-001	-3.98645E-004	0.00000E+000	-6.61333E-005	-2.40040E-001	1.65925E-001	3.57670E+000	9	...........
	95	1.28	1.61309E-001	-3.99872E-004	0.00000E+000	-6.45030E-005	-2.40040E-001	1.61341E-001	3.57670E+000	9	...........
	96	1.29333	1.56747E-001	-3.99870E-004	0.00000E+000	-6.26786E-005	-2.40040E-001	1.56776E-001	3.57670E+000	9	...........
	97	1.30667	1.52200E-001	-3.99449E-004	0.00000E+000	-6.07961E-005	-2.40040E-001	1.52229E-001	3.57670E+000	9	...........
	98	1.32	1.47646E-001	-3.98956E-004	0.00000E+000	-5.89045E-005	-2.40040E-001	1.47673E-001	3.57670E+000	9	...........
	99	1.33333	1.43181E-001	-3.98869E-004	0.00000E+000	-5.71105E-005	-2.40040E-001	1.43208E-001	3.57670E+000	9	...........
	100	1.34667	1.38679E-001	-3.98443E-004	0.00000E+000	-5.52556E-005	-2.40040E-001	1.38699E-001	3.57670E+000	9	...........
	101	1.36	1.34130E-001	-3.99742E-004	0.00000E+000	-5.36173E-005	-2.40040E-001	1.34156E-001	3.57670E+000	9	...........
	102	1.37333	1.29643E-001	-3.99794E-004	0.00000E+000	-5.18305E-005	-2.40040E-001	1.29660E-001	3.57670E+000	9	...........
	103	1.38667	1.25163E-001	-3.98661E-004	0.00000E+000	-4.98978E-005	-2.40040E-001	1.25185E-001	3.57670E+000	9	...........
	104	1.4	1.20764E-001	-3.98319E-004	0.00000E+000	-4.81027E-005	-2.40040E-001	1.20793E-001	3.57670E+000	9	...........
	105	1.41333	1.16343E-001	-3.99232E-004	0.00000E+000	-4.64479E-005	-2.40040E-001	1.16368E-001	3.57670E+000	9	...........
	106	1.42667	1.11943E-001	-3.99030E-004	0.00000E+000	-4.46686E-005	-2.40040E-001	1.11966E-001	3.57670E+000	9	...........
	107	1.44	1.07577E-001	-3.98704E-004	0.00000E+000	-4.28915E-005	-2.40040E-001	1.07600E-001	3.57670E+000	9	...........
	108	1.45333	1.03225E-001	-3.98277E-004	0.00000E+000	-4.11123E-005	-2.40040E-001	1.03242E-001	3.57670E+000	9	...........
	109	1.46667	9.89149E-002	-3.99252E-004	0.00000E+000	-3.94920E-005	-2.40040E-001	9.89292E-002	3.57670E+000	9	...........
	110	1.48	9.46137E-002	-3.97928E-004	0.00000E+000	-3.76494E-005	-2.40040E-001	9.46340E-002	3.57670E+000	9	...........
	111	1.49333	9.02780E-002	-3.98998E-004	0.00000E+000	-3.60208E-005	-2.40040E-001	9.02973E-002	3.57670E+000	9	...........
	112	1.50667	8.59558E-002	-3.97971E-004	0.00000E+000	-3.42079E-005	-2.40040E-001	8.59737E-002	3.57670E+000	9	...........
	113	1.52	8.16581E-002	-3.99626E-004	0.00000E+000	-3.26327E-005	-2.40040E-001	8.16719E-002	3.57670E+000	9	...........
	114	1.53333	7.74506E-002	-3.98553E-004	0.00000E+000	-3.08682E-005	-2.40040E-001	7.74547E-002	3.57670E+000	9	...........
	115	1.54667	7.31840E-002	-3.98199E-004	0.00000E+000	-2.91418E-005	-2.40040E-001	7.31934E-002	3.57670E+000	9	...........
	116	1.56	6.90318E-002	-3.98389E-004	0.00000E+000	-2.75016E-005	-2.40040E-001	6.90375E-002	3.57670E+000	9	...........
	117	1.57333	6.48111E-002	-3.98348E-004	0.00000E+000	-2.58174E-005	-2.40040E-001	6.48225E-002	3.57670E+000	9	...........
	118	1.58667	6.05913E-002	-3.98714E-004	0.00000E+000	-2.41586E-005	-2.40040E-001	6.06029E-002	3.57670E+000	9	...........
	119	1.6	5.64347E-002	-3.98003E-004	0.00000E+000	-2.24612E-005	-2.40040E-001	5.64379E-002	3.57731E+000	9	...........
	120	1.61333	5.23739E-002	-3.97577E-004	0.00000E+000	-2.08226E-005	-2.40040E-001	5.23837E-002	3.57740E+000	9	...........
	121	1.62667	4.83361E-002	-3.99845E-004	0.00000E+000	-1.93269E-005	-2.40040E-001	4.83339E-002	3.57740E+000	9	...........
	122	1.64	4.41159E-002	-3.99512E-004	0.00000E+000	-1.76248E-005	-2.40040E-001	4.41263E-002	3.57740E+000	9	...........
	123	1.65333	3.99619E-002	-3.98511E-004	0.00000E+000	-1.59253E-005	-2.40040E-001	3.99692E-002	3.57740E+000	9	...........
	124	1.66667	3.58434E-002	-3.99251E-004	0.00000E+000	-1.43105E-005	-2.40040E-001	3.58483E-002	3.57740E+000	9	...........
	125	1.68	3.17241E-002	-3.98210E-004	0.00000E+000	-1.26329E-005	-2.40040E-001	3.17236E-002	3.57740E+000	9	...........
	126	1.69333	2.76824E-002	-3.97585E-004	0.00000E+000	-1.10061E-005	-2.40040E-001	2.76780E-002	3.57740E+000	9	...........
	127	1.70667	2.36836E-002	-3.98687E-004	0.00000E+000	-9.44234E-006	-2.40040E-001	2.36841E-002	3.57740E+000	9	...........
	128	1.72	1.96895E-002	-3.98061E-004	0.00000E+000	-7.83761E-006	-2.40040E-001	1.96804E-002	3.57740E+000	9	...........
	129	1.73333	1.56651E-002	-3.98199E-004	0.00000E+000	-6.23784E-006	-2.40040E-001	1.56576E-002	3.57740E+000	9	...........
	130	1.74667	1.17004E-002	-3.99221E-004	0.00000E+000	-4.67104E-006	-2.40040E-001	1.16889E-002	3.57740E+000	9	...........
	131	1.76	7.77483E-003	-3.99328E-004	0.00000E+000	-3.10471E-006	-2.40040E-001	7.76028E-003	3.57740E+000	9	...........
	132	1.77333	3.91465E-003	-3.98329E-004	0.00000E+000	-1.55932E-006	-2.40040E-001	3.89565E-003	3.57740E+000	9	...........
	133	1.78167	7.29670E-004	-3.98373E-004	0.00000E+000	-2.90681E-007	-2.40040E-001	7.09964E-004	3.57740E+000	9	...........
STARTTIMEOFFSET	QUANT	223.4033	Start Time Offset (s)
