EXPLAIN
TAG	PWR800_DISCHARGE
TITLE	LABEL	PWR Cyclic Charge Discharge (Cell) - Discharge Step	Test &Identifier
DATE	LABEL	12-7-2017	Date
TIME	LABEL	14:48:36	Time
NOTES	NOTES	3	&Notes...
	supercap test cell
	0.4mg
	6M KOH
PSTAT	PSTAT	IFC5000-01520	Potentiostat
CAPACITY	QUANT	1.00000E-003	Capacity (A-hr)
CELLTYPE	SELECTOR	1	&Cell Type
WORKINGCONNECTION	SELECTOR	0	&Working Lead
MAXDISCHARGETIME	VARIABLEANDUNITS	1.00000E+002	s	1.00000E+002	second(s)	Max &Discharge Time
DISCHARGEMODE	MULTIPARAM	0	4.00000E-004	&Discharge Mode	Constant Current	Amp(s)
SAMPLETIME	QUANT	1.00000E-002	Sa&mple Period (s)
DISCHARGESTOPAT1	MULTIPARAM	3	0.00000E+000	Discharge Stop At &1	Voltage < Limit	V
DISCHARGESTOPAT2	MULTIPARAM	0	0.00000E+000	Discharge Stop At &2	None	N/A
AESBHCSELECTOR	TOGGLE	F	Save Both Half Cells
IRCOMP	TOGGLE	F	IR &Measure
EOC	QUANT	0	Open Circuit (V)
SEQUENCER	TOGGLE	TRUE	Run as Sequence
PSTATMODEL	IQUANT	53	Pstat Model
PSTATSECTION	LABEL	IFC5000-01520	Pstat Section
PSTATSERIALNO	LABEL	01520	Pstat Serial Number
CTRLMODE	IQUANT	0	Control Mode
ELECTROMETER	IQUANT	1	RE=0 or CS=1
IESTAB	IQUANT	0	I/E Stability
CASPEED	IQUANT	4	Control Amp Speed
CONVENTION	IQUANT	1	Current Convention
ICHRANGE	IQUANT	2	Ich Range
ICHRANGEMODE	TOGGLE	T	Ich Auto Range
ICHOFFSETENABLE	TOGGLE	F	Ich Offset Enable
ICHOFFSET	QUANT	0	Ich Offset (V)
ICHFILTER	IQUANT	1	Ich Filter
VCHRANGE	IQUANT	2	Vch Range
VCHRANGEMODE	TOGGLE	T	Vch Auto Range
VCHOFFSETENABLE	TOGGLE	F	Vch Offset Enable
VCHOFFSET	QUANT	0	Vch Offset (V)
VCHFILTER	IQUANT	1	Vch Filter
IERANGELOWERLIMIT	IQUANT	9	I/E Range Lower Limit
IERANGEMODE	TOGGLE	F	I/E AutoRange
IERANGE	IQUANT	9	I/E Range
ACHSELECT	IQUANT	1	Ach Select
ACHRANGE	IQUANT	2	Ach Range
ACHOFFSETENABLE	TOGGLE	F	Ach Offset Enable
ACHOFFSET	QUANT	0	Ach Offset (V)
ACHFILTER	IQUANT	1	Ach Filter
CABLEID	IQUANT	14	Cable ID
DCCALDATE	LABEL	5-7-2017	DC Calibration Date
ACCALDATE	LABEL	12/3/2015	AC Calibration Date
FRAMEWORKVERSION	QUANT	7.01	Framework Version
INSTRUMENTVERSION	LABEL	4.00	Instrument Version
CURVE	TABLE	114
	Pt	T	Vf	Im	Vu	Pwr	Sig	Ach	Temp	IERange	Over
	#	s	V	A	V	W	V	V	deg C	#	bits
	0	0.013333	7.01118E-001	-3.98689E-004	0.00000E+000	-2.79528E-004	-2.40040E-001	7.01359E-001	3.57620E+000	9	...........
	1	0.026667	6.88935E-001	-3.99903E-004	0.00000E+000	-2.75507E-004	-2.40040E-001	6.89177E-001	3.57620E+000	9	...........
	2	0.04	6.78138E-001	-3.98499E-004	0.00000E+000	-2.70237E-004	-2.40040E-001	6.78360E-001	3.57620E+000	9	...........
	3	0.053333	6.68187E-001	-3.98225E-004	0.00000E+000	-2.66089E-004	-2.40040E-001	6.68418E-001	3.57620E+000	9	...........
	4	0.066667	6.58807E-001	-3.98885E-004	0.00000E+000	-2.62789E-004	-2.40040E-001	6.59024E-001	3.57620E+000	9	...........
	5	0.08	6.49830E-001	-3.97144E-004	0.00000E+000	-2.58076E-004	-2.40040E-001	6.50052E-001	3.57620E+000	9	...........
	6	0.093333	6.41113E-001	-3.99050E-004	0.00000E+000	-2.55836E-004	-2.40040E-001	6.41346E-001	3.57620E+000	9	...........
	7	0.106667	6.32655E-001	-3.99865E-004	0.00000E+000	-2.52977E-004	-2.40040E-001	6.32902E-001	3.57620E+000	9	...........
	8	0.12	6.24287E-001	-3.99346E-004	0.00000E+000	-2.49307E-004	-2.40040E-001	6.24489E-001	3.57620E+000	9	...........
	9	0.133333	6.16090E-001	-3.99165E-004	0.00000E+000	-2.45922E-004	-2.40040E-001	6.16322E-001	3.57620E+000	9	...........
	10	0.146667	6.07992E-001	-3.98586E-004	0.00000E+000	-2.42338E-004	-2.40040E-001	6.08238E-001	3.57620E+000	9	...........
	11	0.16	6.00053E-001	-3.99384E-004	0.00000E+000	-2.39652E-004	-2.40040E-001	6.00265E-001	3.57620E+000	9	...........
	12	0.173333	5.92245E-001	-3.99864E-004	0.00000E+000	-2.36817E-004	-2.40040E-001	5.92417E-001	3.57620E+000	9	...........
	13	0.186667	5.84419E-001	-3.99290E-004	0.00000E+000	-2.33352E-004	-2.40040E-001	5.84630E-001	3.57620E+000	9	...........
	14	0.2	5.76690E-001	-3.98519E-004	0.00000E+000	-2.29822E-004	-2.40040E-001	5.76883E-001	3.57620E+000	9	...........
	15	0.213333	5.69121E-001	-3.99740E-004	0.00000E+000	-2.27500E-004	-2.40040E-001	5.69290E-001	3.57620E+000	9	...........
	16	0.226667	5.61426E-001	-3.99146E-004	0.00000E+000	-2.24091E-004	-2.40040E-001	5.61632E-001	3.57620E+000	9	...........
	17	0.24	5.53889E-001	-3.99050E-004	0.00000E+000	-2.21029E-004	-2.40040E-001	5.54104E-001	3.57620E+000	9	...........
	18	0.253333	5.46375E-001	-3.98375E-004	0.00000E+000	-2.17662E-004	-2.40040E-001	5.46560E-001	3.57620E+000	9	...........
	19	0.266667	5.38969E-001	-3.98226E-004	0.00000E+000	-2.14632E-004	-2.40040E-001	5.39149E-001	3.57620E+000	9	...........
	20	0.28	5.31549E-001	-3.98151E-004	0.00000E+000	-2.11637E-004	-2.40040E-001	5.31740E-001	3.57620E+000	9	...........
	21	0.293333	5.24210E-001	-3.99372E-004	0.00000E+000	-2.09355E-004	-2.40040E-001	5.24380E-001	3.57620E+000	9	...........
	22	0.306667	5.16980E-001	-3.99101E-004	0.00000E+000	-2.06327E-004	-2.40040E-001	5.17131E-001	3.57620E+000	9	...........
	23	0.32	5.09680E-001	-3.99480E-004	0.00000E+000	-2.03607E-004	-2.40040E-001	5.09869E-001	3.57620E+000	9	...........
	24	0.333333	5.02396E-001	-3.99095E-004	0.00000E+000	-2.00504E-004	-2.40040E-001	5.02595E-001	3.57620E+000	9	...........
	25	0.346667	4.95207E-001	-3.99395E-004	0.00000E+000	-1.97783E-004	-2.40040E-001	4.95394E-001	3.57620E+000	9	...........
	26	0.36	4.87998E-001	-4.00058E-004	0.00000E+000	-1.95227E-004	-2.40040E-001	4.88209E-001	3.57620E+000	9	...........
	27	0.373333	4.81179E-001	-3.99120E-004	0.00000E+000	-1.92048E-004	-2.40040E-001	4.81283E-001	3.57620E+000	9	...........
	28	0.386667	4.74199E-001	-3.99069E-004	0.00000E+000	-1.89238E-004	-2.40040E-001	4.74306E-001	3.57620E+000	9	...........
	29	0.4	4.67171E-001	-3.98700E-004	0.00000E+000	-1.86261E-004	-2.40040E-001	4.67264E-001	3.57620E+000	9	...........
	30	0.413333	4.60193E-001	-3.98046E-004	0.00000E+000	-1.83178E-004	-2.40040E-001	4.60289E-001	3.57620E+000	9	...........
	31	0.426667	4.53245E-001	-3.99741E-004	0.00000E+000	-1.81180E-004	-2.40040E-001	4.53339E-001	3.57620E+000	9	...........
	32	0.44	4.46369E-001	-3.99273E-004	0.00000E+000	-1.78223E-004	-2.40040E-001	4.46464E-001	3.57620E+000	9	...........
	33	0.453333	4.39467E-001	-3.98400E-004	0.00000E+000	-1.75083E-004	-2.40040E-001	4.39558E-001	3.57620E+000	9	...........
	34	0.466667	4.32591E-001	-3.98958E-004	0.00000E+000	-1.72586E-004	-2.40040E-001	4.32675E-001	3.57620E+000	9	...........
	35	0.48	4.25707E-001	-3.98861E-004	0.00000E+000	-1.69798E-004	-2.40040E-001	4.25795E-001	3.57620E+000	9	...........
	36	0.493333	4.18973E-001	-3.99327E-004	0.00000E+000	-1.67307E-004	-2.40040E-001	4.19060E-001	3.57620E+000	9	...........
	37	0.506667	4.12274E-001	-3.98687E-004	0.00000E+000	-1.64368E-004	-2.40040E-001	4.12356E-001	3.57620E+000	9	...........
	38	0.52	4.05537E-001	-3.98852E-004	0.00000E+000	-1.61749E-004	-2.40040E-001	4.05617E-001	3.57620E+000	9	...........
	39	0.533333	3.98879E-001	-3.99685E-004	0.00000E+000	-1.59426E-004	-2.40040E-001	3.98955E-001	3.57620E+000	9	...........
	40	0.546667	3.92153E-001	-3.98937E-004	0.00000E+000	-1.56445E-004	-2.40040E-001	3.92231E-001	3.57620E+000	9	...........
	41	0.56	3.85555E-001	-3.98383E-004	0.00000E+000	-1.53599E-004	-2.40040E-001	3.85632E-001	3.57620E+000	9	...........
	42	0.573333	3.79006E-001	-3.98741E-004	0.00000E+000	-1.51125E-004	-2.40040E-001	3.79081E-001	3.57620E+000	9	...........
	43	0.586667	3.72553E-001	-3.98417E-004	0.00000E+000	-1.48431E-004	-2.40040E-001	3.72626E-001	3.57620E+000	9	...........
	44	0.6	3.66098E-001	-3.98709E-004	0.00000E+000	-1.45967E-004	-2.40040E-001	3.66176E-001	3.57700E+000	9	...........
	45	0.613333	3.59649E-001	-3.98052E-004	0.00000E+000	-1.43159E-004	-2.40040E-001	3.59727E-001	3.57720E+000	9	...........
	46	0.626667	3.53282E-001	-3.98506E-004	0.00000E+000	-1.40785E-004	-2.40040E-001	3.53349E-001	3.57720E+000	9	...........
	47	0.64	3.46849E-001	-3.99007E-004	0.00000E+000	-1.38395E-004	-2.40040E-001	3.46917E-001	3.57720E+000	9	...........
	48	0.653333	3.40568E-001	-3.98802E-004	0.00000E+000	-1.35819E-004	-2.40040E-001	3.40632E-001	3.57720E+000	9	...........
	49	0.666667	3.34279E-001	-3.98601E-004	0.00000E+000	-1.33244E-004	-2.40040E-001	3.34343E-001	3.57720E+000	9	...........
	50	0.68	3.28011E-001	-3.98311E-004	0.00000E+000	-1.30651E-004	-2.40040E-001	3.28070E-001	3.57720E+000	9	...........
	51	0.693333	3.21807E-001	-3.98345E-004	0.00000E+000	-1.28190E-004	-2.40040E-001	3.21865E-001	3.57720E+000	9	...........
	52	0.706667	3.15644E-001	-3.98162E-004	0.00000E+000	-1.25677E-004	-2.40040E-001	3.15703E-001	3.57720E+000	9	...........
	53	0.72	3.09529E-001	-3.97717E-004	0.00000E+000	-1.23105E-004	-2.40040E-001	3.09588E-001	3.57720E+000	9	...........
	54	0.733333	3.03463E-001	-3.98572E-004	0.00000E+000	-1.20952E-004	-2.40040E-001	3.03524E-001	3.57720E+000	9	...........
	55	0.746667	2.97415E-001	-3.99073E-004	0.00000E+000	-1.18690E-004	-2.40040E-001	2.97473E-001	3.57720E+000	9	...........
	56	0.76	2.91485E-001	-3.98704E-004	0.00000E+000	-1.16216E-004	-2.40040E-001	2.91540E-001	3.57720E+000	9	...........
	57	0.773333	2.85514E-001	-3.98249E-004	0.00000E+000	-1.13706E-004	-2.40040E-001	2.85576E-001	3.57720E+000	9	...........
	58	0.786667	2.79585E-001	-3.98476E-004	0.00000E+000	-1.11408E-004	-2.40040E-001	2.79643E-001	3.57720E+000	9	...........
	59	0.8	2.73738E-001	-3.99197E-004	0.00000E+000	-1.09275E-004	-2.40040E-001	2.73791E-001	3.57720E+000	9	...........
	60	0.813333	2.67866E-001	-3.98672E-004	0.00000E+000	-1.06791E-004	-2.40040E-001	2.67918E-001	3.57720E+000	9	...........
	61	0.826667	2.62036E-001	-3.99189E-004	0.00000E+000	-1.04602E-004	-2.40040E-001	2.62091E-001	3.57720E+000	9	...........
	62	0.84	2.56209E-001	-3.99772E-004	0.00000E+000	-1.02425E-004	-2.40040E-001	2.56257E-001	3.57720E+000	9	...........
	63	0.853333	2.50405E-001	-3.99341E-004	0.00000E+000	-9.99969E-005	-2.40040E-001	2.50457E-001	3.57720E+000	9	...........
	64	0.866667	2.44679E-001	-3.99163E-004	0.00000E+000	-9.76665E-005	-2.40040E-001	2.44727E-001	3.57720E+000	9	...........
	65	0.88	2.39003E-001	-3.97609E-004	0.00000E+000	-9.50296E-005	-2.40040E-001	2.39045E-001	3.57720E+000	9	...........
	66	0.893333	2.33336E-001	-3.99629E-004	0.00000E+000	-9.32479E-005	-2.40040E-001	2.33382E-001	3.57720E+000	9	...........
	67	0.906667	2.27722E-001	-3.98871E-004	0.00000E+000	-9.08317E-005	-2.40040E-001	2.27765E-001	3.57720E+000	9	...........
	68	0.92	2.22103E-001	-3.98213E-004	0.00000E+000	-8.84445E-005	-2.40040E-001	2.22144E-001	3.57720E+000	9	...........
	69	0.933333	2.16517E-001	-3.98009E-004	0.00000E+000	-8.61759E-005	-2.40040E-001	2.16558E-001	3.57720E+000	9	...........
	70	0.946667	2.10921E-001	-3.99041E-004	0.00000E+000	-8.41659E-005	-2.40040E-001	2.10957E-001	3.57720E+000	9	...........
	71	0.96	2.05389E-001	-3.98483E-004	0.00000E+000	-8.18442E-005	-2.40040E-001	2.05434E-001	3.57720E+000	9	...........
	72	0.97333	1.99991E-001	-3.99228E-004	0.00000E+000	-7.98419E-005	-2.40040E-001	2.00027E-001	3.57720E+000	9	...........
	73	0.98667	1.94559E-001	-3.98891E-004	0.00000E+000	-7.76078E-005	-2.40040E-001	1.94599E-001	3.57720E+000	9	...........
	74	1	1.89200E-001	-3.99293E-004	0.00000E+000	-7.55462E-005	-2.40040E-001	1.89237E-001	3.57720E+000	9	...........
	75	1.01333	1.83848E-001	-3.99505E-004	0.00000E+000	-7.34482E-005	-2.40040E-001	1.83886E-001	3.57720E+000	9	...........
	76	1.02667	1.78515E-001	-3.99444E-004	0.00000E+000	-7.13068E-005	-2.40040E-001	1.78552E-001	3.57720E+000	9	...........
	77	1.04	1.73259E-001	-3.98423E-004	0.00000E+000	-6.90303E-005	-2.40040E-001	1.73291E-001	3.57720E+000	9	...........
	78	1.05333	1.68013E-001	-3.98270E-004	0.00000E+000	-6.69144E-005	-2.40040E-001	1.68050E-001	3.57720E+000	9	...........
	79	1.06667	1.62777E-001	-3.99001E-004	0.00000E+000	-6.49481E-005	-2.40040E-001	1.62809E-001	3.57720E+000	9	...........
	80	1.08	1.57499E-001	-3.98760E-004	0.00000E+000	-6.28044E-005	-2.40040E-001	1.57525E-001	3.57720E+000	9	...........
	81	1.09333	1.52292E-001	-3.98102E-004	0.00000E+000	-6.06278E-005	-2.40040E-001	1.52324E-001	3.57720E+000	9	...........
	82	1.10667	1.47086E-001	-3.99094E-004	0.00000E+000	-5.87013E-005	-2.40040E-001	1.47107E-001	3.57720E+000	9	...........
	83	1.12	1.41972E-001	-3.99214E-004	0.00000E+000	-5.66773E-005	-2.40040E-001	1.41997E-001	3.57720E+000	9	...........
	84	1.13333	1.36845E-001	-3.98981E-004	0.00000E+000	-5.45988E-005	-2.40040E-001	1.36869E-001	3.57720E+000	9	...........
	85	1.14667	1.31797E-001	-3.98667E-004	0.00000E+000	-5.25431E-005	-2.40040E-001	1.31822E-001	3.57720E+000	9	...........
	86	1.16	1.26702E-001	-3.98673E-004	0.00000E+000	-5.05127E-005	-2.40040E-001	1.26730E-001	3.57720E+000	9	...........
	87	1.17333	1.21738E-001	-3.97853E-004	0.00000E+000	-4.84338E-005	-2.40040E-001	1.21763E-001	3.57720E+000	9	...........
	88	1.18667	1.16741E-001	-3.98946E-004	0.00000E+000	-4.65733E-005	-2.40040E-001	1.16761E-001	3.57720E+000	9	...........
	89	1.2	1.11828E-001	-3.97400E-004	0.00000E+000	-4.44403E-005	-2.40040E-001	1.11850E-001	3.57720E+000	9	...........
	90	1.21333	1.06865E-001	-3.99031E-004	0.00000E+000	-4.26424E-005	-2.40040E-001	1.06889E-001	3.57720E+000	9	...........
	91	1.22667	1.01957E-001	-3.98401E-004	0.00000E+000	-4.06197E-005	-2.40040E-001	1.01981E-001	3.57720E+000	9	...........
	92	1.24	9.71848E-002	-3.98977E-004	0.00000E+000	-3.87745E-005	-2.40040E-001	9.72036E-002	3.57720E+000	9	...........
	93	1.25333	9.23745E-002	-3.99730E-004	0.00000E+000	-3.69249E-005	-2.40040E-001	9.23942E-002	3.57720E+000	9	...........
	94	1.26667	8.75668E-002	-3.97933E-004	0.00000E+000	-3.48457E-005	-2.40040E-001	8.75836E-002	3.57720E+000	9	...........
	95	1.28	8.28533E-002	-3.97298E-004	0.00000E+000	-3.29174E-005	-2.40040E-001	8.28725E-002	3.57720E+000	9	...........
	96	1.29333	7.81592E-002	-3.98849E-004	0.00000E+000	-3.11737E-005	-2.40040E-001	7.81747E-002	3.57720E+000	9	...........
	97	1.30667	7.34677E-002	-3.99368E-004	0.00000E+000	-2.93406E-005	-2.40040E-001	7.34812E-002	3.57720E+000	9	...........
	98	1.32	6.87390E-002	-3.98158E-004	0.00000E+000	-2.73690E-005	-2.40040E-001	6.87585E-002	3.57720E+000	9	...........
	99	1.33333	6.40113E-002	-3.97703E-004	0.00000E+000	-2.54575E-005	-2.40040E-001	6.40171E-002	3.57720E+000	9	...........
	100	1.34667	5.93514E-002	-3.97972E-004	0.00000E+000	-2.36202E-005	-2.40040E-001	5.93667E-002	3.57720E+000	9	...........
	101	1.36	5.48128E-002	-3.98975E-004	0.00000E+000	-2.18689E-005	-2.40040E-001	5.48204E-002	3.57720E+000	9	...........
	102	1.37333	5.02713E-002	-4.00014E-004	0.00000E+000	-2.01092E-005	-2.40040E-001	5.02724E-002	3.57720E+000	9	...........
	103	1.38667	4.57061E-002	-3.98692E-004	0.00000E+000	-1.82226E-005	-2.40040E-001	4.57147E-002	3.57720E+000	9	...........
	104	1.4	4.10929E-002	-3.98472E-004	0.00000E+000	-1.63744E-005	-2.40040E-001	4.10974E-002	3.57720E+000	9	...........
	105	1.41333	3.64813E-002	-3.98126E-004	0.00000E+000	-1.45241E-005	-2.40040E-001	3.64882E-002	3.57720E+000	9	...........
	106	1.42667	3.20337E-002	-3.99541E-004	0.00000E+000	-1.27988E-005	-2.40040E-001	3.20342E-002	3.57720E+000	9	...........
	107	1.44	2.75850E-002	-3.97912E-004	0.00000E+000	-1.09764E-005	-2.40040E-001	2.75802E-002	3.57720E+000	9	...........
	108	1.45333	2.31569E-002	-3.99336E-004	0.00000E+000	-9.24738E-006	-2.40040E-001	2.31537E-002	3.57720E+000	9	...........
	109	1.46667	1.88332E-002	-3.98817E-004	0.00000E+000	-7.51101E-006	-2.40040E-001	1.88251E-002	3.57720E+000	9	...........
	110	1.48	1.44267E-002	-3.98963E-004	0.00000E+000	-5.75573E-006	-2.40040E-001	1.44164E-002	3.57720E+000	9	...........
	111	1.49333	9.97751E-003	-3.98530E-004	0.00000E+000	-3.97634E-006	-2.40040E-001	9.96629E-003	3.57720E+000	9	...........
	112	1.50667	5.62868E-003	-3.98449E-004	0.00000E+000	-2.24274E-006	-2.40040E-001	5.61302E-003	3.57720E+000	9	...........
	113	1.51833	1.59417E-003	-3.99609E-004	0.00000E+000	-6.37042E-007	-2.40040E-001	1.57706E-003	3.57720E+000	9	...........
STARTTIMEOFFSET	QUANT	1434.789	Start Time Offset (s)
