EXPLAIN
TAG	PWR800_DISCHARGE
TITLE	LABEL	PWR Cyclic Charge Discharge (Cell) - Discharge Step	Test &Identifier
DATE	LABEL	12-7-2017	Date
TIME	LABEL	15:22:31	Time
NOTES	NOTES	3	&Notes...
	supercap test cell
	0.4mg
	6M KOH
PSTAT	PSTAT	IFC5000-01520	Potentiostat
CAPACITY	QUANT	1.00000E-003	Capacity (A-hr)
CELLTYPE	SELECTOR	1	&Cell Type
WORKINGCONNECTION	SELECTOR	0	&Working Lead
MAXDISCHARGETIME	VARIABLEANDUNITS	1.00000E+002	s	1.00000E+002	second(s)	Max &Discharge Time
DISCHARGEMODE	MULTIPARAM	0	4.00000E-004	&Discharge Mode	Constant Current	Amp(s)
SAMPLETIME	QUANT	1.00000E-002	Sa&mple Period (s)
DISCHARGESTOPAT1	MULTIPARAM	3	0.00000E+000	Discharge Stop At &1	Voltage < Limit	V
DISCHARGESTOPAT2	MULTIPARAM	0	0.00000E+000	Discharge Stop At &2	None	N/A
AESBHCSELECTOR	TOGGLE	F	Save Both Half Cells
IRCOMP	TOGGLE	F	IR &Measure
EOC	QUANT	0	Open Circuit (V)
SEQUENCER	TOGGLE	TRUE	Run as Sequence
PSTATMODEL	IQUANT	53	Pstat Model
PSTATSECTION	LABEL	IFC5000-01520	Pstat Section
PSTATSERIALNO	LABEL	01520	Pstat Serial Number
CTRLMODE	IQUANT	0	Control Mode
ELECTROMETER	IQUANT	1	RE=0 or CS=1
IESTAB	IQUANT	0	I/E Stability
CASPEED	IQUANT	4	Control Amp Speed
CONVENTION	IQUANT	1	Current Convention
ICHRANGE	IQUANT	2	Ich Range
ICHRANGEMODE	TOGGLE	T	Ich Auto Range
ICHOFFSETENABLE	TOGGLE	F	Ich Offset Enable
ICHOFFSET	QUANT	0	Ich Offset (V)
ICHFILTER	IQUANT	1	Ich Filter
VCHRANGE	IQUANT	2	Vch Range
VCHRANGEMODE	TOGGLE	T	Vch Auto Range
VCHOFFSETENABLE	TOGGLE	F	Vch Offset Enable
VCHOFFSET	QUANT	0	Vch Offset (V)
VCHFILTER	IQUANT	1	Vch Filter
IERANGELOWERLIMIT	IQUANT	9	I/E Range Lower Limit
IERANGEMODE	TOGGLE	F	I/E AutoRange
IERANGE	IQUANT	9	I/E Range
ACHSELECT	IQUANT	1	Ach Select
ACHRANGE	IQUANT	2	Ach Range
ACHOFFSETENABLE	TOGGLE	F	Ach Offset Enable
ACHOFFSET	QUANT	0	Ach Offset (V)
ACHFILTER	IQUANT	1	Ach Filter
CABLEID	IQUANT	14	Cable ID
DCCALDATE	LABEL	5-7-2017	DC Calibration Date
ACCALDATE	LABEL	12/3/2015	AC Calibration Date
FRAMEWORKVERSION	QUANT	7.01	Framework Version
INSTRUMENTVERSION	LABEL	4.00	Instrument Version
CURVE	TABLE	102
	Pt	T	Vf	Im	Vu	Pwr	Sig	Ach	Temp	IERange	Over
	#	s	V	A	V	W	V	V	deg C	#	bits
	0	0.013333	6.82172E-001	-3.97830E-004	0.00000E+000	-2.71389E-004	-2.40040E-001	6.82439E-001	3.57660E+000	9	...........
	1	0.026667	6.68302E-001	-3.99605E-004	0.00000E+000	-2.67057E-004	-2.40040E-001	6.68558E-001	3.57660E+000	9	...........
	2	0.04	6.56186E-001	-3.97761E-004	0.00000E+000	-2.61006E-004	-2.40040E-001	6.56459E-001	3.57660E+000	9	...........
	3	0.053333	6.45167E-001	-3.98989E-004	0.00000E+000	-2.57414E-004	-2.40040E-001	6.45412E-001	3.57660E+000	9	...........
	4	0.066667	6.34832E-001	-3.99995E-004	0.00000E+000	-2.53930E-004	-2.40040E-001	6.35048E-001	3.57660E+000	9	...........
	5	0.08	6.24972E-001	-3.99275E-004	0.00000E+000	-2.49536E-004	-2.40040E-001	6.25189E-001	3.57660E+000	9	...........
	6	0.093333	6.15443E-001	-3.98782E-004	0.00000E+000	-2.45428E-004	-2.40040E-001	6.15693E-001	3.57660E+000	9	...........
	7	0.106667	6.06180E-001	-3.97337E-004	0.00000E+000	-2.40858E-004	-2.40040E-001	6.06465E-001	3.57660E+000	9	...........
	8	0.12	5.97183E-001	-3.98854E-004	0.00000E+000	-2.38189E-004	-2.40040E-001	5.97451E-001	3.57660E+000	9	...........
	9	0.133333	5.88398E-001	-3.98378E-004	0.00000E+000	-2.34405E-004	-2.40040E-001	5.88635E-001	3.57660E+000	9	...........
	10	0.146667	5.79707E-001	-3.98347E-004	0.00000E+000	-2.30924E-004	-2.40040E-001	5.79962E-001	3.57660E+000	9	...........
	11	0.16	5.71129E-001	-3.99201E-004	0.00000E+000	-2.27995E-004	-2.40040E-001	5.71327E-001	3.57660E+000	9	...........
	12	0.173333	5.62623E-001	-3.98800E-004	0.00000E+000	-2.24374E-004	-2.40040E-001	5.62866E-001	3.57660E+000	9	...........
	13	0.186667	5.54195E-001	-3.99152E-004	0.00000E+000	-2.21208E-004	-2.40040E-001	5.54417E-001	3.57660E+000	9	...........
	14	0.2	5.45899E-001	-3.98233E-004	0.00000E+000	-2.17395E-004	-2.40040E-001	5.46112E-001	3.57660E+000	9	...........
	15	0.213333	5.37589E-001	-3.98903E-004	0.00000E+000	-2.14446E-004	-2.40040E-001	5.37806E-001	3.57660E+000	9	...........
	16	0.226667	5.29323E-001	-3.97813E-004	0.00000E+000	-2.10572E-004	-2.40040E-001	5.29544E-001	3.57660E+000	9	...........
	17	0.24	5.21193E-001	-3.98518E-004	0.00000E+000	-2.07705E-004	-2.40040E-001	5.21387E-001	3.57660E+000	9	...........
	18	0.253333	5.13062E-001	-3.98940E-004	0.00000E+000	-2.04681E-004	-2.40040E-001	5.13284E-001	3.57660E+000	9	...........
	19	0.266667	5.05013E-001	-3.99148E-004	0.00000E+000	-2.01575E-004	-2.40040E-001	5.05245E-001	3.57660E+000	9	...........
	20	0.28	4.97078E-001	-3.99525E-004	0.00000E+000	-1.98595E-004	-2.40040E-001	4.97299E-001	3.57660E+000	9	...........
	21	0.293333	4.89208E-001	-3.99119E-004	0.00000E+000	-1.95252E-004	-2.40040E-001	4.89436E-001	3.57660E+000	9	...........
	22	0.306667	4.81535E-001	-3.99317E-004	0.00000E+000	-1.92285E-004	-2.40040E-001	4.81648E-001	3.57660E+000	9	...........
	23	0.32	4.73740E-001	-3.97852E-004	0.00000E+000	-1.88478E-004	-2.40040E-001	4.73837E-001	3.57660E+000	9	...........
	24	0.333333	4.65948E-001	-3.98852E-004	0.00000E+000	-1.85844E-004	-2.40040E-001	4.66044E-001	3.57660E+000	9	...........
	25	0.346667	4.58262E-001	-3.98516E-004	0.00000E+000	-1.82624E-004	-2.40040E-001	4.58352E-001	3.57660E+000	9	...........
	26	0.36	4.50565E-001	-3.99095E-004	0.00000E+000	-1.79818E-004	-2.40040E-001	4.50660E-001	3.57660E+000	9	...........
	27	0.373333	4.42945E-001	-3.99396E-004	0.00000E+000	-1.76910E-004	-2.40040E-001	4.43042E-001	3.57660E+000	9	...........
	28	0.386667	4.35299E-001	-3.99220E-004	0.00000E+000	-1.73780E-004	-2.40040E-001	4.35389E-001	3.57660E+000	9	...........
	29	0.4	4.27724E-001	-3.98624E-004	0.00000E+000	-1.70501E-004	-2.40040E-001	4.27816E-001	3.57660E+000	9	...........
	30	0.413333	4.20234E-001	-3.98933E-004	0.00000E+000	-1.67645E-004	-2.40040E-001	4.20323E-001	3.57660E+000	9	...........
	31	0.426667	4.12733E-001	-3.98553E-004	0.00000E+000	-1.64496E-004	-2.40040E-001	4.12821E-001	3.57660E+000	9	...........
	32	0.44	4.05354E-001	-3.97680E-004	0.00000E+000	-1.61201E-004	-2.40040E-001	4.05433E-001	3.57660E+000	9	...........
	33	0.453333	3.98001E-001	-3.98306E-004	0.00000E+000	-1.58526E-004	-2.40040E-001	3.98084E-001	3.57660E+000	9	...........
	34	0.466667	3.90705E-001	-4.00318E-004	0.00000E+000	-1.56406E-004	-2.40040E-001	3.90776E-001	3.57660E+000	9	...........
	35	0.48	3.83356E-001	-3.98929E-004	0.00000E+000	-1.52932E-004	-2.40040E-001	3.83426E-001	3.57660E+000	9	...........
	36	0.493333	3.76123E-001	-3.98349E-004	0.00000E+000	-1.49828E-004	-2.40040E-001	3.76198E-001	3.57660E+000	9	...........
	37	0.506667	3.68930E-001	-3.99158E-004	0.00000E+000	-1.47262E-004	-2.40040E-001	3.69003E-001	3.57660E+000	9	...........
	38	0.52	3.61820E-001	-3.99133E-004	0.00000E+000	-1.44414E-004	-2.40040E-001	3.61896E-001	3.57660E+000	9	...........
	39	0.533333	3.54711E-001	-3.98856E-004	0.00000E+000	-1.41479E-004	-2.40040E-001	3.54786E-001	3.57660E+000	9	...........
	40	0.546667	3.47572E-001	-3.98810E-004	0.00000E+000	-1.38615E-004	-2.40040E-001	3.47641E-001	3.57660E+000	9	...........
	41	0.56	3.40619E-001	-4.00538E-004	0.00000E+000	-1.36431E-004	-2.40040E-001	3.40681E-001	3.57660E+000	9	...........
	42	0.573333	3.33635E-001	-3.97276E-004	0.00000E+000	-1.32545E-004	-2.40040E-001	3.33704E-001	3.57640E+000	9	...........
	43	0.586667	3.26713E-001	-3.99307E-004	0.00000E+000	-1.30459E-004	-2.40040E-001	3.26776E-001	3.57640E+000	9	...........
	44	0.6	3.19793E-001	-3.98973E-004	0.00000E+000	-1.27589E-004	-2.40040E-001	3.19853E-001	3.57640E+000	9	...........
	45	0.613333	3.12989E-001	-3.97860E-004	0.00000E+000	-1.24526E-004	-2.40040E-001	3.13053E-001	3.57640E+000	9	...........
	46	0.626667	3.06215E-001	-4.00353E-004	0.00000E+000	-1.22594E-004	-2.40040E-001	3.06279E-001	3.57640E+000	9	...........
	47	0.64	2.99487E-001	-3.99765E-004	0.00000E+000	-1.19724E-004	-2.40040E-001	2.99551E-001	3.57640E+000	9	...........
	48	0.653333	2.92786E-001	-3.99359E-004	0.00000E+000	-1.16927E-004	-2.40040E-001	2.92841E-001	3.57640E+000	9	...........
	49	0.666667	2.86124E-001	-3.99050E-004	0.00000E+000	-1.14178E-004	-2.40040E-001	2.86190E-001	3.57640E+000	9	...........
	50	0.68	2.79593E-001	-3.98079E-004	0.00000E+000	-1.11300E-004	-2.40040E-001	2.79655E-001	3.57640E+000	9	...........
	51	0.693333	2.72979E-001	-3.98875E-004	0.00000E+000	-1.08885E-004	-2.40040E-001	2.73042E-001	3.57640E+000	9	...........
	52	0.706667	2.66487E-001	-3.97746E-004	0.00000E+000	-1.05994E-004	-2.40040E-001	2.66543E-001	3.57640E+000	9	...........
	53	0.72	2.60083E-001	-3.98536E-004	0.00000E+000	-1.03652E-004	-2.40040E-001	2.60139E-001	3.57640E+000	9	...........
	54	0.733333	2.53718E-001	-3.98167E-004	0.00000E+000	-1.01022E-004	-2.40040E-001	2.53776E-001	3.57640E+000	9	...........
	55	0.746667	2.47354E-001	-3.99746E-004	0.00000E+000	-9.88789E-005	-2.40040E-001	2.47404E-001	3.57640E+000	9	...........
	56	0.76	2.40971E-001	-3.98019E-004	0.00000E+000	-9.59109E-005	-2.40040E-001	2.41013E-001	3.57640E+000	9	...........
	57	0.773333	2.34652E-001	-3.98174E-004	0.00000E+000	-9.34323E-005	-2.40040E-001	2.34696E-001	3.57640E+000	9	...........
	58	0.786667	2.28512E-001	-3.99230E-004	0.00000E+000	-9.12291E-005	-2.40040E-001	2.28554E-001	3.57640E+000	9	...........
	59	0.8	2.22348E-001	-3.98662E-004	0.00000E+000	-8.86416E-005	-2.40040E-001	2.22391E-001	3.57640E+000	9	...........
	60	0.813333	2.16216E-001	-3.99341E-004	0.00000E+000	-8.63440E-005	-2.40040E-001	2.16256E-001	3.57640E+000	9	...........
	61	0.826667	2.10112E-001	-3.99639E-004	0.00000E+000	-8.39689E-005	-2.40040E-001	2.10155E-001	3.57640E+000	9	...........
	62	0.84	2.04076E-001	-3.97344E-004	0.00000E+000	-8.10887E-005	-2.40040E-001	2.04119E-001	3.57640E+000	9	...........
	63	0.853333	1.98070E-001	-3.98391E-004	0.00000E+000	-7.89092E-005	-2.40040E-001	1.98106E-001	3.57640E+000	9	...........
	64	0.866667	1.92153E-001	-3.99817E-004	0.00000E+000	-7.68261E-005	-2.40040E-001	1.92192E-001	3.57640E+000	9	...........
	65	0.88	1.86202E-001	-3.98946E-004	0.00000E+000	-7.42845E-005	-2.40040E-001	1.86239E-001	3.57640E+000	9	...........
	66	0.893333	1.80279E-001	-3.98333E-004	0.00000E+000	-7.18109E-005	-2.40040E-001	1.80315E-001	3.57640E+000	9	...........
	67	0.906667	1.74423E-001	-3.99698E-004	0.00000E+000	-6.97165E-005	-2.40040E-001	1.74457E-001	3.57640E+000	9	...........
	68	0.92	1.68664E-001	-3.99328E-004	0.00000E+000	-6.73524E-005	-2.40040E-001	1.68698E-001	3.57640E+000	9	...........
	69	0.933333	1.62863E-001	-3.98985E-004	0.00000E+000	-6.49798E-005	-2.40040E-001	1.62892E-001	3.57640E+000	9	...........
	70	0.946667	1.57178E-001	-3.99000E-004	0.00000E+000	-6.27141E-005	-2.40040E-001	1.57208E-001	3.57640E+000	9	...........
	71	0.96	1.51524E-001	-3.99057E-004	0.00000E+000	-6.04666E-005	-2.40040E-001	1.51553E-001	3.57640E+000	9	...........
	72	0.97333	1.45888E-001	-3.99596E-004	0.00000E+000	-5.82963E-005	-2.40040E-001	1.45919E-001	3.57640E+000	9	...........
	73	0.98667	1.40300E-001	-3.97882E-004	0.00000E+000	-5.58229E-005	-2.40040E-001	1.40330E-001	3.57640E+000	9	...........
	74	1	1.34772E-001	-3.99159E-004	0.00000E+000	-5.37954E-005	-2.40040E-001	1.34797E-001	3.57640E+000	9	...........
	75	1.01333	1.29232E-001	-3.99836E-004	0.00000E+000	-5.16715E-005	-2.40040E-001	1.29249E-001	3.57640E+000	9	...........
	76	1.02667	1.23792E-001	-3.98663E-004	0.00000E+000	-4.93512E-005	-2.40040E-001	1.23817E-001	3.57640E+000	9	...........
	77	1.04	1.18354E-001	-3.99753E-004	0.00000E+000	-4.73125E-005	-2.40040E-001	1.18377E-001	3.57640E+000	9	...........
	78	1.05333	1.12883E-001	-3.98231E-004	0.00000E+000	-4.49534E-005	-2.40040E-001	1.12905E-001	3.57640E+000	9	...........
	79	1.06667	1.07559E-001	-3.99458E-004	0.00000E+000	-4.29652E-005	-2.40040E-001	1.07582E-001	3.57640E+000	9	...........
	80	1.08	1.02204E-001	-3.98055E-004	0.00000E+000	-4.06829E-005	-2.40040E-001	1.02230E-001	3.57640E+000	9	...........
	81	1.09333	9.67988E-002	-3.97985E-004	0.00000E+000	-3.85245E-005	-2.40040E-001	9.68181E-002	3.57640E+000	9	...........
	82	1.10667	9.14791E-002	-3.98114E-004	0.00000E+000	-3.64191E-005	-2.40040E-001	9.14965E-002	3.57640E+000	9	...........
	83	1.12	8.62439E-002	-3.98442E-004	0.00000E+000	-3.43632E-005	-2.40040E-001	8.62624E-002	3.57640E+000	9	...........
	84	1.13333	8.10346E-002	-3.98682E-004	0.00000E+000	-3.23070E-005	-2.40040E-001	8.10469E-002	3.57640E+000	9	...........
	85	1.14667	7.58923E-002	-3.98540E-004	0.00000E+000	-3.02461E-005	-2.40040E-001	7.59021E-002	3.57640E+000	9	...........
	86	1.16	7.08404E-002	-3.98834E-004	0.00000E+000	-2.82536E-005	-2.40040E-001	7.08416E-002	3.57640E+000	9	...........
	87	1.17333	6.57389E-002	-3.98962E-004	0.00000E+000	-2.62273E-005	-2.40040E-001	6.57427E-002	3.57640E+000	9	...........
	88	1.18667	6.06905E-002	-3.97123E-004	0.00000E+000	-2.41016E-005	-2.40040E-001	6.06920E-002	3.57640E+000	9	...........
	89	1.2	5.55707E-002	-3.98704E-004	0.00000E+000	-2.21562E-005	-2.40040E-001	5.55677E-002	3.57640E+000	9	...........
	90	1.21333	5.05217E-002	-3.98445E-004	0.00000E+000	-2.01301E-005	-2.40040E-001	5.05190E-002	3.57640E+000	9	...........
	91	1.22667	4.56120E-002	-3.99215E-004	0.00000E+000	-1.82090E-005	-2.40040E-001	4.56158E-002	3.57640E+000	9	...........
	92	1.24	4.06847E-002	-3.99004E-004	0.00000E+000	-1.62334E-005	-2.40040E-001	4.06939E-002	3.57640E+000	9	...........
	93	1.25333	3.58367E-002	-3.97183E-004	0.00000E+000	-1.42337E-005	-2.40040E-001	3.58360E-002	3.57640E+000	9	...........
	94	1.26667	3.10503E-002	-3.98124E-004	0.00000E+000	-1.23619E-005	-2.40040E-001	3.10468E-002	3.57640E+000	9	...........
	95	1.28	2.61886E-002	-3.99496E-004	0.00000E+000	-1.04623E-005	-2.40040E-001	2.61880E-002	3.57640E+000	9	...........
	96	1.29333	2.13526E-002	-3.99135E-004	0.00000E+000	-8.52256E-006	-2.40040E-001	2.13458E-002	3.57640E+000	9	...........
	97	1.30667	1.65580E-002	-3.99429E-004	0.00000E+000	-6.61376E-006	-2.40040E-001	1.65477E-002	3.57640E+000	9	...........
	98	1.32	1.17731E-002	-3.98280E-004	0.00000E+000	-4.68897E-006	-2.40040E-001	1.17619E-002	3.57640E+000	9	...........
	99	1.33333	7.03563E-003	-3.98683E-004	0.00000E+000	-2.80499E-006	-2.40040E-001	7.02349E-003	3.57640E+000	9	...........
	100	1.34667	2.38464E-003	-3.98169E-004	0.00000E+000	-9.49490E-007	-2.40040E-001	2.36776E-003	3.57640E+000	9	...........
	101	1.34833	-2.70032E-004	-4.02882E-004	0.00000E+000	1.08791E-007	-2.40040E-001	-2.92715E-004	3.57640E+000	9	...........
STARTTIMEOFFSET	QUANT	3023.947	Start Time Offset (s)
