EXPLAIN
TAG	PWR800_DISCHARGE
TITLE	LABEL	PWR Cyclic Charge Discharge (Cell) - Discharge Step	Test &Identifier
DATE	LABEL	12-7-2017	Date
TIME	LABEL	14:41:35	Time
NOTES	NOTES	3	&Notes...
	supercap test cell
	0.4mg
	6M KOH
PSTAT	PSTAT	IFC5000-01520	Potentiostat
CAPACITY	QUANT	1.00000E-003	Capacity (A-hr)
CELLTYPE	SELECTOR	1	&Cell Type
WORKINGCONNECTION	SELECTOR	0	&Working Lead
MAXDISCHARGETIME	VARIABLEANDUNITS	1.00000E+002	s	1.00000E+002	second(s)	Max &Discharge Time
DISCHARGEMODE	MULTIPARAM	0	4.00000E-004	&Discharge Mode	Constant Current	Amp(s)
SAMPLETIME	QUANT	1.00000E-002	Sa&mple Period (s)
DISCHARGESTOPAT1	MULTIPARAM	3	0.00000E+000	Discharge Stop At &1	Voltage < Limit	V
DISCHARGESTOPAT2	MULTIPARAM	0	0.00000E+000	Discharge Stop At &2	None	N/A
AESBHCSELECTOR	TOGGLE	F	Save Both Half Cells
IRCOMP	TOGGLE	F	IR &Measure
EOC	QUANT	0	Open Circuit (V)
SEQUENCER	TOGGLE	TRUE	Run as Sequence
PSTATMODEL	IQUANT	53	Pstat Model
PSTATSECTION	LABEL	IFC5000-01520	Pstat Section
PSTATSERIALNO	LABEL	01520	Pstat Serial Number
CTRLMODE	IQUANT	0	Control Mode
ELECTROMETER	IQUANT	1	RE=0 or CS=1
IESTAB	IQUANT	0	I/E Stability
CASPEED	IQUANT	4	Control Amp Speed
CONVENTION	IQUANT	1	Current Convention
ICHRANGE	IQUANT	2	Ich Range
ICHRANGEMODE	TOGGLE	T	Ich Auto Range
ICHOFFSETENABLE	TOGGLE	F	Ich Offset Enable
ICHOFFSET	QUANT	0	Ich Offset (V)
ICHFILTER	IQUANT	1	Ich Filter
VCHRANGE	IQUANT	2	Vch Range
VCHRANGEMODE	TOGGLE	T	Vch Auto Range
VCHOFFSETENABLE	TOGGLE	F	Vch Offset Enable
VCHOFFSET	QUANT	0	Vch Offset (V)
VCHFILTER	IQUANT	1	Vch Filter
IERANGELOWERLIMIT	IQUANT	9	I/E Range Lower Limit
IERANGEMODE	TOGGLE	F	I/E AutoRange
IERANGE	IQUANT	9	I/E Range
ACHSELECT	IQUANT	1	Ach Select
ACHRANGE	IQUANT	2	Ach Range
ACHOFFSETENABLE	TOGGLE	F	Ach Offset Enable
ACHOFFSET	QUANT	0	Ach Offset (V)
ACHFILTER	IQUANT	1	Ach Filter
CABLEID	IQUANT	14	Cable ID
DCCALDATE	LABEL	5-7-2017	DC Calibration Date
ACCALDATE	LABEL	12/3/2015	AC Calibration Date
FRAMEWORKVERSION	QUANT	7.01	Framework Version
INSTRUMENTVERSION	LABEL	4.00	Instrument Version
CURVE	TABLE	118
	Pt	T	Vf	Im	Vu	Pwr	Sig	Ach	Temp	IERange	Over
	#	s	V	A	V	W	V	V	deg C	#	bits
	0	0.013333	7.06868E-001	-3.99773E-004	0.00000E+000	-2.82587E-004	-2.40040E-001	7.07109E-001	3.57660E+000	9	...........
	1	0.026667	6.94936E-001	-3.98945E-004	0.00000E+000	-2.77241E-004	-2.40040E-001	6.95174E-001	3.57660E+000	9	...........
	2	0.04	6.84331E-001	-3.98180E-004	0.00000E+000	-2.72487E-004	-2.40040E-001	6.84563E-001	3.57660E+000	9	...........
	3	0.053333	6.74527E-001	-3.99937E-004	0.00000E+000	-2.69768E-004	-2.40040E-001	6.74752E-001	3.57660E+000	9	...........
	4	0.066667	6.65362E-001	-3.98732E-004	0.00000E+000	-2.65301E-004	-2.40040E-001	6.65614E-001	3.57660E+000	9	...........
	5	0.08	6.56523E-001	-3.98730E-004	0.00000E+000	-2.61775E-004	-2.40040E-001	6.56729E-001	3.57660E+000	9	...........
	6	0.093333	6.47945E-001	-3.99307E-004	0.00000E+000	-2.58729E-004	-2.40040E-001	6.48138E-001	3.57660E+000	9	...........
	7	0.106667	6.39537E-001	-3.98744E-004	0.00000E+000	-2.55011E-004	-2.40040E-001	6.39747E-001	3.57660E+000	9	...........
	8	0.12	6.31370E-001	-3.98306E-004	0.00000E+000	-2.51478E-004	-2.40040E-001	6.31579E-001	3.57660E+000	9	...........
	9	0.133333	6.23423E-001	-3.97731E-004	0.00000E+000	-2.47955E-004	-2.40040E-001	6.23624E-001	3.57660E+000	9	...........
	10	0.146667	6.15575E-001	-3.97751E-004	0.00000E+000	-2.44846E-004	-2.40040E-001	6.15802E-001	3.57660E+000	9	...........
	11	0.16	6.07799E-001	-3.97531E-004	0.00000E+000	-2.41619E-004	-2.40040E-001	6.08037E-001	3.57660E+000	9	...........
	12	0.173333	6.00092E-001	-3.98617E-004	0.00000E+000	-2.39207E-004	-2.40040E-001	6.00322E-001	3.57660E+000	9	...........
	13	0.186667	5.92445E-001	-3.98961E-004	0.00000E+000	-2.36363E-004	-2.40040E-001	5.92676E-001	3.57660E+000	9	...........
	14	0.2	5.84839E-001	-3.99095E-004	0.00000E+000	-2.33406E-004	-2.40040E-001	5.85041E-001	3.57660E+000	9	...........
	15	0.213333	5.77305E-001	-3.98084E-004	0.00000E+000	-2.29816E-004	-2.40040E-001	5.77535E-001	3.57660E+000	9	...........
	16	0.226667	5.69851E-001	-3.99416E-004	0.00000E+000	-2.27607E-004	-2.40040E-001	5.70046E-001	3.57660E+000	9	...........
	17	0.24	5.62454E-001	-3.99052E-004	0.00000E+000	-2.24449E-004	-2.40040E-001	5.62672E-001	3.57660E+000	9	...........
	18	0.253333	5.55135E-001	-3.99153E-004	0.00000E+000	-2.21584E-004	-2.40040E-001	5.55380E-001	3.57660E+000	9	...........
	19	0.266667	5.47855E-001	-3.97972E-004	0.00000E+000	-2.18031E-004	-2.40040E-001	5.48085E-001	3.57660E+000	9	...........
	20	0.28	5.40597E-001	-4.00050E-004	0.00000E+000	-2.16266E-004	-2.40040E-001	5.40805E-001	3.57660E+000	9	...........
	21	0.293333	5.33315E-001	-3.99240E-004	0.00000E+000	-2.12920E-004	-2.40040E-001	5.33527E-001	3.57680E+000	9	...........
	22	0.306667	5.26233E-001	-3.98229E-004	0.00000E+000	-2.09561E-004	-2.40040E-001	5.26467E-001	3.57680E+000	9	...........
	23	0.32	5.19190E-001	-3.99926E-004	0.00000E+000	-2.07638E-004	-2.40040E-001	5.19392E-001	3.57680E+000	9	...........
	24	0.333333	5.12088E-001	-3.99355E-004	0.00000E+000	-2.04505E-004	-2.40040E-001	5.12323E-001	3.57680E+000	9	...........
	25	0.346667	5.04981E-001	-3.98367E-004	0.00000E+000	-2.01167E-004	-2.40040E-001	5.05238E-001	3.57680E+000	9	...........
	26	0.36	4.97964E-001	-3.98964E-004	0.00000E+000	-1.98670E-004	-2.40040E-001	4.98210E-001	3.57680E+000	9	...........
	27	0.373333	4.90979E-001	-3.98537E-004	0.00000E+000	-1.95674E-004	-2.40040E-001	4.91196E-001	3.57680E+000	9	...........
	28	0.386667	4.84194E-001	-3.97403E-004	0.00000E+000	-1.92420E-004	-2.40040E-001	4.84334E-001	3.57680E+000	9	...........
	29	0.4	4.77366E-001	-3.97883E-004	0.00000E+000	-1.89936E-004	-2.40040E-001	4.77462E-001	3.57680E+000	9	...........
	30	0.413333	4.70536E-001	-3.99088E-004	0.00000E+000	-1.87785E-004	-2.40040E-001	4.70634E-001	3.57680E+000	9	...........
	31	0.426667	4.63745E-001	-4.00123E-004	0.00000E+000	-1.85555E-004	-2.40040E-001	4.63840E-001	3.57680E+000	9	...........
	32	0.44	4.56985E-001	-3.98445E-004	0.00000E+000	-1.82083E-004	-2.40040E-001	4.57086E-001	3.57680E+000	9	...........
	33	0.453333	4.50277E-001	-3.98231E-004	0.00000E+000	-1.79314E-004	-2.40040E-001	4.50372E-001	3.57680E+000	9	...........
	34	0.466667	4.43600E-001	-3.99055E-004	0.00000E+000	-1.77021E-004	-2.40040E-001	4.43695E-001	3.57680E+000	9	...........
	35	0.48	4.36987E-001	-3.98756E-004	0.00000E+000	-1.74251E-004	-2.40040E-001	4.37080E-001	3.57680E+000	9	...........
	36	0.493333	4.30358E-001	-3.97664E-004	0.00000E+000	-1.71138E-004	-2.40040E-001	4.30459E-001	3.57680E+000	9	...........
	37	0.506667	4.23860E-001	-3.98766E-004	0.00000E+000	-1.69021E-004	-2.40040E-001	4.23954E-001	3.57680E+000	9	...........
	38	0.52	4.17341E-001	-3.98360E-004	0.00000E+000	-1.66252E-004	-2.40040E-001	4.17431E-001	3.57680E+000	9	...........
	39	0.533333	4.10848E-001	-3.99419E-004	0.00000E+000	-1.64100E-004	-2.40040E-001	4.10934E-001	3.57680E+000	9	...........
	40	0.546667	4.04334E-001	-3.98737E-004	0.00000E+000	-1.61223E-004	-2.40040E-001	4.04414E-001	3.57680E+000	9	...........
	41	0.56	3.97960E-001	-3.98575E-004	0.00000E+000	-1.58617E-004	-2.40040E-001	3.98046E-001	3.57680E+000	9	...........
	42	0.573333	3.91584E-001	-3.99022E-004	0.00000E+000	-1.56251E-004	-2.40040E-001	3.91659E-001	3.57680E+000	9	...........
	43	0.586667	3.85216E-001	-3.97676E-004	0.00000E+000	-1.53191E-004	-2.40040E-001	3.85294E-001	3.57680E+000	9	...........
	44	0.6	3.78885E-001	-3.98108E-004	0.00000E+000	-1.50837E-004	-2.40040E-001	3.78957E-001	3.57680E+000	9	...........
	45	0.613333	3.72585E-001	-3.99475E-004	0.00000E+000	-1.48838E-004	-2.40040E-001	3.72651E-001	3.57680E+000	9	...........
	46	0.626667	3.66290E-001	-4.00196E-004	0.00000E+000	-1.46588E-004	-2.40040E-001	3.66361E-001	3.57680E+000	9	...........
	47	0.64	3.60043E-001	-3.98232E-004	0.00000E+000	-1.43381E-004	-2.40040E-001	3.60117E-001	3.57680E+000	9	...........
	48	0.653333	3.53892E-001	-3.98933E-004	0.00000E+000	-1.41179E-004	-2.40040E-001	3.53959E-001	3.57680E+000	9	...........
	49	0.666667	3.47715E-001	-3.98759E-004	0.00000E+000	-1.38654E-004	-2.40040E-001	3.47786E-001	3.57680E+000	9	...........
	50	0.68	3.41550E-001	-3.98630E-004	0.00000E+000	-1.36152E-004	-2.40040E-001	3.41620E-001	3.57680E+000	9	...........
	51	0.693333	3.35454E-001	-3.98159E-004	0.00000E+000	-1.33564E-004	-2.40040E-001	3.35525E-001	3.57680E+000	9	...........
	52	0.706667	3.29408E-001	-3.97510E-004	0.00000E+000	-1.30943E-004	-2.40040E-001	3.29471E-001	3.57680E+000	9	...........
	53	0.72	3.23359E-001	-3.98117E-004	0.00000E+000	-1.28735E-004	-2.40040E-001	3.23428E-001	3.57680E+000	9	...........
	54	0.733333	3.17293E-001	-4.00437E-004	0.00000E+000	-1.27056E-004	-2.40040E-001	3.17359E-001	3.57680E+000	9	...........
	55	0.746667	3.11508E-001	-3.99536E-004	0.00000E+000	-1.24459E-004	-2.40040E-001	3.11571E-001	3.57680E+000	9	...........
	56	0.76	3.05629E-001	-3.97993E-004	0.00000E+000	-1.21638E-004	-2.40040E-001	3.05692E-001	3.57680E+000	9	...........
	57	0.773333	2.99793E-001	-3.99032E-004	0.00000E+000	-1.19627E-004	-2.40040E-001	2.99851E-001	3.57680E+000	9	...........
	58	0.786667	2.93951E-001	-3.99052E-004	0.00000E+000	-1.17302E-004	-2.40040E-001	2.94013E-001	3.57680E+000	9	...........
	59	0.8	2.88185E-001	-3.98410E-004	0.00000E+000	-1.14816E-004	-2.40040E-001	2.88244E-001	3.57680E+000	9	...........
	60	0.813333	2.82415E-001	-3.98862E-004	0.00000E+000	-1.12645E-004	-2.40040E-001	2.82473E-001	3.57680E+000	9	...........
	61	0.826667	2.76696E-001	-3.97950E-004	0.00000E+000	-1.10111E-004	-2.40040E-001	2.76754E-001	3.57680E+000	9	...........
	62	0.84	2.70952E-001	-3.96341E-004	0.00000E+000	-1.07389E-004	-2.40040E-001	2.71004E-001	3.57680E+000	9	...........
	63	0.853333	2.65256E-001	-3.98985E-004	0.00000E+000	-1.05833E-004	-2.40040E-001	2.65313E-001	3.57680E+000	9	...........
	64	0.866667	2.59557E-001	-3.97672E-004	0.00000E+000	-1.03218E-004	-2.40040E-001	2.59607E-001	3.57680E+000	9	...........
	65	0.88	2.53911E-001	-3.99567E-004	0.00000E+000	-1.01454E-004	-2.40040E-001	2.53963E-001	3.57680E+000	9	...........
	66	0.893333	2.48334E-001	-3.99617E-004	0.00000E+000	-9.92383E-005	-2.40040E-001	2.48384E-001	3.57680E+000	9	...........
	67	0.906667	2.42793E-001	-3.98518E-004	0.00000E+000	-9.67571E-005	-2.40040E-001	2.42838E-001	3.57680E+000	9	...........
	68	0.92	2.37324E-001	-3.98887E-004	0.00000E+000	-9.46656E-005	-2.40040E-001	2.37362E-001	3.57680E+000	9	...........
	69	0.933333	2.31826E-001	-3.99281E-004	0.00000E+000	-9.25639E-005	-2.40040E-001	2.31869E-001	3.57680E+000	9	...........
	70	0.946667	2.26337E-001	-3.97757E-004	0.00000E+000	-9.00272E-005	-2.40040E-001	2.26377E-001	3.57680E+000	9	...........
	71	0.96	2.20917E-001	-3.98334E-004	0.00000E+000	-8.79987E-005	-2.40040E-001	2.20950E-001	3.57680E+000	9	...........
	72	0.97333	2.15562E-001	-3.98424E-004	0.00000E+000	-8.58852E-005	-2.40040E-001	2.15606E-001	3.57680E+000	9	...........
	73	0.98667	2.10190E-001	-3.98969E-004	0.00000E+000	-8.38593E-005	-2.40040E-001	2.10229E-001	3.57680E+000	9	...........
	74	1	2.04905E-001	-3.98053E-004	0.00000E+000	-8.15632E-005	-2.40040E-001	2.04945E-001	3.57680E+000	9	...........
	75	1.01333	1.99592E-001	-3.98180E-004	0.00000E+000	-7.94734E-005	-2.40040E-001	1.99634E-001	3.57680E+000	9	...........
	76	1.02667	1.94243E-001	-3.97871E-004	0.00000E+000	-7.72836E-005	-2.40040E-001	1.94281E-001	3.57680E+000	9	...........
	77	1.04	1.89057E-001	-3.99217E-004	0.00000E+000	-7.54747E-005	-2.40040E-001	1.89093E-001	3.57680E+000	9	...........
	78	1.05333	1.83883E-001	-3.97463E-004	0.00000E+000	-7.30868E-005	-2.40040E-001	1.83915E-001	3.57680E+000	9	...........
	79	1.06667	1.78656E-001	-3.99212E-004	0.00000E+000	-7.13214E-005	-2.40040E-001	1.78691E-001	3.57680E+000	9	...........
	80	1.08	1.73485E-001	-3.98884E-004	0.00000E+000	-6.92004E-005	-2.40040E-001	1.73524E-001	3.57680E+000	9	...........
	81	1.09333	1.68351E-001	-3.99987E-004	0.00000E+000	-6.73383E-005	-2.40040E-001	1.68384E-001	3.57680E+000	9	...........
	82	1.10667	1.63273E-001	-3.98188E-004	0.00000E+000	-6.50133E-005	-2.40040E-001	1.63304E-001	3.57680E+000	9	...........
	83	1.12	1.58235E-001	-3.98496E-004	0.00000E+000	-6.30560E-005	-2.40040E-001	1.58262E-001	3.57680E+000	9	...........
	84	1.13333	1.53146E-001	-3.98499E-004	0.00000E+000	-6.10284E-005	-2.40040E-001	1.53179E-001	3.57680E+000	9	...........
	85	1.14667	1.48048E-001	-3.97997E-004	0.00000E+000	-5.89227E-005	-2.40040E-001	1.48077E-001	3.57680E+000	9	...........
	86	1.16	1.43020E-001	-3.98675E-004	0.00000E+000	-5.70185E-005	-2.40040E-001	1.43054E-001	3.57680E+000	9	...........
	87	1.17333	1.38040E-001	-3.99514E-004	0.00000E+000	-5.51488E-005	-2.40040E-001	1.38073E-001	3.57680E+000	9	...........
	88	1.18667	1.33093E-001	-3.98353E-004	0.00000E+000	-5.30178E-005	-2.40040E-001	1.33122E-001	3.57680E+000	9	...........
	89	1.2	1.28150E-001	-3.99050E-004	0.00000E+000	-5.11381E-005	-2.40040E-001	1.28174E-001	3.57680E+000	9	...........
	90	1.21333	1.23211E-001	-3.98731E-004	0.00000E+000	-4.91282E-005	-2.40040E-001	1.23238E-001	3.57680E+000	9	...........
	91	1.22667	1.18342E-001	-3.98012E-004	0.00000E+000	-4.71017E-005	-2.40040E-001	1.18369E-001	3.57680E+000	9	...........
	92	1.24	1.13505E-001	-3.99149E-004	0.00000E+000	-4.53054E-005	-2.40040E-001	1.13527E-001	3.57680E+000	9	...........
	93	1.25333	1.08636E-001	-3.98275E-004	0.00000E+000	-4.32670E-005	-2.40040E-001	1.08663E-001	3.57680E+000	9	...........
	94	1.26667	1.03835E-001	-3.98949E-004	0.00000E+000	-4.14247E-005	-2.40040E-001	1.03860E-001	3.57680E+000	9	...........
	95	1.28	9.90969E-002	-3.98740E-004	0.00000E+000	-3.95138E-005	-2.40040E-001	9.91232E-002	3.57680E+000	9	...........
	96	1.29333	9.44165E-002	-3.98574E-004	0.00000E+000	-3.76319E-005	-2.40040E-001	9.44325E-002	3.57630E+000	9	...........
	97	1.30667	8.96335E-002	-3.98523E-004	0.00000E+000	-3.57210E-005	-2.40040E-001	8.96553E-002	3.57630E+000	9	...........
	98	1.32	8.49726E-002	-3.97812E-004	0.00000E+000	-3.38031E-005	-2.40040E-001	8.49940E-002	3.57630E+000	9	...........
	99	1.33333	8.02969E-002	-3.99950E-004	0.00000E+000	-3.21148E-005	-2.40040E-001	8.03107E-002	3.57630E+000	9	...........
	100	1.34667	7.56448E-002	-3.97652E-004	0.00000E+000	-3.00803E-005	-2.40040E-001	7.56537E-002	3.57630E+000	9	...........
	101	1.36	7.10177E-002	-3.98831E-004	0.00000E+000	-2.83241E-005	-2.40040E-001	7.10315E-002	3.57630E+000	9	...........
	102	1.37333	6.64674E-002	-3.99512E-004	0.00000E+000	-2.65545E-005	-2.40040E-001	6.64756E-002	3.57630E+000	9	...........
	103	1.38667	6.19052E-002	-3.98428E-004	0.00000E+000	-2.46648E-005	-2.40040E-001	6.19183E-002	3.57630E+000	9	...........
	104	1.4	5.73340E-002	-3.97528E-004	0.00000E+000	-2.27918E-005	-2.40040E-001	5.73440E-002	3.57630E+000	9	...........
	105	1.41333	5.28105E-002	-3.98455E-004	0.00000E+000	-2.10426E-005	-2.40040E-001	5.28224E-002	3.57630E+000	9	...........
	106	1.42667	4.83549E-002	-3.99058E-004	0.00000E+000	-1.92964E-005	-2.40040E-001	4.83636E-002	3.57630E+000	9	...........
	107	1.44	4.39160E-002	-3.98113E-004	0.00000E+000	-1.74835E-005	-2.40040E-001	4.39228E-002	3.57630E+000	9	...........
	108	1.45333	3.95239E-002	-3.99591E-004	0.00000E+000	-1.57934E-005	-2.40040E-001	3.95324E-002	3.57630E+000	9	...........
	109	1.46667	3.50750E-002	-3.98850E-004	0.00000E+000	-1.39897E-005	-2.40040E-001	3.50815E-002	3.57630E+000	9	...........
	110	1.48	3.06283E-002	-3.98391E-004	0.00000E+000	-1.22020E-005	-2.40040E-001	3.06308E-002	3.57630E+000	9	...........
	111	1.49333	2.63170E-002	-3.99752E-004	0.00000E+000	-1.05203E-005	-2.40040E-001	2.63186E-002	3.57630E+000	9	...........
	112	1.50667	2.19877E-002	-3.98077E-004	0.00000E+000	-8.75279E-006	-2.40040E-001	2.19824E-002	3.57630E+000	9	...........
	113	1.52	1.76231E-002	-3.98928E-004	0.00000E+000	-7.03034E-006	-2.40040E-001	1.76142E-002	3.57630E+000	9	...........
	114	1.53333	1.32787E-002	-3.98062E-004	0.00000E+000	-5.28574E-006	-2.40040E-001	1.32721E-002	3.57630E+000	9	...........
	115	1.54667	9.02500E-003	-3.99364E-004	0.00000E+000	-3.60426E-006	-2.40040E-001	9.01529E-003	3.57630E+000	9	...........
	116	1.56	4.72178E-003	-4.00020E-004	0.00000E+000	-1.88881E-006	-2.40040E-001	4.70883E-003	3.57630E+000	9	...........
	117	1.57	1.04158E-003	-3.97299E-004	0.00000E+000	-4.13819E-007	-2.40040E-001	1.02329E-003	3.57630E+000	9	...........
STARTTIMEOFFSET	QUANT	1103.228	Start Time Offset (s)
