EXPLAIN
TAG	PWR800_DISCHARGE
TITLE	LABEL	PWR Cyclic Charge Discharge (Cell) - Discharge Step	Test &Identifier
DATE	LABEL	12-7-2017	Date
TIME	LABEL	15:01:28	Time
NOTES	NOTES	3	&Notes...
	supercap test cell
	0.4mg
	6M KOH
PSTAT	PSTAT	IFC5000-01520	Potentiostat
CAPACITY	QUANT	1.00000E-003	Capacity (A-hr)
CELLTYPE	SELECTOR	1	&Cell Type
WORKINGCONNECTION	SELECTOR	0	&Working Lead
MAXDISCHARGETIME	VARIABLEANDUNITS	1.00000E+002	s	1.00000E+002	second(s)	Max &Discharge Time
DISCHARGEMODE	MULTIPARAM	0	4.00000E-004	&Discharge Mode	Constant Current	Amp(s)
SAMPLETIME	QUANT	1.00000E-002	Sa&mple Period (s)
DISCHARGESTOPAT1	MULTIPARAM	3	0.00000E+000	Discharge Stop At &1	Voltage < Limit	V
DISCHARGESTOPAT2	MULTIPARAM	0	0.00000E+000	Discharge Stop At &2	None	N/A
AESBHCSELECTOR	TOGGLE	F	Save Both Half Cells
IRCOMP	TOGGLE	F	IR &Measure
EOC	QUANT	0	Open Circuit (V)
SEQUENCER	TOGGLE	TRUE	Run as Sequence
PSTATMODEL	IQUANT	53	Pstat Model
PSTATSECTION	LABEL	IFC5000-01520	Pstat Section
PSTATSERIALNO	LABEL	01520	Pstat Serial Number
CTRLMODE	IQUANT	0	Control Mode
ELECTROMETER	IQUANT	1	RE=0 or CS=1
IESTAB	IQUANT	0	I/E Stability
CASPEED	IQUANT	4	Control Amp Speed
CONVENTION	IQUANT	1	Current Convention
ICHRANGE	IQUANT	2	Ich Range
ICHRANGEMODE	TOGGLE	T	Ich Auto Range
ICHOFFSETENABLE	TOGGLE	F	Ich Offset Enable
ICHOFFSET	QUANT	0	Ich Offset (V)
ICHFILTER	IQUANT	1	Ich Filter
VCHRANGE	IQUANT	2	Vch Range
VCHRANGEMODE	TOGGLE	T	Vch Auto Range
VCHOFFSETENABLE	TOGGLE	F	Vch Offset Enable
VCHOFFSET	QUANT	0	Vch Offset (V)
VCHFILTER	IQUANT	1	Vch Filter
IERANGELOWERLIMIT	IQUANT	9	I/E Range Lower Limit
IERANGEMODE	TOGGLE	F	I/E AutoRange
IERANGE	IQUANT	9	I/E Range
ACHSELECT	IQUANT	1	Ach Select
ACHRANGE	IQUANT	2	Ach Range
ACHOFFSETENABLE	TOGGLE	F	Ach Offset Enable
ACHOFFSET	QUANT	0	Ach Offset (V)
ACHFILTER	IQUANT	1	Ach Filter
CABLEID	IQUANT	14	Cable ID
DCCALDATE	LABEL	5-7-2017	DC Calibration Date
ACCALDATE	LABEL	12/3/2015	AC Calibration Date
FRAMEWORKVERSION	QUANT	7.01	Framework Version
INSTRUMENTVERSION	LABEL	4.00	Instrument Version
CURVE	TABLE	109
	Pt	T	Vf	Im	Vu	Pwr	Sig	Ach	Temp	IERange	Over
	#	s	V	A	V	W	V	V	deg C	#	bits
	0	0.013333	6.92277E-001	-3.98728E-004	0.00000E+000	-2.76030E-004	-2.40040E-001	6.92493E-001	3.57690E+000	9	...........
	1	0.026667	6.79302E-001	-3.98111E-004	0.00000E+000	-2.70438E-004	-2.40040E-001	6.79535E-001	3.57690E+000	9	...........
	2	0.04	6.67933E-001	-3.98451E-004	0.00000E+000	-2.66139E-004	-2.40040E-001	6.68164E-001	3.57690E+000	9	...........
	3	0.053333	6.57508E-001	-3.99399E-004	0.00000E+000	-2.62608E-004	-2.40040E-001	6.57728E-001	3.57690E+000	9	...........
	4	0.066667	6.47646E-001	-3.98156E-004	0.00000E+000	-2.57864E-004	-2.40040E-001	6.47871E-001	3.57690E+000	9	...........
	5	0.08	6.38286E-001	-3.98945E-004	0.00000E+000	-2.54641E-004	-2.40040E-001	6.38509E-001	3.57690E+000	9	...........
	6	0.093333	6.29214E-001	-3.99383E-004	0.00000E+000	-2.51298E-004	-2.40040E-001	6.29447E-001	3.57690E+000	9	...........
	7	0.106667	6.20439E-001	-3.98994E-004	0.00000E+000	-2.47551E-004	-2.40040E-001	6.20648E-001	3.57690E+000	9	...........
	8	0.12	6.11714E-001	-3.99892E-004	0.00000E+000	-2.44619E-004	-2.40040E-001	6.11971E-001	3.57690E+000	9	...........
	9	0.133333	6.03306E-001	-3.98096E-004	0.00000E+000	-2.40173E-004	-2.40040E-001	6.03583E-001	3.57690E+000	9	...........
	10	0.146667	5.94990E-001	-3.99768E-004	0.00000E+000	-2.37858E-004	-2.40040E-001	5.95238E-001	3.57690E+000	9	...........
	11	0.16	5.86826E-001	-3.99049E-004	0.00000E+000	-2.34172E-004	-2.40040E-001	5.87062E-001	3.57690E+000	9	...........
	12	0.173333	5.78660E-001	-3.99803E-004	0.00000E+000	-2.31350E-004	-2.40040E-001	5.78886E-001	3.57673E+000	9	...........
	13	0.186667	5.70615E-001	-3.99419E-004	0.00000E+000	-2.27914E-004	-2.40040E-001	5.70836E-001	3.57620E+000	9	...........
	14	0.2	5.62569E-001	-3.99091E-004	0.00000E+000	-2.24516E-004	-2.40040E-001	5.62792E-001	3.57620E+000	9	...........
	15	0.213333	5.54679E-001	-3.99295E-004	0.00000E+000	-2.21480E-004	-2.40040E-001	5.54871E-001	3.57620E+000	9	...........
	16	0.226667	5.46863E-001	-3.97603E-004	0.00000E+000	-2.17434E-004	-2.40040E-001	5.47034E-001	3.57620E+000	9	...........
	17	0.24	5.39097E-001	-3.97766E-004	0.00000E+000	-2.14435E-004	-2.40040E-001	5.39282E-001	3.57620E+000	9	...........
	18	0.253333	5.31360E-001	-3.98606E-004	0.00000E+000	-2.11803E-004	-2.40040E-001	5.31541E-001	3.57620E+000	9	...........
	19	0.266667	5.23703E-001	-3.97375E-004	0.00000E+000	-2.08106E-004	-2.40040E-001	5.23845E-001	3.57620E+000	9	...........
	20	0.28	5.16026E-001	-3.98444E-004	0.00000E+000	-2.05607E-004	-2.40040E-001	5.16185E-001	3.57620E+000	9	...........
	21	0.293333	5.08352E-001	-4.00108E-004	0.00000E+000	-2.03395E-004	-2.40040E-001	5.08539E-001	3.57620E+000	9	...........
	22	0.306667	5.00855E-001	-3.98382E-004	0.00000E+000	-1.99532E-004	-2.40040E-001	5.01053E-001	3.57620E+000	9	...........
	23	0.32	4.93369E-001	-3.98694E-004	0.00000E+000	-1.96703E-004	-2.40040E-001	4.93550E-001	3.57620E+000	9	...........
	24	0.333333	4.86001E-001	-3.99296E-004	0.00000E+000	-1.94058E-004	-2.40040E-001	4.86140E-001	3.57620E+000	9	...........
	25	0.346667	4.78758E-001	-3.97393E-004	0.00000E+000	-1.90255E-004	-2.40040E-001	4.78851E-001	3.57620E+000	9	...........
	26	0.36	4.71408E-001	-3.99130E-004	0.00000E+000	-1.88153E-004	-2.40040E-001	4.71507E-001	3.57620E+000	9	...........
	27	0.373333	4.64144E-001	-3.98756E-004	0.00000E+000	-1.85080E-004	-2.40040E-001	4.64232E-001	3.57620E+000	9	...........
	28	0.386667	4.56863E-001	-3.98276E-004	0.00000E+000	-1.81958E-004	-2.40040E-001	4.56950E-001	3.57620E+000	9	...........
	29	0.4	4.49608E-001	-3.98898E-004	0.00000E+000	-1.79348E-004	-2.40040E-001	4.49698E-001	3.57620E+000	9	...........
	30	0.413333	4.42395E-001	-3.98803E-004	0.00000E+000	-1.76428E-004	-2.40040E-001	4.42483E-001	3.57620E+000	9	...........
	31	0.426667	4.35193E-001	-3.98710E-004	0.00000E+000	-1.73516E-004	-2.40040E-001	4.35282E-001	3.57620E+000	9	...........
	32	0.44	4.28025E-001	-3.98156E-004	0.00000E+000	-1.70421E-004	-2.40040E-001	4.28115E-001	3.57620E+000	9	...........
	33	0.453333	4.20927E-001	-3.98933E-004	0.00000E+000	-1.67922E-004	-2.40040E-001	4.21013E-001	3.57620E+000	9	...........
	34	0.466667	4.13904E-001	-3.97338E-004	0.00000E+000	-1.64460E-004	-2.40040E-001	4.13987E-001	3.57620E+000	9	...........
	35	0.48	4.06913E-001	-3.99716E-004	0.00000E+000	-1.62649E-004	-2.40040E-001	4.06991E-001	3.57620E+000	9	...........
	36	0.493333	4.00003E-001	-3.98529E-004	0.00000E+000	-1.59413E-004	-2.40040E-001	4.00076E-001	3.57620E+000	9	...........
	37	0.506667	3.93113E-001	-3.98824E-004	0.00000E+000	-1.56783E-004	-2.40040E-001	3.93183E-001	3.57620E+000	9	...........
	38	0.52	3.86191E-001	-3.99256E-004	0.00000E+000	-1.54189E-004	-2.40040E-001	3.86261E-001	3.57620E+000	9	...........
	39	0.533333	3.79380E-001	-3.99477E-004	0.00000E+000	-1.51554E-004	-2.40040E-001	3.79453E-001	3.57620E+000	9	...........
	40	0.546667	3.72608E-001	-3.98735E-004	0.00000E+000	-1.48572E-004	-2.40040E-001	3.72669E-001	3.57620E+000	9	...........
	41	0.56	3.65863E-001	-3.98346E-004	0.00000E+000	-1.45740E-004	-2.40040E-001	3.65934E-001	3.57620E+000	9	...........
	42	0.573333	3.59091E-001	-3.98627E-004	0.00000E+000	-1.43143E-004	-2.40040E-001	3.59156E-001	3.57620E+000	9	...........
	43	0.586667	3.52428E-001	-3.98350E-004	0.00000E+000	-1.40390E-004	-2.40040E-001	3.52488E-001	3.57620E+000	9	...........
	44	0.6	3.45792E-001	-3.98594E-004	0.00000E+000	-1.37830E-004	-2.40040E-001	3.45862E-001	3.57620E+000	9	...........
	45	0.613333	3.39146E-001	-3.98977E-004	0.00000E+000	-1.35311E-004	-2.40040E-001	3.39212E-001	3.57620E+000	9	...........
	46	0.626667	3.32558E-001	-3.98594E-004	0.00000E+000	-1.32556E-004	-2.40040E-001	3.32625E-001	3.57620E+000	9	...........
	47	0.64	3.26134E-001	-3.98434E-004	0.00000E+000	-1.29943E-004	-2.40040E-001	3.26197E-001	3.57620E+000	9	...........
	48	0.653333	3.19691E-001	-3.98638E-004	0.00000E+000	-1.27441E-004	-2.40040E-001	3.19755E-001	3.57620E+000	9	...........
	49	0.666667	3.13287E-001	-3.97949E-004	0.00000E+000	-1.24672E-004	-2.40040E-001	3.13350E-001	3.57620E+000	9	...........
	50	0.68	3.06892E-001	-3.98435E-004	0.00000E+000	-1.22277E-004	-2.40040E-001	3.06953E-001	3.57620E+000	9	...........
	51	0.693333	3.00570E-001	-3.99721E-004	0.00000E+000	-1.20144E-004	-2.40040E-001	3.00625E-001	3.57620E+000	9	...........
	52	0.706667	2.94263E-001	-3.97170E-004	0.00000E+000	-1.16873E-004	-2.40040E-001	2.94318E-001	3.57620E+000	9	...........
	53	0.72	2.87926E-001	-3.97474E-004	0.00000E+000	-1.14443E-004	-2.40040E-001	2.87987E-001	3.57620E+000	9	...........
	54	0.733333	2.81695E-001	-3.98690E-004	0.00000E+000	-1.12309E-004	-2.40040E-001	2.81752E-001	3.57620E+000	9	...........
	55	0.746667	2.75475E-001	-3.98977E-004	0.00000E+000	-1.09908E-004	-2.40040E-001	2.75528E-001	3.57620E+000	9	...........
	56	0.76	2.69315E-001	-3.98554E-004	0.00000E+000	-1.07336E-004	-2.40040E-001	2.69368E-001	3.57620E+000	9	...........
	57	0.773333	2.63253E-001	-3.99454E-004	0.00000E+000	-1.05158E-004	-2.40040E-001	2.63314E-001	3.57620E+000	9	...........
	58	0.786667	2.57139E-001	-3.98876E-004	0.00000E+000	-1.02567E-004	-2.40040E-001	2.57184E-001	3.57620E+000	9	...........
	59	0.8	2.51122E-001	-3.98943E-004	0.00000E+000	-1.00183E-004	-2.40040E-001	2.51171E-001	3.57620E+000	9	...........
	60	0.813333	2.45076E-001	-3.98795E-004	0.00000E+000	-9.77349E-005	-2.40040E-001	2.45122E-001	3.57620E+000	9	...........
	61	0.826667	2.39107E-001	-3.99346E-004	0.00000E+000	-9.54863E-005	-2.40040E-001	2.39147E-001	3.57620E+000	9	...........
	62	0.84	2.33127E-001	-3.97398E-004	0.00000E+000	-9.26439E-005	-2.40040E-001	2.33166E-001	3.57620E+000	9	...........
	63	0.853333	2.27294E-001	-3.98407E-004	0.00000E+000	-9.05557E-005	-2.40040E-001	2.27332E-001	3.57620E+000	9	...........
	64	0.866667	2.21454E-001	-3.99677E-004	0.00000E+000	-8.85103E-005	-2.40040E-001	2.21491E-001	3.57620E+000	9	...........
	65	0.88	2.15634E-001	-3.99543E-004	0.00000E+000	-8.61548E-005	-2.40040E-001	2.15675E-001	3.57620E+000	9	...........
	66	0.893333	2.09798E-001	-3.98393E-004	0.00000E+000	-8.35818E-005	-2.40040E-001	2.09834E-001	3.57620E+000	9	...........
	67	0.906667	2.04054E-001	-3.99241E-004	0.00000E+000	-8.14665E-005	-2.40040E-001	2.04090E-001	3.57620E+000	9	...........
	68	0.92	1.98310E-001	-3.98088E-004	0.00000E+000	-7.89450E-005	-2.40040E-001	1.98352E-001	3.57620E+000	9	...........
	69	0.933333	1.92600E-001	-4.00273E-004	0.00000E+000	-7.70926E-005	-2.40040E-001	1.92633E-001	3.57620E+000	9	...........
	70	0.946667	1.86954E-001	-3.98646E-004	0.00000E+000	-7.45285E-005	-2.40040E-001	1.86984E-001	3.57620E+000	9	...........
	71	0.96	1.81390E-001	-3.98047E-004	0.00000E+000	-7.22017E-005	-2.40040E-001	1.81420E-001	3.57620E+000	9	...........
	72	0.97333	1.75804E-001	-3.97165E-004	0.00000E+000	-6.98231E-005	-2.40040E-001	1.75832E-001	3.57620E+000	9	...........
	73	0.98667	1.70243E-001	-3.98828E-004	0.00000E+000	-6.78978E-005	-2.40040E-001	1.70272E-001	3.57620E+000	9	...........
	74	1	1.64746E-001	-3.97902E-004	0.00000E+000	-6.55527E-005	-2.40040E-001	1.64771E-001	3.57620E+000	9	...........
	75	1.01333	1.59290E-001	-3.97895E-004	0.00000E+000	-6.33807E-005	-2.40040E-001	1.59324E-001	3.57620E+000	9	...........
	76	1.02667	1.53833E-001	-3.98885E-004	0.00000E+000	-6.13619E-005	-2.40040E-001	1.53861E-001	3.57620E+000	9	...........
	77	1.04	1.48512E-001	-3.98151E-004	0.00000E+000	-5.91303E-005	-2.40040E-001	1.48537E-001	3.57620E+000	9	...........
	78	1.05333	1.43130E-001	-3.97692E-004	0.00000E+000	-5.69216E-005	-2.40040E-001	1.43157E-001	3.57620E+000	9	...........
	79	1.06667	1.37821E-001	-3.98815E-004	0.00000E+000	-5.49650E-005	-2.40040E-001	1.37849E-001	3.57620E+000	9	...........
	80	1.08	1.32522E-001	-3.99106E-004	0.00000E+000	-5.28902E-005	-2.40040E-001	1.32546E-001	3.57620E+000	9	...........
	81	1.09333	1.27251E-001	-3.98891E-004	0.00000E+000	-5.07594E-005	-2.40040E-001	1.27272E-001	3.57620E+000	9	...........
	82	1.10667	1.22120E-001	-3.98232E-004	0.00000E+000	-4.86322E-005	-2.40040E-001	1.22138E-001	3.57620E+000	9	...........
	83	1.12	1.16885E-001	-3.97540E-004	0.00000E+000	-4.64665E-005	-2.40040E-001	1.16904E-001	3.57620E+000	9	...........
	84	1.13333	1.11731E-001	-4.00237E-004	0.00000E+000	-4.47191E-005	-2.40040E-001	1.11753E-001	3.57620E+000	9	...........
	85	1.14667	1.06670E-001	-3.97964E-004	0.00000E+000	-4.24508E-005	-2.40040E-001	1.06684E-001	3.57620E+000	9	...........
	86	1.16	1.01565E-001	-3.98196E-004	0.00000E+000	-4.04427E-005	-2.40040E-001	1.01576E-001	3.57620E+000	9	...........
	87	1.17333	9.65070E-002	-3.98442E-004	0.00000E+000	-3.84524E-005	-2.40040E-001	9.65196E-002	3.57623E+000	9	...........
	88	1.18667	9.15100E-002	-3.98432E-004	0.00000E+000	-3.64605E-005	-2.40040E-001	9.15265E-002	3.57630E+000	9	...........
	89	1.2	8.64602E-002	-3.98126E-004	0.00000E+000	-3.44220E-005	-2.40040E-001	8.64750E-002	3.57630E+000	9	...........
	90	1.21333	8.15519E-002	-3.99971E-004	0.00000E+000	-3.26184E-005	-2.40040E-001	8.15621E-002	3.57630E+000	9	...........
	91	1.22667	7.66835E-002	-3.98211E-004	0.00000E+000	-3.05362E-005	-2.40040E-001	7.66912E-002	3.57630E+000	9	...........
	92	1.24	7.17732E-002	-3.98344E-004	0.00000E+000	-2.85904E-005	-2.40040E-001	7.17714E-002	3.57630E+000	9	...........
	93	1.25333	6.69568E-002	-4.00196E-004	0.00000E+000	-2.67959E-005	-2.40040E-001	6.69629E-002	3.57630E+000	9	...........
	94	1.26667	6.20878E-002	-3.97585E-004	0.00000E+000	-2.46852E-005	-2.40040E-001	6.20910E-002	3.57630E+000	9	...........
	95	1.28	5.72998E-002	-3.98754E-004	0.00000E+000	-2.28485E-005	-2.40040E-001	5.73032E-002	3.57630E+000	9	...........
	96	1.29333	5.24864E-002	-3.98766E-004	0.00000E+000	-2.09298E-005	-2.40040E-001	5.24869E-002	3.57630E+000	9	...........
	97	1.30667	4.77361E-002	-3.99455E-004	0.00000E+000	-1.90684E-005	-2.40040E-001	4.77411E-002	3.57630E+000	9	...........
	98	1.32	4.30252E-002	-3.98752E-004	0.00000E+000	-1.71564E-005	-2.40040E-001	4.30317E-002	3.57630E+000	9	...........
	99	1.33333	3.83626E-002	-3.99073E-004	0.00000E+000	-1.53095E-005	-2.40040E-001	3.83689E-002	3.57630E+000	9	...........
	100	1.34667	3.36919E-002	-3.98278E-004	0.00000E+000	-1.34187E-005	-2.40040E-001	3.36886E-002	3.57630E+000	9	...........
	101	1.36	2.90834E-002	-3.99054E-004	0.00000E+000	-1.16059E-005	-2.40040E-001	2.90827E-002	3.57630E+000	9	...........
	102	1.37333	2.44641E-002	-3.99281E-004	0.00000E+000	-9.76807E-006	-2.40040E-001	2.44552E-002	3.57630E+000	9	...........
	103	1.38667	2.00136E-002	-3.98799E-004	0.00000E+000	-7.98141E-006	-2.40040E-001	2.00048E-002	3.57630E+000	9	...........
	104	1.4	1.55249E-002	-3.98587E-004	0.00000E+000	-6.18803E-006	-2.40040E-001	1.55161E-002	3.57630E+000	9	...........
	105	1.41333	1.09941E-002	-3.97874E-004	0.00000E+000	-4.37427E-006	-2.40040E-001	1.09803E-002	3.57630E+000	9	...........
	106	1.42667	6.47773E-003	-3.99037E-004	0.00000E+000	-2.58485E-006	-2.40040E-001	6.46136E-003	3.57630E+000	9	...........
	107	1.44	2.04806E-003	-3.99231E-004	0.00000E+000	-8.17650E-007	-2.40040E-001	2.02983E-003	3.57630E+000	9	...........
	108	1.44167	-3.76049E-004	-4.01582E-004	0.00000E+000	1.51014E-007	-2.40040E-001	-4.00333E-004	3.57630E+000	9	...........
STARTTIMEOFFSET	QUANT	2041.948	Start Time Offset (s)
