EXPLAIN
TAG	PWR800_DISCHARGE
TITLE	LABEL	PWR Cyclic Charge Discharge (Cell) - Discharge Step	Test &Identifier
DATE	LABEL	12-7-2017	Date
TIME	LABEL	14:31:11	Time
NOTES	NOTES	3	&Notes...
	supercap test cell
	0.4mg
	6M KOH
PSTAT	PSTAT	IFC5000-01520	Potentiostat
CAPACITY	QUANT	1.00000E-003	Capacity (A-hr)
CELLTYPE	SELECTOR	1	&Cell Type
WORKINGCONNECTION	SELECTOR	0	&Working Lead
MAXDISCHARGETIME	VARIABLEANDUNITS	1.00000E+002	s	1.00000E+002	second(s)	Max &Discharge Time
DISCHARGEMODE	MULTIPARAM	0	4.00000E-004	&Discharge Mode	Constant Current	Amp(s)
SAMPLETIME	QUANT	1.00000E-002	Sa&mple Period (s)
DISCHARGESTOPAT1	MULTIPARAM	3	0.00000E+000	Discharge Stop At &1	Voltage < Limit	V
DISCHARGESTOPAT2	MULTIPARAM	0	0.00000E+000	Discharge Stop At &2	None	N/A
AESBHCSELECTOR	TOGGLE	F	Save Both Half Cells
IRCOMP	TOGGLE	F	IR &Measure
EOC	QUANT	0	Open Circuit (V)
SEQUENCER	TOGGLE	TRUE	Run as Sequence
PSTATMODEL	IQUANT	53	Pstat Model
PSTATSECTION	LABEL	IFC5000-01520	Pstat Section
PSTATSERIALNO	LABEL	01520	Pstat Serial Number
CTRLMODE	IQUANT	0	Control Mode
ELECTROMETER	IQUANT	1	RE=0 or CS=1
IESTAB	IQUANT	0	I/E Stability
CASPEED	IQUANT	4	Control Amp Speed
CONVENTION	IQUANT	1	Current Convention
ICHRANGE	IQUANT	2	Ich Range
ICHRANGEMODE	TOGGLE	T	Ich Auto Range
ICHOFFSETENABLE	TOGGLE	F	Ich Offset Enable
ICHOFFSET	QUANT	0	Ich Offset (V)
ICHFILTER	IQUANT	1	Ich Filter
VCHRANGE	IQUANT	2	Vch Range
VCHRANGEMODE	TOGGLE	T	Vch Auto Range
VCHOFFSETENABLE	TOGGLE	F	Vch Offset Enable
VCHOFFSET	QUANT	0	Vch Offset (V)
VCHFILTER	IQUANT	1	Vch Filter
IERANGELOWERLIMIT	IQUANT	9	I/E Range Lower Limit
IERANGEMODE	TOGGLE	F	I/E AutoRange
IERANGE	IQUANT	9	I/E Range
ACHSELECT	IQUANT	1	Ach Select
ACHRANGE	IQUANT	2	Ach Range
ACHOFFSETENABLE	TOGGLE	F	Ach Offset Enable
ACHOFFSET	QUANT	0	Ach Offset (V)
ACHFILTER	IQUANT	1	Ach Filter
CABLEID	IQUANT	14	Cable ID
DCCALDATE	LABEL	5-7-2017	DC Calibration Date
ACCALDATE	LABEL	12/3/2015	AC Calibration Date
FRAMEWORKVERSION	QUANT	7.01	Framework Version
INSTRUMENTVERSION	LABEL	4.00	Instrument Version
CURVE	TABLE	125
	Pt	T	Vf	Im	Vu	Pwr	Sig	Ach	Temp	IERange	Over
	#	s	V	A	V	W	V	V	deg C	#	bits
	0	0.013333	7.14613E-001	-3.98549E-004	0.00000E+000	-2.84808E-004	-2.40040E-001	7.14850E-001	3.57660E+000	9	...........
	1	0.026667	7.03169E-001	-4.00313E-004	0.00000E+000	-2.81487E-004	-2.40040E-001	7.03412E-001	3.57660E+000	9	...........
	2	0.04	6.93096E-001	-3.99233E-004	0.00000E+000	-2.76707E-004	-2.40040E-001	6.93350E-001	3.57660E+000	9	...........
	3	0.053333	6.83838E-001	-3.99421E-004	0.00000E+000	-2.73139E-004	-2.40040E-001	6.84064E-001	3.57660E+000	9	...........
	4	0.066667	6.75051E-001	-3.98565E-004	0.00000E+000	-2.69051E-004	-2.40040E-001	6.75287E-001	3.57660E+000	9	...........
	5	0.08	6.66578E-001	-3.98134E-004	0.00000E+000	-2.65387E-004	-2.40040E-001	6.66788E-001	3.57660E+000	9	...........
	6	0.093333	6.58415E-001	-3.98206E-004	0.00000E+000	-2.62185E-004	-2.40040E-001	6.58632E-001	3.57660E+000	9	...........
	7	0.106667	6.50399E-001	-3.99627E-004	0.00000E+000	-2.59917E-004	-2.40040E-001	6.50631E-001	3.57660E+000	9	...........
	8	0.12	6.42591E-001	-3.98960E-004	0.00000E+000	-2.56369E-004	-2.40040E-001	6.42794E-001	3.57660E+000	9	...........
	9	0.133333	6.34895E-001	-3.98523E-004	0.00000E+000	-2.53020E-004	-2.40040E-001	6.35104E-001	3.57660E+000	9	...........
	10	0.146667	6.27322E-001	-3.98118E-004	0.00000E+000	-2.49748E-004	-2.40040E-001	6.27512E-001	3.57660E+000	9	...........
	11	0.16	6.19901E-001	-3.98185E-004	0.00000E+000	-2.46835E-004	-2.40040E-001	6.20081E-001	3.57660E+000	9	...........
	12	0.173333	6.12489E-001	-3.98922E-004	0.00000E+000	-2.44335E-004	-2.40040E-001	6.12724E-001	3.57660E+000	9	...........
	13	0.186667	6.05123E-001	-3.98249E-004	0.00000E+000	-2.40989E-004	-2.40040E-001	6.05358E-001	3.57660E+000	9	...........
	14	0.2	5.97842E-001	-3.99547E-004	0.00000E+000	-2.38866E-004	-2.40040E-001	5.98073E-001	3.57660E+000	9	...........
	15	0.213333	5.90682E-001	-4.00237E-004	0.00000E+000	-2.36413E-004	-2.40040E-001	5.90923E-001	3.57660E+000	9	...........
	16	0.226667	5.83553E-001	-3.98413E-004	0.00000E+000	-2.32496E-004	-2.40040E-001	5.83755E-001	3.57660E+000	9	...........
	17	0.24	5.76478E-001	-3.98326E-004	0.00000E+000	-2.29626E-004	-2.40040E-001	5.76676E-001	3.57660E+000	9	...........
	18	0.253333	5.69507E-001	-3.96786E-004	0.00000E+000	-2.25972E-004	-2.40040E-001	5.69701E-001	3.57660E+000	9	...........
	19	0.266667	5.62564E-001	-3.99422E-004	0.00000E+000	-2.24701E-004	-2.40040E-001	5.62762E-001	3.57660E+000	9	...........
	20	0.28	5.55575E-001	-3.99419E-004	0.00000E+000	-2.21907E-004	-2.40040E-001	5.55801E-001	3.57660E+000	9	...........
	21	0.293333	5.48733E-001	-3.98111E-004	0.00000E+000	-2.18457E-004	-2.40040E-001	5.48935E-001	3.57660E+000	9	...........
	22	0.306667	5.41853E-001	-3.98722E-004	0.00000E+000	-2.16049E-004	-2.40040E-001	5.42075E-001	3.57660E+000	9	...........
	23	0.32	5.35008E-001	-3.97863E-004	0.00000E+000	-2.12860E-004	-2.40040E-001	5.35225E-001	3.57660E+000	9	...........
	24	0.333333	5.28188E-001	-3.99004E-004	0.00000E+000	-2.10749E-004	-2.40040E-001	5.28406E-001	3.57660E+000	9	...........
	25	0.346667	5.21463E-001	-3.99329E-004	0.00000E+000	-2.08235E-004	-2.40040E-001	5.21664E-001	3.57660E+000	9	...........
	26	0.36	5.14829E-001	-3.98301E-004	0.00000E+000	-2.05057E-004	-2.40040E-001	5.15014E-001	3.57660E+000	9	...........
	27	0.373333	5.08152E-001	-3.99662E-004	0.00000E+000	-2.03089E-004	-2.40040E-001	5.08371E-001	3.57660E+000	9	...........
	28	0.386667	5.01539E-001	-3.97356E-004	0.00000E+000	-1.99290E-004	-2.40040E-001	5.01759E-001	3.57660E+000	9	...........
	29	0.4	4.94951E-001	-3.98177E-004	0.00000E+000	-1.97078E-004	-2.40040E-001	4.95150E-001	3.57660E+000	9	...........
	30	0.413333	4.88441E-001	-3.99135E-004	0.00000E+000	-1.94954E-004	-2.40040E-001	4.88656E-001	3.57660E+000	9	...........
	31	0.426667	4.82155E-001	-3.98016E-004	0.00000E+000	-1.91906E-004	-2.40040E-001	4.82272E-001	3.57660E+000	9	...........
	32	0.44	4.75740E-001	-3.98061E-004	0.00000E+000	-1.89374E-004	-2.40040E-001	4.75839E-001	3.57660E+000	9	...........
	33	0.453333	4.69315E-001	-3.99043E-004	0.00000E+000	-1.87277E-004	-2.40040E-001	4.69414E-001	3.57660E+000	9	...........
	34	0.466667	4.62934E-001	-3.98936E-004	0.00000E+000	-1.84681E-004	-2.40040E-001	4.63033E-001	3.57660E+000	9	...........
	35	0.48	4.56644E-001	-3.99432E-004	0.00000E+000	-1.82398E-004	-2.40040E-001	4.56740E-001	3.57660E+000	9	...........
	36	0.493333	4.50316E-001	-3.97972E-004	0.00000E+000	-1.79213E-004	-2.40040E-001	4.50411E-001	3.57660E+000	9	...........
	37	0.506667	4.43989E-001	-3.99425E-004	0.00000E+000	-1.77340E-004	-2.40040E-001	4.44080E-001	3.57660E+000	9	...........
	38	0.52	4.37701E-001	-3.97590E-004	0.00000E+000	-1.74026E-004	-2.40040E-001	4.37789E-001	3.57660E+000	9	...........
	39	0.533333	4.31435E-001	-3.98882E-004	0.00000E+000	-1.72092E-004	-2.40040E-001	4.31519E-001	3.57660E+000	9	...........
	40	0.546667	4.25238E-001	-3.97864E-004	0.00000E+000	-1.69187E-004	-2.40040E-001	4.25325E-001	3.57660E+000	9	...........
	41	0.56	4.19079E-001	-3.98106E-004	0.00000E+000	-1.66838E-004	-2.40040E-001	4.19155E-001	3.57660E+000	9	...........
	42	0.573333	4.12940E-001	-3.99064E-004	0.00000E+000	-1.64789E-004	-2.40040E-001	4.13019E-001	3.57660E+000	9	...........
	43	0.586667	4.06930E-001	-3.98879E-004	0.00000E+000	-1.62316E-004	-2.40040E-001	4.07003E-001	3.57660E+000	9	...........
	44	0.6	4.00853E-001	-3.98562E-004	0.00000E+000	-1.59765E-004	-2.40040E-001	4.00928E-001	3.57660E+000	9	...........
	45	0.613333	3.94857E-001	-3.99010E-004	0.00000E+000	-1.57552E-004	-2.40040E-001	3.94929E-001	3.57660E+000	9	...........
	46	0.626667	3.88833E-001	-3.97990E-004	0.00000E+000	-1.54752E-004	-2.40040E-001	3.88908E-001	3.57660E+000	9	...........
	47	0.64	3.82806E-001	-3.98586E-004	0.00000E+000	-1.52581E-004	-2.40040E-001	3.82878E-001	3.57660E+000	9	...........
	48	0.653333	3.76864E-001	-3.99103E-004	0.00000E+000	-1.50408E-004	-2.40040E-001	3.76937E-001	3.57677E+000	9	...........
	49	0.666667	3.70953E-001	-3.99094E-004	0.00000E+000	-1.48045E-004	-2.40040E-001	3.71026E-001	3.57730E+000	9	...........
	50	0.68	3.65023E-001	-3.99455E-004	0.00000E+000	-1.45811E-004	-2.40040E-001	3.65090E-001	3.57730E+000	9	...........
	51	0.693333	3.59100E-001	-3.99119E-004	0.00000E+000	-1.43324E-004	-2.40040E-001	3.59164E-001	3.57730E+000	9	...........
	52	0.706667	3.53320E-001	-3.99224E-004	0.00000E+000	-1.41054E-004	-2.40040E-001	3.53385E-001	3.57730E+000	9	...........
	53	0.72	3.47535E-001	-3.98488E-004	0.00000E+000	-1.38489E-004	-2.40040E-001	3.47600E-001	3.57730E+000	9	...........
	54	0.733333	3.41732E-001	-3.97932E-004	0.00000E+000	-1.35986E-004	-2.40040E-001	3.41795E-001	3.57730E+000	9	...........
	55	0.746667	3.35984E-001	-3.99008E-004	0.00000E+000	-1.34060E-004	-2.40040E-001	3.36050E-001	3.57730E+000	9	...........
	56	0.76	3.30233E-001	-3.98634E-004	0.00000E+000	-1.31642E-004	-2.40040E-001	3.30289E-001	3.57730E+000	9	...........
	57	0.773333	3.24652E-001	-3.99214E-004	0.00000E+000	-1.29606E-004	-2.40040E-001	3.24713E-001	3.57730E+000	9	...........
	58	0.786667	3.18944E-001	-3.98951E-004	0.00000E+000	-1.27243E-004	-2.40040E-001	3.19000E-001	3.57730E+000	9	...........
	59	0.8	3.13251E-001	-3.98423E-004	0.00000E+000	-1.24806E-004	-2.40040E-001	3.13314E-001	3.57730E+000	9	...........
	60	0.813333	3.07619E-001	-3.99294E-004	0.00000E+000	-1.22830E-004	-2.40040E-001	3.07686E-001	3.57730E+000	9	...........
	61	0.826667	3.01913E-001	-3.99368E-004	0.00000E+000	-1.20574E-004	-2.40040E-001	3.01977E-001	3.57730E+000	9	...........
	62	0.84	2.96369E-001	-3.99566E-004	0.00000E+000	-1.18419E-004	-2.40040E-001	2.96428E-001	3.57730E+000	9	...........
	63	0.853333	2.90826E-001	-4.00302E-004	0.00000E+000	-1.16419E-004	-2.40040E-001	2.90880E-001	3.57730E+000	9	...........
	64	0.866667	2.85356E-001	-3.99187E-004	0.00000E+000	-1.13910E-004	-2.40040E-001	2.85411E-001	3.57730E+000	9	...........
	65	0.88	2.79860E-001	-3.98613E-004	0.00000E+000	-1.11556E-004	-2.40040E-001	2.79913E-001	3.57730E+000	9	...........
	66	0.893333	2.74339E-001	-3.98239E-004	0.00000E+000	-1.09252E-004	-2.40040E-001	2.74397E-001	3.57730E+000	9	...........
	67	0.906667	2.68922E-001	-3.99042E-004	0.00000E+000	-1.07311E-004	-2.40040E-001	2.68978E-001	3.57730E+000	9	...........
	68	0.92	2.63468E-001	-3.99831E-004	0.00000E+000	-1.05343E-004	-2.40040E-001	2.63528E-001	3.57730E+000	9	...........
	69	0.933333	2.58071E-001	-3.99158E-004	0.00000E+000	-1.03011E-004	-2.40040E-001	2.58126E-001	3.57730E+000	9	...........
	70	0.946667	2.52729E-001	-3.97672E-004	0.00000E+000	-1.00503E-004	-2.40040E-001	2.52783E-001	3.57730E+000	9	...........
	71	0.96	2.47438E-001	-3.99064E-004	0.00000E+000	-9.87434E-005	-2.40040E-001	2.47490E-001	3.57730E+000	9	...........
	72	0.97333	2.42217E-001	-3.98566E-004	0.00000E+000	-9.65394E-005	-2.40040E-001	2.42268E-001	3.57730E+000	9	...........
	73	0.98667	2.36894E-001	-3.98050E-004	0.00000E+000	-9.42958E-005	-2.40040E-001	2.36940E-001	3.57730E+000	9	...........
	74	1	2.31701E-001	-3.98372E-004	0.00000E+000	-9.23030E-005	-2.40040E-001	2.31742E-001	3.57730E+000	9	...........
	75	1.01333	2.26536E-001	-3.99220E-004	0.00000E+000	-9.04376E-005	-2.40040E-001	2.26581E-001	3.57730E+000	9	...........
	76	1.02667	2.21332E-001	-3.98656E-004	0.00000E+000	-8.82352E-005	-2.40040E-001	2.21381E-001	3.57730E+000	9	...........
	77	1.04	2.16122E-001	-3.98669E-004	0.00000E+000	-8.61613E-005	-2.40040E-001	2.16163E-001	3.57730E+000	9	...........
	78	1.05333	2.10921E-001	-3.99065E-004	0.00000E+000	-8.41712E-005	-2.40040E-001	2.10961E-001	3.57730E+000	9	...........
	79	1.06667	2.05791E-001	-3.98135E-004	0.00000E+000	-8.19326E-005	-2.40040E-001	2.05825E-001	3.57730E+000	9	...........
	80	1.08	2.00706E-001	-4.00938E-004	0.00000E+000	-8.04707E-005	-2.40040E-001	2.00743E-001	3.57730E+000	9	...........
	81	1.09333	1.95584E-001	-3.98765E-004	0.00000E+000	-7.79918E-005	-2.40040E-001	1.95621E-001	3.57730E+000	9	...........
	82	1.10667	1.90605E-001	-3.98223E-004	0.00000E+000	-7.59031E-005	-2.40040E-001	1.90644E-001	3.57730E+000	9	...........
	83	1.12	1.85648E-001	-3.98807E-004	0.00000E+000	-7.40379E-005	-2.40040E-001	1.85684E-001	3.57730E+000	9	...........
	84	1.13333	1.80721E-001	-3.98886E-004	0.00000E+000	-7.20871E-005	-2.40040E-001	1.80759E-001	3.57730E+000	9	...........
	85	1.14667	1.75862E-001	-3.98149E-004	0.00000E+000	-7.00192E-005	-2.40040E-001	1.75895E-001	3.57730E+000	9	...........
	86	1.16	1.70878E-001	-3.99229E-004	0.00000E+000	-6.82196E-005	-2.40040E-001	1.70914E-001	3.57730E+000	9	...........
	87	1.17333	1.65989E-001	-3.97758E-004	0.00000E+000	-6.60236E-005	-2.40040E-001	1.66025E-001	3.57730E+000	9	...........
	88	1.18667	1.61129E-001	-3.99889E-004	0.00000E+000	-6.44337E-005	-2.40040E-001	1.61158E-001	3.57730E+000	9	...........
	89	1.2	1.56229E-001	-3.99221E-004	0.00000E+000	-6.23699E-005	-2.40040E-001	1.56255E-001	3.57730E+000	9	...........
	90	1.21333	1.51409E-001	-3.98145E-004	0.00000E+000	-6.02826E-005	-2.40040E-001	1.51438E-001	3.57730E+000	9	...........
	91	1.22667	1.46631E-001	-3.98194E-004	0.00000E+000	-5.83876E-005	-2.40040E-001	1.46657E-001	3.57730E+000	9	...........
	92	1.24	1.41886E-001	-3.98608E-004	0.00000E+000	-5.65569E-005	-2.40040E-001	1.41913E-001	3.57730E+000	9	...........
	93	1.25333	1.37090E-001	-3.98581E-004	0.00000E+000	-5.46415E-005	-2.40040E-001	1.37111E-001	3.57730E+000	9	...........
	94	1.26667	1.32376E-001	-3.98677E-004	0.00000E+000	-5.27751E-005	-2.40040E-001	1.32393E-001	3.57730E+000	9	...........
	95	1.28	1.27633E-001	-3.98469E-004	0.00000E+000	-5.08578E-005	-2.40040E-001	1.27656E-001	3.57730E+000	9	...........
	96	1.29333	1.22942E-001	-3.99728E-004	0.00000E+000	-4.91432E-005	-2.40040E-001	1.22969E-001	3.57730E+000	9	...........
	97	1.30667	1.18407E-001	-3.97469E-004	0.00000E+000	-4.70632E-005	-2.40040E-001	1.18430E-001	3.57730E+000	9	...........
	98	1.32	1.13802E-001	-3.99060E-004	0.00000E+000	-4.54139E-005	-2.40040E-001	1.13824E-001	3.57730E+000	9	...........
	99	1.33333	1.09230E-001	-3.98875E-004	0.00000E+000	-4.35692E-005	-2.40040E-001	1.09251E-001	3.57730E+000	9	...........
	100	1.34667	1.04693E-001	-3.99681E-004	0.00000E+000	-4.18437E-005	-2.40040E-001	1.04713E-001	3.57730E+000	9	...........
	101	1.36	1.00005E-001	-3.99368E-004	0.00000E+000	-3.99387E-005	-2.40040E-001	1.00024E-001	3.57730E+000	9	...........
	102	1.37333	9.54779E-002	-3.98724E-004	0.00000E+000	-3.80693E-005	-2.40040E-001	9.54959E-002	3.57730E+000	9	...........
	103	1.38667	9.09829E-002	-3.97780E-004	0.00000E+000	-3.61912E-005	-2.40040E-001	9.09993E-002	3.57730E+000	9	...........
	104	1.4	8.64460E-002	-3.98312E-004	0.00000E+000	-3.44325E-005	-2.40040E-001	8.64621E-002	3.57730E+000	9	...........
	105	1.41333	8.20110E-002	-3.98170E-004	0.00000E+000	-3.26543E-005	-2.40040E-001	8.20250E-002	3.57730E+000	9	...........
	106	1.42667	7.76199E-002	-3.98418E-004	0.00000E+000	-3.09251E-005	-2.40040E-001	7.76320E-002	3.57730E+000	9	...........
	107	1.44	7.32526E-002	-3.99080E-004	0.00000E+000	-2.92337E-005	-2.40040E-001	7.32580E-002	3.57730E+000	9	...........
	108	1.45333	6.88637E-002	-3.98449E-004	0.00000E+000	-2.74387E-005	-2.40040E-001	6.88759E-002	3.57730E+000	9	...........
	109	1.46667	6.44194E-002	-3.99502E-004	0.00000E+000	-2.57357E-005	-2.40040E-001	6.44291E-002	3.57730E+000	9	...........
	110	1.48	6.00103E-002	-3.98699E-004	0.00000E+000	-2.39260E-005	-2.40040E-001	6.00141E-002	3.57730E+000	9	...........
	111	1.49333	5.56947E-002	-3.98399E-004	0.00000E+000	-2.21887E-005	-2.40040E-001	5.56983E-002	3.57730E+000	9	...........
	112	1.50667	5.13688E-002	-3.98821E-004	0.00000E+000	-2.04870E-005	-2.40040E-001	5.13729E-002	3.57730E+000	9	...........
	113	1.52	4.70568E-002	-3.98173E-004	0.00000E+000	-1.87367E-005	-2.40040E-001	4.70668E-002	3.57730E+000	9	...........
	114	1.53333	4.27240E-002	-3.98410E-004	0.00000E+000	-1.70217E-005	-2.40040E-001	4.27372E-002	3.57730E+000	9	...........
	115	1.54667	3.84038E-002	-3.99139E-004	0.00000E+000	-1.53284E-005	-2.40040E-001	3.84044E-002	3.57730E+000	9	...........
	116	1.56	3.42192E-002	-3.98260E-004	0.00000E+000	-1.36282E-005	-2.40040E-001	3.42203E-002	3.57730E+000	9	...........
	117	1.57333	3.00509E-002	-3.97809E-004	0.00000E+000	-1.19545E-005	-2.40040E-001	3.00501E-002	3.57730E+000	9	...........
	118	1.58667	2.58882E-002	-3.99499E-004	0.00000E+000	-1.03423E-005	-2.40040E-001	2.58871E-002	3.57730E+000	9	...........
	119	1.6	2.16835E-002	-3.98815E-004	0.00000E+000	-8.64771E-006	-2.40040E-001	2.16776E-002	3.57730E+000	9	...........
	120	1.61333	1.74471E-002	-3.98766E-004	0.00000E+000	-6.95729E-006	-2.40040E-001	1.74437E-002	3.57730E+000	9	...........
	121	1.62667	1.33163E-002	-3.98705E-004	0.00000E+000	-5.30929E-006	-2.40040E-001	1.33098E-002	3.57730E+000	9	...........
	122	1.64	9.14673E-003	-3.97889E-004	0.00000E+000	-3.63939E-006	-2.40040E-001	9.13498E-003	3.57730E+000	9	...........
	123	1.65333	5.03286E-003	-3.98219E-004	0.00000E+000	-2.00418E-006	-2.40040E-001	5.01709E-003	3.57708E+000	9	...........
	124	1.665	1.22390E-003	-3.99729E-004	0.00000E+000	-4.89228E-007	-2.40040E-001	1.21188E-003	3.57640E+000	9	...........
STARTTIMEOFFSET	QUANT	606.3	Start Time Offset (s)
