EXPLAIN
TAG	PWR800_DISCHARGE
TITLE	LABEL	PWR Cyclic Charge Discharge (Cell) - Discharge Step	Test &Identifier
DATE	LABEL	12-7-2017	Date
TIME	LABEL	15:19:34	Time
NOTES	NOTES	3	&Notes...
	supercap test cell
	0.4mg
	6M KOH
PSTAT	PSTAT	IFC5000-01520	Potentiostat
CAPACITY	QUANT	1.00000E-003	Capacity (A-hr)
CELLTYPE	SELECTOR	1	&Cell Type
WORKINGCONNECTION	SELECTOR	0	&Working Lead
MAXDISCHARGETIME	VARIABLEANDUNITS	1.00000E+002	s	1.00000E+002	second(s)	Max &Discharge Time
DISCHARGEMODE	MULTIPARAM	0	4.00000E-004	&Discharge Mode	Constant Current	Amp(s)
SAMPLETIME	QUANT	1.00000E-002	Sa&mple Period (s)
DISCHARGESTOPAT1	MULTIPARAM	3	0.00000E+000	Discharge Stop At &1	Voltage < Limit	V
DISCHARGESTOPAT2	MULTIPARAM	0	0.00000E+000	Discharge Stop At &2	None	N/A
AESBHCSELECTOR	TOGGLE	F	Save Both Half Cells
IRCOMP	TOGGLE	F	IR &Measure
EOC	QUANT	0	Open Circuit (V)
SEQUENCER	TOGGLE	TRUE	Run as Sequence
PSTATMODEL	IQUANT	53	Pstat Model
PSTATSECTION	LABEL	IFC5000-01520	Pstat Section
PSTATSERIALNO	LABEL	01520	Pstat Serial Number
CTRLMODE	IQUANT	0	Control Mode
ELECTROMETER	IQUANT	1	RE=0 or CS=1
IESTAB	IQUANT	0	I/E Stability
CASPEED	IQUANT	4	Control Amp Speed
CONVENTION	IQUANT	1	Current Convention
ICHRANGE	IQUANT	2	Ich Range
ICHRANGEMODE	TOGGLE	T	Ich Auto Range
ICHOFFSETENABLE	TOGGLE	F	Ich Offset Enable
ICHOFFSET	QUANT	0	Ich Offset (V)
ICHFILTER	IQUANT	1	Ich Filter
VCHRANGE	IQUANT	2	Vch Range
VCHRANGEMODE	TOGGLE	T	Vch Auto Range
VCHOFFSETENABLE	TOGGLE	F	Vch Offset Enable
VCHOFFSET	QUANT	0	Vch Offset (V)
VCHFILTER	IQUANT	1	Vch Filter
IERANGELOWERLIMIT	IQUANT	9	I/E Range Lower Limit
IERANGEMODE	TOGGLE	F	I/E AutoRange
IERANGE	IQUANT	9	I/E Range
ACHSELECT	IQUANT	1	Ach Select
ACHRANGE	IQUANT	2	Ach Range
ACHOFFSETENABLE	TOGGLE	F	Ach Offset Enable
ACHOFFSET	QUANT	0	Ach Offset (V)
ACHFILTER	IQUANT	1	Ach Filter
CABLEID	IQUANT	14	Cable ID
DCCALDATE	LABEL	5-7-2017	DC Calibration Date
ACCALDATE	LABEL	12/3/2015	AC Calibration Date
FRAMEWORKVERSION	QUANT	7.01	Framework Version
INSTRUMENTVERSION	LABEL	4.00	Instrument Version
CURVE	TABLE	102
	Pt	T	Vf	Im	Vu	Pwr	Sig	Ach	Temp	IERange	Over
	#	s	V	A	V	W	V	V	deg C	#	bits
	0	0.013333	6.83095E-001	-3.97928E-004	0.00000E+000	-2.71823E-004	-2.40040E-001	6.83314E-001	3.57640E+000	9	...........
	1	0.026667	6.69296E-001	-3.99351E-004	0.00000E+000	-2.67284E-004	-2.40040E-001	6.69517E-001	3.57640E+000	9	...........
	2	0.04	6.57313E-001	-3.98375E-004	0.00000E+000	-2.61857E-004	-2.40040E-001	6.57527E-001	3.57640E+000	9	...........
	3	0.053333	6.46400E-001	-3.99137E-004	0.00000E+000	-2.58002E-004	-2.40040E-001	6.46642E-001	3.57640E+000	9	...........
	4	0.066667	6.36094E-001	-3.99361E-004	0.00000E+000	-2.54031E-004	-2.40040E-001	6.36326E-001	3.57640E+000	9	...........
	5	0.08	6.26292E-001	-4.00505E-004	0.00000E+000	-2.50833E-004	-2.40040E-001	6.26511E-001	3.57640E+000	9	...........
	6	0.093333	6.16849E-001	-3.97841E-004	0.00000E+000	-2.45408E-004	-2.40040E-001	6.17066E-001	3.57640E+000	9	...........
	7	0.106667	6.07633E-001	-3.97212E-004	0.00000E+000	-2.41359E-004	-2.40040E-001	6.07895E-001	3.57640E+000	9	...........
	8	0.12	5.98660E-001	-3.98384E-004	0.00000E+000	-2.38497E-004	-2.40040E-001	5.98942E-001	3.57640E+000	9	...........
	9	0.133333	5.89892E-001	-3.97830E-004	0.00000E+000	-2.34677E-004	-2.40040E-001	5.90156E-001	3.57640E+000	9	...........
	10	0.146667	5.81236E-001	-3.98529E-004	0.00000E+000	-2.31640E-004	-2.40040E-001	5.81507E-001	3.57640E+000	9	...........
	11	0.16	5.72683E-001	-3.98115E-004	0.00000E+000	-2.27994E-004	-2.40040E-001	5.72927E-001	3.57640E+000	9	...........
	12	0.173333	5.64240E-001	-3.99035E-004	0.00000E+000	-2.25152E-004	-2.40040E-001	5.64489E-001	3.57640E+000	9	...........
	13	0.186667	5.55881E-001	-3.98381E-004	0.00000E+000	-2.21452E-004	-2.40040E-001	5.56120E-001	3.57640E+000	9	...........
	14	0.2	5.47594E-001	-3.99514E-004	0.00000E+000	-2.18771E-004	-2.40040E-001	5.47799E-001	3.57640E+000	9	...........
	15	0.213333	5.39353E-001	-3.98118E-004	0.00000E+000	-2.14726E-004	-2.40040E-001	5.39601E-001	3.57640E+000	9	...........
	16	0.226667	5.31219E-001	-3.98700E-004	0.00000E+000	-2.11797E-004	-2.40040E-001	5.31445E-001	3.57640E+000	9	...........
	17	0.24	5.23171E-001	-3.98942E-004	0.00000E+000	-2.08715E-004	-2.40040E-001	5.23394E-001	3.57640E+000	9	...........
	18	0.253333	5.15159E-001	-3.97300E-004	0.00000E+000	-2.04673E-004	-2.40040E-001	5.15357E-001	3.57640E+000	9	...........
	19	0.266667	5.07174E-001	-3.98933E-004	0.00000E+000	-2.02329E-004	-2.40040E-001	5.07399E-001	3.57640E+000	9	...........
	20	0.28	4.99268E-001	-3.98068E-004	0.00000E+000	-1.98743E-004	-2.40040E-001	4.99491E-001	3.57640E+000	9	...........
	21	0.293333	4.91422E-001	-3.98300E-004	0.00000E+000	-1.95733E-004	-2.40040E-001	4.91638E-001	3.57640E+000	9	...........
	22	0.306667	4.83794E-001	-3.98796E-004	0.00000E+000	-1.92935E-004	-2.40040E-001	4.83917E-001	3.57640E+000	9	...........
	23	0.32	4.76145E-001	-3.98937E-004	0.00000E+000	-1.89952E-004	-2.40040E-001	4.76241E-001	3.57640E+000	9	...........
	24	0.333333	4.68413E-001	-3.99163E-004	0.00000E+000	-1.86973E-004	-2.40040E-001	4.68512E-001	3.57640E+000	9	...........
	25	0.346667	4.60701E-001	-3.98974E-004	0.00000E+000	-1.83808E-004	-2.40040E-001	4.60799E-001	3.57640E+000	9	...........
	26	0.36	4.53046E-001	-4.00159E-004	0.00000E+000	-1.81290E-004	-2.40040E-001	4.53142E-001	3.57640E+000	9	...........
	27	0.373333	4.45517E-001	-3.98353E-004	0.00000E+000	-1.77473E-004	-2.40040E-001	4.45608E-001	3.57640E+000	9	...........
	28	0.386667	4.38019E-001	-3.98837E-004	0.00000E+000	-1.74698E-004	-2.40040E-001	4.38110E-001	3.57640E+000	9	...........
	29	0.4	4.30496E-001	-3.97458E-004	0.00000E+000	-1.71104E-004	-2.40040E-001	4.30589E-001	3.57640E+000	9	...........
	30	0.413333	4.22994E-001	-3.98785E-004	0.00000E+000	-1.68684E-004	-2.40040E-001	4.23084E-001	3.57640E+000	9	...........
	31	0.426667	4.15597E-001	-3.97750E-004	0.00000E+000	-1.65304E-004	-2.40040E-001	4.15683E-001	3.57640E+000	9	...........
	32	0.44	4.08181E-001	-3.98562E-004	0.00000E+000	-1.62686E-004	-2.40040E-001	4.08262E-001	3.57640E+000	9	...........
	33	0.453333	4.00851E-001	-3.97275E-004	0.00000E+000	-1.59248E-004	-2.40040E-001	4.00931E-001	3.57640E+000	9	...........
	34	0.466667	3.93571E-001	-3.99278E-004	0.00000E+000	-1.57144E-004	-2.40040E-001	3.93645E-001	3.57640E+000	9	...........
	35	0.48	3.86367E-001	-3.99341E-004	0.00000E+000	-1.54292E-004	-2.40040E-001	3.86437E-001	3.57640E+000	9	...........
	36	0.493333	3.79178E-001	-3.98789E-004	0.00000E+000	-1.51212E-004	-2.40040E-001	3.79247E-001	3.57640E+000	9	...........
	37	0.506667	3.72028E-001	-3.99230E-004	0.00000E+000	-1.48525E-004	-2.40040E-001	3.72096E-001	3.57640E+000	9	...........
	38	0.52	3.64896E-001	-3.98608E-004	0.00000E+000	-1.45451E-004	-2.40040E-001	3.64966E-001	3.57640E+000	9	...........
	39	0.533333	3.57837E-001	-3.98627E-004	0.00000E+000	-1.42644E-004	-2.40040E-001	3.57905E-001	3.57640E+000	9	...........
	40	0.546667	3.50814E-001	-3.99625E-004	0.00000E+000	-1.40194E-004	-2.40040E-001	3.50875E-001	3.57640E+000	9	...........
	41	0.56	3.43825E-001	-3.98544E-004	0.00000E+000	-1.37029E-004	-2.40040E-001	3.43890E-001	3.57640E+000	9	...........
	42	0.573333	3.36954E-001	-3.98400E-004	0.00000E+000	-1.34242E-004	-2.40040E-001	3.37014E-001	3.57640E+000	9	...........
	43	0.586667	3.30058E-001	-3.97356E-004	0.00000E+000	-1.31150E-004	-2.40040E-001	3.30119E-001	3.57640E+000	9	...........
	44	0.6	3.23280E-001	-3.98419E-004	0.00000E+000	-1.28801E-004	-2.40040E-001	3.23340E-001	3.57640E+000	9	...........
	45	0.613333	3.16483E-001	-3.97408E-004	0.00000E+000	-1.25773E-004	-2.40040E-001	3.16541E-001	3.57640E+000	9	...........
	46	0.626667	3.09764E-001	-3.97581E-004	0.00000E+000	-1.23156E-004	-2.40040E-001	3.09825E-001	3.57640E+000	9	...........
	47	0.64	3.03057E-001	-3.98534E-004	0.00000E+000	-1.20779E-004	-2.40040E-001	3.03114E-001	3.57760E+000	9	...........
	48	0.653333	2.96394E-001	-3.98578E-004	0.00000E+000	-1.18136E-004	-2.40040E-001	2.96452E-001	3.57760E+000	9	...........
	49	0.666667	2.89731E-001	-3.98943E-004	0.00000E+000	-1.15586E-004	-2.40040E-001	2.89780E-001	3.57760E+000	9	...........
	50	0.68	2.83115E-001	-3.98195E-004	0.00000E+000	-1.12735E-004	-2.40040E-001	2.83173E-001	3.57760E+000	9	...........
	51	0.693333	2.76550E-001	-3.99761E-004	0.00000E+000	-1.10554E-004	-2.40040E-001	2.76603E-001	3.57760E+000	9	...........
	52	0.706667	2.70096E-001	-3.97861E-004	0.00000E+000	-1.07461E-004	-2.40040E-001	2.70144E-001	3.57760E+000	9	...........
	53	0.72	2.63681E-001	-3.98786E-004	0.00000E+000	-1.05152E-004	-2.40040E-001	2.63731E-001	3.57760E+000	9	...........
	54	0.733333	2.57255E-001	-3.99363E-004	0.00000E+000	-1.02738E-004	-2.40040E-001	2.57300E-001	3.57760E+000	9	...........
	55	0.746667	2.50905E-001	-3.97855E-004	0.00000E+000	-9.98238E-005	-2.40040E-001	2.50955E-001	3.57760E+000	9	...........
	56	0.76	2.44646E-001	-3.99529E-004	0.00000E+000	-9.77434E-005	-2.40040E-001	2.44695E-001	3.57760E+000	9	...........
	57	0.773333	2.38427E-001	-3.99237E-004	0.00000E+000	-9.51886E-005	-2.40040E-001	2.38468E-001	3.57760E+000	9	...........
	58	0.786667	2.32161E-001	-3.97833E-004	0.00000E+000	-9.23614E-005	-2.40040E-001	2.32203E-001	3.57760E+000	9	...........
	59	0.8	2.25953E-001	-3.99465E-004	0.00000E+000	-9.02604E-005	-2.40040E-001	2.25998E-001	3.57760E+000	9	...........
	60	0.813333	2.19792E-001	-3.98957E-004	0.00000E+000	-8.76877E-005	-2.40040E-001	2.19832E-001	3.57760E+000	9	...........
	61	0.826667	2.13767E-001	-3.99188E-004	0.00000E+000	-8.53332E-005	-2.40040E-001	2.13808E-001	3.57760E+000	9	...........
	62	0.84	2.07758E-001	-4.00247E-004	0.00000E+000	-8.31547E-005	-2.40040E-001	2.07796E-001	3.57760E+000	9	...........
	63	0.853333	2.01781E-001	-3.98814E-004	0.00000E+000	-8.04730E-005	-2.40040E-001	2.01820E-001	3.57760E+000	9	...........
	64	0.866667	1.95790E-001	-3.98026E-004	0.00000E+000	-7.79293E-005	-2.40040E-001	1.95824E-001	3.57760E+000	9	...........
	65	0.88	1.89835E-001	-3.98984E-004	0.00000E+000	-7.57410E-005	-2.40040E-001	1.89871E-001	3.57760E+000	9	...........
	66	0.893333	1.83923E-001	-3.98876E-004	0.00000E+000	-7.33626E-005	-2.40040E-001	1.83959E-001	3.57760E+000	9	...........
	67	0.906667	1.78136E-001	-3.97484E-004	0.00000E+000	-7.08062E-005	-2.40040E-001	1.78171E-001	3.57760E+000	9	...........
	68	0.92	1.72331E-001	-3.97785E-004	0.00000E+000	-6.85506E-005	-2.40040E-001	1.72361E-001	3.57760E+000	9	...........
	69	0.933333	1.66596E-001	-3.99551E-004	0.00000E+000	-6.65635E-005	-2.40040E-001	1.66626E-001	3.57760E+000	9	...........
	70	0.946667	1.60903E-001	-3.97538E-004	0.00000E+000	-6.39651E-005	-2.40040E-001	1.60933E-001	3.57760E+000	9	...........
	71	0.96	1.55181E-001	-3.99511E-004	0.00000E+000	-6.19963E-005	-2.40040E-001	1.55203E-001	3.57760E+000	9	...........
	72	0.97333	1.49593E-001	-3.99065E-004	0.00000E+000	-5.96972E-005	-2.40040E-001	1.49620E-001	3.57760E+000	9	...........
	73	0.98667	1.43964E-001	-3.99894E-004	0.00000E+000	-5.75703E-005	-2.40040E-001	1.43988E-001	3.57760E+000	9	...........
	74	1	1.38393E-001	-3.99741E-004	0.00000E+000	-5.53215E-005	-2.40040E-001	1.38419E-001	3.57760E+000	9	...........
	75	1.01333	1.32982E-001	-3.97735E-004	0.00000E+000	-5.28916E-005	-2.40040E-001	1.33002E-001	3.57760E+000	9	...........
	76	1.02667	1.27478E-001	-3.98777E-004	0.00000E+000	-5.08353E-005	-2.40040E-001	1.27498E-001	3.57760E+000	9	...........
	77	1.04	1.22018E-001	-3.99288E-004	0.00000E+000	-4.87201E-005	-2.40040E-001	1.22037E-001	3.57760E+000	9	...........
	78	1.05333	1.16588E-001	-3.98918E-004	0.00000E+000	-4.65092E-005	-2.40040E-001	1.16612E-001	3.57760E+000	9	...........
	79	1.06667	1.11169E-001	-3.99189E-004	0.00000E+000	-4.43773E-005	-2.40040E-001	1.11193E-001	3.57760E+000	9	...........
	80	1.08	1.05807E-001	-3.99701E-004	0.00000E+000	-4.22911E-005	-2.40040E-001	1.05823E-001	3.57760E+000	9	...........
	81	1.09333	1.00483E-001	-3.96854E-004	0.00000E+000	-3.98772E-005	-2.40040E-001	1.00504E-001	3.57760E+000	9	...........
	82	1.10667	9.52531E-002	-3.98854E-004	0.00000E+000	-3.79921E-005	-2.40040E-001	9.52761E-002	3.57760E+000	9	...........
	83	1.12	9.00155E-002	-3.98555E-004	0.00000E+000	-3.58761E-005	-2.40040E-001	9.00335E-002	3.57760E+000	9	...........
	84	1.13333	8.48604E-002	-3.98442E-004	0.00000E+000	-3.38119E-005	-2.40040E-001	8.48698E-002	3.57760E+000	9	...........
	85	1.14667	7.96955E-002	-3.98687E-004	0.00000E+000	-3.17736E-005	-2.40040E-001	7.97090E-002	3.57760E+000	9	...........
	86	1.16	7.46576E-002	-3.98174E-004	0.00000E+000	-2.97267E-005	-2.40040E-001	7.46651E-002	3.57760E+000	9	...........
	87	1.17333	6.95732E-002	-3.98269E-004	0.00000E+000	-2.77088E-005	-2.40040E-001	6.95815E-002	3.57760E+000	9	...........
	88	1.18667	6.45451E-002	-3.97475E-004	0.00000E+000	-2.56550E-005	-2.40040E-001	6.45529E-002	3.57760E+000	9	...........
	89	1.2	5.95682E-002	-3.98004E-004	0.00000E+000	-2.37084E-005	-2.40040E-001	5.95741E-002	3.57760E+000	9	...........
	90	1.21333	5.45706E-002	-3.98499E-004	0.00000E+000	-2.17463E-005	-2.40040E-001	5.45796E-002	3.57760E+000	9	...........
	91	1.22667	4.96353E-002	-3.98718E-004	0.00000E+000	-1.97905E-005	-2.40040E-001	4.96406E-002	3.57760E+000	9	...........
	92	1.24	4.47437E-002	-4.00291E-004	0.00000E+000	-1.79105E-005	-2.40040E-001	4.47485E-002	3.57760E+000	9	...........
	93	1.25333	3.99153E-002	-3.99566E-004	0.00000E+000	-1.59488E-005	-2.40040E-001	3.99165E-002	3.57760E+000	9	...........
	94	1.26667	3.49621E-002	-3.99066E-004	0.00000E+000	-1.39522E-005	-2.40040E-001	3.49622E-002	3.57760E+000	9	...........
	95	1.28	3.01584E-002	-3.98576E-004	0.00000E+000	-1.20204E-005	-2.40040E-001	3.01566E-002	3.57760E+000	9	...........
	96	1.29333	2.53118E-002	-3.98606E-004	0.00000E+000	-1.00895E-005	-2.40040E-001	2.53101E-002	3.57760E+000	9	...........
	97	1.30667	2.06007E-002	-3.99678E-004	0.00000E+000	-8.23367E-006	-2.40040E-001	2.05881E-002	3.57760E+000	9	...........
	98	1.32	1.58447E-002	-3.99150E-004	0.00000E+000	-6.32440E-006	-2.40040E-001	1.58344E-002	3.57760E+000	9	...........
	99	1.33333	1.11027E-002	-3.98758E-004	0.00000E+000	-4.42727E-006	-2.40040E-001	1.10913E-002	3.57760E+000	9	...........
	100	1.34667	6.43317E-003	-3.97903E-004	0.00000E+000	-2.55978E-006	-2.40040E-001	6.42043E-003	3.57760E+000	9	...........
	101	1.36	1.82078E-003	-3.96917E-004	0.00000E+000	-7.22701E-007	-2.40040E-001	1.80232E-003	3.57760E+000	9	...........
STARTTIMEOFFSET	QUANT	2886.145	Start Time Offset (s)
