EXPLAIN
TAG	PWR800_DISCHARGE
TITLE	LABEL	PWR Cyclic Charge Discharge (Cell) - Discharge Step	Test &Identifier
DATE	LABEL	12-7-2017	Date
TIME	LABEL	15:20:37	Time
NOTES	NOTES	3	&Notes...
	supercap test cell
	0.4mg
	6M KOH
PSTAT	PSTAT	IFC5000-01520	Potentiostat
CAPACITY	QUANT	1.00000E-003	Capacity (A-hr)
CELLTYPE	SELECTOR	1	&Cell Type
WORKINGCONNECTION	SELECTOR	0	&Working Lead
MAXDISCHARGETIME	VARIABLEANDUNITS	1.00000E+002	s	1.00000E+002	second(s)	Max &Discharge Time
DISCHARGEMODE	MULTIPARAM	0	4.00000E-004	&Discharge Mode	Constant Current	Amp(s)
SAMPLETIME	QUANT	1.00000E-002	Sa&mple Period (s)
DISCHARGESTOPAT1	MULTIPARAM	3	0.00000E+000	Discharge Stop At &1	Voltage < Limit	V
DISCHARGESTOPAT2	MULTIPARAM	0	0.00000E+000	Discharge Stop At &2	None	N/A
AESBHCSELECTOR	TOGGLE	F	Save Both Half Cells
IRCOMP	TOGGLE	F	IR &Measure
EOC	QUANT	0	Open Circuit (V)
SEQUENCER	TOGGLE	TRUE	Run as Sequence
PSTATMODEL	IQUANT	53	Pstat Model
PSTATSECTION	LABEL	IFC5000-01520	Pstat Section
PSTATSERIALNO	LABEL	01520	Pstat Serial Number
CTRLMODE	IQUANT	0	Control Mode
ELECTROMETER	IQUANT	1	RE=0 or CS=1
IESTAB	IQUANT	0	I/E Stability
CASPEED	IQUANT	4	Control Amp Speed
CONVENTION	IQUANT	1	Current Convention
ICHRANGE	IQUANT	2	Ich Range
ICHRANGEMODE	TOGGLE	T	Ich Auto Range
ICHOFFSETENABLE	TOGGLE	F	Ich Offset Enable
ICHOFFSET	QUANT	0	Ich Offset (V)
ICHFILTER	IQUANT	1	Ich Filter
VCHRANGE	IQUANT	2	Vch Range
VCHRANGEMODE	TOGGLE	T	Vch Auto Range
VCHOFFSETENABLE	TOGGLE	F	Vch Offset Enable
VCHOFFSET	QUANT	0	Vch Offset (V)
VCHFILTER	IQUANT	1	Vch Filter
IERANGELOWERLIMIT	IQUANT	9	I/E Range Lower Limit
IERANGEMODE	TOGGLE	F	I/E AutoRange
IERANGE	IQUANT	9	I/E Range
ACHSELECT	IQUANT	1	Ach Select
ACHRANGE	IQUANT	2	Ach Range
ACHOFFSETENABLE	TOGGLE	F	Ach Offset Enable
ACHOFFSET	QUANT	0	Ach Offset (V)
ACHFILTER	IQUANT	1	Ach Filter
CABLEID	IQUANT	14	Cable ID
DCCALDATE	LABEL	5-7-2017	DC Calibration Date
ACCALDATE	LABEL	12/3/2015	AC Calibration Date
FRAMEWORKVERSION	QUANT	7.01	Framework Version
INSTRUMENTVERSION	LABEL	4.00	Instrument Version
CURVE	TABLE	102
	Pt	T	Vf	Im	Vu	Pwr	Sig	Ach	Temp	IERange	Over
	#	s	V	A	V	W	V	V	deg C	#	bits
	0	0.013333	6.82482E-001	-3.99524E-004	0.00000E+000	-2.72668E-004	-2.40040E-001	6.82689E-001	3.57650E+000	9	...........
	1	0.026667	6.68690E-001	-3.98560E-004	0.00000E+000	-2.66513E-004	-2.40040E-001	6.68888E-001	3.57650E+000	9	...........
	2	0.04	6.56683E-001	-3.98382E-004	0.00000E+000	-2.61611E-004	-2.40040E-001	6.56879E-001	3.57650E+000	9	...........
	3	0.053333	6.45734E-001	-3.99760E-004	0.00000E+000	-2.58138E-004	-2.40040E-001	6.45933E-001	3.57650E+000	9	...........
	4	0.066667	6.35456E-001	-3.98627E-004	0.00000E+000	-2.53310E-004	-2.40040E-001	6.35653E-001	3.57650E+000	9	...........
	5	0.08	6.25635E-001	-4.00328E-004	0.00000E+000	-2.50460E-004	-2.40040E-001	6.25809E-001	3.57650E+000	9	...........
	6	0.093333	6.16173E-001	-3.98223E-004	0.00000E+000	-2.45374E-004	-2.40040E-001	6.16372E-001	3.57650E+000	9	...........
	7	0.106667	6.06969E-001	-3.98929E-004	0.00000E+000	-2.42138E-004	-2.40040E-001	6.07173E-001	3.57650E+000	9	...........
	8	0.12	5.98005E-001	-3.98969E-004	0.00000E+000	-2.38585E-004	-2.40040E-001	5.98217E-001	3.57650E+000	9	...........
	9	0.133333	5.89190E-001	-3.99225E-004	0.00000E+000	-2.35220E-004	-2.40040E-001	5.89392E-001	3.57650E+000	9	...........
	10	0.146667	5.80502E-001	-3.98866E-004	0.00000E+000	-2.31542E-004	-2.40040E-001	5.80713E-001	3.57650E+000	9	...........
	11	0.16	5.72029E-001	-3.99413E-004	0.00000E+000	-2.28476E-004	-2.40040E-001	5.72225E-001	3.57650E+000	9	...........
	12	0.173333	5.63555E-001	-3.98152E-004	0.00000E+000	-2.24380E-004	-2.40040E-001	5.63787E-001	3.57650E+000	9	...........
	13	0.186667	5.55207E-001	-3.99595E-004	0.00000E+000	-2.21858E-004	-2.40040E-001	5.55431E-001	3.57650E+000	9	...........
	14	0.2	5.46920E-001	-3.96979E-004	0.00000E+000	-2.17116E-004	-2.40040E-001	5.47127E-001	3.57650E+000	9	...........
	15	0.213333	5.38648E-001	-3.99562E-004	0.00000E+000	-2.15223E-004	-2.40040E-001	5.38876E-001	3.57650E+000	9	...........
	16	0.226667	5.30420E-001	-3.97695E-004	0.00000E+000	-2.10945E-004	-2.40040E-001	5.30647E-001	3.57650E+000	9	...........
	17	0.24	5.22293E-001	-3.98817E-004	0.00000E+000	-2.08299E-004	-2.40040E-001	5.22525E-001	3.57650E+000	9	...........
	18	0.253333	5.14284E-001	-3.99068E-004	0.00000E+000	-2.05234E-004	-2.40040E-001	5.14489E-001	3.57650E+000	9	...........
	19	0.266667	5.06147E-001	-3.98855E-004	0.00000E+000	-2.01879E-004	-2.40040E-001	5.06375E-001	3.57650E+000	9	...........
	20	0.28	4.98203E-001	-3.98508E-004	0.00000E+000	-1.98538E-004	-2.40040E-001	4.98423E-001	3.57650E+000	9	...........
	21	0.293333	4.90335E-001	-3.98354E-004	0.00000E+000	-1.95327E-004	-2.40040E-001	4.90571E-001	3.57650E+000	9	...........
	22	0.306667	4.82719E-001	-3.99228E-004	0.00000E+000	-1.92715E-004	-2.40040E-001	4.82849E-001	3.57650E+000	9	...........
	23	0.32	4.74996E-001	-3.98181E-004	0.00000E+000	-1.89134E-004	-2.40040E-001	4.75096E-001	3.57650E+000	9	...........
	24	0.333333	4.67279E-001	-3.97714E-004	0.00000E+000	-1.85843E-004	-2.40040E-001	4.67377E-001	3.57650E+000	9	...........
	25	0.346667	4.59571E-001	-3.99230E-004	0.00000E+000	-1.83475E-004	-2.40040E-001	4.59668E-001	3.57650E+000	9	...........
	26	0.36	4.51879E-001	-3.98438E-004	0.00000E+000	-1.80046E-004	-2.40040E-001	4.51968E-001	3.57650E+000	9	...........
	27	0.373333	4.44290E-001	-3.99428E-004	0.00000E+000	-1.77462E-004	-2.40040E-001	4.44381E-001	3.57650E+000	9	...........
	28	0.386667	4.36749E-001	-3.98184E-004	0.00000E+000	-1.73907E-004	-2.40040E-001	4.36835E-001	3.57650E+000	9	...........
	29	0.4	4.29227E-001	-3.97784E-004	0.00000E+000	-1.70740E-004	-2.40040E-001	4.29309E-001	3.57650E+000	9	...........
	30	0.413333	4.21694E-001	-3.98535E-004	0.00000E+000	-1.68060E-004	-2.40040E-001	4.21777E-001	3.57650E+000	9	...........
	31	0.426667	4.14332E-001	-3.98821E-004	0.00000E+000	-1.65244E-004	-2.40040E-001	4.14415E-001	3.57650E+000	9	...........
	32	0.44	4.06955E-001	-3.99184E-004	0.00000E+000	-1.62450E-004	-2.40040E-001	4.07035E-001	3.57650E+000	9	...........
	33	0.453333	3.99566E-001	-3.99363E-004	0.00000E+000	-1.59572E-004	-2.40040E-001	3.99647E-001	3.57650E+000	9	...........
	34	0.466667	3.92262E-001	-3.97861E-004	0.00000E+000	-1.56066E-004	-2.40040E-001	3.92336E-001	3.57650E+000	9	...........
	35	0.48	3.84891E-001	-3.99020E-004	0.00000E+000	-1.53579E-004	-2.40040E-001	3.84967E-001	3.57650E+000	9	...........
	36	0.493333	3.77615E-001	-3.98522E-004	0.00000E+000	-1.50488E-004	-2.40040E-001	3.77689E-001	3.57650E+000	9	...........
	37	0.506667	3.70415E-001	-3.99624E-004	0.00000E+000	-1.48027E-004	-2.40040E-001	3.70488E-001	3.57650E+000	9	...........
	38	0.52	3.63381E-001	-3.97860E-004	0.00000E+000	-1.44575E-004	-2.40040E-001	3.63451E-001	3.57650E+000	9	...........
	39	0.533333	3.56338E-001	-3.98644E-004	0.00000E+000	-1.42052E-004	-2.40040E-001	3.56406E-001	3.57650E+000	9	...........
	40	0.546667	3.49215E-001	-3.98769E-004	0.00000E+000	-1.39256E-004	-2.40040E-001	3.49285E-001	3.57650E+000	9	...........
	41	0.56	3.42253E-001	-3.98559E-004	0.00000E+000	-1.36408E-004	-2.40040E-001	3.42324E-001	3.57650E+000	9	...........
	42	0.573333	3.35336E-001	-3.98922E-004	0.00000E+000	-1.33773E-004	-2.40040E-001	3.35401E-001	3.57650E+000	9	...........
	43	0.586667	3.28427E-001	-3.98884E-004	0.00000E+000	-1.31004E-004	-2.40040E-001	3.28491E-001	3.57650E+000	9	...........
	44	0.6	3.21642E-001	-3.99056E-004	0.00000E+000	-1.28353E-004	-2.40040E-001	3.21706E-001	3.57650E+000	9	...........
	45	0.613333	3.14849E-001	-3.98935E-004	0.00000E+000	-1.25604E-004	-2.40040E-001	3.14908E-001	3.57650E+000	9	...........
	46	0.626667	3.07977E-001	-3.99687E-004	0.00000E+000	-1.23094E-004	-2.40040E-001	3.08043E-001	3.57650E+000	9	...........
	47	0.64	3.01267E-001	-3.98196E-004	0.00000E+000	-1.19963E-004	-2.40040E-001	3.01325E-001	3.57650E+000	9	...........
	48	0.653333	2.94621E-001	-3.98773E-004	0.00000E+000	-1.17487E-004	-2.40040E-001	2.94678E-001	3.57650E+000	9	...........
	49	0.666667	2.87976E-001	-3.97482E-004	0.00000E+000	-1.14465E-004	-2.40040E-001	2.88037E-001	3.57650E+000	9	...........
	50	0.68	2.81410E-001	-3.99045E-004	0.00000E+000	-1.12295E-004	-2.40040E-001	2.81467E-001	3.57650E+000	9	...........
	51	0.693333	2.74887E-001	-3.98393E-004	0.00000E+000	-1.09513E-004	-2.40040E-001	2.74944E-001	3.57650E+000	9	...........
	52	0.706667	2.68340E-001	-3.98889E-004	0.00000E+000	-1.07038E-004	-2.40040E-001	2.68392E-001	3.57650E+000	9	...........
	53	0.72	2.61922E-001	-3.99116E-004	0.00000E+000	-1.04537E-004	-2.40040E-001	2.61974E-001	3.57650E+000	9	...........
	54	0.733333	2.55514E-001	-3.98874E-004	0.00000E+000	-1.01918E-004	-2.40040E-001	2.55567E-001	3.57650E+000	9	...........
	55	0.746667	2.49115E-001	-3.98916E-004	0.00000E+000	-9.93757E-005	-2.40040E-001	2.49159E-001	3.57650E+000	9	...........
	56	0.76	2.42797E-001	-3.98624E-004	0.00000E+000	-9.67845E-005	-2.40040E-001	2.42848E-001	3.57699E+000	9	...........
	57	0.773333	2.36463E-001	-3.99125E-004	0.00000E+000	-9.43784E-005	-2.40040E-001	2.36507E-001	3.57780E+000	9	...........
	58	0.786667	2.30191E-001	-3.98784E-004	0.00000E+000	-9.17967E-005	-2.40040E-001	2.30228E-001	3.57780E+000	9	...........
	59	0.8	2.24029E-001	-3.97880E-004	0.00000E+000	-8.91368E-005	-2.40040E-001	2.24066E-001	3.57780E+000	9	...........
	60	0.813333	2.17852E-001	-3.99268E-004	0.00000E+000	-8.69811E-005	-2.40040E-001	2.17892E-001	3.57780E+000	9	...........
	61	0.826667	2.11705E-001	-4.00151E-004	0.00000E+000	-8.47141E-005	-2.40040E-001	2.11742E-001	3.57780E+000	9	...........
	62	0.84	2.05641E-001	-3.99848E-004	0.00000E+000	-8.22251E-005	-2.40040E-001	2.05683E-001	3.57780E+000	9	...........
	63	0.853333	1.99664E-001	-3.99663E-004	0.00000E+000	-7.97982E-005	-2.40040E-001	1.99704E-001	3.57780E+000	9	...........
	64	0.866667	1.93706E-001	-3.97588E-004	0.00000E+000	-7.70154E-005	-2.40040E-001	1.93751E-001	3.57780E+000	9	...........
	65	0.88	1.87772E-001	-3.99206E-004	0.00000E+000	-7.49599E-005	-2.40040E-001	1.87810E-001	3.57780E+000	9	...........
	66	0.893333	1.81978E-001	-3.97930E-004	0.00000E+000	-7.24146E-005	-2.40040E-001	1.82016E-001	3.57780E+000	9	...........
	67	0.906667	1.76175E-001	-3.99346E-004	0.00000E+000	-7.03546E-005	-2.40040E-001	1.76207E-001	3.57780E+000	9	...........
	68	0.92	1.70420E-001	-4.00024E-004	0.00000E+000	-6.81720E-005	-2.40040E-001	1.70455E-001	3.57780E+000	9	...........
	69	0.933333	1.64685E-001	-3.98604E-004	0.00000E+000	-6.56439E-005	-2.40040E-001	1.64716E-001	3.57780E+000	9	...........
	70	0.946667	1.58990E-001	-3.98462E-004	0.00000E+000	-6.33515E-005	-2.40040E-001	1.59020E-001	3.57780E+000	9	...........
	71	0.96	1.53269E-001	-3.96985E-004	0.00000E+000	-6.08456E-005	-2.40040E-001	1.53298E-001	3.57780E+000	9	...........
	72	0.97333	1.47636E-001	-3.98755E-004	0.00000E+000	-5.88708E-005	-2.40040E-001	1.47661E-001	3.57780E+000	9	...........
	73	0.98667	1.42120E-001	-3.97195E-004	0.00000E+000	-5.64493E-005	-2.40040E-001	1.42144E-001	3.57780E+000	9	...........
	74	1	1.36546E-001	-3.98667E-004	0.00000E+000	-5.44365E-005	-2.40040E-001	1.36572E-001	3.57780E+000	9	...........
	75	1.01333	1.31004E-001	-3.97441E-004	0.00000E+000	-5.20665E-005	-2.40040E-001	1.31032E-001	3.57780E+000	9	...........
	76	1.02667	1.25546E-001	-3.98678E-004	0.00000E+000	-5.00525E-005	-2.40040E-001	1.25567E-001	3.57780E+000	9	...........
	77	1.04	1.20147E-001	-3.99473E-004	0.00000E+000	-4.79955E-005	-2.40040E-001	1.20176E-001	3.57780E+000	9	...........
	78	1.05333	1.14695E-001	-3.99047E-004	0.00000E+000	-4.57688E-005	-2.40040E-001	1.14720E-001	3.57780E+000	9	...........
	79	1.06667	1.09376E-001	-3.99115E-004	0.00000E+000	-4.36534E-005	-2.40040E-001	1.09397E-001	3.57780E+000	9	...........
	80	1.08	1.04048E-001	-3.98949E-004	0.00000E+000	-4.15099E-005	-2.40040E-001	1.04069E-001	3.57780E+000	9	...........
	81	1.09333	9.87600E-002	-3.99449E-004	0.00000E+000	-3.94496E-005	-2.40040E-001	9.87759E-002	3.57780E+000	9	...........
	82	1.10667	9.35735E-002	-3.98476E-004	0.00000E+000	-3.72868E-005	-2.40040E-001	9.35883E-002	3.57780E+000	9	...........
	83	1.12	8.83745E-002	-3.98719E-004	0.00000E+000	-3.52366E-005	-2.40040E-001	8.83904E-002	3.57780E+000	9	...........
	84	1.13333	8.32529E-002	-3.98619E-004	0.00000E+000	-3.31862E-005	-2.40040E-001	8.32675E-002	3.57780E+000	9	...........
	85	1.14667	7.80721E-002	-3.98361E-004	0.00000E+000	-3.11009E-005	-2.40040E-001	7.80822E-002	3.57780E+000	9	...........
	86	1.16	7.29350E-002	-3.98850E-004	0.00000E+000	-2.90901E-005	-2.40040E-001	7.29397E-002	3.57780E+000	9	...........
	87	1.17333	6.78293E-002	-3.98455E-004	0.00000E+000	-2.70269E-005	-2.40040E-001	6.78368E-002	3.57780E+000	9	...........
	88	1.18667	6.28378E-002	-3.97415E-004	0.00000E+000	-2.49727E-005	-2.40040E-001	6.28500E-002	3.57780E+000	9	...........
	89	1.2	5.76537E-002	-3.98516E-004	0.00000E+000	-2.29759E-005	-2.40040E-001	5.76596E-002	3.57780E+000	9	...........
	90	1.21333	5.26634E-002	-3.96940E-004	0.00000E+000	-2.09042E-005	-2.40040E-001	5.26686E-002	3.57780E+000	9	...........
	91	1.22667	4.77661E-002	-3.99470E-004	0.00000E+000	-1.90811E-005	-2.40040E-001	4.77685E-002	3.57780E+000	9	...........
	92	1.24	4.28544E-002	-3.98671E-004	0.00000E+000	-1.70848E-005	-2.40040E-001	4.28590E-002	3.57780E+000	9	...........
	93	1.25333	3.80619E-002	-4.00177E-004	0.00000E+000	-1.52315E-005	-2.40040E-001	3.80661E-002	3.57780E+000	9	...........
	94	1.26667	3.31295E-002	-3.99777E-004	0.00000E+000	-1.32444E-005	-2.40040E-001	3.31311E-002	3.57780E+000	9	...........
	95	1.28	2.82488E-002	-3.99082E-004	0.00000E+000	-1.12736E-005	-2.40040E-001	2.82472E-002	3.57780E+000	9	...........
	96	1.29333	2.34271E-002	-3.99602E-004	0.00000E+000	-9.36152E-006	-2.40040E-001	2.34216E-002	3.57780E+000	9	...........
	97	1.30667	1.86867E-002	-3.99141E-004	0.00000E+000	-7.45861E-006	-2.40040E-001	1.86772E-002	3.57780E+000	9	...........
	98	1.32	1.40051E-002	-4.00348E-004	0.00000E+000	-5.60693E-006	-2.40040E-001	1.39951E-002	3.57780E+000	9	...........
	99	1.33333	9.28392E-003	-3.98045E-004	0.00000E+000	-3.69542E-006	-2.40040E-001	9.27237E-003	3.57780E+000	9	...........
	100	1.34667	4.55272E-003	-3.97849E-004	0.00000E+000	-1.81129E-006	-2.40040E-001	4.54100E-003	3.57780E+000	9	...........
	101	1.355	6.98876E-004	-3.98648E-004	0.00000E+000	-2.78605E-007	-2.40040E-001	6.79190E-004	3.57780E+000	9	...........
STARTTIMEOFFSET	QUANT	2935.907	Start Time Offset (s)
