EXPLAIN
TAG	PWR800_DISCHARGE
TITLE	LABEL	PWR Cyclic Charge Discharge (Cell) - Discharge Step	Test &Identifier
DATE	LABEL	12-7-2017	Date
TIME	LABEL	14:34:39	Time
NOTES	NOTES	3	&Notes...
	supercap test cell
	0.4mg
	6M KOH
PSTAT	PSTAT	IFC5000-01520	Potentiostat
CAPACITY	QUANT	1.00000E-003	Capacity (A-hr)
CELLTYPE	SELECTOR	1	&Cell Type
WORKINGCONNECTION	SELECTOR	0	&Working Lead
MAXDISCHARGETIME	VARIABLEANDUNITS	1.00000E+002	s	1.00000E+002	second(s)	Max &Discharge Time
DISCHARGEMODE	MULTIPARAM	0	4.00000E-004	&Discharge Mode	Constant Current	Amp(s)
SAMPLETIME	QUANT	1.00000E-002	Sa&mple Period (s)
DISCHARGESTOPAT1	MULTIPARAM	3	0.00000E+000	Discharge Stop At &1	Voltage < Limit	V
DISCHARGESTOPAT2	MULTIPARAM	0	0.00000E+000	Discharge Stop At &2	None	N/A
AESBHCSELECTOR	TOGGLE	F	Save Both Half Cells
IRCOMP	TOGGLE	F	IR &Measure
EOC	QUANT	0	Open Circuit (V)
SEQUENCER	TOGGLE	TRUE	Run as Sequence
PSTATMODEL	IQUANT	53	Pstat Model
PSTATSECTION	LABEL	IFC5000-01520	Pstat Section
PSTATSERIALNO	LABEL	01520	Pstat Serial Number
CTRLMODE	IQUANT	0	Control Mode
ELECTROMETER	IQUANT	1	RE=0 or CS=1
IESTAB	IQUANT	0	I/E Stability
CASPEED	IQUANT	4	Control Amp Speed
CONVENTION	IQUANT	1	Current Convention
ICHRANGE	IQUANT	2	Ich Range
ICHRANGEMODE	TOGGLE	T	Ich Auto Range
ICHOFFSETENABLE	TOGGLE	F	Ich Offset Enable
ICHOFFSET	QUANT	0	Ich Offset (V)
ICHFILTER	IQUANT	1	Ich Filter
VCHRANGE	IQUANT	2	Vch Range
VCHRANGEMODE	TOGGLE	T	Vch Auto Range
VCHOFFSETENABLE	TOGGLE	F	Vch Offset Enable
VCHOFFSET	QUANT	0	Vch Offset (V)
VCHFILTER	IQUANT	1	Vch Filter
IERANGELOWERLIMIT	IQUANT	9	I/E Range Lower Limit
IERANGEMODE	TOGGLE	F	I/E AutoRange
IERANGE	IQUANT	9	I/E Range
ACHSELECT	IQUANT	1	Ach Select
ACHRANGE	IQUANT	2	Ach Range
ACHOFFSETENABLE	TOGGLE	F	Ach Offset Enable
ACHOFFSET	QUANT	0	Ach Offset (V)
ACHFILTER	IQUANT	1	Ach Filter
CABLEID	IQUANT	14	Cable ID
DCCALDATE	LABEL	5-7-2017	DC Calibration Date
ACCALDATE	LABEL	12/3/2015	AC Calibration Date
FRAMEWORKVERSION	QUANT	7.01	Framework Version
INSTRUMENTVERSION	LABEL	4.00	Instrument Version
CURVE	TABLE	123
	Pt	T	Vf	Im	Vu	Pwr	Sig	Ach	Temp	IERange	Over
	#	s	V	A	V	W	V	V	deg C	#	bits
	0	0.013333	7.12047E-001	-3.99203E-004	0.00000E+000	-2.84251E-004	-2.40040E-001	7.12263E-001	3.57610E+000	9	...........
	1	0.026667	7.00500E-001	-3.99289E-004	0.00000E+000	-2.79702E-004	-2.40040E-001	7.00722E-001	3.57610E+000	9	...........
	2	0.04	6.90273E-001	-3.99045E-004	0.00000E+000	-2.75450E-004	-2.40040E-001	6.90478E-001	3.57610E+000	9	...........
	3	0.053333	6.80834E-001	-3.98831E-004	0.00000E+000	-2.71538E-004	-2.40040E-001	6.81059E-001	3.57610E+000	9	...........
	4	0.066667	6.71936E-001	-3.99352E-004	0.00000E+000	-2.68339E-004	-2.40040E-001	6.72127E-001	3.57610E+000	9	...........
	5	0.08	6.63337E-001	-3.98551E-004	0.00000E+000	-2.64373E-004	-2.40040E-001	6.63553E-001	3.57610E+000	9	...........
	6	0.093333	6.55061E-001	-3.98201E-004	0.00000E+000	-2.60846E-004	-2.40040E-001	6.55254E-001	3.57610E+000	9	...........
	7	0.106667	6.46978E-001	-3.99167E-004	0.00000E+000	-2.58252E-004	-2.40040E-001	6.47189E-001	3.57610E+000	9	...........
	8	0.12	6.39049E-001	-3.97791E-004	0.00000E+000	-2.54208E-004	-2.40040E-001	6.39247E-001	3.57610E+000	9	...........
	9	0.133333	6.31266E-001	-3.99222E-004	0.00000E+000	-2.52015E-004	-2.40040E-001	6.31467E-001	3.57610E+000	9	...........
	10	0.146667	6.23616E-001	-3.98062E-004	0.00000E+000	-2.48238E-004	-2.40040E-001	6.23779E-001	3.57610E+000	9	...........
	11	0.16	6.15958E-001	-3.98973E-004	0.00000E+000	-2.45751E-004	-2.40040E-001	6.16163E-001	3.57610E+000	9	...........
	12	0.173333	6.08378E-001	-3.99020E-004	0.00000E+000	-2.42755E-004	-2.40040E-001	6.08603E-001	3.57610E+000	9	...........
	13	0.186667	6.00947E-001	-3.98587E-004	0.00000E+000	-2.39530E-004	-2.40040E-001	6.01152E-001	3.57610E+000	9	...........
	14	0.2	5.93643E-001	-3.98927E-004	0.00000E+000	-2.36820E-004	-2.40040E-001	5.93818E-001	3.57610E+000	9	...........
	15	0.213333	5.86278E-001	-3.98382E-004	0.00000E+000	-2.33563E-004	-2.40040E-001	5.86471E-001	3.57610E+000	9	...........
	16	0.226667	5.79037E-001	-3.98729E-004	0.00000E+000	-2.30879E-004	-2.40040E-001	5.79228E-001	3.57610E+000	9	...........
	17	0.24	5.71874E-001	-3.97294E-004	0.00000E+000	-2.27202E-004	-2.40040E-001	5.72068E-001	3.57610E+000	9	...........
	18	0.253333	5.64751E-001	-3.98363E-004	0.00000E+000	-2.24976E-004	-2.40040E-001	5.64960E-001	3.57610E+000	9	...........
	19	0.266667	5.57618E-001	-3.97577E-004	0.00000E+000	-2.21696E-004	-2.40040E-001	5.57829E-001	3.57610E+000	9	...........
	20	0.28	5.50507E-001	-3.98312E-004	0.00000E+000	-2.19274E-004	-2.40040E-001	5.50722E-001	3.57610E+000	9	...........
	21	0.293333	5.43449E-001	-3.98889E-004	0.00000E+000	-2.16775E-004	-2.40040E-001	5.43664E-001	3.57610E+000	9	...........
	22	0.306667	5.36597E-001	-3.98387E-004	0.00000E+000	-2.13774E-004	-2.40040E-001	5.36805E-001	3.57610E+000	9	...........
	23	0.32	5.29600E-001	-4.00063E-004	0.00000E+000	-2.11873E-004	-2.40040E-001	5.29851E-001	3.57610E+000	9	...........
	24	0.333333	5.22732E-001	-3.98903E-004	0.00000E+000	-2.08519E-004	-2.40040E-001	5.22941E-001	3.57610E+000	9	...........
	25	0.346667	5.15915E-001	-3.99341E-004	0.00000E+000	-2.06026E-004	-2.40040E-001	5.16119E-001	3.57610E+000	9	...........
	26	0.36	5.09051E-001	-3.97842E-004	0.00000E+000	-2.02522E-004	-2.40040E-001	5.09274E-001	3.57610E+000	9	...........
	27	0.373333	5.02197E-001	-3.98307E-004	0.00000E+000	-2.00029E-004	-2.40040E-001	5.02415E-001	3.57610E+000	9	...........
	28	0.386667	4.95433E-001	-3.98886E-004	0.00000E+000	-1.97622E-004	-2.40040E-001	4.95665E-001	3.57610E+000	9	...........
	29	0.4	4.88805E-001	-3.97814E-004	0.00000E+000	-1.94453E-004	-2.40040E-001	4.89001E-001	3.57610E+000	9	...........
	30	0.413333	4.82334E-001	-3.97844E-004	0.00000E+000	-1.91893E-004	-2.40040E-001	4.82424E-001	3.57610E+000	9	...........
	31	0.426667	4.75736E-001	-4.00550E-004	0.00000E+000	-1.90556E-004	-2.40040E-001	4.75829E-001	3.57610E+000	9	...........
	32	0.44	4.69151E-001	-3.98307E-004	0.00000E+000	-1.86866E-004	-2.40040E-001	4.69235E-001	3.57610E+000	9	...........
	33	0.453333	4.62572E-001	-3.99629E-004	0.00000E+000	-1.84857E-004	-2.40040E-001	4.62659E-001	3.57610E+000	9	...........
	34	0.466667	4.56109E-001	-3.98667E-004	0.00000E+000	-1.81835E-004	-2.40040E-001	4.56197E-001	3.57610E+000	9	...........
	35	0.48	4.49580E-001	-3.99547E-004	0.00000E+000	-1.79628E-004	-2.40040E-001	4.49673E-001	3.57610E+000	9	...........
	36	0.493333	4.43047E-001	-3.98442E-004	0.00000E+000	-1.76528E-004	-2.40040E-001	4.43136E-001	3.57610E+000	9	...........
	37	0.506667	4.36566E-001	-3.98809E-004	0.00000E+000	-1.74107E-004	-2.40040E-001	4.36656E-001	3.57610E+000	9	...........
	38	0.52	4.30209E-001	-3.99558E-004	0.00000E+000	-1.71894E-004	-2.40040E-001	4.30298E-001	3.57610E+000	9	...........
	39	0.533333	4.23934E-001	-3.99174E-004	0.00000E+000	-1.69224E-004	-2.40040E-001	4.24019E-001	3.57610E+000	9	...........
	40	0.546667	4.17635E-001	-3.98102E-004	0.00000E+000	-1.66261E-004	-2.40040E-001	4.17721E-001	3.57610E+000	9	...........
	41	0.56	4.11360E-001	-3.99489E-004	0.00000E+000	-1.64334E-004	-2.40040E-001	4.11439E-001	3.57610E+000	9	...........
	42	0.573333	4.05067E-001	-3.98425E-004	0.00000E+000	-1.61389E-004	-2.40040E-001	4.05139E-001	3.57610E+000	9	...........
	43	0.586667	3.98864E-001	-3.99486E-004	0.00000E+000	-1.59340E-004	-2.40040E-001	3.98940E-001	3.57610E+000	9	...........
	44	0.6	3.92694E-001	-3.99974E-004	0.00000E+000	-1.57067E-004	-2.40040E-001	3.92768E-001	3.57610E+000	9	...........
	45	0.613333	3.86564E-001	-3.99265E-004	0.00000E+000	-1.54341E-004	-2.40040E-001	3.86645E-001	3.57610E+000	9	...........
	46	0.626667	3.80463E-001	-3.97402E-004	0.00000E+000	-1.51197E-004	-2.40040E-001	3.80533E-001	3.57610E+000	9	...........
	47	0.64	3.74255E-001	-3.96757E-004	0.00000E+000	-1.48488E-004	-2.40040E-001	3.74328E-001	3.57610E+000	9	...........
	48	0.653333	3.68186E-001	-3.99191E-004	0.00000E+000	-1.46977E-004	-2.40040E-001	3.68257E-001	3.57724E+000	9	...........
	49	0.666667	3.62142E-001	-3.98190E-004	0.00000E+000	-1.44202E-004	-2.40040E-001	3.62216E-001	3.57740E+000	9	...........
	50	0.68	3.56244E-001	-3.99526E-004	0.00000E+000	-1.42329E-004	-2.40040E-001	3.56314E-001	3.57740E+000	9	...........
	51	0.693333	3.50344E-001	-3.98650E-004	0.00000E+000	-1.39665E-004	-2.40040E-001	3.50414E-001	3.57740E+000	9	...........
	52	0.706667	3.44337E-001	-3.99329E-004	0.00000E+000	-1.37504E-004	-2.40040E-001	3.44412E-001	3.57740E+000	9	...........
	53	0.72	3.38391E-001	-3.98496E-004	0.00000E+000	-1.34847E-004	-2.40040E-001	3.38459E-001	3.57740E+000	9	...........
	54	0.733333	3.32575E-001	-3.98332E-004	0.00000E+000	-1.32475E-004	-2.40040E-001	3.32641E-001	3.57740E+000	9	...........
	55	0.746667	3.26771E-001	-3.99065E-004	0.00000E+000	-1.30403E-004	-2.40040E-001	3.26836E-001	3.57740E+000	9	...........
	56	0.76	3.21007E-001	-3.98182E-004	0.00000E+000	-1.27819E-004	-2.40040E-001	3.21071E-001	3.57740E+000	9	...........
	57	0.773333	3.15249E-001	-3.97913E-004	0.00000E+000	-1.25442E-004	-2.40040E-001	3.15309E-001	3.57740E+000	9	...........
	58	0.786667	3.09544E-001	-3.98923E-004	0.00000E+000	-1.23484E-004	-2.40040E-001	3.09608E-001	3.57740E+000	9	...........
	59	0.8	3.03801E-001	-3.98657E-004	0.00000E+000	-1.21113E-004	-2.40040E-001	3.03857E-001	3.57740E+000	9	...........
	60	0.813333	2.98176E-001	-4.00410E-004	0.00000E+000	-1.19393E-004	-2.40040E-001	2.98227E-001	3.57740E+000	9	...........
	61	0.826667	2.92555E-001	-3.97734E-004	0.00000E+000	-1.16359E-004	-2.40040E-001	2.92612E-001	3.57740E+000	9	...........
	62	0.84	2.86943E-001	-3.98981E-004	0.00000E+000	-1.14485E-004	-2.40040E-001	2.86999E-001	3.57740E+000	9	...........
	63	0.853333	2.81366E-001	-3.99454E-004	0.00000E+000	-1.12393E-004	-2.40040E-001	2.81427E-001	3.57740E+000	9	...........
	64	0.866667	2.75795E-001	-3.98540E-004	0.00000E+000	-1.09915E-004	-2.40040E-001	2.75853E-001	3.57740E+000	9	...........
	65	0.88	2.70225E-001	-3.99424E-004	0.00000E+000	-1.07934E-004	-2.40040E-001	2.70280E-001	3.57740E+000	9	...........
	66	0.893333	2.64769E-001	-3.99197E-004	0.00000E+000	-1.05695E-004	-2.40040E-001	2.64826E-001	3.57740E+000	9	...........
	67	0.906667	2.59306E-001	-3.98981E-004	0.00000E+000	-1.03458E-004	-2.40040E-001	2.59358E-001	3.57740E+000	9	...........
	68	0.92	2.53958E-001	-4.00199E-004	0.00000E+000	-1.01634E-004	-2.40040E-001	2.54014E-001	3.57740E+000	9	...........
	69	0.933333	2.48565E-001	-3.98146E-004	0.00000E+000	-9.89652E-005	-2.40040E-001	2.48620E-001	3.57740E+000	9	...........
	70	0.946667	2.43077E-001	-3.99811E-004	0.00000E+000	-9.71847E-005	-2.40040E-001	2.43129E-001	3.57740E+000	9	...........
	71	0.96	2.37711E-001	-3.97779E-004	0.00000E+000	-9.45564E-005	-2.40040E-001	2.37759E-001	3.57740E+000	9	...........
	72	0.97333	2.32461E-001	-3.99880E-004	0.00000E+000	-9.29564E-005	-2.40040E-001	2.32504E-001	3.57740E+000	9	...........
	73	0.98667	2.27224E-001	-3.99947E-004	0.00000E+000	-9.08775E-005	-2.40040E-001	2.27267E-001	3.57740E+000	9	...........
	74	1	2.21859E-001	-3.98231E-004	0.00000E+000	-8.83513E-005	-2.40040E-001	2.21901E-001	3.57740E+000	9	...........
	75	1.01333	2.16545E-001	-3.99402E-004	0.00000E+000	-8.64887E-005	-2.40040E-001	2.16587E-001	3.57740E+000	9	...........
	76	1.02667	2.11325E-001	-3.98760E-004	0.00000E+000	-8.42681E-005	-2.40040E-001	2.11360E-001	3.57740E+000	9	...........
	77	1.04	2.06105E-001	-3.99792E-004	0.00000E+000	-8.23992E-005	-2.40040E-001	2.06139E-001	3.57740E+000	9	...........
	78	1.05333	2.00967E-001	-3.97586E-004	0.00000E+000	-7.99017E-005	-2.40040E-001	2.01005E-001	3.57740E+000	9	...........
	79	1.06667	1.95866E-001	-4.00319E-004	0.00000E+000	-7.84087E-005	-2.40040E-001	1.95899E-001	3.57740E+000	9	...........
	80	1.08	1.90802E-001	-3.98395E-004	0.00000E+000	-7.60145E-005	-2.40040E-001	1.90838E-001	3.57740E+000	9	...........
	81	1.09333	1.85723E-001	-3.99447E-004	0.00000E+000	-7.41866E-005	-2.40040E-001	1.85751E-001	3.57740E+000	9	...........
	82	1.10667	1.80604E-001	-3.98409E-004	0.00000E+000	-7.19544E-005	-2.40040E-001	1.80640E-001	3.57740E+000	9	...........
	83	1.12	1.75545E-001	-3.98239E-004	0.00000E+000	-6.99087E-005	-2.40040E-001	1.75571E-001	3.57740E+000	9	...........
	84	1.13333	1.70575E-001	-3.98560E-004	0.00000E+000	-6.79844E-005	-2.40040E-001	1.70607E-001	3.57740E+000	9	...........
	85	1.14667	1.65617E-001	-3.97509E-004	0.00000E+000	-6.58344E-005	-2.40040E-001	1.65647E-001	3.57740E+000	9	...........
	86	1.16	1.60633E-001	-3.98871E-004	0.00000E+000	-6.40718E-005	-2.40040E-001	1.60664E-001	3.57740E+000	9	...........
	87	1.17333	1.55738E-001	-3.99554E-004	0.00000E+000	-6.22257E-005	-2.40040E-001	1.55769E-001	3.57740E+000	9	...........
	88	1.18667	1.50952E-001	-3.99711E-004	0.00000E+000	-6.03369E-005	-2.40040E-001	1.50979E-001	3.57740E+000	9	...........
	89	1.2	1.46097E-001	-3.98959E-004	0.00000E+000	-5.82869E-005	-2.40040E-001	1.46121E-001	3.57740E+000	9	...........
	90	1.21333	1.41209E-001	-3.97933E-004	0.00000E+000	-5.61916E-005	-2.40040E-001	1.41235E-001	3.57740E+000	9	...........
	91	1.22667	1.36328E-001	-3.99079E-004	0.00000E+000	-5.44056E-005	-2.40040E-001	1.36353E-001	3.57740E+000	9	...........
	92	1.24	1.31515E-001	-3.98523E-004	0.00000E+000	-5.24118E-005	-2.40040E-001	1.31540E-001	3.57740E+000	9	...........
	93	1.25333	1.26776E-001	-3.99162E-004	0.00000E+000	-5.06041E-005	-2.40040E-001	1.26800E-001	3.57740E+000	9	...........
	94	1.26667	1.22010E-001	-3.98798E-004	0.00000E+000	-4.86572E-005	-2.40040E-001	1.22033E-001	3.57740E+000	9	...........
	95	1.28	1.17299E-001	-3.98995E-004	0.00000E+000	-4.68018E-005	-2.40040E-001	1.17324E-001	3.57740E+000	9	...........
	96	1.29333	1.12572E-001	-3.98717E-004	0.00000E+000	-4.48845E-005	-2.40040E-001	1.12592E-001	3.57740E+000	9	...........
	97	1.30667	1.08003E-001	-3.99059E-004	0.00000E+000	-4.30996E-005	-2.40040E-001	1.08022E-001	3.57740E+000	9	...........
	98	1.32	1.03368E-001	-3.98474E-004	0.00000E+000	-4.11894E-005	-2.40040E-001	1.03386E-001	3.57740E+000	9	...........
	99	1.33333	9.87706E-002	-3.99100E-004	0.00000E+000	-3.94194E-005	-2.40040E-001	9.87921E-002	3.57740E+000	9	...........
	100	1.34667	9.42242E-002	-3.98950E-004	0.00000E+000	-3.75907E-005	-2.40040E-001	9.42397E-002	3.57740E+000	9	...........
	101	1.36	8.96495E-002	-3.98687E-004	0.00000E+000	-3.57421E-005	-2.40040E-001	8.96670E-002	3.57740E+000	9	...........
	102	1.37333	8.50898E-002	-4.00223E-004	0.00000E+000	-3.40549E-005	-2.40040E-001	8.50982E-002	3.57740E+000	9	...........
	103	1.38667	8.05517E-002	-3.98130E-004	0.00000E+000	-3.20701E-005	-2.40040E-001	8.05628E-002	3.57740E+000	9	...........
	104	1.4	7.59800E-002	-3.99057E-004	0.00000E+000	-3.03204E-005	-2.40040E-001	7.59865E-002	3.57740E+000	9	...........
	105	1.41333	7.15219E-002	-3.99007E-004	0.00000E+000	-2.85378E-005	-2.40040E-001	7.15335E-002	3.57740E+000	9	...........
	106	1.42667	6.70343E-002	-3.98177E-004	0.00000E+000	-2.66915E-005	-2.40040E-001	6.70393E-002	3.57740E+000	9	...........
	107	1.44	6.25979E-002	-3.99201E-004	0.00000E+000	-2.49891E-005	-2.40040E-001	6.26076E-002	3.57740E+000	9	...........
	108	1.45333	5.82334E-002	-3.99273E-004	0.00000E+000	-2.32510E-005	-2.40040E-001	5.82367E-002	3.57740E+000	9	...........
	109	1.46667	5.38366E-002	-3.98920E-004	0.00000E+000	-2.14765E-005	-2.40040E-001	5.38406E-002	3.57740E+000	9	...........
	110	1.48	4.94019E-002	-3.97833E-004	0.00000E+000	-1.96537E-005	-2.40040E-001	4.94023E-002	3.57740E+000	9	...........
	111	1.49333	4.50824E-002	-3.99995E-004	0.00000E+000	-1.80327E-005	-2.40040E-001	4.50893E-002	3.57740E+000	9	...........
	112	1.50667	4.07716E-002	-3.97987E-004	0.00000E+000	-1.62266E-005	-2.40040E-001	4.07841E-002	3.57740E+000	9	...........
	113	1.52	3.64177E-002	-3.99766E-004	0.00000E+000	-1.45586E-005	-2.40040E-001	3.64243E-002	3.57740E+000	9	...........
	114	1.53333	3.21209E-002	-3.98002E-004	0.00000E+000	-1.27842E-005	-2.40040E-001	3.21245E-002	3.57740E+000	9	...........
	115	1.54667	2.78506E-002	-3.98720E-004	0.00000E+000	-1.11046E-005	-2.40040E-001	2.78519E-002	3.57740E+000	9	...........
	116	1.56	2.36035E-002	-3.98760E-004	0.00000E+000	-9.41214E-006	-2.40040E-001	2.36026E-002	3.57740E+000	9	...........
	117	1.57333	1.93740E-002	-3.97939E-004	0.00000E+000	-7.70967E-006	-2.40040E-001	1.93698E-002	3.57740E+000	9	...........
	118	1.58667	1.51054E-002	-3.98799E-004	0.00000E+000	-6.02403E-006	-2.40040E-001	1.50978E-002	3.57740E+000	9	...........
	119	1.6	1.08800E-002	-3.98839E-004	0.00000E+000	-4.33936E-006	-2.40040E-001	1.08739E-002	3.57740E+000	9	...........
	120	1.61333	6.75929E-003	-3.97643E-004	0.00000E+000	-2.68779E-006	-2.40040E-001	6.74847E-003	3.57740E+000	9	...........
	121	1.62667	2.65220E-003	-3.99069E-004	0.00000E+000	-1.05841E-006	-2.40040E-001	2.63290E-003	3.57740E+000	9	...........
	122	1.63	3.14503E-005	-4.00269E-004	0.00000E+000	-1.25886E-008	-2.40040E-001	1.43216E-005	3.57740E+000	9	...........
STARTTIMEOFFSET	QUANT	772.0635	Start Time Offset (s)
