EXPLAIN
TAG	PWR800_DISCHARGE
TITLE	LABEL	PWR Cyclic Charge Discharge (Cell) - Discharge Step	Test &Identifier
DATE	LABEL	12-7-2017	Date
TIME	LABEL	14:50:17	Time
NOTES	NOTES	3	&Notes...
	supercap test cell
	0.4mg
	6M KOH
PSTAT	PSTAT	IFC5000-01520	Potentiostat
CAPACITY	QUANT	1.00000E-003	Capacity (A-hr)
CELLTYPE	SELECTOR	1	&Cell Type
WORKINGCONNECTION	SELECTOR	0	&Working Lead
MAXDISCHARGETIME	VARIABLEANDUNITS	1.00000E+002	s	1.00000E+002	second(s)	Max &Discharge Time
DISCHARGEMODE	MULTIPARAM	0	4.00000E-004	&Discharge Mode	Constant Current	Amp(s)
SAMPLETIME	QUANT	1.00000E-002	Sa&mple Period (s)
DISCHARGESTOPAT1	MULTIPARAM	3	0.00000E+000	Discharge Stop At &1	Voltage < Limit	V
DISCHARGESTOPAT2	MULTIPARAM	0	0.00000E+000	Discharge Stop At &2	None	N/A
AESBHCSELECTOR	TOGGLE	F	Save Both Half Cells
IRCOMP	TOGGLE	F	IR &Measure
EOC	QUANT	0	Open Circuit (V)
SEQUENCER	TOGGLE	TRUE	Run as Sequence
PSTATMODEL	IQUANT	53	Pstat Model
PSTATSECTION	LABEL	IFC5000-01520	Pstat Section
PSTATSERIALNO	LABEL	01520	Pstat Serial Number
CTRLMODE	IQUANT	0	Control Mode
ELECTROMETER	IQUANT	1	RE=0 or CS=1
IESTAB	IQUANT	0	I/E Stability
CASPEED	IQUANT	4	Control Amp Speed
CONVENTION	IQUANT	1	Current Convention
ICHRANGE	IQUANT	2	Ich Range
ICHRANGEMODE	TOGGLE	T	Ich Auto Range
ICHOFFSETENABLE	TOGGLE	F	Ich Offset Enable
ICHOFFSET	QUANT	0	Ich Offset (V)
ICHFILTER	IQUANT	1	Ich Filter
VCHRANGE	IQUANT	2	Vch Range
VCHRANGEMODE	TOGGLE	T	Vch Auto Range
VCHOFFSETENABLE	TOGGLE	F	Vch Offset Enable
VCHOFFSET	QUANT	0	Vch Offset (V)
VCHFILTER	IQUANT	1	Vch Filter
IERANGELOWERLIMIT	IQUANT	9	I/E Range Lower Limit
IERANGEMODE	TOGGLE	F	I/E AutoRange
IERANGE	IQUANT	9	I/E Range
ACHSELECT	IQUANT	1	Ach Select
ACHRANGE	IQUANT	2	Ach Range
ACHOFFSETENABLE	TOGGLE	F	Ach Offset Enable
ACHOFFSET	QUANT	0	Ach Offset (V)
ACHFILTER	IQUANT	1	Ach Filter
CABLEID	IQUANT	14	Cable ID
DCCALDATE	LABEL	5-7-2017	DC Calibration Date
ACCALDATE	LABEL	12/3/2015	AC Calibration Date
FRAMEWORKVERSION	QUANT	7.01	Framework Version
INSTRUMENTVERSION	LABEL	4.00	Instrument Version
CURVE	TABLE	114
	Pt	T	Vf	Im	Vu	Pwr	Sig	Ach	Temp	IERange	Over
	#	s	V	A	V	W	V	V	deg C	#	bits
	0	0.013333	7.01103E-001	-4.00321E-004	0.00000E+000	-2.80666E-004	-2.40040E-001	7.01331E-001	3.57660E+000	9	...........
	1	0.026667	6.88707E-001	-3.98751E-004	0.00000E+000	-2.74623E-004	-2.40040E-001	6.88944E-001	3.57660E+000	9	...........
	2	0.04	6.77832E-001	-3.97763E-004	0.00000E+000	-2.69617E-004	-2.40040E-001	6.78082E-001	3.57665E+000	9	...........
	3	0.053333	6.67788E-001	-3.99498E-004	0.00000E+000	-2.66780E-004	-2.40040E-001	6.68025E-001	3.57680E+000	9	...........
	4	0.066667	6.58349E-001	-3.98862E-004	0.00000E+000	-2.62591E-004	-2.40040E-001	6.58588E-001	3.57680E+000	9	...........
	5	0.08	6.49268E-001	-3.99095E-004	0.00000E+000	-2.59119E-004	-2.40040E-001	6.49527E-001	3.57680E+000	9	...........
	6	0.093333	6.40561E-001	-3.99653E-004	0.00000E+000	-2.56002E-004	-2.40040E-001	6.40806E-001	3.57680E+000	9	...........
	7	0.106667	6.31967E-001	-3.98556E-004	0.00000E+000	-2.51875E-004	-2.40040E-001	6.32181E-001	3.57680E+000	9	...........
	8	0.12	6.23574E-001	-3.99246E-004	0.00000E+000	-2.48960E-004	-2.40040E-001	6.23764E-001	3.57680E+000	9	...........
	9	0.133333	6.15306E-001	-3.98770E-004	0.00000E+000	-2.45366E-004	-2.40040E-001	6.15521E-001	3.57680E+000	9	...........
	10	0.146667	6.07146E-001	-3.98244E-004	0.00000E+000	-2.41792E-004	-2.40040E-001	6.07388E-001	3.57680E+000	9	...........
	11	0.16	5.99182E-001	-3.99063E-004	0.00000E+000	-2.39111E-004	-2.40040E-001	5.99407E-001	3.57680E+000	9	...........
	12	0.173333	5.91282E-001	-3.99511E-004	0.00000E+000	-2.36224E-004	-2.40040E-001	5.91508E-001	3.57680E+000	9	...........
	13	0.186667	5.83411E-001	-3.98164E-004	0.00000E+000	-2.32293E-004	-2.40040E-001	5.83652E-001	3.57680E+000	9	...........
	14	0.2	5.75715E-001	-3.99020E-004	0.00000E+000	-2.29722E-004	-2.40040E-001	5.75917E-001	3.57680E+000	9	...........
	15	0.213333	5.68014E-001	-3.98629E-004	0.00000E+000	-2.26427E-004	-2.40040E-001	5.68217E-001	3.57680E+000	9	...........
	16	0.226667	5.60370E-001	-3.96757E-004	0.00000E+000	-2.22331E-004	-2.40040E-001	5.60612E-001	3.57680E+000	9	...........
	17	0.24	5.52769E-001	-3.98759E-004	0.00000E+000	-2.20422E-004	-2.40040E-001	5.52990E-001	3.57680E+000	9	...........
	18	0.253333	5.45269E-001	-3.96247E-004	0.00000E+000	-2.16061E-004	-2.40040E-001	5.45480E-001	3.57680E+000	9	...........
	19	0.266667	5.37819E-001	-3.98376E-004	0.00000E+000	-2.14254E-004	-2.40040E-001	5.38055E-001	3.57680E+000	9	...........
	20	0.28	5.30394E-001	-4.00310E-004	0.00000E+000	-2.12322E-004	-2.40040E-001	5.30622E-001	3.57680E+000	9	...........
	21	0.293333	5.23063E-001	-3.99397E-004	0.00000E+000	-2.08910E-004	-2.40040E-001	5.23278E-001	3.57680E+000	9	...........
	22	0.306667	5.15625E-001	-3.98775E-004	0.00000E+000	-2.05618E-004	-2.40040E-001	5.15831E-001	3.57680E+000	9	...........
	23	0.32	5.08256E-001	-3.98886E-004	0.00000E+000	-2.02736E-004	-2.40040E-001	5.08498E-001	3.57680E+000	9	...........
	24	0.333333	5.01080E-001	-3.98857E-004	0.00000E+000	-1.99860E-004	-2.40040E-001	5.01328E-001	3.57680E+000	9	...........
	25	0.346667	4.93941E-001	-3.99005E-004	0.00000E+000	-1.97085E-004	-2.40040E-001	4.94164E-001	3.57680E+000	9	...........
	26	0.36	4.86856E-001	-3.99217E-004	0.00000E+000	-1.94361E-004	-2.40040E-001	4.87015E-001	3.57680E+000	9	...........
	27	0.373333	4.79898E-001	-3.98770E-004	0.00000E+000	-1.91369E-004	-2.40040E-001	4.79991E-001	3.57680E+000	9	...........
	28	0.386667	4.72720E-001	-3.98535E-004	0.00000E+000	-1.88396E-004	-2.40040E-001	4.72813E-001	3.57680E+000	9	...........
	29	0.4	4.65679E-001	-3.97215E-004	0.00000E+000	-1.84975E-004	-2.40040E-001	4.65778E-001	3.57680E+000	9	...........
	30	0.413333	4.58627E-001	-3.99082E-004	0.00000E+000	-1.83030E-004	-2.40040E-001	4.58717E-001	3.57680E+000	9	...........
	31	0.426667	4.51660E-001	-3.98467E-004	0.00000E+000	-1.79971E-004	-2.40040E-001	4.51751E-001	3.57680E+000	9	...........
	32	0.44	4.44636E-001	-3.98696E-004	0.00000E+000	-1.77275E-004	-2.40040E-001	4.44724E-001	3.57680E+000	9	...........
	33	0.453333	4.37681E-001	-3.98103E-004	0.00000E+000	-1.74242E-004	-2.40040E-001	4.37772E-001	3.57680E+000	9	...........
	34	0.466667	4.30825E-001	-3.99354E-004	0.00000E+000	-1.72052E-004	-2.40040E-001	4.30907E-001	3.57680E+000	9	...........
	35	0.48	4.23982E-001	-3.98040E-004	0.00000E+000	-1.68762E-004	-2.40040E-001	4.24066E-001	3.57680E+000	9	...........
	36	0.493333	4.17135E-001	-3.99894E-004	0.00000E+000	-1.66810E-004	-2.40040E-001	4.17222E-001	3.57680E+000	9	...........
	37	0.506667	4.10379E-001	-3.98944E-004	0.00000E+000	-1.63718E-004	-2.40040E-001	4.10464E-001	3.57680E+000	9	...........
	38	0.52	4.03645E-001	-4.00016E-004	0.00000E+000	-1.61465E-004	-2.40040E-001	4.03726E-001	3.57680E+000	9	...........
	39	0.533333	3.97026E-001	-3.98649E-004	0.00000E+000	-1.58274E-004	-2.40040E-001	3.97102E-001	3.57680E+000	9	...........
	40	0.546667	3.90394E-001	-3.99576E-004	0.00000E+000	-1.55992E-004	-2.40040E-001	3.90470E-001	3.57680E+000	9	...........
	41	0.56	3.83866E-001	-3.99951E-004	0.00000E+000	-1.53528E-004	-2.40040E-001	3.83936E-001	3.57680E+000	9	...........
	42	0.573333	3.77264E-001	-3.98019E-004	0.00000E+000	-1.50158E-004	-2.40040E-001	3.77334E-001	3.57680E+000	9	...........
	43	0.586667	3.70673E-001	-3.98724E-004	0.00000E+000	-1.47796E-004	-2.40040E-001	3.70741E-001	3.57680E+000	9	...........
	44	0.6	3.64181E-001	-3.98924E-004	0.00000E+000	-1.45281E-004	-2.40040E-001	3.64254E-001	3.57680E+000	9	...........
	45	0.613333	3.57700E-001	-3.99452E-004	0.00000E+000	-1.42884E-004	-2.40040E-001	3.57766E-001	3.57680E+000	9	...........
	46	0.626667	3.51274E-001	-3.98465E-004	0.00000E+000	-1.39970E-004	-2.40040E-001	3.51344E-001	3.57680E+000	9	...........
	47	0.64	3.44851E-001	-3.99734E-004	0.00000E+000	-1.37848E-004	-2.40040E-001	3.44924E-001	3.57680E+000	9	...........
	48	0.653333	3.38467E-001	-3.99570E-004	0.00000E+000	-1.35241E-004	-2.40040E-001	3.38528E-001	3.57680E+000	9	...........
	49	0.666667	3.32135E-001	-3.98072E-004	0.00000E+000	-1.32214E-004	-2.40040E-001	3.32201E-001	3.57680E+000	9	...........
	50	0.68	3.25861E-001	-3.98457E-004	0.00000E+000	-1.29842E-004	-2.40040E-001	3.25926E-001	3.57680E+000	9	...........
	51	0.693333	3.19620E-001	-3.98774E-004	0.00000E+000	-1.27456E-004	-2.40040E-001	3.19682E-001	3.57680E+000	9	...........
	52	0.706667	3.13497E-001	-3.99738E-004	0.00000E+000	-1.25317E-004	-2.40040E-001	3.13555E-001	3.57680E+000	9	...........
	53	0.72	3.07323E-001	-3.99812E-004	0.00000E+000	-1.22871E-004	-2.40040E-001	3.07385E-001	3.57680E+000	9	...........
	54	0.733333	3.01304E-001	-3.99228E-004	0.00000E+000	-1.20289E-004	-2.40040E-001	3.01363E-001	3.57680E+000	9	...........
	55	0.746667	2.95201E-001	-3.99274E-004	0.00000E+000	-1.17866E-004	-2.40040E-001	2.95258E-001	3.57680E+000	9	...........
	56	0.76	2.89171E-001	-3.98862E-004	0.00000E+000	-1.15340E-004	-2.40040E-001	2.89222E-001	3.57680E+000	9	...........
	57	0.773333	2.83180E-001	-3.98619E-004	0.00000E+000	-1.12881E-004	-2.40040E-001	2.83232E-001	3.57680E+000	9	...........
	58	0.786667	2.77197E-001	-3.99307E-004	0.00000E+000	-1.10687E-004	-2.40040E-001	2.77257E-001	3.57680E+000	9	...........
	59	0.8	2.71295E-001	-3.97225E-004	0.00000E+000	-1.07765E-004	-2.40040E-001	2.71348E-001	3.57680E+000	9	...........
	60	0.813333	2.65378E-001	-3.99405E-004	0.00000E+000	-1.05993E-004	-2.40040E-001	2.65433E-001	3.57680E+000	9	...........
	61	0.826667	2.59576E-001	-3.98015E-004	0.00000E+000	-1.03315E-004	-2.40040E-001	2.59630E-001	3.57680E+000	9	...........
	62	0.84	2.53749E-001	-3.99781E-004	0.00000E+000	-1.01444E-004	-2.40040E-001	2.53805E-001	3.57680E+000	9	...........
	63	0.853333	2.47934E-001	-3.98961E-004	0.00000E+000	-9.89161E-005	-2.40040E-001	2.47985E-001	3.57680E+000	9	...........
	64	0.866667	2.42078E-001	-3.98580E-004	0.00000E+000	-9.64877E-005	-2.40040E-001	2.42122E-001	3.57680E+000	9	...........
	65	0.88	2.36365E-001	-3.99257E-004	0.00000E+000	-9.43703E-005	-2.40040E-001	2.36411E-001	3.57680E+000	9	...........
	66	0.893333	2.30769E-001	-3.98214E-004	0.00000E+000	-9.18957E-005	-2.40040E-001	2.30812E-001	3.57680E+000	9	...........
	67	0.906667	2.25228E-001	-3.98668E-004	0.00000E+000	-8.97910E-005	-2.40040E-001	2.25269E-001	3.57680E+000	9	...........
	68	0.92	2.19599E-001	-3.99373E-004	0.00000E+000	-8.77019E-005	-2.40040E-001	2.19643E-001	3.57680E+000	9	...........
	69	0.933333	2.14011E-001	-3.97615E-004	0.00000E+000	-8.50940E-005	-2.40040E-001	2.14057E-001	3.57680E+000	9	...........
	70	0.946667	2.08477E-001	-3.99287E-004	0.00000E+000	-8.32421E-005	-2.40040E-001	2.08520E-001	3.57680E+000	9	...........
	71	0.96	2.02951E-001	-3.98339E-004	0.00000E+000	-8.08434E-005	-2.40040E-001	2.02995E-001	3.57680E+000	9	...........
	72	0.97333	1.97412E-001	-3.98400E-004	0.00000E+000	-7.86491E-005	-2.40040E-001	1.97454E-001	3.57680E+000	9	...........
	73	0.98667	1.91997E-001	-3.97578E-004	0.00000E+000	-7.63337E-005	-2.40040E-001	1.92036E-001	3.57680E+000	9	...........
	74	1	1.86573E-001	-3.99648E-004	0.00000E+000	-7.45636E-005	-2.40040E-001	1.86607E-001	3.57680E+000	9	...........
	75	1.01333	1.81210E-001	-3.97875E-004	0.00000E+000	-7.20987E-005	-2.40040E-001	1.81240E-001	3.57680E+000	9	...........
	76	1.02667	1.75775E-001	-3.98420E-004	0.00000E+000	-7.00320E-005	-2.40040E-001	1.75807E-001	3.57680E+000	9	...........
	77	1.04	1.70497E-001	-3.99946E-004	0.00000E+000	-6.81897E-005	-2.40040E-001	1.70530E-001	3.57677E+000	9	...........
	78	1.05333	1.65242E-001	-3.98423E-004	0.00000E+000	-6.58362E-005	-2.40040E-001	1.65267E-001	3.57670E+000	9	...........
	79	1.06667	1.60015E-001	-3.98253E-004	0.00000E+000	-6.37263E-005	-2.40040E-001	1.60043E-001	3.57670E+000	9	...........
	80	1.08	1.54834E-001	-3.99488E-004	0.00000E+000	-6.18542E-005	-2.40040E-001	1.54854E-001	3.57670E+000	9	...........
	81	1.09333	1.49709E-001	-3.99386E-004	0.00000E+000	-5.97915E-005	-2.40040E-001	1.49738E-001	3.57670E+000	9	...........
	82	1.10667	1.44563E-001	-3.97355E-004	0.00000E+000	-5.74428E-005	-2.40040E-001	1.44591E-001	3.57670E+000	9	...........
	83	1.12	1.39418E-001	-3.98896E-004	0.00000E+000	-5.56131E-005	-2.40040E-001	1.39442E-001	3.57670E+000	9	...........
	84	1.13333	1.34310E-001	-3.97980E-004	0.00000E+000	-5.34525E-005	-2.40040E-001	1.34330E-001	3.57670E+000	9	...........
	85	1.14667	1.29249E-001	-3.99019E-004	0.00000E+000	-5.15729E-005	-2.40040E-001	1.29266E-001	3.57670E+000	9	...........
	86	1.16	1.24173E-001	-3.97800E-004	0.00000E+000	-4.93961E-005	-2.40040E-001	1.24194E-001	3.57670E+000	9	...........
	87	1.17333	1.19085E-001	-3.99830E-004	0.00000E+000	-4.76137E-005	-2.40040E-001	1.19102E-001	3.57670E+000	9	...........
	88	1.18667	1.14049E-001	-3.98643E-004	0.00000E+000	-4.54647E-005	-2.40040E-001	1.14071E-001	3.57670E+000	9	...........
	89	1.2	1.09082E-001	-3.98352E-004	0.00000E+000	-4.34531E-005	-2.40040E-001	1.09104E-001	3.57670E+000	9	...........
	90	1.21333	1.04153E-001	-3.98465E-004	0.00000E+000	-4.15013E-005	-2.40040E-001	1.04171E-001	3.57670E+000	9	...........
	91	1.22667	9.93038E-002	-3.99314E-004	0.00000E+000	-3.96533E-005	-2.40040E-001	9.93192E-002	3.57670E+000	9	...........
	92	1.24	9.44093E-002	-4.00071E-004	0.00000E+000	-3.77704E-005	-2.40040E-001	9.44273E-002	3.57670E+000	9	...........
	93	1.25333	8.95349E-002	-3.98136E-004	0.00000E+000	-3.56471E-005	-2.40040E-001	8.95531E-002	3.57670E+000	9	...........
	94	1.26667	8.46910E-002	-3.98861E-004	0.00000E+000	-3.37800E-005	-2.40040E-001	8.47037E-002	3.57670E+000	9	...........
	95	1.28	7.99013E-002	-3.99223E-004	0.00000E+000	-3.18984E-005	-2.40040E-001	7.99139E-002	3.57670E+000	9	...........
	96	1.29333	7.51822E-002	-3.98197E-004	0.00000E+000	-2.99373E-005	-2.40040E-001	7.51900E-002	3.57670E+000	9	...........
	97	1.30667	7.03829E-002	-3.99791E-004	0.00000E+000	-2.81384E-005	-2.40040E-001	7.03851E-002	3.57670E+000	9	...........
	98	1.32	6.56404E-002	-3.98509E-004	0.00000E+000	-2.61583E-005	-2.40040E-001	6.56434E-002	3.57670E+000	9	...........
	99	1.33333	6.09301E-002	-3.98559E-004	0.00000E+000	-2.42843E-005	-2.40040E-001	6.09344E-002	3.57670E+000	9	...........
	100	1.34667	5.63305E-002	-3.99543E-004	0.00000E+000	-2.25065E-005	-2.40040E-001	5.63359E-002	3.57670E+000	9	...........
	101	1.36	5.17479E-002	-3.99571E-004	0.00000E+000	-2.06770E-005	-2.40040E-001	5.17505E-002	3.57670E+000	9	...........
	102	1.37333	4.71636E-002	-3.97971E-004	0.00000E+000	-1.87697E-005	-2.40040E-001	4.71685E-002	3.57670E+000	9	...........
	103	1.38667	4.26497E-002	-4.00082E-004	0.00000E+000	-1.70634E-005	-2.40040E-001	4.26555E-002	3.57670E+000	9	...........
	104	1.4	3.80908E-002	-3.98486E-004	0.00000E+000	-1.51787E-005	-2.40040E-001	3.80964E-002	3.57670E+000	9	...........
	105	1.41333	3.35373E-002	-3.98683E-004	0.00000E+000	-1.33708E-005	-2.40040E-001	3.35367E-002	3.57670E+000	9	...........
	106	1.42667	2.89477E-002	-3.99572E-004	0.00000E+000	-1.15667E-005	-2.40040E-001	2.89510E-002	3.57670E+000	9	...........
	107	1.44	2.45228E-002	-3.98441E-004	0.00000E+000	-9.77087E-006	-2.40040E-001	2.45176E-002	3.57670E+000	9	...........
	108	1.45333	2.00767E-002	-3.99128E-004	0.00000E+000	-8.01319E-006	-2.40040E-001	2.00761E-002	3.57670E+000	9	...........
	109	1.46667	1.56026E-002	-3.99753E-004	0.00000E+000	-6.23718E-006	-2.40040E-001	1.55908E-002	3.57670E+000	9	...........
	110	1.48	1.12002E-002	-3.98157E-004	0.00000E+000	-4.45945E-006	-2.40040E-001	1.11863E-002	3.57670E+000	9	...........
	111	1.49333	6.86623E-003	-3.99301E-004	0.00000E+000	-2.74169E-006	-2.40040E-001	6.84615E-003	3.57670E+000	9	...........
	112	1.50667	2.53579E-003	-3.98237E-004	0.00000E+000	-1.00984E-006	-2.40040E-001	2.52101E-003	3.57670E+000	9	...........
	113	1.51	-1.08604E-004	-4.00157E-004	0.00000E+000	4.34586E-008	-2.40040E-001	-1.31889E-004	3.57670E+000	9	...........
STARTTIMEOFFSET	QUANT	1515.28	Start Time Offset (s)
