EXPLAIN
TAG	PWR800_DISCHARGE
TITLE	LABEL	PWR Cyclic Charge Discharge (Cell) - Discharge Step	Test &Identifier
DATE	LABEL	12-7-2017	Date
TIME	LABEL	14:29:49	Time
NOTES	NOTES	3	&Notes...
	supercap test cell
	0.4mg
	6M KOH
PSTAT	PSTAT	IFC5000-01520	Potentiostat
CAPACITY	QUANT	1.00000E-003	Capacity (A-hr)
CELLTYPE	SELECTOR	1	&Cell Type
WORKINGCONNECTION	SELECTOR	0	&Working Lead
MAXDISCHARGETIME	VARIABLEANDUNITS	1.00000E+002	s	1.00000E+002	second(s)	Max &Discharge Time
DISCHARGEMODE	MULTIPARAM	0	4.00000E-004	&Discharge Mode	Constant Current	Amp(s)
SAMPLETIME	QUANT	1.00000E-002	Sa&mple Period (s)
DISCHARGESTOPAT1	MULTIPARAM	3	0.00000E+000	Discharge Stop At &1	Voltage < Limit	V
DISCHARGESTOPAT2	MULTIPARAM	0	0.00000E+000	Discharge Stop At &2	None	N/A
AESBHCSELECTOR	TOGGLE	F	Save Both Half Cells
IRCOMP	TOGGLE	F	IR &Measure
EOC	QUANT	0	Open Circuit (V)
SEQUENCER	TOGGLE	TRUE	Run as Sequence
PSTATMODEL	IQUANT	53	Pstat Model
PSTATSECTION	LABEL	IFC5000-01520	Pstat Section
PSTATSERIALNO	LABEL	01520	Pstat Serial Number
CTRLMODE	IQUANT	0	Control Mode
ELECTROMETER	IQUANT	1	RE=0 or CS=1
IESTAB	IQUANT	0	I/E Stability
CASPEED	IQUANT	4	Control Amp Speed
CONVENTION	IQUANT	1	Current Convention
ICHRANGE	IQUANT	2	Ich Range
ICHRANGEMODE	TOGGLE	T	Ich Auto Range
ICHOFFSETENABLE	TOGGLE	F	Ich Offset Enable
ICHOFFSET	QUANT	0	Ich Offset (V)
ICHFILTER	IQUANT	1	Ich Filter
VCHRANGE	IQUANT	2	Vch Range
VCHRANGEMODE	TOGGLE	T	Vch Auto Range
VCHOFFSETENABLE	TOGGLE	F	Vch Offset Enable
VCHOFFSET	QUANT	0	Vch Offset (V)
VCHFILTER	IQUANT	1	Vch Filter
IERANGELOWERLIMIT	IQUANT	9	I/E Range Lower Limit
IERANGEMODE	TOGGLE	F	I/E AutoRange
IERANGE	IQUANT	9	I/E Range
ACHSELECT	IQUANT	1	Ach Select
ACHRANGE	IQUANT	2	Ach Range
ACHOFFSETENABLE	TOGGLE	F	Ach Offset Enable
ACHOFFSET	QUANT	0	Ach Offset (V)
ACHFILTER	IQUANT	1	Ach Filter
CABLEID	IQUANT	14	Cable ID
DCCALDATE	LABEL	5-7-2017	DC Calibration Date
ACCALDATE	LABEL	12/3/2015	AC Calibration Date
FRAMEWORKVERSION	QUANT	7.01	Framework Version
INSTRUMENTVERSION	LABEL	4.00	Instrument Version
CURVE	TABLE	127
	Pt	T	Vf	Im	Vu	Pwr	Sig	Ach	Temp	IERange	Over
	#	s	V	A	V	W	V	V	deg C	#	bits
	0	0.013333	7.17205E-001	-3.98174E-004	0.00000E+000	-2.85572E-004	-2.40040E-001	7.17438E-001	3.57640E+000	9	...........
	1	0.026667	7.05824E-001	-3.98217E-004	0.00000E+000	-2.81071E-004	-2.40040E-001	7.06082E-001	3.57602E+000	9	...........
	2	0.04	6.95761E-001	-3.99288E-004	0.00000E+000	-2.77809E-004	-2.40040E-001	6.96005E-001	3.57590E+000	9	...........
	3	0.053333	6.86486E-001	-3.99995E-004	0.00000E+000	-2.74591E-004	-2.40040E-001	6.86718E-001	3.57590E+000	9	...........
	4	0.066667	6.77784E-001	-3.98068E-004	0.00000E+000	-2.69804E-004	-2.40040E-001	6.78020E-001	3.57590E+000	9	...........
	5	0.08	6.69400E-001	-3.99058E-004	0.00000E+000	-2.67130E-004	-2.40040E-001	6.69642E-001	3.57590E+000	9	...........
	6	0.093333	6.61221E-001	-3.97875E-004	0.00000E+000	-2.63083E-004	-2.40040E-001	6.61425E-001	3.57590E+000	9	...........
	7	0.106667	6.53282E-001	-3.99073E-004	0.00000E+000	-2.60707E-004	-2.40040E-001	6.53492E-001	3.57590E+000	9	...........
	8	0.12	6.45474E-001	-3.98723E-004	0.00000E+000	-2.57365E-004	-2.40040E-001	6.45712E-001	3.57590E+000	9	...........
	9	0.133333	6.37935E-001	-3.98735E-004	0.00000E+000	-2.54367E-004	-2.40040E-001	6.38161E-001	3.57590E+000	9	...........
	10	0.146667	6.30368E-001	-3.98603E-004	0.00000E+000	-2.51267E-004	-2.40040E-001	6.30604E-001	3.57590E+000	9	...........
	11	0.16	6.23023E-001	-3.98552E-004	0.00000E+000	-2.48307E-004	-2.40040E-001	6.23227E-001	3.57590E+000	9	...........
	12	0.173333	6.15688E-001	-3.99452E-004	0.00000E+000	-2.45938E-004	-2.40040E-001	6.15936E-001	3.57590E+000	9	...........
	13	0.186667	6.08378E-001	-3.98367E-004	0.00000E+000	-2.42357E-004	-2.40040E-001	6.08639E-001	3.57590E+000	9	...........
	14	0.2	6.01164E-001	-3.98361E-004	0.00000E+000	-2.39480E-004	-2.40040E-001	6.01416E-001	3.57590E+000	9	...........
	15	0.213333	5.94073E-001	-3.97688E-004	0.00000E+000	-2.36256E-004	-2.40040E-001	5.94308E-001	3.57590E+000	9	...........
	16	0.226667	5.86962E-001	-3.97596E-004	0.00000E+000	-2.33374E-004	-2.40040E-001	5.87216E-001	3.57590E+000	9	...........
	17	0.24	5.79926E-001	-3.99402E-004	0.00000E+000	-2.31624E-004	-2.40040E-001	5.80168E-001	3.57590E+000	9	...........
	18	0.253333	5.72959E-001	-3.99542E-004	0.00000E+000	-2.28921E-004	-2.40040E-001	5.73161E-001	3.57590E+000	9	...........
	19	0.266667	5.66043E-001	-3.99790E-004	0.00000E+000	-2.26298E-004	-2.40040E-001	5.66281E-001	3.57590E+000	9	...........
	20	0.28	5.59096E-001	-3.97381E-004	0.00000E+000	-2.22174E-004	-2.40040E-001	5.59341E-001	3.57590E+000	9	...........
	21	0.293333	5.52267E-001	-3.99035E-004	0.00000E+000	-2.20374E-004	-2.40040E-001	5.52527E-001	3.57590E+000	9	...........
	22	0.306667	5.45427E-001	-3.98654E-004	0.00000E+000	-2.17437E-004	-2.40040E-001	5.45656E-001	3.57590E+000	9	...........
	23	0.32	5.38619E-001	-3.99739E-004	0.00000E+000	-2.15307E-004	-2.40040E-001	5.38857E-001	3.57590E+000	9	...........
	24	0.333333	5.31873E-001	-3.99124E-004	0.00000E+000	-2.12283E-004	-2.40040E-001	5.32119E-001	3.57590E+000	9	...........
	25	0.346667	5.25165E-001	-3.99478E-004	0.00000E+000	-2.09792E-004	-2.40040E-001	5.25409E-001	3.57590E+000	9	...........
	26	0.36	5.18537E-001	-3.99277E-004	0.00000E+000	-2.07040E-004	-2.40040E-001	5.18769E-001	3.57590E+000	9	...........
	27	0.373333	5.11993E-001	-3.98305E-004	0.00000E+000	-2.03929E-004	-2.40040E-001	5.12201E-001	3.57590E+000	9	...........
	28	0.386667	5.05369E-001	-3.98774E-004	0.00000E+000	-2.01528E-004	-2.40040E-001	5.05624E-001	3.57590E+000	9	...........
	29	0.4	4.98852E-001	-3.99359E-004	0.00000E+000	-1.99221E-004	-2.40040E-001	4.99085E-001	3.57590E+000	9	...........
	30	0.413333	4.92317E-001	-3.99065E-004	0.00000E+000	-1.96466E-004	-2.40040E-001	4.92526E-001	3.57590E+000	9	...........
	31	0.426667	4.85965E-001	-3.97598E-004	0.00000E+000	-1.93218E-004	-2.40040E-001	4.86099E-001	3.57590E+000	9	...........
	32	0.44	4.79618E-001	-3.98063E-004	0.00000E+000	-1.90918E-004	-2.40040E-001	4.79716E-001	3.57590E+000	9	...........
	33	0.453333	4.73215E-001	-3.97699E-004	0.00000E+000	-1.88197E-004	-2.40040E-001	4.73307E-001	3.57590E+000	9	...........
	34	0.466667	4.66733E-001	-3.99153E-004	0.00000E+000	-1.86298E-004	-2.40040E-001	4.66826E-001	3.57590E+000	9	...........
	35	0.48	4.60451E-001	-3.98206E-004	0.00000E+000	-1.83355E-004	-2.40040E-001	4.60548E-001	3.57590E+000	9	...........
	36	0.493333	4.54158E-001	-3.98139E-004	0.00000E+000	-1.80818E-004	-2.40040E-001	4.54243E-001	3.57590E+000	9	...........
	37	0.506667	4.47910E-001	-4.00431E-004	0.00000E+000	-1.79357E-004	-2.40040E-001	4.48001E-001	3.57590E+000	9	...........
	38	0.52	4.41626E-001	-3.98821E-004	0.00000E+000	-1.76130E-004	-2.40040E-001	4.41715E-001	3.57590E+000	9	...........
	39	0.533333	4.35433E-001	-3.98318E-004	0.00000E+000	-1.73441E-004	-2.40040E-001	4.35523E-001	3.57590E+000	9	...........
	40	0.546667	4.29212E-001	-3.98446E-004	0.00000E+000	-1.71018E-004	-2.40040E-001	4.29301E-001	3.57590E+000	9	...........
	41	0.56	4.23071E-001	-3.99127E-004	0.00000E+000	-1.68859E-004	-2.40040E-001	4.23155E-001	3.57590E+000	9	...........
	42	0.573333	4.16963E-001	-3.99067E-004	0.00000E+000	-1.66396E-004	-2.40040E-001	4.17041E-001	3.57590E+000	9	...........
	43	0.586667	4.10780E-001	-3.98118E-004	0.00000E+000	-1.63539E-004	-2.40040E-001	4.10853E-001	3.57590E+000	9	...........
	44	0.6	4.04744E-001	-3.99217E-004	0.00000E+000	-1.61581E-004	-2.40040E-001	4.04820E-001	3.57590E+000	9	...........
	45	0.613333	3.98690E-001	-3.99303E-004	0.00000E+000	-1.59198E-004	-2.40040E-001	3.98761E-001	3.57590E+000	9	...........
	46	0.626667	3.92643E-001	-3.98118E-004	0.00000E+000	-1.56318E-004	-2.40040E-001	3.92718E-001	3.57590E+000	9	...........
	47	0.64	3.86643E-001	-3.99191E-004	0.00000E+000	-1.54344E-004	-2.40040E-001	3.86718E-001	3.57590E+000	9	...........
	48	0.653333	3.80631E-001	-3.98648E-004	0.00000E+000	-1.51738E-004	-2.40040E-001	3.80705E-001	3.57590E+000	9	...........
	49	0.666667	3.74732E-001	-3.98910E-004	0.00000E+000	-1.49485E-004	-2.40040E-001	3.74803E-001	3.57590E+000	9	...........
	50	0.68	3.68906E-001	-4.00949E-004	0.00000E+000	-1.47913E-004	-2.40040E-001	3.68982E-001	3.57590E+000	9	...........
	51	0.693333	3.63042E-001	-3.98583E-004	0.00000E+000	-1.44703E-004	-2.40040E-001	3.63113E-001	3.57590E+000	9	...........
	52	0.706667	3.57211E-001	-3.98382E-004	0.00000E+000	-1.42307E-004	-2.40040E-001	3.57276E-001	3.57590E+000	9	...........
	53	0.72	3.51373E-001	-3.98576E-004	0.00000E+000	-1.40049E-004	-2.40040E-001	3.51440E-001	3.57590E+000	9	...........
	54	0.733333	3.45565E-001	-3.99797E-004	0.00000E+000	-1.38156E-004	-2.40040E-001	3.45631E-001	3.57590E+000	9	...........
	55	0.746667	3.39858E-001	-3.99802E-004	0.00000E+000	-1.35876E-004	-2.40040E-001	3.39920E-001	3.57590E+000	9	...........
	56	0.76	3.34189E-001	-3.98325E-004	0.00000E+000	-1.33116E-004	-2.40040E-001	3.34249E-001	3.57590E+000	9	...........
	57	0.773333	3.28579E-001	-3.97257E-004	0.00000E+000	-1.30530E-004	-2.40040E-001	3.28643E-001	3.57590E+000	9	...........
	58	0.786667	3.22966E-001	-3.98092E-004	0.00000E+000	-1.28570E-004	-2.40040E-001	3.23023E-001	3.57590E+000	9	...........
	59	0.8	3.17377E-001	-3.98819E-004	0.00000E+000	-1.26576E-004	-2.40040E-001	3.17436E-001	3.57590E+000	9	...........
	60	0.813333	3.11859E-001	-3.99846E-004	0.00000E+000	-1.24695E-004	-2.40040E-001	3.11914E-001	3.57590E+000	9	...........
	61	0.826667	3.06333E-001	-3.98125E-004	0.00000E+000	-1.21959E-004	-2.40040E-001	3.06395E-001	3.57590E+000	9	...........
	62	0.84	3.00704E-001	-3.99133E-004	0.00000E+000	-1.20021E-004	-2.40040E-001	3.00760E-001	3.57590E+000	9	...........
	63	0.853333	2.95154E-001	-3.98591E-004	0.00000E+000	-1.17645E-004	-2.40040E-001	2.95215E-001	3.57590E+000	9	...........
	64	0.866667	2.89643E-001	-3.99070E-004	0.00000E+000	-1.15588E-004	-2.40040E-001	2.89699E-001	3.57590E+000	9	...........
	65	0.88	2.84200E-001	-3.98804E-004	0.00000E+000	-1.13340E-004	-2.40040E-001	2.84260E-001	3.57590E+000	9	...........
	66	0.893333	2.78802E-001	-3.99421E-004	0.00000E+000	-1.11359E-004	-2.40040E-001	2.78862E-001	3.57590E+000	9	...........
	67	0.906667	2.73432E-001	-3.99235E-004	0.00000E+000	-1.09164E-004	-2.40040E-001	2.73491E-001	3.57590E+000	9	...........
	68	0.92	2.68041E-001	-3.98548E-004	0.00000E+000	-1.06827E-004	-2.40040E-001	2.68102E-001	3.57590E+000	9	...........
	69	0.933333	2.62704E-001	-3.99910E-004	0.00000E+000	-1.05058E-004	-2.40040E-001	2.62758E-001	3.57590E+000	9	...........
	70	0.946667	2.57364E-001	-3.99090E-004	0.00000E+000	-1.02711E-004	-2.40040E-001	2.57420E-001	3.57590E+000	9	...........
	71	0.96	2.52049E-001	-3.98348E-004	0.00000E+000	-1.00403E-004	-2.40040E-001	2.52101E-001	3.57590E+000	9	...........
	72	0.97333	2.46790E-001	-3.99944E-004	0.00000E+000	-9.87022E-005	-2.40040E-001	2.46841E-001	3.57590E+000	9	...........
	73	0.98667	2.41589E-001	-3.98413E-004	0.00000E+000	-9.62523E-005	-2.40040E-001	2.41636E-001	3.57590E+000	9	...........
	74	1	2.36326E-001	-3.97881E-004	0.00000E+000	-9.40297E-005	-2.40040E-001	2.36367E-001	3.57590E+000	9	...........
	75	1.01333	2.31193E-001	-3.97924E-004	0.00000E+000	-9.19970E-005	-2.40040E-001	2.31236E-001	3.57590E+000	9	...........
	76	1.02667	2.26015E-001	-3.98254E-004	0.00000E+000	-9.00113E-005	-2.40040E-001	2.26051E-001	3.57597E+000	9	...........
	77	1.04	2.20875E-001	-3.98378E-004	0.00000E+000	-8.79918E-005	-2.40040E-001	2.20912E-001	3.57600E+000	9	...........
	78	1.05333	2.15748E-001	-3.98484E-004	0.00000E+000	-8.59721E-005	-2.40040E-001	2.15789E-001	3.57600E+000	9	...........
	79	1.06667	2.10695E-001	-3.99443E-004	0.00000E+000	-8.41607E-005	-2.40040E-001	2.10733E-001	3.57600E+000	9	...........
	80	1.08	2.05577E-001	-3.98193E-004	0.00000E+000	-8.18594E-005	-2.40040E-001	2.05615E-001	3.57600E+000	9	...........
	81	1.09333	2.00550E-001	-3.97945E-004	0.00000E+000	-7.98076E-005	-2.40040E-001	2.00588E-001	3.57600E+000	9	...........
	82	1.10667	1.95630E-001	-3.98454E-004	0.00000E+000	-7.79494E-005	-2.40040E-001	1.95662E-001	3.57600E+000	9	...........
	83	1.12	1.90738E-001	-3.97774E-004	0.00000E+000	-7.58706E-005	-2.40040E-001	1.90775E-001	3.57600E+000	9	...........
	84	1.13333	1.85737E-001	-3.98504E-004	0.00000E+000	-7.40169E-005	-2.40040E-001	1.85775E-001	3.57600E+000	9	...........
	85	1.14667	1.80874E-001	-3.99278E-004	0.00000E+000	-7.22192E-005	-2.40040E-001	1.80912E-001	3.57600E+000	9	...........
	86	1.16	1.75921E-001	-3.98090E-004	0.00000E+000	-7.00326E-005	-2.40040E-001	1.75954E-001	3.57600E+000	9	...........
	87	1.17333	1.71043E-001	-3.98544E-004	0.00000E+000	-6.81681E-005	-2.40040E-001	1.71078E-001	3.57600E+000	9	...........
	88	1.18667	1.66262E-001	-3.98866E-004	0.00000E+000	-6.63162E-005	-2.40040E-001	1.66294E-001	3.57600E+000	9	...........
	89	1.2	1.61431E-001	-3.99093E-004	0.00000E+000	-6.44261E-005	-2.40040E-001	1.61463E-001	3.57600E+000	9	...........
	90	1.21333	1.56669E-001	-4.00257E-004	0.00000E+000	-6.27078E-005	-2.40040E-001	1.56698E-001	3.57600E+000	9	...........
	91	1.22667	1.51952E-001	-3.98353E-004	0.00000E+000	-6.05305E-005	-2.40040E-001	1.51974E-001	3.57600E+000	9	...........
	92	1.24	1.47129E-001	-3.98887E-004	0.00000E+000	-5.86878E-005	-2.40040E-001	1.47157E-001	3.57600E+000	9	...........
	93	1.25333	1.42449E-001	-3.98892E-004	0.00000E+000	-5.68216E-005	-2.40040E-001	1.42477E-001	3.57600E+000	9	...........
	94	1.26667	1.37725E-001	-3.99118E-004	0.00000E+000	-5.49683E-005	-2.40040E-001	1.37749E-001	3.57600E+000	9	...........
	95	1.28	1.33031E-001	-3.98808E-004	0.00000E+000	-5.30539E-005	-2.40040E-001	1.33059E-001	3.57600E+000	9	...........
	96	1.29333	1.28385E-001	-3.98313E-004	0.00000E+000	-5.11374E-005	-2.40040E-001	1.28408E-001	3.57600E+000	9	...........
	97	1.30667	1.23753E-001	-3.98047E-004	0.00000E+000	-4.92597E-005	-2.40040E-001	1.23771E-001	3.57600E+000	9	...........
	98	1.32	1.19146E-001	-3.97139E-004	0.00000E+000	-4.73174E-005	-2.40040E-001	1.19170E-001	3.57600E+000	9	...........
	99	1.33333	1.14524E-001	-3.98832E-004	0.00000E+000	-4.56760E-005	-2.40040E-001	1.14541E-001	3.57600E+000	9	...........
	100	1.34667	1.09927E-001	-3.99743E-004	0.00000E+000	-4.39425E-005	-2.40040E-001	1.09943E-001	3.57600E+000	9	...........
	101	1.36	1.05457E-001	-3.97963E-004	0.00000E+000	-4.19681E-005	-2.40040E-001	1.05468E-001	3.57600E+000	9	...........
	102	1.37333	1.00898E-001	-3.98870E-004	0.00000E+000	-4.02450E-005	-2.40040E-001	1.00913E-001	3.57600E+000	9	...........
	103	1.38667	9.63175E-002	-3.98997E-004	0.00000E+000	-3.84304E-005	-2.40040E-001	9.63351E-002	3.57600E+000	9	...........
	104	1.4	9.18543E-002	-4.00420E-004	0.00000E+000	-3.67803E-005	-2.40040E-001	9.18717E-002	3.57600E+000	9	...........
	105	1.41333	8.73706E-002	-3.99061E-004	0.00000E+000	-3.48662E-005	-2.40040E-001	8.73802E-002	3.57600E+000	9	...........
	106	1.42667	8.28923E-002	-3.99000E-004	0.00000E+000	-3.30740E-005	-2.40040E-001	8.29066E-002	3.57600E+000	9	...........
	107	1.44	7.85564E-002	-3.98632E-004	0.00000E+000	-3.13151E-005	-2.40040E-001	7.85696E-002	3.57600E+000	9	...........
	108	1.45333	7.41038E-002	-3.99951E-004	0.00000E+000	-2.96379E-005	-2.40040E-001	7.41134E-002	3.57600E+000	9	...........
	109	1.46667	6.96091E-002	-3.98983E-004	0.00000E+000	-2.77729E-005	-2.40040E-001	6.96207E-002	3.57600E+000	9	...........
	110	1.48	6.52273E-002	-3.98892E-004	0.00000E+000	-2.60186E-005	-2.40040E-001	6.52316E-002	3.57600E+000	9	...........
	111	1.49333	6.08610E-002	-3.98517E-004	0.00000E+000	-2.42541E-005	-2.40040E-001	6.08648E-002	3.57600E+000	9	...........
	112	1.50667	5.65512E-002	-3.97804E-004	0.00000E+000	-2.24963E-005	-2.40040E-001	5.65542E-002	3.57600E+000	9	...........
	113	1.52	5.21243E-002	-3.98960E-004	0.00000E+000	-2.07955E-005	-2.40040E-001	5.21275E-002	3.57600E+000	9	...........
	114	1.53333	4.78932E-002	-3.98822E-004	0.00000E+000	-1.91008E-005	-2.40040E-001	4.78985E-002	3.57600E+000	9	...........
	115	1.54667	4.37079E-002	-3.98389E-004	0.00000E+000	-1.74128E-005	-2.40040E-001	4.37141E-002	3.57600E+000	9	...........
	116	1.56	3.94307E-002	-3.99089E-004	0.00000E+000	-1.57363E-005	-2.40040E-001	3.94320E-002	3.57600E+000	9	...........
	117	1.57333	3.51986E-002	-3.97789E-004	0.00000E+000	-1.40016E-005	-2.40040E-001	3.51981E-002	3.57600E+000	9	...........
	118	1.58667	3.09641E-002	-3.98776E-004	0.00000E+000	-1.23477E-005	-2.40040E-001	3.09654E-002	3.57600E+000	9	...........
	119	1.6	2.67818E-002	-4.00175E-004	0.00000E+000	-1.07174E-005	-2.40040E-001	2.67807E-002	3.57600E+000	9	...........
	120	1.61333	2.26053E-002	-3.99055E-004	0.00000E+000	-9.02076E-006	-2.40040E-001	2.26004E-002	3.57600E+000	9	...........
	121	1.62667	1.84444E-002	-3.98336E-004	0.00000E+000	-7.34707E-006	-2.40040E-001	1.84336E-002	3.57600E+000	9	...........
	122	1.64	1.43312E-002	-3.98323E-004	0.00000E+000	-5.70845E-006	-2.40040E-001	1.43231E-002	3.57600E+000	9	...........
	123	1.65333	1.02902E-002	-3.97904E-004	0.00000E+000	-4.09450E-006	-2.40040E-001	1.02787E-002	3.57600E+000	9	...........
	124	1.66667	6.18083E-003	-3.98690E-004	0.00000E+000	-2.46423E-006	-2.40040E-001	6.16750E-003	3.57600E+000	9	...........
	125	1.68	2.02009E-003	-3.97646E-004	0.00000E+000	-8.03281E-007	-2.40040E-001	2.00434E-003	3.57600E+000	9	...........
	126	1.68167	-2.92557E-004	-3.98906E-004	0.00000E+000	1.16703E-007	-2.40040E-001	-2.97220E-004	3.57600E+000	9	...........
STARTTIMEOFFSET	QUANT	540.9433	Start Time Offset (s)
