EXPLAIN
TAG	PWR800_DISCHARGE
TITLE	LABEL	PWR Cyclic Charge Discharge (Cell) - Discharge Step	Test &Identifier
DATE	LABEL	12-7-2017	Date
TIME	LABEL	14:29:10	Time
NOTES	NOTES	3	&Notes...
	supercap test cell
	0.4mg
	6M KOH
PSTAT	PSTAT	IFC5000-01520	Potentiostat
CAPACITY	QUANT	1.00000E-003	Capacity (A-hr)
CELLTYPE	SELECTOR	1	&Cell Type
WORKINGCONNECTION	SELECTOR	0	&Working Lead
MAXDISCHARGETIME	VARIABLEANDUNITS	1.00000E+002	s	1.00000E+002	second(s)	Max &Discharge Time
DISCHARGEMODE	MULTIPARAM	0	4.00000E-004	&Discharge Mode	Constant Current	Amp(s)
SAMPLETIME	QUANT	1.00000E-002	Sa&mple Period (s)
DISCHARGESTOPAT1	MULTIPARAM	3	0.00000E+000	Discharge Stop At &1	Voltage < Limit	V
DISCHARGESTOPAT2	MULTIPARAM	0	0.00000E+000	Discharge Stop At &2	None	N/A
AESBHCSELECTOR	TOGGLE	F	Save Both Half Cells
IRCOMP	TOGGLE	F	IR &Measure
EOC	QUANT	0	Open Circuit (V)
SEQUENCER	TOGGLE	TRUE	Run as Sequence
PSTATMODEL	IQUANT	53	Pstat Model
PSTATSECTION	LABEL	IFC5000-01520	Pstat Section
PSTATSERIALNO	LABEL	01520	Pstat Serial Number
CTRLMODE	IQUANT	0	Control Mode
ELECTROMETER	IQUANT	1	RE=0 or CS=1
IESTAB	IQUANT	0	I/E Stability
CASPEED	IQUANT	4	Control Amp Speed
CONVENTION	IQUANT	1	Current Convention
ICHRANGE	IQUANT	2	Ich Range
ICHRANGEMODE	TOGGLE	T	Ich Auto Range
ICHOFFSETENABLE	TOGGLE	F	Ich Offset Enable
ICHOFFSET	QUANT	0	Ich Offset (V)
ICHFILTER	IQUANT	1	Ich Filter
VCHRANGE	IQUANT	2	Vch Range
VCHRANGEMODE	TOGGLE	T	Vch Auto Range
VCHOFFSETENABLE	TOGGLE	F	Vch Offset Enable
VCHOFFSET	QUANT	0	Vch Offset (V)
VCHFILTER	IQUANT	1	Vch Filter
IERANGELOWERLIMIT	IQUANT	9	I/E Range Lower Limit
IERANGEMODE	TOGGLE	F	I/E AutoRange
IERANGE	IQUANT	9	I/E Range
ACHSELECT	IQUANT	1	Ach Select
ACHRANGE	IQUANT	2	Ach Range
ACHOFFSETENABLE	TOGGLE	F	Ach Offset Enable
ACHOFFSET	QUANT	0	Ach Offset (V)
ACHFILTER	IQUANT	1	Ach Filter
CABLEID	IQUANT	14	Cable ID
DCCALDATE	LABEL	5-7-2017	DC Calibration Date
ACCALDATE	LABEL	12/3/2015	AC Calibration Date
FRAMEWORKVERSION	QUANT	7.01	Framework Version
INSTRUMENTVERSION	LABEL	4.00	Instrument Version
CURVE	TABLE	127
	Pt	T	Vf	Im	Vu	Pwr	Sig	Ach	Temp	IERange	Over
	#	s	V	A	V	W	V	V	deg C	#	bits
	0	0.013333	7.15682E-001	-3.99775E-004	0.00000E+000	-2.86112E-004	-2.40040E-001	7.15930E-001	3.57590E+000	9	...........
	1	0.026667	7.04473E-001	-3.98479E-004	0.00000E+000	-2.80718E-004	-2.40040E-001	7.04753E-001	3.57590E+000	9	...........
	2	0.04	6.94559E-001	-3.99168E-004	0.00000E+000	-2.77246E-004	-2.40040E-001	6.94808E-001	3.57590E+000	9	...........
	3	0.053333	6.85411E-001	-3.99050E-004	0.00000E+000	-2.73513E-004	-2.40040E-001	6.85672E-001	3.57590E+000	9	...........
	4	0.066667	6.76840E-001	-4.00217E-004	0.00000E+000	-2.70883E-004	-2.40040E-001	6.77084E-001	3.57590E+000	9	...........
	5	0.08	6.68487E-001	-3.97925E-004	0.00000E+000	-2.66008E-004	-2.40040E-001	6.68722E-001	3.57590E+000	9	...........
	6	0.093333	6.60343E-001	-3.97960E-004	0.00000E+000	-2.62790E-004	-2.40040E-001	6.60577E-001	3.57590E+000	9	...........
	7	0.106667	6.52448E-001	-3.99362E-004	0.00000E+000	-2.60562E-004	-2.40040E-001	6.52677E-001	3.57590E+000	9	...........
	8	0.12	6.44733E-001	-3.98650E-004	0.00000E+000	-2.57023E-004	-2.40040E-001	6.44948E-001	3.57590E+000	9	...........
	9	0.133333	6.37102E-001	-3.98620E-004	0.00000E+000	-2.53961E-004	-2.40040E-001	6.37331E-001	3.57590E+000	9	...........
	10	0.146667	6.29565E-001	-3.99267E-004	0.00000E+000	-2.51365E-004	-2.40040E-001	6.29793E-001	3.57590E+000	9	...........
	11	0.16	6.22263E-001	-3.98115E-004	0.00000E+000	-2.47732E-004	-2.40040E-001	6.22469E-001	3.57590E+000	9	...........
	12	0.173333	6.14987E-001	-3.98271E-004	0.00000E+000	-2.44931E-004	-2.40040E-001	6.15212E-001	3.57590E+000	9	...........
	13	0.186667	6.07679E-001	-3.99857E-004	0.00000E+000	-2.42985E-004	-2.40040E-001	6.07901E-001	3.57590E+000	9	...........
	14	0.2	6.00487E-001	-3.98317E-004	0.00000E+000	-2.39184E-004	-2.40040E-001	6.00727E-001	3.57590E+000	9	...........
	15	0.213333	5.93412E-001	-3.99275E-004	0.00000E+000	-2.36935E-004	-2.40040E-001	5.93636E-001	3.57590E+000	9	...........
	16	0.226667	5.86298E-001	-3.98190E-004	0.00000E+000	-2.33458E-004	-2.40040E-001	5.86523E-001	3.57590E+000	9	...........
	17	0.24	5.79282E-001	-3.98600E-004	0.00000E+000	-2.30902E-004	-2.40040E-001	5.79522E-001	3.57590E+000	9	...........
	18	0.253333	5.72435E-001	-3.97856E-004	0.00000E+000	-2.27747E-004	-2.40040E-001	5.72647E-001	3.57590E+000	9	...........
	19	0.266667	5.65579E-001	-3.99792E-004	0.00000E+000	-2.26114E-004	-2.40040E-001	5.65808E-001	3.57590E+000	9	...........
	20	0.28	5.58615E-001	-3.99427E-004	0.00000E+000	-2.23126E-004	-2.40040E-001	5.58869E-001	3.57590E+000	9	...........
	21	0.293333	5.51780E-001	-3.99026E-004	0.00000E+000	-2.20175E-004	-2.40040E-001	5.52032E-001	3.57590E+000	9	...........
	22	0.306667	5.44982E-001	-3.98957E-004	0.00000E+000	-2.17424E-004	-2.40040E-001	5.45191E-001	3.57590E+000	9	...........
	23	0.32	5.38217E-001	-3.98484E-004	0.00000E+000	-2.14471E-004	-2.40040E-001	5.38450E-001	3.57590E+000	9	...........
	24	0.333333	5.31484E-001	-3.99665E-004	0.00000E+000	-2.12415E-004	-2.40040E-001	5.31710E-001	3.57590E+000	9	...........
	25	0.346667	5.24743E-001	-3.98779E-004	0.00000E+000	-2.09256E-004	-2.40040E-001	5.24947E-001	3.57590E+000	9	...........
	26	0.36	5.18205E-001	-3.98545E-004	0.00000E+000	-2.06528E-004	-2.40040E-001	5.18399E-001	3.57590E+000	9	...........
	27	0.373333	5.11594E-001	-3.98304E-004	0.00000E+000	-2.03770E-004	-2.40040E-001	5.11808E-001	3.57590E+000	9	...........
	28	0.386667	5.04999E-001	-3.99163E-004	0.00000E+000	-2.01577E-004	-2.40040E-001	5.05211E-001	3.57590E+000	9	...........
	29	0.4	4.98502E-001	-3.99071E-004	0.00000E+000	-1.98938E-004	-2.40040E-001	4.98723E-001	3.57590E+000	9	...........
	30	0.413333	4.92067E-001	-3.98673E-004	0.00000E+000	-1.96174E-004	-2.40040E-001	4.92231E-001	3.57590E+000	9	...........
	31	0.426667	4.85711E-001	-3.99125E-004	0.00000E+000	-1.93859E-004	-2.40040E-001	4.85824E-001	3.57590E+000	9	...........
	32	0.44	4.79442E-001	-3.99398E-004	0.00000E+000	-1.91488E-004	-2.40040E-001	4.79535E-001	3.57590E+000	9	...........
	33	0.453333	4.73043E-001	-3.98641E-004	0.00000E+000	-1.88574E-004	-2.40040E-001	4.73131E-001	3.57590E+000	9	...........
	34	0.466667	4.66683E-001	-3.99180E-004	0.00000E+000	-1.86291E-004	-2.40040E-001	4.66774E-001	3.57590E+000	9	...........
	35	0.48	4.60407E-001	-3.98158E-004	0.00000E+000	-1.83315E-004	-2.40040E-001	4.60497E-001	3.57590E+000	9	...........
	36	0.493333	4.54109E-001	-3.99610E-004	0.00000E+000	-1.81466E-004	-2.40040E-001	4.54198E-001	3.57590E+000	9	...........
	37	0.506667	4.47808E-001	-3.98927E-004	0.00000E+000	-1.78643E-004	-2.40040E-001	4.47897E-001	3.57590E+000	9	...........
	38	0.52	4.41662E-001	-3.99103E-004	0.00000E+000	-1.76269E-004	-2.40040E-001	4.41758E-001	3.57590E+000	9	...........
	39	0.533333	4.35472E-001	-3.99129E-004	0.00000E+000	-1.73809E-004	-2.40040E-001	4.35564E-001	3.57590E+000	9	...........
	40	0.546667	4.29315E-001	-3.97426E-004	0.00000E+000	-1.70621E-004	-2.40040E-001	4.29399E-001	3.57590E+000	9	...........
	41	0.56	4.23211E-001	-3.99980E-004	0.00000E+000	-1.69276E-004	-2.40040E-001	4.23295E-001	3.57590E+000	9	...........
	42	0.573333	4.17082E-001	-3.98256E-004	0.00000E+000	-1.66106E-004	-2.40040E-001	4.17168E-001	3.57590E+000	9	...........
	43	0.586667	4.11044E-001	-3.98496E-004	0.00000E+000	-1.63799E-004	-2.40040E-001	4.11121E-001	3.57590E+000	9	...........
	44	0.6	4.04984E-001	-3.99686E-004	0.00000E+000	-1.61866E-004	-2.40040E-001	4.05052E-001	3.57590E+000	9	...........
	45	0.613333	3.98972E-001	-3.97572E-004	0.00000E+000	-1.58620E-004	-2.40040E-001	3.99048E-001	3.57590E+000	9	...........
	46	0.626667	3.92945E-001	-3.98255E-004	0.00000E+000	-1.56492E-004	-2.40040E-001	3.93012E-001	3.57590E+000	9	...........
	47	0.64	3.86993E-001	-3.98265E-004	0.00000E+000	-1.54126E-004	-2.40040E-001	3.87062E-001	3.57590E+000	9	...........
	48	0.653333	3.81094E-001	-3.99328E-004	0.00000E+000	-1.52182E-004	-2.40040E-001	3.81163E-001	3.57590E+000	9	...........
	49	0.666667	3.75201E-001	-3.98705E-004	0.00000E+000	-1.49594E-004	-2.40040E-001	3.75270E-001	3.57590E+000	9	...........
	50	0.68	3.69391E-001	-3.98951E-004	0.00000E+000	-1.47369E-004	-2.40040E-001	3.69458E-001	3.57590E+000	9	...........
	51	0.693333	3.63556E-001	-3.98899E-004	0.00000E+000	-1.45022E-004	-2.40040E-001	3.63626E-001	3.57590E+000	9	...........
	52	0.706667	3.57737E-001	-3.97220E-004	0.00000E+000	-1.42100E-004	-2.40040E-001	3.57805E-001	3.57590E+000	9	...........
	53	0.72	3.52003E-001	-3.98362E-004	0.00000E+000	-1.40225E-004	-2.40040E-001	3.52069E-001	3.57590E+000	9	...........
	54	0.733333	3.46259E-001	-4.00040E-004	0.00000E+000	-1.38517E-004	-2.40040E-001	3.46324E-001	3.57590E+000	9	...........
	55	0.746667	3.40538E-001	-3.97712E-004	0.00000E+000	-1.35436E-004	-2.40040E-001	3.40610E-001	3.57590E+000	9	...........
	56	0.76	3.34859E-001	-3.99033E-004	0.00000E+000	-1.33620E-004	-2.40040E-001	3.34919E-001	3.57590E+000	9	...........
	57	0.773333	3.29224E-001	-3.98661E-004	0.00000E+000	-1.31249E-004	-2.40040E-001	3.29285E-001	3.57590E+000	9	...........
	58	0.786667	3.23636E-001	-3.97709E-004	0.00000E+000	-1.28713E-004	-2.40040E-001	3.23699E-001	3.57607E+000	9	...........
	59	0.8	3.18033E-001	-3.99295E-004	0.00000E+000	-1.26989E-004	-2.40040E-001	3.18098E-001	3.57730E+000	9	...........
	60	0.813333	3.12532E-001	-3.97342E-004	0.00000E+000	-1.24182E-004	-2.40040E-001	3.12589E-001	3.57730E+000	9	...........
	61	0.826667	3.07034E-001	-3.98680E-004	0.00000E+000	-1.22408E-004	-2.40040E-001	3.07092E-001	3.57730E+000	9	...........
	62	0.84	3.01539E-001	-3.98923E-004	0.00000E+000	-1.20291E-004	-2.40040E-001	3.01594E-001	3.57730E+000	9	...........
	63	0.853333	2.96053E-001	-3.98402E-004	0.00000E+000	-1.17948E-004	-2.40040E-001	2.96108E-001	3.57730E+000	9	...........
	64	0.866667	2.90601E-001	-3.98567E-004	0.00000E+000	-1.15824E-004	-2.40040E-001	2.90655E-001	3.57730E+000	9	...........
	65	0.88	2.85172E-001	-3.99977E-004	0.00000E+000	-1.14062E-004	-2.40040E-001	2.85224E-001	3.57730E+000	9	...........
	66	0.893333	2.79706E-001	-3.98685E-004	0.00000E+000	-1.11515E-004	-2.40040E-001	2.79756E-001	3.57730E+000	9	...........
	67	0.906667	2.74319E-001	-3.99308E-004	0.00000E+000	-1.09538E-004	-2.40040E-001	2.74370E-001	3.57730E+000	9	...........
	68	0.92	2.68944E-001	-3.98321E-004	0.00000E+000	-1.07126E-004	-2.40040E-001	2.68997E-001	3.57730E+000	9	...........
	69	0.933333	2.63619E-001	-3.99806E-004	0.00000E+000	-1.05397E-004	-2.40040E-001	2.63676E-001	3.57730E+000	9	...........
	70	0.946667	2.58398E-001	-3.99093E-004	0.00000E+000	-1.03125E-004	-2.40040E-001	2.58445E-001	3.57730E+000	9	...........
	71	0.96	2.53193E-001	-4.00777E-004	0.00000E+000	-1.01474E-004	-2.40040E-001	2.53243E-001	3.57730E+000	9	...........
	72	0.97333	2.47997E-001	-3.98381E-004	0.00000E+000	-9.87975E-005	-2.40040E-001	2.48047E-001	3.57730E+000	9	...........
	73	0.98667	2.42739E-001	-3.98761E-004	0.00000E+000	-9.67951E-005	-2.40040E-001	2.42781E-001	3.57730E+000	9	...........
	74	1	2.37567E-001	-3.98959E-004	0.00000E+000	-9.47796E-005	-2.40040E-001	2.37613E-001	3.57730E+000	9	...........
	75	1.01333	2.32431E-001	-3.99333E-004	0.00000E+000	-9.28176E-005	-2.40040E-001	2.32475E-001	3.57730E+000	9	...........
	76	1.02667	2.27245E-001	-3.98794E-004	0.00000E+000	-9.06241E-005	-2.40040E-001	2.27290E-001	3.57730E+000	9	...........
	77	1.04	2.22165E-001	-3.98160E-004	0.00000E+000	-8.84571E-005	-2.40040E-001	2.22205E-001	3.57730E+000	9	...........
	78	1.05333	2.17171E-001	-4.00618E-004	0.00000E+000	-8.70028E-005	-2.40040E-001	2.17214E-001	3.57730E+000	9	...........
	79	1.06667	2.12105E-001	-3.98600E-004	0.00000E+000	-8.45451E-005	-2.40040E-001	2.12145E-001	3.57730E+000	9	...........
	80	1.08	2.07043E-001	-4.00518E-004	0.00000E+000	-8.29244E-005	-2.40040E-001	2.07081E-001	3.57730E+000	9	...........
	81	1.09333	2.01999E-001	-3.98439E-004	0.00000E+000	-8.04844E-005	-2.40040E-001	2.02041E-001	3.57730E+000	9	...........
	82	1.10667	1.97066E-001	-3.98824E-004	0.00000E+000	-7.85944E-005	-2.40040E-001	1.97102E-001	3.57730E+000	9	...........
	83	1.12	1.92155E-001	-3.99191E-004	0.00000E+000	-7.67064E-005	-2.40040E-001	1.92194E-001	3.57730E+000	9	...........
	84	1.13333	1.87199E-001	-3.98513E-004	0.00000E+000	-7.46015E-005	-2.40040E-001	1.87235E-001	3.57730E+000	9	...........
	85	1.14667	1.82350E-001	-3.98037E-004	0.00000E+000	-7.25820E-005	-2.40040E-001	1.82390E-001	3.57730E+000	9	...........
	86	1.16	1.77488E-001	-3.98848E-004	0.00000E+000	-7.07908E-005	-2.40040E-001	1.77528E-001	3.57730E+000	9	...........
	87	1.17333	1.72610E-001	-3.98322E-004	0.00000E+000	-6.87545E-005	-2.40040E-001	1.72652E-001	3.57730E+000	9	...........
	88	1.18667	1.67778E-001	-3.98350E-004	0.00000E+000	-6.68344E-005	-2.40040E-001	1.67821E-001	3.57730E+000	9	...........
	89	1.2	1.63049E-001	-3.97751E-004	0.00000E+000	-6.48528E-005	-2.40040E-001	1.63083E-001	3.57730E+000	9	...........
	90	1.21333	1.58201E-001	-3.96965E-004	0.00000E+000	-6.28003E-005	-2.40040E-001	1.58232E-001	3.57730E+000	9	...........
	91	1.22667	1.53403E-001	-3.98396E-004	0.00000E+000	-6.11149E-005	-2.40040E-001	1.53431E-001	3.57730E+000	9	...........
	92	1.24	1.48716E-001	-3.98846E-004	0.00000E+000	-5.93149E-005	-2.40040E-001	1.48748E-001	3.57730E+000	9	...........
	93	1.25333	1.44009E-001	-3.99570E-004	0.00000E+000	-5.75417E-005	-2.40040E-001	1.44043E-001	3.57730E+000	9	...........
	94	1.26667	1.39413E-001	-3.98759E-004	0.00000E+000	-5.55924E-005	-2.40040E-001	1.39441E-001	3.57730E+000	9	...........
	95	1.28	1.34677E-001	-3.95965E-004	0.00000E+000	-5.33276E-005	-2.40040E-001	1.34710E-001	3.57730E+000	9	...........
	96	1.29333	1.30020E-001	-3.98109E-004	0.00000E+000	-5.17623E-005	-2.40040E-001	1.30050E-001	3.57730E+000	9	...........
	97	1.30667	1.25461E-001	-3.99450E-004	0.00000E+000	-5.01155E-005	-2.40040E-001	1.25486E-001	3.57730E+000	9	...........
	98	1.32	1.20903E-001	-3.97862E-004	0.00000E+000	-4.81026E-005	-2.40040E-001	1.20935E-001	3.57730E+000	9	...........
	99	1.33333	1.16272E-001	-3.99681E-004	0.00000E+000	-4.64719E-005	-2.40040E-001	1.16296E-001	3.57730E+000	9	...........
	100	1.34667	1.11650E-001	-3.99457E-004	0.00000E+000	-4.45994E-005	-2.40040E-001	1.11670E-001	3.57730E+000	9	...........
	101	1.36	1.07070E-001	-3.98383E-004	0.00000E+000	-4.26550E-005	-2.40040E-001	1.07092E-001	3.57730E+000	9	...........
	102	1.37333	1.02543E-001	-3.98523E-004	0.00000E+000	-4.08659E-005	-2.40040E-001	1.02563E-001	3.57730E+000	9	...........
	103	1.38667	9.80304E-002	-3.98752E-004	0.00000E+000	-3.90898E-005	-2.40040E-001	9.80470E-002	3.57730E+000	9	...........
	104	1.4	9.35284E-002	-3.99411E-004	0.00000E+000	-3.73562E-005	-2.40040E-001	9.35490E-002	3.57730E+000	9	...........
	105	1.41333	8.90971E-002	-3.98546E-004	0.00000E+000	-3.55093E-005	-2.40040E-001	8.91230E-002	3.57730E+000	9	...........
	106	1.42667	8.46481E-002	-3.99160E-004	0.00000E+000	-3.37882E-005	-2.40040E-001	8.46648E-002	3.57730E+000	9	...........
	107	1.44	8.02234E-002	-3.99567E-004	0.00000E+000	-3.20546E-005	-2.40040E-001	8.02417E-002	3.57730E+000	9	...........
	108	1.45333	7.58997E-002	-3.99023E-004	0.00000E+000	-3.02857E-005	-2.40040E-001	7.59171E-002	3.57730E+000	9	...........
	109	1.46667	7.15183E-002	-3.98634E-004	0.00000E+000	-2.85096E-005	-2.40040E-001	7.15240E-002	3.57730E+000	9	...........
	110	1.48	6.71253E-002	-3.96958E-004	0.00000E+000	-2.66459E-005	-2.40040E-001	6.71393E-002	3.57730E+000	9	...........
	111	1.49333	6.27396E-002	-3.98060E-004	0.00000E+000	-2.49741E-005	-2.40040E-001	6.27480E-002	3.57730E+000	9	...........
	112	1.50667	5.84452E-002	-3.97610E-004	0.00000E+000	-2.32384E-005	-2.40040E-001	5.84522E-002	3.57730E+000	9	...........
	113	1.52	5.40675E-002	-4.00187E-004	0.00000E+000	-2.16371E-005	-2.40040E-001	5.40711E-002	3.57730E+000	9	...........
	114	1.53333	4.97706E-002	-3.98889E-004	0.00000E+000	-1.98529E-005	-2.40040E-001	4.97738E-002	3.57730E+000	9	...........
	115	1.54667	4.55478E-002	-3.99277E-004	0.00000E+000	-1.81862E-005	-2.40040E-001	4.55562E-002	3.57730E+000	9	...........
	116	1.56	4.12915E-002	-3.98969E-004	0.00000E+000	-1.64740E-005	-2.40040E-001	4.12970E-002	3.57730E+000	9	...........
	117	1.57333	3.71003E-002	-3.99207E-004	0.00000E+000	-1.48107E-005	-2.40040E-001	3.71060E-002	3.57730E+000	9	...........
	118	1.58667	3.28991E-002	-3.99171E-004	0.00000E+000	-1.31324E-005	-2.40040E-001	3.28986E-002	3.57730E+000	9	...........
	119	1.6	2.87702E-002	-3.98670E-004	0.00000E+000	-1.14698E-005	-2.40040E-001	2.87700E-002	3.57730E+000	9	...........
	120	1.61333	2.46237E-002	-3.98527E-004	0.00000E+000	-9.81322E-006	-2.40040E-001	2.46211E-002	3.57730E+000	9	...........
	121	1.62667	2.03009E-002	-3.99700E-004	0.00000E+000	-8.11426E-006	-2.40040E-001	2.02949E-002	3.57730E+000	9	...........
	122	1.64	1.61376E-002	-3.99041E-004	0.00000E+000	-6.43955E-006	-2.40040E-001	1.61284E-002	3.57730E+000	9	...........
	123	1.65333	1.20358E-002	-3.97921E-004	0.00000E+000	-4.78931E-006	-2.40040E-001	1.20259E-002	3.57730E+000	9	...........
	124	1.66667	7.92486E-003	-3.99451E-004	0.00000E+000	-3.16560E-006	-2.40040E-001	7.91158E-003	3.57730E+000	9	...........
	125	1.68	3.77936E-003	-3.98870E-004	0.00000E+000	-1.50747E-006	-2.40040E-001	3.76363E-003	3.57730E+000	9	...........
	126	1.68833	5.88354E-004	-3.99631E-004	0.00000E+000	-2.35125E-007	-2.40040E-001	5.75857E-004	3.57730E+000	9	...........
STARTTIMEOFFSET	QUANT	509.6951	Start Time Offset (s)
