EXPLAIN
TAG	PWR800_DISCHARGE
TITLE	LABEL	PWR Cyclic Charge Discharge (Cell) - Discharge Step	Test &Identifier
DATE	LABEL	12-7-2017	Date
TIME	LABEL	14:58:15	Time
NOTES	NOTES	3	&Notes...
	supercap test cell
	0.4mg
	6M KOH
PSTAT	PSTAT	IFC5000-01520	Potentiostat
CAPACITY	QUANT	1.00000E-003	Capacity (A-hr)
CELLTYPE	SELECTOR	1	&Cell Type
WORKINGCONNECTION	SELECTOR	0	&Working Lead
MAXDISCHARGETIME	VARIABLEANDUNITS	1.00000E+002	s	1.00000E+002	second(s)	Max &Discharge Time
DISCHARGEMODE	MULTIPARAM	0	4.00000E-004	&Discharge Mode	Constant Current	Amp(s)
SAMPLETIME	QUANT	1.00000E-002	Sa&mple Period (s)
DISCHARGESTOPAT1	MULTIPARAM	3	0.00000E+000	Discharge Stop At &1	Voltage < Limit	V
DISCHARGESTOPAT2	MULTIPARAM	0	0.00000E+000	Discharge Stop At &2	None	N/A
AESBHCSELECTOR	TOGGLE	F	Save Both Half Cells
IRCOMP	TOGGLE	F	IR &Measure
EOC	QUANT	0	Open Circuit (V)
SEQUENCER	TOGGLE	TRUE	Run as Sequence
PSTATMODEL	IQUANT	53	Pstat Model
PSTATSECTION	LABEL	IFC5000-01520	Pstat Section
PSTATSERIALNO	LABEL	01520	Pstat Serial Number
CTRLMODE	IQUANT	0	Control Mode
ELECTROMETER	IQUANT	1	RE=0 or CS=1
IESTAB	IQUANT	0	I/E Stability
CASPEED	IQUANT	4	Control Amp Speed
CONVENTION	IQUANT	1	Current Convention
ICHRANGE	IQUANT	2	Ich Range
ICHRANGEMODE	TOGGLE	T	Ich Auto Range
ICHOFFSETENABLE	TOGGLE	F	Ich Offset Enable
ICHOFFSET	QUANT	0	Ich Offset (V)
ICHFILTER	IQUANT	1	Ich Filter
VCHRANGE	IQUANT	2	Vch Range
VCHRANGEMODE	TOGGLE	T	Vch Auto Range
VCHOFFSETENABLE	TOGGLE	F	Vch Offset Enable
VCHOFFSET	QUANT	0	Vch Offset (V)
VCHFILTER	IQUANT	1	Vch Filter
IERANGELOWERLIMIT	IQUANT	9	I/E Range Lower Limit
IERANGEMODE	TOGGLE	F	I/E AutoRange
IERANGE	IQUANT	9	I/E Range
ACHSELECT	IQUANT	1	Ach Select
ACHRANGE	IQUANT	2	Ach Range
ACHOFFSETENABLE	TOGGLE	F	Ach Offset Enable
ACHOFFSET	QUANT	0	Ach Offset (V)
ACHFILTER	IQUANT	1	Ach Filter
CABLEID	IQUANT	14	Cable ID
DCCALDATE	LABEL	5-7-2017	DC Calibration Date
ACCALDATE	LABEL	12/3/2015	AC Calibration Date
FRAMEWORKVERSION	QUANT	7.01	Framework Version
INSTRUMENTVERSION	LABEL	4.00	Instrument Version
CURVE	TABLE	110
	Pt	T	Vf	Im	Vu	Pwr	Sig	Ach	Temp	IERange	Over
	#	s	V	A	V	W	V	V	deg C	#	bits
	0	0.013333	6.94905E-001	-3.98741E-004	0.00000E+000	-2.77087E-004	-2.40040E-001	6.95122E-001	3.57730E+000	9	...........
	1	0.026667	6.82006E-001	-3.98476E-004	0.00000E+000	-2.71763E-004	-2.40040E-001	6.82225E-001	3.57730E+000	9	...........
	2	0.04	6.70752E-001	-3.98852E-004	0.00000E+000	-2.67531E-004	-2.40040E-001	6.70992E-001	3.57730E+000	9	...........
	3	0.053333	6.60452E-001	-3.97359E-004	0.00000E+000	-2.62436E-004	-2.40040E-001	6.60661E-001	3.57730E+000	9	...........
	4	0.066667	6.50707E-001	-4.00220E-004	0.00000E+000	-2.60426E-004	-2.40040E-001	6.50922E-001	3.57730E+000	9	...........
	5	0.08	6.41382E-001	-3.98239E-004	0.00000E+000	-2.55424E-004	-2.40040E-001	6.41583E-001	3.57730E+000	9	...........
	6	0.093333	6.32363E-001	-3.97973E-004	0.00000E+000	-2.51663E-004	-2.40040E-001	6.32544E-001	3.57730E+000	9	...........
	7	0.106667	6.23623E-001	-3.98623E-004	0.00000E+000	-2.48590E-004	-2.40040E-001	6.23784E-001	3.57730E+000	9	...........
	8	0.12	6.15034E-001	-3.98757E-004	0.00000E+000	-2.45249E-004	-2.40040E-001	6.15249E-001	3.57730E+000	9	...........
	9	0.133333	6.06646E-001	-3.98276E-004	0.00000E+000	-2.41612E-004	-2.40040E-001	6.06875E-001	3.57730E+000	9	...........
	10	0.146667	5.98426E-001	-3.98969E-004	0.00000E+000	-2.38753E-004	-2.40040E-001	5.98638E-001	3.57730E+000	9	...........
	11	0.16	5.90290E-001	-3.98730E-004	0.00000E+000	-2.35366E-004	-2.40040E-001	5.90520E-001	3.57730E+000	9	...........
	12	0.173333	5.82185E-001	-3.98791E-004	0.00000E+000	-2.32170E-004	-2.40040E-001	5.82423E-001	3.57730E+000	9	...........
	13	0.186667	5.74196E-001	-3.98917E-004	0.00000E+000	-2.29056E-004	-2.40040E-001	5.74403E-001	3.57730E+000	9	...........
	14	0.2	5.66281E-001	-3.98889E-004	0.00000E+000	-2.25883E-004	-2.40040E-001	5.66511E-001	3.57730E+000	9	...........
	15	0.213333	5.58404E-001	-3.97859E-004	0.00000E+000	-2.22166E-004	-2.40040E-001	5.58621E-001	3.57730E+000	9	...........
	16	0.226667	5.50634E-001	-3.99620E-004	0.00000E+000	-2.20044E-004	-2.40040E-001	5.50812E-001	3.57730E+000	9	...........
	17	0.24	5.42861E-001	-3.98619E-004	0.00000E+000	-2.16394E-004	-2.40040E-001	5.43031E-001	3.57730E+000	9	...........
	18	0.253333	5.35177E-001	-3.97568E-004	0.00000E+000	-2.12769E-004	-2.40040E-001	5.35357E-001	3.57730E+000	9	...........
	19	0.266667	5.27534E-001	-3.97790E-004	0.00000E+000	-2.09848E-004	-2.40040E-001	5.27697E-001	3.57730E+000	9	...........
	20	0.28	5.19912E-001	-3.98628E-004	0.00000E+000	-2.07252E-004	-2.40040E-001	5.20079E-001	3.57730E+000	9	...........
	21	0.293333	5.12390E-001	-3.97537E-004	0.00000E+000	-2.03694E-004	-2.40040E-001	5.12550E-001	3.57730E+000	9	...........
	22	0.306667	5.04867E-001	-3.97607E-004	0.00000E+000	-2.00739E-004	-2.40040E-001	5.05056E-001	3.57730E+000	9	...........
	23	0.32	4.97370E-001	-3.98471E-004	0.00000E+000	-1.98187E-004	-2.40040E-001	4.97598E-001	3.57730E+000	9	...........
	24	0.333333	4.89950E-001	-3.99074E-004	0.00000E+000	-1.95526E-004	-2.40040E-001	4.90159E-001	3.57730E+000	9	...........
	25	0.346667	4.82828E-001	-3.99018E-004	0.00000E+000	-1.92657E-004	-2.40040E-001	4.82958E-001	3.57730E+000	9	...........
	26	0.36	4.75590E-001	-3.98799E-004	0.00000E+000	-1.89665E-004	-2.40040E-001	4.75685E-001	3.57730E+000	9	...........
	27	0.373333	4.68261E-001	-3.97906E-004	0.00000E+000	-1.86324E-004	-2.40040E-001	4.68352E-001	3.57730E+000	9	...........
	28	0.386667	4.60993E-001	-3.97611E-004	0.00000E+000	-1.83296E-004	-2.40040E-001	4.61085E-001	3.57730E+000	9	...........
	29	0.4	4.53734E-001	-3.99151E-004	0.00000E+000	-1.81108E-004	-2.40040E-001	4.53822E-001	3.57730E+000	9	...........
	30	0.413333	4.46596E-001	-3.99481E-004	0.00000E+000	-1.78407E-004	-2.40040E-001	4.46687E-001	3.57730E+000	9	...........
	31	0.426667	4.39481E-001	-3.98261E-004	0.00000E+000	-1.75028E-004	-2.40040E-001	4.39573E-001	3.57730E+000	9	...........
	32	0.44	4.32444E-001	-3.99116E-004	0.00000E+000	-1.72595E-004	-2.40040E-001	4.32533E-001	3.57730E+000	9	...........
	33	0.453333	4.25402E-001	-3.98700E-004	0.00000E+000	-1.69608E-004	-2.40040E-001	4.25488E-001	3.57730E+000	9	...........
	34	0.466667	4.18374E-001	-3.99341E-004	0.00000E+000	-1.67074E-004	-2.40040E-001	4.18450E-001	3.57730E+000	9	...........
	35	0.48	4.11333E-001	-3.98451E-004	0.00000E+000	-1.63896E-004	-2.40040E-001	4.11412E-001	3.57730E+000	9	...........
	36	0.493333	4.04404E-001	-3.98958E-004	0.00000E+000	-1.61340E-004	-2.40040E-001	4.04480E-001	3.57730E+000	9	...........
	37	0.506667	3.97565E-001	-3.98967E-004	0.00000E+000	-1.58615E-004	-2.40040E-001	3.97638E-001	3.57730E+000	9	...........
	38	0.52	3.90794E-001	-3.99147E-004	0.00000E+000	-1.55984E-004	-2.40040E-001	3.90864E-001	3.57730E+000	9	...........
	39	0.533333	3.83876E-001	-3.99884E-004	0.00000E+000	-1.53506E-004	-2.40040E-001	3.83949E-001	3.57730E+000	9	...........
	40	0.546667	3.77086E-001	-3.99045E-004	0.00000E+000	-1.50474E-004	-2.40040E-001	3.77159E-001	3.57730E+000	9	...........
	41	0.56	3.70407E-001	-3.99348E-004	0.00000E+000	-1.47921E-004	-2.40040E-001	3.70472E-001	3.57730E+000	9	...........
	42	0.573333	3.63730E-001	-3.98972E-004	0.00000E+000	-1.45118E-004	-2.40040E-001	3.63796E-001	3.57730E+000	9	...........
	43	0.586667	3.57152E-001	-3.97317E-004	0.00000E+000	-1.41903E-004	-2.40040E-001	3.57218E-001	3.57730E+000	9	...........
	44	0.6	3.50572E-001	-3.98929E-004	0.00000E+000	-1.39853E-004	-2.40040E-001	3.50636E-001	3.57730E+000	9	...........
	45	0.613333	3.43992E-001	-3.97726E-004	0.00000E+000	-1.36814E-004	-2.40040E-001	3.44053E-001	3.57730E+000	9	...........
	46	0.626667	3.37466E-001	-4.00340E-004	0.00000E+000	-1.35101E-004	-2.40040E-001	3.37530E-001	3.57730E+000	9	...........
	47	0.64	3.31041E-001	-3.98822E-004	0.00000E+000	-1.32026E-004	-2.40040E-001	3.31103E-001	3.57759E+000	9	...........
	48	0.653333	3.24588E-001	-3.98535E-004	0.00000E+000	-1.29360E-004	-2.40040E-001	3.24652E-001	3.57760E+000	9	...........
	49	0.666667	3.18142E-001	-3.99190E-004	0.00000E+000	-1.26999E-004	-2.40040E-001	3.18198E-001	3.57760E+000	9	...........
	50	0.68	3.11791E-001	-3.98805E-004	0.00000E+000	-1.24344E-004	-2.40040E-001	3.11851E-001	3.57760E+000	9	...........
	51	0.693333	3.05423E-001	-3.98250E-004	0.00000E+000	-1.21635E-004	-2.40040E-001	3.05484E-001	3.57760E+000	9	...........
	52	0.706667	2.99144E-001	-3.98637E-004	0.00000E+000	-1.19250E-004	-2.40040E-001	2.99202E-001	3.57760E+000	9	...........
	53	0.72	2.92867E-001	-3.97536E-004	0.00000E+000	-1.16425E-004	-2.40040E-001	2.92919E-001	3.57760E+000	9	...........
	54	0.733333	2.86659E-001	-3.99258E-004	0.00000E+000	-1.14451E-004	-2.40040E-001	2.86711E-001	3.57760E+000	9	...........
	55	0.746667	2.80497E-001	-3.98215E-004	0.00000E+000	-1.11698E-004	-2.40040E-001	2.80547E-001	3.57760E+000	9	...........
	56	0.76	2.74383E-001	-3.97236E-004	0.00000E+000	-1.08995E-004	-2.40040E-001	2.74435E-001	3.57760E+000	9	...........
	57	0.773333	2.68266E-001	-3.97314E-004	0.00000E+000	-1.06586E-004	-2.40040E-001	2.68317E-001	3.57760E+000	9	...........
	58	0.786667	2.62240E-001	-3.98003E-004	0.00000E+000	-1.04372E-004	-2.40040E-001	2.62291E-001	3.57760E+000	9	...........
	59	0.8	2.56253E-001	-3.98086E-004	0.00000E+000	-1.02011E-004	-2.40040E-001	2.56306E-001	3.57760E+000	9	...........
	60	0.813333	2.50280E-001	-3.98367E-004	0.00000E+000	-9.97032E-005	-2.40040E-001	2.50323E-001	3.57760E+000	9	...........
	61	0.826667	2.44364E-001	-3.99128E-004	0.00000E+000	-9.75325E-005	-2.40040E-001	2.44405E-001	3.57760E+000	9	...........
	62	0.84	2.38481E-001	-3.99566E-004	0.00000E+000	-9.52888E-005	-2.40040E-001	2.38518E-001	3.57760E+000	9	...........
	63	0.853333	2.32552E-001	-3.98492E-004	0.00000E+000	-9.26702E-005	-2.40040E-001	2.32587E-001	3.57760E+000	9	...........
	64	0.866667	2.26704E-001	-3.98522E-004	0.00000E+000	-9.03465E-005	-2.40040E-001	2.26746E-001	3.57760E+000	9	...........
	65	0.88	2.20909E-001	-3.98805E-004	0.00000E+000	-8.80998E-005	-2.40040E-001	2.20951E-001	3.57760E+000	9	...........
	66	0.893333	2.15073E-001	-3.98991E-004	0.00000E+000	-8.58119E-005	-2.40040E-001	2.15111E-001	3.57760E+000	9	...........
	67	0.906667	2.09362E-001	-3.97968E-004	0.00000E+000	-8.33192E-005	-2.40040E-001	2.09395E-001	3.57760E+000	9	...........
	68	0.92	2.03669E-001	-3.98836E-004	0.00000E+000	-8.12306E-005	-2.40040E-001	2.03704E-001	3.57760E+000	9	...........
	69	0.933333	1.98033E-001	-3.99664E-004	0.00000E+000	-7.91466E-005	-2.40040E-001	1.98067E-001	3.57760E+000	9	...........
	70	0.946667	1.92379E-001	-3.98222E-004	0.00000E+000	-7.66096E-005	-2.40040E-001	1.92412E-001	3.57760E+000	9	...........
	71	0.96	1.86842E-001	-3.99190E-004	0.00000E+000	-7.45855E-005	-2.40040E-001	1.86877E-001	3.57760E+000	9	...........
	72	0.97333	1.81323E-001	-3.98928E-004	0.00000E+000	-7.23349E-005	-2.40040E-001	1.81356E-001	3.57760E+000	9	...........
	73	0.98667	1.75852E-001	-3.99539E-004	0.00000E+000	-7.02599E-005	-2.40040E-001	1.75886E-001	3.57760E+000	9	...........
	74	1	1.70353E-001	-3.98568E-004	0.00000E+000	-6.78971E-005	-2.40040E-001	1.70388E-001	3.57760E+000	9	...........
	75	1.01333	1.64883E-001	-3.99726E-004	0.00000E+000	-6.59080E-005	-2.40040E-001	1.64910E-001	3.57760E+000	9	...........
	76	1.02667	1.59506E-001	-3.99486E-004	0.00000E+000	-6.37203E-005	-2.40040E-001	1.59531E-001	3.57760E+000	9	...........
	77	1.04	1.54161E-001	-3.98543E-004	0.00000E+000	-6.14399E-005	-2.40040E-001	1.54186E-001	3.57760E+000	9	...........
	78	1.05333	1.48857E-001	-3.97663E-004	0.00000E+000	-5.91948E-005	-2.40040E-001	1.48884E-001	3.57760E+000	9	...........
	79	1.06667	1.43581E-001	-3.98920E-004	0.00000E+000	-5.72775E-005	-2.40040E-001	1.43604E-001	3.57760E+000	9	...........
	80	1.08	1.38299E-001	-3.98887E-004	0.00000E+000	-5.51657E-005	-2.40040E-001	1.38323E-001	3.57760E+000	9	...........
	81	1.09333	1.33057E-001	-3.98967E-004	0.00000E+000	-5.30853E-005	-2.40040E-001	1.33084E-001	3.57760E+000	9	...........
	82	1.10667	1.27809E-001	-3.98248E-004	0.00000E+000	-5.08995E-005	-2.40040E-001	1.27832E-001	3.57760E+000	9	...........
	83	1.12	1.22682E-001	-3.98505E-004	0.00000E+000	-4.88893E-005	-2.40040E-001	1.22700E-001	3.57760E+000	9	...........
	84	1.13333	1.17486E-001	-3.98904E-004	0.00000E+000	-4.68658E-005	-2.40040E-001	1.17509E-001	3.57760E+000	9	...........
	85	1.14667	1.12335E-001	-3.99239E-004	0.00000E+000	-4.48485E-005	-2.40040E-001	1.12353E-001	3.57760E+000	9	...........
	86	1.16	1.07257E-001	-3.98925E-004	0.00000E+000	-4.27875E-005	-2.40040E-001	1.07279E-001	3.57760E+000	9	...........
	87	1.17333	1.02203E-001	-4.00091E-004	0.00000E+000	-4.08905E-005	-2.40040E-001	1.02226E-001	3.57760E+000	9	...........
	88	1.18667	9.72555E-002	-3.98921E-004	0.00000E+000	-3.87972E-005	-2.40040E-001	9.72719E-002	3.57760E+000	9	...........
	89	1.2	9.22704E-002	-3.99279E-004	0.00000E+000	-3.68416E-005	-2.40040E-001	9.22836E-002	3.57760E+000	9	...........
	90	1.21333	8.73292E-002	-3.99494E-004	0.00000E+000	-3.48875E-005	-2.40040E-001	8.73457E-002	3.57760E+000	9	...........
	91	1.22667	8.24399E-002	-3.98011E-004	0.00000E+000	-3.28120E-005	-2.40040E-001	8.24538E-002	3.57760E+000	9	...........
	92	1.24	7.75432E-002	-3.98438E-004	0.00000E+000	-3.08962E-005	-2.40040E-001	7.75493E-002	3.57760E+000	9	...........
	93	1.25333	7.26289E-002	-3.99193E-004	0.00000E+000	-2.89929E-005	-2.40040E-001	7.26371E-002	3.57760E+000	9	...........
	94	1.26667	6.78051E-002	-3.98503E-004	0.00000E+000	-2.70206E-005	-2.40040E-001	6.78063E-002	3.57760E+000	9	...........
	95	1.28	6.30123E-002	-3.99233E-004	0.00000E+000	-2.51566E-005	-2.40040E-001	6.30172E-002	3.57760E+000	9	...........
	96	1.29333	5.82483E-002	-3.99496E-004	0.00000E+000	-2.32700E-005	-2.40040E-001	5.82528E-002	3.57760E+000	9	...........
	97	1.30667	5.34162E-002	-3.97952E-004	0.00000E+000	-2.12571E-005	-2.40040E-001	5.34186E-002	3.57760E+000	9	...........
	98	1.32	4.87015E-002	-3.99619E-004	0.00000E+000	-1.94620E-005	-2.40040E-001	4.87063E-002	3.57760E+000	9	...........
	99	1.33333	4.39946E-002	-3.99899E-004	0.00000E+000	-1.75934E-005	-2.40040E-001	4.40030E-002	3.57760E+000	9	...........
	100	1.34667	3.93655E-002	-3.99020E-004	0.00000E+000	-1.57076E-005	-2.40040E-001	3.93639E-002	3.57760E+000	9	...........
	101	1.36	3.46909E-002	-3.97750E-004	0.00000E+000	-1.37983E-005	-2.40040E-001	3.46954E-002	3.57760E+000	9	...........
	102	1.37333	3.01489E-002	-3.98805E-004	0.00000E+000	-1.20235E-005	-2.40040E-001	3.01467E-002	3.57760E+000	9	...........
	103	1.38667	2.55810E-002	-3.99343E-004	0.00000E+000	-1.02156E-005	-2.40040E-001	2.55808E-002	3.57760E+000	9	...........
	104	1.4	2.09798E-002	-3.97532E-004	0.00000E+000	-8.34014E-006	-2.40040E-001	2.09694E-002	3.57760E+000	9	...........
	105	1.41333	1.64019E-002	-3.97791E-004	0.00000E+000	-6.52452E-006	-2.40040E-001	1.63928E-002	3.57760E+000	9	...........
	106	1.42667	1.18592E-002	-3.98626E-004	0.00000E+000	-4.72737E-006	-2.40040E-001	1.18480E-002	3.57760E+000	9	...........
	107	1.44	7.39502E-003	-3.99438E-004	0.00000E+000	-2.95385E-006	-2.40040E-001	7.37594E-003	3.57760E+000	9	...........
	108	1.45333	2.95336E-003	-3.98672E-004	0.00000E+000	-1.17742E-006	-2.40040E-001	2.93216E-003	3.57760E+000	9	...........
	109	1.45667	2.21510E-004	-4.00261E-004	0.00000E+000	-8.86617E-008	-2.40040E-001	2.09385E-004	3.57760E+000	9	...........
STARTTIMEOFFSET	QUANT	1891.089	Start Time Offset (s)
