EXPLAIN
TAG	PWR800_DISCHARGE
TITLE	LABEL	PWR Cyclic Charge Discharge (Cell) - Discharge Step	Test &Identifier
DATE	LABEL	12-7-2017	Date
TIME	LABEL	14:51:32	Time
NOTES	NOTES	3	&Notes...
	supercap test cell
	0.4mg
	6M KOH
PSTAT	PSTAT	IFC5000-01520	Potentiostat
CAPACITY	QUANT	1.00000E-003	Capacity (A-hr)
CELLTYPE	SELECTOR	1	&Cell Type
WORKINGCONNECTION	SELECTOR	0	&Working Lead
MAXDISCHARGETIME	VARIABLEANDUNITS	1.00000E+002	s	1.00000E+002	second(s)	Max &Discharge Time
DISCHARGEMODE	MULTIPARAM	0	4.00000E-004	&Discharge Mode	Constant Current	Amp(s)
SAMPLETIME	QUANT	1.00000E-002	Sa&mple Period (s)
DISCHARGESTOPAT1	MULTIPARAM	3	0.00000E+000	Discharge Stop At &1	Voltage < Limit	V
DISCHARGESTOPAT2	MULTIPARAM	0	0.00000E+000	Discharge Stop At &2	None	N/A
AESBHCSELECTOR	TOGGLE	F	Save Both Half Cells
IRCOMP	TOGGLE	F	IR &Measure
EOC	QUANT	0	Open Circuit (V)
SEQUENCER	TOGGLE	TRUE	Run as Sequence
PSTATMODEL	IQUANT	53	Pstat Model
PSTATSECTION	LABEL	IFC5000-01520	Pstat Section
PSTATSERIALNO	LABEL	01520	Pstat Serial Number
CTRLMODE	IQUANT	0	Control Mode
ELECTROMETER	IQUANT	1	RE=0 or CS=1
IESTAB	IQUANT	0	I/E Stability
CASPEED	IQUANT	4	Control Amp Speed
CONVENTION	IQUANT	1	Current Convention
ICHRANGE	IQUANT	2	Ich Range
ICHRANGEMODE	TOGGLE	T	Ich Auto Range
ICHOFFSETENABLE	TOGGLE	F	Ich Offset Enable
ICHOFFSET	QUANT	0	Ich Offset (V)
ICHFILTER	IQUANT	1	Ich Filter
VCHRANGE	IQUANT	2	Vch Range
VCHRANGEMODE	TOGGLE	T	Vch Auto Range
VCHOFFSETENABLE	TOGGLE	F	Vch Offset Enable
VCHOFFSET	QUANT	0	Vch Offset (V)
VCHFILTER	IQUANT	1	Vch Filter
IERANGELOWERLIMIT	IQUANT	9	I/E Range Lower Limit
IERANGEMODE	TOGGLE	F	I/E AutoRange
IERANGE	IQUANT	9	I/E Range
ACHSELECT	IQUANT	1	Ach Select
ACHRANGE	IQUANT	2	Ach Range
ACHOFFSETENABLE	TOGGLE	F	Ach Offset Enable
ACHOFFSET	QUANT	0	Ach Offset (V)
ACHFILTER	IQUANT	1	Ach Filter
CABLEID	IQUANT	14	Cable ID
DCCALDATE	LABEL	5-7-2017	DC Calibration Date
ACCALDATE	LABEL	12/3/2015	AC Calibration Date
FRAMEWORKVERSION	QUANT	7.01	Framework Version
INSTRUMENTVERSION	LABEL	4.00	Instrument Version
CURVE	TABLE	113
	Pt	T	Vf	Im	Vu	Pwr	Sig	Ach	Temp	IERange	Over
	#	s	V	A	V	W	V	V	deg C	#	bits
	0	0.013333	7.00822E-001	-3.98680E-004	0.00000E+000	-2.79404E-004	-2.40040E-001	7.01044E-001	3.57650E+000	9	...........
	1	0.026667	6.88388E-001	-3.98642E-004	0.00000E+000	-2.74420E-004	-2.40040E-001	6.88613E-001	3.57650E+000	9	...........
	2	0.04	6.77469E-001	-3.99369E-004	0.00000E+000	-2.70560E-004	-2.40040E-001	6.77677E-001	3.57650E+000	9	...........
	3	0.053333	6.67351E-001	-3.99660E-004	0.00000E+000	-2.66713E-004	-2.40040E-001	6.67583E-001	3.57650E+000	9	...........
	4	0.066667	6.57841E-001	-3.98103E-004	0.00000E+000	-2.61888E-004	-2.40040E-001	6.58063E-001	3.57650E+000	9	...........
	5	0.08	6.48775E-001	-3.98160E-004	0.00000E+000	-2.58316E-004	-2.40040E-001	6.48994E-001	3.57650E+000	9	...........
	6	0.093333	6.39923E-001	-3.98931E-004	0.00000E+000	-2.55285E-004	-2.40040E-001	6.40156E-001	3.57650E+000	9	...........
	7	0.106667	6.31312E-001	-3.99467E-004	0.00000E+000	-2.52188E-004	-2.40040E-001	6.31524E-001	3.57650E+000	9	...........
	8	0.12	6.22993E-001	-3.99206E-004	0.00000E+000	-2.48703E-004	-2.40040E-001	6.23163E-001	3.57650E+000	9	...........
	9	0.133333	6.14729E-001	-3.98292E-004	0.00000E+000	-2.44841E-004	-2.40040E-001	6.14921E-001	3.57650E+000	9	...........
	10	0.146667	6.06513E-001	-3.99476E-004	0.00000E+000	-2.42288E-004	-2.40040E-001	6.06721E-001	3.57650E+000	9	...........
	11	0.16	5.98453E-001	-3.99662E-004	0.00000E+000	-2.39179E-004	-2.40040E-001	5.98663E-001	3.57650E+000	9	...........
	12	0.173333	5.90502E-001	-3.98962E-004	0.00000E+000	-2.35588E-004	-2.40040E-001	5.90722E-001	3.57650E+000	9	...........
	13	0.186667	5.82646E-001	-3.97896E-004	0.00000E+000	-2.31832E-004	-2.40040E-001	5.82851E-001	3.57650E+000	9	...........
	14	0.2	5.74830E-001	-3.97472E-004	0.00000E+000	-2.28479E-004	-2.40040E-001	5.75018E-001	3.57650E+000	9	...........
	15	0.213333	5.67130E-001	-3.97273E-004	0.00000E+000	-2.25305E-004	-2.40040E-001	5.67292E-001	3.57650E+000	9	...........
	16	0.226667	5.59399E-001	-3.99141E-004	0.00000E+000	-2.23279E-004	-2.40040E-001	5.59587E-001	3.57650E+000	9	...........
	17	0.24	5.51793E-001	-3.98483E-004	0.00000E+000	-2.19880E-004	-2.40040E-001	5.51984E-001	3.57650E+000	9	...........
	18	0.253333	5.44293E-001	-3.98508E-004	0.00000E+000	-2.16905E-004	-2.40040E-001	5.44470E-001	3.57650E+000	9	...........
	19	0.266667	5.36796E-001	-3.99137E-004	0.00000E+000	-2.14255E-004	-2.40040E-001	5.37000E-001	3.57650E+000	9	...........
	20	0.28	5.29312E-001	-3.98433E-004	0.00000E+000	-2.10896E-004	-2.40040E-001	5.29512E-001	3.57650E+000	9	...........
	21	0.293333	5.21901E-001	-3.98696E-004	0.00000E+000	-2.08080E-004	-2.40040E-001	5.22075E-001	3.57650E+000	9	...........
	22	0.306667	5.14524E-001	-3.98350E-004	0.00000E+000	-2.04961E-004	-2.40040E-001	5.14695E-001	3.57650E+000	9	...........
	23	0.32	5.07164E-001	-3.98884E-004	0.00000E+000	-2.02300E-004	-2.40040E-001	5.07390E-001	3.57650E+000	9	...........
	24	0.333333	4.99852E-001	-3.98379E-004	0.00000E+000	-1.99131E-004	-2.40040E-001	5.00056E-001	3.57650E+000	9	...........
	25	0.346667	4.92644E-001	-3.98476E-004	0.00000E+000	-1.96307E-004	-2.40040E-001	4.92850E-001	3.57650E+000	9	...........
	26	0.36	4.85541E-001	-3.98732E-004	0.00000E+000	-1.93601E-004	-2.40040E-001	4.85686E-001	3.57650E+000	9	...........
	27	0.373333	4.78538E-001	-3.98854E-004	0.00000E+000	-1.90867E-004	-2.40040E-001	4.78639E-001	3.57650E+000	9	...........
	28	0.386667	4.71362E-001	-3.99290E-004	0.00000E+000	-1.88210E-004	-2.40040E-001	4.71457E-001	3.57650E+000	9	...........
	29	0.4	4.64321E-001	-3.98601E-004	0.00000E+000	-1.85079E-004	-2.40040E-001	4.64414E-001	3.57650E+000	9	...........
	30	0.413333	4.57202E-001	-3.98183E-004	0.00000E+000	-1.82050E-004	-2.40040E-001	4.57288E-001	3.57650E+000	9	...........
	31	0.426667	4.50173E-001	-3.99790E-004	0.00000E+000	-1.79975E-004	-2.40040E-001	4.50267E-001	3.57650E+000	9	...........
	32	0.44	4.43177E-001	-3.99620E-004	0.00000E+000	-1.77102E-004	-2.40040E-001	4.43269E-001	3.57650E+000	9	...........
	33	0.453333	4.36260E-001	-3.98383E-004	0.00000E+000	-1.73799E-004	-2.40040E-001	4.36346E-001	3.57650E+000	9	...........
	34	0.466667	4.29330E-001	-3.98911E-004	0.00000E+000	-1.71265E-004	-2.40040E-001	4.29415E-001	3.57650E+000	9	...........
	35	0.48	4.22514E-001	-3.97366E-004	0.00000E+000	-1.67893E-004	-2.40040E-001	4.22596E-001	3.57650E+000	9	...........
	36	0.493333	4.15633E-001	-4.00121E-004	0.00000E+000	-1.66304E-004	-2.40040E-001	4.15720E-001	3.57650E+000	9	...........
	37	0.506667	4.08911E-001	-3.98666E-004	0.00000E+000	-1.63019E-004	-2.40040E-001	4.08993E-001	3.57650E+000	9	...........
	38	0.52	4.02199E-001	-3.98989E-004	0.00000E+000	-1.60473E-004	-2.40040E-001	4.02277E-001	3.57650E+000	9	...........
	39	0.533333	3.95470E-001	-3.97900E-004	0.00000E+000	-1.57357E-004	-2.40040E-001	3.95544E-001	3.57650E+000	9	...........
	40	0.546667	3.88758E-001	-3.99910E-004	0.00000E+000	-1.55468E-004	-2.40040E-001	3.88831E-001	3.57650E+000	9	...........
	41	0.56	3.81989E-001	-3.98364E-004	0.00000E+000	-1.52171E-004	-2.40040E-001	3.82065E-001	3.57635E+000	9	...........
	42	0.573333	3.75377E-001	-3.97735E-004	0.00000E+000	-1.49301E-004	-2.40040E-001	3.75444E-001	3.57620E+000	9	...........
	43	0.586667	3.68831E-001	-3.99151E-004	0.00000E+000	-1.47219E-004	-2.40040E-001	3.68899E-001	3.57620E+000	9	...........
	44	0.6	3.62366E-001	-3.96978E-004	0.00000E+000	-1.43851E-004	-2.40040E-001	3.62434E-001	3.57620E+000	9	...........
	45	0.613333	3.55856E-001	-3.99137E-004	0.00000E+000	-1.42035E-004	-2.40040E-001	3.55920E-001	3.57620E+000	9	...........
	46	0.626667	3.49395E-001	-3.98862E-004	0.00000E+000	-1.39361E-004	-2.40040E-001	3.49461E-001	3.57620E+000	9	...........
	47	0.64	3.42975E-001	-3.97990E-004	0.00000E+000	-1.36501E-004	-2.40040E-001	3.43042E-001	3.57620E+000	9	...........
	48	0.653333	3.36577E-001	-3.97901E-004	0.00000E+000	-1.33924E-004	-2.40040E-001	3.36646E-001	3.57620E+000	9	...........
	49	0.666667	3.30199E-001	-3.97997E-004	0.00000E+000	-1.31418E-004	-2.40040E-001	3.30261E-001	3.57620E+000	9	...........
	50	0.68	3.24013E-001	-3.99707E-004	0.00000E+000	-1.29510E-004	-2.40040E-001	3.24073E-001	3.57620E+000	9	...........
	51	0.693333	3.17780E-001	-3.97491E-004	0.00000E+000	-1.26315E-004	-2.40040E-001	3.17832E-001	3.57620E+000	9	...........
	52	0.706667	3.11480E-001	-3.98107E-004	0.00000E+000	-1.24002E-004	-2.40040E-001	3.11542E-001	3.57620E+000	9	...........
	53	0.72	3.05294E-001	-3.99169E-004	0.00000E+000	-1.21864E-004	-2.40040E-001	3.05360E-001	3.57620E+000	9	...........
	54	0.733333	2.99107E-001	-4.00087E-004	0.00000E+000	-1.19669E-004	-2.40040E-001	2.99170E-001	3.57620E+000	9	...........
	55	0.746667	2.93048E-001	-3.99756E-004	0.00000E+000	-1.17148E-004	-2.40040E-001	2.93108E-001	3.57620E+000	9	...........
	56	0.76	2.87071E-001	-3.99149E-004	0.00000E+000	-1.14584E-004	-2.40040E-001	2.87130E-001	3.57620E+000	9	...........
	57	0.773333	2.81090E-001	-3.98490E-004	0.00000E+000	-1.12011E-004	-2.40040E-001	2.81145E-001	3.57620E+000	9	...........
	58	0.786667	2.75063E-001	-3.98101E-004	0.00000E+000	-1.09503E-004	-2.40040E-001	2.75120E-001	3.57620E+000	9	...........
	59	0.8	2.69163E-001	-3.97757E-004	0.00000E+000	-1.07061E-004	-2.40040E-001	2.69227E-001	3.57620E+000	9	...........
	60	0.813333	2.63221E-001	-3.98963E-004	0.00000E+000	-1.05015E-004	-2.40040E-001	2.63277E-001	3.57620E+000	9	...........
	61	0.826667	2.57320E-001	-3.97907E-004	0.00000E+000	-1.02389E-004	-2.40040E-001	2.57379E-001	3.57620E+000	9	...........
	62	0.84	2.51487E-001	-3.99024E-004	0.00000E+000	-1.00349E-004	-2.40040E-001	2.51540E-001	3.57620E+000	9	...........
	63	0.853333	2.45705E-001	-3.98423E-004	0.00000E+000	-9.78943E-005	-2.40040E-001	2.45757E-001	3.57620E+000	9	...........
	64	0.866667	2.39968E-001	-3.98748E-004	0.00000E+000	-9.56866E-005	-2.40040E-001	2.40013E-001	3.57620E+000	9	...........
	65	0.88	2.34239E-001	-3.98157E-004	0.00000E+000	-9.32639E-005	-2.40040E-001	2.34287E-001	3.57620E+000	9	...........
	66	0.893333	2.28498E-001	-3.98892E-004	0.00000E+000	-9.11459E-005	-2.40040E-001	2.28541E-001	3.57620E+000	9	...........
	67	0.906667	2.22856E-001	-3.97549E-004	0.00000E+000	-8.85963E-005	-2.40040E-001	2.22899E-001	3.57620E+000	9	...........
	68	0.92	2.17227E-001	-3.98714E-004	0.00000E+000	-8.66114E-005	-2.40040E-001	2.17268E-001	3.57620E+000	9	...........
	69	0.933333	2.11613E-001	-3.99318E-004	0.00000E+000	-8.45007E-005	-2.40040E-001	2.11654E-001	3.57620E+000	9	...........
	70	0.946667	2.06122E-001	-3.98318E-004	0.00000E+000	-8.21020E-005	-2.40040E-001	2.06166E-001	3.57620E+000	9	...........
	71	0.96	2.00671E-001	-3.99006E-004	0.00000E+000	-8.00690E-005	-2.40040E-001	2.00712E-001	3.57620E+000	9	...........
	72	0.97333	1.95112E-001	-3.98484E-004	0.00000E+000	-7.77491E-005	-2.40040E-001	1.95149E-001	3.57620E+000	9	...........
	73	0.98667	1.89600E-001	-3.98411E-004	0.00000E+000	-7.55389E-005	-2.40040E-001	1.89638E-001	3.57620E+000	9	...........
	74	1	1.84192E-001	-3.99312E-004	0.00000E+000	-7.35500E-005	-2.40040E-001	1.84229E-001	3.57620E+000	9	...........
	75	1.01333	1.78696E-001	-3.97785E-004	0.00000E+000	-7.10828E-005	-2.40040E-001	1.78726E-001	3.57620E+000	9	...........
	76	1.02667	1.73332E-001	-3.99025E-004	0.00000E+000	-6.91636E-005	-2.40040E-001	1.73363E-001	3.57620E+000	9	...........
	77	1.04	1.67985E-001	-3.98397E-004	0.00000E+000	-6.69245E-005	-2.40040E-001	1.68018E-001	3.57620E+000	9	...........
	78	1.05333	1.62697E-001	-3.98483E-004	0.00000E+000	-6.48320E-005	-2.40040E-001	1.62722E-001	3.57620E+000	9	...........
	79	1.06667	1.57407E-001	-3.97715E-004	0.00000E+000	-6.26030E-005	-2.40040E-001	1.57432E-001	3.57620E+000	9	...........
	80	1.08	1.52171E-001	-3.99542E-004	0.00000E+000	-6.07987E-005	-2.40040E-001	1.52199E-001	3.57620E+000	9	...........
	81	1.09333	1.46912E-001	-3.99085E-004	0.00000E+000	-5.86304E-005	-2.40040E-001	1.46934E-001	3.57620E+000	9	...........
	82	1.10667	1.41649E-001	-3.98096E-004	0.00000E+000	-5.63898E-005	-2.40040E-001	1.41677E-001	3.57620E+000	9	...........
	83	1.12	1.36519E-001	-3.99759E-004	0.00000E+000	-5.45747E-005	-2.40040E-001	1.36542E-001	3.57620E+000	9	...........
	84	1.13333	1.31436E-001	-3.99263E-004	0.00000E+000	-5.24776E-005	-2.40040E-001	1.31461E-001	3.57620E+000	9	...........
	85	1.14667	1.26338E-001	-3.99097E-004	0.00000E+000	-5.04212E-005	-2.40040E-001	1.26360E-001	3.57620E+000	9	...........
	86	1.16	1.21264E-001	-3.99215E-004	0.00000E+000	-4.84102E-005	-2.40040E-001	1.21290E-001	3.57620E+000	9	...........
	87	1.17333	1.16156E-001	-3.98295E-004	0.00000E+000	-4.62644E-005	-2.40040E-001	1.16179E-001	3.57620E+000	9	...........
	88	1.18667	1.11181E-001	-3.99068E-004	0.00000E+000	-4.43689E-005	-2.40040E-001	1.11205E-001	3.57620E+000	9	...........
	89	1.2	1.06209E-001	-3.98611E-004	0.00000E+000	-4.23359E-005	-2.40040E-001	1.06230E-001	3.57620E+000	9	...........
	90	1.21333	1.01283E-001	-3.98562E-004	0.00000E+000	-4.03676E-005	-2.40040E-001	1.01303E-001	3.57620E+000	9	...........
	91	1.22667	9.63337E-002	-3.99210E-004	0.00000E+000	-3.84574E-005	-2.40040E-001	9.63519E-002	3.57620E+000	9	...........
	92	1.24	9.15201E-002	-3.98587E-004	0.00000E+000	-3.64788E-005	-2.40040E-001	9.15394E-002	3.57620E+000	9	...........
	93	1.25333	8.66752E-002	-3.99349E-004	0.00000E+000	-3.46137E-005	-2.40040E-001	8.66975E-002	3.57620E+000	9	...........
	94	1.26667	8.17678E-002	-3.99013E-004	0.00000E+000	-3.26264E-005	-2.40040E-001	8.17838E-002	3.57620E+000	9	...........
	95	1.28	7.70042E-002	-3.99679E-004	0.00000E+000	-3.07770E-005	-2.40040E-001	7.70185E-002	3.57620E+000	9	...........
	96	1.29333	7.21571E-002	-3.98410E-004	0.00000E+000	-2.87481E-005	-2.40040E-001	7.21726E-002	3.57620E+000	9	...........
	97	1.30667	6.74668E-002	-3.98169E-004	0.00000E+000	-2.68632E-005	-2.40040E-001	6.74737E-002	3.57620E+000	9	...........
	98	1.32	6.27759E-002	-3.98917E-004	0.00000E+000	-2.50423E-005	-2.40040E-001	6.27831E-002	3.57620E+000	9	...........
	99	1.33333	5.80840E-002	-3.98627E-004	0.00000E+000	-2.31538E-005	-2.40040E-001	5.80921E-002	3.57620E+000	9	...........
	100	1.34667	5.34202E-002	-3.99284E-004	0.00000E+000	-2.13299E-005	-2.40040E-001	5.34294E-002	3.57620E+000	9	...........
	101	1.36	4.88344E-002	-3.99070E-004	0.00000E+000	-1.94883E-005	-2.40040E-001	4.88347E-002	3.57620E+000	9	...........
	102	1.37333	4.42160E-002	-3.99098E-004	0.00000E+000	-1.76465E-005	-2.40040E-001	4.42214E-002	3.57620E+000	9	...........
	103	1.38667	3.96961E-002	-3.98786E-004	0.00000E+000	-1.58303E-005	-2.40040E-001	3.97061E-002	3.57620E+000	9	...........
	104	1.4	3.51378E-002	-3.99517E-004	0.00000E+000	-1.40381E-005	-2.40040E-001	3.51385E-002	3.57620E+000	9	...........
	105	1.41333	3.06620E-002	-3.99405E-004	0.00000E+000	-1.22466E-005	-2.40040E-001	3.06628E-002	3.57620E+000	9	...........
	106	1.42667	2.61331E-002	-3.99669E-004	0.00000E+000	-1.04446E-005	-2.40040E-001	2.61282E-002	3.57620E+000	9	...........
	107	1.44	2.16531E-002	-3.98240E-004	0.00000E+000	-8.62316E-006	-2.40040E-001	2.16419E-002	3.57620E+000	9	...........
	108	1.45333	1.70833E-002	-3.98807E-004	0.00000E+000	-6.81295E-006	-2.40040E-001	1.70813E-002	3.57620E+000	9	...........
	109	1.46667	1.26851E-002	-3.98256E-004	0.00000E+000	-5.05194E-006	-2.40040E-001	1.26767E-002	3.57620E+000	9	...........
	110	1.48	8.20725E-003	-3.98989E-004	0.00000E+000	-3.27460E-006	-2.40040E-001	8.19301E-003	3.57620E+000	9	...........
	111	1.49333	3.76221E-003	-3.98536E-004	0.00000E+000	-1.49938E-006	-2.40040E-001	3.74277E-003	3.57620E+000	9	...........
	112	1.5	4.31166E-004	-3.99386E-004	0.00000E+000	-1.72201E-007	-2.40040E-001	4.13034E-004	3.57620E+000	9	...........
STARTTIMEOFFSET	QUANT	1573.684	Start Time Offset (s)
