EXPLAIN
TAG	PWR800_DISCHARGE
TITLE	LABEL	PWR Cyclic Charge Discharge (Cell) - Discharge Step	Test &Identifier
DATE	LABEL	12-7-2017	Date
TIME	LABEL	15:21:52	Time
NOTES	NOTES	3	&Notes...
	supercap test cell
	0.4mg
	6M KOH
PSTAT	PSTAT	IFC5000-01520	Potentiostat
CAPACITY	QUANT	1.00000E-003	Capacity (A-hr)
CELLTYPE	SELECTOR	1	&Cell Type
WORKINGCONNECTION	SELECTOR	0	&Working Lead
MAXDISCHARGETIME	VARIABLEANDUNITS	1.00000E+002	s	1.00000E+002	second(s)	Max &Discharge Time
DISCHARGEMODE	MULTIPARAM	0	4.00000E-004	&Discharge Mode	Constant Current	Amp(s)
SAMPLETIME	QUANT	1.00000E-002	Sa&mple Period (s)
DISCHARGESTOPAT1	MULTIPARAM	3	0.00000E+000	Discharge Stop At &1	Voltage < Limit	V
DISCHARGESTOPAT2	MULTIPARAM	0	0.00000E+000	Discharge Stop At &2	None	N/A
AESBHCSELECTOR	TOGGLE	F	Save Both Half Cells
IRCOMP	TOGGLE	F	IR &Measure
EOC	QUANT	0	Open Circuit (V)
SEQUENCER	TOGGLE	TRUE	Run as Sequence
PSTATMODEL	IQUANT	53	Pstat Model
PSTATSECTION	LABEL	IFC5000-01520	Pstat Section
PSTATSERIALNO	LABEL	01520	Pstat Serial Number
CTRLMODE	IQUANT	0	Control Mode
ELECTROMETER	IQUANT	1	RE=0 or CS=1
IESTAB	IQUANT	0	I/E Stability
CASPEED	IQUANT	4	Control Amp Speed
CONVENTION	IQUANT	1	Current Convention
ICHRANGE	IQUANT	2	Ich Range
ICHRANGEMODE	TOGGLE	T	Ich Auto Range
ICHOFFSETENABLE	TOGGLE	F	Ich Offset Enable
ICHOFFSET	QUANT	0	Ich Offset (V)
ICHFILTER	IQUANT	1	Ich Filter
VCHRANGE	IQUANT	2	Vch Range
VCHRANGEMODE	TOGGLE	T	Vch Auto Range
VCHOFFSETENABLE	TOGGLE	F	Vch Offset Enable
VCHOFFSET	QUANT	0	Vch Offset (V)
VCHFILTER	IQUANT	1	Vch Filter
IERANGELOWERLIMIT	IQUANT	9	I/E Range Lower Limit
IERANGEMODE	TOGGLE	F	I/E AutoRange
IERANGE	IQUANT	9	I/E Range
ACHSELECT	IQUANT	1	Ach Select
ACHRANGE	IQUANT	2	Ach Range
ACHOFFSETENABLE	TOGGLE	F	Ach Offset Enable
ACHOFFSET	QUANT	0	Ach Offset (V)
ACHFILTER	IQUANT	1	Ach Filter
CABLEID	IQUANT	14	Cable ID
DCCALDATE	LABEL	5-7-2017	DC Calibration Date
ACCALDATE	LABEL	12/3/2015	AC Calibration Date
FRAMEWORKVERSION	QUANT	7.01	Framework Version
INSTRUMENTVERSION	LABEL	4.00	Instrument Version
CURVE	TABLE	102
	Pt	T	Vf	Im	Vu	Pwr	Sig	Ach	Temp	IERange	Over
	#	s	V	A	V	W	V	V	deg C	#	bits
	0	0.013333	6.82124E-001	-3.98353E-004	0.00000E+000	-2.71726E-004	-2.40040E-001	6.82374E-001	3.57700E+000	9	...........
	1	0.026667	6.68266E-001	-3.99004E-004	0.00000E+000	-2.66641E-004	-2.40040E-001	6.68512E-001	3.57700E+000	9	...........
	2	0.04	6.56124E-001	-3.98437E-004	0.00000E+000	-2.61424E-004	-2.40040E-001	6.56374E-001	3.57700E+000	9	...........
	3	0.053333	6.45136E-001	-3.99185E-004	0.00000E+000	-2.57529E-004	-2.40040E-001	6.45393E-001	3.57700E+000	9	...........
	4	0.066667	6.34777E-001	-3.99374E-004	0.00000E+000	-2.53514E-004	-2.40040E-001	6.35016E-001	3.57700E+000	9	...........
	5	0.08	6.24967E-001	-4.00243E-004	0.00000E+000	-2.50139E-004	-2.40040E-001	6.25187E-001	3.57700E+000	9	...........
	6	0.093333	6.15529E-001	-3.98955E-004	0.00000E+000	-2.45568E-004	-2.40040E-001	6.15733E-001	3.57700E+000	9	...........
	7	0.106667	6.06267E-001	-3.98660E-004	0.00000E+000	-2.41695E-004	-2.40040E-001	6.06495E-001	3.57700E+000	9	...........
	8	0.12	5.97303E-001	-3.97884E-004	0.00000E+000	-2.37658E-004	-2.40040E-001	5.97518E-001	3.57700E+000	9	...........
	9	0.133333	5.88465E-001	-3.98708E-004	0.00000E+000	-2.34626E-004	-2.40040E-001	5.88702E-001	3.57700E+000	9	...........
	10	0.146667	5.79738E-001	-3.98125E-004	0.00000E+000	-2.30808E-004	-2.40040E-001	5.79950E-001	3.57700E+000	9	...........
	11	0.16	5.71150E-001	-3.98810E-004	0.00000E+000	-2.27781E-004	-2.40040E-001	5.71355E-001	3.57700E+000	9	...........
	12	0.173333	5.62667E-001	-3.99223E-004	0.00000E+000	-2.24630E-004	-2.40040E-001	5.62875E-001	3.57700E+000	9	...........
	13	0.186667	5.54265E-001	-3.98201E-004	0.00000E+000	-2.20709E-004	-2.40040E-001	5.54474E-001	3.57700E+000	9	...........
	14	0.2	5.45997E-001	-3.99420E-004	0.00000E+000	-2.18082E-004	-2.40040E-001	5.46204E-001	3.57700E+000	9	...........
	15	0.213333	5.37748E-001	-3.99947E-004	0.00000E+000	-2.15071E-004	-2.40040E-001	5.37979E-001	3.57700E+000	9	...........
	16	0.226667	5.29587E-001	-3.98817E-004	0.00000E+000	-2.11208E-004	-2.40040E-001	5.29829E-001	3.57700E+000	9	...........
	17	0.24	5.21494E-001	-3.99070E-004	0.00000E+000	-2.08113E-004	-2.40040E-001	5.21709E-001	3.57700E+000	9	...........
	18	0.253333	5.13399E-001	-3.97645E-004	0.00000E+000	-2.04150E-004	-2.40040E-001	5.13613E-001	3.57700E+000	9	...........
	19	0.266667	5.05319E-001	-3.98967E-004	0.00000E+000	-2.01606E-004	-2.40040E-001	5.05555E-001	3.57700E+000	9	...........
	20	0.28	4.97374E-001	-3.99255E-004	0.00000E+000	-1.98579E-004	-2.40040E-001	4.97601E-001	3.57700E+000	9	...........
	21	0.293333	4.89477E-001	-3.97992E-004	0.00000E+000	-1.94808E-004	-2.40040E-001	4.89694E-001	3.57700E+000	9	...........
	22	0.306667	4.81851E-001	-3.99375E-004	0.00000E+000	-1.92439E-004	-2.40040E-001	4.81954E-001	3.57700E+000	9	...........
	23	0.32	4.74080E-001	-3.99172E-004	0.00000E+000	-1.89239E-004	-2.40040E-001	4.74183E-001	3.57700E+000	9	...........
	24	0.333333	4.66313E-001	-3.98619E-004	0.00000E+000	-1.85881E-004	-2.40040E-001	4.66414E-001	3.57700E+000	9	...........
	25	0.346667	4.58627E-001	-3.99022E-004	0.00000E+000	-1.83002E-004	-2.40040E-001	4.58724E-001	3.57700E+000	9	...........
	26	0.36	4.50906E-001	-3.98960E-004	0.00000E+000	-1.79894E-004	-2.40040E-001	4.51001E-001	3.57700E+000	9	...........
	27	0.373333	4.43260E-001	-3.98718E-004	0.00000E+000	-1.76735E-004	-2.40040E-001	4.43351E-001	3.57700E+000	9	...........
	28	0.386667	4.35726E-001	-3.98125E-004	0.00000E+000	-1.73473E-004	-2.40040E-001	4.35820E-001	3.57700E+000	9	...........
	29	0.4	4.28144E-001	-3.98413E-004	0.00000E+000	-1.70578E-004	-2.40040E-001	4.28233E-001	3.57725E+000	9	...........
	30	0.413333	4.20670E-001	-4.00126E-004	0.00000E+000	-1.68321E-004	-2.40040E-001	4.20760E-001	3.57750E+000	9	...........
	31	0.426667	4.13253E-001	-3.98652E-004	0.00000E+000	-1.64744E-004	-2.40040E-001	4.13335E-001	3.57750E+000	9	...........
	32	0.44	4.05808E-001	-3.99054E-004	0.00000E+000	-1.61939E-004	-2.40040E-001	4.05889E-001	3.57750E+000	9	...........
	33	0.453333	3.98461E-001	-3.98685E-004	0.00000E+000	-1.58861E-004	-2.40040E-001	3.98537E-001	3.57750E+000	9	...........
	34	0.466667	3.91117E-001	-3.99188E-004	0.00000E+000	-1.56129E-004	-2.40040E-001	3.91191E-001	3.57750E+000	9	...........
	35	0.48	3.83802E-001	-3.98923E-004	0.00000E+000	-1.53107E-004	-2.40040E-001	3.83873E-001	3.57750E+000	9	...........
	36	0.493333	3.76615E-001	-3.98992E-004	0.00000E+000	-1.50266E-004	-2.40040E-001	3.76687E-001	3.57750E+000	9	...........
	37	0.506667	3.69453E-001	-3.99258E-004	0.00000E+000	-1.47507E-004	-2.40040E-001	3.69523E-001	3.57750E+000	9	...........
	38	0.52	3.62380E-001	-3.98952E-004	0.00000E+000	-1.44572E-004	-2.40040E-001	3.62452E-001	3.57750E+000	9	...........
	39	0.533333	3.55261E-001	-3.98700E-004	0.00000E+000	-1.41643E-004	-2.40040E-001	3.55324E-001	3.57750E+000	9	...........
	40	0.546667	3.48224E-001	-3.99315E-004	0.00000E+000	-1.39051E-004	-2.40040E-001	3.48284E-001	3.57750E+000	9	...........
	41	0.56	3.41196E-001	-3.99183E-004	0.00000E+000	-1.36200E-004	-2.40040E-001	3.41261E-001	3.57750E+000	9	...........
	42	0.573333	3.34270E-001	-3.98832E-004	0.00000E+000	-1.33318E-004	-2.40040E-001	3.34328E-001	3.57750E+000	9	...........
	43	0.586667	3.27345E-001	-3.98896E-004	0.00000E+000	-1.30576E-004	-2.40040E-001	3.27406E-001	3.57750E+000	9	...........
	44	0.6	3.20504E-001	-3.97980E-004	0.00000E+000	-1.27554E-004	-2.40040E-001	3.20564E-001	3.57750E+000	9	...........
	45	0.613333	3.13729E-001	-4.00308E-004	0.00000E+000	-1.25588E-004	-2.40040E-001	3.13791E-001	3.57750E+000	9	...........
	46	0.626667	3.06930E-001	-3.99318E-004	0.00000E+000	-1.22563E-004	-2.40040E-001	3.06993E-001	3.57750E+000	9	...........
	47	0.64	3.00166E-001	-3.98793E-004	0.00000E+000	-1.19704E-004	-2.40040E-001	3.00226E-001	3.57750E+000	9	...........
	48	0.653333	2.93497E-001	-4.00439E-004	0.00000E+000	-1.17528E-004	-2.40040E-001	2.93553E-001	3.57750E+000	9	...........
	49	0.666667	2.86840E-001	-3.98347E-004	0.00000E+000	-1.14262E-004	-2.40040E-001	2.86900E-001	3.57750E+000	9	...........
	50	0.68	2.80261E-001	-3.99271E-004	0.00000E+000	-1.11900E-004	-2.40040E-001	2.80316E-001	3.57750E+000	9	...........
	51	0.693333	2.73757E-001	-3.98791E-004	0.00000E+000	-1.09172E-004	-2.40040E-001	2.73809E-001	3.57750E+000	9	...........
	52	0.706667	2.67307E-001	-3.99442E-004	0.00000E+000	-1.06774E-004	-2.40040E-001	2.67360E-001	3.57750E+000	9	...........
	53	0.72	2.60905E-001	-3.98355E-004	0.00000E+000	-1.03933E-004	-2.40040E-001	2.60955E-001	3.57750E+000	9	...........
	54	0.733333	2.54490E-001	-3.99441E-004	0.00000E+000	-1.01654E-004	-2.40040E-001	2.54542E-001	3.57750E+000	9	...........
	55	0.746667	2.48097E-001	-3.99848E-004	0.00000E+000	-9.92012E-005	-2.40040E-001	2.48150E-001	3.57750E+000	9	...........
	56	0.76	2.41788E-001	-4.00096E-004	0.00000E+000	-9.67385E-005	-2.40040E-001	2.41826E-001	3.57750E+000	9	...........
	57	0.773333	2.35536E-001	-3.97670E-004	0.00000E+000	-9.36656E-005	-2.40040E-001	2.35582E-001	3.57750E+000	9	...........
	58	0.786667	2.29340E-001	-3.99453E-004	0.00000E+000	-9.16105E-005	-2.40040E-001	2.29385E-001	3.57750E+000	9	...........
	59	0.8	2.23203E-001	-3.97802E-004	0.00000E+000	-8.87905E-005	-2.40040E-001	2.23245E-001	3.57750E+000	9	...........
	60	0.813333	2.17010E-001	-4.00422E-004	0.00000E+000	-8.68957E-005	-2.40040E-001	2.17048E-001	3.57750E+000	9	...........
	61	0.826667	2.10924E-001	-3.97678E-004	0.00000E+000	-8.38799E-005	-2.40040E-001	2.10969E-001	3.57750E+000	9	...........
	62	0.84	2.04820E-001	-3.98733E-004	0.00000E+000	-8.16685E-005	-2.40040E-001	2.04857E-001	3.57750E+000	9	...........
	63	0.853333	1.98812E-001	-3.97924E-004	0.00000E+000	-7.91121E-005	-2.40040E-001	1.98854E-001	3.57750E+000	9	...........
	64	0.866667	1.92765E-001	-3.99587E-004	0.00000E+000	-7.70264E-005	-2.40040E-001	1.92802E-001	3.57750E+000	9	...........
	65	0.88	1.86816E-001	-3.99069E-004	0.00000E+000	-7.45526E-005	-2.40040E-001	1.86853E-001	3.57750E+000	9	...........
	66	0.893333	1.80955E-001	-3.99684E-004	0.00000E+000	-7.23246E-005	-2.40040E-001	1.80992E-001	3.57750E+000	9	...........
	67	0.906667	1.75059E-001	-3.99163E-004	0.00000E+000	-6.98770E-005	-2.40040E-001	1.75099E-001	3.57750E+000	9	...........
	68	0.92	1.69290E-001	-3.98410E-004	0.00000E+000	-6.74470E-005	-2.40040E-001	1.69323E-001	3.57750E+000	9	...........
	69	0.933333	1.63527E-001	-3.98329E-004	0.00000E+000	-6.51376E-005	-2.40040E-001	1.63552E-001	3.57750E+000	9	...........
	70	0.946667	1.57831E-001	-4.00035E-004	0.00000E+000	-6.31378E-005	-2.40040E-001	1.57855E-001	3.57750E+000	9	...........
	71	0.96	1.52165E-001	-3.98983E-004	0.00000E+000	-6.07113E-005	-2.40040E-001	1.52190E-001	3.57750E+000	9	...........
	72	0.97333	1.46526E-001	-3.99078E-004	0.00000E+000	-5.84752E-005	-2.40040E-001	1.46544E-001	3.57750E+000	9	...........
	73	0.98667	1.40935E-001	-3.99418E-004	0.00000E+000	-5.62920E-005	-2.40040E-001	1.40962E-001	3.57750E+000	9	...........
	74	1	1.35370E-001	-3.98199E-004	0.00000E+000	-5.39043E-005	-2.40040E-001	1.35395E-001	3.57750E+000	9	...........
	75	1.01333	1.29853E-001	-3.98864E-004	0.00000E+000	-5.17937E-005	-2.40040E-001	1.29875E-001	3.57750E+000	9	...........
	76	1.02667	1.24406E-001	-3.98108E-004	0.00000E+000	-4.95272E-005	-2.40040E-001	1.24426E-001	3.57750E+000	9	...........
	77	1.04	1.19027E-001	-3.98495E-004	0.00000E+000	-4.74314E-005	-2.40040E-001	1.19050E-001	3.57750E+000	9	...........
	78	1.05333	1.13684E-001	-3.99492E-004	0.00000E+000	-4.54157E-005	-2.40040E-001	1.13704E-001	3.57750E+000	9	...........
	79	1.06667	1.08254E-001	-3.98782E-004	0.00000E+000	-4.31699E-005	-2.40040E-001	1.08272E-001	3.57750E+000	9	...........
	80	1.08	1.02925E-001	-3.98675E-004	0.00000E+000	-4.10335E-005	-2.40040E-001	1.02942E-001	3.57750E+000	9	...........
	81	1.09333	9.76799E-002	-3.98923E-004	0.00000E+000	-3.89668E-005	-2.40040E-001	9.76972E-002	3.57750E+000	9	...........
	82	1.10667	9.24844E-002	-3.98401E-004	0.00000E+000	-3.68459E-005	-2.40040E-001	9.24988E-002	3.57750E+000	9	...........
	83	1.12	8.71987E-002	-3.99296E-004	0.00000E+000	-3.48181E-005	-2.40040E-001	8.72115E-002	3.57750E+000	9	...........
	84	1.13333	8.19033E-002	-3.99280E-004	0.00000E+000	-3.27024E-005	-2.40040E-001	8.19175E-002	3.57750E+000	9	...........
	85	1.14667	7.68225E-002	-3.98709E-004	0.00000E+000	-3.06298E-005	-2.40040E-001	7.68320E-002	3.57750E+000	9	...........
	86	1.16	7.17048E-002	-3.99355E-004	0.00000E+000	-2.86357E-005	-2.40040E-001	7.17108E-002	3.57750E+000	9	...........
	87	1.17333	6.65839E-002	-3.99442E-004	0.00000E+000	-2.65964E-005	-2.40040E-001	6.65920E-002	3.57750E+000	9	...........
	88	1.18667	6.15527E-002	-3.98466E-004	0.00000E+000	-2.45266E-005	-2.40040E-001	6.15557E-002	3.57750E+000	9	...........
	89	1.2	5.65442E-002	-3.98160E-004	0.00000E+000	-2.25136E-005	-2.40040E-001	5.65441E-002	3.57750E+000	9	...........
	90	1.21333	5.15487E-002	-4.00329E-004	0.00000E+000	-2.06365E-005	-2.40040E-001	5.15535E-002	3.57750E+000	9	...........
	91	1.22667	4.66176E-002	-4.00159E-004	0.00000E+000	-1.86544E-005	-2.40040E-001	4.66200E-002	3.57750E+000	9	...........
	92	1.24	4.17131E-002	-3.98644E-004	0.00000E+000	-1.66287E-005	-2.40040E-001	4.17200E-002	3.57750E+000	9	...........
	93	1.25333	3.68268E-002	-3.99031E-004	0.00000E+000	-1.46951E-005	-2.40040E-001	3.68292E-002	3.57750E+000	9	...........
	94	1.26667	3.19423E-002	-4.00353E-004	0.00000E+000	-1.27882E-005	-2.40040E-001	3.19376E-002	3.57750E+000	9	...........
	95	1.28	2.71389E-002	-3.99127E-004	0.00000E+000	-1.08319E-005	-2.40040E-001	2.71348E-002	3.57750E+000	9	...........
	96	1.29333	2.22343E-002	-3.99983E-004	0.00000E+000	-8.89332E-006	-2.40040E-001	2.22255E-002	3.57750E+000	9	...........
	97	1.30667	1.74709E-002	-4.00068E-004	0.00000E+000	-6.98956E-006	-2.40040E-001	1.74611E-002	3.57750E+000	9	...........
	98	1.32	1.27430E-002	-3.98900E-004	0.00000E+000	-5.08318E-006	-2.40040E-001	1.27284E-002	3.57750E+000	9	...........
	99	1.33333	8.02521E-003	-3.98501E-004	0.00000E+000	-3.19805E-006	-2.40040E-001	8.00916E-003	3.57750E+000	9	...........
	100	1.34667	3.31359E-003	-3.98943E-004	0.00000E+000	-1.32193E-006	-2.40040E-001	3.29447E-003	3.57750E+000	9	...........
	101	1.35167	1.58173E-004	-3.97250E-004	0.00000E+000	-6.28344E-008	-2.40040E-001	1.36956E-004	3.57750E+000	9	...........
STARTTIMEOFFSET	QUANT	2993.736	Start Time Offset (s)
