EXPLAIN
TAG	PWR800_DISCHARGE
TITLE	LABEL	PWR Cyclic Charge Discharge (Cell) - Discharge Step	Test &Identifier
DATE	LABEL	12-7-2017	Date
TIME	LABEL	15:04:54	Time
NOTES	NOTES	3	&Notes...
	supercap test cell
	0.4mg
	6M KOH
PSTAT	PSTAT	IFC5000-01520	Potentiostat
CAPACITY	QUANT	1.00000E-003	Capacity (A-hr)
CELLTYPE	SELECTOR	1	&Cell Type
WORKINGCONNECTION	SELECTOR	0	&Working Lead
MAXDISCHARGETIME	VARIABLEANDUNITS	1.00000E+002	s	1.00000E+002	second(s)	Max &Discharge Time
DISCHARGEMODE	MULTIPARAM	0	4.00000E-004	&Discharge Mode	Constant Current	Amp(s)
SAMPLETIME	QUANT	1.00000E-002	Sa&mple Period (s)
DISCHARGESTOPAT1	MULTIPARAM	3	0.00000E+000	Discharge Stop At &1	Voltage < Limit	V
DISCHARGESTOPAT2	MULTIPARAM	0	0.00000E+000	Discharge Stop At &2	None	N/A
AESBHCSELECTOR	TOGGLE	F	Save Both Half Cells
IRCOMP	TOGGLE	F	IR &Measure
EOC	QUANT	0	Open Circuit (V)
SEQUENCER	TOGGLE	TRUE	Run as Sequence
PSTATMODEL	IQUANT	53	Pstat Model
PSTATSECTION	LABEL	IFC5000-01520	Pstat Section
PSTATSERIALNO	LABEL	01520	Pstat Serial Number
CTRLMODE	IQUANT	0	Control Mode
ELECTROMETER	IQUANT	1	RE=0 or CS=1
IESTAB	IQUANT	0	I/E Stability
CASPEED	IQUANT	4	Control Amp Speed
CONVENTION	IQUANT	1	Current Convention
ICHRANGE	IQUANT	2	Ich Range
ICHRANGEMODE	TOGGLE	T	Ich Auto Range
ICHOFFSETENABLE	TOGGLE	F	Ich Offset Enable
ICHOFFSET	QUANT	0	Ich Offset (V)
ICHFILTER	IQUANT	1	Ich Filter
VCHRANGE	IQUANT	2	Vch Range
VCHRANGEMODE	TOGGLE	T	Vch Auto Range
VCHOFFSETENABLE	TOGGLE	F	Vch Offset Enable
VCHOFFSET	QUANT	0	Vch Offset (V)
VCHFILTER	IQUANT	1	Vch Filter
IERANGELOWERLIMIT	IQUANT	9	I/E Range Lower Limit
IERANGEMODE	TOGGLE	F	I/E AutoRange
IERANGE	IQUANT	9	I/E Range
ACHSELECT	IQUANT	1	Ach Select
ACHRANGE	IQUANT	2	Ach Range
ACHOFFSETENABLE	TOGGLE	F	Ach Offset Enable
ACHOFFSET	QUANT	0	Ach Offset (V)
ACHFILTER	IQUANT	1	Ach Filter
CABLEID	IQUANT	14	Cable ID
DCCALDATE	LABEL	5-7-2017	DC Calibration Date
ACCALDATE	LABEL	12/3/2015	AC Calibration Date
FRAMEWORKVERSION	QUANT	7.01	Framework Version
INSTRUMENTVERSION	LABEL	4.00	Instrument Version
CURVE	TABLE	107
	Pt	T	Vf	Im	Vu	Pwr	Sig	Ach	Temp	IERange	Over
	#	s	V	A	V	W	V	V	deg C	#	bits
	0	0.013333	6.91407E-001	-3.98507E-004	0.00000E+000	-2.75531E-004	-2.40040E-001	6.91627E-001	3.57630E+000	9	...........
	1	0.026667	6.78255E-001	-3.98854E-004	0.00000E+000	-2.70525E-004	-2.40040E-001	6.78478E-001	3.57630E+000	9	...........
	2	0.04	6.66763E-001	-3.99293E-004	0.00000E+000	-2.66234E-004	-2.40040E-001	6.66997E-001	3.57630E+000	9	...........
	3	0.053333	6.56235E-001	-3.97140E-004	0.00000E+000	-2.60617E-004	-2.40040E-001	6.56468E-001	3.57630E+000	9	...........
	4	0.066667	6.46330E-001	-3.98878E-004	0.00000E+000	-2.57807E-004	-2.40040E-001	6.46556E-001	3.57630E+000	9	...........
	5	0.08	6.36749E-001	-3.99006E-004	0.00000E+000	-2.54067E-004	-2.40040E-001	6.36978E-001	3.57630E+000	9	...........
	6	0.093333	6.27653E-001	-3.98703E-004	0.00000E+000	-2.50247E-004	-2.40040E-001	6.27872E-001	3.57630E+000	9	...........
	7	0.106667	6.18778E-001	-3.97442E-004	0.00000E+000	-2.45928E-004	-2.40040E-001	6.18993E-001	3.57630E+000	9	...........
	8	0.12	6.09998E-001	-3.99388E-004	0.00000E+000	-2.43626E-004	-2.40040E-001	6.10256E-001	3.57630E+000	9	...........
	9	0.133333	6.01416E-001	-3.97591E-004	0.00000E+000	-2.39118E-004	-2.40040E-001	6.01680E-001	3.57630E+000	9	...........
	10	0.146667	5.93058E-001	-3.98601E-004	0.00000E+000	-2.36394E-004	-2.40040E-001	5.93277E-001	3.57630E+000	9	...........
	11	0.16	5.84743E-001	-3.99141E-004	0.00000E+000	-2.33395E-004	-2.40040E-001	5.85003E-001	3.57630E+000	9	...........
	12	0.173333	5.76596E-001	-3.98222E-004	0.00000E+000	-2.29613E-004	-2.40040E-001	5.76825E-001	3.57630E+000	9	...........
	13	0.186667	5.68518E-001	-3.98716E-004	0.00000E+000	-2.26677E-004	-2.40040E-001	5.68738E-001	3.57630E+000	9	...........
	14	0.2	5.60412E-001	-3.98408E-004	0.00000E+000	-2.23273E-004	-2.40040E-001	5.60647E-001	3.57630E+000	9	...........
	15	0.213333	5.52433E-001	-3.98820E-004	0.00000E+000	-2.20321E-004	-2.40040E-001	5.52660E-001	3.57630E+000	9	...........
	16	0.226667	5.44569E-001	-3.99118E-004	0.00000E+000	-2.17347E-004	-2.40040E-001	5.44786E-001	3.57630E+000	9	...........
	17	0.24	5.36732E-001	-3.98666E-004	0.00000E+000	-2.13977E-004	-2.40040E-001	5.36964E-001	3.57630E+000	9	...........
	18	0.253333	5.28918E-001	-3.98812E-004	0.00000E+000	-2.10939E-004	-2.40040E-001	5.29137E-001	3.57630E+000	9	...........
	19	0.266667	5.21178E-001	-3.99232E-004	0.00000E+000	-2.08071E-004	-2.40040E-001	5.21391E-001	3.57630E+000	9	...........
	20	0.28	5.13416E-001	-3.98949E-004	0.00000E+000	-2.04827E-004	-2.40040E-001	5.13641E-001	3.57630E+000	9	...........
	21	0.293333	5.05686E-001	-3.97966E-004	0.00000E+000	-2.01246E-004	-2.40040E-001	5.05938E-001	3.57630E+000	9	...........
	22	0.306667	4.98089E-001	-3.98699E-004	0.00000E+000	-1.98588E-004	-2.40040E-001	4.98311E-001	3.57630E+000	9	...........
	23	0.32	4.90499E-001	-3.99046E-004	0.00000E+000	-1.95732E-004	-2.40040E-001	4.90726E-001	3.57630E+000	9	...........
	24	0.333333	4.83156E-001	-3.98212E-004	0.00000E+000	-1.92399E-004	-2.40040E-001	4.83280E-001	3.57630E+000	9	...........
	25	0.346667	4.75772E-001	-3.98646E-004	0.00000E+000	-1.89665E-004	-2.40040E-001	4.75871E-001	3.57630E+000	9	...........
	26	0.36	4.68346E-001	-3.99127E-004	0.00000E+000	-1.86929E-004	-2.40040E-001	4.68443E-001	3.57630E+000	9	...........
	27	0.373333	4.60950E-001	-3.98259E-004	0.00000E+000	-1.83578E-004	-2.40040E-001	4.61048E-001	3.57630E+000	9	...........
	28	0.386667	4.53628E-001	-3.98791E-004	0.00000E+000	-1.80903E-004	-2.40040E-001	4.53722E-001	3.57630E+000	9	...........
	29	0.4	4.46285E-001	-3.99202E-004	0.00000E+000	-1.78158E-004	-2.40040E-001	4.46383E-001	3.57630E+000	9	...........
	30	0.413333	4.39025E-001	-3.98747E-004	0.00000E+000	-1.75060E-004	-2.40040E-001	4.39118E-001	3.57630E+000	9	...........
	31	0.426667	4.31746E-001	-3.98572E-004	0.00000E+000	-1.72082E-004	-2.40040E-001	4.31838E-001	3.57630E+000	9	...........
	32	0.44	4.24526E-001	-3.99105E-004	0.00000E+000	-1.69430E-004	-2.40040E-001	4.24613E-001	3.57630E+000	9	...........
	33	0.453333	4.17307E-001	-4.00041E-004	0.00000E+000	-1.66940E-004	-2.40040E-001	4.17394E-001	3.57630E+000	9	...........
	34	0.466667	4.10188E-001	-3.98001E-004	0.00000E+000	-1.63255E-004	-2.40040E-001	4.10269E-001	3.57630E+000	9	...........
	35	0.48	4.03143E-001	-3.99622E-004	0.00000E+000	-1.61105E-004	-2.40040E-001	4.03222E-001	3.57630E+000	9	...........
	36	0.493333	3.96111E-001	-3.99481E-004	0.00000E+000	-1.58239E-004	-2.40040E-001	3.96186E-001	3.57630E+000	9	...........
	37	0.506667	3.89227E-001	-3.97845E-004	0.00000E+000	-1.54852E-004	-2.40040E-001	3.89301E-001	3.57630E+000	9	...........
	38	0.52	3.82247E-001	-3.97862E-004	0.00000E+000	-1.52082E-004	-2.40040E-001	3.82316E-001	3.57630E+000	9	...........
	39	0.533333	3.75302E-001	-3.97617E-004	0.00000E+000	-1.49227E-004	-2.40040E-001	3.75372E-001	3.57630E+000	9	...........
	40	0.546667	3.68426E-001	-3.99174E-004	0.00000E+000	-1.47066E-004	-2.40040E-001	3.68492E-001	3.57630E+000	9	...........
	41	0.56	3.61595E-001	-3.98936E-004	0.00000E+000	-1.44253E-004	-2.40040E-001	3.61660E-001	3.57630E+000	9	...........
	42	0.573333	3.54868E-001	-3.99387E-004	0.00000E+000	-1.41730E-004	-2.40040E-001	3.54934E-001	3.57630E+000	9	...........
	43	0.586667	3.48138E-001	-3.99849E-004	0.00000E+000	-1.39203E-004	-2.40040E-001	3.48197E-001	3.57630E+000	9	...........
	44	0.6	3.41477E-001	-3.98903E-004	0.00000E+000	-1.36216E-004	-2.40040E-001	3.41544E-001	3.57630E+000	9	...........
	45	0.613333	3.34839E-001	-3.97342E-004	0.00000E+000	-1.33046E-004	-2.40040E-001	3.34900E-001	3.57630E+000	9	...........
	46	0.626667	3.28143E-001	-3.99193E-004	0.00000E+000	-1.30992E-004	-2.40040E-001	3.28207E-001	3.57630E+000	9	...........
	47	0.64	3.21559E-001	-3.99688E-004	0.00000E+000	-1.28523E-004	-2.40040E-001	3.21617E-001	3.57630E+000	9	...........
	48	0.653333	3.15049E-001	-3.99216E-004	0.00000E+000	-1.25773E-004	-2.40040E-001	3.15115E-001	3.57630E+000	9	...........
	49	0.666667	3.08595E-001	-3.98640E-004	0.00000E+000	-1.23018E-004	-2.40040E-001	3.08653E-001	3.57630E+000	9	...........
	50	0.68	3.02145E-001	-3.95869E-004	0.00000E+000	-1.19610E-004	-2.40040E-001	3.02205E-001	3.57630E+000	9	...........
	51	0.693333	2.95697E-001	-3.98421E-004	0.00000E+000	-1.17812E-004	-2.40040E-001	2.95755E-001	3.57630E+000	9	...........
	52	0.706667	2.89451E-001	-3.99793E-004	0.00000E+000	-1.15720E-004	-2.40040E-001	2.89502E-001	3.57693E+000	9	...........
	53	0.72	2.83070E-001	-3.97349E-004	0.00000E+000	-1.12477E-004	-2.40040E-001	2.83125E-001	3.57760E+000	9	...........
	54	0.733333	2.76807E-001	-3.98515E-004	0.00000E+000	-1.10311E-004	-2.40040E-001	2.76861E-001	3.57760E+000	9	...........
	55	0.746667	2.70607E-001	-3.98951E-004	0.00000E+000	-1.07959E-004	-2.40040E-001	2.70663E-001	3.57760E+000	9	...........
	56	0.76	2.64489E-001	-3.97767E-004	0.00000E+000	-1.05205E-004	-2.40040E-001	2.64545E-001	3.57760E+000	9	...........
	57	0.773333	2.58352E-001	-3.98759E-004	0.00000E+000	-1.03020E-004	-2.40040E-001	2.58403E-001	3.57760E+000	9	...........
	58	0.786667	2.52219E-001	-3.98897E-004	0.00000E+000	-1.00609E-004	-2.40040E-001	2.52273E-001	3.57760E+000	9	...........
	59	0.8	2.46168E-001	-3.99014E-004	0.00000E+000	-9.82243E-005	-2.40040E-001	2.46207E-001	3.57760E+000	9	...........
	60	0.813333	2.40208E-001	-3.98871E-004	0.00000E+000	-9.58121E-005	-2.40040E-001	2.40248E-001	3.57760E+000	9	...........
	61	0.826667	2.34156E-001	-3.98157E-004	0.00000E+000	-9.32308E-005	-2.40040E-001	2.34192E-001	3.57760E+000	9	...........
	62	0.84	2.28198E-001	-3.98221E-004	0.00000E+000	-9.08730E-005	-2.40040E-001	2.28237E-001	3.57760E+000	9	...........
	63	0.853333	2.22359E-001	-3.99094E-004	0.00000E+000	-8.87422E-005	-2.40040E-001	2.22400E-001	3.57760E+000	9	...........
	64	0.866667	2.16606E-001	-3.98576E-004	0.00000E+000	-8.63341E-005	-2.40040E-001	2.16650E-001	3.57760E+000	9	...........
	65	0.88	2.10692E-001	-3.98562E-004	0.00000E+000	-8.39741E-005	-2.40040E-001	2.10727E-001	3.57760E+000	9	...........
	66	0.893333	2.04862E-001	-3.99451E-004	0.00000E+000	-8.18324E-005	-2.40040E-001	2.04894E-001	3.57760E+000	9	...........
	67	0.906667	1.99102E-001	-3.98590E-004	0.00000E+000	-7.93598E-005	-2.40040E-001	1.99132E-001	3.57760E+000	9	...........
	68	0.92	1.93364E-001	-3.98520E-004	0.00000E+000	-7.70592E-005	-2.40040E-001	1.93396E-001	3.57760E+000	9	...........
	69	0.933333	1.87760E-001	-3.98606E-004	0.00000E+000	-7.48422E-005	-2.40040E-001	1.87789E-001	3.57760E+000	9	...........
	70	0.946667	1.82124E-001	-3.97912E-004	0.00000E+000	-7.24695E-005	-2.40040E-001	1.82155E-001	3.57760E+000	9	...........
	71	0.96	1.76508E-001	-3.99863E-004	0.00000E+000	-7.05789E-005	-2.40040E-001	1.76540E-001	3.57760E+000	9	...........
	72	0.97333	1.70954E-001	-3.99915E-004	0.00000E+000	-6.83672E-005	-2.40040E-001	1.70986E-001	3.57760E+000	9	...........
	73	0.98667	1.65364E-001	-3.98525E-004	0.00000E+000	-6.59018E-005	-2.40040E-001	1.65392E-001	3.57760E+000	9	...........
	74	1	1.59876E-001	-3.99040E-004	0.00000E+000	-6.37968E-005	-2.40040E-001	1.59905E-001	3.57760E+000	9	...........
	75	1.01333	1.54474E-001	-3.99284E-004	0.00000E+000	-6.16789E-005	-2.40040E-001	1.54500E-001	3.57760E+000	9	...........
	76	1.02667	1.49100E-001	-3.99452E-004	0.00000E+000	-5.95581E-005	-2.40040E-001	1.49127E-001	3.57760E+000	9	...........
	77	1.04	1.43666E-001	-3.99504E-004	0.00000E+000	-5.73951E-005	-2.40040E-001	1.43691E-001	3.57760E+000	9	...........
	78	1.05333	1.38389E-001	-3.99479E-004	0.00000E+000	-5.52837E-005	-2.40040E-001	1.38411E-001	3.57760E+000	9	...........
	79	1.06667	1.33080E-001	-3.98275E-004	0.00000E+000	-5.30024E-005	-2.40040E-001	1.33104E-001	3.57760E+000	9	...........
	80	1.08	1.27786E-001	-3.98530E-004	0.00000E+000	-5.09266E-005	-2.40040E-001	1.27808E-001	3.57760E+000	9	...........
	81	1.09333	1.22610E-001	-3.99852E-004	0.00000E+000	-4.90259E-005	-2.40040E-001	1.22632E-001	3.57760E+000	9	...........
	82	1.10667	1.17426E-001	-3.99087E-004	0.00000E+000	-4.68633E-005	-2.40040E-001	1.17451E-001	3.57760E+000	9	...........
	83	1.12	1.12223E-001	-3.98485E-004	0.00000E+000	-4.47193E-005	-2.40040E-001	1.12244E-001	3.57760E+000	9	...........
	84	1.13333	1.07115E-001	-3.98373E-004	0.00000E+000	-4.26718E-005	-2.40040E-001	1.07136E-001	3.57760E+000	9	...........
	85	1.14667	1.01911E-001	-3.98475E-004	0.00000E+000	-4.06088E-005	-2.40040E-001	1.01926E-001	3.57760E+000	9	...........
	86	1.16	9.67628E-002	-3.98282E-004	0.00000E+000	-3.85389E-005	-2.40040E-001	9.67777E-002	3.57760E+000	9	...........
	87	1.17333	9.18047E-002	-3.99819E-004	0.00000E+000	-3.67053E-005	-2.40040E-001	9.18274E-002	3.57760E+000	9	...........
	88	1.18667	8.68576E-002	-3.99001E-004	0.00000E+000	-3.46563E-005	-2.40040E-001	8.68694E-002	3.57760E+000	9	...........
	89	1.2	8.19255E-002	-3.99139E-004	0.00000E+000	-3.26996E-005	-2.40040E-001	8.19425E-002	3.57760E+000	9	...........
	90	1.21333	7.69031E-002	-3.99751E-004	0.00000E+000	-3.07421E-005	-2.40040E-001	7.69129E-002	3.57760E+000	9	...........
	91	1.22667	7.19628E-002	-3.98764E-004	0.00000E+000	-2.86961E-005	-2.40040E-001	7.19710E-002	3.57760E+000	9	...........
	92	1.24	6.70897E-002	-3.98681E-004	0.00000E+000	-2.67474E-005	-2.40040E-001	6.70992E-002	3.57760E+000	9	...........
	93	1.25333	6.22562E-002	-3.98320E-004	0.00000E+000	-2.47979E-005	-2.40040E-001	6.22657E-002	3.57760E+000	9	...........
	94	1.26667	5.75141E-002	-3.98523E-004	0.00000E+000	-2.29207E-005	-2.40040E-001	5.75217E-002	3.57760E+000	9	...........
	95	1.28	5.27118E-002	-3.98681E-004	0.00000E+000	-2.10152E-005	-2.40040E-001	5.27186E-002	3.57760E+000	9	...........
	96	1.29333	4.79120E-002	-3.97777E-004	0.00000E+000	-1.90583E-005	-2.40040E-001	4.79132E-002	3.57760E+000	9	...........
	97	1.30667	4.31631E-002	-3.98747E-004	0.00000E+000	-1.72112E-005	-2.40040E-001	4.31726E-002	3.57760E+000	9	...........
	98	1.32	3.84105E-002	-3.98919E-004	0.00000E+000	-1.53227E-005	-2.40040E-001	3.84145E-002	3.57760E+000	9	...........
	99	1.33333	3.36885E-002	-3.97591E-004	0.00000E+000	-1.33943E-005	-2.40040E-001	3.36857E-002	3.57760E+000	9	...........
	100	1.34667	2.90656E-002	-3.98494E-004	0.00000E+000	-1.15825E-005	-2.40040E-001	2.90703E-002	3.57760E+000	9	...........
	101	1.36	2.44778E-002	-3.98183E-004	0.00000E+000	-9.74665E-006	-2.40040E-001	2.44715E-002	3.57760E+000	9	...........
	102	1.37333	1.98730E-002	-3.97930E-004	0.00000E+000	-7.90807E-006	-2.40040E-001	1.98605E-002	3.57760E+000	9	...........
	103	1.38667	1.52434E-002	-3.98915E-004	0.00000E+000	-6.08080E-006	-2.40040E-001	1.52335E-002	3.57760E+000	9	...........
	104	1.4	1.07529E-002	-3.99070E-004	0.00000E+000	-4.29115E-006	-2.40040E-001	1.07406E-002	3.57760E+000	9	...........
	105	1.41333	6.15088E-003	-4.00363E-004	0.00000E+000	-2.46258E-006	-2.40040E-001	6.13214E-003	3.57760E+000	9	...........
	106	1.42667	1.60731E-003	-3.98624E-004	0.00000E+000	-6.40713E-007	-2.40040E-001	1.58771E-003	3.57760E+000	9	...........
STARTTIMEOFFSET	QUANT	2202.713	Start Time Offset (s)
