EXPLAIN
TAG	PWR800_DISCHARGE
TITLE	LABEL	PWR Cyclic Charge Discharge (Cell) - Discharge Step	Test &Identifier
DATE	LABEL	12-7-2017	Date
TIME	LABEL	15:19:55	Time
NOTES	NOTES	3	&Notes...
	supercap test cell
	0.4mg
	6M KOH
PSTAT	PSTAT	IFC5000-01520	Potentiostat
CAPACITY	QUANT	1.00000E-003	Capacity (A-hr)
CELLTYPE	SELECTOR	1	&Cell Type
WORKINGCONNECTION	SELECTOR	0	&Working Lead
MAXDISCHARGETIME	VARIABLEANDUNITS	1.00000E+002	s	1.00000E+002	second(s)	Max &Discharge Time
DISCHARGEMODE	MULTIPARAM	0	4.00000E-004	&Discharge Mode	Constant Current	Amp(s)
SAMPLETIME	QUANT	1.00000E-002	Sa&mple Period (s)
DISCHARGESTOPAT1	MULTIPARAM	3	0.00000E+000	Discharge Stop At &1	Voltage < Limit	V
DISCHARGESTOPAT2	MULTIPARAM	0	0.00000E+000	Discharge Stop At &2	None	N/A
AESBHCSELECTOR	TOGGLE	F	Save Both Half Cells
IRCOMP	TOGGLE	F	IR &Measure
EOC	QUANT	0	Open Circuit (V)
SEQUENCER	TOGGLE	TRUE	Run as Sequence
PSTATMODEL	IQUANT	53	Pstat Model
PSTATSECTION	LABEL	IFC5000-01520	Pstat Section
PSTATSERIALNO	LABEL	01520	Pstat Serial Number
CTRLMODE	IQUANT	0	Control Mode
ELECTROMETER	IQUANT	1	RE=0 or CS=1
IESTAB	IQUANT	0	I/E Stability
CASPEED	IQUANT	4	Control Amp Speed
CONVENTION	IQUANT	1	Current Convention
ICHRANGE	IQUANT	2	Ich Range
ICHRANGEMODE	TOGGLE	T	Ich Auto Range
ICHOFFSETENABLE	TOGGLE	F	Ich Offset Enable
ICHOFFSET	QUANT	0	Ich Offset (V)
ICHFILTER	IQUANT	1	Ich Filter
VCHRANGE	IQUANT	2	Vch Range
VCHRANGEMODE	TOGGLE	T	Vch Auto Range
VCHOFFSETENABLE	TOGGLE	F	Vch Offset Enable
VCHOFFSET	QUANT	0	Vch Offset (V)
VCHFILTER	IQUANT	1	Vch Filter
IERANGELOWERLIMIT	IQUANT	9	I/E Range Lower Limit
IERANGEMODE	TOGGLE	F	I/E AutoRange
IERANGE	IQUANT	9	I/E Range
ACHSELECT	IQUANT	1	Ach Select
ACHRANGE	IQUANT	2	Ach Range
ACHOFFSETENABLE	TOGGLE	F	Ach Offset Enable
ACHOFFSET	QUANT	0	Ach Offset (V)
ACHFILTER	IQUANT	1	Ach Filter
CABLEID	IQUANT	14	Cable ID
DCCALDATE	LABEL	5-7-2017	DC Calibration Date
ACCALDATE	LABEL	12/3/2015	AC Calibration Date
FRAMEWORKVERSION	QUANT	7.01	Framework Version
INSTRUMENTVERSION	LABEL	4.00	Instrument Version
CURVE	TABLE	103
	Pt	T	Vf	Im	Vu	Pwr	Sig	Ach	Temp	IERange	Over
	#	s	V	A	V	W	V	V	deg C	#	bits
	0	0.013333	6.84016E-001	-3.98935E-004	0.00000E+000	-2.72878E-004	-2.40040E-001	6.84270E-001	3.57690E+000	9	...........
	1	0.026667	6.70222E-001	-3.99446E-004	0.00000E+000	-2.67717E-004	-2.40040E-001	6.70445E-001	3.57690E+000	9	...........
	2	0.04	6.58243E-001	-3.99180E-004	0.00000E+000	-2.62758E-004	-2.40040E-001	6.58455E-001	3.57690E+000	9	...........
	3	0.053333	6.47267E-001	-3.99427E-004	0.00000E+000	-2.58536E-004	-2.40040E-001	6.47483E-001	3.57690E+000	9	...........
	4	0.066667	6.37038E-001	-3.98761E-004	0.00000E+000	-2.54026E-004	-2.40040E-001	6.37276E-001	3.57690E+000	9	...........
	5	0.08	6.27262E-001	-3.99640E-004	0.00000E+000	-2.50679E-004	-2.40040E-001	6.27464E-001	3.57690E+000	9	...........
	6	0.093333	6.17862E-001	-3.99252E-004	0.00000E+000	-2.46683E-004	-2.40040E-001	6.18064E-001	3.57690E+000	9	...........
	7	0.106667	6.08628E-001	-3.99170E-004	0.00000E+000	-2.42946E-004	-2.40040E-001	6.08895E-001	3.57690E+000	9	...........
	8	0.12	5.99709E-001	-3.98861E-004	0.00000E+000	-2.39201E-004	-2.40040E-001	5.99956E-001	3.57690E+000	9	...........
	9	0.133333	5.90937E-001	-3.98579E-004	0.00000E+000	-2.35535E-004	-2.40040E-001	5.91171E-001	3.57690E+000	9	...........
	10	0.146667	5.82268E-001	-3.99053E-004	0.00000E+000	-2.32356E-004	-2.40040E-001	5.82506E-001	3.57690E+000	9	...........
	11	0.16	5.73794E-001	-3.98476E-004	0.00000E+000	-2.28643E-004	-2.40040E-001	5.74000E-001	3.57690E+000	9	...........
	12	0.173333	5.65315E-001	-3.99715E-004	0.00000E+000	-2.25965E-004	-2.40040E-001	5.65551E-001	3.57690E+000	9	...........
	13	0.186667	5.56871E-001	-3.97683E-004	0.00000E+000	-2.21458E-004	-2.40040E-001	5.57095E-001	3.57690E+000	9	...........
	14	0.2	5.48629E-001	-3.98877E-004	0.00000E+000	-2.18836E-004	-2.40040E-001	5.48826E-001	3.57690E+000	9	...........
	15	0.213333	5.40346E-001	-3.98399E-004	0.00000E+000	-2.15273E-004	-2.40040E-001	5.40509E-001	3.57690E+000	9	...........
	16	0.226667	5.32173E-001	-3.99055E-004	0.00000E+000	-2.12366E-004	-2.40040E-001	5.32345E-001	3.57690E+000	9	...........
	17	0.24	5.24084E-001	-3.98707E-004	0.00000E+000	-2.08956E-004	-2.40040E-001	5.24216E-001	3.57690E+000	9	...........
	18	0.253333	5.16020E-001	-3.99306E-004	0.00000E+000	-2.06050E-004	-2.40040E-001	5.16161E-001	3.57690E+000	9	...........
	19	0.266667	5.07909E-001	-3.99152E-004	0.00000E+000	-2.02733E-004	-2.40040E-001	5.08090E-001	3.57690E+000	9	...........
	20	0.28	4.99889E-001	-3.99407E-004	0.00000E+000	-1.99659E-004	-2.40040E-001	5.00101E-001	3.57690E+000	9	...........
	21	0.293333	4.92070E-001	-3.99463E-004	0.00000E+000	-1.96563E-004	-2.40040E-001	4.92264E-001	3.57690E+000	9	...........
	22	0.306667	4.84348E-001	-3.99288E-004	0.00000E+000	-1.93394E-004	-2.40040E-001	4.84498E-001	3.57684E+000	9	...........
	23	0.32	4.76729E-001	-3.99732E-004	0.00000E+000	-1.90564E-004	-2.40040E-001	4.76826E-001	3.57640E+000	9	...........
	24	0.333333	4.68979E-001	-3.98409E-004	0.00000E+000	-1.86846E-004	-2.40040E-001	4.69078E-001	3.57640E+000	9	...........
	25	0.346667	4.61280E-001	-3.99542E-004	0.00000E+000	-1.84301E-004	-2.40040E-001	4.61377E-001	3.57640E+000	9	...........
	26	0.36	4.53662E-001	-3.99925E-004	0.00000E+000	-1.81431E-004	-2.40040E-001	4.53752E-001	3.57640E+000	9	...........
	27	0.373333	4.46017E-001	-3.98771E-004	0.00000E+000	-1.77859E-004	-2.40040E-001	4.46111E-001	3.57640E+000	9	...........
	28	0.386667	4.38537E-001	-3.99106E-004	0.00000E+000	-1.75023E-004	-2.40040E-001	4.38638E-001	3.57640E+000	9	...........
	29	0.4	4.30954E-001	-3.98902E-004	0.00000E+000	-1.71909E-004	-2.40040E-001	4.31045E-001	3.57640E+000	9	...........
	30	0.413333	4.23440E-001	-3.99842E-004	0.00000E+000	-1.69309E-004	-2.40040E-001	4.23530E-001	3.57640E+000	9	...........
	31	0.426667	4.15994E-001	-3.98218E-004	0.00000E+000	-1.65656E-004	-2.40040E-001	4.16083E-001	3.57640E+000	9	...........
	32	0.44	4.08580E-001	-3.99216E-004	0.00000E+000	-1.63112E-004	-2.40040E-001	4.08660E-001	3.57640E+000	9	...........
	33	0.453333	4.01284E-001	-3.98132E-004	0.00000E+000	-1.59764E-004	-2.40040E-001	4.01363E-001	3.57640E+000	9	...........
	34	0.466667	3.94024E-001	-3.99697E-004	0.00000E+000	-1.57490E-004	-2.40040E-001	3.94096E-001	3.57640E+000	9	...........
	35	0.48	3.86793E-001	-3.98926E-004	0.00000E+000	-1.54302E-004	-2.40040E-001	3.86868E-001	3.57640E+000	9	...........
	36	0.493333	3.79511E-001	-4.00116E-004	0.00000E+000	-1.51848E-004	-2.40040E-001	3.79586E-001	3.57640E+000	9	...........
	37	0.506667	3.72306E-001	-3.99143E-004	0.00000E+000	-1.48603E-004	-2.40040E-001	3.72377E-001	3.57640E+000	9	...........
	38	0.52	3.65191E-001	-3.98192E-004	0.00000E+000	-1.45416E-004	-2.40040E-001	3.65266E-001	3.57640E+000	9	...........
	39	0.533333	3.58087E-001	-3.99453E-004	0.00000E+000	-1.43039E-004	-2.40040E-001	3.58160E-001	3.57640E+000	9	...........
	40	0.546667	3.50998E-001	-3.98921E-004	0.00000E+000	-1.40020E-004	-2.40040E-001	3.51062E-001	3.57640E+000	9	...........
	41	0.56	3.43986E-001	-4.00265E-004	0.00000E+000	-1.37686E-004	-2.40040E-001	3.44055E-001	3.57640E+000	9	...........
	42	0.573333	3.37053E-001	-3.99452E-004	0.00000E+000	-1.34637E-004	-2.40040E-001	3.37122E-001	3.57640E+000	9	...........
	43	0.586667	3.30173E-001	-3.99896E-004	0.00000E+000	-1.32035E-004	-2.40040E-001	3.30242E-001	3.57640E+000	9	...........
	44	0.6	3.23291E-001	-3.97362E-004	0.00000E+000	-1.28464E-004	-2.40040E-001	3.23359E-001	3.57640E+000	9	...........
	45	0.613333	3.16431E-001	-3.99055E-004	0.00000E+000	-1.26273E-004	-2.40040E-001	3.16495E-001	3.57640E+000	9	...........
	46	0.626667	3.09634E-001	-3.98839E-004	0.00000E+000	-1.23494E-004	-2.40040E-001	3.09701E-001	3.57640E+000	9	...........
	47	0.64	3.02919E-001	-3.97846E-004	0.00000E+000	-1.20515E-004	-2.40040E-001	3.02980E-001	3.57640E+000	9	...........
	48	0.653333	2.96237E-001	-3.98795E-004	0.00000E+000	-1.18138E-004	-2.40040E-001	2.96296E-001	3.57640E+000	9	...........
	49	0.666667	2.89621E-001	-3.98993E-004	0.00000E+000	-1.15557E-004	-2.40040E-001	2.89680E-001	3.57640E+000	9	...........
	50	0.68	2.83091E-001	-4.00008E-004	0.00000E+000	-1.13238E-004	-2.40040E-001	2.83154E-001	3.57640E+000	9	...........
	51	0.693333	2.76551E-001	-3.98692E-004	0.00000E+000	-1.10259E-004	-2.40040E-001	2.76607E-001	3.57640E+000	9	...........
	52	0.706667	2.70113E-001	-3.98375E-004	0.00000E+000	-1.07606E-004	-2.40040E-001	2.70169E-001	3.57640E+000	9	...........
	53	0.72	2.63630E-001	-3.98247E-004	0.00000E+000	-1.04990E-004	-2.40040E-001	2.63685E-001	3.57640E+000	9	...........
	54	0.733333	2.57268E-001	-3.99143E-004	0.00000E+000	-1.02686E-004	-2.40040E-001	2.57321E-001	3.57640E+000	9	...........
	55	0.746667	2.50896E-001	-3.98965E-004	0.00000E+000	-1.00099E-004	-2.40040E-001	2.50951E-001	3.57640E+000	9	...........
	56	0.76	2.44602E-001	-3.97576E-004	0.00000E+000	-9.72479E-005	-2.40040E-001	2.44655E-001	3.57640E+000	9	...........
	57	0.773333	2.38344E-001	-3.98811E-004	0.00000E+000	-9.50543E-005	-2.40040E-001	2.38387E-001	3.57640E+000	9	...........
	58	0.786667	2.32136E-001	-3.99164E-004	0.00000E+000	-9.26601E-005	-2.40040E-001	2.32176E-001	3.57640E+000	9	...........
	59	0.8	2.26017E-001	-3.97660E-004	0.00000E+000	-8.98780E-005	-2.40040E-001	2.26058E-001	3.57640E+000	9	...........
	60	0.813333	2.19912E-001	-3.99537E-004	0.00000E+000	-8.78630E-005	-2.40040E-001	2.19949E-001	3.57640E+000	9	...........
	61	0.826667	2.13765E-001	-3.98243E-004	0.00000E+000	-8.51304E-005	-2.40040E-001	2.13803E-001	3.57640E+000	9	...........
	62	0.84	2.07752E-001	-3.97582E-004	0.00000E+000	-8.25984E-005	-2.40040E-001	2.07793E-001	3.57640E+000	9	...........
	63	0.853333	2.01724E-001	-3.96880E-004	0.00000E+000	-8.00603E-005	-2.40040E-001	2.01766E-001	3.57640E+000	9	...........
	64	0.866667	1.95771E-001	-3.99227E-004	0.00000E+000	-7.81571E-005	-2.40040E-001	1.95813E-001	3.57640E+000	9	...........
	65	0.88	1.89873E-001	-3.97635E-004	0.00000E+000	-7.55002E-005	-2.40040E-001	1.89910E-001	3.57640E+000	9	...........
	66	0.893333	1.83992E-001	-3.99140E-004	0.00000E+000	-7.34385E-005	-2.40040E-001	1.84030E-001	3.57640E+000	9	...........
	67	0.906667	1.78172E-001	-3.99240E-004	0.00000E+000	-7.11332E-005	-2.40040E-001	1.78214E-001	3.57640E+000	9	...........
	68	0.92	1.72365E-001	-3.98042E-004	0.00000E+000	-6.86083E-005	-2.40040E-001	1.72397E-001	3.57640E+000	9	...........
	69	0.933333	1.66584E-001	-3.98128E-004	0.00000E+000	-6.63218E-005	-2.40040E-001	1.66612E-001	3.57640E+000	9	...........
	70	0.946667	1.60876E-001	-3.98594E-004	0.00000E+000	-6.41243E-005	-2.40040E-001	1.60905E-001	3.57640E+000	9	...........
	71	0.96	1.55268E-001	-3.98419E-004	0.00000E+000	-6.18618E-005	-2.40040E-001	1.55302E-001	3.57640E+000	9	...........
	72	0.97333	1.49681E-001	-3.98336E-004	0.00000E+000	-5.96236E-005	-2.40040E-001	1.49716E-001	3.57640E+000	9	...........
	73	0.98667	1.44158E-001	-3.97913E-004	0.00000E+000	-5.73622E-005	-2.40040E-001	1.44185E-001	3.57640E+000	9	...........
	74	1	1.38538E-001	-3.98071E-004	0.00000E+000	-5.51481E-005	-2.40040E-001	1.38565E-001	3.57640E+000	9	...........
	75	1.01333	1.33043E-001	-3.99472E-004	0.00000E+000	-5.31469E-005	-2.40040E-001	1.33072E-001	3.57640E+000	9	...........
	76	1.02667	1.27599E-001	-3.98110E-004	0.00000E+000	-5.07984E-005	-2.40040E-001	1.27619E-001	3.57640E+000	9	...........
	77	1.04	1.22158E-001	-3.99052E-004	0.00000E+000	-4.87472E-005	-2.40040E-001	1.22177E-001	3.57640E+000	9	...........
	78	1.05333	1.16799E-001	-3.98960E-004	0.00000E+000	-4.65982E-005	-2.40040E-001	1.16820E-001	3.57640E+000	9	...........
	79	1.06667	1.11500E-001	-3.97788E-004	0.00000E+000	-4.43536E-005	-2.40040E-001	1.11515E-001	3.57640E+000	9	...........
	80	1.08	1.06170E-001	-3.99060E-004	0.00000E+000	-4.23681E-005	-2.40040E-001	1.06185E-001	3.57640E+000	9	...........
	81	1.09333	1.00938E-001	-3.98950E-004	0.00000E+000	-4.02694E-005	-2.40040E-001	1.00960E-001	3.57640E+000	9	...........
	82	1.10667	9.56515E-002	-3.99078E-004	0.00000E+000	-3.81724E-005	-2.40040E-001	9.56661E-002	3.57640E+000	9	...........
	83	1.12	9.04434E-002	-3.99384E-004	0.00000E+000	-3.61217E-005	-2.40040E-001	9.04589E-002	3.57640E+000	9	...........
	84	1.13333	8.51844E-002	-3.99231E-004	0.00000E+000	-3.40083E-005	-2.40040E-001	8.51965E-002	3.57640E+000	9	...........
	85	1.14667	7.99730E-002	-3.98902E-004	0.00000E+000	-3.19014E-005	-2.40040E-001	7.99833E-002	3.57640E+000	9	...........
	86	1.16	7.47447E-002	-3.97731E-004	0.00000E+000	-2.97283E-005	-2.40040E-001	7.47534E-002	3.57640E+000	9	...........
	87	1.17333	6.96191E-002	-3.97654E-004	0.00000E+000	-2.76843E-005	-2.40040E-001	6.96307E-002	3.57640E+000	9	...........
	88	1.18667	6.45441E-002	-4.00157E-004	0.00000E+000	-2.58277E-005	-2.40040E-001	6.45504E-002	3.57640E+000	9	...........
	89	1.2	5.95571E-002	-3.99476E-004	0.00000E+000	-2.37916E-005	-2.40040E-001	5.95641E-002	3.57640E+000	9	...........
	90	1.21333	5.46065E-002	-3.99595E-004	0.00000E+000	-2.18205E-005	-2.40040E-001	5.46054E-002	3.57640E+000	9	...........
	91	1.22667	4.96381E-002	-3.99487E-004	0.00000E+000	-1.98298E-005	-2.40040E-001	4.96383E-002	3.57640E+000	9	...........
	92	1.24	4.48210E-002	-3.98667E-004	0.00000E+000	-1.78686E-005	-2.40040E-001	4.48301E-002	3.57640E+000	9	...........
	93	1.25333	4.00189E-002	-3.99289E-004	0.00000E+000	-1.59791E-005	-2.40040E-001	4.00256E-002	3.57640E+000	9	...........
	94	1.26667	3.51710E-002	-3.97828E-004	0.00000E+000	-1.39920E-005	-2.40040E-001	3.51713E-002	3.57640E+000	9	...........
	95	1.28	3.03365E-002	-3.99691E-004	0.00000E+000	-1.21252E-005	-2.40040E-001	3.03365E-002	3.57640E+000	9	...........
	96	1.29333	2.55995E-002	-3.98352E-004	0.00000E+000	-1.01976E-005	-2.40040E-001	2.56003E-002	3.57640E+000	9	...........
	97	1.30667	2.09399E-002	-3.97971E-004	0.00000E+000	-8.33346E-006	-2.40040E-001	2.09347E-002	3.57646E+000	9	...........
	98	1.32	1.61650E-002	-3.98542E-004	0.00000E+000	-6.44243E-006	-2.40040E-001	1.61497E-002	3.57690E+000	9	...........
	99	1.33333	1.15338E-002	-3.98071E-004	0.00000E+000	-4.59127E-006	-2.40040E-001	1.15270E-002	3.57690E+000	9	...........
	100	1.34667	6.88788E-003	-3.99428E-004	0.00000E+000	-2.75121E-006	-2.40040E-001	6.87037E-003	3.57690E+000	9	...........
	101	1.36	2.25530E-003	-3.98137E-004	0.00000E+000	-8.97920E-007	-2.40040E-001	2.23564E-003	3.57690E+000	9	...........
	102	1.36167	-3.89163E-004	-3.98981E-004	0.00000E+000	1.55269E-007	-2.40040E-001	-4.13547E-004	3.57690E+000	9	...........
STARTTIMEOFFSET	QUANT	2902.748	Start Time Offset (s)
