EXPLAIN
TAG	PWR800_DISCHARGE
TITLE	LABEL	PWR Cyclic Charge Discharge (Cell) - Discharge Step	Test &Identifier
DATE	LABEL	12-7-2017	Date
TIME	LABEL	14:27:56	Time
NOTES	NOTES	3	&Notes...
	supercap test cell
	0.4mg
	6M KOH
PSTAT	PSTAT	IFC5000-01520	Potentiostat
CAPACITY	QUANT	1.00000E-003	Capacity (A-hr)
CELLTYPE	SELECTOR	1	&Cell Type
WORKINGCONNECTION	SELECTOR	0	&Working Lead
MAXDISCHARGETIME	VARIABLEANDUNITS	1.00000E+002	s	1.00000E+002	second(s)	Max &Discharge Time
DISCHARGEMODE	MULTIPARAM	0	4.00000E-004	&Discharge Mode	Constant Current	Amp(s)
SAMPLETIME	QUANT	1.00000E-002	Sa&mple Period (s)
DISCHARGESTOPAT1	MULTIPARAM	3	0.00000E+000	Discharge Stop At &1	Voltage < Limit	V
DISCHARGESTOPAT2	MULTIPARAM	0	0.00000E+000	Discharge Stop At &2	None	N/A
AESBHCSELECTOR	TOGGLE	F	Save Both Half Cells
IRCOMP	TOGGLE	F	IR &Measure
EOC	QUANT	0	Open Circuit (V)
SEQUENCER	TOGGLE	TRUE	Run as Sequence
PSTATMODEL	IQUANT	53	Pstat Model
PSTATSECTION	LABEL	IFC5000-01520	Pstat Section
PSTATSERIALNO	LABEL	01520	Pstat Serial Number
CTRLMODE	IQUANT	0	Control Mode
ELECTROMETER	IQUANT	1	RE=0 or CS=1
IESTAB	IQUANT	0	I/E Stability
CASPEED	IQUANT	4	Control Amp Speed
CONVENTION	IQUANT	1	Current Convention
ICHRANGE	IQUANT	2	Ich Range
ICHRANGEMODE	TOGGLE	T	Ich Auto Range
ICHOFFSETENABLE	TOGGLE	F	Ich Offset Enable
ICHOFFSET	QUANT	0	Ich Offset (V)
ICHFILTER	IQUANT	1	Ich Filter
VCHRANGE	IQUANT	2	Vch Range
VCHRANGEMODE	TOGGLE	T	Vch Auto Range
VCHOFFSETENABLE	TOGGLE	F	Vch Offset Enable
VCHOFFSET	QUANT	0	Vch Offset (V)
VCHFILTER	IQUANT	1	Vch Filter
IERANGELOWERLIMIT	IQUANT	9	I/E Range Lower Limit
IERANGEMODE	TOGGLE	F	I/E AutoRange
IERANGE	IQUANT	9	I/E Range
ACHSELECT	IQUANT	1	Ach Select
ACHRANGE	IQUANT	2	Ach Range
ACHOFFSETENABLE	TOGGLE	F	Ach Offset Enable
ACHOFFSET	QUANT	0	Ach Offset (V)
ACHFILTER	IQUANT	1	Ach Filter
CABLEID	IQUANT	14	Cable ID
DCCALDATE	LABEL	5-7-2017	DC Calibration Date
ACCALDATE	LABEL	12/3/2015	AC Calibration Date
FRAMEWORKVERSION	QUANT	7.01	Framework Version
INSTRUMENTVERSION	LABEL	4.00	Instrument Version
CURVE	TABLE	128
	Pt	T	Vf	Im	Vu	Pwr	Sig	Ach	Temp	IERange	Over
	#	s	V	A	V	W	V	V	deg C	#	bits
	0	0.013333	7.17500E-001	-3.98117E-004	0.00000E+000	-2.85649E-004	-2.40040E-001	7.17728E-001	3.57590E+000	9	...........
	1	0.026667	7.06394E-001	-3.99251E-004	0.00000E+000	-2.82029E-004	-2.40040E-001	7.06625E-001	3.57590E+000	9	...........
	2	0.04	6.96596E-001	-4.00245E-004	0.00000E+000	-2.78809E-004	-2.40040E-001	6.96827E-001	3.57590E+000	9	...........
	3	0.053333	6.87537E-001	-3.97575E-004	0.00000E+000	-2.73347E-004	-2.40040E-001	6.87768E-001	3.57590E+000	9	...........
	4	0.066667	6.78911E-001	-3.99272E-004	0.00000E+000	-2.71070E-004	-2.40040E-001	6.79138E-001	3.57590E+000	9	...........
	5	0.08	6.70662E-001	-3.99336E-004	0.00000E+000	-2.67819E-004	-2.40040E-001	6.70880E-001	3.57590E+000	9	...........
	6	0.093333	6.62693E-001	-3.99828E-004	0.00000E+000	-2.64963E-004	-2.40040E-001	6.62939E-001	3.57590E+000	9	...........
	7	0.106667	6.54893E-001	-3.99367E-004	0.00000E+000	-2.61543E-004	-2.40040E-001	6.55142E-001	3.57590E+000	9	...........
	8	0.12	6.47282E-001	-3.99166E-004	0.00000E+000	-2.58373E-004	-2.40040E-001	6.47534E-001	3.57590E+000	9	...........
	9	0.133333	6.39770E-001	-3.99374E-004	0.00000E+000	-2.55508E-004	-2.40040E-001	6.39982E-001	3.57590E+000	9	...........
	10	0.146667	6.32264E-001	-3.98394E-004	0.00000E+000	-2.51890E-004	-2.40040E-001	6.32493E-001	3.57590E+000	9	...........
	11	0.16	6.24997E-001	-3.98386E-004	0.00000E+000	-2.48990E-004	-2.40040E-001	6.25204E-001	3.57590E+000	9	...........
	12	0.173333	6.17821E-001	-3.99794E-004	0.00000E+000	-2.47001E-004	-2.40040E-001	6.18029E-001	3.57590E+000	9	...........
	13	0.186667	6.10631E-001	-3.97885E-004	0.00000E+000	-2.42961E-004	-2.40040E-001	6.10882E-001	3.57590E+000	9	...........
	14	0.2	6.03482E-001	-3.98443E-004	0.00000E+000	-2.40453E-004	-2.40040E-001	6.03727E-001	3.57590E+000	9	...........
	15	0.213333	5.96516E-001	-3.99170E-004	0.00000E+000	-2.38111E-004	-2.40040E-001	5.96717E-001	3.57590E+000	9	...........
	16	0.226667	5.89502E-001	-3.97698E-004	0.00000E+000	-2.34443E-004	-2.40040E-001	5.89718E-001	3.57590E+000	9	...........
	17	0.24	5.82507E-001	-3.99864E-004	0.00000E+000	-2.32923E-004	-2.40040E-001	5.82728E-001	3.57590E+000	9	...........
	18	0.253333	5.75628E-001	-3.98834E-004	0.00000E+000	-2.29580E-004	-2.40040E-001	5.75831E-001	3.57590E+000	9	...........
	19	0.266667	5.68790E-001	-3.97182E-004	0.00000E+000	-2.25913E-004	-2.40040E-001	5.68988E-001	3.57590E+000	9	...........
	20	0.28	5.61965E-001	-3.98859E-004	0.00000E+000	-2.24145E-004	-2.40040E-001	5.62187E-001	3.57590E+000	9	...........
	21	0.293333	5.55144E-001	-3.98953E-004	0.00000E+000	-2.21476E-004	-2.40040E-001	5.55381E-001	3.57590E+000	9	...........
	22	0.306667	5.48434E-001	-3.99502E-004	0.00000E+000	-2.19101E-004	-2.40040E-001	5.48642E-001	3.57590E+000	9	...........
	23	0.32	5.41700E-001	-3.98802E-004	0.00000E+000	-2.16031E-004	-2.40040E-001	5.41916E-001	3.57590E+000	9	...........
	24	0.333333	5.34977E-001	-3.98450E-004	0.00000E+000	-2.13161E-004	-2.40040E-001	5.35196E-001	3.57590E+000	9	...........
	25	0.346667	5.28439E-001	-3.98792E-004	0.00000E+000	-2.10737E-004	-2.40040E-001	5.28649E-001	3.57590E+000	9	...........
	26	0.36	5.21871E-001	-3.98330E-004	0.00000E+000	-2.07877E-004	-2.40040E-001	5.22061E-001	3.57590E+000	9	...........
	27	0.373333	5.15324E-001	-3.99651E-004	0.00000E+000	-2.05950E-004	-2.40040E-001	5.15522E-001	3.57590E+000	9	...........
	28	0.386667	5.08731E-001	-3.97829E-004	0.00000E+000	-2.02388E-004	-2.40040E-001	5.08954E-001	3.57590E+000	9	...........
	29	0.4	5.02303E-001	-3.98948E-004	0.00000E+000	-2.00393E-004	-2.40040E-001	5.02496E-001	3.57590E+000	9	...........
	30	0.413333	4.95835E-001	-3.98694E-004	0.00000E+000	-1.97686E-004	-2.40040E-001	4.96036E-001	3.57590E+000	9	...........
	31	0.426667	4.89466E-001	-4.00283E-004	0.00000E+000	-1.95925E-004	-2.40040E-001	4.89665E-001	3.57590E+000	9	...........
	32	0.44	4.83238E-001	-3.98960E-004	0.00000E+000	-1.92793E-004	-2.40040E-001	4.83347E-001	3.57590E+000	9	...........
	33	0.453333	4.76978E-001	-3.97906E-004	0.00000E+000	-1.89792E-004	-2.40040E-001	4.77076E-001	3.57590E+000	9	...........
	34	0.466667	4.70688E-001	-3.97467E-004	0.00000E+000	-1.87083E-004	-2.40040E-001	4.70779E-001	3.57590E+000	9	...........
	35	0.48	4.64333E-001	-3.99515E-004	0.00000E+000	-1.85508E-004	-2.40040E-001	4.64428E-001	3.57590E+000	9	...........
	36	0.493333	4.58080E-001	-3.99258E-004	0.00000E+000	-1.82892E-004	-2.40040E-001	4.58172E-001	3.57590E+000	9	...........
	37	0.506667	4.51942E-001	-3.97498E-004	0.00000E+000	-1.79646E-004	-2.40040E-001	4.52033E-001	3.57590E+000	9	...........
	38	0.52	4.45831E-001	-3.98895E-004	0.00000E+000	-1.77840E-004	-2.40040E-001	4.45926E-001	3.57590E+000	9	...........
	39	0.533333	4.39627E-001	-4.00387E-004	0.00000E+000	-1.76021E-004	-2.40040E-001	4.39719E-001	3.57590E+000	9	...........
	40	0.546667	4.33449E-001	-3.98400E-004	0.00000E+000	-1.72686E-004	-2.40040E-001	4.33535E-001	3.57590E+000	9	...........
	41	0.56	4.27318E-001	-3.99809E-004	0.00000E+000	-1.70845E-004	-2.40040E-001	4.27402E-001	3.57590E+000	9	...........
	42	0.573333	4.21254E-001	-3.98846E-004	0.00000E+000	-1.68016E-004	-2.40040E-001	4.21344E-001	3.57590E+000	9	...........
	43	0.586667	4.15239E-001	-3.96866E-004	0.00000E+000	-1.64794E-004	-2.40040E-001	4.15328E-001	3.57590E+000	9	...........
	44	0.6	4.09199E-001	-3.98929E-004	0.00000E+000	-1.63242E-004	-2.40040E-001	4.09282E-001	3.57590E+000	9	...........
	45	0.613333	4.03156E-001	-3.98338E-004	0.00000E+000	-1.60593E-004	-2.40040E-001	4.03234E-001	3.57590E+000	9	...........
	46	0.626667	3.97221E-001	-3.97802E-004	0.00000E+000	-1.58015E-004	-2.40040E-001	3.97295E-001	3.57590E+000	9	...........
	47	0.64	3.91310E-001	-3.99431E-004	0.00000E+000	-1.56301E-004	-2.40040E-001	3.91382E-001	3.57590E+000	9	...........
	48	0.653333	3.85428E-001	-3.98201E-004	0.00000E+000	-1.53478E-004	-2.40040E-001	3.85500E-001	3.57590E+000	9	...........
	49	0.666667	3.79492E-001	-3.98155E-004	0.00000E+000	-1.51097E-004	-2.40040E-001	3.79561E-001	3.57590E+000	9	...........
	50	0.68	3.73641E-001	-3.98501E-004	0.00000E+000	-1.48896E-004	-2.40040E-001	3.73711E-001	3.57590E+000	9	...........
	51	0.693333	3.67796E-001	-3.99171E-004	0.00000E+000	-1.46814E-004	-2.40040E-001	3.67861E-001	3.57590E+000	9	...........
	52	0.706667	3.62045E-001	-3.99129E-004	0.00000E+000	-1.44503E-004	-2.40040E-001	3.62113E-001	3.57590E+000	9	...........
	53	0.72	3.56289E-001	-3.98278E-004	0.00000E+000	-1.41902E-004	-2.40040E-001	3.56359E-001	3.57590E+000	9	...........
	54	0.733333	3.50594E-001	-3.98344E-004	0.00000E+000	-1.39657E-004	-2.40040E-001	3.50656E-001	3.57677E+000	9	...........
	55	0.746667	3.44915E-001	-3.98710E-004	0.00000E+000	-1.37521E-004	-2.40040E-001	3.44983E-001	3.57730E+000	9	...........
	56	0.76	3.39211E-001	-4.00537E-004	0.00000E+000	-1.35867E-004	-2.40040E-001	3.39272E-001	3.57730E+000	9	...........
	57	0.773333	3.33596E-001	-3.98550E-004	0.00000E+000	-1.32955E-004	-2.40040E-001	3.33659E-001	3.57730E+000	9	...........
	58	0.786667	3.28015E-001	-3.98613E-004	0.00000E+000	-1.30751E-004	-2.40040E-001	3.28076E-001	3.57730E+000	9	...........
	59	0.8	3.22531E-001	-3.99138E-004	0.00000E+000	-1.28734E-004	-2.40040E-001	3.22589E-001	3.57730E+000	9	...........
	60	0.813333	3.16987E-001	-3.99070E-004	0.00000E+000	-1.26500E-004	-2.40040E-001	3.17047E-001	3.57730E+000	9	...........
	61	0.826667	3.11450E-001	-3.99139E-004	0.00000E+000	-1.24312E-004	-2.40040E-001	3.11511E-001	3.57730E+000	9	...........
	62	0.84	3.05914E-001	-3.97722E-004	0.00000E+000	-1.21668E-004	-2.40040E-001	3.05977E-001	3.57730E+000	9	...........
	63	0.853333	3.00457E-001	-3.98479E-004	0.00000E+000	-1.19726E-004	-2.40040E-001	3.00512E-001	3.57730E+000	9	...........
	64	0.866667	2.95070E-001	-3.99871E-004	0.00000E+000	-1.17990E-004	-2.40040E-001	2.95125E-001	3.57730E+000	9	...........
	65	0.88	2.89608E-001	-3.98575E-004	0.00000E+000	-1.15430E-004	-2.40040E-001	2.89660E-001	3.57730E+000	9	...........
	66	0.893333	2.84294E-001	-3.99071E-004	0.00000E+000	-1.13453E-004	-2.40040E-001	2.84352E-001	3.57730E+000	9	...........
	67	0.906667	2.79026E-001	-3.98897E-004	0.00000E+000	-1.11303E-004	-2.40040E-001	2.79079E-001	3.57730E+000	9	...........
	68	0.92	2.73726E-001	-3.98673E-004	0.00000E+000	-1.09127E-004	-2.40040E-001	2.73782E-001	3.57730E+000	9	...........
	69	0.933333	2.68412E-001	-3.98316E-004	0.00000E+000	-1.06913E-004	-2.40040E-001	2.68460E-001	3.57730E+000	9	...........
	70	0.946667	2.63146E-001	-3.99563E-004	0.00000E+000	-1.05143E-004	-2.40040E-001	2.63198E-001	3.57730E+000	9	...........
	71	0.96	2.58016E-001	-3.97705E-004	0.00000E+000	-1.02614E-004	-2.40040E-001	2.58064E-001	3.57730E+000	9	...........
	72	0.97333	2.52766E-001	-3.97333E-004	0.00000E+000	-1.00432E-004	-2.40040E-001	2.52815E-001	3.57730E+000	9	...........
	73	0.98667	2.47521E-001	-3.98794E-004	0.00000E+000	-9.87098E-005	-2.40040E-001	2.47570E-001	3.57730E+000	9	...........
	74	1	2.42258E-001	-3.98301E-004	0.00000E+000	-9.64915E-005	-2.40040E-001	2.42305E-001	3.57730E+000	9	...........
	75	1.01333	2.37046E-001	-3.98063E-004	0.00000E+000	-9.43593E-005	-2.40040E-001	2.37092E-001	3.57730E+000	9	...........
	76	1.02667	2.32015E-001	-3.98424E-004	0.00000E+000	-9.24402E-005	-2.40040E-001	2.32058E-001	3.57730E+000	9	...........
	77	1.04	2.26935E-001	-3.99510E-004	0.00000E+000	-9.06625E-005	-2.40040E-001	2.26974E-001	3.57730E+000	9	...........
	78	1.05333	2.21946E-001	-3.99148E-004	0.00000E+000	-8.85892E-005	-2.40040E-001	2.21987E-001	3.57730E+000	9	...........
	79	1.06667	2.16847E-001	-3.98774E-004	0.00000E+000	-8.64728E-005	-2.40040E-001	2.16891E-001	3.57730E+000	9	...........
	80	1.08	2.11778E-001	-3.97748E-004	0.00000E+000	-8.42343E-005	-2.40040E-001	2.11814E-001	3.57730E+000	9	...........
	81	1.09333	2.06733E-001	-3.99480E-004	0.00000E+000	-8.25858E-005	-2.40040E-001	2.06769E-001	3.57730E+000	9	...........
	82	1.10667	2.01705E-001	-3.99134E-004	0.00000E+000	-8.05074E-005	-2.40040E-001	2.01741E-001	3.57730E+000	9	...........
	83	1.12	1.96780E-001	-3.99081E-004	0.00000E+000	-7.85313E-005	-2.40040E-001	1.96817E-001	3.57730E+000	9	...........
	84	1.13333	1.91863E-001	-3.97639E-004	0.00000E+000	-7.62922E-005	-2.40040E-001	1.91902E-001	3.57730E+000	9	...........
	85	1.14667	1.87016E-001	-3.98358E-004	0.00000E+000	-7.44995E-005	-2.40040E-001	1.87050E-001	3.57730E+000	9	...........
	86	1.16	1.82194E-001	-3.99893E-004	0.00000E+000	-7.28582E-005	-2.40040E-001	1.82233E-001	3.57730E+000	9	...........
	87	1.17333	1.77394E-001	-3.99480E-004	0.00000E+000	-7.08653E-005	-2.40040E-001	1.77424E-001	3.57730E+000	9	...........
	88	1.18667	1.72489E-001	-3.97662E-004	0.00000E+000	-6.85922E-005	-2.40040E-001	1.72521E-001	3.57730E+000	9	...........
	89	1.2	1.67715E-001	-3.99159E-004	0.00000E+000	-6.69449E-005	-2.40040E-001	1.67748E-001	3.57730E+000	9	...........
	90	1.21333	1.62935E-001	-3.98421E-004	0.00000E+000	-6.49165E-005	-2.40040E-001	1.62967E-001	3.57730E+000	9	...........
	91	1.22667	1.58178E-001	-3.98536E-004	0.00000E+000	-6.30397E-005	-2.40040E-001	1.58203E-001	3.57730E+000	9	...........
	92	1.24	1.53543E-001	-3.99456E-004	0.00000E+000	-6.13338E-005	-2.40040E-001	1.53570E-001	3.57730E+000	9	...........
	93	1.25333	1.48910E-001	-3.99514E-004	0.00000E+000	-5.94917E-005	-2.40040E-001	1.48935E-001	3.57730E+000	9	...........
	94	1.26667	1.44117E-001	-3.99101E-004	0.00000E+000	-5.75174E-005	-2.40040E-001	1.44143E-001	3.57730E+000	9	...........
	95	1.28	1.39399E-001	-3.99024E-004	0.00000E+000	-5.56237E-005	-2.40040E-001	1.39424E-001	3.57730E+000	9	...........
	96	1.29333	1.34768E-001	-3.98669E-004	0.00000E+000	-5.37276E-005	-2.40040E-001	1.34790E-001	3.57730E+000	9	...........
	97	1.30667	1.30135E-001	-3.99099E-004	0.00000E+000	-5.19369E-005	-2.40040E-001	1.30155E-001	3.57730E+000	9	...........
	98	1.32	1.25536E-001	-3.98832E-004	0.00000E+000	-5.00677E-005	-2.40040E-001	1.25554E-001	3.57730E+000	9	...........
	99	1.33333	1.20975E-001	-3.98842E-004	0.00000E+000	-4.82498E-005	-2.40040E-001	1.20993E-001	3.57730E+000	9	...........
	100	1.34667	1.16385E-001	-3.98081E-004	0.00000E+000	-4.63305E-005	-2.40040E-001	1.16407E-001	3.57730E+000	9	...........
	101	1.36	1.11872E-001	-3.98436E-004	0.00000E+000	-4.45739E-005	-2.40040E-001	1.11890E-001	3.57730E+000	9	...........
	102	1.37333	1.07356E-001	-3.99146E-004	0.00000E+000	-4.28507E-005	-2.40040E-001	1.07376E-001	3.57730E+000	9	...........
	103	1.38667	1.02747E-001	-3.98812E-004	0.00000E+000	-4.09768E-005	-2.40040E-001	1.02767E-001	3.57730E+000	9	...........
	104	1.4	9.83650E-002	-3.99010E-004	0.00000E+000	-3.92487E-005	-2.40040E-001	9.83870E-002	3.57730E+000	9	...........
	105	1.41333	9.38858E-002	-4.00616E-004	0.00000E+000	-3.76122E-005	-2.40040E-001	9.39012E-002	3.57730E+000	9	...........
	106	1.42667	8.94369E-002	-3.98372E-004	0.00000E+000	-3.56291E-005	-2.40040E-001	8.94524E-002	3.57730E+000	9	...........
	107	1.44	8.50325E-002	-3.98879E-004	0.00000E+000	-3.39177E-005	-2.40040E-001	8.50482E-002	3.57730E+000	9	...........
	108	1.45333	8.06733E-002	-3.97530E-004	0.00000E+000	-3.20701E-005	-2.40040E-001	8.06849E-002	3.57730E+000	9	...........
	109	1.46667	7.62652E-002	-3.97921E-004	0.00000E+000	-3.03475E-005	-2.40040E-001	7.62765E-002	3.57730E+000	9	...........
	110	1.48	7.19054E-002	-3.99135E-004	0.00000E+000	-2.87000E-005	-2.40040E-001	7.19187E-002	3.57730E+000	9	...........
	111	1.49333	6.75493E-002	-3.98904E-004	0.00000E+000	-2.69457E-005	-2.40040E-001	6.75563E-002	3.57730E+000	9	...........
	112	1.50667	6.31903E-002	-3.98516E-004	0.00000E+000	-2.51823E-005	-2.40040E-001	6.31993E-002	3.57730E+000	9	...........
	113	1.52	5.89824E-002	-3.98378E-004	0.00000E+000	-2.34973E-005	-2.40040E-001	5.89922E-002	3.57730E+000	9	...........
	114	1.53333	5.46545E-002	-3.98954E-004	0.00000E+000	-2.18047E-005	-2.40040E-001	5.46629E-002	3.57730E+000	9	...........
	115	1.54667	5.03681E-002	-3.99661E-004	0.00000E+000	-2.01302E-005	-2.40040E-001	5.03748E-002	3.57730E+000	9	...........
	116	1.56	4.62115E-002	-3.99052E-004	0.00000E+000	-1.84408E-005	-2.40040E-001	4.62125E-002	3.57730E+000	9	...........
	117	1.57333	4.20107E-002	-3.97600E-004	0.00000E+000	-1.67035E-005	-2.40040E-001	4.20175E-002	3.57730E+000	9	...........
	118	1.58667	3.77931E-002	-3.98209E-004	0.00000E+000	-1.50496E-005	-2.40040E-001	3.77964E-002	3.57730E+000	9	...........
	119	1.6	3.35657E-002	-3.98985E-004	0.00000E+000	-1.33922E-005	-2.40040E-001	3.35685E-002	3.57730E+000	9	...........
	120	1.61333	2.94282E-002	-3.99122E-004	0.00000E+000	-1.17455E-005	-2.40040E-001	2.94289E-002	3.57730E+000	9	...........
	121	1.62667	2.53194E-002	-3.99830E-004	0.00000E+000	-1.01235E-005	-2.40040E-001	2.53172E-002	3.57730E+000	9	...........
	122	1.64	2.12491E-002	-4.01007E-004	0.00000E+000	-8.52104E-006	-2.40040E-001	2.12418E-002	3.57730E+000	9	...........
	123	1.65333	1.70809E-002	-4.00445E-004	0.00000E+000	-6.83998E-006	-2.40040E-001	1.70729E-002	3.57730E+000	9	...........
	124	1.66667	1.29537E-002	-3.98596E-004	0.00000E+000	-5.16328E-006	-2.40040E-001	1.29425E-002	3.57730E+000	9	...........
	125	1.68	8.90862E-003	-3.98662E-004	0.00000E+000	-3.55153E-006	-2.40040E-001	8.89637E-003	3.57730E+000	9	...........
	126	1.69333	4.86637E-003	-3.98662E-004	0.00000E+000	-1.94004E-006	-2.40040E-001	4.85099E-003	3.57730E+000	9	...........
	127	1.70333	1.28945E-003	-3.99593E-004	0.00000E+000	-5.15256E-007	-2.40040E-001	1.26776E-003	3.57730E+000	9	...........
STARTTIMEOFFSET	QUANT	450.1984	Start Time Offset (s)
