EXPLAIN
TAG	PWR800_DISCHARGE
TITLE	LABEL	PWR Cyclic Charge Discharge (Cell) - Discharge Step	Test &Identifier
DATE	LABEL	12-7-2017	Date
TIME	LABEL	14:35:50	Time
NOTES	NOTES	3	&Notes...
	supercap test cell
	0.4mg
	6M KOH
PSTAT	PSTAT	IFC5000-01520	Potentiostat
CAPACITY	QUANT	1.00000E-003	Capacity (A-hr)
CELLTYPE	SELECTOR	1	&Cell Type
WORKINGCONNECTION	SELECTOR	0	&Working Lead
MAXDISCHARGETIME	VARIABLEANDUNITS	1.00000E+002	s	1.00000E+002	second(s)	Max &Discharge Time
DISCHARGEMODE	MULTIPARAM	0	4.00000E-004	&Discharge Mode	Constant Current	Amp(s)
SAMPLETIME	QUANT	1.00000E-002	Sa&mple Period (s)
DISCHARGESTOPAT1	MULTIPARAM	3	0.00000E+000	Discharge Stop At &1	Voltage < Limit	V
DISCHARGESTOPAT2	MULTIPARAM	0	0.00000E+000	Discharge Stop At &2	None	N/A
AESBHCSELECTOR	TOGGLE	F	Save Both Half Cells
IRCOMP	TOGGLE	F	IR &Measure
EOC	QUANT	0	Open Circuit (V)
SEQUENCER	TOGGLE	TRUE	Run as Sequence
PSTATMODEL	IQUANT	53	Pstat Model
PSTATSECTION	LABEL	IFC5000-01520	Pstat Section
PSTATSERIALNO	LABEL	01520	Pstat Serial Number
CTRLMODE	IQUANT	0	Control Mode
ELECTROMETER	IQUANT	1	RE=0 or CS=1
IESTAB	IQUANT	0	I/E Stability
CASPEED	IQUANT	4	Control Amp Speed
CONVENTION	IQUANT	1	Current Convention
ICHRANGE	IQUANT	2	Ich Range
ICHRANGEMODE	TOGGLE	T	Ich Auto Range
ICHOFFSETENABLE	TOGGLE	F	Ich Offset Enable
ICHOFFSET	QUANT	0	Ich Offset (V)
ICHFILTER	IQUANT	1	Ich Filter
VCHRANGE	IQUANT	2	Vch Range
VCHRANGEMODE	TOGGLE	T	Vch Auto Range
VCHOFFSETENABLE	TOGGLE	F	Vch Offset Enable
VCHOFFSET	QUANT	0	Vch Offset (V)
VCHFILTER	IQUANT	1	Vch Filter
IERANGELOWERLIMIT	IQUANT	9	I/E Range Lower Limit
IERANGEMODE	TOGGLE	F	I/E AutoRange
IERANGE	IQUANT	9	I/E Range
ACHSELECT	IQUANT	1	Ach Select
ACHRANGE	IQUANT	2	Ach Range
ACHOFFSETENABLE	TOGGLE	F	Ach Offset Enable
ACHOFFSET	QUANT	0	Ach Offset (V)
ACHFILTER	IQUANT	1	Ach Filter
CABLEID	IQUANT	14	Cable ID
DCCALDATE	LABEL	5-7-2017	DC Calibration Date
ACCALDATE	LABEL	12/3/2015	AC Calibration Date
FRAMEWORKVERSION	QUANT	7.01	Framework Version
INSTRUMENTVERSION	LABEL	4.00	Instrument Version
CURVE	TABLE	122
	Pt	T	Vf	Im	Vu	Pwr	Sig	Ach	Temp	IERange	Over
	#	s	V	A	V	W	V	V	deg C	#	bits
	0	0.013333	7.12463E-001	-3.98796E-004	0.00000E+000	-2.84127E-004	-2.40040E-001	7.12706E-001	3.57600E+000	9	...........
	1	0.026667	7.00777E-001	-3.98476E-004	0.00000E+000	-2.79243E-004	-2.40040E-001	7.01045E-001	3.57600E+000	9	...........
	2	0.04	6.90469E-001	-3.98615E-004	0.00000E+000	-2.75231E-004	-2.40040E-001	6.90715E-001	3.57600E+000	9	...........
	3	0.053333	6.80966E-001	-3.98288E-004	0.00000E+000	-2.71221E-004	-2.40040E-001	6.81222E-001	3.57600E+000	9	...........
	4	0.066667	6.71964E-001	-3.99153E-004	0.00000E+000	-2.68216E-004	-2.40040E-001	6.72205E-001	3.57600E+000	9	...........
	5	0.08	6.63317E-001	-3.97976E-004	0.00000E+000	-2.63984E-004	-2.40040E-001	6.63564E-001	3.57600E+000	9	...........
	6	0.093333	6.54942E-001	-3.98585E-004	0.00000E+000	-2.61050E-004	-2.40040E-001	6.55174E-001	3.57600E+000	9	...........
	7	0.106667	6.46818E-001	-3.98620E-004	0.00000E+000	-2.57834E-004	-2.40040E-001	6.47057E-001	3.57600E+000	9	...........
	8	0.12	6.38838E-001	-3.98334E-004	0.00000E+000	-2.54471E-004	-2.40040E-001	6.39088E-001	3.57600E+000	9	...........
	9	0.133333	6.30973E-001	-3.98941E-004	0.00000E+000	-2.51721E-004	-2.40040E-001	6.31194E-001	3.57600E+000	9	...........
	10	0.146667	6.23302E-001	-3.98040E-004	0.00000E+000	-2.48099E-004	-2.40040E-001	6.23506E-001	3.57600E+000	9	...........
	11	0.16	6.15590E-001	-3.99381E-004	0.00000E+000	-2.45855E-004	-2.40040E-001	6.15823E-001	3.57600E+000	9	...........
	12	0.173333	6.08034E-001	-3.98423E-004	0.00000E+000	-2.42254E-004	-2.40040E-001	6.08311E-001	3.57600E+000	9	...........
	13	0.186667	6.00513E-001	-3.98242E-004	0.00000E+000	-2.39149E-004	-2.40040E-001	6.00771E-001	3.57600E+000	9	...........
	14	0.2	5.93159E-001	-3.99205E-004	0.00000E+000	-2.36792E-004	-2.40040E-001	5.93400E-001	3.57600E+000	9	...........
	15	0.213333	5.85843E-001	-3.98850E-004	0.00000E+000	-2.33663E-004	-2.40040E-001	5.86087E-001	3.57600E+000	9	...........
	16	0.226667	5.78540E-001	-3.99342E-004	0.00000E+000	-2.31035E-004	-2.40040E-001	5.78782E-001	3.57600E+000	9	...........
	17	0.24	5.71275E-001	-3.99521E-004	0.00000E+000	-2.28236E-004	-2.40040E-001	5.71501E-001	3.57600E+000	9	...........
	18	0.253333	5.64061E-001	-3.99212E-004	0.00000E+000	-2.25180E-004	-2.40040E-001	5.64304E-001	3.57600E+000	9	...........
	19	0.266667	5.56930E-001	-3.99239E-004	0.00000E+000	-2.22348E-004	-2.40040E-001	5.57177E-001	3.57600E+000	9	...........
	20	0.28	5.49876E-001	-3.98995E-004	0.00000E+000	-2.19398E-004	-2.40040E-001	5.50082E-001	3.57600E+000	9	...........
	21	0.293333	5.42756E-001	-3.99170E-004	0.00000E+000	-2.16652E-004	-2.40040E-001	5.42996E-001	3.57600E+000	9	...........
	22	0.306667	5.35668E-001	-3.98710E-004	0.00000E+000	-2.13576E-004	-2.40040E-001	5.35914E-001	3.57600E+000	9	...........
	23	0.32	5.28771E-001	-3.97894E-004	0.00000E+000	-2.10394E-004	-2.40040E-001	5.28991E-001	3.57600E+000	9	...........
	24	0.333333	5.21903E-001	-3.97402E-004	0.00000E+000	-2.07405E-004	-2.40040E-001	5.22104E-001	3.57600E+000	9	...........
	25	0.346667	5.14947E-001	-3.98001E-004	0.00000E+000	-2.04949E-004	-2.40040E-001	5.15149E-001	3.57600E+000	9	...........
	26	0.36	5.07995E-001	-3.98346E-004	0.00000E+000	-2.02358E-004	-2.40040E-001	5.08261E-001	3.57600E+000	9	...........
	27	0.373333	5.01262E-001	-3.97913E-004	0.00000E+000	-1.99459E-004	-2.40040E-001	5.01478E-001	3.57600E+000	9	...........
	28	0.386667	4.94464E-001	-3.99089E-004	0.00000E+000	-1.97335E-004	-2.40040E-001	4.94680E-001	3.57600E+000	9	...........
	29	0.4	4.87675E-001	-3.98467E-004	0.00000E+000	-1.94322E-004	-2.40040E-001	4.87889E-001	3.57600E+000	9	...........
	30	0.413333	4.81204E-001	-4.00030E-004	0.00000E+000	-1.92496E-004	-2.40040E-001	4.81300E-001	3.57600E+000	9	...........
	31	0.426667	4.74569E-001	-3.99619E-004	0.00000E+000	-1.89647E-004	-2.40040E-001	4.74664E-001	3.57600E+000	9	...........
	32	0.44	4.67840E-001	-3.98198E-004	0.00000E+000	-1.86293E-004	-2.40040E-001	4.67935E-001	3.57600E+000	9	...........
	33	0.453333	4.61183E-001	-3.97875E-004	0.00000E+000	-1.83493E-004	-2.40040E-001	4.61279E-001	3.57600E+000	9	...........
	34	0.466667	4.54792E-001	-3.98371E-004	0.00000E+000	-1.81176E-004	-2.40040E-001	4.54887E-001	3.57600E+000	9	...........
	35	0.48	4.48284E-001	-3.98950E-004	0.00000E+000	-1.78843E-004	-2.40040E-001	4.48373E-001	3.57600E+000	9	...........
	36	0.493333	4.41765E-001	-3.97293E-004	0.00000E+000	-1.75510E-004	-2.40040E-001	4.41855E-001	3.57600E+000	9	...........
	37	0.506667	4.35348E-001	-3.98611E-004	0.00000E+000	-1.73535E-004	-2.40040E-001	4.35436E-001	3.57600E+000	9	...........
	38	0.52	4.28901E-001	-3.98891E-004	0.00000E+000	-1.71085E-004	-2.40040E-001	4.28988E-001	3.57600E+000	9	...........
	39	0.533333	4.22482E-001	-3.98633E-004	0.00000E+000	-1.68416E-004	-2.40040E-001	4.22567E-001	3.57600E+000	9	...........
	40	0.546667	4.16145E-001	-3.98577E-004	0.00000E+000	-1.65866E-004	-2.40040E-001	4.16232E-001	3.57600E+000	9	...........
	41	0.56	4.09747E-001	-3.98450E-004	0.00000E+000	-1.63264E-004	-2.40040E-001	4.09826E-001	3.57600E+000	9	...........
	42	0.573333	4.03434E-001	-3.98683E-004	0.00000E+000	-1.60842E-004	-2.40040E-001	4.03518E-001	3.57600E+000	9	...........
	43	0.586667	3.97170E-001	-3.99856E-004	0.00000E+000	-1.58811E-004	-2.40040E-001	3.97248E-001	3.57600E+000	9	...........
	44	0.6	3.90895E-001	-3.97882E-004	0.00000E+000	-1.55530E-004	-2.40040E-001	3.90967E-001	3.57600E+000	9	...........
	45	0.613333	3.84648E-001	-3.98897E-004	0.00000E+000	-1.53435E-004	-2.40040E-001	3.84721E-001	3.57600E+000	9	...........
	46	0.626667	3.78498E-001	-3.98519E-004	0.00000E+000	-1.50839E-004	-2.40040E-001	3.78580E-001	3.57600E+000	9	...........
	47	0.64	3.72425E-001	-3.97864E-004	0.00000E+000	-1.48175E-004	-2.40040E-001	3.72500E-001	3.57600E+000	9	...........
	48	0.653333	3.66404E-001	-3.97427E-004	0.00000E+000	-1.45619E-004	-2.40040E-001	3.66484E-001	3.57600E+000	9	...........
	49	0.666667	3.60424E-001	-3.99298E-004	0.00000E+000	-1.43917E-004	-2.40040E-001	3.60497E-001	3.57600E+000	9	...........
	50	0.68	3.54331E-001	-3.98619E-004	0.00000E+000	-1.41243E-004	-2.40040E-001	3.54402E-001	3.57600E+000	9	...........
	51	0.693333	3.48374E-001	-3.99118E-004	0.00000E+000	-1.39042E-004	-2.40040E-001	3.48442E-001	3.57600E+000	9	...........
	52	0.706667	3.42457E-001	-3.99139E-004	0.00000E+000	-1.36688E-004	-2.40040E-001	3.42527E-001	3.57652E+000	9	...........
	53	0.72	3.36498E-001	-4.00178E-004	0.00000E+000	-1.34659E-004	-2.40040E-001	3.36571E-001	3.57740E+000	9	...........
	54	0.733333	3.30539E-001	-3.97963E-004	0.00000E+000	-1.31543E-004	-2.40040E-001	3.30604E-001	3.57740E+000	9	...........
	55	0.746667	3.24636E-001	-3.97683E-004	0.00000E+000	-1.29102E-004	-2.40040E-001	3.24702E-001	3.57740E+000	9	...........
	56	0.76	3.18764E-001	-3.98595E-004	0.00000E+000	-1.27057E-004	-2.40040E-001	3.18825E-001	3.57740E+000	9	...........
	57	0.773333	3.12904E-001	-3.98214E-004	0.00000E+000	-1.24603E-004	-2.40040E-001	3.12972E-001	3.57740E+000	9	...........
	58	0.786667	3.07180E-001	-3.98916E-004	0.00000E+000	-1.22539E-004	-2.40040E-001	3.07241E-001	3.57740E+000	9	...........
	59	0.8	3.01465E-001	-3.98635E-004	0.00000E+000	-1.20175E-004	-2.40040E-001	3.01528E-001	3.57740E+000	9	...........
	60	0.813333	2.95761E-001	-3.98862E-004	0.00000E+000	-1.17968E-004	-2.40040E-001	2.95821E-001	3.57740E+000	9	...........
	61	0.826667	2.90043E-001	-3.98209E-004	0.00000E+000	-1.15498E-004	-2.40040E-001	2.90095E-001	3.57740E+000	9	...........
	62	0.84	2.84398E-001	-3.99832E-004	0.00000E+000	-1.13712E-004	-2.40040E-001	2.84460E-001	3.57740E+000	9	...........
	63	0.853333	2.78806E-001	-3.99924E-004	0.00000E+000	-1.11501E-004	-2.40040E-001	2.78864E-001	3.57740E+000	9	...........
	64	0.866667	2.73146E-001	-3.99815E-004	0.00000E+000	-1.09208E-004	-2.40040E-001	2.73203E-001	3.57740E+000	9	...........
	65	0.88	2.67631E-001	-3.99008E-004	0.00000E+000	-1.06787E-004	-2.40040E-001	2.67684E-001	3.57740E+000	9	...........
	66	0.893333	2.62047E-001	-3.98078E-004	0.00000E+000	-1.04315E-004	-2.40040E-001	2.62100E-001	3.57740E+000	9	...........
	67	0.906667	2.56574E-001	-3.97946E-004	0.00000E+000	-1.02102E-004	-2.40040E-001	2.56622E-001	3.57740E+000	9	...........
	68	0.92	2.51138E-001	-3.99744E-004	0.00000E+000	-1.00391E-004	-2.40040E-001	2.51189E-001	3.57740E+000	9	...........
	69	0.933333	2.45695E-001	-3.98802E-004	0.00000E+000	-9.79836E-005	-2.40040E-001	2.45741E-001	3.57740E+000	9	...........
	70	0.946667	2.40282E-001	-3.98137E-004	0.00000E+000	-9.56653E-005	-2.40040E-001	2.40326E-001	3.57740E+000	9	...........
	71	0.96	2.34902E-001	-3.99153E-004	0.00000E+000	-9.37620E-005	-2.40040E-001	2.34940E-001	3.57740E+000	9	...........
	72	0.97333	2.29685E-001	-3.97214E-004	0.00000E+000	-9.12343E-005	-2.40040E-001	2.29727E-001	3.57740E+000	9	...........
	73	0.98667	2.24393E-001	-3.98382E-004	0.00000E+000	-8.93941E-005	-2.40040E-001	2.24435E-001	3.57740E+000	9	...........
	74	1	2.19156E-001	-4.00481E-004	0.00000E+000	-8.77676E-005	-2.40040E-001	2.19196E-001	3.57740E+000	9	...........
	75	1.01333	2.13935E-001	-3.99045E-004	0.00000E+000	-8.53696E-005	-2.40040E-001	2.13972E-001	3.57740E+000	9	...........
	76	1.02667	2.08662E-001	-3.98197E-004	0.00000E+000	-8.30887E-005	-2.40040E-001	2.08697E-001	3.57740E+000	9	...........
	77	1.04	2.03473E-001	-3.98305E-004	0.00000E+000	-8.10442E-005	-2.40040E-001	2.03514E-001	3.57740E+000	9	...........
	78	1.05333	1.98295E-001	-3.99319E-004	0.00000E+000	-7.91829E-005	-2.40040E-001	1.98333E-001	3.57740E+000	9	...........
	79	1.06667	1.93133E-001	-3.99425E-004	0.00000E+000	-7.71421E-005	-2.40040E-001	1.93171E-001	3.57740E+000	9	...........
	80	1.08	1.88021E-001	-3.98207E-004	0.00000E+000	-7.48714E-005	-2.40040E-001	1.88054E-001	3.57740E+000	9	...........
	81	1.09333	1.83009E-001	-3.99616E-004	0.00000E+000	-7.31332E-005	-2.40040E-001	1.83048E-001	3.57740E+000	9	...........
	82	1.10667	1.77922E-001	-3.98725E-004	0.00000E+000	-7.09418E-005	-2.40040E-001	1.77953E-001	3.57740E+000	9	...........
	83	1.12	1.72919E-001	-3.99022E-004	0.00000E+000	-6.89987E-005	-2.40040E-001	1.72955E-001	3.57740E+000	9	...........
	84	1.13333	1.67837E-001	-3.97556E-004	0.00000E+000	-6.67246E-005	-2.40040E-001	1.67873E-001	3.57740E+000	9	...........
	85	1.14667	1.62787E-001	-3.98994E-004	0.00000E+000	-6.49510E-005	-2.40040E-001	1.62818E-001	3.57740E+000	9	...........
	86	1.16	1.57797E-001	-3.99238E-004	0.00000E+000	-6.29984E-005	-2.40040E-001	1.57829E-001	3.57740E+000	9	...........
	87	1.17333	1.52880E-001	-3.97764E-004	0.00000E+000	-6.08104E-005	-2.40040E-001	1.52906E-001	3.57740E+000	9	...........
	88	1.18667	1.47990E-001	-3.97775E-004	0.00000E+000	-5.88667E-005	-2.40040E-001	1.48016E-001	3.57740E+000	9	...........
	89	1.2	1.43118E-001	-3.98498E-004	0.00000E+000	-5.70320E-005	-2.40040E-001	1.43138E-001	3.57740E+000	9	...........
	90	1.21333	1.38256E-001	-3.97764E-004	0.00000E+000	-5.49934E-005	-2.40040E-001	1.38280E-001	3.57740E+000	9	...........
	91	1.22667	1.33376E-001	-3.99021E-004	0.00000E+000	-5.32197E-005	-2.40040E-001	1.33396E-001	3.57740E+000	9	...........
	92	1.24	1.28579E-001	-3.99524E-004	0.00000E+000	-5.13705E-005	-2.40040E-001	1.28600E-001	3.57740E+000	9	...........
	93	1.25333	1.23837E-001	-3.98006E-004	0.00000E+000	-4.92880E-005	-2.40040E-001	1.23862E-001	3.57740E+000	9	...........
	94	1.26667	1.19079E-001	-3.99193E-004	0.00000E+000	-4.75356E-005	-2.40040E-001	1.19100E-001	3.57740E+000	9	...........
	95	1.28	1.14281E-001	-3.98785E-004	0.00000E+000	-4.55734E-005	-2.40040E-001	1.14303E-001	3.57740E+000	9	...........
	96	1.29333	1.09612E-001	-3.97727E-004	0.00000E+000	-4.35955E-005	-2.40040E-001	1.09628E-001	3.57740E+000	9	...........
	97	1.30667	1.04910E-001	-3.98264E-004	0.00000E+000	-4.17818E-005	-2.40040E-001	1.04928E-001	3.57740E+000	9	...........
	98	1.32	1.00182E-001	-3.98843E-004	0.00000E+000	-3.99567E-005	-2.40040E-001	1.00198E-001	3.57740E+000	9	...........
	99	1.33333	9.55159E-002	-3.98812E-004	0.00000E+000	-3.80929E-005	-2.40040E-001	9.55348E-002	3.57740E+000	9	...........
	100	1.34667	9.08535E-002	-3.99137E-004	0.00000E+000	-3.62630E-005	-2.40040E-001	9.08706E-002	3.57740E+000	9	...........
	101	1.36	8.62588E-002	-3.99884E-004	0.00000E+000	-3.44935E-005	-2.40040E-001	8.62726E-002	3.57740E+000	9	...........
	102	1.37333	8.17191E-002	-3.98397E-004	0.00000E+000	-3.25566E-005	-2.40040E-001	8.17336E-002	3.57740E+000	9	...........
	103	1.38667	7.71805E-002	-3.98790E-004	0.00000E+000	-3.07788E-005	-2.40040E-001	7.71861E-002	3.57740E+000	9	...........
	104	1.4	7.25672E-002	-3.98821E-004	0.00000E+000	-2.89413E-005	-2.40040E-001	7.25762E-002	3.57740E+000	9	...........
	105	1.41333	6.79510E-002	-3.98967E-004	0.00000E+000	-2.71102E-005	-2.40040E-001	6.79618E-002	3.57740E+000	9	...........
	106	1.42667	6.35204E-002	-3.99675E-004	0.00000E+000	-2.53875E-005	-2.40040E-001	6.35292E-002	3.57740E+000	9	...........
	107	1.44	5.91057E-002	-3.99473E-004	0.00000E+000	-2.36111E-005	-2.40040E-001	5.91191E-002	3.57740E+000	9	...........
	108	1.45333	5.46629E-002	-3.98482E-004	0.00000E+000	-2.17822E-005	-2.40040E-001	5.46707E-002	3.57740E+000	9	...........
	109	1.46667	5.02770E-002	-3.99582E-004	0.00000E+000	-2.00898E-005	-2.40040E-001	5.02819E-002	3.57740E+000	9	...........
	110	1.48	4.59803E-002	-3.99829E-004	0.00000E+000	-1.83843E-005	-2.40040E-001	4.59886E-002	3.57740E+000	9	...........
	111	1.49333	4.16121E-002	-3.98557E-004	0.00000E+000	-1.65848E-005	-2.40040E-001	4.16202E-002	3.57740E+000	9	...........
	112	1.50667	3.72981E-002	-3.99151E-004	0.00000E+000	-1.48876E-005	-2.40040E-001	3.73044E-002	3.57740E+000	9	...........
	113	1.52	3.28951E-002	-3.98725E-004	0.00000E+000	-1.31161E-005	-2.40040E-001	3.28948E-002	3.57740E+000	9	...........
	114	1.53333	2.85841E-002	-3.99009E-004	0.00000E+000	-1.14053E-005	-2.40040E-001	2.85838E-002	3.57740E+000	9	...........
	115	1.54667	2.43420E-002	-3.97788E-004	0.00000E+000	-9.68297E-006	-2.40040E-001	2.43400E-002	3.57740E+000	9	...........
	116	1.56	2.01416E-002	-3.98808E-004	0.00000E+000	-8.03264E-006	-2.40040E-001	2.01358E-002	3.57740E+000	9	...........
	117	1.57333	1.59488E-002	-3.99418E-004	0.00000E+000	-6.37024E-006	-2.40040E-001	1.59399E-002	3.57740E+000	9	...........
	118	1.58667	1.17696E-002	-3.98486E-004	0.00000E+000	-4.69004E-006	-2.40040E-001	1.17566E-002	3.57740E+000	9	...........
	119	1.6	7.58217E-003	-3.98495E-004	0.00000E+000	-3.02146E-006	-2.40040E-001	7.56542E-003	3.57740E+000	9	...........
	120	1.61333	3.50380E-003	-3.98485E-004	0.00000E+000	-1.39621E-006	-2.40040E-001	3.48265E-003	3.57740E+000	9	...........
	121	1.62	3.57760E-004	-3.97733E-004	0.00000E+000	-1.42293E-007	-2.40040E-001	3.38152E-004	3.57740E+000	9	...........
STARTTIMEOFFSET	QUANT	828.7486	Start Time Offset (s)
