EXPLAIN
TAG	PWR800_DISCHARGE
TITLE	LABEL	PWR Cyclic Charge Discharge (Cell) - Discharge Step	Test &Identifier
DATE	LABEL	12-7-2017	Date
TIME	LABEL	15:21:59	Time
NOTES	NOTES	3	&Notes...
	supercap test cell
	0.4mg
	6M KOH
PSTAT	PSTAT	IFC5000-01520	Potentiostat
CAPACITY	QUANT	1.00000E-003	Capacity (A-hr)
CELLTYPE	SELECTOR	1	&Cell Type
WORKINGCONNECTION	SELECTOR	0	&Working Lead
MAXDISCHARGETIME	VARIABLEANDUNITS	1.00000E+002	s	1.00000E+002	second(s)	Max &Discharge Time
DISCHARGEMODE	MULTIPARAM	0	4.00000E-004	&Discharge Mode	Constant Current	Amp(s)
SAMPLETIME	QUANT	1.00000E-002	Sa&mple Period (s)
DISCHARGESTOPAT1	MULTIPARAM	3	0.00000E+000	Discharge Stop At &1	Voltage < Limit	V
DISCHARGESTOPAT2	MULTIPARAM	0	0.00000E+000	Discharge Stop At &2	None	N/A
AESBHCSELECTOR	TOGGLE	F	Save Both Half Cells
IRCOMP	TOGGLE	F	IR &Measure
EOC	QUANT	0	Open Circuit (V)
SEQUENCER	TOGGLE	TRUE	Run as Sequence
PSTATMODEL	IQUANT	53	Pstat Model
PSTATSECTION	LABEL	IFC5000-01520	Pstat Section
PSTATSERIALNO	LABEL	01520	Pstat Serial Number
CTRLMODE	IQUANT	0	Control Mode
ELECTROMETER	IQUANT	1	RE=0 or CS=1
IESTAB	IQUANT	0	I/E Stability
CASPEED	IQUANT	4	Control Amp Speed
CONVENTION	IQUANT	1	Current Convention
ICHRANGE	IQUANT	2	Ich Range
ICHRANGEMODE	TOGGLE	T	Ich Auto Range
ICHOFFSETENABLE	TOGGLE	F	Ich Offset Enable
ICHOFFSET	QUANT	0	Ich Offset (V)
ICHFILTER	IQUANT	1	Ich Filter
VCHRANGE	IQUANT	2	Vch Range
VCHRANGEMODE	TOGGLE	T	Vch Auto Range
VCHOFFSETENABLE	TOGGLE	F	Vch Offset Enable
VCHOFFSET	QUANT	0	Vch Offset (V)
VCHFILTER	IQUANT	1	Vch Filter
IERANGELOWERLIMIT	IQUANT	9	I/E Range Lower Limit
IERANGEMODE	TOGGLE	F	I/E AutoRange
IERANGE	IQUANT	9	I/E Range
ACHSELECT	IQUANT	1	Ach Select
ACHRANGE	IQUANT	2	Ach Range
ACHOFFSETENABLE	TOGGLE	F	Ach Offset Enable
ACHOFFSET	QUANT	0	Ach Offset (V)
ACHFILTER	IQUANT	1	Ach Filter
CABLEID	IQUANT	14	Cable ID
DCCALDATE	LABEL	5-7-2017	DC Calibration Date
ACCALDATE	LABEL	12/3/2015	AC Calibration Date
FRAMEWORKVERSION	QUANT	7.01	Framework Version
INSTRUMENTVERSION	LABEL	4.00	Instrument Version
CURVE	TABLE	102
	Pt	T	Vf	Im	Vu	Pwr	Sig	Ach	Temp	IERange	Over
	#	s	V	A	V	W	V	V	deg C	#	bits
	0	0.013333	6.82052E-001	-3.98611E-004	0.00000E+000	-2.71874E-004	-2.40040E-001	6.82294E-001	3.57690E+000	9	...........
	1	0.026667	6.68182E-001	-3.98793E-004	0.00000E+000	-2.66466E-004	-2.40040E-001	6.68425E-001	3.57690E+000	9	...........
	2	0.04	6.56061E-001	-3.99230E-004	0.00000E+000	-2.61920E-004	-2.40040E-001	6.56283E-001	3.57690E+000	9	...........
	3	0.053333	6.44996E-001	-3.98306E-004	0.00000E+000	-2.56906E-004	-2.40040E-001	6.45242E-001	3.57690E+000	9	...........
	4	0.066667	6.34615E-001	-3.98798E-004	0.00000E+000	-2.53083E-004	-2.40040E-001	6.34862E-001	3.57690E+000	9	...........
	5	0.08	6.24809E-001	-3.98416E-004	0.00000E+000	-2.48933E-004	-2.40040E-001	6.25031E-001	3.57690E+000	9	...........
	6	0.093333	6.15326E-001	-3.99780E-004	0.00000E+000	-2.45995E-004	-2.40040E-001	6.15562E-001	3.57690E+000	9	...........
	7	0.106667	6.06042E-001	-4.00085E-004	0.00000E+000	-2.42468E-004	-2.40040E-001	6.06278E-001	3.57690E+000	9	...........
	8	0.12	5.97033E-001	-3.98945E-004	0.00000E+000	-2.38183E-004	-2.40040E-001	5.97253E-001	3.57690E+000	9	...........
	9	0.133333	5.88200E-001	-3.99039E-004	0.00000E+000	-2.34715E-004	-2.40040E-001	5.88440E-001	3.57690E+000	9	...........
	10	0.146667	5.79551E-001	-3.99187E-004	0.00000E+000	-2.31349E-004	-2.40040E-001	5.79777E-001	3.57690E+000	9	...........
	11	0.16	5.70924E-001	-3.99463E-004	0.00000E+000	-2.28063E-004	-2.40040E-001	5.71145E-001	3.57690E+000	9	...........
	12	0.173333	5.62471E-001	-3.99032E-004	0.00000E+000	-2.24444E-004	-2.40040E-001	5.62701E-001	3.57690E+000	9	...........
	13	0.186667	5.54135E-001	-3.98553E-004	0.00000E+000	-2.20852E-004	-2.40040E-001	5.54356E-001	3.57690E+000	9	...........
	14	0.2	5.45873E-001	-3.98642E-004	0.00000E+000	-2.17608E-004	-2.40040E-001	5.46107E-001	3.57690E+000	9	...........
	15	0.213333	5.37594E-001	-3.97904E-004	0.00000E+000	-2.13911E-004	-2.40040E-001	5.37800E-001	3.57690E+000	9	...........
	16	0.226667	5.29401E-001	-3.98194E-004	0.00000E+000	-2.10804E-004	-2.40040E-001	5.29641E-001	3.57690E+000	9	...........
	17	0.24	5.21348E-001	-3.98201E-004	0.00000E+000	-2.07601E-004	-2.40040E-001	5.21551E-001	3.57690E+000	9	...........
	18	0.253333	5.13270E-001	-3.98870E-004	0.00000E+000	-2.04728E-004	-2.40040E-001	5.13484E-001	3.57690E+000	9	...........
	19	0.266667	5.05229E-001	-3.98857E-004	0.00000E+000	-2.01514E-004	-2.40040E-001	5.05486E-001	3.57690E+000	9	...........
	20	0.28	4.97313E-001	-3.98299E-004	0.00000E+000	-1.98079E-004	-2.40040E-001	4.97538E-001	3.57690E+000	9	...........
	21	0.293333	4.89526E-001	-3.99651E-004	0.00000E+000	-1.95640E-004	-2.40040E-001	4.89741E-001	3.57690E+000	9	...........
	22	0.306667	4.81974E-001	-3.98706E-004	0.00000E+000	-1.92166E-004	-2.40040E-001	4.82064E-001	3.57690E+000	9	...........
	23	0.32	4.74225E-001	-4.00375E-004	0.00000E+000	-1.89868E-004	-2.40040E-001	4.74319E-001	3.57690E+000	9	...........
	24	0.333333	4.66360E-001	-3.97422E-004	0.00000E+000	-1.85342E-004	-2.40040E-001	4.66455E-001	3.57640E+000	9	...........
	25	0.346667	4.58726E-001	-3.98362E-004	0.00000E+000	-1.82739E-004	-2.40040E-001	4.58816E-001	3.57640E+000	9	...........
	26	0.36	4.51033E-001	-3.98528E-004	0.00000E+000	-1.79749E-004	-2.40040E-001	4.51117E-001	3.57640E+000	9	...........
	27	0.373333	4.43362E-001	-3.97985E-004	0.00000E+000	-1.76451E-004	-2.40040E-001	4.43455E-001	3.57640E+000	9	...........
	28	0.386667	4.35713E-001	-3.98958E-004	0.00000E+000	-1.73831E-004	-2.40040E-001	4.35804E-001	3.57640E+000	9	...........
	29	0.4	4.28160E-001	-3.98044E-004	0.00000E+000	-1.70426E-004	-2.40040E-001	4.28249E-001	3.57640E+000	9	...........
	30	0.413333	4.20712E-001	-3.97402E-004	0.00000E+000	-1.67192E-004	-2.40040E-001	4.20796E-001	3.57640E+000	9	...........
	31	0.426667	4.13243E-001	-3.99588E-004	0.00000E+000	-1.65127E-004	-2.40040E-001	4.13328E-001	3.57640E+000	9	...........
	32	0.44	4.05861E-001	-3.99101E-004	0.00000E+000	-1.61980E-004	-2.40040E-001	4.05942E-001	3.57640E+000	9	...........
	33	0.453333	3.98376E-001	-3.99037E-004	0.00000E+000	-1.58967E-004	-2.40040E-001	3.98454E-001	3.57640E+000	9	...........
	34	0.466667	3.91069E-001	-3.99555E-004	0.00000E+000	-1.56254E-004	-2.40040E-001	3.91141E-001	3.57640E+000	9	...........
	35	0.48	3.83781E-001	-3.98994E-004	0.00000E+000	-1.53126E-004	-2.40040E-001	3.83859E-001	3.57640E+000	9	...........
	36	0.493333	3.76503E-001	-3.97325E-004	0.00000E+000	-1.49594E-004	-2.40040E-001	3.76572E-001	3.57640E+000	9	...........
	37	0.506667	3.69304E-001	-3.98665E-004	0.00000E+000	-1.47228E-004	-2.40040E-001	3.69370E-001	3.57640E+000	9	...........
	38	0.52	3.62130E-001	-3.98597E-004	0.00000E+000	-1.44344E-004	-2.40040E-001	3.62202E-001	3.57640E+000	9	...........
	39	0.533333	3.55073E-001	-3.99084E-004	0.00000E+000	-1.41704E-004	-2.40040E-001	3.55139E-001	3.57640E+000	9	...........
	40	0.546667	3.48092E-001	-3.99740E-004	0.00000E+000	-1.39146E-004	-2.40040E-001	3.48165E-001	3.57640E+000	9	...........
	41	0.56	3.41046E-001	-3.98455E-004	0.00000E+000	-1.35892E-004	-2.40040E-001	3.41120E-001	3.57640E+000	9	...........
	42	0.573333	3.34087E-001	-3.99505E-004	0.00000E+000	-1.33470E-004	-2.40040E-001	3.34154E-001	3.57640E+000	9	...........
	43	0.586667	3.27214E-001	-3.98490E-004	0.00000E+000	-1.30391E-004	-2.40040E-001	3.27279E-001	3.57640E+000	9	...........
	44	0.6	3.20376E-001	-3.98915E-004	0.00000E+000	-1.27803E-004	-2.40040E-001	3.20438E-001	3.57640E+000	9	...........
	45	0.613333	3.13589E-001	-3.98953E-004	0.00000E+000	-1.25107E-004	-2.40040E-001	3.13647E-001	3.57640E+000	9	...........
	46	0.626667	3.06888E-001	-3.99400E-004	0.00000E+000	-1.22571E-004	-2.40040E-001	3.06947E-001	3.57640E+000	9	...........
	47	0.64	3.00215E-001	-3.98934E-004	0.00000E+000	-1.19766E-004	-2.40040E-001	3.00276E-001	3.57640E+000	9	...........
	48	0.653333	2.93592E-001	-3.98386E-004	0.00000E+000	-1.16963E-004	-2.40040E-001	2.93646E-001	3.57640E+000	9	...........
	49	0.666667	2.86946E-001	-3.97802E-004	0.00000E+000	-1.14148E-004	-2.40040E-001	2.87001E-001	3.57640E+000	9	...........
	50	0.68	2.80249E-001	-3.99469E-004	0.00000E+000	-1.11951E-004	-2.40040E-001	2.80309E-001	3.57640E+000	9	...........
	51	0.693333	2.73697E-001	-3.99851E-004	0.00000E+000	-1.09438E-004	-2.40040E-001	2.73753E-001	3.57640E+000	9	...........
	52	0.706667	2.67179E-001	-3.98922E-004	0.00000E+000	-1.06583E-004	-2.40040E-001	2.67231E-001	3.57640E+000	9	...........
	53	0.72	2.60750E-001	-4.00088E-004	0.00000E+000	-1.04323E-004	-2.40040E-001	2.60804E-001	3.57640E+000	9	...........
	54	0.733333	2.54302E-001	-3.96489E-004	0.00000E+000	-1.00828E-004	-2.40040E-001	2.54359E-001	3.57640E+000	9	...........
	55	0.746667	2.47977E-001	-3.98661E-004	0.00000E+000	-9.88589E-005	-2.40040E-001	2.48026E-001	3.57640E+000	9	...........
	56	0.76	2.41642E-001	-3.99223E-004	0.00000E+000	-9.64690E-005	-2.40040E-001	2.41690E-001	3.57640E+000	9	...........
	57	0.773333	2.35392E-001	-3.99486E-004	0.00000E+000	-9.40358E-005	-2.40040E-001	2.35439E-001	3.57640E+000	9	...........
	58	0.786667	2.29138E-001	-3.98819E-004	0.00000E+000	-9.13846E-005	-2.40040E-001	2.29185E-001	3.57640E+000	9	...........
	59	0.8	2.22975E-001	-3.99642E-004	0.00000E+000	-8.91102E-005	-2.40040E-001	2.23025E-001	3.57640E+000	9	...........
	60	0.813333	2.16835E-001	-3.98477E-004	0.00000E+000	-8.64036E-005	-2.40040E-001	2.16876E-001	3.57640E+000	9	...........
	61	0.826667	2.10712E-001	-3.99613E-004	0.00000E+000	-8.42033E-005	-2.40040E-001	2.10755E-001	3.57640E+000	9	...........
	62	0.84	2.04649E-001	-3.98758E-004	0.00000E+000	-8.16054E-005	-2.40040E-001	2.04688E-001	3.57640E+000	9	...........
	63	0.853333	1.98709E-001	-3.98586E-004	0.00000E+000	-7.92028E-005	-2.40040E-001	1.98744E-001	3.57640E+000	9	...........
	64	0.866667	1.92701E-001	-3.98535E-004	0.00000E+000	-7.67981E-005	-2.40040E-001	1.92738E-001	3.57640E+000	9	...........
	65	0.88	1.86752E-001	-3.98247E-004	0.00000E+000	-7.43735E-005	-2.40040E-001	1.86788E-001	3.57640E+000	9	...........
	66	0.893333	1.80892E-001	-3.98695E-004	0.00000E+000	-7.21206E-005	-2.40040E-001	1.80930E-001	3.57640E+000	9	...........
	67	0.906667	1.75051E-001	-3.99102E-004	0.00000E+000	-6.98633E-005	-2.40040E-001	1.75082E-001	3.57640E+000	9	...........
	68	0.92	1.69245E-001	-3.99610E-004	0.00000E+000	-6.76319E-005	-2.40040E-001	1.69279E-001	3.57640E+000	9	...........
	69	0.933333	1.63445E-001	-3.99028E-004	0.00000E+000	-6.52192E-005	-2.40040E-001	1.63474E-001	3.57640E+000	9	...........
	70	0.946667	1.57750E-001	-3.98016E-004	0.00000E+000	-6.27870E-005	-2.40040E-001	1.57773E-001	3.57640E+000	9	...........
	71	0.96	1.52092E-001	-3.97706E-004	0.00000E+000	-6.04879E-005	-2.40040E-001	1.52116E-001	3.57640E+000	9	...........
	72	0.97333	1.46477E-001	-3.97987E-004	0.00000E+000	-5.82958E-005	-2.40040E-001	1.46504E-001	3.57640E+000	9	...........
	73	0.98667	1.40819E-001	-3.98882E-004	0.00000E+000	-5.61701E-005	-2.40040E-001	1.40847E-001	3.57640E+000	9	...........
	74	1	1.35248E-001	-3.98804E-004	0.00000E+000	-5.39373E-005	-2.40040E-001	1.35270E-001	3.57640E+000	9	...........
	75	1.01333	1.29742E-001	-3.99981E-004	0.00000E+000	-5.18945E-005	-2.40040E-001	1.29765E-001	3.57640E+000	9	...........
	76	1.02667	1.24301E-001	-3.99066E-004	0.00000E+000	-4.96042E-005	-2.40040E-001	1.24318E-001	3.57640E+000	9	...........
	77	1.04	1.18827E-001	-3.97873E-004	0.00000E+000	-4.72782E-005	-2.40040E-001	1.18849E-001	3.57640E+000	9	...........
	78	1.05333	1.13460E-001	-3.98195E-004	0.00000E+000	-4.51791E-005	-2.40040E-001	1.13481E-001	3.57640E+000	9	...........
	79	1.06667	1.08088E-001	-3.98385E-004	0.00000E+000	-4.30608E-005	-2.40040E-001	1.08110E-001	3.57640E+000	9	...........
	80	1.08	1.02753E-001	-3.97941E-004	0.00000E+000	-4.08897E-005	-2.40040E-001	1.02772E-001	3.57640E+000	9	...........
	81	1.09333	9.74710E-002	-4.00201E-004	0.00000E+000	-3.90080E-005	-2.40040E-001	9.74888E-002	3.57640E+000	9	...........
	82	1.10667	9.22272E-002	-3.98310E-004	0.00000E+000	-3.67351E-005	-2.40040E-001	9.22416E-002	3.57640E+000	9	...........
	83	1.12	8.69882E-002	-3.99007E-004	0.00000E+000	-3.47089E-005	-2.40040E-001	8.70067E-002	3.57640E+000	9	...........
	84	1.13333	8.18323E-002	-3.98650E-004	0.00000E+000	-3.26225E-005	-2.40040E-001	8.18437E-002	3.57640E+000	9	...........
	85	1.14667	7.66667E-002	-3.98197E-004	0.00000E+000	-3.05284E-005	-2.40040E-001	7.66769E-002	3.57640E+000	9	...........
	86	1.16	7.16243E-002	-3.99328E-004	0.00000E+000	-2.86016E-005	-2.40040E-001	7.16299E-002	3.57640E+000	9	...........
	87	1.17333	6.65551E-002	-3.98225E-004	0.00000E+000	-2.65039E-005	-2.40040E-001	6.65630E-002	3.57640E+000	9	...........
	88	1.18667	6.15200E-002	-3.98802E-004	0.00000E+000	-2.45343E-005	-2.40040E-001	6.15295E-002	3.57640E+000	9	...........
	89	1.2	5.64665E-002	-3.98986E-004	0.00000E+000	-2.25294E-005	-2.40040E-001	5.64767E-002	3.57640E+000	9	...........
	90	1.21333	5.15097E-002	-3.98735E-004	0.00000E+000	-2.05387E-005	-2.40040E-001	5.15194E-002	3.57640E+000	9	...........
	91	1.22667	4.65640E-002	-3.98499E-004	0.00000E+000	-1.85557E-005	-2.40040E-001	4.65706E-002	3.57640E+000	9	...........
	92	1.24	4.16210E-002	-3.98586E-004	0.00000E+000	-1.65896E-005	-2.40040E-001	4.16233E-002	3.57640E+000	9	...........
	93	1.25333	3.67151E-002	-4.00076E-004	0.00000E+000	-1.46888E-005	-2.40040E-001	3.67178E-002	3.57640E+000	9	...........
	94	1.26667	3.18751E-002	-3.98482E-004	0.00000E+000	-1.27017E-005	-2.40040E-001	3.18744E-002	3.57640E+000	9	...........
	95	1.28	2.71105E-002	-3.99091E-004	0.00000E+000	-1.08196E-005	-2.40040E-001	2.71092E-002	3.57640E+000	9	...........
	96	1.29333	2.23009E-002	-3.99134E-004	0.00000E+000	-8.90106E-006	-2.40040E-001	2.22946E-002	3.57640E+000	9	...........
	97	1.30667	1.75528E-002	-3.98603E-004	0.00000E+000	-6.99662E-006	-2.40040E-001	1.75437E-002	3.57640E+000	9	...........
	98	1.32	1.28643E-002	-3.98873E-004	0.00000E+000	-5.13120E-006	-2.40040E-001	1.28531E-002	3.57640E+000	9	...........
	99	1.33333	8.11625E-003	-3.98730E-004	0.00000E+000	-3.23619E-006	-2.40040E-001	8.09883E-003	3.57690E+000	9	...........
	100	1.34667	3.49305E-003	-3.97932E-004	0.00000E+000	-1.39000E-006	-2.40040E-001	3.47534E-003	3.57690E+000	9	...........
	101	1.35167	3.05302E-004	-3.97220E-004	0.00000E+000	-1.21272E-007	-2.40040E-001	2.78211E-004	3.57690E+000	9	...........
STARTTIMEOFFSET	QUANT	2999.233	Start Time Offset (s)
