EXPLAIN
TAG	PWR800_DISCHARGE
TITLE	LABEL	PWR Cyclic Charge Discharge (Cell) - Discharge Step	Test &Identifier
DATE	LABEL	12-7-2017	Date
TIME	LABEL	14:28:05	Time
NOTES	NOTES	3	&Notes...
	supercap test cell
	0.4mg
	6M KOH
PSTAT	PSTAT	IFC5000-01520	Potentiostat
CAPACITY	QUANT	1.00000E-003	Capacity (A-hr)
CELLTYPE	SELECTOR	1	&Cell Type
WORKINGCONNECTION	SELECTOR	0	&Working Lead
MAXDISCHARGETIME	VARIABLEANDUNITS	1.00000E+002	s	1.00000E+002	second(s)	Max &Discharge Time
DISCHARGEMODE	MULTIPARAM	0	4.00000E-004	&Discharge Mode	Constant Current	Amp(s)
SAMPLETIME	QUANT	1.00000E-002	Sa&mple Period (s)
DISCHARGESTOPAT1	MULTIPARAM	3	0.00000E+000	Discharge Stop At &1	Voltage < Limit	V
DISCHARGESTOPAT2	MULTIPARAM	0	0.00000E+000	Discharge Stop At &2	None	N/A
AESBHCSELECTOR	TOGGLE	F	Save Both Half Cells
IRCOMP	TOGGLE	F	IR &Measure
EOC	QUANT	0	Open Circuit (V)
SEQUENCER	TOGGLE	TRUE	Run as Sequence
PSTATMODEL	IQUANT	53	Pstat Model
PSTATSECTION	LABEL	IFC5000-01520	Pstat Section
PSTATSERIALNO	LABEL	01520	Pstat Serial Number
CTRLMODE	IQUANT	0	Control Mode
ELECTROMETER	IQUANT	1	RE=0 or CS=1
IESTAB	IQUANT	0	I/E Stability
CASPEED	IQUANT	4	Control Amp Speed
CONVENTION	IQUANT	1	Current Convention
ICHRANGE	IQUANT	2	Ich Range
ICHRANGEMODE	TOGGLE	T	Ich Auto Range
ICHOFFSETENABLE	TOGGLE	F	Ich Offset Enable
ICHOFFSET	QUANT	0	Ich Offset (V)
ICHFILTER	IQUANT	1	Ich Filter
VCHRANGE	IQUANT	2	Vch Range
VCHRANGEMODE	TOGGLE	T	Vch Auto Range
VCHOFFSETENABLE	TOGGLE	F	Vch Offset Enable
VCHOFFSET	QUANT	0	Vch Offset (V)
VCHFILTER	IQUANT	1	Vch Filter
IERANGELOWERLIMIT	IQUANT	9	I/E Range Lower Limit
IERANGEMODE	TOGGLE	F	I/E AutoRange
IERANGE	IQUANT	9	I/E Range
ACHSELECT	IQUANT	1	Ach Select
ACHRANGE	IQUANT	2	Ach Range
ACHOFFSETENABLE	TOGGLE	F	Ach Offset Enable
ACHOFFSET	QUANT	0	Ach Offset (V)
ACHFILTER	IQUANT	1	Ach Filter
CABLEID	IQUANT	14	Cable ID
DCCALDATE	LABEL	5-7-2017	DC Calibration Date
ACCALDATE	LABEL	12/3/2015	AC Calibration Date
FRAMEWORKVERSION	QUANT	7.01	Framework Version
INSTRUMENTVERSION	LABEL	4.00	Instrument Version
CURVE	TABLE	128
	Pt	T	Vf	Im	Vu	Pwr	Sig	Ach	Temp	IERange	Over
	#	s	V	A	V	W	V	V	deg C	#	bits
	0	0.013333	7.17754E-001	-3.98640E-004	0.00000E+000	-2.86125E-004	-2.40040E-001	7.17983E-001	3.57590E+000	9	...........
	1	0.026667	7.06579E-001	-3.99289E-004	0.00000E+000	-2.82129E-004	-2.40040E-001	7.06800E-001	3.57590E+000	9	...........
	2	0.04	6.96783E-001	-3.97400E-004	0.00000E+000	-2.76901E-004	-2.40040E-001	6.97010E-001	3.57590E+000	9	...........
	3	0.053333	6.87601E-001	-3.98498E-004	0.00000E+000	-2.74007E-004	-2.40040E-001	6.87828E-001	3.57590E+000	9	...........
	4	0.066667	6.79022E-001	-3.98837E-004	0.00000E+000	-2.70820E-004	-2.40040E-001	6.79217E-001	3.57590E+000	9	...........
	5	0.08	6.70732E-001	-3.99008E-004	0.00000E+000	-2.67628E-004	-2.40040E-001	6.70940E-001	3.57590E+000	9	...........
	6	0.093333	6.62740E-001	-3.99906E-004	0.00000E+000	-2.65034E-004	-2.40040E-001	6.62972E-001	3.57590E+000	9	...........
	7	0.106667	6.54927E-001	-3.97261E-004	0.00000E+000	-2.60177E-004	-2.40040E-001	6.55149E-001	3.57590E+000	9	...........
	8	0.12	6.47233E-001	-3.98672E-004	0.00000E+000	-2.58034E-004	-2.40040E-001	6.47447E-001	3.57590E+000	9	...........
	9	0.133333	6.39619E-001	-3.99410E-004	0.00000E+000	-2.55470E-004	-2.40040E-001	6.39879E-001	3.57590E+000	9	...........
	10	0.146667	6.32164E-001	-3.97746E-004	0.00000E+000	-2.51440E-004	-2.40040E-001	6.32408E-001	3.57590E+000	9	...........
	11	0.16	6.24865E-001	-3.99571E-004	0.00000E+000	-2.49678E-004	-2.40040E-001	6.25086E-001	3.57590E+000	9	...........
	12	0.173333	6.17646E-001	-3.98670E-004	0.00000E+000	-2.46237E-004	-2.40040E-001	6.17851E-001	3.57590E+000	9	...........
	13	0.186667	6.10364E-001	-3.97059E-004	0.00000E+000	-2.42351E-004	-2.40040E-001	6.10627E-001	3.57590E+000	9	...........
	14	0.2	6.03241E-001	-3.97936E-004	0.00000E+000	-2.40051E-004	-2.40040E-001	6.03501E-001	3.57590E+000	9	...........
	15	0.213333	5.96287E-001	-3.98331E-004	0.00000E+000	-2.37520E-004	-2.40040E-001	5.96508E-001	3.57590E+000	9	...........
	16	0.226667	5.89381E-001	-3.99381E-004	0.00000E+000	-2.35388E-004	-2.40040E-001	5.89636E-001	3.57590E+000	9	...........
	17	0.24	5.82409E-001	-3.98697E-004	0.00000E+000	-2.32205E-004	-2.40040E-001	5.82615E-001	3.57590E+000	9	...........
	18	0.253333	5.75485E-001	-3.98645E-004	0.00000E+000	-2.29414E-004	-2.40040E-001	5.75690E-001	3.57590E+000	9	...........
	19	0.266667	5.68654E-001	-3.98837E-004	0.00000E+000	-2.26801E-004	-2.40040E-001	5.68811E-001	3.57590E+000	9	...........
	20	0.28	5.61710E-001	-3.98548E-004	0.00000E+000	-2.23868E-004	-2.40040E-001	5.61886E-001	3.57590E+000	9	...........
	21	0.293333	5.54959E-001	-3.97995E-004	0.00000E+000	-2.20871E-004	-2.40040E-001	5.55114E-001	3.57590E+000	9	...........
	22	0.306667	5.48243E-001	-3.96880E-004	0.00000E+000	-2.17586E-004	-2.40040E-001	5.48389E-001	3.57590E+000	9	...........
	23	0.32	5.41593E-001	-3.98680E-004	0.00000E+000	-2.15922E-004	-2.40040E-001	5.41730E-001	3.57590E+000	9	...........
	24	0.333333	5.34820E-001	-3.97827E-004	0.00000E+000	-2.12766E-004	-2.40040E-001	5.34987E-001	3.57590E+000	9	...........
	25	0.346667	5.28192E-001	-3.98506E-004	0.00000E+000	-2.10488E-004	-2.40040E-001	5.28349E-001	3.57590E+000	9	...........
	26	0.36	5.21607E-001	-3.99255E-004	0.00000E+000	-2.08254E-004	-2.40040E-001	5.21750E-001	3.57590E+000	9	...........
	27	0.373333	5.15088E-001	-3.97238E-004	0.00000E+000	-2.04613E-004	-2.40040E-001	5.15233E-001	3.57590E+000	9	...........
	28	0.386667	5.08478E-001	-3.98656E-004	0.00000E+000	-2.02708E-004	-2.40040E-001	5.08651E-001	3.57590E+000	9	...........
	29	0.4	5.02017E-001	-3.99148E-004	0.00000E+000	-2.00379E-004	-2.40040E-001	5.02201E-001	3.57590E+000	9	...........
	30	0.413333	4.95522E-001	-3.98795E-004	0.00000E+000	-1.97612E-004	-2.40040E-001	4.95694E-001	3.57590E+000	9	...........
	31	0.426667	4.89075E-001	-3.98783E-004	0.00000E+000	-1.95035E-004	-2.40040E-001	4.89260E-001	3.57590E+000	9	...........
	32	0.44	4.82843E-001	-4.00276E-004	0.00000E+000	-1.93271E-004	-2.40040E-001	4.82937E-001	3.57590E+000	9	...........
	33	0.453333	4.76526E-001	-3.97928E-004	0.00000E+000	-1.89623E-004	-2.40040E-001	4.76622E-001	3.57590E+000	9	...........
	34	0.466667	4.70273E-001	-3.98770E-004	0.00000E+000	-1.87531E-004	-2.40040E-001	4.70365E-001	3.57590E+000	9	...........
	35	0.48	4.64004E-001	-3.97467E-004	0.00000E+000	-1.84426E-004	-2.40040E-001	4.64096E-001	3.57590E+000	9	...........
	36	0.493333	4.57679E-001	-3.99742E-004	0.00000E+000	-1.82953E-004	-2.40040E-001	4.57773E-001	3.57590E+000	9	...........
	37	0.506667	4.51415E-001	-3.98936E-004	0.00000E+000	-1.80086E-004	-2.40040E-001	4.51503E-001	3.57590E+000	9	...........
	38	0.52	4.45287E-001	-3.98560E-004	0.00000E+000	-1.77474E-004	-2.40040E-001	4.45376E-001	3.57590E+000	9	...........
	39	0.533333	4.39035E-001	-3.98448E-004	0.00000E+000	-1.74933E-004	-2.40040E-001	4.39122E-001	3.57590E+000	9	...........
	40	0.546667	4.32993E-001	-3.98605E-004	0.00000E+000	-1.72593E-004	-2.40040E-001	4.33079E-001	3.57590E+000	9	...........
	41	0.56	4.26871E-001	-3.99302E-004	0.00000E+000	-1.70450E-004	-2.40040E-001	4.26962E-001	3.57590E+000	9	...........
	42	0.573333	4.20759E-001	-3.99427E-004	0.00000E+000	-1.68062E-004	-2.40040E-001	4.20838E-001	3.57590E+000	9	...........
	43	0.586667	4.14725E-001	-3.98981E-004	0.00000E+000	-1.65468E-004	-2.40040E-001	4.14807E-001	3.57590E+000	9	...........
	44	0.6	4.08752E-001	-3.98974E-004	0.00000E+000	-1.63081E-004	-2.40040E-001	4.08831E-001	3.57590E+000	9	...........
	45	0.613333	4.02784E-001	-3.97922E-004	0.00000E+000	-1.60277E-004	-2.40040E-001	4.02859E-001	3.57590E+000	9	...........
	46	0.626667	3.96800E-001	-3.98289E-004	0.00000E+000	-1.58041E-004	-2.40040E-001	3.96876E-001	3.57590E+000	9	...........
	47	0.64	3.90858E-001	-3.99543E-004	0.00000E+000	-1.56165E-004	-2.40040E-001	3.90934E-001	3.57590E+000	9	...........
	48	0.653333	3.84971E-001	-3.99763E-004	0.00000E+000	-1.53897E-004	-2.40040E-001	3.85039E-001	3.57590E+000	9	...........
	49	0.666667	3.79043E-001	-3.98427E-004	0.00000E+000	-1.51021E-004	-2.40040E-001	3.79117E-001	3.57590E+000	9	...........
	50	0.68	3.73292E-001	-3.98769E-004	0.00000E+000	-1.48857E-004	-2.40040E-001	3.73359E-001	3.57590E+000	9	...........
	51	0.693333	3.67496E-001	-3.98342E-004	0.00000E+000	-1.46389E-004	-2.40040E-001	3.67558E-001	3.57590E+000	9	...........
	52	0.706667	3.61739E-001	-3.98559E-004	0.00000E+000	-1.44174E-004	-2.40040E-001	3.61807E-001	3.57590E+000	9	...........
	53	0.72	3.56021E-001	-3.99073E-004	0.00000E+000	-1.42079E-004	-2.40040E-001	3.56089E-001	3.57590E+000	9	...........
	54	0.733333	3.50298E-001	-3.98301E-004	0.00000E+000	-1.39524E-004	-2.40040E-001	3.50366E-001	3.57590E+000	9	...........
	55	0.746667	3.44610E-001	-3.98285E-004	0.00000E+000	-1.37253E-004	-2.40040E-001	3.44674E-001	3.57590E+000	9	...........
	56	0.76	3.38957E-001	-3.98159E-004	0.00000E+000	-1.34959E-004	-2.40040E-001	3.39014E-001	3.57590E+000	9	...........
	57	0.773333	3.33282E-001	-4.00679E-004	0.00000E+000	-1.33539E-004	-2.40040E-001	3.33346E-001	3.57590E+000	9	...........
	58	0.786667	3.27667E-001	-3.97610E-004	0.00000E+000	-1.30284E-004	-2.40040E-001	3.27730E-001	3.57590E+000	9	...........
	59	0.8	3.22156E-001	-3.99129E-004	0.00000E+000	-1.28582E-004	-2.40040E-001	3.22216E-001	3.57590E+000	9	...........
	60	0.813333	3.16570E-001	-4.00176E-004	0.00000E+000	-1.26684E-004	-2.40040E-001	3.16628E-001	3.57590E+000	9	...........
	61	0.826667	3.11036E-001	-3.99613E-004	0.00000E+000	-1.24294E-004	-2.40040E-001	3.11091E-001	3.57590E+000	9	...........
	62	0.84	3.05555E-001	-3.97955E-004	0.00000E+000	-1.21597E-004	-2.40040E-001	3.05614E-001	3.57590E+000	9	...........
	63	0.853333	3.00094E-001	-3.99527E-004	0.00000E+000	-1.19896E-004	-2.40040E-001	3.00149E-001	3.57590E+000	9	...........
	64	0.866667	2.94664E-001	-3.98578E-004	0.00000E+000	-1.17447E-004	-2.40040E-001	2.94721E-001	3.57590E+000	9	...........
	65	0.88	2.89259E-001	-3.98937E-004	0.00000E+000	-1.15396E-004	-2.40040E-001	2.89313E-001	3.57590E+000	9	...........
	66	0.893333	2.83888E-001	-3.98245E-004	0.00000E+000	-1.13057E-004	-2.40040E-001	2.83940E-001	3.57590E+000	9	...........
	67	0.906667	2.78585E-001	-3.99425E-004	0.00000E+000	-1.11274E-004	-2.40040E-001	2.78634E-001	3.57590E+000	9	...........
	68	0.92	2.73288E-001	-3.98544E-004	0.00000E+000	-1.08917E-004	-2.40040E-001	2.73344E-001	3.57590E+000	9	...........
	69	0.933333	2.67992E-001	-3.98239E-004	0.00000E+000	-1.06725E-004	-2.40040E-001	2.68045E-001	3.57590E+000	9	...........
	70	0.946667	2.62771E-001	-3.98532E-004	0.00000E+000	-1.04723E-004	-2.40040E-001	2.62824E-001	3.57590E+000	9	...........
	71	0.96	2.57495E-001	-4.00049E-004	0.00000E+000	-1.03011E-004	-2.40040E-001	2.57545E-001	3.57590E+000	9	...........
	72	0.97333	2.52290E-001	-3.98547E-004	0.00000E+000	-1.00549E-004	-2.40040E-001	2.52338E-001	3.57620E+000	9	...........
	73	0.98667	2.47109E-001	-3.98850E-004	0.00000E+000	-9.85594E-005	-2.40040E-001	2.47155E-001	3.57630E+000	9	...........
	74	1	2.41885E-001	-3.97913E-004	0.00000E+000	-9.62491E-005	-2.40040E-001	2.41928E-001	3.57630E+000	9	...........
	75	1.01333	2.36741E-001	-3.99692E-004	0.00000E+000	-9.46235E-005	-2.40040E-001	2.36785E-001	3.57630E+000	9	...........
	76	1.02667	2.31682E-001	-3.99287E-004	0.00000E+000	-9.25077E-005	-2.40040E-001	2.31724E-001	3.57630E+000	9	...........
	77	1.04	2.26656E-001	-3.98092E-004	0.00000E+000	-9.02299E-005	-2.40040E-001	2.26693E-001	3.57630E+000	9	...........
	78	1.05333	2.21576E-001	-3.98702E-004	0.00000E+000	-8.83429E-005	-2.40040E-001	2.21611E-001	3.57630E+000	9	...........
	79	1.06667	2.16552E-001	-3.99095E-004	0.00000E+000	-8.64248E-005	-2.40040E-001	2.16589E-001	3.57630E+000	9	...........
	80	1.08	2.11517E-001	-3.98817E-004	0.00000E+000	-8.43566E-005	-2.40040E-001	2.11550E-001	3.57630E+000	9	...........
	81	1.09333	2.06478E-001	-4.00270E-004	0.00000E+000	-8.26471E-005	-2.40040E-001	2.06507E-001	3.57630E+000	9	...........
	82	1.10667	2.01519E-001	-3.99806E-004	0.00000E+000	-8.05687E-005	-2.40040E-001	2.01554E-001	3.57630E+000	9	...........
	83	1.12	1.96539E-001	-3.99516E-004	0.00000E+000	-7.85203E-005	-2.40040E-001	1.96569E-001	3.57630E+000	9	...........
	84	1.13333	1.91621E-001	-3.98901E-004	0.00000E+000	-7.64379E-005	-2.40040E-001	1.91653E-001	3.57630E+000	9	...........
	85	1.14667	1.86737E-001	-3.98420E-004	0.00000E+000	-7.43998E-005	-2.40040E-001	1.86766E-001	3.57630E+000	9	...........
	86	1.16	1.81900E-001	-3.98780E-004	0.00000E+000	-7.25381E-005	-2.40040E-001	1.81937E-001	3.57630E+000	9	...........
	87	1.17333	1.77044E-001	-3.98153E-004	0.00000E+000	-7.04905E-005	-2.40040E-001	1.77077E-001	3.57630E+000	9	...........
	88	1.18667	1.72186E-001	-3.98485E-004	0.00000E+000	-6.86135E-005	-2.40040E-001	1.72221E-001	3.57630E+000	9	...........
	89	1.2	1.67401E-001	-3.97550E-004	0.00000E+000	-6.65503E-005	-2.40040E-001	1.67434E-001	3.57630E+000	9	...........
	90	1.21333	1.62670E-001	-3.99238E-004	0.00000E+000	-6.49441E-005	-2.40040E-001	1.62693E-001	3.57630E+000	9	...........
	91	1.22667	1.57952E-001	-3.98455E-004	0.00000E+000	-6.29367E-005	-2.40040E-001	1.57981E-001	3.57630E+000	9	...........
	92	1.24	1.53225E-001	-3.98743E-004	0.00000E+000	-6.10974E-005	-2.40040E-001	1.53251E-001	3.57630E+000	9	...........
	93	1.25333	1.48463E-001	-3.99349E-004	0.00000E+000	-5.92887E-005	-2.40040E-001	1.48497E-001	3.57630E+000	9	...........
	94	1.26667	1.43807E-001	-3.98027E-004	0.00000E+000	-5.72390E-005	-2.40040E-001	1.43831E-001	3.57630E+000	9	...........
	95	1.28	1.39098E-001	-3.99093E-004	0.00000E+000	-5.55131E-005	-2.40040E-001	1.39130E-001	3.57630E+000	9	...........
	96	1.29333	1.34439E-001	-3.99081E-004	0.00000E+000	-5.36523E-005	-2.40040E-001	1.34464E-001	3.57630E+000	9	...........
	97	1.30667	1.29780E-001	-3.98951E-004	0.00000E+000	-5.17760E-005	-2.40040E-001	1.29807E-001	3.57630E+000	9	...........
	98	1.32	1.25199E-001	-3.97653E-004	0.00000E+000	-4.97858E-005	-2.40040E-001	1.25220E-001	3.57630E+000	9	...........
	99	1.33333	1.20659E-001	-3.99314E-004	0.00000E+000	-4.81806E-005	-2.40040E-001	1.20682E-001	3.57630E+000	9	...........
	100	1.34667	1.16058E-001	-3.99225E-004	0.00000E+000	-4.63334E-005	-2.40040E-001	1.16082E-001	3.57630E+000	9	...........
	101	1.36	1.11442E-001	-3.98503E-004	0.00000E+000	-4.44099E-005	-2.40040E-001	1.11463E-001	3.57630E+000	9	...........
	102	1.37333	1.06882E-001	-3.99423E-004	0.00000E+000	-4.26912E-005	-2.40040E-001	1.06903E-001	3.57630E+000	9	...........
	103	1.38667	1.02418E-001	-3.99198E-004	0.00000E+000	-4.08849E-005	-2.40040E-001	1.02437E-001	3.57630E+000	9	...........
	104	1.4	9.79326E-002	-3.98824E-004	0.00000E+000	-3.90579E-005	-2.40040E-001	9.79505E-002	3.57630E+000	9	...........
	105	1.41333	9.34065E-002	-3.98980E-004	0.00000E+000	-3.72674E-005	-2.40040E-001	9.34218E-002	3.57630E+000	9	...........
	106	1.42667	8.89055E-002	-3.97891E-004	0.00000E+000	-3.53747E-005	-2.40040E-001	8.89265E-002	3.57630E+000	9	...........
	107	1.44	8.45783E-002	-3.99819E-004	0.00000E+000	-3.38160E-005	-2.40040E-001	8.45953E-002	3.57630E+000	9	...........
	108	1.45333	8.02514E-002	-3.99894E-004	0.00000E+000	-3.20921E-005	-2.40040E-001	8.02657E-002	3.57630E+000	9	...........
	109	1.46667	7.59144E-002	-3.99740E-004	0.00000E+000	-3.03460E-005	-2.40040E-001	7.59295E-002	3.57630E+000	9	...........
	110	1.48	7.15586E-002	-3.98528E-004	0.00000E+000	-2.85181E-005	-2.40040E-001	7.15696E-002	3.57630E+000	9	...........
	111	1.49333	6.72021E-002	-4.00195E-004	0.00000E+000	-2.68940E-005	-2.40040E-001	6.72131E-002	3.57630E+000	9	...........
	112	1.50667	6.28632E-002	-4.00092E-004	0.00000E+000	-2.51511E-005	-2.40040E-001	6.28729E-002	3.57630E+000	9	...........
	113	1.52	5.85115E-002	-3.98051E-004	0.00000E+000	-2.32906E-005	-2.40040E-001	5.85225E-002	3.57630E+000	9	...........
	114	1.53333	5.42052E-002	-3.98317E-004	0.00000E+000	-2.15908E-005	-2.40040E-001	5.42115E-002	3.57630E+000	9	...........
	115	1.54667	4.99070E-002	-3.97774E-004	0.00000E+000	-1.98517E-005	-2.40040E-001	4.99083E-002	3.57630E+000	9	...........
	116	1.56	4.57552E-002	-3.98860E-004	0.00000E+000	-1.82499E-005	-2.40040E-001	4.57671E-002	3.57630E+000	9	...........
	117	1.57333	4.16066E-002	-3.98990E-004	0.00000E+000	-1.66006E-005	-2.40040E-001	4.16162E-002	3.57630E+000	9	...........
	118	1.58667	3.74492E-002	-3.98766E-004	0.00000E+000	-1.49334E-005	-2.40040E-001	3.74571E-002	3.57630E+000	9	...........
	119	1.6	3.32477E-002	-3.99891E-004	0.00000E+000	-1.32954E-005	-2.40040E-001	3.32476E-002	3.57630E+000	9	...........
	120	1.61333	2.90086E-002	-4.00749E-004	0.00000E+000	-1.16252E-005	-2.40040E-001	2.90066E-002	3.57630E+000	9	...........
	121	1.62667	2.49366E-002	-3.98002E-004	0.00000E+000	-9.92482E-006	-2.40040E-001	2.49327E-002	3.57630E+000	9	...........
	122	1.64	2.08275E-002	-3.98000E-004	0.00000E+000	-8.28935E-006	-2.40040E-001	2.08257E-002	3.57630E+000	9	...........
	123	1.65333	1.67290E-002	-3.99498E-004	0.00000E+000	-6.68320E-006	-2.40040E-001	1.67223E-002	3.57630E+000	9	...........
	124	1.66667	1.26388E-002	-3.97486E-004	0.00000E+000	-5.02376E-006	-2.40040E-001	1.26286E-002	3.57630E+000	9	...........
	125	1.68	8.50667E-003	-3.98630E-004	0.00000E+000	-3.39101E-006	-2.40040E-001	8.49544E-003	3.57630E+000	9	...........
	126	1.69333	4.48187E-003	-3.98572E-004	0.00000E+000	-1.78635E-006	-2.40040E-001	4.46331E-003	3.57630E+000	9	...........
	127	1.70333	9.23700E-004	-4.00029E-004	0.00000E+000	-3.69507E-007	-2.40040E-001	9.09970E-004	3.57630E+000	9	...........
STARTTIMEOFFSET	QUANT	457.2251	Start Time Offset (s)
