EXPLAIN
TAG	PWR800_DISCHARGE
TITLE	LABEL	PWR Cyclic Charge Discharge (Cell) - Discharge Step	Test &Identifier
DATE	LABEL	12-7-2017	Date
TIME	LABEL	15:05:39	Time
NOTES	NOTES	3	&Notes...
	supercap test cell
	0.4mg
	6M KOH
PSTAT	PSTAT	IFC5000-01520	Potentiostat
CAPACITY	QUANT	1.00000E-003	Capacity (A-hr)
CELLTYPE	SELECTOR	1	&Cell Type
WORKINGCONNECTION	SELECTOR	0	&Working Lead
MAXDISCHARGETIME	VARIABLEANDUNITS	1.00000E+002	s	1.00000E+002	second(s)	Max &Discharge Time
DISCHARGEMODE	MULTIPARAM	0	4.00000E-004	&Discharge Mode	Constant Current	Amp(s)
SAMPLETIME	QUANT	1.00000E-002	Sa&mple Period (s)
DISCHARGESTOPAT1	MULTIPARAM	3	0.00000E+000	Discharge Stop At &1	Voltage < Limit	V
DISCHARGESTOPAT2	MULTIPARAM	0	0.00000E+000	Discharge Stop At &2	None	N/A
AESBHCSELECTOR	TOGGLE	F	Save Both Half Cells
IRCOMP	TOGGLE	F	IR &Measure
EOC	QUANT	0	Open Circuit (V)
SEQUENCER	TOGGLE	TRUE	Run as Sequence
PSTATMODEL	IQUANT	53	Pstat Model
PSTATSECTION	LABEL	IFC5000-01520	Pstat Section
PSTATSERIALNO	LABEL	01520	Pstat Serial Number
CTRLMODE	IQUANT	0	Control Mode
ELECTROMETER	IQUANT	1	RE=0 or CS=1
IESTAB	IQUANT	0	I/E Stability
CASPEED	IQUANT	4	Control Amp Speed
CONVENTION	IQUANT	1	Current Convention
ICHRANGE	IQUANT	2	Ich Range
ICHRANGEMODE	TOGGLE	T	Ich Auto Range
ICHOFFSETENABLE	TOGGLE	F	Ich Offset Enable
ICHOFFSET	QUANT	0	Ich Offset (V)
ICHFILTER	IQUANT	1	Ich Filter
VCHRANGE	IQUANT	2	Vch Range
VCHRANGEMODE	TOGGLE	T	Vch Auto Range
VCHOFFSETENABLE	TOGGLE	F	Vch Offset Enable
VCHOFFSET	QUANT	0	Vch Offset (V)
VCHFILTER	IQUANT	1	Vch Filter
IERANGELOWERLIMIT	IQUANT	9	I/E Range Lower Limit
IERANGEMODE	TOGGLE	F	I/E AutoRange
IERANGE	IQUANT	9	I/E Range
ACHSELECT	IQUANT	1	Ach Select
ACHRANGE	IQUANT	2	Ach Range
ACHOFFSETENABLE	TOGGLE	F	Ach Offset Enable
ACHOFFSET	QUANT	0	Ach Offset (V)
ACHFILTER	IQUANT	1	Ach Filter
CABLEID	IQUANT	14	Cable ID
DCCALDATE	LABEL	5-7-2017	DC Calibration Date
ACCALDATE	LABEL	12/3/2015	AC Calibration Date
FRAMEWORKVERSION	QUANT	7.01	Framework Version
INSTRUMENTVERSION	LABEL	4.00	Instrument Version
CURVE	TABLE	107
	Pt	T	Vf	Im	Vu	Pwr	Sig	Ach	Temp	IERange	Over
	#	s	V	A	V	W	V	V	deg C	#	bits
	0	0.013333	6.90023E-001	-3.98383E-004	0.00000E+000	-2.74893E-004	-2.40040E-001	6.90252E-001	3.57630E+000	9	...........
	1	0.026667	6.76879E-001	-3.98501E-004	0.00000E+000	-2.69737E-004	-2.40040E-001	6.77098E-001	3.57630E+000	9	...........
	2	0.04	6.65335E-001	-3.98435E-004	0.00000E+000	-2.65093E-004	-2.40040E-001	6.65560E-001	3.57630E+000	9	...........
	3	0.053333	6.54767E-001	-3.98644E-004	0.00000E+000	-2.61019E-004	-2.40040E-001	6.55003E-001	3.57630E+000	9	...........
	4	0.066667	6.44906E-001	-3.98880E-004	0.00000E+000	-2.57240E-004	-2.40040E-001	6.45119E-001	3.57630E+000	9	...........
	5	0.08	6.35448E-001	-3.98363E-004	0.00000E+000	-2.53139E-004	-2.40040E-001	6.35648E-001	3.57630E+000	9	...........
	6	0.093333	6.26317E-001	-3.98811E-004	0.00000E+000	-2.49782E-004	-2.40040E-001	6.26498E-001	3.57630E+000	9	...........
	7	0.106667	6.17392E-001	-3.98402E-004	0.00000E+000	-2.45970E-004	-2.40040E-001	6.17594E-001	3.57630E+000	9	...........
	8	0.12	6.08646E-001	-3.99601E-004	0.00000E+000	-2.43216E-004	-2.40040E-001	6.08896E-001	3.57630E+000	9	...........
	9	0.133333	6.00161E-001	-3.98195E-004	0.00000E+000	-2.38981E-004	-2.40040E-001	6.00411E-001	3.57630E+000	9	...........
	10	0.146667	5.91740E-001	-3.98568E-004	0.00000E+000	-2.35848E-004	-2.40040E-001	5.91976E-001	3.57630E+000	9	...........
	11	0.16	5.83415E-001	-3.99854E-004	0.00000E+000	-2.33281E-004	-2.40040E-001	5.83668E-001	3.57630E+000	9	...........
	12	0.173333	5.75262E-001	-3.99082E-004	0.00000E+000	-2.29577E-004	-2.40040E-001	5.75485E-001	3.57630E+000	9	...........
	13	0.186667	5.67121E-001	-3.98736E-004	0.00000E+000	-2.26132E-004	-2.40040E-001	5.67331E-001	3.57630E+000	9	...........
	14	0.2	5.59043E-001	-3.97258E-004	0.00000E+000	-2.22084E-004	-2.40040E-001	5.59260E-001	3.57630E+000	9	...........
	15	0.213333	5.51056E-001	-3.98672E-004	0.00000E+000	-2.19691E-004	-2.40040E-001	5.51262E-001	3.57630E+000	9	...........
	16	0.226667	5.43110E-001	-3.99285E-004	0.00000E+000	-2.16856E-004	-2.40040E-001	5.43342E-001	3.57630E+000	9	...........
	17	0.24	5.35195E-001	-3.98910E-004	0.00000E+000	-2.13495E-004	-2.40040E-001	5.35415E-001	3.57630E+000	9	...........
	18	0.253333	5.27405E-001	-3.97640E-004	0.00000E+000	-2.09718E-004	-2.40040E-001	5.27634E-001	3.57630E+000	9	...........
	19	0.266667	5.19625E-001	-3.98344E-004	0.00000E+000	-2.06989E-004	-2.40040E-001	5.19846E-001	3.57630E+000	9	...........
	20	0.28	5.11911E-001	-3.99168E-004	0.00000E+000	-2.04338E-004	-2.40040E-001	5.12121E-001	3.57630E+000	9	...........
	21	0.293333	5.04228E-001	-3.99212E-004	0.00000E+000	-2.01294E-004	-2.40040E-001	5.04468E-001	3.57630E+000	9	...........
	22	0.306667	4.96557E-001	-3.99485E-004	0.00000E+000	-1.98367E-004	-2.40040E-001	4.96760E-001	3.57630E+000	9	...........
	23	0.32	4.89018E-001	-3.98956E-004	0.00000E+000	-1.95097E-004	-2.40040E-001	4.89218E-001	3.57630E+000	9	...........
	24	0.333333	4.81778E-001	-3.99364E-004	0.00000E+000	-1.92405E-004	-2.40040E-001	4.81895E-001	3.57630E+000	9	...........
	25	0.346667	4.74338E-001	-4.00132E-004	0.00000E+000	-1.89797E-004	-2.40040E-001	4.74439E-001	3.57630E+000	9	...........
	26	0.36	4.66911E-001	-3.99278E-004	0.00000E+000	-1.86427E-004	-2.40040E-001	4.67007E-001	3.57630E+000	9	...........
	27	0.373333	4.59512E-001	-3.98965E-004	0.00000E+000	-1.83329E-004	-2.40040E-001	4.59609E-001	3.57630E+000	9	...........
	28	0.386667	4.52075E-001	-3.98571E-004	0.00000E+000	-1.80184E-004	-2.40040E-001	4.52165E-001	3.57630E+000	9	...........
	29	0.4	4.44774E-001	-3.98506E-004	0.00000E+000	-1.77245E-004	-2.40040E-001	4.44870E-001	3.57630E+000	9	...........
	30	0.413333	4.37500E-001	-3.98798E-004	0.00000E+000	-1.74474E-004	-2.40040E-001	4.37590E-001	3.57630E+000	9	...........
	31	0.426667	4.30282E-001	-3.98828E-004	0.00000E+000	-1.71609E-004	-2.40040E-001	4.30375E-001	3.57630E+000	9	...........
	32	0.44	4.23129E-001	-3.99727E-004	0.00000E+000	-1.69136E-004	-2.40040E-001	4.23218E-001	3.57630E+000	9	...........
	33	0.453333	4.15889E-001	-3.97466E-004	0.00000E+000	-1.65302E-004	-2.40040E-001	4.15978E-001	3.57630E+000	9	...........
	34	0.466667	4.08749E-001	-3.98711E-004	0.00000E+000	-1.62973E-004	-2.40040E-001	4.08835E-001	3.57630E+000	9	...........
	35	0.48	4.01700E-001	-3.99312E-004	0.00000E+000	-1.60403E-004	-2.40040E-001	4.01783E-001	3.57630E+000	9	...........
	36	0.493333	3.94715E-001	-3.97599E-004	0.00000E+000	-1.56938E-004	-2.40040E-001	3.94792E-001	3.57630E+000	9	...........
	37	0.506667	3.87687E-001	-3.98318E-004	0.00000E+000	-1.54422E-004	-2.40040E-001	3.87761E-001	3.57630E+000	9	...........
	38	0.52	3.80788E-001	-3.99029E-004	0.00000E+000	-1.51946E-004	-2.40040E-001	3.80857E-001	3.57630E+000	9	...........
	39	0.533333	3.73874E-001	-3.98989E-004	0.00000E+000	-1.49172E-004	-2.40040E-001	3.73949E-001	3.57630E+000	9	...........
	40	0.546667	3.66950E-001	-3.98683E-004	0.00000E+000	-1.46297E-004	-2.40040E-001	3.67025E-001	3.57630E+000	9	...........
	41	0.56	3.60197E-001	-3.98497E-004	0.00000E+000	-1.43537E-004	-2.40040E-001	3.60270E-001	3.57630E+000	9	...........
	42	0.573333	3.53414E-001	-3.98974E-004	0.00000E+000	-1.41003E-004	-2.40040E-001	3.53484E-001	3.57630E+000	9	...........
	43	0.586667	3.46693E-001	-3.99756E-004	0.00000E+000	-1.38593E-004	-2.40040E-001	3.46762E-001	3.57630E+000	9	...........
	44	0.6	3.40053E-001	-3.98715E-004	0.00000E+000	-1.35584E-004	-2.40040E-001	3.40120E-001	3.57630E+000	9	...........
	45	0.613333	3.33361E-001	-3.98645E-004	0.00000E+000	-1.32892E-004	-2.40040E-001	3.33428E-001	3.57630E+000	9	...........
	46	0.626667	3.26755E-001	-3.99452E-004	0.00000E+000	-1.30523E-004	-2.40040E-001	3.26822E-001	3.57630E+000	9	...........
	47	0.64	3.20186E-001	-3.99431E-004	0.00000E+000	-1.27892E-004	-2.40040E-001	3.20253E-001	3.57630E+000	9	...........
	48	0.653333	3.13593E-001	-3.98969E-004	0.00000E+000	-1.25114E-004	-2.40040E-001	3.13650E-001	3.57630E+000	9	...........
	49	0.666667	3.07087E-001	-3.98573E-004	0.00000E+000	-1.22396E-004	-2.40040E-001	3.07147E-001	3.57630E+000	9	...........
	50	0.68	3.00725E-001	-4.00111E-004	0.00000E+000	-1.20323E-004	-2.40040E-001	3.00781E-001	3.57630E+000	9	...........
	51	0.693333	2.94333E-001	-3.98592E-004	0.00000E+000	-1.17319E-004	-2.40040E-001	2.94385E-001	3.57630E+000	9	...........
	52	0.706667	2.87987E-001	-3.99193E-004	0.00000E+000	-1.14962E-004	-2.40040E-001	2.88044E-001	3.57630E+000	9	...........
	53	0.72	2.81694E-001	-3.98708E-004	0.00000E+000	-1.12314E-004	-2.40040E-001	2.81748E-001	3.57630E+000	9	...........
	54	0.733333	2.75438E-001	-3.98961E-004	0.00000E+000	-1.09889E-004	-2.40040E-001	2.75492E-001	3.57630E+000	9	...........
	55	0.746667	2.69165E-001	-3.99617E-004	0.00000E+000	-1.07563E-004	-2.40040E-001	2.69216E-001	3.57630E+000	9	...........
	56	0.76	2.62937E-001	-3.99032E-004	0.00000E+000	-1.04921E-004	-2.40040E-001	2.62993E-001	3.57630E+000	9	...........
	57	0.773333	2.56864E-001	-3.99239E-004	0.00000E+000	-1.02550E-004	-2.40040E-001	2.56915E-001	3.57630E+000	9	...........
	58	0.786667	2.50810E-001	-3.99362E-004	0.00000E+000	-1.00164E-004	-2.40040E-001	2.50866E-001	3.57630E+000	9	...........
	59	0.8	2.44734E-001	-3.98197E-004	0.00000E+000	-9.74521E-005	-2.40040E-001	2.44782E-001	3.57630E+000	9	...........
	60	0.813333	2.38661E-001	-3.98034E-004	0.00000E+000	-9.49953E-005	-2.40040E-001	2.38709E-001	3.57630E+000	9	...........
	61	0.826667	2.32718E-001	-3.99046E-004	0.00000E+000	-9.28650E-005	-2.40040E-001	2.32760E-001	3.57630E+000	9	...........
	62	0.84	2.26793E-001	-3.99164E-004	0.00000E+000	-9.05277E-005	-2.40040E-001	2.26839E-001	3.57630E+000	9	...........
	63	0.853333	2.20907E-001	-3.99471E-004	0.00000E+000	-8.82458E-005	-2.40040E-001	2.20950E-001	3.57630E+000	9	...........
	64	0.866667	2.15108E-001	-3.98699E-004	0.00000E+000	-8.57631E-005	-2.40040E-001	2.15148E-001	3.57630E+000	9	...........
	65	0.88	2.09156E-001	-3.97341E-004	0.00000E+000	-8.31063E-005	-2.40040E-001	2.09190E-001	3.57630E+000	9	...........
	66	0.893333	2.03379E-001	-3.99237E-004	0.00000E+000	-8.11964E-005	-2.40040E-001	2.03419E-001	3.57735E+000	9	...........
	67	0.906667	1.97550E-001	-3.98636E-004	0.00000E+000	-7.87508E-005	-2.40040E-001	1.97580E-001	3.57770E+000	9	...........
	68	0.92	1.91827E-001	-3.99152E-004	0.00000E+000	-7.65683E-005	-2.40040E-001	1.91864E-001	3.57770E+000	9	...........
	69	0.933333	1.86249E-001	-3.98124E-004	0.00000E+000	-7.41501E-005	-2.40040E-001	1.86280E-001	3.57770E+000	9	...........
	70	0.946667	1.80704E-001	-3.98783E-004	0.00000E+000	-7.20616E-005	-2.40040E-001	1.80740E-001	3.57770E+000	9	...........
	71	0.96	1.75175E-001	-3.98736E-004	0.00000E+000	-6.98486E-005	-2.40040E-001	1.75204E-001	3.57770E+000	9	...........
	72	0.97333	1.69552E-001	-3.98694E-004	0.00000E+000	-6.75993E-005	-2.40040E-001	1.69584E-001	3.57770E+000	9	...........
	73	0.98667	1.64061E-001	-3.98105E-004	0.00000E+000	-6.53137E-005	-2.40040E-001	1.64086E-001	3.57770E+000	9	...........
	74	1	1.58585E-001	-3.99017E-004	0.00000E+000	-6.32781E-005	-2.40040E-001	1.58615E-001	3.57770E+000	9	...........
	75	1.01333	1.53085E-001	-3.98286E-004	0.00000E+000	-6.09717E-005	-2.40040E-001	1.53110E-001	3.57770E+000	9	...........
	76	1.02667	1.47649E-001	-3.99558E-004	0.00000E+000	-5.89943E-005	-2.40040E-001	1.47672E-001	3.57770E+000	9	...........
	77	1.04	1.42320E-001	-3.98984E-004	0.00000E+000	-5.67834E-005	-2.40040E-001	1.42343E-001	3.57770E+000	9	...........
	78	1.05333	1.37025E-001	-3.97365E-004	0.00000E+000	-5.44491E-005	-2.40040E-001	1.37049E-001	3.57770E+000	9	...........
	79	1.06667	1.31775E-001	-3.99773E-004	0.00000E+000	-5.26800E-005	-2.40040E-001	1.31797E-001	3.57770E+000	9	...........
	80	1.08	1.26538E-001	-3.99317E-004	0.00000E+000	-5.05288E-005	-2.40040E-001	1.26560E-001	3.57770E+000	9	...........
	81	1.09333	1.21321E-001	-3.98911E-004	0.00000E+000	-4.83964E-005	-2.40040E-001	1.21345E-001	3.57770E+000	9	...........
	82	1.10667	1.16131E-001	-3.99717E-004	0.00000E+000	-4.64196E-005	-2.40040E-001	1.16152E-001	3.57770E+000	9	...........
	83	1.12	1.11040E-001	-3.98449E-004	0.00000E+000	-4.42438E-005	-2.40040E-001	1.11057E-001	3.57770E+000	9	...........
	84	1.13333	1.05880E-001	-3.99603E-004	0.00000E+000	-4.23101E-005	-2.40040E-001	1.05896E-001	3.57770E+000	9	...........
	85	1.14667	1.00690E-001	-3.98998E-004	0.00000E+000	-4.01750E-005	-2.40040E-001	1.00713E-001	3.57770E+000	9	...........
	86	1.16	9.56100E-002	-3.98198E-004	0.00000E+000	-3.80717E-005	-2.40040E-001	9.56279E-002	3.57770E+000	9	...........
	87	1.17333	9.05655E-002	-3.98563E-004	0.00000E+000	-3.60961E-005	-2.40040E-001	9.05830E-002	3.57770E+000	9	...........
	88	1.18667	8.55950E-002	-3.97688E-004	0.00000E+000	-3.40401E-005	-2.40040E-001	8.56073E-002	3.57770E+000	9	...........
	89	1.2	8.05544E-002	-3.98395E-004	0.00000E+000	-3.20924E-005	-2.40040E-001	8.05643E-002	3.57770E+000	9	...........
	90	1.21333	7.56203E-002	-3.99112E-004	0.00000E+000	-3.01809E-005	-2.40040E-001	7.56265E-002	3.57770E+000	9	...........
	91	1.22667	7.07047E-002	-3.98994E-004	0.00000E+000	-2.82107E-005	-2.40040E-001	7.07062E-002	3.57770E+000	9	...........
	92	1.24	6.57938E-002	-3.99235E-004	0.00000E+000	-2.62672E-005	-2.40040E-001	6.57998E-002	3.57770E+000	9	...........
	93	1.25333	6.09620E-002	-3.98825E-004	0.00000E+000	-2.43132E-005	-2.40040E-001	6.09653E-002	3.57770E+000	9	...........
	94	1.26667	5.61625E-002	-3.98280E-004	0.00000E+000	-2.23684E-005	-2.40040E-001	5.61657E-002	3.57770E+000	9	...........
	95	1.28	5.13071E-002	-3.98579E-004	0.00000E+000	-2.04500E-005	-2.40040E-001	5.13087E-002	3.57770E+000	9	...........
	96	1.29333	4.64734E-002	-3.99007E-004	0.00000E+000	-1.85432E-005	-2.40040E-001	4.64735E-002	3.57770E+000	9	...........
	97	1.30667	4.16632E-002	-3.98620E-004	0.00000E+000	-1.66078E-005	-2.40040E-001	4.16698E-002	3.57770E+000	9	...........
	98	1.32	3.69089E-002	-3.98684E-004	0.00000E+000	-1.47150E-005	-2.40040E-001	3.69075E-002	3.57770E+000	9	...........
	99	1.33333	3.22719E-002	-3.98465E-004	0.00000E+000	-1.28592E-005	-2.40040E-001	3.22725E-002	3.57770E+000	9	...........
	100	1.34667	2.76032E-002	-3.97969E-004	0.00000E+000	-1.09852E-005	-2.40040E-001	2.75962E-002	3.57770E+000	9	...........
	101	1.36	2.29581E-002	-3.99291E-004	0.00000E+000	-9.16697E-006	-2.40040E-001	2.29516E-002	3.57770E+000	9	...........
	102	1.37333	1.83513E-002	-3.99326E-004	0.00000E+000	-7.32813E-006	-2.40040E-001	1.83358E-002	3.57770E+000	9	...........
	103	1.38667	1.37713E-002	-3.98700E-004	0.00000E+000	-5.49060E-006	-2.40040E-001	1.37612E-002	3.57770E+000	9	...........
	104	1.4	9.26439E-003	-3.97448E-004	0.00000E+000	-3.68211E-006	-2.40040E-001	9.25052E-003	3.57770E+000	9	...........
	105	1.41333	4.73809E-003	-3.99845E-004	0.00000E+000	-1.89450E-006	-2.40040E-001	4.71603E-003	3.57770E+000	9	...........
	106	1.42167	1.06178E-003	-3.99560E-004	0.00000E+000	-4.24243E-007	-2.40040E-001	1.04191E-003	3.57770E+000	9	...........
STARTTIMEOFFSET	QUANT	2237.529	Start Time Offset (s)
