EXPLAIN
TAG	PWR800_DISCHARGE
TITLE	LABEL	PWR Cyclic Charge Discharge (Cell) - Discharge Step	Test &Identifier
DATE	LABEL	12-7-2017	Date
TIME	LABEL	14:21:53	Time
NOTES	NOTES	3	&Notes...
	supercap test cell
	0.4mg
	6M KOH
PSTAT	PSTAT	IFC5000-01520	Potentiostat
CAPACITY	QUANT	1.00000E-003	Capacity (A-hr)
CELLTYPE	SELECTOR	1	&Cell Type
WORKINGCONNECTION	SELECTOR	0	&Working Lead
MAXDISCHARGETIME	VARIABLEANDUNITS	1.00000E+002	s	1.00000E+002	second(s)	Max &Discharge Time
DISCHARGEMODE	MULTIPARAM	0	4.00000E-004	&Discharge Mode	Constant Current	Amp(s)
SAMPLETIME	QUANT	1.00000E-002	Sa&mple Period (s)
DISCHARGESTOPAT1	MULTIPARAM	3	0.00000E+000	Discharge Stop At &1	Voltage < Limit	V
DISCHARGESTOPAT2	MULTIPARAM	0	0.00000E+000	Discharge Stop At &2	None	N/A
AESBHCSELECTOR	TOGGLE	F	Save Both Half Cells
IRCOMP	TOGGLE	F	IR &Measure
EOC	QUANT	0	Open Circuit (V)
SEQUENCER	TOGGLE	TRUE	Run as Sequence
PSTATMODEL	IQUANT	53	Pstat Model
PSTATSECTION	LABEL	IFC5000-01520	Pstat Section
PSTATSERIALNO	LABEL	01520	Pstat Serial Number
CTRLMODE	IQUANT	0	Control Mode
ELECTROMETER	IQUANT	1	RE=0 or CS=1
IESTAB	IQUANT	0	I/E Stability
CASPEED	IQUANT	4	Control Amp Speed
CONVENTION	IQUANT	1	Current Convention
ICHRANGE	IQUANT	2	Ich Range
ICHRANGEMODE	TOGGLE	T	Ich Auto Range
ICHOFFSETENABLE	TOGGLE	F	Ich Offset Enable
ICHOFFSET	QUANT	0	Ich Offset (V)
ICHFILTER	IQUANT	1	Ich Filter
VCHRANGE	IQUANT	2	Vch Range
VCHRANGEMODE	TOGGLE	T	Vch Auto Range
VCHOFFSETENABLE	TOGGLE	F	Vch Offset Enable
VCHOFFSET	QUANT	0	Vch Offset (V)
VCHFILTER	IQUANT	1	Vch Filter
IERANGELOWERLIMIT	IQUANT	9	I/E Range Lower Limit
IERANGEMODE	TOGGLE	F	I/E AutoRange
IERANGE	IQUANT	9	I/E Range
ACHSELECT	IQUANT	1	Ach Select
ACHRANGE	IQUANT	2	Ach Range
ACHOFFSETENABLE	TOGGLE	F	Ach Offset Enable
ACHOFFSET	QUANT	0	Ach Offset (V)
ACHFILTER	IQUANT	1	Ach Filter
CABLEID	IQUANT	14	Cable ID
DCCALDATE	LABEL	5-7-2017	DC Calibration Date
ACCALDATE	LABEL	12/3/2015	AC Calibration Date
FRAMEWORKVERSION	QUANT	7.01	Framework Version
INSTRUMENTVERSION	LABEL	4.00	Instrument Version
CURVE	TABLE	136
	Pt	T	Vf	Im	Vu	Pwr	Sig	Ach	Temp	IERange	Over
	#	s	V	A	V	W	V	V	deg C	#	bits
	0	0.013333	7.20424E-001	-3.98799E-004	0.00000E+000	-2.87304E-004	-2.40040E-001	7.20634E-001	3.57580E+000	9	...........
	1	0.026667	7.09848E-001	-3.99049E-004	0.00000E+000	-2.83264E-004	-2.40040E-001	7.10094E-001	3.57580E+000	9	...........
	2	0.04	7.00544E-001	-4.00171E-004	0.00000E+000	-2.80337E-004	-2.40040E-001	7.00767E-001	3.57580E+000	9	...........
	3	0.053333	6.91890E-001	-3.99025E-004	0.00000E+000	-2.76081E-004	-2.40040E-001	6.92120E-001	3.57580E+000	9	...........
	4	0.066667	6.83787E-001	-3.99520E-004	0.00000E+000	-2.73186E-004	-2.40040E-001	6.83985E-001	3.57580E+000	9	...........
	5	0.08	6.75901E-001	-3.99327E-004	0.00000E+000	-2.69906E-004	-2.40040E-001	6.76118E-001	3.57580E+000	9	...........
	6	0.093333	6.68302E-001	-3.98003E-004	0.00000E+000	-2.65986E-004	-2.40040E-001	6.68503E-001	3.57580E+000	9	...........
	7	0.106667	6.60846E-001	-4.00257E-004	0.00000E+000	-2.64508E-004	-2.40040E-001	6.61043E-001	3.57580E+000	9	...........
	8	0.12	6.53608E-001	-3.98208E-004	0.00000E+000	-2.60272E-004	-2.40040E-001	6.53794E-001	3.57580E+000	9	...........
	9	0.133333	6.46455E-001	-4.00030E-004	0.00000E+000	-2.58602E-004	-2.40040E-001	6.46671E-001	3.57580E+000	9	...........
	10	0.146667	6.39415E-001	-3.98757E-004	0.00000E+000	-2.54971E-004	-2.40040E-001	6.39649E-001	3.57580E+000	9	...........
	11	0.16	6.32446E-001	-3.98879E-004	0.00000E+000	-2.52270E-004	-2.40040E-001	6.32656E-001	3.57580E+000	9	...........
	12	0.173333	6.25543E-001	-3.99159E-004	0.00000E+000	-2.49691E-004	-2.40040E-001	6.25751E-001	3.57580E+000	9	...........
	13	0.186667	6.18730E-001	-3.99452E-004	0.00000E+000	-2.47153E-004	-2.40040E-001	6.18909E-001	3.57580E+000	9	...........
	14	0.2	6.11970E-001	-3.99182E-004	0.00000E+000	-2.44288E-004	-2.40040E-001	6.12180E-001	3.57580E+000	9	...........
	15	0.213333	6.05229E-001	-3.99156E-004	0.00000E+000	-2.41581E-004	-2.40040E-001	6.05456E-001	3.57580E+000	9	...........
	16	0.226667	5.98640E-001	-3.99430E-004	0.00000E+000	-2.39115E-004	-2.40040E-001	5.98840E-001	3.57580E+000	9	...........
	17	0.24	5.92126E-001	-3.98361E-004	0.00000E+000	-2.35880E-004	-2.40040E-001	5.92343E-001	3.57580E+000	9	...........
	18	0.253333	5.85597E-001	-3.97750E-004	0.00000E+000	-2.32921E-004	-2.40040E-001	5.85821E-001	3.57580E+000	9	...........
	19	0.266667	5.79148E-001	-3.99077E-004	0.00000E+000	-2.31125E-004	-2.40040E-001	5.79356E-001	3.57580E+000	9	...........
	20	0.28	5.72729E-001	-3.98680E-004	0.00000E+000	-2.28336E-004	-2.40040E-001	5.72930E-001	3.57580E+000	9	...........
	21	0.293333	5.66383E-001	-3.98790E-004	0.00000E+000	-2.25868E-004	-2.40040E-001	5.66576E-001	3.57580E+000	9	...........
	22	0.306667	5.59966E-001	-3.98836E-004	0.00000E+000	-2.23335E-004	-2.40040E-001	5.60202E-001	3.57580E+000	9	...........
	23	0.32	5.53672E-001	-3.98645E-004	0.00000E+000	-2.20719E-004	-2.40040E-001	5.53884E-001	3.57580E+000	9	...........
	24	0.333333	5.47366E-001	-3.98097E-004	0.00000E+000	-2.17905E-004	-2.40040E-001	5.47552E-001	3.57580E+000	9	...........
	25	0.346667	5.41049E-001	-3.99493E-004	0.00000E+000	-2.16145E-004	-2.40040E-001	5.41260E-001	3.57580E+000	9	...........
	26	0.36	5.34774E-001	-3.98568E-004	0.00000E+000	-2.13144E-004	-2.40040E-001	5.34994E-001	3.57580E+000	9	...........
	27	0.373333	5.28579E-001	-3.98774E-004	0.00000E+000	-2.10784E-004	-2.40040E-001	5.28820E-001	3.57580E+000	9	...........
	28	0.386667	5.22443E-001	-3.99345E-004	0.00000E+000	-2.08635E-004	-2.40040E-001	5.22632E-001	3.57580E+000	9	...........
	29	0.4	5.16272E-001	-3.99035E-004	0.00000E+000	-2.06011E-004	-2.40040E-001	5.16477E-001	3.57580E+000	9	...........
	30	0.413333	5.10149E-001	-3.99144E-004	0.00000E+000	-2.03623E-004	-2.40040E-001	5.10376E-001	3.57580E+000	9	...........
	31	0.426667	5.04003E-001	-3.98105E-004	0.00000E+000	-2.00646E-004	-2.40040E-001	5.04243E-001	3.57580E+000	9	...........
	32	0.44	4.98003E-001	-3.98221E-004	0.00000E+000	-1.98315E-004	-2.40040E-001	4.98233E-001	3.57580E+000	9	...........
	33	0.453333	4.91987E-001	-3.99997E-004	0.00000E+000	-1.96793E-004	-2.40040E-001	4.92183E-001	3.57580E+000	9	...........
	34	0.466667	4.86131E-001	-3.98286E-004	0.00000E+000	-1.93619E-004	-2.40040E-001	4.86304E-001	3.57580E+000	9	...........
	35	0.48	4.80342E-001	-3.98050E-004	0.00000E+000	-1.91200E-004	-2.40040E-001	4.80440E-001	3.57580E+000	9	...........
	36	0.493333	4.74462E-001	-3.97774E-004	0.00000E+000	-1.88729E-004	-2.40040E-001	4.74552E-001	3.57580E+000	9	...........
	37	0.506667	4.68572E-001	-3.98150E-004	0.00000E+000	-1.86562E-004	-2.40040E-001	4.68664E-001	3.57580E+000	9	...........
	38	0.52	4.62754E-001	-3.97992E-004	0.00000E+000	-1.84172E-004	-2.40040E-001	4.62848E-001	3.57580E+000	9	...........
	39	0.533333	4.56906E-001	-3.98127E-004	0.00000E+000	-1.81907E-004	-2.40040E-001	4.56993E-001	3.57580E+000	9	...........
	40	0.546667	4.51005E-001	-3.98666E-004	0.00000E+000	-1.79800E-004	-2.40040E-001	4.51098E-001	3.57580E+000	9	...........
	41	0.56	4.45155E-001	-3.98283E-004	0.00000E+000	-1.77298E-004	-2.40040E-001	4.45250E-001	3.57580E+000	9	...........
	42	0.573333	4.39382E-001	-3.97711E-004	0.00000E+000	-1.74747E-004	-2.40040E-001	4.39470E-001	3.57580E+000	9	...........
	43	0.586667	4.33658E-001	-3.99312E-004	0.00000E+000	-1.73165E-004	-2.40040E-001	4.33749E-001	3.57580E+000	9	...........
	44	0.6	4.27974E-001	-3.98465E-004	0.00000E+000	-1.70533E-004	-2.40040E-001	4.28060E-001	3.57580E+000	9	...........
	45	0.613333	4.22263E-001	-3.98593E-004	0.00000E+000	-1.68311E-004	-2.40040E-001	4.22353E-001	3.57715E+000	9	...........
	46	0.626667	4.16618E-001	-3.98665E-004	0.00000E+000	-1.66091E-004	-2.40040E-001	4.16704E-001	3.57850E+000	9	...........
	47	0.64	4.10977E-001	-3.98146E-004	0.00000E+000	-1.63629E-004	-2.40040E-001	4.11056E-001	3.57850E+000	9	...........
	48	0.653333	4.05369E-001	-3.98479E-004	0.00000E+000	-1.61531E-004	-2.40040E-001	4.05443E-001	3.57850E+000	9	...........
	49	0.666667	3.99799E-001	-3.98567E-004	0.00000E+000	-1.59347E-004	-2.40040E-001	3.99873E-001	3.57850E+000	9	...........
	50	0.68	3.94228E-001	-3.99953E-004	0.00000E+000	-1.57673E-004	-2.40040E-001	3.94297E-001	3.57850E+000	9	...........
	51	0.693333	3.88725E-001	-3.98608E-004	0.00000E+000	-1.54949E-004	-2.40040E-001	3.88791E-001	3.57850E+000	9	...........
	52	0.706667	3.83230E-001	-3.98094E-004	0.00000E+000	-1.52561E-004	-2.40040E-001	3.83298E-001	3.57850E+000	9	...........
	53	0.72	3.77779E-001	-3.99152E-004	0.00000E+000	-1.50791E-004	-2.40040E-001	3.77849E-001	3.57850E+000	9	...........
	54	0.733333	3.72375E-001	-3.98119E-004	0.00000E+000	-1.48249E-004	-2.40040E-001	3.72447E-001	3.57850E+000	9	...........
	55	0.746667	3.66999E-001	-3.98215E-004	0.00000E+000	-1.46145E-004	-2.40040E-001	3.67064E-001	3.57850E+000	9	...........
	56	0.76	3.61487E-001	-3.98477E-004	0.00000E+000	-1.44044E-004	-2.40040E-001	3.61552E-001	3.57850E+000	9	...........
	57	0.773333	3.56075E-001	-4.00193E-004	0.00000E+000	-1.42499E-004	-2.40040E-001	3.56137E-001	3.57850E+000	9	...........
	58	0.786667	3.50814E-001	-3.99336E-004	0.00000E+000	-1.40093E-004	-2.40040E-001	3.50881E-001	3.57850E+000	9	...........
	59	0.8	3.45557E-001	-4.00210E-004	0.00000E+000	-1.38295E-004	-2.40040E-001	3.45624E-001	3.57850E+000	9	...........
	60	0.813333	3.40212E-001	-3.99548E-004	0.00000E+000	-1.35931E-004	-2.40040E-001	3.40279E-001	3.57850E+000	9	...........
	61	0.826667	3.34862E-001	-3.98817E-004	0.00000E+000	-1.33548E-004	-2.40040E-001	3.34924E-001	3.57850E+000	9	...........
	62	0.84	3.29707E-001	-3.99056E-004	0.00000E+000	-1.31572E-004	-2.40040E-001	3.29765E-001	3.57850E+000	9	...........
	63	0.853333	3.24416E-001	-3.97959E-004	0.00000E+000	-1.29104E-004	-2.40040E-001	3.24478E-001	3.57850E+000	9	...........
	64	0.866667	3.19174E-001	-3.99429E-004	0.00000E+000	-1.27488E-004	-2.40040E-001	3.19234E-001	3.57850E+000	9	...........
	65	0.88	3.14023E-001	-3.99137E-004	0.00000E+000	-1.25338E-004	-2.40040E-001	3.14084E-001	3.57850E+000	9	...........
	66	0.893333	3.08881E-001	-3.99066E-004	0.00000E+000	-1.23264E-004	-2.40040E-001	3.08946E-001	3.57850E+000	9	...........
	67	0.906667	3.03718E-001	-3.97099E-004	0.00000E+000	-1.20606E-004	-2.40040E-001	3.03771E-001	3.57850E+000	9	...........
	68	0.92	2.98553E-001	-3.98414E-004	0.00000E+000	-1.18948E-004	-2.40040E-001	2.98615E-001	3.57850E+000	9	...........
	69	0.933333	2.93529E-001	-4.00057E-004	0.00000E+000	-1.17428E-004	-2.40040E-001	2.93587E-001	3.57850E+000	9	...........
	70	0.946667	2.88499E-001	-3.98306E-004	0.00000E+000	-1.14911E-004	-2.40040E-001	2.88557E-001	3.57850E+000	9	...........
	71	0.96	2.83340E-001	-3.98325E-004	0.00000E+000	-1.12861E-004	-2.40040E-001	2.83397E-001	3.57850E+000	9	...........
	72	0.97333	2.78335E-001	-3.97293E-004	0.00000E+000	-1.10581E-004	-2.40040E-001	2.78389E-001	3.57850E+000	9	...........
	73	0.98667	2.73274E-001	-3.99094E-004	0.00000E+000	-1.09062E-004	-2.40040E-001	2.73327E-001	3.57850E+000	9	...........
	74	1	2.68331E-001	-3.98522E-004	0.00000E+000	-1.06936E-004	-2.40040E-001	2.68385E-001	3.57850E+000	9	...........
	75	1.01333	2.63388E-001	-3.98374E-004	0.00000E+000	-1.04927E-004	-2.40040E-001	2.63439E-001	3.57850E+000	9	...........
	76	1.02667	2.58417E-001	-3.99462E-004	0.00000E+000	-1.03228E-004	-2.40040E-001	2.58464E-001	3.57850E+000	9	...........
	77	1.04	2.53445E-001	-3.98061E-004	0.00000E+000	-1.00887E-004	-2.40040E-001	2.53492E-001	3.57850E+000	9	...........
	78	1.05333	2.48661E-001	-3.98655E-004	0.00000E+000	-9.91299E-005	-2.40040E-001	2.48710E-001	3.57850E+000	9	...........
	79	1.06667	2.43851E-001	-3.99328E-004	0.00000E+000	-9.73766E-005	-2.40040E-001	2.43897E-001	3.57850E+000	9	...........
	80	1.08	2.39032E-001	-3.98355E-004	0.00000E+000	-9.52196E-005	-2.40040E-001	2.39080E-001	3.57850E+000	9	...........
	81	1.09333	2.34128E-001	-3.98388E-004	0.00000E+000	-9.32737E-005	-2.40040E-001	2.34169E-001	3.57850E+000	9	...........
	82	1.10667	2.29356E-001	-3.98914E-004	0.00000E+000	-9.14931E-005	-2.40040E-001	2.29393E-001	3.57850E+000	9	...........
	83	1.12	2.24612E-001	-3.98134E-004	0.00000E+000	-8.94256E-005	-2.40040E-001	2.24649E-001	3.57850E+000	9	...........
	84	1.13333	2.19802E-001	-3.99547E-004	0.00000E+000	-8.78214E-005	-2.40040E-001	2.19848E-001	3.57850E+000	9	...........
	85	1.14667	2.15115E-001	-3.97772E-004	0.00000E+000	-8.55665E-005	-2.40040E-001	2.15156E-001	3.57850E+000	9	...........
	86	1.16	2.10405E-001	-3.99771E-004	0.00000E+000	-8.41136E-005	-2.40040E-001	2.10445E-001	3.57850E+000	9	...........
	87	1.17333	2.05649E-001	-3.97491E-004	0.00000E+000	-8.17435E-005	-2.40040E-001	2.05683E-001	3.57850E+000	9	...........
	88	1.18667	2.00962E-001	-3.97357E-004	0.00000E+000	-7.98536E-005	-2.40040E-001	2.00999E-001	3.57850E+000	9	...........
	89	1.2	1.96336E-001	-3.99087E-004	0.00000E+000	-7.83552E-005	-2.40040E-001	1.96366E-001	3.57850E+000	9	...........
	90	1.21333	1.91692E-001	-3.98904E-004	0.00000E+000	-7.64668E-005	-2.40040E-001	1.91732E-001	3.57850E+000	9	...........
	91	1.22667	1.87034E-001	-3.99567E-004	0.00000E+000	-7.47327E-005	-2.40040E-001	1.87065E-001	3.57850E+000	9	...........
	92	1.24	1.82411E-001	-3.99732E-004	0.00000E+000	-7.29157E-005	-2.40040E-001	1.82453E-001	3.57850E+000	9	...........
	93	1.25333	1.77871E-001	-3.97660E-004	0.00000E+000	-7.07321E-005	-2.40040E-001	1.77904E-001	3.57850E+000	9	...........
	94	1.26667	1.73298E-001	-3.98236E-004	0.00000E+000	-6.90137E-005	-2.40040E-001	1.73336E-001	3.57850E+000	9	...........
	95	1.28	1.68664E-001	-3.99353E-004	0.00000E+000	-6.73566E-005	-2.40040E-001	1.68702E-001	3.57850E+000	9	...........
	96	1.29333	1.64188E-001	-3.98432E-004	0.00000E+000	-6.54176E-005	-2.40040E-001	1.64213E-001	3.57850E+000	9	...........
	97	1.30667	1.59600E-001	-3.99088E-004	0.00000E+000	-6.36943E-005	-2.40040E-001	1.59629E-001	3.57850E+000	9	...........
	98	1.32	1.55063E-001	-3.99735E-004	0.00000E+000	-6.19839E-005	-2.40040E-001	1.55088E-001	3.57850E+000	9	...........
	99	1.33333	1.50577E-001	-3.99090E-004	0.00000E+000	-6.00938E-005	-2.40040E-001	1.50600E-001	3.57850E+000	9	...........
	100	1.34667	1.46115E-001	-3.99656E-004	0.00000E+000	-5.83957E-005	-2.40040E-001	1.46139E-001	3.57850E+000	9	...........
	101	1.36	1.41716E-001	-3.98506E-004	0.00000E+000	-5.64747E-005	-2.40040E-001	1.41737E-001	3.57850E+000	9	...........
	102	1.37333	1.37306E-001	-3.98561E-004	0.00000E+000	-5.47248E-005	-2.40040E-001	1.37329E-001	3.57850E+000	9	...........
	103	1.38667	1.32883E-001	-3.98235E-004	0.00000E+000	-5.29185E-005	-2.40040E-001	1.32908E-001	3.57850E+000	9	...........
	104	1.4	1.28530E-001	-4.00207E-004	0.00000E+000	-5.14384E-005	-2.40040E-001	1.28552E-001	3.57850E+000	9	...........
	105	1.41333	1.24115E-001	-3.98817E-004	0.00000E+000	-4.94991E-005	-2.40040E-001	1.24140E-001	3.57850E+000	9	...........
	106	1.42667	1.19699E-001	-3.98996E-004	0.00000E+000	-4.77596E-005	-2.40040E-001	1.19724E-001	3.57850E+000	9	...........
	107	1.44	1.15393E-001	-3.97885E-004	0.00000E+000	-4.59131E-005	-2.40040E-001	1.15411E-001	3.57850E+000	9	...........
	108	1.45333	1.11122E-001	-3.97965E-004	0.00000E+000	-4.42227E-005	-2.40040E-001	1.11144E-001	3.57850E+000	9	...........
	109	1.46667	1.06793E-001	-3.99369E-004	0.00000E+000	-4.26497E-005	-2.40040E-001	1.06814E-001	3.57850E+000	9	...........
	110	1.48	1.02511E-001	-3.99528E-004	0.00000E+000	-4.09560E-005	-2.40040E-001	1.02532E-001	3.57850E+000	9	...........
	111	1.49333	9.82897E-002	-3.98569E-004	0.00000E+000	-3.91752E-005	-2.40040E-001	9.83156E-002	3.57850E+000	9	...........
	112	1.50667	9.40391E-002	-3.99169E-004	0.00000E+000	-3.75375E-005	-2.40040E-001	9.40549E-002	3.57850E+000	9	...........
	113	1.52	8.98396E-002	-3.99924E-004	0.00000E+000	-3.59290E-005	-2.40040E-001	8.98638E-002	3.57850E+000	9	...........
	114	1.53333	8.56489E-002	-3.99259E-004	0.00000E+000	-3.41961E-005	-2.40040E-001	8.56656E-002	3.57850E+000	9	...........
	115	1.54667	8.14605E-002	-3.99205E-004	0.00000E+000	-3.25195E-005	-2.40040E-001	8.14796E-002	3.57850E+000	9	...........
	116	1.56	7.71609E-002	-3.98127E-004	0.00000E+000	-3.07198E-005	-2.40040E-001	7.71671E-002	3.57850E+000	9	...........
	117	1.57333	7.29525E-002	-3.96152E-004	0.00000E+000	-2.89002E-005	-2.40040E-001	7.29700E-002	3.57850E+000	9	...........
	118	1.58667	6.88840E-002	-3.98638E-004	0.00000E+000	-2.74598E-005	-2.40040E-001	6.88929E-002	3.57850E+000	9	...........
	119	1.6	6.47152E-002	-3.98749E-004	0.00000E+000	-2.58051E-005	-2.40040E-001	6.47238E-002	3.57850E+000	9	...........
	120	1.61333	6.05681E-002	-3.98250E-004	0.00000E+000	-2.41213E-005	-2.40040E-001	6.05774E-002	3.57760E+000	9	...........
	121	1.62667	5.64207E-002	-3.97872E-004	0.00000E+000	-2.24482E-005	-2.40040E-001	5.64307E-002	3.57670E+000	9	...........
	122	1.64	5.23812E-002	-3.99106E-004	0.00000E+000	-2.09057E-005	-2.40040E-001	5.23941E-002	3.57670E+000	9	...........
	123	1.65333	4.83029E-002	-3.98433E-004	0.00000E+000	-1.92455E-005	-2.40040E-001	4.83153E-002	3.57670E+000	9	...........
	124	1.66667	4.43247E-002	-4.00896E-004	0.00000E+000	-1.77696E-005	-2.40040E-001	4.43351E-002	3.57670E+000	9	...........
	125	1.68	4.04119E-002	-3.99421E-004	0.00000E+000	-1.61414E-005	-2.40040E-001	4.04171E-002	3.57670E+000	9	...........
	126	1.69333	3.63904E-002	-3.99276E-004	0.00000E+000	-1.45298E-005	-2.40040E-001	3.63975E-002	3.57670E+000	9	...........
	127	1.70667	3.23402E-002	-3.98631E-004	0.00000E+000	-1.28918E-005	-2.40040E-001	3.23391E-002	3.57670E+000	9	...........
	128	1.72	2.83008E-002	-3.98412E-004	0.00000E+000	-1.12754E-005	-2.40040E-001	2.83039E-002	3.57670E+000	9	...........
	129	1.73333	2.43165E-002	-3.98839E-004	0.00000E+000	-9.69834E-006	-2.40040E-001	2.43175E-002	3.57670E+000	9	...........
	130	1.74667	2.02746E-002	-3.99060E-004	0.00000E+000	-8.09079E-006	-2.40040E-001	2.02728E-002	3.57670E+000	9	...........
	131	1.76	1.63369E-002	-3.98031E-004	0.00000E+000	-6.50260E-006	-2.40040E-001	1.63274E-002	3.57670E+000	9	...........
	132	1.77333	1.24224E-002	-3.97916E-004	0.00000E+000	-4.94306E-006	-2.40040E-001	1.24112E-002	3.57670E+000	9	...........
	133	1.78667	8.48978E-003	-3.99843E-004	0.00000E+000	-3.39458E-006	-2.40040E-001	8.47980E-003	3.57670E+000	9	...........
	134	1.8	4.65832E-003	-3.98255E-004	0.00000E+000	-1.85520E-006	-2.40040E-001	4.64512E-003	3.57670E+000	9	...........
	135	1.81167	1.09183E-003	-3.98806E-004	0.00000E+000	-4.35427E-007	-2.40040E-001	1.07460E-003	3.57670E+000	9	...........
STARTTIMEOFFSET	QUANT	156.2083	Start Time Offset (s)
