EXPLAIN
TAG	PWR800_DISCHARGE
TITLE	LABEL	PWR Cyclic Charge Discharge (Cell) - Discharge Step	Test &Identifier
DATE	LABEL	12-7-2017	Date
TIME	LABEL	15:03:40	Time
NOTES	NOTES	3	&Notes...
	supercap test cell
	0.4mg
	6M KOH
PSTAT	PSTAT	IFC5000-01520	Potentiostat
CAPACITY	QUANT	1.00000E-003	Capacity (A-hr)
CELLTYPE	SELECTOR	1	&Cell Type
WORKINGCONNECTION	SELECTOR	0	&Working Lead
MAXDISCHARGETIME	VARIABLEANDUNITS	1.00000E+002	s	1.00000E+002	second(s)	Max &Discharge Time
DISCHARGEMODE	MULTIPARAM	0	4.00000E-004	&Discharge Mode	Constant Current	Amp(s)
SAMPLETIME	QUANT	1.00000E-002	Sa&mple Period (s)
DISCHARGESTOPAT1	MULTIPARAM	3	0.00000E+000	Discharge Stop At &1	Voltage < Limit	V
DISCHARGESTOPAT2	MULTIPARAM	0	0.00000E+000	Discharge Stop At &2	None	N/A
AESBHCSELECTOR	TOGGLE	F	Save Both Half Cells
IRCOMP	TOGGLE	F	IR &Measure
EOC	QUANT	0	Open Circuit (V)
SEQUENCER	TOGGLE	TRUE	Run as Sequence
PSTATMODEL	IQUANT	53	Pstat Model
PSTATSECTION	LABEL	IFC5000-01520	Pstat Section
PSTATSERIALNO	LABEL	01520	Pstat Serial Number
CTRLMODE	IQUANT	0	Control Mode
ELECTROMETER	IQUANT	1	RE=0 or CS=1
IESTAB	IQUANT	0	I/E Stability
CASPEED	IQUANT	4	Control Amp Speed
CONVENTION	IQUANT	1	Current Convention
ICHRANGE	IQUANT	2	Ich Range
ICHRANGEMODE	TOGGLE	T	Ich Auto Range
ICHOFFSETENABLE	TOGGLE	F	Ich Offset Enable
ICHOFFSET	QUANT	0	Ich Offset (V)
ICHFILTER	IQUANT	1	Ich Filter
VCHRANGE	IQUANT	2	Vch Range
VCHRANGEMODE	TOGGLE	T	Vch Auto Range
VCHOFFSETENABLE	TOGGLE	F	Vch Offset Enable
VCHOFFSET	QUANT	0	Vch Offset (V)
VCHFILTER	IQUANT	1	Vch Filter
IERANGELOWERLIMIT	IQUANT	9	I/E Range Lower Limit
IERANGEMODE	TOGGLE	F	I/E AutoRange
IERANGE	IQUANT	9	I/E Range
ACHSELECT	IQUANT	1	Ach Select
ACHRANGE	IQUANT	2	Ach Range
ACHOFFSETENABLE	TOGGLE	F	Ach Offset Enable
ACHOFFSET	QUANT	0	Ach Offset (V)
ACHFILTER	IQUANT	1	Ach Filter
CABLEID	IQUANT	14	Cable ID
DCCALDATE	LABEL	5-7-2017	DC Calibration Date
ACCALDATE	LABEL	12/3/2015	AC Calibration Date
FRAMEWORKVERSION	QUANT	7.01	Framework Version
INSTRUMENTVERSION	LABEL	4.00	Instrument Version
CURVE	TABLE	108
	Pt	T	Vf	Im	Vu	Pwr	Sig	Ach	Temp	IERange	Over
	#	s	V	A	V	W	V	V	deg C	#	bits
	0	0.013333	6.91424E-001	-3.99352E-004	0.00000E+000	-2.76122E-004	-2.40040E-001	6.91643E-001	3.57680E+000	9	...........
	1	0.026667	6.78322E-001	-4.00059E-004	0.00000E+000	-2.71369E-004	-2.40040E-001	6.78533E-001	3.57680E+000	9	...........
	2	0.04	6.66889E-001	-3.97945E-004	0.00000E+000	-2.65385E-004	-2.40040E-001	6.67118E-001	3.57680E+000	9	...........
	3	0.053333	6.56366E-001	-3.99090E-004	0.00000E+000	-2.61949E-004	-2.40040E-001	6.56588E-001	3.57680E+000	9	...........
	4	0.066667	6.46518E-001	-3.99235E-004	0.00000E+000	-2.58113E-004	-2.40040E-001	6.46741E-001	3.57680E+000	9	...........
	5	0.08	6.37082E-001	-3.99095E-004	0.00000E+000	-2.54256E-004	-2.40040E-001	6.37308E-001	3.57680E+000	9	...........
	6	0.093333	6.27945E-001	-3.98284E-004	0.00000E+000	-2.50101E-004	-2.40040E-001	6.28177E-001	3.57680E+000	9	...........
	7	0.106667	6.19083E-001	-3.98456E-004	0.00000E+000	-2.46677E-004	-2.40040E-001	6.19314E-001	3.57680E+000	9	...........
	8	0.12	6.10343E-001	-3.98476E-004	0.00000E+000	-2.43207E-004	-2.40040E-001	6.10621E-001	3.57680E+000	9	...........
	9	0.133333	6.01850E-001	-3.97887E-004	0.00000E+000	-2.39469E-004	-2.40040E-001	6.02122E-001	3.57680E+000	9	...........
	10	0.146667	5.93491E-001	-3.98719E-004	0.00000E+000	-2.36636E-004	-2.40040E-001	5.93743E-001	3.57680E+000	9	...........
	11	0.16	5.85269E-001	-3.98659E-004	0.00000E+000	-2.33323E-004	-2.40040E-001	5.85528E-001	3.57680E+000	9	...........
	12	0.173333	5.77155E-001	-3.99206E-004	0.00000E+000	-2.30404E-004	-2.40040E-001	5.77426E-001	3.57680E+000	9	...........
	13	0.186667	5.69178E-001	-3.98318E-004	0.00000E+000	-2.26714E-004	-2.40040E-001	5.69398E-001	3.57680E+000	9	...........
	14	0.2	5.61161E-001	-3.99163E-004	0.00000E+000	-2.23995E-004	-2.40040E-001	5.61401E-001	3.57680E+000	9	...........
	15	0.213333	5.53147E-001	-3.99191E-004	0.00000E+000	-2.20811E-004	-2.40040E-001	5.53400E-001	3.57680E+000	9	...........
	16	0.226667	5.45240E-001	-3.98347E-004	0.00000E+000	-2.17195E-004	-2.40040E-001	5.45471E-001	3.57680E+000	9	...........
	17	0.24	5.37405E-001	-3.99504E-004	0.00000E+000	-2.14696E-004	-2.40040E-001	5.37630E-001	3.57680E+000	9	...........
	18	0.253333	5.29588E-001	-3.98914E-004	0.00000E+000	-2.11260E-004	-2.40040E-001	5.29809E-001	3.57680E+000	9	...........
	19	0.266667	5.21870E-001	-3.98666E-004	0.00000E+000	-2.08052E-004	-2.40040E-001	5.22060E-001	3.57680E+000	9	...........
	20	0.28	5.14220E-001	-3.98758E-004	0.00000E+000	-2.05050E-004	-2.40040E-001	5.14385E-001	3.57680E+000	9	...........
	21	0.293333	5.06629E-001	-3.99611E-004	0.00000E+000	-2.02454E-004	-2.40040E-001	5.06860E-001	3.57680E+000	9	...........
	22	0.306667	4.99141E-001	-3.98673E-004	0.00000E+000	-1.98994E-004	-2.40040E-001	4.99360E-001	3.57680E+000	9	...........
	23	0.32	4.91709E-001	-3.99792E-004	0.00000E+000	-1.96581E-004	-2.40040E-001	4.91899E-001	3.57680E+000	9	...........
	24	0.333333	4.84408E-001	-3.98963E-004	0.00000E+000	-1.93261E-004	-2.40040E-001	4.84559E-001	3.57680E+000	9	...........
	25	0.346667	4.77021E-001	-3.99431E-004	0.00000E+000	-1.90537E-004	-2.40040E-001	4.77118E-001	3.57680E+000	9	...........
	26	0.36	4.69536E-001	-3.98715E-004	0.00000E+000	-1.87211E-004	-2.40040E-001	4.69633E-001	3.57680E+000	9	...........
	27	0.373333	4.62165E-001	-3.97290E-004	0.00000E+000	-1.83614E-004	-2.40040E-001	4.62259E-001	3.57680E+000	9	...........
	28	0.386667	4.54820E-001	-3.99229E-004	0.00000E+000	-1.81577E-004	-2.40040E-001	4.54909E-001	3.57680E+000	9	...........
	29	0.4	4.47586E-001	-3.99220E-004	0.00000E+000	-1.78685E-004	-2.40040E-001	4.47681E-001	3.57655E+000	9	...........
	30	0.413333	4.40382E-001	-3.99692E-004	0.00000E+000	-1.76017E-004	-2.40040E-001	4.40477E-001	3.57630E+000	9	...........
	31	0.426667	4.33175E-001	-3.98644E-004	0.00000E+000	-1.72683E-004	-2.40040E-001	4.33270E-001	3.57630E+000	9	...........
	32	0.44	4.25965E-001	-3.99036E-004	0.00000E+000	-1.69976E-004	-2.40040E-001	4.26057E-001	3.57630E+000	9	...........
	33	0.453333	4.18836E-001	-3.98967E-004	0.00000E+000	-1.67102E-004	-2.40040E-001	4.18926E-001	3.57630E+000	9	...........
	34	0.466667	4.11760E-001	-3.98843E-004	0.00000E+000	-1.64228E-004	-2.40040E-001	4.11842E-001	3.57630E+000	9	...........
	35	0.48	4.04713E-001	-3.98629E-004	0.00000E+000	-1.61330E-004	-2.40040E-001	4.04792E-001	3.57630E+000	9	...........
	36	0.493333	3.97758E-001	-3.97616E-004	0.00000E+000	-1.58155E-004	-2.40040E-001	3.97834E-001	3.57630E+000	9	...........
	37	0.506667	3.90799E-001	-3.98875E-004	0.00000E+000	-1.55880E-004	-2.40040E-001	3.90869E-001	3.57630E+000	9	...........
	38	0.52	3.83856E-001	-4.00093E-004	0.00000E+000	-1.53578E-004	-2.40040E-001	3.83928E-001	3.57630E+000	9	...........
	39	0.533333	3.76999E-001	-3.99388E-004	0.00000E+000	-1.50569E-004	-2.40040E-001	3.77071E-001	3.57630E+000	9	...........
	40	0.546667	3.70134E-001	-3.98947E-004	0.00000E+000	-1.47664E-004	-2.40040E-001	3.70207E-001	3.57630E+000	9	...........
	41	0.56	3.63300E-001	-3.98033E-004	0.00000E+000	-1.44605E-004	-2.40040E-001	3.63370E-001	3.57630E+000	9	...........
	42	0.573333	3.56551E-001	-3.99271E-004	0.00000E+000	-1.42361E-004	-2.40040E-001	3.56624E-001	3.57630E+000	9	...........
	43	0.586667	3.49787E-001	-3.98629E-004	0.00000E+000	-1.39435E-004	-2.40040E-001	3.49854E-001	3.57630E+000	9	...........
	44	0.6	3.43135E-001	-3.99844E-004	0.00000E+000	-1.37200E-004	-2.40040E-001	3.43201E-001	3.57630E+000	9	...........
	45	0.613333	3.36531E-001	-3.98438E-004	0.00000E+000	-1.34087E-004	-2.40040E-001	3.36592E-001	3.57630E+000	9	...........
	46	0.626667	3.29963E-001	-4.00025E-004	0.00000E+000	-1.31994E-004	-2.40040E-001	3.30023E-001	3.57630E+000	9	...........
	47	0.64	3.23391E-001	-3.97770E-004	0.00000E+000	-1.28635E-004	-2.40040E-001	3.23455E-001	3.57630E+000	9	...........
	48	0.653333	3.16870E-001	-3.97701E-004	0.00000E+000	-1.26020E-004	-2.40040E-001	3.16934E-001	3.57630E+000	9	...........
	49	0.666667	3.10401E-001	-3.99404E-004	0.00000E+000	-1.23976E-004	-2.40040E-001	3.10462E-001	3.57630E+000	9	...........
	50	0.68	3.03952E-001	-3.98599E-004	0.00000E+000	-1.21155E-004	-2.40040E-001	3.04008E-001	3.57630E+000	9	...........
	51	0.693333	2.97655E-001	-3.98465E-004	0.00000E+000	-1.18605E-004	-2.40040E-001	2.97714E-001	3.57630E+000	9	...........
	52	0.706667	2.91394E-001	-3.99115E-004	0.00000E+000	-1.16299E-004	-2.40040E-001	2.91453E-001	3.57630E+000	9	...........
	53	0.72	2.85028E-001	-3.99640E-004	0.00000E+000	-1.13908E-004	-2.40040E-001	2.85084E-001	3.57630E+000	9	...........
	54	0.733333	2.78803E-001	-3.99170E-004	0.00000E+000	-1.11290E-004	-2.40040E-001	2.78858E-001	3.57630E+000	9	...........
	55	0.746667	2.72569E-001	-3.98803E-004	0.00000E+000	-1.08701E-004	-2.40040E-001	2.72629E-001	3.57630E+000	9	...........
	56	0.76	2.66398E-001	-3.98422E-004	0.00000E+000	-1.06139E-004	-2.40040E-001	2.66450E-001	3.57630E+000	9	...........
	57	0.773333	2.60296E-001	-3.98954E-004	0.00000E+000	-1.03846E-004	-2.40040E-001	2.60348E-001	3.57630E+000	9	...........
	58	0.786667	2.54181E-001	-3.98898E-004	0.00000E+000	-1.01392E-004	-2.40040E-001	2.54235E-001	3.57630E+000	9	...........
	59	0.8	2.48128E-001	-3.97969E-004	0.00000E+000	-9.87473E-005	-2.40040E-001	2.48183E-001	3.57630E+000	9	...........
	60	0.813333	2.42048E-001	-3.99394E-004	0.00000E+000	-9.66724E-005	-2.40040E-001	2.42091E-001	3.57630E+000	9	...........
	61	0.826667	2.36033E-001	-3.98215E-004	0.00000E+000	-9.39920E-005	-2.40040E-001	2.36079E-001	3.57630E+000	9	...........
	62	0.84	2.30136E-001	-3.97870E-004	0.00000E+000	-9.15642E-005	-2.40040E-001	2.30176E-001	3.57630E+000	9	...........
	63	0.853333	2.24210E-001	-3.97541E-004	0.00000E+000	-8.91327E-005	-2.40040E-001	2.24247E-001	3.57630E+000	9	...........
	64	0.866667	2.18410E-001	-3.99685E-004	0.00000E+000	-8.72949E-005	-2.40040E-001	2.18447E-001	3.57630E+000	9	...........
	65	0.88	2.12486E-001	-3.97737E-004	0.00000E+000	-8.45137E-005	-2.40040E-001	2.12522E-001	3.57630E+000	9	...........
	66	0.893333	2.06722E-001	-3.99632E-004	0.00000E+000	-8.26128E-005	-2.40040E-001	2.06755E-001	3.57630E+000	9	...........
	67	0.906667	2.00972E-001	-3.98689E-004	0.00000E+000	-8.01252E-005	-2.40040E-001	2.01012E-001	3.57630E+000	9	...........
	68	0.92	1.95281E-001	-3.96463E-004	0.00000E+000	-7.74218E-005	-2.40040E-001	1.95319E-001	3.57630E+000	9	...........
	69	0.933333	1.89678E-001	-3.99072E-004	0.00000E+000	-7.56953E-005	-2.40040E-001	1.89713E-001	3.57630E+000	9	...........
	70	0.946667	1.84021E-001	-3.98573E-004	0.00000E+000	-7.33457E-005	-2.40040E-001	1.84057E-001	3.57630E+000	9	...........
	71	0.96	1.78354E-001	-3.98854E-004	0.00000E+000	-7.11372E-005	-2.40040E-001	1.78388E-001	3.57630E+000	9	...........
	72	0.97333	1.72803E-001	-3.98246E-004	0.00000E+000	-6.88180E-005	-2.40040E-001	1.72837E-001	3.57630E+000	9	...........
	73	0.98667	1.67202E-001	-3.99003E-004	0.00000E+000	-6.67142E-005	-2.40040E-001	1.67230E-001	3.57630E+000	9	...........
	74	1	1.61763E-001	-3.99762E-004	0.00000E+000	-6.46667E-005	-2.40040E-001	1.61787E-001	3.57630E+000	9	...........
	75	1.01333	1.56384E-001	-3.98945E-004	0.00000E+000	-6.23885E-005	-2.40040E-001	1.56419E-001	3.57630E+000	9	...........
	76	1.02667	1.50984E-001	-3.98352E-004	0.00000E+000	-6.01448E-005	-2.40040E-001	1.51015E-001	3.57630E+000	9	...........
	77	1.04	1.45689E-001	-3.98587E-004	0.00000E+000	-5.80698E-005	-2.40040E-001	1.45709E-001	3.57630E+000	9	...........
	78	1.05333	1.40390E-001	-3.99521E-004	0.00000E+000	-5.60888E-005	-2.40040E-001	1.40409E-001	3.57630E+000	9	...........
	79	1.06667	1.35077E-001	-3.99165E-004	0.00000E+000	-5.39181E-005	-2.40040E-001	1.35104E-001	3.57630E+000	9	...........
	80	1.08	1.29850E-001	-3.99019E-004	0.00000E+000	-5.18126E-005	-2.40040E-001	1.29871E-001	3.57630E+000	9	...........
	81	1.09333	1.24645E-001	-3.98824E-004	0.00000E+000	-4.97112E-005	-2.40040E-001	1.24663E-001	3.57630E+000	9	...........
	82	1.10667	1.19330E-001	-3.97642E-004	0.00000E+000	-4.74509E-005	-2.40040E-001	1.19351E-001	3.57630E+000	9	...........
	83	1.12	1.14146E-001	-3.99478E-004	0.00000E+000	-4.55987E-005	-2.40040E-001	1.14165E-001	3.57630E+000	9	...........
	84	1.13333	1.08993E-001	-3.99353E-004	0.00000E+000	-4.35265E-005	-2.40040E-001	1.09017E-001	3.57630E+000	9	...........
	85	1.14667	1.03839E-001	-3.98952E-004	0.00000E+000	-4.14268E-005	-2.40040E-001	1.03858E-001	3.57630E+000	9	...........
	86	1.16	9.87843E-002	-3.98927E-004	0.00000E+000	-3.94077E-005	-2.40040E-001	9.88032E-002	3.57630E+000	9	...........
	87	1.17333	9.38336E-002	-3.98733E-004	0.00000E+000	-3.74146E-005	-2.40040E-001	9.38461E-002	3.57630E+000	9	...........
	88	1.18667	8.87914E-002	-3.98532E-004	0.00000E+000	-3.53862E-005	-2.40040E-001	8.88120E-002	3.57630E+000	9	...........
	89	1.2	8.38266E-002	-3.98810E-004	0.00000E+000	-3.34309E-005	-2.40040E-001	8.38420E-002	3.57630E+000	9	...........
	90	1.21333	7.88785E-002	-3.99302E-004	0.00000E+000	-3.14964E-005	-2.40040E-001	7.88899E-002	3.57630E+000	9	...........
	91	1.22667	7.38971E-002	-3.98618E-004	0.00000E+000	-2.94567E-005	-2.40040E-001	7.39113E-002	3.57630E+000	9	...........
	92	1.24	6.89827E-002	-3.99131E-004	0.00000E+000	-2.75332E-005	-2.40040E-001	6.89854E-002	3.57630E+000	9	...........
	93	1.25333	6.41977E-002	-3.98831E-004	0.00000E+000	-2.56041E-005	-2.40040E-001	6.41958E-002	3.57630E+000	9	...........
	94	1.26667	5.93419E-002	-3.98833E-004	0.00000E+000	-2.36675E-005	-2.40040E-001	5.93494E-002	3.57630E+000	9	...........
	95	1.28	5.45729E-002	-3.98287E-004	0.00000E+000	-2.17357E-005	-2.40040E-001	5.45741E-002	3.57630E+000	9	...........
	96	1.29333	4.98435E-002	-3.97916E-004	0.00000E+000	-1.98336E-005	-2.40040E-001	4.98475E-002	3.57630E+000	9	...........
	97	1.30667	4.51103E-002	-3.96917E-004	0.00000E+000	-1.79051E-005	-2.40040E-001	4.51154E-002	3.57630E+000	9	...........
	98	1.32	4.03887E-002	-3.99248E-004	0.00000E+000	-1.61251E-005	-2.40040E-001	4.03911E-002	3.57630E+000	9	...........
	99	1.33333	3.56357E-002	-3.98494E-004	0.00000E+000	-1.42006E-005	-2.40040E-001	3.56388E-002	3.57630E+000	9	...........
	100	1.34667	3.09642E-002	-3.99138E-004	0.00000E+000	-1.23590E-005	-2.40040E-001	3.09629E-002	3.57630E+000	9	...........
	101	1.36	2.62937E-002	-3.98597E-004	0.00000E+000	-1.04806E-005	-2.40040E-001	2.62907E-002	3.57630E+000	9	...........
	102	1.37333	2.16808E-002	-4.00418E-004	0.00000E+000	-8.68137E-006	-2.40040E-001	2.16720E-002	3.57630E+000	9	...........
	103	1.38667	1.70323E-002	-3.98530E-004	0.00000E+000	-6.78790E-006	-2.40040E-001	1.70259E-002	3.57630E+000	9	...........
	104	1.4	1.23986E-002	-3.98908E-004	0.00000E+000	-4.94592E-006	-2.40040E-001	1.23825E-002	3.57655E+000	9	...........
	105	1.41333	7.90328E-003	-3.98819E-004	0.00000E+000	-3.15197E-006	-2.40040E-001	7.88909E-003	3.57680E+000	9	...........
	106	1.42667	3.41947E-003	-3.98551E-004	0.00000E+000	-1.36283E-006	-2.40040E-001	3.40230E-003	3.57680E+000	9	...........
	107	1.43167	3.12477E-004	-3.97667E-004	0.00000E+000	-1.24262E-007	-2.40040E-001	2.88622E-004	3.57680E+000	9	...........
STARTTIMEOFFSET	QUANT	2144.435	Start Time Offset (s)
