EXPLAIN
TAG	PWR800_DISCHARGE
TITLE	LABEL	PWR Cyclic Charge Discharge (Cell) - Discharge Step	Test &Identifier
DATE	LABEL	12-7-2017	Date
TIME	LABEL	14:43:44	Time
NOTES	NOTES	3	&Notes...
	supercap test cell
	0.4mg
	6M KOH
PSTAT	PSTAT	IFC5000-01520	Potentiostat
CAPACITY	QUANT	1.00000E-003	Capacity (A-hr)
CELLTYPE	SELECTOR	1	&Cell Type
WORKINGCONNECTION	SELECTOR	0	&Working Lead
MAXDISCHARGETIME	VARIABLEANDUNITS	1.00000E+002	s	1.00000E+002	second(s)	Max &Discharge Time
DISCHARGEMODE	MULTIPARAM	0	4.00000E-004	&Discharge Mode	Constant Current	Amp(s)
SAMPLETIME	QUANT	1.00000E-002	Sa&mple Period (s)
DISCHARGESTOPAT1	MULTIPARAM	3	0.00000E+000	Discharge Stop At &1	Voltage < Limit	V
DISCHARGESTOPAT2	MULTIPARAM	0	0.00000E+000	Discharge Stop At &2	None	N/A
AESBHCSELECTOR	TOGGLE	F	Save Both Half Cells
IRCOMP	TOGGLE	F	IR &Measure
EOC	QUANT	0	Open Circuit (V)
SEQUENCER	TOGGLE	TRUE	Run as Sequence
PSTATMODEL	IQUANT	53	Pstat Model
PSTATSECTION	LABEL	IFC5000-01520	Pstat Section
PSTATSERIALNO	LABEL	01520	Pstat Serial Number
CTRLMODE	IQUANT	0	Control Mode
ELECTROMETER	IQUANT	1	RE=0 or CS=1
IESTAB	IQUANT	0	I/E Stability
CASPEED	IQUANT	4	Control Amp Speed
CONVENTION	IQUANT	1	Current Convention
ICHRANGE	IQUANT	2	Ich Range
ICHRANGEMODE	TOGGLE	T	Ich Auto Range
ICHOFFSETENABLE	TOGGLE	F	Ich Offset Enable
ICHOFFSET	QUANT	0	Ich Offset (V)
ICHFILTER	IQUANT	1	Ich Filter
VCHRANGE	IQUANT	2	Vch Range
VCHRANGEMODE	TOGGLE	T	Vch Auto Range
VCHOFFSETENABLE	TOGGLE	F	Vch Offset Enable
VCHOFFSET	QUANT	0	Vch Offset (V)
VCHFILTER	IQUANT	1	Vch Filter
IERANGELOWERLIMIT	IQUANT	9	I/E Range Lower Limit
IERANGEMODE	TOGGLE	F	I/E AutoRange
IERANGE	IQUANT	9	I/E Range
ACHSELECT	IQUANT	1	Ach Select
ACHRANGE	IQUANT	2	Ach Range
ACHOFFSETENABLE	TOGGLE	F	Ach Offset Enable
ACHOFFSET	QUANT	0	Ach Offset (V)
ACHFILTER	IQUANT	1	Ach Filter
CABLEID	IQUANT	14	Cable ID
DCCALDATE	LABEL	5-7-2017	DC Calibration Date
ACCALDATE	LABEL	12/3/2015	AC Calibration Date
FRAMEWORKVERSION	QUANT	7.01	Framework Version
INSTRUMENTVERSION	LABEL	4.00	Instrument Version
CURVE	TABLE	117
	Pt	T	Vf	Im	Vu	Pwr	Sig	Ach	Temp	IERange	Over
	#	s	V	A	V	W	V	V	deg C	#	bits
	0	0.013333	7.06012E-001	-3.97922E-004	0.00000E+000	-2.80938E-004	-2.40040E-001	7.06257E-001	3.57660E+000	9	...........
	1	0.026667	6.93950E-001	-3.98798E-004	0.00000E+000	-2.76746E-004	-2.40040E-001	6.94174E-001	3.57660E+000	9	...........
	2	0.04	6.83269E-001	-3.98826E-004	0.00000E+000	-2.72505E-004	-2.40040E-001	6.83504E-001	3.57660E+000	9	...........
	3	0.053333	6.73505E-001	-4.00447E-004	0.00000E+000	-2.69703E-004	-2.40040E-001	6.73740E-001	3.57660E+000	9	...........
	4	0.066667	6.64278E-001	-3.98762E-004	0.00000E+000	-2.64889E-004	-2.40040E-001	6.64532E-001	3.57660E+000	9	...........
	5	0.08	6.55410E-001	-3.98105E-004	0.00000E+000	-2.60922E-004	-2.40040E-001	6.55639E-001	3.57660E+000	9	...........
	6	0.093333	6.46909E-001	-3.99602E-004	0.00000E+000	-2.58506E-004	-2.40040E-001	6.47136E-001	3.57660E+000	9	...........
	7	0.106667	6.38497E-001	-3.99146E-004	0.00000E+000	-2.54854E-004	-2.40040E-001	6.38736E-001	3.57660E+000	9	...........
	8	0.12	6.30243E-001	-4.00060E-004	0.00000E+000	-2.52135E-004	-2.40040E-001	6.30494E-001	3.57660E+000	9	...........
	9	0.133333	6.22160E-001	-3.99018E-004	0.00000E+000	-2.48253E-004	-2.40040E-001	6.22367E-001	3.57660E+000	9	...........
	10	0.146667	6.14186E-001	-3.98467E-004	0.00000E+000	-2.44733E-004	-2.40040E-001	6.14411E-001	3.57660E+000	9	...........
	11	0.16	6.06282E-001	-4.00122E-004	0.00000E+000	-2.42587E-004	-2.40040E-001	6.06542E-001	3.57660E+000	9	...........
	12	0.173333	5.98581E-001	-3.99144E-004	0.00000E+000	-2.38920E-004	-2.40040E-001	5.98816E-001	3.57660E+000	9	...........
	13	0.186667	5.90891E-001	-3.98131E-004	0.00000E+000	-2.35252E-004	-2.40040E-001	5.91135E-001	3.57660E+000	9	...........
	14	0.2	5.83223E-001	-3.98350E-004	0.00000E+000	-2.32327E-004	-2.40040E-001	5.83448E-001	3.57660E+000	9	...........
	15	0.213333	5.75649E-001	-3.99192E-004	0.00000E+000	-2.29794E-004	-2.40040E-001	5.75880E-001	3.57660E+000	9	...........
	16	0.226667	5.68128E-001	-3.98347E-004	0.00000E+000	-2.26312E-004	-2.40040E-001	5.68335E-001	3.57660E+000	9	...........
	17	0.24	5.60664E-001	-3.99846E-004	0.00000E+000	-2.24179E-004	-2.40040E-001	5.60892E-001	3.57660E+000	9	...........
	18	0.253333	5.53278E-001	-3.98251E-004	0.00000E+000	-2.20344E-004	-2.40040E-001	5.53490E-001	3.57660E+000	9	...........
	19	0.266667	5.45893E-001	-3.99363E-004	0.00000E+000	-2.18009E-004	-2.40040E-001	5.46097E-001	3.57660E+000	9	...........
	20	0.28	5.38637E-001	-3.98426E-004	0.00000E+000	-2.14607E-004	-2.40040E-001	5.38837E-001	3.57660E+000	9	...........
	21	0.293333	5.31412E-001	-3.99282E-004	0.00000E+000	-2.12183E-004	-2.40040E-001	5.31621E-001	3.57660E+000	9	...........
	22	0.306667	5.24286E-001	-3.99123E-004	0.00000E+000	-2.09255E-004	-2.40040E-001	5.24492E-001	3.57660E+000	9	...........
	23	0.32	5.17025E-001	-3.99469E-004	0.00000E+000	-2.06535E-004	-2.40040E-001	5.17241E-001	3.57660E+000	9	...........
	24	0.333333	5.09810E-001	-3.99572E-004	0.00000E+000	-2.03706E-004	-2.40040E-001	5.10036E-001	3.57660E+000	9	...........
	25	0.346667	5.02710E-001	-3.99558E-004	0.00000E+000	-2.00862E-004	-2.40040E-001	5.02921E-001	3.57660E+000	9	...........
	26	0.36	4.95705E-001	-3.98275E-004	0.00000E+000	-1.97427E-004	-2.40040E-001	4.95925E-001	3.57660E+000	9	...........
	27	0.373333	4.88665E-001	-3.98740E-004	0.00000E+000	-1.94850E-004	-2.40040E-001	4.88878E-001	3.57660E+000	9	...........
	28	0.386667	4.81915E-001	-3.97655E-004	0.00000E+000	-1.91636E-004	-2.40040E-001	4.82033E-001	3.57660E+000	9	...........
	29	0.4	4.75016E-001	-3.98873E-004	0.00000E+000	-1.89471E-004	-2.40040E-001	4.75117E-001	3.57660E+000	9	...........
	30	0.413333	4.68126E-001	-3.99039E-004	0.00000E+000	-1.86800E-004	-2.40040E-001	4.68221E-001	3.57660E+000	9	...........
	31	0.426667	4.61261E-001	-3.98084E-004	0.00000E+000	-1.83621E-004	-2.40040E-001	4.61352E-001	3.57660E+000	9	...........
	32	0.44	4.54450E-001	-3.99264E-004	0.00000E+000	-1.81445E-004	-2.40040E-001	4.54545E-001	3.57660E+000	9	...........
	33	0.453333	4.47694E-001	-3.98711E-004	0.00000E+000	-1.78501E-004	-2.40040E-001	4.47791E-001	3.57660E+000	9	...........
	34	0.466667	4.40994E-001	-3.99120E-004	0.00000E+000	-1.76009E-004	-2.40040E-001	4.41084E-001	3.57660E+000	9	...........
	35	0.48	4.34244E-001	-3.98771E-004	0.00000E+000	-1.73164E-004	-2.40040E-001	4.34335E-001	3.57660E+000	9	...........
	36	0.493333	4.27578E-001	-3.98737E-004	0.00000E+000	-1.70491E-004	-2.40040E-001	4.27664E-001	3.57660E+000	9	...........
	37	0.506667	4.20969E-001	-3.98508E-004	0.00000E+000	-1.67760E-004	-2.40040E-001	4.21053E-001	3.57660E+000	9	...........
	38	0.52	4.14366E-001	-3.98897E-004	0.00000E+000	-1.65289E-004	-2.40040E-001	4.14449E-001	3.57660E+000	9	...........
	39	0.533333	4.07832E-001	-3.99743E-004	0.00000E+000	-1.63028E-004	-2.40040E-001	4.07913E-001	3.57660E+000	9	...........
	40	0.546667	4.01354E-001	-3.97882E-004	0.00000E+000	-1.59692E-004	-2.40040E-001	4.01429E-001	3.57660E+000	9	...........
	41	0.56	3.94829E-001	-3.99401E-004	0.00000E+000	-1.57695E-004	-2.40040E-001	3.94903E-001	3.57660E+000	9	...........
	42	0.573333	3.88365E-001	-3.98006E-004	0.00000E+000	-1.54572E-004	-2.40040E-001	3.88440E-001	3.57660E+000	9	...........
	43	0.586667	3.81953E-001	-3.98295E-004	0.00000E+000	-1.52130E-004	-2.40040E-001	3.82027E-001	3.57660E+000	9	...........
	44	0.6	3.75609E-001	-3.98876E-004	0.00000E+000	-1.49821E-004	-2.40040E-001	3.75686E-001	3.57660E+000	9	...........
	45	0.613333	3.69335E-001	-3.98395E-004	0.00000E+000	-1.47141E-004	-2.40040E-001	3.69408E-001	3.57660E+000	9	...........
	46	0.626667	3.63016E-001	-3.98926E-004	0.00000E+000	-1.44816E-004	-2.40040E-001	3.63089E-001	3.57660E+000	9	...........
	47	0.64	3.56718E-001	-3.98936E-004	0.00000E+000	-1.42308E-004	-2.40040E-001	3.56790E-001	3.57660E+000	9	...........
	48	0.653333	3.50465E-001	-3.99471E-004	0.00000E+000	-1.40001E-004	-2.40040E-001	3.50534E-001	3.57660E+000	9	...........
	49	0.666667	3.44252E-001	-3.99595E-004	0.00000E+000	-1.37561E-004	-2.40040E-001	3.44320E-001	3.57660E+000	9	...........
	50	0.68	3.38072E-001	-3.98481E-004	0.00000E+000	-1.34715E-004	-2.40040E-001	3.38141E-001	3.57660E+000	9	...........
	51	0.693333	3.31969E-001	-3.99281E-004	0.00000E+000	-1.32549E-004	-2.40040E-001	3.32026E-001	3.57660E+000	9	...........
	52	0.706667	3.25893E-001	-3.98896E-004	0.00000E+000	-1.29997E-004	-2.40040E-001	3.25956E-001	3.57660E+000	9	...........
	53	0.72	3.19796E-001	-3.98428E-004	0.00000E+000	-1.27416E-004	-2.40040E-001	3.19857E-001	3.57660E+000	9	...........
	54	0.733333	3.13813E-001	-3.97934E-004	0.00000E+000	-1.24877E-004	-2.40040E-001	3.13874E-001	3.57660E+000	9	...........
	55	0.746667	3.07866E-001	-3.99903E-004	0.00000E+000	-1.23117E-004	-2.40040E-001	3.07931E-001	3.57660E+000	9	...........
	56	0.76	3.01924E-001	-3.99501E-004	0.00000E+000	-1.20619E-004	-2.40040E-001	3.01985E-001	3.57660E+000	9	...........
	57	0.773333	2.96030E-001	-3.99505E-004	0.00000E+000	-1.18265E-004	-2.40040E-001	2.96089E-001	3.57660E+000	9	...........
	58	0.786667	2.90193E-001	-3.97753E-004	0.00000E+000	-1.15425E-004	-2.40040E-001	2.90255E-001	3.57660E+000	9	...........
	59	0.8	2.84301E-001	-3.99062E-004	0.00000E+000	-1.13454E-004	-2.40040E-001	2.84362E-001	3.57660E+000	9	...........
	60	0.813333	2.78509E-001	-3.98681E-004	0.00000E+000	-1.11036E-004	-2.40040E-001	2.78571E-001	3.57660E+000	9	...........
	61	0.826667	2.72751E-001	-3.98004E-004	0.00000E+000	-1.08556E-004	-2.40040E-001	2.72813E-001	3.57660E+000	9	...........
	62	0.84	2.67017E-001	-3.99109E-004	0.00000E+000	-1.06569E-004	-2.40040E-001	2.67074E-001	3.57660E+000	9	...........
	63	0.853333	2.61315E-001	-3.98234E-004	0.00000E+000	-1.04065E-004	-2.40040E-001	2.61368E-001	3.57660E+000	9	...........
	64	0.866667	2.55567E-001	-3.98686E-004	0.00000E+000	-1.01891E-004	-2.40040E-001	2.55622E-001	3.57660E+000	9	...........
	65	0.88	2.49948E-001	-3.98690E-004	0.00000E+000	-9.96516E-005	-2.40040E-001	2.50006E-001	3.57660E+000	9	...........
	66	0.893333	2.44332E-001	-3.97716E-004	0.00000E+000	-9.71748E-005	-2.40040E-001	2.44378E-001	3.57660E+000	9	...........
	67	0.906667	2.38805E-001	-3.99323E-004	0.00000E+000	-9.53603E-005	-2.40040E-001	2.38848E-001	3.57660E+000	9	...........
	68	0.92	2.33306E-001	-3.98210E-004	0.00000E+000	-9.29047E-005	-2.40040E-001	2.33353E-001	3.57660E+000	9	...........
	69	0.933333	2.27832E-001	-3.99124E-004	0.00000E+000	-9.09331E-005	-2.40040E-001	2.27879E-001	3.57660E+000	9	...........
	70	0.946667	2.22379E-001	-4.00006E-004	0.00000E+000	-8.89532E-005	-2.40040E-001	2.22431E-001	3.57660E+000	9	...........
	71	0.96	2.16909E-001	-3.98506E-004	0.00000E+000	-8.64394E-005	-2.40040E-001	2.16952E-001	3.57660E+000	9	...........
	72	0.97333	2.11492E-001	-3.97838E-004	0.00000E+000	-8.41396E-005	-2.40040E-001	2.11535E-001	3.57660E+000	9	...........
	73	0.98667	2.06105E-001	-3.99906E-004	0.00000E+000	-8.24226E-005	-2.40040E-001	2.06149E-001	3.57660E+000	9	...........
	74	1	2.00805E-001	-3.99170E-004	0.00000E+000	-8.01552E-005	-2.40040E-001	2.00847E-001	3.57675E+000	9	...........
	75	1.01333	1.95519E-001	-3.99463E-004	0.00000E+000	-7.81026E-005	-2.40040E-001	1.95557E-001	3.57690E+000	9	...........
	76	1.02667	1.90211E-001	-4.00724E-004	0.00000E+000	-7.62223E-005	-2.40040E-001	1.90248E-001	3.57690E+000	9	...........
	77	1.04	1.84887E-001	-4.00077E-004	0.00000E+000	-7.39690E-005	-2.40040E-001	1.84918E-001	3.57690E+000	9	...........
	78	1.05333	1.79606E-001	-3.98906E-004	0.00000E+000	-7.16459E-005	-2.40040E-001	1.79639E-001	3.57690E+000	9	...........
	79	1.06667	1.74344E-001	-3.98612E-004	0.00000E+000	-6.94958E-005	-2.40040E-001	1.74380E-001	3.57690E+000	9	...........
	80	1.08	1.69130E-001	-3.99538E-004	0.00000E+000	-6.75737E-005	-2.40040E-001	1.69162E-001	3.57690E+000	9	...........
	81	1.09333	1.64000E-001	-3.98600E-004	0.00000E+000	-6.53706E-005	-2.40040E-001	1.64028E-001	3.57690E+000	9	...........
	82	1.10667	1.58919E-001	-3.98544E-004	0.00000E+000	-6.33361E-005	-2.40040E-001	1.58943E-001	3.57690E+000	9	...........
	83	1.12	1.53754E-001	-3.99587E-004	0.00000E+000	-6.14380E-005	-2.40040E-001	1.53782E-001	3.57690E+000	9	...........
	84	1.13333	1.48668E-001	-3.98391E-004	0.00000E+000	-5.92279E-005	-2.40040E-001	1.48698E-001	3.57690E+000	9	...........
	85	1.14667	1.43625E-001	-3.99024E-004	0.00000E+000	-5.73098E-005	-2.40040E-001	1.43654E-001	3.57690E+000	9	...........
	86	1.16	1.38677E-001	-3.99020E-004	0.00000E+000	-5.53348E-005	-2.40040E-001	1.38702E-001	3.57690E+000	9	...........
	87	1.17333	1.33749E-001	-3.99371E-004	0.00000E+000	-5.34154E-005	-2.40040E-001	1.33766E-001	3.57690E+000	9	...........
	88	1.18667	1.28844E-001	-3.97963E-004	0.00000E+000	-5.12750E-005	-2.40040E-001	1.28867E-001	3.57690E+000	9	...........
	89	1.2	1.23887E-001	-3.98047E-004	0.00000E+000	-4.93128E-005	-2.40040E-001	1.23907E-001	3.57690E+000	9	...........
	90	1.21333	1.18988E-001	-3.98449E-004	0.00000E+000	-4.74104E-005	-2.40040E-001	1.19015E-001	3.57690E+000	9	...........
	91	1.22667	1.14141E-001	-3.99475E-004	0.00000E+000	-4.55964E-005	-2.40040E-001	1.14159E-001	3.57690E+000	9	...........
	92	1.24	1.09276E-001	-3.99361E-004	0.00000E+000	-4.36406E-005	-2.40040E-001	1.09294E-001	3.57690E+000	9	...........
	93	1.25333	1.04427E-001	-3.99514E-004	0.00000E+000	-4.17201E-005	-2.40040E-001	1.04451E-001	3.57690E+000	9	...........
	94	1.26667	9.96281E-002	-3.99521E-004	0.00000E+000	-3.98035E-005	-2.40040E-001	9.96519E-002	3.57690E+000	9	...........
	95	1.28	9.48660E-002	-3.99192E-004	0.00000E+000	-3.78697E-005	-2.40040E-001	9.48837E-002	3.57690E+000	9	...........
	96	1.29333	9.01393E-002	-3.99251E-004	0.00000E+000	-3.59882E-005	-2.40040E-001	9.01595E-002	3.57690E+000	9	...........
	97	1.30667	8.53371E-002	-3.99280E-004	0.00000E+000	-3.40734E-005	-2.40040E-001	8.53568E-002	3.57690E+000	9	...........
	98	1.32	8.06908E-002	-3.99204E-004	0.00000E+000	-3.22121E-005	-2.40040E-001	8.07034E-002	3.57690E+000	9	...........
	99	1.33333	7.60354E-002	-3.98617E-004	0.00000E+000	-3.03090E-005	-2.40040E-001	7.60493E-002	3.57690E+000	9	...........
	100	1.34667	7.14402E-002	-3.98926E-004	0.00000E+000	-2.84994E-005	-2.40040E-001	7.14492E-002	3.57690E+000	9	...........
	101	1.36	6.68650E-002	-3.99053E-004	0.00000E+000	-2.66827E-005	-2.40040E-001	6.68750E-002	3.57690E+000	9	...........
	102	1.37333	6.23578E-002	-3.98827E-004	0.00000E+000	-2.48700E-005	-2.40040E-001	6.23645E-002	3.57690E+000	9	...........
	103	1.38667	5.78002E-002	-3.98745E-004	0.00000E+000	-2.30475E-005	-2.40040E-001	5.78058E-002	3.57690E+000	9	...........
	104	1.4	5.31583E-002	-3.98596E-004	0.00000E+000	-2.11887E-005	-2.40040E-001	5.31611E-002	3.57690E+000	9	...........
	105	1.41333	4.86823E-002	-3.99819E-004	0.00000E+000	-1.94641E-005	-2.40040E-001	4.86854E-002	3.57690E+000	9	...........
	106	1.42667	4.42219E-002	-3.99546E-004	0.00000E+000	-1.76687E-005	-2.40040E-001	4.42344E-002	3.57690E+000	9	...........
	107	1.44	3.97051E-002	-3.99699E-004	0.00000E+000	-1.58701E-005	-2.40040E-001	3.97108E-002	3.57690E+000	9	...........
	108	1.45333	3.52716E-002	-3.99329E-004	0.00000E+000	-1.40850E-005	-2.40040E-001	3.52730E-002	3.57690E+000	9	...........
	109	1.46667	3.08889E-002	-3.98904E-004	0.00000E+000	-1.23217E-005	-2.40040E-001	3.08913E-002	3.57690E+000	9	...........
	110	1.48	2.64780E-002	-3.98733E-004	0.00000E+000	-1.05577E-005	-2.40040E-001	2.64710E-002	3.57690E+000	9	...........
	111	1.49333	2.20752E-002	-3.98676E-004	0.00000E+000	-8.80085E-006	-2.40040E-001	2.20762E-002	3.57690E+000	9	...........
	112	1.50667	1.77332E-002	-3.98985E-004	0.00000E+000	-7.07528E-006	-2.40040E-001	1.77278E-002	3.57690E+000	9	...........
	113	1.52	1.33627E-002	-3.97959E-004	0.00000E+000	-5.31780E-006	-2.40040E-001	1.33552E-002	3.57690E+000	9	...........
	114	1.53333	9.06703E-003	-3.99063E-004	0.00000E+000	-3.61831E-006	-2.40040E-001	9.05722E-003	3.57690E+000	9	...........
	115	1.54667	4.81843E-003	-3.98877E-004	0.00000E+000	-1.92196E-006	-2.40040E-001	4.80320E-003	3.57690E+000	9	...........
	116	1.55667	1.13635E-003	-4.00452E-004	0.00000E+000	-4.55055E-007	-2.40040E-001	1.11720E-003	3.57690E+000	9	...........
STARTTIMEOFFSET	QUANT	1205.674	Start Time Offset (s)
