EXPLAIN
TAG	PWR800_DISCHARGE
TITLE	LABEL	PWR Cyclic Charge Discharge (Cell) - Discharge Step	Test &Identifier
DATE	LABEL	12-7-2017	Date
TIME	LABEL	15:03:17	Time
NOTES	NOTES	3	&Notes...
	supercap test cell
	0.4mg
	6M KOH
PSTAT	PSTAT	IFC5000-01520	Potentiostat
CAPACITY	QUANT	1.00000E-003	Capacity (A-hr)
CELLTYPE	SELECTOR	1	&Cell Type
WORKINGCONNECTION	SELECTOR	0	&Working Lead
MAXDISCHARGETIME	VARIABLEANDUNITS	1.00000E+002	s	1.00000E+002	second(s)	Max &Discharge Time
DISCHARGEMODE	MULTIPARAM	0	4.00000E-004	&Discharge Mode	Constant Current	Amp(s)
SAMPLETIME	QUANT	1.00000E-002	Sa&mple Period (s)
DISCHARGESTOPAT1	MULTIPARAM	3	0.00000E+000	Discharge Stop At &1	Voltage < Limit	V
DISCHARGESTOPAT2	MULTIPARAM	0	0.00000E+000	Discharge Stop At &2	None	N/A
AESBHCSELECTOR	TOGGLE	F	Save Both Half Cells
IRCOMP	TOGGLE	F	IR &Measure
EOC	QUANT	0	Open Circuit (V)
SEQUENCER	TOGGLE	TRUE	Run as Sequence
PSTATMODEL	IQUANT	53	Pstat Model
PSTATSECTION	LABEL	IFC5000-01520	Pstat Section
PSTATSERIALNO	LABEL	01520	Pstat Serial Number
CTRLMODE	IQUANT	0	Control Mode
ELECTROMETER	IQUANT	1	RE=0 or CS=1
IESTAB	IQUANT	0	I/E Stability
CASPEED	IQUANT	4	Control Amp Speed
CONVENTION	IQUANT	1	Current Convention
ICHRANGE	IQUANT	2	Ich Range
ICHRANGEMODE	TOGGLE	T	Ich Auto Range
ICHOFFSETENABLE	TOGGLE	F	Ich Offset Enable
ICHOFFSET	QUANT	0	Ich Offset (V)
ICHFILTER	IQUANT	1	Ich Filter
VCHRANGE	IQUANT	2	Vch Range
VCHRANGEMODE	TOGGLE	T	Vch Auto Range
VCHOFFSETENABLE	TOGGLE	F	Vch Offset Enable
VCHOFFSET	QUANT	0	Vch Offset (V)
VCHFILTER	IQUANT	1	Vch Filter
IERANGELOWERLIMIT	IQUANT	9	I/E Range Lower Limit
IERANGEMODE	TOGGLE	F	I/E AutoRange
IERANGE	IQUANT	9	I/E Range
ACHSELECT	IQUANT	1	Ach Select
ACHRANGE	IQUANT	2	Ach Range
ACHOFFSETENABLE	TOGGLE	F	Ach Offset Enable
ACHOFFSET	QUANT	0	Ach Offset (V)
ACHFILTER	IQUANT	1	Ach Filter
CABLEID	IQUANT	14	Cable ID
DCCALDATE	LABEL	5-7-2017	DC Calibration Date
ACCALDATE	LABEL	12/3/2015	AC Calibration Date
FRAMEWORKVERSION	QUANT	7.01	Framework Version
INSTRUMENTVERSION	LABEL	4.00	Instrument Version
CURVE	TABLE	108
	Pt	T	Vf	Im	Vu	Pwr	Sig	Ach	Temp	IERange	Over
	#	s	V	A	V	W	V	V	deg C	#	bits
	0	0.013333	6.90309E-001	-3.99290E-004	0.00000E+000	-2.75633E-004	-2.40040E-001	6.90553E-001	3.57620E+000	9	...........
	1	0.026667	6.77342E-001	-3.97425E-004	0.00000E+000	-2.69192E-004	-2.40040E-001	6.77579E-001	3.57620E+000	9	...........
	2	0.04	6.65948E-001	-3.99287E-004	0.00000E+000	-2.65904E-004	-2.40040E-001	6.66198E-001	3.57620E+000	9	...........
	3	0.053333	6.55545E-001	-3.98619E-004	0.00000E+000	-2.61312E-004	-2.40040E-001	6.55739E-001	3.57620E+000	9	...........
	4	0.066667	6.45746E-001	-3.98681E-004	0.00000E+000	-2.57447E-004	-2.40040E-001	6.45939E-001	3.57620E+000	9	...........
	5	0.08	6.36319E-001	-3.98320E-004	0.00000E+000	-2.53458E-004	-2.40040E-001	6.36479E-001	3.57620E+000	9	...........
	6	0.093333	6.27217E-001	-3.99405E-004	0.00000E+000	-2.50514E-004	-2.40040E-001	6.27383E-001	3.57620E+000	9	...........
	7	0.106667	6.18360E-001	-3.98368E-004	0.00000E+000	-2.46335E-004	-2.40040E-001	6.18502E-001	3.57620E+000	9	...........
	8	0.12	6.09647E-001	-3.99082E-004	0.00000E+000	-2.43299E-004	-2.40040E-001	6.09876E-001	3.57620E+000	9	...........
	9	0.133333	6.01170E-001	-3.99232E-004	0.00000E+000	-2.40006E-004	-2.40040E-001	6.01400E-001	3.57620E+000	9	...........
	10	0.146667	5.92924E-001	-3.99361E-004	0.00000E+000	-2.36791E-004	-2.40040E-001	5.93135E-001	3.57620E+000	9	...........
	11	0.16	5.84666E-001	-3.98039E-004	0.00000E+000	-2.32720E-004	-2.40040E-001	5.84923E-001	3.57620E+000	9	...........
	12	0.173333	5.76552E-001	-3.98949E-004	0.00000E+000	-2.30015E-004	-2.40040E-001	5.76775E-001	3.57620E+000	9	...........
	13	0.186667	5.68559E-001	-3.99244E-004	0.00000E+000	-2.26994E-004	-2.40040E-001	5.68783E-001	3.57620E+000	9	...........
	14	0.2	5.60572E-001	-3.99359E-004	0.00000E+000	-2.23870E-004	-2.40040E-001	5.60810E-001	3.57620E+000	9	...........
	15	0.213333	5.52589E-001	-3.98027E-004	0.00000E+000	-2.19945E-004	-2.40040E-001	5.52840E-001	3.57620E+000	9	...........
	16	0.226667	5.44648E-001	-3.99791E-004	0.00000E+000	-2.17745E-004	-2.40040E-001	5.44891E-001	3.57620E+000	9	...........
	17	0.24	5.36756E-001	-3.96778E-004	0.00000E+000	-2.12973E-004	-2.40040E-001	5.37002E-001	3.57620E+000	9	...........
	18	0.253333	5.28966E-001	-3.98508E-004	0.00000E+000	-2.10797E-004	-2.40040E-001	5.29202E-001	3.57620E+000	9	...........
	19	0.266667	5.21268E-001	-3.98059E-004	0.00000E+000	-2.07495E-004	-2.40040E-001	5.21496E-001	3.57620E+000	9	...........
	20	0.28	5.13639E-001	-3.96735E-004	0.00000E+000	-2.03778E-004	-2.40040E-001	5.13863E-001	3.57620E+000	9	...........
	21	0.293333	5.05907E-001	-3.99924E-004	0.00000E+000	-2.02325E-004	-2.40040E-001	5.06145E-001	3.57620E+000	9	...........
	22	0.306667	4.98384E-001	-3.98047E-004	0.00000E+000	-1.98380E-004	-2.40040E-001	4.98635E-001	3.57620E+000	9	...........
	23	0.32	4.90905E-001	-3.98657E-004	0.00000E+000	-1.95703E-004	-2.40040E-001	4.91129E-001	3.57620E+000	9	...........
	24	0.333333	4.83645E-001	-3.97044E-004	0.00000E+000	-1.92029E-004	-2.40040E-001	4.83776E-001	3.57620E+000	9	...........
	25	0.346667	4.76350E-001	-3.98592E-004	0.00000E+000	-1.89869E-004	-2.40040E-001	4.76445E-001	3.57620E+000	9	...........
	26	0.36	4.68964E-001	-3.98885E-004	0.00000E+000	-1.87063E-004	-2.40040E-001	4.69057E-001	3.57620E+000	9	...........
	27	0.373333	4.61596E-001	-3.98403E-004	0.00000E+000	-1.83901E-004	-2.40040E-001	4.61689E-001	3.57620E+000	9	...........
	28	0.386667	4.54303E-001	-3.98607E-004	0.00000E+000	-1.81088E-004	-2.40040E-001	4.54392E-001	3.57620E+000	9	...........
	29	0.4	4.47069E-001	-3.99806E-004	0.00000E+000	-1.78741E-004	-2.40040E-001	4.47157E-001	3.57620E+000	9	...........
	30	0.413333	4.39882E-001	-3.98546E-004	0.00000E+000	-1.75313E-004	-2.40040E-001	4.39969E-001	3.57620E+000	9	...........
	31	0.426667	4.32647E-001	-3.98399E-004	0.00000E+000	-1.72366E-004	-2.40040E-001	4.32733E-001	3.57620E+000	9	...........
	32	0.44	4.25453E-001	-3.99051E-004	0.00000E+000	-1.69777E-004	-2.40040E-001	4.25543E-001	3.57620E+000	9	...........
	33	0.453333	4.18379E-001	-3.97583E-004	0.00000E+000	-1.66340E-004	-2.40040E-001	4.18464E-001	3.57620E+000	9	...........
	34	0.466667	4.11340E-001	-3.98976E-004	0.00000E+000	-1.64115E-004	-2.40040E-001	4.11428E-001	3.57620E+000	9	...........
	35	0.48	4.04339E-001	-3.98393E-004	0.00000E+000	-1.61086E-004	-2.40040E-001	4.04418E-001	3.57620E+000	9	...........
	36	0.493333	3.97326E-001	-3.98121E-004	0.00000E+000	-1.58184E-004	-2.40040E-001	3.97408E-001	3.57620E+000	9	...........
	37	0.506667	3.90400E-001	-3.97834E-004	0.00000E+000	-1.55314E-004	-2.40040E-001	3.90476E-001	3.57620E+000	9	...........
	38	0.52	3.83465E-001	-3.99535E-004	0.00000E+000	-1.53208E-004	-2.40040E-001	3.83540E-001	3.57620E+000	9	...........
	39	0.533333	3.76603E-001	-3.98645E-004	0.00000E+000	-1.50131E-004	-2.40040E-001	3.76675E-001	3.57620E+000	9	...........
	40	0.546667	3.69821E-001	-3.98866E-004	0.00000E+000	-1.47509E-004	-2.40040E-001	3.69888E-001	3.57620E+000	9	...........
	41	0.56	3.63065E-001	-3.98315E-004	0.00000E+000	-1.44614E-004	-2.40040E-001	3.63130E-001	3.57620E+000	9	...........
	42	0.573333	3.56334E-001	-3.99139E-004	0.00000E+000	-1.42227E-004	-2.40040E-001	3.56406E-001	3.57620E+000	9	...........
	43	0.586667	3.49652E-001	-3.98065E-004	0.00000E+000	-1.39184E-004	-2.40040E-001	3.49717E-001	3.57620E+000	9	...........
	44	0.6	3.42972E-001	-3.98977E-004	0.00000E+000	-1.36838E-004	-2.40040E-001	3.43030E-001	3.57620E+000	9	...........
	45	0.613333	3.36286E-001	-3.99710E-004	0.00000E+000	-1.34417E-004	-2.40040E-001	3.36346E-001	3.57620E+000	9	...........
	46	0.626667	3.29746E-001	-3.98540E-004	0.00000E+000	-1.31417E-004	-2.40040E-001	3.29807E-001	3.57620E+000	9	...........
	47	0.64	3.23252E-001	-3.98717E-004	0.00000E+000	-1.28886E-004	-2.40040E-001	3.23319E-001	3.57620E+000	9	...........
	48	0.653333	3.16797E-001	-3.99458E-004	0.00000E+000	-1.26547E-004	-2.40040E-001	3.16853E-001	3.57620E+000	9	...........
	49	0.666667	3.10373E-001	-3.98652E-004	0.00000E+000	-1.23731E-004	-2.40040E-001	3.10434E-001	3.57620E+000	9	...........
	50	0.68	3.04022E-001	-3.99169E-004	0.00000E+000	-1.21356E-004	-2.40040E-001	3.04080E-001	3.57620E+000	9	...........
	51	0.693333	2.97721E-001	-3.99028E-004	0.00000E+000	-1.18799E-004	-2.40040E-001	2.97776E-001	3.57620E+000	9	...........
	52	0.706667	2.91389E-001	-3.98696E-004	0.00000E+000	-1.16175E-004	-2.40040E-001	2.91442E-001	3.57620E+000	9	...........
	53	0.72	2.85124E-001	-3.99075E-004	0.00000E+000	-1.13786E-004	-2.40040E-001	2.85183E-001	3.57620E+000	9	...........
	54	0.733333	2.78868E-001	-3.98660E-004	0.00000E+000	-1.11174E-004	-2.40040E-001	2.78924E-001	3.57620E+000	9	...........
	55	0.746667	2.72707E-001	-3.97665E-004	0.00000E+000	-1.08446E-004	-2.40040E-001	2.72753E-001	3.57620E+000	9	...........
	56	0.76	2.66523E-001	-3.98323E-004	0.00000E+000	-1.06162E-004	-2.40040E-001	2.66576E-001	3.57620E+000	9	...........
	57	0.773333	2.60370E-001	-3.98426E-004	0.00000E+000	-1.03738E-004	-2.40040E-001	2.60427E-001	3.57620E+000	9	...........
	58	0.786667	2.54286E-001	-3.99085E-004	0.00000E+000	-1.01482E-004	-2.40040E-001	2.54333E-001	3.57620E+000	9	...........
	59	0.8	2.48222E-001	-3.98475E-004	0.00000E+000	-9.89104E-005	-2.40040E-001	2.48268E-001	3.57620E+000	9	...........
	60	0.813333	2.42213E-001	-3.99055E-004	0.00000E+000	-9.66565E-005	-2.40040E-001	2.42252E-001	3.57620E+000	9	...........
	61	0.826667	2.36211E-001	-3.98956E-004	0.00000E+000	-9.42377E-005	-2.40040E-001	2.36243E-001	3.57701E+000	9	...........
	62	0.84	2.30306E-001	-3.98586E-004	0.00000E+000	-9.17967E-005	-2.40040E-001	2.30347E-001	3.57770E+000	9	...........
	63	0.853333	2.24467E-001	-3.98328E-004	0.00000E+000	-8.94115E-005	-2.40040E-001	2.24509E-001	3.57770E+000	9	...........
	64	0.866667	2.18619E-001	-3.98137E-004	0.00000E+000	-8.70403E-005	-2.40040E-001	2.18663E-001	3.57770E+000	9	...........
	65	0.88	2.12785E-001	-3.98133E-004	0.00000E+000	-8.47169E-005	-2.40040E-001	2.12825E-001	3.57770E+000	9	...........
	66	0.893333	2.07052E-001	-3.99199E-004	0.00000E+000	-8.26551E-005	-2.40040E-001	2.07091E-001	3.57770E+000	9	...........
	67	0.906667	2.01312E-001	-3.98755E-004	0.00000E+000	-8.02743E-005	-2.40040E-001	2.01349E-001	3.57770E+000	9	...........
	68	0.92	1.95677E-001	-3.99678E-004	0.00000E+000	-7.82080E-005	-2.40040E-001	1.95719E-001	3.57770E+000	9	...........
	69	0.933333	1.90037E-001	-3.98660E-004	0.00000E+000	-7.57602E-005	-2.40040E-001	1.90075E-001	3.57770E+000	9	...........
	70	0.946667	1.84415E-001	-3.99891E-004	0.00000E+000	-7.37458E-005	-2.40040E-001	1.84452E-001	3.57770E+000	9	...........
	71	0.96	1.78863E-001	-3.99921E-004	0.00000E+000	-7.15311E-005	-2.40040E-001	1.78901E-001	3.57770E+000	9	...........
	72	0.97333	1.73324E-001	-3.99330E-004	0.00000E+000	-6.92137E-005	-2.40040E-001	1.73368E-001	3.57770E+000	9	...........
	73	0.98667	1.67771E-001	-3.99594E-004	0.00000E+000	-6.70404E-005	-2.40040E-001	1.67807E-001	3.57770E+000	9	...........
	74	1	1.62338E-001	-3.99801E-004	0.00000E+000	-6.49029E-005	-2.40040E-001	1.62362E-001	3.57770E+000	9	...........
	75	1.01333	1.56893E-001	-3.99034E-004	0.00000E+000	-6.26056E-005	-2.40040E-001	1.56919E-001	3.57770E+000	9	...........
	76	1.02667	1.51452E-001	-3.98912E-004	0.00000E+000	-6.04162E-005	-2.40040E-001	1.51479E-001	3.57770E+000	9	...........
	77	1.04	1.46070E-001	-3.98834E-004	0.00000E+000	-5.82578E-005	-2.40040E-001	1.46095E-001	3.57770E+000	9	...........
	78	1.05333	1.40669E-001	-3.98989E-004	0.00000E+000	-5.61255E-005	-2.40040E-001	1.40695E-001	3.57770E+000	9	...........
	79	1.06667	1.35364E-001	-3.98833E-004	0.00000E+000	-5.39875E-005	-2.40040E-001	1.35384E-001	3.57770E+000	9	...........
	80	1.08	1.30173E-001	-3.99030E-004	0.00000E+000	-5.19430E-005	-2.40040E-001	1.30193E-001	3.57770E+000	9	...........
	81	1.09333	1.24959E-001	-3.98901E-004	0.00000E+000	-4.98462E-005	-2.40040E-001	1.24979E-001	3.57770E+000	9	...........
	82	1.10667	1.19675E-001	-3.98684E-004	0.00000E+000	-4.77124E-005	-2.40040E-001	1.19690E-001	3.57770E+000	9	...........
	83	1.12	1.14479E-001	-3.99034E-004	0.00000E+000	-4.56811E-005	-2.40040E-001	1.14494E-001	3.57770E+000	9	...........
	84	1.13333	1.09362E-001	-3.97714E-004	0.00000E+000	-4.34948E-005	-2.40040E-001	1.09379E-001	3.57770E+000	9	...........
	85	1.14667	1.04272E-001	-3.98499E-004	0.00000E+000	-4.15522E-005	-2.40040E-001	1.04289E-001	3.57770E+000	9	...........
	86	1.16	9.91415E-002	-3.98161E-004	0.00000E+000	-3.94743E-005	-2.40040E-001	9.91618E-002	3.57770E+000	9	...........
	87	1.17333	9.40867E-002	-3.98000E-004	0.00000E+000	-3.74465E-005	-2.40040E-001	9.41019E-002	3.57770E+000	9	...........
	88	1.18667	8.90159E-002	-3.99330E-004	0.00000E+000	-3.55468E-005	-2.40040E-001	8.90305E-002	3.57770E+000	9	...........
	89	1.2	8.40092E-002	-3.96843E-004	0.00000E+000	-3.33385E-005	-2.40040E-001	8.40230E-002	3.57770E+000	9	...........
	90	1.21333	7.90766E-002	-3.97755E-004	0.00000E+000	-3.14531E-005	-2.40040E-001	7.90868E-002	3.57770E+000	9	...........
	91	1.22667	7.40754E-002	-3.98949E-004	0.00000E+000	-2.95523E-005	-2.40040E-001	7.40909E-002	3.57770E+000	9	...........
	92	1.24	6.91751E-002	-3.98645E-004	0.00000E+000	-2.75763E-005	-2.40040E-001	6.91784E-002	3.57770E+000	9	...........
	93	1.25333	6.43391E-002	-3.99857E-004	0.00000E+000	-2.57265E-005	-2.40040E-001	6.43473E-002	3.57770E+000	9	...........
	94	1.26667	5.95127E-002	-4.00002E-004	0.00000E+000	-2.38052E-005	-2.40040E-001	5.95184E-002	3.57770E+000	9	...........
	95	1.28	5.47293E-002	-3.99393E-004	0.00000E+000	-2.18585E-005	-2.40040E-001	5.47278E-002	3.57770E+000	9	...........
	96	1.29333	4.99781E-002	-3.97926E-004	0.00000E+000	-1.98876E-005	-2.40040E-001	4.99791E-002	3.57770E+000	9	...........
	97	1.30667	4.52397E-002	-3.99843E-004	0.00000E+000	-1.80888E-005	-2.40040E-001	4.52439E-002	3.57770E+000	9	...........
	98	1.32	4.05445E-002	-3.98615E-004	0.00000E+000	-1.61616E-005	-2.40040E-001	4.05502E-002	3.57770E+000	9	...........
	99	1.33333	3.59031E-002	-3.98055E-004	0.00000E+000	-1.42914E-005	-2.40040E-001	3.59020E-002	3.57770E+000	9	...........
	100	1.34667	3.11773E-002	-3.97755E-004	0.00000E+000	-1.24009E-005	-2.40040E-001	3.11783E-002	3.57770E+000	9	...........
	101	1.36	2.64967E-002	-3.99577E-004	0.00000E+000	-1.05875E-005	-2.40040E-001	2.64948E-002	3.57770E+000	9	...........
	102	1.37333	2.19264E-002	-3.98598E-004	0.00000E+000	-8.73980E-006	-2.40040E-001	2.19192E-002	3.57770E+000	9	...........
	103	1.38667	1.73374E-002	-3.98606E-004	0.00000E+000	-6.91079E-006	-2.40040E-001	1.73283E-002	3.57770E+000	9	...........
	104	1.4	1.27068E-002	-4.00770E-004	0.00000E+000	-5.09251E-006	-2.40040E-001	1.26948E-002	3.57770E+000	9	...........
	105	1.41333	8.14295E-003	-3.98342E-004	0.00000E+000	-3.24368E-006	-2.40040E-001	8.13019E-003	3.57770E+000	9	...........
	106	1.42667	3.65910E-003	-4.00572E-004	0.00000E+000	-1.46573E-006	-2.40040E-001	3.64047E-003	3.57770E+000	9	...........
	107	1.43333	3.85841E-004	-3.97979E-004	0.00000E+000	-1.53557E-007	-2.40040E-001	3.68385E-004	3.57770E+000	9	...........
STARTTIMEOFFSET	QUANT	2126.907	Start Time Offset (s)
