EXPLAIN
TAG	PWR800_DISCHARGE
TITLE	LABEL	PWR Cyclic Charge Discharge (Cell) - Discharge Step	Test &Identifier
DATE	LABEL	12-7-2017	Date
TIME	LABEL	15:10:46	Time
NOTES	NOTES	3	&Notes...
	supercap test cell
	0.4mg
	6M KOH
PSTAT	PSTAT	IFC5000-01520	Potentiostat
CAPACITY	QUANT	1.00000E-003	Capacity (A-hr)
CELLTYPE	SELECTOR	1	&Cell Type
WORKINGCONNECTION	SELECTOR	0	&Working Lead
MAXDISCHARGETIME	VARIABLEANDUNITS	1.00000E+002	s	1.00000E+002	second(s)	Max &Discharge Time
DISCHARGEMODE	MULTIPARAM	0	4.00000E-004	&Discharge Mode	Constant Current	Amp(s)
SAMPLETIME	QUANT	1.00000E-002	Sa&mple Period (s)
DISCHARGESTOPAT1	MULTIPARAM	3	0.00000E+000	Discharge Stop At &1	Voltage < Limit	V
DISCHARGESTOPAT2	MULTIPARAM	0	0.00000E+000	Discharge Stop At &2	None	N/A
AESBHCSELECTOR	TOGGLE	F	Save Both Half Cells
IRCOMP	TOGGLE	F	IR &Measure
EOC	QUANT	0	Open Circuit (V)
SEQUENCER	TOGGLE	TRUE	Run as Sequence
PSTATMODEL	IQUANT	53	Pstat Model
PSTATSECTION	LABEL	IFC5000-01520	Pstat Section
PSTATSERIALNO	LABEL	01520	Pstat Serial Number
CTRLMODE	IQUANT	0	Control Mode
ELECTROMETER	IQUANT	1	RE=0 or CS=1
IESTAB	IQUANT	0	I/E Stability
CASPEED	IQUANT	4	Control Amp Speed
CONVENTION	IQUANT	1	Current Convention
ICHRANGE	IQUANT	2	Ich Range
ICHRANGEMODE	TOGGLE	T	Ich Auto Range
ICHOFFSETENABLE	TOGGLE	F	Ich Offset Enable
ICHOFFSET	QUANT	0	Ich Offset (V)
ICHFILTER	IQUANT	1	Ich Filter
VCHRANGE	IQUANT	2	Vch Range
VCHRANGEMODE	TOGGLE	T	Vch Auto Range
VCHOFFSETENABLE	TOGGLE	F	Vch Offset Enable
VCHOFFSET	QUANT	0	Vch Offset (V)
VCHFILTER	IQUANT	1	Vch Filter
IERANGELOWERLIMIT	IQUANT	9	I/E Range Lower Limit
IERANGEMODE	TOGGLE	F	I/E AutoRange
IERANGE	IQUANT	9	I/E Range
ACHSELECT	IQUANT	1	Ach Select
ACHRANGE	IQUANT	2	Ach Range
ACHOFFSETENABLE	TOGGLE	F	Ach Offset Enable
ACHOFFSET	QUANT	0	Ach Offset (V)
ACHFILTER	IQUANT	1	Ach Filter
CABLEID	IQUANT	14	Cable ID
DCCALDATE	LABEL	5-7-2017	DC Calibration Date
ACCALDATE	LABEL	12/3/2015	AC Calibration Date
FRAMEWORKVERSION	QUANT	7.01	Framework Version
INSTRUMENTVERSION	LABEL	4.00	Instrument Version
CURVE	TABLE	105
	Pt	T	Vf	Im	Vu	Pwr	Sig	Ach	Temp	IERange	Over
	#	s	V	A	V	W	V	V	deg C	#	bits
	0	0.013333	6.88370E-001	-3.98789E-004	0.00000E+000	-2.74514E-004	-2.40040E-001	6.88577E-001	3.57640E+000	9	...........
	1	0.026667	6.75050E-001	-3.99110E-004	0.00000E+000	-2.69419E-004	-2.40040E-001	6.75252E-001	3.57640E+000	9	...........
	2	0.04	6.63324E-001	-3.98545E-004	0.00000E+000	-2.64364E-004	-2.40040E-001	6.63547E-001	3.57640E+000	9	...........
	3	0.053333	6.52596E-001	-3.98433E-004	0.00000E+000	-2.60016E-004	-2.40040E-001	6.52819E-001	3.57640E+000	9	...........
	4	0.066667	6.42566E-001	-3.98209E-004	0.00000E+000	-2.55876E-004	-2.40040E-001	6.42772E-001	3.57640E+000	9	...........
	5	0.08	6.32990E-001	-3.98673E-004	0.00000E+000	-2.52356E-004	-2.40040E-001	6.33191E-001	3.57640E+000	9	...........
	6	0.093333	6.23791E-001	-3.97488E-004	0.00000E+000	-2.47949E-004	-2.40040E-001	6.23988E-001	3.57640E+000	9	...........
	7	0.106667	6.14857E-001	-3.97990E-004	0.00000E+000	-2.44707E-004	-2.40040E-001	6.15091E-001	3.57640E+000	9	...........
	8	0.12	6.06057E-001	-3.98393E-004	0.00000E+000	-2.41449E-004	-2.40040E-001	6.06311E-001	3.57640E+000	9	...........
	9	0.133333	5.97412E-001	-3.98782E-004	0.00000E+000	-2.38237E-004	-2.40040E-001	5.97661E-001	3.57640E+000	9	...........
	10	0.146667	5.88888E-001	-3.98582E-004	0.00000E+000	-2.34720E-004	-2.40040E-001	5.89130E-001	3.57640E+000	9	...........
	11	0.16	5.80438E-001	-3.98974E-004	0.00000E+000	-2.31580E-004	-2.40040E-001	5.80657E-001	3.57640E+000	9	...........
	12	0.173333	5.72153E-001	-3.99682E-004	0.00000E+000	-2.28679E-004	-2.40040E-001	5.72330E-001	3.57640E+000	9	...........
	13	0.186667	5.63944E-001	-3.99229E-004	0.00000E+000	-2.25143E-004	-2.40040E-001	5.64134E-001	3.57640E+000	9	...........
	14	0.2	5.55803E-001	-3.97886E-004	0.00000E+000	-2.21146E-004	-2.40040E-001	5.56014E-001	3.57640E+000	9	...........
	15	0.213333	5.47678E-001	-3.98483E-004	0.00000E+000	-2.18240E-004	-2.40040E-001	5.47892E-001	3.57640E+000	9	...........
	16	0.226667	5.39637E-001	-3.98323E-004	0.00000E+000	-2.14950E-004	-2.40040E-001	5.39842E-001	3.57640E+000	9	...........
	17	0.24	5.31684E-001	-3.99772E-004	0.00000E+000	-2.12552E-004	-2.40040E-001	5.31909E-001	3.57640E+000	9	...........
	18	0.253333	5.23848E-001	-3.97758E-004	0.00000E+000	-2.08365E-004	-2.40040E-001	5.24036E-001	3.57640E+000	9	...........
	19	0.266667	5.16072E-001	-3.98402E-004	0.00000E+000	-2.05604E-004	-2.40040E-001	5.16256E-001	3.57640E+000	9	...........
	20	0.28	5.08228E-001	-3.98602E-004	0.00000E+000	-2.02581E-004	-2.40040E-001	5.08428E-001	3.57640E+000	9	...........
	21	0.293333	5.00415E-001	-3.99986E-004	0.00000E+000	-2.00159E-004	-2.40040E-001	5.00610E-001	3.57640E+000	9	...........
	22	0.306667	4.92630E-001	-3.98963E-004	0.00000E+000	-1.96541E-004	-2.40040E-001	4.92823E-001	3.57640E+000	9	...........
	23	0.32	4.85077E-001	-3.99432E-004	0.00000E+000	-1.93755E-004	-2.40040E-001	4.85198E-001	3.57640E+000	9	...........
	24	0.333333	4.77649E-001	-3.99543E-004	0.00000E+000	-1.90841E-004	-2.40040E-001	4.77743E-001	3.57640E+000	9	...........
	25	0.346667	4.70070E-001	-3.98665E-004	0.00000E+000	-1.87400E-004	-2.40040E-001	4.70162E-001	3.57640E+000	9	...........
	26	0.36	4.62496E-001	-3.98566E-004	0.00000E+000	-1.84335E-004	-2.40040E-001	4.62586E-001	3.57640E+000	9	...........
	27	0.373333	4.55000E-001	-3.98225E-004	0.00000E+000	-1.81192E-004	-2.40040E-001	4.55084E-001	3.57640E+000	9	...........
	28	0.386667	4.47496E-001	-3.99030E-004	0.00000E+000	-1.78564E-004	-2.40040E-001	4.47581E-001	3.57640E+000	9	...........
	29	0.4	4.40012E-001	-3.98296E-004	0.00000E+000	-1.75255E-004	-2.40040E-001	4.40098E-001	3.57640E+000	9	...........
	30	0.413333	4.32672E-001	-3.98891E-004	0.00000E+000	-1.72589E-004	-2.40040E-001	4.32758E-001	3.57640E+000	9	...........
	31	0.426667	4.25405E-001	-3.99444E-004	0.00000E+000	-1.69925E-004	-2.40040E-001	4.25488E-001	3.57640E+000	9	...........
	32	0.44	4.18185E-001	-3.98518E-004	0.00000E+000	-1.66654E-004	-2.40040E-001	4.18265E-001	3.57640E+000	9	...........
	33	0.453333	4.10989E-001	-3.98951E-004	0.00000E+000	-1.63965E-004	-2.40040E-001	4.11066E-001	3.57640E+000	9	...........
	34	0.466667	4.03869E-001	-3.98718E-004	0.00000E+000	-1.61030E-004	-2.40040E-001	4.03949E-001	3.57640E+000	9	...........
	35	0.48	3.96752E-001	-3.99291E-004	0.00000E+000	-1.58419E-004	-2.40040E-001	3.96821E-001	3.57640E+000	9	...........
	36	0.493333	3.89677E-001	-3.99029E-004	0.00000E+000	-1.55492E-004	-2.40040E-001	3.89748E-001	3.57640E+000	9	...........
	37	0.506667	3.82713E-001	-3.98335E-004	0.00000E+000	-1.52448E-004	-2.40040E-001	3.82784E-001	3.57640E+000	9	...........
	38	0.52	3.75727E-001	-4.00031E-004	0.00000E+000	-1.50302E-004	-2.40040E-001	3.75798E-001	3.57640E+000	9	...........
	39	0.533333	3.68821E-001	-3.99055E-004	0.00000E+000	-1.47180E-004	-2.40040E-001	3.68884E-001	3.57640E+000	9	...........
	40	0.546667	3.61837E-001	-3.98545E-004	0.00000E+000	-1.44208E-004	-2.40040E-001	3.61906E-001	3.57640E+000	9	...........
	41	0.56	3.54957E-001	-3.99396E-004	0.00000E+000	-1.41768E-004	-2.40040E-001	3.55021E-001	3.57640E+000	9	...........
	42	0.573333	3.48097E-001	-3.99087E-004	0.00000E+000	-1.38921E-004	-2.40040E-001	3.48158E-001	3.57640E+000	9	...........
	43	0.586667	3.41272E-001	-3.98126E-004	0.00000E+000	-1.35869E-004	-2.40040E-001	3.41335E-001	3.57640E+000	9	...........
	44	0.6	3.34496E-001	-3.98649E-004	0.00000E+000	-1.33346E-004	-2.40040E-001	3.34557E-001	3.57640E+000	9	...........
	45	0.613333	3.27768E-001	-3.98171E-004	0.00000E+000	-1.30507E-004	-2.40040E-001	3.27826E-001	3.57640E+000	9	...........
	46	0.626667	3.21130E-001	-3.98233E-004	0.00000E+000	-1.27885E-004	-2.40040E-001	3.21188E-001	3.57640E+000	9	...........
	47	0.64	3.14562E-001	-3.98859E-004	0.00000E+000	-1.25466E-004	-2.40040E-001	3.14624E-001	3.57640E+000	9	...........
	48	0.653333	3.07917E-001	-3.98048E-004	0.00000E+000	-1.22565E-004	-2.40040E-001	3.07975E-001	3.57640E+000	9	...........
	49	0.666667	3.01297E-001	-3.99325E-004	0.00000E+000	-1.20316E-004	-2.40040E-001	3.01348E-001	3.57640E+000	9	...........
	50	0.68	2.94862E-001	-3.99903E-004	0.00000E+000	-1.17916E-004	-2.40040E-001	2.94910E-001	3.57640E+000	9	...........
	51	0.693333	2.88420E-001	-3.98973E-004	0.00000E+000	-1.15072E-004	-2.40040E-001	2.88471E-001	3.57640E+000	9	...........
	52	0.706667	2.82019E-001	-3.97817E-004	0.00000E+000	-1.12192E-004	-2.40040E-001	2.82076E-001	3.57640E+000	9	...........
	53	0.72	2.75681E-001	-3.98969E-004	0.00000E+000	-1.09988E-004	-2.40040E-001	2.75735E-001	3.57640E+000	9	...........
	54	0.733333	2.69451E-001	-3.98477E-004	0.00000E+000	-1.07370E-004	-2.40040E-001	2.69505E-001	3.57640E+000	9	...........
	55	0.746667	2.63280E-001	-3.99299E-004	0.00000E+000	-1.05127E-004	-2.40040E-001	2.63333E-001	3.57640E+000	9	...........
	56	0.76	2.57057E-001	-3.99702E-004	0.00000E+000	-1.02746E-004	-2.40040E-001	2.57111E-001	3.57640E+000	9	...........
	57	0.773333	2.50868E-001	-3.99039E-004	0.00000E+000	-1.00106E-004	-2.40040E-001	2.50915E-001	3.57640E+000	9	...........
	58	0.786667	2.44732E-001	-3.98398E-004	0.00000E+000	-9.75005E-005	-2.40040E-001	2.44777E-001	3.57640E+000	9	...........
	59	0.8	2.38673E-001	-3.98821E-004	0.00000E+000	-9.51878E-005	-2.40040E-001	2.38717E-001	3.57640E+000	9	...........
	60	0.813333	2.32580E-001	-3.98296E-004	0.00000E+000	-9.26355E-005	-2.40040E-001	2.32623E-001	3.57640E+000	9	...........
	61	0.826667	2.26543E-001	-3.97615E-004	0.00000E+000	-9.00769E-005	-2.40040E-001	2.26582E-001	3.57640E+000	9	...........
	62	0.84	2.20519E-001	-3.99152E-004	0.00000E+000	-8.80207E-005	-2.40040E-001	2.20559E-001	3.57640E+000	9	...........
	63	0.853333	2.14535E-001	-3.98354E-004	0.00000E+000	-8.54609E-005	-2.40040E-001	2.14578E-001	3.57640E+000	9	...........
	64	0.866667	2.08611E-001	-3.98982E-004	0.00000E+000	-8.32322E-005	-2.40040E-001	2.08646E-001	3.57640E+000	9	...........
	65	0.88	2.02787E-001	-3.97742E-004	0.00000E+000	-8.06568E-005	-2.40040E-001	2.02822E-001	3.57640E+000	9	...........
	66	0.893333	1.96922E-001	-4.00606E-004	0.00000E+000	-7.88879E-005	-2.40040E-001	1.96959E-001	3.57640E+000	9	...........
	67	0.906667	1.91107E-001	-3.97798E-004	0.00000E+000	-7.60219E-005	-2.40040E-001	1.91140E-001	3.57640E+000	9	...........
	68	0.92	1.85318E-001	-3.97929E-004	0.00000E+000	-7.37432E-005	-2.40040E-001	1.85349E-001	3.57640E+000	9	...........
	69	0.933333	1.79622E-001	-3.99000E-004	0.00000E+000	-7.16692E-005	-2.40040E-001	1.79654E-001	3.57640E+000	9	...........
	70	0.946667	1.73963E-001	-3.99095E-004	0.00000E+000	-6.94276E-005	-2.40040E-001	1.73992E-001	3.57721E+000	9	...........
	71	0.96	1.68296E-001	-3.98822E-004	0.00000E+000	-6.71203E-005	-2.40040E-001	1.68327E-001	3.57770E+000	9	...........
	72	0.97333	1.62718E-001	-3.99359E-004	0.00000E+000	-6.49830E-005	-2.40040E-001	1.62746E-001	3.57770E+000	9	...........
	73	0.98667	1.57179E-001	-3.99388E-004	0.00000E+000	-6.27754E-005	-2.40040E-001	1.57208E-001	3.57770E+000	9	...........
	74	1	1.51655E-001	-3.97863E-004	0.00000E+000	-6.03378E-005	-2.40040E-001	1.51684E-001	3.57770E+000	9	...........
	75	1.01333	1.46182E-001	-3.98530E-004	0.00000E+000	-5.82580E-005	-2.40040E-001	1.46201E-001	3.57770E+000	9	...........
	76	1.02667	1.40708E-001	-3.99552E-004	0.00000E+000	-5.62202E-005	-2.40040E-001	1.40733E-001	3.57770E+000	9	...........
	77	1.04	1.35290E-001	-3.98540E-004	0.00000E+000	-5.39184E-005	-2.40040E-001	1.35315E-001	3.57770E+000	9	...........
	78	1.05333	1.29911E-001	-3.97836E-004	0.00000E+000	-5.16835E-005	-2.40040E-001	1.29936E-001	3.57770E+000	9	...........
	79	1.06667	1.24492E-001	-3.97393E-004	0.00000E+000	-4.94724E-005	-2.40040E-001	1.24514E-001	3.57770E+000	9	...........
	80	1.08	1.19198E-001	-3.98310E-004	0.00000E+000	-4.74779E-005	-2.40040E-001	1.19220E-001	3.57770E+000	9	...........
	81	1.09333	1.13891E-001	-3.98381E-004	0.00000E+000	-4.53720E-005	-2.40040E-001	1.13916E-001	3.57770E+000	9	...........
	82	1.10667	1.08677E-001	-3.98022E-004	0.00000E+000	-4.32558E-005	-2.40040E-001	1.08700E-001	3.57770E+000	9	...........
	83	1.12	1.03502E-001	-3.97819E-004	0.00000E+000	-4.11748E-005	-2.40040E-001	1.03518E-001	3.57770E+000	9	...........
	84	1.13333	9.83951E-002	-3.98420E-004	0.00000E+000	-3.92026E-005	-2.40040E-001	9.84128E-002	3.57770E+000	9	...........
	85	1.14667	9.33171E-002	-3.99178E-004	0.00000E+000	-3.72501E-005	-2.40040E-001	9.33279E-002	3.57770E+000	9	...........
	86	1.16	8.82393E-002	-3.97021E-004	0.00000E+000	-3.50329E-005	-2.40040E-001	8.82557E-002	3.57770E+000	9	...........
	87	1.17333	8.31724E-002	-3.98306E-004	0.00000E+000	-3.31281E-005	-2.40040E-001	8.31813E-002	3.57770E+000	9	...........
	88	1.18667	7.81001E-002	-3.98972E-004	0.00000E+000	-3.11597E-005	-2.40040E-001	7.81067E-002	3.57770E+000	9	...........
	89	1.2	7.30797E-002	-3.99033E-004	0.00000E+000	-2.91612E-005	-2.40040E-001	7.30806E-002	3.57770E+000	9	...........
	90	1.21333	6.79983E-002	-3.97647E-004	0.00000E+000	-2.70393E-005	-2.40040E-001	6.80052E-002	3.57770E+000	9	...........
	91	1.22667	6.30200E-002	-3.98300E-004	0.00000E+000	-2.51009E-005	-2.40040E-001	6.30205E-002	3.57770E+000	9	...........
	92	1.24	5.80533E-002	-3.99797E-004	0.00000E+000	-2.32095E-005	-2.40040E-001	5.80567E-002	3.57770E+000	9	...........
	93	1.25333	5.32516E-002	-3.97755E-004	0.00000E+000	-2.11811E-005	-2.40040E-001	5.32492E-002	3.57770E+000	9	...........
	94	1.26667	4.84209E-002	-3.98458E-004	0.00000E+000	-1.92937E-005	-2.40040E-001	4.84214E-002	3.57770E+000	9	...........
	95	1.28	4.36652E-002	-3.99929E-004	0.00000E+000	-1.74630E-005	-2.40040E-001	4.36699E-002	3.57770E+000	9	...........
	96	1.29333	3.89054E-002	-3.98477E-004	0.00000E+000	-1.55029E-005	-2.40040E-001	3.89096E-002	3.57770E+000	9	...........
	97	1.30667	3.41320E-002	-3.98158E-004	0.00000E+000	-1.35899E-005	-2.40040E-001	3.41300E-002	3.57770E+000	9	...........
	98	1.32	2.93870E-002	-3.99036E-004	0.00000E+000	-1.17265E-005	-2.40040E-001	2.93826E-002	3.57770E+000	9	...........
	99	1.33333	2.47228E-002	-3.99598E-004	0.00000E+000	-9.87920E-006	-2.40040E-001	2.47148E-002	3.57770E+000	9	...........
	100	1.34667	2.01501E-002	-3.98955E-004	0.00000E+000	-8.03897E-006	-2.40040E-001	2.01426E-002	3.57770E+000	9	...........
	101	1.36	1.55588E-002	-3.99601E-004	0.00000E+000	-6.21732E-006	-2.40040E-001	1.55472E-002	3.57770E+000	9	...........
	102	1.37333	1.08769E-002	-3.98481E-004	0.00000E+000	-4.33424E-006	-2.40040E-001	1.08619E-002	3.57770E+000	9	...........
	103	1.38667	6.28095E-003	-3.99125E-004	0.00000E+000	-2.50688E-006	-2.40040E-001	6.26470E-003	3.57770E+000	9	...........
	104	1.4	1.70119E-003	-3.98362E-004	0.00000E+000	-6.77690E-007	-2.40040E-001	1.67902E-003	3.57770E+000	9	...........
STARTTIMEOFFSET	QUANT	2476.231	Start Time Offset (s)
