EXPLAIN
TAG	PWR800_DISCHARGE
TITLE	LABEL	PWR Cyclic Charge Discharge (Cell) - Discharge Step	Test &Identifier
DATE	LABEL	12-7-2017	Date
TIME	LABEL	15:02:39	Time
NOTES	NOTES	3	&Notes...
	supercap test cell
	0.4mg
	6M KOH
PSTAT	PSTAT	IFC5000-01520	Potentiostat
CAPACITY	QUANT	1.00000E-003	Capacity (A-hr)
CELLTYPE	SELECTOR	1	&Cell Type
WORKINGCONNECTION	SELECTOR	0	&Working Lead
MAXDISCHARGETIME	VARIABLEANDUNITS	1.00000E+002	s	1.00000E+002	second(s)	Max &Discharge Time
DISCHARGEMODE	MULTIPARAM	0	4.00000E-004	&Discharge Mode	Constant Current	Amp(s)
SAMPLETIME	QUANT	1.00000E-002	Sa&mple Period (s)
DISCHARGESTOPAT1	MULTIPARAM	3	0.00000E+000	Discharge Stop At &1	Voltage < Limit	V
DISCHARGESTOPAT2	MULTIPARAM	0	0.00000E+000	Discharge Stop At &2	None	N/A
AESBHCSELECTOR	TOGGLE	F	Save Both Half Cells
IRCOMP	TOGGLE	F	IR &Measure
EOC	QUANT	0	Open Circuit (V)
SEQUENCER	TOGGLE	TRUE	Run as Sequence
PSTATMODEL	IQUANT	53	Pstat Model
PSTATSECTION	LABEL	IFC5000-01520	Pstat Section
PSTATSERIALNO	LABEL	01520	Pstat Serial Number
CTRLMODE	IQUANT	0	Control Mode
ELECTROMETER	IQUANT	1	RE=0 or CS=1
IESTAB	IQUANT	0	I/E Stability
CASPEED	IQUANT	4	Control Amp Speed
CONVENTION	IQUANT	1	Current Convention
ICHRANGE	IQUANT	2	Ich Range
ICHRANGEMODE	TOGGLE	T	Ich Auto Range
ICHOFFSETENABLE	TOGGLE	F	Ich Offset Enable
ICHOFFSET	QUANT	0	Ich Offset (V)
ICHFILTER	IQUANT	1	Ich Filter
VCHRANGE	IQUANT	2	Vch Range
VCHRANGEMODE	TOGGLE	T	Vch Auto Range
VCHOFFSETENABLE	TOGGLE	F	Vch Offset Enable
VCHOFFSET	QUANT	0	Vch Offset (V)
VCHFILTER	IQUANT	1	Vch Filter
IERANGELOWERLIMIT	IQUANT	9	I/E Range Lower Limit
IERANGEMODE	TOGGLE	F	I/E AutoRange
IERANGE	IQUANT	9	I/E Range
ACHSELECT	IQUANT	1	Ach Select
ACHRANGE	IQUANT	2	Ach Range
ACHOFFSETENABLE	TOGGLE	F	Ach Offset Enable
ACHOFFSET	QUANT	0	Ach Offset (V)
ACHFILTER	IQUANT	1	Ach Filter
CABLEID	IQUANT	14	Cable ID
DCCALDATE	LABEL	5-7-2017	DC Calibration Date
ACCALDATE	LABEL	12/3/2015	AC Calibration Date
FRAMEWORKVERSION	QUANT	7.01	Framework Version
INSTRUMENTVERSION	LABEL	4.00	Instrument Version
CURVE	TABLE	108
	Pt	T	Vf	Im	Vu	Pwr	Sig	Ach	Temp	IERange	Over
	#	s	V	A	V	W	V	V	deg C	#	bits
	0	0.013333	6.91124E-001	-3.99640E-004	0.00000E+000	-2.76201E-004	-2.40040E-001	6.91334E-001	3.57620E+000	9	...........
	1	0.026667	6.78096E-001	-3.99154E-004	0.00000E+000	-2.70665E-004	-2.40040E-001	6.78302E-001	3.57620E+000	9	...........
	2	0.04	6.66704E-001	-3.99583E-004	0.00000E+000	-2.66404E-004	-2.40040E-001	6.66917E-001	3.57620E+000	9	...........
	3	0.053333	6.56138E-001	-3.98660E-004	0.00000E+000	-2.61576E-004	-2.40040E-001	6.56329E-001	3.57620E+000	9	...........
	4	0.066667	6.46297E-001	-3.98089E-004	0.00000E+000	-2.57284E-004	-2.40040E-001	6.46479E-001	3.57620E+000	9	...........
	5	0.08	6.36888E-001	-3.98552E-004	0.00000E+000	-2.53833E-004	-2.40040E-001	6.37078E-001	3.57620E+000	9	...........
	6	0.093333	6.27765E-001	-3.99482E-004	0.00000E+000	-2.50781E-004	-2.40040E-001	6.27944E-001	3.57620E+000	9	...........
	7	0.106667	6.18935E-001	-3.98729E-004	0.00000E+000	-2.46787E-004	-2.40040E-001	6.19112E-001	3.57620E+000	9	...........
	8	0.12	6.10243E-001	-3.97485E-004	0.00000E+000	-2.42563E-004	-2.40040E-001	6.10440E-001	3.57620E+000	9	...........
	9	0.133333	6.01794E-001	-4.00472E-004	0.00000E+000	-2.41002E-004	-2.40040E-001	6.01997E-001	3.57620E+000	9	...........
	10	0.146667	5.93464E-001	-3.97203E-004	0.00000E+000	-2.35726E-004	-2.40040E-001	5.93640E-001	3.57620E+000	9	...........
	11	0.16	5.85189E-001	-3.97857E-004	0.00000E+000	-2.32822E-004	-2.40040E-001	5.85398E-001	3.57620E+000	9	...........
	12	0.173333	5.77012E-001	-3.99216E-004	0.00000E+000	-2.30352E-004	-2.40040E-001	5.77236E-001	3.57620E+000	9	...........
	13	0.186667	5.68992E-001	-3.98505E-004	0.00000E+000	-2.26746E-004	-2.40040E-001	5.69175E-001	3.57620E+000	9	...........
	14	0.2	5.60979E-001	-3.98150E-004	0.00000E+000	-2.23354E-004	-2.40040E-001	5.61161E-001	3.57620E+000	9	...........
	15	0.213333	5.52976E-001	-4.00216E-004	0.00000E+000	-2.21310E-004	-2.40040E-001	5.53169E-001	3.57620E+000	9	...........
	16	0.226667	5.45070E-001	-3.98722E-004	0.00000E+000	-2.17331E-004	-2.40040E-001	5.45247E-001	3.57620E+000	9	...........
	17	0.24	5.37259E-001	-3.98584E-004	0.00000E+000	-2.14143E-004	-2.40040E-001	5.37422E-001	3.57620E+000	9	...........
	18	0.253333	5.29482E-001	-3.99354E-004	0.00000E+000	-2.11451E-004	-2.40040E-001	5.29660E-001	3.57620E+000	9	...........
	19	0.266667	5.21843E-001	-3.98829E-004	0.00000E+000	-2.08126E-004	-2.40040E-001	5.22001E-001	3.57620E+000	9	...........
	20	0.28	5.14143E-001	-3.99820E-004	0.00000E+000	-2.05565E-004	-2.40040E-001	5.14335E-001	3.57620E+000	9	...........
	21	0.293333	5.06481E-001	-3.98758E-004	0.00000E+000	-2.01964E-004	-2.40040E-001	5.06720E-001	3.57620E+000	9	...........
	22	0.306667	4.98952E-001	-3.99128E-004	0.00000E+000	-1.99146E-004	-2.40040E-001	4.99150E-001	3.57620E+000	9	...........
	23	0.32	4.91439E-001	-4.00164E-004	0.00000E+000	-1.96656E-004	-2.40040E-001	4.91673E-001	3.57620E+000	9	...........
	24	0.333333	4.84117E-001	-3.98246E-004	0.00000E+000	-1.92798E-004	-2.40040E-001	4.84244E-001	3.57620E+000	9	...........
	25	0.346667	4.76766E-001	-3.98162E-004	0.00000E+000	-1.89830E-004	-2.40040E-001	4.76866E-001	3.57620E+000	9	...........
	26	0.36	4.69421E-001	-3.99031E-004	0.00000E+000	-1.87314E-004	-2.40040E-001	4.69516E-001	3.57620E+000	9	...........
	27	0.373333	4.62039E-001	-3.97815E-004	0.00000E+000	-1.83806E-004	-2.40040E-001	4.62130E-001	3.57620E+000	9	...........
	28	0.386667	4.54688E-001	-3.98415E-004	0.00000E+000	-1.81154E-004	-2.40040E-001	4.54783E-001	3.57620E+000	9	...........
	29	0.4	4.47388E-001	-3.99821E-004	0.00000E+000	-1.78875E-004	-2.40040E-001	4.47485E-001	3.57620E+000	9	...........
	30	0.413333	4.40210E-001	-3.98311E-004	0.00000E+000	-1.75341E-004	-2.40040E-001	4.40305E-001	3.57620E+000	9	...........
	31	0.426667	4.33086E-001	-3.98361E-004	0.00000E+000	-1.72525E-004	-2.40040E-001	4.33171E-001	3.57620E+000	9	...........
	32	0.44	4.25922E-001	-3.99666E-004	0.00000E+000	-1.70227E-004	-2.40040E-001	4.26011E-001	3.57620E+000	9	...........
	33	0.453333	4.18883E-001	-3.98702E-004	0.00000E+000	-1.67010E-004	-2.40040E-001	4.18970E-001	3.57620E+000	9	...........
	34	0.466667	4.11778E-001	-3.99120E-004	0.00000E+000	-1.64349E-004	-2.40040E-001	4.11860E-001	3.57620E+000	9	...........
	35	0.48	4.04751E-001	-3.99562E-004	0.00000E+000	-1.61723E-004	-2.40040E-001	4.04825E-001	3.57620E+000	9	...........
	36	0.493333	3.97759E-001	-3.98853E-004	0.00000E+000	-1.58647E-004	-2.40040E-001	3.97836E-001	3.57620E+000	9	...........
	37	0.506667	3.90833E-001	-3.99854E-004	0.00000E+000	-1.56276E-004	-2.40040E-001	3.90909E-001	3.57620E+000	9	...........
	38	0.52	3.83959E-001	-3.97759E-004	0.00000E+000	-1.52723E-004	-2.40040E-001	3.84034E-001	3.57620E+000	9	...........
	39	0.533333	3.77072E-001	-3.98741E-004	0.00000E+000	-1.50354E-004	-2.40040E-001	3.77145E-001	3.57620E+000	9	...........
	40	0.546667	3.70254E-001	-3.98435E-004	0.00000E+000	-1.47522E-004	-2.40040E-001	3.70326E-001	3.57620E+000	9	...........
	41	0.56	3.63474E-001	-3.98623E-004	0.00000E+000	-1.44889E-004	-2.40040E-001	3.63544E-001	3.57620E+000	9	...........
	42	0.573333	3.56792E-001	-3.99375E-004	0.00000E+000	-1.42494E-004	-2.40040E-001	3.56865E-001	3.57620E+000	9	...........
	43	0.586667	3.50114E-001	-3.99451E-004	0.00000E+000	-1.39854E-004	-2.40040E-001	3.50185E-001	3.57620E+000	9	...........
	44	0.6	3.43432E-001	-3.98607E-004	0.00000E+000	-1.36895E-004	-2.40040E-001	3.43502E-001	3.57620E+000	9	...........
	45	0.613333	3.36911E-001	-3.98078E-004	0.00000E+000	-1.34117E-004	-2.40040E-001	3.36976E-001	3.57620E+000	9	...........
	46	0.626667	3.30346E-001	-3.99204E-004	0.00000E+000	-1.31875E-004	-2.40040E-001	3.30415E-001	3.57620E+000	9	...........
	47	0.64	3.23853E-001	-3.98222E-004	0.00000E+000	-1.28965E-004	-2.40040E-001	3.23914E-001	3.57620E+000	9	...........
	48	0.653333	3.17308E-001	-3.98121E-004	0.00000E+000	-1.26327E-004	-2.40040E-001	3.17369E-001	3.57620E+000	9	...........
	49	0.666667	3.10888E-001	-3.98712E-004	0.00000E+000	-1.23955E-004	-2.40040E-001	3.10950E-001	3.57620E+000	9	...........
	50	0.68	3.04531E-001	-3.98700E-004	0.00000E+000	-1.21416E-004	-2.40040E-001	3.04591E-001	3.57620E+000	9	...........
	51	0.693333	2.98121E-001	-3.99390E-004	0.00000E+000	-1.19066E-004	-2.40040E-001	2.98178E-001	3.57620E+000	9	...........
	52	0.706667	2.91810E-001	-3.99381E-004	0.00000E+000	-1.16544E-004	-2.40040E-001	2.91867E-001	3.57620E+000	9	...........
	53	0.72	2.85648E-001	-3.98172E-004	0.00000E+000	-1.13737E-004	-2.40040E-001	2.85703E-001	3.57620E+000	9	...........
	54	0.733333	2.79476E-001	-3.98581E-004	0.00000E+000	-1.11394E-004	-2.40040E-001	2.79536E-001	3.57620E+000	9	...........
	55	0.746667	2.73285E-001	-3.98940E-004	0.00000E+000	-1.09024E-004	-2.40040E-001	2.73345E-001	3.57620E+000	9	...........
	56	0.76	2.67071E-001	-3.99266E-004	0.00000E+000	-1.06632E-004	-2.40040E-001	2.67126E-001	3.57620E+000	9	...........
	57	0.773333	2.60908E-001	-3.99764E-004	0.00000E+000	-1.04301E-004	-2.40040E-001	2.60962E-001	3.57760E+000	9	...........
	58	0.786667	2.54844E-001	-3.98821E-004	0.00000E+000	-1.01637E-004	-2.40040E-001	2.54899E-001	3.57760E+000	9	...........
	59	0.8	2.48847E-001	-3.98661E-004	0.00000E+000	-9.92056E-005	-2.40040E-001	2.48896E-001	3.57760E+000	9	...........
	60	0.813333	2.42848E-001	-3.99057E-004	0.00000E+000	-9.69102E-005	-2.40040E-001	2.42893E-001	3.57760E+000	9	...........
	61	0.826667	2.36912E-001	-3.99418E-004	0.00000E+000	-9.46270E-005	-2.40040E-001	2.36962E-001	3.57760E+000	9	...........
	62	0.84	2.30980E-001	-3.98711E-004	0.00000E+000	-9.20945E-005	-2.40040E-001	2.31025E-001	3.57760E+000	9	...........
	63	0.853333	2.25199E-001	-3.98479E-004	0.00000E+000	-8.97369E-005	-2.40040E-001	2.25243E-001	3.57760E+000	9	...........
	64	0.866667	2.19339E-001	-3.98584E-004	0.00000E+000	-8.74252E-005	-2.40040E-001	2.19377E-001	3.57760E+000	9	...........
	65	0.88	2.13418E-001	-3.98497E-004	0.00000E+000	-8.50466E-005	-2.40040E-001	2.13462E-001	3.57760E+000	9	...........
	66	0.893333	2.07601E-001	-3.98874E-004	0.00000E+000	-8.28067E-005	-2.40040E-001	2.07645E-001	3.57760E+000	9	...........
	67	0.906667	2.01931E-001	-3.98120E-004	0.00000E+000	-8.03925E-005	-2.40040E-001	2.01969E-001	3.57760E+000	9	...........
	68	0.92	1.96233E-001	-3.98677E-004	0.00000E+000	-7.82337E-005	-2.40040E-001	1.96272E-001	3.57760E+000	9	...........
	69	0.933333	1.90636E-001	-3.98267E-004	0.00000E+000	-7.59238E-005	-2.40040E-001	1.90671E-001	3.57760E+000	9	...........
	70	0.946667	1.85006E-001	-3.98622E-004	0.00000E+000	-7.37472E-005	-2.40040E-001	1.85044E-001	3.57760E+000	9	...........
	71	0.96	1.79398E-001	-3.98677E-004	0.00000E+000	-7.15221E-005	-2.40040E-001	1.79434E-001	3.57760E+000	9	...........
	72	0.97333	1.73885E-001	-3.99467E-004	0.00000E+000	-6.94612E-005	-2.40040E-001	1.73918E-001	3.57760E+000	9	...........
	73	0.98667	1.68388E-001	-3.97981E-004	0.00000E+000	-6.70152E-005	-2.40040E-001	1.68417E-001	3.57760E+000	9	...........
	74	1	1.62917E-001	-3.99419E-004	0.00000E+000	-6.50721E-005	-2.40040E-001	1.62947E-001	3.57760E+000	9	...........
	75	1.01333	1.57456E-001	-3.99204E-004	0.00000E+000	-6.28571E-005	-2.40040E-001	1.57482E-001	3.57760E+000	9	...........
	76	1.02667	1.52019E-001	-3.99444E-004	0.00000E+000	-6.07230E-005	-2.40040E-001	1.52043E-001	3.57760E+000	9	...........
	77	1.04	1.46727E-001	-3.98778E-004	0.00000E+000	-5.85116E-005	-2.40040E-001	1.46755E-001	3.57760E+000	9	...........
	78	1.05333	1.41385E-001	-3.98927E-004	0.00000E+000	-5.64024E-005	-2.40040E-001	1.41407E-001	3.57760E+000	9	...........
	79	1.06667	1.36125E-001	-3.98901E-004	0.00000E+000	-5.43005E-005	-2.40040E-001	1.36150E-001	3.57760E+000	9	...........
	80	1.08	1.30831E-001	-3.98532E-004	0.00000E+000	-5.21406E-005	-2.40040E-001	1.30854E-001	3.57760E+000	9	...........
	81	1.09333	1.25602E-001	-3.98512E-004	0.00000E+000	-5.00541E-005	-2.40040E-001	1.25619E-001	3.57760E+000	9	...........
	82	1.10667	1.20362E-001	-3.97731E-004	0.00000E+000	-4.78717E-005	-2.40040E-001	1.20380E-001	3.57760E+000	9	...........
	83	1.12	1.15152E-001	-3.98850E-004	0.00000E+000	-4.59284E-005	-2.40040E-001	1.15174E-001	3.57760E+000	9	...........
	84	1.13333	1.09991E-001	-3.98033E-004	0.00000E+000	-4.37802E-005	-2.40040E-001	1.10011E-001	3.57760E+000	9	...........
	85	1.14667	1.04881E-001	-3.98020E-004	0.00000E+000	-4.17447E-005	-2.40040E-001	1.04898E-001	3.57760E+000	9	...........
	86	1.16	9.98061E-002	-3.98487E-004	0.00000E+000	-3.97715E-005	-2.40040E-001	9.98277E-002	3.57760E+000	9	...........
	87	1.17333	9.47260E-002	-3.98194E-004	0.00000E+000	-3.77193E-005	-2.40040E-001	9.47436E-002	3.57760E+000	9	...........
	88	1.18667	8.97402E-002	-3.97777E-004	0.00000E+000	-3.56966E-005	-2.40040E-001	8.97546E-002	3.57760E+000	9	...........
	89	1.2	8.47576E-002	-3.98366E-004	0.00000E+000	-3.37645E-005	-2.40040E-001	8.47702E-002	3.57760E+000	9	...........
	90	1.21333	7.98581E-002	-3.98181E-004	0.00000E+000	-3.17980E-005	-2.40040E-001	7.98719E-002	3.57760E+000	9	...........
	91	1.22667	7.48980E-002	-3.99827E-004	0.00000E+000	-2.99463E-005	-2.40040E-001	7.49099E-002	3.57760E+000	9	...........
	92	1.24	7.00159E-002	-3.99225E-004	0.00000E+000	-2.79521E-005	-2.40040E-001	7.00214E-002	3.57760E+000	9	...........
	93	1.25333	6.51965E-002	-3.98121E-004	0.00000E+000	-2.59561E-005	-2.40040E-001	6.52028E-002	3.57760E+000	9	...........
	94	1.26667	6.04060E-002	-3.99493E-004	0.00000E+000	-2.41318E-005	-2.40040E-001	6.04161E-002	3.57760E+000	9	...........
	95	1.28	5.56887E-002	-3.97650E-004	0.00000E+000	-2.21446E-005	-2.40040E-001	5.56980E-002	3.57760E+000	9	...........
	96	1.29333	5.09415E-002	-3.98111E-004	0.00000E+000	-2.02804E-005	-2.40040E-001	5.09425E-002	3.57760E+000	9	...........
	97	1.30667	4.62328E-002	-3.98710E-004	0.00000E+000	-1.84335E-005	-2.40040E-001	4.62396E-002	3.57760E+000	9	...........
	98	1.32	4.14632E-002	-3.98669E-004	0.00000E+000	-1.65301E-005	-2.40040E-001	4.14678E-002	3.57760E+000	9	...........
	99	1.33333	3.67167E-002	-3.98284E-004	0.00000E+000	-1.46237E-005	-2.40040E-001	3.67178E-002	3.57760E+000	9	...........
	100	1.34667	3.20709E-002	-3.99496E-004	0.00000E+000	-1.28122E-005	-2.40040E-001	3.20755E-002	3.57760E+000	9	...........
	101	1.36	2.74079E-002	-3.99015E-004	0.00000E+000	-1.09361E-005	-2.40040E-001	2.74070E-002	3.57760E+000	9	...........
	102	1.37333	2.27816E-002	-3.98983E-004	0.00000E+000	-9.08948E-006	-2.40040E-001	2.27729E-002	3.57760E+000	9	...........
	103	1.38667	1.82316E-002	-3.97640E-004	0.00000E+000	-7.24961E-006	-2.40040E-001	1.82213E-002	3.57760E+000	9	...........
	104	1.4	1.35846E-002	-3.99010E-004	0.00000E+000	-5.42041E-006	-2.40040E-001	1.35727E-002	3.57760E+000	9	...........
	105	1.41333	9.11741E-003	-3.98523E-004	0.00000E+000	-3.63350E-006	-2.40040E-001	9.10268E-003	3.57760E+000	9	...........
	106	1.42667	4.60077E-003	-3.99092E-004	0.00000E+000	-1.83613E-006	-2.40040E-001	4.58218E-003	3.57760E+000	9	...........
	107	1.435	9.89596E-004	-3.98464E-004	0.00000E+000	-3.94319E-007	-2.40040E-001	9.70770E-004	3.57760E+000	9	...........
STARTTIMEOFFSET	QUANT	2097.672	Start Time Offset (s)
