EXPLAIN
TAG	PWR800_DISCHARGE
TITLE	LABEL	PWR Cyclic Charge Discharge (Cell) - Discharge Step	Test &Identifier
DATE	LABEL	12-7-2017	Date
TIME	LABEL	15:18:40	Time
NOTES	NOTES	3	&Notes...
	supercap test cell
	0.4mg
	6M KOH
PSTAT	PSTAT	IFC5000-01520	Potentiostat
CAPACITY	QUANT	1.00000E-003	Capacity (A-hr)
CELLTYPE	SELECTOR	1	&Cell Type
WORKINGCONNECTION	SELECTOR	0	&Working Lead
MAXDISCHARGETIME	VARIABLEANDUNITS	1.00000E+002	s	1.00000E+002	second(s)	Max &Discharge Time
DISCHARGEMODE	MULTIPARAM	0	4.00000E-004	&Discharge Mode	Constant Current	Amp(s)
SAMPLETIME	QUANT	1.00000E-002	Sa&mple Period (s)
DISCHARGESTOPAT1	MULTIPARAM	3	0.00000E+000	Discharge Stop At &1	Voltage < Limit	V
DISCHARGESTOPAT2	MULTIPARAM	0	0.00000E+000	Discharge Stop At &2	None	N/A
AESBHCSELECTOR	TOGGLE	F	Save Both Half Cells
IRCOMP	TOGGLE	F	IR &Measure
EOC	QUANT	0	Open Circuit (V)
SEQUENCER	TOGGLE	TRUE	Run as Sequence
PSTATMODEL	IQUANT	53	Pstat Model
PSTATSECTION	LABEL	IFC5000-01520	Pstat Section
PSTATSERIALNO	LABEL	01520	Pstat Serial Number
CTRLMODE	IQUANT	0	Control Mode
ELECTROMETER	IQUANT	1	RE=0 or CS=1
IESTAB	IQUANT	0	I/E Stability
CASPEED	IQUANT	4	Control Amp Speed
CONVENTION	IQUANT	1	Current Convention
ICHRANGE	IQUANT	2	Ich Range
ICHRANGEMODE	TOGGLE	T	Ich Auto Range
ICHOFFSETENABLE	TOGGLE	F	Ich Offset Enable
ICHOFFSET	QUANT	0	Ich Offset (V)
ICHFILTER	IQUANT	1	Ich Filter
VCHRANGE	IQUANT	2	Vch Range
VCHRANGEMODE	TOGGLE	T	Vch Auto Range
VCHOFFSETENABLE	TOGGLE	F	Vch Offset Enable
VCHOFFSET	QUANT	0	Vch Offset (V)
VCHFILTER	IQUANT	1	Vch Filter
IERANGELOWERLIMIT	IQUANT	9	I/E Range Lower Limit
IERANGEMODE	TOGGLE	F	I/E AutoRange
IERANGE	IQUANT	9	I/E Range
ACHSELECT	IQUANT	1	Ach Select
ACHRANGE	IQUANT	2	Ach Range
ACHOFFSETENABLE	TOGGLE	F	Ach Offset Enable
ACHOFFSET	QUANT	0	Ach Offset (V)
ACHFILTER	IQUANT	1	Ach Filter
CABLEID	IQUANT	14	Cable ID
DCCALDATE	LABEL	5-7-2017	DC Calibration Date
ACCALDATE	LABEL	12/3/2015	AC Calibration Date
FRAMEWORKVERSION	QUANT	7.01	Framework Version
INSTRUMENTVERSION	LABEL	4.00	Instrument Version
CURVE	TABLE	103
	Pt	T	Vf	Im	Vu	Pwr	Sig	Ach	Temp	IERange	Over
	#	s	V	A	V	W	V	V	deg C	#	bits
	0	0.013333	6.81687E-001	-3.99181E-004	0.00000E+000	-2.72117E-004	-2.40040E-001	6.81909E-001	3.57780E+000	9	...........
	1	0.026667	6.68030E-001	-3.98777E-004	0.00000E+000	-2.66395E-004	-2.40040E-001	6.68263E-001	3.57780E+000	9	...........
	2	0.04	6.56174E-001	-3.99245E-004	0.00000E+000	-2.61974E-004	-2.40040E-001	6.56387E-001	3.57780E+000	9	...........
	3	0.053333	6.45324E-001	-3.97150E-004	0.00000E+000	-2.56290E-004	-2.40040E-001	6.45529E-001	3.57780E+000	9	...........
	4	0.066667	6.35185E-001	-4.00518E-004	0.00000E+000	-2.54403E-004	-2.40040E-001	6.35354E-001	3.57683E+000	9	...........
	5	0.08	6.25455E-001	-3.97934E-004	0.00000E+000	-2.48890E-004	-2.40040E-001	6.25636E-001	3.57640E+000	9	...........
	6	0.093333	6.16019E-001	-3.97930E-004	0.00000E+000	-2.45132E-004	-2.40040E-001	6.16197E-001	3.57640E+000	9	...........
	7	0.106667	6.06843E-001	-3.97469E-004	0.00000E+000	-2.41202E-004	-2.40040E-001	6.07088E-001	3.57640E+000	9	...........
	8	0.12	5.98044E-001	-3.98745E-004	0.00000E+000	-2.38467E-004	-2.40040E-001	5.98268E-001	3.57640E+000	9	...........
	9	0.133333	5.89353E-001	-4.00192E-004	0.00000E+000	-2.35854E-004	-2.40040E-001	5.89566E-001	3.57640E+000	9	...........
	10	0.146667	5.80779E-001	-3.97163E-004	0.00000E+000	-2.30664E-004	-2.40040E-001	5.81015E-001	3.57640E+000	9	...........
	11	0.16	5.72343E-001	-3.98988E-004	0.00000E+000	-2.28358E-004	-2.40040E-001	5.72553E-001	3.57640E+000	9	...........
	12	0.173333	5.64001E-001	-3.99346E-004	0.00000E+000	-2.25232E-004	-2.40040E-001	5.64220E-001	3.57640E+000	9	...........
	13	0.186667	5.55707E-001	-3.98738E-004	0.00000E+000	-2.21582E-004	-2.40040E-001	5.55935E-001	3.57640E+000	9	...........
	14	0.2	5.47442E-001	-3.99226E-004	0.00000E+000	-2.18553E-004	-2.40040E-001	5.47664E-001	3.57640E+000	9	...........
	15	0.213333	5.39283E-001	-3.98614E-004	0.00000E+000	-2.14966E-004	-2.40040E-001	5.39490E-001	3.57640E+000	9	...........
	16	0.226667	5.31159E-001	-3.98898E-004	0.00000E+000	-2.11878E-004	-2.40040E-001	5.31359E-001	3.57640E+000	9	...........
	17	0.24	5.23135E-001	-3.99272E-004	0.00000E+000	-2.08873E-004	-2.40040E-001	5.23356E-001	3.57640E+000	9	...........
	18	0.253333	5.15121E-001	-3.99964E-004	0.00000E+000	-2.06030E-004	-2.40040E-001	5.15295E-001	3.57640E+000	9	...........
	19	0.266667	5.07091E-001	-4.00098E-004	0.00000E+000	-2.02886E-004	-2.40040E-001	5.07298E-001	3.57640E+000	9	...........
	20	0.28	4.99180E-001	-3.98961E-004	0.00000E+000	-1.99153E-004	-2.40040E-001	4.99379E-001	3.57640E+000	9	...........
	21	0.293333	4.91331E-001	-3.98996E-004	0.00000E+000	-1.96039E-004	-2.40040E-001	4.91479E-001	3.57640E+000	9	...........
	22	0.306667	4.83667E-001	-3.99174E-004	0.00000E+000	-1.93067E-004	-2.40040E-001	4.83802E-001	3.57640E+000	9	...........
	23	0.32	4.75963E-001	-3.98851E-004	0.00000E+000	-1.89838E-004	-2.40040E-001	4.76058E-001	3.57640E+000	9	...........
	24	0.333333	4.68295E-001	-3.98989E-004	0.00000E+000	-1.86844E-004	-2.40040E-001	4.68392E-001	3.57640E+000	9	...........
	25	0.346667	4.60606E-001	-3.99581E-004	0.00000E+000	-1.84050E-004	-2.40040E-001	4.60697E-001	3.57640E+000	9	...........
	26	0.36	4.53043E-001	-3.97934E-004	0.00000E+000	-1.80281E-004	-2.40040E-001	4.53130E-001	3.57640E+000	9	...........
	27	0.373333	4.45487E-001	-3.98840E-004	0.00000E+000	-1.77678E-004	-2.40040E-001	4.45578E-001	3.57640E+000	9	...........
	28	0.386667	4.37969E-001	-3.98435E-004	0.00000E+000	-1.74502E-004	-2.40040E-001	4.38064E-001	3.57640E+000	9	...........
	29	0.4	4.30480E-001	-3.98363E-004	0.00000E+000	-1.71487E-004	-2.40040E-001	4.30564E-001	3.57640E+000	9	...........
	30	0.413333	4.23046E-001	-3.97617E-004	0.00000E+000	-1.68211E-004	-2.40040E-001	4.23131E-001	3.57640E+000	9	...........
	31	0.426667	4.15705E-001	-3.99177E-004	0.00000E+000	-1.65940E-004	-2.40040E-001	4.15788E-001	3.57640E+000	9	...........
	32	0.44	4.08388E-001	-3.98803E-004	0.00000E+000	-1.62866E-004	-2.40040E-001	4.08471E-001	3.57640E+000	9	...........
	33	0.453333	4.01144E-001	-3.98262E-004	0.00000E+000	-1.59761E-004	-2.40040E-001	4.01225E-001	3.57640E+000	9	...........
	34	0.466667	3.93827E-001	-3.99105E-004	0.00000E+000	-1.57178E-004	-2.40040E-001	3.93900E-001	3.57640E+000	9	...........
	35	0.48	3.86538E-001	-3.98690E-004	0.00000E+000	-1.54109E-004	-2.40040E-001	3.86615E-001	3.57640E+000	9	...........
	36	0.493333	3.79359E-001	-3.99529E-004	0.00000E+000	-1.51565E-004	-2.40040E-001	3.79435E-001	3.57640E+000	9	...........
	37	0.506667	3.72231E-001	-3.99032E-004	0.00000E+000	-1.48532E-004	-2.40040E-001	3.72300E-001	3.57640E+000	9	...........
	38	0.52	3.65142E-001	-3.98242E-004	0.00000E+000	-1.45415E-004	-2.40040E-001	3.65215E-001	3.57640E+000	9	...........
	39	0.533333	3.58140E-001	-3.98652E-004	0.00000E+000	-1.42773E-004	-2.40040E-001	3.58216E-001	3.57640E+000	9	...........
	40	0.546667	3.51099E-001	-3.99176E-004	0.00000E+000	-1.40150E-004	-2.40040E-001	3.51166E-001	3.57640E+000	9	...........
	41	0.56	3.44141E-001	-3.99662E-004	0.00000E+000	-1.37540E-004	-2.40040E-001	3.44212E-001	3.57640E+000	9	...........
	42	0.573333	3.37261E-001	-3.99096E-004	0.00000E+000	-1.34600E-004	-2.40040E-001	3.37327E-001	3.57640E+000	9	...........
	43	0.586667	3.30387E-001	-3.97351E-004	0.00000E+000	-1.31279E-004	-2.40040E-001	3.30452E-001	3.57640E+000	9	...........
	44	0.6	3.23587E-001	-3.98196E-004	0.00000E+000	-1.28851E-004	-2.40040E-001	3.23649E-001	3.57640E+000	9	...........
	45	0.613333	3.16888E-001	-3.97914E-004	0.00000E+000	-1.26094E-004	-2.40040E-001	3.16952E-001	3.57640E+000	9	...........
	46	0.626667	3.10156E-001	-3.99614E-004	0.00000E+000	-1.23943E-004	-2.40040E-001	3.10220E-001	3.57640E+000	9	...........
	47	0.64	3.03474E-001	-3.98458E-004	0.00000E+000	-1.20922E-004	-2.40040E-001	3.03536E-001	3.57640E+000	9	...........
	48	0.653333	2.96885E-001	-3.99044E-004	0.00000E+000	-1.18470E-004	-2.40040E-001	2.96946E-001	3.57640E+000	9	...........
	49	0.666667	2.90307E-001	-3.99726E-004	0.00000E+000	-1.16043E-004	-2.40040E-001	2.90367E-001	3.57640E+000	9	...........
	50	0.68	2.83737E-001	-3.97719E-004	0.00000E+000	-1.12847E-004	-2.40040E-001	2.83801E-001	3.57640E+000	9	...........
	51	0.693333	2.77217E-001	-3.98876E-004	0.00000E+000	-1.10575E-004	-2.40040E-001	2.77271E-001	3.57640E+000	9	...........
	52	0.706667	2.70664E-001	-3.97512E-004	0.00000E+000	-1.07592E-004	-2.40040E-001	2.70723E-001	3.57640E+000	9	...........
	53	0.72	2.64274E-001	-3.98948E-004	0.00000E+000	-1.05432E-004	-2.40040E-001	2.64330E-001	3.57640E+000	9	...........
	54	0.733333	2.57892E-001	-3.99942E-004	0.00000E+000	-1.03142E-004	-2.40040E-001	2.57944E-001	3.57640E+000	9	...........
	55	0.746667	2.51593E-001	-3.99350E-004	0.00000E+000	-1.00474E-004	-2.40040E-001	2.51644E-001	3.57640E+000	9	...........
	56	0.76	2.45373E-001	-3.99155E-004	0.00000E+000	-9.79419E-005	-2.40040E-001	2.45421E-001	3.57640E+000	9	...........
	57	0.773333	2.39076E-001	-3.98252E-004	0.00000E+000	-9.52127E-005	-2.40040E-001	2.39122E-001	3.57640E+000	9	...........
	58	0.786667	2.32904E-001	-3.98474E-004	0.00000E+000	-9.28062E-005	-2.40040E-001	2.32944E-001	3.57640E+000	9	...........
	59	0.8	2.26776E-001	-3.98389E-004	0.00000E+000	-9.03450E-005	-2.40040E-001	2.26818E-001	3.57640E+000	9	...........
	60	0.813333	2.20693E-001	-3.98527E-004	0.00000E+000	-8.79520E-005	-2.40040E-001	2.20736E-001	3.57640E+000	9	...........
	61	0.826667	2.14557E-001	-3.97745E-004	0.00000E+000	-8.53388E-005	-2.40040E-001	2.14590E-001	3.57640E+000	9	...........
	62	0.84	2.08506E-001	-3.98707E-004	0.00000E+000	-8.31328E-005	-2.40040E-001	2.08540E-001	3.57640E+000	9	...........
	63	0.853333	2.02533E-001	-3.99610E-004	0.00000E+000	-8.09340E-005	-2.40040E-001	2.02570E-001	3.57640E+000	9	...........
	64	0.866667	1.96604E-001	-3.98626E-004	0.00000E+000	-7.83714E-005	-2.40040E-001	1.96637E-001	3.57640E+000	9	...........
	65	0.88	1.90692E-001	-4.00137E-004	0.00000E+000	-7.63027E-005	-2.40040E-001	1.90729E-001	3.57640E+000	9	...........
	66	0.893333	1.84865E-001	-3.99004E-004	0.00000E+000	-7.37620E-005	-2.40040E-001	1.84900E-001	3.57640E+000	9	...........
	67	0.906667	1.78979E-001	-3.97995E-004	0.00000E+000	-7.12327E-005	-2.40040E-001	1.79020E-001	3.57640E+000	9	...........
	68	0.92	1.73184E-001	-3.97867E-004	0.00000E+000	-6.89044E-005	-2.40040E-001	1.73218E-001	3.57640E+000	9	...........
	69	0.933333	1.67403E-001	-3.99674E-004	0.00000E+000	-6.69066E-005	-2.40040E-001	1.67434E-001	3.57640E+000	9	...........
	70	0.946667	1.61577E-001	-3.99106E-004	0.00000E+000	-6.44863E-005	-2.40040E-001	1.61614E-001	3.57640E+000	9	...........
	71	0.96	1.55900E-001	-3.98204E-004	0.00000E+000	-6.20801E-005	-2.40040E-001	1.55929E-001	3.57640E+000	9	...........
	72	0.97333	1.50309E-001	-3.99374E-004	0.00000E+000	-6.00295E-005	-2.40040E-001	1.50337E-001	3.57640E+000	9	...........
	73	0.98667	1.44742E-001	-4.00100E-004	0.00000E+000	-5.79114E-005	-2.40040E-001	1.44774E-001	3.57640E+000	9	...........
	74	1	1.39153E-001	-3.98972E-004	0.00000E+000	-5.55183E-005	-2.40040E-001	1.39185E-001	3.57640E+000	9	...........
	75	1.01333	1.33597E-001	-3.99542E-004	0.00000E+000	-5.33777E-005	-2.40040E-001	1.33625E-001	3.57640E+000	9	...........
	76	1.02667	1.28124E-001	-3.97394E-004	0.00000E+000	-5.09158E-005	-2.40040E-001	1.28153E-001	3.57640E+000	9	...........
	77	1.04	1.22703E-001	-3.97562E-004	0.00000E+000	-4.87820E-005	-2.40040E-001	1.22721E-001	3.57640E+000	9	...........
	78	1.05333	1.17297E-001	-3.99166E-004	0.00000E+000	-4.68210E-005	-2.40040E-001	1.17319E-001	3.57640E+000	9	...........
	79	1.06667	1.11928E-001	-3.97771E-004	0.00000E+000	-4.45218E-005	-2.40040E-001	1.11952E-001	3.57640E+000	9	...........
	80	1.08	1.06683E-001	-3.97729E-004	0.00000E+000	-4.24309E-005	-2.40040E-001	1.06702E-001	3.57640E+000	9	...........
	81	1.09333	1.01327E-001	-3.98785E-004	0.00000E+000	-4.04078E-005	-2.40040E-001	1.01349E-001	3.57640E+000	9	...........
	82	1.10667	9.60867E-002	-3.98825E-004	0.00000E+000	-3.83218E-005	-2.40040E-001	9.61071E-002	3.57640E+000	9	...........
	83	1.12	9.08469E-002	-3.98207E-004	0.00000E+000	-3.61759E-005	-2.40040E-001	9.08626E-002	3.57640E+000	9	...........
	84	1.13333	8.56553E-002	-3.99721E-004	0.00000E+000	-3.42382E-005	-2.40040E-001	8.56658E-002	3.57640E+000	9	...........
	85	1.14667	8.04921E-002	-3.98287E-004	0.00000E+000	-3.20590E-005	-2.40040E-001	8.05081E-002	3.57640E+000	9	...........
	86	1.16	7.53509E-002	-3.99396E-004	0.00000E+000	-3.00948E-005	-2.40040E-001	7.53644E-002	3.57640E+000	9	...........
	87	1.17333	7.03597E-002	-3.98760E-004	0.00000E+000	-2.80567E-005	-2.40040E-001	7.03654E-002	3.57640E+000	9	...........
	88	1.18667	6.53861E-002	-3.98885E-004	0.00000E+000	-2.60816E-005	-2.40040E-001	6.53931E-002	3.57640E+000	9	...........
	89	1.2	6.04632E-002	-3.98608E-004	0.00000E+000	-2.41011E-005	-2.40040E-001	6.04711E-002	3.57640E+000	9	...........
	90	1.21333	5.55347E-002	-3.98800E-004	0.00000E+000	-2.21473E-005	-2.40040E-001	5.55341E-002	3.57640E+000	9	...........
	91	1.22667	5.06133E-002	-4.00197E-004	0.00000E+000	-2.02553E-005	-2.40040E-001	5.06182E-002	3.57640E+000	9	...........
	92	1.24	4.57201E-002	-3.98518E-004	0.00000E+000	-1.82203E-005	-2.40040E-001	4.57276E-002	3.57640E+000	9	...........
	93	1.25333	4.08833E-002	-3.99213E-004	0.00000E+000	-1.63211E-005	-2.40040E-001	4.08861E-002	3.57640E+000	9	...........
	94	1.26667	3.60190E-002	-3.98210E-004	0.00000E+000	-1.43431E-005	-2.40040E-001	3.60224E-002	3.57640E+000	9	...........
	95	1.28	3.12090E-002	-3.98842E-004	0.00000E+000	-1.24474E-005	-2.40040E-001	3.12121E-002	3.57640E+000	9	...........
	96	1.29333	2.64840E-002	-3.99636E-004	0.00000E+000	-1.05839E-005	-2.40040E-001	2.64795E-002	3.57640E+000	9	...........
	97	1.30667	2.17315E-002	-3.97782E-004	0.00000E+000	-8.64439E-006	-2.40040E-001	2.17232E-002	3.57640E+000	9	...........
	98	1.32	1.70028E-002	-3.98823E-004	0.00000E+000	-6.78111E-006	-2.40040E-001	1.69926E-002	3.57640E+000	9	...........
	99	1.33333	1.22853E-002	-3.98362E-004	0.00000E+000	-4.89399E-006	-2.40040E-001	1.22733E-002	3.57640E+000	9	...........
	100	1.34667	7.62630E-003	-3.98093E-004	0.00000E+000	-3.03597E-006	-2.40040E-001	7.60755E-003	3.57640E+000	9	...........
	101	1.36	3.01948E-003	-3.98148E-004	0.00000E+000	-1.20220E-006	-2.40040E-001	2.99889E-003	3.57640E+000	9	...........
	102	1.36333	1.26755E-004	-4.02636E-004	0.00000E+000	-5.10363E-008	-2.40040E-001	1.08875E-004	3.57640E+000	9	...........
STARTTIMEOFFSET	QUANT	2844.51	Start Time Offset (s)
