EXPLAIN
TAG	PWR800_DISCHARGE
TITLE	LABEL	PWR Cyclic Charge Discharge (Cell) - Discharge Step	Test &Identifier
DATE	LABEL	12-7-2017	Date
TIME	LABEL	15:05:06	Time
NOTES	NOTES	3	&Notes...
	supercap test cell
	0.4mg
	6M KOH
PSTAT	PSTAT	IFC5000-01520	Potentiostat
CAPACITY	QUANT	1.00000E-003	Capacity (A-hr)
CELLTYPE	SELECTOR	1	&Cell Type
WORKINGCONNECTION	SELECTOR	0	&Working Lead
MAXDISCHARGETIME	VARIABLEANDUNITS	1.00000E+002	s	1.00000E+002	second(s)	Max &Discharge Time
DISCHARGEMODE	MULTIPARAM	0	4.00000E-004	&Discharge Mode	Constant Current	Amp(s)
SAMPLETIME	QUANT	1.00000E-002	Sa&mple Period (s)
DISCHARGESTOPAT1	MULTIPARAM	3	0.00000E+000	Discharge Stop At &1	Voltage < Limit	V
DISCHARGESTOPAT2	MULTIPARAM	0	0.00000E+000	Discharge Stop At &2	None	N/A
AESBHCSELECTOR	TOGGLE	F	Save Both Half Cells
IRCOMP	TOGGLE	F	IR &Measure
EOC	QUANT	0	Open Circuit (V)
SEQUENCER	TOGGLE	TRUE	Run as Sequence
PSTATMODEL	IQUANT	53	Pstat Model
PSTATSECTION	LABEL	IFC5000-01520	Pstat Section
PSTATSERIALNO	LABEL	01520	Pstat Serial Number
CTRLMODE	IQUANT	0	Control Mode
ELECTROMETER	IQUANT	1	RE=0 or CS=1
IESTAB	IQUANT	0	I/E Stability
CASPEED	IQUANT	4	Control Amp Speed
CONVENTION	IQUANT	1	Current Convention
ICHRANGE	IQUANT	2	Ich Range
ICHRANGEMODE	TOGGLE	T	Ich Auto Range
ICHOFFSETENABLE	TOGGLE	F	Ich Offset Enable
ICHOFFSET	QUANT	0	Ich Offset (V)
ICHFILTER	IQUANT	1	Ich Filter
VCHRANGE	IQUANT	2	Vch Range
VCHRANGEMODE	TOGGLE	T	Vch Auto Range
VCHOFFSETENABLE	TOGGLE	F	Vch Offset Enable
VCHOFFSET	QUANT	0	Vch Offset (V)
VCHFILTER	IQUANT	1	Vch Filter
IERANGELOWERLIMIT	IQUANT	9	I/E Range Lower Limit
IERANGEMODE	TOGGLE	F	I/E AutoRange
IERANGE	IQUANT	9	I/E Range
ACHSELECT	IQUANT	1	Ach Select
ACHRANGE	IQUANT	2	Ach Range
ACHOFFSETENABLE	TOGGLE	F	Ach Offset Enable
ACHOFFSET	QUANT	0	Ach Offset (V)
ACHFILTER	IQUANT	1	Ach Filter
CABLEID	IQUANT	14	Cable ID
DCCALDATE	LABEL	5-7-2017	DC Calibration Date
ACCALDATE	LABEL	12/3/2015	AC Calibration Date
FRAMEWORKVERSION	QUANT	7.01	Framework Version
INSTRUMENTVERSION	LABEL	4.00	Instrument Version
CURVE	TABLE	107
	Pt	T	Vf	Im	Vu	Pwr	Sig	Ach	Temp	IERange	Over
	#	s	V	A	V	W	V	V	deg C	#	bits
	0	0.013333	6.87646E-001	-3.99494E-004	0.00000E+000	-2.74710E-004	-2.40040E-001	6.87912E-001	3.57630E+000	9	...........
	1	0.026667	6.74588E-001	-3.98600E-004	0.00000E+000	-2.68891E-004	-2.40040E-001	6.74830E-001	3.57630E+000	9	...........
	2	0.04	6.63089E-001	-3.98702E-004	0.00000E+000	-2.64375E-004	-2.40040E-001	6.63345E-001	3.57630E+000	9	...........
	3	0.053333	6.52591E-001	-3.99323E-004	0.00000E+000	-2.60595E-004	-2.40040E-001	6.52832E-001	3.57630E+000	9	...........
	4	0.066667	6.42691E-001	-3.98208E-004	0.00000E+000	-2.55925E-004	-2.40040E-001	6.42913E-001	3.57630E+000	9	...........
	5	0.08	6.33279E-001	-3.98585E-004	0.00000E+000	-2.52416E-004	-2.40040E-001	6.33508E-001	3.57630E+000	9	...........
	6	0.093333	6.24276E-001	-3.99068E-004	0.00000E+000	-2.49128E-004	-2.40040E-001	6.24466E-001	3.57630E+000	9	...........
	7	0.106667	6.15404E-001	-3.98654E-004	0.00000E+000	-2.45333E-004	-2.40040E-001	6.15638E-001	3.57630E+000	9	...........
	8	0.12	6.06699E-001	-3.98877E-004	0.00000E+000	-2.41998E-004	-2.40040E-001	6.06967E-001	3.57630E+000	9	...........
	9	0.133333	5.98200E-001	-3.98405E-004	0.00000E+000	-2.38326E-004	-2.40040E-001	5.98466E-001	3.57630E+000	9	...........
	10	0.146667	5.89808E-001	-3.99978E-004	0.00000E+000	-2.35910E-004	-2.40040E-001	5.90033E-001	3.57630E+000	9	...........
	11	0.16	5.81506E-001	-3.99298E-004	0.00000E+000	-2.32194E-004	-2.40040E-001	5.81727E-001	3.57630E+000	9	...........
	12	0.173333	5.73311E-001	-3.98318E-004	0.00000E+000	-2.28360E-004	-2.40040E-001	5.73537E-001	3.57630E+000	9	...........
	13	0.186667	5.65217E-001	-3.98993E-004	0.00000E+000	-2.25517E-004	-2.40040E-001	5.65432E-001	3.57630E+000	9	...........
	14	0.2	5.57169E-001	-3.99497E-004	0.00000E+000	-2.22587E-004	-2.40040E-001	5.57395E-001	3.57630E+000	9	...........
	15	0.213333	5.49217E-001	-3.98873E-004	0.00000E+000	-2.19068E-004	-2.40040E-001	5.49444E-001	3.57630E+000	9	...........
	16	0.226667	5.41298E-001	-3.97900E-004	0.00000E+000	-2.15382E-004	-2.40040E-001	5.41510E-001	3.57630E+000	9	...........
	17	0.24	5.33391E-001	-3.97624E-004	0.00000E+000	-2.12089E-004	-2.40040E-001	5.33599E-001	3.57630E+000	9	...........
	18	0.253333	5.25518E-001	-3.98825E-004	0.00000E+000	-2.09590E-004	-2.40040E-001	5.25739E-001	3.57630E+000	9	...........
	19	0.266667	5.17819E-001	-3.99109E-004	0.00000E+000	-2.06666E-004	-2.40040E-001	5.18006E-001	3.57630E+000	9	...........
	20	0.28	5.10130E-001	-3.98109E-004	0.00000E+000	-2.03087E-004	-2.40040E-001	5.10360E-001	3.57630E+000	9	...........
	21	0.293333	5.02503E-001	-3.97858E-004	0.00000E+000	-1.99925E-004	-2.40040E-001	5.02708E-001	3.57630E+000	9	...........
	22	0.306667	4.94979E-001	-3.99045E-004	0.00000E+000	-1.97519E-004	-2.40040E-001	4.95170E-001	3.57630E+000	9	...........
	23	0.32	4.87463E-001	-3.97723E-004	0.00000E+000	-1.93875E-004	-2.40040E-001	4.87641E-001	3.57630E+000	9	...........
	24	0.333333	4.80239E-001	-3.97966E-004	0.00000E+000	-1.91119E-004	-2.40040E-001	4.80335E-001	3.57630E+000	9	...........
	25	0.346667	4.72783E-001	-3.98569E-004	0.00000E+000	-1.88436E-004	-2.40040E-001	4.72879E-001	3.57630E+000	9	...........
	26	0.36	4.65390E-001	-3.98136E-004	0.00000E+000	-1.85288E-004	-2.40040E-001	4.65480E-001	3.57630E+000	9	...........
	27	0.373333	4.58029E-001	-3.97791E-004	0.00000E+000	-1.82200E-004	-2.40040E-001	4.58125E-001	3.57625E+000	9	...........
	28	0.386667	4.50726E-001	-3.98218E-004	0.00000E+000	-1.79487E-004	-2.40040E-001	4.50817E-001	3.57620E+000	9	...........
	29	0.4	4.43467E-001	-4.00848E-004	0.00000E+000	-1.77763E-004	-2.40040E-001	4.43560E-001	3.57620E+000	9	...........
	30	0.413333	4.36293E-001	-3.99851E-004	0.00000E+000	-1.74452E-004	-2.40040E-001	4.36381E-001	3.57620E+000	9	...........
	31	0.426667	4.29043E-001	-3.98499E-004	0.00000E+000	-1.70973E-004	-2.40040E-001	4.29130E-001	3.57620E+000	9	...........
	32	0.44	4.21843E-001	-3.98965E-004	0.00000E+000	-1.68300E-004	-2.40040E-001	4.21927E-001	3.57620E+000	9	...........
	33	0.453333	4.14767E-001	-3.99247E-004	0.00000E+000	-1.65595E-004	-2.40040E-001	4.14849E-001	3.57620E+000	9	...........
	34	0.466667	4.07729E-001	-3.99452E-004	0.00000E+000	-1.62868E-004	-2.40040E-001	4.07802E-001	3.57620E+000	9	...........
	35	0.48	4.00618E-001	-3.98034E-004	0.00000E+000	-1.59460E-004	-2.40040E-001	4.00699E-001	3.57620E+000	9	...........
	36	0.493333	3.93584E-001	-3.98563E-004	0.00000E+000	-1.56868E-004	-2.40040E-001	3.93660E-001	3.57620E+000	9	...........
	37	0.506667	3.86728E-001	-3.99264E-004	0.00000E+000	-1.54407E-004	-2.40040E-001	3.86808E-001	3.57620E+000	9	...........
	38	0.52	3.79797E-001	-3.99007E-004	0.00000E+000	-1.51542E-004	-2.40040E-001	3.79870E-001	3.57620E+000	9	...........
	39	0.533333	3.72897E-001	-4.00035E-004	0.00000E+000	-1.49172E-004	-2.40040E-001	3.72964E-001	3.57620E+000	9	...........
	40	0.546667	3.66078E-001	-3.98492E-004	0.00000E+000	-1.45879E-004	-2.40040E-001	3.66147E-001	3.57620E+000	9	...........
	41	0.56	3.59258E-001	-3.97996E-004	0.00000E+000	-1.42983E-004	-2.40040E-001	3.59326E-001	3.57620E+000	9	...........
	42	0.573333	3.52437E-001	-3.99601E-004	0.00000E+000	-1.40834E-004	-2.40040E-001	3.52503E-001	3.57620E+000	9	...........
	43	0.586667	3.45759E-001	-3.98095E-004	0.00000E+000	-1.37645E-004	-2.40040E-001	3.45830E-001	3.57620E+000	9	...........
	44	0.6	3.39144E-001	-3.97714E-004	0.00000E+000	-1.34883E-004	-2.40040E-001	3.39208E-001	3.57620E+000	9	...........
	45	0.613333	3.32548E-001	-3.98762E-004	0.00000E+000	-1.32608E-004	-2.40040E-001	3.32605E-001	3.57620E+000	9	...........
	46	0.626667	3.25914E-001	-3.99396E-004	0.00000E+000	-1.30169E-004	-2.40040E-001	3.25969E-001	3.57620E+000	9	...........
	47	0.64	3.19335E-001	-3.99233E-004	0.00000E+000	-1.27489E-004	-2.40040E-001	3.19391E-001	3.57620E+000	9	...........
	48	0.653333	3.12819E-001	-3.99496E-004	0.00000E+000	-1.24970E-004	-2.40040E-001	3.12878E-001	3.57620E+000	9	...........
	49	0.666667	3.06339E-001	-3.98707E-004	0.00000E+000	-1.22139E-004	-2.40040E-001	3.06393E-001	3.57620E+000	9	...........
	50	0.68	2.99934E-001	-3.97435E-004	0.00000E+000	-1.19204E-004	-2.40040E-001	2.99990E-001	3.57620E+000	9	...........
	51	0.693333	2.93671E-001	-3.99196E-004	0.00000E+000	-1.17232E-004	-2.40040E-001	2.93728E-001	3.57620E+000	9	...........
	52	0.706667	2.87408E-001	-3.99096E-004	0.00000E+000	-1.14703E-004	-2.40040E-001	2.87460E-001	3.57620E+000	9	...........
	53	0.72	2.81003E-001	-3.98008E-004	0.00000E+000	-1.11841E-004	-2.40040E-001	2.81054E-001	3.57620E+000	9	...........
	54	0.733333	2.74734E-001	-3.99669E-004	0.00000E+000	-1.09803E-004	-2.40040E-001	2.74783E-001	3.57620E+000	9	...........
	55	0.746667	2.68624E-001	-3.98807E-004	0.00000E+000	-1.07129E-004	-2.40040E-001	2.68677E-001	3.57620E+000	9	...........
	56	0.76	2.62481E-001	-3.98542E-004	0.00000E+000	-1.04610E-004	-2.40040E-001	2.62531E-001	3.57620E+000	9	...........
	57	0.773333	2.56304E-001	-3.98244E-004	0.00000E+000	-1.02071E-004	-2.40040E-001	2.56353E-001	3.57620E+000	9	...........
	58	0.786667	2.50276E-001	-3.99938E-004	0.00000E+000	-1.00095E-004	-2.40040E-001	2.50321E-001	3.57620E+000	9	...........
	59	0.8	2.44296E-001	-3.98354E-004	0.00000E+000	-9.73164E-005	-2.40040E-001	2.44338E-001	3.57620E+000	9	...........
	60	0.813333	2.38257E-001	-3.97641E-004	0.00000E+000	-9.47407E-005	-2.40040E-001	2.38297E-001	3.57620E+000	9	...........
	61	0.826667	2.32112E-001	-3.98575E-004	0.00000E+000	-9.25142E-005	-2.40040E-001	2.32158E-001	3.57620E+000	9	...........
	62	0.84	2.26180E-001	-3.98922E-004	0.00000E+000	-9.02281E-005	-2.40040E-001	2.26223E-001	3.57620E+000	9	...........
	63	0.853333	2.20262E-001	-3.98110E-004	0.00000E+000	-8.76884E-005	-2.40040E-001	2.20302E-001	3.57620E+000	9	...........
	64	0.866667	2.14424E-001	-3.99354E-004	0.00000E+000	-8.56310E-005	-2.40040E-001	2.14462E-001	3.57620E+000	9	...........
	65	0.88	2.08588E-001	-3.97203E-004	0.00000E+000	-8.28518E-005	-2.40040E-001	2.08629E-001	3.57620E+000	9	...........
	66	0.893333	2.02759E-001	-3.98449E-004	0.00000E+000	-8.07890E-005	-2.40040E-001	2.02803E-001	3.57620E+000	9	...........
	67	0.906667	1.97006E-001	-3.98604E-004	0.00000E+000	-7.85276E-005	-2.40040E-001	1.97047E-001	3.57620E+000	9	...........
	68	0.92	1.91219E-001	-3.97867E-004	0.00000E+000	-7.60797E-005	-2.40040E-001	1.91256E-001	3.57620E+000	9	...........
	69	0.933333	1.85581E-001	-3.99254E-004	0.00000E+000	-7.40940E-005	-2.40040E-001	1.85617E-001	3.57620E+000	9	...........
	70	0.946667	1.79994E-001	-3.99194E-004	0.00000E+000	-7.18523E-005	-2.40040E-001	1.80032E-001	3.57620E+000	9	...........
	71	0.96	1.74431E-001	-3.99008E-004	0.00000E+000	-6.95994E-005	-2.40040E-001	1.74461E-001	3.57620E+000	9	...........
	72	0.97333	1.69032E-001	-3.98704E-004	0.00000E+000	-6.73939E-005	-2.40040E-001	1.69066E-001	3.57620E+000	9	...........
	73	0.98667	1.63540E-001	-3.98885E-004	0.00000E+000	-6.52337E-005	-2.40040E-001	1.63571E-001	3.57620E+000	9	...........
	74	1	1.58079E-001	-3.98228E-004	0.00000E+000	-6.29515E-005	-2.40040E-001	1.58109E-001	3.57620E+000	9	...........
	75	1.01333	1.52682E-001	-3.99960E-004	0.00000E+000	-6.10668E-005	-2.40040E-001	1.52707E-001	3.57620E+000	9	...........
	76	1.02667	1.47307E-001	-3.99703E-004	0.00000E+000	-5.88791E-005	-2.40040E-001	1.47336E-001	3.57620E+000	9	...........
	77	1.04	1.41906E-001	-3.98274E-004	0.00000E+000	-5.65175E-005	-2.40040E-001	1.41935E-001	3.57620E+000	9	...........
	78	1.05333	1.36573E-001	-3.97953E-004	0.00000E+000	-5.43496E-005	-2.40040E-001	1.36593E-001	3.57620E+000	9	...........
	79	1.06667	1.31249E-001	-3.98503E-004	0.00000E+000	-5.23031E-005	-2.40040E-001	1.31276E-001	3.57620E+000	9	...........
	80	1.08	1.26061E-001	-3.97414E-004	0.00000E+000	-5.00983E-005	-2.40040E-001	1.26078E-001	3.57620E+000	9	...........
	81	1.09333	1.20798E-001	-3.97940E-004	0.00000E+000	-4.80705E-005	-2.40040E-001	1.20824E-001	3.57620E+000	9	...........
	82	1.10667	1.15576E-001	-3.99809E-004	0.00000E+000	-4.62085E-005	-2.40040E-001	1.15597E-001	3.57620E+000	9	...........
	83	1.12	1.10377E-001	-3.97264E-004	0.00000E+000	-4.38487E-005	-2.40040E-001	1.10398E-001	3.57620E+000	9	...........
	84	1.13333	1.05187E-001	-4.00168E-004	0.00000E+000	-4.20924E-005	-2.40040E-001	1.05201E-001	3.57620E+000	9	...........
	85	1.14667	1.00101E-001	-3.99239E-004	0.00000E+000	-3.99641E-005	-2.40040E-001	1.00117E-001	3.57620E+000	9	...........
	86	1.16	9.50357E-002	-3.98528E-004	0.00000E+000	-3.78744E-005	-2.40040E-001	9.50491E-002	3.57620E+000	9	...........
	87	1.17333	8.99078E-002	-4.00118E-004	0.00000E+000	-3.59737E-005	-2.40040E-001	8.99196E-002	3.57620E+000	9	...........
	88	1.18667	8.49311E-002	-3.98429E-004	0.00000E+000	-3.38390E-005	-2.40040E-001	8.49467E-002	3.57620E+000	9	...........
	89	1.2	7.99136E-002	-3.99734E-004	0.00000E+000	-3.19441E-005	-2.40040E-001	7.99238E-002	3.57620E+000	9	...........
	90	1.21333	7.49426E-002	-3.98235E-004	0.00000E+000	-2.98448E-005	-2.40040E-001	7.49462E-002	3.57620E+000	9	...........
	91	1.22667	7.00360E-002	-3.98835E-004	0.00000E+000	-2.79328E-005	-2.40040E-001	7.00428E-002	3.57620E+000	9	...........
	92	1.24	6.51785E-002	-3.98222E-004	0.00000E+000	-2.59555E-005	-2.40040E-001	6.51821E-002	3.57620E+000	9	...........
	93	1.25333	6.03439E-002	-3.99225E-004	0.00000E+000	-2.40908E-005	-2.40040E-001	6.03500E-002	3.57620E+000	9	...........
	94	1.26667	5.55834E-002	-3.98354E-004	0.00000E+000	-2.21419E-005	-2.40040E-001	5.55886E-002	3.57620E+000	9	...........
	95	1.28	5.07673E-002	-3.99354E-004	0.00000E+000	-2.02741E-005	-2.40040E-001	5.07753E-002	3.57620E+000	9	...........
	96	1.29333	4.59888E-002	-3.97527E-004	0.00000E+000	-1.82818E-005	-2.40040E-001	4.59936E-002	3.57620E+000	9	...........
	97	1.30667	4.12874E-002	-3.98729E-004	0.00000E+000	-1.64625E-005	-2.40040E-001	4.12938E-002	3.57620E+000	9	...........
	98	1.32	3.65577E-002	-3.98495E-004	0.00000E+000	-1.45680E-005	-2.40040E-001	3.65562E-002	3.57620E+000	9	...........
	99	1.33333	3.18834E-002	-3.98840E-004	0.00000E+000	-1.27164E-005	-2.40040E-001	3.18804E-002	3.57620E+000	9	...........
	100	1.34667	2.72555E-002	-3.97758E-004	0.00000E+000	-1.08411E-005	-2.40040E-001	2.72521E-002	3.57620E+000	9	...........
	101	1.36	2.25920E-002	-3.98937E-004	0.00000E+000	-9.01281E-006	-2.40040E-001	2.25859E-002	3.57620E+000	9	...........
	102	1.37333	1.80052E-002	-3.98460E-004	0.00000E+000	-7.17437E-006	-2.40040E-001	1.79969E-002	3.57650E+000	9	...........
	103	1.38667	1.34834E-002	-3.99435E-004	0.00000E+000	-5.38573E-006	-2.40040E-001	1.34686E-002	3.57680E+000	9	...........
	104	1.4	8.83667E-003	-3.98750E-004	0.00000E+000	-3.52362E-006	-2.40040E-001	8.82181E-003	3.57680E+000	9	...........
	105	1.41333	4.35617E-003	-3.98721E-004	0.00000E+000	-1.73689E-006	-2.40040E-001	4.33563E-003	3.57680E+000	9	...........
	106	1.42167	7.22942E-004	-3.98776E-004	0.00000E+000	-2.88292E-007	-2.40040E-001	7.00714E-004	3.57680E+000	9	...........
STARTTIMEOFFSET	QUANT	2211.43	Start Time Offset (s)
