EXPLAIN
TAG	PWR800_DISCHARGE
TITLE	LABEL	PWR Cyclic Charge Discharge (Cell) - Discharge Step	Test &Identifier
DATE	LABEL	12-7-2017	Date
TIME	LABEL	14:19:10	Time
NOTES	NOTES	3	&Notes...
	supercap test cell
	0.4mg
	6M KOH
PSTAT	PSTAT	IFC5000-01520	Potentiostat
CAPACITY	QUANT	1.00000E-003	Capacity (A-hr)
CELLTYPE	SELECTOR	1	&Cell Type
WORKINGCONNECTION	SELECTOR	0	&Working Lead
MAXDISCHARGETIME	VARIABLEANDUNITS	1.00000E+002	s	1.00000E+002	second(s)	Max &Discharge Time
DISCHARGEMODE	MULTIPARAM	0	4.00000E-004	&Discharge Mode	Constant Current	Amp(s)
SAMPLETIME	QUANT	1.00000E-002	Sa&mple Period (s)
DISCHARGESTOPAT1	MULTIPARAM	3	0.00000E+000	Discharge Stop At &1	Voltage < Limit	V
DISCHARGESTOPAT2	MULTIPARAM	0	0.00000E+000	Discharge Stop At &2	None	N/A
AESBHCSELECTOR	TOGGLE	F	Save Both Half Cells
IRCOMP	TOGGLE	F	IR &Measure
EOC	QUANT	0	Open Circuit (V)
SEQUENCER	TOGGLE	TRUE	Run as Sequence
PSTATMODEL	IQUANT	53	Pstat Model
PSTATSECTION	LABEL	IFC5000-01520	Pstat Section
PSTATSERIALNO	LABEL	01520	Pstat Serial Number
CTRLMODE	IQUANT	0	Control Mode
ELECTROMETER	IQUANT	1	RE=0 or CS=1
IESTAB	IQUANT	0	I/E Stability
CASPEED	IQUANT	4	Control Amp Speed
CONVENTION	IQUANT	1	Current Convention
ICHRANGE	IQUANT	2	Ich Range
ICHRANGEMODE	TOGGLE	T	Ich Auto Range
ICHOFFSETENABLE	TOGGLE	F	Ich Offset Enable
ICHOFFSET	QUANT	0	Ich Offset (V)
ICHFILTER	IQUANT	1	Ich Filter
VCHRANGE	IQUANT	2	Vch Range
VCHRANGEMODE	TOGGLE	T	Vch Auto Range
VCHOFFSETENABLE	TOGGLE	F	Vch Offset Enable
VCHOFFSET	QUANT	0	Vch Offset (V)
VCHFILTER	IQUANT	1	Vch Filter
IERANGELOWERLIMIT	IQUANT	9	I/E Range Lower Limit
IERANGEMODE	TOGGLE	F	I/E AutoRange
IERANGE	IQUANT	9	I/E Range
ACHSELECT	IQUANT	1	Ach Select
ACHRANGE	IQUANT	2	Ach Range
ACHOFFSETENABLE	TOGGLE	F	Ach Offset Enable
ACHOFFSET	QUANT	0	Ach Offset (V)
ACHFILTER	IQUANT	1	Ach Filter
CABLEID	IQUANT	14	Cable ID
DCCALDATE	LABEL	5-7-2017	DC Calibration Date
ACCALDATE	LABEL	12/3/2015	AC Calibration Date
FRAMEWORKVERSION	QUANT	7.01	Framework Version
INSTRUMENTVERSION	LABEL	4.00	Instrument Version
CURVE	TABLE	144
	Pt	T	Vf	Im	Vu	Pwr	Sig	Ach	Temp	IERange	Over
	#	s	V	A	V	W	V	V	deg C	#	bits
	0	0.013333	7.25731E-001	-3.98873E-004	0.00000E+000	-2.89474E-004	-2.40040E-001	7.25901E-001	3.57540E+000	9	...........
	1	0.026667	7.15748E-001	-3.98258E-004	0.00000E+000	-2.85053E-004	-2.40040E-001	7.15948E-001	3.57540E+000	9	...........
	2	0.04	7.06860E-001	-3.98562E-004	0.00000E+000	-2.81728E-004	-2.40040E-001	7.07070E-001	3.57540E+000	9	...........
	3	0.053333	6.98680E-001	-3.98914E-004	0.00000E+000	-2.78713E-004	-2.40040E-001	6.98885E-001	3.57540E+000	9	...........
	4	0.066667	6.90918E-001	-3.98878E-004	0.00000E+000	-2.75592E-004	-2.40040E-001	6.91089E-001	3.57540E+000	9	...........
	5	0.08	6.83492E-001	-3.99219E-004	0.00000E+000	-2.72863E-004	-2.40040E-001	6.83694E-001	3.57540E+000	9	...........
	6	0.093333	6.76326E-001	-3.98746E-004	0.00000E+000	-2.69682E-004	-2.40040E-001	6.76512E-001	3.57540E+000	9	...........
	7	0.106667	6.69318E-001	-3.98886E-004	0.00000E+000	-2.66982E-004	-2.40040E-001	6.69512E-001	3.57540E+000	9	...........
	8	0.12	6.62437E-001	-3.98573E-004	0.00000E+000	-2.64030E-004	-2.40040E-001	6.62649E-001	3.57540E+000	9	...........
	9	0.133333	6.55683E-001	-3.98994E-004	0.00000E+000	-2.61613E-004	-2.40040E-001	6.55887E-001	3.57540E+000	9	...........
	10	0.146667	6.49051E-001	-3.98119E-004	0.00000E+000	-2.58399E-004	-2.40040E-001	6.49257E-001	3.57540E+000	9	...........
	11	0.16	6.42488E-001	-3.98393E-004	0.00000E+000	-2.55962E-004	-2.40040E-001	6.42716E-001	3.57540E+000	9	...........
	12	0.173333	6.35950E-001	-3.99248E-004	0.00000E+000	-2.53902E-004	-2.40040E-001	6.36166E-001	3.57540E+000	9	...........
	13	0.186667	6.29543E-001	-3.98691E-004	0.00000E+000	-2.50993E-004	-2.40040E-001	6.29777E-001	3.57540E+000	9	...........
	14	0.2	6.23196E-001	-3.98931E-004	0.00000E+000	-2.48612E-004	-2.40040E-001	6.23392E-001	3.57540E+000	9	...........
	15	0.213333	6.16983E-001	-3.98770E-004	0.00000E+000	-2.46034E-004	-2.40040E-001	6.17153E-001	3.57584E+000	9	...........
	16	0.226667	6.10646E-001	-3.98954E-004	0.00000E+000	-2.43620E-004	-2.40040E-001	6.10888E-001	3.57590E+000	9	...........
	17	0.24	6.04459E-001	-4.00439E-004	0.00000E+000	-2.42049E-004	-2.40040E-001	6.04667E-001	3.57590E+000	9	...........
	18	0.253333	5.98328E-001	-3.98448E-004	0.00000E+000	-2.38402E-004	-2.40040E-001	5.98526E-001	3.57590E+000	9	...........
	19	0.266667	5.92227E-001	-3.98794E-004	0.00000E+000	-2.36176E-004	-2.40040E-001	5.92413E-001	3.57590E+000	9	...........
	20	0.28	5.86261E-001	-3.98726E-004	0.00000E+000	-2.33757E-004	-2.40040E-001	5.86467E-001	3.57590E+000	9	...........
	21	0.293333	5.80253E-001	-3.99196E-004	0.00000E+000	-2.31635E-004	-2.40040E-001	5.80430E-001	3.57590E+000	9	...........
	22	0.306667	5.74321E-001	-3.98540E-004	0.00000E+000	-2.28890E-004	-2.40040E-001	5.74485E-001	3.57590E+000	9	...........
	23	0.32	5.68379E-001	-3.98720E-004	0.00000E+000	-2.26624E-004	-2.40040E-001	5.68555E-001	3.57590E+000	9	...........
	24	0.333333	5.62389E-001	-3.97899E-004	0.00000E+000	-2.23774E-004	-2.40040E-001	5.62602E-001	3.57590E+000	9	...........
	25	0.346667	5.56487E-001	-3.97705E-004	0.00000E+000	-2.21318E-004	-2.40040E-001	5.56675E-001	3.57590E+000	9	...........
	26	0.36	5.50644E-001	-3.98118E-004	0.00000E+000	-2.19221E-004	-2.40040E-001	5.50846E-001	3.57590E+000	9	...........
	27	0.373333	5.44759E-001	-3.98807E-004	0.00000E+000	-2.17254E-004	-2.40040E-001	5.44961E-001	3.57590E+000	9	...........
	28	0.386667	5.38884E-001	-3.98834E-004	0.00000E+000	-2.14926E-004	-2.40040E-001	5.39112E-001	3.57590E+000	9	...........
	29	0.4	5.33095E-001	-3.99997E-004	0.00000E+000	-2.13236E-004	-2.40040E-001	5.33306E-001	3.57590E+000	9	...........
	30	0.413333	5.27359E-001	-3.98991E-004	0.00000E+000	-2.10411E-004	-2.40040E-001	5.27556E-001	3.57590E+000	9	...........
	31	0.426667	5.21585E-001	-3.98714E-004	0.00000E+000	-2.07963E-004	-2.40040E-001	5.21792E-001	3.57590E+000	9	...........
	32	0.44	5.15873E-001	-3.97932E-004	0.00000E+000	-2.05283E-004	-2.40040E-001	5.16060E-001	3.57590E+000	9	...........
	33	0.453333	5.10217E-001	-3.97809E-004	0.00000E+000	-2.02969E-004	-2.40040E-001	5.10423E-001	3.57590E+000	9	...........
	34	0.466667	5.04532E-001	-3.99673E-004	0.00000E+000	-2.01648E-004	-2.40040E-001	5.04771E-001	3.57590E+000	9	...........
	35	0.48	4.98867E-001	-3.99090E-004	0.00000E+000	-1.99093E-004	-2.40040E-001	4.99103E-001	3.57590E+000	9	...........
	36	0.493333	4.93281E-001	-3.98627E-004	0.00000E+000	-1.96635E-004	-2.40040E-001	4.93510E-001	3.57590E+000	9	...........
	37	0.506667	4.87792E-001	-3.99266E-004	0.00000E+000	-1.94758E-004	-2.40040E-001	4.88003E-001	3.57590E+000	9	...........
	38	0.52	4.82465E-001	-3.99728E-004	0.00000E+000	-1.92855E-004	-2.40040E-001	4.82544E-001	3.57590E+000	9	...........
	39	0.533333	4.77008E-001	-3.98335E-004	0.00000E+000	-1.90009E-004	-2.40040E-001	4.77101E-001	3.57590E+000	9	...........
	40	0.546667	4.71505E-001	-3.98975E-004	0.00000E+000	-1.88119E-004	-2.40040E-001	4.71599E-001	3.57590E+000	9	...........
	41	0.56	4.66023E-001	-3.98326E-004	0.00000E+000	-1.85629E-004	-2.40040E-001	4.66120E-001	3.57590E+000	9	...........
	42	0.573333	4.60501E-001	-4.00137E-004	0.00000E+000	-1.84263E-004	-2.40040E-001	4.60591E-001	3.57590E+000	9	...........
	43	0.586667	4.54982E-001	-3.98475E-004	0.00000E+000	-1.81299E-004	-2.40040E-001	4.55070E-001	3.57590E+000	9	...........
	44	0.6	4.49592E-001	-3.98796E-004	0.00000E+000	-1.79295E-004	-2.40040E-001	4.49680E-001	3.57590E+000	9	...........
	45	0.613333	4.44127E-001	-3.97959E-004	0.00000E+000	-1.76744E-004	-2.40040E-001	4.44213E-001	3.57590E+000	9	...........
	46	0.626667	4.38705E-001	-3.98304E-004	0.00000E+000	-1.74738E-004	-2.40040E-001	4.38791E-001	3.57590E+000	9	...........
	47	0.64	4.33284E-001	-3.99175E-004	0.00000E+000	-1.72956E-004	-2.40040E-001	4.33370E-001	3.57590E+000	9	...........
	48	0.653333	4.27902E-001	-3.99568E-004	0.00000E+000	-1.70976E-004	-2.40040E-001	4.27992E-001	3.57590E+000	9	...........
	49	0.666667	4.22566E-001	-3.99514E-004	0.00000E+000	-1.68821E-004	-2.40040E-001	4.22644E-001	3.57590E+000	9	...........
	50	0.68	4.17237E-001	-3.97923E-004	0.00000E+000	-1.66028E-004	-2.40040E-001	4.17317E-001	3.57590E+000	9	...........
	51	0.693333	4.11960E-001	-3.98646E-004	0.00000E+000	-1.64226E-004	-2.40040E-001	4.12037E-001	3.57590E+000	9	...........
	52	0.706667	4.06609E-001	-3.98304E-004	0.00000E+000	-1.61954E-004	-2.40040E-001	4.06677E-001	3.57590E+000	9	...........
	53	0.72	4.01392E-001	-3.98330E-004	0.00000E+000	-1.59887E-004	-2.40040E-001	4.01467E-001	3.57590E+000	9	...........
	54	0.733333	3.96174E-001	-3.99191E-004	0.00000E+000	-1.58149E-004	-2.40040E-001	3.96242E-001	3.57590E+000	9	...........
	55	0.746667	3.90980E-001	-3.98197E-004	0.00000E+000	-1.55687E-004	-2.40040E-001	3.91046E-001	3.57590E+000	9	...........
	56	0.76	3.85737E-001	-3.97574E-004	0.00000E+000	-1.53359E-004	-2.40040E-001	3.85806E-001	3.57590E+000	9	...........
	57	0.773333	3.80517E-001	-3.98456E-004	0.00000E+000	-1.51619E-004	-2.40040E-001	3.80587E-001	3.57590E+000	9	...........
	58	0.786667	3.75293E-001	-3.99575E-004	0.00000E+000	-1.49958E-004	-2.40040E-001	3.75359E-001	3.57590E+000	9	...........
	59	0.8	3.70188E-001	-3.97528E-004	0.00000E+000	-1.47160E-004	-2.40040E-001	3.70257E-001	3.57590E+000	9	...........
	60	0.813333	3.64979E-001	-3.99411E-004	0.00000E+000	-1.45777E-004	-2.40040E-001	3.65046E-001	3.57590E+000	9	...........
	61	0.826667	3.59857E-001	-3.97601E-004	0.00000E+000	-1.43079E-004	-2.40040E-001	3.59919E-001	3.57590E+000	9	...........
	62	0.84	3.54755E-001	-3.99114E-004	0.00000E+000	-1.41587E-004	-2.40040E-001	3.54817E-001	3.57590E+000	9	...........
	63	0.853333	3.49677E-001	-3.98553E-004	0.00000E+000	-1.39365E-004	-2.40040E-001	3.49743E-001	3.57590E+000	9	...........
	64	0.866667	3.44531E-001	-3.97540E-004	0.00000E+000	-1.36965E-004	-2.40040E-001	3.44599E-001	3.57590E+000	9	...........
	65	0.88	3.39505E-001	-3.97690E-004	0.00000E+000	-1.35018E-004	-2.40040E-001	3.39568E-001	3.57590E+000	9	...........
	66	0.893333	3.34497E-001	-3.99242E-004	0.00000E+000	-1.33545E-004	-2.40040E-001	3.34562E-001	3.57590E+000	9	...........
	67	0.906667	3.29469E-001	-3.99485E-004	0.00000E+000	-1.31618E-004	-2.40040E-001	3.29528E-001	3.57590E+000	9	...........
	68	0.92	3.24439E-001	-3.98237E-004	0.00000E+000	-1.29204E-004	-2.40040E-001	3.24507E-001	3.57590E+000	9	...........
	69	0.933333	3.19547E-001	-3.98623E-004	0.00000E+000	-1.27379E-004	-2.40040E-001	3.19609E-001	3.57590E+000	9	...........
	70	0.946667	3.14582E-001	-3.98302E-004	0.00000E+000	-1.25299E-004	-2.40040E-001	3.14636E-001	3.57590E+000	9	...........
	71	0.96	3.09629E-001	-3.99284E-004	0.00000E+000	-1.23630E-004	-2.40040E-001	3.09690E-001	3.57590E+000	9	...........
	72	0.97333	3.04708E-001	-3.97596E-004	0.00000E+000	-1.21150E-004	-2.40040E-001	3.04766E-001	3.57590E+000	9	...........
	73	0.98667	2.99830E-001	-3.97841E-004	0.00000E+000	-1.19285E-004	-2.40040E-001	2.99885E-001	3.57590E+000	9	...........
	74	1	2.94951E-001	-3.98535E-004	0.00000E+000	-1.17549E-004	-2.40040E-001	2.95013E-001	3.57590E+000	9	...........
	75	1.01333	2.90092E-001	-3.97044E-004	0.00000E+000	-1.15179E-004	-2.40040E-001	2.90149E-001	3.57590E+000	9	...........
	76	1.02667	2.85305E-001	-3.98552E-004	0.00000E+000	-1.13709E-004	-2.40040E-001	2.85356E-001	3.57590E+000	9	...........
	77	1.04	2.80419E-001	-3.99141E-004	0.00000E+000	-1.11927E-004	-2.40040E-001	2.80471E-001	3.57590E+000	9	...........
	78	1.05333	2.75680E-001	-3.98329E-004	0.00000E+000	-1.09811E-004	-2.40040E-001	2.75736E-001	3.57590E+000	9	...........
	79	1.06667	2.70818E-001	-3.97480E-004	0.00000E+000	-1.07645E-004	-2.40040E-001	2.70867E-001	3.57590E+000	9	...........
	80	1.08	2.66098E-001	-3.98753E-004	0.00000E+000	-1.06107E-004	-2.40040E-001	2.66149E-001	3.57590E+000	9	...........
	81	1.09333	2.61286E-001	-3.98462E-004	0.00000E+000	-1.04113E-004	-2.40040E-001	2.61337E-001	3.57590E+000	9	...........
	82	1.10667	2.56453E-001	-3.98281E-004	0.00000E+000	-1.02140E-004	-2.40040E-001	2.56504E-001	3.57590E+000	9	...........
	83	1.12	2.51749E-001	-3.98980E-004	0.00000E+000	-1.00443E-004	-2.40040E-001	2.51798E-001	3.57590E+000	9	...........
	84	1.13333	2.47058E-001	-3.98975E-004	0.00000E+000	-9.85701E-005	-2.40040E-001	2.47101E-001	3.57590E+000	9	...........
	85	1.14667	2.42372E-001	-3.98716E-004	0.00000E+000	-9.66377E-005	-2.40040E-001	2.42410E-001	3.57590E+000	9	...........
	86	1.16	2.37633E-001	-3.98005E-004	0.00000E+000	-9.45790E-005	-2.40040E-001	2.37668E-001	3.57590E+000	9	...........
	87	1.17333	2.33102E-001	-3.98343E-004	0.00000E+000	-9.28545E-005	-2.40040E-001	2.33143E-001	3.57590E+000	9	...........
	88	1.18667	2.28486E-001	-3.97977E-004	0.00000E+000	-9.09321E-005	-2.40040E-001	2.28525E-001	3.57590E+000	9	...........
	89	1.2	2.23856E-001	-3.96497E-004	0.00000E+000	-8.87582E-005	-2.40040E-001	2.23899E-001	3.57590E+000	9	...........
	90	1.21333	2.19237E-001	-3.97169E-004	0.00000E+000	-8.70741E-005	-2.40040E-001	2.19274E-001	3.57625E+000	9	...........
	91	1.22667	2.14643E-001	-3.99014E-004	0.00000E+000	-8.56456E-005	-2.40040E-001	2.14678E-001	3.57630E+000	9	...........
	92	1.24	2.10062E-001	-3.99838E-004	0.00000E+000	-8.39907E-005	-2.40040E-001	2.10093E-001	3.57630E+000	9	...........
	93	1.25333	2.05538E-001	-3.98545E-004	0.00000E+000	-8.19160E-005	-2.40040E-001	2.05576E-001	3.57630E+000	9	...........
	94	1.26667	2.01015E-001	-3.97696E-004	0.00000E+000	-7.99426E-005	-2.40040E-001	2.01053E-001	3.57630E+000	9	...........
	95	1.28	1.96487E-001	-3.98002E-004	0.00000E+000	-7.82022E-005	-2.40040E-001	1.96522E-001	3.57630E+000	9	...........
	96	1.29333	1.91984E-001	-3.99512E-004	0.00000E+000	-7.66998E-005	-2.40040E-001	1.92021E-001	3.57630E+000	9	...........
	97	1.30667	1.87498E-001	-3.99113E-004	0.00000E+000	-7.48326E-005	-2.40040E-001	1.87527E-001	3.57630E+000	9	...........
	98	1.32	1.83073E-001	-3.97548E-004	0.00000E+000	-7.27803E-005	-2.40040E-001	1.83106E-001	3.57630E+000	9	...........
	99	1.33333	1.78692E-001	-3.97226E-004	0.00000E+000	-7.09812E-005	-2.40040E-001	1.78722E-001	3.57630E+000	9	...........
	100	1.34667	1.74181E-001	-3.98847E-004	0.00000E+000	-6.94716E-005	-2.40040E-001	1.74214E-001	3.57630E+000	9	...........
	101	1.36	1.69712E-001	-3.98526E-004	0.00000E+000	-6.76345E-005	-2.40040E-001	1.69744E-001	3.57630E+000	9	...........
	102	1.37333	1.65351E-001	-3.97498E-004	0.00000E+000	-6.57266E-005	-2.40040E-001	1.65381E-001	3.57630E+000	9	...........
	103	1.38667	1.61000E-001	-3.98370E-004	0.00000E+000	-6.41375E-005	-2.40040E-001	1.61028E-001	3.57630E+000	9	...........
	104	1.4	1.56618E-001	-3.97780E-004	0.00000E+000	-6.22995E-005	-2.40040E-001	1.56641E-001	3.57630E+000	9	...........
	105	1.41333	1.52258E-001	-3.98900E-004	0.00000E+000	-6.07355E-005	-2.40040E-001	1.52279E-001	3.57630E+000	9	...........
	106	1.42667	1.47932E-001	-3.99423E-004	0.00000E+000	-5.90874E-005	-2.40040E-001	1.47956E-001	3.57630E+000	9	...........
	107	1.44	1.43615E-001	-3.97879E-004	0.00000E+000	-5.71416E-005	-2.40040E-001	1.43635E-001	3.57630E+000	9	...........
	108	1.45333	1.39357E-001	-3.99175E-004	0.00000E+000	-5.56279E-005	-2.40040E-001	1.39384E-001	3.57630E+000	9	...........
	109	1.46667	1.35112E-001	-3.97446E-004	0.00000E+000	-5.36997E-005	-2.40040E-001	1.35134E-001	3.57630E+000	9	...........
	110	1.48	1.30894E-001	-3.98177E-004	0.00000E+000	-5.21189E-005	-2.40040E-001	1.30914E-001	3.57630E+000	9	...........
	111	1.49333	1.26598E-001	-3.99141E-004	0.00000E+000	-5.05303E-005	-2.40040E-001	1.26621E-001	3.57630E+000	9	...........
	112	1.50667	1.22373E-001	-3.99095E-004	0.00000E+000	-4.88384E-005	-2.40040E-001	1.22398E-001	3.57630E+000	9	...........
	113	1.52	1.18046E-001	-3.98573E-004	0.00000E+000	-4.70497E-005	-2.40040E-001	1.18069E-001	3.57630E+000	9	...........
	114	1.53333	1.13840E-001	-3.99016E-004	0.00000E+000	-4.54241E-005	-2.40040E-001	1.13860E-001	3.57630E+000	9	...........
	115	1.54667	1.09700E-001	-3.98460E-004	0.00000E+000	-4.37110E-005	-2.40040E-001	1.09721E-001	3.57630E+000	9	...........
	116	1.56	1.05529E-001	-3.99494E-004	0.00000E+000	-4.21582E-005	-2.40040E-001	1.05545E-001	3.57630E+000	9	...........
	117	1.57333	1.01401E-001	-3.99903E-004	0.00000E+000	-4.05505E-005	-2.40040E-001	1.01418E-001	3.57630E+000	9	...........
	118	1.58667	9.72600E-002	-3.98641E-004	0.00000E+000	-3.87718E-005	-2.40040E-001	9.72799E-002	3.57630E+000	9	...........
	119	1.6	9.30489E-002	-3.99599E-004	0.00000E+000	-3.71823E-005	-2.40040E-001	9.30633E-002	3.57630E+000	9	...........
	120	1.61333	8.88492E-002	-3.99013E-004	0.00000E+000	-3.54519E-005	-2.40040E-001	8.88674E-002	3.57630E+000	9	...........
	121	1.62667	8.47626E-002	-3.98943E-004	0.00000E+000	-3.38154E-005	-2.40040E-001	8.47803E-002	3.57630E+000	9	...........
	122	1.64	8.07020E-002	-3.99861E-004	0.00000E+000	-3.22695E-005	-2.40040E-001	8.07164E-002	3.57630E+000	9	...........
	123	1.65333	7.66831E-002	-3.98542E-004	0.00000E+000	-3.05614E-005	-2.40040E-001	7.66988E-002	3.57630E+000	9	...........
	124	1.66667	7.25677E-002	-3.97777E-004	0.00000E+000	-2.88658E-005	-2.40040E-001	7.25775E-002	3.57630E+000	9	...........
	125	1.68	6.85228E-002	-3.99764E-004	0.00000E+000	-2.73929E-005	-2.40040E-001	6.85278E-002	3.57630E+000	9	...........
	126	1.69333	6.44529E-002	-3.99622E-004	0.00000E+000	-2.57568E-005	-2.40040E-001	6.44576E-002	3.57630E+000	9	...........
	127	1.70667	6.04396E-002	-3.98858E-004	0.00000E+000	-2.41068E-005	-2.40040E-001	6.04458E-002	3.57630E+000	9	...........
	128	1.72	5.64272E-002	-3.97624E-004	0.00000E+000	-2.24368E-005	-2.40040E-001	5.64293E-002	3.57630E+000	9	...........
	129	1.73333	5.25077E-002	-3.98468E-004	0.00000E+000	-2.09226E-005	-2.40040E-001	5.25088E-002	3.57630E+000	9	...........
	130	1.74667	4.85162E-002	-3.98308E-004	0.00000E+000	-1.93244E-005	-2.40040E-001	4.85166E-002	3.57630E+000	9	...........
	131	1.76	4.46216E-002	-3.98378E-004	0.00000E+000	-1.77763E-005	-2.40040E-001	4.46304E-002	3.57630E+000	9	...........
	132	1.77333	4.06271E-002	-3.97307E-004	0.00000E+000	-1.61414E-005	-2.40040E-001	4.06349E-002	3.57630E+000	9	...........
	133	1.78667	3.67067E-002	-3.97661E-004	0.00000E+000	-1.45968E-005	-2.40040E-001	3.67114E-002	3.57630E+000	9	...........
	134	1.8	3.28523E-002	-3.99501E-004	0.00000E+000	-1.31246E-005	-2.40040E-001	3.28557E-002	3.57630E+000	9	...........
	135	1.81333	2.89632E-002	-3.98394E-004	0.00000E+000	-1.15388E-005	-2.40040E-001	2.89657E-002	3.57630E+000	9	...........
	136	1.82667	2.50776E-002	-3.99044E-004	0.00000E+000	-1.00070E-005	-2.40040E-001	2.50802E-002	3.57630E+000	9	...........
	137	1.84	2.12682E-002	-3.98316E-004	0.00000E+000	-8.47147E-006	-2.40040E-001	2.12611E-002	3.57630E+000	9	...........
	138	1.85333	1.73760E-002	-3.97640E-004	0.00000E+000	-6.90941E-006	-2.40040E-001	1.73691E-002	3.57630E+000	9	...........
	139	1.86667	1.34924E-002	-3.98929E-004	0.00000E+000	-5.38250E-006	-2.40040E-001	1.34809E-002	3.57630E+000	9	...........
	140	1.88	9.56802E-003	-3.97394E-004	0.00000E+000	-3.80228E-006	-2.40040E-001	9.55732E-003	3.57630E+000	9	...........
	141	1.89333	5.74503E-003	-3.97971E-004	0.00000E+000	-2.28636E-006	-2.40040E-001	5.73178E-003	3.57630E+000	9	...........
	142	1.90667	2.03948E-003	-3.97661E-004	0.00000E+000	-8.11020E-007	-2.40040E-001	2.02131E-003	3.57630E+000	9	...........
	143	1.90833	-1.26574E-004	-3.97764E-004	0.00000E+000	5.03466E-008	-2.40040E-001	-1.46054E-004	3.57630E+000	9	...........
STARTTIMEOFFSET	QUANT	23.76833	Start Time Offset (s)
