EXPLAIN
TAG	PWR800_DISCHARGE
TITLE	LABEL	PWR Cyclic Charge Discharge (Cell) - Discharge Step	Test &Identifier
DATE	LABEL	12-7-2017	Date
TIME	LABEL	14:30:15	Time
NOTES	NOTES	3	&Notes...
	supercap test cell
	0.4mg
	6M KOH
PSTAT	PSTAT	IFC5000-01520	Potentiostat
CAPACITY	QUANT	1.00000E-003	Capacity (A-hr)
CELLTYPE	SELECTOR	1	&Cell Type
WORKINGCONNECTION	SELECTOR	0	&Working Lead
MAXDISCHARGETIME	VARIABLEANDUNITS	1.00000E+002	s	1.00000E+002	second(s)	Max &Discharge Time
DISCHARGEMODE	MULTIPARAM	0	4.00000E-004	&Discharge Mode	Constant Current	Amp(s)
SAMPLETIME	QUANT	1.00000E-002	Sa&mple Period (s)
DISCHARGESTOPAT1	MULTIPARAM	3	0.00000E+000	Discharge Stop At &1	Voltage < Limit	V
DISCHARGESTOPAT2	MULTIPARAM	0	0.00000E+000	Discharge Stop At &2	None	N/A
AESBHCSELECTOR	TOGGLE	F	Save Both Half Cells
IRCOMP	TOGGLE	F	IR &Measure
EOC	QUANT	0	Open Circuit (V)
SEQUENCER	TOGGLE	TRUE	Run as Sequence
PSTATMODEL	IQUANT	53	Pstat Model
PSTATSECTION	LABEL	IFC5000-01520	Pstat Section
PSTATSERIALNO	LABEL	01520	Pstat Serial Number
CTRLMODE	IQUANT	0	Control Mode
ELECTROMETER	IQUANT	1	RE=0 or CS=1
IESTAB	IQUANT	0	I/E Stability
CASPEED	IQUANT	4	Control Amp Speed
CONVENTION	IQUANT	1	Current Convention
ICHRANGE	IQUANT	2	Ich Range
ICHRANGEMODE	TOGGLE	T	Ich Auto Range
ICHOFFSETENABLE	TOGGLE	F	Ich Offset Enable
ICHOFFSET	QUANT	0	Ich Offset (V)
ICHFILTER	IQUANT	1	Ich Filter
VCHRANGE	IQUANT	2	Vch Range
VCHRANGEMODE	TOGGLE	T	Vch Auto Range
VCHOFFSETENABLE	TOGGLE	F	Vch Offset Enable
VCHOFFSET	QUANT	0	Vch Offset (V)
VCHFILTER	IQUANT	1	Vch Filter
IERANGELOWERLIMIT	IQUANT	9	I/E Range Lower Limit
IERANGEMODE	TOGGLE	F	I/E AutoRange
IERANGE	IQUANT	9	I/E Range
ACHSELECT	IQUANT	1	Ach Select
ACHRANGE	IQUANT	2	Ach Range
ACHOFFSETENABLE	TOGGLE	F	Ach Offset Enable
ACHOFFSET	QUANT	0	Ach Offset (V)
ACHFILTER	IQUANT	1	Ach Filter
CABLEID	IQUANT	14	Cable ID
DCCALDATE	LABEL	5-7-2017	DC Calibration Date
ACCALDATE	LABEL	12/3/2015	AC Calibration Date
FRAMEWORKVERSION	QUANT	7.01	Framework Version
INSTRUMENTVERSION	LABEL	4.00	Instrument Version
CURVE	TABLE	126
	Pt	T	Vf	Im	Vu	Pwr	Sig	Ach	Temp	IERange	Over
	#	s	V	A	V	W	V	V	deg C	#	bits
	0	0.013333	7.15490E-001	-3.98896E-004	0.00000E+000	-2.85406E-004	-2.40040E-001	7.15725E-001	3.57600E+000	9	...........
	1	0.026667	7.04088E-001	-3.98801E-004	0.00000E+000	-2.80791E-004	-2.40040E-001	7.04294E-001	3.57600E+000	9	...........
	2	0.04	6.94040E-001	-3.99257E-004	0.00000E+000	-2.77101E-004	-2.40040E-001	6.94272E-001	3.57600E+000	9	...........
	3	0.053333	6.84751E-001	-3.99710E-004	0.00000E+000	-2.73701E-004	-2.40040E-001	6.84987E-001	3.57600E+000	9	...........
	4	0.066667	6.76033E-001	-3.98041E-004	0.00000E+000	-2.69089E-004	-2.40040E-001	6.76253E-001	3.57600E+000	9	...........
	5	0.08	6.67602E-001	-3.98842E-004	0.00000E+000	-2.66267E-004	-2.40040E-001	6.67840E-001	3.57600E+000	9	...........
	6	0.093333	6.59421E-001	-3.99432E-004	0.00000E+000	-2.63394E-004	-2.40040E-001	6.59644E-001	3.57600E+000	9	...........
	7	0.106667	6.51451E-001	-3.99084E-004	0.00000E+000	-2.59984E-004	-2.40040E-001	6.51668E-001	3.57600E+000	9	...........
	8	0.12	6.43673E-001	-3.99439E-004	0.00000E+000	-2.57108E-004	-2.40040E-001	6.43909E-001	3.57600E+000	9	...........
	9	0.133333	6.35988E-001	-3.97540E-004	0.00000E+000	-2.52831E-004	-2.40040E-001	6.36241E-001	3.57600E+000	9	...........
	10	0.146667	6.28431E-001	-3.98232E-004	0.00000E+000	-2.50262E-004	-2.40040E-001	6.28656E-001	3.57600E+000	9	...........
	11	0.16	6.20958E-001	-3.99475E-004	0.00000E+000	-2.48057E-004	-2.40040E-001	6.21153E-001	3.57600E+000	9	...........
	12	0.173333	6.13613E-001	-3.99804E-004	0.00000E+000	-2.45325E-004	-2.40040E-001	6.13828E-001	3.57600E+000	9	...........
	13	0.186667	6.06284E-001	-3.98545E-004	0.00000E+000	-2.41631E-004	-2.40040E-001	6.06526E-001	3.57600E+000	9	...........
	14	0.2	5.99065E-001	-3.98672E-004	0.00000E+000	-2.38830E-004	-2.40040E-001	5.99317E-001	3.57600E+000	9	...........
	15	0.213333	5.91969E-001	-3.99017E-004	0.00000E+000	-2.36205E-004	-2.40040E-001	5.92186E-001	3.57600E+000	9	...........
	16	0.226667	5.84936E-001	-3.97627E-004	0.00000E+000	-2.32586E-004	-2.40040E-001	5.85156E-001	3.57600E+000	9	...........
	17	0.24	5.77923E-001	-3.99128E-004	0.00000E+000	-2.30665E-004	-2.40040E-001	5.78137E-001	3.57600E+000	9	...........
	18	0.253333	5.70929E-001	-3.99275E-004	0.00000E+000	-2.27958E-004	-2.40040E-001	5.71145E-001	3.57600E+000	9	...........
	19	0.266667	5.63992E-001	-3.98470E-004	0.00000E+000	-2.24734E-004	-2.40040E-001	5.64225E-001	3.57600E+000	9	...........
	20	0.28	5.57014E-001	-3.99824E-004	0.00000E+000	-2.22707E-004	-2.40040E-001	5.57236E-001	3.57600E+000	9	...........
	21	0.293333	5.50106E-001	-3.97975E-004	0.00000E+000	-2.18928E-004	-2.40040E-001	5.50316E-001	3.57600E+000	9	...........
	22	0.306667	5.43247E-001	-3.99504E-004	0.00000E+000	-2.17030E-004	-2.40040E-001	5.43441E-001	3.57590E+000	9	...........
	23	0.32	5.36353E-001	-4.00054E-004	0.00000E+000	-2.14571E-004	-2.40040E-001	5.36584E-001	3.57590E+000	9	...........
	24	0.333333	5.29613E-001	-3.98168E-004	0.00000E+000	-2.10875E-004	-2.40040E-001	5.29814E-001	3.57590E+000	9	...........
	25	0.346667	5.22890E-001	-3.98669E-004	0.00000E+000	-2.08460E-004	-2.40040E-001	5.23099E-001	3.57590E+000	9	...........
	26	0.36	5.16253E-001	-3.98979E-004	0.00000E+000	-2.05974E-004	-2.40040E-001	5.16449E-001	3.57590E+000	9	...........
	27	0.373333	5.09621E-001	-3.98250E-004	0.00000E+000	-2.02957E-004	-2.40040E-001	5.09839E-001	3.57590E+000	9	...........
	28	0.386667	5.02966E-001	-3.97683E-004	0.00000E+000	-2.00021E-004	-2.40040E-001	5.03178E-001	3.57590E+000	9	...........
	29	0.4	4.96447E-001	-3.97977E-004	0.00000E+000	-1.97575E-004	-2.40040E-001	4.96664E-001	3.57590E+000	9	...........
	30	0.413333	4.89932E-001	-3.98354E-004	0.00000E+000	-1.95167E-004	-2.40040E-001	4.90145E-001	3.57590E+000	9	...........
	31	0.426667	4.83607E-001	-3.98128E-004	0.00000E+000	-1.92537E-004	-2.40040E-001	4.83721E-001	3.57590E+000	9	...........
	32	0.44	4.77243E-001	-3.98596E-004	0.00000E+000	-1.90227E-004	-2.40040E-001	4.77340E-001	3.57590E+000	9	...........
	33	0.453333	4.70811E-001	-3.98670E-004	0.00000E+000	-1.87698E-004	-2.40040E-001	4.70906E-001	3.57590E+000	9	...........
	34	0.466667	4.64457E-001	-3.98803E-004	0.00000E+000	-1.85227E-004	-2.40040E-001	4.64549E-001	3.57590E+000	9	...........
	35	0.48	4.58154E-001	-3.99719E-004	0.00000E+000	-1.83133E-004	-2.40040E-001	4.58248E-001	3.57590E+000	9	...........
	36	0.493333	4.51866E-001	-3.99425E-004	0.00000E+000	-1.80487E-004	-2.40040E-001	4.51956E-001	3.57590E+000	9	...........
	37	0.506667	4.45538E-001	-3.99155E-004	0.00000E+000	-1.77839E-004	-2.40040E-001	4.45628E-001	3.57590E+000	9	...........
	38	0.52	4.39229E-001	-3.98488E-004	0.00000E+000	-1.75028E-004	-2.40040E-001	4.39318E-001	3.57590E+000	9	...........
	39	0.533333	4.32999E-001	-3.98299E-004	0.00000E+000	-1.72463E-004	-2.40040E-001	4.33089E-001	3.57590E+000	9	...........
	40	0.546667	4.26851E-001	-3.98759E-004	0.00000E+000	-1.70211E-004	-2.40040E-001	4.26938E-001	3.57590E+000	9	...........
	41	0.56	4.20677E-001	-3.97719E-004	0.00000E+000	-1.67311E-004	-2.40040E-001	4.20761E-001	3.57590E+000	9	...........
	42	0.573333	4.14523E-001	-3.98307E-004	0.00000E+000	-1.65107E-004	-2.40040E-001	4.14608E-001	3.57590E+000	9	...........
	43	0.586667	4.08496E-001	-3.99464E-004	0.00000E+000	-1.63179E-004	-2.40040E-001	4.08575E-001	3.57590E+000	9	...........
	44	0.6	4.02407E-001	-3.98757E-004	0.00000E+000	-1.60463E-004	-2.40040E-001	4.02479E-001	3.57590E+000	9	...........
	45	0.613333	3.96385E-001	-3.98811E-004	0.00000E+000	-1.58083E-004	-2.40040E-001	3.96462E-001	3.57590E+000	9	...........
	46	0.626667	3.90385E-001	-3.98405E-004	0.00000E+000	-1.55531E-004	-2.40040E-001	3.90459E-001	3.57590E+000	9	...........
	47	0.64	3.84400E-001	-3.98814E-004	0.00000E+000	-1.53304E-004	-2.40040E-001	3.84474E-001	3.57590E+000	9	...........
	48	0.653333	3.78374E-001	-3.98734E-004	0.00000E+000	-1.50871E-004	-2.40040E-001	3.78448E-001	3.57590E+000	9	...........
	49	0.666667	3.72367E-001	-3.98769E-004	0.00000E+000	-1.48488E-004	-2.40040E-001	3.72444E-001	3.57590E+000	9	...........
	50	0.68	3.66512E-001	-3.99757E-004	0.00000E+000	-1.46516E-004	-2.40040E-001	3.66589E-001	3.57590E+000	9	...........
	51	0.693333	3.60685E-001	-3.98602E-004	0.00000E+000	-1.43770E-004	-2.40040E-001	3.60756E-001	3.57590E+000	9	...........
	52	0.706667	3.54920E-001	-3.98352E-004	0.00000E+000	-1.41383E-004	-2.40040E-001	3.54992E-001	3.57590E+000	9	...........
	53	0.72	3.49146E-001	-3.99343E-004	0.00000E+000	-1.39429E-004	-2.40040E-001	3.49218E-001	3.57590E+000	9	...........
	54	0.733333	3.43389E-001	-3.98974E-004	0.00000E+000	-1.37003E-004	-2.40040E-001	3.43460E-001	3.57590E+000	9	...........
	55	0.746667	3.37583E-001	-3.98895E-004	0.00000E+000	-1.34660E-004	-2.40040E-001	3.37649E-001	3.57590E+000	9	...........
	56	0.76	3.31889E-001	-3.99349E-004	0.00000E+000	-1.32540E-004	-2.40040E-001	3.31957E-001	3.57590E+000	9	...........
	57	0.773333	3.26188E-001	-3.98295E-004	0.00000E+000	-1.29919E-004	-2.40040E-001	3.26254E-001	3.57590E+000	9	...........
	58	0.786667	3.20514E-001	-3.97969E-004	0.00000E+000	-1.27555E-004	-2.40040E-001	3.20581E-001	3.57590E+000	9	...........
	59	0.8	3.14890E-001	-3.97799E-004	0.00000E+000	-1.25263E-004	-2.40040E-001	3.14956E-001	3.57590E+000	9	...........
	60	0.813333	3.09339E-001	-3.98602E-004	0.00000E+000	-1.23303E-004	-2.40040E-001	3.09406E-001	3.57590E+000	9	...........
	61	0.826667	3.03780E-001	-3.98281E-004	0.00000E+000	-1.20990E-004	-2.40040E-001	3.03843E-001	3.57590E+000	9	...........
	62	0.84	2.98289E-001	-3.99445E-004	0.00000E+000	-1.19150E-004	-2.40040E-001	2.98351E-001	3.57590E+000	9	...........
	63	0.853333	2.92756E-001	-3.98512E-004	0.00000E+000	-1.16667E-004	-2.40040E-001	2.92818E-001	3.57590E+000	9	...........
	64	0.866667	2.87279E-001	-3.98122E-004	0.00000E+000	-1.14372E-004	-2.40040E-001	2.87336E-001	3.57590E+000	9	...........
	65	0.88	2.81833E-001	-3.98543E-004	0.00000E+000	-1.12323E-004	-2.40040E-001	2.81890E-001	3.57590E+000	9	...........
	66	0.893333	2.76382E-001	-3.97542E-004	0.00000E+000	-1.09874E-004	-2.40040E-001	2.76438E-001	3.57590E+000	9	...........
	67	0.906667	2.71005E-001	-3.99552E-004	0.00000E+000	-1.08281E-004	-2.40040E-001	2.71057E-001	3.57590E+000	9	...........
	68	0.92	2.65623E-001	-3.97849E-004	0.00000E+000	-1.05678E-004	-2.40040E-001	2.65679E-001	3.57590E+000	9	...........
	69	0.933333	2.60279E-001	-3.97760E-004	0.00000E+000	-1.03528E-004	-2.40040E-001	2.60331E-001	3.57590E+000	9	...........
	70	0.946667	2.55002E-001	-3.98304E-004	0.00000E+000	-1.01568E-004	-2.40040E-001	2.55050E-001	3.57590E+000	9	...........
	71	0.96	2.49696E-001	-3.98637E-004	0.00000E+000	-9.95384E-005	-2.40040E-001	2.49747E-001	3.57590E+000	9	...........
	72	0.97333	2.44406E-001	-3.97548E-004	0.00000E+000	-9.71630E-005	-2.40040E-001	2.44445E-001	3.57590E+000	9	...........
	73	0.98667	2.39199E-001	-3.97615E-004	0.00000E+000	-9.51091E-005	-2.40040E-001	2.39242E-001	3.57590E+000	9	...........
	74	1	2.34004E-001	-3.99449E-004	0.00000E+000	-9.34728E-005	-2.40040E-001	2.34039E-001	3.57590E+000	9	...........
	75	1.01333	2.28768E-001	-3.98256E-004	0.00000E+000	-9.11082E-005	-2.40040E-001	2.28800E-001	3.57590E+000	9	...........
	76	1.02667	2.23625E-001	-3.99485E-004	0.00000E+000	-8.93346E-005	-2.40040E-001	2.23667E-001	3.57590E+000	9	...........
	77	1.04	2.18477E-001	-3.98451E-004	0.00000E+000	-8.70524E-005	-2.40040E-001	2.18516E-001	3.57590E+000	9	...........
	78	1.05333	2.13440E-001	-3.98993E-004	0.00000E+000	-8.51611E-005	-2.40040E-001	2.13479E-001	3.57590E+000	9	...........
	79	1.06667	2.08395E-001	-3.98540E-004	0.00000E+000	-8.30537E-005	-2.40040E-001	2.08430E-001	3.57590E+000	9	...........
	80	1.08	2.03352E-001	-3.98472E-004	0.00000E+000	-8.10302E-005	-2.40040E-001	2.03395E-001	3.57590E+000	9	...........
	81	1.09333	1.98378E-001	-3.98600E-004	0.00000E+000	-7.90734E-005	-2.40040E-001	1.98413E-001	3.57590E+000	9	...........
	82	1.10667	1.93367E-001	-3.98793E-004	0.00000E+000	-7.71132E-005	-2.40040E-001	1.93401E-001	3.57590E+000	9	...........
	83	1.12	1.88358E-001	-3.99948E-004	0.00000E+000	-7.53335E-005	-2.40040E-001	1.88390E-001	3.57590E+000	9	...........
	84	1.13333	1.83402E-001	-3.97919E-004	0.00000E+000	-7.29789E-005	-2.40040E-001	1.83436E-001	3.57590E+000	9	...........
	85	1.14667	1.78447E-001	-3.98155E-004	0.00000E+000	-7.10495E-005	-2.40040E-001	1.78479E-001	3.57590E+000	9	...........
	86	1.16	1.73585E-001	-3.99033E-004	0.00000E+000	-6.92661E-005	-2.40040E-001	1.73613E-001	3.57590E+000	9	...........
	87	1.17333	1.68714E-001	-3.98928E-004	0.00000E+000	-6.73046E-005	-2.40040E-001	1.68744E-001	3.57590E+000	9	...........
	88	1.18667	1.63835E-001	-3.98310E-004	0.00000E+000	-6.52573E-005	-2.40040E-001	1.63866E-001	3.57590E+000	9	...........
	89	1.2	1.58982E-001	-3.98519E-004	0.00000E+000	-6.33575E-005	-2.40040E-001	1.59015E-001	3.57590E+000	9	...........
	90	1.21333	1.54219E-001	-3.98271E-004	0.00000E+000	-6.14210E-005	-2.40040E-001	1.54246E-001	3.57590E+000	9	...........
	91	1.22667	1.49428E-001	-3.98563E-004	0.00000E+000	-5.95565E-005	-2.40040E-001	1.49455E-001	3.57590E+000	9	...........
	92	1.24	1.44649E-001	-3.98958E-004	0.00000E+000	-5.77091E-005	-2.40040E-001	1.44674E-001	3.57590E+000	9	...........
	93	1.25333	1.39860E-001	-3.99641E-004	0.00000E+000	-5.58938E-005	-2.40040E-001	1.39891E-001	3.57590E+000	9	...........
	94	1.26667	1.35178E-001	-3.97977E-004	0.00000E+000	-5.37978E-005	-2.40040E-001	1.35201E-001	3.57590E+000	9	...........
	95	1.28	1.30507E-001	-3.98701E-004	0.00000E+000	-5.20332E-005	-2.40040E-001	1.30530E-001	3.57590E+000	9	...........
	96	1.29333	1.25859E-001	-3.99201E-004	0.00000E+000	-5.02430E-005	-2.40040E-001	1.25886E-001	3.57590E+000	9	...........
	97	1.30667	1.21226E-001	-3.98347E-004	0.00000E+000	-4.82900E-005	-2.40040E-001	1.21250E-001	3.57590E+000	9	...........
	98	1.32	1.16595E-001	-3.98609E-004	0.00000E+000	-4.64757E-005	-2.40040E-001	1.16614E-001	3.57590E+000	9	...........
	99	1.33333	1.11976E-001	-3.98737E-004	0.00000E+000	-4.46491E-005	-2.40040E-001	1.12001E-001	3.57590E+000	9	...........
	100	1.34667	1.07398E-001	-3.98945E-004	0.00000E+000	-4.28457E-005	-2.40040E-001	1.07420E-001	3.57590E+000	9	...........
	101	1.36	1.02863E-001	-3.98704E-004	0.00000E+000	-4.10119E-005	-2.40040E-001	1.02884E-001	3.57590E+000	9	...........
	102	1.37333	9.83032E-002	-3.97795E-004	0.00000E+000	-3.91045E-005	-2.40040E-001	9.83233E-002	3.57590E+000	9	...........
	103	1.38667	9.37357E-002	-3.99044E-004	0.00000E+000	-3.74047E-005	-2.40040E-001	9.37477E-002	3.57590E+000	9	...........
	104	1.4	8.92161E-002	-3.99269E-004	0.00000E+000	-3.56212E-005	-2.40040E-001	8.92378E-002	3.57590E+000	9	...........
	105	1.41333	8.47675E-002	-3.99497E-004	0.00000E+000	-3.38643E-005	-2.40040E-001	8.47848E-002	3.57590E+000	9	...........
	106	1.42667	8.03488E-002	-3.98677E-004	0.00000E+000	-3.20332E-005	-2.40040E-001	8.03574E-002	3.57590E+000	9	...........
	107	1.44	7.59435E-002	-3.97895E-004	0.00000E+000	-3.02175E-005	-2.40040E-001	7.59589E-002	3.57590E+000	9	...........
	108	1.45333	7.14047E-002	-3.98825E-004	0.00000E+000	-2.84780E-005	-2.40040E-001	7.14146E-002	3.57590E+000	9	...........
	109	1.46667	6.69544E-002	-3.99734E-004	0.00000E+000	-2.67639E-005	-2.40040E-001	6.69642E-002	3.57590E+000	9	...........
	110	1.48	6.26160E-002	-3.98392E-004	0.00000E+000	-2.49457E-005	-2.40040E-001	6.26225E-002	3.57590E+000	9	...........
	111	1.49333	5.82655E-002	-3.99183E-004	0.00000E+000	-2.32586E-005	-2.40040E-001	5.82721E-002	3.57590E+000	9	...........
	112	1.50667	5.39204E-002	-3.99248E-004	0.00000E+000	-2.15276E-005	-2.40040E-001	5.39303E-002	3.57590E+000	9	...........
	113	1.52	4.96606E-002	-3.98945E-004	0.00000E+000	-1.98118E-005	-2.40040E-001	4.96624E-002	3.57590E+000	9	...........
	114	1.53333	4.54390E-002	-3.99325E-004	0.00000E+000	-1.81450E-005	-2.40040E-001	4.54488E-002	3.57590E+000	9	...........
	115	1.54667	4.11505E-002	-3.98710E-004	0.00000E+000	-1.64071E-005	-2.40040E-001	4.11544E-002	3.57590E+000	9	...........
	116	1.56	3.68843E-002	-3.99077E-004	0.00000E+000	-1.47197E-005	-2.40040E-001	3.68885E-002	3.57590E+000	9	...........
	117	1.57333	3.26526E-002	-3.98657E-004	0.00000E+000	-1.30172E-005	-2.40040E-001	3.26540E-002	3.57590E+000	9	...........
	118	1.58667	2.83783E-002	-3.98148E-004	0.00000E+000	-1.12987E-005	-2.40040E-001	2.83756E-002	3.57590E+000	9	...........
	119	1.6	2.41745E-002	-3.98322E-004	0.00000E+000	-9.62924E-006	-2.40040E-001	2.41748E-002	3.57590E+000	9	...........
	120	1.61333	2.00310E-002	-3.98054E-004	0.00000E+000	-7.97341E-006	-2.40040E-001	2.00242E-002	3.57590E+000	9	...........
	121	1.62667	1.59496E-002	-3.97382E-004	0.00000E+000	-6.33809E-006	-2.40040E-001	1.59428E-002	3.57590E+000	9	...........
	122	1.64	1.17499E-002	-3.98306E-004	0.00000E+000	-4.68004E-006	-2.40040E-001	1.17391E-002	3.57590E+000	9	...........
	123	1.65333	7.64303E-003	-3.97724E-004	0.00000E+000	-3.03981E-006	-2.40040E-001	7.62645E-003	3.57590E+000	9	...........
	124	1.66667	3.63070E-003	-3.98934E-004	0.00000E+000	-1.44841E-006	-2.40040E-001	3.61568E-003	3.57590E+000	9	...........
	125	1.67333	6.36467E-004	-3.99154E-004	0.00000E+000	-2.54048E-007	-2.40040E-001	6.19410E-004	3.57590E+000	9	...........
STARTTIMEOFFSET	QUANT	561.665	Start Time Offset (s)
