EXPLAIN
TAG	PWR800_DISCHARGE
TITLE	LABEL	PWR Cyclic Charge Discharge (Cell) - Discharge Step	Test &Identifier
DATE	LABEL	12-7-2017	Date
TIME	LABEL	14:31:53	Time
NOTES	NOTES	3	&Notes...
	supercap test cell
	0.4mg
	6M KOH
PSTAT	PSTAT	IFC5000-01520	Potentiostat
CAPACITY	QUANT	1.00000E-003	Capacity (A-hr)
CELLTYPE	SELECTOR	1	&Cell Type
WORKINGCONNECTION	SELECTOR	0	&Working Lead
MAXDISCHARGETIME	VARIABLEANDUNITS	1.00000E+002	s	1.00000E+002	second(s)	Max &Discharge Time
DISCHARGEMODE	MULTIPARAM	0	4.00000E-004	&Discharge Mode	Constant Current	Amp(s)
SAMPLETIME	QUANT	1.00000E-002	Sa&mple Period (s)
DISCHARGESTOPAT1	MULTIPARAM	3	0.00000E+000	Discharge Stop At &1	Voltage < Limit	V
DISCHARGESTOPAT2	MULTIPARAM	0	0.00000E+000	Discharge Stop At &2	None	N/A
AESBHCSELECTOR	TOGGLE	F	Save Both Half Cells
IRCOMP	TOGGLE	F	IR &Measure
EOC	QUANT	0	Open Circuit (V)
SEQUENCER	TOGGLE	TRUE	Run as Sequence
PSTATMODEL	IQUANT	53	Pstat Model
PSTATSECTION	LABEL	IFC5000-01520	Pstat Section
PSTATSERIALNO	LABEL	01520	Pstat Serial Number
CTRLMODE	IQUANT	0	Control Mode
ELECTROMETER	IQUANT	1	RE=0 or CS=1
IESTAB	IQUANT	0	I/E Stability
CASPEED	IQUANT	4	Control Amp Speed
CONVENTION	IQUANT	1	Current Convention
ICHRANGE	IQUANT	2	Ich Range
ICHRANGEMODE	TOGGLE	T	Ich Auto Range
ICHOFFSETENABLE	TOGGLE	F	Ich Offset Enable
ICHOFFSET	QUANT	0	Ich Offset (V)
ICHFILTER	IQUANT	1	Ich Filter
VCHRANGE	IQUANT	2	Vch Range
VCHRANGEMODE	TOGGLE	T	Vch Auto Range
VCHOFFSETENABLE	TOGGLE	F	Vch Offset Enable
VCHOFFSET	QUANT	0	Vch Offset (V)
VCHFILTER	IQUANT	1	Vch Filter
IERANGELOWERLIMIT	IQUANT	9	I/E Range Lower Limit
IERANGEMODE	TOGGLE	F	I/E AutoRange
IERANGE	IQUANT	9	I/E Range
ACHSELECT	IQUANT	1	Ach Select
ACHRANGE	IQUANT	2	Ach Range
ACHOFFSETENABLE	TOGGLE	F	Ach Offset Enable
ACHOFFSET	QUANT	0	Ach Offset (V)
ACHFILTER	IQUANT	1	Ach Filter
CABLEID	IQUANT	14	Cable ID
DCCALDATE	LABEL	5-7-2017	DC Calibration Date
ACCALDATE	LABEL	12/3/2015	AC Calibration Date
FRAMEWORKVERSION	QUANT	7.01	Framework Version
INSTRUMENTVERSION	LABEL	4.00	Instrument Version
CURVE	TABLE	125
	Pt	T	Vf	Im	Vu	Pwr	Sig	Ach	Temp	IERange	Over
	#	s	V	A	V	W	V	V	deg C	#	bits
	0	0.013333	7.14260E-001	-4.00482E-004	0.00000E+000	-2.86048E-004	-2.40040E-001	7.14499E-001	3.57650E+000	9	...........
	1	0.026667	7.02856E-001	-3.98557E-004	0.00000E+000	-2.80128E-004	-2.40040E-001	7.03086E-001	3.57650E+000	9	...........
	2	0.04	6.92707E-001	-3.97879E-004	0.00000E+000	-2.75614E-004	-2.40040E-001	6.92933E-001	3.57642E+000	9	...........
	3	0.053333	6.83324E-001	-3.99155E-004	0.00000E+000	-2.72752E-004	-2.40040E-001	6.83568E-001	3.57590E+000	9	...........
	4	0.066667	6.74494E-001	-3.99171E-004	0.00000E+000	-2.69239E-004	-2.40040E-001	6.74708E-001	3.57590E+000	9	...........
	5	0.08	6.66029E-001	-3.97477E-004	0.00000E+000	-2.64731E-004	-2.40040E-001	6.66252E-001	3.57590E+000	9	...........
	6	0.093333	6.57780E-001	-3.99798E-004	0.00000E+000	-2.62979E-004	-2.40040E-001	6.58004E-001	3.57590E+000	9	...........
	7	0.106667	6.49754E-001	-4.00164E-004	0.00000E+000	-2.60008E-004	-2.40040E-001	6.49972E-001	3.57590E+000	9	...........
	8	0.12	6.41871E-001	-3.99607E-004	0.00000E+000	-2.56496E-004	-2.40040E-001	6.42108E-001	3.57590E+000	9	...........
	9	0.133333	6.34125E-001	-3.98496E-004	0.00000E+000	-2.52696E-004	-2.40040E-001	6.34363E-001	3.57590E+000	9	...........
	10	0.146667	6.26559E-001	-3.98849E-004	0.00000E+000	-2.49903E-004	-2.40040E-001	6.26798E-001	3.57590E+000	9	...........
	11	0.16	6.19051E-001	-3.98729E-004	0.00000E+000	-2.46834E-004	-2.40040E-001	6.19272E-001	3.57590E+000	9	...........
	12	0.173333	6.11544E-001	-3.98648E-004	0.00000E+000	-2.43791E-004	-2.40040E-001	6.11816E-001	3.57590E+000	9	...........
	13	0.186667	6.04249E-001	-3.96843E-004	0.00000E+000	-2.39792E-004	-2.40040E-001	6.04508E-001	3.57590E+000	9	...........
	14	0.2	5.97032E-001	-3.99568E-004	0.00000E+000	-2.38555E-004	-2.40040E-001	5.97293E-001	3.57590E+000	9	...........
	15	0.213333	5.89799E-001	-3.98779E-004	0.00000E+000	-2.35200E-004	-2.40040E-001	5.90080E-001	3.57590E+000	9	...........
	16	0.226667	5.82538E-001	-3.99424E-004	0.00000E+000	-2.32680E-004	-2.40040E-001	5.82797E-001	3.57590E+000	9	...........
	17	0.24	5.75469E-001	-3.97897E-004	0.00000E+000	-2.28977E-004	-2.40040E-001	5.75687E-001	3.57590E+000	9	...........
	18	0.253333	5.68442E-001	-3.97892E-004	0.00000E+000	-2.26179E-004	-2.40040E-001	5.68671E-001	3.57590E+000	9	...........
	19	0.266667	5.61448E-001	-3.98718E-004	0.00000E+000	-2.23859E-004	-2.40040E-001	5.61707E-001	3.57590E+000	9	...........
	20	0.28	5.54456E-001	-3.97651E-004	0.00000E+000	-2.20480E-004	-2.40040E-001	5.54682E-001	3.57590E+000	9	...........
	21	0.293333	5.47493E-001	-3.99091E-004	0.00000E+000	-2.18499E-004	-2.40040E-001	5.47731E-001	3.57590E+000	9	...........
	22	0.306667	5.40685E-001	-3.97688E-004	0.00000E+000	-2.15024E-004	-2.40040E-001	5.40920E-001	3.57590E+000	9	...........
	23	0.32	5.33861E-001	-3.98843E-004	0.00000E+000	-2.12927E-004	-2.40040E-001	5.34084E-001	3.57590E+000	9	...........
	24	0.333333	5.27055E-001	-3.97996E-004	0.00000E+000	-2.09766E-004	-2.40040E-001	5.27274E-001	3.57590E+000	9	...........
	25	0.346667	5.20247E-001	-3.99643E-004	0.00000E+000	-2.07913E-004	-2.40040E-001	5.20431E-001	3.57590E+000	9	...........
	26	0.36	5.13550E-001	-3.97606E-004	0.00000E+000	-2.04191E-004	-2.40040E-001	5.13720E-001	3.57590E+000	9	...........
	27	0.373333	5.06767E-001	-3.98359E-004	0.00000E+000	-2.01876E-004	-2.40040E-001	5.07029E-001	3.57590E+000	9	...........
	28	0.386667	5.00108E-001	-3.98677E-004	0.00000E+000	-1.99381E-004	-2.40040E-001	5.00324E-001	3.57590E+000	9	...........
	29	0.4	4.93449E-001	-3.99517E-004	0.00000E+000	-1.97141E-004	-2.40040E-001	4.93664E-001	3.57590E+000	9	...........
	30	0.413333	4.86883E-001	-3.97795E-004	0.00000E+000	-1.93679E-004	-2.40040E-001	4.87086E-001	3.57590E+000	9	...........
	31	0.426667	4.80559E-001	-3.99118E-004	0.00000E+000	-1.91799E-004	-2.40040E-001	4.80656E-001	3.57590E+000	9	...........
	32	0.44	4.74123E-001	-3.98819E-004	0.00000E+000	-1.89089E-004	-2.40040E-001	4.74226E-001	3.57590E+000	9	...........
	33	0.453333	4.67681E-001	-3.98142E-004	0.00000E+000	-1.86203E-004	-2.40040E-001	4.67774E-001	3.57590E+000	9	...........
	34	0.466667	4.61188E-001	-3.99698E-004	0.00000E+000	-1.84336E-004	-2.40040E-001	4.61278E-001	3.57590E+000	9	...........
	35	0.48	4.54792E-001	-3.99058E-004	0.00000E+000	-1.81489E-004	-2.40040E-001	4.54889E-001	3.57590E+000	9	...........
	36	0.493333	4.48418E-001	-3.98506E-004	0.00000E+000	-1.78698E-004	-2.40040E-001	4.48511E-001	3.57590E+000	9	...........
	37	0.506667	4.42128E-001	-3.98681E-004	0.00000E+000	-1.76268E-004	-2.40040E-001	4.42218E-001	3.57590E+000	9	...........
	38	0.52	4.35882E-001	-3.98950E-004	0.00000E+000	-1.73895E-004	-2.40040E-001	4.35969E-001	3.57590E+000	9	...........
	39	0.533333	4.29521E-001	-3.99007E-004	0.00000E+000	-1.71382E-004	-2.40040E-001	4.29609E-001	3.57590E+000	9	...........
	40	0.546667	4.23252E-001	-4.00085E-004	0.00000E+000	-1.69337E-004	-2.40040E-001	4.23337E-001	3.57590E+000	9	...........
	41	0.56	4.17037E-001	-3.98958E-004	0.00000E+000	-1.66380E-004	-2.40040E-001	4.17125E-001	3.57590E+000	9	...........
	42	0.573333	4.10826E-001	-3.98976E-004	0.00000E+000	-1.63910E-004	-2.40040E-001	4.10906E-001	3.57590E+000	9	...........
	43	0.586667	4.04727E-001	-3.99657E-004	0.00000E+000	-1.61752E-004	-2.40040E-001	4.04799E-001	3.57590E+000	9	...........
	44	0.6	3.98594E-001	-3.99422E-004	0.00000E+000	-1.59207E-004	-2.40040E-001	3.98673E-001	3.57590E+000	9	...........
	45	0.613333	3.92474E-001	-3.99009E-004	0.00000E+000	-1.56601E-004	-2.40040E-001	3.92547E-001	3.57590E+000	9	...........
	46	0.626667	3.86364E-001	-3.98692E-004	0.00000E+000	-1.54040E-004	-2.40040E-001	3.86440E-001	3.57590E+000	9	...........
	47	0.64	3.80346E-001	-3.99838E-004	0.00000E+000	-1.52077E-004	-2.40040E-001	3.80418E-001	3.57590E+000	9	...........
	48	0.653333	3.74341E-001	-3.98552E-004	0.00000E+000	-1.49194E-004	-2.40040E-001	3.74409E-001	3.57590E+000	9	...........
	49	0.666667	3.68413E-001	-3.98187E-004	0.00000E+000	-1.46697E-004	-2.40040E-001	3.68482E-001	3.57590E+000	9	...........
	50	0.68	3.62560E-001	-3.99109E-004	0.00000E+000	-1.44701E-004	-2.40040E-001	3.62630E-001	3.57590E+000	9	...........
	51	0.693333	3.56645E-001	-3.99367E-004	0.00000E+000	-1.42432E-004	-2.40040E-001	3.56713E-001	3.57590E+000	9	...........
	52	0.706667	3.50840E-001	-3.99229E-004	0.00000E+000	-1.40066E-004	-2.40040E-001	3.50906E-001	3.57590E+000	9	...........
	53	0.72	3.45037E-001	-3.98339E-004	0.00000E+000	-1.37442E-004	-2.40040E-001	3.45098E-001	3.57590E+000	9	...........
	54	0.733333	3.39218E-001	-3.98747E-004	0.00000E+000	-1.35262E-004	-2.40040E-001	3.39274E-001	3.57590E+000	9	...........
	55	0.746667	3.33407E-001	-3.99255E-004	0.00000E+000	-1.33114E-004	-2.40040E-001	3.33468E-001	3.57590E+000	9	...........
	56	0.76	3.27630E-001	-3.99179E-004	0.00000E+000	-1.30783E-004	-2.40040E-001	3.27692E-001	3.57590E+000	9	...........
	57	0.773333	3.21951E-001	-3.99020E-004	0.00000E+000	-1.28465E-004	-2.40040E-001	3.22004E-001	3.57590E+000	9	...........
	58	0.786667	3.16243E-001	-3.99289E-004	0.00000E+000	-1.26272E-004	-2.40040E-001	3.16305E-001	3.57590E+000	9	...........
	59	0.8	3.10616E-001	-3.99650E-004	0.00000E+000	-1.24138E-004	-2.40040E-001	3.10668E-001	3.57590E+000	9	...........
	60	0.813333	3.05039E-001	-3.98306E-004	0.00000E+000	-1.21499E-004	-2.40040E-001	3.05103E-001	3.57590E+000	9	...........
	61	0.826667	2.99435E-001	-4.00045E-004	0.00000E+000	-1.19788E-004	-2.40040E-001	2.99498E-001	3.57590E+000	9	...........
	62	0.84	2.93812E-001	-3.98018E-004	0.00000E+000	-1.16942E-004	-2.40040E-001	2.93872E-001	3.57590E+000	9	...........
	63	0.853333	2.88237E-001	-3.98033E-004	0.00000E+000	-1.14728E-004	-2.40040E-001	2.88292E-001	3.57590E+000	9	...........
	64	0.866667	2.82766E-001	-3.99037E-004	0.00000E+000	-1.12834E-004	-2.40040E-001	2.82825E-001	3.57590E+000	9	...........
	65	0.88	2.77291E-001	-3.98684E-004	0.00000E+000	-1.10551E-004	-2.40040E-001	2.77346E-001	3.57590E+000	9	...........
	66	0.893333	2.71798E-001	-3.98574E-004	0.00000E+000	-1.08331E-004	-2.40040E-001	2.71851E-001	3.57590E+000	9	...........
	67	0.906667	2.66387E-001	-3.99039E-004	0.00000E+000	-1.06299E-004	-2.40040E-001	2.66447E-001	3.57590E+000	9	...........
	68	0.92	2.60982E-001	-3.97680E-004	0.00000E+000	-1.03787E-004	-2.40040E-001	2.61038E-001	3.57590E+000	9	...........
	69	0.933333	2.55621E-001	-3.98892E-004	0.00000E+000	-1.01965E-004	-2.40040E-001	2.55675E-001	3.57590E+000	9	...........
	70	0.946667	2.50256E-001	-3.98736E-004	0.00000E+000	-9.97862E-005	-2.40040E-001	2.50312E-001	3.57590E+000	9	...........
	71	0.96	2.44991E-001	-3.97504E-004	0.00000E+000	-9.73847E-005	-2.40040E-001	2.45036E-001	3.57590E+000	9	...........
	72	0.97333	2.39637E-001	-3.98157E-004	0.00000E+000	-9.54132E-005	-2.40040E-001	2.39682E-001	3.57590E+000	9	...........
	73	0.98667	2.34318E-001	-3.97886E-004	0.00000E+000	-9.32320E-005	-2.40040E-001	2.34359E-001	3.57590E+000	9	...........
	74	1	2.29109E-001	-3.99259E-004	0.00000E+000	-9.14738E-005	-2.40040E-001	2.29155E-001	3.57590E+000	9	...........
	75	1.01333	2.23900E-001	-3.98869E-004	0.00000E+000	-8.93068E-005	-2.40040E-001	2.23951E-001	3.57590E+000	9	...........
	76	1.02667	2.18631E-001	-3.98581E-004	0.00000E+000	-8.71424E-005	-2.40040E-001	2.18679E-001	3.57590E+000	9	...........
	77	1.04	2.13534E-001	-3.98957E-004	0.00000E+000	-8.51911E-005	-2.40040E-001	2.13577E-001	3.57590E+000	9	...........
	78	1.05333	2.08392E-001	-4.00170E-004	0.00000E+000	-8.33921E-005	-2.40040E-001	2.08427E-001	3.57590E+000	9	...........
	79	1.06667	2.03257E-001	-3.98861E-004	0.00000E+000	-8.10713E-005	-2.40040E-001	2.03294E-001	3.57590E+000	9	...........
	80	1.08	1.98202E-001	-3.98857E-004	0.00000E+000	-7.90543E-005	-2.40040E-001	1.98237E-001	3.57590E+000	9	...........
	81	1.09333	1.93222E-001	-3.98651E-004	0.00000E+000	-7.70283E-005	-2.40040E-001	1.93260E-001	3.57590E+000	9	...........
	82	1.10667	1.88155E-001	-3.97953E-004	0.00000E+000	-7.48766E-005	-2.40040E-001	1.88194E-001	3.57590E+000	9	...........
	83	1.12	1.83139E-001	-3.97856E-004	0.00000E+000	-7.28629E-005	-2.40040E-001	1.83173E-001	3.57590E+000	9	...........
	84	1.13333	1.78149E-001	-3.98837E-004	0.00000E+000	-7.10524E-005	-2.40040E-001	1.78180E-001	3.57590E+000	9	...........
	85	1.14667	1.73147E-001	-3.99822E-004	0.00000E+000	-6.92281E-005	-2.40040E-001	1.73183E-001	3.57590E+000	9	...........
	86	1.16	1.68236E-001	-3.97243E-004	0.00000E+000	-6.68308E-005	-2.40040E-001	1.68272E-001	3.57590E+000	9	...........
	87	1.17333	1.63306E-001	-3.99576E-004	0.00000E+000	-6.52532E-005	-2.40040E-001	1.63336E-001	3.57590E+000	9	...........
	88	1.18667	1.58537E-001	-3.98446E-004	0.00000E+000	-6.31684E-005	-2.40040E-001	1.58561E-001	3.57590E+000	9	...........
	89	1.2	1.53717E-001	-3.99721E-004	0.00000E+000	-6.14441E-005	-2.40040E-001	1.53743E-001	3.57590E+000	9	...........
	90	1.21333	1.48900E-001	-4.00188E-004	0.00000E+000	-5.95879E-005	-2.40040E-001	1.48926E-001	3.57590E+000	9	...........
	91	1.22667	1.44168E-001	-3.98253E-004	0.00000E+000	-5.74154E-005	-2.40040E-001	1.44194E-001	3.57590E+000	9	...........
	92	1.24	1.39304E-001	-3.98625E-004	0.00000E+000	-5.55299E-005	-2.40040E-001	1.39332E-001	3.57590E+000	9	...........
	93	1.25333	1.34486E-001	-3.98200E-004	0.00000E+000	-5.35524E-005	-2.40040E-001	1.34514E-001	3.57590E+000	9	...........
	94	1.26667	1.29776E-001	-3.99748E-004	0.00000E+000	-5.18776E-005	-2.40040E-001	1.29808E-001	3.57590E+000	9	...........
	95	1.28	1.25042E-001	-3.99204E-004	0.00000E+000	-4.99173E-005	-2.40040E-001	1.25066E-001	3.57590E+000	9	...........
	96	1.29333	1.20365E-001	-3.97625E-004	0.00000E+000	-4.78603E-005	-2.40040E-001	1.20390E-001	3.57590E+000	9	...........
	97	1.30667	1.15663E-001	-3.98470E-004	0.00000E+000	-4.60882E-005	-2.40040E-001	1.15688E-001	3.57590E+000	9	...........
	98	1.32	1.11037E-001	-3.97478E-004	0.00000E+000	-4.41346E-005	-2.40040E-001	1.11061E-001	3.57590E+000	9	...........
	99	1.33333	1.06475E-001	-3.97789E-004	0.00000E+000	-4.23546E-005	-2.40040E-001	1.06497E-001	3.57590E+000	9	...........
	100	1.34667	1.01880E-001	-3.99175E-004	0.00000E+000	-4.06678E-005	-2.40040E-001	1.01897E-001	3.57590E+000	9	...........
	101	1.36	9.73499E-002	-3.98860E-004	0.00000E+000	-3.88290E-005	-2.40040E-001	9.73654E-002	3.57590E+000	9	...........
	102	1.37333	9.28126E-002	-3.99868E-004	0.00000E+000	-3.71128E-005	-2.40040E-001	9.28268E-002	3.57590E+000	9	...........
	103	1.38667	8.82619E-002	-3.97308E-004	0.00000E+000	-3.50672E-005	-2.40040E-001	8.82786E-002	3.57590E+000	9	...........
	104	1.4	8.37274E-002	-3.99112E-004	0.00000E+000	-3.34166E-005	-2.40040E-001	8.37416E-002	3.57590E+000	9	...........
	105	1.41333	7.92745E-002	-3.99116E-004	0.00000E+000	-3.16397E-005	-2.40040E-001	7.92833E-002	3.57590E+000	9	...........
	106	1.42667	7.48294E-002	-3.99507E-004	0.00000E+000	-2.98949E-005	-2.40040E-001	7.48388E-002	3.57590E+000	9	...........
	107	1.44	7.04084E-002	-3.97450E-004	0.00000E+000	-2.79838E-005	-2.40040E-001	7.04231E-002	3.57590E+000	9	...........
	108	1.45333	6.60146E-002	-3.98720E-004	0.00000E+000	-2.63213E-005	-2.40040E-001	6.60223E-002	3.57590E+000	9	...........
	109	1.46667	6.15332E-002	-3.98814E-004	0.00000E+000	-2.45403E-005	-2.40040E-001	6.15408E-002	3.57590E+000	9	...........
	110	1.48	5.71206E-002	-3.98529E-004	0.00000E+000	-2.27642E-005	-2.40040E-001	5.71327E-002	3.57590E+000	9	...........
	111	1.49333	5.26704E-002	-3.99041E-004	0.00000E+000	-2.10176E-005	-2.40040E-001	5.26735E-002	3.57590E+000	9	...........
	112	1.50667	4.84247E-002	-3.99763E-004	0.00000E+000	-1.93584E-005	-2.40040E-001	4.84275E-002	3.57590E+000	9	...........
	113	1.52	4.42071E-002	-3.98209E-004	0.00000E+000	-1.76037E-005	-2.40040E-001	4.42122E-002	3.57590E+000	9	...........
	114	1.53333	3.99547E-002	-3.97174E-004	0.00000E+000	-1.58690E-005	-2.40040E-001	3.99590E-002	3.57590E+000	9	...........
	115	1.54667	3.57350E-002	-3.99030E-004	0.00000E+000	-1.42594E-005	-2.40040E-001	3.57401E-002	3.57590E+000	9	...........
	116	1.56	3.15103E-002	-3.98973E-004	0.00000E+000	-1.25718E-005	-2.40040E-001	3.15106E-002	3.57590E+000	9	...........
	117	1.57333	2.73742E-002	-3.98392E-004	0.00000E+000	-1.09056E-005	-2.40040E-001	2.73734E-002	3.57590E+000	9	...........
	118	1.58667	2.31346E-002	-3.98407E-004	0.00000E+000	-9.21697E-006	-2.40040E-001	2.31287E-002	3.57590E+000	9	...........
	119	1.6	1.89904E-002	-3.99176E-004	0.00000E+000	-7.58050E-006	-2.40040E-001	1.89859E-002	3.57590E+000	9	...........
	120	1.61333	1.48315E-002	-3.99450E-004	0.00000E+000	-5.92445E-006	-2.40040E-001	1.48240E-002	3.57590E+000	9	...........
	121	1.62667	1.06910E-002	-4.00104E-004	0.00000E+000	-4.27753E-006	-2.40040E-001	1.06821E-002	3.57590E+000	9	...........
	122	1.64	6.54142E-003	-3.97468E-004	0.00000E+000	-2.60001E-006	-2.40040E-001	6.52985E-003	3.57590E+000	9	...........
	123	1.65333	2.43895E-003	-3.98404E-004	0.00000E+000	-9.71689E-007	-2.40040E-001	2.42712E-003	3.57590E+000	9	...........
	124	1.65667	-1.37035E-004	-3.98219E-004	0.00000E+000	5.45700E-008	-2.40040E-001	-1.56716E-004	3.57590E+000	9	...........
STARTTIMEOFFSET	QUANT	640.4367	Start Time Offset (s)
