EXPLAIN
TAG	PWR800_DISCHARGE
TITLE	LABEL	PWR Cyclic Charge Discharge (Cell) - Discharge Step	Test &Identifier
DATE	LABEL	12-7-2017	Date
TIME	LABEL	14:59:45	Time
NOTES	NOTES	3	&Notes...
	supercap test cell
	0.4mg
	6M KOH
PSTAT	PSTAT	IFC5000-01520	Potentiostat
CAPACITY	QUANT	1.00000E-003	Capacity (A-hr)
CELLTYPE	SELECTOR	1	&Cell Type
WORKINGCONNECTION	SELECTOR	0	&Working Lead
MAXDISCHARGETIME	VARIABLEANDUNITS	1.00000E+002	s	1.00000E+002	second(s)	Max &Discharge Time
DISCHARGEMODE	MULTIPARAM	0	4.00000E-004	&Discharge Mode	Constant Current	Amp(s)
SAMPLETIME	QUANT	1.00000E-002	Sa&mple Period (s)
DISCHARGESTOPAT1	MULTIPARAM	3	0.00000E+000	Discharge Stop At &1	Voltage < Limit	V
DISCHARGESTOPAT2	MULTIPARAM	0	0.00000E+000	Discharge Stop At &2	None	N/A
AESBHCSELECTOR	TOGGLE	F	Save Both Half Cells
IRCOMP	TOGGLE	F	IR &Measure
EOC	QUANT	0	Open Circuit (V)
SEQUENCER	TOGGLE	TRUE	Run as Sequence
PSTATMODEL	IQUANT	53	Pstat Model
PSTATSECTION	LABEL	IFC5000-01520	Pstat Section
PSTATSERIALNO	LABEL	01520	Pstat Serial Number
CTRLMODE	IQUANT	0	Control Mode
ELECTROMETER	IQUANT	1	RE=0 or CS=1
IESTAB	IQUANT	0	I/E Stability
CASPEED	IQUANT	4	Control Amp Speed
CONVENTION	IQUANT	1	Current Convention
ICHRANGE	IQUANT	2	Ich Range
ICHRANGEMODE	TOGGLE	T	Ich Auto Range
ICHOFFSETENABLE	TOGGLE	F	Ich Offset Enable
ICHOFFSET	QUANT	0	Ich Offset (V)
ICHFILTER	IQUANT	1	Ich Filter
VCHRANGE	IQUANT	2	Vch Range
VCHRANGEMODE	TOGGLE	T	Vch Auto Range
VCHOFFSETENABLE	TOGGLE	F	Vch Offset Enable
VCHOFFSET	QUANT	0	Vch Offset (V)
VCHFILTER	IQUANT	1	Vch Filter
IERANGELOWERLIMIT	IQUANT	9	I/E Range Lower Limit
IERANGEMODE	TOGGLE	F	I/E AutoRange
IERANGE	IQUANT	9	I/E Range
ACHSELECT	IQUANT	1	Ach Select
ACHRANGE	IQUANT	2	Ach Range
ACHOFFSETENABLE	TOGGLE	F	Ach Offset Enable
ACHOFFSET	QUANT	0	Ach Offset (V)
ACHFILTER	IQUANT	1	Ach Filter
CABLEID	IQUANT	14	Cable ID
DCCALDATE	LABEL	5-7-2017	DC Calibration Date
ACCALDATE	LABEL	12/3/2015	AC Calibration Date
FRAMEWORKVERSION	QUANT	7.01	Framework Version
INSTRUMENTVERSION	LABEL	4.00	Instrument Version
CURVE	TABLE	109
	Pt	T	Vf	Im	Vu	Pwr	Sig	Ach	Temp	IERange	Over
	#	s	V	A	V	W	V	V	deg C	#	bits
	0	0.013333	6.94913E-001	-3.98403E-004	0.00000E+000	-2.76856E-004	-2.40040E-001	6.95135E-001	3.57620E+000	9	...........
	1	0.026667	6.81951E-001	-3.99752E-004	0.00000E+000	-2.72611E-004	-2.40040E-001	6.82177E-001	3.57620E+000	9	...........
	2	0.04	6.70688E-001	-3.98396E-004	0.00000E+000	-2.67199E-004	-2.40040E-001	6.70872E-001	3.57620E+000	9	...........
	3	0.053333	6.60308E-001	-3.98201E-004	0.00000E+000	-2.62935E-004	-2.40040E-001	6.60498E-001	3.57620E+000	9	...........
	4	0.066667	6.50521E-001	-4.00293E-004	0.00000E+000	-2.60399E-004	-2.40040E-001	6.50744E-001	3.57620E+000	9	...........
	5	0.08	6.41192E-001	-3.99443E-004	0.00000E+000	-2.56120E-004	-2.40040E-001	6.41424E-001	3.57620E+000	9	...........
	6	0.093333	6.32136E-001	-3.99653E-004	0.00000E+000	-2.52635E-004	-2.40040E-001	6.32368E-001	3.57620E+000	9	...........
	7	0.106667	6.23371E-001	-3.98357E-004	0.00000E+000	-2.48324E-004	-2.40040E-001	6.23603E-001	3.57620E+000	9	...........
	8	0.12	6.14764E-001	-3.99128E-004	0.00000E+000	-2.45369E-004	-2.40040E-001	6.15036E-001	3.57620E+000	9	...........
	9	0.133333	6.06270E-001	-3.98647E-004	0.00000E+000	-2.41688E-004	-2.40040E-001	6.06557E-001	3.57620E+000	9	...........
	10	0.146667	5.98014E-001	-3.98940E-004	0.00000E+000	-2.38571E-004	-2.40040E-001	5.98243E-001	3.57620E+000	9	...........
	11	0.16	5.89748E-001	-3.98743E-004	0.00000E+000	-2.35158E-004	-2.40040E-001	5.89970E-001	3.57620E+000	9	...........
	12	0.173333	5.81693E-001	-3.98184E-004	0.00000E+000	-2.31621E-004	-2.40040E-001	5.81898E-001	3.57620E+000	9	...........
	13	0.186667	5.73607E-001	-3.98628E-004	0.00000E+000	-2.28656E-004	-2.40040E-001	5.73797E-001	3.57620E+000	9	...........
	14	0.2	5.65612E-001	-3.97722E-004	0.00000E+000	-2.24956E-004	-2.40040E-001	5.65815E-001	3.57620E+000	9	...........
	15	0.213333	5.57651E-001	-3.99986E-004	0.00000E+000	-2.23052E-004	-2.40040E-001	5.57905E-001	3.57620E+000	9	...........
	16	0.226667	5.49795E-001	-3.98890E-004	0.00000E+000	-2.19307E-004	-2.40040E-001	5.50030E-001	3.57620E+000	9	...........
	17	0.24	5.42062E-001	-3.98494E-004	0.00000E+000	-2.16008E-004	-2.40040E-001	5.42290E-001	3.57620E+000	9	...........
	18	0.253333	5.34246E-001	-3.98848E-004	0.00000E+000	-2.13083E-004	-2.40040E-001	5.34490E-001	3.57620E+000	9	...........
	19	0.266667	5.26597E-001	-3.98849E-004	0.00000E+000	-2.10033E-004	-2.40040E-001	5.26844E-001	3.57620E+000	9	...........
	20	0.28	5.18937E-001	-3.98035E-004	0.00000E+000	-2.06555E-004	-2.40040E-001	5.19153E-001	3.57620E+000	9	...........
	21	0.293333	5.11292E-001	-3.98415E-004	0.00000E+000	-2.03706E-004	-2.40040E-001	5.11513E-001	3.57620E+000	9	...........
	22	0.306667	5.03715E-001	-3.98594E-004	0.00000E+000	-2.00778E-004	-2.40040E-001	5.03949E-001	3.57620E+000	9	...........
	23	0.32	4.96295E-001	-3.98549E-004	0.00000E+000	-1.97798E-004	-2.40040E-001	4.96504E-001	3.57620E+000	9	...........
	24	0.333333	4.88880E-001	-3.98819E-004	0.00000E+000	-1.94974E-004	-2.40040E-001	4.89073E-001	3.57620E+000	9	...........
	25	0.346667	4.81735E-001	-3.98452E-004	0.00000E+000	-1.91948E-004	-2.40040E-001	4.81835E-001	3.57620E+000	9	...........
	26	0.36	4.74424E-001	-3.98890E-004	0.00000E+000	-1.89243E-004	-2.40040E-001	4.74523E-001	3.57620E+000	9	...........
	27	0.373333	4.67106E-001	-3.98836E-004	0.00000E+000	-1.86299E-004	-2.40040E-001	4.67197E-001	3.57620E+000	9	...........
	28	0.386667	4.59822E-001	-4.00248E-004	0.00000E+000	-1.84043E-004	-2.40040E-001	4.59913E-001	3.57620E+000	9	...........
	29	0.4	4.52653E-001	-3.98705E-004	0.00000E+000	-1.80475E-004	-2.40040E-001	4.52744E-001	3.57620E+000	9	...........
	30	0.413333	4.45431E-001	-3.98749E-004	0.00000E+000	-1.77615E-004	-2.40040E-001	4.45519E-001	3.57620E+000	9	...........
	31	0.426667	4.38217E-001	-3.98739E-004	0.00000E+000	-1.74734E-004	-2.40040E-001	4.38311E-001	3.57620E+000	9	...........
	32	0.44	4.31153E-001	-3.98956E-004	0.00000E+000	-1.72011E-004	-2.40040E-001	4.31241E-001	3.57620E+000	9	...........
	33	0.453333	4.24070E-001	-3.99378E-004	0.00000E+000	-1.69364E-004	-2.40040E-001	4.24158E-001	3.57620E+000	9	...........
	34	0.466667	4.17030E-001	-3.98890E-004	0.00000E+000	-1.66349E-004	-2.40040E-001	4.17117E-001	3.57620E+000	9	...........
	35	0.48	4.09998E-001	-3.97721E-004	0.00000E+000	-1.63065E-004	-2.40040E-001	4.10079E-001	3.57620E+000	9	...........
	36	0.493333	4.03005E-001	-3.97742E-004	0.00000E+000	-1.60292E-004	-2.40040E-001	4.03087E-001	3.57620E+000	9	...........
	37	0.506667	3.96146E-001	-3.99026E-004	0.00000E+000	-1.58073E-004	-2.40040E-001	3.96221E-001	3.57620E+000	9	...........
	38	0.52	3.89312E-001	-3.99624E-004	0.00000E+000	-1.55578E-004	-2.40040E-001	3.89392E-001	3.57620E+000	9	...........
	39	0.533333	3.82441E-001	-3.99802E-004	0.00000E+000	-1.52901E-004	-2.40040E-001	3.82518E-001	3.57620E+000	9	...........
	40	0.546667	3.75613E-001	-3.99116E-004	0.00000E+000	-1.49913E-004	-2.40040E-001	3.75685E-001	3.57620E+000	9	...........
	41	0.56	3.68837E-001	-3.98811E-004	0.00000E+000	-1.47096E-004	-2.40040E-001	3.68905E-001	3.57620E+000	9	...........
	42	0.573333	3.62134E-001	-3.98756E-004	0.00000E+000	-1.44403E-004	-2.40040E-001	3.62200E-001	3.57620E+000	9	...........
	43	0.586667	3.55489E-001	-3.98662E-004	0.00000E+000	-1.41720E-004	-2.40040E-001	3.55555E-001	3.57620E+000	9	...........
	44	0.6	3.48902E-001	-3.98620E-004	0.00000E+000	-1.39079E-004	-2.40040E-001	3.48963E-001	3.57620E+000	9	...........
	45	0.613333	3.42336E-001	-3.99074E-004	0.00000E+000	-1.36617E-004	-2.40040E-001	3.42395E-001	3.57620E+000	9	...........
	46	0.626667	3.35711E-001	-3.99532E-004	0.00000E+000	-1.34128E-004	-2.40040E-001	3.35783E-001	3.57620E+000	9	...........
	47	0.64	3.29145E-001	-3.98611E-004	0.00000E+000	-1.31201E-004	-2.40040E-001	3.29205E-001	3.57620E+000	9	...........
	48	0.653333	3.22629E-001	-3.98463E-004	0.00000E+000	-1.28556E-004	-2.40040E-001	3.22696E-001	3.57620E+000	9	...........
	49	0.666667	3.16320E-001	-3.96893E-004	0.00000E+000	-1.25545E-004	-2.40040E-001	3.16380E-001	3.57620E+000	9	...........
	50	0.68	3.10020E-001	-3.98931E-004	0.00000E+000	-1.23677E-004	-2.40040E-001	3.10081E-001	3.57620E+000	9	...........
	51	0.693333	3.03678E-001	-3.98919E-004	0.00000E+000	-1.21143E-004	-2.40040E-001	3.03742E-001	3.57620E+000	9	...........
	52	0.706667	2.97335E-001	-3.98917E-004	0.00000E+000	-1.18612E-004	-2.40040E-001	2.97392E-001	3.57620E+000	9	...........
	53	0.72	2.91065E-001	-3.98740E-004	0.00000E+000	-1.16059E-004	-2.40040E-001	2.91128E-001	3.57620E+000	9	...........
	54	0.733333	2.84878E-001	-3.98249E-004	0.00000E+000	-1.13452E-004	-2.40040E-001	2.84931E-001	3.57620E+000	9	...........
	55	0.746667	2.78756E-001	-3.98885E-004	0.00000E+000	-1.11192E-004	-2.40040E-001	2.78811E-001	3.57620E+000	9	...........
	56	0.76	2.72616E-001	-3.98473E-004	0.00000E+000	-1.08630E-004	-2.40040E-001	2.72665E-001	3.57620E+000	9	...........
	57	0.773333	2.66502E-001	-3.97492E-004	0.00000E+000	-1.05932E-004	-2.40040E-001	2.66555E-001	3.57620E+000	9	...........
	58	0.786667	2.60366E-001	-4.00063E-004	0.00000E+000	-1.04163E-004	-2.40040E-001	2.60422E-001	3.57620E+000	9	...........
	59	0.8	2.54377E-001	-4.00122E-004	0.00000E+000	-1.01782E-004	-2.40040E-001	2.54427E-001	3.57732E+000	9	...........
	60	0.813333	2.48390E-001	-3.98728E-004	0.00000E+000	-9.90401E-005	-2.40040E-001	2.48439E-001	3.57770E+000	9	...........
	61	0.826667	2.42441E-001	-3.98885E-004	0.00000E+000	-9.67062E-005	-2.40040E-001	2.42483E-001	3.57770E+000	9	...........
	62	0.84	2.36476E-001	-3.97862E-004	0.00000E+000	-9.40850E-005	-2.40040E-001	2.36515E-001	3.57770E+000	9	...........
	63	0.853333	2.30620E-001	-3.99227E-004	0.00000E+000	-9.20698E-005	-2.40040E-001	2.30662E-001	3.57770E+000	9	...........
	64	0.866667	2.24802E-001	-3.98587E-004	0.00000E+000	-8.96031E-005	-2.40040E-001	2.24842E-001	3.57770E+000	9	...........
	65	0.88	2.19032E-001	-3.99308E-004	0.00000E+000	-8.74614E-005	-2.40040E-001	2.19072E-001	3.57770E+000	9	...........
	66	0.893333	2.13274E-001	-3.98896E-004	0.00000E+000	-8.50739E-005	-2.40040E-001	2.13313E-001	3.57770E+000	9	...........
	67	0.906667	2.07555E-001	-3.96788E-004	0.00000E+000	-8.23553E-005	-2.40040E-001	2.07593E-001	3.57770E+000	9	...........
	68	0.92	2.01900E-001	-3.99531E-004	0.00000E+000	-8.06653E-005	-2.40040E-001	2.01944E-001	3.57770E+000	9	...........
	69	0.933333	1.96195E-001	-3.98596E-004	0.00000E+000	-7.82025E-005	-2.40040E-001	1.96233E-001	3.57770E+000	9	...........
	70	0.946667	1.90549E-001	-3.99362E-004	0.00000E+000	-7.60978E-005	-2.40040E-001	1.90585E-001	3.57770E+000	9	...........
	71	0.96	1.84979E-001	-3.99506E-004	0.00000E+000	-7.39004E-005	-2.40040E-001	1.85018E-001	3.57770E+000	9	...........
	72	0.97333	1.79469E-001	-3.98524E-004	0.00000E+000	-7.15228E-005	-2.40040E-001	1.79501E-001	3.57770E+000	9	...........
	73	0.98667	1.73998E-001	-3.98547E-004	0.00000E+000	-6.93462E-005	-2.40040E-001	1.74031E-001	3.57770E+000	9	...........
	74	1	1.68482E-001	-3.98400E-004	0.00000E+000	-6.71234E-005	-2.40040E-001	1.68517E-001	3.57770E+000	9	...........
	75	1.01333	1.62969E-001	-3.99306E-004	0.00000E+000	-6.50746E-005	-2.40040E-001	1.62995E-001	3.57770E+000	9	...........
	76	1.02667	1.57553E-001	-4.00113E-004	0.00000E+000	-6.30390E-005	-2.40040E-001	1.57576E-001	3.57770E+000	9	...........
	77	1.04	1.52211E-001	-3.98746E-004	0.00000E+000	-6.06935E-005	-2.40040E-001	1.52238E-001	3.57770E+000	9	...........
	78	1.05333	1.46829E-001	-3.99338E-004	0.00000E+000	-5.86343E-005	-2.40040E-001	1.46856E-001	3.57770E+000	9	...........
	79	1.06667	1.41508E-001	-3.98207E-004	0.00000E+000	-5.63495E-005	-2.40040E-001	1.41536E-001	3.57770E+000	9	...........
	80	1.08	1.36228E-001	-3.98982E-004	0.00000E+000	-5.43526E-005	-2.40040E-001	1.36256E-001	3.57770E+000	9	...........
	81	1.09333	1.31014E-001	-3.99338E-004	0.00000E+000	-5.23190E-005	-2.40040E-001	1.31035E-001	3.57770E+000	9	...........
	82	1.10667	1.25788E-001	-4.00213E-004	0.00000E+000	-5.03420E-005	-2.40040E-001	1.25809E-001	3.57770E+000	9	...........
	83	1.12	1.20549E-001	-3.98511E-004	0.00000E+000	-4.80400E-005	-2.40040E-001	1.20567E-001	3.57770E+000	9	...........
	84	1.13333	1.15423E-001	-3.97899E-004	0.00000E+000	-4.59266E-005	-2.40040E-001	1.15443E-001	3.57770E+000	9	...........
	85	1.14667	1.10337E-001	-3.98193E-004	0.00000E+000	-4.39353E-005	-2.40040E-001	1.10356E-001	3.57770E+000	9	...........
	86	1.16	1.05294E-001	-3.99253E-004	0.00000E+000	-4.20389E-005	-2.40040E-001	1.05309E-001	3.57770E+000	9	...........
	87	1.17333	1.00202E-001	-3.99050E-004	0.00000E+000	-3.99857E-005	-2.40040E-001	1.00223E-001	3.57770E+000	9	...........
	88	1.18667	9.52212E-002	-3.97413E-004	0.00000E+000	-3.78422E-005	-2.40040E-001	9.52412E-002	3.57770E+000	9	...........
	89	1.2	9.02106E-002	-3.98361E-004	0.00000E+000	-3.59364E-005	-2.40040E-001	9.02259E-002	3.57770E+000	9	...........
	90	1.21333	8.52954E-002	-3.98903E-004	0.00000E+000	-3.40246E-005	-2.40040E-001	8.53037E-002	3.57770E+000	9	...........
	91	1.22667	8.03317E-002	-3.99585E-004	0.00000E+000	-3.20993E-005	-2.40040E-001	8.03434E-002	3.57770E+000	9	...........
	92	1.24	7.54742E-002	-3.97426E-004	0.00000E+000	-2.99954E-005	-2.40040E-001	7.54770E-002	3.57770E+000	9	...........
	93	1.25333	7.06842E-002	-3.98221E-004	0.00000E+000	-2.81479E-005	-2.40040E-001	7.06857E-002	3.57770E+000	9	...........
	94	1.26667	6.58266E-002	-3.98214E-004	0.00000E+000	-2.62131E-005	-2.40040E-001	6.58325E-002	3.57770E+000	9	...........
	95	1.28	6.09909E-002	-3.99873E-004	0.00000E+000	-2.43886E-005	-2.40040E-001	6.09925E-002	3.57770E+000	9	...........
	96	1.29333	5.61823E-002	-3.98665E-004	0.00000E+000	-2.23979E-005	-2.40040E-001	5.61855E-002	3.57770E+000	9	...........
	97	1.30667	5.14658E-002	-3.99511E-004	0.00000E+000	-2.05611E-005	-2.40040E-001	5.14670E-002	3.57770E+000	9	...........
	98	1.32	4.67843E-002	-3.97775E-004	0.00000E+000	-1.86096E-005	-2.40040E-001	4.67844E-002	3.57770E+000	9	...........
	99	1.33333	4.20578E-002	-3.98003E-004	0.00000E+000	-1.67391E-005	-2.40040E-001	4.20696E-002	3.57770E+000	9	...........
	100	1.34667	3.73665E-002	-3.97623E-004	0.00000E+000	-1.48578E-005	-2.40040E-001	3.73710E-002	3.57770E+000	9	...........
	101	1.36	3.26981E-002	-3.99199E-004	0.00000E+000	-1.30531E-005	-2.40040E-001	3.26988E-002	3.57770E+000	9	...........
	102	1.37333	2.81542E-002	-3.98336E-004	0.00000E+000	-1.12148E-005	-2.40040E-001	2.81515E-002	3.57770E+000	9	...........
	103	1.38667	2.35151E-002	-3.99872E-004	0.00000E+000	-9.40304E-006	-2.40040E-001	2.35133E-002	3.57770E+000	9	...........
	104	1.4	1.89339E-002	-3.99255E-004	0.00000E+000	-7.55946E-006	-2.40040E-001	1.89277E-002	3.57770E+000	9	...........
	105	1.41333	1.43531E-002	-3.98726E-004	0.00000E+000	-5.72295E-006	-2.40040E-001	1.43467E-002	3.57770E+000	9	...........
	106	1.42667	9.74751E-003	-3.98595E-004	0.00000E+000	-3.88531E-006	-2.40040E-001	9.73226E-003	3.57770E+000	9	...........
	107	1.44	5.22887E-003	-3.99535E-004	0.00000E+000	-2.08911E-006	-2.40040E-001	5.21226E-003	3.57770E+000	9	...........
	108	1.45	1.34179E-003	-3.99336E-004	0.00000E+000	-5.35826E-007	-2.40040E-001	1.32608E-003	3.57770E+000	9	...........
STARTTIMEOFFSET	QUANT	1962.342	Start Time Offset (s)
