EXPLAIN
TAG	PWR800_DISCHARGE
TITLE	LABEL	PWR Cyclic Charge Discharge (Cell) - Discharge Step	Test &Identifier
DATE	LABEL	12-7-2017	Date
TIME	LABEL	14:40:18	Time
NOTES	NOTES	3	&Notes...
	supercap test cell
	0.4mg
	6M KOH
PSTAT	PSTAT	IFC5000-01520	Potentiostat
CAPACITY	QUANT	1.00000E-003	Capacity (A-hr)
CELLTYPE	SELECTOR	1	&Cell Type
WORKINGCONNECTION	SELECTOR	0	&Working Lead
MAXDISCHARGETIME	VARIABLEANDUNITS	1.00000E+002	s	1.00000E+002	second(s)	Max &Discharge Time
DISCHARGEMODE	MULTIPARAM	0	4.00000E-004	&Discharge Mode	Constant Current	Amp(s)
SAMPLETIME	QUANT	1.00000E-002	Sa&mple Period (s)
DISCHARGESTOPAT1	MULTIPARAM	3	0.00000E+000	Discharge Stop At &1	Voltage < Limit	V
DISCHARGESTOPAT2	MULTIPARAM	0	0.00000E+000	Discharge Stop At &2	None	N/A
AESBHCSELECTOR	TOGGLE	F	Save Both Half Cells
IRCOMP	TOGGLE	F	IR &Measure
EOC	QUANT	0	Open Circuit (V)
SEQUENCER	TOGGLE	TRUE	Run as Sequence
PSTATMODEL	IQUANT	53	Pstat Model
PSTATSECTION	LABEL	IFC5000-01520	Pstat Section
PSTATSERIALNO	LABEL	01520	Pstat Serial Number
CTRLMODE	IQUANT	0	Control Mode
ELECTROMETER	IQUANT	1	RE=0 or CS=1
IESTAB	IQUANT	0	I/E Stability
CASPEED	IQUANT	4	Control Amp Speed
CONVENTION	IQUANT	1	Current Convention
ICHRANGE	IQUANT	2	Ich Range
ICHRANGEMODE	TOGGLE	T	Ich Auto Range
ICHOFFSETENABLE	TOGGLE	F	Ich Offset Enable
ICHOFFSET	QUANT	0	Ich Offset (V)
ICHFILTER	IQUANT	1	Ich Filter
VCHRANGE	IQUANT	2	Vch Range
VCHRANGEMODE	TOGGLE	T	Vch Auto Range
VCHOFFSETENABLE	TOGGLE	F	Vch Offset Enable
VCHOFFSET	QUANT	0	Vch Offset (V)
VCHFILTER	IQUANT	1	Vch Filter
IERANGELOWERLIMIT	IQUANT	9	I/E Range Lower Limit
IERANGEMODE	TOGGLE	F	I/E AutoRange
IERANGE	IQUANT	9	I/E Range
ACHSELECT	IQUANT	1	Ach Select
ACHRANGE	IQUANT	2	Ach Range
ACHOFFSETENABLE	TOGGLE	F	Ach Offset Enable
ACHOFFSET	QUANT	0	Ach Offset (V)
ACHFILTER	IQUANT	1	Ach Filter
CABLEID	IQUANT	14	Cable ID
DCCALDATE	LABEL	5-7-2017	DC Calibration Date
ACCALDATE	LABEL	12/3/2015	AC Calibration Date
FRAMEWORKVERSION	QUANT	7.01	Framework Version
INSTRUMENTVERSION	LABEL	4.00	Instrument Version
CURVE	TABLE	119
	Pt	T	Vf	Im	Vu	Pwr	Sig	Ach	Temp	IERange	Over
	#	s	V	A	V	W	V	V	deg C	#	bits
	0	0.013333	7.06770E-001	-4.00019E-004	0.00000E+000	-2.82722E-004	-2.40040E-001	7.07014E-001	3.57600E+000	9	...........
	1	0.026667	6.94827E-001	-3.99390E-004	0.00000E+000	-2.77507E-004	-2.40040E-001	6.95064E-001	3.57600E+000	9	...........
	2	0.04	6.84264E-001	-3.99234E-004	0.00000E+000	-2.73182E-004	-2.40040E-001	6.84494E-001	3.57600E+000	9	...........
	3	0.053333	6.74626E-001	-3.98394E-004	0.00000E+000	-2.68767E-004	-2.40040E-001	6.74868E-001	3.57600E+000	9	...........
	4	0.066667	6.65452E-001	-3.98822E-004	0.00000E+000	-2.65397E-004	-2.40040E-001	6.65658E-001	3.57600E+000	9	...........
	5	0.08	6.56659E-001	-3.99320E-004	0.00000E+000	-2.62217E-004	-2.40040E-001	6.56884E-001	3.57600E+000	9	...........
	6	0.093333	6.48184E-001	-3.97835E-004	0.00000E+000	-2.57870E-004	-2.40040E-001	6.48416E-001	3.57600E+000	9	...........
	7	0.106667	6.39828E-001	-3.99063E-004	0.00000E+000	-2.55331E-004	-2.40040E-001	6.40078E-001	3.57600E+000	9	...........
	8	0.12	6.31809E-001	-3.98078E-004	0.00000E+000	-2.51509E-004	-2.40040E-001	6.32023E-001	3.57600E+000	9	...........
	9	0.133333	6.23951E-001	-3.98435E-004	0.00000E+000	-2.48604E-004	-2.40040E-001	6.24141E-001	3.57600E+000	9	...........
	10	0.146667	6.16149E-001	-3.99460E-004	0.00000E+000	-2.46127E-004	-2.40040E-001	6.16362E-001	3.57600E+000	9	...........
	11	0.16	6.08366E-001	-3.99560E-004	0.00000E+000	-2.43079E-004	-2.40040E-001	6.08568E-001	3.57600E+000	9	...........
	12	0.173333	6.00688E-001	-3.97282E-004	0.00000E+000	-2.38643E-004	-2.40040E-001	6.00866E-001	3.57600E+000	9	...........
	13	0.186667	5.93027E-001	-3.98451E-004	0.00000E+000	-2.36292E-004	-2.40040E-001	5.93225E-001	3.57600E+000	9	...........
	14	0.2	5.85522E-001	-3.98939E-004	0.00000E+000	-2.33587E-004	-2.40040E-001	5.85706E-001	3.57600E+000	9	...........
	15	0.213333	5.78100E-001	-3.97430E-004	0.00000E+000	-2.29754E-004	-2.40040E-001	5.78283E-001	3.57600E+000	9	...........
	16	0.226667	5.70672E-001	-4.00025E-004	0.00000E+000	-2.28283E-004	-2.40040E-001	5.70863E-001	3.57600E+000	9	...........
	17	0.24	5.63321E-001	-3.98074E-004	0.00000E+000	-2.24243E-004	-2.40040E-001	5.63517E-001	3.57600E+000	9	...........
	18	0.253333	5.56024E-001	-3.99814E-004	0.00000E+000	-2.22306E-004	-2.40040E-001	5.56231E-001	3.57600E+000	9	...........
	19	0.266667	5.48834E-001	-3.99093E-004	0.00000E+000	-2.19036E-004	-2.40040E-001	5.49049E-001	3.57600E+000	9	...........
	20	0.28	5.41703E-001	-3.98338E-004	0.00000E+000	-2.15781E-004	-2.40040E-001	5.41910E-001	3.57600E+000	9	...........
	21	0.293333	5.34510E-001	-3.99126E-004	0.00000E+000	-2.13337E-004	-2.40040E-001	5.34742E-001	3.57600E+000	9	...........
	22	0.306667	5.27395E-001	-3.98653E-004	0.00000E+000	-2.10248E-004	-2.40040E-001	5.27631E-001	3.57600E+000	9	...........
	23	0.32	5.20242E-001	-3.98986E-004	0.00000E+000	-2.07570E-004	-2.40040E-001	5.20458E-001	3.57600E+000	9	...........
	24	0.333333	5.13071E-001	-3.98632E-004	0.00000E+000	-2.04527E-004	-2.40040E-001	5.13304E-001	3.57600E+000	9	...........
	25	0.346667	5.06035E-001	-3.99376E-004	0.00000E+000	-2.02098E-004	-2.40040E-001	5.06305E-001	3.57600E+000	9	...........
	26	0.36	4.99128E-001	-3.98924E-004	0.00000E+000	-1.99114E-004	-2.40040E-001	4.99359E-001	3.57600E+000	9	...........
	27	0.373333	4.92161E-001	-3.98978E-004	0.00000E+000	-1.96361E-004	-2.40040E-001	4.92365E-001	3.57600E+000	9	...........
	28	0.386667	4.85436E-001	-3.99006E-004	0.00000E+000	-1.93692E-004	-2.40040E-001	4.85601E-001	3.57600E+000	9	...........
	29	0.4	4.78705E-001	-3.99049E-004	0.00000E+000	-1.91027E-004	-2.40040E-001	4.78800E-001	3.57600E+000	9	...........
	30	0.413333	4.71807E-001	-3.99416E-004	0.00000E+000	-1.88447E-004	-2.40040E-001	4.71902E-001	3.57600E+000	9	...........
	31	0.426667	4.65014E-001	-3.98172E-004	0.00000E+000	-1.85155E-004	-2.40040E-001	4.65113E-001	3.57600E+000	9	...........
	32	0.44	4.58369E-001	-3.99167E-004	0.00000E+000	-1.82966E-004	-2.40040E-001	4.58462E-001	3.57600E+000	9	...........
	33	0.453333	4.51688E-001	-3.99084E-004	0.00000E+000	-1.80262E-004	-2.40040E-001	4.51780E-001	3.57600E+000	9	...........
	34	0.466667	4.45058E-001	-3.98650E-004	0.00000E+000	-1.77422E-004	-2.40040E-001	4.45152E-001	3.57600E+000	9	...........
	35	0.48	4.38441E-001	-3.98996E-004	0.00000E+000	-1.74936E-004	-2.40040E-001	4.38529E-001	3.57600E+000	9	...........
	36	0.493333	4.31860E-001	-3.99024E-004	0.00000E+000	-1.72323E-004	-2.40040E-001	4.31944E-001	3.57600E+000	9	...........
	37	0.506667	4.25353E-001	-3.99072E-004	0.00000E+000	-1.69746E-004	-2.40040E-001	4.25440E-001	3.57600E+000	9	...........
	38	0.52	4.18862E-001	-3.97747E-004	0.00000E+000	-1.66601E-004	-2.40040E-001	4.18947E-001	3.57600E+000	9	...........
	39	0.533333	4.12393E-001	-3.98867E-004	0.00000E+000	-1.64490E-004	-2.40040E-001	4.12471E-001	3.57600E+000	9	...........
	40	0.546667	4.05938E-001	-3.98442E-004	0.00000E+000	-1.61742E-004	-2.40040E-001	4.06018E-001	3.57600E+000	9	...........
	41	0.56	3.99487E-001	-3.98835E-004	0.00000E+000	-1.59330E-004	-2.40040E-001	3.99567E-001	3.57600E+000	9	...........
	42	0.573333	3.93110E-001	-3.98643E-004	0.00000E+000	-1.56711E-004	-2.40040E-001	3.93185E-001	3.57600E+000	9	...........
	43	0.586667	3.86714E-001	-3.99272E-004	0.00000E+000	-1.54404E-004	-2.40040E-001	3.86792E-001	3.57600E+000	9	...........
	44	0.6	3.80314E-001	-3.99141E-004	0.00000E+000	-1.51799E-004	-2.40040E-001	3.80388E-001	3.57600E+000	9	...........
	45	0.613333	3.74046E-001	-3.99711E-004	0.00000E+000	-1.49510E-004	-2.40040E-001	3.74116E-001	3.57600E+000	9	...........
	46	0.626667	3.67842E-001	-3.97695E-004	0.00000E+000	-1.46289E-004	-2.40040E-001	3.67915E-001	3.57600E+000	9	...........
	47	0.64	3.61686E-001	-3.96696E-004	0.00000E+000	-1.43479E-004	-2.40040E-001	3.61759E-001	3.57600E+000	9	...........
	48	0.653333	3.55548E-001	-4.00028E-004	0.00000E+000	-1.42229E-004	-2.40040E-001	3.55620E-001	3.57600E+000	9	...........
	49	0.666667	3.49405E-001	-3.98532E-004	0.00000E+000	-1.39249E-004	-2.40040E-001	3.49472E-001	3.57743E+000	9	...........
	50	0.68	3.43224E-001	-3.99985E-004	0.00000E+000	-1.37284E-004	-2.40040E-001	3.43290E-001	3.57790E+000	9	...........
	51	0.693333	3.37179E-001	-3.99281E-004	0.00000E+000	-1.34629E-004	-2.40040E-001	3.37241E-001	3.57790E+000	9	...........
	52	0.706667	3.31211E-001	-3.99115E-004	0.00000E+000	-1.32191E-004	-2.40040E-001	3.31269E-001	3.57790E+000	9	...........
	53	0.72	3.25227E-001	-3.98500E-004	0.00000E+000	-1.29603E-004	-2.40040E-001	3.25285E-001	3.57790E+000	9	...........
	54	0.733333	3.19299E-001	-3.98853E-004	0.00000E+000	-1.27353E-004	-2.40040E-001	3.19362E-001	3.57790E+000	9	...........
	55	0.746667	3.13336E-001	-3.99141E-004	0.00000E+000	-1.25065E-004	-2.40040E-001	3.13396E-001	3.57790E+000	9	...........
	56	0.76	3.07446E-001	-3.98453E-004	0.00000E+000	-1.22503E-004	-2.40040E-001	3.07505E-001	3.57790E+000	9	...........
	57	0.773333	3.01620E-001	-3.98434E-004	0.00000E+000	-1.20176E-004	-2.40040E-001	3.01679E-001	3.57790E+000	9	...........
	58	0.786667	2.95764E-001	-3.98438E-004	0.00000E+000	-1.17844E-004	-2.40040E-001	2.95820E-001	3.57790E+000	9	...........
	59	0.8	2.89924E-001	-3.99503E-004	0.00000E+000	-1.15825E-004	-2.40040E-001	2.89987E-001	3.57790E+000	9	...........
	60	0.813333	2.84227E-001	-3.99004E-004	0.00000E+000	-1.13408E-004	-2.40040E-001	2.84288E-001	3.57790E+000	9	...........
	61	0.826667	2.78605E-001	-3.98172E-004	0.00000E+000	-1.10933E-004	-2.40040E-001	2.78661E-001	3.57790E+000	9	...........
	62	0.84	2.72902E-001	-3.98605E-004	0.00000E+000	-1.08780E-004	-2.40040E-001	2.72960E-001	3.57790E+000	9	...........
	63	0.853333	2.67234E-001	-3.97459E-004	0.00000E+000	-1.06214E-004	-2.40040E-001	2.67285E-001	3.57790E+000	9	...........
	64	0.866667	2.61649E-001	-3.98926E-004	0.00000E+000	-1.04379E-004	-2.40040E-001	2.61699E-001	3.57790E+000	9	...........
	65	0.88	2.56169E-001	-3.96810E-004	0.00000E+000	-1.01650E-004	-2.40040E-001	2.56226E-001	3.57790E+000	9	...........
	66	0.893333	2.50520E-001	-3.98296E-004	0.00000E+000	-9.97810E-005	-2.40040E-001	2.50566E-001	3.57790E+000	9	...........
	67	0.906667	2.44909E-001	-3.99753E-004	0.00000E+000	-9.79030E-005	-2.40040E-001	2.44951E-001	3.57790E+000	9	...........
	68	0.92	2.39410E-001	-3.97227E-004	0.00000E+000	-9.51001E-005	-2.40040E-001	2.39452E-001	3.57790E+000	9	...........
	69	0.933333	2.34007E-001	-3.99062E-004	0.00000E+000	-9.33830E-005	-2.40040E-001	2.34052E-001	3.57790E+000	9	...........
	70	0.946667	2.28556E-001	-3.98398E-004	0.00000E+000	-9.10562E-005	-2.40040E-001	2.28598E-001	3.57790E+000	9	...........
	71	0.96	2.23157E-001	-3.99172E-004	0.00000E+000	-8.90778E-005	-2.40040E-001	2.23200E-001	3.57790E+000	9	...........
	72	0.97333	2.17788E-001	-3.98740E-004	0.00000E+000	-8.68406E-005	-2.40040E-001	2.17826E-001	3.57790E+000	9	...........
	73	0.98667	2.12464E-001	-3.99724E-004	0.00000E+000	-8.49270E-005	-2.40040E-001	2.12504E-001	3.57790E+000	9	...........
	74	1	2.07129E-001	-3.97038E-004	0.00000E+000	-8.22381E-005	-2.40040E-001	2.07168E-001	3.57790E+000	9	...........
	75	1.01333	2.01862E-001	-3.97836E-004	0.00000E+000	-8.03082E-005	-2.40040E-001	2.01899E-001	3.57790E+000	9	...........
	76	1.02667	1.96588E-001	-3.99778E-004	0.00000E+000	-7.85917E-005	-2.40040E-001	1.96618E-001	3.57790E+000	9	...........
	77	1.04	1.91334E-001	-3.99362E-004	0.00000E+000	-7.64116E-005	-2.40040E-001	1.91377E-001	3.57790E+000	9	...........
	78	1.05333	1.86116E-001	-3.99302E-004	0.00000E+000	-7.43164E-005	-2.40040E-001	1.86150E-001	3.57790E+000	9	...........
	79	1.06667	1.80936E-001	-3.97812E-004	0.00000E+000	-7.19787E-005	-2.40040E-001	1.80977E-001	3.57790E+000	9	...........
	80	1.08	1.75784E-001	-3.98791E-004	0.00000E+000	-7.01011E-005	-2.40040E-001	1.75825E-001	3.57790E+000	9	...........
	81	1.09333	1.70630E-001	-3.99796E-004	0.00000E+000	-6.82173E-005	-2.40040E-001	1.70668E-001	3.57790E+000	9	...........
	82	1.10667	1.65631E-001	-3.99497E-004	0.00000E+000	-6.61690E-005	-2.40040E-001	1.65666E-001	3.57790E+000	9	...........
	83	1.12	1.60591E-001	-3.98484E-004	0.00000E+000	-6.39928E-005	-2.40040E-001	1.60620E-001	3.57790E+000	9	...........
	84	1.13333	1.55608E-001	-3.98200E-004	0.00000E+000	-6.19633E-005	-2.40040E-001	1.55636E-001	3.57790E+000	9	...........
	85	1.14667	1.50596E-001	-3.99154E-004	0.00000E+000	-6.01110E-005	-2.40040E-001	1.50625E-001	3.57790E+000	9	...........
	86	1.16	1.45534E-001	-3.98808E-004	0.00000E+000	-5.80403E-005	-2.40040E-001	1.45562E-001	3.57790E+000	9	...........
	87	1.17333	1.40571E-001	-3.98758E-004	0.00000E+000	-5.60538E-005	-2.40040E-001	1.40596E-001	3.57790E+000	9	...........
	88	1.18667	1.35653E-001	-3.99795E-004	0.00000E+000	-5.42335E-005	-2.40040E-001	1.35681E-001	3.57790E+000	9	...........
	89	1.2	1.30806E-001	-3.98524E-004	0.00000E+000	-5.21295E-005	-2.40040E-001	1.30826E-001	3.57790E+000	9	...........
	90	1.21333	1.25919E-001	-3.99195E-004	0.00000E+000	-5.02663E-005	-2.40040E-001	1.25944E-001	3.57790E+000	9	...........
	91	1.22667	1.21081E-001	-3.98504E-004	0.00000E+000	-4.82511E-005	-2.40040E-001	1.21111E-001	3.57790E+000	9	...........
	92	1.24	1.16299E-001	-3.99383E-004	0.00000E+000	-4.64477E-005	-2.40040E-001	1.16322E-001	3.57790E+000	9	...........
	93	1.25333	1.11492E-001	-3.98476E-004	0.00000E+000	-4.44268E-005	-2.40040E-001	1.11511E-001	3.57790E+000	9	...........
	94	1.26667	1.06703E-001	-3.97888E-004	0.00000E+000	-4.24559E-005	-2.40040E-001	1.06714E-001	3.57790E+000	9	...........
	95	1.28	1.01939E-001	-3.98583E-004	0.00000E+000	-4.06313E-005	-2.40040E-001	1.01951E-001	3.57790E+000	9	...........
	96	1.29333	9.71295E-002	-3.98590E-004	0.00000E+000	-3.87148E-005	-2.40040E-001	9.71489E-002	3.57790E+000	9	...........
	97	1.30667	9.23831E-002	-3.98469E-004	0.00000E+000	-3.68118E-005	-2.40040E-001	9.23913E-002	3.57790E+000	9	...........
	98	1.32	8.78193E-002	-3.97217E-004	0.00000E+000	-3.48833E-005	-2.40040E-001	8.78338E-002	3.57790E+000	9	...........
	99	1.33333	8.32493E-002	-3.99123E-004	0.00000E+000	-3.32267E-005	-2.40040E-001	8.32648E-002	3.57790E+000	9	...........
	100	1.34667	7.86397E-002	-3.98706E-004	0.00000E+000	-3.13541E-005	-2.40040E-001	7.86520E-002	3.57790E+000	9	...........
	101	1.36	7.39994E-002	-3.99187E-004	0.00000E+000	-2.95396E-005	-2.40040E-001	7.40118E-002	3.57790E+000	9	...........
	102	1.37333	6.93403E-002	-3.99339E-004	0.00000E+000	-2.76903E-005	-2.40040E-001	6.93487E-002	3.57790E+000	9	...........
	103	1.38667	6.47676E-002	-3.99014E-004	0.00000E+000	-2.58432E-005	-2.40040E-001	6.47810E-002	3.57790E+000	9	...........
	104	1.4	6.02666E-002	-3.97405E-004	0.00000E+000	-2.39502E-005	-2.40040E-001	6.02768E-002	3.57790E+000	9	...........
	105	1.41333	5.57880E-002	-3.98045E-004	0.00000E+000	-2.22061E-005	-2.40040E-001	5.57968E-002	3.57790E+000	9	...........
	106	1.42667	5.12860E-002	-3.98516E-004	0.00000E+000	-2.04383E-005	-2.40040E-001	5.12886E-002	3.57790E+000	9	...........
	107	1.44	4.68839E-002	-3.98404E-004	0.00000E+000	-1.86788E-005	-2.40040E-001	4.68939E-002	3.57790E+000	9	...........
	108	1.45333	4.24721E-002	-3.99719E-004	0.00000E+000	-1.69769E-005	-2.40040E-001	4.24802E-002	3.57790E+000	9	...........
	109	1.46667	3.80829E-002	-3.97489E-004	0.00000E+000	-1.51375E-005	-2.40040E-001	3.80841E-002	3.57790E+000	9	...........
	110	1.48	3.36871E-002	-3.99173E-004	0.00000E+000	-1.34470E-005	-2.40040E-001	3.36877E-002	3.57790E+000	9	...........
	111	1.49333	2.93172E-002	-3.98121E-004	0.00000E+000	-1.16718E-005	-2.40040E-001	2.93163E-002	3.57790E+000	9	...........
	112	1.50667	2.48770E-002	-3.98432E-004	0.00000E+000	-9.91180E-006	-2.40040E-001	2.48785E-002	3.57790E+000	9	...........
	113	1.52	2.04697E-002	-3.98567E-004	0.00000E+000	-8.15854E-006	-2.40040E-001	2.04654E-002	3.57790E+000	9	...........
	114	1.53333	1.61413E-002	-3.98282E-004	0.00000E+000	-6.42880E-006	-2.40040E-001	1.61360E-002	3.57790E+000	9	...........
	115	1.54667	1.19557E-002	-3.98138E-004	0.00000E+000	-4.76004E-006	-2.40040E-001	1.19445E-002	3.57790E+000	9	...........
	116	1.56	7.83875E-003	-3.99448E-004	0.00000E+000	-3.13118E-006	-2.40040E-001	7.82475E-003	3.57790E+000	9	...........
	117	1.57333	3.62420E-003	-3.99474E-004	0.00000E+000	-1.44777E-006	-2.40040E-001	3.60860E-003	3.57790E+000	9	...........
	118	1.58	4.06664E-004	-3.98527E-004	0.00000E+000	-1.62066E-007	-2.40040E-001	3.84678E-004	3.57790E+000	9	...........
STARTTIMEOFFSET	QUANT	1041.949	Start Time Offset (s)
