EXPLAIN
TAG	PWR800_DISCHARGE
TITLE	LABEL	PWR Cyclic Charge Discharge (Cell) - Discharge Step	Test &Identifier
DATE	LABEL	12-7-2017	Date
TIME	LABEL	14:36:56	Time
NOTES	NOTES	3	&Notes...
	supercap test cell
	0.4mg
	6M KOH
PSTAT	PSTAT	IFC5000-01520	Potentiostat
CAPACITY	QUANT	1.00000E-003	Capacity (A-hr)
CELLTYPE	SELECTOR	1	&Cell Type
WORKINGCONNECTION	SELECTOR	0	&Working Lead
MAXDISCHARGETIME	VARIABLEANDUNITS	1.00000E+002	s	1.00000E+002	second(s)	Max &Discharge Time
DISCHARGEMODE	MULTIPARAM	0	4.00000E-004	&Discharge Mode	Constant Current	Amp(s)
SAMPLETIME	QUANT	1.00000E-002	Sa&mple Period (s)
DISCHARGESTOPAT1	MULTIPARAM	3	0.00000E+000	Discharge Stop At &1	Voltage < Limit	V
DISCHARGESTOPAT2	MULTIPARAM	0	0.00000E+000	Discharge Stop At &2	None	N/A
AESBHCSELECTOR	TOGGLE	F	Save Both Half Cells
IRCOMP	TOGGLE	F	IR &Measure
EOC	QUANT	0	Open Circuit (V)
SEQUENCER	TOGGLE	TRUE	Run as Sequence
PSTATMODEL	IQUANT	53	Pstat Model
PSTATSECTION	LABEL	IFC5000-01520	Pstat Section
PSTATSERIALNO	LABEL	01520	Pstat Serial Number
CTRLMODE	IQUANT	0	Control Mode
ELECTROMETER	IQUANT	1	RE=0 or CS=1
IESTAB	IQUANT	0	I/E Stability
CASPEED	IQUANT	4	Control Amp Speed
CONVENTION	IQUANT	1	Current Convention
ICHRANGE	IQUANT	2	Ich Range
ICHRANGEMODE	TOGGLE	T	Ich Auto Range
ICHOFFSETENABLE	TOGGLE	F	Ich Offset Enable
ICHOFFSET	QUANT	0	Ich Offset (V)
ICHFILTER	IQUANT	1	Ich Filter
VCHRANGE	IQUANT	2	Vch Range
VCHRANGEMODE	TOGGLE	T	Vch Auto Range
VCHOFFSETENABLE	TOGGLE	F	Vch Offset Enable
VCHOFFSET	QUANT	0	Vch Offset (V)
VCHFILTER	IQUANT	1	Vch Filter
IERANGELOWERLIMIT	IQUANT	9	I/E Range Lower Limit
IERANGEMODE	TOGGLE	F	I/E AutoRange
IERANGE	IQUANT	9	I/E Range
ACHSELECT	IQUANT	1	Ach Select
ACHRANGE	IQUANT	2	Ach Range
ACHOFFSETENABLE	TOGGLE	F	Ach Offset Enable
ACHOFFSET	QUANT	0	Ach Offset (V)
ACHFILTER	IQUANT	1	Ach Filter
CABLEID	IQUANT	14	Cable ID
DCCALDATE	LABEL	5-7-2017	DC Calibration Date
ACCALDATE	LABEL	12/3/2015	AC Calibration Date
FRAMEWORKVERSION	QUANT	7.01	Framework Version
INSTRUMENTVERSION	LABEL	4.00	Instrument Version
CURVE	TABLE	121
	Pt	T	Vf	Im	Vu	Pwr	Sig	Ach	Temp	IERange	Over
	#	s	V	A	V	W	V	V	deg C	#	bits
	0	0.013333	7.11014E-001	-3.97698E-004	0.00000E+000	-2.82769E-004	-2.40040E-001	7.11241E-001	3.57750E+000	9	...........
	1	0.026667	6.99319E-001	-3.99388E-004	0.00000E+000	-2.79299E-004	-2.40040E-001	6.99517E-001	3.57750E+000	9	...........
	2	0.04	6.88904E-001	-3.99284E-004	0.00000E+000	-2.75068E-004	-2.40040E-001	6.89120E-001	3.57750E+000	9	...........
	3	0.053333	6.79459E-001	-3.97758E-004	0.00000E+000	-2.70260E-004	-2.40040E-001	6.79654E-001	3.57750E+000	9	...........
	4	0.066667	6.70469E-001	-3.99669E-004	0.00000E+000	-2.67966E-004	-2.40040E-001	6.70665E-001	3.57750E+000	9	...........
	5	0.08	6.61763E-001	-3.97435E-004	0.00000E+000	-2.63008E-004	-2.40040E-001	6.61982E-001	3.57750E+000	9	...........
	6	0.093333	6.53284E-001	-3.99176E-004	0.00000E+000	-2.60775E-004	-2.40040E-001	6.53489E-001	3.57750E+000	9	...........
	7	0.106667	6.45031E-001	-3.98543E-004	0.00000E+000	-2.57072E-004	-2.40040E-001	6.45224E-001	3.57750E+000	9	...........
	8	0.12	6.37039E-001	-3.99156E-004	0.00000E+000	-2.54278E-004	-2.40040E-001	6.37238E-001	3.57750E+000	9	...........
	9	0.133333	6.29205E-001	-3.99382E-004	0.00000E+000	-2.51294E-004	-2.40040E-001	6.29417E-001	3.57750E+000	9	...........
	10	0.146667	6.21426E-001	-3.98303E-004	0.00000E+000	-2.47516E-004	-2.40040E-001	6.21594E-001	3.57750E+000	9	...........
	11	0.16	6.13781E-001	-3.98977E-004	0.00000E+000	-2.44884E-004	-2.40040E-001	6.13968E-001	3.57750E+000	9	...........
	12	0.173333	6.06203E-001	-3.99330E-004	0.00000E+000	-2.42075E-004	-2.40040E-001	6.06411E-001	3.57750E+000	9	...........
	13	0.186667	5.98741E-001	-3.99746E-004	0.00000E+000	-2.39345E-004	-2.40040E-001	5.98965E-001	3.57750E+000	9	...........
	14	0.2	5.91297E-001	-3.97782E-004	0.00000E+000	-2.35208E-004	-2.40040E-001	5.91501E-001	3.57750E+000	9	...........
	15	0.213333	5.83835E-001	-3.98762E-004	0.00000E+000	-2.32811E-004	-2.40040E-001	5.84047E-001	3.57750E+000	9	...........
	16	0.226667	5.76503E-001	-3.98672E-004	0.00000E+000	-2.29836E-004	-2.40040E-001	5.76713E-001	3.57690E+000	9	...........
	17	0.24	5.69278E-001	-3.99074E-004	0.00000E+000	-2.27184E-004	-2.40040E-001	5.69463E-001	3.57630E+000	9	...........
	18	0.253333	5.62054E-001	-3.98525E-004	0.00000E+000	-2.23993E-004	-2.40040E-001	5.62292E-001	3.57630E+000	9	...........
	19	0.266667	5.54949E-001	-3.98699E-004	0.00000E+000	-2.21258E-004	-2.40040E-001	5.55161E-001	3.57630E+000	9	...........
	20	0.28	5.47841E-001	-3.99269E-004	0.00000E+000	-2.18736E-004	-2.40040E-001	5.48066E-001	3.57630E+000	9	...........
	21	0.293333	5.40798E-001	-3.98176E-004	0.00000E+000	-2.15333E-004	-2.40040E-001	5.41029E-001	3.57630E+000	9	...........
	22	0.306667	5.33726E-001	-3.98986E-004	0.00000E+000	-2.12950E-004	-2.40040E-001	5.33957E-001	3.57630E+000	9	...........
	23	0.32	5.26716E-001	-3.98356E-004	0.00000E+000	-2.09821E-004	-2.40040E-001	5.26980E-001	3.57630E+000	9	...........
	24	0.333333	5.19806E-001	-3.99494E-004	0.00000E+000	-2.07659E-004	-2.40040E-001	5.20060E-001	3.57630E+000	9	...........
	25	0.346667	5.12897E-001	-3.99494E-004	0.00000E+000	-2.04899E-004	-2.40040E-001	5.13120E-001	3.57630E+000	9	...........
	26	0.36	5.05947E-001	-3.98269E-004	0.00000E+000	-2.01503E-004	-2.40040E-001	5.06201E-001	3.57630E+000	9	...........
	27	0.373333	4.99066E-001	-3.97142E-004	0.00000E+000	-1.98200E-004	-2.40040E-001	4.99343E-001	3.57630E+000	9	...........
	28	0.386667	4.92280E-001	-3.99526E-004	0.00000E+000	-1.96679E-004	-2.40040E-001	4.92514E-001	3.57630E+000	9	...........
	29	0.4	4.85550E-001	-4.01467E-004	0.00000E+000	-1.94932E-004	-2.40040E-001	4.85709E-001	3.57630E+000	9	...........
	30	0.413333	4.79037E-001	-4.00377E-004	0.00000E+000	-1.91795E-004	-2.40040E-001	4.79129E-001	3.57630E+000	9	...........
	31	0.426667	4.72317E-001	-3.99954E-004	0.00000E+000	-1.88905E-004	-2.40040E-001	4.72411E-001	3.57630E+000	9	...........
	32	0.44	4.65653E-001	-3.99747E-004	0.00000E+000	-1.86143E-004	-2.40040E-001	4.65741E-001	3.57630E+000	9	...........
	33	0.453333	4.59006E-001	-4.00083E-004	0.00000E+000	-1.83640E-004	-2.40040E-001	4.59095E-001	3.57630E+000	9	...........
	34	0.466667	4.52452E-001	-3.99368E-004	0.00000E+000	-1.80695E-004	-2.40040E-001	4.52545E-001	3.57630E+000	9	...........
	35	0.48	4.45913E-001	-4.00093E-004	0.00000E+000	-1.78407E-004	-2.40040E-001	4.46004E-001	3.57630E+000	9	...........
	36	0.493333	4.39351E-001	-3.98351E-004	0.00000E+000	-1.75016E-004	-2.40040E-001	4.39442E-001	3.57630E+000	9	...........
	37	0.506667	4.32838E-001	-3.98748E-004	0.00000E+000	-1.72593E-004	-2.40040E-001	4.32931E-001	3.57630E+000	9	...........
	38	0.52	4.26401E-001	-3.98009E-004	0.00000E+000	-1.69712E-004	-2.40040E-001	4.26491E-001	3.57630E+000	9	...........
	39	0.533333	4.19910E-001	-3.98071E-004	0.00000E+000	-1.67154E-004	-2.40040E-001	4.19992E-001	3.57630E+000	9	...........
	40	0.546667	4.13495E-001	-3.99250E-004	0.00000E+000	-1.65088E-004	-2.40040E-001	4.13578E-001	3.57630E+000	9	...........
	41	0.56	4.07197E-001	-3.96159E-004	0.00000E+000	-1.61315E-004	-2.40040E-001	4.07279E-001	3.57630E+000	9	...........
	42	0.573333	4.00821E-001	-3.98347E-004	0.00000E+000	-1.59666E-004	-2.40040E-001	4.00899E-001	3.57630E+000	9	...........
	43	0.586667	3.94500E-001	-3.99289E-004	0.00000E+000	-1.57519E-004	-2.40040E-001	3.94575E-001	3.57630E+000	9	...........
	44	0.6	3.88319E-001	-3.98689E-004	0.00000E+000	-1.54818E-004	-2.40040E-001	3.88393E-001	3.57630E+000	9	...........
	45	0.613333	3.82131E-001	-3.98356E-004	0.00000E+000	-1.52224E-004	-2.40040E-001	3.82204E-001	3.57630E+000	9	...........
	46	0.626667	3.75981E-001	-3.98761E-004	0.00000E+000	-1.49927E-004	-2.40040E-001	3.76053E-001	3.57630E+000	9	...........
	47	0.64	3.69860E-001	-3.99124E-004	0.00000E+000	-1.47620E-004	-2.40040E-001	3.69928E-001	3.57630E+000	9	...........
	48	0.653333	3.63750E-001	-3.99045E-004	0.00000E+000	-1.45152E-004	-2.40040E-001	3.63815E-001	3.57630E+000	9	...........
	49	0.666667	3.57691E-001	-3.99844E-004	0.00000E+000	-1.43020E-004	-2.40040E-001	3.57766E-001	3.57630E+000	9	...........
	50	0.68	3.51648E-001	-3.98786E-004	0.00000E+000	-1.40232E-004	-2.40040E-001	3.51716E-001	3.57630E+000	9	...........
	51	0.693333	3.45603E-001	-3.98233E-004	0.00000E+000	-1.37631E-004	-2.40040E-001	3.45679E-001	3.57630E+000	9	...........
	52	0.706667	3.39641E-001	-3.97898E-004	0.00000E+000	-1.35143E-004	-2.40040E-001	3.39706E-001	3.57630E+000	9	...........
	53	0.72	3.33728E-001	-3.98392E-004	0.00000E+000	-1.32955E-004	-2.40040E-001	3.33793E-001	3.57630E+000	9	...........
	54	0.733333	3.27853E-001	-3.98676E-004	0.00000E+000	-1.30707E-004	-2.40040E-001	3.27918E-001	3.57630E+000	9	...........
	55	0.746667	3.22022E-001	-4.00637E-004	0.00000E+000	-1.29014E-004	-2.40040E-001	3.22090E-001	3.57630E+000	9	...........
	56	0.76	3.16216E-001	-3.98110E-004	0.00000E+000	-1.25889E-004	-2.40040E-001	3.16280E-001	3.57630E+000	9	...........
	57	0.773333	3.10433E-001	-3.99323E-004	0.00000E+000	-1.23963E-004	-2.40040E-001	3.10498E-001	3.57630E+000	9	...........
	58	0.786667	3.04620E-001	-3.98827E-004	0.00000E+000	-1.21491E-004	-2.40040E-001	3.04684E-001	3.57630E+000	9	...........
	59	0.8	2.98961E-001	-3.98544E-004	0.00000E+000	-1.19149E-004	-2.40040E-001	2.99020E-001	3.57630E+000	9	...........
	60	0.813333	2.93350E-001	-4.00113E-004	0.00000E+000	-1.17373E-004	-2.40040E-001	2.93410E-001	3.57630E+000	9	...........
	61	0.826667	2.87689E-001	-4.00227E-004	0.00000E+000	-1.15141E-004	-2.40040E-001	2.87752E-001	3.57630E+000	9	...........
	62	0.84	2.81972E-001	-3.98272E-004	0.00000E+000	-1.12301E-004	-2.40040E-001	2.82035E-001	3.57630E+000	9	...........
	63	0.853333	2.76356E-001	-3.98513E-004	0.00000E+000	-1.10132E-004	-2.40040E-001	2.76411E-001	3.57630E+000	9	...........
	64	0.866667	2.70789E-001	-3.99005E-004	0.00000E+000	-1.08046E-004	-2.40040E-001	2.70849E-001	3.57630E+000	9	...........
	65	0.88	2.65263E-001	-3.98446E-004	0.00000E+000	-1.05693E-004	-2.40040E-001	2.65323E-001	3.57630E+000	9	...........
	66	0.893333	2.59700E-001	-3.99060E-004	0.00000E+000	-1.03636E-004	-2.40040E-001	2.59757E-001	3.57630E+000	9	...........
	67	0.906667	2.54120E-001	-3.98080E-004	0.00000E+000	-1.01160E-004	-2.40040E-001	2.54178E-001	3.57630E+000	9	...........
	68	0.92	2.48623E-001	-3.98497E-004	0.00000E+000	-9.90754E-005	-2.40040E-001	2.48672E-001	3.57630E+000	9	...........
	69	0.933333	2.43308E-001	-3.98360E-004	0.00000E+000	-9.69242E-005	-2.40040E-001	2.43360E-001	3.57630E+000	9	...........
	70	0.946667	2.37907E-001	-3.97458E-004	0.00000E+000	-9.45581E-005	-2.40040E-001	2.37955E-001	3.57630E+000	9	...........
	71	0.96	2.32559E-001	-4.00349E-004	0.00000E+000	-9.31049E-005	-2.40040E-001	2.32608E-001	3.57630E+000	9	...........
	72	0.97333	2.27248E-001	-3.98558E-004	0.00000E+000	-9.05717E-005	-2.40040E-001	2.27288E-001	3.57630E+000	9	...........
	73	0.98667	2.21894E-001	-3.98487E-004	0.00000E+000	-8.84220E-005	-2.40040E-001	2.21938E-001	3.57630E+000	9	...........
	74	1	2.16551E-001	-3.99260E-004	0.00000E+000	-8.64602E-005	-2.40040E-001	2.16589E-001	3.57630E+000	9	...........
	75	1.01333	2.11331E-001	-3.99470E-004	0.00000E+000	-8.44202E-005	-2.40040E-001	2.11373E-001	3.57630E+000	9	...........
	76	1.02667	2.06040E-001	-3.98354E-004	0.00000E+000	-8.20767E-005	-2.40040E-001	2.06078E-001	3.57630E+000	9	...........
	77	1.04	2.00795E-001	-3.97700E-004	0.00000E+000	-7.98563E-005	-2.40040E-001	2.00837E-001	3.57630E+000	9	...........
	78	1.05333	1.95595E-001	-3.99512E-004	0.00000E+000	-7.81424E-005	-2.40040E-001	1.95637E-001	3.57630E+000	9	...........
	79	1.06667	1.90491E-001	-3.99101E-004	0.00000E+000	-7.60251E-005	-2.40040E-001	1.90524E-001	3.57630E+000	9	...........
	80	1.08	1.85398E-001	-4.00077E-004	0.00000E+000	-7.41735E-005	-2.40040E-001	1.85434E-001	3.57630E+000	9	...........
	81	1.09333	1.80259E-001	-3.98503E-004	0.00000E+000	-7.18336E-005	-2.40040E-001	1.80298E-001	3.57630E+000	9	...........
	82	1.10667	1.75205E-001	-3.98457E-004	0.00000E+000	-6.98116E-005	-2.40040E-001	1.75244E-001	3.57630E+000	9	...........
	83	1.12	1.70198E-001	-3.98820E-004	0.00000E+000	-6.78784E-005	-2.40040E-001	1.70232E-001	3.57630E+000	9	...........
	84	1.13333	1.65159E-001	-3.99148E-004	0.00000E+000	-6.59230E-005	-2.40040E-001	1.65193E-001	3.57630E+000	9	...........
	85	1.14667	1.60238E-001	-3.99978E-004	0.00000E+000	-6.40917E-005	-2.40040E-001	1.60276E-001	3.57630E+000	9	...........
	86	1.16	1.55382E-001	-3.99138E-004	0.00000E+000	-6.20188E-005	-2.40040E-001	1.55411E-001	3.57630E+000	9	...........
	87	1.17333	1.50417E-001	-3.98546E-004	0.00000E+000	-5.99481E-005	-2.40040E-001	1.50447E-001	3.57630E+000	9	...........
	88	1.18667	1.45459E-001	-3.98518E-004	0.00000E+000	-5.79681E-005	-2.40040E-001	1.45489E-001	3.57630E+000	9	...........
	89	1.2	1.40551E-001	-3.97683E-004	0.00000E+000	-5.58946E-005	-2.40040E-001	1.40582E-001	3.57630E+000	9	...........
	90	1.21333	1.35698E-001	-3.98747E-004	0.00000E+000	-5.41092E-005	-2.40040E-001	1.35724E-001	3.57630E+000	9	...........
	91	1.22667	1.30908E-001	-3.97817E-004	0.00000E+000	-5.20776E-005	-2.40040E-001	1.30934E-001	3.57650E+000	9	...........
	92	1.24	1.26162E-001	-3.97630E-004	0.00000E+000	-5.01656E-005	-2.40040E-001	1.26188E-001	3.57670E+000	9	...........
	93	1.25333	1.21436E-001	-3.98630E-004	0.00000E+000	-4.84081E-005	-2.40040E-001	1.21465E-001	3.57670E+000	9	...........
	94	1.26667	1.16723E-001	-3.98597E-004	0.00000E+000	-4.65256E-005	-2.40040E-001	1.16743E-001	3.57670E+000	9	...........
	95	1.28	1.11989E-001	-3.98438E-004	0.00000E+000	-4.46208E-005	-2.40040E-001	1.12007E-001	3.57670E+000	9	...........
	96	1.29333	1.07225E-001	-3.99450E-004	0.00000E+000	-4.28312E-005	-2.40040E-001	1.07246E-001	3.57670E+000	9	...........
	97	1.30667	1.02492E-001	-3.99305E-004	0.00000E+000	-4.09258E-005	-2.40040E-001	1.02511E-001	3.57670E+000	9	...........
	98	1.32	9.77651E-002	-3.98497E-004	0.00000E+000	-3.89591E-005	-2.40040E-001	9.77898E-002	3.57670E+000	9	...........
	99	1.33333	9.31071E-002	-3.96817E-004	0.00000E+000	-3.69465E-005	-2.40040E-001	9.31277E-002	3.57670E+000	9	...........
	100	1.34667	8.84104E-002	-3.98588E-004	0.00000E+000	-3.52394E-005	-2.40040E-001	8.84255E-002	3.57670E+000	9	...........
	101	1.36	8.37990E-002	-3.99479E-004	0.00000E+000	-3.34760E-005	-2.40040E-001	8.38130E-002	3.57670E+000	9	...........
	102	1.37333	7.92542E-002	-3.99332E-004	0.00000E+000	-3.16488E-005	-2.40040E-001	7.92646E-002	3.57670E+000	9	...........
	103	1.38667	7.47098E-002	-3.98555E-004	0.00000E+000	-2.97760E-005	-2.40040E-001	7.47196E-002	3.57670E+000	9	...........
	104	1.4	7.01487E-002	-3.99463E-004	0.00000E+000	-2.80218E-005	-2.40040E-001	7.01571E-002	3.57670E+000	9	...........
	105	1.41333	6.56417E-002	-3.98636E-004	0.00000E+000	-2.61672E-005	-2.40040E-001	6.56484E-002	3.57670E+000	9	...........
	106	1.42667	6.12155E-002	-4.00099E-004	0.00000E+000	-2.44923E-005	-2.40040E-001	6.12263E-002	3.57670E+000	9	...........
	107	1.44	5.67426E-002	-3.98267E-004	0.00000E+000	-2.25987E-005	-2.40040E-001	5.67519E-002	3.57670E+000	9	...........
	108	1.45333	5.22754E-002	-3.98288E-004	0.00000E+000	-2.08207E-005	-2.40040E-001	5.22870E-002	3.57670E+000	9	...........
	109	1.46667	4.79256E-002	-3.98650E-004	0.00000E+000	-1.91056E-005	-2.40040E-001	4.79341E-002	3.57670E+000	9	...........
	110	1.48	4.35796E-002	-3.98748E-004	0.00000E+000	-1.73773E-005	-2.40040E-001	4.35919E-002	3.57670E+000	9	...........
	111	1.49333	3.91817E-002	-3.99006E-004	0.00000E+000	-1.56338E-005	-2.40040E-001	3.91883E-002	3.57670E+000	9	...........
	112	1.50667	3.48327E-002	-3.98974E-004	0.00000E+000	-1.38973E-005	-2.40040E-001	3.48358E-002	3.57670E+000	9	...........
	113	1.52	3.05100E-002	-3.99089E-004	0.00000E+000	-1.21762E-005	-2.40040E-001	3.05138E-002	3.57670E+000	9	...........
	114	1.53333	2.60913E-002	-3.98680E-004	0.00000E+000	-1.04021E-005	-2.40040E-001	2.60932E-002	3.57670E+000	9	...........
	115	1.54667	2.17743E-002	-3.98338E-004	0.00000E+000	-8.67354E-006	-2.40040E-001	2.17687E-002	3.57670E+000	9	...........
	116	1.56	1.75373E-002	-3.98705E-004	0.00000E+000	-6.99223E-006	-2.40040E-001	1.75326E-002	3.57670E+000	9	...........
	117	1.57333	1.32983E-002	-3.99574E-004	0.00000E+000	-5.31367E-006	-2.40040E-001	1.32892E-002	3.57670E+000	9	...........
	118	1.58667	9.07928E-003	-3.99333E-004	0.00000E+000	-3.62566E-006	-2.40040E-001	9.06810E-003	3.57670E+000	9	...........
	119	1.6	4.80770E-003	-3.98992E-004	0.00000E+000	-1.91823E-006	-2.40040E-001	4.79738E-003	3.57670E+000	9	...........
	120	1.61	1.11364E-003	-3.99063E-004	0.00000E+000	-4.44414E-007	-2.40040E-001	1.10050E-003	3.57670E+000	9	...........
STARTTIMEOFFSET	QUANT	881.7568	Start Time Offset (s)
