EXPLAIN
TAG	PWR800_DISCHARGE
TITLE	LABEL	PWR Cyclic Charge Discharge (Cell) - Discharge Step	Test &Identifier
DATE	LABEL	12-7-2017	Date
TIME	LABEL	14:59:30	Time
NOTES	NOTES	3	&Notes...
	supercap test cell
	0.4mg
	6M KOH
PSTAT	PSTAT	IFC5000-01520	Potentiostat
CAPACITY	QUANT	1.00000E-003	Capacity (A-hr)
CELLTYPE	SELECTOR	1	&Cell Type
WORKINGCONNECTION	SELECTOR	0	&Working Lead
MAXDISCHARGETIME	VARIABLEANDUNITS	1.00000E+002	s	1.00000E+002	second(s)	Max &Discharge Time
DISCHARGEMODE	MULTIPARAM	0	4.00000E-004	&Discharge Mode	Constant Current	Amp(s)
SAMPLETIME	QUANT	1.00000E-002	Sa&mple Period (s)
DISCHARGESTOPAT1	MULTIPARAM	3	0.00000E+000	Discharge Stop At &1	Voltage < Limit	V
DISCHARGESTOPAT2	MULTIPARAM	0	0.00000E+000	Discharge Stop At &2	None	N/A
AESBHCSELECTOR	TOGGLE	F	Save Both Half Cells
IRCOMP	TOGGLE	F	IR &Measure
EOC	QUANT	0	Open Circuit (V)
SEQUENCER	TOGGLE	TRUE	Run as Sequence
PSTATMODEL	IQUANT	53	Pstat Model
PSTATSECTION	LABEL	IFC5000-01520	Pstat Section
PSTATSERIALNO	LABEL	01520	Pstat Serial Number
CTRLMODE	IQUANT	0	Control Mode
ELECTROMETER	IQUANT	1	RE=0 or CS=1
IESTAB	IQUANT	0	I/E Stability
CASPEED	IQUANT	4	Control Amp Speed
CONVENTION	IQUANT	1	Current Convention
ICHRANGE	IQUANT	2	Ich Range
ICHRANGEMODE	TOGGLE	T	Ich Auto Range
ICHOFFSETENABLE	TOGGLE	F	Ich Offset Enable
ICHOFFSET	QUANT	0	Ich Offset (V)
ICHFILTER	IQUANT	1	Ich Filter
VCHRANGE	IQUANT	2	Vch Range
VCHRANGEMODE	TOGGLE	T	Vch Auto Range
VCHOFFSETENABLE	TOGGLE	F	Vch Offset Enable
VCHOFFSET	QUANT	0	Vch Offset (V)
VCHFILTER	IQUANT	1	Vch Filter
IERANGELOWERLIMIT	IQUANT	9	I/E Range Lower Limit
IERANGEMODE	TOGGLE	F	I/E AutoRange
IERANGE	IQUANT	9	I/E Range
ACHSELECT	IQUANT	1	Ach Select
ACHRANGE	IQUANT	2	Ach Range
ACHOFFSETENABLE	TOGGLE	F	Ach Offset Enable
ACHOFFSET	QUANT	0	Ach Offset (V)
ACHFILTER	IQUANT	1	Ach Filter
CABLEID	IQUANT	14	Cable ID
DCCALDATE	LABEL	5-7-2017	DC Calibration Date
ACCALDATE	LABEL	12/3/2015	AC Calibration Date
FRAMEWORKVERSION	QUANT	7.01	Framework Version
INSTRUMENTVERSION	LABEL	4.00	Instrument Version
CURVE	TABLE	109
	Pt	T	Vf	Im	Vu	Pwr	Sig	Ach	Temp	IERange	Over
	#	s	V	A	V	W	V	V	deg C	#	bits
	0	0.013333	6.93606E-001	-3.98748E-004	0.00000E+000	-2.76574E-004	-2.40040E-001	6.93834E-001	3.57680E+000	9	...........
	1	0.026667	6.80779E-001	-3.99090E-004	0.00000E+000	-2.71692E-004	-2.40040E-001	6.80964E-001	3.57680E+000	9	...........
	2	0.04	6.69519E-001	-3.99818E-004	0.00000E+000	-2.67686E-004	-2.40040E-001	6.69693E-001	3.57680E+000	9	...........
	3	0.053333	6.59119E-001	-3.98667E-004	0.00000E+000	-2.62769E-004	-2.40040E-001	6.59285E-001	3.57680E+000	9	...........
	4	0.066667	6.49393E-001	-3.98646E-004	0.00000E+000	-2.58878E-004	-2.40040E-001	6.49572E-001	3.57680E+000	9	...........
	5	0.08	6.40129E-001	-3.97769E-004	0.00000E+000	-2.54623E-004	-2.40040E-001	6.40347E-001	3.57680E+000	9	...........
	6	0.093333	6.31101E-001	-3.99015E-004	0.00000E+000	-2.51818E-004	-2.40040E-001	6.31313E-001	3.57680E+000	9	...........
	7	0.106667	6.22349E-001	-3.99242E-004	0.00000E+000	-2.48468E-004	-2.40040E-001	6.22548E-001	3.57680E+000	9	...........
	8	0.12	6.13767E-001	-3.98597E-004	0.00000E+000	-2.44646E-004	-2.40040E-001	6.13966E-001	3.57680E+000	9	...........
	9	0.133333	6.05360E-001	-3.98404E-004	0.00000E+000	-2.41178E-004	-2.40040E-001	6.05582E-001	3.57680E+000	9	...........
	10	0.146667	5.97063E-001	-3.98975E-004	0.00000E+000	-2.38213E-004	-2.40040E-001	5.97293E-001	3.57680E+000	9	...........
	11	0.16	5.88799E-001	-3.99252E-004	0.00000E+000	-2.35079E-004	-2.40040E-001	5.89041E-001	3.57680E+000	9	...........
	12	0.173333	5.80687E-001	-3.98126E-004	0.00000E+000	-2.31187E-004	-2.40040E-001	5.80942E-001	3.57680E+000	9	...........
	13	0.186667	5.72763E-001	-3.98954E-004	0.00000E+000	-2.28506E-004	-2.40040E-001	5.72976E-001	3.57680E+000	9	...........
	14	0.2	5.64786E-001	-3.98917E-004	0.00000E+000	-2.25303E-004	-2.40040E-001	5.65012E-001	3.57680E+000	9	...........
	15	0.213333	5.56887E-001	-3.99526E-004	0.00000E+000	-2.22491E-004	-2.40040E-001	5.57110E-001	3.57680E+000	9	...........
	16	0.226667	5.49128E-001	-3.98286E-004	0.00000E+000	-2.18710E-004	-2.40040E-001	5.49330E-001	3.57680E+000	9	...........
	17	0.24	5.41374E-001	-3.98361E-004	0.00000E+000	-2.15662E-004	-2.40040E-001	5.41572E-001	3.57680E+000	9	...........
	18	0.253333	5.33689E-001	-3.98157E-004	0.00000E+000	-2.12492E-004	-2.40040E-001	5.33920E-001	3.57680E+000	9	...........
	19	0.266667	5.26048E-001	-3.98712E-004	0.00000E+000	-2.09742E-004	-2.40040E-001	5.26267E-001	3.57680E+000	9	...........
	20	0.28	5.18468E-001	-3.97547E-004	0.00000E+000	-2.06115E-004	-2.40040E-001	5.18677E-001	3.57680E+000	9	...........
	21	0.293333	5.10914E-001	-3.98562E-004	0.00000E+000	-2.03631E-004	-2.40040E-001	5.11156E-001	3.57680E+000	9	...........
	22	0.306667	5.03394E-001	-3.98398E-004	0.00000E+000	-2.00551E-004	-2.40040E-001	5.03634E-001	3.57680E+000	9	...........
	23	0.32	4.95938E-001	-3.97981E-004	0.00000E+000	-1.97374E-004	-2.40040E-001	4.96165E-001	3.57680E+000	9	...........
	24	0.333333	4.88582E-001	-3.98839E-004	0.00000E+000	-1.94865E-004	-2.40040E-001	4.88785E-001	3.57680E+000	9	...........
	25	0.346667	4.81501E-001	-3.98792E-004	0.00000E+000	-1.92019E-004	-2.40040E-001	4.81575E-001	3.57680E+000	9	...........
	26	0.36	4.74107E-001	-3.98105E-004	0.00000E+000	-1.88745E-004	-2.40040E-001	4.74202E-001	3.57680E+000	9	...........
	27	0.373333	4.66875E-001	-3.98396E-004	0.00000E+000	-1.86001E-004	-2.40040E-001	4.66968E-001	3.57680E+000	9	...........
	28	0.386667	4.59574E-001	-3.98911E-004	0.00000E+000	-1.83329E-004	-2.40040E-001	4.59665E-001	3.57680E+000	9	...........
	29	0.4	4.52322E-001	-3.98858E-004	0.00000E+000	-1.80412E-004	-2.40040E-001	4.52411E-001	3.57680E+000	9	...........
	30	0.413333	4.45149E-001	-3.98890E-004	0.00000E+000	-1.77565E-004	-2.40040E-001	4.45236E-001	3.57680E+000	9	...........
	31	0.426667	4.37994E-001	-3.98581E-004	0.00000E+000	-1.74576E-004	-2.40040E-001	4.38079E-001	3.57680E+000	9	...........
	32	0.44	4.30898E-001	-3.99234E-004	0.00000E+000	-1.72029E-004	-2.40040E-001	4.30988E-001	3.57680E+000	9	...........
	33	0.453333	4.23866E-001	-3.98510E-004	0.00000E+000	-1.68915E-004	-2.40040E-001	4.23950E-001	3.57680E+000	9	...........
	34	0.466667	4.16818E-001	-3.97968E-004	0.00000E+000	-1.65880E-004	-2.40040E-001	4.16903E-001	3.57680E+000	9	...........
	35	0.48	4.09796E-001	-3.99121E-004	0.00000E+000	-1.63558E-004	-2.40040E-001	4.09876E-001	3.57680E+000	9	...........
	36	0.493333	4.02855E-001	-3.99890E-004	0.00000E+000	-1.61098E-004	-2.40040E-001	4.02932E-001	3.57680E+000	9	...........
	37	0.506667	3.95938E-001	-3.97702E-004	0.00000E+000	-1.57465E-004	-2.40040E-001	3.96011E-001	3.57680E+000	9	...........
	38	0.52	3.89116E-001	-3.97226E-004	0.00000E+000	-1.54567E-004	-2.40040E-001	3.89189E-001	3.57680E+000	9	...........
	39	0.533333	3.82194E-001	-3.98123E-004	0.00000E+000	-1.52160E-004	-2.40040E-001	3.82260E-001	3.57680E+000	9	...........
	40	0.546667	3.75407E-001	-3.99602E-004	0.00000E+000	-1.50013E-004	-2.40040E-001	3.75475E-001	3.57680E+000	9	...........
	41	0.56	3.68698E-001	-3.98569E-004	0.00000E+000	-1.46951E-004	-2.40040E-001	3.68761E-001	3.57680E+000	9	...........
	42	0.573333	3.61990E-001	-3.98776E-004	0.00000E+000	-1.44353E-004	-2.40040E-001	3.62057E-001	3.57680E+000	9	...........
	43	0.586667	3.55356E-001	-3.99178E-004	0.00000E+000	-1.41850E-004	-2.40040E-001	3.55424E-001	3.57680E+000	9	...........
	44	0.6	3.48715E-001	-3.99367E-004	0.00000E+000	-1.39265E-004	-2.40040E-001	3.48781E-001	3.57680E+000	9	...........
	45	0.613333	3.42096E-001	-3.98488E-004	0.00000E+000	-1.36321E-004	-2.40040E-001	3.42164E-001	3.57680E+000	9	...........
	46	0.626667	3.35592E-001	-3.98791E-004	0.00000E+000	-1.33831E-004	-2.40040E-001	3.35651E-001	3.57680E+000	9	...........
	47	0.64	3.29124E-001	-3.98761E-004	0.00000E+000	-1.31242E-004	-2.40040E-001	3.29191E-001	3.57680E+000	9	...........
	48	0.653333	3.22748E-001	-3.98660E-004	0.00000E+000	-1.28667E-004	-2.40040E-001	3.22816E-001	3.57680E+000	9	...........
	49	0.666667	3.16403E-001	-3.98563E-004	0.00000E+000	-1.26107E-004	-2.40040E-001	3.16463E-001	3.57680E+000	9	...........
	50	0.68	3.10008E-001	-3.98483E-004	0.00000E+000	-1.23533E-004	-2.40040E-001	3.10066E-001	3.57680E+000	9	...........
	51	0.693333	3.03702E-001	-3.98670E-004	0.00000E+000	-1.21077E-004	-2.40040E-001	3.03762E-001	3.57680E+000	9	...........
	52	0.706667	2.97409E-001	-4.00660E-004	0.00000E+000	-1.19160E-004	-2.40040E-001	2.97468E-001	3.57680E+000	9	...........
	53	0.72	2.91133E-001	-3.98901E-004	0.00000E+000	-1.16133E-004	-2.40040E-001	2.91192E-001	3.57680E+000	9	...........
	54	0.733333	2.84853E-001	-3.98205E-004	0.00000E+000	-1.13430E-004	-2.40040E-001	2.84909E-001	3.57680E+000	9	...........
	55	0.746667	2.78692E-001	-3.98487E-004	0.00000E+000	-1.11055E-004	-2.40040E-001	2.78747E-001	3.57680E+000	9	...........
	56	0.76	2.72577E-001	-3.98532E-004	0.00000E+000	-1.08631E-004	-2.40040E-001	2.72632E-001	3.57680E+000	9	...........
	57	0.773333	2.66385E-001	-3.98451E-004	0.00000E+000	-1.06141E-004	-2.40040E-001	2.66438E-001	3.57680E+000	9	...........
	58	0.786667	2.60308E-001	-3.99296E-004	0.00000E+000	-1.03940E-004	-2.40040E-001	2.60361E-001	3.57680E+000	9	...........
	59	0.8	2.54390E-001	-3.97800E-004	0.00000E+000	-1.01196E-004	-2.40040E-001	2.54432E-001	3.57680E+000	9	...........
	60	0.813333	2.48370E-001	-3.98764E-004	0.00000E+000	-9.90409E-005	-2.40040E-001	2.48418E-001	3.57680E+000	9	...........
	61	0.826667	2.42447E-001	-3.98477E-004	0.00000E+000	-9.66095E-005	-2.40040E-001	2.42487E-001	3.57680E+000	9	...........
	62	0.84	2.36570E-001	-3.98168E-004	0.00000E+000	-9.41946E-005	-2.40040E-001	2.36609E-001	3.57680E+000	9	...........
	63	0.853333	2.30723E-001	-3.98122E-004	0.00000E+000	-9.18560E-005	-2.40040E-001	2.30764E-001	3.57680E+000	9	...........
	64	0.866667	2.24873E-001	-3.99247E-004	0.00000E+000	-8.97798E-005	-2.40040E-001	2.24915E-001	3.57680E+000	9	...........
	65	0.88	2.19085E-001	-3.99374E-004	0.00000E+000	-8.74970E-005	-2.40040E-001	2.19122E-001	3.57680E+000	9	...........
	66	0.893333	2.13344E-001	-3.99717E-004	0.00000E+000	-8.52771E-005	-2.40040E-001	2.13381E-001	3.57680E+000	9	...........
	67	0.906667	2.07508E-001	-3.99234E-004	0.00000E+000	-8.28442E-005	-2.40040E-001	2.07547E-001	3.57680E+000	9	...........
	68	0.92	2.01736E-001	-3.99606E-004	0.00000E+000	-8.06149E-005	-2.40040E-001	2.01775E-001	3.57680E+000	9	...........
	69	0.933333	1.96084E-001	-3.99855E-004	0.00000E+000	-7.84051E-005	-2.40040E-001	1.96117E-001	3.57680E+000	9	...........
	70	0.946667	1.90481E-001	-3.98628E-004	0.00000E+000	-7.59309E-005	-2.40040E-001	1.90520E-001	3.57720E+000	9	...........
	71	0.96	1.84903E-001	-3.98645E-004	0.00000E+000	-7.37107E-005	-2.40040E-001	1.84943E-001	3.57760E+000	9	...........
	72	0.97333	1.79418E-001	-3.99338E-004	0.00000E+000	-7.16485E-005	-2.40040E-001	1.79458E-001	3.57760E+000	9	...........
	73	0.98667	1.73900E-001	-4.00064E-004	0.00000E+000	-6.95712E-005	-2.40040E-001	1.73933E-001	3.57760E+000	9	...........
	74	1	1.68423E-001	-3.98844E-004	0.00000E+000	-6.71743E-005	-2.40040E-001	1.68455E-001	3.57760E+000	9	...........
	75	1.01333	1.62900E-001	-3.98285E-004	0.00000E+000	-6.48805E-005	-2.40040E-001	1.62928E-001	3.57760E+000	9	...........
	76	1.02667	1.57535E-001	-3.99753E-004	0.00000E+000	-6.29750E-005	-2.40040E-001	1.57562E-001	3.57760E+000	9	...........
	77	1.04	1.52205E-001	-3.98449E-004	0.00000E+000	-6.06458E-005	-2.40040E-001	1.52226E-001	3.57760E+000	9	...........
	78	1.05333	1.46910E-001	-3.99088E-004	0.00000E+000	-5.86299E-005	-2.40040E-001	1.46931E-001	3.57760E+000	9	...........
	79	1.06667	1.41568E-001	-3.99068E-004	0.00000E+000	-5.64953E-005	-2.40040E-001	1.41595E-001	3.57760E+000	9	...........
	80	1.08	1.36287E-001	-3.98222E-004	0.00000E+000	-5.42726E-005	-2.40040E-001	1.36314E-001	3.57760E+000	9	...........
	81	1.09333	1.31076E-001	-3.99092E-004	0.00000E+000	-5.23114E-005	-2.40040E-001	1.31102E-001	3.57760E+000	9	...........
	82	1.10667	1.25833E-001	-3.98928E-004	0.00000E+000	-5.01985E-005	-2.40040E-001	1.25864E-001	3.57760E+000	9	...........
	83	1.12	1.20642E-001	-3.98485E-004	0.00000E+000	-4.80741E-005	-2.40040E-001	1.20668E-001	3.57760E+000	9	...........
	84	1.13333	1.15536E-001	-3.98885E-004	0.00000E+000	-4.60854E-005	-2.40040E-001	1.15559E-001	3.57760E+000	9	...........
	85	1.14667	1.10443E-001	-3.98533E-004	0.00000E+000	-4.40152E-005	-2.40040E-001	1.10465E-001	3.57760E+000	9	...........
	86	1.16	1.05380E-001	-3.99724E-004	0.00000E+000	-4.21228E-005	-2.40040E-001	1.05397E-001	3.57760E+000	9	...........
	87	1.17333	1.00422E-001	-3.98490E-004	0.00000E+000	-4.00170E-005	-2.40040E-001	1.00446E-001	3.57760E+000	9	...........
	88	1.18667	9.53991E-002	-3.98225E-004	0.00000E+000	-3.79903E-005	-2.40040E-001	9.54209E-002	3.57760E+000	9	...........
	89	1.2	9.04413E-002	-3.99039E-004	0.00000E+000	-3.60896E-005	-2.40040E-001	9.04572E-002	3.57760E+000	9	...........
	90	1.21333	8.54882E-002	-3.98769E-004	0.00000E+000	-3.40900E-005	-2.40040E-001	8.55045E-002	3.57760E+000	9	...........
	91	1.22667	8.05451E-002	-3.98095E-004	0.00000E+000	-3.20646E-005	-2.40040E-001	8.05528E-002	3.57760E+000	9	...........
	92	1.24	7.56398E-002	-3.99266E-004	0.00000E+000	-3.02004E-005	-2.40040E-001	7.56477E-002	3.57760E+000	9	...........
	93	1.25333	7.08301E-002	-3.99331E-004	0.00000E+000	-2.82847E-005	-2.40040E-001	7.08336E-002	3.57760E+000	9	...........
	94	1.26667	6.60398E-002	-3.98911E-004	0.00000E+000	-2.63440E-005	-2.40040E-001	6.60403E-002	3.57760E+000	9	...........
	95	1.28	6.11758E-002	-3.98633E-004	0.00000E+000	-2.43867E-005	-2.40040E-001	6.11822E-002	3.57760E+000	9	...........
	96	1.29333	5.64369E-002	-3.99829E-004	0.00000E+000	-2.25651E-005	-2.40040E-001	5.64413E-002	3.57760E+000	9	...........
	97	1.30667	5.17338E-002	-3.99392E-004	0.00000E+000	-2.06621E-005	-2.40040E-001	5.17336E-002	3.57760E+000	9	...........
	98	1.32	4.70364E-002	-4.00235E-004	0.00000E+000	-1.88256E-005	-2.40040E-001	4.70417E-002	3.57760E+000	9	...........
	99	1.33333	4.23671E-002	-3.98661E-004	0.00000E+000	-1.68901E-005	-2.40040E-001	4.23703E-002	3.57760E+000	9	...........
	100	1.34667	3.77350E-002	-3.98986E-004	0.00000E+000	-1.50558E-005	-2.40040E-001	3.77391E-002	3.57760E+000	9	...........
	101	1.36	3.30589E-002	-3.99483E-004	0.00000E+000	-1.32065E-005	-2.40040E-001	3.30539E-002	3.57760E+000	9	...........
	102	1.37333	2.83734E-002	-3.99742E-004	0.00000E+000	-1.13420E-005	-2.40040E-001	2.83680E-002	3.57760E+000	9	...........
	103	1.38667	2.37162E-002	-3.98935E-004	0.00000E+000	-9.46124E-006	-2.40040E-001	2.37101E-002	3.57760E+000	9	...........
	104	1.4	1.91113E-002	-3.97981E-004	0.00000E+000	-7.60594E-006	-2.40040E-001	1.91048E-002	3.57760E+000	9	...........
	105	1.41333	1.45808E-002	-3.98326E-004	0.00000E+000	-5.80791E-006	-2.40040E-001	1.45758E-002	3.57760E+000	9	...........
	106	1.42667	1.00917E-002	-3.98496E-004	0.00000E+000	-4.02151E-006	-2.40040E-001	1.00780E-002	3.57760E+000	9	...........
	107	1.44	5.56247E-003	-3.99174E-004	0.00000E+000	-2.22039E-006	-2.40040E-001	5.54278E-003	3.57760E+000	9	...........
	108	1.45167	1.41800E-003	-3.98534E-004	0.00000E+000	-5.65121E-007	-2.40040E-001	1.39718E-003	3.57760E+000	9	...........
STARTTIMEOFFSET	QUANT	1950.5	Start Time Offset (s)
