EXPLAIN
TAG	PWR800_DISCHARGE
TITLE	LABEL	PWR Cyclic Charge Discharge (Cell) - Discharge Step	Test &Identifier
DATE	LABEL	12-7-2017	Date
TIME	LABEL	14:44:08	Time
NOTES	NOTES	3	&Notes...
	supercap test cell
	0.4mg
	6M KOH
PSTAT	PSTAT	IFC5000-01520	Potentiostat
CAPACITY	QUANT	1.00000E-003	Capacity (A-hr)
CELLTYPE	SELECTOR	1	&Cell Type
WORKINGCONNECTION	SELECTOR	0	&Working Lead
MAXDISCHARGETIME	VARIABLEANDUNITS	1.00000E+002	s	1.00000E+002	second(s)	Max &Discharge Time
DISCHARGEMODE	MULTIPARAM	0	4.00000E-004	&Discharge Mode	Constant Current	Amp(s)
SAMPLETIME	QUANT	1.00000E-002	Sa&mple Period (s)
DISCHARGESTOPAT1	MULTIPARAM	3	0.00000E+000	Discharge Stop At &1	Voltage < Limit	V
DISCHARGESTOPAT2	MULTIPARAM	0	0.00000E+000	Discharge Stop At &2	None	N/A
AESBHCSELECTOR	TOGGLE	F	Save Both Half Cells
IRCOMP	TOGGLE	F	IR &Measure
EOC	QUANT	0	Open Circuit (V)
SEQUENCER	TOGGLE	TRUE	Run as Sequence
PSTATMODEL	IQUANT	53	Pstat Model
PSTATSECTION	LABEL	IFC5000-01520	Pstat Section
PSTATSERIALNO	LABEL	01520	Pstat Serial Number
CTRLMODE	IQUANT	0	Control Mode
ELECTROMETER	IQUANT	1	RE=0 or CS=1
IESTAB	IQUANT	0	I/E Stability
CASPEED	IQUANT	4	Control Amp Speed
CONVENTION	IQUANT	1	Current Convention
ICHRANGE	IQUANT	2	Ich Range
ICHRANGEMODE	TOGGLE	T	Ich Auto Range
ICHOFFSETENABLE	TOGGLE	F	Ich Offset Enable
ICHOFFSET	QUANT	0	Ich Offset (V)
ICHFILTER	IQUANT	1	Ich Filter
VCHRANGE	IQUANT	2	Vch Range
VCHRANGEMODE	TOGGLE	T	Vch Auto Range
VCHOFFSETENABLE	TOGGLE	F	Vch Offset Enable
VCHOFFSET	QUANT	0	Vch Offset (V)
VCHFILTER	IQUANT	1	Vch Filter
IERANGELOWERLIMIT	IQUANT	9	I/E Range Lower Limit
IERANGEMODE	TOGGLE	F	I/E AutoRange
IERANGE	IQUANT	9	I/E Range
ACHSELECT	IQUANT	1	Ach Select
ACHRANGE	IQUANT	2	Ach Range
ACHOFFSETENABLE	TOGGLE	F	Ach Offset Enable
ACHOFFSET	QUANT	0	Ach Offset (V)
ACHFILTER	IQUANT	1	Ach Filter
CABLEID	IQUANT	14	Cable ID
DCCALDATE	LABEL	5-7-2017	DC Calibration Date
ACCALDATE	LABEL	12/3/2015	AC Calibration Date
FRAMEWORKVERSION	QUANT	7.01	Framework Version
INSTRUMENTVERSION	LABEL	4.00	Instrument Version
CURVE	TABLE	117
	Pt	T	Vf	Im	Vu	Pwr	Sig	Ach	Temp	IERange	Over
	#	s	V	A	V	W	V	V	deg C	#	bits
	0	0.013333	7.05168E-001	-3.98799E-004	0.00000E+000	-2.81220E-004	-2.40040E-001	7.05453E-001	3.57625E+000	9	...........
	1	0.026667	6.93136E-001	-3.99419E-004	0.00000E+000	-2.76852E-004	-2.40040E-001	6.93403E-001	3.57610E+000	9	...........
	2	0.04	6.82496E-001	-3.96802E-004	0.00000E+000	-2.70816E-004	-2.40040E-001	6.82734E-001	3.57610E+000	9	...........
	3	0.053333	6.72708E-001	-3.99544E-004	0.00000E+000	-2.68776E-004	-2.40040E-001	6.72954E-001	3.57610E+000	9	...........
	4	0.066667	6.63377E-001	-3.99731E-004	0.00000E+000	-2.65172E-004	-2.40040E-001	6.63639E-001	3.57610E+000	9	...........
	5	0.08	6.54473E-001	-3.98872E-004	0.00000E+000	-2.61051E-004	-2.40040E-001	6.54699E-001	3.57610E+000	9	...........
	6	0.093333	6.45866E-001	-3.99248E-004	0.00000E+000	-2.57861E-004	-2.40040E-001	6.46116E-001	3.57610E+000	9	...........
	7	0.106667	6.37465E-001	-3.98220E-004	0.00000E+000	-2.53851E-004	-2.40040E-001	6.37692E-001	3.57610E+000	9	...........
	8	0.12	6.29309E-001	-3.97895E-004	0.00000E+000	-2.50399E-004	-2.40040E-001	6.29552E-001	3.57610E+000	9	...........
	9	0.133333	6.21285E-001	-3.98668E-004	0.00000E+000	-2.47686E-004	-2.40040E-001	6.21491E-001	3.57610E+000	9	...........
	10	0.146667	6.13298E-001	-3.98302E-004	0.00000E+000	-2.44278E-004	-2.40040E-001	6.13552E-001	3.57610E+000	9	...........
	11	0.16	6.05374E-001	-3.98945E-004	0.00000E+000	-2.41511E-004	-2.40040E-001	6.05616E-001	3.57610E+000	9	...........
	12	0.173333	5.97560E-001	-3.99465E-004	0.00000E+000	-2.38704E-004	-2.40040E-001	5.97810E-001	3.57610E+000	9	...........
	13	0.186667	5.89888E-001	-4.00091E-004	0.00000E+000	-2.36009E-004	-2.40040E-001	5.90122E-001	3.57610E+000	9	...........
	14	0.2	5.82289E-001	-3.98243E-004	0.00000E+000	-2.31892E-004	-2.40040E-001	5.82511E-001	3.57610E+000	9	...........
	15	0.213333	5.74741E-001	-4.00247E-004	0.00000E+000	-2.30039E-004	-2.40040E-001	5.74975E-001	3.57610E+000	9	...........
	16	0.226667	5.67279E-001	-3.99135E-004	0.00000E+000	-2.26421E-004	-2.40040E-001	5.67490E-001	3.57610E+000	9	...........
	17	0.24	5.59768E-001	-3.99035E-004	0.00000E+000	-2.23367E-004	-2.40040E-001	5.60002E-001	3.57610E+000	9	...........
	18	0.253333	5.52383E-001	-3.99473E-004	0.00000E+000	-2.20662E-004	-2.40040E-001	5.52576E-001	3.57610E+000	9	...........
	19	0.266667	5.45054E-001	-4.00257E-004	0.00000E+000	-2.18161E-004	-2.40040E-001	5.45242E-001	3.57610E+000	9	...........
	20	0.28	5.37756E-001	-3.99202E-004	0.00000E+000	-2.14674E-004	-2.40040E-001	5.37967E-001	3.57610E+000	9	...........
	21	0.293333	5.30522E-001	-3.98924E-004	0.00000E+000	-2.11638E-004	-2.40040E-001	5.30729E-001	3.57610E+000	9	...........
	22	0.306667	5.23277E-001	-3.98582E-004	0.00000E+000	-2.08569E-004	-2.40040E-001	5.23497E-001	3.57610E+000	9	...........
	23	0.32	5.16177E-001	-3.99124E-004	0.00000E+000	-2.06019E-004	-2.40040E-001	5.16385E-001	3.57610E+000	9	...........
	24	0.333333	5.08948E-001	-3.98802E-004	0.00000E+000	-2.02970E-004	-2.40040E-001	5.09204E-001	3.57610E+000	9	...........
	25	0.346667	5.01834E-001	-3.99465E-004	0.00000E+000	-2.00465E-004	-2.40040E-001	5.02083E-001	3.57610E+000	9	...........
	26	0.36	4.94803E-001	-3.97866E-004	0.00000E+000	-1.96866E-004	-2.40040E-001	4.95024E-001	3.57610E+000	9	...........
	27	0.373333	4.87895E-001	-3.99524E-004	0.00000E+000	-1.94926E-004	-2.40040E-001	4.88108E-001	3.57610E+000	9	...........
	28	0.386667	4.81189E-001	-3.98284E-004	0.00000E+000	-1.91650E-004	-2.40040E-001	4.81285E-001	3.57610E+000	9	...........
	29	0.4	4.74266E-001	-3.99667E-004	0.00000E+000	-1.89549E-004	-2.40040E-001	4.74362E-001	3.57610E+000	9	...........
	30	0.413333	4.67317E-001	-4.00030E-004	0.00000E+000	-1.86941E-004	-2.40040E-001	4.67410E-001	3.57610E+000	9	...........
	31	0.426667	4.60431E-001	-3.98494E-004	0.00000E+000	-1.83479E-004	-2.40040E-001	4.60527E-001	3.57610E+000	9	...........
	32	0.44	4.53551E-001	-3.99506E-004	0.00000E+000	-1.81196E-004	-2.40040E-001	4.53643E-001	3.57610E+000	9	...........
	33	0.453333	4.46736E-001	-3.99690E-004	0.00000E+000	-1.78556E-004	-2.40040E-001	4.46821E-001	3.57610E+000	9	...........
	34	0.466667	4.39945E-001	-3.98112E-004	0.00000E+000	-1.75148E-004	-2.40040E-001	4.40041E-001	3.57610E+000	9	...........
	35	0.48	4.33235E-001	-3.99106E-004	0.00000E+000	-1.72907E-004	-2.40040E-001	4.33323E-001	3.57610E+000	9	...........
	36	0.493333	4.26619E-001	-3.99079E-004	0.00000E+000	-1.70255E-004	-2.40040E-001	4.26704E-001	3.57610E+000	9	...........
	37	0.506667	4.20042E-001	-3.99172E-004	0.00000E+000	-1.67669E-004	-2.40040E-001	4.20123E-001	3.57610E+000	9	...........
	38	0.52	4.13461E-001	-3.98805E-004	0.00000E+000	-1.64890E-004	-2.40040E-001	4.13545E-001	3.57610E+000	9	...........
	39	0.533333	4.06853E-001	-3.97752E-004	0.00000E+000	-1.61826E-004	-2.40040E-001	4.06934E-001	3.57610E+000	9	...........
	40	0.546667	4.00329E-001	-3.98257E-004	0.00000E+000	-1.59434E-004	-2.40040E-001	4.00408E-001	3.57610E+000	9	...........
	41	0.56	3.93878E-001	-3.98359E-004	0.00000E+000	-1.56905E-004	-2.40040E-001	3.93952E-001	3.57610E+000	9	...........
	42	0.573333	3.87407E-001	-3.98852E-004	0.00000E+000	-1.54518E-004	-2.40040E-001	3.87482E-001	3.57610E+000	9	...........
	43	0.586667	3.80988E-001	-3.98495E-004	0.00000E+000	-1.51822E-004	-2.40040E-001	3.81063E-001	3.57610E+000	9	...........
	44	0.6	3.74607E-001	-3.98095E-004	0.00000E+000	-1.49129E-004	-2.40040E-001	3.74678E-001	3.57610E+000	9	...........
	45	0.613333	3.68273E-001	-3.97910E-004	0.00000E+000	-1.46539E-004	-2.40040E-001	3.68345E-001	3.57610E+000	9	...........
	46	0.626667	3.61949E-001	-3.98701E-004	0.00000E+000	-1.44309E-004	-2.40040E-001	3.62016E-001	3.57610E+000	9	...........
	47	0.64	3.55643E-001	-3.98262E-004	0.00000E+000	-1.41639E-004	-2.40040E-001	3.55713E-001	3.57610E+000	9	...........
	48	0.653333	3.49422E-001	-3.98189E-004	0.00000E+000	-1.39136E-004	-2.40040E-001	3.49490E-001	3.57610E+000	9	...........
	49	0.666667	3.43158E-001	-3.98895E-004	0.00000E+000	-1.36884E-004	-2.40040E-001	3.43225E-001	3.57610E+000	9	...........
	50	0.68	3.36932E-001	-3.98923E-004	0.00000E+000	-1.34410E-004	-2.40040E-001	3.36997E-001	3.57610E+000	9	...........
	51	0.693333	3.30774E-001	-3.99201E-004	0.00000E+000	-1.32045E-004	-2.40040E-001	3.30834E-001	3.57610E+000	9	...........
	52	0.706667	3.24701E-001	-3.99199E-004	0.00000E+000	-1.29620E-004	-2.40040E-001	3.24764E-001	3.57610E+000	9	...........
	53	0.72	3.18685E-001	-3.98819E-004	0.00000E+000	-1.27097E-004	-2.40040E-001	3.18744E-001	3.57610E+000	9	...........
	54	0.733333	3.12643E-001	-3.99911E-004	0.00000E+000	-1.25029E-004	-2.40040E-001	3.12705E-001	3.57610E+000	9	...........
	55	0.746667	3.06595E-001	-3.98421E-004	0.00000E+000	-1.22154E-004	-2.40040E-001	3.06655E-001	3.57610E+000	9	...........
	56	0.76	3.00668E-001	-3.98750E-004	0.00000E+000	-1.19891E-004	-2.40040E-001	3.00734E-001	3.57610E+000	9	...........
	57	0.773333	2.94771E-001	-3.98466E-004	0.00000E+000	-1.17456E-004	-2.40040E-001	2.94826E-001	3.57610E+000	9	...........
	58	0.786667	2.88854E-001	-3.98263E-004	0.00000E+000	-1.15040E-004	-2.40040E-001	2.88914E-001	3.57610E+000	9	...........
	59	0.8	2.83053E-001	-3.98866E-004	0.00000E+000	-1.12900E-004	-2.40040E-001	2.83119E-001	3.57610E+000	9	...........
	60	0.813333	2.77213E-001	-3.99300E-004	0.00000E+000	-1.10691E-004	-2.40040E-001	2.77268E-001	3.57610E+000	9	...........
	61	0.826667	2.71444E-001	-3.99771E-004	0.00000E+000	-1.08515E-004	-2.40040E-001	2.71499E-001	3.57610E+000	9	...........
	62	0.84	2.65740E-001	-3.99411E-004	0.00000E+000	-1.06139E-004	-2.40040E-001	2.65796E-001	3.57610E+000	9	...........
	63	0.853333	2.60040E-001	-3.97839E-004	0.00000E+000	-1.03454E-004	-2.40040E-001	2.60093E-001	3.57610E+000	9	...........
	64	0.866667	2.54430E-001	-3.98359E-004	0.00000E+000	-1.01354E-004	-2.40040E-001	2.54476E-001	3.57610E+000	9	...........
	65	0.88	2.48738E-001	-3.99695E-004	0.00000E+000	-9.94194E-005	-2.40040E-001	2.48789E-001	3.57610E+000	9	...........
	66	0.893333	2.43101E-001	-3.98687E-004	0.00000E+000	-9.69214E-005	-2.40040E-001	2.43150E-001	3.57610E+000	9	...........
	67	0.906667	2.37549E-001	-3.98445E-004	0.00000E+000	-9.46503E-005	-2.40040E-001	2.37592E-001	3.57610E+000	9	...........
	68	0.92	2.31974E-001	-3.98503E-004	0.00000E+000	-9.24424E-005	-2.40040E-001	2.32010E-001	3.57610E+000	9	...........
	69	0.933333	2.26451E-001	-3.99229E-004	0.00000E+000	-9.04060E-005	-2.40040E-001	2.26495E-001	3.57610E+000	9	...........
	70	0.946667	2.20897E-001	-3.99225E-004	0.00000E+000	-8.81875E-005	-2.40040E-001	2.20939E-001	3.57610E+000	9	...........
	71	0.96	2.15368E-001	-3.98353E-004	0.00000E+000	-8.57924E-005	-2.40040E-001	2.15404E-001	3.57610E+000	9	...........
	72	0.97333	2.09997E-001	-3.97935E-004	0.00000E+000	-8.35653E-005	-2.40040E-001	2.10035E-001	3.57610E+000	9	...........
	73	0.98667	2.04621E-001	-3.99189E-004	0.00000E+000	-8.16826E-005	-2.40040E-001	2.04659E-001	3.57610E+000	9	...........
	74	1	1.99336E-001	-3.98877E-004	0.00000E+000	-7.95104E-005	-2.40040E-001	1.99377E-001	3.57610E+000	9	...........
	75	1.01333	1.93944E-001	-3.99664E-004	0.00000E+000	-7.75125E-005	-2.40040E-001	1.93983E-001	3.57616E+000	9	...........
	76	1.02667	1.88546E-001	-3.97783E-004	0.00000E+000	-7.50002E-005	-2.40040E-001	1.88586E-001	3.57620E+000	9	...........
	77	1.04	1.83232E-001	-3.99329E-004	0.00000E+000	-7.31697E-005	-2.40040E-001	1.83274E-001	3.57620E+000	9	...........
	78	1.05333	1.78061E-001	-3.99308E-004	0.00000E+000	-7.11011E-005	-2.40040E-001	1.78094E-001	3.57620E+000	9	...........
	79	1.06667	1.72834E-001	-3.98776E-004	0.00000E+000	-6.89221E-005	-2.40040E-001	1.72866E-001	3.57620E+000	9	...........
	80	1.08	1.67596E-001	-3.98969E-004	0.00000E+000	-6.68656E-005	-2.40040E-001	1.67627E-001	3.57620E+000	9	...........
	81	1.09333	1.62431E-001	-3.99350E-004	0.00000E+000	-6.48668E-005	-2.40040E-001	1.62465E-001	3.57620E+000	9	...........
	82	1.10667	1.57311E-001	-3.99137E-004	0.00000E+000	-6.27886E-005	-2.40040E-001	1.57341E-001	3.57620E+000	9	...........
	83	1.12	1.52184E-001	-3.98784E-004	0.00000E+000	-6.06885E-005	-2.40040E-001	1.52211E-001	3.57620E+000	9	...........
	84	1.13333	1.47086E-001	-3.98131E-004	0.00000E+000	-5.85596E-005	-2.40040E-001	1.47111E-001	3.57620E+000	9	...........
	85	1.14667	1.42130E-001	-3.99529E-004	0.00000E+000	-5.67850E-005	-2.40040E-001	1.42149E-001	3.57620E+000	9	...........
	86	1.16	1.37102E-001	-3.99829E-004	0.00000E+000	-5.48172E-005	-2.40040E-001	1.37126E-001	3.57620E+000	9	...........
	87	1.17333	1.32095E-001	-3.98326E-004	0.00000E+000	-5.26168E-005	-2.40040E-001	1.32119E-001	3.57620E+000	9	...........
	88	1.18667	1.27020E-001	-3.98689E-004	0.00000E+000	-5.06413E-005	-2.40040E-001	1.27049E-001	3.57620E+000	9	...........
	89	1.2	1.22009E-001	-3.98425E-004	0.00000E+000	-4.86115E-005	-2.40040E-001	1.22032E-001	3.57620E+000	9	...........
	90	1.21333	1.17102E-001	-3.98890E-004	0.00000E+000	-4.67109E-005	-2.40040E-001	1.17120E-001	3.57620E+000	9	...........
	91	1.22667	1.12237E-001	-3.97884E-004	0.00000E+000	-4.46574E-005	-2.40040E-001	1.12258E-001	3.57620E+000	9	...........
	92	1.24	1.07373E-001	-3.98449E-004	0.00000E+000	-4.27828E-005	-2.40040E-001	1.07393E-001	3.57620E+000	9	...........
	93	1.25333	1.02403E-001	-3.99132E-004	0.00000E+000	-4.08725E-005	-2.40040E-001	1.02423E-001	3.57620E+000	9	...........
	94	1.26667	9.75312E-002	-3.99328E-004	0.00000E+000	-3.89469E-005	-2.40040E-001	9.75552E-002	3.57620E+000	9	...........
	95	1.28	9.27781E-002	-3.99102E-004	0.00000E+000	-3.70279E-005	-2.40040E-001	9.28001E-002	3.57620E+000	9	...........
	96	1.29333	8.80261E-002	-3.99007E-004	0.00000E+000	-3.51231E-005	-2.40040E-001	8.80461E-002	3.57620E+000	9	...........
	97	1.30667	8.33846E-002	-3.99058E-004	0.00000E+000	-3.32753E-005	-2.40040E-001	8.34023E-002	3.57620E+000	9	...........
	98	1.32	7.87259E-002	-3.98980E-004	0.00000E+000	-3.14101E-005	-2.40040E-001	7.87379E-002	3.57620E+000	9	...........
	99	1.33333	7.41091E-002	-3.98991E-004	0.00000E+000	-2.95689E-005	-2.40040E-001	7.41186E-002	3.57620E+000	9	...........
	100	1.34667	6.94028E-002	-3.98422E-004	0.00000E+000	-2.76516E-005	-2.40040E-001	6.94070E-002	3.57620E+000	9	...........
	101	1.36	6.47518E-002	-3.99944E-004	0.00000E+000	-2.58971E-005	-2.40040E-001	6.47586E-002	3.57620E+000	9	...........
	102	1.37333	6.01976E-002	-3.99770E-004	0.00000E+000	-2.40652E-005	-2.40040E-001	6.02082E-002	3.57620E+000	9	...........
	103	1.38667	5.56537E-002	-3.98939E-004	0.00000E+000	-2.22024E-005	-2.40040E-001	5.56599E-002	3.57620E+000	9	...........
	104	1.4	5.10531E-002	-3.97890E-004	0.00000E+000	-2.03135E-005	-2.40040E-001	5.10633E-002	3.57620E+000	9	...........
	105	1.41333	4.65018E-002	-3.98866E-004	0.00000E+000	-1.85480E-005	-2.40040E-001	4.65071E-002	3.57620E+000	9	...........
	106	1.42667	4.19549E-002	-3.98052E-004	0.00000E+000	-1.67002E-005	-2.40040E-001	4.19613E-002	3.57620E+000	9	...........
	107	1.44	3.76085E-002	-3.98957E-004	0.00000E+000	-1.50042E-005	-2.40040E-001	3.76130E-002	3.57620E+000	9	...........
	108	1.45333	3.32292E-002	-3.98264E-004	0.00000E+000	-1.32340E-005	-2.40040E-001	3.32276E-002	3.57620E+000	9	...........
	109	1.46667	2.88204E-002	-4.00229E-004	0.00000E+000	-1.15348E-005	-2.40040E-001	2.88197E-002	3.57620E+000	9	...........
	110	1.48	2.44448E-002	-3.99363E-004	0.00000E+000	-9.76236E-006	-2.40040E-001	2.44394E-002	3.57620E+000	9	...........
	111	1.49333	2.00342E-002	-3.98574E-004	0.00000E+000	-7.98512E-006	-2.40040E-001	2.00306E-002	3.57620E+000	9	...........
	112	1.50667	1.57702E-002	-3.99532E-004	0.00000E+000	-6.30069E-006	-2.40040E-001	1.57622E-002	3.57620E+000	9	...........
	113	1.52	1.14012E-002	-3.99145E-004	0.00000E+000	-4.55073E-006	-2.40040E-001	1.13903E-002	3.57620E+000	9	...........
	114	1.53333	7.10421E-003	-3.99171E-004	0.00000E+000	-2.83579E-006	-2.40040E-001	7.08696E-003	3.57620E+000	9	...........
	115	1.54667	2.80347E-003	-3.98924E-004	0.00000E+000	-1.11837E-006	-2.40040E-001	2.78593E-003	3.57620E+000	9	...........
	116	1.55	1.51883E-004	-3.97231E-004	0.00000E+000	-6.03326E-008	-2.40040E-001	1.33953E-004	3.57620E+000	9	...........
STARTTIMEOFFSET	QUANT	1224.747	Start Time Offset (s)
