EXPLAIN
TAG	PWR800_DISCHARGE
TITLE	LABEL	PWR Cyclic Charge Discharge (Cell) - Discharge Step	Test &Identifier
DATE	LABEL	12-7-2017	Date
TIME	LABEL	14:39:33	Time
NOTES	NOTES	3	&Notes...
	supercap test cell
	0.4mg
	6M KOH
PSTAT	PSTAT	IFC5000-01520	Potentiostat
CAPACITY	QUANT	1.00000E-003	Capacity (A-hr)
CELLTYPE	SELECTOR	1	&Cell Type
WORKINGCONNECTION	SELECTOR	0	&Working Lead
MAXDISCHARGETIME	VARIABLEANDUNITS	1.00000E+002	s	1.00000E+002	second(s)	Max &Discharge Time
DISCHARGEMODE	MULTIPARAM	0	4.00000E-004	&Discharge Mode	Constant Current	Amp(s)
SAMPLETIME	QUANT	1.00000E-002	Sa&mple Period (s)
DISCHARGESTOPAT1	MULTIPARAM	3	0.00000E+000	Discharge Stop At &1	Voltage < Limit	V
DISCHARGESTOPAT2	MULTIPARAM	0	0.00000E+000	Discharge Stop At &2	None	N/A
AESBHCSELECTOR	TOGGLE	F	Save Both Half Cells
IRCOMP	TOGGLE	F	IR &Measure
EOC	QUANT	0	Open Circuit (V)
SEQUENCER	TOGGLE	TRUE	Run as Sequence
PSTATMODEL	IQUANT	53	Pstat Model
PSTATSECTION	LABEL	IFC5000-01520	Pstat Section
PSTATSERIALNO	LABEL	01520	Pstat Serial Number
CTRLMODE	IQUANT	0	Control Mode
ELECTROMETER	IQUANT	1	RE=0 or CS=1
IESTAB	IQUANT	0	I/E Stability
CASPEED	IQUANT	4	Control Amp Speed
CONVENTION	IQUANT	1	Current Convention
ICHRANGE	IQUANT	2	Ich Range
ICHRANGEMODE	TOGGLE	T	Ich Auto Range
ICHOFFSETENABLE	TOGGLE	F	Ich Offset Enable
ICHOFFSET	QUANT	0	Ich Offset (V)
ICHFILTER	IQUANT	1	Ich Filter
VCHRANGE	IQUANT	2	Vch Range
VCHRANGEMODE	TOGGLE	T	Vch Auto Range
VCHOFFSETENABLE	TOGGLE	F	Vch Offset Enable
VCHOFFSET	QUANT	0	Vch Offset (V)
VCHFILTER	IQUANT	1	Vch Filter
IERANGELOWERLIMIT	IQUANT	9	I/E Range Lower Limit
IERANGEMODE	TOGGLE	F	I/E AutoRange
IERANGE	IQUANT	9	I/E Range
ACHSELECT	IQUANT	1	Ach Select
ACHRANGE	IQUANT	2	Ach Range
ACHOFFSETENABLE	TOGGLE	F	Ach Offset Enable
ACHOFFSET	QUANT	0	Ach Offset (V)
ACHFILTER	IQUANT	1	Ach Filter
CABLEID	IQUANT	14	Cable ID
DCCALDATE	LABEL	5-7-2017	DC Calibration Date
ACCALDATE	LABEL	12/3/2015	AC Calibration Date
FRAMEWORKVERSION	QUANT	7.01	Framework Version
INSTRUMENTVERSION	LABEL	4.00	Instrument Version
CURVE	TABLE	119
	Pt	T	Vf	Im	Vu	Pwr	Sig	Ach	Temp	IERange	Over
	#	s	V	A	V	W	V	V	deg C	#	bits
	0	0.013333	7.08507E-001	-3.99104E-004	0.00000E+000	-2.82768E-004	-2.40040E-001	7.08733E-001	3.57630E+000	9	...........
	1	0.026667	6.96648E-001	-3.99506E-004	0.00000E+000	-2.78315E-004	-2.40040E-001	6.96864E-001	3.57630E+000	9	...........
	2	0.04	6.86136E-001	-3.98995E-004	0.00000E+000	-2.73765E-004	-2.40040E-001	6.86334E-001	3.57630E+000	9	...........
	3	0.053333	6.76485E-001	-3.99892E-004	0.00000E+000	-2.70521E-004	-2.40040E-001	6.76684E-001	3.57630E+000	9	...........
	4	0.066667	6.67382E-001	-3.99065E-004	0.00000E+000	-2.66328E-004	-2.40040E-001	6.67617E-001	3.57630E+000	9	...........
	5	0.08	6.58645E-001	-3.98475E-004	0.00000E+000	-2.62453E-004	-2.40040E-001	6.58867E-001	3.57630E+000	9	...........
	6	0.093333	6.50152E-001	-4.00077E-004	0.00000E+000	-2.60111E-004	-2.40040E-001	6.50373E-001	3.57630E+000	9	...........
	7	0.106667	6.41871E-001	-3.98492E-004	0.00000E+000	-2.55780E-004	-2.40040E-001	6.42108E-001	3.57630E+000	9	...........
	8	0.12	6.33698E-001	-3.98703E-004	0.00000E+000	-2.52657E-004	-2.40040E-001	6.33928E-001	3.57630E+000	9	...........
	9	0.133333	6.25788E-001	-3.99041E-004	0.00000E+000	-2.49715E-004	-2.40040E-001	6.26041E-001	3.57630E+000	9	...........
	10	0.146667	6.17885E-001	-3.98183E-004	0.00000E+000	-2.46031E-004	-2.40040E-001	6.18116E-001	3.57630E+000	9	...........
	11	0.16	6.10078E-001	-3.97949E-004	0.00000E+000	-2.42780E-004	-2.40040E-001	6.10338E-001	3.57630E+000	9	...........
	12	0.173333	6.02357E-001	-3.98208E-004	0.00000E+000	-2.39863E-004	-2.40040E-001	6.02621E-001	3.57630E+000	9	...........
	13	0.186667	5.94808E-001	-3.99184E-004	0.00000E+000	-2.37438E-004	-2.40040E-001	5.95061E-001	3.57630E+000	9	...........
	14	0.2	5.87278E-001	-3.98478E-004	0.00000E+000	-2.34018E-004	-2.40040E-001	5.87548E-001	3.57630E+000	9	...........
	15	0.213333	5.79778E-001	-3.98917E-004	0.00000E+000	-2.31283E-004	-2.40040E-001	5.80035E-001	3.57630E+000	9	...........
	16	0.226667	5.72403E-001	-3.96963E-004	0.00000E+000	-2.27223E-004	-2.40040E-001	5.72618E-001	3.57630E+000	9	...........
	17	0.24	5.65050E-001	-3.99301E-004	0.00000E+000	-2.25625E-004	-2.40040E-001	5.65285E-001	3.57630E+000	9	...........
	18	0.253333	5.57739E-001	-3.99155E-004	0.00000E+000	-2.22624E-004	-2.40040E-001	5.57956E-001	3.57630E+000	9	...........
	19	0.266667	5.50446E-001	-3.97984E-004	0.00000E+000	-2.19069E-004	-2.40040E-001	5.50670E-001	3.57630E+000	9	...........
	20	0.28	5.43262E-001	-3.98934E-004	0.00000E+000	-2.16726E-004	-2.40040E-001	5.43479E-001	3.57630E+000	9	...........
	21	0.293333	5.36100E-001	-3.99462E-004	0.00000E+000	-2.14151E-004	-2.40040E-001	5.36322E-001	3.57630E+000	9	...........
	22	0.306667	5.29007E-001	-3.99202E-004	0.00000E+000	-2.11181E-004	-2.40040E-001	5.29220E-001	3.57630E+000	9	...........
	23	0.32	5.21869E-001	-3.99066E-004	0.00000E+000	-2.08260E-004	-2.40040E-001	5.22069E-001	3.57630E+000	9	...........
	24	0.333333	5.14895E-001	-3.98787E-004	0.00000E+000	-2.05334E-004	-2.40040E-001	5.15080E-001	3.57630E+000	9	...........
	25	0.346667	5.07880E-001	-3.98696E-004	0.00000E+000	-2.02490E-004	-2.40040E-001	5.08106E-001	3.57630E+000	9	...........
	26	0.36	5.00998E-001	-3.99172E-004	0.00000E+000	-1.99984E-004	-2.40040E-001	5.01205E-001	3.57630E+000	9	...........
	27	0.373333	4.94104E-001	-3.98880E-004	0.00000E+000	-1.97088E-004	-2.40040E-001	4.94326E-001	3.57650E+000	9	...........
	28	0.386667	4.87314E-001	-4.00988E-004	0.00000E+000	-1.95407E-004	-2.40040E-001	4.87485E-001	3.57670E+000	9	...........
	29	0.4	4.80653E-001	-3.98396E-004	0.00000E+000	-1.91490E-004	-2.40040E-001	4.80755E-001	3.57670E+000	9	...........
	30	0.413333	4.73838E-001	-3.98311E-004	0.00000E+000	-1.88735E-004	-2.40040E-001	4.73932E-001	3.57670E+000	9	...........
	31	0.426667	4.67033E-001	-3.99004E-004	0.00000E+000	-1.86348E-004	-2.40040E-001	4.67127E-001	3.57670E+000	9	...........
	32	0.44	4.60320E-001	-4.00547E-004	0.00000E+000	-1.84380E-004	-2.40040E-001	4.60413E-001	3.57670E+000	9	...........
	33	0.453333	4.53709E-001	-3.99442E-004	0.00000E+000	-1.81231E-004	-2.40040E-001	4.53797E-001	3.57670E+000	9	...........
	34	0.466667	4.47016E-001	-3.99800E-004	0.00000E+000	-1.78717E-004	-2.40040E-001	4.47108E-001	3.57670E+000	9	...........
	35	0.48	4.40373E-001	-3.99422E-004	0.00000E+000	-1.75894E-004	-2.40040E-001	4.40463E-001	3.57670E+000	9	...........
	36	0.493333	4.33804E-001	-3.99879E-004	0.00000E+000	-1.73469E-004	-2.40040E-001	4.33889E-001	3.57670E+000	9	...........
	37	0.506667	4.27291E-001	-3.99745E-004	0.00000E+000	-1.70808E-004	-2.40040E-001	4.27380E-001	3.57670E+000	9	...........
	38	0.52	4.20799E-001	-3.98458E-004	0.00000E+000	-1.67671E-004	-2.40040E-001	4.20878E-001	3.57670E+000	9	...........
	39	0.533333	4.14260E-001	-3.98818E-004	0.00000E+000	-1.65214E-004	-2.40040E-001	4.14342E-001	3.57670E+000	9	...........
	40	0.546667	4.07841E-001	-3.98806E-004	0.00000E+000	-1.62649E-004	-2.40040E-001	4.07917E-001	3.57670E+000	9	...........
	41	0.56	4.01458E-001	-3.98690E-004	0.00000E+000	-1.60057E-004	-2.40040E-001	4.01528E-001	3.57670E+000	9	...........
	42	0.573333	3.95109E-001	-3.98571E-004	0.00000E+000	-1.57479E-004	-2.40040E-001	3.95185E-001	3.57670E+000	9	...........
	43	0.586667	3.88764E-001	-3.98382E-004	0.00000E+000	-1.54877E-004	-2.40040E-001	3.88841E-001	3.57670E+000	9	...........
	44	0.6	3.82397E-001	-3.98211E-004	0.00000E+000	-1.52275E-004	-2.40040E-001	3.82471E-001	3.57670E+000	9	...........
	45	0.613333	3.76124E-001	-3.97410E-004	0.00000E+000	-1.49475E-004	-2.40040E-001	3.76196E-001	3.57670E+000	9	...........
	46	0.626667	3.69909E-001	-3.98708E-004	0.00000E+000	-1.47486E-004	-2.40040E-001	3.69974E-001	3.57670E+000	9	...........
	47	0.64	3.63707E-001	-3.99179E-004	0.00000E+000	-1.45184E-004	-2.40040E-001	3.63778E-001	3.57670E+000	9	...........
	48	0.653333	3.57566E-001	-3.99597E-004	0.00000E+000	-1.42882E-004	-2.40040E-001	3.57633E-001	3.57670E+000	9	...........
	49	0.666667	3.51436E-001	-3.99055E-004	0.00000E+000	-1.40242E-004	-2.40040E-001	3.51505E-001	3.57670E+000	9	...........
	50	0.68	3.45393E-001	-3.97745E-004	0.00000E+000	-1.37378E-004	-2.40040E-001	3.45464E-001	3.57670E+000	9	...........
	51	0.693333	3.39293E-001	-3.98814E-004	0.00000E+000	-1.35315E-004	-2.40040E-001	3.39361E-001	3.57670E+000	9	...........
	52	0.706667	3.33219E-001	-3.98875E-004	0.00000E+000	-1.32913E-004	-2.40040E-001	3.33286E-001	3.57670E+000	9	...........
	53	0.72	3.27233E-001	-3.98741E-004	0.00000E+000	-1.30481E-004	-2.40040E-001	3.27295E-001	3.57670E+000	9	...........
	54	0.733333	3.21322E-001	-3.98878E-004	0.00000E+000	-1.28168E-004	-2.40040E-001	3.21385E-001	3.57670E+000	9	...........
	55	0.746667	3.15434E-001	-3.98543E-004	0.00000E+000	-1.25714E-004	-2.40040E-001	3.15502E-001	3.57670E+000	9	...........
	56	0.76	3.09580E-001	-3.99021E-004	0.00000E+000	-1.23529E-004	-2.40040E-001	3.09641E-001	3.57670E+000	9	...........
	57	0.773333	3.03772E-001	-3.99563E-004	0.00000E+000	-1.21376E-004	-2.40040E-001	3.03833E-001	3.57670E+000	9	...........
	58	0.786667	2.97994E-001	-3.99464E-004	0.00000E+000	-1.19038E-004	-2.40040E-001	2.98053E-001	3.57670E+000	9	...........
	59	0.8	2.92185E-001	-3.98576E-004	0.00000E+000	-1.16458E-004	-2.40040E-001	2.92243E-001	3.57670E+000	9	...........
	60	0.813333	2.86484E-001	-3.97728E-004	0.00000E+000	-1.13943E-004	-2.40040E-001	2.86552E-001	3.57670E+000	9	...........
	61	0.826667	2.80770E-001	-3.98386E-004	0.00000E+000	-1.11855E-004	-2.40040E-001	2.80825E-001	3.57670E+000	9	...........
	62	0.84	2.75052E-001	-3.98660E-004	0.00000E+000	-1.09652E-004	-2.40040E-001	2.75110E-001	3.57670E+000	9	...........
	63	0.853333	2.69448E-001	-3.98761E-004	0.00000E+000	-1.07445E-004	-2.40040E-001	2.69503E-001	3.57670E+000	9	...........
	64	0.866667	2.63762E-001	-3.98468E-004	0.00000E+000	-1.05100E-004	-2.40040E-001	2.63815E-001	3.57670E+000	9	...........
	65	0.88	2.58182E-001	-3.98479E-004	0.00000E+000	-1.02880E-004	-2.40040E-001	2.58234E-001	3.57670E+000	9	...........
	66	0.893333	2.52706E-001	-3.98341E-004	0.00000E+000	-1.00663E-004	-2.40040E-001	2.52760E-001	3.57670E+000	9	...........
	67	0.906667	2.47262E-001	-3.98227E-004	0.00000E+000	-9.84662E-005	-2.40040E-001	2.47313E-001	3.57670E+000	9	...........
	68	0.92	2.41853E-001	-3.99146E-004	0.00000E+000	-9.65346E-005	-2.40040E-001	2.41898E-001	3.57670E+000	9	...........
	69	0.933333	2.36338E-001	-3.98371E-004	0.00000E+000	-9.41500E-005	-2.40040E-001	2.36379E-001	3.57670E+000	9	...........
	70	0.946667	2.30893E-001	-3.99285E-004	0.00000E+000	-9.21922E-005	-2.40040E-001	2.30938E-001	3.57670E+000	9	...........
	71	0.96	2.25364E-001	-3.99547E-004	0.00000E+000	-9.00436E-005	-2.40040E-001	2.25403E-001	3.57670E+000	9	...........
	72	0.97333	2.19985E-001	-3.99010E-004	0.00000E+000	-8.77764E-005	-2.40040E-001	2.20028E-001	3.57670E+000	9	...........
	73	0.98667	2.14745E-001	-3.99059E-004	0.00000E+000	-8.56958E-005	-2.40040E-001	2.14784E-001	3.57670E+000	9	...........
	74	1	2.09426E-001	-3.99013E-004	0.00000E+000	-8.35636E-005	-2.40040E-001	2.09464E-001	3.57670E+000	9	...........
	75	1.01333	2.04216E-001	-3.98753E-004	0.00000E+000	-8.14317E-005	-2.40040E-001	2.04254E-001	3.57670E+000	9	...........
	76	1.02667	1.99013E-001	-3.98299E-004	0.00000E+000	-7.92666E-005	-2.40040E-001	1.99052E-001	3.57670E+000	9	...........
	77	1.04	1.93801E-001	-3.98072E-004	0.00000E+000	-7.71469E-005	-2.40040E-001	1.93842E-001	3.57670E+000	9	...........
	78	1.05333	1.88615E-001	-3.98404E-004	0.00000E+000	-7.51450E-005	-2.40040E-001	1.88646E-001	3.57670E+000	9	...........
	79	1.06667	1.83356E-001	-3.97997E-004	0.00000E+000	-7.29751E-005	-2.40040E-001	1.83386E-001	3.57670E+000	9	...........
	80	1.08	1.78262E-001	-3.98432E-004	0.00000E+000	-7.10252E-005	-2.40040E-001	1.78293E-001	3.57670E+000	9	...........
	81	1.09333	1.73173E-001	-3.97676E-004	0.00000E+000	-6.88667E-005	-2.40040E-001	1.73202E-001	3.57670E+000	9	...........
	82	1.10667	1.68018E-001	-3.98613E-004	0.00000E+000	-6.69741E-005	-2.40040E-001	1.68051E-001	3.57670E+000	9	...........
	83	1.12	1.62870E-001	-3.99084E-004	0.00000E+000	-6.49987E-005	-2.40040E-001	1.62899E-001	3.57670E+000	9	...........
	84	1.13333	1.57808E-001	-3.99508E-004	0.00000E+000	-6.30456E-005	-2.40040E-001	1.57835E-001	3.57670E+000	9	...........
	85	1.14667	1.52759E-001	-3.99220E-004	0.00000E+000	-6.09844E-005	-2.40040E-001	1.52783E-001	3.57670E+000	9	...........
	86	1.16	1.47778E-001	-3.98737E-004	0.00000E+000	-5.89245E-005	-2.40040E-001	1.47800E-001	3.57670E+000	9	...........
	87	1.17333	1.42915E-001	-3.97578E-004	0.00000E+000	-5.68199E-005	-2.40040E-001	1.42939E-001	3.57670E+000	9	...........
	88	1.18667	1.38003E-001	-3.99246E-004	0.00000E+000	-5.50972E-005	-2.40040E-001	1.38025E-001	3.57670E+000	9	...........
	89	1.2	1.33079E-001	-3.98812E-004	0.00000E+000	-5.30737E-005	-2.40040E-001	1.33095E-001	3.57670E+000	9	...........
	90	1.21333	1.28181E-001	-3.98516E-004	0.00000E+000	-5.10822E-005	-2.40040E-001	1.28201E-001	3.57670E+000	9	...........
	91	1.22667	1.23339E-001	-3.99219E-004	0.00000E+000	-4.92393E-005	-2.40040E-001	1.23365E-001	3.57670E+000	9	...........
	92	1.24	1.18550E-001	-3.98268E-004	0.00000E+000	-4.72147E-005	-2.40040E-001	1.18569E-001	3.57670E+000	9	...........
	93	1.25333	1.13730E-001	-3.98176E-004	0.00000E+000	-4.52844E-005	-2.40040E-001	1.13749E-001	3.57670E+000	9	...........
	94	1.26667	1.08911E-001	-3.98384E-004	0.00000E+000	-4.33883E-005	-2.40040E-001	1.08927E-001	3.57670E+000	9	...........
	95	1.28	1.04127E-001	-3.98569E-004	0.00000E+000	-4.15019E-005	-2.40040E-001	1.04146E-001	3.57670E+000	9	...........
	96	1.29333	9.93424E-002	-4.00473E-004	0.00000E+000	-3.97840E-005	-2.40040E-001	9.93639E-002	3.57670E+000	9	...........
	97	1.30667	9.46858E-002	-3.99374E-004	0.00000E+000	-3.78150E-005	-2.40040E-001	9.47076E-002	3.57670E+000	9	...........
	98	1.32	9.00451E-002	-3.98053E-004	0.00000E+000	-3.58427E-005	-2.40040E-001	9.00654E-002	3.57670E+000	9	...........
	99	1.33333	8.53167E-002	-3.98749E-004	0.00000E+000	-3.40199E-005	-2.40040E-001	8.53411E-002	3.57670E+000	9	...........
	100	1.34667	8.07173E-002	-3.98372E-004	0.00000E+000	-3.21555E-005	-2.40040E-001	8.07346E-002	3.57670E+000	9	...........
	101	1.36	7.61320E-002	-3.98820E-004	0.00000E+000	-3.03629E-005	-2.40040E-001	7.61430E-002	3.57670E+000	9	...........
	102	1.37333	7.15853E-002	-3.98253E-004	0.00000E+000	-2.85091E-005	-2.40040E-001	7.16014E-002	3.57650E+000	9	...........
	103	1.38667	6.70200E-002	-3.99541E-004	0.00000E+000	-2.67772E-005	-2.40040E-001	6.70276E-002	3.57630E+000	9	...........
	104	1.4	6.23964E-002	-3.98970E-004	0.00000E+000	-2.48943E-005	-2.40040E-001	6.24080E-002	3.57630E+000	9	...........
	105	1.41333	5.79220E-002	-3.99539E-004	0.00000E+000	-2.31421E-005	-2.40040E-001	5.79288E-002	3.57630E+000	9	...........
	106	1.42667	5.35136E-002	-3.98677E-004	0.00000E+000	-2.13347E-005	-2.40040E-001	5.35216E-002	3.57630E+000	9	...........
	107	1.44	4.89981E-002	-3.98557E-004	0.00000E+000	-1.95286E-005	-2.40040E-001	4.90046E-002	3.57630E+000	9	...........
	108	1.45333	4.45619E-002	-3.98834E-004	0.00000E+000	-1.77728E-005	-2.40040E-001	4.45751E-002	3.57630E+000	9	...........
	109	1.46667	4.01146E-002	-4.00127E-004	0.00000E+000	-1.60509E-005	-2.40040E-001	4.01215E-002	3.57630E+000	9	...........
	110	1.48	3.56929E-002	-3.97754E-004	0.00000E+000	-1.41970E-005	-2.40040E-001	3.56964E-002	3.57630E+000	9	...........
	111	1.49333	3.13340E-002	-4.00200E-004	0.00000E+000	-1.25399E-005	-2.40040E-001	3.13365E-002	3.57630E+000	9	...........
	112	1.50667	2.70200E-002	-3.98615E-004	0.00000E+000	-1.07706E-005	-2.40040E-001	2.70178E-002	3.57630E+000	9	...........
	113	1.52	2.26606E-002	-3.98322E-004	0.00000E+000	-9.02621E-006	-2.40040E-001	2.26599E-002	3.57630E+000	9	...........
	114	1.53333	1.83285E-002	-3.98314E-004	0.00000E+000	-7.30050E-006	-2.40040E-001	1.83266E-002	3.57630E+000	9	...........
	115	1.54667	1.40642E-002	-3.98219E-004	0.00000E+000	-5.60061E-006	-2.40040E-001	1.40546E-002	3.57630E+000	9	...........
	116	1.56	9.72331E-003	-3.98717E-004	0.00000E+000	-3.87684E-006	-2.40040E-001	9.70988E-003	3.57630E+000	9	...........
	117	1.57333	5.47700E-003	-3.99253E-004	0.00000E+000	-2.18671E-006	-2.40040E-001	5.46367E-003	3.57630E+000	9	...........
	118	1.585	1.49323E-003	-3.99200E-004	0.00000E+000	-5.96096E-007	-2.40040E-001	1.47447E-003	3.57630E+000	9	...........
STARTTIMEOFFSET	QUANT	1006.25	Start Time Offset (s)
