EXPLAIN
TAG	PWR800_DISCHARGE
TITLE	LABEL	PWR Cyclic Charge Discharge (Cell) - Discharge Step	Test &Identifier
DATE	LABEL	12-7-2017	Date
TIME	LABEL	14:55:38	Time
NOTES	NOTES	3	&Notes...
	supercap test cell
	0.4mg
	6M KOH
PSTAT	PSTAT	IFC5000-01520	Potentiostat
CAPACITY	QUANT	1.00000E-003	Capacity (A-hr)
CELLTYPE	SELECTOR	1	&Cell Type
WORKINGCONNECTION	SELECTOR	0	&Working Lead
MAXDISCHARGETIME	VARIABLEANDUNITS	1.00000E+002	s	1.00000E+002	second(s)	Max &Discharge Time
DISCHARGEMODE	MULTIPARAM	0	4.00000E-004	&Discharge Mode	Constant Current	Amp(s)
SAMPLETIME	QUANT	1.00000E-002	Sa&mple Period (s)
DISCHARGESTOPAT1	MULTIPARAM	3	0.00000E+000	Discharge Stop At &1	Voltage < Limit	V
DISCHARGESTOPAT2	MULTIPARAM	0	0.00000E+000	Discharge Stop At &2	None	N/A
AESBHCSELECTOR	TOGGLE	F	Save Both Half Cells
IRCOMP	TOGGLE	F	IR &Measure
EOC	QUANT	0	Open Circuit (V)
SEQUENCER	TOGGLE	TRUE	Run as Sequence
PSTATMODEL	IQUANT	53	Pstat Model
PSTATSECTION	LABEL	IFC5000-01520	Pstat Section
PSTATSERIALNO	LABEL	01520	Pstat Serial Number
CTRLMODE	IQUANT	0	Control Mode
ELECTROMETER	IQUANT	1	RE=0 or CS=1
IESTAB	IQUANT	0	I/E Stability
CASPEED	IQUANT	4	Control Amp Speed
CONVENTION	IQUANT	1	Current Convention
ICHRANGE	IQUANT	2	Ich Range
ICHRANGEMODE	TOGGLE	T	Ich Auto Range
ICHOFFSETENABLE	TOGGLE	F	Ich Offset Enable
ICHOFFSET	QUANT	0	Ich Offset (V)
ICHFILTER	IQUANT	1	Ich Filter
VCHRANGE	IQUANT	2	Vch Range
VCHRANGEMODE	TOGGLE	T	Vch Auto Range
VCHOFFSETENABLE	TOGGLE	F	Vch Offset Enable
VCHOFFSET	QUANT	0	Vch Offset (V)
VCHFILTER	IQUANT	1	Vch Filter
IERANGELOWERLIMIT	IQUANT	9	I/E Range Lower Limit
IERANGEMODE	TOGGLE	F	I/E AutoRange
IERANGE	IQUANT	9	I/E Range
ACHSELECT	IQUANT	1	Ach Select
ACHRANGE	IQUANT	2	Ach Range
ACHOFFSETENABLE	TOGGLE	F	Ach Offset Enable
ACHOFFSET	QUANT	0	Ach Offset (V)
ACHFILTER	IQUANT	1	Ach Filter
CABLEID	IQUANT	14	Cable ID
DCCALDATE	LABEL	5-7-2017	DC Calibration Date
ACCALDATE	LABEL	12/3/2015	AC Calibration Date
FRAMEWORKVERSION	QUANT	7.01	Framework Version
INSTRUMENTVERSION	LABEL	4.00	Instrument Version
CURVE	TABLE	111
	Pt	T	Vf	Im	Vu	Pwr	Sig	Ach	Temp	IERange	Over
	#	s	V	A	V	W	V	V	deg C	#	bits
	0	0.013333	6.97851E-001	-3.97899E-004	0.00000E+000	-2.77674E-004	-2.40040E-001	6.98072E-001	3.57640E+000	9	...........
	1	0.026667	6.85163E-001	-3.97909E-004	0.00000E+000	-2.72633E-004	-2.40040E-001	6.85413E-001	3.57640E+000	9	...........
	2	0.04	6.74077E-001	-3.99149E-004	0.00000E+000	-2.69057E-004	-2.40040E-001	6.74293E-001	3.57640E+000	9	...........
	3	0.053333	6.63846E-001	-4.00280E-004	0.00000E+000	-2.65724E-004	-2.40040E-001	6.64083E-001	3.57640E+000	9	...........
	4	0.066667	6.54189E-001	-3.99345E-004	0.00000E+000	-2.61247E-004	-2.40040E-001	6.54421E-001	3.57640E+000	9	...........
	5	0.08	6.44982E-001	-3.99080E-004	0.00000E+000	-2.57400E-004	-2.40040E-001	6.45213E-001	3.57640E+000	9	...........
	6	0.093333	6.35988E-001	-3.98833E-004	0.00000E+000	-2.53653E-004	-2.40040E-001	6.36219E-001	3.57640E+000	9	...........
	7	0.106667	6.27325E-001	-3.99167E-004	0.00000E+000	-2.50407E-004	-2.40040E-001	6.27564E-001	3.57640E+000	9	...........
	8	0.12	6.18855E-001	-3.99591E-004	0.00000E+000	-2.47289E-004	-2.40040E-001	6.19093E-001	3.57640E+000	9	...........
	9	0.133333	6.10510E-001	-3.99014E-004	0.00000E+000	-2.43602E-004	-2.40040E-001	6.10788E-001	3.57640E+000	9	...........
	10	0.146667	6.02265E-001	-3.98826E-004	0.00000E+000	-2.40199E-004	-2.40040E-001	6.02522E-001	3.57640E+000	9	...........
	11	0.16	5.94161E-001	-3.99085E-004	0.00000E+000	-2.37121E-004	-2.40040E-001	5.94425E-001	3.57640E+000	9	...........
	12	0.173333	5.86137E-001	-3.99059E-004	0.00000E+000	-2.33903E-004	-2.40040E-001	5.86405E-001	3.57640E+000	9	...........
	13	0.186667	5.78211E-001	-4.00100E-004	0.00000E+000	-2.31343E-004	-2.40040E-001	5.78472E-001	3.57640E+000	9	...........
	14	0.2	5.70325E-001	-3.99513E-004	0.00000E+000	-2.27852E-004	-2.40040E-001	5.70558E-001	3.57640E+000	9	...........
	15	0.213333	5.62469E-001	-3.98828E-004	0.00000E+000	-2.24329E-004	-2.40040E-001	5.62725E-001	3.57640E+000	9	...........
	16	0.226667	5.54714E-001	-4.00527E-004	0.00000E+000	-2.22178E-004	-2.40040E-001	5.54952E-001	3.57640E+000	9	...........
	17	0.24	5.47005E-001	-3.99334E-004	0.00000E+000	-2.18438E-004	-2.40040E-001	5.47251E-001	3.57640E+000	9	...........
	18	0.253333	5.39325E-001	-3.98382E-004	0.00000E+000	-2.14857E-004	-2.40040E-001	5.39544E-001	3.57640E+000	9	...........
	19	0.266667	5.31682E-001	-3.97987E-004	0.00000E+000	-2.11603E-004	-2.40040E-001	5.31910E-001	3.57640E+000	9	...........
	20	0.28	5.24120E-001	-3.98521E-004	0.00000E+000	-2.08873E-004	-2.40040E-001	5.24339E-001	3.57640E+000	9	...........
	21	0.293333	5.16666E-001	-3.99154E-004	0.00000E+000	-2.06229E-004	-2.40040E-001	5.16863E-001	3.57640E+000	9	...........
	22	0.306667	5.09218E-001	-3.98394E-004	0.00000E+000	-2.02869E-004	-2.40040E-001	5.09456E-001	3.57640E+000	9	...........
	23	0.32	5.01789E-001	-4.00222E-004	0.00000E+000	-2.00827E-004	-2.40040E-001	5.02010E-001	3.57640E+000	9	...........
	24	0.333333	4.94392E-001	-3.98814E-004	0.00000E+000	-1.97170E-004	-2.40040E-001	4.94609E-001	3.57640E+000	9	...........
	25	0.346667	4.87055E-001	-3.99444E-004	0.00000E+000	-1.94551E-004	-2.40040E-001	4.87246E-001	3.57640E+000	9	...........
	26	0.36	4.80056E-001	-3.98494E-004	0.00000E+000	-1.91299E-004	-2.40040E-001	4.80156E-001	3.57640E+000	9	...........
	27	0.373333	4.72802E-001	-4.00432E-004	0.00000E+000	-1.89325E-004	-2.40040E-001	4.72901E-001	3.57640E+000	9	...........
	28	0.386667	4.65568E-001	-3.98593E-004	0.00000E+000	-1.85572E-004	-2.40040E-001	4.65661E-001	3.57640E+000	9	...........
	29	0.4	4.58342E-001	-3.99995E-004	0.00000E+000	-1.83335E-004	-2.40040E-001	4.58430E-001	3.57640E+000	9	...........
	30	0.413333	4.51315E-001	-3.98832E-004	0.00000E+000	-1.79999E-004	-2.40040E-001	4.51405E-001	3.57640E+000	9	...........
	31	0.426667	4.44182E-001	-3.98950E-004	0.00000E+000	-1.77207E-004	-2.40040E-001	4.44267E-001	3.57640E+000	9	...........
	32	0.44	4.37110E-001	-3.99165E-004	0.00000E+000	-1.74479E-004	-2.40040E-001	4.37199E-001	3.57640E+000	9	...........
	33	0.453333	4.30157E-001	-3.98574E-004	0.00000E+000	-1.71449E-004	-2.40040E-001	4.30242E-001	3.57640E+000	9	...........
	34	0.466667	4.23175E-001	-3.98650E-004	0.00000E+000	-1.68699E-004	-2.40040E-001	4.23260E-001	3.57640E+000	9	...........
	35	0.48	4.16279E-001	-3.99210E-004	0.00000E+000	-1.66183E-004	-2.40040E-001	4.16360E-001	3.57640E+000	9	...........
	36	0.493333	4.09395E-001	-3.98886E-004	0.00000E+000	-1.63302E-004	-2.40040E-001	4.09477E-001	3.57640E+000	9	...........
	37	0.506667	4.02493E-001	-3.98254E-004	0.00000E+000	-1.60294E-004	-2.40040E-001	4.02575E-001	3.57640E+000	9	...........
	38	0.52	3.95707E-001	-3.98683E-004	0.00000E+000	-1.57762E-004	-2.40040E-001	3.95782E-001	3.57640E+000	9	...........
	39	0.533333	3.88898E-001	-3.98852E-004	0.00000E+000	-1.55113E-004	-2.40040E-001	3.88976E-001	3.57640E+000	9	...........
	40	0.546667	3.82190E-001	-3.98949E-004	0.00000E+000	-1.52474E-004	-2.40040E-001	3.82263E-001	3.57640E+000	9	...........
	41	0.56	3.75420E-001	-3.99281E-004	0.00000E+000	-1.49898E-004	-2.40040E-001	3.75493E-001	3.57640E+000	9	...........
	42	0.573333	3.68804E-001	-3.99402E-004	0.00000E+000	-1.47301E-004	-2.40040E-001	3.68876E-001	3.57640E+000	9	...........
	43	0.586667	3.62228E-001	-3.99398E-004	0.00000E+000	-1.44673E-004	-2.40040E-001	3.62299E-001	3.57640E+000	9	...........
	44	0.6	3.55639E-001	-4.00127E-004	0.00000E+000	-1.42301E-004	-2.40040E-001	3.55710E-001	3.57640E+000	9	...........
	45	0.613333	3.49126E-001	-3.98918E-004	0.00000E+000	-1.39273E-004	-2.40040E-001	3.49197E-001	3.57640E+000	9	...........
	46	0.626667	3.42611E-001	-3.99054E-004	0.00000E+000	-1.36720E-004	-2.40040E-001	3.42681E-001	3.57640E+000	9	...........
	47	0.64	3.36123E-001	-3.97891E-004	0.00000E+000	-1.33741E-004	-2.40040E-001	3.36190E-001	3.57640E+000	9	...........
	48	0.653333	3.29783E-001	-3.98603E-004	0.00000E+000	-1.31453E-004	-2.40040E-001	3.29847E-001	3.57640E+000	9	...........
	49	0.666667	3.23479E-001	-3.99565E-004	0.00000E+000	-1.29251E-004	-2.40040E-001	3.23541E-001	3.57640E+000	9	...........
	50	0.68	3.17064E-001	-3.98510E-004	0.00000E+000	-1.26353E-004	-2.40040E-001	3.17127E-001	3.57640E+000	9	...........
	51	0.693333	3.10797E-001	-3.98580E-004	0.00000E+000	-1.23877E-004	-2.40040E-001	3.10864E-001	3.57640E+000	9	...........
	52	0.706667	3.04563E-001	-3.98998E-004	0.00000E+000	-1.21520E-004	-2.40040E-001	3.04621E-001	3.57640E+000	9	...........
	53	0.72	2.98377E-001	-3.98259E-004	0.00000E+000	-1.18831E-004	-2.40040E-001	2.98431E-001	3.57640E+000	9	...........
	54	0.733333	2.92154E-001	-3.99379E-004	0.00000E+000	-1.16680E-004	-2.40040E-001	2.92213E-001	3.57640E+000	9	...........
	55	0.746667	2.86126E-001	-3.98263E-004	0.00000E+000	-1.13954E-004	-2.40040E-001	2.86184E-001	3.57640E+000	9	...........
	56	0.76	2.80045E-001	-3.98110E-004	0.00000E+000	-1.11489E-004	-2.40040E-001	2.80102E-001	3.57640E+000	9	...........
	57	0.773333	2.73978E-001	-4.00002E-004	0.00000E+000	-1.09592E-004	-2.40040E-001	2.74033E-001	3.57640E+000	9	...........
	58	0.786667	2.67972E-001	-3.99409E-004	0.00000E+000	-1.07031E-004	-2.40040E-001	2.68026E-001	3.57640E+000	9	...........
	59	0.8	2.61979E-001	-3.98847E-004	0.00000E+000	-1.04489E-004	-2.40040E-001	2.62038E-001	3.57640E+000	9	...........
	60	0.813333	2.56091E-001	-3.98349E-004	0.00000E+000	-1.02014E-004	-2.40040E-001	2.56143E-001	3.57640E+000	9	...........
	61	0.826667	2.50199E-001	-4.00158E-004	0.00000E+000	-1.00119E-004	-2.40040E-001	2.50244E-001	3.57640E+000	9	...........
	62	0.84	2.44322E-001	-3.98323E-004	0.00000E+000	-9.73189E-005	-2.40040E-001	2.44369E-001	3.57640E+000	9	...........
	63	0.853333	2.38482E-001	-4.00285E-004	0.00000E+000	-9.54607E-005	-2.40040E-001	2.38525E-001	3.57640E+000	9	...........
	64	0.866667	2.32618E-001	-3.98469E-004	0.00000E+000	-9.26910E-005	-2.40040E-001	2.32658E-001	3.57640E+000	9	...........
	65	0.88	2.26890E-001	-3.97301E-004	0.00000E+000	-9.01437E-005	-2.40040E-001	2.26930E-001	3.57640E+000	9	...........
	66	0.893333	2.21159E-001	-3.99519E-004	0.00000E+000	-8.83571E-005	-2.40040E-001	2.21203E-001	3.57640E+000	9	...........
	67	0.906667	2.15447E-001	-3.99040E-004	0.00000E+000	-8.59720E-005	-2.40040E-001	2.15480E-001	3.57640E+000	9	...........
	68	0.92	2.09774E-001	-3.99169E-004	0.00000E+000	-8.37352E-005	-2.40040E-001	2.09809E-001	3.57640E+000	9	...........
	69	0.933333	2.04130E-001	-3.98809E-004	0.00000E+000	-8.14091E-005	-2.40040E-001	2.04171E-001	3.57640E+000	9	...........
	70	0.946667	1.98538E-001	-3.99234E-004	0.00000E+000	-7.92631E-005	-2.40040E-001	1.98579E-001	3.57640E+000	9	...........
	71	0.96	1.92989E-001	-3.98814E-004	0.00000E+000	-7.69667E-005	-2.40040E-001	1.93027E-001	3.57640E+000	9	...........
	72	0.97333	1.87491E-001	-3.98657E-004	0.00000E+000	-7.47447E-005	-2.40040E-001	1.87525E-001	3.57640E+000	9	...........
	73	0.98667	1.82058E-001	-3.99188E-004	0.00000E+000	-7.26753E-005	-2.40040E-001	1.82098E-001	3.57640E+000	9	...........
	74	1	1.76676E-001	-3.98667E-004	0.00000E+000	-7.04346E-005	-2.40040E-001	1.76711E-001	3.57640E+000	9	...........
	75	1.01333	1.71221E-001	-3.98848E-004	0.00000E+000	-6.82912E-005	-2.40040E-001	1.71255E-001	3.57640E+000	9	...........
	76	1.02667	1.65742E-001	-3.99339E-004	0.00000E+000	-6.61872E-005	-2.40040E-001	1.65774E-001	3.57640E+000	9	...........
	77	1.04	1.60356E-001	-3.99177E-004	0.00000E+000	-6.40105E-005	-2.40040E-001	1.60388E-001	3.57640E+000	9	...........
	78	1.05333	1.54962E-001	-3.98762E-004	0.00000E+000	-6.17928E-005	-2.40040E-001	1.54988E-001	3.57640E+000	9	...........
	79	1.06667	1.49722E-001	-3.99914E-004	0.00000E+000	-5.98761E-005	-2.40040E-001	1.49748E-001	3.57662E+000	9	...........
	80	1.08	1.44495E-001	-3.99091E-004	0.00000E+000	-5.76665E-005	-2.40040E-001	1.44519E-001	3.57700E+000	9	...........
	81	1.09333	1.39332E-001	-3.99375E-004	0.00000E+000	-5.56458E-005	-2.40040E-001	1.39352E-001	3.57700E+000	9	...........
	82	1.10667	1.34190E-001	-3.98944E-004	0.00000E+000	-5.35341E-005	-2.40040E-001	1.34207E-001	3.57700E+000	9	...........
	83	1.12	1.28951E-001	-3.98983E-004	0.00000E+000	-5.14493E-005	-2.40040E-001	1.28969E-001	3.57700E+000	9	...........
	84	1.13333	1.23761E-001	-3.98520E-004	0.00000E+000	-4.93214E-005	-2.40040E-001	1.23781E-001	3.57700E+000	9	...........
	85	1.14667	1.18745E-001	-3.98976E-004	0.00000E+000	-4.73763E-005	-2.40040E-001	1.18772E-001	3.57700E+000	9	...........
	86	1.16	1.13687E-001	-3.99377E-004	0.00000E+000	-4.54040E-005	-2.40040E-001	1.13707E-001	3.57700E+000	9	...........
	87	1.17333	1.08680E-001	-3.97525E-004	0.00000E+000	-4.32030E-005	-2.40040E-001	1.08700E-001	3.57700E+000	9	...........
	88	1.18667	1.03702E-001	-3.97636E-004	0.00000E+000	-4.12356E-005	-2.40040E-001	1.03719E-001	3.57700E+000	9	...........
	89	1.2	9.88104E-002	-3.98860E-004	0.00000E+000	-3.94116E-005	-2.40040E-001	9.88279E-002	3.57700E+000	9	...........
	90	1.21333	9.38473E-002	-3.98914E-004	0.00000E+000	-3.74370E-005	-2.40040E-001	9.38656E-002	3.57700E+000	9	...........
	91	1.22667	8.89275E-002	-3.98860E-004	0.00000E+000	-3.54697E-005	-2.40040E-001	8.89412E-002	3.57700E+000	9	...........
	92	1.24	8.40477E-002	-3.97981E-004	0.00000E+000	-3.34494E-005	-2.40040E-001	8.40613E-002	3.57700E+000	9	...........
	93	1.25333	7.90609E-002	-3.98272E-004	0.00000E+000	-3.14877E-005	-2.40040E-001	7.90706E-002	3.57700E+000	9	...........
	94	1.26667	7.42283E-002	-3.98675E-004	0.00000E+000	-2.95930E-005	-2.40040E-001	7.42337E-002	3.57700E+000	9	...........
	95	1.28	6.94247E-002	-3.99474E-004	0.00000E+000	-2.77334E-005	-2.40040E-001	6.94321E-002	3.57700E+000	9	...........
	96	1.29333	6.46147E-002	-3.98954E-004	0.00000E+000	-2.57783E-005	-2.40040E-001	6.46203E-002	3.57700E+000	9	...........
	97	1.30667	5.97839E-002	-3.98701E-004	0.00000E+000	-2.38359E-005	-2.40040E-001	5.97913E-002	3.57700E+000	9	...........
	98	1.32	5.50802E-002	-3.99212E-004	0.00000E+000	-2.19886E-005	-2.40040E-001	5.50864E-002	3.57700E+000	9	...........
	99	1.33333	5.03849E-002	-3.97707E-004	0.00000E+000	-2.00384E-005	-2.40040E-001	5.03840E-002	3.57700E+000	9	...........
	100	1.34667	4.58070E-002	-3.98971E-004	0.00000E+000	-1.82756E-005	-2.40040E-001	4.58169E-002	3.57700E+000	9	...........
	101	1.36	4.10786E-002	-3.98847E-004	0.00000E+000	-1.63841E-005	-2.40040E-001	4.10827E-002	3.57700E+000	9	...........
	102	1.37333	3.64303E-002	-3.99447E-004	0.00000E+000	-1.45520E-005	-2.40040E-001	3.64337E-002	3.57700E+000	9	...........
	103	1.38667	3.18541E-002	-3.99832E-004	0.00000E+000	-1.27363E-005	-2.40040E-001	3.18514E-002	3.57700E+000	9	...........
	104	1.4	2.73208E-002	-4.00423E-004	0.00000E+000	-1.09399E-005	-2.40040E-001	2.73217E-002	3.57700E+000	9	...........
	105	1.41333	2.27771E-002	-3.97515E-004	0.00000E+000	-9.05426E-006	-2.40040E-001	2.27674E-002	3.57700E+000	9	...........
	106	1.42667	1.82489E-002	-3.98465E-004	0.00000E+000	-7.27155E-006	-2.40040E-001	1.82401E-002	3.57700E+000	9	...........
	107	1.44	1.37728E-002	-3.98909E-004	0.00000E+000	-5.49411E-006	-2.40040E-001	1.37584E-002	3.57700E+000	9	...........
	108	1.45333	9.27078E-003	-3.98443E-004	0.00000E+000	-3.69388E-006	-2.40040E-001	9.25475E-003	3.57700E+000	9	...........
	109	1.46667	4.84237E-003	-4.00044E-004	0.00000E+000	-1.93716E-006	-2.40040E-001	4.82971E-003	3.57700E+000	9	...........
	110	1.47667	9.53516E-004	-4.00522E-004	0.00000E+000	-3.81904E-007	-2.40040E-001	9.36900E-004	3.57700E+000	9	...........
STARTTIMEOFFSET	QUANT	1768.251	Start Time Offset (s)
