EXPLAIN
TAG	PWR800_DISCHARGE
TITLE	LABEL	PWR Cyclic Charge Discharge (Cell) - Discharge Step	Test &Identifier
DATE	LABEL	12-7-2017	Date
TIME	LABEL	15:07:20	Time
NOTES	NOTES	3	&Notes...
	supercap test cell
	0.4mg
	6M KOH
PSTAT	PSTAT	IFC5000-01520	Potentiostat
CAPACITY	QUANT	1.00000E-003	Capacity (A-hr)
CELLTYPE	SELECTOR	1	&Cell Type
WORKINGCONNECTION	SELECTOR	0	&Working Lead
MAXDISCHARGETIME	VARIABLEANDUNITS	1.00000E+002	s	1.00000E+002	second(s)	Max &Discharge Time
DISCHARGEMODE	MULTIPARAM	0	4.00000E-004	&Discharge Mode	Constant Current	Amp(s)
SAMPLETIME	QUANT	1.00000E-002	Sa&mple Period (s)
DISCHARGESTOPAT1	MULTIPARAM	3	0.00000E+000	Discharge Stop At &1	Voltage < Limit	V
DISCHARGESTOPAT2	MULTIPARAM	0	0.00000E+000	Discharge Stop At &2	None	N/A
AESBHCSELECTOR	TOGGLE	F	Save Both Half Cells
IRCOMP	TOGGLE	F	IR &Measure
EOC	QUANT	0	Open Circuit (V)
SEQUENCER	TOGGLE	TRUE	Run as Sequence
PSTATMODEL	IQUANT	53	Pstat Model
PSTATSECTION	LABEL	IFC5000-01520	Pstat Section
PSTATSERIALNO	LABEL	01520	Pstat Serial Number
CTRLMODE	IQUANT	0	Control Mode
ELECTROMETER	IQUANT	1	RE=0 or CS=1
IESTAB	IQUANT	0	I/E Stability
CASPEED	IQUANT	4	Control Amp Speed
CONVENTION	IQUANT	1	Current Convention
ICHRANGE	IQUANT	2	Ich Range
ICHRANGEMODE	TOGGLE	T	Ich Auto Range
ICHOFFSETENABLE	TOGGLE	F	Ich Offset Enable
ICHOFFSET	QUANT	0	Ich Offset (V)
ICHFILTER	IQUANT	1	Ich Filter
VCHRANGE	IQUANT	2	Vch Range
VCHRANGEMODE	TOGGLE	T	Vch Auto Range
VCHOFFSETENABLE	TOGGLE	F	Vch Offset Enable
VCHOFFSET	QUANT	0	Vch Offset (V)
VCHFILTER	IQUANT	1	Vch Filter
IERANGELOWERLIMIT	IQUANT	9	I/E Range Lower Limit
IERANGEMODE	TOGGLE	F	I/E AutoRange
IERANGE	IQUANT	9	I/E Range
ACHSELECT	IQUANT	1	Ach Select
ACHRANGE	IQUANT	2	Ach Range
ACHOFFSETENABLE	TOGGLE	F	Ach Offset Enable
ACHOFFSET	QUANT	0	Ach Offset (V)
ACHFILTER	IQUANT	1	Ach Filter
CABLEID	IQUANT	14	Cable ID
DCCALDATE	LABEL	5-7-2017	DC Calibration Date
ACCALDATE	LABEL	12/3/2015	AC Calibration Date
FRAMEWORKVERSION	QUANT	7.01	Framework Version
INSTRUMENTVERSION	LABEL	4.00	Instrument Version
CURVE	TABLE	107
	Pt	T	Vf	Im	Vu	Pwr	Sig	Ach	Temp	IERange	Over
	#	s	V	A	V	W	V	V	deg C	#	bits
	0	0.013333	6.90168E-001	-3.99202E-004	0.00000E+000	-2.75516E-004	-2.40040E-001	6.90379E-001	3.57720E+000	9	...........
	1	0.026667	6.76952E-001	-3.98329E-004	0.00000E+000	-2.69650E-004	-2.40040E-001	6.77133E-001	3.57720E+000	9	...........
	2	0.04	6.65354E-001	-3.98874E-004	0.00000E+000	-2.65392E-004	-2.40040E-001	6.65565E-001	3.57720E+000	9	...........
	3	0.053333	6.54773E-001	-3.97426E-004	0.00000E+000	-2.60224E-004	-2.40040E-001	6.55002E-001	3.57720E+000	9	...........
	4	0.066667	6.44815E-001	-3.98831E-004	0.00000E+000	-2.57172E-004	-2.40040E-001	6.45023E-001	3.57720E+000	9	...........
	5	0.08	6.35260E-001	-3.98023E-004	0.00000E+000	-2.52848E-004	-2.40040E-001	6.35452E-001	3.57720E+000	9	...........
	6	0.093333	6.26080E-001	-3.98018E-004	0.00000E+000	-2.49191E-004	-2.40040E-001	6.26238E-001	3.57720E+000	9	...........
	7	0.106667	6.17069E-001	-3.98658E-004	0.00000E+000	-2.46000E-004	-2.40040E-001	6.17258E-001	3.57720E+000	9	...........
	8	0.12	6.08267E-001	-3.98735E-004	0.00000E+000	-2.42538E-004	-2.40040E-001	6.08508E-001	3.57720E+000	9	...........
	9	0.133333	5.99714E-001	-3.98721E-004	0.00000E+000	-2.39119E-004	-2.40040E-001	5.99942E-001	3.57720E+000	9	...........
	10	0.146667	5.91242E-001	-3.98742E-004	0.00000E+000	-2.35753E-004	-2.40040E-001	5.91426E-001	3.57720E+000	9	...........
	11	0.16	5.82782E-001	-3.98978E-004	0.00000E+000	-2.32517E-004	-2.40040E-001	5.83017E-001	3.57720E+000	9	...........
	12	0.173333	5.74546E-001	-3.98411E-004	0.00000E+000	-2.28906E-004	-2.40040E-001	5.74736E-001	3.57720E+000	9	...........
	13	0.186667	5.66391E-001	-3.99286E-004	0.00000E+000	-2.26152E-004	-2.40040E-001	5.66552E-001	3.57720E+000	9	...........
	14	0.2	5.58259E-001	-3.98892E-004	0.00000E+000	-2.22685E-004	-2.40040E-001	5.58465E-001	3.57720E+000	9	...........
	15	0.213333	5.50222E-001	-3.99302E-004	0.00000E+000	-2.19705E-004	-2.40040E-001	5.50411E-001	3.57720E+000	9	...........
	16	0.226667	5.42246E-001	-3.97913E-004	0.00000E+000	-2.15767E-004	-2.40040E-001	5.42441E-001	3.57720E+000	9	...........
	17	0.24	5.34305E-001	-3.98308E-004	0.00000E+000	-2.12818E-004	-2.40040E-001	5.34525E-001	3.57720E+000	9	...........
	18	0.253333	5.26462E-001	-3.99483E-004	0.00000E+000	-2.10313E-004	-2.40040E-001	5.26669E-001	3.57720E+000	9	...........
	19	0.266667	5.18697E-001	-3.97957E-004	0.00000E+000	-2.06419E-004	-2.40040E-001	5.18871E-001	3.57720E+000	9	...........
	20	0.28	5.10999E-001	-3.98951E-004	0.00000E+000	-2.03864E-004	-2.40040E-001	5.11198E-001	3.57720E+000	9	...........
	21	0.293333	5.03295E-001	-3.99503E-004	0.00000E+000	-2.01068E-004	-2.40040E-001	5.03486E-001	3.57720E+000	9	...........
	22	0.306667	4.95627E-001	-4.00123E-004	0.00000E+000	-1.98312E-004	-2.40040E-001	4.95834E-001	3.57720E+000	9	...........
	23	0.32	4.88026E-001	-3.98970E-004	0.00000E+000	-1.94707E-004	-2.40040E-001	4.88221E-001	3.57720E+000	9	...........
	24	0.333333	4.80663E-001	-3.98525E-004	0.00000E+000	-1.91556E-004	-2.40040E-001	4.80766E-001	3.57720E+000	9	...........
	25	0.346667	4.73145E-001	-3.98907E-004	0.00000E+000	-1.88741E-004	-2.40040E-001	4.73244E-001	3.57720E+000	9	...........
	26	0.36	4.65676E-001	-3.98100E-004	0.00000E+000	-1.85386E-004	-2.40040E-001	4.65773E-001	3.57720E+000	9	...........
	27	0.373333	4.58172E-001	-3.99478E-004	0.00000E+000	-1.83030E-004	-2.40040E-001	4.58273E-001	3.57720E+000	9	...........
	28	0.386667	4.50712E-001	-3.99492E-004	0.00000E+000	-1.80056E-004	-2.40040E-001	4.50810E-001	3.57720E+000	9	...........
	29	0.4	4.43322E-001	-3.98748E-004	0.00000E+000	-1.76774E-004	-2.40040E-001	4.43414E-001	3.57720E+000	9	...........
	30	0.413333	4.36082E-001	-3.99245E-004	0.00000E+000	-1.74104E-004	-2.40040E-001	4.36173E-001	3.57720E+000	9	...........
	31	0.426667	4.28913E-001	-3.97358E-004	0.00000E+000	-1.70432E-004	-2.40040E-001	4.29003E-001	3.57720E+000	9	...........
	32	0.44	4.21660E-001	-3.98098E-004	0.00000E+000	-1.67862E-004	-2.40040E-001	4.21740E-001	3.57720E+000	9	...........
	33	0.453333	4.14463E-001	-3.99391E-004	0.00000E+000	-1.65533E-004	-2.40040E-001	4.14541E-001	3.57720E+000	9	...........
	34	0.466667	4.07309E-001	-3.97762E-004	0.00000E+000	-1.62012E-004	-2.40040E-001	4.07384E-001	3.57720E+000	9	...........
	35	0.48	4.00157E-001	-3.99693E-004	0.00000E+000	-1.59940E-004	-2.40040E-001	4.00227E-001	3.57720E+000	9	...........
	36	0.493333	3.93108E-001	-3.98499E-004	0.00000E+000	-1.56653E-004	-2.40040E-001	3.93178E-001	3.57720E+000	9	...........
	37	0.506667	3.86151E-001	-3.98860E-004	0.00000E+000	-1.54020E-004	-2.40040E-001	3.86223E-001	3.57720E+000	9	...........
	38	0.52	3.79148E-001	-3.97787E-004	0.00000E+000	-1.50820E-004	-2.40040E-001	3.79220E-001	3.57720E+000	9	...........
	39	0.533333	3.72184E-001	-4.00167E-004	0.00000E+000	-1.48936E-004	-2.40040E-001	3.72248E-001	3.57720E+000	9	...........
	40	0.546667	3.65317E-001	-3.99283E-004	0.00000E+000	-1.45865E-004	-2.40040E-001	3.65388E-001	3.57720E+000	9	...........
	41	0.56	3.58419E-001	-3.99007E-004	0.00000E+000	-1.43012E-004	-2.40040E-001	3.58482E-001	3.57720E+000	9	...........
	42	0.573333	3.51652E-001	-3.98611E-004	0.00000E+000	-1.40173E-004	-2.40040E-001	3.51718E-001	3.57720E+000	9	...........
	43	0.586667	3.44888E-001	-3.97801E-004	0.00000E+000	-1.37197E-004	-2.40040E-001	3.44953E-001	3.57720E+000	9	...........
	44	0.6	3.38156E-001	-3.98972E-004	0.00000E+000	-1.34915E-004	-2.40040E-001	3.38218E-001	3.57720E+000	9	...........
	45	0.613333	3.31447E-001	-3.98495E-004	0.00000E+000	-1.32080E-004	-2.40040E-001	3.31512E-001	3.57720E+000	9	...........
	46	0.626667	3.24837E-001	-3.99098E-004	0.00000E+000	-1.29642E-004	-2.40040E-001	3.24900E-001	3.57720E+000	9	...........
	47	0.64	3.18240E-001	-3.99044E-004	0.00000E+000	-1.26992E-004	-2.40040E-001	3.18303E-001	3.57720E+000	9	...........
	48	0.653333	3.11694E-001	-3.98371E-004	0.00000E+000	-1.24170E-004	-2.40040E-001	3.11756E-001	3.57720E+000	9	...........
	49	0.666667	3.05214E-001	-3.98912E-004	0.00000E+000	-1.21754E-004	-2.40040E-001	3.05276E-001	3.57720E+000	9	...........
	50	0.68	2.98787E-001	-3.98067E-004	0.00000E+000	-1.18937E-004	-2.40040E-001	2.98849E-001	3.57764E+000	9	...........
	51	0.693333	2.92465E-001	-3.98462E-004	0.00000E+000	-1.16536E-004	-2.40040E-001	2.92526E-001	3.57770E+000	9	...........
	52	0.706667	2.86042E-001	-3.97998E-004	0.00000E+000	-1.13844E-004	-2.40040E-001	2.86096E-001	3.57770E+000	9	...........
	53	0.72	2.79676E-001	-3.97947E-004	0.00000E+000	-1.11296E-004	-2.40040E-001	2.79737E-001	3.57770E+000	9	...........
	54	0.733333	2.73374E-001	-3.98590E-004	0.00000E+000	-1.08964E-004	-2.40040E-001	2.73433E-001	3.57770E+000	9	...........
	55	0.746667	2.67232E-001	-3.98972E-004	0.00000E+000	-1.06618E-004	-2.40040E-001	2.67286E-001	3.57770E+000	9	...........
	56	0.76	2.61082E-001	-3.99772E-004	0.00000E+000	-1.04373E-004	-2.40040E-001	2.61138E-001	3.57770E+000	9	...........
	57	0.773333	2.54999E-001	-3.99114E-004	0.00000E+000	-1.01773E-004	-2.40040E-001	2.55052E-001	3.57770E+000	9	...........
	58	0.786667	2.48871E-001	-3.98999E-004	0.00000E+000	-9.92991E-005	-2.40040E-001	2.48917E-001	3.57770E+000	9	...........
	59	0.8	2.42815E-001	-3.98978E-004	0.00000E+000	-9.68780E-005	-2.40040E-001	2.42863E-001	3.57770E+000	9	...........
	60	0.813333	2.36751E-001	-3.98570E-004	0.00000E+000	-9.43619E-005	-2.40040E-001	2.36798E-001	3.57770E+000	9	...........
	61	0.826667	2.30830E-001	-3.97534E-004	0.00000E+000	-9.17629E-005	-2.40040E-001	2.30872E-001	3.57770E+000	9	...........
	62	0.84	2.24931E-001	-3.99230E-004	0.00000E+000	-8.97994E-005	-2.40040E-001	2.24974E-001	3.57770E+000	9	...........
	63	0.853333	2.19029E-001	-3.97614E-004	0.00000E+000	-8.70891E-005	-2.40040E-001	2.19078E-001	3.57770E+000	9	...........
	64	0.866667	2.13159E-001	-3.98485E-004	0.00000E+000	-8.49409E-005	-2.40040E-001	2.13203E-001	3.57770E+000	9	...........
	65	0.88	2.07317E-001	-3.99217E-004	0.00000E+000	-8.27643E-005	-2.40040E-001	2.07358E-001	3.57770E+000	9	...........
	66	0.893333	2.01452E-001	-3.98935E-004	0.00000E+000	-8.03663E-005	-2.40040E-001	2.01495E-001	3.57770E+000	9	...........
	67	0.906667	1.95674E-001	-3.99004E-004	0.00000E+000	-7.80748E-005	-2.40040E-001	1.95711E-001	3.57770E+000	9	...........
	68	0.92	1.89958E-001	-3.99681E-004	0.00000E+000	-7.59229E-005	-2.40040E-001	1.89995E-001	3.57770E+000	9	...........
	69	0.933333	1.84258E-001	-3.99864E-004	0.00000E+000	-7.36780E-005	-2.40040E-001	1.84291E-001	3.57770E+000	9	...........
	70	0.946667	1.78662E-001	-3.99176E-004	0.00000E+000	-7.13178E-005	-2.40040E-001	1.78694E-001	3.57770E+000	9	...........
	71	0.96	1.73127E-001	-3.98363E-004	0.00000E+000	-6.89673E-005	-2.40040E-001	1.73162E-001	3.57770E+000	9	...........
	72	0.97333	1.67536E-001	-3.97094E-004	0.00000E+000	-6.65275E-005	-2.40040E-001	1.67564E-001	3.57770E+000	9	...........
	73	0.98667	1.61961E-001	-3.98602E-004	0.00000E+000	-6.45578E-005	-2.40040E-001	1.61989E-001	3.57770E+000	9	...........
	74	1	1.56421E-001	-3.98718E-004	0.00000E+000	-6.23680E-005	-2.40040E-001	1.56450E-001	3.57770E+000	9	...........
	75	1.01333	1.50950E-001	-3.98944E-004	0.00000E+000	-6.02204E-005	-2.40040E-001	1.50978E-001	3.57770E+000	9	...........
	76	1.02667	1.45506E-001	-3.98009E-004	0.00000E+000	-5.79127E-005	-2.40040E-001	1.45534E-001	3.57770E+000	9	...........
	77	1.04	1.40214E-001	-3.98753E-004	0.00000E+000	-5.59109E-005	-2.40040E-001	1.40239E-001	3.57770E+000	9	...........
	78	1.05333	1.34812E-001	-3.98199E-004	0.00000E+000	-5.36819E-005	-2.40040E-001	1.34838E-001	3.57770E+000	9	...........
	79	1.06667	1.29477E-001	-3.98479E-004	0.00000E+000	-5.15938E-005	-2.40040E-001	1.29495E-001	3.57770E+000	9	...........
	80	1.08	1.24201E-001	-3.99013E-004	0.00000E+000	-4.95577E-005	-2.40040E-001	1.24221E-001	3.57770E+000	9	...........
	81	1.09333	1.18950E-001	-3.98387E-004	0.00000E+000	-4.73883E-005	-2.40040E-001	1.18972E-001	3.57770E+000	9	...........
	82	1.10667	1.13651E-001	-3.98956E-004	0.00000E+000	-4.53416E-005	-2.40040E-001	1.13670E-001	3.57770E+000	9	...........
	83	1.12	1.08467E-001	-3.98240E-004	0.00000E+000	-4.31961E-005	-2.40040E-001	1.08481E-001	3.57770E+000	9	...........
	84	1.13333	1.03388E-001	-4.00241E-004	0.00000E+000	-4.13800E-005	-2.40040E-001	1.03404E-001	3.57770E+000	9	...........
	85	1.14667	9.82941E-002	-3.98167E-004	0.00000E+000	-3.91374E-005	-2.40040E-001	9.83111E-002	3.57770E+000	9	...........
	86	1.16	9.32175E-002	-3.97462E-004	0.00000E+000	-3.70504E-005	-2.40040E-001	9.32290E-002	3.57770E+000	9	...........
	87	1.17333	8.81292E-002	-3.98377E-004	0.00000E+000	-3.51086E-005	-2.40040E-001	8.81408E-002	3.57770E+000	9	...........
	88	1.18667	8.30682E-002	-3.98593E-004	0.00000E+000	-3.31104E-005	-2.40040E-001	8.30798E-002	3.57770E+000	9	...........
	89	1.2	7.81506E-002	-3.98759E-004	0.00000E+000	-3.11633E-005	-2.40040E-001	7.81577E-002	3.57770E+000	9	...........
	90	1.21333	7.31678E-002	-3.98384E-004	0.00000E+000	-2.91489E-005	-2.40040E-001	7.31764E-002	3.57770E+000	9	...........
	91	1.22667	6.82675E-002	-3.98407E-004	0.00000E+000	-2.71982E-005	-2.40040E-001	6.82741E-002	3.57770E+000	9	...........
	92	1.24	6.34232E-002	-3.98610E-004	0.00000E+000	-2.52811E-005	-2.40040E-001	6.34257E-002	3.57770E+000	9	...........
	93	1.25333	5.85968E-002	-3.97860E-004	0.00000E+000	-2.33133E-005	-2.40040E-001	5.85993E-002	3.57770E+000	9	...........
	94	1.26667	5.37229E-002	-3.99126E-004	0.00000E+000	-2.14422E-005	-2.40040E-001	5.37211E-002	3.57770E+000	9	...........
	95	1.28	4.89319E-002	-3.98384E-004	0.00000E+000	-1.94937E-005	-2.40040E-001	4.89290E-002	3.57770E+000	9	...........
	96	1.29333	4.41308E-002	-3.98545E-004	0.00000E+000	-1.75881E-005	-2.40040E-001	4.41379E-002	3.57770E+000	9	...........
	97	1.30667	3.94012E-002	-3.98480E-004	0.00000E+000	-1.57006E-005	-2.40040E-001	3.94043E-002	3.57770E+000	9	...........
	98	1.32	3.46751E-002	-3.98781E-004	0.00000E+000	-1.38278E-005	-2.40040E-001	3.46732E-002	3.57770E+000	9	...........
	99	1.33333	3.00129E-002	-3.97860E-004	0.00000E+000	-1.19410E-005	-2.40040E-001	3.00120E-002	3.57770E+000	9	...........
	100	1.34667	2.52380E-002	-3.98576E-004	0.00000E+000	-1.00593E-005	-2.40040E-001	2.52360E-002	3.57770E+000	9	...........
	101	1.36	2.06047E-002	-3.98905E-004	0.00000E+000	-8.21933E-006	-2.40040E-001	2.05930E-002	3.57770E+000	9	...........
	102	1.37333	1.60690E-002	-3.97752E-004	0.00000E+000	-6.39146E-006	-2.40040E-001	1.60556E-002	3.57770E+000	9	...........
	103	1.38667	1.14612E-002	-3.98157E-004	0.00000E+000	-4.56336E-006	-2.40040E-001	1.14484E-002	3.57770E+000	9	...........
	104	1.4	6.86826E-003	-3.98219E-004	0.00000E+000	-2.73507E-006	-2.40040E-001	6.85000E-003	3.57770E+000	9	...........
	105	1.41333	2.36572E-003	-3.98920E-004	0.00000E+000	-9.43734E-007	-2.40040E-001	2.34725E-003	3.57770E+000	9	...........
	106	1.415	-2.23781E-004	-3.94122E-004	0.00000E+000	8.81970E-008	-2.40040E-001	-2.33050E-004	3.57770E+000	9	...........
STARTTIMEOFFSET	QUANT	2315.677	Start Time Offset (s)
