EXPLAIN
TAG	PWR800_DISCHARGE
TITLE	LABEL	PWR Cyclic Charge Discharge (Cell) - Discharge Step	Test &Identifier
DATE	LABEL	12-7-2017	Date
TIME	LABEL	14:29:45	Time
NOTES	NOTES	3	&Notes...
	supercap test cell
	0.4mg
	6M KOH
PSTAT	PSTAT	IFC5000-01520	Potentiostat
CAPACITY	QUANT	1.00000E-003	Capacity (A-hr)
CELLTYPE	SELECTOR	1	&Cell Type
WORKINGCONNECTION	SELECTOR	0	&Working Lead
MAXDISCHARGETIME	VARIABLEANDUNITS	1.00000E+002	s	1.00000E+002	second(s)	Max &Discharge Time
DISCHARGEMODE	MULTIPARAM	0	4.00000E-004	&Discharge Mode	Constant Current	Amp(s)
SAMPLETIME	QUANT	1.00000E-002	Sa&mple Period (s)
DISCHARGESTOPAT1	MULTIPARAM	3	0.00000E+000	Discharge Stop At &1	Voltage < Limit	V
DISCHARGESTOPAT2	MULTIPARAM	0	0.00000E+000	Discharge Stop At &2	None	N/A
AESBHCSELECTOR	TOGGLE	F	Save Both Half Cells
IRCOMP	TOGGLE	F	IR &Measure
EOC	QUANT	0	Open Circuit (V)
SEQUENCER	TOGGLE	TRUE	Run as Sequence
PSTATMODEL	IQUANT	53	Pstat Model
PSTATSECTION	LABEL	IFC5000-01520	Pstat Section
PSTATSERIALNO	LABEL	01520	Pstat Serial Number
CTRLMODE	IQUANT	0	Control Mode
ELECTROMETER	IQUANT	1	RE=0 or CS=1
IESTAB	IQUANT	0	I/E Stability
CASPEED	IQUANT	4	Control Amp Speed
CONVENTION	IQUANT	1	Current Convention
ICHRANGE	IQUANT	2	Ich Range
ICHRANGEMODE	TOGGLE	T	Ich Auto Range
ICHOFFSETENABLE	TOGGLE	F	Ich Offset Enable
ICHOFFSET	QUANT	0	Ich Offset (V)
ICHFILTER	IQUANT	1	Ich Filter
VCHRANGE	IQUANT	2	Vch Range
VCHRANGEMODE	TOGGLE	T	Vch Auto Range
VCHOFFSETENABLE	TOGGLE	F	Vch Offset Enable
VCHOFFSET	QUANT	0	Vch Offset (V)
VCHFILTER	IQUANT	1	Vch Filter
IERANGELOWERLIMIT	IQUANT	9	I/E Range Lower Limit
IERANGEMODE	TOGGLE	F	I/E AutoRange
IERANGE	IQUANT	9	I/E Range
ACHSELECT	IQUANT	1	Ach Select
ACHRANGE	IQUANT	2	Ach Range
ACHOFFSETENABLE	TOGGLE	F	Ach Offset Enable
ACHOFFSET	QUANT	0	Ach Offset (V)
ACHFILTER	IQUANT	1	Ach Filter
CABLEID	IQUANT	14	Cable ID
DCCALDATE	LABEL	5-7-2017	DC Calibration Date
ACCALDATE	LABEL	12/3/2015	AC Calibration Date
FRAMEWORKVERSION	QUANT	7.01	Framework Version
INSTRUMENTVERSION	LABEL	4.00	Instrument Version
CURVE	TABLE	127
	Pt	T	Vf	Im	Vu	Pwr	Sig	Ach	Temp	IERange	Over
	#	s	V	A	V	W	V	V	deg C	#	bits
	0	0.013333	7.16312E-001	-4.00161E-004	0.00000E+000	-2.86640E-004	-2.40040E-001	7.16531E-001	3.57700E+000	9	...........
	1	0.026667	7.05001E-001	-3.98673E-004	0.00000E+000	-2.81065E-004	-2.40040E-001	7.05223E-001	3.57700E+000	9	...........
	2	0.04	6.95012E-001	-3.98217E-004	0.00000E+000	-2.76765E-004	-2.40040E-001	6.95252E-001	3.57700E+000	9	...........
	3	0.053333	6.85801E-001	-3.98181E-004	0.00000E+000	-2.73073E-004	-2.40040E-001	6.86033E-001	3.57700E+000	9	...........
	4	0.066667	6.77038E-001	-3.98300E-004	0.00000E+000	-2.69664E-004	-2.40040E-001	6.77255E-001	3.57700E+000	9	...........
	5	0.08	6.68677E-001	-3.98922E-004	0.00000E+000	-2.66750E-004	-2.40040E-001	6.68927E-001	3.57700E+000	9	...........
	6	0.093333	6.60573E-001	-3.98476E-004	0.00000E+000	-2.63222E-004	-2.40040E-001	6.60804E-001	3.57700E+000	9	...........
	7	0.106667	6.52663E-001	-3.98705E-004	0.00000E+000	-2.60220E-004	-2.40040E-001	6.52886E-001	3.57700E+000	9	...........
	8	0.12	6.44952E-001	-3.98199E-004	0.00000E+000	-2.56819E-004	-2.40040E-001	6.45178E-001	3.57700E+000	9	...........
	9	0.133333	6.37341E-001	-3.98227E-004	0.00000E+000	-2.53806E-004	-2.40040E-001	6.37569E-001	3.57700E+000	9	...........
	10	0.146667	6.29859E-001	-3.98593E-004	0.00000E+000	-2.51057E-004	-2.40040E-001	6.30088E-001	3.57700E+000	9	...........
	11	0.16	6.22424E-001	-3.98449E-004	0.00000E+000	-2.48004E-004	-2.40040E-001	6.22621E-001	3.57700E+000	9	...........
	12	0.173333	6.15120E-001	-3.98412E-004	0.00000E+000	-2.45071E-004	-2.40040E-001	6.15334E-001	3.57700E+000	9	...........
	13	0.186667	6.07794E-001	-3.99150E-004	0.00000E+000	-2.42601E-004	-2.40040E-001	6.08027E-001	3.57700E+000	9	...........
	14	0.2	6.00640E-001	-3.99378E-004	0.00000E+000	-2.39882E-004	-2.40040E-001	6.00867E-001	3.57700E+000	9	...........
	15	0.213333	5.93571E-001	-3.99635E-004	0.00000E+000	-2.37211E-004	-2.40040E-001	5.93785E-001	3.57700E+000	9	...........
	16	0.226667	5.86399E-001	-3.99393E-004	0.00000E+000	-2.34204E-004	-2.40040E-001	5.86617E-001	3.57700E+000	9	...........
	17	0.24	5.79387E-001	-3.98295E-004	0.00000E+000	-2.30767E-004	-2.40040E-001	5.79585E-001	3.57700E+000	9	...........
	18	0.253333	5.72468E-001	-3.98690E-004	0.00000E+000	-2.28237E-004	-2.40040E-001	5.72665E-001	3.57700E+000	9	...........
	19	0.266667	5.65539E-001	-3.99911E-004	0.00000E+000	-2.26165E-004	-2.40040E-001	5.65744E-001	3.57700E+000	9	...........
	20	0.28	5.58618E-001	-3.98866E-004	0.00000E+000	-2.22813E-004	-2.40040E-001	5.58836E-001	3.57700E+000	9	...........
	21	0.293333	5.51803E-001	-3.99331E-004	0.00000E+000	-2.20352E-004	-2.40040E-001	5.51996E-001	3.57700E+000	9	...........
	22	0.306667	5.45005E-001	-3.98591E-004	0.00000E+000	-2.17234E-004	-2.40040E-001	5.45189E-001	3.57659E+000	9	...........
	23	0.32	5.38222E-001	-3.99017E-004	0.00000E+000	-2.14759E-004	-2.40040E-001	5.38425E-001	3.57590E+000	9	...........
	24	0.333333	5.31435E-001	-3.99031E-004	0.00000E+000	-2.12059E-004	-2.40040E-001	5.31645E-001	3.57590E+000	9	...........
	25	0.346667	5.24758E-001	-3.98660E-004	0.00000E+000	-2.09200E-004	-2.40040E-001	5.24939E-001	3.57590E+000	9	...........
	26	0.36	5.18097E-001	-3.98873E-004	0.00000E+000	-2.06655E-004	-2.40040E-001	5.18266E-001	3.57590E+000	9	...........
	27	0.373333	5.11463E-001	-3.98003E-004	0.00000E+000	-2.03564E-004	-2.40040E-001	5.11656E-001	3.57590E+000	9	...........
	28	0.386667	5.04901E-001	-3.99015E-004	0.00000E+000	-2.01463E-004	-2.40040E-001	5.05089E-001	3.57590E+000	9	...........
	29	0.4	4.98341E-001	-3.99140E-004	0.00000E+000	-1.98907E-004	-2.40040E-001	4.98504E-001	3.57590E+000	9	...........
	30	0.413333	4.91894E-001	-3.98714E-004	0.00000E+000	-1.96125E-004	-2.40040E-001	4.92064E-001	3.57590E+000	9	...........
	31	0.426667	4.85516E-001	-3.97828E-004	0.00000E+000	-1.93152E-004	-2.40040E-001	4.85670E-001	3.57590E+000	9	...........
	32	0.44	4.79247E-001	-3.99080E-004	0.00000E+000	-1.91258E-004	-2.40040E-001	4.79336E-001	3.57590E+000	9	...........
	33	0.453333	4.72819E-001	-3.98373E-004	0.00000E+000	-1.88358E-004	-2.40040E-001	4.72910E-001	3.57590E+000	9	...........
	34	0.466667	4.66420E-001	-3.99255E-004	0.00000E+000	-1.86221E-004	-2.40040E-001	4.66516E-001	3.57590E+000	9	...........
	35	0.48	4.60029E-001	-3.97990E-004	0.00000E+000	-1.83087E-004	-2.40040E-001	4.60119E-001	3.57590E+000	9	...........
	36	0.493333	4.53762E-001	-3.99491E-004	0.00000E+000	-1.81274E-004	-2.40040E-001	4.53848E-001	3.57590E+000	9	...........
	37	0.506667	4.47472E-001	-3.98321E-004	0.00000E+000	-1.78237E-004	-2.40040E-001	4.47558E-001	3.57590E+000	9	...........
	38	0.52	4.41185E-001	-3.99060E-004	0.00000E+000	-1.76060E-004	-2.40040E-001	4.41276E-001	3.57590E+000	9	...........
	39	0.533333	4.34955E-001	-3.99798E-004	0.00000E+000	-1.73894E-004	-2.40040E-001	4.35043E-001	3.57590E+000	9	...........
	40	0.546667	4.28832E-001	-3.98480E-004	0.00000E+000	-1.70881E-004	-2.40040E-001	4.28916E-001	3.57590E+000	9	...........
	41	0.56	4.22611E-001	-3.99596E-004	0.00000E+000	-1.68874E-004	-2.40040E-001	4.22695E-001	3.57590E+000	9	...........
	42	0.573333	4.16518E-001	-4.00144E-004	0.00000E+000	-1.66667E-004	-2.40040E-001	4.16603E-001	3.57590E+000	9	...........
	43	0.586667	4.10470E-001	-3.98911E-004	0.00000E+000	-1.63741E-004	-2.40040E-001	4.10550E-001	3.57590E+000	9	...........
	44	0.6	4.04392E-001	-3.98386E-004	0.00000E+000	-1.61104E-004	-2.40040E-001	4.04466E-001	3.57590E+000	9	...........
	45	0.613333	3.98321E-001	-3.98267E-004	0.00000E+000	-1.58638E-004	-2.40040E-001	3.98398E-001	3.57590E+000	9	...........
	46	0.626667	3.92327E-001	-3.98350E-004	0.00000E+000	-1.56284E-004	-2.40040E-001	3.92402E-001	3.57590E+000	9	...........
	47	0.64	3.86366E-001	-3.97944E-004	0.00000E+000	-1.53752E-004	-2.40040E-001	3.86444E-001	3.57590E+000	9	...........
	48	0.653333	3.80465E-001	-3.98922E-004	0.00000E+000	-1.51776E-004	-2.40040E-001	3.80539E-001	3.57590E+000	9	...........
	49	0.666667	3.74484E-001	-3.98301E-004	0.00000E+000	-1.49157E-004	-2.40040E-001	3.74553E-001	3.57590E+000	9	...........
	50	0.68	3.68614E-001	-3.99034E-004	0.00000E+000	-1.47090E-004	-2.40040E-001	3.68689E-001	3.57590E+000	9	...........
	51	0.693333	3.62812E-001	-3.99751E-004	0.00000E+000	-1.45035E-004	-2.40040E-001	3.62892E-001	3.57590E+000	9	...........
	52	0.706667	3.56972E-001	-3.98680E-004	0.00000E+000	-1.42317E-004	-2.40040E-001	3.57048E-001	3.57590E+000	9	...........
	53	0.72	3.51156E-001	-3.98617E-004	0.00000E+000	-1.39977E-004	-2.40040E-001	3.51225E-001	3.57590E+000	9	...........
	54	0.733333	3.45417E-001	-3.99003E-004	0.00000E+000	-1.37823E-004	-2.40040E-001	3.45483E-001	3.57590E+000	9	...........
	55	0.746667	3.39727E-001	-3.97821E-004	0.00000E+000	-1.35151E-004	-2.40040E-001	3.39791E-001	3.57590E+000	9	...........
	56	0.76	3.34023E-001	-3.98183E-004	0.00000E+000	-1.33002E-004	-2.40040E-001	3.34091E-001	3.57590E+000	9	...........
	57	0.773333	3.28283E-001	-3.99251E-004	0.00000E+000	-1.31067E-004	-2.40040E-001	3.28343E-001	3.57590E+000	9	...........
	58	0.786667	3.22609E-001	-3.98926E-004	0.00000E+000	-1.28697E-004	-2.40040E-001	3.22671E-001	3.57590E+000	9	...........
	59	0.8	3.17000E-001	-3.99422E-004	0.00000E+000	-1.26617E-004	-2.40040E-001	3.17060E-001	3.57590E+000	9	...........
	60	0.813333	3.11429E-001	-3.99396E-004	0.00000E+000	-1.24383E-004	-2.40040E-001	3.11482E-001	3.57590E+000	9	...........
	61	0.826667	3.05850E-001	-3.97547E-004	0.00000E+000	-1.21590E-004	-2.40040E-001	3.05914E-001	3.57590E+000	9	...........
	62	0.84	3.00340E-001	-3.98853E-004	0.00000E+000	-1.19792E-004	-2.40040E-001	3.00402E-001	3.57590E+000	9	...........
	63	0.853333	2.94854E-001	-3.98199E-004	0.00000E+000	-1.17411E-004	-2.40040E-001	2.94916E-001	3.57590E+000	9	...........
	64	0.866667	2.89295E-001	-3.98816E-004	0.00000E+000	-1.15376E-004	-2.40040E-001	2.89350E-001	3.57590E+000	9	...........
	65	0.88	2.83868E-001	-3.99228E-004	0.00000E+000	-1.13328E-004	-2.40040E-001	2.83925E-001	3.57590E+000	9	...........
	66	0.893333	2.78491E-001	-3.99206E-004	0.00000E+000	-1.11175E-004	-2.40040E-001	2.78544E-001	3.57590E+000	9	...........
	67	0.906667	2.73071E-001	-3.99228E-004	0.00000E+000	-1.09018E-004	-2.40040E-001	2.73128E-001	3.57590E+000	9	...........
	68	0.92	2.67762E-001	-3.98098E-004	0.00000E+000	-1.06596E-004	-2.40040E-001	2.67817E-001	3.57590E+000	9	...........
	69	0.933333	2.62380E-001	-3.99444E-004	0.00000E+000	-1.04806E-004	-2.40040E-001	2.62435E-001	3.57590E+000	9	...........
	70	0.946667	2.57058E-001	-3.98915E-004	0.00000E+000	-1.02544E-004	-2.40040E-001	2.57110E-001	3.57590E+000	9	...........
	71	0.96	2.51848E-001	-3.98693E-004	0.00000E+000	-1.00410E-004	-2.40040E-001	2.51896E-001	3.57590E+000	9	...........
	72	0.97333	2.46659E-001	-3.98658E-004	0.00000E+000	-9.83328E-005	-2.40040E-001	2.46707E-001	3.57590E+000	9	...........
	73	0.98667	2.41492E-001	-3.99381E-004	0.00000E+000	-9.64476E-005	-2.40040E-001	2.41536E-001	3.57590E+000	9	...........
	74	1	2.36291E-001	-3.98717E-004	0.00000E+000	-9.42130E-005	-2.40040E-001	2.36333E-001	3.57590E+000	9	...........
	75	1.01333	2.31206E-001	-3.99278E-004	0.00000E+000	-9.23155E-005	-2.40040E-001	2.31248E-001	3.57590E+000	9	...........
	76	1.02667	2.26069E-001	-3.98882E-004	0.00000E+000	-9.01751E-005	-2.40040E-001	2.26108E-001	3.57590E+000	9	...........
	77	1.04	2.20882E-001	-3.99328E-004	0.00000E+000	-8.82043E-005	-2.40040E-001	2.20915E-001	3.57590E+000	9	...........
	78	1.05333	2.15795E-001	-3.99784E-004	0.00000E+000	-8.62713E-005	-2.40040E-001	2.15831E-001	3.57590E+000	9	...........
	79	1.06667	2.10728E-001	-3.98563E-004	0.00000E+000	-8.39885E-005	-2.40040E-001	2.10768E-001	3.57590E+000	9	...........
	80	1.08	2.05666E-001	-3.98878E-004	0.00000E+000	-8.20355E-005	-2.40040E-001	2.05698E-001	3.57590E+000	9	...........
	81	1.09333	2.00618E-001	-3.98947E-004	0.00000E+000	-8.00360E-005	-2.40040E-001	2.00657E-001	3.57590E+000	9	...........
	82	1.10667	1.95599E-001	-3.99740E-004	0.00000E+000	-7.81888E-005	-2.40040E-001	1.95632E-001	3.57590E+000	9	...........
	83	1.12	1.90677E-001	-4.00218E-004	0.00000E+000	-7.63125E-005	-2.40040E-001	1.90712E-001	3.57590E+000	9	...........
	84	1.13333	1.85773E-001	-3.98749E-004	0.00000E+000	-7.40767E-005	-2.40040E-001	1.85806E-001	3.57590E+000	9	...........
	85	1.14667	1.80852E-001	-3.98794E-004	0.00000E+000	-7.21228E-005	-2.40040E-001	1.80884E-001	3.57590E+000	9	...........
	86	1.16	1.76012E-001	-3.99937E-004	0.00000E+000	-7.03935E-005	-2.40040E-001	1.76046E-001	3.57590E+000	9	...........
	87	1.17333	1.71187E-001	-3.97992E-004	0.00000E+000	-6.81310E-005	-2.40040E-001	1.71221E-001	3.57590E+000	9	...........
	88	1.18667	1.66325E-001	-3.98351E-004	0.00000E+000	-6.62558E-005	-2.40040E-001	1.66354E-001	3.57590E+000	9	...........
	89	1.2	1.61536E-001	-3.97233E-004	0.00000E+000	-6.41676E-005	-2.40040E-001	1.61563E-001	3.57590E+000	9	...........
	90	1.21333	1.56804E-001	-3.98048E-004	0.00000E+000	-6.24154E-005	-2.40040E-001	1.56829E-001	3.57590E+000	9	...........
	91	1.22667	1.51994E-001	-3.99195E-004	0.00000E+000	-6.06751E-005	-2.40040E-001	1.52014E-001	3.57590E+000	9	...........
	92	1.24	1.47231E-001	-3.99672E-004	0.00000E+000	-5.88440E-005	-2.40040E-001	1.47254E-001	3.57590E+000	9	...........
	93	1.25333	1.42449E-001	-3.99439E-004	0.00000E+000	-5.68997E-005	-2.40040E-001	1.42472E-001	3.57590E+000	9	...........
	94	1.26667	1.37845E-001	-3.98915E-004	0.00000E+000	-5.49886E-005	-2.40040E-001	1.37869E-001	3.57590E+000	9	...........
	95	1.28	1.33255E-001	-3.98626E-004	0.00000E+000	-5.31189E-005	-2.40040E-001	1.33279E-001	3.57590E+000	9	...........
	96	1.29333	1.28601E-001	-3.99319E-004	0.00000E+000	-5.13529E-005	-2.40040E-001	1.28627E-001	3.57590E+000	9	...........
	97	1.30667	1.23959E-001	-3.99905E-004	0.00000E+000	-4.95721E-005	-2.40040E-001	1.23974E-001	3.57594E+000	9	...........
	98	1.32	1.19278E-001	-3.98606E-004	0.00000E+000	-4.75449E-005	-2.40040E-001	1.19300E-001	3.57600E+000	9	...........
	99	1.33333	1.14718E-001	-3.98155E-004	0.00000E+000	-4.56755E-005	-2.40040E-001	1.14740E-001	3.57600E+000	9	...........
	100	1.34667	1.10148E-001	-3.98794E-004	0.00000E+000	-4.39264E-005	-2.40040E-001	1.10162E-001	3.57600E+000	9	...........
	101	1.36	1.05631E-001	-3.98184E-004	0.00000E+000	-4.20607E-005	-2.40040E-001	1.05649E-001	3.57600E+000	9	...........
	102	1.37333	1.01085E-001	-3.99739E-004	0.00000E+000	-4.04077E-005	-2.40040E-001	1.01104E-001	3.57600E+000	9	...........
	103	1.38667	9.65859E-002	-3.99445E-004	0.00000E+000	-3.85808E-005	-2.40040E-001	9.66063E-002	3.57600E+000	9	...........
	104	1.4	9.19866E-002	-3.98395E-004	0.00000E+000	-3.66470E-005	-2.40040E-001	9.20012E-002	3.57600E+000	9	...........
	105	1.41333	8.74765E-002	-3.99081E-004	0.00000E+000	-3.49102E-005	-2.40040E-001	8.74933E-002	3.57600E+000	9	...........
	106	1.42667	8.30101E-002	-3.98984E-004	0.00000E+000	-3.31198E-005	-2.40040E-001	8.30220E-002	3.57600E+000	9	...........
	107	1.44	7.85481E-002	-3.99671E-004	0.00000E+000	-3.13934E-005	-2.40040E-001	7.85612E-002	3.57600E+000	9	...........
	108	1.45333	7.41111E-002	-4.00189E-004	0.00000E+000	-2.96584E-005	-2.40040E-001	7.41221E-002	3.57600E+000	9	...........
	109	1.46667	6.96565E-002	-3.98274E-004	0.00000E+000	-2.77424E-005	-2.40040E-001	6.96596E-002	3.57600E+000	9	...........
	110	1.48	6.52784E-002	-3.98280E-004	0.00000E+000	-2.59991E-005	-2.40040E-001	6.52809E-002	3.57600E+000	9	...........
	111	1.49333	6.09733E-002	-3.99861E-004	0.00000E+000	-2.43808E-005	-2.40040E-001	6.09786E-002	3.57600E+000	9	...........
	112	1.50667	5.65913E-002	-3.98717E-004	0.00000E+000	-2.25639E-005	-2.40040E-001	5.65925E-002	3.57600E+000	9	...........
	113	1.52	5.22045E-002	-3.97317E-004	0.00000E+000	-2.07418E-005	-2.40040E-001	5.22064E-002	3.57600E+000	9	...........
	114	1.53333	4.79782E-002	-4.00197E-004	0.00000E+000	-1.92007E-005	-2.40040E-001	4.79797E-002	3.57600E+000	9	...........
	115	1.54667	4.37535E-002	-3.99770E-004	0.00000E+000	-1.74913E-005	-2.40040E-001	4.37612E-002	3.57600E+000	9	...........
	116	1.56	3.95948E-002	-3.97981E-004	0.00000E+000	-1.57580E-005	-2.40040E-001	3.95959E-002	3.57600E+000	9	...........
	117	1.57333	3.52854E-002	-3.99002E-004	0.00000E+000	-1.40790E-005	-2.40040E-001	3.52907E-002	3.57600E+000	9	...........
	118	1.58667	3.10351E-002	-3.99108E-004	0.00000E+000	-1.23864E-005	-2.40040E-001	3.10316E-002	3.57600E+000	9	...........
	119	1.6	2.68449E-002	-3.99301E-004	0.00000E+000	-1.07192E-005	-2.40040E-001	2.68479E-002	3.57600E+000	9	...........
	120	1.61333	2.27094E-002	-3.99308E-004	0.00000E+000	-9.06804E-006	-2.40040E-001	2.27026E-002	3.57600E+000	9	...........
	121	1.62667	1.85559E-002	-3.98180E-004	0.00000E+000	-7.38858E-006	-2.40040E-001	1.85476E-002	3.57600E+000	9	...........
	122	1.64	1.43868E-002	-3.99295E-004	0.00000E+000	-5.74457E-006	-2.40040E-001	1.43779E-002	3.57600E+000	9	...........
	123	1.65333	1.02602E-002	-3.98924E-004	0.00000E+000	-4.09305E-006	-2.40040E-001	1.02446E-002	3.57600E+000	9	...........
	124	1.66667	6.17427E-003	-3.98437E-004	0.00000E+000	-2.46006E-006	-2.40040E-001	6.15975E-003	3.57600E+000	9	...........
	125	1.68	2.10428E-003	-4.00607E-004	0.00000E+000	-8.42990E-007	-2.40040E-001	2.08477E-003	3.57600E+000	9	...........
	126	1.68167	-1.40589E-004	-3.97548E-004	0.00000E+000	5.58910E-008	-2.40040E-001	-1.53663E-004	3.57600E+000	9	...........
STARTTIMEOFFSET	QUANT	537.48	Start Time Offset (s)
