EXPLAIN
TAG	PWR800_DISCHARGE
TITLE	LABEL	PWR Cyclic Charge Discharge (Cell) - Discharge Step	Test &Identifier
DATE	LABEL	12-7-2017	Date
TIME	LABEL	14:23:11	Time
NOTES	NOTES	3	&Notes...
	supercap test cell
	0.4mg
	6M KOH
PSTAT	PSTAT	IFC5000-01520	Potentiostat
CAPACITY	QUANT	1.00000E-003	Capacity (A-hr)
CELLTYPE	SELECTOR	1	&Cell Type
WORKINGCONNECTION	SELECTOR	0	&Working Lead
MAXDISCHARGETIME	VARIABLEANDUNITS	1.00000E+002	s	1.00000E+002	second(s)	Max &Discharge Time
DISCHARGEMODE	MULTIPARAM	0	4.00000E-004	&Discharge Mode	Constant Current	Amp(s)
SAMPLETIME	QUANT	1.00000E-002	Sa&mple Period (s)
DISCHARGESTOPAT1	MULTIPARAM	3	0.00000E+000	Discharge Stop At &1	Voltage < Limit	V
DISCHARGESTOPAT2	MULTIPARAM	0	0.00000E+000	Discharge Stop At &2	None	N/A
AESBHCSELECTOR	TOGGLE	F	Save Both Half Cells
IRCOMP	TOGGLE	F	IR &Measure
EOC	QUANT	0	Open Circuit (V)
SEQUENCER	TOGGLE	TRUE	Run as Sequence
PSTATMODEL	IQUANT	53	Pstat Model
PSTATSECTION	LABEL	IFC5000-01520	Pstat Section
PSTATSERIALNO	LABEL	01520	Pstat Serial Number
CTRLMODE	IQUANT	0	Control Mode
ELECTROMETER	IQUANT	1	RE=0 or CS=1
IESTAB	IQUANT	0	I/E Stability
CASPEED	IQUANT	4	Control Amp Speed
CONVENTION	IQUANT	1	Current Convention
ICHRANGE	IQUANT	2	Ich Range
ICHRANGEMODE	TOGGLE	T	Ich Auto Range
ICHOFFSETENABLE	TOGGLE	F	Ich Offset Enable
ICHOFFSET	QUANT	0	Ich Offset (V)
ICHFILTER	IQUANT	1	Ich Filter
VCHRANGE	IQUANT	2	Vch Range
VCHRANGEMODE	TOGGLE	T	Vch Auto Range
VCHOFFSETENABLE	TOGGLE	F	Vch Offset Enable
VCHOFFSET	QUANT	0	Vch Offset (V)
VCHFILTER	IQUANT	1	Vch Filter
IERANGELOWERLIMIT	IQUANT	9	I/E Range Lower Limit
IERANGEMODE	TOGGLE	F	I/E AutoRange
IERANGE	IQUANT	9	I/E Range
ACHSELECT	IQUANT	1	Ach Select
ACHRANGE	IQUANT	2	Ach Range
ACHOFFSETENABLE	TOGGLE	F	Ach Offset Enable
ACHOFFSET	QUANT	0	Ach Offset (V)
ACHFILTER	IQUANT	1	Ach Filter
CABLEID	IQUANT	14	Cable ID
DCCALDATE	LABEL	5-7-2017	DC Calibration Date
ACCALDATE	LABEL	12/3/2015	AC Calibration Date
FRAMEWORKVERSION	QUANT	7.01	Framework Version
INSTRUMENTVERSION	LABEL	4.00	Instrument Version
CURVE	TABLE	134
	Pt	T	Vf	Im	Vu	Pwr	Sig	Ach	Temp	IERange	Over
	#	s	V	A	V	W	V	V	deg C	#	bits
	0	0.013333	7.22697E-001	-3.98536E-004	0.00000E+000	-2.88021E-004	-2.40040E-001	7.22929E-001	3.57660E+000	9	...........
	1	0.026667	7.11985E-001	-3.98893E-004	0.00000E+000	-2.84005E-004	-2.40040E-001	7.12218E-001	3.57660E+000	9	...........
	2	0.04	7.02495E-001	-3.98075E-004	0.00000E+000	-2.79645E-004	-2.40040E-001	7.02705E-001	3.57660E+000	9	...........
	3	0.053333	6.93700E-001	-3.98470E-004	0.00000E+000	-2.76419E-004	-2.40040E-001	6.93915E-001	3.57660E+000	9	...........
	4	0.066667	6.85355E-001	-3.97985E-004	0.00000E+000	-2.72761E-004	-2.40040E-001	6.85553E-001	3.57660E+000	9	...........
	5	0.08	6.77389E-001	-3.99424E-004	0.00000E+000	-2.70566E-004	-2.40040E-001	6.77559E-001	3.57660E+000	9	...........
	6	0.093333	6.69669E-001	-3.99314E-004	0.00000E+000	-2.67408E-004	-2.40040E-001	6.69847E-001	3.57660E+000	9	...........
	7	0.106667	6.62087E-001	-3.97237E-004	0.00000E+000	-2.63006E-004	-2.40040E-001	6.62280E-001	3.57660E+000	9	...........
	8	0.12	6.54610E-001	-3.99284E-004	0.00000E+000	-2.61375E-004	-2.40040E-001	6.54828E-001	3.57660E+000	9	...........
	9	0.133333	6.47272E-001	-3.99175E-004	0.00000E+000	-2.58375E-004	-2.40040E-001	6.47489E-001	3.57646E+000	9	...........
	10	0.146667	6.40091E-001	-3.98295E-004	0.00000E+000	-2.54945E-004	-2.40040E-001	6.40284E-001	3.57570E+000	9	...........
	11	0.16	6.32957E-001	-3.99168E-004	0.00000E+000	-2.52656E-004	-2.40040E-001	6.33156E-001	3.57570E+000	9	...........
	12	0.173333	6.25997E-001	-3.99081E-004	0.00000E+000	-2.49823E-004	-2.40040E-001	6.26179E-001	3.57570E+000	9	...........
	13	0.186667	6.19001E-001	-4.00091E-004	0.00000E+000	-2.47657E-004	-2.40040E-001	6.19192E-001	3.57570E+000	9	...........
	14	0.2	6.12165E-001	-3.99790E-004	0.00000E+000	-2.44737E-004	-2.40040E-001	6.12414E-001	3.57570E+000	9	...........
	15	0.213333	6.05370E-001	-3.98807E-004	0.00000E+000	-2.41426E-004	-2.40040E-001	6.05642E-001	3.57570E+000	9	...........
	16	0.226667	5.98633E-001	-3.98171E-004	0.00000E+000	-2.38358E-004	-2.40040E-001	5.98852E-001	3.57570E+000	9	...........
	17	0.24	5.91989E-001	-3.98109E-004	0.00000E+000	-2.35676E-004	-2.40040E-001	5.92215E-001	3.57570E+000	9	...........
	18	0.253333	5.85324E-001	-4.00673E-004	0.00000E+000	-2.34524E-004	-2.40040E-001	5.85545E-001	3.57570E+000	9	...........
	19	0.266667	5.78690E-001	-3.99124E-004	0.00000E+000	-2.30969E-004	-2.40040E-001	5.78908E-001	3.57570E+000	9	...........
	20	0.28	5.72160E-001	-3.98858E-004	0.00000E+000	-2.28211E-004	-2.40040E-001	5.72347E-001	3.57570E+000	9	...........
	21	0.293333	5.65691E-001	-3.98515E-004	0.00000E+000	-2.25436E-004	-2.40040E-001	5.65921E-001	3.57570E+000	9	...........
	22	0.306667	5.59199E-001	-3.97157E-004	0.00000E+000	-2.22090E-004	-2.40040E-001	5.59446E-001	3.57570E+000	9	...........
	23	0.32	5.52747E-001	-3.98710E-004	0.00000E+000	-2.20386E-004	-2.40040E-001	5.52962E-001	3.57570E+000	9	...........
	24	0.333333	5.46381E-001	-3.98494E-004	0.00000E+000	-2.17729E-004	-2.40040E-001	5.46575E-001	3.57570E+000	9	...........
	25	0.346667	5.39918E-001	-3.98613E-004	0.00000E+000	-2.15219E-004	-2.40040E-001	5.40129E-001	3.57570E+000	9	...........
	26	0.36	5.33531E-001	-3.98719E-004	0.00000E+000	-2.12729E-004	-2.40040E-001	5.33716E-001	3.57570E+000	9	...........
	27	0.373333	5.27259E-001	-3.99222E-004	0.00000E+000	-2.10493E-004	-2.40040E-001	5.27464E-001	3.57570E+000	9	...........
	28	0.386667	5.21066E-001	-3.99258E-004	0.00000E+000	-2.08040E-004	-2.40040E-001	5.21245E-001	3.57570E+000	9	...........
	29	0.4	5.14884E-001	-3.99438E-004	0.00000E+000	-2.05664E-004	-2.40040E-001	5.15089E-001	3.57570E+000	9	...........
	30	0.413333	5.08758E-001	-3.99466E-004	0.00000E+000	-2.03231E-004	-2.40040E-001	5.08983E-001	3.57570E+000	9	...........
	31	0.426667	5.02548E-001	-4.00170E-004	0.00000E+000	-2.01105E-004	-2.40040E-001	5.02794E-001	3.57570E+000	9	...........
	32	0.44	4.96385E-001	-4.00085E-004	0.00000E+000	-1.98596E-004	-2.40040E-001	4.96580E-001	3.57570E+000	9	...........
	33	0.453333	4.90330E-001	-3.98814E-004	0.00000E+000	-1.95550E-004	-2.40040E-001	4.90518E-001	3.57570E+000	9	...........
	34	0.466667	4.84438E-001	-3.99252E-004	0.00000E+000	-1.93413E-004	-2.40040E-001	4.84554E-001	3.57570E+000	9	...........
	35	0.48	4.78485E-001	-3.98692E-004	0.00000E+000	-1.90768E-004	-2.40040E-001	4.78582E-001	3.57570E+000	9	...........
	36	0.493333	4.72340E-001	-3.97486E-004	0.00000E+000	-1.87749E-004	-2.40040E-001	4.72429E-001	3.57570E+000	9	...........
	37	0.506667	4.66297E-001	-3.98842E-004	0.00000E+000	-1.85979E-004	-2.40040E-001	4.66390E-001	3.57570E+000	9	...........
	38	0.52	4.60388E-001	-3.98276E-004	0.00000E+000	-1.83361E-004	-2.40040E-001	4.60480E-001	3.57570E+000	9	...........
	39	0.533333	4.54383E-001	-3.99301E-004	0.00000E+000	-1.81436E-004	-2.40040E-001	4.54480E-001	3.57570E+000	9	...........
	40	0.546667	4.48421E-001	-3.98251E-004	0.00000E+000	-1.78584E-004	-2.40040E-001	4.48509E-001	3.57570E+000	9	...........
	41	0.56	4.42532E-001	-3.98592E-004	0.00000E+000	-1.76390E-004	-2.40040E-001	4.42626E-001	3.57570E+000	9	...........
	42	0.573333	4.36691E-001	-3.99381E-004	0.00000E+000	-1.74406E-004	-2.40040E-001	4.36783E-001	3.57570E+000	9	...........
	43	0.586667	4.30838E-001	-3.99292E-004	0.00000E+000	-1.72030E-004	-2.40040E-001	4.30928E-001	3.57570E+000	9	...........
	44	0.6	4.25008E-001	-3.98810E-004	0.00000E+000	-1.69498E-004	-2.40040E-001	4.25098E-001	3.57570E+000	9	...........
	45	0.613333	4.19287E-001	-3.97824E-004	0.00000E+000	-1.66802E-004	-2.40040E-001	4.19371E-001	3.57570E+000	9	...........
	46	0.626667	4.13580E-001	-3.99330E-004	0.00000E+000	-1.65155E-004	-2.40040E-001	4.13663E-001	3.57570E+000	9	...........
	47	0.64	4.07836E-001	-3.98758E-004	0.00000E+000	-1.62628E-004	-2.40040E-001	4.07913E-001	3.57570E+000	9	...........
	48	0.653333	4.02182E-001	-3.98024E-004	0.00000E+000	-1.60078E-004	-2.40040E-001	4.02256E-001	3.57570E+000	9	...........
	49	0.666667	3.96571E-001	-3.98647E-004	0.00000E+000	-1.58092E-004	-2.40040E-001	3.96646E-001	3.57570E+000	9	...........
	50	0.68	3.90931E-001	-3.99127E-004	0.00000E+000	-1.56031E-004	-2.40040E-001	3.91006E-001	3.57570E+000	9	...........
	51	0.693333	3.85319E-001	-3.97930E-004	0.00000E+000	-1.53330E-004	-2.40040E-001	3.85390E-001	3.57570E+000	9	...........
	52	0.706667	3.79678E-001	-3.99063E-004	0.00000E+000	-1.51515E-004	-2.40040E-001	3.79756E-001	3.57570E+000	9	...........
	53	0.72	3.74142E-001	-3.98143E-004	0.00000E+000	-1.48962E-004	-2.40040E-001	3.74214E-001	3.57570E+000	9	...........
	54	0.733333	3.68606E-001	-3.98098E-004	0.00000E+000	-1.46741E-004	-2.40040E-001	3.68679E-001	3.57570E+000	9	...........
	55	0.746667	3.63151E-001	-4.00345E-004	0.00000E+000	-1.45386E-004	-2.40040E-001	3.63221E-001	3.57570E+000	9	...........
	56	0.76	3.57696E-001	-3.98945E-004	0.00000E+000	-1.42701E-004	-2.40040E-001	3.57770E-001	3.57570E+000	9	...........
	57	0.773333	3.52226E-001	-3.98617E-004	0.00000E+000	-1.40403E-004	-2.40040E-001	3.52290E-001	3.57570E+000	9	...........
	58	0.786667	3.46789E-001	-3.97265E-004	0.00000E+000	-1.37767E-004	-2.40040E-001	3.46859E-001	3.57570E+000	9	...........
	59	0.8	3.41468E-001	-3.98196E-004	0.00000E+000	-1.35971E-004	-2.40040E-001	3.41535E-001	3.57570E+000	9	...........
	60	0.813333	3.36139E-001	-3.97663E-004	0.00000E+000	-1.33670E-004	-2.40040E-001	3.36202E-001	3.57570E+000	9	...........
	61	0.826667	3.30721E-001	-3.98644E-004	0.00000E+000	-1.31840E-004	-2.40040E-001	3.30786E-001	3.57570E+000	9	...........
	62	0.84	3.25406E-001	-3.99370E-004	0.00000E+000	-1.29958E-004	-2.40040E-001	3.25475E-001	3.57570E+000	9	...........
	63	0.853333	3.20090E-001	-3.97766E-004	0.00000E+000	-1.27321E-004	-2.40040E-001	3.20147E-001	3.57570E+000	9	...........
	64	0.866667	3.14736E-001	-3.98429E-004	0.00000E+000	-1.25400E-004	-2.40040E-001	3.14798E-001	3.57570E+000	9	...........
	65	0.88	3.09498E-001	-3.98947E-004	0.00000E+000	-1.23473E-004	-2.40040E-001	3.09552E-001	3.57570E+000	9	...........
	66	0.893333	3.04232E-001	-3.99675E-004	0.00000E+000	-1.21594E-004	-2.40040E-001	3.04292E-001	3.57570E+000	9	...........
	67	0.906667	2.98990E-001	-3.98397E-004	0.00000E+000	-1.19116E-004	-2.40040E-001	2.99041E-001	3.57570E+000	9	...........
	68	0.92	2.93836E-001	-3.99575E-004	0.00000E+000	-1.17410E-004	-2.40040E-001	2.93887E-001	3.57570E+000	9	...........
	69	0.933333	2.88578E-001	-3.98809E-004	0.00000E+000	-1.15088E-004	-2.40040E-001	2.88636E-001	3.57570E+000	9	...........
	70	0.946667	2.83445E-001	-3.98884E-004	0.00000E+000	-1.13062E-004	-2.40040E-001	2.83504E-001	3.57570E+000	9	...........
	71	0.96	2.78365E-001	-3.98957E-004	0.00000E+000	-1.11056E-004	-2.40040E-001	2.78423E-001	3.57570E+000	9	...........
	72	0.97333	2.73238E-001	-3.97959E-004	0.00000E+000	-1.08738E-004	-2.40040E-001	2.73294E-001	3.57570E+000	9	...........
	73	0.98667	2.68167E-001	-3.99297E-004	0.00000E+000	-1.07078E-004	-2.40040E-001	2.68220E-001	3.57570E+000	9	...........
	74	1	2.63129E-001	-3.97954E-004	0.00000E+000	-1.04713E-004	-2.40040E-001	2.63183E-001	3.57570E+000	9	...........
	75	1.01333	2.58067E-001	-3.99197E-004	0.00000E+000	-1.03020E-004	-2.40040E-001	2.58110E-001	3.57570E+000	9	...........
	76	1.02667	2.53022E-001	-4.00747E-004	0.00000E+000	-1.01398E-004	-2.40040E-001	2.53067E-001	3.57570E+000	9	...........
	77	1.04	2.48035E-001	-3.99294E-004	0.00000E+000	-9.90387E-005	-2.40040E-001	2.48079E-001	3.57570E+000	9	...........
	78	1.05333	2.43157E-001	-3.97763E-004	0.00000E+000	-9.67190E-005	-2.40040E-001	2.43198E-001	3.57570E+000	9	...........
	79	1.06667	2.38250E-001	-3.98638E-004	0.00000E+000	-9.49757E-005	-2.40040E-001	2.38292E-001	3.57570E+000	9	...........
	80	1.08	2.33361E-001	-3.99253E-004	0.00000E+000	-9.31701E-005	-2.40040E-001	2.33405E-001	3.57570E+000	9	...........
	81	1.09333	2.28521E-001	-3.99630E-004	0.00000E+000	-9.13240E-005	-2.40040E-001	2.28561E-001	3.57570E+000	9	...........
	82	1.10667	2.23707E-001	-3.98478E-004	0.00000E+000	-8.91424E-005	-2.40040E-001	2.23750E-001	3.57570E+000	9	...........
	83	1.12	2.18937E-001	-3.97809E-004	0.00000E+000	-8.70952E-005	-2.40040E-001	2.18980E-001	3.57570E+000	9	...........
	84	1.13333	2.14028E-001	-3.98901E-004	0.00000E+000	-8.53760E-005	-2.40040E-001	2.14066E-001	3.57572E+000	9	...........
	85	1.14667	2.09200E-001	-3.98814E-004	0.00000E+000	-8.34317E-005	-2.40040E-001	2.09244E-001	3.57580E+000	9	...........
	86	1.16	2.04401E-001	-3.98881E-004	0.00000E+000	-8.15317E-005	-2.40040E-001	2.04443E-001	3.57580E+000	9	...........
	87	1.17333	1.99644E-001	-3.97711E-004	0.00000E+000	-7.94006E-005	-2.40040E-001	1.99685E-001	3.57580E+000	9	...........
	88	1.18667	1.94906E-001	-3.98757E-004	0.00000E+000	-7.77201E-005	-2.40040E-001	1.94943E-001	3.57580E+000	9	...........
	89	1.2	1.90194E-001	-3.98150E-004	0.00000E+000	-7.57255E-005	-2.40040E-001	1.90233E-001	3.57580E+000	9	...........
	90	1.21333	1.85482E-001	-3.98065E-004	0.00000E+000	-7.38339E-005	-2.40040E-001	1.85517E-001	3.57580E+000	9	...........
	91	1.22667	1.80730E-001	-3.98433E-004	0.00000E+000	-7.20087E-005	-2.40040E-001	1.80765E-001	3.57580E+000	9	...........
	92	1.24	1.76110E-001	-3.98742E-004	0.00000E+000	-7.02225E-005	-2.40040E-001	1.76143E-001	3.57580E+000	9	...........
	93	1.25333	1.71510E-001	-3.99450E-004	0.00000E+000	-6.85095E-005	-2.40040E-001	1.71537E-001	3.57580E+000	9	...........
	94	1.26667	1.66954E-001	-3.99405E-004	0.00000E+000	-6.66824E-005	-2.40040E-001	1.66985E-001	3.57580E+000	9	...........
	95	1.28	1.62361E-001	-3.99467E-004	0.00000E+000	-6.48578E-005	-2.40040E-001	1.62391E-001	3.57580E+000	9	...........
	96	1.29333	1.57785E-001	-3.98064E-004	0.00000E+000	-6.28085E-005	-2.40040E-001	1.57815E-001	3.57580E+000	9	...........
	97	1.30667	1.53294E-001	-3.98289E-004	0.00000E+000	-6.10552E-005	-2.40040E-001	1.53318E-001	3.57580E+000	9	...........
	98	1.32	1.48711E-001	-3.99418E-004	0.00000E+000	-5.93977E-005	-2.40040E-001	1.48741E-001	3.57580E+000	9	...........
	99	1.33333	1.44209E-001	-3.99010E-004	0.00000E+000	-5.75409E-005	-2.40040E-001	1.44230E-001	3.57580E+000	9	...........
	100	1.34667	1.39629E-001	-3.97884E-004	0.00000E+000	-5.55562E-005	-2.40040E-001	1.39652E-001	3.57580E+000	9	...........
	101	1.36	1.35190E-001	-3.98136E-004	0.00000E+000	-5.38240E-005	-2.40040E-001	1.35214E-001	3.57580E+000	9	...........
	102	1.37333	1.30752E-001	-3.98061E-004	0.00000E+000	-5.20473E-005	-2.40040E-001	1.30774E-001	3.57580E+000	9	...........
	103	1.38667	1.26362E-001	-3.98808E-004	0.00000E+000	-5.03944E-005	-2.40040E-001	1.26379E-001	3.57580E+000	9	...........
	104	1.4	1.21894E-001	-3.99800E-004	0.00000E+000	-4.87331E-005	-2.40040E-001	1.21910E-001	3.57580E+000	9	...........
	105	1.41333	1.17414E-001	-3.99655E-004	0.00000E+000	-4.69251E-005	-2.40040E-001	1.17439E-001	3.57580E+000	9	...........
	106	1.42667	1.13081E-001	-3.99358E-004	0.00000E+000	-4.51600E-005	-2.40040E-001	1.13106E-001	3.57580E+000	9	...........
	107	1.44	1.08736E-001	-3.98317E-004	0.00000E+000	-4.33112E-005	-2.40040E-001	1.08753E-001	3.57580E+000	9	...........
	108	1.45333	1.04304E-001	-3.98521E-004	0.00000E+000	-4.15675E-005	-2.40040E-001	1.04318E-001	3.57580E+000	9	...........
	109	1.46667	9.99212E-002	-3.97272E-004	0.00000E+000	-3.96958E-005	-2.40040E-001	9.99437E-002	3.57580E+000	9	...........
	110	1.48	9.55233E-002	-3.98546E-004	0.00000E+000	-3.80704E-005	-2.40040E-001	9.55413E-002	3.57580E+000	9	...........
	111	1.49333	9.12301E-002	-3.99263E-004	0.00000E+000	-3.64247E-005	-2.40040E-001	9.12459E-002	3.57580E+000	9	...........
	112	1.50667	8.69677E-002	-3.98877E-004	0.00000E+000	-3.46894E-005	-2.40040E-001	8.69845E-002	3.57580E+000	9	...........
	113	1.52	8.27488E-002	-3.98413E-004	0.00000E+000	-3.29683E-005	-2.40040E-001	8.27699E-002	3.57580E+000	9	...........
	114	1.53333	7.86057E-002	-3.99773E-004	0.00000E+000	-3.14244E-005	-2.40040E-001	7.86187E-002	3.57580E+000	9	...........
	115	1.54667	7.44491E-002	-3.97488E-004	0.00000E+000	-2.95927E-005	-2.40040E-001	7.44586E-002	3.57580E+000	9	...........
	116	1.56	7.02535E-002	-3.99759E-004	0.00000E+000	-2.80845E-005	-2.40040E-001	7.02620E-002	3.57580E+000	9	...........
	117	1.57333	6.59872E-002	-3.99386E-004	0.00000E+000	-2.63543E-005	-2.40040E-001	6.59964E-002	3.57580E+000	9	...........
	118	1.58667	6.17863E-002	-3.99199E-004	0.00000E+000	-2.46650E-005	-2.40040E-001	6.17941E-002	3.57580E+000	9	...........
	119	1.6	5.76621E-002	-3.98426E-004	0.00000E+000	-2.29741E-005	-2.40040E-001	5.76676E-002	3.57580E+000	9	...........
	120	1.61333	5.36014E-002	-4.00035E-004	0.00000E+000	-2.14424E-005	-2.40040E-001	5.36119E-002	3.57580E+000	9	...........
	121	1.62667	4.95216E-002	-3.98082E-004	0.00000E+000	-1.97137E-005	-2.40040E-001	4.95266E-002	3.57580E+000	9	...........
	122	1.64	4.54656E-002	-3.97511E-004	0.00000E+000	-1.80731E-005	-2.40040E-001	4.54757E-002	3.57580E+000	9	...........
	123	1.65333	4.13474E-002	-3.99638E-004	0.00000E+000	-1.65240E-005	-2.40040E-001	4.13597E-002	3.57580E+000	9	...........
	124	1.66667	3.72163E-002	-3.98273E-004	0.00000E+000	-1.48223E-005	-2.40040E-001	3.72195E-002	3.57580E+000	9	...........
	125	1.68	3.31505E-002	-3.97937E-004	0.00000E+000	-1.31918E-005	-2.40040E-001	3.31515E-002	3.57580E+000	9	...........
	126	1.69333	2.90772E-002	-3.99279E-004	0.00000E+000	-1.16099E-005	-2.40040E-001	2.90784E-002	3.57580E+000	9	...........
	127	1.70667	2.51999E-002	-3.97878E-004	0.00000E+000	-1.00265E-005	-2.40040E-001	2.52011E-002	3.57580E+000	9	...........
	128	1.72	2.12547E-002	-3.99451E-004	0.00000E+000	-8.49023E-006	-2.40040E-001	2.12463E-002	3.57580E+000	9	...........
	129	1.73333	1.71671E-002	-3.97729E-004	0.00000E+000	-6.82786E-006	-2.40040E-001	1.71589E-002	3.57580E+000	9	...........
	130	1.74667	1.32954E-002	-3.97067E-004	0.00000E+000	-5.27916E-006	-2.40040E-001	1.32811E-002	3.57580E+000	9	...........
	131	1.76	9.28077E-003	-3.98309E-004	0.00000E+000	-3.69662E-006	-2.40040E-001	9.26884E-003	3.57580E+000	9	...........
	132	1.77333	5.29062E-003	-3.98582E-004	0.00000E+000	-2.10875E-006	-2.40040E-001	5.27923E-003	3.57580E+000	9	...........
	133	1.78667	1.38980E-003	-3.97689E-004	0.00000E+000	-5.52707E-007	-2.40040E-001	1.37140E-003	3.57580E+000	9	...........
STARTTIMEOFFSET	QUANT	219.7	Start Time Offset (s)
