EXPLAIN
TAG	PWR800_DISCHARGE
TITLE	LABEL	PWR Cyclic Charge Discharge (Cell) - Discharge Step	Test &Identifier
DATE	LABEL	12-7-2017	Date
TIME	LABEL	14:38:15	Time
NOTES	NOTES	3	&Notes...
	supercap test cell
	0.4mg
	6M KOH
PSTAT	PSTAT	IFC5000-01520	Potentiostat
CAPACITY	QUANT	1.00000E-003	Capacity (A-hr)
CELLTYPE	SELECTOR	1	&Cell Type
WORKINGCONNECTION	SELECTOR	0	&Working Lead
MAXDISCHARGETIME	VARIABLEANDUNITS	1.00000E+002	s	1.00000E+002	second(s)	Max &Discharge Time
DISCHARGEMODE	MULTIPARAM	0	4.00000E-004	&Discharge Mode	Constant Current	Amp(s)
SAMPLETIME	QUANT	1.00000E-002	Sa&mple Period (s)
DISCHARGESTOPAT1	MULTIPARAM	3	0.00000E+000	Discharge Stop At &1	Voltage < Limit	V
DISCHARGESTOPAT2	MULTIPARAM	0	0.00000E+000	Discharge Stop At &2	None	N/A
AESBHCSELECTOR	TOGGLE	F	Save Both Half Cells
IRCOMP	TOGGLE	F	IR &Measure
EOC	QUANT	0	Open Circuit (V)
SEQUENCER	TOGGLE	TRUE	Run as Sequence
PSTATMODEL	IQUANT	53	Pstat Model
PSTATSECTION	LABEL	IFC5000-01520	Pstat Section
PSTATSERIALNO	LABEL	01520	Pstat Serial Number
CTRLMODE	IQUANT	0	Control Mode
ELECTROMETER	IQUANT	1	RE=0 or CS=1
IESTAB	IQUANT	0	I/E Stability
CASPEED	IQUANT	4	Control Amp Speed
CONVENTION	IQUANT	1	Current Convention
ICHRANGE	IQUANT	2	Ich Range
ICHRANGEMODE	TOGGLE	T	Ich Auto Range
ICHOFFSETENABLE	TOGGLE	F	Ich Offset Enable
ICHOFFSET	QUANT	0	Ich Offset (V)
ICHFILTER	IQUANT	1	Ich Filter
VCHRANGE	IQUANT	2	Vch Range
VCHRANGEMODE	TOGGLE	T	Vch Auto Range
VCHOFFSETENABLE	TOGGLE	F	Vch Offset Enable
VCHOFFSET	QUANT	0	Vch Offset (V)
VCHFILTER	IQUANT	1	Vch Filter
IERANGELOWERLIMIT	IQUANT	9	I/E Range Lower Limit
IERANGEMODE	TOGGLE	F	I/E AutoRange
IERANGE	IQUANT	9	I/E Range
ACHSELECT	IQUANT	1	Ach Select
ACHRANGE	IQUANT	2	Ach Range
ACHOFFSETENABLE	TOGGLE	F	Ach Offset Enable
ACHOFFSET	QUANT	0	Ach Offset (V)
ACHFILTER	IQUANT	1	Ach Filter
CABLEID	IQUANT	14	Cable ID
DCCALDATE	LABEL	5-7-2017	DC Calibration Date
ACCALDATE	LABEL	12/3/2015	AC Calibration Date
FRAMEWORKVERSION	QUANT	7.01	Framework Version
INSTRUMENTVERSION	LABEL	4.00	Instrument Version
CURVE	TABLE	120
	Pt	T	Vf	Im	Vu	Pwr	Sig	Ach	Temp	IERange	Over
	#	s	V	A	V	W	V	V	deg C	#	bits
	0	0.013333	7.10013E-001	-3.98031E-004	0.00000E+000	-2.82607E-004	-2.40040E-001	7.10236E-001	3.57600E+000	9	...........
	1	0.026667	6.98199E-001	-3.99071E-004	0.00000E+000	-2.78631E-004	-2.40040E-001	6.98408E-001	3.57600E+000	9	...........
	2	0.04	6.87776E-001	-3.98088E-004	0.00000E+000	-2.73795E-004	-2.40040E-001	6.87962E-001	3.57600E+000	9	...........
	3	0.053333	6.78205E-001	-3.99045E-004	0.00000E+000	-2.70634E-004	-2.40040E-001	6.78384E-001	3.57600E+000	9	...........
	4	0.066667	6.69129E-001	-3.99244E-004	0.00000E+000	-2.67146E-004	-2.40040E-001	6.69337E-001	3.57600E+000	9	...........
	5	0.08	6.60370E-001	-4.00001E-004	0.00000E+000	-2.64149E-004	-2.40040E-001	6.60589E-001	3.57600E+000	9	...........
	6	0.093333	6.51872E-001	-3.99174E-004	0.00000E+000	-2.60211E-004	-2.40040E-001	6.52077E-001	3.57600E+000	9	...........
	7	0.106667	6.43641E-001	-4.00097E-004	0.00000E+000	-2.57519E-004	-2.40040E-001	6.43848E-001	3.57600E+000	9	...........
	8	0.12	6.35498E-001	-3.98879E-004	0.00000E+000	-2.53487E-004	-2.40040E-001	6.35713E-001	3.57600E+000	9	...........
	9	0.133333	6.27578E-001	-3.97788E-004	0.00000E+000	-2.49643E-004	-2.40040E-001	6.27789E-001	3.57600E+000	9	...........
	10	0.146667	6.19780E-001	-3.97342E-004	0.00000E+000	-2.46265E-004	-2.40040E-001	6.20006E-001	3.57600E+000	9	...........
	11	0.16	6.12043E-001	-3.98617E-004	0.00000E+000	-2.43970E-004	-2.40040E-001	6.12296E-001	3.57600E+000	9	...........
	12	0.173333	6.04421E-001	-3.99064E-004	0.00000E+000	-2.41202E-004	-2.40040E-001	6.04680E-001	3.57600E+000	9	...........
	13	0.186667	5.96918E-001	-3.98139E-004	0.00000E+000	-2.37657E-004	-2.40040E-001	5.97131E-001	3.57600E+000	9	...........
	14	0.2	5.89499E-001	-3.97909E-004	0.00000E+000	-2.34567E-004	-2.40040E-001	5.89742E-001	3.57600E+000	9	...........
	15	0.213333	5.82000E-001	-3.99016E-004	0.00000E+000	-2.32227E-004	-2.40040E-001	5.82230E-001	3.57600E+000	9	...........
	16	0.226667	5.74651E-001	-3.98602E-004	0.00000E+000	-2.29057E-004	-2.40040E-001	5.74866E-001	3.57600E+000	9	...........
	17	0.24	5.67415E-001	-3.99268E-004	0.00000E+000	-2.26550E-004	-2.40040E-001	5.67600E-001	3.57600E+000	9	...........
	18	0.253333	5.60127E-001	-3.98320E-004	0.00000E+000	-2.23110E-004	-2.40040E-001	5.60340E-001	3.57600E+000	9	...........
	19	0.266667	5.52886E-001	-3.97458E-004	0.00000E+000	-2.19749E-004	-2.40040E-001	5.53104E-001	3.57600E+000	9	...........
	20	0.28	5.45653E-001	-3.98540E-004	0.00000E+000	-2.17464E-004	-2.40040E-001	5.45831E-001	3.57600E+000	9	...........
	21	0.293333	5.38518E-001	-3.99122E-004	0.00000E+000	-2.14934E-004	-2.40040E-001	5.38729E-001	3.57600E+000	9	...........
	22	0.306667	5.31383E-001	-3.98773E-004	0.00000E+000	-2.11901E-004	-2.40040E-001	5.31576E-001	3.57600E+000	9	...........
	23	0.32	5.24338E-001	-3.98651E-004	0.00000E+000	-2.09028E-004	-2.40040E-001	5.24535E-001	3.57600E+000	9	...........
	24	0.333333	5.17358E-001	-3.98237E-004	0.00000E+000	-2.06031E-004	-2.40040E-001	5.17576E-001	3.57600E+000	9	...........
	25	0.346667	5.10428E-001	-3.98968E-004	0.00000E+000	-2.03644E-004	-2.40040E-001	5.10613E-001	3.57600E+000	9	...........
	26	0.36	5.03414E-001	-3.98296E-004	0.00000E+000	-2.00508E-004	-2.40040E-001	5.03618E-001	3.57600E+000	9	...........
	27	0.373333	4.96594E-001	-3.98660E-004	0.00000E+000	-1.97972E-004	-2.40040E-001	4.96786E-001	3.57600E+000	9	...........
	28	0.386667	4.89760E-001	-3.99082E-004	0.00000E+000	-1.95455E-004	-2.40040E-001	4.89943E-001	3.57600E+000	9	...........
	29	0.4	4.83188E-001	-3.99619E-004	0.00000E+000	-1.93091E-004	-2.40040E-001	4.83280E-001	3.57600E+000	9	...........
	30	0.413333	4.76527E-001	-3.99131E-004	0.00000E+000	-1.90197E-004	-2.40040E-001	4.76627E-001	3.57600E+000	9	...........
	31	0.426667	4.69867E-001	-3.97518E-004	0.00000E+000	-1.86781E-004	-2.40040E-001	4.69965E-001	3.57600E+000	9	...........
	32	0.44	4.63116E-001	-3.99829E-004	0.00000E+000	-1.85167E-004	-2.40040E-001	4.63205E-001	3.57600E+000	9	...........
	33	0.453333	4.56459E-001	-3.98285E-004	0.00000E+000	-1.81801E-004	-2.40040E-001	4.56554E-001	3.57600E+000	9	...........
	34	0.466667	4.49844E-001	-3.98927E-004	0.00000E+000	-1.79455E-004	-2.40040E-001	4.49939E-001	3.57600E+000	9	...........
	35	0.48	4.43295E-001	-3.98610E-004	0.00000E+000	-1.76702E-004	-2.40040E-001	4.43386E-001	3.57600E+000	9	...........
	36	0.493333	4.36740E-001	-4.00326E-004	0.00000E+000	-1.74838E-004	-2.40040E-001	4.36830E-001	3.57600E+000	9	...........
	37	0.506667	4.30158E-001	-3.97421E-004	0.00000E+000	-1.70954E-004	-2.40040E-001	4.30248E-001	3.57620E+000	9	...........
	38	0.52	4.23604E-001	-3.98225E-004	0.00000E+000	-1.68690E-004	-2.40040E-001	4.23690E-001	3.57620E+000	9	...........
	39	0.533333	4.17251E-001	-3.99277E-004	0.00000E+000	-1.66599E-004	-2.40040E-001	4.17335E-001	3.57620E+000	9	...........
	40	0.546667	4.10842E-001	-3.98672E-004	0.00000E+000	-1.63791E-004	-2.40040E-001	4.10921E-001	3.57620E+000	9	...........
	41	0.56	4.04468E-001	-3.98866E-004	0.00000E+000	-1.61328E-004	-2.40040E-001	4.04543E-001	3.57620E+000	9	...........
	42	0.573333	3.98169E-001	-3.98707E-004	0.00000E+000	-1.58753E-004	-2.40040E-001	3.98242E-001	3.57620E+000	9	...........
	43	0.586667	3.91884E-001	-3.98612E-004	0.00000E+000	-1.56210E-004	-2.40040E-001	3.91955E-001	3.57620E+000	9	...........
	44	0.6	3.85661E-001	-3.98245E-004	0.00000E+000	-1.53587E-004	-2.40040E-001	3.85738E-001	3.57620E+000	9	...........
	45	0.613333	3.79494E-001	-3.99018E-004	0.00000E+000	-1.51425E-004	-2.40040E-001	3.79570E-001	3.57620E+000	9	...........
	46	0.626667	3.73326E-001	-3.98566E-004	0.00000E+000	-1.48795E-004	-2.40040E-001	3.73395E-001	3.57620E+000	9	...........
	47	0.64	3.67189E-001	-3.98084E-004	0.00000E+000	-1.46172E-004	-2.40040E-001	3.67265E-001	3.57620E+000	9	...........
	48	0.653333	3.61038E-001	-3.98966E-004	0.00000E+000	-1.44042E-004	-2.40040E-001	3.61107E-001	3.57620E+000	9	...........
	49	0.666667	3.54945E-001	-3.99153E-004	0.00000E+000	-1.41678E-004	-2.40040E-001	3.55014E-001	3.57620E+000	9	...........
	50	0.68	3.48847E-001	-3.98706E-004	0.00000E+000	-1.39088E-004	-2.40040E-001	3.48915E-001	3.57620E+000	9	...........
	51	0.693333	3.42824E-001	-3.98370E-004	0.00000E+000	-1.36571E-004	-2.40040E-001	3.42888E-001	3.57620E+000	9	...........
	52	0.706667	3.36821E-001	-4.00727E-004	0.00000E+000	-1.34973E-004	-2.40040E-001	3.36887E-001	3.57620E+000	9	...........
	53	0.72	3.30873E-001	-3.98383E-004	0.00000E+000	-1.31814E-004	-2.40040E-001	3.30936E-001	3.57620E+000	9	...........
	54	0.733333	3.24959E-001	-3.98456E-004	0.00000E+000	-1.29482E-004	-2.40040E-001	3.25027E-001	3.57620E+000	9	...........
	55	0.746667	3.19136E-001	-3.99023E-004	0.00000E+000	-1.27343E-004	-2.40040E-001	3.19201E-001	3.57620E+000	9	...........
	56	0.76	3.13267E-001	-4.00113E-004	0.00000E+000	-1.25342E-004	-2.40040E-001	3.13330E-001	3.57620E+000	9	...........
	57	0.773333	3.07442E-001	-3.98567E-004	0.00000E+000	-1.22536E-004	-2.40040E-001	3.07499E-001	3.57620E+000	9	...........
	58	0.786667	3.01635E-001	-3.99738E-004	0.00000E+000	-1.20575E-004	-2.40040E-001	3.01689E-001	3.57620E+000	9	...........
	59	0.8	2.95929E-001	-3.99789E-004	0.00000E+000	-1.18309E-004	-2.40040E-001	2.95988E-001	3.57620E+000	9	...........
	60	0.813333	2.90221E-001	-3.99586E-004	0.00000E+000	-1.15968E-004	-2.40040E-001	2.90283E-001	3.57620E+000	9	...........
	61	0.826667	2.84482E-001	-3.99531E-004	0.00000E+000	-1.13659E-004	-2.40040E-001	2.84543E-001	3.57620E+000	9	...........
	62	0.84	2.78790E-001	-3.99287E-004	0.00000E+000	-1.11317E-004	-2.40040E-001	2.78848E-001	3.57620E+000	9	...........
	63	0.853333	2.73165E-001	-3.99607E-004	0.00000E+000	-1.09159E-004	-2.40040E-001	2.73224E-001	3.57620E+000	9	...........
	64	0.866667	2.67647E-001	-4.00557E-004	0.00000E+000	-1.07208E-004	-2.40040E-001	2.67702E-001	3.57620E+000	9	...........
	65	0.88	2.62024E-001	-3.97739E-004	0.00000E+000	-1.04217E-004	-2.40040E-001	2.62080E-001	3.57620E+000	9	...........
	66	0.893333	2.56471E-001	-3.99415E-004	0.00000E+000	-1.02438E-004	-2.40040E-001	2.56520E-001	3.57620E+000	9	...........
	67	0.906667	2.50998E-001	-3.98748E-004	0.00000E+000	-1.00085E-004	-2.40040E-001	2.51042E-001	3.57620E+000	9	...........
	68	0.92	2.45543E-001	-3.99439E-004	0.00000E+000	-9.80795E-005	-2.40040E-001	2.45589E-001	3.57620E+000	9	...........
	69	0.933333	2.40072E-001	-3.97240E-004	0.00000E+000	-9.53661E-005	-2.40040E-001	2.40114E-001	3.57620E+000	9	...........
	70	0.946667	2.34639E-001	-3.99988E-004	0.00000E+000	-9.38527E-005	-2.40040E-001	2.34680E-001	3.57620E+000	9	...........
	71	0.96	2.29266E-001	-3.97499E-004	0.00000E+000	-9.11330E-005	-2.40040E-001	2.29302E-001	3.57620E+000	9	...........
	72	0.97333	2.23903E-001	-3.97977E-004	0.00000E+000	-8.91082E-005	-2.40040E-001	2.23943E-001	3.57620E+000	9	...........
	73	0.98667	2.18584E-001	-3.99820E-004	0.00000E+000	-8.73942E-005	-2.40040E-001	2.18618E-001	3.57620E+000	9	...........
	74	1	2.13296E-001	-3.98222E-004	0.00000E+000	-8.49392E-005	-2.40040E-001	2.13333E-001	3.57620E+000	9	...........
	75	1.01333	2.07952E-001	-3.99388E-004	0.00000E+000	-8.30535E-005	-2.40040E-001	2.07982E-001	3.57620E+000	9	...........
	76	1.02667	2.02694E-001	-3.97912E-004	0.00000E+000	-8.06546E-005	-2.40040E-001	2.02736E-001	3.57620E+000	9	...........
	77	1.04	1.97424E-001	-3.96957E-004	0.00000E+000	-7.83687E-005	-2.40040E-001	1.97462E-001	3.57620E+000	9	...........
	78	1.05333	1.92216E-001	-3.99647E-004	0.00000E+000	-7.68186E-005	-2.40040E-001	1.92256E-001	3.57620E+000	9	...........
	79	1.06667	1.87032E-001	-3.98821E-004	0.00000E+000	-7.45924E-005	-2.40040E-001	1.87066E-001	3.57620E+000	9	...........
	80	1.08	1.81937E-001	-3.98544E-004	0.00000E+000	-7.25100E-005	-2.40040E-001	1.81969E-001	3.57620E+000	9	...........
	81	1.09333	1.76787E-001	-3.98567E-004	0.00000E+000	-7.04613E-005	-2.40040E-001	1.76823E-001	3.57620E+000	9	...........
	82	1.10667	1.71666E-001	-3.98956E-004	0.00000E+000	-6.84871E-005	-2.40040E-001	1.71705E-001	3.57620E+000	9	...........
	83	1.12	1.66602E-001	-3.99819E-004	0.00000E+000	-6.66108E-005	-2.40040E-001	1.66640E-001	3.57620E+000	9	...........
	84	1.13333	1.61592E-001	-3.97402E-004	0.00000E+000	-6.42171E-005	-2.40040E-001	1.61623E-001	3.57620E+000	9	...........
	85	1.14667	1.56594E-001	-3.99049E-004	0.00000E+000	-6.24886E-005	-2.40040E-001	1.56622E-001	3.57620E+000	9	...........
	86	1.16	1.51676E-001	-4.00499E-004	0.00000E+000	-6.07463E-005	-2.40040E-001	1.51699E-001	3.57620E+000	9	...........
	87	1.17333	1.46772E-001	-3.99539E-004	0.00000E+000	-5.86412E-005	-2.40040E-001	1.46800E-001	3.57620E+000	9	...........
	88	1.18667	1.41785E-001	-3.98619E-004	0.00000E+000	-5.65182E-005	-2.40040E-001	1.41816E-001	3.57620E+000	9	...........
	89	1.2	1.36820E-001	-3.99051E-004	0.00000E+000	-5.45980E-005	-2.40040E-001	1.36852E-001	3.57620E+000	9	...........
	90	1.21333	1.31910E-001	-3.98768E-004	0.00000E+000	-5.26016E-005	-2.40040E-001	1.31933E-001	3.57620E+000	9	...........
	91	1.22667	1.27121E-001	-3.99250E-004	0.00000E+000	-5.07531E-005	-2.40040E-001	1.27151E-001	3.57620E+000	9	...........
	92	1.24	1.22262E-001	-4.00237E-004	0.00000E+000	-4.89337E-005	-2.40040E-001	1.22293E-001	3.57620E+000	9	...........
	93	1.25333	1.17438E-001	-3.97955E-004	0.00000E+000	-4.67351E-005	-2.40040E-001	1.17462E-001	3.57620E+000	9	...........
	94	1.26667	1.12724E-001	-3.97141E-004	0.00000E+000	-4.47674E-005	-2.40040E-001	1.12744E-001	3.57620E+000	9	...........
	95	1.28	1.08005E-001	-3.98360E-004	0.00000E+000	-4.30249E-005	-2.40040E-001	1.08026E-001	3.57620E+000	9	...........
	96	1.29333	1.03292E-001	-3.98853E-004	0.00000E+000	-4.11984E-005	-2.40040E-001	1.03310E-001	3.57620E+000	9	...........
	97	1.30667	9.85345E-002	-3.98255E-004	0.00000E+000	-3.92419E-005	-2.40040E-001	9.85505E-002	3.57620E+000	9	...........
	98	1.32	9.38193E-002	-4.00075E-004	0.00000E+000	-3.75348E-005	-2.40040E-001	9.38331E-002	3.57620E+000	9	...........
	99	1.33333	8.92178E-002	-3.98168E-004	0.00000E+000	-3.55236E-005	-2.40040E-001	8.92336E-002	3.57620E+000	9	...........
	100	1.34667	8.46043E-002	-3.99081E-004	0.00000E+000	-3.37640E-005	-2.40040E-001	8.46164E-002	3.57620E+000	9	...........
	101	1.36	8.00039E-002	-3.99387E-004	0.00000E+000	-3.19525E-005	-2.40040E-001	8.00131E-002	3.57620E+000	9	...........
	102	1.37333	7.54360E-002	-3.99471E-004	0.00000E+000	-3.01345E-005	-2.40040E-001	7.54451E-002	3.57620E+000	9	...........
	103	1.38667	7.08791E-002	-3.99562E-004	0.00000E+000	-2.83206E-005	-2.40040E-001	7.08877E-002	3.57620E+000	9	...........
	104	1.4	6.62537E-002	-3.98047E-004	0.00000E+000	-2.63721E-005	-2.40040E-001	6.62629E-002	3.57620E+000	9	...........
	105	1.41333	6.17267E-002	-3.98102E-004	0.00000E+000	-2.45735E-005	-2.40040E-001	6.17310E-002	3.57620E+000	9	...........
	106	1.42667	5.72416E-002	-3.99276E-004	0.00000E+000	-2.28552E-005	-2.40040E-001	5.72498E-002	3.57620E+000	9	...........
	107	1.44	5.28032E-002	-3.99624E-004	0.00000E+000	-2.11014E-005	-2.40040E-001	5.28098E-002	3.57620E+000	9	...........
	108	1.45333	4.83134E-002	-3.97848E-004	0.00000E+000	-1.92214E-005	-2.40040E-001	4.83194E-002	3.57620E+000	9	...........
	109	1.46667	4.39116E-002	-3.98441E-004	0.00000E+000	-1.74962E-005	-2.40040E-001	4.39169E-002	3.57620E+000	9	...........
	110	1.48	3.94848E-002	-3.98581E-004	0.00000E+000	-1.57379E-005	-2.40040E-001	3.94937E-002	3.57620E+000	9	...........
	111	1.49333	3.51399E-002	-3.98292E-004	0.00000E+000	-1.39959E-005	-2.40040E-001	3.51469E-002	3.57620E+000	9	...........
	112	1.50667	3.08293E-002	-3.99697E-004	0.00000E+000	-1.23224E-005	-2.40040E-001	3.08333E-002	3.57650E+000	9	...........
	113	1.52	2.65155E-002	-3.98280E-004	0.00000E+000	-1.05606E-005	-2.40040E-001	2.65156E-002	3.57650E+000	9	...........
	114	1.53333	2.21883E-002	-3.98610E-004	0.00000E+000	-8.84447E-006	-2.40040E-001	2.21849E-002	3.57650E+000	9	...........
	115	1.54667	1.78380E-002	-3.98467E-004	0.00000E+000	-7.10786E-006	-2.40040E-001	1.78338E-002	3.57650E+000	9	...........
	116	1.56	1.35707E-002	-4.00295E-004	0.00000E+000	-5.43227E-006	-2.40040E-001	1.35559E-002	3.57650E+000	9	...........
	117	1.57333	9.30988E-003	-3.98380E-004	0.00000E+000	-3.70887E-006	-2.40040E-001	9.30350E-003	3.57650E+000	9	...........
	118	1.58667	5.06176E-003	-3.99500E-004	0.00000E+000	-2.02217E-006	-2.40040E-001	5.04536E-003	3.57650E+000	9	...........
	119	1.59833	1.20043E-003	-3.98478E-004	0.00000E+000	-4.78345E-007	-2.40040E-001	1.19071E-003	3.57650E+000	9	...........
STARTTIMEOFFSET	QUANT	944.265	Start Time Offset (s)
