EXPLAIN
TAG	PWR800_DISCHARGE
TITLE	LABEL	PWR Cyclic Charge Discharge (Cell) - Discharge Step	Test &Identifier
DATE	LABEL	12-7-2017	Date
TIME	LABEL	15:19:48	Time
NOTES	NOTES	3	&Notes...
	supercap test cell
	0.4mg
	6M KOH
PSTAT	PSTAT	IFC5000-01520	Potentiostat
CAPACITY	QUANT	1.00000E-003	Capacity (A-hr)
CELLTYPE	SELECTOR	1	&Cell Type
WORKINGCONNECTION	SELECTOR	0	&Working Lead
MAXDISCHARGETIME	VARIABLEANDUNITS	1.00000E+002	s	1.00000E+002	second(s)	Max &Discharge Time
DISCHARGEMODE	MULTIPARAM	0	4.00000E-004	&Discharge Mode	Constant Current	Amp(s)
SAMPLETIME	QUANT	1.00000E-002	Sa&mple Period (s)
DISCHARGESTOPAT1	MULTIPARAM	3	0.00000E+000	Discharge Stop At &1	Voltage < Limit	V
DISCHARGESTOPAT2	MULTIPARAM	0	0.00000E+000	Discharge Stop At &2	None	N/A
AESBHCSELECTOR	TOGGLE	F	Save Both Half Cells
IRCOMP	TOGGLE	F	IR &Measure
EOC	QUANT	0	Open Circuit (V)
SEQUENCER	TOGGLE	TRUE	Run as Sequence
PSTATMODEL	IQUANT	53	Pstat Model
PSTATSECTION	LABEL	IFC5000-01520	Pstat Section
PSTATSERIALNO	LABEL	01520	Pstat Serial Number
CTRLMODE	IQUANT	0	Control Mode
ELECTROMETER	IQUANT	1	RE=0 or CS=1
IESTAB	IQUANT	0	I/E Stability
CASPEED	IQUANT	4	Control Amp Speed
CONVENTION	IQUANT	1	Current Convention
ICHRANGE	IQUANT	2	Ich Range
ICHRANGEMODE	TOGGLE	T	Ich Auto Range
ICHOFFSETENABLE	TOGGLE	F	Ich Offset Enable
ICHOFFSET	QUANT	0	Ich Offset (V)
ICHFILTER	IQUANT	1	Ich Filter
VCHRANGE	IQUANT	2	Vch Range
VCHRANGEMODE	TOGGLE	T	Vch Auto Range
VCHOFFSETENABLE	TOGGLE	F	Vch Offset Enable
VCHOFFSET	QUANT	0	Vch Offset (V)
VCHFILTER	IQUANT	1	Vch Filter
IERANGELOWERLIMIT	IQUANT	9	I/E Range Lower Limit
IERANGEMODE	TOGGLE	F	I/E AutoRange
IERANGE	IQUANT	9	I/E Range
ACHSELECT	IQUANT	1	Ach Select
ACHRANGE	IQUANT	2	Ach Range
ACHOFFSETENABLE	TOGGLE	F	Ach Offset Enable
ACHOFFSET	QUANT	0	Ach Offset (V)
ACHFILTER	IQUANT	1	Ach Filter
CABLEID	IQUANT	14	Cable ID
DCCALDATE	LABEL	5-7-2017	DC Calibration Date
ACCALDATE	LABEL	12/3/2015	AC Calibration Date
FRAMEWORKVERSION	QUANT	7.01	Framework Version
INSTRUMENTVERSION	LABEL	4.00	Instrument Version
CURVE	TABLE	102
	Pt	T	Vf	Im	Vu	Pwr	Sig	Ach	Temp	IERange	Over
	#	s	V	A	V	W	V	V	deg C	#	bits
	0	0.013333	6.83469E-001	-3.98825E-004	0.00000E+000	-2.72585E-004	-2.40040E-001	6.83712E-001	3.57690E+000	9	...........
	1	0.026667	6.69789E-001	-3.97579E-004	0.00000E+000	-2.66294E-004	-2.40040E-001	6.69993E-001	3.57690E+000	9	...........
	2	0.04	6.57831E-001	-4.00103E-004	0.00000E+000	-2.63200E-004	-2.40040E-001	6.58036E-001	3.57690E+000	9	...........
	3	0.053333	6.46872E-001	-3.98376E-004	0.00000E+000	-2.57698E-004	-2.40040E-001	6.47101E-001	3.57690E+000	9	...........
	4	0.066667	6.36578E-001	-3.99251E-004	0.00000E+000	-2.54154E-004	-2.40040E-001	6.36804E-001	3.57690E+000	9	...........
	5	0.08	6.26771E-001	-3.97837E-004	0.00000E+000	-2.49353E-004	-2.40040E-001	6.26994E-001	3.57690E+000	9	...........
	6	0.093333	6.17280E-001	-3.98662E-004	0.00000E+000	-2.46086E-004	-2.40040E-001	6.17502E-001	3.57690E+000	9	...........
	7	0.106667	6.08027E-001	-3.98096E-004	0.00000E+000	-2.42053E-004	-2.40040E-001	6.08296E-001	3.57690E+000	9	...........
	8	0.12	5.99062E-001	-3.97411E-004	0.00000E+000	-2.38074E-004	-2.40040E-001	5.99311E-001	3.57690E+000	9	...........
	9	0.133333	5.90297E-001	-3.98588E-004	0.00000E+000	-2.35286E-004	-2.40040E-001	5.90557E-001	3.57690E+000	9	...........
	10	0.146667	5.81575E-001	-3.98109E-004	0.00000E+000	-2.31530E-004	-2.40040E-001	5.81820E-001	3.57690E+000	9	...........
	11	0.16	5.73022E-001	-3.99039E-004	0.00000E+000	-2.28658E-004	-2.40040E-001	5.73225E-001	3.57690E+000	9	...........
	12	0.173333	5.64551E-001	-3.97947E-004	0.00000E+000	-2.24661E-004	-2.40040E-001	5.64768E-001	3.57690E+000	9	...........
	13	0.186667	5.56152E-001	-3.99367E-004	0.00000E+000	-2.22109E-004	-2.40040E-001	5.56380E-001	3.57690E+000	9	...........
	14	0.2	5.47868E-001	-3.99051E-004	0.00000E+000	-2.18627E-004	-2.40040E-001	5.48095E-001	3.57690E+000	9	...........
	15	0.213333	5.39636E-001	-3.98298E-004	0.00000E+000	-2.14936E-004	-2.40040E-001	5.39831E-001	3.57690E+000	9	...........
	16	0.226667	5.31440E-001	-3.98438E-004	0.00000E+000	-2.11746E-004	-2.40040E-001	5.31666E-001	3.57690E+000	9	...........
	17	0.24	5.23329E-001	-3.98238E-004	0.00000E+000	-2.08410E-004	-2.40040E-001	5.23528E-001	3.57690E+000	9	...........
	18	0.253333	5.15319E-001	-3.98499E-004	0.00000E+000	-2.05354E-004	-2.40040E-001	5.15483E-001	3.57690E+000	9	...........
	19	0.266667	5.07301E-001	-4.00284E-004	0.00000E+000	-2.03064E-004	-2.40040E-001	5.07516E-001	3.57690E+000	9	...........
	20	0.28	4.99397E-001	-3.97866E-004	0.00000E+000	-1.98693E-004	-2.40040E-001	4.99611E-001	3.57690E+000	9	...........
	21	0.293333	4.91603E-001	-3.97623E-004	0.00000E+000	-1.95473E-004	-2.40040E-001	4.91774E-001	3.57690E+000	9	...........
	22	0.306667	4.83940E-001	-4.00129E-004	0.00000E+000	-1.93638E-004	-2.40040E-001	4.84059E-001	3.57690E+000	9	...........
	23	0.32	4.76280E-001	-3.99445E-004	0.00000E+000	-1.90248E-004	-2.40040E-001	4.76374E-001	3.57690E+000	9	...........
	24	0.333333	4.68543E-001	-3.98475E-004	0.00000E+000	-1.86702E-004	-2.40040E-001	4.68637E-001	3.57690E+000	9	...........
	25	0.346667	4.60856E-001	-3.99725E-004	0.00000E+000	-1.84216E-004	-2.40040E-001	4.60946E-001	3.57690E+000	9	...........
	26	0.36	4.53212E-001	-3.99288E-004	0.00000E+000	-1.80962E-004	-2.40040E-001	4.53300E-001	3.57690E+000	9	...........
	27	0.373333	4.45669E-001	-3.98817E-004	0.00000E+000	-1.77740E-004	-2.40040E-001	4.45759E-001	3.57690E+000	9	...........
	28	0.386667	4.38168E-001	-3.98015E-004	0.00000E+000	-1.74398E-004	-2.40040E-001	4.38255E-001	3.57690E+000	9	...........
	29	0.4	4.30721E-001	-3.98630E-004	0.00000E+000	-1.71699E-004	-2.40040E-001	4.30806E-001	3.57690E+000	9	...........
	30	0.413333	4.23203E-001	-3.98295E-004	0.00000E+000	-1.68559E-004	-2.40040E-001	4.23286E-001	3.57690E+000	9	...........
	31	0.426667	4.15788E-001	-3.98947E-004	0.00000E+000	-1.65877E-004	-2.40040E-001	4.15872E-001	3.57715E+000	9	...........
	32	0.44	4.08475E-001	-3.99320E-004	0.00000E+000	-1.63112E-004	-2.40040E-001	4.08558E-001	3.57720E+000	9	...........
	33	0.453333	4.01115E-001	-3.98005E-004	0.00000E+000	-1.59646E-004	-2.40040E-001	4.01189E-001	3.57720E+000	9	...........
	34	0.466667	3.93758E-001	-3.98984E-004	0.00000E+000	-1.57103E-004	-2.40040E-001	3.93834E-001	3.57720E+000	9	...........
	35	0.48	3.86506E-001	-3.97406E-004	0.00000E+000	-1.53600E-004	-2.40040E-001	3.86575E-001	3.57720E+000	9	...........
	36	0.493333	3.79281E-001	-3.98020E-004	0.00000E+000	-1.50961E-004	-2.40040E-001	3.79356E-001	3.57720E+000	9	...........
	37	0.506667	3.72054E-001	-3.99944E-004	0.00000E+000	-1.48801E-004	-2.40040E-001	3.72121E-001	3.57720E+000	9	...........
	38	0.52	3.64940E-001	-3.98556E-004	0.00000E+000	-1.45449E-004	-2.40040E-001	3.65011E-001	3.57720E+000	9	...........
	39	0.533333	3.57881E-001	-3.98011E-004	0.00000E+000	-1.42441E-004	-2.40040E-001	3.57955E-001	3.57720E+000	9	...........
	40	0.546667	3.50865E-001	-4.00085E-004	0.00000E+000	-1.40376E-004	-2.40040E-001	3.50930E-001	3.57720E+000	9	...........
	41	0.56	3.43834E-001	-3.98363E-004	0.00000E+000	-1.36971E-004	-2.40040E-001	3.43905E-001	3.57720E+000	9	...........
	42	0.573333	3.36893E-001	-3.97286E-004	0.00000E+000	-1.33843E-004	-2.40040E-001	3.36956E-001	3.57720E+000	9	...........
	43	0.586667	3.29973E-001	-3.98375E-004	0.00000E+000	-1.31453E-004	-2.40040E-001	3.30040E-001	3.57720E+000	9	...........
	44	0.6	3.23152E-001	-3.99481E-004	0.00000E+000	-1.29093E-004	-2.40040E-001	3.23213E-001	3.57720E+000	9	...........
	45	0.613333	3.16384E-001	-3.98533E-004	0.00000E+000	-1.26090E-004	-2.40040E-001	3.16441E-001	3.57720E+000	9	...........
	46	0.626667	3.09578E-001	-3.98836E-004	0.00000E+000	-1.23471E-004	-2.40040E-001	3.09635E-001	3.57720E+000	9	...........
	47	0.64	3.02828E-001	-3.97190E-004	0.00000E+000	-1.20280E-004	-2.40040E-001	3.02892E-001	3.57720E+000	9	...........
	48	0.653333	2.96105E-001	-3.97406E-004	0.00000E+000	-1.17674E-004	-2.40040E-001	2.96161E-001	3.57720E+000	9	...........
	49	0.666667	2.89541E-001	-3.97258E-004	0.00000E+000	-1.15022E-004	-2.40040E-001	2.89596E-001	3.57720E+000	9	...........
	50	0.68	2.82969E-001	-3.98447E-004	0.00000E+000	-1.12748E-004	-2.40040E-001	2.83035E-001	3.57720E+000	9	...........
	51	0.693333	2.76469E-001	-3.98186E-004	0.00000E+000	-1.10086E-004	-2.40040E-001	2.76524E-001	3.57720E+000	9	...........
	52	0.706667	2.69990E-001	-3.99577E-004	0.00000E+000	-1.07882E-004	-2.40040E-001	2.70039E-001	3.57720E+000	9	...........
	53	0.72	2.63565E-001	-3.98586E-004	0.00000E+000	-1.05054E-004	-2.40040E-001	2.63615E-001	3.57720E+000	9	...........
	54	0.733333	2.57196E-001	-3.98851E-004	0.00000E+000	-1.02583E-004	-2.40040E-001	2.57243E-001	3.57720E+000	9	...........
	55	0.746667	2.50782E-001	-3.98359E-004	0.00000E+000	-9.99013E-005	-2.40040E-001	2.50835E-001	3.57720E+000	9	...........
	56	0.76	2.44424E-001	-3.99372E-004	0.00000E+000	-9.76160E-005	-2.40040E-001	2.44470E-001	3.57720E+000	9	...........
	57	0.773333	2.38153E-001	-3.98085E-004	0.00000E+000	-9.48052E-005	-2.40040E-001	2.38199E-001	3.57720E+000	9	...........
	58	0.786667	2.31919E-001	-3.98920E-004	0.00000E+000	-9.25169E-005	-2.40040E-001	2.31961E-001	3.57720E+000	9	...........
	59	0.8	2.25712E-001	-3.98335E-004	0.00000E+000	-8.99091E-005	-2.40040E-001	2.25756E-001	3.57720E+000	9	...........
	60	0.813333	2.19552E-001	-3.97434E-004	0.00000E+000	-8.72573E-005	-2.40040E-001	2.19594E-001	3.57720E+000	9	...........
	61	0.826667	2.13468E-001	-4.00152E-004	0.00000E+000	-8.54197E-005	-2.40040E-001	2.13512E-001	3.57720E+000	9	...........
	62	0.84	2.07459E-001	-3.97701E-004	0.00000E+000	-8.25066E-005	-2.40040E-001	2.07497E-001	3.57720E+000	9	...........
	63	0.853333	2.01530E-001	-3.98475E-004	0.00000E+000	-8.03045E-005	-2.40040E-001	2.01574E-001	3.57720E+000	9	...........
	64	0.866667	1.95623E-001	-3.97614E-004	0.00000E+000	-7.77825E-005	-2.40040E-001	1.95659E-001	3.57720E+000	9	...........
	65	0.88	1.89672E-001	-3.98061E-004	0.00000E+000	-7.55011E-005	-2.40040E-001	1.89713E-001	3.57720E+000	9	...........
	66	0.893333	1.83795E-001	-3.99721E-004	0.00000E+000	-7.34667E-005	-2.40040E-001	1.83831E-001	3.57720E+000	9	...........
	67	0.906667	1.77984E-001	-3.98787E-004	0.00000E+000	-7.09777E-005	-2.40040E-001	1.78019E-001	3.57720E+000	9	...........
	68	0.92	1.72202E-001	-3.97099E-004	0.00000E+000	-6.83812E-005	-2.40040E-001	1.72233E-001	3.57720E+000	9	...........
	69	0.933333	1.66475E-001	-3.99558E-004	0.00000E+000	-6.65165E-005	-2.40040E-001	1.66506E-001	3.57720E+000	9	...........
	70	0.946667	1.60771E-001	-4.00171E-004	0.00000E+000	-6.43359E-005	-2.40040E-001	1.60793E-001	3.57720E+000	9	...........
	71	0.96	1.55077E-001	-3.98706E-004	0.00000E+000	-6.18301E-005	-2.40040E-001	1.55105E-001	3.57720E+000	9	...........
	72	0.97333	1.49383E-001	-3.98674E-004	0.00000E+000	-5.95550E-005	-2.40040E-001	1.49404E-001	3.57720E+000	9	...........
	73	0.98667	1.43763E-001	-3.98440E-004	0.00000E+000	-5.72809E-005	-2.40040E-001	1.43786E-001	3.57720E+000	9	...........
	74	1	1.38306E-001	-3.98342E-004	0.00000E+000	-5.50931E-005	-2.40040E-001	1.38327E-001	3.57720E+000	9	...........
	75	1.01333	1.32772E-001	-3.98653E-004	0.00000E+000	-5.29301E-005	-2.40040E-001	1.32792E-001	3.57720E+000	9	...........
	76	1.02667	1.27297E-001	-3.98918E-004	0.00000E+000	-5.07810E-005	-2.40040E-001	1.27319E-001	3.57720E+000	9	...........
	77	1.04	1.21857E-001	-3.99694E-004	0.00000E+000	-4.87053E-005	-2.40040E-001	1.21875E-001	3.57720E+000	9	...........
	78	1.05333	1.16478E-001	-4.00027E-004	0.00000E+000	-4.65945E-005	-2.40040E-001	1.16498E-001	3.57720E+000	9	...........
	79	1.06667	1.11146E-001	-3.99409E-004	0.00000E+000	-4.43930E-005	-2.40040E-001	1.11167E-001	3.57720E+000	9	...........
	80	1.08	1.05871E-001	-3.97091E-004	0.00000E+000	-4.20405E-005	-2.40040E-001	1.05890E-001	3.57720E+000	9	...........
	81	1.09333	1.00578E-001	-3.98751E-004	0.00000E+000	-4.01055E-005	-2.40040E-001	1.00593E-001	3.57720E+000	9	...........
	82	1.10667	9.52376E-002	-3.99107E-004	0.00000E+000	-3.80100E-005	-2.40040E-001	9.52544E-002	3.57720E+000	9	...........
	83	1.12	9.00162E-002	-3.99852E-004	0.00000E+000	-3.59932E-005	-2.40040E-001	9.00336E-002	3.57720E+000	9	...........
	84	1.13333	8.48910E-002	-3.99109E-004	0.00000E+000	-3.38808E-005	-2.40040E-001	8.49053E-002	3.57720E+000	9	...........
	85	1.14667	7.97387E-002	-3.98667E-004	0.00000E+000	-3.17892E-005	-2.40040E-001	7.97515E-002	3.57720E+000	9	...........
	86	1.16	7.46508E-002	-3.99835E-004	0.00000E+000	-2.98480E-005	-2.40040E-001	7.46613E-002	3.57720E+000	9	...........
	87	1.17333	6.95583E-002	-3.98184E-004	0.00000E+000	-2.76970E-005	-2.40040E-001	6.95687E-002	3.57720E+000	9	...........
	88	1.18667	6.44992E-002	-3.99312E-004	0.00000E+000	-2.57553E-005	-2.40040E-001	6.45054E-002	3.57720E+000	9	...........
	89	1.2	5.95063E-002	-3.99765E-004	0.00000E+000	-2.37885E-005	-2.40040E-001	5.95150E-002	3.57720E+000	9	...........
	90	1.21333	5.44797E-002	-3.99432E-004	0.00000E+000	-2.17609E-005	-2.40040E-001	5.44852E-002	3.57720E+000	9	...........
	91	1.22667	4.94846E-002	-3.97655E-004	0.00000E+000	-1.96778E-005	-2.40040E-001	4.94882E-002	3.57720E+000	9	...........
	92	1.24	4.45750E-002	-3.97949E-004	0.00000E+000	-1.77386E-005	-2.40040E-001	4.45796E-002	3.57720E+000	9	...........
	93	1.25333	3.96293E-002	-3.98013E-004	0.00000E+000	-1.57730E-005	-2.40040E-001	3.96343E-002	3.57720E+000	9	...........
	94	1.26667	3.47854E-002	-3.97866E-004	0.00000E+000	-1.38399E-005	-2.40040E-001	3.47892E-002	3.57720E+000	9	...........
	95	1.28	2.99766E-002	-3.99039E-004	0.00000E+000	-1.19618E-005	-2.40040E-001	2.99714E-002	3.57720E+000	9	...........
	96	1.29333	2.52220E-002	-3.99030E-004	0.00000E+000	-1.00644E-005	-2.40040E-001	2.52149E-002	3.57720E+000	9	...........
	97	1.30667	2.04769E-002	-3.98704E-004	0.00000E+000	-8.16422E-006	-2.40040E-001	2.04730E-002	3.57720E+000	9	...........
	98	1.32	1.57386E-002	-3.98940E-004	0.00000E+000	-6.27874E-006	-2.40040E-001	1.57285E-002	3.57720E+000	9	...........
	99	1.33333	1.10599E-002	-3.98288E-004	0.00000E+000	-4.40505E-006	-2.40040E-001	1.10466E-002	3.57720E+000	9	...........
	100	1.34667	6.36026E-003	-3.98528E-004	0.00000E+000	-2.53474E-006	-2.40040E-001	6.34477E-003	3.57720E+000	9	...........
	101	1.36	1.71199E-003	-3.99021E-004	0.00000E+000	-6.83120E-007	-2.40040E-001	1.69122E-003	3.57720E+000	9	...........
STARTTIMEOFFSET	QUANT	2897.212	Start Time Offset (s)
