EXPLAIN
TAG	PWR800_DISCHARGE
TITLE	LABEL	PWR Cyclic Charge Discharge (Cell) - Discharge Step	Test &Identifier
DATE	LABEL	12-7-2017	Date
TIME	LABEL	15:22:27	Time
NOTES	NOTES	3	&Notes...
	supercap test cell
	0.4mg
	6M KOH
PSTAT	PSTAT	IFC5000-01520	Potentiostat
CAPACITY	QUANT	1.00000E-003	Capacity (A-hr)
CELLTYPE	SELECTOR	1	&Cell Type
WORKINGCONNECTION	SELECTOR	0	&Working Lead
MAXDISCHARGETIME	VARIABLEANDUNITS	1.00000E+002	s	1.00000E+002	second(s)	Max &Discharge Time
DISCHARGEMODE	MULTIPARAM	0	4.00000E-004	&Discharge Mode	Constant Current	Amp(s)
SAMPLETIME	QUANT	1.00000E-002	Sa&mple Period (s)
DISCHARGESTOPAT1	MULTIPARAM	3	0.00000E+000	Discharge Stop At &1	Voltage < Limit	V
DISCHARGESTOPAT2	MULTIPARAM	0	0.00000E+000	Discharge Stop At &2	None	N/A
AESBHCSELECTOR	TOGGLE	F	Save Both Half Cells
IRCOMP	TOGGLE	F	IR &Measure
EOC	QUANT	0	Open Circuit (V)
SEQUENCER	TOGGLE	TRUE	Run as Sequence
PSTATMODEL	IQUANT	53	Pstat Model
PSTATSECTION	LABEL	IFC5000-01520	Pstat Section
PSTATSERIALNO	LABEL	01520	Pstat Serial Number
CTRLMODE	IQUANT	0	Control Mode
ELECTROMETER	IQUANT	1	RE=0 or CS=1
IESTAB	IQUANT	0	I/E Stability
CASPEED	IQUANT	4	Control Amp Speed
CONVENTION	IQUANT	1	Current Convention
ICHRANGE	IQUANT	2	Ich Range
ICHRANGEMODE	TOGGLE	T	Ich Auto Range
ICHOFFSETENABLE	TOGGLE	F	Ich Offset Enable
ICHOFFSET	QUANT	0	Ich Offset (V)
ICHFILTER	IQUANT	1	Ich Filter
VCHRANGE	IQUANT	2	Vch Range
VCHRANGEMODE	TOGGLE	T	Vch Auto Range
VCHOFFSETENABLE	TOGGLE	F	Vch Offset Enable
VCHOFFSET	QUANT	0	Vch Offset (V)
VCHFILTER	IQUANT	1	Vch Filter
IERANGELOWERLIMIT	IQUANT	9	I/E Range Lower Limit
IERANGEMODE	TOGGLE	F	I/E AutoRange
IERANGE	IQUANT	9	I/E Range
ACHSELECT	IQUANT	1	Ach Select
ACHRANGE	IQUANT	2	Ach Range
ACHOFFSETENABLE	TOGGLE	F	Ach Offset Enable
ACHOFFSET	QUANT	0	Ach Offset (V)
ACHFILTER	IQUANT	1	Ach Filter
CABLEID	IQUANT	14	Cable ID
DCCALDATE	LABEL	5-7-2017	DC Calibration Date
ACCALDATE	LABEL	12/3/2015	AC Calibration Date
FRAMEWORKVERSION	QUANT	7.01	Framework Version
INSTRUMENTVERSION	LABEL	4.00	Instrument Version
CURVE	TABLE	102
	Pt	T	Vf	Im	Vu	Pwr	Sig	Ach	Temp	IERange	Over
	#	s	V	A	V	W	V	V	deg C	#	bits
	0	0.013333	6.81356E-001	-3.98718E-004	0.00000E+000	-2.71669E-004	-2.40040E-001	6.81618E-001	3.57780E+000	9	...........
	1	0.026667	6.67478E-001	-3.98772E-004	0.00000E+000	-2.66171E-004	-2.40040E-001	6.67740E-001	3.57780E+000	9	...........
	2	0.04	6.55459E-001	-3.98959E-004	0.00000E+000	-2.61501E-004	-2.40040E-001	6.55702E-001	3.57780E+000	9	...........
	3	0.053333	6.44485E-001	-3.99970E-004	0.00000E+000	-2.57775E-004	-2.40040E-001	6.44731E-001	3.57780E+000	9	...........
	4	0.066667	6.34211E-001	-3.98665E-004	0.00000E+000	-2.52837E-004	-2.40040E-001	6.34454E-001	3.57780E+000	9	...........
	5	0.08	6.24368E-001	-3.97523E-004	0.00000E+000	-2.48201E-004	-2.40040E-001	6.24598E-001	3.57780E+000	9	...........
	6	0.093333	6.14906E-001	-3.99299E-004	0.00000E+000	-2.45531E-004	-2.40040E-001	6.15181E-001	3.57748E+000	9	...........
	7	0.106667	6.05717E-001	-3.98243E-004	0.00000E+000	-2.41222E-004	-2.40040E-001	6.05982E-001	3.57730E+000	9	...........
	8	0.12	5.96848E-001	-3.99352E-004	0.00000E+000	-2.38353E-004	-2.40040E-001	5.97103E-001	3.57730E+000	9	...........
	9	0.133333	5.88058E-001	-3.98712E-004	0.00000E+000	-2.34466E-004	-2.40040E-001	5.88287E-001	3.57730E+000	9	...........
	10	0.146667	5.79327E-001	-3.99351E-004	0.00000E+000	-2.31355E-004	-2.40040E-001	5.79567E-001	3.57730E+000	9	...........
	11	0.16	5.70784E-001	-3.98309E-004	0.00000E+000	-2.27348E-004	-2.40040E-001	5.70988E-001	3.57730E+000	9	...........
	12	0.173333	5.62278E-001	-3.98017E-004	0.00000E+000	-2.23796E-004	-2.40040E-001	5.62510E-001	3.57730E+000	9	...........
	13	0.186667	5.53859E-001	-4.00075E-004	0.00000E+000	-2.21585E-004	-2.40040E-001	5.54095E-001	3.57730E+000	9	...........
	14	0.2	5.45489E-001	-3.99483E-004	0.00000E+000	-2.17914E-004	-2.40040E-001	5.45697E-001	3.57730E+000	9	...........
	15	0.213333	5.37304E-001	-3.98917E-004	0.00000E+000	-2.14339E-004	-2.40040E-001	5.37516E-001	3.57730E+000	9	...........
	16	0.226667	5.29082E-001	-3.99164E-004	0.00000E+000	-2.11190E-004	-2.40040E-001	5.29269E-001	3.57730E+000	9	...........
	17	0.24	5.20959E-001	-3.99368E-004	0.00000E+000	-2.08054E-004	-2.40040E-001	5.21127E-001	3.57730E+000	9	...........
	18	0.253333	5.12855E-001	-3.98595E-004	0.00000E+000	-2.04421E-004	-2.40040E-001	5.13029E-001	3.57730E+000	9	...........
	19	0.266667	5.04829E-001	-3.98600E-004	0.00000E+000	-2.01225E-004	-2.40040E-001	5.05015E-001	3.57730E+000	9	...........
	20	0.28	4.96848E-001	-3.99805E-004	0.00000E+000	-1.98642E-004	-2.40040E-001	4.97028E-001	3.57730E+000	9	...........
	21	0.293333	4.88978E-001	-3.99234E-004	0.00000E+000	-1.95217E-004	-2.40040E-001	4.89161E-001	3.57730E+000	9	...........
	22	0.306667	4.81367E-001	-3.98441E-004	0.00000E+000	-1.91796E-004	-2.40040E-001	4.81472E-001	3.57730E+000	9	...........
	23	0.32	4.73591E-001	-3.97675E-004	0.00000E+000	-1.88335E-004	-2.40040E-001	4.73689E-001	3.57730E+000	9	...........
	24	0.333333	4.65807E-001	-3.99675E-004	0.00000E+000	-1.86171E-004	-2.40040E-001	4.65898E-001	3.57730E+000	9	...........
	25	0.346667	4.58037E-001	-3.98923E-004	0.00000E+000	-1.82721E-004	-2.40040E-001	4.58126E-001	3.57730E+000	9	...........
	26	0.36	4.50250E-001	-3.98948E-004	0.00000E+000	-1.79626E-004	-2.40040E-001	4.50337E-001	3.57730E+000	9	...........
	27	0.373333	4.42664E-001	-3.99248E-004	0.00000E+000	-1.76733E-004	-2.40040E-001	4.42759E-001	3.57730E+000	9	...........
	28	0.386667	4.35078E-001	-3.99505E-004	0.00000E+000	-1.73816E-004	-2.40040E-001	4.35169E-001	3.57730E+000	9	...........
	29	0.4	4.27469E-001	-3.98353E-004	0.00000E+000	-1.70284E-004	-2.40040E-001	4.27554E-001	3.57730E+000	9	...........
	30	0.413333	4.19940E-001	-3.98465E-004	0.00000E+000	-1.67331E-004	-2.40040E-001	4.20019E-001	3.57730E+000	9	...........
	31	0.426667	4.12461E-001	-3.99660E-004	0.00000E+000	-1.64844E-004	-2.40040E-001	4.12544E-001	3.57730E+000	9	...........
	32	0.44	4.05077E-001	-3.97578E-004	0.00000E+000	-1.61050E-004	-2.40040E-001	4.05157E-001	3.57730E+000	9	...........
	33	0.453333	3.97672E-001	-4.00094E-004	0.00000E+000	-1.59106E-004	-2.40040E-001	3.97752E-001	3.57730E+000	9	...........
	34	0.466667	3.90326E-001	-3.98293E-004	0.00000E+000	-1.55464E-004	-2.40040E-001	3.90400E-001	3.57730E+000	9	...........
	35	0.48	3.83089E-001	-3.97751E-004	0.00000E+000	-1.52374E-004	-2.40040E-001	3.83168E-001	3.57730E+000	9	...........
	36	0.493333	3.75854E-001	-3.98483E-004	0.00000E+000	-1.49771E-004	-2.40040E-001	3.75934E-001	3.57730E+000	9	...........
	37	0.506667	3.68652E-001	-3.98406E-004	0.00000E+000	-1.46873E-004	-2.40040E-001	3.68724E-001	3.57730E+000	9	...........
	38	0.52	3.61505E-001	-3.99451E-004	0.00000E+000	-1.44404E-004	-2.40040E-001	3.61582E-001	3.57730E+000	9	...........
	39	0.533333	3.54362E-001	-3.97574E-004	0.00000E+000	-1.40885E-004	-2.40040E-001	3.54433E-001	3.57730E+000	9	...........
	40	0.546667	3.47306E-001	-3.98706E-004	0.00000E+000	-1.38473E-004	-2.40040E-001	3.47373E-001	3.57730E+000	9	...........
	41	0.56	3.40392E-001	-3.97970E-004	0.00000E+000	-1.35466E-004	-2.40040E-001	3.40462E-001	3.57730E+000	9	...........
	42	0.573333	3.33378E-001	-4.00190E-004	0.00000E+000	-1.33414E-004	-2.40040E-001	3.33452E-001	3.57730E+000	9	...........
	43	0.586667	3.26432E-001	-3.97870E-004	0.00000E+000	-1.29878E-004	-2.40040E-001	3.26502E-001	3.57730E+000	9	...........
	44	0.6	3.19515E-001	-3.98373E-004	0.00000E+000	-1.27286E-004	-2.40040E-001	3.19573E-001	3.57730E+000	9	...........
	45	0.613333	3.12710E-001	-3.98452E-004	0.00000E+000	-1.24600E-004	-2.40040E-001	3.12772E-001	3.57730E+000	9	...........
	46	0.626667	3.05938E-001	-3.99098E-004	0.00000E+000	-1.22099E-004	-2.40040E-001	3.06001E-001	3.57730E+000	9	...........
	47	0.64	2.99164E-001	-3.98325E-004	0.00000E+000	-1.19164E-004	-2.40040E-001	2.99221E-001	3.57730E+000	9	...........
	48	0.653333	2.92425E-001	-3.98743E-004	0.00000E+000	-1.16602E-004	-2.40040E-001	2.92486E-001	3.57730E+000	9	...........
	49	0.666667	2.85797E-001	-3.99456E-004	0.00000E+000	-1.14163E-004	-2.40040E-001	2.85855E-001	3.57730E+000	9	...........
	50	0.68	2.79208E-001	-3.99027E-004	0.00000E+000	-1.11412E-004	-2.40040E-001	2.79266E-001	3.57730E+000	9	...........
	51	0.693333	2.72708E-001	-3.99793E-004	0.00000E+000	-1.09027E-004	-2.40040E-001	2.72766E-001	3.57730E+000	9	...........
	52	0.706667	2.66207E-001	-3.99703E-004	0.00000E+000	-1.06404E-004	-2.40040E-001	2.66263E-001	3.57730E+000	9	...........
	53	0.72	2.59750E-001	-3.99935E-004	0.00000E+000	-1.03883E-004	-2.40040E-001	2.59803E-001	3.57730E+000	9	...........
	54	0.733333	2.53298E-001	-4.01103E-004	0.00000E+000	-1.01599E-004	-2.40040E-001	2.53348E-001	3.57730E+000	9	...........
	55	0.746667	2.46975E-001	-3.98312E-004	0.00000E+000	-9.83732E-005	-2.40040E-001	2.47026E-001	3.57730E+000	9	...........
	56	0.76	2.40628E-001	-3.98510E-004	0.00000E+000	-9.58929E-005	-2.40040E-001	2.40672E-001	3.57730E+000	9	...........
	57	0.773333	2.34314E-001	-3.98796E-004	0.00000E+000	-9.34434E-005	-2.40040E-001	2.34360E-001	3.57730E+000	9	...........
	58	0.786667	2.28040E-001	-3.98059E-004	0.00000E+000	-9.07736E-005	-2.40040E-001	2.28083E-001	3.57730E+000	9	...........
	59	0.8	2.21911E-001	-3.99046E-004	0.00000E+000	-8.85527E-005	-2.40040E-001	2.21954E-001	3.57730E+000	9	...........
	60	0.813333	2.15797E-001	-3.99238E-004	0.00000E+000	-8.61544E-005	-2.40040E-001	2.15842E-001	3.57730E+000	9	...........
	61	0.826667	2.09641E-001	-3.99083E-004	0.00000E+000	-8.36642E-005	-2.40040E-001	2.09684E-001	3.57730E+000	9	...........
	62	0.84	2.03650E-001	-3.97706E-004	0.00000E+000	-8.09928E-005	-2.40040E-001	2.03690E-001	3.57730E+000	9	...........
	63	0.853333	1.97605E-001	-3.98732E-004	0.00000E+000	-7.87913E-005	-2.40040E-001	1.97639E-001	3.57730E+000	9	...........
	64	0.866667	1.91648E-001	-3.98076E-004	0.00000E+000	-7.62906E-005	-2.40040E-001	1.91688E-001	3.57730E+000	9	...........
	65	0.88	1.85727E-001	-3.98473E-004	0.00000E+000	-7.40071E-005	-2.40040E-001	1.85765E-001	3.57730E+000	9	...........
	66	0.893333	1.79804E-001	-3.98229E-004	0.00000E+000	-7.16031E-005	-2.40040E-001	1.79842E-001	3.57730E+000	9	...........
	67	0.906667	1.73904E-001	-3.99331E-004	0.00000E+000	-6.94454E-005	-2.40040E-001	1.73939E-001	3.57730E+000	9	...........
	68	0.92	1.68226E-001	-3.98326E-004	0.00000E+000	-6.70087E-005	-2.40040E-001	1.68259E-001	3.57730E+000	9	...........
	69	0.933333	1.62495E-001	-3.98883E-004	0.00000E+000	-6.48164E-005	-2.40040E-001	1.62524E-001	3.57730E+000	9	...........
	70	0.946667	1.56797E-001	-3.97950E-004	0.00000E+000	-6.23974E-005	-2.40040E-001	1.56823E-001	3.57730E+000	9	...........
	71	0.96	1.51056E-001	-3.99893E-004	0.00000E+000	-6.04061E-005	-2.40040E-001	1.51078E-001	3.57730E+000	9	...........
	72	0.97333	1.45449E-001	-3.98055E-004	0.00000E+000	-5.78966E-005	-2.40040E-001	1.45473E-001	3.57730E+000	9	...........
	73	0.98667	1.39803E-001	-3.98891E-004	0.00000E+000	-5.57660E-005	-2.40040E-001	1.39826E-001	3.57730E+000	9	...........
	74	1	1.34172E-001	-3.99348E-004	0.00000E+000	-5.35814E-005	-2.40040E-001	1.34202E-001	3.57730E+000	9	...........
	75	1.01333	1.28636E-001	-3.99406E-004	0.00000E+000	-5.13779E-005	-2.40040E-001	1.28657E-001	3.57730E+000	9	...........
	76	1.02667	1.23170E-001	-3.99658E-004	0.00000E+000	-4.92260E-005	-2.40040E-001	1.23193E-001	3.57730E+000	9	...........
	77	1.04	1.17782E-001	-3.98325E-004	0.00000E+000	-4.69155E-005	-2.40040E-001	1.17803E-001	3.57730E+000	9	...........
	78	1.05333	1.12331E-001	-3.99240E-004	0.00000E+000	-4.48469E-005	-2.40040E-001	1.12351E-001	3.57730E+000	9	...........
	79	1.06667	1.07014E-001	-3.98682E-004	0.00000E+000	-4.26647E-005	-2.40040E-001	1.07035E-001	3.57730E+000	9	...........
	80	1.08	1.01688E-001	-3.99436E-004	0.00000E+000	-4.06176E-005	-2.40040E-001	1.01704E-001	3.57730E+000	9	...........
	81	1.09333	9.64667E-002	-3.98505E-004	0.00000E+000	-3.84425E-005	-2.40040E-001	9.64889E-002	3.57717E+000	9	...........
	82	1.10667	9.12538E-002	-3.98030E-004	0.00000E+000	-3.63218E-005	-2.40040E-001	9.12709E-002	3.57710E+000	9	...........
	83	1.12	8.60129E-002	-3.97811E-004	0.00000E+000	-3.42169E-005	-2.40040E-001	8.60254E-002	3.57710E+000	9	...........
	84	1.13333	8.08624E-002	-3.99919E-004	0.00000E+000	-3.23384E-005	-2.40040E-001	8.08729E-002	3.57710E+000	9	...........
	85	1.14667	7.56713E-002	-3.96430E-004	0.00000E+000	-2.99984E-005	-2.40040E-001	7.56812E-002	3.57710E+000	9	...........
	86	1.16	7.05900E-002	-3.97572E-004	0.00000E+000	-2.80646E-005	-2.40040E-001	7.06003E-002	3.57710E+000	9	...........
	87	1.17333	6.55174E-002	-3.99019E-004	0.00000E+000	-2.61427E-005	-2.40040E-001	6.55266E-002	3.57710E+000	9	...........
	88	1.18667	6.04197E-002	-3.99460E-004	0.00000E+000	-2.41352E-005	-2.40040E-001	6.04356E-002	3.57710E+000	9	...........
	89	1.2	5.53551E-002	-3.99857E-004	0.00000E+000	-2.21342E-005	-2.40040E-001	5.53617E-002	3.57710E+000	9	...........
	90	1.21333	5.04503E-002	-3.99160E-004	0.00000E+000	-2.01378E-005	-2.40040E-001	5.04541E-002	3.57710E+000	9	...........
	91	1.22667	4.54850E-002	-3.99252E-004	0.00000E+000	-1.81600E-005	-2.40040E-001	4.54924E-002	3.57710E+000	9	...........
	92	1.24	4.05342E-002	-3.98827E-004	0.00000E+000	-1.61661E-005	-2.40040E-001	4.05369E-002	3.57710E+000	9	...........
	93	1.25333	3.56580E-002	-3.98734E-004	0.00000E+000	-1.42181E-005	-2.40040E-001	3.56612E-002	3.57710E+000	9	...........
	94	1.26667	3.08217E-002	-3.97313E-004	0.00000E+000	-1.22459E-005	-2.40040E-001	3.08180E-002	3.57710E+000	9	...........
	95	1.28	2.59815E-002	-3.99091E-004	0.00000E+000	-1.03690E-005	-2.40040E-001	2.59842E-002	3.57710E+000	9	...........
	96	1.29333	2.11475E-002	-3.99011E-004	0.00000E+000	-8.43808E-006	-2.40040E-001	2.11395E-002	3.57710E+000	9	...........
	97	1.30667	1.64462E-002	-3.98915E-004	0.00000E+000	-6.56063E-006	-2.40040E-001	1.64417E-002	3.57710E+000	9	...........
	98	1.32	1.16942E-002	-3.98429E-004	0.00000E+000	-4.65930E-006	-2.40040E-001	1.16828E-002	3.57710E+000	9	...........
	99	1.33333	6.91842E-003	-3.98177E-004	0.00000E+000	-2.75475E-006	-2.40040E-001	6.90202E-003	3.57710E+000	9	...........
	100	1.34667	2.20596E-003	-3.97499E-004	0.00000E+000	-8.76866E-007	-2.40040E-001	2.18932E-003	3.57710E+000	9	...........
	101	1.34833	-3.84859E-004	-3.98164E-004	0.00000E+000	1.53237E-007	-2.40040E-001	-4.06640E-004	3.57710E+000	9	...........
STARTTIMEOFFSET	QUANT	3021.204	Start Time Offset (s)
