EXPLAIN
TAG	PWR800_DISCHARGE
TITLE	LABEL	PWR Cyclic Charge Discharge (Cell) - Discharge Step	Test &Identifier
DATE	LABEL	12-7-2017	Date
TIME	LABEL	14:54:33	Time
NOTES	NOTES	3	&Notes...
	supercap test cell
	0.4mg
	6M KOH
PSTAT	PSTAT	IFC5000-01520	Potentiostat
CAPACITY	QUANT	1.00000E-003	Capacity (A-hr)
CELLTYPE	SELECTOR	1	&Cell Type
WORKINGCONNECTION	SELECTOR	0	&Working Lead
MAXDISCHARGETIME	VARIABLEANDUNITS	1.00000E+002	s	1.00000E+002	second(s)	Max &Discharge Time
DISCHARGEMODE	MULTIPARAM	0	4.00000E-004	&Discharge Mode	Constant Current	Amp(s)
SAMPLETIME	QUANT	1.00000E-002	Sa&mple Period (s)
DISCHARGESTOPAT1	MULTIPARAM	3	0.00000E+000	Discharge Stop At &1	Voltage < Limit	V
DISCHARGESTOPAT2	MULTIPARAM	0	0.00000E+000	Discharge Stop At &2	None	N/A
AESBHCSELECTOR	TOGGLE	F	Save Both Half Cells
IRCOMP	TOGGLE	F	IR &Measure
EOC	QUANT	0	Open Circuit (V)
SEQUENCER	TOGGLE	TRUE	Run as Sequence
PSTATMODEL	IQUANT	53	Pstat Model
PSTATSECTION	LABEL	IFC5000-01520	Pstat Section
PSTATSERIALNO	LABEL	01520	Pstat Serial Number
CTRLMODE	IQUANT	0	Control Mode
ELECTROMETER	IQUANT	1	RE=0 or CS=1
IESTAB	IQUANT	0	I/E Stability
CASPEED	IQUANT	4	Control Amp Speed
CONVENTION	IQUANT	1	Current Convention
ICHRANGE	IQUANT	2	Ich Range
ICHRANGEMODE	TOGGLE	T	Ich Auto Range
ICHOFFSETENABLE	TOGGLE	F	Ich Offset Enable
ICHOFFSET	QUANT	0	Ich Offset (V)
ICHFILTER	IQUANT	1	Ich Filter
VCHRANGE	IQUANT	2	Vch Range
VCHRANGEMODE	TOGGLE	T	Vch Auto Range
VCHOFFSETENABLE	TOGGLE	F	Vch Offset Enable
VCHOFFSET	QUANT	0	Vch Offset (V)
VCHFILTER	IQUANT	1	Vch Filter
IERANGELOWERLIMIT	IQUANT	9	I/E Range Lower Limit
IERANGEMODE	TOGGLE	F	I/E AutoRange
IERANGE	IQUANT	9	I/E Range
ACHSELECT	IQUANT	1	Ach Select
ACHRANGE	IQUANT	2	Ach Range
ACHOFFSETENABLE	TOGGLE	F	Ach Offset Enable
ACHOFFSET	QUANT	0	Ach Offset (V)
ACHFILTER	IQUANT	1	Ach Filter
CABLEID	IQUANT	14	Cable ID
DCCALDATE	LABEL	5-7-2017	DC Calibration Date
ACCALDATE	LABEL	12/3/2015	AC Calibration Date
FRAMEWORKVERSION	QUANT	7.01	Framework Version
INSTRUMENTVERSION	LABEL	4.00	Instrument Version
CURVE	TABLE	112
	Pt	T	Vf	Im	Vu	Pwr	Sig	Ach	Temp	IERange	Over
	#	s	V	A	V	W	V	V	deg C	#	bits
	0	0.013333	6.98895E-001	-3.98435E-004	0.00000E+000	-2.78464E-004	-2.40040E-001	6.99130E-001	3.57680E+000	9	...........
	1	0.026667	6.86199E-001	-3.97526E-004	0.00000E+000	-2.72782E-004	-2.40040E-001	6.86447E-001	3.57680E+000	9	...........
	2	0.04	6.75126E-001	-3.97384E-004	0.00000E+000	-2.68284E-004	-2.40040E-001	6.75364E-001	3.57680E+000	9	...........
	3	0.053333	6.64978E-001	-3.98593E-004	0.00000E+000	-2.65056E-004	-2.40040E-001	6.65200E-001	3.57680E+000	9	...........
	4	0.066667	6.55342E-001	-3.98773E-004	0.00000E+000	-2.61333E-004	-2.40040E-001	6.55586E-001	3.57680E+000	9	...........
	5	0.08	6.46080E-001	-3.99305E-004	0.00000E+000	-2.57983E-004	-2.40040E-001	6.46326E-001	3.57680E+000	9	...........
	6	0.093333	6.37229E-001	-3.98963E-004	0.00000E+000	-2.54231E-004	-2.40040E-001	6.37447E-001	3.57680E+000	9	...........
	7	0.106667	6.28580E-001	-3.98548E-004	0.00000E+000	-2.50519E-004	-2.40040E-001	6.28789E-001	3.57680E+000	9	...........
	8	0.12	6.20101E-001	-3.99648E-004	0.00000E+000	-2.47822E-004	-2.40040E-001	6.20324E-001	3.57680E+000	9	...........
	9	0.133333	6.11678E-001	-3.97385E-004	0.00000E+000	-2.43072E-004	-2.40040E-001	6.11920E-001	3.57680E+000	9	...........
	10	0.146667	6.03497E-001	-3.99284E-004	0.00000E+000	-2.40967E-004	-2.40040E-001	6.03758E-001	3.57680E+000	9	...........
	11	0.16	5.95453E-001	-3.98649E-004	0.00000E+000	-2.37377E-004	-2.40040E-001	5.95700E-001	3.57680E+000	9	...........
	12	0.173333	5.87434E-001	-3.99492E-004	0.00000E+000	-2.34675E-004	-2.40040E-001	5.87690E-001	3.57680E+000	9	...........
	13	0.186667	5.79447E-001	-3.99155E-004	0.00000E+000	-2.31289E-004	-2.40040E-001	5.79690E-001	3.57680E+000	9	...........
	14	0.2	5.71640E-001	-3.98736E-004	0.00000E+000	-2.27934E-004	-2.40040E-001	5.71842E-001	3.57680E+000	9	...........
	15	0.213333	5.63787E-001	-3.99714E-004	0.00000E+000	-2.25353E-004	-2.40040E-001	5.64018E-001	3.57680E+000	9	...........
	16	0.226667	5.56037E-001	-3.98890E-004	0.00000E+000	-2.21797E-004	-2.40040E-001	5.56242E-001	3.57680E+000	9	...........
	17	0.24	5.48383E-001	-3.99170E-004	0.00000E+000	-2.18898E-004	-2.40040E-001	5.48595E-001	3.57680E+000	9	...........
	18	0.253333	5.40725E-001	-3.98353E-004	0.00000E+000	-2.15399E-004	-2.40040E-001	5.40919E-001	3.57680E+000	9	...........
	19	0.266667	5.33103E-001	-3.99576E-004	0.00000E+000	-2.13015E-004	-2.40040E-001	5.33284E-001	3.57680E+000	9	...........
	20	0.28	5.25577E-001	-3.99697E-004	0.00000E+000	-2.10072E-004	-2.40040E-001	5.25764E-001	3.57680E+000	9	...........
	21	0.293333	5.18127E-001	-3.99073E-004	0.00000E+000	-2.06770E-004	-2.40040E-001	5.18294E-001	3.57680E+000	9	...........
	22	0.306667	5.10676E-001	-3.99320E-004	0.00000E+000	-2.03923E-004	-2.40040E-001	5.10873E-001	3.57680E+000	9	...........
	23	0.32	5.03240E-001	-3.98012E-004	0.00000E+000	-2.00296E-004	-2.40040E-001	5.03463E-001	3.57694E+000	9	...........
	24	0.333333	4.95941E-001	-3.99100E-004	0.00000E+000	-1.97930E-004	-2.40040E-001	4.96131E-001	3.57700E+000	9	...........
	25	0.346667	4.88622E-001	-3.98072E-004	0.00000E+000	-1.94507E-004	-2.40040E-001	4.88804E-001	3.57700E+000	9	...........
	26	0.36	4.81585E-001	-3.97680E-004	0.00000E+000	-1.91517E-004	-2.40040E-001	4.81652E-001	3.57700E+000	9	...........
	27	0.373333	4.74316E-001	-3.98113E-004	0.00000E+000	-1.88832E-004	-2.40040E-001	4.74418E-001	3.57700E+000	9	...........
	28	0.386667	4.67099E-001	-3.99489E-004	0.00000E+000	-1.86601E-004	-2.40040E-001	4.67193E-001	3.57700E+000	9	...........
	29	0.4	4.59995E-001	-3.99228E-004	0.00000E+000	-1.83643E-004	-2.40040E-001	4.60084E-001	3.57700E+000	9	...........
	30	0.413333	4.52925E-001	-3.98640E-004	0.00000E+000	-1.80554E-004	-2.40040E-001	4.53015E-001	3.57700E+000	9	...........
	31	0.426667	4.45900E-001	-3.98787E-004	0.00000E+000	-1.77819E-004	-2.40040E-001	4.45987E-001	3.57700E+000	9	...........
	32	0.44	4.38826E-001	-3.98921E-004	0.00000E+000	-1.75057E-004	-2.40040E-001	4.38916E-001	3.57700E+000	9	...........
	33	0.453333	4.31778E-001	-3.99067E-004	0.00000E+000	-1.72308E-004	-2.40040E-001	4.31857E-001	3.57700E+000	9	...........
	34	0.466667	4.24844E-001	-3.99109E-004	0.00000E+000	-1.69559E-004	-2.40040E-001	4.24927E-001	3.57700E+000	9	...........
	35	0.48	4.17922E-001	-3.99270E-004	0.00000E+000	-1.66863E-004	-2.40040E-001	4.18004E-001	3.57700E+000	9	...........
	36	0.493333	4.11067E-001	-3.99893E-004	0.00000E+000	-1.64383E-004	-2.40040E-001	4.11150E-001	3.57700E+000	9	...........
	37	0.506667	4.04279E-001	-3.98573E-004	0.00000E+000	-1.61135E-004	-2.40040E-001	4.04354E-001	3.57700E+000	9	...........
	38	0.52	3.97560E-001	-3.98560E-004	0.00000E+000	-1.58452E-004	-2.40040E-001	3.97638E-001	3.57700E+000	9	...........
	39	0.533333	3.90817E-001	-3.99025E-004	0.00000E+000	-1.55946E-004	-2.40040E-001	3.90885E-001	3.57700E+000	9	...........
	40	0.546667	3.84084E-001	-3.98883E-004	0.00000E+000	-1.53205E-004	-2.40040E-001	3.84152E-001	3.57700E+000	9	...........
	41	0.56	3.77411E-001	-3.99560E-004	0.00000E+000	-1.50798E-004	-2.40040E-001	3.77477E-001	3.57700E+000	9	...........
	42	0.573333	3.70692E-001	-3.98242E-004	0.00000E+000	-1.47625E-004	-2.40040E-001	3.70756E-001	3.57700E+000	9	...........
	43	0.586667	3.64038E-001	-3.98985E-004	0.00000E+000	-1.45246E-004	-2.40040E-001	3.64107E-001	3.57700E+000	9	...........
	44	0.6	3.57584E-001	-3.99506E-004	0.00000E+000	-1.42857E-004	-2.40040E-001	3.57646E-001	3.57700E+000	9	...........
	45	0.613333	3.51106E-001	-3.97590E-004	0.00000E+000	-1.39596E-004	-2.40040E-001	3.51168E-001	3.57700E+000	9	...........
	46	0.626667	3.44702E-001	-3.99272E-004	0.00000E+000	-1.37630E-004	-2.40040E-001	3.44764E-001	3.57700E+000	9	...........
	47	0.64	3.38239E-001	-3.98711E-004	0.00000E+000	-1.34860E-004	-2.40040E-001	3.38299E-001	3.57700E+000	9	...........
	48	0.653333	3.31812E-001	-3.99353E-004	0.00000E+000	-1.32510E-004	-2.40040E-001	3.31874E-001	3.57700E+000	9	...........
	49	0.666667	3.25493E-001	-3.98560E-004	0.00000E+000	-1.29729E-004	-2.40040E-001	3.25556E-001	3.57700E+000	9	...........
	50	0.68	3.19314E-001	-3.99043E-004	0.00000E+000	-1.27420E-004	-2.40040E-001	3.19374E-001	3.57700E+000	9	...........
	51	0.693333	3.13082E-001	-3.99404E-004	0.00000E+000	-1.25046E-004	-2.40040E-001	3.13142E-001	3.57700E+000	9	...........
	52	0.706667	3.06929E-001	-3.98853E-004	0.00000E+000	-1.22420E-004	-2.40040E-001	3.06986E-001	3.57700E+000	9	...........
	53	0.72	3.00683E-001	-3.98723E-004	0.00000E+000	-1.19889E-004	-2.40040E-001	3.00738E-001	3.57700E+000	9	...........
	54	0.733333	2.94468E-001	-3.99052E-004	0.00000E+000	-1.17508E-004	-2.40040E-001	2.94525E-001	3.57700E+000	9	...........
	55	0.746667	2.88270E-001	-3.97444E-004	0.00000E+000	-1.14572E-004	-2.40040E-001	2.88327E-001	3.57700E+000	9	...........
	56	0.76	2.82136E-001	-3.97636E-004	0.00000E+000	-1.12187E-004	-2.40040E-001	2.82194E-001	3.57700E+000	9	...........
	57	0.773333	2.76121E-001	-3.99288E-004	0.00000E+000	-1.10252E-004	-2.40040E-001	2.76177E-001	3.57700E+000	9	...........
	58	0.786667	2.70047E-001	-3.99316E-004	0.00000E+000	-1.07834E-004	-2.40040E-001	2.70097E-001	3.57700E+000	9	...........
	59	0.8	2.64017E-001	-3.98719E-004	0.00000E+000	-1.05268E-004	-2.40040E-001	2.64068E-001	3.57700E+000	9	...........
	60	0.813333	2.58029E-001	-3.98675E-004	0.00000E+000	-1.02870E-004	-2.40040E-001	2.58082E-001	3.57700E+000	9	...........
	61	0.826667	2.52125E-001	-3.97425E-004	0.00000E+000	-1.00201E-004	-2.40040E-001	2.52175E-001	3.57700E+000	9	...........
	62	0.84	2.46250E-001	-3.98721E-004	0.00000E+000	-9.81851E-005	-2.40040E-001	2.46299E-001	3.57700E+000	9	...........
	63	0.853333	2.40482E-001	-3.99746E-004	0.00000E+000	-9.61318E-005	-2.40040E-001	2.40524E-001	3.57700E+000	9	...........
	64	0.866667	2.34585E-001	-3.99095E-004	0.00000E+000	-9.36216E-005	-2.40040E-001	2.34626E-001	3.57700E+000	9	...........
	65	0.88	2.28761E-001	-3.98424E-004	0.00000E+000	-9.11437E-005	-2.40040E-001	2.28800E-001	3.57700E+000	9	...........
	66	0.893333	2.23011E-001	-3.99109E-004	0.00000E+000	-8.90058E-005	-2.40040E-001	2.23051E-001	3.57700E+000	9	...........
	67	0.906667	2.17315E-001	-3.99938E-004	0.00000E+000	-8.69124E-005	-2.40040E-001	2.17347E-001	3.57700E+000	9	...........
	68	0.92	2.11569E-001	-3.99156E-004	0.00000E+000	-8.44489E-005	-2.40040E-001	2.11596E-001	3.57700E+000	9	...........
	69	0.933333	2.05960E-001	-3.98100E-004	0.00000E+000	-8.19927E-005	-2.40040E-001	2.05993E-001	3.57700E+000	9	...........
	70	0.946667	2.00365E-001	-3.99047E-004	0.00000E+000	-7.99550E-005	-2.40040E-001	2.00401E-001	3.57700E+000	9	...........
	71	0.96	1.94850E-001	-3.99283E-004	0.00000E+000	-7.78004E-005	-2.40040E-001	1.94885E-001	3.57700E+000	9	...........
	72	0.97333	1.89248E-001	-3.99618E-004	0.00000E+000	-7.56267E-005	-2.40040E-001	1.89279E-001	3.57700E+000	9	...........
	73	0.98667	1.83737E-001	-3.98604E-004	0.00000E+000	-7.32382E-005	-2.40040E-001	1.83767E-001	3.57700E+000	9	...........
	74	1	1.78316E-001	-3.98457E-004	0.00000E+000	-7.10512E-005	-2.40040E-001	1.78349E-001	3.57700E+000	9	...........
	75	1.01333	1.72995E-001	-3.97530E-004	0.00000E+000	-6.87708E-005	-2.40040E-001	1.73029E-001	3.57700E+000	9	...........
	76	1.02667	1.67543E-001	-3.98689E-004	0.00000E+000	-6.67974E-005	-2.40040E-001	1.67576E-001	3.57700E+000	9	...........
	77	1.04	1.62194E-001	-3.98457E-004	0.00000E+000	-6.46274E-005	-2.40040E-001	1.62222E-001	3.57700E+000	9	...........
	78	1.05333	1.56843E-001	-3.98256E-004	0.00000E+000	-6.24637E-005	-2.40040E-001	1.56869E-001	3.57700E+000	9	...........
	79	1.06667	1.51487E-001	-3.99069E-004	0.00000E+000	-6.04537E-005	-2.40040E-001	1.51510E-001	3.57700E+000	9	...........
	80	1.08	1.46220E-001	-3.98704E-004	0.00000E+000	-5.82985E-005	-2.40040E-001	1.46242E-001	3.57700E+000	9	...........
	81	1.09333	1.40995E-001	-3.98912E-004	0.00000E+000	-5.62446E-005	-2.40040E-001	1.41018E-001	3.57700E+000	9	...........
	82	1.10667	1.35849E-001	-3.99489E-004	0.00000E+000	-5.42700E-005	-2.40040E-001	1.35870E-001	3.57700E+000	9	...........
	83	1.12	1.30655E-001	-3.98598E-004	0.00000E+000	-5.20789E-005	-2.40040E-001	1.30680E-001	3.57700E+000	9	...........
	84	1.13333	1.25475E-001	-3.99517E-004	0.00000E+000	-5.01292E-005	-2.40040E-001	1.25495E-001	3.57700E+000	9	...........
	85	1.14667	1.20341E-001	-3.99048E-004	0.00000E+000	-4.80218E-005	-2.40040E-001	1.20361E-001	3.57700E+000	9	...........
	86	1.16	1.15312E-001	-3.96753E-004	0.00000E+000	-4.57504E-005	-2.40040E-001	1.15327E-001	3.57700E+000	9	...........
	87	1.17333	1.10315E-001	-3.98663E-004	0.00000E+000	-4.39784E-005	-2.40040E-001	1.10334E-001	3.57700E+000	9	...........
	88	1.18667	1.05344E-001	-4.00408E-004	0.00000E+000	-4.21804E-005	-2.40040E-001	1.05367E-001	3.57700E+000	9	...........
	89	1.2	1.00410E-001	-3.98442E-004	0.00000E+000	-4.00077E-005	-2.40040E-001	1.00431E-001	3.57700E+000	9	...........
	90	1.21333	9.54191E-002	-3.99233E-004	0.00000E+000	-3.80945E-005	-2.40040E-001	9.54409E-002	3.57700E+000	9	...........
	91	1.22667	9.04654E-002	-3.98029E-004	0.00000E+000	-3.60079E-005	-2.40040E-001	9.04838E-002	3.57700E+000	9	...........
	92	1.24	8.55609E-002	-3.99439E-004	0.00000E+000	-3.41763E-005	-2.40040E-001	8.55778E-002	3.57700E+000	9	...........
	93	1.25333	8.07253E-002	-3.98601E-004	0.00000E+000	-3.21772E-005	-2.40040E-001	8.07372E-002	3.57700E+000	9	...........
	94	1.26667	7.59231E-002	-3.99384E-004	0.00000E+000	-3.03225E-005	-2.40040E-001	7.59311E-002	3.57700E+000	9	...........
	95	1.28	7.11233E-002	-3.97691E-004	0.00000E+000	-2.82851E-005	-2.40040E-001	7.11365E-002	3.57700E+000	9	...........
	96	1.29333	6.62742E-002	-3.99552E-004	0.00000E+000	-2.64800E-005	-2.40040E-001	6.62896E-002	3.57700E+000	9	...........
	97	1.30667	6.15189E-002	-3.98871E-004	0.00000E+000	-2.45381E-005	-2.40040E-001	6.15266E-002	3.57700E+000	9	...........
	98	1.32	5.68446E-002	-3.99005E-004	0.00000E+000	-2.26813E-005	-2.40040E-001	5.68508E-002	3.57643E+000	9	...........
	99	1.33333	5.21387E-002	-3.98080E-004	0.00000E+000	-2.07554E-005	-2.40040E-001	5.21492E-002	3.57620E+000	9	...........
	100	1.34667	4.74588E-002	-3.98956E-004	0.00000E+000	-1.89340E-005	-2.40040E-001	4.74583E-002	3.57620E+000	9	...........
	101	1.36	4.28270E-002	-3.98567E-004	0.00000E+000	-1.70694E-005	-2.40040E-001	4.28344E-002	3.57620E+000	9	...........
	102	1.37333	3.80639E-002	-3.98691E-004	0.00000E+000	-1.51757E-005	-2.40040E-001	3.80639E-002	3.57620E+000	9	...........
	103	1.38667	3.35059E-002	-3.98802E-004	0.00000E+000	-1.33622E-005	-2.40040E-001	3.35075E-002	3.57620E+000	9	...........
	104	1.4	2.90273E-002	-3.99228E-004	0.00000E+000	-1.15885E-005	-2.40040E-001	2.90265E-002	3.57620E+000	9	...........
	105	1.41333	2.44734E-002	-3.98996E-004	0.00000E+000	-9.76480E-006	-2.40040E-001	2.44713E-002	3.57620E+000	9	...........
	106	1.42667	2.00132E-002	-3.98227E-004	0.00000E+000	-7.96979E-006	-2.40040E-001	2.00101E-002	3.57620E+000	9	...........
	107	1.44	1.55055E-002	-3.98585E-004	0.00000E+000	-6.18028E-006	-2.40040E-001	1.54961E-002	3.57620E+000	9	...........
	108	1.45333	1.10862E-002	-3.98814E-004	0.00000E+000	-4.42133E-006	-2.40040E-001	1.10743E-002	3.57620E+000	9	...........
	109	1.46667	6.71339E-003	-3.98253E-004	0.00000E+000	-2.67363E-006	-2.40040E-001	6.70219E-003	3.57620E+000	9	...........
	110	1.48	2.29220E-003	-3.96622E-004	0.00000E+000	-9.09140E-007	-2.40040E-001	2.27648E-003	3.57620E+000	9	...........
	111	1.48167	-1.76729E-004	-3.97964E-004	0.00000E+000	7.03319E-008	-2.40040E-001	-1.82594E-004	3.57620E+000	9	...........
STARTTIMEOFFSET	QUANT	1716.921	Start Time Offset (s)
