EXPLAIN
TAG	PWR800_DISCHARGE
TITLE	LABEL	PWR Cyclic Charge Discharge (Cell) - Discharge Step	Test &Identifier
DATE	LABEL	12-7-2017	Date
TIME	LABEL	15:08:48	Time
NOTES	NOTES	3	&Notes...
	supercap test cell
	0.4mg
	6M KOH
PSTAT	PSTAT	IFC5000-01520	Potentiostat
CAPACITY	QUANT	1.00000E-003	Capacity (A-hr)
CELLTYPE	SELECTOR	1	&Cell Type
WORKINGCONNECTION	SELECTOR	0	&Working Lead
MAXDISCHARGETIME	VARIABLEANDUNITS	1.00000E+002	s	1.00000E+002	second(s)	Max &Discharge Time
DISCHARGEMODE	MULTIPARAM	0	4.00000E-004	&Discharge Mode	Constant Current	Amp(s)
SAMPLETIME	QUANT	1.00000E-002	Sa&mple Period (s)
DISCHARGESTOPAT1	MULTIPARAM	3	0.00000E+000	Discharge Stop At &1	Voltage < Limit	V
DISCHARGESTOPAT2	MULTIPARAM	0	0.00000E+000	Discharge Stop At &2	None	N/A
AESBHCSELECTOR	TOGGLE	F	Save Both Half Cells
IRCOMP	TOGGLE	F	IR &Measure
EOC	QUANT	0	Open Circuit (V)
SEQUENCER	TOGGLE	TRUE	Run as Sequence
PSTATMODEL	IQUANT	53	Pstat Model
PSTATSECTION	LABEL	IFC5000-01520	Pstat Section
PSTATSERIALNO	LABEL	01520	Pstat Serial Number
CTRLMODE	IQUANT	0	Control Mode
ELECTROMETER	IQUANT	1	RE=0 or CS=1
IESTAB	IQUANT	0	I/E Stability
CASPEED	IQUANT	4	Control Amp Speed
CONVENTION	IQUANT	1	Current Convention
ICHRANGE	IQUANT	2	Ich Range
ICHRANGEMODE	TOGGLE	T	Ich Auto Range
ICHOFFSETENABLE	TOGGLE	F	Ich Offset Enable
ICHOFFSET	QUANT	0	Ich Offset (V)
ICHFILTER	IQUANT	1	Ich Filter
VCHRANGE	IQUANT	2	Vch Range
VCHRANGEMODE	TOGGLE	T	Vch Auto Range
VCHOFFSETENABLE	TOGGLE	F	Vch Offset Enable
VCHOFFSET	QUANT	0	Vch Offset (V)
VCHFILTER	IQUANT	1	Vch Filter
IERANGELOWERLIMIT	IQUANT	9	I/E Range Lower Limit
IERANGEMODE	TOGGLE	F	I/E AutoRange
IERANGE	IQUANT	9	I/E Range
ACHSELECT	IQUANT	1	Ach Select
ACHRANGE	IQUANT	2	Ach Range
ACHOFFSETENABLE	TOGGLE	F	Ach Offset Enable
ACHOFFSET	QUANT	0	Ach Offset (V)
ACHFILTER	IQUANT	1	Ach Filter
CABLEID	IQUANT	14	Cable ID
DCCALDATE	LABEL	5-7-2017	DC Calibration Date
ACCALDATE	LABEL	12/3/2015	AC Calibration Date
FRAMEWORKVERSION	QUANT	7.01	Framework Version
INSTRUMENTVERSION	LABEL	4.00	Instrument Version
CURVE	TABLE	106
	Pt	T	Vf	Im	Vu	Pwr	Sig	Ach	Temp	IERange	Over
	#	s	V	A	V	W	V	V	deg C	#	bits
	0	0.013333	6.89171E-001	-3.99084E-004	0.00000E+000	-2.75037E-004	-2.40040E-001	6.89400E-001	3.57630E+000	9	...........
	1	0.026667	6.75907E-001	-3.98965E-004	0.00000E+000	-2.69663E-004	-2.40040E-001	6.76129E-001	3.57630E+000	9	...........
	2	0.04	6.64281E-001	-3.98555E-004	0.00000E+000	-2.64752E-004	-2.40040E-001	6.64495E-001	3.57630E+000	9	...........
	3	0.053333	6.53622E-001	-3.98801E-004	0.00000E+000	-2.60665E-004	-2.40040E-001	6.53824E-001	3.57630E+000	9	...........
	4	0.066667	6.43642E-001	-3.98476E-004	0.00000E+000	-2.56476E-004	-2.40040E-001	6.43841E-001	3.57630E+000	9	...........
	5	0.08	6.34025E-001	-3.99049E-004	0.00000E+000	-2.53007E-004	-2.40040E-001	6.34234E-001	3.57630E+000	9	...........
	6	0.093333	6.24862E-001	-3.98046E-004	0.00000E+000	-2.48724E-004	-2.40040E-001	6.25074E-001	3.57630E+000	9	...........
	7	0.106667	6.15890E-001	-3.97708E-004	0.00000E+000	-2.44945E-004	-2.40040E-001	6.16104E-001	3.57630E+000	9	...........
	8	0.12	6.07115E-001	-3.99813E-004	0.00000E+000	-2.42732E-004	-2.40040E-001	6.07353E-001	3.57630E+000	9	...........
	9	0.133333	5.98553E-001	-3.98386E-004	0.00000E+000	-2.38455E-004	-2.40040E-001	5.98753E-001	3.57630E+000	9	...........
	10	0.146667	5.90100E-001	-3.98072E-004	0.00000E+000	-2.34902E-004	-2.40040E-001	5.90316E-001	3.57630E+000	9	...........
	11	0.16	5.81720E-001	-3.98693E-004	0.00000E+000	-2.31928E-004	-2.40040E-001	5.81932E-001	3.57630E+000	9	...........
	12	0.173333	5.73463E-001	-3.98352E-004	0.00000E+000	-2.28440E-004	-2.40040E-001	5.73670E-001	3.57630E+000	9	...........
	13	0.186667	5.65274E-001	-3.98852E-004	0.00000E+000	-2.25461E-004	-2.40040E-001	5.65466E-001	3.57630E+000	9	...........
	14	0.2	5.57115E-001	-3.99548E-004	0.00000E+000	-2.22594E-004	-2.40040E-001	5.57321E-001	3.57630E+000	9	...........
	15	0.213333	5.49082E-001	-3.98509E-004	0.00000E+000	-2.18814E-004	-2.40040E-001	5.49270E-001	3.57630E+000	9	...........
	16	0.226667	5.41095E-001	-3.98652E-004	0.00000E+000	-2.15709E-004	-2.40040E-001	5.41285E-001	3.57630E+000	9	...........
	17	0.24	5.33183E-001	-3.97640E-004	0.00000E+000	-2.12015E-004	-2.40040E-001	5.33387E-001	3.57630E+000	9	...........
	18	0.253333	5.25359E-001	-3.98427E-004	0.00000E+000	-2.09317E-004	-2.40040E-001	5.25557E-001	3.57630E+000	9	...........
	19	0.266667	5.17545E-001	-3.99170E-004	0.00000E+000	-2.06588E-004	-2.40040E-001	5.17733E-001	3.57630E+000	9	...........
	20	0.28	5.09712E-001	-3.99518E-004	0.00000E+000	-2.03639E-004	-2.40040E-001	5.09924E-001	3.57630E+000	9	...........
	21	0.293333	5.01989E-001	-3.97690E-004	0.00000E+000	-1.99636E-004	-2.40040E-001	5.02221E-001	3.57630E+000	9	...........
	22	0.306667	4.94388E-001	-3.97877E-004	0.00000E+000	-1.96705E-004	-2.40040E-001	4.94598E-001	3.57630E+000	9	...........
	23	0.32	4.86888E-001	-3.98752E-004	0.00000E+000	-1.94147E-004	-2.40040E-001	4.87059E-001	3.57630E+000	9	...........
	24	0.333333	4.79533E-001	-3.99394E-004	0.00000E+000	-1.91523E-004	-2.40040E-001	4.79634E-001	3.57630E+000	9	...........
	25	0.346667	4.72005E-001	-3.99340E-004	0.00000E+000	-1.88490E-004	-2.40040E-001	4.72104E-001	3.57630E+000	9	...........
	26	0.36	4.64550E-001	-3.97801E-004	0.00000E+000	-1.84798E-004	-2.40040E-001	4.64649E-001	3.57630E+000	9	...........
	27	0.373333	4.57122E-001	-3.98080E-004	0.00000E+000	-1.81971E-004	-2.40040E-001	4.57216E-001	3.57630E+000	9	...........
	28	0.386667	4.49737E-001	-3.98359E-004	0.00000E+000	-1.79157E-004	-2.40040E-001	4.49832E-001	3.57630E+000	9	...........
	29	0.4	4.42349E-001	-3.99143E-004	0.00000E+000	-1.76560E-004	-2.40040E-001	4.42445E-001	3.57630E+000	9	...........
	30	0.413333	4.35003E-001	-3.98344E-004	0.00000E+000	-1.73281E-004	-2.40040E-001	4.35098E-001	3.57630E+000	9	...........
	31	0.426667	4.27668E-001	-3.98933E-004	0.00000E+000	-1.70611E-004	-2.40040E-001	4.27756E-001	3.57630E+000	9	...........
	32	0.44	4.20405E-001	-4.00216E-004	0.00000E+000	-1.68253E-004	-2.40040E-001	4.20493E-001	3.57630E+000	9	...........
	33	0.453333	4.13236E-001	-3.98508E-004	0.00000E+000	-1.64678E-004	-2.40040E-001	4.13325E-001	3.57630E+000	9	...........
	34	0.466667	4.06039E-001	-4.00389E-004	0.00000E+000	-1.62574E-004	-2.40040E-001	4.06119E-001	3.57630E+000	9	...........
	35	0.48	3.98862E-001	-3.98428E-004	0.00000E+000	-1.58918E-004	-2.40040E-001	3.98940E-001	3.57630E+000	9	...........
	36	0.493333	3.91855E-001	-3.98963E-004	0.00000E+000	-1.56335E-004	-2.40040E-001	3.91924E-001	3.57630E+000	9	...........
	37	0.506667	3.84851E-001	-3.99643E-004	0.00000E+000	-1.53803E-004	-2.40040E-001	3.84921E-001	3.57630E+000	9	...........
	38	0.52	3.77914E-001	-3.98479E-004	0.00000E+000	-1.50591E-004	-2.40040E-001	3.77986E-001	3.57630E+000	9	...........
	39	0.533333	3.71026E-001	-3.99536E-004	0.00000E+000	-1.48238E-004	-2.40040E-001	3.71098E-001	3.57630E+000	9	...........
	40	0.546667	3.64194E-001	-3.98520E-004	0.00000E+000	-1.45139E-004	-2.40040E-001	3.64263E-001	3.57630E+000	9	...........
	41	0.56	3.57356E-001	-3.98200E-004	0.00000E+000	-1.42299E-004	-2.40040E-001	3.57422E-001	3.57630E+000	9	...........
	42	0.573333	3.50570E-001	-3.97730E-004	0.00000E+000	-1.39432E-004	-2.40040E-001	3.50632E-001	3.57630E+000	9	...........
	43	0.586667	3.43913E-001	-3.98871E-004	0.00000E+000	-1.37177E-004	-2.40040E-001	3.43973E-001	3.57630E+000	9	...........
	44	0.6	3.37220E-001	-3.97704E-004	0.00000E+000	-1.34114E-004	-2.40040E-001	3.37277E-001	3.57630E+000	9	...........
	45	0.613333	3.30530E-001	-3.98247E-004	0.00000E+000	-1.31632E-004	-2.40040E-001	3.30590E-001	3.57630E+000	9	...........
	46	0.626667	3.23852E-001	-3.98519E-004	0.00000E+000	-1.29061E-004	-2.40040E-001	3.23909E-001	3.57630E+000	9	...........
	47	0.64	3.17202E-001	-3.99045E-004	0.00000E+000	-1.26578E-004	-2.40040E-001	3.17265E-001	3.57630E+000	9	...........
	48	0.653333	3.10581E-001	-3.98703E-004	0.00000E+000	-1.23829E-004	-2.40040E-001	3.10638E-001	3.57630E+000	9	...........
	49	0.666667	3.04051E-001	-3.98744E-004	0.00000E+000	-1.21238E-004	-2.40040E-001	3.04107E-001	3.57630E+000	9	...........
	50	0.68	2.97639E-001	-3.99601E-004	0.00000E+000	-1.18937E-004	-2.40040E-001	2.97698E-001	3.57630E+000	9	...........
	51	0.693333	2.91235E-001	-3.97829E-004	0.00000E+000	-1.15862E-004	-2.40040E-001	2.91289E-001	3.57630E+000	9	...........
	52	0.706667	2.84860E-001	-3.99013E-004	0.00000E+000	-1.13663E-004	-2.40040E-001	2.84920E-001	3.57630E+000	9	...........
	53	0.72	2.78548E-001	-3.97450E-004	0.00000E+000	-1.10709E-004	-2.40040E-001	2.78604E-001	3.57630E+000	9	...........
	54	0.733333	2.72203E-001	-3.99444E-004	0.00000E+000	-1.08730E-004	-2.40040E-001	2.72266E-001	3.57630E+000	9	...........
	55	0.746667	2.66013E-001	-3.98869E-004	0.00000E+000	-1.06104E-004	-2.40040E-001	2.66066E-001	3.57630E+000	9	...........
	56	0.76	2.59789E-001	-3.98905E-004	0.00000E+000	-1.03631E-004	-2.40040E-001	2.59844E-001	3.57630E+000	9	...........
	57	0.773333	2.53584E-001	-3.97906E-004	0.00000E+000	-1.00903E-004	-2.40040E-001	2.53642E-001	3.57630E+000	9	...........
	58	0.786667	2.47442E-001	-3.99126E-004	0.00000E+000	-9.87606E-005	-2.40040E-001	2.47486E-001	3.57630E+000	9	...........
	59	0.8	2.41365E-001	-3.98977E-004	0.00000E+000	-9.62990E-005	-2.40040E-001	2.41410E-001	3.57630E+000	9	...........
	60	0.813333	2.35297E-001	-3.98105E-004	0.00000E+000	-9.36731E-005	-2.40040E-001	2.35341E-001	3.57630E+000	9	...........
	61	0.826667	2.29266E-001	-3.99608E-004	0.00000E+000	-9.16168E-005	-2.40040E-001	2.29315E-001	3.57630E+000	9	...........
	62	0.84	2.23252E-001	-3.98292E-004	0.00000E+000	-8.89192E-005	-2.40040E-001	2.23297E-001	3.57630E+000	9	...........
	63	0.853333	2.17331E-001	-3.98695E-004	0.00000E+000	-8.66487E-005	-2.40040E-001	2.17369E-001	3.57764E+000	9	...........
	64	0.866667	2.11335E-001	-4.00590E-004	0.00000E+000	-8.46585E-005	-2.40040E-001	2.11371E-001	3.57770E+000	9	...........
	65	0.88	2.05494E-001	-3.98977E-004	0.00000E+000	-8.19873E-005	-2.40040E-001	2.05527E-001	3.57770E+000	9	...........
	66	0.893333	1.99670E-001	-3.98175E-004	0.00000E+000	-7.95034E-005	-2.40040E-001	1.99712E-001	3.57770E+000	9	...........
	67	0.906667	1.93962E-001	-3.98854E-004	0.00000E+000	-7.73624E-005	-2.40040E-001	1.94001E-001	3.57770E+000	9	...........
	68	0.92	1.88250E-001	-3.98101E-004	0.00000E+000	-7.49423E-005	-2.40040E-001	1.88289E-001	3.57770E+000	9	...........
	69	0.933333	1.82593E-001	-3.98448E-004	0.00000E+000	-7.27536E-005	-2.40040E-001	1.82626E-001	3.57770E+000	9	...........
	70	0.946667	1.76954E-001	-3.98424E-004	0.00000E+000	-7.05028E-005	-2.40040E-001	1.76986E-001	3.57770E+000	9	...........
	71	0.96	1.71273E-001	-3.98234E-004	0.00000E+000	-6.82068E-005	-2.40040E-001	1.71305E-001	3.57770E+000	9	...........
	72	0.97333	1.65641E-001	-3.98279E-004	0.00000E+000	-6.59712E-005	-2.40040E-001	1.65670E-001	3.57770E+000	9	...........
	73	0.98667	1.60090E-001	-3.98704E-004	0.00000E+000	-6.38285E-005	-2.40040E-001	1.60117E-001	3.57770E+000	9	...........
	74	1	1.54526E-001	-3.99784E-004	0.00000E+000	-6.17769E-005	-2.40040E-001	1.54546E-001	3.57770E+000	9	...........
	75	1.01333	1.49115E-001	-3.98866E-004	0.00000E+000	-5.94770E-005	-2.40040E-001	1.49140E-001	3.57770E+000	9	...........
	76	1.02667	1.43698E-001	-3.98362E-004	0.00000E+000	-5.72438E-005	-2.40040E-001	1.43725E-001	3.57770E+000	9	...........
	77	1.04	1.38277E-001	-3.97017E-004	0.00000E+000	-5.48982E-005	-2.40040E-001	1.38300E-001	3.57770E+000	9	...........
	78	1.05333	1.32908E-001	-3.98323E-004	0.00000E+000	-5.29401E-005	-2.40040E-001	1.32930E-001	3.57770E+000	9	...........
	79	1.06667	1.27540E-001	-3.98271E-004	0.00000E+000	-5.07955E-005	-2.40040E-001	1.27560E-001	3.57770E+000	9	...........
	80	1.08	1.22239E-001	-3.99668E-004	0.00000E+000	-4.88552E-005	-2.40040E-001	1.22266E-001	3.57770E+000	9	...........
	81	1.09333	1.16974E-001	-3.98255E-004	0.00000E+000	-4.65857E-005	-2.40040E-001	1.16996E-001	3.57770E+000	9	...........
	82	1.10667	1.11756E-001	-3.98646E-004	0.00000E+000	-4.45510E-005	-2.40040E-001	1.11778E-001	3.57770E+000	9	...........
	83	1.12	1.06548E-001	-3.97660E-004	0.00000E+000	-4.23700E-005	-2.40040E-001	1.06566E-001	3.57770E+000	9	...........
	84	1.13333	1.01392E-001	-3.99757E-004	0.00000E+000	-4.05322E-005	-2.40040E-001	1.01416E-001	3.57770E+000	9	...........
	85	1.14667	9.62890E-002	-3.98884E-004	0.00000E+000	-3.84082E-005	-2.40040E-001	9.63078E-002	3.57770E+000	9	...........
	86	1.16	9.12160E-002	-3.98115E-004	0.00000E+000	-3.63145E-005	-2.40040E-001	9.12301E-002	3.57770E+000	9	...........
	87	1.17333	8.61439E-002	-3.98427E-004	0.00000E+000	-3.43220E-005	-2.40040E-001	8.61607E-002	3.57770E+000	9	...........
	88	1.18667	8.11017E-002	-3.98720E-004	0.00000E+000	-3.23369E-005	-2.40040E-001	8.11121E-002	3.57770E+000	9	...........
	89	1.2	7.61449E-002	-3.99279E-004	0.00000E+000	-3.04031E-005	-2.40040E-001	7.61589E-002	3.57770E+000	9	...........
	90	1.21333	7.11223E-002	-3.99141E-004	0.00000E+000	-2.83878E-005	-2.40040E-001	7.11317E-002	3.57770E+000	9	...........
	91	1.22667	6.61757E-002	-3.97994E-004	0.00000E+000	-2.63375E-005	-2.40040E-001	6.61840E-002	3.57770E+000	9	...........
	92	1.24	6.12102E-002	-3.98778E-004	0.00000E+000	-2.44093E-005	-2.40040E-001	6.12183E-002	3.57770E+000	9	...........
	93	1.25333	5.63190E-002	-3.98417E-004	0.00000E+000	-2.24384E-005	-2.40040E-001	5.63269E-002	3.57770E+000	9	...........
	94	1.26667	5.15033E-002	-3.99716E-004	0.00000E+000	-2.05867E-005	-2.40040E-001	5.15108E-002	3.57770E+000	9	...........
	95	1.28	4.67319E-002	-3.98796E-004	0.00000E+000	-1.86365E-005	-2.40040E-001	4.67349E-002	3.57770E+000	9	...........
	96	1.29333	4.19232E-002	-3.99740E-004	0.00000E+000	-1.67584E-005	-2.40040E-001	4.19269E-002	3.57770E+000	9	...........
	97	1.30667	3.72190E-002	-3.97864E-004	0.00000E+000	-1.48081E-005	-2.40040E-001	3.72213E-002	3.57770E+000	9	...........
	98	1.32	3.24822E-002	-3.98998E-004	0.00000E+000	-1.29603E-005	-2.40040E-001	3.24789E-002	3.57770E+000	9	...........
	99	1.33333	2.77813E-002	-3.98719E-004	0.00000E+000	-1.10769E-005	-2.40040E-001	2.77805E-002	3.57770E+000	9	...........
	100	1.34667	2.31638E-002	-3.98655E-004	0.00000E+000	-9.23437E-006	-2.40040E-001	2.31548E-002	3.57770E+000	9	...........
	101	1.36	1.84774E-002	-3.97598E-004	0.00000E+000	-7.34657E-006	-2.40040E-001	1.84638E-002	3.57770E+000	9	...........
	102	1.37333	1.38979E-002	-3.98575E-004	0.00000E+000	-5.53936E-006	-2.40040E-001	1.38850E-002	3.57770E+000	9	...........
	103	1.38667	9.27339E-003	-4.00240E-004	0.00000E+000	-3.71158E-006	-2.40040E-001	9.25524E-003	3.57770E+000	9	...........
	104	1.4	4.73132E-003	-3.98053E-004	0.00000E+000	-1.88331E-006	-2.40040E-001	4.71584E-003	3.57770E+000	9	...........
	105	1.40833	1.00463E-003	-3.98171E-004	0.00000E+000	-4.00016E-007	-2.40040E-001	9.76216E-004	3.57770E+000	9	...........
STARTTIMEOFFSET	QUANT	2384.69	Start Time Offset (s)
