EXPLAIN
TAG	PWR800_DISCHARGE
TITLE	LABEL	PWR Cyclic Charge Discharge (Cell) - Discharge Step	Test &Identifier
DATE	LABEL	12-7-2017	Date
TIME	LABEL	14:33:35	Time
NOTES	NOTES	3	&Notes...
	supercap test cell
	0.4mg
	6M KOH
PSTAT	PSTAT	IFC5000-01520	Potentiostat
CAPACITY	QUANT	1.00000E-003	Capacity (A-hr)
CELLTYPE	SELECTOR	1	&Cell Type
WORKINGCONNECTION	SELECTOR	0	&Working Lead
MAXDISCHARGETIME	VARIABLEANDUNITS	1.00000E+002	s	1.00000E+002	second(s)	Max &Discharge Time
DISCHARGEMODE	MULTIPARAM	0	4.00000E-004	&Discharge Mode	Constant Current	Amp(s)
SAMPLETIME	QUANT	1.00000E-002	Sa&mple Period (s)
DISCHARGESTOPAT1	MULTIPARAM	3	0.00000E+000	Discharge Stop At &1	Voltage < Limit	V
DISCHARGESTOPAT2	MULTIPARAM	0	0.00000E+000	Discharge Stop At &2	None	N/A
AESBHCSELECTOR	TOGGLE	F	Save Both Half Cells
IRCOMP	TOGGLE	F	IR &Measure
EOC	QUANT	0	Open Circuit (V)
SEQUENCER	TOGGLE	TRUE	Run as Sequence
PSTATMODEL	IQUANT	53	Pstat Model
PSTATSECTION	LABEL	IFC5000-01520	Pstat Section
PSTATSERIALNO	LABEL	01520	Pstat Serial Number
CTRLMODE	IQUANT	0	Control Mode
ELECTROMETER	IQUANT	1	RE=0 or CS=1
IESTAB	IQUANT	0	I/E Stability
CASPEED	IQUANT	4	Control Amp Speed
CONVENTION	IQUANT	1	Current Convention
ICHRANGE	IQUANT	2	Ich Range
ICHRANGEMODE	TOGGLE	T	Ich Auto Range
ICHOFFSETENABLE	TOGGLE	F	Ich Offset Enable
ICHOFFSET	QUANT	0	Ich Offset (V)
ICHFILTER	IQUANT	1	Ich Filter
VCHRANGE	IQUANT	2	Vch Range
VCHRANGEMODE	TOGGLE	T	Vch Auto Range
VCHOFFSETENABLE	TOGGLE	F	Vch Offset Enable
VCHOFFSET	QUANT	0	Vch Offset (V)
VCHFILTER	IQUANT	1	Vch Filter
IERANGELOWERLIMIT	IQUANT	9	I/E Range Lower Limit
IERANGEMODE	TOGGLE	F	I/E AutoRange
IERANGE	IQUANT	9	I/E Range
ACHSELECT	IQUANT	1	Ach Select
ACHRANGE	IQUANT	2	Ach Range
ACHOFFSETENABLE	TOGGLE	F	Ach Offset Enable
ACHOFFSET	QUANT	0	Ach Offset (V)
ACHFILTER	IQUANT	1	Ach Filter
CABLEID	IQUANT	14	Cable ID
DCCALDATE	LABEL	5-7-2017	DC Calibration Date
ACCALDATE	LABEL	12/3/2015	AC Calibration Date
FRAMEWORKVERSION	QUANT	7.01	Framework Version
INSTRUMENTVERSION	LABEL	4.00	Instrument Version
CURVE	TABLE	124
	Pt	T	Vf	Im	Vu	Pwr	Sig	Ach	Temp	IERange	Over
	#	s	V	A	V	W	V	V	deg C	#	bits
	0	0.013333	7.14392E-001	-3.97946E-004	0.00000E+000	-2.84289E-004	-2.40040E-001	7.14653E-001	3.57590E+000	9	...........
	1	0.026667	7.02860E-001	-3.99060E-004	0.00000E+000	-2.80484E-004	-2.40040E-001	7.03078E-001	3.57590E+000	9	...........
	2	0.04	6.92614E-001	-3.98852E-004	0.00000E+000	-2.76250E-004	-2.40040E-001	6.92853E-001	3.57590E+000	9	...........
	3	0.053333	6.83286E-001	-3.99190E-004	0.00000E+000	-2.72761E-004	-2.40040E-001	6.83512E-001	3.57590E+000	9	...........
	4	0.066667	6.74414E-001	-3.98043E-004	0.00000E+000	-2.68446E-004	-2.40040E-001	6.74655E-001	3.57590E+000	9	...........
	5	0.08	6.65857E-001	-3.99006E-004	0.00000E+000	-2.65681E-004	-2.40040E-001	6.66098E-001	3.57590E+000	9	...........
	6	0.093333	6.57539E-001	-3.99736E-004	0.00000E+000	-2.62842E-004	-2.40040E-001	6.57776E-001	3.57590E+000	9	...........
	7	0.106667	6.49539E-001	-3.98543E-004	0.00000E+000	-2.58869E-004	-2.40040E-001	6.49759E-001	3.57590E+000	9	...........
	8	0.12	6.41729E-001	-3.98495E-004	0.00000E+000	-2.55725E-004	-2.40040E-001	6.41967E-001	3.57590E+000	9	...........
	9	0.133333	6.33912E-001	-3.97185E-004	0.00000E+000	-2.51780E-004	-2.40040E-001	6.34124E-001	3.57590E+000	9	...........
	10	0.146667	6.26292E-001	-3.99070E-004	0.00000E+000	-2.49934E-004	-2.40040E-001	6.26509E-001	3.57590E+000	9	...........
	11	0.16	6.18700E-001	-3.98068E-004	0.00000E+000	-2.46284E-004	-2.40040E-001	6.18883E-001	3.57590E+000	9	...........
	12	0.173333	6.11028E-001	-3.99319E-004	0.00000E+000	-2.43995E-004	-2.40040E-001	6.11267E-001	3.57590E+000	9	...........
	13	0.186667	6.03591E-001	-3.98192E-004	0.00000E+000	-2.40345E-004	-2.40040E-001	6.03848E-001	3.57590E+000	9	...........
	14	0.2	5.96296E-001	-3.98927E-004	0.00000E+000	-2.37878E-004	-2.40040E-001	5.96555E-001	3.57590E+000	9	...........
	15	0.213333	5.89104E-001	-3.99028E-004	0.00000E+000	-2.35069E-004	-2.40040E-001	5.89347E-001	3.57590E+000	9	...........
	16	0.226667	5.81839E-001	-3.97499E-004	0.00000E+000	-2.31280E-004	-2.40040E-001	5.82053E-001	3.57590E+000	9	...........
	17	0.24	5.74670E-001	-4.00584E-004	0.00000E+000	-2.30203E-004	-2.40040E-001	5.74880E-001	3.57590E+000	9	...........
	18	0.253333	5.67609E-001	-3.99023E-004	0.00000E+000	-2.26489E-004	-2.40040E-001	5.67807E-001	3.57590E+000	9	...........
	19	0.266667	5.60515E-001	-3.98067E-004	0.00000E+000	-2.23122E-004	-2.40040E-001	5.60699E-001	3.57590E+000	9	...........
	20	0.28	5.53371E-001	-3.99049E-004	0.00000E+000	-2.20822E-004	-2.40040E-001	5.53574E-001	3.57590E+000	9	...........
	21	0.293333	5.46440E-001	-4.00211E-004	0.00000E+000	-2.18691E-004	-2.40040E-001	5.46655E-001	3.57590E+000	9	...........
	22	0.306667	5.39510E-001	-3.99485E-004	0.00000E+000	-2.15526E-004	-2.40040E-001	5.39754E-001	3.57590E+000	9	...........
	23	0.32	5.32622E-001	-3.98337E-004	0.00000E+000	-2.12163E-004	-2.40040E-001	5.32824E-001	3.57590E+000	9	...........
	24	0.333333	5.25808E-001	-3.98280E-004	0.00000E+000	-2.09419E-004	-2.40040E-001	5.26016E-001	3.57590E+000	9	...........
	25	0.346667	5.18984E-001	-3.98651E-004	0.00000E+000	-2.06894E-004	-2.40040E-001	5.19195E-001	3.57590E+000	9	...........
	26	0.36	5.12122E-001	-3.99004E-004	0.00000E+000	-2.04339E-004	-2.40040E-001	5.12354E-001	3.57590E+000	9	...........
	27	0.373333	5.05336E-001	-3.99379E-004	0.00000E+000	-2.01821E-004	-2.40040E-001	5.05580E-001	3.57590E+000	9	...........
	28	0.386667	4.98642E-001	-3.97885E-004	0.00000E+000	-1.98402E-004	-2.40040E-001	4.98885E-001	3.57590E+000	9	...........
	29	0.4	4.91961E-001	-3.97617E-004	0.00000E+000	-1.95612E-004	-2.40040E-001	4.92180E-001	3.57590E+000	9	...........
	30	0.413333	4.85400E-001	-3.98476E-004	0.00000E+000	-1.93420E-004	-2.40040E-001	4.85587E-001	3.57590E+000	9	...........
	31	0.426667	4.78949E-001	-4.00305E-004	0.00000E+000	-1.91726E-004	-2.40040E-001	4.79053E-001	3.57590E+000	9	...........
	32	0.44	4.72348E-001	-3.98827E-004	0.00000E+000	-1.88385E-004	-2.40040E-001	4.72449E-001	3.57590E+000	9	...........
	33	0.453333	4.65790E-001	-3.97605E-004	0.00000E+000	-1.85200E-004	-2.40040E-001	4.65893E-001	3.57590E+000	9	...........
	34	0.466667	4.59282E-001	-3.98559E-004	0.00000E+000	-1.83051E-004	-2.40040E-001	4.59381E-001	3.57590E+000	9	...........
	35	0.48	4.52814E-001	-3.98145E-004	0.00000E+000	-1.80285E-004	-2.40040E-001	4.52907E-001	3.57590E+000	9	...........
	36	0.493333	4.46335E-001	-3.99018E-004	0.00000E+000	-1.78095E-004	-2.40040E-001	4.46433E-001	3.57590E+000	9	...........
	37	0.506667	4.39910E-001	-3.99055E-004	0.00000E+000	-1.75548E-004	-2.40040E-001	4.40005E-001	3.57590E+000	9	...........
	38	0.52	4.33507E-001	-3.98679E-004	0.00000E+000	-1.72830E-004	-2.40040E-001	4.33599E-001	3.57597E+000	9	...........
	39	0.533333	4.27195E-001	-3.99373E-004	0.00000E+000	-1.70610E-004	-2.40040E-001	4.27286E-001	3.57600E+000	9	...........
	40	0.546667	4.20896E-001	-3.97396E-004	0.00000E+000	-1.67262E-004	-2.40040E-001	4.20983E-001	3.57600E+000	9	...........
	41	0.56	4.14648E-001	-3.97893E-004	0.00000E+000	-1.64985E-004	-2.40040E-001	4.14733E-001	3.57600E+000	9	...........
	42	0.573333	4.08369E-001	-3.98918E-004	0.00000E+000	-1.62905E-004	-2.40040E-001	4.08449E-001	3.57600E+000	9	...........
	43	0.586667	4.02117E-001	-3.99361E-004	0.00000E+000	-1.60590E-004	-2.40040E-001	4.02198E-001	3.57600E+000	9	...........
	44	0.6	3.95907E-001	-3.98621E-004	0.00000E+000	-1.57817E-004	-2.40040E-001	3.95985E-001	3.57600E+000	9	...........
	45	0.613333	3.89824E-001	-3.98048E-004	0.00000E+000	-1.55169E-004	-2.40040E-001	3.89905E-001	3.57600E+000	9	...........
	46	0.626667	3.83742E-001	-3.98130E-004	0.00000E+000	-1.52779E-004	-2.40040E-001	3.83819E-001	3.57600E+000	9	...........
	47	0.64	3.77690E-001	-3.98171E-004	0.00000E+000	-1.50385E-004	-2.40040E-001	3.77762E-001	3.57600E+000	9	...........
	48	0.653333	3.71590E-001	-3.97629E-004	0.00000E+000	-1.47755E-004	-2.40040E-001	3.71659E-001	3.57600E+000	9	...........
	49	0.666667	3.65610E-001	-3.98767E-004	0.00000E+000	-1.45793E-004	-2.40040E-001	3.65679E-001	3.57600E+000	9	...........
	50	0.68	3.59660E-001	-3.99318E-004	0.00000E+000	-1.43619E-004	-2.40040E-001	3.59729E-001	3.57600E+000	9	...........
	51	0.693333	3.53765E-001	-3.98619E-004	0.00000E+000	-1.41017E-004	-2.40040E-001	3.53835E-001	3.57600E+000	9	...........
	52	0.706667	3.47782E-001	-3.99001E-004	0.00000E+000	-1.38765E-004	-2.40040E-001	3.47856E-001	3.57600E+000	9	...........
	53	0.72	3.41865E-001	-3.98682E-004	0.00000E+000	-1.36295E-004	-2.40040E-001	3.41931E-001	3.57600E+000	9	...........
	54	0.733333	3.36019E-001	-3.97848E-004	0.00000E+000	-1.33684E-004	-2.40040E-001	3.36080E-001	3.57600E+000	9	...........
	55	0.746667	3.30199E-001	-3.98582E-004	0.00000E+000	-1.31611E-004	-2.40040E-001	3.30269E-001	3.57600E+000	9	...........
	56	0.76	3.24392E-001	-3.99064E-004	0.00000E+000	-1.29453E-004	-2.40040E-001	3.24455E-001	3.57600E+000	9	...........
	57	0.773333	3.18643E-001	-3.98959E-004	0.00000E+000	-1.27126E-004	-2.40040E-001	3.18705E-001	3.57600E+000	9	...........
	58	0.786667	3.12989E-001	-3.99152E-004	0.00000E+000	-1.24930E-004	-2.40040E-001	3.13052E-001	3.57600E+000	9	...........
	59	0.8	3.07322E-001	-3.98287E-004	0.00000E+000	-1.22403E-004	-2.40040E-001	3.07390E-001	3.57600E+000	9	...........
	60	0.813333	3.01674E-001	-3.98897E-004	0.00000E+000	-1.20337E-004	-2.40040E-001	3.01731E-001	3.57600E+000	9	...........
	61	0.826667	2.96048E-001	-3.97995E-004	0.00000E+000	-1.17826E-004	-2.40040E-001	2.96108E-001	3.57600E+000	9	...........
	62	0.84	2.90549E-001	-3.98591E-004	0.00000E+000	-1.15810E-004	-2.40040E-001	2.90606E-001	3.57600E+000	9	...........
	63	0.853333	2.85034E-001	-3.98745E-004	0.00000E+000	-1.13656E-004	-2.40040E-001	2.85090E-001	3.57600E+000	9	...........
	64	0.866667	2.79446E-001	-3.98122E-004	0.00000E+000	-1.11254E-004	-2.40040E-001	2.79497E-001	3.57600E+000	9	...........
	65	0.88	2.73915E-001	-3.98247E-004	0.00000E+000	-1.09086E-004	-2.40040E-001	2.73971E-001	3.57600E+000	9	...........
	66	0.893333	2.68471E-001	-3.99231E-004	0.00000E+000	-1.07182E-004	-2.40040E-001	2.68520E-001	3.57600E+000	9	...........
	67	0.906667	2.62957E-001	-3.99264E-004	0.00000E+000	-1.04989E-004	-2.40040E-001	2.63012E-001	3.57600E+000	9	...........
	68	0.92	2.57527E-001	-3.98342E-004	0.00000E+000	-1.02584E-004	-2.40040E-001	2.57583E-001	3.57600E+000	9	...........
	69	0.933333	2.52185E-001	-3.99228E-004	0.00000E+000	-1.00679E-004	-2.40040E-001	2.52240E-001	3.57600E+000	9	...........
	70	0.946667	2.46788E-001	-3.97529E-004	0.00000E+000	-9.81054E-005	-2.40040E-001	2.46834E-001	3.57600E+000	9	...........
	71	0.96	2.41401E-001	-3.97873E-004	0.00000E+000	-9.60470E-005	-2.40040E-001	2.41444E-001	3.57600E+000	9	...........
	72	0.97333	2.36056E-001	-3.98609E-004	0.00000E+000	-9.40941E-005	-2.40040E-001	2.36099E-001	3.57600E+000	9	...........
	73	0.98667	2.30798E-001	-3.98051E-004	0.00000E+000	-9.18693E-005	-2.40040E-001	2.30837E-001	3.57600E+000	9	...........
	74	1	2.25575E-001	-3.98492E-004	0.00000E+000	-8.98898E-005	-2.40040E-001	2.25616E-001	3.57600E+000	9	...........
	75	1.01333	2.20369E-001	-3.99126E-004	0.00000E+000	-8.79550E-005	-2.40040E-001	2.20410E-001	3.57600E+000	9	...........
	76	1.02667	2.15157E-001	-3.98877E-004	0.00000E+000	-8.58211E-005	-2.40040E-001	2.15198E-001	3.57600E+000	9	...........
	77	1.04	2.09997E-001	-3.98123E-004	0.00000E+000	-8.36047E-005	-2.40040E-001	2.10036E-001	3.57600E+000	9	...........
	78	1.05333	2.04785E-001	-3.99180E-004	0.00000E+000	-8.17461E-005	-2.40040E-001	2.04826E-001	3.57600E+000	9	...........
	79	1.06667	1.99660E-001	-3.98558E-004	0.00000E+000	-7.95760E-005	-2.40040E-001	1.99695E-001	3.57600E+000	9	...........
	80	1.08	1.94481E-001	-3.98161E-004	0.00000E+000	-7.74349E-005	-2.40040E-001	1.94511E-001	3.57600E+000	9	...........
	81	1.09333	1.89383E-001	-3.98151E-004	0.00000E+000	-7.54030E-005	-2.40040E-001	1.89416E-001	3.57600E+000	9	...........
	82	1.10667	1.84371E-001	-3.99495E-004	0.00000E+000	-7.36554E-005	-2.40040E-001	1.84406E-001	3.57600E+000	9	...........
	83	1.12	1.79412E-001	-3.99553E-004	0.00000E+000	-7.16848E-005	-2.40040E-001	1.79444E-001	3.57600E+000	9	...........
	84	1.13333	1.74475E-001	-3.99474E-004	0.00000E+000	-6.96982E-005	-2.40040E-001	1.74505E-001	3.57600E+000	9	...........
	85	1.14667	1.69516E-001	-4.00210E-004	0.00000E+000	-6.78421E-005	-2.40040E-001	1.69552E-001	3.57600E+000	9	...........
	86	1.16	1.64543E-001	-3.99118E-004	0.00000E+000	-6.56720E-005	-2.40040E-001	1.64567E-001	3.57600E+000	9	...........
	87	1.17333	1.59545E-001	-3.98016E-004	0.00000E+000	-6.35014E-005	-2.40040E-001	1.59571E-001	3.57600E+000	9	...........
	88	1.18667	1.54610E-001	-3.99006E-004	0.00000E+000	-6.16903E-005	-2.40040E-001	1.54637E-001	3.57600E+000	9	...........
	89	1.2	1.49863E-001	-3.98504E-004	0.00000E+000	-5.97209E-005	-2.40040E-001	1.49890E-001	3.57600E+000	9	...........
	90	1.21333	1.45021E-001	-3.99749E-004	0.00000E+000	-5.79720E-005	-2.40040E-001	1.45052E-001	3.57600E+000	9	...........
	91	1.22667	1.40177E-001	-3.99855E-004	0.00000E+000	-5.60504E-005	-2.40040E-001	1.40201E-001	3.57600E+000	9	...........
	92	1.24	1.35355E-001	-3.99950E-004	0.00000E+000	-5.41354E-005	-2.40040E-001	1.35381E-001	3.57600E+000	9	...........
	93	1.25333	1.30582E-001	-3.98149E-004	0.00000E+000	-5.19910E-005	-2.40040E-001	1.30605E-001	3.57600E+000	9	...........
	94	1.26667	1.25805E-001	-3.97755E-004	0.00000E+000	-5.00394E-005	-2.40040E-001	1.25830E-001	3.57600E+000	9	...........
	95	1.28	1.21040E-001	-3.99763E-004	0.00000E+000	-4.83872E-005	-2.40040E-001	1.21067E-001	3.57600E+000	9	...........
	96	1.29333	1.16298E-001	-3.99050E-004	0.00000E+000	-4.64087E-005	-2.40040E-001	1.16323E-001	3.57600E+000	9	...........
	97	1.30667	1.11654E-001	-3.98175E-004	0.00000E+000	-4.44576E-005	-2.40040E-001	1.11672E-001	3.57600E+000	9	...........
	98	1.32	1.06962E-001	-3.98991E-004	0.00000E+000	-4.26768E-005	-2.40040E-001	1.06978E-001	3.57600E+000	9	...........
	99	1.33333	1.02389E-001	-3.98983E-004	0.00000E+000	-4.08516E-005	-2.40040E-001	1.02410E-001	3.57600E+000	9	...........
	100	1.34667	9.76964E-002	-3.98095E-004	0.00000E+000	-3.88924E-005	-2.40040E-001	9.77129E-002	3.57600E+000	9	...........
	101	1.36	9.30776E-002	-3.97945E-004	0.00000E+000	-3.70397E-005	-2.40040E-001	9.30972E-002	3.57600E+000	9	...........
	102	1.37333	8.85204E-002	-3.98318E-004	0.00000E+000	-3.52592E-005	-2.40040E-001	8.85347E-002	3.57600E+000	9	...........
	103	1.38667	8.40021E-002	-3.98487E-004	0.00000E+000	-3.34738E-005	-2.40040E-001	8.40185E-002	3.57600E+000	9	...........
	104	1.4	7.94888E-002	-3.98836E-004	0.00000E+000	-3.17030E-005	-2.40040E-001	7.95048E-002	3.57600E+000	9	...........
	105	1.41333	7.49655E-002	-3.97543E-004	0.00000E+000	-2.98020E-005	-2.40040E-001	7.49752E-002	3.57600E+000	9	...........
	106	1.42667	7.04772E-002	-3.99070E-004	0.00000E+000	-2.81253E-005	-2.40040E-001	7.04832E-002	3.57600E+000	9	...........
	107	1.44	6.61757E-002	-3.97905E-004	0.00000E+000	-2.63316E-005	-2.40040E-001	6.61835E-002	3.57600E+000	9	...........
	108	1.45333	6.17038E-002	-3.98394E-004	0.00000E+000	-2.45824E-005	-2.40040E-001	6.17095E-002	3.57600E+000	9	...........
	109	1.46667	5.72844E-002	-3.97552E-004	0.00000E+000	-2.27735E-005	-2.40040E-001	5.72928E-002	3.57600E+000	9	...........
	110	1.48	5.28898E-002	-3.98751E-004	0.00000E+000	-2.10899E-005	-2.40040E-001	5.28976E-002	3.57600E+000	9	...........
	111	1.49333	4.85302E-002	-3.98026E-004	0.00000E+000	-1.93163E-005	-2.40040E-001	4.85338E-002	3.57600E+000	9	...........
	112	1.50667	4.41623E-002	-3.99631E-004	0.00000E+000	-1.76487E-005	-2.40040E-001	4.41710E-002	3.57600E+000	9	...........
	113	1.52	3.97521E-002	-3.99698E-004	0.00000E+000	-1.58888E-005	-2.40040E-001	3.97512E-002	3.57697E+000	9	...........
	114	1.53333	3.54884E-002	-3.98819E-004	0.00000E+000	-1.41534E-005	-2.40040E-001	3.54912E-002	3.57730E+000	9	...........
	115	1.54667	3.12804E-002	-3.98218E-004	0.00000E+000	-1.24564E-005	-2.40040E-001	3.12848E-002	3.57730E+000	9	...........
	116	1.56	2.70474E-002	-3.99487E-004	0.00000E+000	-1.08051E-005	-2.40040E-001	2.70443E-002	3.57730E+000	9	...........
	117	1.57333	2.27497E-002	-3.97927E-004	0.00000E+000	-9.05272E-006	-2.40040E-001	2.27459E-002	3.57730E+000	9	...........
	118	1.58667	1.85293E-002	-4.00598E-004	0.00000E+000	-7.42279E-006	-2.40040E-001	1.85251E-002	3.57730E+000	9	...........
	119	1.6	1.43412E-002	-3.97595E-004	0.00000E+000	-5.70199E-006	-2.40040E-001	1.43339E-002	3.57730E+000	9	...........
	120	1.61333	1.02018E-002	-3.99793E-004	0.00000E+000	-4.07859E-006	-2.40040E-001	1.01892E-002	3.57730E+000	9	...........
	121	1.62667	6.02454E-003	-3.99421E-004	0.00000E+000	-2.40633E-006	-2.40040E-001	6.00478E-003	3.57730E+000	9	...........
	122	1.64	1.87398E-003	-3.99449E-004	0.00000E+000	-7.48560E-007	-2.40040E-001	1.85420E-003	3.57730E+000	9	...........
	123	1.64167	-4.50731E-004	-3.98856E-004	0.00000E+000	1.79777E-007	-2.40040E-001	-4.57396E-004	3.57730E+000	9	...........
STARTTIMEOFFSET	QUANT	721.757	Start Time Offset (s)
