EXPLAIN
TAG	PWR800_DISCHARGE
TITLE	LABEL	PWR Cyclic Charge Discharge (Cell) - Discharge Step	Test &Identifier
DATE	LABEL	12-7-2017	Date
TIME	LABEL	15:16:35	Time
NOTES	NOTES	3	&Notes...
	supercap test cell
	0.4mg
	6M KOH
PSTAT	PSTAT	IFC5000-01520	Potentiostat
CAPACITY	QUANT	1.00000E-003	Capacity (A-hr)
CELLTYPE	SELECTOR	1	&Cell Type
WORKINGCONNECTION	SELECTOR	0	&Working Lead
MAXDISCHARGETIME	VARIABLEANDUNITS	1.00000E+002	s	1.00000E+002	second(s)	Max &Discharge Time
DISCHARGEMODE	MULTIPARAM	0	4.00000E-004	&Discharge Mode	Constant Current	Amp(s)
SAMPLETIME	QUANT	1.00000E-002	Sa&mple Period (s)
DISCHARGESTOPAT1	MULTIPARAM	3	0.00000E+000	Discharge Stop At &1	Voltage < Limit	V
DISCHARGESTOPAT2	MULTIPARAM	0	0.00000E+000	Discharge Stop At &2	None	N/A
AESBHCSELECTOR	TOGGLE	F	Save Both Half Cells
IRCOMP	TOGGLE	F	IR &Measure
EOC	QUANT	0	Open Circuit (V)
SEQUENCER	TOGGLE	TRUE	Run as Sequence
PSTATMODEL	IQUANT	53	Pstat Model
PSTATSECTION	LABEL	IFC5000-01520	Pstat Section
PSTATSERIALNO	LABEL	01520	Pstat Serial Number
CTRLMODE	IQUANT	0	Control Mode
ELECTROMETER	IQUANT	1	RE=0 or CS=1
IESTAB	IQUANT	0	I/E Stability
CASPEED	IQUANT	4	Control Amp Speed
CONVENTION	IQUANT	1	Current Convention
ICHRANGE	IQUANT	2	Ich Range
ICHRANGEMODE	TOGGLE	T	Ich Auto Range
ICHOFFSETENABLE	TOGGLE	F	Ich Offset Enable
ICHOFFSET	QUANT	0	Ich Offset (V)
ICHFILTER	IQUANT	1	Ich Filter
VCHRANGE	IQUANT	2	Vch Range
VCHRANGEMODE	TOGGLE	T	Vch Auto Range
VCHOFFSETENABLE	TOGGLE	F	Vch Offset Enable
VCHOFFSET	QUANT	0	Vch Offset (V)
VCHFILTER	IQUANT	1	Vch Filter
IERANGELOWERLIMIT	IQUANT	9	I/E Range Lower Limit
IERANGEMODE	TOGGLE	F	I/E AutoRange
IERANGE	IQUANT	9	I/E Range
ACHSELECT	IQUANT	1	Ach Select
ACHRANGE	IQUANT	2	Ach Range
ACHOFFSETENABLE	TOGGLE	F	Ach Offset Enable
ACHOFFSET	QUANT	0	Ach Offset (V)
ACHFILTER	IQUANT	1	Ach Filter
CABLEID	IQUANT	14	Cable ID
DCCALDATE	LABEL	5-7-2017	DC Calibration Date
ACCALDATE	LABEL	12/3/2015	AC Calibration Date
FRAMEWORKVERSION	QUANT	7.01	Framework Version
INSTRUMENTVERSION	LABEL	4.00	Instrument Version
CURVE	TABLE	104
	Pt	T	Vf	Im	Vu	Pwr	Sig	Ach	Temp	IERange	Over
	#	s	V	A	V	W	V	V	deg C	#	bits
	0	0.013333	6.86027E-001	-3.99014E-004	0.00000E+000	-2.73734E-004	-2.40040E-001	6.86253E-001	3.57680E+000	9	...........
	1	0.026667	6.72407E-001	-3.97783E-004	0.00000E+000	-2.67472E-004	-2.40040E-001	6.72637E-001	3.57680E+000	9	...........
	2	0.04	6.60452E-001	-3.99131E-004	0.00000E+000	-2.63607E-004	-2.40040E-001	6.60693E-001	3.57680E+000	9	...........
	3	0.053333	6.49584E-001	-3.98029E-004	0.00000E+000	-2.58553E-004	-2.40040E-001	6.49799E-001	3.57680E+000	9	...........
	4	0.066667	6.39351E-001	-3.98845E-004	0.00000E+000	-2.55002E-004	-2.40040E-001	6.39581E-001	3.57680E+000	9	...........
	5	0.08	6.29684E-001	-3.97653E-004	0.00000E+000	-2.50396E-004	-2.40040E-001	6.29891E-001	3.57680E+000	9	...........
	6	0.093333	6.20351E-001	-3.98419E-004	0.00000E+000	-2.47159E-004	-2.40040E-001	6.20558E-001	3.57680E+000	9	...........
	7	0.106667	6.11236E-001	-3.99610E-004	0.00000E+000	-2.44256E-004	-2.40040E-001	6.11472E-001	3.57680E+000	9	...........
	8	0.12	6.02284E-001	-3.97794E-004	0.00000E+000	-2.39585E-004	-2.40040E-001	6.02520E-001	3.57680E+000	9	...........
	9	0.133333	5.93556E-001	-3.98540E-004	0.00000E+000	-2.36555E-004	-2.40040E-001	5.93797E-001	3.57680E+000	9	...........
	10	0.146667	5.84936E-001	-3.99519E-004	0.00000E+000	-2.33693E-004	-2.40040E-001	5.85177E-001	3.57680E+000	9	...........
	11	0.16	5.76455E-001	-3.98409E-004	0.00000E+000	-2.29665E-004	-2.40040E-001	5.76695E-001	3.57680E+000	9	...........
	12	0.173333	5.68125E-001	-3.99456E-004	0.00000E+000	-2.26941E-004	-2.40040E-001	5.68321E-001	3.57680E+000	9	...........
	13	0.186667	5.59768E-001	-3.97735E-004	0.00000E+000	-2.22640E-004	-2.40040E-001	5.59986E-001	3.57680E+000	9	...........
	14	0.2	5.51579E-001	-3.98567E-004	0.00000E+000	-2.19841E-004	-2.40040E-001	5.51780E-001	3.57680E+000	9	...........
	15	0.213333	5.43381E-001	-3.98576E-004	0.00000E+000	-2.16579E-004	-2.40040E-001	5.43576E-001	3.57680E+000	9	...........
	16	0.226667	5.35157E-001	-3.98003E-004	0.00000E+000	-2.12994E-004	-2.40040E-001	5.35374E-001	3.57680E+000	9	...........
	17	0.24	5.27135E-001	-3.99056E-004	0.00000E+000	-2.10357E-004	-2.40040E-001	5.27339E-001	3.57680E+000	9	...........
	18	0.253333	5.19102E-001	-3.98636E-004	0.00000E+000	-2.06933E-004	-2.40040E-001	5.19265E-001	3.57680E+000	9	...........
	19	0.266667	5.11154E-001	-3.98240E-004	0.00000E+000	-2.03562E-004	-2.40040E-001	5.11361E-001	3.57680E+000	9	...........
	20	0.28	5.03221E-001	-3.99636E-004	0.00000E+000	-2.01105E-004	-2.40040E-001	5.03420E-001	3.57680E+000	9	...........
	21	0.293333	4.95457E-001	-3.98246E-004	0.00000E+000	-1.97314E-004	-2.40040E-001	4.95629E-001	3.57680E+000	9	...........
	22	0.306667	4.87745E-001	-3.98911E-004	0.00000E+000	-1.94567E-004	-2.40040E-001	4.87879E-001	3.57680E+000	9	...........
	23	0.32	4.80267E-001	-3.98785E-004	0.00000E+000	-1.91524E-004	-2.40040E-001	4.80364E-001	3.57680E+000	9	...........
	24	0.333333	4.72635E-001	-3.99629E-004	0.00000E+000	-1.88879E-004	-2.40040E-001	4.72729E-001	3.57680E+000	9	...........
	25	0.346667	4.64927E-001	-3.99642E-004	0.00000E+000	-1.85804E-004	-2.40040E-001	4.65019E-001	3.57680E+000	9	...........
	26	0.36	4.57294E-001	-3.99043E-004	0.00000E+000	-1.82480E-004	-2.40040E-001	4.57392E-001	3.57680E+000	9	...........
	27	0.373333	4.49750E-001	-3.98219E-004	0.00000E+000	-1.79099E-004	-2.40040E-001	4.49839E-001	3.57680E+000	9	...........
	28	0.386667	4.42246E-001	-3.99612E-004	0.00000E+000	-1.76727E-004	-2.40040E-001	4.42336E-001	3.57680E+000	9	...........
	29	0.4	4.34727E-001	-3.99071E-004	0.00000E+000	-1.73487E-004	-2.40040E-001	4.34817E-001	3.57680E+000	9	...........
	30	0.413333	4.27325E-001	-3.98088E-004	0.00000E+000	-1.70113E-004	-2.40040E-001	4.27414E-001	3.57680E+000	9	...........
	31	0.426667	4.19942E-001	-4.00032E-004	0.00000E+000	-1.67990E-004	-2.40040E-001	4.20035E-001	3.57680E+000	9	...........
	32	0.44	4.12538E-001	-3.98504E-004	0.00000E+000	-1.64398E-004	-2.40040E-001	4.12626E-001	3.57680E+000	9	...........
	33	0.453333	4.05256E-001	-4.00101E-004	0.00000E+000	-1.62144E-004	-2.40040E-001	4.05336E-001	3.57680E+000	9	...........
	34	0.466667	3.98005E-001	-3.99429E-004	0.00000E+000	-1.58975E-004	-2.40040E-001	3.98078E-001	3.57680E+000	9	...........
	35	0.48	3.90841E-001	-3.98174E-004	0.00000E+000	-1.55623E-004	-2.40040E-001	3.90914E-001	3.57680E+000	9	...........
	36	0.493333	3.83640E-001	-3.98880E-004	0.00000E+000	-1.53026E-004	-2.40040E-001	3.83719E-001	3.57680E+000	9	...........
	37	0.506667	3.76538E-001	-3.99064E-004	0.00000E+000	-1.50263E-004	-2.40040E-001	3.76612E-001	3.57680E+000	9	...........
	38	0.52	3.69407E-001	-3.99677E-004	0.00000E+000	-1.47644E-004	-2.40040E-001	3.69473E-001	3.57680E+000	9	...........
	39	0.533333	3.62362E-001	-3.98698E-004	0.00000E+000	-1.44473E-004	-2.40040E-001	3.62426E-001	3.57680E+000	9	...........
	40	0.546667	3.55421E-001	-3.99230E-004	0.00000E+000	-1.41895E-004	-2.40040E-001	3.55491E-001	3.57680E+000	9	...........
	41	0.56	3.48430E-001	-3.99325E-004	0.00000E+000	-1.39137E-004	-2.40040E-001	3.48493E-001	3.57680E+000	9	...........
	42	0.573333	3.41506E-001	-3.98345E-004	0.00000E+000	-1.36037E-004	-2.40040E-001	3.41573E-001	3.57680E+000	9	...........
	43	0.586667	3.34706E-001	-3.97875E-004	0.00000E+000	-1.33171E-004	-2.40040E-001	3.34773E-001	3.57680E+000	9	...........
	44	0.6	3.27842E-001	-3.99588E-004	0.00000E+000	-1.31002E-004	-2.40040E-001	3.27912E-001	3.57680E+000	9	...........
	45	0.613333	3.21064E-001	-3.98462E-004	0.00000E+000	-1.27932E-004	-2.40040E-001	3.21126E-001	3.57680E+000	9	...........
	46	0.626667	3.14354E-001	-3.99097E-004	0.00000E+000	-1.25458E-004	-2.40040E-001	3.14416E-001	3.57680E+000	9	...........
	47	0.64	3.07630E-001	-3.98440E-004	0.00000E+000	-1.22572E-004	-2.40040E-001	3.07693E-001	3.57680E+000	9	...........
	48	0.653333	3.00963E-001	-3.98895E-004	0.00000E+000	-1.20053E-004	-2.40040E-001	3.01019E-001	3.57680E+000	9	...........
	49	0.666667	2.94397E-001	-3.98803E-004	0.00000E+000	-1.17406E-004	-2.40040E-001	2.94459E-001	3.57680E+000	9	...........
	50	0.68	2.87895E-001	-3.99090E-004	0.00000E+000	-1.14896E-004	-2.40040E-001	2.87950E-001	3.57680E+000	9	...........
	51	0.693333	2.81407E-001	-3.98114E-004	0.00000E+000	-1.12032E-004	-2.40040E-001	2.81463E-001	3.57680E+000	9	...........
	52	0.706667	2.74933E-001	-4.00410E-004	0.00000E+000	-1.10086E-004	-2.40040E-001	2.74983E-001	3.57680E+000	9	...........
	53	0.72	2.68573E-001	-3.99920E-004	0.00000E+000	-1.07408E-004	-2.40040E-001	2.68627E-001	3.57680E+000	9	...........
	54	0.733333	2.62194E-001	-3.98020E-004	0.00000E+000	-1.04358E-004	-2.40040E-001	2.62245E-001	3.57680E+000	9	...........
	55	0.746667	2.55826E-001	-3.99173E-004	0.00000E+000	-1.02119E-004	-2.40040E-001	2.55877E-001	3.57680E+000	9	...........
	56	0.76	2.49567E-001	-3.98502E-004	0.00000E+000	-9.94529E-005	-2.40040E-001	2.49618E-001	3.57680E+000	9	...........
	57	0.773333	2.43334E-001	-3.98919E-004	0.00000E+000	-9.70704E-005	-2.40040E-001	2.43382E-001	3.57680E+000	9	...........
	58	0.786667	2.37156E-001	-3.98218E-004	0.00000E+000	-9.44397E-005	-2.40040E-001	2.37196E-001	3.57680E+000	9	...........
	59	0.8	2.31013E-001	-3.99462E-004	0.00000E+000	-9.22806E-005	-2.40040E-001	2.31053E-001	3.57680E+000	9	...........
	60	0.813333	2.24883E-001	-3.99097E-004	0.00000E+000	-8.97503E-005	-2.40040E-001	2.24933E-001	3.57680E+000	9	...........
	61	0.826667	2.18808E-001	-3.97527E-004	0.00000E+000	-8.69822E-005	-2.40040E-001	2.18847E-001	3.57680E+000	9	...........
	62	0.84	2.12748E-001	-3.99157E-004	0.00000E+000	-8.49198E-005	-2.40040E-001	2.12784E-001	3.57680E+000	9	...........
	63	0.853333	2.06726E-001	-3.97575E-004	0.00000E+000	-8.21891E-005	-2.40040E-001	2.06764E-001	3.57680E+000	9	...........
	64	0.866667	2.00808E-001	-3.98883E-004	0.00000E+000	-8.00991E-005	-2.40040E-001	2.00844E-001	3.57680E+000	9	...........
	65	0.88	1.94836E-001	-3.98200E-004	0.00000E+000	-7.75837E-005	-2.40040E-001	1.94872E-001	3.57680E+000	9	...........
	66	0.893333	1.88993E-001	-3.99318E-004	0.00000E+000	-7.54682E-005	-2.40040E-001	1.89027E-001	3.57680E+000	9	...........
	67	0.906667	1.83183E-001	-3.98474E-004	0.00000E+000	-7.29934E-005	-2.40040E-001	1.83211E-001	3.57680E+000	9	...........
	68	0.92	1.77411E-001	-3.98111E-004	0.00000E+000	-7.06295E-005	-2.40040E-001	1.77444E-001	3.57680E+000	9	...........
	69	0.933333	1.71671E-001	-3.98557E-004	0.00000E+000	-6.84207E-005	-2.40040E-001	1.71705E-001	3.57680E+000	9	...........
	70	0.946667	1.65978E-001	-3.99473E-004	0.00000E+000	-6.63037E-005	-2.40040E-001	1.66005E-001	3.57680E+000	9	...........
	71	0.96	1.60307E-001	-3.97982E-004	0.00000E+000	-6.37992E-005	-2.40040E-001	1.60336E-001	3.57680E+000	9	...........
	72	0.97333	1.54649E-001	-3.99141E-004	0.00000E+000	-6.17268E-005	-2.40040E-001	1.54680E-001	3.57680E+000	9	...........
	73	0.98667	1.49025E-001	-3.99550E-004	0.00000E+000	-5.95428E-005	-2.40040E-001	1.49053E-001	3.57680E+000	9	...........
	74	1	1.43546E-001	-4.00091E-004	0.00000E+000	-5.74314E-005	-2.40040E-001	1.43572E-001	3.57680E+000	9	...........
	75	1.01333	1.38091E-001	-3.98500E-004	0.00000E+000	-5.50294E-005	-2.40040E-001	1.38115E-001	3.57680E+000	9	...........
	76	1.02667	1.32597E-001	-3.98660E-004	0.00000E+000	-5.28611E-005	-2.40040E-001	1.32623E-001	3.57680E+000	9	...........
	77	1.04	1.27189E-001	-3.97852E-004	0.00000E+000	-5.06025E-005	-2.40040E-001	1.27214E-001	3.57680E+000	9	...........
	78	1.05333	1.21737E-001	-3.99284E-004	0.00000E+000	-4.86079E-005	-2.40040E-001	1.21757E-001	3.57680E+000	9	...........
	79	1.06667	1.16313E-001	-3.97882E-004	0.00000E+000	-4.62787E-005	-2.40040E-001	1.16335E-001	3.57680E+000	9	...........
	80	1.08	1.11008E-001	-3.99879E-004	0.00000E+000	-4.43900E-005	-2.40040E-001	1.11032E-001	3.57680E+000	9	...........
	81	1.09333	1.05760E-001	-3.98196E-004	0.00000E+000	-4.21134E-005	-2.40040E-001	1.05782E-001	3.57680E+000	9	...........
	82	1.10667	1.00613E-001	-3.97749E-004	0.00000E+000	-4.00186E-005	-2.40040E-001	1.00633E-001	3.57680E+000	9	...........
	83	1.12	9.54193E-002	-3.99015E-004	0.00000E+000	-3.80737E-005	-2.40040E-001	9.54372E-002	3.57680E+000	9	...........
	84	1.13333	9.01627E-002	-3.98022E-004	0.00000E+000	-3.58867E-005	-2.40040E-001	9.01808E-002	3.57680E+000	9	...........
	85	1.14667	8.50699E-002	-3.98898E-004	0.00000E+000	-3.39342E-005	-2.40040E-001	8.50862E-002	3.57680E+000	9	...........
	86	1.16	7.99106E-002	-3.98420E-004	0.00000E+000	-3.18379E-005	-2.40040E-001	7.99217E-002	3.57680E+000	9	...........
	87	1.17333	7.48102E-002	-3.99273E-004	0.00000E+000	-2.98697E-005	-2.40040E-001	7.48166E-002	3.57680E+000	9	...........
	88	1.18667	6.97848E-002	-4.00128E-004	0.00000E+000	-2.79229E-005	-2.40040E-001	6.97940E-002	3.57680E+000	9	...........
	89	1.2	6.47154E-002	-3.99393E-004	0.00000E+000	-2.58469E-005	-2.40040E-001	6.47192E-002	3.57680E+000	9	...........
	90	1.21333	5.97091E-002	-3.97236E-004	0.00000E+000	-2.37186E-005	-2.40040E-001	5.97129E-002	3.57680E+000	9	...........
	91	1.22667	5.47327E-002	-3.99482E-004	0.00000E+000	-2.18648E-005	-2.40040E-001	5.47398E-002	3.57680E+000	9	...........
	92	1.24	4.98007E-002	-3.99129E-004	0.00000E+000	-1.98769E-005	-2.40040E-001	4.98006E-002	3.57680E+000	9	...........
	93	1.25333	4.49607E-002	-3.97958E-004	0.00000E+000	-1.78925E-005	-2.40040E-001	4.49704E-002	3.57680E+000	9	...........
	94	1.26667	4.01662E-002	-3.99656E-004	0.00000E+000	-1.60527E-005	-2.40040E-001	4.01708E-002	3.57680E+000	9	...........
	95	1.28	3.53252E-002	-3.98363E-004	0.00000E+000	-1.40723E-005	-2.40040E-001	3.53270E-002	3.57680E+000	9	...........
	96	1.29333	3.05106E-002	-3.98801E-004	0.00000E+000	-1.21677E-005	-2.40040E-001	3.05054E-002	3.57664E+000	9	...........
	97	1.30667	2.56996E-002	-3.98381E-004	0.00000E+000	-1.02382E-005	-2.40040E-001	2.56959E-002	3.57640E+000	9	...........
	98	1.32	2.09315E-002	-3.97391E-004	0.00000E+000	-8.31799E-006	-2.40040E-001	2.09266E-002	3.57640E+000	9	...........
	99	1.33333	1.62042E-002	-3.98733E-004	0.00000E+000	-6.46116E-006	-2.40040E-001	1.61963E-002	3.57640E+000	9	...........
	100	1.34667	1.15439E-002	-3.99761E-004	0.00000E+000	-4.61479E-006	-2.40040E-001	1.15323E-002	3.57640E+000	9	...........
	101	1.36	6.83554E-003	-3.99437E-004	0.00000E+000	-2.73036E-006	-2.40040E-001	6.82268E-003	3.57640E+000	9	...........
	102	1.37333	2.38029E-003	-3.98134E-004	0.00000E+000	-9.47674E-007	-2.40040E-001	2.36456E-003	3.57640E+000	9	...........
	103	1.375	-1.51001E-004	-3.95681E-004	0.00000E+000	5.97481E-008	-2.40040E-001	-1.67978E-004	3.57640E+000	9	...........
STARTTIMEOFFSET	QUANT	2746.995	Start Time Offset (s)
