EXPLAIN
TAG	PWR800_DISCHARGE
TITLE	LABEL	PWR Cyclic Charge Discharge (Cell) - Discharge Step	Test &Identifier
DATE	LABEL	12-7-2017	Date
TIME	LABEL	15:19:23	Time
NOTES	NOTES	3	&Notes...
	supercap test cell
	0.4mg
	6M KOH
PSTAT	PSTAT	IFC5000-01520	Potentiostat
CAPACITY	QUANT	1.00000E-003	Capacity (A-hr)
CELLTYPE	SELECTOR	1	&Cell Type
WORKINGCONNECTION	SELECTOR	0	&Working Lead
MAXDISCHARGETIME	VARIABLEANDUNITS	1.00000E+002	s	1.00000E+002	second(s)	Max &Discharge Time
DISCHARGEMODE	MULTIPARAM	0	4.00000E-004	&Discharge Mode	Constant Current	Amp(s)
SAMPLETIME	QUANT	1.00000E-002	Sa&mple Period (s)
DISCHARGESTOPAT1	MULTIPARAM	3	0.00000E+000	Discharge Stop At &1	Voltage < Limit	V
DISCHARGESTOPAT2	MULTIPARAM	0	0.00000E+000	Discharge Stop At &2	None	N/A
AESBHCSELECTOR	TOGGLE	F	Save Both Half Cells
IRCOMP	TOGGLE	F	IR &Measure
EOC	QUANT	0	Open Circuit (V)
SEQUENCER	TOGGLE	TRUE	Run as Sequence
PSTATMODEL	IQUANT	53	Pstat Model
PSTATSECTION	LABEL	IFC5000-01520	Pstat Section
PSTATSERIALNO	LABEL	01520	Pstat Serial Number
CTRLMODE	IQUANT	0	Control Mode
ELECTROMETER	IQUANT	1	RE=0 or CS=1
IESTAB	IQUANT	0	I/E Stability
CASPEED	IQUANT	4	Control Amp Speed
CONVENTION	IQUANT	1	Current Convention
ICHRANGE	IQUANT	2	Ich Range
ICHRANGEMODE	TOGGLE	T	Ich Auto Range
ICHOFFSETENABLE	TOGGLE	F	Ich Offset Enable
ICHOFFSET	QUANT	0	Ich Offset (V)
ICHFILTER	IQUANT	1	Ich Filter
VCHRANGE	IQUANT	2	Vch Range
VCHRANGEMODE	TOGGLE	T	Vch Auto Range
VCHOFFSETENABLE	TOGGLE	F	Vch Offset Enable
VCHOFFSET	QUANT	0	Vch Offset (V)
VCHFILTER	IQUANT	1	Vch Filter
IERANGELOWERLIMIT	IQUANT	9	I/E Range Lower Limit
IERANGEMODE	TOGGLE	F	I/E AutoRange
IERANGE	IQUANT	9	I/E Range
ACHSELECT	IQUANT	1	Ach Select
ACHRANGE	IQUANT	2	Ach Range
ACHOFFSETENABLE	TOGGLE	F	Ach Offset Enable
ACHOFFSET	QUANT	0	Ach Offset (V)
ACHFILTER	IQUANT	1	Ach Filter
CABLEID	IQUANT	14	Cable ID
DCCALDATE	LABEL	5-7-2017	DC Calibration Date
ACCALDATE	LABEL	12/3/2015	AC Calibration Date
FRAMEWORKVERSION	QUANT	7.01	Framework Version
INSTRUMENTVERSION	LABEL	4.00	Instrument Version
CURVE	TABLE	103
	Pt	T	Vf	Im	Vu	Pwr	Sig	Ach	Temp	IERange	Over
	#	s	V	A	V	W	V	V	deg C	#	bits
	0	0.013333	6.84072E-001	-3.97413E-004	0.00000E+000	-2.71859E-004	-2.40040E-001	6.84324E-001	3.57690E+000	9	...........
	1	0.026667	6.70290E-001	-3.96986E-004	0.00000E+000	-2.66096E-004	-2.40040E-001	6.70538E-001	3.57690E+000	9	...........
	2	0.04	6.58267E-001	-3.99670E-004	0.00000E+000	-2.63090E-004	-2.40040E-001	6.58497E-001	3.57690E+000	9	...........
	3	0.053333	6.47262E-001	-3.98373E-004	0.00000E+000	-2.57852E-004	-2.40040E-001	6.47523E-001	3.57690E+000	9	...........
	4	0.066667	6.37092E-001	-3.99098E-004	0.00000E+000	-2.54262E-004	-2.40040E-001	6.37339E-001	3.57690E+000	9	...........
	5	0.08	6.27407E-001	-3.99809E-004	0.00000E+000	-2.50843E-004	-2.40040E-001	6.27622E-001	3.57690E+000	9	...........
	6	0.093333	6.17990E-001	-3.98836E-004	0.00000E+000	-2.46477E-004	-2.40040E-001	6.18197E-001	3.57690E+000	9	...........
	7	0.106667	6.08755E-001	-3.98654E-004	0.00000E+000	-2.42683E-004	-2.40040E-001	6.09018E-001	3.57690E+000	9	...........
	8	0.12	5.99859E-001	-3.98490E-004	0.00000E+000	-2.39038E-004	-2.40040E-001	6.00091E-001	3.57690E+000	9	...........
	9	0.133333	5.91094E-001	-3.98485E-004	0.00000E+000	-2.35542E-004	-2.40040E-001	5.91312E-001	3.57690E+000	9	...........
	10	0.146667	5.82463E-001	-3.97430E-004	0.00000E+000	-2.31488E-004	-2.40040E-001	5.82692E-001	3.57690E+000	9	...........
	11	0.16	5.73871E-001	-3.98309E-004	0.00000E+000	-2.28578E-004	-2.40040E-001	5.74108E-001	3.57690E+000	9	...........
	12	0.173333	5.65428E-001	-3.99094E-004	0.00000E+000	-2.25659E-004	-2.40040E-001	5.65664E-001	3.57690E+000	9	...........
	13	0.186667	5.57066E-001	-3.99072E-004	0.00000E+000	-2.22309E-004	-2.40040E-001	5.57302E-001	3.57690E+000	9	...........
	14	0.2	5.48823E-001	-3.98439E-004	0.00000E+000	-2.18673E-004	-2.40040E-001	5.49069E-001	3.57690E+000	9	...........
	15	0.213333	5.40620E-001	-3.98354E-004	0.00000E+000	-2.15358E-004	-2.40040E-001	5.40859E-001	3.57690E+000	9	...........
	16	0.226667	5.32446E-001	-3.98540E-004	0.00000E+000	-2.12201E-004	-2.40040E-001	5.32662E-001	3.57690E+000	9	...........
	17	0.24	5.24320E-001	-3.97376E-004	0.00000E+000	-2.08352E-004	-2.40040E-001	5.24541E-001	3.57690E+000	9	...........
	18	0.253333	5.16296E-001	-3.97887E-004	0.00000E+000	-2.05428E-004	-2.40040E-001	5.16495E-001	3.57690E+000	9	...........
	19	0.266667	5.08255E-001	-3.98092E-004	0.00000E+000	-2.02332E-004	-2.40040E-001	5.08500E-001	3.57690E+000	9	...........
	20	0.28	5.00309E-001	-3.99393E-004	0.00000E+000	-1.99820E-004	-2.40040E-001	5.00526E-001	3.57644E+000	9	...........
	21	0.293333	4.92378E-001	-3.97853E-004	0.00000E+000	-1.95894E-004	-2.40040E-001	4.92580E-001	3.57640E+000	9	...........
	22	0.306667	4.84647E-001	-3.98602E-004	0.00000E+000	-1.93181E-004	-2.40040E-001	4.84803E-001	3.57640E+000	9	...........
	23	0.32	4.77081E-001	-3.98623E-004	0.00000E+000	-1.90175E-004	-2.40040E-001	4.77178E-001	3.57640E+000	9	...........
	24	0.333333	4.69439E-001	-3.98431E-004	0.00000E+000	-1.87039E-004	-2.40040E-001	4.69529E-001	3.57640E+000	9	...........
	25	0.346667	4.61829E-001	-3.99443E-004	0.00000E+000	-1.84474E-004	-2.40040E-001	4.61922E-001	3.57640E+000	9	...........
	26	0.36	4.54287E-001	-3.98156E-004	0.00000E+000	-1.80877E-004	-2.40040E-001	4.54382E-001	3.57640E+000	9	...........
	27	0.373333	4.46730E-001	-3.99106E-004	0.00000E+000	-1.78293E-004	-2.40040E-001	4.46819E-001	3.57640E+000	9	...........
	28	0.386667	4.39119E-001	-3.98603E-004	0.00000E+000	-1.75034E-004	-2.40040E-001	4.39215E-001	3.57640E+000	9	...........
	29	0.4	4.31585E-001	-3.99248E-004	0.00000E+000	-1.72310E-004	-2.40040E-001	4.31674E-001	3.57640E+000	9	...........
	30	0.413333	4.24125E-001	-3.99139E-004	0.00000E+000	-1.69285E-004	-2.40040E-001	4.24213E-001	3.57640E+000	9	...........
	31	0.426667	4.16691E-001	-3.99226E-004	0.00000E+000	-1.66354E-004	-2.40040E-001	4.16779E-001	3.57640E+000	9	...........
	32	0.44	4.09310E-001	-3.98859E-004	0.00000E+000	-1.63257E-004	-2.40040E-001	4.09391E-001	3.57640E+000	9	...........
	33	0.453333	4.01932E-001	-3.99735E-004	0.00000E+000	-1.60666E-004	-2.40040E-001	4.02006E-001	3.57640E+000	9	...........
	34	0.466667	3.94565E-001	-3.98511E-004	0.00000E+000	-1.57238E-004	-2.40040E-001	3.94637E-001	3.57640E+000	9	...........
	35	0.48	3.87284E-001	-3.98996E-004	0.00000E+000	-1.54525E-004	-2.40040E-001	3.87358E-001	3.57640E+000	9	...........
	36	0.493333	3.80126E-001	-3.99958E-004	0.00000E+000	-1.52034E-004	-2.40040E-001	3.80201E-001	3.57640E+000	9	...........
	37	0.506667	3.73017E-001	-3.98458E-004	0.00000E+000	-1.48632E-004	-2.40040E-001	3.73086E-001	3.57640E+000	9	...........
	38	0.52	3.65909E-001	-3.98381E-004	0.00000E+000	-1.45771E-004	-2.40040E-001	3.65988E-001	3.57640E+000	9	...........
	39	0.533333	3.58902E-001	-3.97799E-004	0.00000E+000	-1.42771E-004	-2.40040E-001	3.58969E-001	3.57640E+000	9	...........
	40	0.546667	3.51911E-001	-3.98541E-004	0.00000E+000	-1.40251E-004	-2.40040E-001	3.51974E-001	3.57640E+000	9	...........
	41	0.56	3.44916E-001	-3.99454E-004	0.00000E+000	-1.37778E-004	-2.40040E-001	3.44983E-001	3.57640E+000	9	...........
	42	0.573333	3.37950E-001	-3.98525E-004	0.00000E+000	-1.34681E-004	-2.40040E-001	3.38018E-001	3.57640E+000	9	...........
	43	0.586667	3.31039E-001	-3.98246E-004	0.00000E+000	-1.31835E-004	-2.40040E-001	3.31105E-001	3.57640E+000	9	...........
	44	0.6	3.24230E-001	-3.99529E-004	0.00000E+000	-1.29539E-004	-2.40040E-001	3.24289E-001	3.57640E+000	9	...........
	45	0.613333	3.17436E-001	-3.97895E-004	0.00000E+000	-1.26306E-004	-2.40040E-001	3.17498E-001	3.57640E+000	9	...........
	46	0.626667	3.10724E-001	-3.99597E-004	0.00000E+000	-1.24165E-004	-2.40040E-001	3.10785E-001	3.57640E+000	9	...........
	47	0.64	3.04052E-001	-3.99594E-004	0.00000E+000	-1.21497E-004	-2.40040E-001	3.04109E-001	3.57640E+000	9	...........
	48	0.653333	2.97334E-001	-3.97217E-004	0.00000E+000	-1.18106E-004	-2.40040E-001	2.97389E-001	3.57640E+000	9	...........
	49	0.666667	2.90728E-001	-3.99458E-004	0.00000E+000	-1.16134E-004	-2.40040E-001	2.90782E-001	3.57640E+000	9	...........
	50	0.68	2.84209E-001	-3.98210E-004	0.00000E+000	-1.13175E-004	-2.40040E-001	2.84270E-001	3.57640E+000	9	...........
	51	0.693333	2.77690E-001	-3.98755E-004	0.00000E+000	-1.10730E-004	-2.40040E-001	2.77741E-001	3.57640E+000	9	...........
	52	0.706667	2.71217E-001	-3.98979E-004	0.00000E+000	-1.08210E-004	-2.40040E-001	2.71273E-001	3.57640E+000	9	...........
	53	0.72	2.64891E-001	-3.98562E-004	0.00000E+000	-1.05576E-004	-2.40040E-001	2.64948E-001	3.57640E+000	9	...........
	54	0.733333	2.58448E-001	-3.97720E-004	0.00000E+000	-1.02790E-004	-2.40040E-001	2.58505E-001	3.57640E+000	9	...........
	55	0.746667	2.52035E-001	-3.98748E-004	0.00000E+000	-1.00498E-004	-2.40040E-001	2.52092E-001	3.57640E+000	9	...........
	56	0.76	2.45725E-001	-3.98960E-004	0.00000E+000	-9.80347E-005	-2.40040E-001	2.45778E-001	3.57640E+000	9	...........
	57	0.773333	2.39473E-001	-3.98422E-004	0.00000E+000	-9.54114E-005	-2.40040E-001	2.39517E-001	3.57640E+000	9	...........
	58	0.786667	2.33215E-001	-3.97637E-004	0.00000E+000	-9.27350E-005	-2.40040E-001	2.33259E-001	3.57640E+000	9	...........
	59	0.8	2.26966E-001	-3.99646E-004	0.00000E+000	-9.07060E-005	-2.40040E-001	2.27015E-001	3.57640E+000	9	...........
	60	0.813333	2.20836E-001	-3.98579E-004	0.00000E+000	-8.80207E-005	-2.40040E-001	2.20876E-001	3.57640E+000	9	...........
	61	0.826667	2.14749E-001	-4.01163E-004	0.00000E+000	-8.61495E-005	-2.40040E-001	2.14793E-001	3.57640E+000	9	...........
	62	0.84	2.08669E-001	-3.97953E-004	0.00000E+000	-8.30404E-005	-2.40040E-001	2.08709E-001	3.57640E+000	9	...........
	63	0.853333	2.02605E-001	-3.98557E-004	0.00000E+000	-8.07496E-005	-2.40040E-001	2.02648E-001	3.57640E+000	9	...........
	64	0.866667	1.96748E-001	-3.98607E-004	0.00000E+000	-7.84253E-005	-2.40040E-001	1.96787E-001	3.57640E+000	9	...........
	65	0.88	1.90836E-001	-3.98050E-004	0.00000E+000	-7.59623E-005	-2.40040E-001	1.90871E-001	3.57640E+000	9	...........
	66	0.893333	1.84946E-001	-3.98678E-004	0.00000E+000	-7.37338E-005	-2.40040E-001	1.84984E-001	3.57640E+000	9	...........
	67	0.906667	1.79079E-001	-3.99687E-004	0.00000E+000	-7.15754E-005	-2.40040E-001	1.79112E-001	3.57640E+000	9	...........
	68	0.92	1.73307E-001	-3.99051E-004	0.00000E+000	-6.91582E-005	-2.40040E-001	1.73337E-001	3.57640E+000	9	...........
	69	0.933333	1.67590E-001	-3.99146E-004	0.00000E+000	-6.68929E-005	-2.40040E-001	1.67620E-001	3.57640E+000	9	...........
	70	0.946667	1.61933E-001	-3.98277E-004	0.00000E+000	-6.44941E-005	-2.40040E-001	1.61963E-001	3.57640E+000	9	...........
	71	0.96	1.56268E-001	-3.98365E-004	0.00000E+000	-6.22518E-005	-2.40040E-001	1.56299E-001	3.57640E+000	9	...........
	72	0.97333	1.50707E-001	-4.00534E-004	0.00000E+000	-6.03631E-005	-2.40040E-001	1.50731E-001	3.57640E+000	9	...........
	73	0.98667	1.45105E-001	-3.99659E-004	0.00000E+000	-5.79925E-005	-2.40040E-001	1.45128E-001	3.57640E+000	9	...........
	74	1	1.39551E-001	-3.98869E-004	0.00000E+000	-5.56626E-005	-2.40040E-001	1.39571E-001	3.57640E+000	9	...........
	75	1.01333	1.34079E-001	-3.97181E-004	0.00000E+000	-5.32536E-005	-2.40040E-001	1.34100E-001	3.57640E+000	9	...........
	76	1.02667	1.28653E-001	-3.99280E-004	0.00000E+000	-5.13685E-005	-2.40040E-001	1.28674E-001	3.57640E+000	9	...........
	77	1.04	1.23187E-001	-3.97381E-004	0.00000E+000	-4.89520E-005	-2.40040E-001	1.23205E-001	3.57640E+000	9	...........
	78	1.05333	1.17783E-001	-3.98498E-004	0.00000E+000	-4.69362E-005	-2.40040E-001	1.17808E-001	3.57640E+000	9	...........
	79	1.06667	1.12469E-001	-3.97961E-004	0.00000E+000	-4.47584E-005	-2.40040E-001	1.12493E-001	3.57640E+000	9	...........
	80	1.08	1.07161E-001	-3.98907E-004	0.00000E+000	-4.27471E-005	-2.40040E-001	1.07179E-001	3.57640E+000	9	...........
	81	1.09333	1.01840E-001	-3.99295E-004	0.00000E+000	-4.06642E-005	-2.40040E-001	1.01860E-001	3.57640E+000	9	...........
	82	1.10667	9.65441E-002	-3.98915E-004	0.00000E+000	-3.85129E-005	-2.40040E-001	9.65610E-002	3.57640E+000	9	...........
	83	1.12	9.13393E-002	-3.99456E-004	0.00000E+000	-3.64860E-005	-2.40040E-001	9.13556E-002	3.57640E+000	9	...........
	84	1.13333	8.60887E-002	-3.99051E-004	0.00000E+000	-3.43538E-005	-2.40040E-001	8.61081E-002	3.57640E+000	9	...........
	85	1.14667	8.08862E-002	-3.98321E-004	0.00000E+000	-3.22187E-005	-2.40040E-001	8.09018E-002	3.57640E+000	9	...........
	86	1.16	7.57849E-002	-3.99329E-004	0.00000E+000	-3.02631E-005	-2.40040E-001	7.57892E-002	3.57640E+000	9	...........
	87	1.17333	7.07421E-002	-3.99074E-004	0.00000E+000	-2.82313E-005	-2.40040E-001	7.07506E-002	3.57640E+000	9	...........
	88	1.18667	6.57471E-002	-3.99044E-004	0.00000E+000	-2.62360E-005	-2.40040E-001	6.57566E-002	3.57640E+000	9	...........
	89	1.2	6.07185E-002	-3.98307E-004	0.00000E+000	-2.41846E-005	-2.40040E-001	6.07240E-002	3.57640E+000	9	...........
	90	1.21333	5.56786E-002	-3.98531E-004	0.00000E+000	-2.21897E-005	-2.40040E-001	5.56827E-002	3.57640E+000	9	...........
	91	1.22667	5.07075E-002	-3.99685E-004	0.00000E+000	-2.02670E-005	-2.40040E-001	5.07139E-002	3.57640E+000	9	...........
	92	1.24	4.58165E-002	-3.99623E-004	0.00000E+000	-1.83093E-005	-2.40040E-001	4.58170E-002	3.57640E+000	9	...........
	93	1.25333	4.09039E-002	-3.99181E-004	0.00000E+000	-1.63281E-005	-2.40040E-001	4.09039E-002	3.57640E+000	9	...........
	94	1.26667	3.60357E-002	-3.98358E-004	0.00000E+000	-1.43551E-005	-2.40040E-001	3.60358E-002	3.57640E+000	9	...........
	95	1.28	3.11968E-002	-3.99348E-004	0.00000E+000	-1.24584E-005	-2.40040E-001	3.11957E-002	3.57640E+000	9	...........
	96	1.29333	2.63830E-002	-3.99494E-004	0.00000E+000	-1.05398E-005	-2.40040E-001	2.63766E-002	3.57640E+000	9	...........
	97	1.30667	2.15693E-002	-3.99234E-004	0.00000E+000	-8.61119E-006	-2.40040E-001	2.15606E-002	3.57640E+000	9	...........
	98	1.32	1.68062E-002	-3.97981E-004	0.00000E+000	-6.68855E-006	-2.40040E-001	1.67948E-002	3.57640E+000	9	...........
	99	1.33333	1.21450E-002	-3.98750E-004	0.00000E+000	-4.84283E-006	-2.40040E-001	1.21353E-002	3.57640E+000	9	...........
	100	1.34667	7.44675E-003	-3.98843E-004	0.00000E+000	-2.97008E-006	-2.40040E-001	7.43024E-003	3.57640E+000	9	...........
	101	1.36	2.81616E-003	-3.98890E-004	0.00000E+000	-1.12334E-006	-2.40040E-001	2.79258E-003	3.57640E+000	9	...........
	102	1.36333	-4.32320E-005	-3.96381E-004	0.00000E+000	1.71363E-008	-2.40040E-001	-7.16226E-005	3.57640E+000	9	...........
STARTTIMEOFFSET	QUANT	2877.832	Start Time Offset (s)
