EXPLAIN
TAG	PWR800_DISCHARGE
TITLE	LABEL	PWR Cyclic Charge Discharge (Cell) - Discharge Step	Test &Identifier
DATE	LABEL	12-7-2017	Date
TIME	LABEL	14:40:30	Time
NOTES	NOTES	3	&Notes...
	supercap test cell
	0.4mg
	6M KOH
PSTAT	PSTAT	IFC5000-01520	Potentiostat
CAPACITY	QUANT	1.00000E-003	Capacity (A-hr)
CELLTYPE	SELECTOR	1	&Cell Type
WORKINGCONNECTION	SELECTOR	0	&Working Lead
MAXDISCHARGETIME	VARIABLEANDUNITS	1.00000E+002	s	1.00000E+002	second(s)	Max &Discharge Time
DISCHARGEMODE	MULTIPARAM	0	4.00000E-004	&Discharge Mode	Constant Current	Amp(s)
SAMPLETIME	QUANT	1.00000E-002	Sa&mple Period (s)
DISCHARGESTOPAT1	MULTIPARAM	3	0.00000E+000	Discharge Stop At &1	Voltage < Limit	V
DISCHARGESTOPAT2	MULTIPARAM	0	0.00000E+000	Discharge Stop At &2	None	N/A
AESBHCSELECTOR	TOGGLE	F	Save Both Half Cells
IRCOMP	TOGGLE	F	IR &Measure
EOC	QUANT	0	Open Circuit (V)
SEQUENCER	TOGGLE	TRUE	Run as Sequence
PSTATMODEL	IQUANT	53	Pstat Model
PSTATSECTION	LABEL	IFC5000-01520	Pstat Section
PSTATSERIALNO	LABEL	01520	Pstat Serial Number
CTRLMODE	IQUANT	0	Control Mode
ELECTROMETER	IQUANT	1	RE=0 or CS=1
IESTAB	IQUANT	0	I/E Stability
CASPEED	IQUANT	4	Control Amp Speed
CONVENTION	IQUANT	1	Current Convention
ICHRANGE	IQUANT	2	Ich Range
ICHRANGEMODE	TOGGLE	T	Ich Auto Range
ICHOFFSETENABLE	TOGGLE	F	Ich Offset Enable
ICHOFFSET	QUANT	0	Ich Offset (V)
ICHFILTER	IQUANT	1	Ich Filter
VCHRANGE	IQUANT	2	Vch Range
VCHRANGEMODE	TOGGLE	T	Vch Auto Range
VCHOFFSETENABLE	TOGGLE	F	Vch Offset Enable
VCHOFFSET	QUANT	0	Vch Offset (V)
VCHFILTER	IQUANT	1	Vch Filter
IERANGELOWERLIMIT	IQUANT	9	I/E Range Lower Limit
IERANGEMODE	TOGGLE	F	I/E AutoRange
IERANGE	IQUANT	9	I/E Range
ACHSELECT	IQUANT	1	Ach Select
ACHRANGE	IQUANT	2	Ach Range
ACHOFFSETENABLE	TOGGLE	F	Ach Offset Enable
ACHOFFSET	QUANT	0	Ach Offset (V)
ACHFILTER	IQUANT	1	Ach Filter
CABLEID	IQUANT	14	Cable ID
DCCALDATE	LABEL	5-7-2017	DC Calibration Date
ACCALDATE	LABEL	12/3/2015	AC Calibration Date
FRAMEWORKVERSION	QUANT	7.01	Framework Version
INSTRUMENTVERSION	LABEL	4.00	Instrument Version
CURVE	TABLE	119
	Pt	T	Vf	Im	Vu	Pwr	Sig	Ach	Temp	IERange	Over
	#	s	V	A	V	W	V	V	deg C	#	bits
	0	0.013333	7.05472E-001	-3.98766E-004	0.00000E+000	-2.81318E-004	-2.40040E-001	7.05685E-001	3.57600E+000	9	...........
	1	0.026667	6.93624E-001	-3.98942E-004	0.00000E+000	-2.76716E-004	-2.40040E-001	6.93839E-001	3.57600E+000	9	...........
	2	0.04	6.83143E-001	-3.98862E-004	0.00000E+000	-2.72480E-004	-2.40040E-001	6.83352E-001	3.57600E+000	9	...........
	3	0.053333	6.73499E-001	-3.99072E-004	0.00000E+000	-2.68775E-004	-2.40040E-001	6.73703E-001	3.57600E+000	9	...........
	4	0.066667	6.64403E-001	-3.98691E-004	0.00000E+000	-2.64891E-004	-2.40040E-001	6.64629E-001	3.57600E+000	9	...........
	5	0.08	6.55587E-001	-3.98660E-004	0.00000E+000	-2.61357E-004	-2.40040E-001	6.55813E-001	3.57600E+000	9	...........
	6	0.093333	6.47073E-001	-3.97953E-004	0.00000E+000	-2.57505E-004	-2.40040E-001	6.47314E-001	3.57600E+000	9	...........
	7	0.106667	6.38821E-001	-3.99038E-004	0.00000E+000	-2.54914E-004	-2.40040E-001	6.39053E-001	3.57600E+000	9	...........
	8	0.12	6.30678E-001	-4.00202E-004	0.00000E+000	-2.52399E-004	-2.40040E-001	6.30901E-001	3.57600E+000	9	...........
	9	0.133333	6.22732E-001	-3.99121E-004	0.00000E+000	-2.48545E-004	-2.40040E-001	6.22917E-001	3.57600E+000	9	...........
	10	0.146667	6.14752E-001	-3.98225E-004	0.00000E+000	-2.44810E-004	-2.40040E-001	6.14986E-001	3.57600E+000	9	...........
	11	0.16	6.06891E-001	-3.99145E-004	0.00000E+000	-2.42237E-004	-2.40040E-001	6.07150E-001	3.57600E+000	9	...........
	12	0.173333	5.99218E-001	-3.98634E-004	0.00000E+000	-2.38869E-004	-2.40040E-001	5.99468E-001	3.57600E+000	9	...........
	13	0.186667	5.91675E-001	-3.97576E-004	0.00000E+000	-2.35236E-004	-2.40040E-001	5.91925E-001	3.57600E+000	9	...........
	14	0.2	5.84136E-001	-3.97848E-004	0.00000E+000	-2.32397E-004	-2.40040E-001	5.84378E-001	3.57600E+000	9	...........
	15	0.213333	5.76757E-001	-3.98488E-004	0.00000E+000	-2.29831E-004	-2.40040E-001	5.76945E-001	3.57600E+000	9	...........
	16	0.226667	5.69343E-001	-3.99322E-004	0.00000E+000	-2.27351E-004	-2.40040E-001	5.69522E-001	3.57600E+000	9	...........
	17	0.24	5.61927E-001	-3.99586E-004	0.00000E+000	-2.24538E-004	-2.40040E-001	5.62111E-001	3.57600E+000	9	...........
	18	0.253333	5.54591E-001	-3.97318E-004	0.00000E+000	-2.20349E-004	-2.40040E-001	5.54767E-001	3.57600E+000	9	...........
	19	0.266667	5.47385E-001	-3.98848E-004	0.00000E+000	-2.18323E-004	-2.40040E-001	5.47571E-001	3.57600E+000	9	...........
	20	0.28	5.40274E-001	-3.97213E-004	0.00000E+000	-2.14604E-004	-2.40040E-001	5.40462E-001	3.57600E+000	9	...........
	21	0.293333	5.33045E-001	-3.98438E-004	0.00000E+000	-2.12386E-004	-2.40040E-001	5.33261E-001	3.57600E+000	9	...........
	22	0.306667	5.25976E-001	-3.98255E-004	0.00000E+000	-2.09473E-004	-2.40040E-001	5.26166E-001	3.57600E+000	9	...........
	23	0.32	5.18928E-001	-3.98134E-004	0.00000E+000	-2.06603E-004	-2.40040E-001	5.19131E-001	3.57600E+000	9	...........
	24	0.333333	5.11917E-001	-4.00302E-004	0.00000E+000	-2.04922E-004	-2.40040E-001	5.12126E-001	3.57615E+000	9	...........
	25	0.346667	5.04877E-001	-3.98236E-004	0.00000E+000	-2.01060E-004	-2.40040E-001	5.05113E-001	3.57630E+000	9	...........
	26	0.36	4.97872E-001	-3.99715E-004	0.00000E+000	-1.99007E-004	-2.40040E-001	4.98128E-001	3.57630E+000	9	...........
	27	0.373333	4.90908E-001	-3.99472E-004	0.00000E+000	-1.96104E-004	-2.40040E-001	4.91146E-001	3.57630E+000	9	...........
	28	0.386667	4.84248E-001	-3.98886E-004	0.00000E+000	-1.93160E-004	-2.40040E-001	4.84391E-001	3.57630E+000	9	...........
	29	0.4	4.77421E-001	-3.98890E-004	0.00000E+000	-1.90438E-004	-2.40040E-001	4.77522E-001	3.57630E+000	9	...........
	30	0.413333	4.70501E-001	-3.99498E-004	0.00000E+000	-1.87964E-004	-2.40040E-001	4.70598E-001	3.57630E+000	9	...........
	31	0.426667	4.63766E-001	-3.98658E-004	0.00000E+000	-1.84884E-004	-2.40040E-001	4.63862E-001	3.57630E+000	9	...........
	32	0.44	4.57023E-001	-3.99550E-004	0.00000E+000	-1.82604E-004	-2.40040E-001	4.57116E-001	3.57630E+000	9	...........
	33	0.453333	4.50282E-001	-3.98739E-004	0.00000E+000	-1.79545E-004	-2.40040E-001	4.50376E-001	3.57630E+000	9	...........
	34	0.466667	4.43578E-001	-3.98342E-004	0.00000E+000	-1.76696E-004	-2.40040E-001	4.43678E-001	3.57630E+000	9	...........
	35	0.48	4.37012E-001	-3.97760E-004	0.00000E+000	-1.73826E-004	-2.40040E-001	4.37104E-001	3.57630E+000	9	...........
	36	0.493333	4.30436E-001	-3.99430E-004	0.00000E+000	-1.71929E-004	-2.40040E-001	4.30523E-001	3.57630E+000	9	...........
	37	0.506667	4.23844E-001	-3.98469E-004	0.00000E+000	-1.68889E-004	-2.40040E-001	4.23936E-001	3.57630E+000	9	...........
	38	0.52	4.17333E-001	-3.97192E-004	0.00000E+000	-1.65762E-004	-2.40040E-001	4.17418E-001	3.57630E+000	9	...........
	39	0.533333	4.10837E-001	-3.98895E-004	0.00000E+000	-1.63881E-004	-2.40040E-001	4.10920E-001	3.57630E+000	9	...........
	40	0.546667	4.04429E-001	-3.98733E-004	0.00000E+000	-1.61259E-004	-2.40040E-001	4.04507E-001	3.57630E+000	9	...........
	41	0.56	3.98031E-001	-3.98940E-004	0.00000E+000	-1.58790E-004	-2.40040E-001	3.98110E-001	3.57630E+000	9	...........
	42	0.573333	3.91706E-001	-3.98728E-004	0.00000E+000	-1.56184E-004	-2.40040E-001	3.91780E-001	3.57630E+000	9	...........
	43	0.586667	3.85377E-001	-3.97285E-004	0.00000E+000	-1.53105E-004	-2.40040E-001	3.85451E-001	3.57630E+000	9	...........
	44	0.6	3.79079E-001	-3.99328E-004	0.00000E+000	-1.51377E-004	-2.40040E-001	3.79148E-001	3.57630E+000	9	...........
	45	0.613333	3.72783E-001	-3.98399E-004	0.00000E+000	-1.48516E-004	-2.40040E-001	3.72851E-001	3.57630E+000	9	...........
	46	0.626667	3.66610E-001	-3.98149E-004	0.00000E+000	-1.45965E-004	-2.40040E-001	3.66684E-001	3.57630E+000	9	...........
	47	0.64	3.60409E-001	-3.99487E-004	0.00000E+000	-1.43978E-004	-2.40040E-001	3.60478E-001	3.57630E+000	9	...........
	48	0.653333	3.54325E-001	-3.99025E-004	0.00000E+000	-1.41385E-004	-2.40040E-001	3.54391E-001	3.57630E+000	9	...........
	49	0.666667	3.48266E-001	-3.99044E-004	0.00000E+000	-1.38973E-004	-2.40040E-001	3.48329E-001	3.57630E+000	9	...........
	50	0.68	3.42086E-001	-3.99845E-004	0.00000E+000	-1.36781E-004	-2.40040E-001	3.42156E-001	3.57630E+000	9	...........
	51	0.693333	3.36083E-001	-4.00346E-004	0.00000E+000	-1.34550E-004	-2.40040E-001	3.36153E-001	3.57630E+000	9	...........
	52	0.706667	3.30112E-001	-3.97716E-004	0.00000E+000	-1.31291E-004	-2.40040E-001	3.30181E-001	3.57630E+000	9	...........
	53	0.72	3.24193E-001	-3.99940E-004	0.00000E+000	-1.29658E-004	-2.40040E-001	3.24263E-001	3.57630E+000	9	...........
	54	0.733333	3.18279E-001	-3.98445E-004	0.00000E+000	-1.26817E-004	-2.40040E-001	3.18344E-001	3.57630E+000	9	...........
	55	0.746667	3.12309E-001	-3.98113E-004	0.00000E+000	-1.24334E-004	-2.40040E-001	3.12366E-001	3.57630E+000	9	...........
	56	0.76	3.06389E-001	-3.97192E-004	0.00000E+000	-1.21695E-004	-2.40040E-001	3.06442E-001	3.57630E+000	9	...........
	57	0.773333	3.00561E-001	-3.98827E-004	0.00000E+000	-1.19872E-004	-2.40040E-001	3.00618E-001	3.57630E+000	9	...........
	58	0.786667	2.94767E-001	-3.99332E-004	0.00000E+000	-1.17710E-004	-2.40040E-001	2.94822E-001	3.57630E+000	9	...........
	59	0.8	2.88990E-001	-3.99412E-004	0.00000E+000	-1.15426E-004	-2.40040E-001	2.89049E-001	3.57630E+000	9	...........
	60	0.813333	2.83203E-001	-4.00863E-004	0.00000E+000	-1.13526E-004	-2.40040E-001	2.83257E-001	3.57630E+000	9	...........
	61	0.826667	2.77557E-001	-3.99687E-004	0.00000E+000	-1.10936E-004	-2.40040E-001	2.77614E-001	3.57630E+000	9	...........
	62	0.84	2.71902E-001	-3.98681E-004	0.00000E+000	-1.08402E-004	-2.40040E-001	2.71947E-001	3.57630E+000	9	...........
	63	0.853333	2.66273E-001	-3.99097E-004	0.00000E+000	-1.06269E-004	-2.40040E-001	2.66327E-001	3.57630E+000	9	...........
	64	0.866667	2.60593E-001	-3.98635E-004	0.00000E+000	-1.03882E-004	-2.40040E-001	2.60650E-001	3.57630E+000	9	...........
	65	0.88	2.55087E-001	-3.99249E-004	0.00000E+000	-1.01843E-004	-2.40040E-001	2.55142E-001	3.57630E+000	9	...........
	66	0.893333	2.49541E-001	-4.00031E-004	0.00000E+000	-9.98244E-005	-2.40040E-001	2.49597E-001	3.57630E+000	9	...........
	67	0.906667	2.44005E-001	-3.98280E-004	0.00000E+000	-9.71825E-005	-2.40040E-001	2.44050E-001	3.57630E+000	9	...........
	68	0.92	2.38419E-001	-3.99852E-004	0.00000E+000	-9.53322E-005	-2.40040E-001	2.38467E-001	3.57630E+000	9	...........
	69	0.933333	2.32971E-001	-3.99588E-004	0.00000E+000	-9.30923E-005	-2.40040E-001	2.33016E-001	3.57630E+000	9	...........
	70	0.946667	2.27479E-001	-3.99192E-004	0.00000E+000	-9.08078E-005	-2.40040E-001	2.27527E-001	3.57630E+000	9	...........
	71	0.96	2.22134E-001	-3.99235E-004	0.00000E+000	-8.86838E-005	-2.40040E-001	2.22176E-001	3.57630E+000	9	...........
	72	0.97333	2.16781E-001	-3.99890E-004	0.00000E+000	-8.66886E-005	-2.40040E-001	2.16825E-001	3.57630E+000	9	...........
	73	0.98667	2.11447E-001	-3.98785E-004	0.00000E+000	-8.43220E-005	-2.40040E-001	2.11477E-001	3.57630E+000	9	...........
	74	1	2.06107E-001	-3.98573E-004	0.00000E+000	-8.21485E-005	-2.40040E-001	2.06147E-001	3.57630E+000	9	...........
	75	1.01333	2.00803E-001	-3.99080E-004	0.00000E+000	-8.01366E-005	-2.40040E-001	2.00847E-001	3.57630E+000	9	...........
	76	1.02667	1.95476E-001	-3.98109E-004	0.00000E+000	-7.78210E-005	-2.40040E-001	1.95512E-001	3.57630E+000	9	...........
	77	1.04	1.90195E-001	-3.98822E-004	0.00000E+000	-7.58540E-005	-2.40040E-001	1.90229E-001	3.57630E+000	9	...........
	78	1.05333	1.84994E-001	-3.99386E-004	0.00000E+000	-7.38838E-005	-2.40040E-001	1.85029E-001	3.57630E+000	9	...........
	79	1.06667	1.79860E-001	-3.97847E-004	0.00000E+000	-7.15565E-005	-2.40040E-001	1.79889E-001	3.57630E+000	9	...........
	80	1.08	1.74666E-001	-3.98717E-004	0.00000E+000	-6.96421E-005	-2.40040E-001	1.74699E-001	3.57630E+000	9	...........
	81	1.09333	1.69524E-001	-4.00377E-004	0.00000E+000	-6.78736E-005	-2.40040E-001	1.69558E-001	3.57630E+000	9	...........
	82	1.10667	1.64457E-001	-3.98554E-004	0.00000E+000	-6.55448E-005	-2.40040E-001	1.64486E-001	3.57630E+000	9	...........
	83	1.12	1.59401E-001	-3.99521E-004	0.00000E+000	-6.36841E-005	-2.40040E-001	1.59433E-001	3.57630E+000	9	...........
	84	1.13333	1.54396E-001	-3.98947E-004	0.00000E+000	-6.15957E-005	-2.40040E-001	1.54428E-001	3.57630E+000	9	...........
	85	1.14667	1.49430E-001	-3.99016E-004	0.00000E+000	-5.96249E-005	-2.40040E-001	1.49454E-001	3.57630E+000	9	...........
	86	1.16	1.44461E-001	-3.98242E-004	0.00000E+000	-5.75302E-005	-2.40040E-001	1.44494E-001	3.57630E+000	9	...........
	87	1.17333	1.39570E-001	-3.98917E-004	0.00000E+000	-5.56769E-005	-2.40040E-001	1.39597E-001	3.57630E+000	9	...........
	88	1.18667	1.34617E-001	-3.98475E-004	0.00000E+000	-5.36414E-005	-2.40040E-001	1.34645E-001	3.57630E+000	9	...........
	89	1.2	1.29657E-001	-3.99395E-004	0.00000E+000	-5.17842E-005	-2.40040E-001	1.29683E-001	3.57630E+000	9	...........
	90	1.21333	1.24812E-001	-3.98320E-004	0.00000E+000	-4.97153E-005	-2.40040E-001	1.24839E-001	3.57630E+000	9	...........
	91	1.22667	1.19980E-001	-3.97978E-004	0.00000E+000	-4.77494E-005	-2.40040E-001	1.20009E-001	3.57630E+000	9	...........
	92	1.24	1.15077E-001	-3.98218E-004	0.00000E+000	-4.58256E-005	-2.40040E-001	1.15102E-001	3.57630E+000	9	...........
	93	1.25333	1.10159E-001	-3.99304E-004	0.00000E+000	-4.39868E-005	-2.40040E-001	1.10179E-001	3.57630E+000	9	...........
	94	1.26667	1.05382E-001	-3.99747E-004	0.00000E+000	-4.21262E-005	-2.40040E-001	1.05409E-001	3.57630E+000	9	...........
	95	1.28	1.00645E-001	-3.98895E-004	0.00000E+000	-4.01469E-005	-2.40040E-001	1.00665E-001	3.57630E+000	9	...........
	96	1.29333	9.57801E-002	-3.97782E-004	0.00000E+000	-3.80996E-005	-2.40040E-001	9.57990E-002	3.57630E+000	9	...........
	97	1.30667	9.10712E-002	-3.97715E-004	0.00000E+000	-3.62204E-005	-2.40040E-001	9.10871E-002	3.57630E+000	9	...........
	98	1.32	8.63808E-002	-3.99966E-004	0.00000E+000	-3.45494E-005	-2.40040E-001	8.63997E-002	3.57630E+000	9	...........
	99	1.33333	8.17650E-002	-3.98785E-004	0.00000E+000	-3.26067E-005	-2.40040E-001	8.17822E-002	3.57620E+000	9	...........
	100	1.34667	7.71808E-002	-3.99419E-004	0.00000E+000	-3.08275E-005	-2.40040E-001	7.71961E-002	3.57610E+000	9	...........
	101	1.36	7.25214E-002	-3.98385E-004	0.00000E+000	-2.88915E-005	-2.40040E-001	7.25364E-002	3.57610E+000	9	...........
	102	1.37333	6.79016E-002	-3.97724E-004	0.00000E+000	-2.70061E-005	-2.40040E-001	6.79177E-002	3.57610E+000	9	...........
	103	1.38667	6.34002E-002	-3.97670E-004	0.00000E+000	-2.52123E-005	-2.40040E-001	6.34115E-002	3.57610E+000	9	...........
	104	1.4	5.88730E-002	-3.98727E-004	0.00000E+000	-2.34743E-005	-2.40040E-001	5.88823E-002	3.57610E+000	9	...........
	105	1.41333	5.43343E-002	-3.99069E-004	0.00000E+000	-2.16831E-005	-2.40040E-001	5.43424E-002	3.57610E+000	9	...........
	106	1.42667	4.98485E-002	-3.99920E-004	0.00000E+000	-1.99354E-005	-2.40040E-001	4.98611E-002	3.57610E+000	9	...........
	107	1.44	4.55237E-002	-3.98368E-004	0.00000E+000	-1.81352E-005	-2.40040E-001	4.55356E-002	3.57610E+000	9	...........
	108	1.45333	4.11025E-002	-3.99469E-004	0.00000E+000	-1.64192E-005	-2.40040E-001	4.11117E-002	3.57610E+000	9	...........
	109	1.46667	3.66978E-002	-3.98809E-004	0.00000E+000	-1.46354E-005	-2.40040E-001	3.67038E-002	3.57610E+000	9	...........
	110	1.48	3.22456E-002	-3.99352E-004	0.00000E+000	-1.28774E-005	-2.40040E-001	3.22452E-002	3.57610E+000	9	...........
	111	1.49333	2.79319E-002	-3.98466E-004	0.00000E+000	-1.11299E-005	-2.40040E-001	2.79243E-002	3.57610E+000	9	...........
	112	1.50667	2.36053E-002	-3.97606E-004	0.00000E+000	-9.38561E-006	-2.40040E-001	2.36035E-002	3.57610E+000	9	...........
	113	1.52	1.91743E-002	-3.98781E-004	0.00000E+000	-7.64637E-006	-2.40040E-001	1.91688E-002	3.57610E+000	9	...........
	114	1.53333	1.48450E-002	-3.99057E-004	0.00000E+000	-5.92402E-006	-2.40040E-001	1.48368E-002	3.57610E+000	9	...........
	115	1.54667	1.04472E-002	-3.98768E-004	0.00000E+000	-4.16599E-006	-2.40040E-001	1.04363E-002	3.57610E+000	9	...........
	116	1.56	6.16830E-003	-3.99226E-004	0.00000E+000	-2.46255E-006	-2.40040E-001	6.15483E-003	3.57610E+000	9	...........
	117	1.57333	2.02282E-003	-3.98494E-004	0.00000E+000	-8.06081E-007	-2.40040E-001	2.01085E-003	3.57610E+000	9	...........
	118	1.575	-3.71744E-004	-4.01248E-004	0.00000E+000	1.49162E-007	-2.40040E-001	-3.90923E-004	3.57610E+000	9	...........
STARTTIMEOFFSET	QUANT	1051.655	Start Time Offset (s)
