EXPLAIN
TAG	PWR800_DISCHARGE
TITLE	LABEL	PWR Cyclic Charge Discharge (Cell) - Discharge Step	Test &Identifier
DATE	LABEL	12-7-2017	Date
TIME	LABEL	14:47:24	Time
NOTES	NOTES	3	&Notes...
	supercap test cell
	0.4mg
	6M KOH
PSTAT	PSTAT	IFC5000-01520	Potentiostat
CAPACITY	QUANT	1.00000E-003	Capacity (A-hr)
CELLTYPE	SELECTOR	1	&Cell Type
WORKINGCONNECTION	SELECTOR	0	&Working Lead
MAXDISCHARGETIME	VARIABLEANDUNITS	1.00000E+002	s	1.00000E+002	second(s)	Max &Discharge Time
DISCHARGEMODE	MULTIPARAM	0	4.00000E-004	&Discharge Mode	Constant Current	Amp(s)
SAMPLETIME	QUANT	1.00000E-002	Sa&mple Period (s)
DISCHARGESTOPAT1	MULTIPARAM	3	0.00000E+000	Discharge Stop At &1	Voltage < Limit	V
DISCHARGESTOPAT2	MULTIPARAM	0	0.00000E+000	Discharge Stop At &2	None	N/A
AESBHCSELECTOR	TOGGLE	F	Save Both Half Cells
IRCOMP	TOGGLE	F	IR &Measure
EOC	QUANT	0	Open Circuit (V)
SEQUENCER	TOGGLE	TRUE	Run as Sequence
PSTATMODEL	IQUANT	53	Pstat Model
PSTATSECTION	LABEL	IFC5000-01520	Pstat Section
PSTATSERIALNO	LABEL	01520	Pstat Serial Number
CTRLMODE	IQUANT	0	Control Mode
ELECTROMETER	IQUANT	1	RE=0 or CS=1
IESTAB	IQUANT	0	I/E Stability
CASPEED	IQUANT	4	Control Amp Speed
CONVENTION	IQUANT	1	Current Convention
ICHRANGE	IQUANT	2	Ich Range
ICHRANGEMODE	TOGGLE	T	Ich Auto Range
ICHOFFSETENABLE	TOGGLE	F	Ich Offset Enable
ICHOFFSET	QUANT	0	Ich Offset (V)
ICHFILTER	IQUANT	1	Ich Filter
VCHRANGE	IQUANT	2	Vch Range
VCHRANGEMODE	TOGGLE	T	Vch Auto Range
VCHOFFSETENABLE	TOGGLE	F	Vch Offset Enable
VCHOFFSET	QUANT	0	Vch Offset (V)
VCHFILTER	IQUANT	1	Vch Filter
IERANGELOWERLIMIT	IQUANT	9	I/E Range Lower Limit
IERANGEMODE	TOGGLE	F	I/E AutoRange
IERANGE	IQUANT	9	I/E Range
ACHSELECT	IQUANT	1	Ach Select
ACHRANGE	IQUANT	2	Ach Range
ACHOFFSETENABLE	TOGGLE	F	Ach Offset Enable
ACHOFFSET	QUANT	0	Ach Offset (V)
ACHFILTER	IQUANT	1	Ach Filter
CABLEID	IQUANT	14	Cable ID
DCCALDATE	LABEL	5-7-2017	DC Calibration Date
ACCALDATE	LABEL	12/3/2015	AC Calibration Date
FRAMEWORKVERSION	QUANT	7.01	Framework Version
INSTRUMENTVERSION	LABEL	4.00	Instrument Version
CURVE	TABLE	115
	Pt	T	Vf	Im	Vu	Pwr	Sig	Ach	Temp	IERange	Over
	#	s	V	A	V	W	V	V	deg C	#	bits
	0	0.013333	7.02521E-001	-3.98209E-004	0.00000E+000	-2.79750E-004	-2.40040E-001	7.02740E-001	3.57670E+000	9	...........
	1	0.026667	6.90232E-001	-3.98570E-004	0.00000E+000	-2.75105E-004	-2.40040E-001	6.90437E-001	3.57670E+000	9	...........
	2	0.04	6.79381E-001	-3.99535E-004	0.00000E+000	-2.71436E-004	-2.40040E-001	6.79593E-001	3.57670E+000	9	...........
	3	0.053333	6.69484E-001	-3.98204E-004	0.00000E+000	-2.66591E-004	-2.40040E-001	6.69700E-001	3.57670E+000	9	...........
	4	0.066667	6.60154E-001	-3.98441E-004	0.00000E+000	-2.63032E-004	-2.40040E-001	6.60353E-001	3.57670E+000	9	...........
	5	0.08	6.51216E-001	-3.99097E-004	0.00000E+000	-2.59898E-004	-2.40040E-001	6.51441E-001	3.57670E+000	9	...........
	6	0.093333	6.42551E-001	-3.99818E-004	0.00000E+000	-2.56904E-004	-2.40040E-001	6.42778E-001	3.57670E+000	9	...........
	7	0.106667	6.34077E-001	-3.98466E-004	0.00000E+000	-2.52658E-004	-2.40040E-001	6.34312E-001	3.57670E+000	9	...........
	8	0.12	6.25808E-001	-3.97637E-004	0.00000E+000	-2.48844E-004	-2.40040E-001	6.26014E-001	3.57670E+000	9	...........
	9	0.133333	6.17660E-001	-3.99594E-004	0.00000E+000	-2.46813E-004	-2.40040E-001	6.17853E-001	3.57670E+000	9	...........
	10	0.146667	6.09535E-001	-3.99357E-004	0.00000E+000	-2.43422E-004	-2.40040E-001	6.09798E-001	3.57670E+000	9	...........
	11	0.16	6.01640E-001	-3.98495E-004	0.00000E+000	-2.39750E-004	-2.40040E-001	6.01897E-001	3.57670E+000	9	...........
	12	0.173333	5.93838E-001	-3.97087E-004	0.00000E+000	-2.35806E-004	-2.40040E-001	5.94083E-001	3.57670E+000	9	...........
	13	0.186667	5.86061E-001	-3.99629E-004	0.00000E+000	-2.34207E-004	-2.40040E-001	5.86291E-001	3.57670E+000	9	...........
	14	0.2	5.78330E-001	-3.98221E-004	0.00000E+000	-2.30303E-004	-2.40040E-001	5.78578E-001	3.57670E+000	9	...........
	15	0.213333	5.70744E-001	-3.98103E-004	0.00000E+000	-2.27215E-004	-2.40040E-001	5.70961E-001	3.57670E+000	9	...........
	16	0.226667	5.63108E-001	-3.99483E-004	0.00000E+000	-2.24952E-004	-2.40040E-001	5.63340E-001	3.57670E+000	9	...........
	17	0.24	5.55502E-001	-3.98511E-004	0.00000E+000	-2.21374E-004	-2.40040E-001	5.55721E-001	3.57670E+000	9	...........
	18	0.253333	5.48005E-001	-3.98999E-004	0.00000E+000	-2.18654E-004	-2.40040E-001	5.48235E-001	3.57675E+000	9	...........
	19	0.266667	5.40546E-001	-3.98766E-004	0.00000E+000	-2.15551E-004	-2.40040E-001	5.40777E-001	3.57680E+000	9	...........
	20	0.28	5.33212E-001	-3.98878E-004	0.00000E+000	-2.12687E-004	-2.40040E-001	5.33451E-001	3.57680E+000	9	...........
	21	0.293333	5.25850E-001	-3.99536E-004	0.00000E+000	-2.10096E-004	-2.40040E-001	5.26076E-001	3.57680E+000	9	...........
	22	0.306667	5.18518E-001	-3.99147E-004	0.00000E+000	-2.06965E-004	-2.40040E-001	5.18739E-001	3.57680E+000	9	...........
	23	0.32	5.11157E-001	-3.98592E-004	0.00000E+000	-2.03743E-004	-2.40040E-001	5.11406E-001	3.57680E+000	9	...........
	24	0.333333	5.03880E-001	-3.98577E-004	0.00000E+000	-2.00835E-004	-2.40040E-001	5.04153E-001	3.57680E+000	9	...........
	25	0.346667	4.96796E-001	-3.98478E-004	0.00000E+000	-1.97962E-004	-2.40040E-001	4.97040E-001	3.57680E+000	9	...........
	26	0.36	4.89666E-001	-3.98839E-004	0.00000E+000	-1.95298E-004	-2.40040E-001	4.89903E-001	3.57680E+000	9	...........
	27	0.373333	4.82795E-001	-3.99173E-004	0.00000E+000	-1.92719E-004	-2.40040E-001	4.82932E-001	3.57680E+000	9	...........
	28	0.386667	4.75853E-001	-3.97867E-004	0.00000E+000	-1.89326E-004	-2.40040E-001	4.75958E-001	3.57680E+000	9	...........
	29	0.4	4.68811E-001	-4.00471E-004	0.00000E+000	-1.87745E-004	-2.40040E-001	4.68909E-001	3.57680E+000	9	...........
	30	0.413333	4.61862E-001	-3.98975E-004	0.00000E+000	-1.84272E-004	-2.40040E-001	4.61961E-001	3.57680E+000	9	...........
	31	0.426667	4.54837E-001	-4.00324E-004	0.00000E+000	-1.82082E-004	-2.40040E-001	4.54937E-001	3.57680E+000	9	...........
	32	0.44	4.48037E-001	-3.98680E-004	0.00000E+000	-1.78623E-004	-2.40040E-001	4.48136E-001	3.57680E+000	9	...........
	33	0.453333	4.41269E-001	-3.99702E-004	0.00000E+000	-1.76376E-004	-2.40040E-001	4.41364E-001	3.57680E+000	9	...........
	34	0.466667	4.34440E-001	-3.98189E-004	0.00000E+000	-1.72989E-004	-2.40040E-001	4.34532E-001	3.57680E+000	9	...........
	35	0.48	4.27649E-001	-3.98160E-004	0.00000E+000	-1.70273E-004	-2.40040E-001	4.27739E-001	3.57680E+000	9	...........
	36	0.493333	4.20828E-001	-3.98885E-004	0.00000E+000	-1.67862E-004	-2.40040E-001	4.20914E-001	3.57680E+000	9	...........
	37	0.506667	4.14107E-001	-3.98124E-004	0.00000E+000	-1.64866E-004	-2.40040E-001	4.14199E-001	3.57680E+000	9	...........
	38	0.52	4.07481E-001	-4.00027E-004	0.00000E+000	-1.63003E-004	-2.40040E-001	4.07562E-001	3.57680E+000	9	...........
	39	0.533333	4.00762E-001	-3.98156E-004	0.00000E+000	-1.59566E-004	-2.40040E-001	4.00845E-001	3.57680E+000	9	...........
	40	0.546667	3.94091E-001	-3.98575E-004	0.00000E+000	-1.57075E-004	-2.40040E-001	3.94169E-001	3.57680E+000	9	...........
	41	0.56	3.87591E-001	-3.98593E-004	0.00000E+000	-1.54491E-004	-2.40040E-001	3.87671E-001	3.57680E+000	9	...........
	42	0.573333	3.81085E-001	-3.98485E-004	0.00000E+000	-1.51857E-004	-2.40040E-001	3.81158E-001	3.57680E+000	9	...........
	43	0.586667	3.74599E-001	-3.98969E-004	0.00000E+000	-1.49453E-004	-2.40040E-001	3.74672E-001	3.57680E+000	9	...........
	44	0.6	3.68200E-001	-4.00499E-004	0.00000E+000	-1.47464E-004	-2.40040E-001	3.68273E-001	3.57680E+000	9	...........
	45	0.613333	3.61864E-001	-4.00155E-004	0.00000E+000	-1.44802E-004	-2.40040E-001	3.61938E-001	3.57680E+000	9	...........
	46	0.626667	3.55610E-001	-3.98380E-004	0.00000E+000	-1.41668E-004	-2.40040E-001	3.55682E-001	3.57680E+000	9	...........
	47	0.64	3.49190E-001	-3.99798E-004	0.00000E+000	-1.39606E-004	-2.40040E-001	3.49259E-001	3.57680E+000	9	...........
	48	0.653333	3.42822E-001	-3.97918E-004	0.00000E+000	-1.36415E-004	-2.40040E-001	3.42895E-001	3.57680E+000	9	...........
	49	0.666667	3.36581E-001	-3.98635E-004	0.00000E+000	-1.34173E-004	-2.40040E-001	3.36652E-001	3.57680E+000	9	...........
	50	0.68	3.30335E-001	-3.99323E-004	0.00000E+000	-1.31910E-004	-2.40040E-001	3.30404E-001	3.57680E+000	9	...........
	51	0.693333	3.24221E-001	-3.98582E-004	0.00000E+000	-1.29229E-004	-2.40040E-001	3.24288E-001	3.57680E+000	9	...........
	52	0.706667	3.18021E-001	-3.99809E-004	0.00000E+000	-1.27147E-004	-2.40040E-001	3.18091E-001	3.57680E+000	9	...........
	53	0.72	3.11833E-001	-3.98330E-004	0.00000E+000	-1.24212E-004	-2.40040E-001	3.11897E-001	3.57680E+000	9	...........
	54	0.733333	3.05774E-001	-3.98687E-004	0.00000E+000	-1.21908E-004	-2.40040E-001	3.05843E-001	3.57680E+000	9	...........
	55	0.746667	2.99797E-001	-3.99204E-004	0.00000E+000	-1.19680E-004	-2.40040E-001	2.99865E-001	3.57680E+000	9	...........
	56	0.76	2.93890E-001	-3.99091E-004	0.00000E+000	-1.17289E-004	-2.40040E-001	2.93949E-001	3.57680E+000	9	...........
	57	0.773333	2.87967E-001	-3.99163E-004	0.00000E+000	-1.14946E-004	-2.40040E-001	2.88027E-001	3.57680E+000	9	...........
	58	0.786667	2.82080E-001	-3.98931E-004	0.00000E+000	-1.12530E-004	-2.40040E-001	2.82139E-001	3.57680E+000	9	...........
	59	0.8	2.76175E-001	-3.98605E-004	0.00000E+000	-1.10085E-004	-2.40040E-001	2.76229E-001	3.57680E+000	9	...........
	60	0.813333	2.70225E-001	-3.98994E-004	0.00000E+000	-1.07818E-004	-2.40040E-001	2.70277E-001	3.57680E+000	9	...........
	61	0.826667	2.64285E-001	-4.00712E-004	0.00000E+000	-1.05902E-004	-2.40040E-001	2.64346E-001	3.57680E+000	9	...........
	62	0.84	2.58560E-001	-3.98015E-004	0.00000E+000	-1.02911E-004	-2.40040E-001	2.58614E-001	3.57680E+000	9	...........
	63	0.853333	2.52860E-001	-3.98555E-004	0.00000E+000	-1.00779E-004	-2.40040E-001	2.52916E-001	3.57680E+000	9	...........
	64	0.866667	2.47160E-001	-3.99717E-004	0.00000E+000	-9.87942E-005	-2.40040E-001	2.47208E-001	3.57680E+000	9	...........
	65	0.88	2.41429E-001	-3.99536E-004	0.00000E+000	-9.64594E-005	-2.40040E-001	2.41478E-001	3.57680E+000	9	...........
	66	0.893333	2.35720E-001	-3.99416E-004	0.00000E+000	-9.41504E-005	-2.40040E-001	2.35769E-001	3.57680E+000	9	...........
	67	0.906667	2.30173E-001	-3.98680E-004	0.00000E+000	-9.17652E-005	-2.40040E-001	2.30218E-001	3.57680E+000	9	...........
	68	0.92	2.24598E-001	-3.99997E-004	0.00000E+000	-8.98387E-005	-2.40040E-001	2.24646E-001	3.57680E+000	9	...........
	69	0.933333	2.19128E-001	-3.99607E-004	0.00000E+000	-8.75653E-005	-2.40040E-001	2.19168E-001	3.57680E+000	9	...........
	70	0.946667	2.13540E-001	-3.98693E-004	0.00000E+000	-8.51370E-005	-2.40040E-001	2.13578E-001	3.57680E+000	9	...........
	71	0.96	2.07994E-001	-3.97903E-004	0.00000E+000	-8.27616E-005	-2.40040E-001	2.08033E-001	3.57680E+000	9	...........
	72	0.97333	2.02483E-001	-3.98104E-004	0.00000E+000	-8.06095E-005	-2.40040E-001	2.02526E-001	3.57680E+000	9	...........
	73	0.98667	1.97103E-001	-4.00369E-004	0.00000E+000	-7.89140E-005	-2.40040E-001	1.97141E-001	3.57680E+000	9	...........
	74	1	1.91713E-001	-3.97745E-004	0.00000E+000	-7.62529E-005	-2.40040E-001	1.91752E-001	3.57680E+000	9	...........
	75	1.01333	1.86280E-001	-3.99196E-004	0.00000E+000	-7.43621E-005	-2.40040E-001	1.86312E-001	3.57680E+000	9	...........
	76	1.02667	1.80877E-001	-3.98643E-004	0.00000E+000	-7.21052E-005	-2.40040E-001	1.80910E-001	3.57680E+000	9	...........
	77	1.04	1.75578E-001	-3.98031E-004	0.00000E+000	-6.98855E-005	-2.40040E-001	1.75618E-001	3.57680E+000	9	...........
	78	1.05333	1.70380E-001	-3.98331E-004	0.00000E+000	-6.78675E-005	-2.40040E-001	1.70412E-001	3.57680E+000	9	...........
	79	1.06667	1.65112E-001	-3.98197E-004	0.00000E+000	-6.57471E-005	-2.40040E-001	1.65149E-001	3.57680E+000	9	...........
	80	1.08	1.59918E-001	-3.98122E-004	0.00000E+000	-6.36670E-005	-2.40040E-001	1.59947E-001	3.57680E+000	9	...........
	81	1.09333	1.54714E-001	-3.98744E-004	0.00000E+000	-6.16911E-005	-2.40040E-001	1.54740E-001	3.57680E+000	9	...........
	82	1.10667	1.49600E-001	-3.99065E-004	0.00000E+000	-5.97002E-005	-2.40040E-001	1.49621E-001	3.57680E+000	9	...........
	83	1.12	1.44469E-001	-3.98650E-004	0.00000E+000	-5.75926E-005	-2.40040E-001	1.44493E-001	3.57680E+000	9	...........
	84	1.13333	1.39380E-001	-3.99556E-004	0.00000E+000	-5.56900E-005	-2.40040E-001	1.39402E-001	3.57680E+000	9	...........
	85	1.14667	1.34259E-001	-3.98507E-004	0.00000E+000	-5.35033E-005	-2.40040E-001	1.34288E-001	3.57680E+000	9	...........
	86	1.16	1.29240E-001	-3.97940E-004	0.00000E+000	-5.14297E-005	-2.40040E-001	1.29260E-001	3.57680E+000	9	...........
	87	1.17333	1.24218E-001	-3.98579E-004	0.00000E+000	-4.95106E-005	-2.40040E-001	1.24240E-001	3.57680E+000	9	...........
	88	1.18667	1.19214E-001	-3.99695E-004	0.00000E+000	-4.76494E-005	-2.40040E-001	1.19237E-001	3.57680E+000	9	...........
	89	1.2	1.14280E-001	-3.98431E-004	0.00000E+000	-4.55325E-005	-2.40040E-001	1.14298E-001	3.57680E+000	9	...........
	90	1.21333	1.09351E-001	-3.98731E-004	0.00000E+000	-4.36015E-005	-2.40040E-001	1.09371E-001	3.57680E+000	9	...........
	91	1.22667	1.04546E-001	-3.98296E-004	0.00000E+000	-4.16401E-005	-2.40040E-001	1.04564E-001	3.57680E+000	9	...........
	92	1.24	9.96656E-002	-4.00671E-004	0.00000E+000	-3.99331E-005	-2.40040E-001	9.96880E-002	3.57680E+000	9	...........
	93	1.25333	9.48963E-002	-3.98369E-004	0.00000E+000	-3.78037E-005	-2.40040E-001	9.49151E-002	3.57685E+000	9	...........
	94	1.26667	9.00940E-002	-3.98218E-004	0.00000E+000	-3.58770E-005	-2.40040E-001	9.01139E-002	3.57690E+000	9	...........
	95	1.28	8.52624E-002	-3.98538E-004	0.00000E+000	-3.39803E-005	-2.40040E-001	8.52787E-002	3.57690E+000	9	...........
	96	1.29333	8.05175E-002	-3.99096E-004	0.00000E+000	-3.21342E-005	-2.40040E-001	8.05379E-002	3.57690E+000	9	...........
	97	1.30667	7.57843E-002	-3.98587E-004	0.00000E+000	-3.02067E-005	-2.40040E-001	7.57941E-002	3.57690E+000	9	...........
	98	1.32	7.09735E-002	-3.99677E-004	0.00000E+000	-2.83665E-005	-2.40040E-001	7.09869E-002	3.57690E+000	9	...........
	99	1.33333	6.63070E-002	-3.98718E-004	0.00000E+000	-2.64378E-005	-2.40040E-001	6.63128E-002	3.57690E+000	9	...........
	100	1.34667	6.16719E-002	-3.97454E-004	0.00000E+000	-2.45117E-005	-2.40040E-001	6.16816E-002	3.57690E+000	9	...........
	101	1.36	5.70290E-002	-3.98696E-004	0.00000E+000	-2.27372E-005	-2.40040E-001	5.70338E-002	3.57690E+000	9	...........
	102	1.37333	5.24026E-002	-3.98825E-004	0.00000E+000	-2.08995E-005	-2.40040E-001	5.24063E-002	3.57690E+000	9	...........
	103	1.38667	4.78446E-002	-3.98812E-004	0.00000E+000	-1.90810E-005	-2.40040E-001	4.78505E-002	3.57690E+000	9	...........
	104	1.4	4.33504E-002	-3.99427E-004	0.00000E+000	-1.73153E-005	-2.40040E-001	4.33584E-002	3.57690E+000	9	...........
	105	1.41333	3.89238E-002	-3.99051E-004	0.00000E+000	-1.55326E-005	-2.40040E-001	3.89319E-002	3.57690E+000	9	...........
	106	1.42667	3.45122E-002	-3.98585E-004	0.00000E+000	-1.37560E-005	-2.40040E-001	3.45111E-002	3.57690E+000	9	...........
	107	1.44	3.00184E-002	-3.98852E-004	0.00000E+000	-1.19729E-005	-2.40040E-001	3.00214E-002	3.57690E+000	9	...........
	108	1.45333	2.55716E-002	-3.98778E-004	0.00000E+000	-1.01974E-005	-2.40040E-001	2.55725E-002	3.57690E+000	9	...........
	109	1.46667	2.11522E-002	-3.99651E-004	0.00000E+000	-8.45351E-006	-2.40040E-001	2.11445E-002	3.57690E+000	9	...........
	110	1.48	1.66834E-002	-3.99282E-004	0.00000E+000	-6.66140E-006	-2.40040E-001	1.66768E-002	3.57690E+000	9	...........
	111	1.49333	1.22630E-002	-3.99097E-004	0.00000E+000	-4.89412E-006	-2.40040E-001	1.22553E-002	3.57690E+000	9	...........
	112	1.50667	7.86456E-003	-3.99133E-004	0.00000E+000	-3.13901E-006	-2.40040E-001	7.85138E-003	3.57690E+000	9	...........
	113	1.52	3.55598E-003	-3.98421E-004	0.00000E+000	-1.41678E-006	-2.40040E-001	3.53992E-003	3.57690E+000	9	...........
	114	1.52667	3.24899E-004	-3.96981E-004	0.00000E+000	-1.28979E-007	-2.40040E-001	3.07918E-004	3.57690E+000	9	...........
STARTTIMEOFFSET	QUANT	1378.745	Start Time Offset (s)
