EXPLAIN
TAG	PWR800_DISCHARGE
TITLE	LABEL	PWR Cyclic Charge Discharge (Cell) - Discharge Step	Test &Identifier
DATE	LABEL	12-7-2017	Date
TIME	LABEL	15:00:34	Time
NOTES	NOTES	3	&Notes...
	supercap test cell
	0.4mg
	6M KOH
PSTAT	PSTAT	IFC5000-01520	Potentiostat
CAPACITY	QUANT	1.00000E-003	Capacity (A-hr)
CELLTYPE	SELECTOR	1	&Cell Type
WORKINGCONNECTION	SELECTOR	0	&Working Lead
MAXDISCHARGETIME	VARIABLEANDUNITS	1.00000E+002	s	1.00000E+002	second(s)	Max &Discharge Time
DISCHARGEMODE	MULTIPARAM	0	4.00000E-004	&Discharge Mode	Constant Current	Amp(s)
SAMPLETIME	QUANT	1.00000E-002	Sa&mple Period (s)
DISCHARGESTOPAT1	MULTIPARAM	3	0.00000E+000	Discharge Stop At &1	Voltage < Limit	V
DISCHARGESTOPAT2	MULTIPARAM	0	0.00000E+000	Discharge Stop At &2	None	N/A
AESBHCSELECTOR	TOGGLE	F	Save Both Half Cells
IRCOMP	TOGGLE	F	IR &Measure
EOC	QUANT	0	Open Circuit (V)
SEQUENCER	TOGGLE	TRUE	Run as Sequence
PSTATMODEL	IQUANT	53	Pstat Model
PSTATSECTION	LABEL	IFC5000-01520	Pstat Section
PSTATSERIALNO	LABEL	01520	Pstat Serial Number
CTRLMODE	IQUANT	0	Control Mode
ELECTROMETER	IQUANT	1	RE=0 or CS=1
IESTAB	IQUANT	0	I/E Stability
CASPEED	IQUANT	4	Control Amp Speed
CONVENTION	IQUANT	1	Current Convention
ICHRANGE	IQUANT	2	Ich Range
ICHRANGEMODE	TOGGLE	T	Ich Auto Range
ICHOFFSETENABLE	TOGGLE	F	Ich Offset Enable
ICHOFFSET	QUANT	0	Ich Offset (V)
ICHFILTER	IQUANT	1	Ich Filter
VCHRANGE	IQUANT	2	Vch Range
VCHRANGEMODE	TOGGLE	T	Vch Auto Range
VCHOFFSETENABLE	TOGGLE	F	Vch Offset Enable
VCHOFFSET	QUANT	0	Vch Offset (V)
VCHFILTER	IQUANT	1	Vch Filter
IERANGELOWERLIMIT	IQUANT	9	I/E Range Lower Limit
IERANGEMODE	TOGGLE	F	I/E AutoRange
IERANGE	IQUANT	9	I/E Range
ACHSELECT	IQUANT	1	Ach Select
ACHRANGE	IQUANT	2	Ach Range
ACHOFFSETENABLE	TOGGLE	F	Ach Offset Enable
ACHOFFSET	QUANT	0	Ach Offset (V)
ACHFILTER	IQUANT	1	Ach Filter
CABLEID	IQUANT	14	Cable ID
DCCALDATE	LABEL	5-7-2017	DC Calibration Date
ACCALDATE	LABEL	12/3/2015	AC Calibration Date
FRAMEWORKVERSION	QUANT	7.01	Framework Version
INSTRUMENTVERSION	LABEL	4.00	Instrument Version
CURVE	TABLE	109
	Pt	T	Vf	Im	Vu	Pwr	Sig	Ach	Temp	IERange	Over
	#	s	V	A	V	W	V	V	deg C	#	bits
	0	0.013333	6.91112E-001	-3.99243E-004	0.00000E+000	-2.75921E-004	-2.40040E-001	6.91339E-001	3.57620E+000	9	...........
	1	0.026667	6.78190E-001	-3.99178E-004	0.00000E+000	-2.70718E-004	-2.40040E-001	6.78407E-001	3.57620E+000	9	...........
	2	0.04	6.66882E-001	-3.99418E-004	0.00000E+000	-2.66364E-004	-2.40040E-001	6.67092E-001	3.57620E+000	9	...........
	3	0.053333	6.56482E-001	-3.99187E-004	0.00000E+000	-2.62059E-004	-2.40040E-001	6.56683E-001	3.57620E+000	9	...........
	4	0.066667	6.46764E-001	-3.98776E-004	0.00000E+000	-2.57914E-004	-2.40040E-001	6.47007E-001	3.57620E+000	9	...........
	5	0.08	6.37407E-001	-3.99725E-004	0.00000E+000	-2.54788E-004	-2.40040E-001	6.37651E-001	3.57620E+000	9	...........
	6	0.093333	6.28385E-001	-3.98316E-004	0.00000E+000	-2.50295E-004	-2.40040E-001	6.28611E-001	3.57620E+000	9	...........
	7	0.106667	6.19629E-001	-3.99629E-004	0.00000E+000	-2.47622E-004	-2.40040E-001	6.19843E-001	3.57620E+000	9	...........
	8	0.12	6.10975E-001	-3.99388E-004	0.00000E+000	-2.44016E-004	-2.40040E-001	6.11242E-001	3.57620E+000	9	...........
	9	0.133333	6.02560E-001	-3.99390E-004	0.00000E+000	-2.40656E-004	-2.40040E-001	6.02810E-001	3.57620E+000	9	...........
	10	0.146667	5.94275E-001	-3.99178E-004	0.00000E+000	-2.37222E-004	-2.40040E-001	5.94507E-001	3.57620E+000	9	...........
	11	0.16	5.86058E-001	-3.97750E-004	0.00000E+000	-2.33104E-004	-2.40040E-001	5.86313E-001	3.57620E+000	9	...........
	12	0.173333	5.77951E-001	-3.99549E-004	0.00000E+000	-2.30920E-004	-2.40040E-001	5.78192E-001	3.57620E+000	9	...........
	13	0.186667	5.69952E-001	-3.98768E-004	0.00000E+000	-2.27278E-004	-2.40040E-001	5.70178E-001	3.57620E+000	9	...........
	14	0.2	5.61989E-001	-3.99395E-004	0.00000E+000	-2.24456E-004	-2.40040E-001	5.62230E-001	3.57620E+000	9	...........
	15	0.213333	5.54112E-001	-3.99640E-004	0.00000E+000	-2.21445E-004	-2.40040E-001	5.54324E-001	3.57620E+000	9	...........
	16	0.226667	5.46338E-001	-4.00175E-004	0.00000E+000	-2.18631E-004	-2.40040E-001	5.46560E-001	3.57620E+000	9	...........
	17	0.24	5.38567E-001	-3.98823E-004	0.00000E+000	-2.14793E-004	-2.40040E-001	5.38739E-001	3.57620E+000	9	...........
	18	0.253333	5.30821E-001	-3.98718E-004	0.00000E+000	-2.11648E-004	-2.40040E-001	5.31004E-001	3.57620E+000	9	...........
	19	0.266667	5.23219E-001	-3.98526E-004	0.00000E+000	-2.08516E-004	-2.40040E-001	5.23380E-001	3.57620E+000	9	...........
	20	0.28	5.15633E-001	-4.00031E-004	0.00000E+000	-2.06270E-004	-2.40040E-001	5.15776E-001	3.57620E+000	9	...........
	21	0.293333	5.08094E-001	-3.98776E-004	0.00000E+000	-2.02616E-004	-2.40040E-001	5.08296E-001	3.57620E+000	9	...........
	22	0.306667	5.00538E-001	-3.98894E-004	0.00000E+000	-1.99661E-004	-2.40040E-001	5.00748E-001	3.57620E+000	9	...........
	23	0.32	4.93130E-001	-3.99713E-004	0.00000E+000	-1.97110E-004	-2.40040E-001	4.93335E-001	3.57620E+000	9	...........
	24	0.333333	4.85772E-001	-3.98886E-004	0.00000E+000	-1.93768E-004	-2.40040E-001	4.85909E-001	3.57620E+000	9	...........
	25	0.346667	4.78556E-001	-3.98679E-004	0.00000E+000	-1.90790E-004	-2.40040E-001	4.78648E-001	3.57620E+000	9	...........
	26	0.36	4.71243E-001	-3.96934E-004	0.00000E+000	-1.87052E-004	-2.40040E-001	4.71330E-001	3.57620E+000	9	...........
	27	0.373333	4.63895E-001	-3.98470E-004	0.00000E+000	-1.84848E-004	-2.40040E-001	4.63991E-001	3.57620E+000	9	...........
	28	0.386667	4.56615E-001	-4.00449E-004	0.00000E+000	-1.82851E-004	-2.40040E-001	4.56708E-001	3.57620E+000	9	...........
	29	0.4	4.49365E-001	-3.99652E-004	0.00000E+000	-1.79590E-004	-2.40040E-001	4.49452E-001	3.57620E+000	9	...........
	30	0.413333	4.42158E-001	-4.00328E-004	0.00000E+000	-1.77008E-004	-2.40040E-001	4.42246E-001	3.57620E+000	9	...........
	31	0.426667	4.35026E-001	-3.98330E-004	0.00000E+000	-1.73284E-004	-2.40040E-001	4.35112E-001	3.57620E+000	9	...........
	32	0.44	4.27992E-001	-3.98819E-004	0.00000E+000	-1.70691E-004	-2.40040E-001	4.28074E-001	3.57620E+000	9	...........
	33	0.453333	4.20933E-001	-4.00320E-004	0.00000E+000	-1.68508E-004	-2.40040E-001	4.21017E-001	3.57620E+000	9	...........
	34	0.466667	4.13942E-001	-3.97585E-004	0.00000E+000	-1.64577E-004	-2.40040E-001	4.14025E-001	3.57620E+000	9	...........
	35	0.48	4.07017E-001	-3.99940E-004	0.00000E+000	-1.62782E-004	-2.40040E-001	4.07096E-001	3.57620E+000	9	...........
	36	0.493333	4.00077E-001	-3.99778E-004	0.00000E+000	-1.59942E-004	-2.40040E-001	4.00148E-001	3.57620E+000	9	...........
	37	0.506667	3.93222E-001	-3.98792E-004	0.00000E+000	-1.56814E-004	-2.40040E-001	3.93285E-001	3.57620E+000	9	...........
	38	0.52	3.86362E-001	-3.97315E-004	0.00000E+000	-1.53508E-004	-2.40040E-001	3.86437E-001	3.57620E+000	9	...........
	39	0.533333	3.79613E-001	-3.98156E-004	0.00000E+000	-1.51145E-004	-2.40040E-001	3.79684E-001	3.57620E+000	9	...........
	40	0.546667	3.72853E-001	-3.98455E-004	0.00000E+000	-1.48565E-004	-2.40040E-001	3.72924E-001	3.57620E+000	9	...........
	41	0.56	3.66137E-001	-3.99125E-004	0.00000E+000	-1.46134E-004	-2.40040E-001	3.66207E-001	3.57620E+000	9	...........
	42	0.573333	3.59565E-001	-3.98563E-004	0.00000E+000	-1.43310E-004	-2.40040E-001	3.59629E-001	3.57620E+000	9	...........
	43	0.586667	3.52851E-001	-3.99517E-004	0.00000E+000	-1.40970E-004	-2.40040E-001	3.52918E-001	3.57620E+000	9	...........
	44	0.6	3.46154E-001	-3.99100E-004	0.00000E+000	-1.38150E-004	-2.40040E-001	3.46216E-001	3.57620E+000	9	...........
	45	0.613333	3.39530E-001	-3.98006E-004	0.00000E+000	-1.35135E-004	-2.40040E-001	3.39593E-001	3.57620E+000	9	...........
	46	0.626667	3.32995E-001	-3.98295E-004	0.00000E+000	-1.32630E-004	-2.40040E-001	3.33065E-001	3.57620E+000	9	...........
	47	0.64	3.26482E-001	-3.99506E-004	0.00000E+000	-1.30432E-004	-2.40040E-001	3.26547E-001	3.57620E+000	9	...........
	48	0.653333	3.20106E-001	-3.98442E-004	0.00000E+000	-1.27544E-004	-2.40040E-001	3.20169E-001	3.57620E+000	9	...........
	49	0.666667	3.13764E-001	-3.99004E-004	0.00000E+000	-1.25193E-004	-2.40040E-001	3.13828E-001	3.57620E+000	9	...........
	50	0.68	3.07427E-001	-3.97892E-004	0.00000E+000	-1.22323E-004	-2.40040E-001	3.07489E-001	3.57620E+000	9	...........
	51	0.693333	3.01119E-001	-3.97089E-004	0.00000E+000	-1.19571E-004	-2.40040E-001	3.01176E-001	3.57620E+000	9	...........
	52	0.706667	2.94775E-001	-3.99366E-004	0.00000E+000	-1.17723E-004	-2.40040E-001	2.94836E-001	3.57620E+000	9	...........
	53	0.72	2.88489E-001	-3.98858E-004	0.00000E+000	-1.15066E-004	-2.40040E-001	2.88538E-001	3.57620E+000	9	...........
	54	0.733333	2.82297E-001	-3.98556E-004	0.00000E+000	-1.12511E-004	-2.40040E-001	2.82349E-001	3.57620E+000	9	...........
	55	0.746667	2.76123E-001	-3.98234E-004	0.00000E+000	-1.09962E-004	-2.40040E-001	2.76176E-001	3.57714E+000	9	...........
	56	0.76	2.69940E-001	-3.98732E-004	0.00000E+000	-1.07634E-004	-2.40040E-001	2.69990E-001	3.57770E+000	9	...........
	57	0.773333	2.63825E-001	-3.99794E-004	0.00000E+000	-1.05476E-004	-2.40040E-001	2.63878E-001	3.57770E+000	9	...........
	58	0.786667	2.57758E-001	-3.98577E-004	0.00000E+000	-1.02736E-004	-2.40040E-001	2.57809E-001	3.57770E+000	9	...........
	59	0.8	2.51739E-001	-3.98289E-004	0.00000E+000	-1.00265E-004	-2.40040E-001	2.51789E-001	3.57770E+000	9	...........
	60	0.813333	2.45797E-001	-3.98330E-004	0.00000E+000	-9.79084E-005	-2.40040E-001	2.45845E-001	3.57770E+000	9	...........
	61	0.826667	2.39886E-001	-3.98428E-004	0.00000E+000	-9.55775E-005	-2.40040E-001	2.39927E-001	3.57770E+000	9	...........
	62	0.84	2.34009E-001	-3.99141E-004	0.00000E+000	-9.34026E-005	-2.40040E-001	2.34055E-001	3.57770E+000	9	...........
	63	0.853333	2.28099E-001	-3.98057E-004	0.00000E+000	-9.07966E-005	-2.40040E-001	2.28139E-001	3.57770E+000	9	...........
	64	0.866667	2.22311E-001	-3.97266E-004	0.00000E+000	-8.83166E-005	-2.40040E-001	2.22358E-001	3.57770E+000	9	...........
	65	0.88	2.16559E-001	-3.98176E-004	0.00000E+000	-8.62286E-005	-2.40040E-001	2.16602E-001	3.57770E+000	9	...........
	66	0.893333	2.10854E-001	-3.98963E-004	0.00000E+000	-8.41227E-005	-2.40040E-001	2.10892E-001	3.57770E+000	9	...........
	67	0.906667	2.05147E-001	-3.98644E-004	0.00000E+000	-8.17806E-005	-2.40040E-001	2.05189E-001	3.57770E+000	9	...........
	68	0.92	1.99453E-001	-3.98250E-004	0.00000E+000	-7.94320E-005	-2.40040E-001	1.99491E-001	3.57770E+000	9	...........
	69	0.933333	1.93743E-001	-3.98357E-004	0.00000E+000	-7.71788E-005	-2.40040E-001	1.93779E-001	3.57770E+000	9	...........
	70	0.946667	1.88023E-001	-3.99403E-004	0.00000E+000	-7.50972E-005	-2.40040E-001	1.88063E-001	3.57770E+000	9	...........
	71	0.96	1.82433E-001	-3.97834E-004	0.00000E+000	-7.25782E-005	-2.40040E-001	1.82467E-001	3.57770E+000	9	...........
	72	0.97333	1.76845E-001	-3.98376E-004	0.00000E+000	-7.04508E-005	-2.40040E-001	1.76880E-001	3.57770E+000	9	...........
	73	0.98667	1.71299E-001	-3.98060E-004	0.00000E+000	-6.81875E-005	-2.40040E-001	1.71338E-001	3.57770E+000	9	...........
	74	1	1.65855E-001	-3.98608E-004	0.00000E+000	-6.61111E-005	-2.40040E-001	1.65881E-001	3.57770E+000	9	...........
	75	1.01333	1.60448E-001	-3.98914E-004	0.00000E+000	-6.40050E-005	-2.40040E-001	1.60475E-001	3.57770E+000	9	...........
	76	1.02667	1.55131E-001	-3.99370E-004	0.00000E+000	-6.19545E-005	-2.40040E-001	1.55156E-001	3.57770E+000	9	...........
	77	1.04	1.49759E-001	-3.99844E-004	0.00000E+000	-5.98802E-005	-2.40040E-001	1.49782E-001	3.57770E+000	9	...........
	78	1.05333	1.44455E-001	-3.97156E-004	0.00000E+000	-5.73713E-005	-2.40040E-001	1.44481E-001	3.57770E+000	9	...........
	79	1.06667	1.39193E-001	-3.99343E-004	0.00000E+000	-5.55856E-005	-2.40040E-001	1.39214E-001	3.57770E+000	9	...........
	80	1.08	1.33884E-001	-3.99062E-004	0.00000E+000	-5.34279E-005	-2.40040E-001	1.33903E-001	3.57770E+000	9	...........
	81	1.09333	1.28592E-001	-3.98661E-004	0.00000E+000	-5.12648E-005	-2.40040E-001	1.28611E-001	3.57770E+000	9	...........
	82	1.10667	1.23462E-001	-3.97954E-004	0.00000E+000	-4.91322E-005	-2.40040E-001	1.23481E-001	3.57770E+000	9	...........
	83	1.12	1.18250E-001	-3.99109E-004	0.00000E+000	-4.71945E-005	-2.40040E-001	1.18270E-001	3.57770E+000	9	...........
	84	1.13333	1.13082E-001	-3.99047E-004	0.00000E+000	-4.51251E-005	-2.40040E-001	1.13104E-001	3.57770E+000	9	...........
	85	1.14667	1.07997E-001	-3.97957E-004	0.00000E+000	-4.29781E-005	-2.40040E-001	1.08023E-001	3.57770E+000	9	...........
	86	1.16	1.02905E-001	-3.98471E-004	0.00000E+000	-4.10048E-005	-2.40040E-001	1.02922E-001	3.57770E+000	9	...........
	87	1.17333	9.79114E-002	-3.98056E-004	0.00000E+000	-3.89742E-005	-2.40040E-001	9.79294E-002	3.57770E+000	9	...........
	88	1.18667	9.29318E-002	-3.98598E-004	0.00000E+000	-3.70424E-005	-2.40040E-001	9.29481E-002	3.57770E+000	9	...........
	89	1.2	8.79910E-002	-3.98833E-004	0.00000E+000	-3.50937E-005	-2.40040E-001	8.80079E-002	3.57770E+000	9	...........
	90	1.21333	8.30204E-002	-3.98922E-004	0.00000E+000	-3.31187E-005	-2.40040E-001	8.30330E-002	3.57770E+000	9	...........
	91	1.22667	7.81751E-002	-3.99089E-004	0.00000E+000	-3.11988E-005	-2.40040E-001	7.81747E-002	3.57770E+000	9	...........
	92	1.24	7.32049E-002	-3.99406E-004	0.00000E+000	-2.92385E-005	-2.40040E-001	7.32137E-002	3.57770E+000	9	...........
	93	1.25333	6.83302E-002	-3.98622E-004	0.00000E+000	-2.72379E-005	-2.40040E-001	6.83382E-002	3.57770E+000	9	...........
	94	1.26667	6.34960E-002	-3.98343E-004	0.00000E+000	-2.52932E-005	-2.40040E-001	6.34997E-002	3.57770E+000	9	...........
	95	1.28	5.86617E-002	-3.99151E-004	0.00000E+000	-2.34149E-005	-2.40040E-001	5.86672E-002	3.57770E+000	9	...........
	96	1.29333	5.38596E-002	-3.98277E-004	0.00000E+000	-2.14510E-005	-2.40040E-001	5.38593E-002	3.57770E+000	9	...........
	97	1.30667	4.92342E-002	-3.99018E-004	0.00000E+000	-1.96453E-005	-2.40040E-001	4.92353E-002	3.57770E+000	9	...........
	98	1.32	4.45567E-002	-3.99481E-004	0.00000E+000	-1.77996E-005	-2.40040E-001	4.45612E-002	3.57770E+000	9	...........
	99	1.33333	3.98840E-002	-3.99185E-004	0.00000E+000	-1.59211E-005	-2.40040E-001	3.98874E-002	3.57770E+000	9	...........
	100	1.34667	3.52051E-002	-3.97280E-004	0.00000E+000	-1.39863E-005	-2.40040E-001	3.52045E-002	3.57770E+000	9	...........
	101	1.36	3.05713E-002	-3.98075E-004	0.00000E+000	-1.21696E-005	-2.40040E-001	3.05661E-002	3.57770E+000	9	...........
	102	1.37333	2.59391E-002	-3.98451E-004	0.00000E+000	-1.03355E-005	-2.40040E-001	2.59325E-002	3.57770E+000	9	...........
	103	1.38667	2.12974E-002	-3.99847E-004	0.00000E+000	-8.51571E-006	-2.40040E-001	2.12862E-002	3.57770E+000	9	...........
	104	1.4	1.67553E-002	-3.99583E-004	0.00000E+000	-6.69512E-006	-2.40040E-001	1.67437E-002	3.57770E+000	9	...........
	105	1.41333	1.22355E-002	-3.99397E-004	0.00000E+000	-4.88683E-006	-2.40040E-001	1.22216E-002	3.57770E+000	9	...........
	106	1.42667	7.72474E-003	-3.98943E-004	0.00000E+000	-3.08173E-006	-2.40040E-001	7.70854E-003	3.57770E+000	9	...........
	107	1.44	3.23785E-003	-3.98880E-004	0.00000E+000	-1.29151E-006	-2.40040E-001	3.21861E-003	3.57770E+000	9	...........
	108	1.445	1.58373E-004	-4.00307E-004	0.00000E+000	-6.33980E-008	-2.40040E-001	1.40260E-004	3.57770E+000	9	...........
STARTTIMEOFFSET	QUANT	2000.726	Start Time Offset (s)
