EXPLAIN
TAG	PWR800_DISCHARGE
TITLE	LABEL	PWR Cyclic Charge Discharge (Cell) - Discharge Step	Test &Identifier
DATE	LABEL	12-7-2017	Date
TIME	LABEL	15:05:24	Time
NOTES	NOTES	3	&Notes...
	supercap test cell
	0.4mg
	6M KOH
PSTAT	PSTAT	IFC5000-01520	Potentiostat
CAPACITY	QUANT	1.00000E-003	Capacity (A-hr)
CELLTYPE	SELECTOR	1	&Cell Type
WORKINGCONNECTION	SELECTOR	0	&Working Lead
MAXDISCHARGETIME	VARIABLEANDUNITS	1.00000E+002	s	1.00000E+002	second(s)	Max &Discharge Time
DISCHARGEMODE	MULTIPARAM	0	4.00000E-004	&Discharge Mode	Constant Current	Amp(s)
SAMPLETIME	QUANT	1.00000E-002	Sa&mple Period (s)
DISCHARGESTOPAT1	MULTIPARAM	3	0.00000E+000	Discharge Stop At &1	Voltage < Limit	V
DISCHARGESTOPAT2	MULTIPARAM	0	0.00000E+000	Discharge Stop At &2	None	N/A
AESBHCSELECTOR	TOGGLE	F	Save Both Half Cells
IRCOMP	TOGGLE	F	IR &Measure
EOC	QUANT	0	Open Circuit (V)
SEQUENCER	TOGGLE	TRUE	Run as Sequence
PSTATMODEL	IQUANT	53	Pstat Model
PSTATSECTION	LABEL	IFC5000-01520	Pstat Section
PSTATSERIALNO	LABEL	01520	Pstat Serial Number
CTRLMODE	IQUANT	0	Control Mode
ELECTROMETER	IQUANT	1	RE=0 or CS=1
IESTAB	IQUANT	0	I/E Stability
CASPEED	IQUANT	4	Control Amp Speed
CONVENTION	IQUANT	1	Current Convention
ICHRANGE	IQUANT	2	Ich Range
ICHRANGEMODE	TOGGLE	T	Ich Auto Range
ICHOFFSETENABLE	TOGGLE	F	Ich Offset Enable
ICHOFFSET	QUANT	0	Ich Offset (V)
ICHFILTER	IQUANT	1	Ich Filter
VCHRANGE	IQUANT	2	Vch Range
VCHRANGEMODE	TOGGLE	T	Vch Auto Range
VCHOFFSETENABLE	TOGGLE	F	Vch Offset Enable
VCHOFFSET	QUANT	0	Vch Offset (V)
VCHFILTER	IQUANT	1	Vch Filter
IERANGELOWERLIMIT	IQUANT	9	I/E Range Lower Limit
IERANGEMODE	TOGGLE	F	I/E AutoRange
IERANGE	IQUANT	9	I/E Range
ACHSELECT	IQUANT	1	Ach Select
ACHRANGE	IQUANT	2	Ach Range
ACHOFFSETENABLE	TOGGLE	F	Ach Offset Enable
ACHOFFSET	QUANT	0	Ach Offset (V)
ACHFILTER	IQUANT	1	Ach Filter
CABLEID	IQUANT	14	Cable ID
DCCALDATE	LABEL	5-7-2017	DC Calibration Date
ACCALDATE	LABEL	12/3/2015	AC Calibration Date
FRAMEWORKVERSION	QUANT	7.01	Framework Version
INSTRUMENTVERSION	LABEL	4.00	Instrument Version
CURVE	TABLE	107
	Pt	T	Vf	Im	Vu	Pwr	Sig	Ach	Temp	IERange	Over
	#	s	V	A	V	W	V	V	deg C	#	bits
	0	0.013333	6.90244E-001	-3.98767E-004	0.00000E+000	-2.75246E-004	-2.40040E-001	6.90480E-001	3.57690E+000	9	...........
	1	0.026667	6.77138E-001	-3.99981E-004	0.00000E+000	-2.70843E-004	-2.40040E-001	6.77365E-001	3.57690E+000	9	...........
	2	0.04	6.65646E-001	-3.98281E-004	0.00000E+000	-2.65114E-004	-2.40040E-001	6.65877E-001	3.57690E+000	9	...........
	3	0.053333	6.55046E-001	-3.98643E-004	0.00000E+000	-2.61129E-004	-2.40040E-001	6.55277E-001	3.57690E+000	9	...........
	4	0.066667	6.45134E-001	-3.99138E-004	0.00000E+000	-2.57497E-004	-2.40040E-001	6.45361E-001	3.57690E+000	9	...........
	5	0.08	6.35580E-001	-3.98577E-004	0.00000E+000	-2.53328E-004	-2.40040E-001	6.35813E-001	3.57690E+000	9	...........
	6	0.093333	6.26484E-001	-3.98538E-004	0.00000E+000	-2.49678E-004	-2.40040E-001	6.26719E-001	3.57690E+000	9	...........
	7	0.106667	6.17545E-001	-3.98536E-004	0.00000E+000	-2.46114E-004	-2.40040E-001	6.17788E-001	3.57690E+000	9	...........
	8	0.12	6.08789E-001	-3.99262E-004	0.00000E+000	-2.43066E-004	-2.40040E-001	6.09070E-001	3.57690E+000	9	...........
	9	0.133333	6.00242E-001	-3.99051E-004	0.00000E+000	-2.39527E-004	-2.40040E-001	6.00521E-001	3.57690E+000	9	...........
	10	0.146667	5.91888E-001	-3.98079E-004	0.00000E+000	-2.35618E-004	-2.40040E-001	5.92137E-001	3.57690E+000	9	...........
	11	0.16	5.83543E-001	-3.99162E-004	0.00000E+000	-2.32928E-004	-2.40040E-001	5.83787E-001	3.57690E+000	9	...........
	12	0.173333	5.75342E-001	-3.98781E-004	0.00000E+000	-2.29435E-004	-2.40040E-001	5.75578E-001	3.57690E+000	9	...........
	13	0.186667	5.67197E-001	-3.98941E-004	0.00000E+000	-2.26278E-004	-2.40040E-001	5.67447E-001	3.57690E+000	9	...........
	14	0.2	5.59119E-001	-3.99217E-004	0.00000E+000	-2.23210E-004	-2.40040E-001	5.59354E-001	3.57690E+000	9	...........
	15	0.213333	5.51248E-001	-3.99074E-004	0.00000E+000	-2.19989E-004	-2.40040E-001	5.51474E-001	3.57690E+000	9	...........
	16	0.226667	5.43388E-001	-3.98384E-004	0.00000E+000	-2.16477E-004	-2.40040E-001	5.43627E-001	3.57690E+000	9	...........
	17	0.24	5.35538E-001	-3.96843E-004	0.00000E+000	-2.12525E-004	-2.40040E-001	5.35762E-001	3.57690E+000	9	...........
	18	0.253333	5.27676E-001	-3.99148E-004	0.00000E+000	-2.10621E-004	-2.40040E-001	5.27896E-001	3.57690E+000	9	...........
	19	0.266667	5.19949E-001	-3.98559E-004	0.00000E+000	-2.07230E-004	-2.40040E-001	5.20162E-001	3.57690E+000	9	...........
	20	0.28	5.12272E-001	-3.98510E-004	0.00000E+000	-2.04146E-004	-2.40040E-001	5.12462E-001	3.57690E+000	9	...........
	21	0.293333	5.04619E-001	-3.99309E-004	0.00000E+000	-2.01499E-004	-2.40040E-001	5.04846E-001	3.57690E+000	9	...........
	22	0.306667	4.97008E-001	-3.98910E-004	0.00000E+000	-1.98262E-004	-2.40040E-001	4.97205E-001	3.57690E+000	9	...........
	23	0.32	4.89445E-001	-3.98887E-004	0.00000E+000	-1.95233E-004	-2.40040E-001	4.89635E-001	3.57690E+000	9	...........
	24	0.333333	4.82119E-001	-3.99416E-004	0.00000E+000	-1.92566E-004	-2.40040E-001	4.82210E-001	3.57690E+000	9	...........
	25	0.346667	4.74716E-001	-3.98674E-004	0.00000E+000	-1.89257E-004	-2.40040E-001	4.74808E-001	3.57690E+000	9	...........
	26	0.36	4.67291E-001	-3.97696E-004	0.00000E+000	-1.85840E-004	-2.40040E-001	4.67382E-001	3.57690E+000	9	...........
	27	0.373333	4.59873E-001	-3.97214E-004	0.00000E+000	-1.82668E-004	-2.40040E-001	4.59964E-001	3.57690E+000	9	...........
	28	0.386667	4.52540E-001	-3.98022E-004	0.00000E+000	-1.80121E-004	-2.40040E-001	4.52626E-001	3.57690E+000	9	...........
	29	0.4	4.45149E-001	-3.98277E-004	0.00000E+000	-1.77293E-004	-2.40040E-001	4.45240E-001	3.57690E+000	9	...........
	30	0.413333	4.37811E-001	-3.98410E-004	0.00000E+000	-1.74429E-004	-2.40040E-001	4.37899E-001	3.57690E+000	9	...........
	31	0.426667	4.30650E-001	-3.99681E-004	0.00000E+000	-1.72123E-004	-2.40040E-001	4.30741E-001	3.57690E+000	9	...........
	32	0.44	4.23488E-001	-3.98942E-004	0.00000E+000	-1.68947E-004	-2.40040E-001	4.23571E-001	3.57690E+000	9	...........
	33	0.453333	4.16320E-001	-3.99429E-004	0.00000E+000	-1.66290E-004	-2.40040E-001	4.16408E-001	3.57690E+000	9	...........
	34	0.466667	4.09208E-001	-3.99288E-004	0.00000E+000	-1.63392E-004	-2.40040E-001	4.09281E-001	3.57690E+000	9	...........
	35	0.48	4.02101E-001	-3.98029E-004	0.00000E+000	-1.60048E-004	-2.40040E-001	4.02174E-001	3.57690E+000	9	...........
	36	0.493333	3.95154E-001	-3.99213E-004	0.00000E+000	-1.57750E-004	-2.40040E-001	3.95235E-001	3.57690E+000	9	...........
	37	0.506667	3.88167E-001	-3.99642E-004	0.00000E+000	-1.55128E-004	-2.40040E-001	3.88246E-001	3.57690E+000	9	...........
	38	0.52	3.81186E-001	-3.99251E-004	0.00000E+000	-1.52189E-004	-2.40040E-001	3.81258E-001	3.57690E+000	9	...........
	39	0.533333	3.74294E-001	-3.99587E-004	0.00000E+000	-1.49563E-004	-2.40040E-001	3.74367E-001	3.57690E+000	9	...........
	40	0.546667	3.67433E-001	-3.98255E-004	0.00000E+000	-1.46332E-004	-2.40040E-001	3.67503E-001	3.57690E+000	9	...........
	41	0.56	3.60671E-001	-3.98578E-004	0.00000E+000	-1.43756E-004	-2.40040E-001	3.60741E-001	3.57690E+000	9	...........
	42	0.573333	3.53951E-001	-3.98934E-004	0.00000E+000	-1.41203E-004	-2.40040E-001	3.54020E-001	3.57690E+000	9	...........
	43	0.586667	3.47217E-001	-3.98631E-004	0.00000E+000	-1.38411E-004	-2.40040E-001	3.47284E-001	3.57690E+000	9	...........
	44	0.6	3.40605E-001	-3.99489E-004	0.00000E+000	-1.36068E-004	-2.40040E-001	3.40671E-001	3.57690E+000	9	...........
	45	0.613333	3.33982E-001	-3.98822E-004	0.00000E+000	-1.33199E-004	-2.40040E-001	3.34047E-001	3.57690E+000	9	...........
	46	0.626667	3.27454E-001	-3.99543E-004	0.00000E+000	-1.30832E-004	-2.40040E-001	3.27516E-001	3.57690E+000	9	...........
	47	0.64	3.20850E-001	-3.99813E-004	0.00000E+000	-1.28280E-004	-2.40040E-001	3.20907E-001	3.57690E+000	9	...........
	48	0.653333	3.14303E-001	-3.98675E-004	0.00000E+000	-1.25305E-004	-2.40040E-001	3.14365E-001	3.57690E+000	9	...........
	49	0.666667	3.07802E-001	-3.98361E-004	0.00000E+000	-1.22616E-004	-2.40040E-001	3.07864E-001	3.57690E+000	9	...........
	50	0.68	3.01398E-001	-3.98080E-004	0.00000E+000	-1.19981E-004	-2.40040E-001	3.01455E-001	3.57690E+000	9	...........
	51	0.693333	2.94956E-001	-3.99841E-004	0.00000E+000	-1.17935E-004	-2.40040E-001	2.95014E-001	3.57690E+000	9	...........
	52	0.706667	2.88514E-001	-3.98958E-004	0.00000E+000	-1.15105E-004	-2.40040E-001	2.88570E-001	3.57690E+000	9	...........
	53	0.72	2.82150E-001	-3.99130E-004	0.00000E+000	-1.12614E-004	-2.40040E-001	2.82208E-001	3.57690E+000	9	...........
	54	0.733333	2.75961E-001	-3.98980E-004	0.00000E+000	-1.10103E-004	-2.40040E-001	2.76022E-001	3.57690E+000	9	...........
	55	0.746667	2.69770E-001	-3.98114E-004	0.00000E+000	-1.07399E-004	-2.40040E-001	2.69819E-001	3.57690E+000	9	...........
	56	0.76	2.63553E-001	-3.99850E-004	0.00000E+000	-1.05382E-004	-2.40040E-001	2.63607E-001	3.57690E+000	9	...........
	57	0.773333	2.57363E-001	-3.99201E-004	0.00000E+000	-1.02739E-004	-2.40040E-001	2.57412E-001	3.57690E+000	9	...........
	58	0.786667	2.51227E-001	-3.98372E-004	0.00000E+000	-1.00082E-004	-2.40040E-001	2.51276E-001	3.57690E+000	9	...........
	59	0.8	2.45107E-001	-3.99193E-004	0.00000E+000	-9.78451E-005	-2.40040E-001	2.45150E-001	3.57726E+000	9	...........
	60	0.813333	2.38992E-001	-3.99379E-004	0.00000E+000	-9.54484E-005	-2.40040E-001	2.39032E-001	3.57770E+000	9	...........
	61	0.826667	2.33062E-001	-3.98079E-004	0.00000E+000	-9.27770E-005	-2.40040E-001	2.33103E-001	3.57770E+000	9	...........
	62	0.84	2.27188E-001	-3.97890E-004	0.00000E+000	-9.03959E-005	-2.40040E-001	2.27219E-001	3.57770E+000	9	...........
	63	0.853333	2.21254E-001	-3.99105E-004	0.00000E+000	-8.83038E-005	-2.40040E-001	2.21294E-001	3.57770E+000	9	...........
	64	0.866667	2.15382E-001	-3.98516E-004	0.00000E+000	-8.58333E-005	-2.40040E-001	2.15419E-001	3.57770E+000	9	...........
	65	0.88	2.09518E-001	-3.97799E-004	0.00000E+000	-8.33461E-005	-2.40040E-001	2.09549E-001	3.57770E+000	9	...........
	66	0.893333	2.03754E-001	-3.98742E-004	0.00000E+000	-8.12450E-005	-2.40040E-001	2.03790E-001	3.57770E+000	9	...........
	67	0.906667	1.97980E-001	-3.98909E-004	0.00000E+000	-7.89760E-005	-2.40040E-001	1.98010E-001	3.57770E+000	9	...........
	68	0.92	1.92270E-001	-3.99209E-004	0.00000E+000	-7.67558E-005	-2.40040E-001	1.92301E-001	3.57770E+000	9	...........
	69	0.933333	1.86606E-001	-3.98701E-004	0.00000E+000	-7.43999E-005	-2.40040E-001	1.86636E-001	3.57770E+000	9	...........
	70	0.946667	1.80853E-001	-3.97511E-004	0.00000E+000	-7.18912E-005	-2.40040E-001	1.80887E-001	3.57770E+000	9	...........
	71	0.96	1.75261E-001	-3.99514E-004	0.00000E+000	-7.00191E-005	-2.40040E-001	1.75294E-001	3.57770E+000	9	...........
	72	0.97333	1.69734E-001	-3.98332E-004	0.00000E+000	-6.76105E-005	-2.40040E-001	1.69764E-001	3.57770E+000	9	...........
	73	0.98667	1.64289E-001	-3.99209E-004	0.00000E+000	-6.55856E-005	-2.40040E-001	1.64311E-001	3.57770E+000	9	...........
	74	1	1.58694E-001	-4.00174E-004	0.00000E+000	-6.35054E-005	-2.40040E-001	1.58723E-001	3.57770E+000	9	...........
	75	1.01333	1.53218E-001	-3.98423E-004	0.00000E+000	-6.10457E-005	-2.40040E-001	1.53239E-001	3.57770E+000	9	...........
	76	1.02667	1.47842E-001	-3.98867E-004	0.00000E+000	-5.89694E-005	-2.40040E-001	1.47859E-001	3.57770E+000	9	...........
	77	1.04	1.42512E-001	-3.99245E-004	0.00000E+000	-5.68970E-005	-2.40040E-001	1.42533E-001	3.57770E+000	9	...........
	78	1.05333	1.37137E-001	-3.97428E-004	0.00000E+000	-5.45022E-005	-2.40040E-001	1.37156E-001	3.57770E+000	9	...........
	79	1.06667	1.31902E-001	-3.99273E-004	0.00000E+000	-5.26647E-005	-2.40040E-001	1.31925E-001	3.57770E+000	9	...........
	80	1.08	1.26618E-001	-3.97646E-004	0.00000E+000	-5.03492E-005	-2.40040E-001	1.26635E-001	3.57770E+000	9	...........
	81	1.09333	1.21351E-001	-3.99216E-004	0.00000E+000	-4.84454E-005	-2.40040E-001	1.21376E-001	3.57770E+000	9	...........
	82	1.10667	1.16072E-001	-3.99093E-004	0.00000E+000	-4.63236E-005	-2.40040E-001	1.16086E-001	3.57770E+000	9	...........
	83	1.12	1.10905E-001	-3.99595E-004	0.00000E+000	-4.43170E-005	-2.40040E-001	1.10921E-001	3.57770E+000	9	...........
	84	1.13333	1.05715E-001	-3.99293E-004	0.00000E+000	-4.22112E-005	-2.40040E-001	1.05724E-001	3.57770E+000	9	...........
	85	1.14667	1.00648E-001	-3.99942E-004	0.00000E+000	-4.02534E-005	-2.40040E-001	1.00661E-001	3.57770E+000	9	...........
	86	1.16	9.55365E-002	-3.99087E-004	0.00000E+000	-3.81273E-005	-2.40040E-001	9.55529E-002	3.57770E+000	9	...........
	87	1.17333	9.04700E-002	-3.99953E-004	0.00000E+000	-3.61838E-005	-2.40040E-001	9.04825E-002	3.57770E+000	9	...........
	88	1.18667	8.54852E-002	-3.98187E-004	0.00000E+000	-3.40391E-005	-2.40040E-001	8.54999E-002	3.57770E+000	9	...........
	89	1.2	8.05600E-002	-3.98540E-004	0.00000E+000	-3.21063E-005	-2.40040E-001	8.05666E-002	3.57770E+000	9	...........
	90	1.21333	7.55414E-002	-3.97815E-004	0.00000E+000	-3.00515E-005	-2.40040E-001	7.55514E-002	3.57770E+000	9	...........
	91	1.22667	7.06309E-002	-3.99395E-004	0.00000E+000	-2.82096E-005	-2.40040E-001	7.06359E-002	3.57770E+000	9	...........
	92	1.24	6.57381E-002	-3.98547E-004	0.00000E+000	-2.61997E-005	-2.40040E-001	6.57403E-002	3.57770E+000	9	...........
	93	1.25333	6.07917E-002	-3.99009E-004	0.00000E+000	-2.42564E-005	-2.40040E-001	6.07968E-002	3.57770E+000	9	...........
	94	1.26667	5.59095E-002	-3.98725E-004	0.00000E+000	-2.22925E-005	-2.40040E-001	5.59182E-002	3.57770E+000	9	...........
	95	1.28	5.10640E-002	-3.98515E-004	0.00000E+000	-2.03497E-005	-2.40040E-001	5.10707E-002	3.57770E+000	9	...........
	96	1.29333	4.63520E-002	-3.99724E-004	0.00000E+000	-1.85280E-005	-2.40040E-001	4.63560E-002	3.57770E+000	9	...........
	97	1.30667	4.16468E-002	-3.98417E-004	0.00000E+000	-1.65928E-005	-2.40040E-001	4.16463E-002	3.57770E+000	9	...........
	98	1.32	3.69907E-002	-3.98206E-004	0.00000E+000	-1.47299E-005	-2.40040E-001	3.69906E-002	3.57770E+000	9	...........
	99	1.33333	3.21921E-002	-3.98300E-004	0.00000E+000	-1.28221E-005	-2.40040E-001	3.21876E-002	3.57770E+000	9	...........
	100	1.34667	2.74875E-002	-3.99403E-004	0.00000E+000	-1.09786E-005	-2.40040E-001	2.74841E-002	3.57770E+000	9	...........
	101	1.36	2.28660E-002	-3.98989E-004	0.00000E+000	-9.12325E-006	-2.40040E-001	2.28571E-002	3.57770E+000	9	...........
	102	1.37333	1.83219E-002	-3.99310E-004	0.00000E+000	-7.31614E-006	-2.40040E-001	1.83173E-002	3.57770E+000	9	...........
	103	1.38667	1.37308E-002	-3.97966E-004	0.00000E+000	-5.46438E-006	-2.40040E-001	1.37182E-002	3.57770E+000	9	...........
	104	1.4	9.14416E-003	-3.99248E-004	0.00000E+000	-3.65079E-006	-2.40040E-001	9.13103E-003	3.57770E+000	9	...........
	105	1.41333	4.63665E-003	-3.98850E-004	0.00000E+000	-1.84933E-006	-2.40040E-001	4.61869E-003	3.57770E+000	9	...........
	106	1.42167	9.67732E-004	-4.00167E-004	0.00000E+000	-3.87254E-007	-2.40040E-001	9.50027E-004	3.57770E+000	9	...........
STARTTIMEOFFSET	QUANT	2225.933	Start Time Offset (s)
