EXPLAIN
TAG	PWR800_DISCHARGE
TITLE	LABEL	PWR Cyclic Charge Discharge (Cell) - Discharge Step	Test &Identifier
DATE	LABEL	12-7-2017	Date
TIME	LABEL	14:39:37	Time
NOTES	NOTES	3	&Notes...
	supercap test cell
	0.4mg
	6M KOH
PSTAT	PSTAT	IFC5000-01520	Potentiostat
CAPACITY	QUANT	1.00000E-003	Capacity (A-hr)
CELLTYPE	SELECTOR	1	&Cell Type
WORKINGCONNECTION	SELECTOR	0	&Working Lead
MAXDISCHARGETIME	VARIABLEANDUNITS	1.00000E+002	s	1.00000E+002	second(s)	Max &Discharge Time
DISCHARGEMODE	MULTIPARAM	0	4.00000E-004	&Discharge Mode	Constant Current	Amp(s)
SAMPLETIME	QUANT	1.00000E-002	Sa&mple Period (s)
DISCHARGESTOPAT1	MULTIPARAM	3	0.00000E+000	Discharge Stop At &1	Voltage < Limit	V
DISCHARGESTOPAT2	MULTIPARAM	0	0.00000E+000	Discharge Stop At &2	None	N/A
AESBHCSELECTOR	TOGGLE	F	Save Both Half Cells
IRCOMP	TOGGLE	F	IR &Measure
EOC	QUANT	0	Open Circuit (V)
SEQUENCER	TOGGLE	TRUE	Run as Sequence
PSTATMODEL	IQUANT	53	Pstat Model
PSTATSECTION	LABEL	IFC5000-01520	Pstat Section
PSTATSERIALNO	LABEL	01520	Pstat Serial Number
CTRLMODE	IQUANT	0	Control Mode
ELECTROMETER	IQUANT	1	RE=0 or CS=1
IESTAB	IQUANT	0	I/E Stability
CASPEED	IQUANT	4	Control Amp Speed
CONVENTION	IQUANT	1	Current Convention
ICHRANGE	IQUANT	2	Ich Range
ICHRANGEMODE	TOGGLE	T	Ich Auto Range
ICHOFFSETENABLE	TOGGLE	F	Ich Offset Enable
ICHOFFSET	QUANT	0	Ich Offset (V)
ICHFILTER	IQUANT	1	Ich Filter
VCHRANGE	IQUANT	2	Vch Range
VCHRANGEMODE	TOGGLE	T	Vch Auto Range
VCHOFFSETENABLE	TOGGLE	F	Vch Offset Enable
VCHOFFSET	QUANT	0	Vch Offset (V)
VCHFILTER	IQUANT	1	Vch Filter
IERANGELOWERLIMIT	IQUANT	9	I/E Range Lower Limit
IERANGEMODE	TOGGLE	F	I/E AutoRange
IERANGE	IQUANT	9	I/E Range
ACHSELECT	IQUANT	1	Ach Select
ACHRANGE	IQUANT	2	Ach Range
ACHOFFSETENABLE	TOGGLE	F	Ach Offset Enable
ACHOFFSET	QUANT	0	Ach Offset (V)
ACHFILTER	IQUANT	1	Ach Filter
CABLEID	IQUANT	14	Cable ID
DCCALDATE	LABEL	5-7-2017	DC Calibration Date
ACCALDATE	LABEL	12/3/2015	AC Calibration Date
FRAMEWORKVERSION	QUANT	7.01	Framework Version
INSTRUMENTVERSION	LABEL	4.00	Instrument Version
CURVE	TABLE	119
	Pt	T	Vf	Im	Vu	Pwr	Sig	Ach	Temp	IERange	Over
	#	s	V	A	V	W	V	V	deg C	#	bits
	0	0.013333	7.07642E-001	-3.98825E-004	0.00000E+000	-2.82225E-004	-2.40040E-001	7.07818E-001	3.57610E+000	9	...........
	1	0.026667	6.95791E-001	-3.98487E-004	0.00000E+000	-2.77264E-004	-2.40040E-001	6.95974E-001	3.57610E+000	9	...........
	2	0.04	6.85326E-001	-3.98370E-004	0.00000E+000	-2.73013E-004	-2.40040E-001	6.85518E-001	3.57610E+000	9	...........
	3	0.053333	6.75691E-001	-3.98322E-004	0.00000E+000	-2.69143E-004	-2.40040E-001	6.75885E-001	3.57610E+000	9	...........
	4	0.066667	6.66584E-001	-3.99931E-004	0.00000E+000	-2.66588E-004	-2.40040E-001	6.66788E-001	3.57610E+000	9	...........
	5	0.08	6.57887E-001	-3.97901E-004	0.00000E+000	-2.61774E-004	-2.40040E-001	6.58107E-001	3.57610E+000	9	...........
	6	0.093333	6.49421E-001	-4.00214E-004	0.00000E+000	-2.59907E-004	-2.40040E-001	6.49629E-001	3.57610E+000	9	...........
	7	0.106667	6.41108E-001	-3.99051E-004	0.00000E+000	-2.55835E-004	-2.40040E-001	6.41319E-001	3.57610E+000	9	...........
	8	0.12	6.32982E-001	-3.99604E-004	0.00000E+000	-2.52942E-004	-2.40040E-001	6.33197E-001	3.57610E+000	9	...........
	9	0.133333	6.25045E-001	-3.99737E-004	0.00000E+000	-2.49853E-004	-2.40040E-001	6.25232E-001	3.57610E+000	9	...........
	10	0.146667	6.17216E-001	-3.98778E-004	0.00000E+000	-2.46132E-004	-2.40040E-001	6.17418E-001	3.57610E+000	9	...........
	11	0.16	6.09403E-001	-3.98605E-004	0.00000E+000	-2.42911E-004	-2.40040E-001	6.09642E-001	3.57610E+000	9	...........
	12	0.173333	6.01749E-001	-3.97530E-004	0.00000E+000	-2.39213E-004	-2.40040E-001	6.01982E-001	3.57610E+000	9	...........
	13	0.186667	5.94209E-001	-3.98686E-004	0.00000E+000	-2.36903E-004	-2.40040E-001	5.94412E-001	3.57610E+000	9	...........
	14	0.2	5.86633E-001	-3.98811E-004	0.00000E+000	-2.33956E-004	-2.40040E-001	5.86860E-001	3.57610E+000	9	...........
	15	0.213333	5.79174E-001	-3.99863E-004	0.00000E+000	-2.31590E-004	-2.40040E-001	5.79391E-001	3.57610E+000	9	...........
	16	0.226667	5.71790E-001	-3.99387E-004	0.00000E+000	-2.28365E-004	-2.40040E-001	5.71978E-001	3.57610E+000	9	...........
	17	0.24	5.64465E-001	-3.97509E-004	0.00000E+000	-2.24380E-004	-2.40040E-001	5.64667E-001	3.57610E+000	9	...........
	18	0.253333	5.57070E-001	-3.99370E-004	0.00000E+000	-2.22477E-004	-2.40040E-001	5.57264E-001	3.57610E+000	9	...........
	19	0.266667	5.49856E-001	-3.98770E-004	0.00000E+000	-2.19266E-004	-2.40040E-001	5.50054E-001	3.57610E+000	9	...........
	20	0.28	5.42668E-001	-4.01074E-004	0.00000E+000	-2.17650E-004	-2.40040E-001	5.42864E-001	3.57610E+000	9	...........
	21	0.293333	5.35507E-001	-3.98221E-004	0.00000E+000	-2.13250E-004	-2.40040E-001	5.35695E-001	3.57610E+000	9	...........
	22	0.306667	5.28380E-001	-3.98974E-004	0.00000E+000	-2.10810E-004	-2.40040E-001	5.28577E-001	3.57606E+000	9	...........
	23	0.32	5.21277E-001	-3.98907E-004	0.00000E+000	-2.07941E-004	-2.40040E-001	5.21466E-001	3.57600E+000	9	...........
	24	0.333333	5.14289E-001	-3.98292E-004	0.00000E+000	-2.04837E-004	-2.40040E-001	5.14461E-001	3.57600E+000	9	...........
	25	0.346667	5.07248E-001	-3.97748E-004	0.00000E+000	-2.01757E-004	-2.40040E-001	5.07495E-001	3.57600E+000	9	...........
	26	0.36	5.00265E-001	-3.98309E-004	0.00000E+000	-1.99260E-004	-2.40040E-001	5.00478E-001	3.57600E+000	9	...........
	27	0.373333	4.93341E-001	-3.98117E-004	0.00000E+000	-1.96407E-004	-2.40040E-001	4.93540E-001	3.57600E+000	9	...........
	28	0.386667	4.86531E-001	-3.97729E-004	0.00000E+000	-1.93507E-004	-2.40040E-001	4.86683E-001	3.57600E+000	9	...........
	29	0.4	4.79909E-001	-3.99342E-004	0.00000E+000	-1.91648E-004	-2.40040E-001	4.80006E-001	3.57600E+000	9	...........
	30	0.413333	4.73067E-001	-3.98981E-004	0.00000E+000	-1.88745E-004	-2.40040E-001	4.73160E-001	3.57600E+000	9	...........
	31	0.426667	4.66352E-001	-3.99570E-004	0.00000E+000	-1.86340E-004	-2.40040E-001	4.66446E-001	3.57600E+000	9	...........
	32	0.44	4.59618E-001	-3.98883E-004	0.00000E+000	-1.83334E-004	-2.40040E-001	4.59712E-001	3.57600E+000	9	...........
	33	0.453333	4.52898E-001	-3.99738E-004	0.00000E+000	-1.81041E-004	-2.40040E-001	4.52992E-001	3.57600E+000	9	...........
	34	0.466667	4.46261E-001	-3.99355E-004	0.00000E+000	-1.78217E-004	-2.40040E-001	4.46358E-001	3.57600E+000	9	...........
	35	0.48	4.39651E-001	-3.99462E-004	0.00000E+000	-1.75624E-004	-2.40040E-001	4.39742E-001	3.57600E+000	9	...........
	36	0.493333	4.33089E-001	-3.98464E-004	0.00000E+000	-1.72570E-004	-2.40040E-001	4.33175E-001	3.57600E+000	9	...........
	37	0.506667	4.26559E-001	-3.98280E-004	0.00000E+000	-1.69890E-004	-2.40040E-001	4.26650E-001	3.57600E+000	9	...........
	38	0.52	4.20089E-001	-3.98783E-004	0.00000E+000	-1.67524E-004	-2.40040E-001	4.20177E-001	3.57600E+000	9	...........
	39	0.533333	4.13593E-001	-3.98127E-004	0.00000E+000	-1.64663E-004	-2.40040E-001	4.13678E-001	3.57600E+000	9	...........
	40	0.546667	4.07114E-001	-3.98025E-004	0.00000E+000	-1.62042E-004	-2.40040E-001	4.07190E-001	3.57600E+000	9	...........
	41	0.56	4.00716E-001	-4.00146E-004	0.00000E+000	-1.60345E-004	-2.40040E-001	4.00791E-001	3.57600E+000	9	...........
	42	0.573333	3.94329E-001	-3.97883E-004	0.00000E+000	-1.56897E-004	-2.40040E-001	3.94402E-001	3.57600E+000	9	...........
	43	0.586667	3.88058E-001	-3.97832E-004	0.00000E+000	-1.54382E-004	-2.40040E-001	3.88130E-001	3.57600E+000	9	...........
	44	0.6	3.81746E-001	-3.98587E-004	0.00000E+000	-1.52159E-004	-2.40040E-001	3.81825E-001	3.57600E+000	9	...........
	45	0.613333	3.75446E-001	-3.99287E-004	0.00000E+000	-1.49911E-004	-2.40040E-001	3.75521E-001	3.57600E+000	9	...........
	46	0.626667	3.69146E-001	-3.98605E-004	0.00000E+000	-1.47143E-004	-2.40040E-001	3.69219E-001	3.57600E+000	9	...........
	47	0.64	3.62993E-001	-3.98436E-004	0.00000E+000	-1.44630E-004	-2.40040E-001	3.63067E-001	3.57600E+000	9	...........
	48	0.653333	3.56902E-001	-3.97235E-004	0.00000E+000	-1.41774E-004	-2.40040E-001	3.56975E-001	3.57600E+000	9	...........
	49	0.666667	3.50777E-001	-3.98825E-004	0.00000E+000	-1.39899E-004	-2.40040E-001	3.50844E-001	3.57600E+000	9	...........
	50	0.68	3.44746E-001	-3.99382E-004	0.00000E+000	-1.37686E-004	-2.40040E-001	3.44811E-001	3.57600E+000	9	...........
	51	0.693333	3.38717E-001	-3.98923E-004	0.00000E+000	-1.35122E-004	-2.40040E-001	3.38783E-001	3.57600E+000	9	...........
	52	0.706667	3.32770E-001	-3.99289E-004	0.00000E+000	-1.32871E-004	-2.40040E-001	3.32832E-001	3.57600E+000	9	...........
	53	0.72	3.26858E-001	-3.98142E-004	0.00000E+000	-1.30136E-004	-2.40040E-001	3.26917E-001	3.57600E+000	9	...........
	54	0.733333	3.20898E-001	-3.98285E-004	0.00000E+000	-1.27809E-004	-2.40040E-001	3.20955E-001	3.57600E+000	9	...........
	55	0.746667	3.14993E-001	-3.98204E-004	0.00000E+000	-1.25431E-004	-2.40040E-001	3.15057E-001	3.57600E+000	9	...........
	56	0.76	3.09172E-001	-3.97869E-004	0.00000E+000	-1.23010E-004	-2.40040E-001	3.09229E-001	3.57600E+000	9	...........
	57	0.773333	3.03298E-001	-3.98541E-004	0.00000E+000	-1.20877E-004	-2.40040E-001	3.03362E-001	3.57600E+000	9	...........
	58	0.786667	2.97480E-001	-3.98410E-004	0.00000E+000	-1.18519E-004	-2.40040E-001	2.97542E-001	3.57600E+000	9	...........
	59	0.8	2.91704E-001	-3.97615E-004	0.00000E+000	-1.15986E-004	-2.40040E-001	2.91761E-001	3.57600E+000	9	...........
	60	0.813333	2.86046E-001	-3.99245E-004	0.00000E+000	-1.14202E-004	-2.40040E-001	2.86104E-001	3.57600E+000	9	...........
	61	0.826667	2.80321E-001	-3.99470E-004	0.00000E+000	-1.11980E-004	-2.40040E-001	2.80372E-001	3.57600E+000	9	...........
	62	0.84	2.74647E-001	-3.99265E-004	0.00000E+000	-1.09657E-004	-2.40040E-001	2.74699E-001	3.57600E+000	9	...........
	63	0.853333	2.69050E-001	-4.00349E-004	0.00000E+000	-1.07714E-004	-2.40040E-001	2.69102E-001	3.57600E+000	9	...........
	64	0.866667	2.63398E-001	-3.98240E-004	0.00000E+000	-1.04896E-004	-2.40040E-001	2.63452E-001	3.57600E+000	9	...........
	65	0.88	2.57791E-001	-3.99363E-004	0.00000E+000	-1.02952E-004	-2.40040E-001	2.57845E-001	3.57600E+000	9	...........
	66	0.893333	2.52208E-001	-3.98346E-004	0.00000E+000	-1.00466E-004	-2.40040E-001	2.52256E-001	3.57600E+000	9	...........
	67	0.906667	2.46756E-001	-3.98306E-004	0.00000E+000	-9.82845E-005	-2.40040E-001	2.46802E-001	3.57600E+000	9	...........
	68	0.92	2.41262E-001	-3.99449E-004	0.00000E+000	-9.63719E-005	-2.40040E-001	2.41312E-001	3.57600E+000	9	...........
	69	0.933333	2.35806E-001	-3.99218E-004	0.00000E+000	-9.41379E-005	-2.40040E-001	2.35857E-001	3.57600E+000	9	...........
	70	0.946667	2.30378E-001	-3.98872E-004	0.00000E+000	-9.18913E-005	-2.40040E-001	2.30421E-001	3.57600E+000	9	...........
	71	0.96	2.24974E-001	-3.99330E-004	0.00000E+000	-8.98390E-005	-2.40040E-001	2.25020E-001	3.57600E+000	9	...........
	72	0.97333	2.19595E-001	-3.99054E-004	0.00000E+000	-8.76303E-005	-2.40040E-001	2.19640E-001	3.57600E+000	9	...........
	73	0.98667	2.14285E-001	-3.97917E-004	0.00000E+000	-8.52677E-005	-2.40040E-001	2.14327E-001	3.57600E+000	9	...........
	74	1	2.08960E-001	-3.98634E-004	0.00000E+000	-8.32984E-005	-2.40040E-001	2.08995E-001	3.57600E+000	9	...........
	75	1.01333	2.03733E-001	-3.98319E-004	0.00000E+000	-8.11505E-005	-2.40040E-001	2.03770E-001	3.57600E+000	9	...........
	76	1.02667	1.98507E-001	-3.98411E-004	0.00000E+000	-7.90873E-005	-2.40040E-001	1.98541E-001	3.57600E+000	9	...........
	77	1.04	1.93180E-001	-3.99127E-004	0.00000E+000	-7.71033E-005	-2.40040E-001	1.93215E-001	3.57600E+000	9	...........
	78	1.05333	1.87971E-001	-3.97858E-004	0.00000E+000	-7.47857E-005	-2.40040E-001	1.88004E-001	3.57600E+000	9	...........
	79	1.06667	1.82798E-001	-3.98707E-004	0.00000E+000	-7.28828E-005	-2.40040E-001	1.82832E-001	3.57600E+000	9	...........
	80	1.08	1.77655E-001	-3.99282E-004	0.00000E+000	-7.09346E-005	-2.40040E-001	1.77686E-001	3.57600E+000	9	...........
	81	1.09333	1.72514E-001	-3.98608E-004	0.00000E+000	-6.87656E-005	-2.40040E-001	1.72548E-001	3.57600E+000	9	...........
	82	1.10667	1.67490E-001	-3.98970E-004	0.00000E+000	-6.68234E-005	-2.40040E-001	1.67520E-001	3.57600E+000	9	...........
	83	1.12	1.62397E-001	-3.99820E-004	0.00000E+000	-6.49294E-005	-2.40040E-001	1.62425E-001	3.57600E+000	9	...........
	84	1.13333	1.57313E-001	-3.99280E-004	0.00000E+000	-6.28120E-005	-2.40040E-001	1.57335E-001	3.57600E+000	9	...........
	85	1.14667	1.52329E-001	-3.98159E-004	0.00000E+000	-6.06513E-005	-2.40040E-001	1.52352E-001	3.57600E+000	9	...........
	86	1.16	1.47405E-001	-3.99479E-004	0.00000E+000	-5.88853E-005	-2.40040E-001	1.47429E-001	3.57600E+000	9	...........
	87	1.17333	1.42439E-001	-3.99953E-004	0.00000E+000	-5.69691E-005	-2.40040E-001	1.42468E-001	3.57600E+000	9	...........
	88	1.18667	1.37595E-001	-3.99362E-004	0.00000E+000	-5.49500E-005	-2.40040E-001	1.37618E-001	3.57600E+000	9	...........
	89	1.2	1.32625E-001	-3.96569E-004	0.00000E+000	-5.25949E-005	-2.40040E-001	1.32651E-001	3.57600E+000	9	...........
	90	1.21333	1.27787E-001	-4.00194E-004	0.00000E+000	-5.11396E-005	-2.40040E-001	1.27811E-001	3.57600E+000	9	...........
	91	1.22667	1.22885E-001	-3.99943E-004	0.00000E+000	-4.91470E-005	-2.40040E-001	1.22911E-001	3.57600E+000	9	...........
	92	1.24	1.18099E-001	-3.98307E-004	0.00000E+000	-4.70395E-005	-2.40040E-001	1.18121E-001	3.57600E+000	9	...........
	93	1.25333	1.13260E-001	-3.99724E-004	0.00000E+000	-4.52728E-005	-2.40040E-001	1.13288E-001	3.57600E+000	9	...........
	94	1.26667	1.08440E-001	-3.99014E-004	0.00000E+000	-4.32691E-005	-2.40040E-001	1.08461E-001	3.57600E+000	9	...........
	95	1.28	1.03693E-001	-3.97927E-004	0.00000E+000	-4.12622E-005	-2.40040E-001	1.03709E-001	3.57600E+000	9	...........
	96	1.29333	9.89717E-002	-3.98398E-004	0.00000E+000	-3.94301E-005	-2.40040E-001	9.89877E-002	3.57600E+000	9	...........
	97	1.30667	9.42865E-002	-3.99057E-004	0.00000E+000	-3.76257E-005	-2.40040E-001	9.43096E-002	3.57604E+000	9	...........
	98	1.32	8.96294E-002	-3.99208E-004	0.00000E+000	-3.57808E-005	-2.40040E-001	8.96492E-002	3.57610E+000	9	...........
	99	1.33333	8.49838E-002	-3.98167E-004	0.00000E+000	-3.38377E-005	-2.40040E-001	8.50015E-002	3.57610E+000	9	...........
	100	1.34667	8.04086E-002	-3.99864E-004	0.00000E+000	-3.21525E-005	-2.40040E-001	8.04277E-002	3.57610E+000	9	...........
	101	1.36	7.58080E-002	-4.00044E-004	0.00000E+000	-3.03266E-005	-2.40040E-001	7.58246E-002	3.57610E+000	9	...........
	102	1.37333	7.12326E-002	-3.99644E-004	0.00000E+000	-2.84677E-005	-2.40040E-001	7.12392E-002	3.57610E+000	9	...........
	103	1.38667	6.66848E-002	-3.98948E-004	0.00000E+000	-2.66037E-005	-2.40040E-001	6.66903E-002	3.57610E+000	9	...........
	104	1.4	6.21415E-002	-3.98562E-004	0.00000E+000	-2.47672E-005	-2.40040E-001	6.21474E-002	3.57610E+000	9	...........
	105	1.41333	5.77768E-002	-3.97324E-004	0.00000E+000	-2.29561E-005	-2.40040E-001	5.77798E-002	3.57610E+000	9	...........
	106	1.42667	5.33445E-002	-3.98536E-004	0.00000E+000	-2.12597E-005	-2.40040E-001	5.33500E-002	3.57610E+000	9	...........
	107	1.44	4.87490E-002	-3.98960E-004	0.00000E+000	-1.94489E-005	-2.40040E-001	4.87586E-002	3.57610E+000	9	...........
	108	1.45333	4.43027E-002	-3.97332E-004	0.00000E+000	-1.76029E-005	-2.40040E-001	4.43070E-002	3.57610E+000	9	...........
	109	1.46667	3.98858E-002	-3.99073E-004	0.00000E+000	-1.59173E-005	-2.40040E-001	3.98955E-002	3.57610E+000	9	...........
	110	1.48	3.54880E-002	-3.98930E-004	0.00000E+000	-1.41572E-005	-2.40040E-001	3.54909E-002	3.57610E+000	9	...........
	111	1.49333	3.11633E-002	-3.99890E-004	0.00000E+000	-1.24619E-005	-2.40040E-001	3.11646E-002	3.57610E+000	9	...........
	112	1.50667	2.67282E-002	-3.99343E-004	0.00000E+000	-1.06737E-005	-2.40040E-001	2.67259E-002	3.57610E+000	9	...........
	113	1.52	2.23523E-002	-4.00266E-004	0.00000E+000	-8.94685E-006	-2.40040E-001	2.23461E-002	3.57610E+000	9	...........
	114	1.53333	1.79617E-002	-3.98333E-004	0.00000E+000	-7.15473E-006	-2.40040E-001	1.79545E-002	3.57610E+000	9	...........
	115	1.54667	1.36470E-002	-3.98590E-004	0.00000E+000	-5.43956E-006	-2.40040E-001	1.36422E-002	3.57610E+000	9	...........
	116	1.56	9.34748E-003	-3.99073E-004	0.00000E+000	-3.73033E-006	-2.40040E-001	9.33548E-003	3.57610E+000	9	...........
	117	1.57333	5.13237E-003	-3.98239E-004	0.00000E+000	-2.04391E-006	-2.40040E-001	5.11948E-003	3.57610E+000	9	...........
	118	1.585	1.20288E-003	-3.98384E-004	0.00000E+000	-4.79206E-007	-2.40040E-001	1.18711E-003	3.57610E+000	9	...........
STARTTIMEOFFSET	QUANT	1009.499	Start Time Offset (s)
