EXPLAIN
TAG	PWR800_DISCHARGE
TITLE	LABEL	PWR Cyclic Charge Discharge (Cell) - Discharge Step	Test &Identifier
DATE	LABEL	12-7-2017	Date
TIME	LABEL	14:54:25	Time
NOTES	NOTES	3	&Notes...
	supercap test cell
	0.4mg
	6M KOH
PSTAT	PSTAT	IFC5000-01520	Potentiostat
CAPACITY	QUANT	1.00000E-003	Capacity (A-hr)
CELLTYPE	SELECTOR	1	&Cell Type
WORKINGCONNECTION	SELECTOR	0	&Working Lead
MAXDISCHARGETIME	VARIABLEANDUNITS	1.00000E+002	s	1.00000E+002	second(s)	Max &Discharge Time
DISCHARGEMODE	MULTIPARAM	0	4.00000E-004	&Discharge Mode	Constant Current	Amp(s)
SAMPLETIME	QUANT	1.00000E-002	Sa&mple Period (s)
DISCHARGESTOPAT1	MULTIPARAM	3	0.00000E+000	Discharge Stop At &1	Voltage < Limit	V
DISCHARGESTOPAT2	MULTIPARAM	0	0.00000E+000	Discharge Stop At &2	None	N/A
AESBHCSELECTOR	TOGGLE	F	Save Both Half Cells
IRCOMP	TOGGLE	F	IR &Measure
EOC	QUANT	0	Open Circuit (V)
SEQUENCER	TOGGLE	TRUE	Run as Sequence
PSTATMODEL	IQUANT	53	Pstat Model
PSTATSECTION	LABEL	IFC5000-01520	Pstat Section
PSTATSERIALNO	LABEL	01520	Pstat Serial Number
CTRLMODE	IQUANT	0	Control Mode
ELECTROMETER	IQUANT	1	RE=0 or CS=1
IESTAB	IQUANT	0	I/E Stability
CASPEED	IQUANT	4	Control Amp Speed
CONVENTION	IQUANT	1	Current Convention
ICHRANGE	IQUANT	2	Ich Range
ICHRANGEMODE	TOGGLE	T	Ich Auto Range
ICHOFFSETENABLE	TOGGLE	F	Ich Offset Enable
ICHOFFSET	QUANT	0	Ich Offset (V)
ICHFILTER	IQUANT	1	Ich Filter
VCHRANGE	IQUANT	2	Vch Range
VCHRANGEMODE	TOGGLE	T	Vch Auto Range
VCHOFFSETENABLE	TOGGLE	F	Vch Offset Enable
VCHOFFSET	QUANT	0	Vch Offset (V)
VCHFILTER	IQUANT	1	Vch Filter
IERANGELOWERLIMIT	IQUANT	9	I/E Range Lower Limit
IERANGEMODE	TOGGLE	F	I/E AutoRange
IERANGE	IQUANT	9	I/E Range
ACHSELECT	IQUANT	1	Ach Select
ACHRANGE	IQUANT	2	Ach Range
ACHOFFSETENABLE	TOGGLE	F	Ach Offset Enable
ACHOFFSET	QUANT	0	Ach Offset (V)
ACHFILTER	IQUANT	1	Ach Filter
CABLEID	IQUANT	14	Cable ID
DCCALDATE	LABEL	5-7-2017	DC Calibration Date
ACCALDATE	LABEL	12/3/2015	AC Calibration Date
FRAMEWORKVERSION	QUANT	7.01	Framework Version
INSTRUMENTVERSION	LABEL	4.00	Instrument Version
CURVE	TABLE	112
	Pt	T	Vf	Im	Vu	Pwr	Sig	Ach	Temp	IERange	Over
	#	s	V	A	V	W	V	V	deg C	#	bits
	0	0.013333	7.00035E-001	-3.99344E-004	0.00000E+000	-2.79555E-004	-2.40040E-001	7.00236E-001	3.57650E+000	9	...........
	1	0.026667	6.87409E-001	-3.97937E-004	0.00000E+000	-2.73546E-004	-2.40040E-001	6.87618E-001	3.57650E+000	9	...........
	2	0.04	6.76333E-001	-4.00078E-004	0.00000E+000	-2.70586E-004	-2.40040E-001	6.76537E-001	3.57650E+000	9	...........
	3	0.053333	6.66101E-001	-3.98772E-004	0.00000E+000	-2.65622E-004	-2.40040E-001	6.66325E-001	3.57650E+000	9	...........
	4	0.066667	6.56480E-001	-3.98257E-004	0.00000E+000	-2.61448E-004	-2.40040E-001	6.56717E-001	3.57650E+000	9	...........
	5	0.08	6.47241E-001	-3.98444E-004	0.00000E+000	-2.57889E-004	-2.40040E-001	6.47474E-001	3.57650E+000	9	...........
	6	0.093333	6.38285E-001	-3.99712E-004	0.00000E+000	-2.55130E-004	-2.40040E-001	6.38498E-001	3.57650E+000	9	...........
	7	0.106667	6.29579E-001	-3.99585E-004	0.00000E+000	-2.51570E-004	-2.40040E-001	6.29786E-001	3.57650E+000	9	...........
	8	0.12	6.21113E-001	-3.98097E-004	0.00000E+000	-2.47263E-004	-2.40040E-001	6.21312E-001	3.57650E+000	9	...........
	9	0.133333	6.12693E-001	-3.98251E-004	0.00000E+000	-2.44005E-004	-2.40040E-001	6.12948E-001	3.57650E+000	9	...........
	10	0.146667	6.04432E-001	-3.98696E-004	0.00000E+000	-2.40985E-004	-2.40040E-001	6.04708E-001	3.57650E+000	9	...........
	11	0.16	5.96312E-001	-3.99802E-004	0.00000E+000	-2.38407E-004	-2.40040E-001	5.96543E-001	3.57650E+000	9	...........
	12	0.173333	5.88220E-001	-3.97909E-004	0.00000E+000	-2.34058E-004	-2.40040E-001	5.88457E-001	3.57650E+000	9	...........
	13	0.186667	5.80281E-001	-3.98513E-004	0.00000E+000	-2.31250E-004	-2.40040E-001	5.80510E-001	3.57650E+000	9	...........
	14	0.2	5.72373E-001	-3.99317E-004	0.00000E+000	-2.28558E-004	-2.40040E-001	5.72595E-001	3.57650E+000	9	...........
	15	0.213333	5.64601E-001	-3.99648E-004	0.00000E+000	-2.25642E-004	-2.40040E-001	5.64827E-001	3.57650E+000	9	...........
	16	0.226667	5.56847E-001	-3.98872E-004	0.00000E+000	-2.22111E-004	-2.40040E-001	5.57042E-001	3.57650E+000	9	...........
	17	0.24	5.49219E-001	-3.97772E-004	0.00000E+000	-2.18464E-004	-2.40040E-001	5.49414E-001	3.57650E+000	9	...........
	18	0.253333	5.41559E-001	-3.97858E-004	0.00000E+000	-2.15464E-004	-2.40040E-001	5.41751E-001	3.57650E+000	9	...........
	19	0.266667	5.33881E-001	-3.99240E-004	0.00000E+000	-2.13147E-004	-2.40040E-001	5.34080E-001	3.57650E+000	9	...........
	20	0.28	5.26381E-001	-3.98492E-004	0.00000E+000	-2.09758E-004	-2.40040E-001	5.26562E-001	3.57650E+000	9	...........
	21	0.293333	5.18886E-001	-3.99887E-004	0.00000E+000	-2.07495E-004	-2.40040E-001	5.19067E-001	3.57650E+000	9	...........
	22	0.306667	5.11377E-001	-3.98632E-004	0.00000E+000	-2.03851E-004	-2.40040E-001	5.11589E-001	3.57650E+000	9	...........
	23	0.32	5.03954E-001	-3.99320E-004	0.00000E+000	-2.01239E-004	-2.40040E-001	5.04198E-001	3.57650E+000	9	...........
	24	0.333333	4.96697E-001	-3.99870E-004	0.00000E+000	-1.98614E-004	-2.40040E-001	4.96939E-001	3.57650E+000	9	...........
	25	0.346667	4.89421E-001	-3.99498E-004	0.00000E+000	-1.95523E-004	-2.40040E-001	4.89639E-001	3.57650E+000	9	...........
	26	0.36	4.82351E-001	-3.99064E-004	0.00000E+000	-1.92489E-004	-2.40040E-001	4.82453E-001	3.57650E+000	9	...........
	27	0.373333	4.75162E-001	-3.99601E-004	0.00000E+000	-1.89875E-004	-2.40040E-001	4.75262E-001	3.57650E+000	9	...........
	28	0.386667	4.67994E-001	-3.99065E-004	0.00000E+000	-1.86760E-004	-2.40040E-001	4.68087E-001	3.57650E+000	9	...........
	29	0.4	4.60829E-001	-3.98232E-004	0.00000E+000	-1.83517E-004	-2.40040E-001	4.60920E-001	3.57650E+000	9	...........
	30	0.413333	4.53735E-001	-3.98443E-004	0.00000E+000	-1.80787E-004	-2.40040E-001	4.53825E-001	3.57650E+000	9	...........
	31	0.426667	4.46726E-001	-3.98965E-004	0.00000E+000	-1.78228E-004	-2.40040E-001	4.46819E-001	3.57650E+000	9	...........
	32	0.44	4.39721E-001	-3.97628E-004	0.00000E+000	-1.74845E-004	-2.40040E-001	4.39801E-001	3.57650E+000	9	...........
	33	0.453333	4.32786E-001	-3.98109E-004	0.00000E+000	-1.72296E-004	-2.40040E-001	4.32868E-001	3.57650E+000	9	...........
	34	0.466667	4.25789E-001	-3.98620E-004	0.00000E+000	-1.69728E-004	-2.40040E-001	4.25873E-001	3.57650E+000	9	...........
	35	0.48	4.18866E-001	-3.99102E-004	0.00000E+000	-1.67170E-004	-2.40040E-001	4.18952E-001	3.57650E+000	9	...........
	36	0.493333	4.11972E-001	-3.99127E-004	0.00000E+000	-1.64429E-004	-2.40040E-001	4.12047E-001	3.57650E+000	9	...........
	37	0.506667	4.05262E-001	-3.98545E-004	0.00000E+000	-1.61515E-004	-2.40040E-001	4.05345E-001	3.57650E+000	9	...........
	38	0.52	3.98543E-001	-3.99123E-004	0.00000E+000	-1.59068E-004	-2.40040E-001	3.98622E-001	3.57650E+000	9	...........
	39	0.533333	3.91857E-001	-3.98947E-004	0.00000E+000	-1.56330E-004	-2.40040E-001	3.91931E-001	3.57650E+000	9	...........
	40	0.546667	3.85187E-001	-3.98667E-004	0.00000E+000	-1.53561E-004	-2.40040E-001	3.85264E-001	3.57650E+000	9	...........
	41	0.56	3.78454E-001	-3.98163E-004	0.00000E+000	-1.50687E-004	-2.40040E-001	3.78527E-001	3.57650E+000	9	...........
	42	0.573333	3.71929E-001	-3.99268E-004	0.00000E+000	-1.48499E-004	-2.40040E-001	3.71999E-001	3.57650E+000	9	...........
	43	0.586667	3.65370E-001	-3.99352E-004	0.00000E+000	-1.45911E-004	-2.40040E-001	3.65435E-001	3.57650E+000	9	...........
	44	0.6	3.58725E-001	-3.98926E-004	0.00000E+000	-1.43105E-004	-2.40040E-001	3.58792E-001	3.57650E+000	9	...........
	45	0.613333	3.52138E-001	-3.98733E-004	0.00000E+000	-1.40409E-004	-2.40040E-001	3.52201E-001	3.57650E+000	9	...........
	46	0.626667	3.45656E-001	-3.99742E-004	0.00000E+000	-1.38173E-004	-2.40040E-001	3.45724E-001	3.57650E+000	9	...........
	47	0.64	3.39198E-001	-3.98918E-004	0.00000E+000	-1.35312E-004	-2.40040E-001	3.39260E-001	3.57650E+000	9	...........
	48	0.653333	3.32836E-001	-3.98607E-004	0.00000E+000	-1.32671E-004	-2.40040E-001	3.32899E-001	3.57650E+000	9	...........
	49	0.666667	3.26517E-001	-3.99192E-004	0.00000E+000	-1.30343E-004	-2.40040E-001	3.26572E-001	3.57650E+000	9	...........
	50	0.68	3.20224E-001	-3.99343E-004	0.00000E+000	-1.27879E-004	-2.40040E-001	3.20282E-001	3.57650E+000	9	...........
	51	0.693333	3.13938E-001	-3.98560E-004	0.00000E+000	-1.25123E-004	-2.40040E-001	3.13999E-001	3.57650E+000	9	...........
	52	0.706667	3.07728E-001	-3.98672E-004	0.00000E+000	-1.22682E-004	-2.40040E-001	3.07789E-001	3.57650E+000	9	...........
	53	0.72	3.01578E-001	-3.99304E-004	0.00000E+000	-1.20421E-004	-2.40040E-001	3.01642E-001	3.57650E+000	9	...........
	54	0.733333	2.95425E-001	-3.98484E-004	0.00000E+000	-1.17722E-004	-2.40040E-001	2.95485E-001	3.57650E+000	9	...........
	55	0.746667	2.89391E-001	-3.98105E-004	0.00000E+000	-1.15208E-004	-2.40040E-001	2.89451E-001	3.57650E+000	9	...........
	56	0.76	2.83199E-001	-3.98648E-004	0.00000E+000	-1.12897E-004	-2.40040E-001	2.83256E-001	3.57650E+000	9	...........
	57	0.773333	2.77071E-001	-3.98065E-004	0.00000E+000	-1.10292E-004	-2.40040E-001	2.77128E-001	3.57650E+000	9	...........
	58	0.786667	2.71111E-001	-3.98806E-004	0.00000E+000	-1.08121E-004	-2.40040E-001	2.71163E-001	3.57650E+000	9	...........
	59	0.8	2.65181E-001	-3.98684E-004	0.00000E+000	-1.05724E-004	-2.40040E-001	2.65240E-001	3.57650E+000	9	...........
	60	0.813333	2.59261E-001	-3.99312E-004	0.00000E+000	-1.03526E-004	-2.40040E-001	2.59318E-001	3.57650E+000	9	...........
	61	0.826667	2.53378E-001	-3.98856E-004	0.00000E+000	-1.01061E-004	-2.40040E-001	2.53433E-001	3.57650E+000	9	...........
	62	0.84	2.47466E-001	-3.99483E-004	0.00000E+000	-9.88588E-005	-2.40040E-001	2.47516E-001	3.57650E+000	9	...........
	63	0.853333	2.41604E-001	-3.99117E-004	0.00000E+000	-9.64282E-005	-2.40040E-001	2.41647E-001	3.57650E+000	9	...........
	64	0.866667	2.35724E-001	-3.99515E-004	0.00000E+000	-9.41751E-005	-2.40040E-001	2.35767E-001	3.57650E+000	9	...........
	65	0.88	2.29944E-001	-3.97979E-004	0.00000E+000	-9.15130E-005	-2.40040E-001	2.29977E-001	3.57650E+000	9	...........
	66	0.893333	2.24252E-001	-3.99005E-004	0.00000E+000	-8.94778E-005	-2.40040E-001	2.24289E-001	3.57650E+000	9	...........
	67	0.906667	2.18532E-001	-3.97334E-004	0.00000E+000	-8.68303E-005	-2.40040E-001	2.18572E-001	3.57650E+000	9	...........
	68	0.92	2.12845E-001	-3.98419E-004	0.00000E+000	-8.48014E-005	-2.40040E-001	2.12886E-001	3.57650E+000	9	...........
	69	0.933333	2.07318E-001	-3.98048E-004	0.00000E+000	-8.25225E-005	-2.40040E-001	2.07358E-001	3.57650E+000	9	...........
	70	0.946667	2.01703E-001	-3.98110E-004	0.00000E+000	-8.03000E-005	-2.40040E-001	2.01748E-001	3.57650E+000	9	...........
	71	0.96	1.96056E-001	-3.99379E-004	0.00000E+000	-7.83008E-005	-2.40040E-001	1.96087E-001	3.57650E+000	9	...........
	72	0.97333	1.90460E-001	-3.99346E-004	0.00000E+000	-7.60593E-005	-2.40040E-001	1.90498E-001	3.57680E+000	9	...........
	73	0.98667	1.85020E-001	-3.99108E-004	0.00000E+000	-7.38432E-005	-2.40040E-001	1.85054E-001	3.57680E+000	9	...........
	74	1	1.79574E-001	-3.98757E-004	0.00000E+000	-7.16065E-005	-2.40040E-001	1.79608E-001	3.57680E+000	9	...........
	75	1.01333	1.74108E-001	-3.98775E-004	0.00000E+000	-6.94297E-005	-2.40040E-001	1.74136E-001	3.57680E+000	9	...........
	76	1.02667	1.68765E-001	-3.99071E-004	0.00000E+000	-6.73493E-005	-2.40040E-001	1.68802E-001	3.57680E+000	9	...........
	77	1.04	1.63392E-001	-3.98932E-004	0.00000E+000	-6.51825E-005	-2.40040E-001	1.63422E-001	3.57680E+000	9	...........
	78	1.05333	1.58008E-001	-3.98205E-004	0.00000E+000	-6.29198E-005	-2.40040E-001	1.58040E-001	3.57680E+000	9	...........
	79	1.06667	1.52680E-001	-3.99402E-004	0.00000E+000	-6.09806E-005	-2.40040E-001	1.52711E-001	3.57680E+000	9	...........
	80	1.08	1.47398E-001	-3.99321E-004	0.00000E+000	-5.88589E-005	-2.40040E-001	1.47417E-001	3.57680E+000	9	...........
	81	1.09333	1.42283E-001	-3.99477E-004	0.00000E+000	-5.68390E-005	-2.40040E-001	1.42305E-001	3.57680E+000	9	...........
	82	1.10667	1.37096E-001	-3.97190E-004	0.00000E+000	-5.44532E-005	-2.40040E-001	1.37118E-001	3.57680E+000	9	...........
	83	1.12	1.31889E-001	-3.99460E-004	0.00000E+000	-5.26841E-005	-2.40040E-001	1.31906E-001	3.57680E+000	9	...........
	84	1.13333	1.26715E-001	-3.99397E-004	0.00000E+000	-5.06096E-005	-2.40040E-001	1.26735E-001	3.57680E+000	9	...........
	85	1.14667	1.21603E-001	-3.98821E-004	0.00000E+000	-4.84977E-005	-2.40040E-001	1.21627E-001	3.57680E+000	9	...........
	86	1.16	1.16519E-001	-3.99771E-004	0.00000E+000	-4.65809E-005	-2.40040E-001	1.16539E-001	3.57680E+000	9	...........
	87	1.17333	1.11462E-001	-3.98642E-004	0.00000E+000	-4.44333E-005	-2.40040E-001	1.11480E-001	3.57680E+000	9	...........
	88	1.18667	1.06436E-001	-3.98900E-004	0.00000E+000	-4.24573E-005	-2.40040E-001	1.06456E-001	3.57680E+000	9	...........
	89	1.2	1.01356E-001	-3.97865E-004	0.00000E+000	-4.03260E-005	-2.40040E-001	1.01377E-001	3.57680E+000	9	...........
	90	1.21333	9.64548E-002	-3.99240E-004	0.00000E+000	-3.85086E-005	-2.40040E-001	9.64724E-002	3.57680E+000	9	...........
	91	1.22667	9.15101E-002	-3.98418E-004	0.00000E+000	-3.64592E-005	-2.40040E-001	9.15329E-002	3.57680E+000	9	...........
	92	1.24	8.66832E-002	-3.96697E-004	0.00000E+000	-3.43870E-005	-2.40040E-001	8.67039E-002	3.57680E+000	9	...........
	93	1.25333	8.17763E-002	-3.98706E-004	0.00000E+000	-3.26047E-005	-2.40040E-001	8.17868E-002	3.57680E+000	9	...........
	94	1.26667	7.68771E-002	-3.98068E-004	0.00000E+000	-3.06023E-005	-2.40040E-001	7.68885E-002	3.57680E+000	9	...........
	95	1.28	7.21237E-002	-3.99593E-004	0.00000E+000	-2.88201E-005	-2.40040E-001	7.21318E-002	3.57680E+000	9	...........
	96	1.29333	6.73547E-002	-3.98519E-004	0.00000E+000	-2.68421E-005	-2.40040E-001	6.73581E-002	3.57680E+000	9	...........
	97	1.30667	6.25695E-002	-3.98999E-004	0.00000E+000	-2.49652E-005	-2.40040E-001	6.25792E-002	3.57680E+000	9	...........
	98	1.32	5.77858E-002	-3.98404E-004	0.00000E+000	-2.30221E-005	-2.40040E-001	5.77984E-002	3.57680E+000	9	...........
	99	1.33333	5.30975E-002	-3.98456E-004	0.00000E+000	-2.11570E-005	-2.40040E-001	5.31002E-002	3.57680E+000	9	...........
	100	1.34667	4.84627E-002	-3.98780E-004	0.00000E+000	-1.93260E-005	-2.40040E-001	4.84620E-002	3.57680E+000	9	...........
	101	1.36	4.38538E-002	-3.99544E-004	0.00000E+000	-1.75215E-005	-2.40040E-001	4.38606E-002	3.57680E+000	9	...........
	102	1.37333	3.91965E-002	-3.99107E-004	0.00000E+000	-1.56436E-005	-2.40040E-001	3.91978E-002	3.57680E+000	9	...........
	103	1.38667	3.46222E-002	-3.97175E-004	0.00000E+000	-1.37511E-005	-2.40040E-001	3.46225E-002	3.57680E+000	9	...........
	104	1.4	3.00451E-002	-3.98840E-004	0.00000E+000	-1.19832E-005	-2.40040E-001	3.00437E-002	3.57680E+000	9	...........
	105	1.41333	2.54940E-002	-3.99176E-004	0.00000E+000	-1.01766E-005	-2.40040E-001	2.54965E-002	3.57680E+000	9	...........
	106	1.42667	2.10781E-002	-3.99357E-004	0.00000E+000	-8.41771E-006	-2.40040E-001	2.10690E-002	3.57680E+000	9	...........
	107	1.44	1.65967E-002	-3.98262E-004	0.00000E+000	-6.60982E-006	-2.40040E-001	1.65804E-002	3.57680E+000	9	...........
	108	1.45333	1.21543E-002	-3.98143E-004	0.00000E+000	-4.83913E-006	-2.40040E-001	1.21433E-002	3.57680E+000	9	...........
	109	1.46667	7.69020E-003	-3.99023E-004	0.00000E+000	-3.06857E-006	-2.40040E-001	7.67727E-003	3.57680E+000	9	...........
	110	1.48	3.23190E-003	-3.97983E-004	0.00000E+000	-1.28624E-006	-2.40040E-001	3.21746E-003	3.57680E+000	9	...........
	111	1.485	1.44859E-004	-3.99106E-004	0.00000E+000	-5.78140E-008	-2.40040E-001	1.26711E-004	3.57680E+000	9	...........
STARTTIMEOFFSET	QUANT	1710.859	Start Time Offset (s)
