EXPLAIN
TAG	PWR800_DISCHARGE
TITLE	LABEL	PWR Cyclic Charge Discharge (Cell) - Discharge Step	Test &Identifier
DATE	LABEL	12-7-2017	Date
TIME	LABEL	14:40:46	Time
NOTES	NOTES	3	&Notes...
	supercap test cell
	0.4mg
	6M KOH
PSTAT	PSTAT	IFC5000-01520	Potentiostat
CAPACITY	QUANT	1.00000E-003	Capacity (A-hr)
CELLTYPE	SELECTOR	1	&Cell Type
WORKINGCONNECTION	SELECTOR	0	&Working Lead
MAXDISCHARGETIME	VARIABLEANDUNITS	1.00000E+002	s	1.00000E+002	second(s)	Max &Discharge Time
DISCHARGEMODE	MULTIPARAM	0	4.00000E-004	&Discharge Mode	Constant Current	Amp(s)
SAMPLETIME	QUANT	1.00000E-002	Sa&mple Period (s)
DISCHARGESTOPAT1	MULTIPARAM	3	0.00000E+000	Discharge Stop At &1	Voltage < Limit	V
DISCHARGESTOPAT2	MULTIPARAM	0	0.00000E+000	Discharge Stop At &2	None	N/A
AESBHCSELECTOR	TOGGLE	F	Save Both Half Cells
IRCOMP	TOGGLE	F	IR &Measure
EOC	QUANT	0	Open Circuit (V)
SEQUENCER	TOGGLE	TRUE	Run as Sequence
PSTATMODEL	IQUANT	53	Pstat Model
PSTATSECTION	LABEL	IFC5000-01520	Pstat Section
PSTATSERIALNO	LABEL	01520	Pstat Serial Number
CTRLMODE	IQUANT	0	Control Mode
ELECTROMETER	IQUANT	1	RE=0 or CS=1
IESTAB	IQUANT	0	I/E Stability
CASPEED	IQUANT	4	Control Amp Speed
CONVENTION	IQUANT	1	Current Convention
ICHRANGE	IQUANT	2	Ich Range
ICHRANGEMODE	TOGGLE	T	Ich Auto Range
ICHOFFSETENABLE	TOGGLE	F	Ich Offset Enable
ICHOFFSET	QUANT	0	Ich Offset (V)
ICHFILTER	IQUANT	1	Ich Filter
VCHRANGE	IQUANT	2	Vch Range
VCHRANGEMODE	TOGGLE	T	Vch Auto Range
VCHOFFSETENABLE	TOGGLE	F	Vch Offset Enable
VCHOFFSET	QUANT	0	Vch Offset (V)
VCHFILTER	IQUANT	1	Vch Filter
IERANGELOWERLIMIT	IQUANT	9	I/E Range Lower Limit
IERANGEMODE	TOGGLE	F	I/E AutoRange
IERANGE	IQUANT	9	I/E Range
ACHSELECT	IQUANT	1	Ach Select
ACHRANGE	IQUANT	2	Ach Range
ACHOFFSETENABLE	TOGGLE	F	Ach Offset Enable
ACHOFFSET	QUANT	0	Ach Offset (V)
ACHFILTER	IQUANT	1	Ach Filter
CABLEID	IQUANT	14	Cable ID
DCCALDATE	LABEL	5-7-2017	DC Calibration Date
ACCALDATE	LABEL	12/3/2015	AC Calibration Date
FRAMEWORKVERSION	QUANT	7.01	Framework Version
INSTRUMENTVERSION	LABEL	4.00	Instrument Version
CURVE	TABLE	119
	Pt	T	Vf	Im	Vu	Pwr	Sig	Ach	Temp	IERange	Over
	#	s	V	A	V	W	V	V	deg C	#	bits
	0	0.013333	7.06326E-001	-3.99063E-004	0.00000E+000	-2.81868E-004	-2.40040E-001	7.06518E-001	3.57730E+000	9	...........
	1	0.026667	6.94538E-001	-3.98177E-004	0.00000E+000	-2.76549E-004	-2.40040E-001	6.94724E-001	3.57730E+000	9	...........
	2	0.04	6.84098E-001	-3.97877E-004	0.00000E+000	-2.72187E-004	-2.40040E-001	6.84299E-001	3.57730E+000	9	...........
	3	0.053333	6.74439E-001	-3.97742E-004	0.00000E+000	-2.68253E-004	-2.40040E-001	6.74644E-001	3.57730E+000	9	...........
	4	0.066667	6.65256E-001	-3.98313E-004	0.00000E+000	-2.64980E-004	-2.40040E-001	6.65467E-001	3.57681E+000	9	...........
	5	0.08	6.56405E-001	-3.98194E-004	0.00000E+000	-2.61376E-004	-2.40040E-001	6.56626E-001	3.57600E+000	9	...........
	6	0.093333	6.47832E-001	-3.99252E-004	0.00000E+000	-2.58648E-004	-2.40040E-001	6.48052E-001	3.57600E+000	9	...........
	7	0.106667	6.39515E-001	-3.99467E-004	0.00000E+000	-2.55465E-004	-2.40040E-001	6.39739E-001	3.57600E+000	9	...........
	8	0.12	6.31377E-001	-3.98634E-004	0.00000E+000	-2.51689E-004	-2.40040E-001	6.31622E-001	3.57600E+000	9	...........
	9	0.133333	6.23338E-001	-3.98921E-004	0.00000E+000	-2.48663E-004	-2.40040E-001	6.23549E-001	3.57600E+000	9	...........
	10	0.146667	6.15466E-001	-3.98764E-004	0.00000E+000	-2.45426E-004	-2.40040E-001	6.15699E-001	3.57600E+000	9	...........
	11	0.16	6.07585E-001	-3.99538E-004	0.00000E+000	-2.42753E-004	-2.40040E-001	6.07832E-001	3.57600E+000	9	...........
	12	0.173333	5.99951E-001	-3.99008E-004	0.00000E+000	-2.39385E-004	-2.40040E-001	6.00208E-001	3.57600E+000	9	...........
	13	0.186667	5.92399E-001	-3.98708E-004	0.00000E+000	-2.36194E-004	-2.40040E-001	5.92613E-001	3.57600E+000	9	...........
	14	0.2	5.84833E-001	-3.98569E-004	0.00000E+000	-2.33096E-004	-2.40040E-001	5.85063E-001	3.57600E+000	9	...........
	15	0.213333	5.77346E-001	-3.98424E-004	0.00000E+000	-2.30028E-004	-2.40040E-001	5.77577E-001	3.57600E+000	9	...........
	16	0.226667	5.69942E-001	-3.98513E-004	0.00000E+000	-2.27130E-004	-2.40040E-001	5.70174E-001	3.57600E+000	9	...........
	17	0.24	5.62574E-001	-3.98071E-004	0.00000E+000	-2.23944E-004	-2.40040E-001	5.62802E-001	3.57600E+000	9	...........
	18	0.253333	5.55200E-001	-3.98534E-004	0.00000E+000	-2.21266E-004	-2.40040E-001	5.55436E-001	3.57600E+000	9	...........
	19	0.266667	5.47981E-001	-3.98987E-004	0.00000E+000	-2.18638E-004	-2.40040E-001	5.48210E-001	3.57600E+000	9	...........
	20	0.28	5.40765E-001	-3.97663E-004	0.00000E+000	-2.15042E-004	-2.40040E-001	5.40974E-001	3.57600E+000	9	...........
	21	0.293333	5.33492E-001	-3.98046E-004	0.00000E+000	-2.12354E-004	-2.40040E-001	5.33701E-001	3.57600E+000	9	...........
	22	0.306667	5.26437E-001	-3.98418E-004	0.00000E+000	-2.09742E-004	-2.40040E-001	5.26632E-001	3.57600E+000	9	...........
	23	0.32	5.19390E-001	-3.98337E-004	0.00000E+000	-2.06892E-004	-2.40040E-001	5.19578E-001	3.57600E+000	9	...........
	24	0.333333	5.12361E-001	-3.98144E-004	0.00000E+000	-2.03993E-004	-2.40040E-001	5.12574E-001	3.57600E+000	9	...........
	25	0.346667	5.05402E-001	-3.99289E-004	0.00000E+000	-2.01801E-004	-2.40040E-001	5.05630E-001	3.57600E+000	9	...........
	26	0.36	4.98437E-001	-3.98727E-004	0.00000E+000	-1.98740E-004	-2.40040E-001	4.98649E-001	3.57600E+000	9	...........
	27	0.373333	4.91474E-001	-3.98864E-004	0.00000E+000	-1.96031E-004	-2.40040E-001	4.91694E-001	3.57600E+000	9	...........
	28	0.386667	4.84703E-001	-3.99645E-004	0.00000E+000	-1.93709E-004	-2.40040E-001	4.84843E-001	3.57600E+000	9	...........
	29	0.4	4.77990E-001	-3.98369E-004	0.00000E+000	-1.90416E-004	-2.40040E-001	4.78089E-001	3.57600E+000	9	...........
	30	0.413333	4.71111E-001	-3.98198E-004	0.00000E+000	-1.87596E-004	-2.40040E-001	4.71213E-001	3.57600E+000	9	...........
	31	0.426667	4.64226E-001	-3.99842E-004	0.00000E+000	-1.85617E-004	-2.40040E-001	4.64318E-001	3.57600E+000	9	...........
	32	0.44	4.57464E-001	-4.00114E-004	0.00000E+000	-1.83038E-004	-2.40040E-001	4.57562E-001	3.57600E+000	9	...........
	33	0.453333	4.50693E-001	-3.98297E-004	0.00000E+000	-1.79510E-004	-2.40040E-001	4.50792E-001	3.57600E+000	9	...........
	34	0.466667	4.44014E-001	-3.98736E-004	0.00000E+000	-1.77045E-004	-2.40040E-001	4.44110E-001	3.57600E+000	9	...........
	35	0.48	4.37322E-001	-3.98079E-004	0.00000E+000	-1.74089E-004	-2.40040E-001	4.37413E-001	3.57600E+000	9	...........
	36	0.493333	4.30706E-001	-3.98478E-004	0.00000E+000	-1.71627E-004	-2.40040E-001	4.30804E-001	3.57600E+000	9	...........
	37	0.506667	4.24126E-001	-3.98805E-004	0.00000E+000	-1.69144E-004	-2.40040E-001	4.24219E-001	3.57600E+000	9	...........
	38	0.52	4.17531E-001	-3.98576E-004	0.00000E+000	-1.66418E-004	-2.40040E-001	4.17625E-001	3.57600E+000	9	...........
	39	0.533333	4.11087E-001	-3.99602E-004	0.00000E+000	-1.64271E-004	-2.40040E-001	4.11175E-001	3.57600E+000	9	...........
	40	0.546667	4.04605E-001	-3.96437E-004	0.00000E+000	-1.60400E-004	-2.40040E-001	4.04692E-001	3.57600E+000	9	...........
	41	0.56	3.98182E-001	-3.99281E-004	0.00000E+000	-1.58987E-004	-2.40040E-001	3.98266E-001	3.57600E+000	9	...........
	42	0.573333	3.91776E-001	-3.98563E-004	0.00000E+000	-1.56148E-004	-2.40040E-001	3.91850E-001	3.57600E+000	9	...........
	43	0.586667	3.85417E-001	-3.99351E-004	0.00000E+000	-1.53917E-004	-2.40040E-001	3.85495E-001	3.57600E+000	9	...........
	44	0.6	3.79129E-001	-3.98736E-004	0.00000E+000	-1.51173E-004	-2.40040E-001	3.79206E-001	3.57600E+000	9	...........
	45	0.613333	3.72886E-001	-3.97837E-004	0.00000E+000	-1.48348E-004	-2.40040E-001	3.72968E-001	3.57600E+000	9	...........
	46	0.626667	3.66658E-001	-3.98787E-004	0.00000E+000	-1.46218E-004	-2.40040E-001	3.66735E-001	3.57600E+000	9	...........
	47	0.64	3.60472E-001	-3.98868E-004	0.00000E+000	-1.43781E-004	-2.40040E-001	3.60546E-001	3.57600E+000	9	...........
	48	0.653333	3.54335E-001	-3.99464E-004	0.00000E+000	-1.41544E-004	-2.40040E-001	3.54413E-001	3.57600E+000	9	...........
	49	0.666667	3.48264E-001	-3.97958E-004	0.00000E+000	-1.38595E-004	-2.40040E-001	3.48338E-001	3.57600E+000	9	...........
	50	0.68	3.42179E-001	-3.98325E-004	0.00000E+000	-1.36298E-004	-2.40040E-001	3.42247E-001	3.57600E+000	9	...........
	51	0.693333	3.36113E-001	-3.98522E-004	0.00000E+000	-1.33948E-004	-2.40040E-001	3.36176E-001	3.57600E+000	9	...........
	52	0.706667	3.30020E-001	-3.98399E-004	0.00000E+000	-1.31480E-004	-2.40040E-001	3.30082E-001	3.57600E+000	9	...........
	53	0.72	3.24098E-001	-3.98933E-004	0.00000E+000	-1.29294E-004	-2.40040E-001	3.24165E-001	3.57600E+000	9	...........
	54	0.733333	3.18161E-001	-3.98768E-004	0.00000E+000	-1.26873E-004	-2.40040E-001	3.18225E-001	3.57600E+000	9	...........
	55	0.746667	3.12274E-001	-3.98393E-004	0.00000E+000	-1.24408E-004	-2.40040E-001	3.12337E-001	3.57600E+000	9	...........
	56	0.76	3.06379E-001	-3.97707E-004	0.00000E+000	-1.21849E-004	-2.40040E-001	3.06441E-001	3.57600E+000	9	...........
	57	0.773333	3.00499E-001	-3.98431E-004	0.00000E+000	-1.19728E-004	-2.40040E-001	3.00558E-001	3.57600E+000	9	...........
	58	0.786667	2.94633E-001	-3.98262E-004	0.00000E+000	-1.17341E-004	-2.40040E-001	2.94692E-001	3.57600E+000	9	...........
	59	0.8	2.88859E-001	-3.97952E-004	0.00000E+000	-1.14952E-004	-2.40040E-001	2.88918E-001	3.57600E+000	9	...........
	60	0.813333	2.83070E-001	-3.99210E-004	0.00000E+000	-1.13005E-004	-2.40040E-001	2.83130E-001	3.57600E+000	9	...........
	61	0.826667	2.77403E-001	-3.98814E-004	0.00000E+000	-1.10632E-004	-2.40040E-001	2.77457E-001	3.57600E+000	9	...........
	62	0.84	2.71768E-001	-3.99337E-004	0.00000E+000	-1.08527E-004	-2.40040E-001	2.71822E-001	3.57600E+000	9	...........
	63	0.853333	2.66164E-001	-3.98802E-004	0.00000E+000	-1.06147E-004	-2.40040E-001	2.66222E-001	3.57600E+000	9	...........
	64	0.866667	2.60599E-001	-3.99788E-004	0.00000E+000	-1.04184E-004	-2.40040E-001	2.60654E-001	3.57600E+000	9	...........
	65	0.88	2.54989E-001	-3.99009E-004	0.00000E+000	-1.01743E-004	-2.40040E-001	2.55039E-001	3.57600E+000	9	...........
	66	0.893333	2.49423E-001	-3.98839E-004	0.00000E+000	-9.94793E-005	-2.40040E-001	2.49470E-001	3.57600E+000	9	...........
	67	0.906667	2.43886E-001	-3.99488E-004	0.00000E+000	-9.74293E-005	-2.40040E-001	2.43928E-001	3.57600E+000	9	...........
	68	0.92	2.38429E-001	-3.99395E-004	0.00000E+000	-9.52273E-005	-2.40040E-001	2.38477E-001	3.57600E+000	9	...........
	69	0.933333	2.33006E-001	-3.98532E-004	0.00000E+000	-9.28602E-005	-2.40040E-001	2.33047E-001	3.57600E+000	9	...........
	70	0.946667	2.27539E-001	-3.99628E-004	0.00000E+000	-9.09308E-005	-2.40040E-001	2.27580E-001	3.57600E+000	9	...........
	71	0.96	2.22120E-001	-3.98631E-004	0.00000E+000	-8.85439E-005	-2.40040E-001	2.22155E-001	3.57600E+000	9	...........
	72	0.97333	2.16773E-001	-3.97987E-004	0.00000E+000	-8.62730E-005	-2.40040E-001	2.16813E-001	3.57600E+000	9	...........
	73	0.98667	2.11479E-001	-3.97840E-004	0.00000E+000	-8.41350E-005	-2.40040E-001	2.11512E-001	3.57600E+000	9	...........
	74	1	2.06169E-001	-3.99138E-004	0.00000E+000	-8.22897E-005	-2.40040E-001	2.06206E-001	3.57600E+000	9	...........
	75	1.01333	2.00833E-001	-3.98486E-004	0.00000E+000	-8.00293E-005	-2.40040E-001	2.00872E-001	3.57600E+000	9	...........
	76	1.02667	1.95538E-001	-3.98885E-004	0.00000E+000	-7.79975E-005	-2.40040E-001	1.95581E-001	3.57600E+000	9	...........
	77	1.04	1.90303E-001	-4.00012E-004	0.00000E+000	-7.61233E-005	-2.40040E-001	1.90342E-001	3.57600E+000	9	...........
	78	1.05333	1.85019E-001	-3.97079E-004	0.00000E+000	-7.34671E-005	-2.40040E-001	1.85055E-001	3.57600E+000	9	...........
	79	1.06667	1.79807E-001	-3.98579E-004	0.00000E+000	-7.16673E-005	-2.40040E-001	1.79849E-001	3.57611E+000	9	...........
	80	1.08	1.74642E-001	-3.99680E-004	0.00000E+000	-6.98011E-005	-2.40040E-001	1.74684E-001	3.57630E+000	9	...........
	81	1.09333	1.69496E-001	-3.99490E-004	0.00000E+000	-6.77119E-005	-2.40040E-001	1.69534E-001	3.57630E+000	9	...........
	82	1.10667	1.64395E-001	-3.98932E-004	0.00000E+000	-6.55826E-005	-2.40040E-001	1.64429E-001	3.57630E+000	9	...........
	83	1.12	1.59350E-001	-3.97771E-004	0.00000E+000	-6.33846E-005	-2.40040E-001	1.59375E-001	3.57630E+000	9	...........
	84	1.13333	1.54345E-001	-3.98701E-004	0.00000E+000	-6.15374E-005	-2.40040E-001	1.54372E-001	3.57630E+000	9	...........
	85	1.14667	1.49368E-001	-3.99344E-004	0.00000E+000	-5.96493E-005	-2.40040E-001	1.49394E-001	3.57630E+000	9	...........
	86	1.16	1.44331E-001	-3.98736E-004	0.00000E+000	-5.75500E-005	-2.40040E-001	1.44352E-001	3.57630E+000	9	...........
	87	1.17333	1.39346E-001	-3.98718E-004	0.00000E+000	-5.55597E-005	-2.40040E-001	1.39373E-001	3.57630E+000	9	...........
	88	1.18667	1.34440E-001	-3.99440E-004	0.00000E+000	-5.37007E-005	-2.40040E-001	1.34460E-001	3.57630E+000	9	...........
	89	1.2	1.29511E-001	-3.98243E-004	0.00000E+000	-5.15767E-005	-2.40040E-001	1.29537E-001	3.57630E+000	9	...........
	90	1.21333	1.24670E-001	-3.98413E-004	0.00000E+000	-4.96703E-005	-2.40040E-001	1.24698E-001	3.57630E+000	9	...........
	91	1.22667	1.19841E-001	-4.00830E-004	0.00000E+000	-4.80358E-005	-2.40040E-001	1.19866E-001	3.57630E+000	9	...........
	92	1.24	1.15050E-001	-3.97414E-004	0.00000E+000	-4.57225E-005	-2.40040E-001	1.15072E-001	3.57630E+000	9	...........
	93	1.25333	1.10281E-001	-3.99216E-004	0.00000E+000	-4.40259E-005	-2.40040E-001	1.10308E-001	3.57630E+000	9	...........
	94	1.26667	1.05464E-001	-3.99135E-004	0.00000E+000	-4.20943E-005	-2.40040E-001	1.05484E-001	3.57630E+000	9	...........
	95	1.28	1.00640E-001	-3.99121E-004	0.00000E+000	-4.01674E-005	-2.40040E-001	1.00663E-001	3.57630E+000	9	...........
	96	1.29333	9.59577E-002	-3.98572E-004	0.00000E+000	-3.82460E-005	-2.40040E-001	9.59767E-002	3.57630E+000	9	...........
	97	1.30667	9.12736E-002	-3.98971E-004	0.00000E+000	-3.64155E-005	-2.40040E-001	9.12895E-002	3.57630E+000	9	...........
	98	1.32	8.65577E-002	-3.98578E-004	0.00000E+000	-3.45000E-005	-2.40040E-001	8.65774E-002	3.57630E+000	9	...........
	99	1.33333	8.18821E-002	-3.98550E-004	0.00000E+000	-3.26341E-005	-2.40040E-001	8.19019E-002	3.57630E+000	9	...........
	100	1.34667	7.72256E-002	-3.99926E-004	0.00000E+000	-3.08846E-005	-2.40040E-001	7.72415E-002	3.57630E+000	9	...........
	101	1.36	7.26590E-002	-3.97540E-004	0.00000E+000	-2.88849E-005	-2.40040E-001	7.26680E-002	3.57630E+000	9	...........
	102	1.37333	6.80629E-002	-3.98938E-004	0.00000E+000	-2.71529E-005	-2.40040E-001	6.80704E-002	3.57630E+000	9	...........
	103	1.38667	6.34894E-002	-3.98585E-004	0.00000E+000	-2.53059E-005	-2.40040E-001	6.35018E-002	3.57630E+000	9	...........
	104	1.4	5.89325E-002	-3.99588E-004	0.00000E+000	-2.35487E-005	-2.40040E-001	5.89462E-002	3.57630E+000	9	...........
	105	1.41333	5.43444E-002	-3.97681E-004	0.00000E+000	-2.16118E-005	-2.40040E-001	5.43567E-002	3.57630E+000	9	...........
	106	1.42667	4.99340E-002	-3.98558E-004	0.00000E+000	-1.99016E-005	-2.40040E-001	4.99361E-002	3.57630E+000	9	...........
	107	1.44	4.55123E-002	-3.99785E-004	0.00000E+000	-1.81951E-005	-2.40040E-001	4.55230E-002	3.57630E+000	9	...........
	108	1.45333	4.11264E-002	-3.99479E-004	0.00000E+000	-1.64291E-005	-2.40040E-001	4.11293E-002	3.57630E+000	9	...........
	109	1.46667	3.66795E-002	-3.98248E-004	0.00000E+000	-1.46075E-005	-2.40040E-001	3.66832E-002	3.57630E+000	9	...........
	110	1.48	3.22394E-002	-3.98209E-004	0.00000E+000	-1.28380E-005	-2.40040E-001	3.22414E-002	3.57630E+000	9	...........
	111	1.49333	2.77822E-002	-3.98073E-004	0.00000E+000	-1.10594E-005	-2.40040E-001	2.77792E-002	3.57630E+000	9	...........
	112	1.50667	2.34056E-002	-4.00491E-004	0.00000E+000	-9.37373E-006	-2.40040E-001	2.34018E-002	3.57630E+000	9	...........
	113	1.52	1.91394E-002	-3.98273E-004	0.00000E+000	-7.62270E-006	-2.40040E-001	1.91318E-002	3.57630E+000	9	...........
	114	1.53333	1.48315E-002	-3.99056E-004	0.00000E+000	-5.91860E-006	-2.40040E-001	1.48266E-002	3.57630E+000	9	...........
	115	1.54667	1.04793E-002	-3.98984E-004	0.00000E+000	-4.18106E-006	-2.40040E-001	1.04687E-002	3.57630E+000	9	...........
	116	1.56	6.20130E-003	-3.97944E-004	0.00000E+000	-2.46777E-006	-2.40040E-001	6.18815E-003	3.57630E+000	9	...........
	117	1.57333	1.94451E-003	-3.98835E-004	0.00000E+000	-7.75539E-007	-2.40040E-001	1.93087E-003	3.57630E+000	9	...........
	118	1.575	-4.63445E-004	-4.00482E-004	0.00000E+000	1.85601E-007	-2.40040E-001	-4.82523E-004	3.57630E+000	9	...........
STARTTIMEOFFSET	QUANT	1064.582	Start Time Offset (s)
