EXPLAIN
TAG	PWR800_DISCHARGE
TITLE	LABEL	PWR Cyclic Charge Discharge (Cell) - Discharge Step	Test &Identifier
DATE	LABEL	12-7-2017	Date
TIME	LABEL	15:16:39	Time
NOTES	NOTES	3	&Notes...
	supercap test cell
	0.4mg
	6M KOH
PSTAT	PSTAT	IFC5000-01520	Potentiostat
CAPACITY	QUANT	1.00000E-003	Capacity (A-hr)
CELLTYPE	SELECTOR	1	&Cell Type
WORKINGCONNECTION	SELECTOR	0	&Working Lead
MAXDISCHARGETIME	VARIABLEANDUNITS	1.00000E+002	s	1.00000E+002	second(s)	Max &Discharge Time
DISCHARGEMODE	MULTIPARAM	0	4.00000E-004	&Discharge Mode	Constant Current	Amp(s)
SAMPLETIME	QUANT	1.00000E-002	Sa&mple Period (s)
DISCHARGESTOPAT1	MULTIPARAM	3	0.00000E+000	Discharge Stop At &1	Voltage < Limit	V
DISCHARGESTOPAT2	MULTIPARAM	0	0.00000E+000	Discharge Stop At &2	None	N/A
AESBHCSELECTOR	TOGGLE	F	Save Both Half Cells
IRCOMP	TOGGLE	F	IR &Measure
EOC	QUANT	0	Open Circuit (V)
SEQUENCER	TOGGLE	TRUE	Run as Sequence
PSTATMODEL	IQUANT	53	Pstat Model
PSTATSECTION	LABEL	IFC5000-01520	Pstat Section
PSTATSERIALNO	LABEL	01520	Pstat Serial Number
CTRLMODE	IQUANT	0	Control Mode
ELECTROMETER	IQUANT	1	RE=0 or CS=1
IESTAB	IQUANT	0	I/E Stability
CASPEED	IQUANT	4	Control Amp Speed
CONVENTION	IQUANT	1	Current Convention
ICHRANGE	IQUANT	2	Ich Range
ICHRANGEMODE	TOGGLE	T	Ich Auto Range
ICHOFFSETENABLE	TOGGLE	F	Ich Offset Enable
ICHOFFSET	QUANT	0	Ich Offset (V)
ICHFILTER	IQUANT	1	Ich Filter
VCHRANGE	IQUANT	2	Vch Range
VCHRANGEMODE	TOGGLE	T	Vch Auto Range
VCHOFFSETENABLE	TOGGLE	F	Vch Offset Enable
VCHOFFSET	QUANT	0	Vch Offset (V)
VCHFILTER	IQUANT	1	Vch Filter
IERANGELOWERLIMIT	IQUANT	9	I/E Range Lower Limit
IERANGEMODE	TOGGLE	F	I/E AutoRange
IERANGE	IQUANT	9	I/E Range
ACHSELECT	IQUANT	1	Ach Select
ACHRANGE	IQUANT	2	Ach Range
ACHOFFSETENABLE	TOGGLE	F	Ach Offset Enable
ACHOFFSET	QUANT	0	Ach Offset (V)
ACHFILTER	IQUANT	1	Ach Filter
CABLEID	IQUANT	14	Cable ID
DCCALDATE	LABEL	5-7-2017	DC Calibration Date
ACCALDATE	LABEL	12/3/2015	AC Calibration Date
FRAMEWORKVERSION	QUANT	7.01	Framework Version
INSTRUMENTVERSION	LABEL	4.00	Instrument Version
CURVE	TABLE	103
	Pt	T	Vf	Im	Vu	Pwr	Sig	Ach	Temp	IERange	Over
	#	s	V	A	V	W	V	V	deg C	#	bits
	0	0.013333	6.84127E-001	-3.99300E-004	0.00000E+000	-2.73172E-004	-2.40040E-001	6.84367E-001	3.57660E+000	9	...........
	1	0.026667	6.70552E-001	-3.98921E-004	0.00000E+000	-2.67497E-004	-2.40040E-001	6.70772E-001	3.57660E+000	9	...........
	2	0.04	6.58606E-001	-3.97946E-004	0.00000E+000	-2.62089E-004	-2.40040E-001	6.58843E-001	3.57660E+000	9	...........
	3	0.053333	6.47770E-001	-3.98806E-004	0.00000E+000	-2.58335E-004	-2.40040E-001	6.47993E-001	3.57660E+000	9	...........
	4	0.066667	6.37653E-001	-3.99289E-004	0.00000E+000	-2.54608E-004	-2.40040E-001	6.37899E-001	3.57660E+000	9	...........
	5	0.08	6.27984E-001	-3.99189E-004	0.00000E+000	-2.50684E-004	-2.40040E-001	6.28223E-001	3.57660E+000	9	...........
	6	0.093333	6.18683E-001	-3.99121E-004	0.00000E+000	-2.46929E-004	-2.40040E-001	6.18906E-001	3.57660E+000	9	...........
	7	0.106667	6.09447E-001	-3.98812E-004	0.00000E+000	-2.43055E-004	-2.40040E-001	6.09723E-001	3.57660E+000	9	...........
	8	0.12	6.00532E-001	-3.97816E-004	0.00000E+000	-2.38902E-004	-2.40040E-001	6.00781E-001	3.57660E+000	9	...........
	9	0.133333	5.91806E-001	-3.98905E-004	0.00000E+000	-2.36075E-004	-2.40040E-001	5.92042E-001	3.57660E+000	9	...........
	10	0.146667	5.83174E-001	-3.98205E-004	0.00000E+000	-2.32223E-004	-2.40040E-001	5.83400E-001	3.57660E+000	9	...........
	11	0.16	5.74624E-001	-3.99201E-004	0.00000E+000	-2.29390E-004	-2.40040E-001	5.74835E-001	3.57660E+000	9	...........
	12	0.173333	5.66189E-001	-3.98043E-004	0.00000E+000	-2.25367E-004	-2.40040E-001	5.66406E-001	3.57660E+000	9	...........
	13	0.186667	5.57874E-001	-3.98379E-004	0.00000E+000	-2.22245E-004	-2.40040E-001	5.58107E-001	3.57660E+000	9	...........
	14	0.2	5.49720E-001	-3.99019E-004	0.00000E+000	-2.19348E-004	-2.40040E-001	5.49946E-001	3.57660E+000	9	...........
	15	0.213333	5.41597E-001	-3.98980E-004	0.00000E+000	-2.16086E-004	-2.40040E-001	5.41820E-001	3.57660E+000	9	...........
	16	0.226667	5.33474E-001	-4.00227E-004	0.00000E+000	-2.13511E-004	-2.40040E-001	5.33675E-001	3.57660E+000	9	...........
	17	0.24	5.25398E-001	-3.98186E-004	0.00000E+000	-2.09206E-004	-2.40040E-001	5.25605E-001	3.57660E+000	9	...........
	18	0.253333	5.17453E-001	-3.98833E-004	0.00000E+000	-2.06377E-004	-2.40040E-001	5.17639E-001	3.57660E+000	9	...........
	19	0.266667	5.09513E-001	-3.99805E-004	0.00000E+000	-2.03706E-004	-2.40040E-001	5.09715E-001	3.57660E+000	9	...........
	20	0.28	5.01636E-001	-3.98460E-004	0.00000E+000	-1.99882E-004	-2.40040E-001	5.01864E-001	3.57660E+000	9	...........
	21	0.293333	4.93851E-001	-4.00683E-004	0.00000E+000	-1.97878E-004	-2.40040E-001	4.94058E-001	3.57660E+000	9	...........
	22	0.306667	4.86197E-001	-3.96931E-004	0.00000E+000	-1.92986E-004	-2.40040E-001	4.86375E-001	3.57660E+000	9	...........
	23	0.32	4.78666E-001	-3.98951E-004	0.00000E+000	-1.90964E-004	-2.40040E-001	4.78765E-001	3.57660E+000	9	...........
	24	0.333333	4.70979E-001	-4.00592E-004	0.00000E+000	-1.88670E-004	-2.40040E-001	4.71076E-001	3.57660E+000	9	...........
	25	0.346667	4.63314E-001	-3.98743E-004	0.00000E+000	-1.84743E-004	-2.40040E-001	4.63417E-001	3.57660E+000	9	...........
	26	0.36	4.55823E-001	-3.98779E-004	0.00000E+000	-1.81773E-004	-2.40040E-001	4.55922E-001	3.57660E+000	9	...........
	27	0.373333	4.48279E-001	-3.99336E-004	0.00000E+000	-1.79014E-004	-2.40040E-001	4.48376E-001	3.57660E+000	9	...........
	28	0.386667	4.40699E-001	-3.98774E-004	0.00000E+000	-1.75739E-004	-2.40040E-001	4.40788E-001	3.57660E+000	9	...........
	29	0.4	4.33268E-001	-3.98322E-004	0.00000E+000	-1.72580E-004	-2.40040E-001	4.33364E-001	3.57660E+000	9	...........
	30	0.413333	4.25791E-001	-3.98685E-004	0.00000E+000	-1.69757E-004	-2.40040E-001	4.25883E-001	3.57660E+000	9	...........
	31	0.426667	4.18410E-001	-3.99656E-004	0.00000E+000	-1.67220E-004	-2.40040E-001	4.18500E-001	3.57660E+000	9	...........
	32	0.44	4.11130E-001	-3.97892E-004	0.00000E+000	-1.63586E-004	-2.40040E-001	4.11216E-001	3.57660E+000	9	...........
	33	0.453333	4.03821E-001	-3.98285E-004	0.00000E+000	-1.60836E-004	-2.40040E-001	4.03902E-001	3.57660E+000	9	...........
	34	0.466667	3.96534E-001	-3.99666E-004	0.00000E+000	-1.58481E-004	-2.40040E-001	3.96609E-001	3.57660E+000	9	...........
	35	0.48	3.89343E-001	-3.98925E-004	0.00000E+000	-1.55319E-004	-2.40040E-001	3.89416E-001	3.57660E+000	9	...........
	36	0.493333	3.82261E-001	-3.98835E-004	0.00000E+000	-1.52459E-004	-2.40040E-001	3.82331E-001	3.57660E+000	9	...........
	37	0.506667	3.75131E-001	-3.99557E-004	0.00000E+000	-1.49886E-004	-2.40040E-001	3.75203E-001	3.57660E+000	9	...........
	38	0.52	3.68130E-001	-3.99128E-004	0.00000E+000	-1.46931E-004	-2.40040E-001	3.68205E-001	3.57660E+000	9	...........
	39	0.533333	3.61109E-001	-3.99190E-004	0.00000E+000	-1.44151E-004	-2.40040E-001	3.61175E-001	3.57660E+000	9	...........
	40	0.546667	3.54131E-001	-3.99396E-004	0.00000E+000	-1.41438E-004	-2.40040E-001	3.54200E-001	3.57660E+000	9	...........
	41	0.56	3.47204E-001	-3.98371E-004	0.00000E+000	-1.38316E-004	-2.40040E-001	3.47279E-001	3.57660E+000	9	...........
	42	0.573333	3.40326E-001	-3.99117E-004	0.00000E+000	-1.35830E-004	-2.40040E-001	3.40392E-001	3.57660E+000	9	...........
	43	0.586667	3.33457E-001	-3.99561E-004	0.00000E+000	-1.33236E-004	-2.40040E-001	3.33521E-001	3.57660E+000	9	...........
	44	0.6	3.26650E-001	-3.98877E-004	0.00000E+000	-1.30293E-004	-2.40040E-001	3.26707E-001	3.57660E+000	9	...........
	45	0.613333	3.19955E-001	-3.99756E-004	0.00000E+000	-1.27904E-004	-2.40040E-001	3.20018E-001	3.57660E+000	9	...........
	46	0.626667	3.13216E-001	-3.99804E-004	0.00000E+000	-1.25225E-004	-2.40040E-001	3.13273E-001	3.57660E+000	9	...........
	47	0.64	3.06551E-001	-3.99205E-004	0.00000E+000	-1.22377E-004	-2.40040E-001	3.06607E-001	3.57660E+000	9	...........
	48	0.653333	2.99877E-001	-3.98458E-004	0.00000E+000	-1.19489E-004	-2.40040E-001	2.99933E-001	3.57660E+000	9	...........
	49	0.666667	2.93311E-001	-3.98579E-004	0.00000E+000	-1.16908E-004	-2.40040E-001	2.93365E-001	3.57660E+000	9	...........
	50	0.68	2.86791E-001	-3.97777E-004	0.00000E+000	-1.14079E-004	-2.40040E-001	2.86843E-001	3.57660E+000	9	...........
	51	0.693333	2.80233E-001	-3.98563E-004	0.00000E+000	-1.11690E-004	-2.40040E-001	2.80289E-001	3.57750E+000	9	...........
	52	0.706667	2.73835E-001	-3.97790E-004	0.00000E+000	-1.08929E-004	-2.40040E-001	2.73889E-001	3.57780E+000	9	...........
	53	0.72	2.67485E-001	-3.98626E-004	0.00000E+000	-1.06626E-004	-2.40040E-001	2.67539E-001	3.57780E+000	9	...........
	54	0.733333	2.61032E-001	-3.98720E-004	0.00000E+000	-1.04079E-004	-2.40040E-001	2.61083E-001	3.57780E+000	9	...........
	55	0.746667	2.54700E-001	-3.98414E-004	0.00000E+000	-1.01476E-004	-2.40040E-001	2.54754E-001	3.57780E+000	9	...........
	56	0.76	2.48368E-001	-3.98699E-004	0.00000E+000	-9.90240E-005	-2.40040E-001	2.48417E-001	3.57780E+000	9	...........
	57	0.773333	2.42146E-001	-3.98399E-004	0.00000E+000	-9.64708E-005	-2.40040E-001	2.42188E-001	3.57780E+000	9	...........
	58	0.786667	2.35985E-001	-3.99198E-004	0.00000E+000	-9.42049E-005	-2.40040E-001	2.36024E-001	3.57780E+000	9	...........
	59	0.8	2.29876E-001	-3.98106E-004	0.00000E+000	-9.15151E-005	-2.40040E-001	2.29916E-001	3.57780E+000	9	...........
	60	0.813333	2.23779E-001	-3.98378E-004	0.00000E+000	-8.91485E-005	-2.40040E-001	2.23818E-001	3.57780E+000	9	...........
	61	0.826667	2.17729E-001	-3.99502E-004	0.00000E+000	-8.69834E-005	-2.40040E-001	2.17770E-001	3.57780E+000	9	...........
	62	0.84	2.11703E-001	-3.99667E-004	0.00000E+000	-8.46106E-005	-2.40040E-001	2.11737E-001	3.57780E+000	9	...........
	63	0.853333	2.05729E-001	-3.99178E-004	0.00000E+000	-8.21224E-005	-2.40040E-001	2.05761E-001	3.57780E+000	9	...........
	64	0.866667	1.99838E-001	-3.98479E-004	0.00000E+000	-7.96314E-005	-2.40040E-001	1.99876E-001	3.57780E+000	9	...........
	65	0.88	1.93905E-001	-3.98457E-004	0.00000E+000	-7.72628E-005	-2.40040E-001	1.93945E-001	3.57780E+000	9	...........
	66	0.893333	1.88007E-001	-3.98427E-004	0.00000E+000	-7.49072E-005	-2.40040E-001	1.88038E-001	3.57780E+000	9	...........
	67	0.906667	1.82176E-001	-3.98848E-004	0.00000E+000	-7.26604E-005	-2.40040E-001	1.82206E-001	3.57780E+000	9	...........
	68	0.92	1.76393E-001	-3.98868E-004	0.00000E+000	-7.03575E-005	-2.40040E-001	1.76425E-001	3.57780E+000	9	...........
	69	0.933333	1.70680E-001	-3.98158E-004	0.00000E+000	-6.79575E-005	-2.40040E-001	1.70715E-001	3.57780E+000	9	...........
	70	0.946667	1.64979E-001	-3.97894E-004	0.00000E+000	-6.56442E-005	-2.40040E-001	1.65005E-001	3.57780E+000	9	...........
	71	0.96	1.59344E-001	-3.97947E-004	0.00000E+000	-6.34103E-005	-2.40040E-001	1.59373E-001	3.57780E+000	9	...........
	72	0.97333	1.53723E-001	-3.98700E-004	0.00000E+000	-6.12894E-005	-2.40040E-001	1.53748E-001	3.57780E+000	9	...........
	73	0.98667	1.48110E-001	-3.98377E-004	0.00000E+000	-5.90037E-005	-2.40040E-001	1.48129E-001	3.57780E+000	9	...........
	74	1	1.42542E-001	-3.97254E-004	0.00000E+000	-5.66254E-005	-2.40040E-001	1.42566E-001	3.57780E+000	9	...........
	75	1.01333	1.37026E-001	-3.99964E-004	0.00000E+000	-5.48053E-005	-2.40040E-001	1.37042E-001	3.57780E+000	9	...........
	76	1.02667	1.31589E-001	-3.98769E-004	0.00000E+000	-5.24734E-005	-2.40040E-001	1.31610E-001	3.57780E+000	9	...........
	77	1.04	1.26160E-001	-3.99644E-004	0.00000E+000	-5.04193E-005	-2.40040E-001	1.26180E-001	3.57780E+000	9	...........
	78	1.05333	1.20758E-001	-4.00060E-004	0.00000E+000	-4.83105E-005	-2.40040E-001	1.20786E-001	3.57780E+000	9	...........
	79	1.06667	1.15356E-001	-3.99526E-004	0.00000E+000	-4.60877E-005	-2.40040E-001	1.15373E-001	3.57780E+000	9	...........
	80	1.08	1.10045E-001	-3.99456E-004	0.00000E+000	-4.39580E-005	-2.40040E-001	1.10070E-001	3.57780E+000	9	...........
	81	1.09333	1.04803E-001	-3.99247E-004	0.00000E+000	-4.18422E-005	-2.40040E-001	1.04820E-001	3.57780E+000	9	...........
	82	1.10667	9.95308E-002	-3.98108E-004	0.00000E+000	-3.96240E-005	-2.40040E-001	9.95506E-002	3.57780E+000	9	...........
	83	1.12	9.42991E-002	-3.98619E-004	0.00000E+000	-3.75894E-005	-2.40040E-001	9.43134E-002	3.57780E+000	9	...........
	84	1.13333	8.90961E-002	-3.97413E-004	0.00000E+000	-3.54080E-005	-2.40040E-001	8.91135E-002	3.57780E+000	9	...........
	85	1.14667	8.38754E-002	-3.99048E-004	0.00000E+000	-3.34703E-005	-2.40040E-001	8.38924E-002	3.57780E+000	9	...........
	86	1.16	7.87690E-002	-3.97932E-004	0.00000E+000	-3.13447E-005	-2.40040E-001	7.87768E-002	3.57780E+000	9	...........
	87	1.17333	7.37323E-002	-3.98778E-004	0.00000E+000	-2.94028E-005	-2.40040E-001	7.37365E-002	3.57780E+000	9	...........
	88	1.18667	6.87318E-002	-3.97516E-004	0.00000E+000	-2.73220E-005	-2.40040E-001	6.87359E-002	3.57780E+000	9	...........
	89	1.2	6.36849E-002	-3.99065E-004	0.00000E+000	-2.54144E-005	-2.40040E-001	6.36892E-002	3.57780E+000	9	...........
	90	1.21333	5.87181E-002	-3.98555E-004	0.00000E+000	-2.34024E-005	-2.40040E-001	5.87266E-002	3.57780E+000	9	...........
	91	1.22667	5.37693E-002	-3.97548E-004	0.00000E+000	-2.13759E-005	-2.40040E-001	5.37750E-002	3.57780E+000	9	...........
	92	1.24	4.87950E-002	-3.99405E-004	0.00000E+000	-1.94890E-005	-2.40040E-001	4.88046E-002	3.57780E+000	9	...........
	93	1.25333	4.39454E-002	-3.98410E-004	0.00000E+000	-1.75083E-005	-2.40040E-001	4.39489E-002	3.57780E+000	9	...........
	94	1.26667	3.91248E-002	-3.97836E-004	0.00000E+000	-1.55653E-005	-2.40040E-001	3.91253E-002	3.57780E+000	9	...........
	95	1.28	3.42758E-002	-3.99198E-004	0.00000E+000	-1.36828E-005	-2.40040E-001	3.42764E-002	3.57780E+000	9	...........
	96	1.29333	2.95919E-002	-3.99620E-004	0.00000E+000	-1.18255E-005	-2.40040E-001	2.95921E-002	3.57780E+000	9	...........
	97	1.30667	2.48714E-002	-3.99332E-004	0.00000E+000	-9.93196E-006	-2.40040E-001	2.48653E-002	3.57780E+000	9	...........
	98	1.32	2.01800E-002	-3.99330E-004	0.00000E+000	-8.05848E-006	-2.40040E-001	2.01718E-002	3.57780E+000	9	...........
	99	1.33333	1.55178E-002	-3.98792E-004	0.00000E+000	-6.18835E-006	-2.40040E-001	1.55069E-002	3.57780E+000	9	...........
	100	1.34667	1.08312E-002	-3.98158E-004	0.00000E+000	-4.31254E-006	-2.40040E-001	1.08181E-002	3.57780E+000	9	...........
	101	1.36	6.12223E-003	-3.99401E-004	0.00000E+000	-2.44522E-006	-2.40040E-001	6.10701E-003	3.57780E+000	9	...........
	102	1.37333	1.48943E-003	-3.98780E-004	0.00000E+000	-5.93956E-007	-2.40040E-001	1.47340E-003	3.57780E+000	9	...........
STARTTIMEOFFSET	QUANT	2749.792	Start Time Offset (s)
