EXPLAIN
TAG	PWR800_DISCHARGE
TITLE	LABEL	PWR Cyclic Charge Discharge (Cell) - Discharge Step	Test &Identifier
DATE	LABEL	12-7-2017	Date
TIME	LABEL	14:25:22	Time
NOTES	NOTES	3	&Notes...
	supercap test cell
	0.4mg
	6M KOH
PSTAT	PSTAT	IFC5000-01520	Potentiostat
CAPACITY	QUANT	1.00000E-003	Capacity (A-hr)
CELLTYPE	SELECTOR	1	&Cell Type
WORKINGCONNECTION	SELECTOR	0	&Working Lead
MAXDISCHARGETIME	VARIABLEANDUNITS	1.00000E+002	s	1.00000E+002	second(s)	Max &Discharge Time
DISCHARGEMODE	MULTIPARAM	0	4.00000E-004	&Discharge Mode	Constant Current	Amp(s)
SAMPLETIME	QUANT	1.00000E-002	Sa&mple Period (s)
DISCHARGESTOPAT1	MULTIPARAM	3	0.00000E+000	Discharge Stop At &1	Voltage < Limit	V
DISCHARGESTOPAT2	MULTIPARAM	0	0.00000E+000	Discharge Stop At &2	None	N/A
AESBHCSELECTOR	TOGGLE	F	Save Both Half Cells
IRCOMP	TOGGLE	F	IR &Measure
EOC	QUANT	0	Open Circuit (V)
SEQUENCER	TOGGLE	TRUE	Run as Sequence
PSTATMODEL	IQUANT	53	Pstat Model
PSTATSECTION	LABEL	IFC5000-01520	Pstat Section
PSTATSERIALNO	LABEL	01520	Pstat Serial Number
CTRLMODE	IQUANT	0	Control Mode
ELECTROMETER	IQUANT	1	RE=0 or CS=1
IESTAB	IQUANT	0	I/E Stability
CASPEED	IQUANT	4	Control Amp Speed
CONVENTION	IQUANT	1	Current Convention
ICHRANGE	IQUANT	2	Ich Range
ICHRANGEMODE	TOGGLE	T	Ich Auto Range
ICHOFFSETENABLE	TOGGLE	F	Ich Offset Enable
ICHOFFSET	QUANT	0	Ich Offset (V)
ICHFILTER	IQUANT	1	Ich Filter
VCHRANGE	IQUANT	2	Vch Range
VCHRANGEMODE	TOGGLE	T	Vch Auto Range
VCHOFFSETENABLE	TOGGLE	F	Vch Offset Enable
VCHOFFSET	QUANT	0	Vch Offset (V)
VCHFILTER	IQUANT	1	Vch Filter
IERANGELOWERLIMIT	IQUANT	9	I/E Range Lower Limit
IERANGEMODE	TOGGLE	F	I/E AutoRange
IERANGE	IQUANT	9	I/E Range
ACHSELECT	IQUANT	1	Ach Select
ACHRANGE	IQUANT	2	Ach Range
ACHOFFSETENABLE	TOGGLE	F	Ach Offset Enable
ACHOFFSET	QUANT	0	Ach Offset (V)
ACHFILTER	IQUANT	1	Ach Filter
CABLEID	IQUANT	14	Cable ID
DCCALDATE	LABEL	5-7-2017	DC Calibration Date
ACCALDATE	LABEL	12/3/2015	AC Calibration Date
FRAMEWORKVERSION	QUANT	7.01	Framework Version
INSTRUMENTVERSION	LABEL	4.00	Instrument Version
CURVE	TABLE	131
	Pt	T	Vf	Im	Vu	Pwr	Sig	Ach	Temp	IERange	Over
	#	s	V	A	V	W	V	V	deg C	#	bits
	0	0.013333	7.20979E-001	-3.99103E-004	0.00000E+000	-2.87745E-004	-2.40040E-001	7.21228E-001	3.57610E+000	9	...........
	1	0.026667	7.10051E-001	-3.97672E-004	0.00000E+000	-2.82367E-004	-2.40040E-001	7.10316E-001	3.57610E+000	9	...........
	2	0.04	7.00397E-001	-3.97983E-004	0.00000E+000	-2.78746E-004	-2.40040E-001	7.00640E-001	3.57610E+000	9	...........
	3	0.053333	6.91402E-001	-3.99057E-004	0.00000E+000	-2.75909E-004	-2.40040E-001	6.91657E-001	3.57610E+000	9	...........
	4	0.066667	6.82975E-001	-3.97942E-004	0.00000E+000	-2.71785E-004	-2.40040E-001	6.83217E-001	3.57610E+000	9	...........
	5	0.08	6.74841E-001	-3.98904E-004	0.00000E+000	-2.69197E-004	-2.40040E-001	6.75090E-001	3.57610E+000	9	...........
	6	0.093333	6.66857E-001	-3.98218E-004	0.00000E+000	-2.65554E-004	-2.40040E-001	6.67083E-001	3.57610E+000	9	...........
	7	0.106667	6.59063E-001	-3.99331E-004	0.00000E+000	-2.63184E-004	-2.40040E-001	6.59288E-001	3.57610E+000	9	...........
	8	0.12	6.51473E-001	-3.98939E-004	0.00000E+000	-2.59898E-004	-2.40040E-001	6.51697E-001	3.57610E+000	9	...........
	9	0.133333	6.44014E-001	-3.99164E-004	0.00000E+000	-2.57067E-004	-2.40040E-001	6.44243E-001	3.57610E+000	9	...........
	10	0.146667	6.36623E-001	-3.97964E-004	0.00000E+000	-2.53353E-004	-2.40040E-001	6.36828E-001	3.57610E+000	9	...........
	11	0.16	6.29432E-001	-3.99467E-004	0.00000E+000	-2.51437E-004	-2.40040E-001	6.29634E-001	3.57610E+000	9	...........
	12	0.173333	6.22365E-001	-3.98297E-004	0.00000E+000	-2.47886E-004	-2.40040E-001	6.22541E-001	3.57610E+000	9	...........
	13	0.186667	6.15281E-001	-3.98655E-004	0.00000E+000	-2.45285E-004	-2.40040E-001	6.15479E-001	3.57610E+000	9	...........
	14	0.2	6.08275E-001	-3.98081E-004	0.00000E+000	-2.42143E-004	-2.40040E-001	6.08505E-001	3.57610E+000	9	...........
	15	0.213333	6.01309E-001	-3.98394E-004	0.00000E+000	-2.39558E-004	-2.40040E-001	6.01542E-001	3.57610E+000	9	...........
	16	0.226667	5.94475E-001	-3.98968E-004	0.00000E+000	-2.37176E-004	-2.40040E-001	5.94695E-001	3.57602E+000	9	...........
	17	0.24	5.87655E-001	-3.97577E-004	0.00000E+000	-2.33638E-004	-2.40040E-001	5.87906E-001	3.57580E+000	9	...........
	18	0.253333	5.80896E-001	-3.99638E-004	0.00000E+000	-2.32148E-004	-2.40040E-001	5.81115E-001	3.57580E+000	9	...........
	19	0.266667	5.74166E-001	-3.98846E-004	0.00000E+000	-2.29004E-004	-2.40040E-001	5.74387E-001	3.57580E+000	9	...........
	20	0.28	5.67404E-001	-3.98831E-004	0.00000E+000	-2.26298E-004	-2.40040E-001	5.67631E-001	3.57580E+000	9	...........
	21	0.293333	5.60646E-001	-3.98995E-004	0.00000E+000	-2.23695E-004	-2.40040E-001	5.60872E-001	3.57580E+000	9	...........
	22	0.306667	5.54029E-001	-3.99994E-004	0.00000E+000	-2.21608E-004	-2.40040E-001	5.54250E-001	3.57580E+000	9	...........
	23	0.32	5.47465E-001	-3.98851E-004	0.00000E+000	-2.18357E-004	-2.40040E-001	5.47680E-001	3.57580E+000	9	...........
	24	0.333333	5.40935E-001	-3.99372E-004	0.00000E+000	-2.16034E-004	-2.40040E-001	5.41154E-001	3.57580E+000	9	...........
	25	0.346667	5.34456E-001	-3.97990E-004	0.00000E+000	-2.12709E-004	-2.40040E-001	5.34666E-001	3.57580E+000	9	...........
	26	0.36	5.28043E-001	-3.98022E-004	0.00000E+000	-2.10173E-004	-2.40040E-001	5.28226E-001	3.57580E+000	9	...........
	27	0.373333	5.21504E-001	-3.98649E-004	0.00000E+000	-2.07897E-004	-2.40040E-001	5.21712E-001	3.57580E+000	9	...........
	28	0.386667	5.15064E-001	-3.98483E-004	0.00000E+000	-2.05244E-004	-2.40040E-001	5.15267E-001	3.57580E+000	9	...........
	29	0.4	5.08696E-001	-3.98739E-004	0.00000E+000	-2.02837E-004	-2.40040E-001	5.08910E-001	3.57580E+000	9	...........
	30	0.413333	5.02307E-001	-3.98259E-004	0.00000E+000	-2.00048E-004	-2.40040E-001	5.02500E-001	3.57580E+000	9	...........
	31	0.426667	4.96080E-001	-3.98114E-004	0.00000E+000	-1.97496E-004	-2.40040E-001	4.96259E-001	3.57580E+000	9	...........
	32	0.44	4.89909E-001	-3.99544E-004	0.00000E+000	-1.95740E-004	-2.40040E-001	4.90059E-001	3.57580E+000	9	...........
	33	0.453333	4.83929E-001	-3.98635E-004	0.00000E+000	-1.92911E-004	-2.40040E-001	4.84048E-001	3.57580E+000	9	...........
	34	0.466667	4.77809E-001	-3.98300E-004	0.00000E+000	-1.90311E-004	-2.40040E-001	4.77895E-001	3.57580E+000	9	...........
	35	0.48	4.71611E-001	-3.97747E-004	0.00000E+000	-1.87582E-004	-2.40040E-001	4.71700E-001	3.57580E+000	9	...........
	36	0.493333	4.65486E-001	-3.99106E-004	0.00000E+000	-1.85779E-004	-2.40040E-001	4.65572E-001	3.57580E+000	9	...........
	37	0.506667	4.59348E-001	-3.99570E-004	0.00000E+000	-1.83542E-004	-2.40040E-001	4.59431E-001	3.57580E+000	9	...........
	38	0.52	4.53266E-001	-3.97425E-004	0.00000E+000	-1.80139E-004	-2.40040E-001	4.53349E-001	3.57580E+000	9	...........
	39	0.533333	4.47191E-001	-3.98976E-004	0.00000E+000	-1.78419E-004	-2.40040E-001	4.47274E-001	3.57580E+000	9	...........
	40	0.546667	4.41150E-001	-4.00920E-004	0.00000E+000	-1.76866E-004	-2.40040E-001	4.41235E-001	3.57580E+000	9	...........
	41	0.56	4.35138E-001	-3.98074E-004	0.00000E+000	-1.73217E-004	-2.40040E-001	4.35221E-001	3.57580E+000	9	...........
	42	0.573333	4.29191E-001	-3.97921E-004	0.00000E+000	-1.70784E-004	-2.40040E-001	4.29273E-001	3.57580E+000	9	...........
	43	0.586667	4.23277E-001	-3.98309E-004	0.00000E+000	-1.68595E-004	-2.40040E-001	4.23359E-001	3.57580E+000	9	...........
	44	0.6	4.17375E-001	-3.97941E-004	0.00000E+000	-1.66091E-004	-2.40040E-001	4.17459E-001	3.57580E+000	9	...........
	45	0.613333	4.11516E-001	-3.98326E-004	0.00000E+000	-1.63917E-004	-2.40040E-001	4.11594E-001	3.57580E+000	9	...........
	46	0.626667	4.05674E-001	-3.97783E-004	0.00000E+000	-1.61370E-004	-2.40040E-001	4.05749E-001	3.57580E+000	9	...........
	47	0.64	3.99866E-001	-3.97749E-004	0.00000E+000	-1.59046E-004	-2.40040E-001	3.99946E-001	3.57580E+000	9	...........
	48	0.653333	3.94087E-001	-3.98675E-004	0.00000E+000	-1.57113E-004	-2.40040E-001	3.94155E-001	3.57580E+000	9	...........
	49	0.666667	3.88274E-001	-3.98958E-004	0.00000E+000	-1.54905E-004	-2.40040E-001	3.88348E-001	3.57580E+000	9	...........
	50	0.68	3.82560E-001	-3.98185E-004	0.00000E+000	-1.52330E-004	-2.40040E-001	3.82629E-001	3.57580E+000	9	...........
	51	0.693333	3.76905E-001	-3.97396E-004	0.00000E+000	-1.49780E-004	-2.40040E-001	3.76977E-001	3.57580E+000	9	...........
	52	0.706667	3.71166E-001	-3.98453E-004	0.00000E+000	-1.47892E-004	-2.40040E-001	3.71229E-001	3.57580E+000	9	...........
	53	0.72	3.65467E-001	-3.98321E-004	0.00000E+000	-1.45573E-004	-2.40040E-001	3.65526E-001	3.57580E+000	9	...........
	54	0.733333	3.59851E-001	-3.98546E-004	0.00000E+000	-1.43417E-004	-2.40040E-001	3.59912E-001	3.57580E+000	9	...........
	55	0.746667	3.54330E-001	-3.98561E-004	0.00000E+000	-1.41222E-004	-2.40040E-001	3.54388E-001	3.57580E+000	9	...........
	56	0.76	3.48787E-001	-3.97226E-004	0.00000E+000	-1.38547E-004	-2.40040E-001	3.48850E-001	3.57580E+000	9	...........
	57	0.773333	3.43265E-001	-3.98291E-004	0.00000E+000	-1.36719E-004	-2.40040E-001	3.43323E-001	3.57580E+000	9	...........
	58	0.786667	3.37750E-001	-3.99456E-004	0.00000E+000	-1.34917E-004	-2.40040E-001	3.37809E-001	3.57580E+000	9	...........
	59	0.8	3.32275E-001	-3.98953E-004	0.00000E+000	-1.32562E-004	-2.40040E-001	3.32335E-001	3.57580E+000	9	...........
	60	0.813333	3.26824E-001	-3.98373E-004	0.00000E+000	-1.30198E-004	-2.40040E-001	3.26882E-001	3.57580E+000	9	...........
	61	0.826667	3.21402E-001	-3.98397E-004	0.00000E+000	-1.28045E-004	-2.40040E-001	3.21463E-001	3.57580E+000	9	...........
	62	0.84	3.15931E-001	-3.99070E-004	0.00000E+000	-1.26079E-004	-2.40040E-001	3.15987E-001	3.57580E+000	9	...........
	63	0.853333	3.10551E-001	-3.98560E-004	0.00000E+000	-1.23773E-004	-2.40040E-001	3.10607E-001	3.57580E+000	9	...........
	64	0.866667	3.05150E-001	-3.98900E-004	0.00000E+000	-1.21724E-004	-2.40040E-001	3.05215E-001	3.57580E+000	9	...........
	65	0.88	2.99764E-001	-3.98312E-004	0.00000E+000	-1.19400E-004	-2.40040E-001	2.99825E-001	3.57580E+000	9	...........
	66	0.893333	2.94416E-001	-3.98574E-004	0.00000E+000	-1.17347E-004	-2.40040E-001	2.94472E-001	3.57580E+000	9	...........
	67	0.906667	2.89223E-001	-3.98947E-004	0.00000E+000	-1.15385E-004	-2.40040E-001	2.89280E-001	3.57580E+000	9	...........
	68	0.92	2.84011E-001	-3.98724E-004	0.00000E+000	-1.13242E-004	-2.40040E-001	2.84073E-001	3.57580E+000	9	...........
	69	0.933333	2.78853E-001	-3.98208E-004	0.00000E+000	-1.11041E-004	-2.40040E-001	2.78907E-001	3.57580E+000	9	...........
	70	0.946667	2.73649E-001	-3.98663E-004	0.00000E+000	-1.09094E-004	-2.40040E-001	2.73707E-001	3.57580E+000	9	...........
	71	0.96	2.68476E-001	-3.98226E-004	0.00000E+000	-1.06914E-004	-2.40040E-001	2.68528E-001	3.57580E+000	9	...........
	72	0.97333	2.63356E-001	-3.99134E-004	0.00000E+000	-1.05114E-004	-2.40040E-001	2.63411E-001	3.57580E+000	9	...........
	73	0.98667	2.58232E-001	-3.98328E-004	0.00000E+000	-1.02861E-004	-2.40040E-001	2.58286E-001	3.57580E+000	9	...........
	74	1	2.53071E-001	-3.98032E-004	0.00000E+000	-1.00730E-004	-2.40040E-001	2.53127E-001	3.57580E+000	9	...........
	75	1.01333	2.48033E-001	-3.98617E-004	0.00000E+000	-9.88701E-005	-2.40040E-001	2.48089E-001	3.57580E+000	9	...........
	76	1.02667	2.42934E-001	-3.99775E-004	0.00000E+000	-9.71188E-005	-2.40040E-001	2.42977E-001	3.57580E+000	9	...........
	77	1.04	2.37846E-001	-3.98263E-004	0.00000E+000	-9.47255E-005	-2.40040E-001	2.37888E-001	3.57580E+000	9	...........
	78	1.05333	2.32873E-001	-3.98224E-004	0.00000E+000	-9.27356E-005	-2.40040E-001	2.32916E-001	3.57580E+000	9	...........
	79	1.06667	2.27827E-001	-3.99097E-004	0.00000E+000	-9.09251E-005	-2.40040E-001	2.27865E-001	3.57580E+000	9	...........
	80	1.08	2.22877E-001	-3.98957E-004	0.00000E+000	-8.89182E-005	-2.40040E-001	2.22916E-001	3.57580E+000	9	...........
	81	1.09333	2.17970E-001	-4.00173E-004	0.00000E+000	-8.72258E-005	-2.40040E-001	2.18012E-001	3.57580E+000	9	...........
	82	1.10667	2.13070E-001	-3.99340E-004	0.00000E+000	-8.50872E-005	-2.40040E-001	2.13114E-001	3.57580E+000	9	...........
	83	1.12	2.08091E-001	-3.99169E-004	0.00000E+000	-8.30636E-005	-2.40040E-001	2.08118E-001	3.57580E+000	9	...........
	84	1.13333	2.03187E-001	-3.99822E-004	0.00000E+000	-8.12386E-005	-2.40040E-001	2.03232E-001	3.57580E+000	9	...........
	85	1.14667	1.98341E-001	-3.98821E-004	0.00000E+000	-7.91024E-005	-2.40040E-001	1.98379E-001	3.57580E+000	9	...........
	86	1.16	1.93454E-001	-3.98157E-004	0.00000E+000	-7.70251E-005	-2.40040E-001	1.93494E-001	3.57580E+000	9	...........
	87	1.17333	1.88694E-001	-3.98219E-004	0.00000E+000	-7.51413E-005	-2.40040E-001	1.88729E-001	3.57580E+000	9	...........
	88	1.18667	1.83869E-001	-4.00432E-004	0.00000E+000	-7.36268E-005	-2.40040E-001	1.83900E-001	3.57580E+000	9	...........
	89	1.2	1.79074E-001	-3.98469E-004	0.00000E+000	-7.13555E-005	-2.40040E-001	1.79110E-001	3.57580E+000	9	...........
	90	1.21333	1.74349E-001	-3.99650E-004	0.00000E+000	-6.96785E-005	-2.40040E-001	1.74378E-001	3.57580E+000	9	...........
	91	1.22667	1.69681E-001	-4.00029E-004	0.00000E+000	-6.78772E-005	-2.40040E-001	1.69708E-001	3.57582E+000	9	...........
	92	1.24	1.65021E-001	-3.98829E-004	0.00000E+000	-6.58154E-005	-2.40040E-001	1.65050E-001	3.57590E+000	9	...........
	93	1.25333	1.60399E-001	-3.99063E-004	0.00000E+000	-6.40094E-005	-2.40040E-001	1.60427E-001	3.57590E+000	9	...........
	94	1.26667	1.55758E-001	-3.96828E-004	0.00000E+000	-6.18092E-005	-2.40040E-001	1.55787E-001	3.57590E+000	9	...........
	95	1.28	1.51046E-001	-3.98555E-004	0.00000E+000	-6.02000E-005	-2.40040E-001	1.51067E-001	3.57590E+000	9	...........
	96	1.29333	1.46442E-001	-3.98132E-004	0.00000E+000	-5.83032E-005	-2.40040E-001	1.46462E-001	3.57590E+000	9	...........
	97	1.30667	1.41874E-001	-4.00080E-004	0.00000E+000	-5.67611E-005	-2.40040E-001	1.41900E-001	3.57590E+000	9	...........
	98	1.32	1.37274E-001	-3.98768E-004	0.00000E+000	-5.47404E-005	-2.40040E-001	1.37301E-001	3.57590E+000	9	...........
	99	1.33333	1.32729E-001	-3.98356E-004	0.00000E+000	-5.28733E-005	-2.40040E-001	1.32748E-001	3.57590E+000	9	...........
	100	1.34667	1.28205E-001	-3.99392E-004	0.00000E+000	-5.12041E-005	-2.40040E-001	1.28231E-001	3.57590E+000	9	...........
	101	1.36	1.23678E-001	-3.98569E-004	0.00000E+000	-4.92943E-005	-2.40040E-001	1.23701E-001	3.57590E+000	9	...........
	102	1.37333	1.19228E-001	-3.99173E-004	0.00000E+000	-4.75927E-005	-2.40040E-001	1.19249E-001	3.57590E+000	9	...........
	103	1.38667	1.14837E-001	-4.00144E-004	0.00000E+000	-4.59513E-005	-2.40040E-001	1.14856E-001	3.57590E+000	9	...........
	104	1.4	1.10393E-001	-3.98434E-004	0.00000E+000	-4.39845E-005	-2.40040E-001	1.10414E-001	3.57590E+000	9	...........
	105	1.41333	1.05938E-001	-3.99920E-004	0.00000E+000	-4.23669E-005	-2.40040E-001	1.05963E-001	3.57590E+000	9	...........
	106	1.42667	1.01467E-001	-3.98744E-004	0.00000E+000	-4.04592E-005	-2.40040E-001	1.01485E-001	3.57590E+000	9	...........
	107	1.44	9.70096E-002	-3.98571E-004	0.00000E+000	-3.86652E-005	-2.40040E-001	9.70217E-002	3.57590E+000	9	...........
	108	1.45333	9.26589E-002	-3.99685E-004	0.00000E+000	-3.70343E-005	-2.40040E-001	9.26754E-002	3.57590E+000	9	...........
	109	1.46667	8.83008E-002	-4.00009E-004	0.00000E+000	-3.53211E-005	-2.40040E-001	8.83159E-002	3.57590E+000	9	...........
	110	1.48	8.39914E-002	-3.98082E-004	0.00000E+000	-3.34355E-005	-2.40040E-001	8.40069E-002	3.57590E+000	9	...........
	111	1.49333	7.96839E-002	-3.99778E-004	0.00000E+000	-3.18559E-005	-2.40040E-001	7.96995E-002	3.57590E+000	9	...........
	112	1.50667	7.53871E-002	-3.99188E-004	0.00000E+000	-3.00936E-005	-2.40040E-001	7.53962E-002	3.57590E+000	9	...........
	113	1.52	7.11186E-002	-3.99578E-004	0.00000E+000	-2.84175E-005	-2.40040E-001	7.11281E-002	3.57590E+000	9	...........
	114	1.53333	6.68748E-002	-3.98687E-004	0.00000E+000	-2.66621E-005	-2.40040E-001	6.68860E-002	3.57590E+000	9	...........
	115	1.54667	6.26405E-002	-3.99769E-004	0.00000E+000	-2.50417E-005	-2.40040E-001	6.26520E-002	3.57590E+000	9	...........
	116	1.56	5.83644E-002	-3.97034E-004	0.00000E+000	-2.31727E-005	-2.40040E-001	5.83701E-002	3.57590E+000	9	...........
	117	1.57333	5.41806E-002	-3.98934E-004	0.00000E+000	-2.16145E-005	-2.40040E-001	5.41835E-002	3.57590E+000	9	...........
	118	1.58667	4.99744E-002	-3.97867E-004	0.00000E+000	-1.98832E-005	-2.40040E-001	4.99778E-002	3.57590E+000	9	...........
	119	1.6	4.58789E-002	-3.98687E-004	0.00000E+000	-1.82913E-005	-2.40040E-001	4.58910E-002	3.57590E+000	9	...........
	120	1.61333	4.17452E-002	-3.98196E-004	0.00000E+000	-1.66228E-005	-2.40040E-001	4.17544E-002	3.57590E+000	9	...........
	121	1.62667	3.75903E-002	-3.98004E-004	0.00000E+000	-1.49611E-005	-2.40040E-001	3.75946E-002	3.57590E+000	9	...........
	122	1.64	3.34997E-002	-3.99519E-004	0.00000E+000	-1.33838E-005	-2.40040E-001	3.35002E-002	3.57590E+000	9	...........
	123	1.65333	2.93839E-002	-3.98335E-004	0.00000E+000	-1.17046E-005	-2.40040E-001	2.93877E-002	3.57590E+000	9	...........
	124	1.66667	2.53159E-002	-3.98706E-004	0.00000E+000	-1.00936E-005	-2.40040E-001	2.53131E-002	3.57590E+000	9	...........
	125	1.68	2.12387E-002	-3.99446E-004	0.00000E+000	-8.48371E-006	-2.40040E-001	2.12325E-002	3.57590E+000	9	...........
	126	1.69333	1.71493E-002	-3.97435E-004	0.00000E+000	-6.81575E-006	-2.40040E-001	1.71380E-002	3.57590E+000	9	...........
	127	1.70667	1.30772E-002	-3.98686E-004	0.00000E+000	-5.21369E-006	-2.40040E-001	1.30697E-002	3.57590E+000	9	...........
	128	1.72	9.04635E-003	-3.98684E-004	0.00000E+000	-3.60664E-006	-2.40040E-001	9.03437E-003	3.57590E+000	9	...........
	129	1.73333	5.01842E-003	-3.98391E-004	0.00000E+000	-1.99929E-006	-2.40040E-001	5.00587E-003	3.57590E+000	9	...........
	130	1.745	1.17912E-003	-3.96992E-004	0.00000E+000	-4.68102E-007	-2.40040E-001	1.15680E-003	3.57590E+000	9	...........
STARTTIMEOFFSET	QUANT	325.5916	Start Time Offset (s)
