EXPLAIN
TAG	PWR800_DISCHARGE
TITLE	LABEL	PWR Cyclic Charge Discharge (Cell) - Discharge Step	Test &Identifier
DATE	LABEL	12-7-2017	Date
TIME	LABEL	14:44:41	Time
NOTES	NOTES	3	&Notes...
	supercap test cell
	0.4mg
	6M KOH
PSTAT	PSTAT	IFC5000-01520	Potentiostat
CAPACITY	QUANT	1.00000E-003	Capacity (A-hr)
CELLTYPE	SELECTOR	1	&Cell Type
WORKINGCONNECTION	SELECTOR	0	&Working Lead
MAXDISCHARGETIME	VARIABLEANDUNITS	1.00000E+002	s	1.00000E+002	second(s)	Max &Discharge Time
DISCHARGEMODE	MULTIPARAM	0	4.00000E-004	&Discharge Mode	Constant Current	Amp(s)
SAMPLETIME	QUANT	1.00000E-002	Sa&mple Period (s)
DISCHARGESTOPAT1	MULTIPARAM	3	0.00000E+000	Discharge Stop At &1	Voltage < Limit	V
DISCHARGESTOPAT2	MULTIPARAM	0	0.00000E+000	Discharge Stop At &2	None	N/A
AESBHCSELECTOR	TOGGLE	F	Save Both Half Cells
IRCOMP	TOGGLE	F	IR &Measure
EOC	QUANT	0	Open Circuit (V)
SEQUENCER	TOGGLE	TRUE	Run as Sequence
PSTATMODEL	IQUANT	53	Pstat Model
PSTATSECTION	LABEL	IFC5000-01520	Pstat Section
PSTATSERIALNO	LABEL	01520	Pstat Serial Number
CTRLMODE	IQUANT	0	Control Mode
ELECTROMETER	IQUANT	1	RE=0 or CS=1
IESTAB	IQUANT	0	I/E Stability
CASPEED	IQUANT	4	Control Amp Speed
CONVENTION	IQUANT	1	Current Convention
ICHRANGE	IQUANT	2	Ich Range
ICHRANGEMODE	TOGGLE	T	Ich Auto Range
ICHOFFSETENABLE	TOGGLE	F	Ich Offset Enable
ICHOFFSET	QUANT	0	Ich Offset (V)
ICHFILTER	IQUANT	1	Ich Filter
VCHRANGE	IQUANT	2	Vch Range
VCHRANGEMODE	TOGGLE	T	Vch Auto Range
VCHOFFSETENABLE	TOGGLE	F	Vch Offset Enable
VCHOFFSET	QUANT	0	Vch Offset (V)
VCHFILTER	IQUANT	1	Vch Filter
IERANGELOWERLIMIT	IQUANT	9	I/E Range Lower Limit
IERANGEMODE	TOGGLE	F	I/E AutoRange
IERANGE	IQUANT	9	I/E Range
ACHSELECT	IQUANT	1	Ach Select
ACHRANGE	IQUANT	2	Ach Range
ACHOFFSETENABLE	TOGGLE	F	Ach Offset Enable
ACHOFFSET	QUANT	0	Ach Offset (V)
ACHFILTER	IQUANT	1	Ach Filter
CABLEID	IQUANT	14	Cable ID
DCCALDATE	LABEL	5-7-2017	DC Calibration Date
ACCALDATE	LABEL	12/3/2015	AC Calibration Date
FRAMEWORKVERSION	QUANT	7.01	Framework Version
INSTRUMENTVERSION	LABEL	4.00	Instrument Version
CURVE	TABLE	116
	Pt	T	Vf	Im	Vu	Pwr	Sig	Ach	Temp	IERange	Over
	#	s	V	A	V	W	V	V	deg C	#	bits
	0	0.013333	7.04955E-001	-3.97771E-004	0.00000E+000	-2.80410E-004	-2.40040E-001	7.05178E-001	3.57660E+000	9	...........
	1	0.026667	6.92813E-001	-3.98946E-004	0.00000E+000	-2.76395E-004	-2.40040E-001	6.93050E-001	3.57660E+000	9	...........
	2	0.04	6.82157E-001	-3.98212E-004	0.00000E+000	-2.71643E-004	-2.40040E-001	6.82394E-001	3.57660E+000	9	...........
	3	0.053333	6.72324E-001	-3.98848E-004	0.00000E+000	-2.68155E-004	-2.40040E-001	6.72533E-001	3.57660E+000	9	...........
	4	0.066667	6.63004E-001	-3.98356E-004	0.00000E+000	-2.64112E-004	-2.40040E-001	6.63230E-001	3.57660E+000	9	...........
	5	0.08	6.54109E-001	-3.99399E-004	0.00000E+000	-2.61251E-004	-2.40040E-001	6.54338E-001	3.57660E+000	9	...........
	6	0.093333	6.45500E-001	-3.98795E-004	0.00000E+000	-2.57422E-004	-2.40040E-001	6.45686E-001	3.57660E+000	9	...........
	7	0.106667	6.36999E-001	-4.00109E-004	0.00000E+000	-2.54869E-004	-2.40040E-001	6.37237E-001	3.57660E+000	9	...........
	8	0.12	6.28785E-001	-3.97782E-004	0.00000E+000	-2.50119E-004	-2.40040E-001	6.28992E-001	3.57660E+000	9	...........
	9	0.133333	6.20765E-001	-3.99497E-004	0.00000E+000	-2.47994E-004	-2.40040E-001	6.20959E-001	3.57660E+000	9	...........
	10	0.146667	6.12804E-001	-3.99223E-004	0.00000E+000	-2.44646E-004	-2.40040E-001	6.13038E-001	3.57660E+000	9	...........
	11	0.16	6.04983E-001	-3.99101E-004	0.00000E+000	-2.41449E-004	-2.40040E-001	6.05208E-001	3.57647E+000	9	...........
	12	0.173333	5.97213E-001	-3.98857E-004	0.00000E+000	-2.38203E-004	-2.40040E-001	5.97431E-001	3.57610E+000	9	...........
	13	0.186667	5.89479E-001	-3.99824E-004	0.00000E+000	-2.35688E-004	-2.40040E-001	5.89723E-001	3.57610E+000	9	...........
	14	0.2	5.81790E-001	-3.98803E-004	0.00000E+000	-2.32020E-004	-2.40040E-001	5.82025E-001	3.57610E+000	9	...........
	15	0.213333	5.74239E-001	-3.98282E-004	0.00000E+000	-2.28709E-004	-2.40040E-001	5.74468E-001	3.57610E+000	9	...........
	16	0.226667	5.66735E-001	-3.98026E-004	0.00000E+000	-2.25575E-004	-2.40040E-001	5.66950E-001	3.57610E+000	9	...........
	17	0.24	5.59232E-001	-3.99316E-004	0.00000E+000	-2.23310E-004	-2.40040E-001	5.59461E-001	3.57610E+000	9	...........
	18	0.253333	5.51832E-001	-3.97908E-004	0.00000E+000	-2.19578E-004	-2.40040E-001	5.52026E-001	3.57610E+000	9	...........
	19	0.266667	5.44496E-001	-3.99095E-004	0.00000E+000	-2.17306E-004	-2.40040E-001	5.44701E-001	3.57610E+000	9	...........
	20	0.28	5.37147E-001	-3.98685E-004	0.00000E+000	-2.14153E-004	-2.40040E-001	5.37371E-001	3.57610E+000	9	...........
	21	0.293333	5.29757E-001	-3.99055E-004	0.00000E+000	-2.11402E-004	-2.40040E-001	5.29974E-001	3.57610E+000	9	...........
	22	0.306667	5.22443E-001	-3.99207E-004	0.00000E+000	-2.08563E-004	-2.40040E-001	5.22636E-001	3.57610E+000	9	...........
	23	0.32	5.15307E-001	-3.98541E-004	0.00000E+000	-2.05371E-004	-2.40040E-001	5.15479E-001	3.57610E+000	9	...........
	24	0.333333	5.08124E-001	-3.98982E-004	0.00000E+000	-2.02733E-004	-2.40040E-001	5.08349E-001	3.57610E+000	9	...........
	25	0.346667	5.01067E-001	-3.98109E-004	0.00000E+000	-1.99479E-004	-2.40040E-001	5.01291E-001	3.57610E+000	9	...........
	26	0.36	4.94072E-001	-3.98637E-004	0.00000E+000	-1.96955E-004	-2.40040E-001	4.94269E-001	3.57610E+000	9	...........
	27	0.373333	4.87034E-001	-3.98475E-004	0.00000E+000	-1.94071E-004	-2.40040E-001	4.87243E-001	3.57610E+000	9	...........
	28	0.386667	4.80303E-001	-3.98544E-004	0.00000E+000	-1.91422E-004	-2.40040E-001	4.80405E-001	3.57610E+000	9	...........
	29	0.4	4.73346E-001	-3.97813E-004	0.00000E+000	-1.88303E-004	-2.40040E-001	4.73444E-001	3.57610E+000	9	...........
	30	0.413333	4.66388E-001	-3.98040E-004	0.00000E+000	-1.85641E-004	-2.40040E-001	4.66489E-001	3.57610E+000	9	...........
	31	0.426667	4.59534E-001	-3.99625E-004	0.00000E+000	-1.83641E-004	-2.40040E-001	4.59631E-001	3.57610E+000	9	...........
	32	0.44	4.52731E-001	-3.98904E-004	0.00000E+000	-1.80596E-004	-2.40040E-001	4.52821E-001	3.57610E+000	9	...........
	33	0.453333	4.45890E-001	-3.99617E-004	0.00000E+000	-1.78185E-004	-2.40040E-001	4.45988E-001	3.57610E+000	9	...........
	34	0.466667	4.39096E-001	-3.99302E-004	0.00000E+000	-1.75332E-004	-2.40040E-001	4.39189E-001	3.57610E+000	9	...........
	35	0.48	4.32372E-001	-3.99079E-004	0.00000E+000	-1.72551E-004	-2.40040E-001	4.32464E-001	3.57610E+000	9	...........
	36	0.493333	4.25665E-001	-3.98786E-004	0.00000E+000	-1.69749E-004	-2.40040E-001	4.25763E-001	3.57610E+000	9	...........
	37	0.506667	4.19057E-001	-3.99962E-004	0.00000E+000	-1.67607E-004	-2.40040E-001	4.19140E-001	3.57610E+000	9	...........
	38	0.52	4.12473E-001	-3.99501E-004	0.00000E+000	-1.64783E-004	-2.40040E-001	4.12556E-001	3.57610E+000	9	...........
	39	0.533333	4.05836E-001	-3.99516E-004	0.00000E+000	-1.62138E-004	-2.40040E-001	4.05914E-001	3.57610E+000	9	...........
	40	0.546667	3.99281E-001	-4.00137E-004	0.00000E+000	-1.59767E-004	-2.40040E-001	3.99353E-001	3.57610E+000	9	...........
	41	0.56	3.92759E-001	-3.97692E-004	0.00000E+000	-1.56197E-004	-2.40040E-001	3.92832E-001	3.57610E+000	9	...........
	42	0.573333	3.86354E-001	-3.99051E-004	0.00000E+000	-1.54175E-004	-2.40040E-001	3.86434E-001	3.57610E+000	9	...........
	43	0.586667	3.79981E-001	-4.00335E-004	0.00000E+000	-1.52119E-004	-2.40040E-001	3.80055E-001	3.57610E+000	9	...........
	44	0.6	3.73587E-001	-3.99826E-004	0.00000E+000	-1.49370E-004	-2.40040E-001	3.73656E-001	3.57610E+000	9	...........
	45	0.613333	3.67088E-001	-4.00153E-004	0.00000E+000	-1.46892E-004	-2.40040E-001	3.67155E-001	3.57610E+000	9	...........
	46	0.626667	3.60705E-001	-3.99366E-004	0.00000E+000	-1.44053E-004	-2.40040E-001	3.60776E-001	3.57610E+000	9	...........
	47	0.64	3.54447E-001	-3.98626E-004	0.00000E+000	-1.41292E-004	-2.40040E-001	3.54515E-001	3.57610E+000	9	...........
	48	0.653333	3.48162E-001	-3.99341E-004	0.00000E+000	-1.39035E-004	-2.40040E-001	3.48230E-001	3.57610E+000	9	...........
	49	0.666667	3.42044E-001	-3.97881E-004	0.00000E+000	-1.36093E-004	-2.40040E-001	3.42115E-001	3.57610E+000	9	...........
	50	0.68	3.35870E-001	-3.99380E-004	0.00000E+000	-1.34140E-004	-2.40040E-001	3.35945E-001	3.57610E+000	9	...........
	51	0.693333	3.29660E-001	-3.99328E-004	0.00000E+000	-1.31643E-004	-2.40040E-001	3.29726E-001	3.57610E+000	9	...........
	52	0.706667	3.23574E-001	-3.98115E-004	0.00000E+000	-1.28820E-004	-2.40040E-001	3.23641E-001	3.57610E+000	9	...........
	53	0.72	3.17514E-001	-3.98950E-004	0.00000E+000	-1.26672E-004	-2.40040E-001	3.17577E-001	3.57610E+000	9	...........
	54	0.733333	3.11432E-001	-3.98789E-004	0.00000E+000	-1.24195E-004	-2.40040E-001	3.11494E-001	3.57610E+000	9	...........
	55	0.746667	3.05432E-001	-3.99681E-004	0.00000E+000	-1.22076E-004	-2.40040E-001	3.05493E-001	3.57610E+000	9	...........
	56	0.76	2.99493E-001	-3.98893E-004	0.00000E+000	-1.19466E-004	-2.40040E-001	2.99548E-001	3.57610E+000	9	...........
	57	0.773333	2.93544E-001	-3.99146E-004	0.00000E+000	-1.17167E-004	-2.40040E-001	2.93601E-001	3.57610E+000	9	...........
	58	0.786667	2.87624E-001	-3.98916E-004	0.00000E+000	-1.14738E-004	-2.40040E-001	2.87681E-001	3.57610E+000	9	...........
	59	0.8	2.81738E-001	-3.98110E-004	0.00000E+000	-1.12163E-004	-2.40040E-001	2.81796E-001	3.57610E+000	9	...........
	60	0.813333	2.75838E-001	-3.99285E-004	0.00000E+000	-1.10138E-004	-2.40040E-001	2.75897E-001	3.57610E+000	9	...........
	61	0.826667	2.70040E-001	-3.99135E-004	0.00000E+000	-1.07783E-004	-2.40040E-001	2.70095E-001	3.57610E+000	9	...........
	62	0.84	2.64214E-001	-3.99055E-004	0.00000E+000	-1.05436E-004	-2.40040E-001	2.64265E-001	3.57610E+000	9	...........
	63	0.853333	2.58521E-001	-3.97633E-004	0.00000E+000	-1.02796E-004	-2.40040E-001	2.58570E-001	3.57610E+000	9	...........
	64	0.866667	2.52909E-001	-3.98625E-004	0.00000E+000	-1.00816E-004	-2.40040E-001	2.52964E-001	3.57610E+000	9	...........
	65	0.88	2.47327E-001	-3.98889E-004	0.00000E+000	-9.86560E-005	-2.40040E-001	2.47379E-001	3.57610E+000	9	...........
	66	0.893333	2.41758E-001	-3.99830E-004	0.00000E+000	-9.66622E-005	-2.40040E-001	2.41802E-001	3.57610E+000	9	...........
	67	0.906667	2.36183E-001	-3.97385E-004	0.00000E+000	-9.38557E-005	-2.40040E-001	2.36223E-001	3.57610E+000	9	...........
	68	0.92	2.30572E-001	-3.96577E-004	0.00000E+000	-9.14395E-005	-2.40040E-001	2.30618E-001	3.57610E+000	9	...........
	69	0.933333	2.24951E-001	-3.98502E-004	0.00000E+000	-8.96433E-005	-2.40040E-001	2.24996E-001	3.57610E+000	9	...........
	70	0.946667	2.19459E-001	-3.99058E-004	0.00000E+000	-8.75769E-005	-2.40040E-001	2.19502E-001	3.57610E+000	9	...........
	71	0.96	2.14016E-001	-3.98107E-004	0.00000E+000	-8.52012E-005	-2.40040E-001	2.14057E-001	3.57610E+000	9	...........
	72	0.97333	2.08606E-001	-4.00252E-004	0.00000E+000	-8.34949E-005	-2.40040E-001	2.08645E-001	3.57610E+000	9	...........
	73	0.98667	2.03194E-001	-3.97824E-004	0.00000E+000	-8.08352E-005	-2.40040E-001	2.03234E-001	3.57610E+000	9	...........
	74	1	1.97781E-001	-3.99317E-004	0.00000E+000	-7.89772E-005	-2.40040E-001	1.97818E-001	3.57610E+000	9	...........
	75	1.01333	1.92390E-001	-3.99073E-004	0.00000E+000	-7.67777E-005	-2.40040E-001	1.92427E-001	3.57610E+000	9	...........
	76	1.02667	1.87005E-001	-3.99214E-004	0.00000E+000	-7.46548E-005	-2.40040E-001	1.87034E-001	3.57610E+000	9	...........
	77	1.04	1.81742E-001	-4.00383E-004	0.00000E+000	-7.27665E-005	-2.40040E-001	1.81780E-001	3.57610E+000	9	...........
	78	1.05333	1.76531E-001	-3.98843E-004	0.00000E+000	-7.04082E-005	-2.40040E-001	1.76573E-001	3.57610E+000	9	...........
	79	1.06667	1.71317E-001	-3.98127E-004	0.00000E+000	-6.82059E-005	-2.40040E-001	1.71355E-001	3.57610E+000	9	...........
	80	1.08	1.66203E-001	-3.98777E-004	0.00000E+000	-6.62781E-005	-2.40040E-001	1.66239E-001	3.57610E+000	9	...........
	81	1.09333	1.61010E-001	-3.98596E-004	0.00000E+000	-6.41778E-005	-2.40040E-001	1.61049E-001	3.57610E+000	9	...........
	82	1.10667	1.55903E-001	-4.00109E-004	0.00000E+000	-6.23780E-005	-2.40040E-001	1.55933E-001	3.57610E+000	9	...........
	83	1.12	1.50714E-001	-3.98373E-004	0.00000E+000	-6.00403E-005	-2.40040E-001	1.50737E-001	3.57610E+000	9	...........
	84	1.13333	1.45601E-001	-3.99630E-004	0.00000E+000	-5.81867E-005	-2.40040E-001	1.45629E-001	3.57610E+000	9	...........
	85	1.14667	1.40523E-001	-3.99517E-004	0.00000E+000	-5.61413E-005	-2.40040E-001	1.40549E-001	3.57610E+000	9	...........
	86	1.16	1.35511E-001	-3.97974E-004	0.00000E+000	-5.39299E-005	-2.40040E-001	1.35532E-001	3.57610E+000	9	...........
	87	1.17333	1.30552E-001	-3.97648E-004	0.00000E+000	-5.19138E-005	-2.40040E-001	1.30575E-001	3.57610E+000	9	...........
	88	1.18667	1.25501E-001	-3.98831E-004	0.00000E+000	-5.00537E-005	-2.40040E-001	1.25520E-001	3.57610E+000	9	...........
	89	1.2	1.20615E-001	-3.99290E-004	0.00000E+000	-4.81604E-005	-2.40040E-001	1.20635E-001	3.57610E+000	9	...........
	90	1.21333	1.15777E-001	-3.99146E-004	0.00000E+000	-4.62119E-005	-2.40040E-001	1.15795E-001	3.57610E+000	9	...........
	91	1.22667	1.10956E-001	-3.99013E-004	0.00000E+000	-4.42730E-005	-2.40040E-001	1.10977E-001	3.57610E+000	9	...........
	92	1.24	1.06101E-001	-3.99229E-004	0.00000E+000	-4.23585E-005	-2.40040E-001	1.06124E-001	3.57610E+000	9	...........
	93	1.25333	1.01173E-001	-3.97945E-004	0.00000E+000	-4.02614E-005	-2.40040E-001	1.01194E-001	3.57610E+000	9	...........
	94	1.26667	9.63116E-002	-4.00672E-004	0.00000E+000	-3.85894E-005	-2.40040E-001	9.63349E-002	3.57610E+000	9	...........
	95	1.28	9.15573E-002	-3.98712E-004	0.00000E+000	-3.65050E-005	-2.40040E-001	9.15773E-002	3.57610E+000	9	...........
	96	1.29333	8.68196E-002	-3.98872E-004	0.00000E+000	-3.46299E-005	-2.40040E-001	8.68424E-002	3.57610E+000	9	...........
	97	1.30667	8.20586E-002	-3.99118E-004	0.00000E+000	-3.27511E-005	-2.40040E-001	8.20719E-002	3.57610E+000	9	...........
	98	1.32	7.74380E-002	-3.98093E-004	0.00000E+000	-3.08275E-005	-2.40040E-001	7.74497E-002	3.57610E+000	9	...........
	99	1.33333	7.27381E-002	-3.99954E-004	0.00000E+000	-2.90919E-005	-2.40040E-001	7.27438E-002	3.57610E+000	9	...........
	100	1.34667	6.81196E-002	-3.98040E-004	0.00000E+000	-2.71144E-005	-2.40040E-001	6.81265E-002	3.57610E+000	9	...........
	101	1.36	6.34800E-002	-3.98669E-004	0.00000E+000	-2.53075E-005	-2.40040E-001	6.34846E-002	3.57610E+000	9	...........
	102	1.37333	5.89063E-002	-3.98615E-004	0.00000E+000	-2.34809E-005	-2.40040E-001	5.89098E-002	3.57610E+000	9	...........
	103	1.38667	5.43177E-002	-3.98070E-004	0.00000E+000	-2.16222E-005	-2.40040E-001	5.43257E-002	3.57610E+000	9	...........
	104	1.4	4.97982E-002	-3.99755E-004	0.00000E+000	-1.99071E-005	-2.40040E-001	4.98077E-002	3.57610E+000	9	...........
	105	1.41333	4.53589E-002	-3.97951E-004	0.00000E+000	-1.80506E-005	-2.40040E-001	4.53684E-002	3.57610E+000	9	...........
	106	1.42667	4.07619E-002	-3.99220E-004	0.00000E+000	-1.62730E-005	-2.40040E-001	4.07703E-002	3.57610E+000	9	...........
	107	1.44	3.63081E-002	-4.00183E-004	0.00000E+000	-1.45299E-005	-2.40040E-001	3.63162E-002	3.57610E+000	9	...........
	108	1.45333	3.18240E-002	-3.98030E-004	0.00000E+000	-1.26669E-005	-2.40040E-001	3.18247E-002	3.57610E+000	9	...........
	109	1.46667	2.74392E-002	-3.98300E-004	0.00000E+000	-1.09290E-005	-2.40040E-001	2.74372E-002	3.57610E+000	9	...........
	110	1.48	2.30549E-002	-3.98438E-004	0.00000E+000	-9.18596E-006	-2.40040E-001	2.30511E-002	3.57610E+000	9	...........
	111	1.49333	1.86611E-002	-4.00175E-004	0.00000E+000	-7.46772E-006	-2.40040E-001	1.86568E-002	3.57610E+000	9	...........
	112	1.50667	1.42958E-002	-3.98843E-004	0.00000E+000	-5.70178E-006	-2.40040E-001	1.42857E-002	3.57610E+000	9	...........
	113	1.52	1.00591E-002	-3.98879E-004	0.00000E+000	-4.01235E-006	-2.40040E-001	1.00456E-002	3.57610E+000	9	...........
	114	1.53333	5.74949E-003	-3.97921E-004	0.00000E+000	-2.28784E-006	-2.40040E-001	5.73338E-003	3.57610E+000	9	...........
	115	1.54667	1.47517E-003	-3.99535E-004	0.00000E+000	-5.89380E-007	-2.40040E-001	1.46228E-003	3.57610E+000	9	...........
STARTTIMEOFFSET	QUANT	1250.06	Start Time Offset (s)
