EXPLAIN
TAG	PWR800_DISCHARGE
TITLE	LABEL	PWR Cyclic Charge Discharge (Cell) - Discharge Step	Test &Identifier
DATE	LABEL	12-7-2017	Date
TIME	LABEL	15:00:38	Time
NOTES	NOTES	3	&Notes...
	supercap test cell
	0.4mg
	6M KOH
PSTAT	PSTAT	IFC5000-01520	Potentiostat
CAPACITY	QUANT	1.00000E-003	Capacity (A-hr)
CELLTYPE	SELECTOR	1	&Cell Type
WORKINGCONNECTION	SELECTOR	0	&Working Lead
MAXDISCHARGETIME	VARIABLEANDUNITS	1.00000E+002	s	1.00000E+002	second(s)	Max &Discharge Time
DISCHARGEMODE	MULTIPARAM	0	4.00000E-004	&Discharge Mode	Constant Current	Amp(s)
SAMPLETIME	QUANT	1.00000E-002	Sa&mple Period (s)
DISCHARGESTOPAT1	MULTIPARAM	3	0.00000E+000	Discharge Stop At &1	Voltage < Limit	V
DISCHARGESTOPAT2	MULTIPARAM	0	0.00000E+000	Discharge Stop At &2	None	N/A
AESBHCSELECTOR	TOGGLE	F	Save Both Half Cells
IRCOMP	TOGGLE	F	IR &Measure
EOC	QUANT	0	Open Circuit (V)
SEQUENCER	TOGGLE	TRUE	Run as Sequence
PSTATMODEL	IQUANT	53	Pstat Model
PSTATSECTION	LABEL	IFC5000-01520	Pstat Section
PSTATSERIALNO	LABEL	01520	Pstat Serial Number
CTRLMODE	IQUANT	0	Control Mode
ELECTROMETER	IQUANT	1	RE=0 or CS=1
IESTAB	IQUANT	0	I/E Stability
CASPEED	IQUANT	4	Control Amp Speed
CONVENTION	IQUANT	1	Current Convention
ICHRANGE	IQUANT	2	Ich Range
ICHRANGEMODE	TOGGLE	T	Ich Auto Range
ICHOFFSETENABLE	TOGGLE	F	Ich Offset Enable
ICHOFFSET	QUANT	0	Ich Offset (V)
ICHFILTER	IQUANT	1	Ich Filter
VCHRANGE	IQUANT	2	Vch Range
VCHRANGEMODE	TOGGLE	T	Vch Auto Range
VCHOFFSETENABLE	TOGGLE	F	Vch Offset Enable
VCHOFFSET	QUANT	0	Vch Offset (V)
VCHFILTER	IQUANT	1	Vch Filter
IERANGELOWERLIMIT	IQUANT	9	I/E Range Lower Limit
IERANGEMODE	TOGGLE	F	I/E AutoRange
IERANGE	IQUANT	9	I/E Range
ACHSELECT	IQUANT	1	Ach Select
ACHRANGE	IQUANT	2	Ach Range
ACHOFFSETENABLE	TOGGLE	F	Ach Offset Enable
ACHOFFSET	QUANT	0	Ach Offset (V)
ACHFILTER	IQUANT	1	Ach Filter
CABLEID	IQUANT	14	Cable ID
DCCALDATE	LABEL	5-7-2017	DC Calibration Date
ACCALDATE	LABEL	12/3/2015	AC Calibration Date
FRAMEWORKVERSION	QUANT	7.01	Framework Version
INSTRUMENTVERSION	LABEL	4.00	Instrument Version
CURVE	TABLE	109
	Pt	T	Vf	Im	Vu	Pwr	Sig	Ach	Temp	IERange	Over
	#	s	V	A	V	W	V	V	deg C	#	bits
	0	0.013333	6.93110E-001	-3.98533E-004	0.00000E+000	-2.76227E-004	-2.40040E-001	6.93322E-001	3.57640E+000	9	...........
	1	0.026667	6.80157E-001	-3.97449E-004	0.00000E+000	-2.70327E-004	-2.40040E-001	6.80348E-001	3.57640E+000	9	...........
	2	0.04	6.68840E-001	-3.99234E-004	0.00000E+000	-2.67024E-004	-2.40040E-001	6.68998E-001	3.57640E+000	9	...........
	3	0.053333	6.58428E-001	-3.98944E-004	0.00000E+000	-2.62676E-004	-2.40040E-001	6.58595E-001	3.57640E+000	9	...........
	4	0.066667	6.48644E-001	-3.98159E-004	0.00000E+000	-2.58263E-004	-2.40040E-001	6.48844E-001	3.57640E+000	9	...........
	5	0.08	6.39283E-001	-3.98467E-004	0.00000E+000	-2.54733E-004	-2.40040E-001	6.39506E-001	3.57640E+000	9	...........
	6	0.093333	6.30259E-001	-3.98864E-004	0.00000E+000	-2.51388E-004	-2.40040E-001	6.30486E-001	3.57640E+000	9	...........
	7	0.106667	6.21506E-001	-3.98345E-004	0.00000E+000	-2.47574E-004	-2.40040E-001	6.21698E-001	3.57640E+000	9	...........
	8	0.12	6.12863E-001	-4.00787E-004	0.00000E+000	-2.45627E-004	-2.40040E-001	6.13098E-001	3.57640E+000	9	...........
	9	0.133333	6.04382E-001	-3.99140E-004	0.00000E+000	-2.41233E-004	-2.40040E-001	6.04635E-001	3.57640E+000	9	...........
	10	0.146667	5.96099E-001	-3.98645E-004	0.00000E+000	-2.37632E-004	-2.40040E-001	5.96333E-001	3.57640E+000	9	...........
	11	0.16	5.87894E-001	-3.98477E-004	0.00000E+000	-2.34262E-004	-2.40040E-001	5.88155E-001	3.57640E+000	9	...........
	12	0.173333	5.79791E-001	-3.99731E-004	0.00000E+000	-2.31761E-004	-2.40040E-001	5.80033E-001	3.57640E+000	9	...........
	13	0.186667	5.71728E-001	-3.99424E-004	0.00000E+000	-2.28362E-004	-2.40040E-001	5.71956E-001	3.57640E+000	9	...........
	14	0.2	5.63761E-001	-4.00186E-004	0.00000E+000	-2.25609E-004	-2.40040E-001	5.63990E-001	3.57640E+000	9	...........
	15	0.213333	5.55888E-001	-3.98831E-004	0.00000E+000	-2.21706E-004	-2.40040E-001	5.56110E-001	3.57640E+000	9	...........
	16	0.226667	5.48101E-001	-3.98811E-004	0.00000E+000	-2.18589E-004	-2.40040E-001	5.48335E-001	3.57640E+000	9	...........
	17	0.24	5.40389E-001	-3.96377E-004	0.00000E+000	-2.14197E-004	-2.40040E-001	5.40615E-001	3.57640E+000	9	...........
	18	0.253333	5.32653E-001	-3.98553E-004	0.00000E+000	-2.12291E-004	-2.40040E-001	5.32877E-001	3.57640E+000	9	...........
	19	0.266667	5.24925E-001	-3.98646E-004	0.00000E+000	-2.09259E-004	-2.40040E-001	5.25164E-001	3.57640E+000	9	...........
	20	0.28	5.17318E-001	-3.99521E-004	0.00000E+000	-2.06679E-004	-2.40040E-001	5.17535E-001	3.57640E+000	9	...........
	21	0.293333	5.09675E-001	-3.98011E-004	0.00000E+000	-2.02856E-004	-2.40040E-001	5.09918E-001	3.57640E+000	9	...........
	22	0.306667	5.02088E-001	-3.99100E-004	0.00000E+000	-2.00383E-004	-2.40040E-001	5.02311E-001	3.57640E+000	9	...........
	23	0.32	4.94590E-001	-3.98426E-004	0.00000E+000	-1.97058E-004	-2.40040E-001	4.94815E-001	3.57640E+000	9	...........
	24	0.333333	4.87144E-001	-3.99514E-004	0.00000E+000	-1.94621E-004	-2.40040E-001	4.87337E-001	3.57640E+000	9	...........
	25	0.346667	4.79966E-001	-3.97962E-004	0.00000E+000	-1.91008E-004	-2.40040E-001	4.80062E-001	3.57640E+000	9	...........
	26	0.36	4.72631E-001	-3.98234E-004	0.00000E+000	-1.88218E-004	-2.40040E-001	4.72726E-001	3.57640E+000	9	...........
	27	0.373333	4.65308E-001	-3.97711E-004	0.00000E+000	-1.85058E-004	-2.40040E-001	4.65398E-001	3.57640E+000	9	...........
	28	0.386667	4.57978E-001	-3.98840E-004	0.00000E+000	-1.82660E-004	-2.40040E-001	4.58066E-001	3.57640E+000	9	...........
	29	0.4	4.50774E-001	-3.99056E-004	0.00000E+000	-1.79884E-004	-2.40040E-001	4.50868E-001	3.57640E+000	9	...........
	30	0.413333	4.43615E-001	-3.99204E-004	0.00000E+000	-1.77093E-004	-2.40040E-001	4.43712E-001	3.57640E+000	9	...........
	31	0.426667	4.36452E-001	-3.98799E-004	0.00000E+000	-1.74056E-004	-2.40040E-001	4.36541E-001	3.57640E+000	9	...........
	32	0.44	4.29336E-001	-3.98807E-004	0.00000E+000	-1.71222E-004	-2.40040E-001	4.29419E-001	3.57640E+000	9	...........
	33	0.453333	4.22261E-001	-3.98262E-004	0.00000E+000	-1.68170E-004	-2.40040E-001	4.22346E-001	3.57640E+000	9	...........
	34	0.466667	4.15203E-001	-3.97951E-004	0.00000E+000	-1.65230E-004	-2.40040E-001	4.15290E-001	3.57640E+000	9	...........
	35	0.48	4.08205E-001	-3.99070E-004	0.00000E+000	-1.62902E-004	-2.40040E-001	4.08287E-001	3.57640E+000	9	...........
	36	0.493333	4.01299E-001	-3.98950E-004	0.00000E+000	-1.60098E-004	-2.40040E-001	4.01379E-001	3.57640E+000	9	...........
	37	0.506667	3.94449E-001	-3.98285E-004	0.00000E+000	-1.57103E-004	-2.40040E-001	3.94518E-001	3.57640E+000	9	...........
	38	0.52	3.87577E-001	-3.98910E-004	0.00000E+000	-1.54608E-004	-2.40040E-001	3.87650E-001	3.57640E+000	9	...........
	39	0.533333	3.80760E-001	-3.98128E-004	0.00000E+000	-1.51591E-004	-2.40040E-001	3.80829E-001	3.57640E+000	9	...........
	40	0.546667	3.73998E-001	-3.99299E-004	0.00000E+000	-1.49337E-004	-2.40040E-001	3.74068E-001	3.57640E+000	9	...........
	41	0.56	3.67283E-001	-3.99491E-004	0.00000E+000	-1.46726E-004	-2.40040E-001	3.67352E-001	3.57640E+000	9	...........
	42	0.573333	3.60575E-001	-3.98137E-004	0.00000E+000	-1.43558E-004	-2.40040E-001	3.60649E-001	3.57640E+000	9	...........
	43	0.586667	3.53901E-001	-3.99077E-004	0.00000E+000	-1.41234E-004	-2.40040E-001	3.53971E-001	3.57640E+000	9	...........
	44	0.6	3.47220E-001	-3.97262E-004	0.00000E+000	-1.37937E-004	-2.40040E-001	3.47288E-001	3.57640E+000	9	...........
	45	0.613333	3.40723E-001	-3.97974E-004	0.00000E+000	-1.35599E-004	-2.40040E-001	3.40787E-001	3.57640E+000	9	...........
	46	0.626667	3.34187E-001	-3.98688E-004	0.00000E+000	-1.33237E-004	-2.40040E-001	3.34254E-001	3.57640E+000	9	...........
	47	0.64	3.27719E-001	-3.98901E-004	0.00000E+000	-1.30727E-004	-2.40040E-001	3.27781E-001	3.57640E+000	9	...........
	48	0.653333	3.21303E-001	-3.98606E-004	0.00000E+000	-1.28073E-004	-2.40040E-001	3.21364E-001	3.57640E+000	9	...........
	49	0.666667	3.14947E-001	-3.99258E-004	0.00000E+000	-1.25745E-004	-2.40040E-001	3.15013E-001	3.57640E+000	9	...........
	50	0.68	3.08558E-001	-3.99441E-004	0.00000E+000	-1.23251E-004	-2.40040E-001	3.08621E-001	3.57640E+000	9	...........
	51	0.693333	3.02202E-001	-3.98805E-004	0.00000E+000	-1.20520E-004	-2.40040E-001	3.02260E-001	3.57640E+000	9	...........
	52	0.706667	2.95969E-001	-3.98424E-004	0.00000E+000	-1.17921E-004	-2.40040E-001	2.96025E-001	3.57640E+000	9	...........
	53	0.72	2.89714E-001	-3.98907E-004	0.00000E+000	-1.15569E-004	-2.40040E-001	2.89776E-001	3.57640E+000	9	...........
	54	0.733333	2.83501E-001	-3.99383E-004	0.00000E+000	-1.13226E-004	-2.40040E-001	2.83562E-001	3.57640E+000	9	...........
	55	0.746667	2.77220E-001	-3.98777E-004	0.00000E+000	-1.10549E-004	-2.40040E-001	2.77276E-001	3.57640E+000	9	...........
	56	0.76	2.71093E-001	-3.99616E-004	0.00000E+000	-1.08333E-004	-2.40040E-001	2.71147E-001	3.57640E+000	9	...........
	57	0.773333	2.64982E-001	-3.98721E-004	0.00000E+000	-1.05654E-004	-2.40040E-001	2.65037E-001	3.57640E+000	9	...........
	58	0.786667	2.58942E-001	-3.98135E-004	0.00000E+000	-1.03094E-004	-2.40040E-001	2.58995E-001	3.57640E+000	9	...........
	59	0.8	2.52902E-001	-3.98573E-004	0.00000E+000	-1.00800E-004	-2.40040E-001	2.52959E-001	3.57640E+000	9	...........
	60	0.813333	2.46852E-001	-3.99165E-004	0.00000E+000	-9.85346E-005	-2.40040E-001	2.46900E-001	3.57640E+000	9	...........
	61	0.826667	2.40873E-001	-3.98887E-004	0.00000E+000	-9.60811E-005	-2.40040E-001	2.40918E-001	3.57640E+000	9	...........
	62	0.84	2.34972E-001	-3.99068E-004	0.00000E+000	-9.37696E-005	-2.40040E-001	2.35013E-001	3.57640E+000	9	...........
	63	0.853333	2.29099E-001	-3.98475E-004	0.00000E+000	-9.12901E-005	-2.40040E-001	2.29139E-001	3.57640E+000	9	...........
	64	0.866667	2.23214E-001	-3.98246E-004	0.00000E+000	-8.88940E-005	-2.40040E-001	2.23257E-001	3.57640E+000	9	...........
	65	0.88	2.17432E-001	-3.97540E-004	0.00000E+000	-8.64378E-005	-2.40040E-001	2.17470E-001	3.57640E+000	9	...........
	66	0.893333	2.11694E-001	-3.98677E-004	0.00000E+000	-8.43976E-005	-2.40040E-001	2.11729E-001	3.57640E+000	9	...........
	67	0.906667	2.05912E-001	-3.98242E-004	0.00000E+000	-8.20028E-005	-2.40040E-001	2.05946E-001	3.57640E+000	9	...........
	68	0.92	2.00256E-001	-3.97579E-004	0.00000E+000	-7.96177E-005	-2.40040E-001	2.00293E-001	3.57640E+000	9	...........
	69	0.933333	1.94623E-001	-3.96998E-004	0.00000E+000	-7.72650E-005	-2.40040E-001	1.94660E-001	3.57640E+000	9	...........
	70	0.946667	1.88958E-001	-3.97991E-004	0.00000E+000	-7.52035E-005	-2.40040E-001	1.88999E-001	3.57640E+000	9	...........
	71	0.96	1.83431E-001	-3.98867E-004	0.00000E+000	-7.31644E-005	-2.40040E-001	1.83470E-001	3.57640E+000	9	...........
	72	0.97333	1.77881E-001	-3.97911E-004	0.00000E+000	-7.07807E-005	-2.40040E-001	1.77914E-001	3.57640E+000	9	...........
	73	0.98667	1.72406E-001	-3.98351E-004	0.00000E+000	-6.86780E-005	-2.40040E-001	1.72441E-001	3.57640E+000	9	...........
	74	1	1.66944E-001	-3.99322E-004	0.00000E+000	-6.66646E-005	-2.40040E-001	1.66976E-001	3.57632E+000	9	...........
	75	1.01333	1.61402E-001	-3.99515E-004	0.00000E+000	-6.44826E-005	-2.40040E-001	1.61430E-001	3.57630E+000	9	...........
	76	1.02667	1.55987E-001	-3.98759E-004	0.00000E+000	-6.22014E-005	-2.40040E-001	1.56006E-001	3.57630E+000	9	...........
	77	1.04	1.50608E-001	-3.98671E-004	0.00000E+000	-6.00428E-005	-2.40040E-001	1.50631E-001	3.57630E+000	9	...........
	78	1.05333	1.45264E-001	-3.98606E-004	0.00000E+000	-5.79032E-005	-2.40040E-001	1.45291E-001	3.57630E+000	9	...........
	79	1.06667	1.40064E-001	-3.99431E-004	0.00000E+000	-5.59461E-005	-2.40040E-001	1.40089E-001	3.57630E+000	9	...........
	80	1.08	1.34730E-001	-3.99466E-004	0.00000E+000	-5.38199E-005	-2.40040E-001	1.34751E-001	3.57630E+000	9	...........
	81	1.09333	1.29381E-001	-3.99382E-004	0.00000E+000	-5.16726E-005	-2.40040E-001	1.29405E-001	3.57630E+000	9	...........
	82	1.10667	1.24196E-001	-3.98867E-004	0.00000E+000	-4.95376E-005	-2.40040E-001	1.24210E-001	3.57630E+000	9	...........
	83	1.12	1.19009E-001	-3.98682E-004	0.00000E+000	-4.74466E-005	-2.40040E-001	1.19033E-001	3.57630E+000	9	...........
	84	1.13333	1.13935E-001	-3.98109E-004	0.00000E+000	-4.53586E-005	-2.40040E-001	1.13958E-001	3.57630E+000	9	...........
	85	1.14667	1.08806E-001	-3.99137E-004	0.00000E+000	-4.34284E-005	-2.40040E-001	1.08821E-001	3.57630E+000	9	...........
	86	1.16	1.03654E-001	-3.97999E-004	0.00000E+000	-4.12541E-005	-2.40040E-001	1.03674E-001	3.57630E+000	9	...........
	87	1.17333	9.86526E-002	-3.99491E-004	0.00000E+000	-3.94108E-005	-2.40040E-001	9.86630E-002	3.57630E+000	9	...........
	88	1.18667	9.36412E-002	-3.98411E-004	0.00000E+000	-3.73077E-005	-2.40040E-001	9.36622E-002	3.57630E+000	9	...........
	89	1.2	8.86502E-002	-3.98710E-004	0.00000E+000	-3.53458E-005	-2.40040E-001	8.86710E-002	3.57630E+000	9	...........
	90	1.21333	8.36731E-002	-3.99491E-004	0.00000E+000	-3.34266E-005	-2.40040E-001	8.36860E-002	3.57630E+000	9	...........
	91	1.22667	7.87016E-002	-3.96732E-004	0.00000E+000	-3.12234E-005	-2.40040E-001	7.87132E-002	3.57630E+000	9	...........
	92	1.24	7.37732E-002	-3.99101E-004	0.00000E+000	-2.94430E-005	-2.40040E-001	7.37801E-002	3.57630E+000	9	...........
	93	1.25333	6.89723E-002	-3.98358E-004	0.00000E+000	-2.74757E-005	-2.40040E-001	6.89811E-002	3.57630E+000	9	...........
	94	1.26667	6.42249E-002	-3.98882E-004	0.00000E+000	-2.56182E-005	-2.40040E-001	6.42287E-002	3.57630E+000	9	...........
	95	1.28	5.93722E-002	-3.97748E-004	0.00000E+000	-2.36152E-005	-2.40040E-001	5.93743E-002	3.57630E+000	9	...........
	96	1.29333	5.45924E-002	-3.99221E-004	0.00000E+000	-2.17944E-005	-2.40040E-001	5.45934E-002	3.57630E+000	9	...........
	97	1.30667	4.97994E-002	-3.98409E-004	0.00000E+000	-1.98405E-005	-2.40040E-001	4.98018E-002	3.57630E+000	9	...........
	98	1.32	4.50927E-002	-3.97329E-004	0.00000E+000	-1.79166E-005	-2.40040E-001	4.50957E-002	3.57630E+000	9	...........
	99	1.33333	4.03774E-002	-3.98238E-004	0.00000E+000	-1.60798E-005	-2.40040E-001	4.03754E-002	3.57630E+000	9	...........
	100	1.34667	3.57216E-002	-3.99771E-004	0.00000E+000	-1.42804E-005	-2.40040E-001	3.57189E-002	3.57630E+000	9	...........
	101	1.36	3.11022E-002	-3.99007E-004	0.00000E+000	-1.24100E-005	-2.40040E-001	3.10963E-002	3.57630E+000	9	...........
	102	1.37333	2.65096E-002	-3.98702E-004	0.00000E+000	-1.05694E-005	-2.40040E-001	2.65050E-002	3.57630E+000	9	...........
	103	1.38667	2.18876E-002	-3.98651E-004	0.00000E+000	-8.72550E-006	-2.40040E-001	2.18806E-002	3.57630E+000	9	...........
	104	1.4	1.72244E-002	-3.98797E-004	0.00000E+000	-6.86904E-006	-2.40040E-001	1.72171E-002	3.57630E+000	9	...........
	105	1.41333	1.26842E-002	-3.96921E-004	0.00000E+000	-5.03463E-006	-2.40040E-001	1.26675E-002	3.57630E+000	9	...........
	106	1.42667	8.19975E-003	-3.97931E-004	0.00000E+000	-3.26294E-006	-2.40040E-001	8.18404E-003	3.57630E+000	9	...........
	107	1.44	3.79079E-003	-3.98232E-004	0.00000E+000	-1.50962E-006	-2.40040E-001	3.77013E-003	3.57630E+000	9	...........
	108	1.44667	5.18012E-004	-3.98556E-004	0.00000E+000	-2.06457E-007	-2.40040E-001	4.98728E-004	3.57630E+000	9	...........
STARTTIMEOFFSET	QUANT	2003.676	Start Time Offset (s)
