EXPLAIN
TAG	PWR800_DISCHARGE
TITLE	LABEL	PWR Cyclic Charge Discharge (Cell) - Discharge Step	Test &Identifier
DATE	LABEL	12-7-2017	Date
TIME	LABEL	15:15:38	Time
NOTES	NOTES	3	&Notes...
	supercap test cell
	0.4mg
	6M KOH
PSTAT	PSTAT	IFC5000-01520	Potentiostat
CAPACITY	QUANT	1.00000E-003	Capacity (A-hr)
CELLTYPE	SELECTOR	1	&Cell Type
WORKINGCONNECTION	SELECTOR	0	&Working Lead
MAXDISCHARGETIME	VARIABLEANDUNITS	1.00000E+002	s	1.00000E+002	second(s)	Max &Discharge Time
DISCHARGEMODE	MULTIPARAM	0	4.00000E-004	&Discharge Mode	Constant Current	Amp(s)
SAMPLETIME	QUANT	1.00000E-002	Sa&mple Period (s)
DISCHARGESTOPAT1	MULTIPARAM	3	0.00000E+000	Discharge Stop At &1	Voltage < Limit	V
DISCHARGESTOPAT2	MULTIPARAM	0	0.00000E+000	Discharge Stop At &2	None	N/A
AESBHCSELECTOR	TOGGLE	F	Save Both Half Cells
IRCOMP	TOGGLE	F	IR &Measure
EOC	QUANT	0	Open Circuit (V)
SEQUENCER	TOGGLE	TRUE	Run as Sequence
PSTATMODEL	IQUANT	53	Pstat Model
PSTATSECTION	LABEL	IFC5000-01520	Pstat Section
PSTATSERIALNO	LABEL	01520	Pstat Serial Number
CTRLMODE	IQUANT	0	Control Mode
ELECTROMETER	IQUANT	1	RE=0 or CS=1
IESTAB	IQUANT	0	I/E Stability
CASPEED	IQUANT	4	Control Amp Speed
CONVENTION	IQUANT	1	Current Convention
ICHRANGE	IQUANT	2	Ich Range
ICHRANGEMODE	TOGGLE	T	Ich Auto Range
ICHOFFSETENABLE	TOGGLE	F	Ich Offset Enable
ICHOFFSET	QUANT	0	Ich Offset (V)
ICHFILTER	IQUANT	1	Ich Filter
VCHRANGE	IQUANT	2	Vch Range
VCHRANGEMODE	TOGGLE	T	Vch Auto Range
VCHOFFSETENABLE	TOGGLE	F	Vch Offset Enable
VCHOFFSET	QUANT	0	Vch Offset (V)
VCHFILTER	IQUANT	1	Vch Filter
IERANGELOWERLIMIT	IQUANT	9	I/E Range Lower Limit
IERANGEMODE	TOGGLE	F	I/E AutoRange
IERANGE	IQUANT	9	I/E Range
ACHSELECT	IQUANT	1	Ach Select
ACHRANGE	IQUANT	2	Ach Range
ACHOFFSETENABLE	TOGGLE	F	Ach Offset Enable
ACHOFFSET	QUANT	0	Ach Offset (V)
ACHFILTER	IQUANT	1	Ach Filter
CABLEID	IQUANT	14	Cable ID
DCCALDATE	LABEL	5-7-2017	DC Calibration Date
ACCALDATE	LABEL	12/3/2015	AC Calibration Date
FRAMEWORKVERSION	QUANT	7.01	Framework Version
INSTRUMENTVERSION	LABEL	4.00	Instrument Version
CURVE	TABLE	104
	Pt	T	Vf	Im	Vu	Pwr	Sig	Ach	Temp	IERange	Over
	#	s	V	A	V	W	V	V	deg C	#	bits
	0	0.013333	6.85361E-001	-3.98234E-004	0.00000E+000	-2.72934E-004	-2.40040E-001	6.85594E-001	3.57640E+000	9	...........
	1	0.026667	6.71842E-001	-3.97577E-004	0.00000E+000	-2.67109E-004	-2.40040E-001	6.72110E-001	3.57640E+000	9	...........
	2	0.04	6.60003E-001	-3.99172E-004	0.00000E+000	-2.63455E-004	-2.40040E-001	6.60257E-001	3.57640E+000	9	...........
	3	0.053333	6.49261E-001	-3.97558E-004	0.00000E+000	-2.58119E-004	-2.40040E-001	6.49502E-001	3.57640E+000	9	...........
	4	0.066667	6.39138E-001	-3.98680E-004	0.00000E+000	-2.54811E-004	-2.40040E-001	6.39374E-001	3.57640E+000	9	...........
	5	0.08	6.29419E-001	-3.98725E-004	0.00000E+000	-2.50965E-004	-2.40040E-001	6.29659E-001	3.57640E+000	9	...........
	6	0.093333	6.20107E-001	-3.98119E-004	0.00000E+000	-2.46876E-004	-2.40040E-001	6.20314E-001	3.57640E+000	9	...........
	7	0.106667	6.10956E-001	-3.99082E-004	0.00000E+000	-2.43822E-004	-2.40040E-001	6.11226E-001	3.57640E+000	9	...........
	8	0.12	6.02084E-001	-3.98675E-004	0.00000E+000	-2.40036E-004	-2.40040E-001	6.02337E-001	3.57640E+000	9	...........
	9	0.133333	5.93359E-001	-3.98000E-004	0.00000E+000	-2.36157E-004	-2.40040E-001	5.93595E-001	3.57640E+000	9	...........
	10	0.146667	5.84694E-001	-3.99365E-004	0.00000E+000	-2.33506E-004	-2.40040E-001	5.84931E-001	3.57640E+000	9	...........
	11	0.16	5.76244E-001	-3.98380E-004	0.00000E+000	-2.29564E-004	-2.40040E-001	5.76478E-001	3.57640E+000	9	...........
	12	0.173333	5.67865E-001	-3.98996E-004	0.00000E+000	-2.26576E-004	-2.40040E-001	5.68093E-001	3.57640E+000	9	...........
	13	0.186667	5.59563E-001	-3.99036E-004	0.00000E+000	-2.23286E-004	-2.40040E-001	5.59796E-001	3.57640E+000	9	...........
	14	0.2	5.51366E-001	-3.98584E-004	0.00000E+000	-2.19766E-004	-2.40040E-001	5.51586E-001	3.57640E+000	9	...........
	15	0.213333	5.43195E-001	-3.98685E-004	0.00000E+000	-2.16564E-004	-2.40040E-001	5.43414E-001	3.57640E+000	9	...........
	16	0.226667	5.35094E-001	-3.99457E-004	0.00000E+000	-2.13747E-004	-2.40040E-001	5.35306E-001	3.57640E+000	9	...........
	17	0.24	5.27079E-001	-4.00205E-004	0.00000E+000	-2.10940E-004	-2.40040E-001	5.27281E-001	3.57640E+000	9	...........
	18	0.253333	5.19068E-001	-3.98400E-004	0.00000E+000	-2.06797E-004	-2.40040E-001	5.19282E-001	3.57640E+000	9	...........
	19	0.266667	5.11152E-001	-3.98712E-004	0.00000E+000	-2.03802E-004	-2.40040E-001	5.11374E-001	3.57640E+000	9	...........
	20	0.28	5.03210E-001	-3.99156E-004	0.00000E+000	-2.00859E-004	-2.40040E-001	5.03418E-001	3.57640E+000	9	...........
	21	0.293333	4.95373E-001	-3.98278E-004	0.00000E+000	-1.97296E-004	-2.40040E-001	4.95599E-001	3.57640E+000	9	...........
	22	0.306667	4.87575E-001	-3.98019E-004	0.00000E+000	-1.94064E-004	-2.40040E-001	4.87765E-001	3.57640E+000	9	...........
	23	0.32	4.80151E-001	-3.99527E-004	0.00000E+000	-1.91833E-004	-2.40040E-001	4.80253E-001	3.57640E+000	9	...........
	24	0.333333	4.72419E-001	-3.98598E-004	0.00000E+000	-1.88305E-004	-2.40040E-001	4.72513E-001	3.57640E+000	9	...........
	25	0.346667	4.64770E-001	-3.98771E-004	0.00000E+000	-1.85337E-004	-2.40040E-001	4.64865E-001	3.57640E+000	9	...........
	26	0.36	4.57258E-001	-3.99450E-004	0.00000E+000	-1.82652E-004	-2.40040E-001	4.57346E-001	3.57640E+000	9	...........
	27	0.373333	4.49738E-001	-3.98827E-004	0.00000E+000	-1.79368E-004	-2.40040E-001	4.49822E-001	3.57640E+000	9	...........
	28	0.386667	4.42199E-001	-3.98655E-004	0.00000E+000	-1.76285E-004	-2.40040E-001	4.42291E-001	3.57640E+000	9	...........
	29	0.4	4.34794E-001	-3.99330E-004	0.00000E+000	-1.73627E-004	-2.40040E-001	4.34877E-001	3.57640E+000	9	...........
	30	0.413333	4.27384E-001	-3.97853E-004	0.00000E+000	-1.70036E-004	-2.40040E-001	4.27471E-001	3.57640E+000	9	...........
	31	0.426667	4.19978E-001	-3.98937E-004	0.00000E+000	-1.67545E-004	-2.40040E-001	4.20061E-001	3.57640E+000	9	...........
	32	0.44	4.12595E-001	-3.99998E-004	0.00000E+000	-1.65037E-004	-2.40040E-001	4.12678E-001	3.57640E+000	9	...........
	33	0.453333	4.05335E-001	-3.98544E-004	0.00000E+000	-1.61544E-004	-2.40040E-001	4.05413E-001	3.57640E+000	9	...........
	34	0.466667	3.98151E-001	-3.98698E-004	0.00000E+000	-1.58742E-004	-2.40040E-001	3.98230E-001	3.57640E+000	9	...........
	35	0.48	3.90956E-001	-3.99863E-004	0.00000E+000	-1.56329E-004	-2.40040E-001	3.91030E-001	3.57640E+000	9	...........
	36	0.493333	3.83794E-001	-3.99337E-004	0.00000E+000	-1.53263E-004	-2.40040E-001	3.83866E-001	3.57640E+000	9	...........
	37	0.506667	3.76637E-001	-3.98665E-004	0.00000E+000	-1.50152E-004	-2.40040E-001	3.76711E-001	3.57640E+000	9	...........
	38	0.52	3.69543E-001	-3.99141E-004	0.00000E+000	-1.47500E-004	-2.40040E-001	3.69609E-001	3.57640E+000	9	...........
	39	0.533333	3.62479E-001	-3.99119E-004	0.00000E+000	-1.44672E-004	-2.40040E-001	3.62550E-001	3.57640E+000	9	...........
	40	0.546667	3.55539E-001	-3.98686E-004	0.00000E+000	-1.41748E-004	-2.40040E-001	3.55601E-001	3.57640E+000	9	...........
	41	0.56	3.48650E-001	-3.98142E-004	0.00000E+000	-1.38812E-004	-2.40040E-001	3.48714E-001	3.57640E+000	9	...........
	42	0.573333	3.41705E-001	-3.98904E-004	0.00000E+000	-1.36308E-004	-2.40040E-001	3.41767E-001	3.57640E+000	9	...........
	43	0.586667	3.34880E-001	-3.97299E-004	0.00000E+000	-1.33047E-004	-2.40040E-001	3.34940E-001	3.57640E+000	9	...........
	44	0.6	3.28127E-001	-3.98237E-004	0.00000E+000	-1.30673E-004	-2.40040E-001	3.28184E-001	3.57640E+000	9	...........
	45	0.613333	3.21343E-001	-3.99311E-004	0.00000E+000	-1.28316E-004	-2.40040E-001	3.21399E-001	3.57640E+000	9	...........
	46	0.626667	3.14628E-001	-3.98301E-004	0.00000E+000	-1.25317E-004	-2.40040E-001	3.14692E-001	3.57640E+000	9	...........
	47	0.64	3.07920E-001	-3.99382E-004	0.00000E+000	-1.22978E-004	-2.40040E-001	3.07982E-001	3.57640E+000	9	...........
	48	0.653333	3.01323E-001	-3.97249E-004	0.00000E+000	-1.19700E-004	-2.40040E-001	3.01383E-001	3.57640E+000	9	...........
	49	0.666667	2.94797E-001	-3.98353E-004	0.00000E+000	-1.17433E-004	-2.40040E-001	2.94853E-001	3.57640E+000	9	...........
	50	0.68	2.88267E-001	-3.98908E-004	0.00000E+000	-1.14992E-004	-2.40040E-001	2.88324E-001	3.57640E+000	9	...........
	51	0.693333	2.81752E-001	-3.97391E-004	0.00000E+000	-1.11966E-004	-2.40040E-001	2.81805E-001	3.57640E+000	9	...........
	52	0.706667	2.75230E-001	-3.98001E-004	0.00000E+000	-1.09542E-004	-2.40040E-001	2.75282E-001	3.57640E+000	9	...........
	53	0.72	2.68864E-001	-3.98369E-004	0.00000E+000	-1.07107E-004	-2.40040E-001	2.68914E-001	3.57640E+000	9	...........
	54	0.733333	2.62554E-001	-3.98535E-004	0.00000E+000	-1.04637E-004	-2.40040E-001	2.62608E-001	3.57640E+000	9	...........
	55	0.746667	2.56252E-001	-3.98024E-004	0.00000E+000	-1.01994E-004	-2.40040E-001	2.56302E-001	3.57640E+000	9	...........
	56	0.76	2.49956E-001	-3.99265E-004	0.00000E+000	-9.97987E-005	-2.40040E-001	2.50002E-001	3.57640E+000	9	...........
	57	0.773333	2.43672E-001	-3.97947E-004	0.00000E+000	-9.69684E-005	-2.40040E-001	2.43718E-001	3.57640E+000	9	...........
	58	0.786667	2.37488E-001	-3.98669E-004	0.00000E+000	-9.46788E-005	-2.40040E-001	2.37524E-001	3.57640E+000	9	...........
	59	0.8	2.31328E-001	-3.98194E-004	0.00000E+000	-9.21133E-005	-2.40040E-001	2.31370E-001	3.57640E+000	9	...........
	60	0.813333	2.25286E-001	-3.98154E-004	0.00000E+000	-8.96986E-005	-2.40040E-001	2.25329E-001	3.57640E+000	9	...........
	61	0.826667	2.19294E-001	-3.98453E-004	0.00000E+000	-8.73783E-005	-2.40040E-001	2.19336E-001	3.57640E+000	9	...........
	62	0.84	2.13383E-001	-3.98867E-004	0.00000E+000	-8.51112E-005	-2.40040E-001	2.13423E-001	3.57640E+000	9	...........
	63	0.853333	2.07439E-001	-3.98192E-004	0.00000E+000	-8.26004E-005	-2.40040E-001	2.07473E-001	3.57640E+000	9	...........
	64	0.866667	2.01441E-001	-3.99375E-004	0.00000E+000	-8.04504E-005	-2.40040E-001	2.01477E-001	3.57640E+000	9	...........
	65	0.88	1.95481E-001	-3.99581E-004	0.00000E+000	-7.81106E-005	-2.40040E-001	1.95514E-001	3.57640E+000	9	...........
	66	0.893333	1.89699E-001	-3.98230E-004	0.00000E+000	-7.55439E-005	-2.40040E-001	1.89732E-001	3.57640E+000	9	...........
	67	0.906667	1.83850E-001	-3.98747E-004	0.00000E+000	-7.33096E-005	-2.40040E-001	1.83883E-001	3.57640E+000	9	...........
	68	0.92	1.78083E-001	-3.98287E-004	0.00000E+000	-7.09284E-005	-2.40040E-001	1.78113E-001	3.57640E+000	9	...........
	69	0.933333	1.72402E-001	-3.99076E-004	0.00000E+000	-6.88015E-005	-2.40040E-001	1.72435E-001	3.57640E+000	9	...........
	70	0.946667	1.66732E-001	-3.99081E-004	0.00000E+000	-6.65396E-005	-2.40040E-001	1.66761E-001	3.57640E+000	9	...........
	71	0.96	1.61110E-001	-3.98875E-004	0.00000E+000	-6.42627E-005	-2.40040E-001	1.61138E-001	3.57640E+000	9	...........
	72	0.97333	1.55490E-001	-3.98578E-004	0.00000E+000	-6.19749E-005	-2.40040E-001	1.55519E-001	3.57640E+000	9	...........
	73	0.98667	1.49925E-001	-3.98858E-004	0.00000E+000	-5.97988E-005	-2.40040E-001	1.49951E-001	3.57640E+000	9	...........
	74	1	1.44428E-001	-3.99002E-004	0.00000E+000	-5.76270E-005	-2.40040E-001	1.44455E-001	3.57640E+000	9	...........
	75	1.01333	1.38945E-001	-3.99369E-004	0.00000E+000	-5.54903E-005	-2.40040E-001	1.38966E-001	3.57640E+000	9	...........
	76	1.02667	1.33505E-001	-3.98687E-004	0.00000E+000	-5.32266E-005	-2.40040E-001	1.33533E-001	3.57640E+000	9	...........
	77	1.04	1.28054E-001	-3.97860E-004	0.00000E+000	-5.09477E-005	-2.40040E-001	1.28080E-001	3.57640E+000	9	...........
	78	1.05333	1.22555E-001	-3.99237E-004	0.00000E+000	-4.89285E-005	-2.40040E-001	1.22579E-001	3.57640E+000	9	...........
	79	1.06667	1.17156E-001	-3.97407E-004	0.00000E+000	-4.65586E-005	-2.40040E-001	1.17176E-001	3.57640E+000	9	...........
	80	1.08	1.11827E-001	-3.99854E-004	0.00000E+000	-4.47146E-005	-2.40040E-001	1.11848E-001	3.57640E+000	9	...........
	81	1.09333	1.06541E-001	-3.98796E-004	0.00000E+000	-4.24881E-005	-2.40040E-001	1.06558E-001	3.57640E+000	9	...........
	82	1.10667	1.01291E-001	-3.98325E-004	0.00000E+000	-4.03467E-005	-2.40040E-001	1.01311E-001	3.57640E+000	9	...........
	83	1.12	9.59535E-002	-3.98610E-004	0.00000E+000	-3.82481E-005	-2.40040E-001	9.59652E-002	3.57640E+000	9	...........
	84	1.13333	9.07655E-002	-3.98184E-004	0.00000E+000	-3.61414E-005	-2.40040E-001	9.07789E-002	3.57640E+000	9	...........
	85	1.14667	8.56667E-002	-3.98857E-004	0.00000E+000	-3.41688E-005	-2.40040E-001	8.56864E-002	3.57640E+000	9	...........
	86	1.16	8.05755E-002	-3.98766E-004	0.00000E+000	-3.21307E-005	-2.40040E-001	8.05838E-002	3.57640E+000	9	...........
	87	1.17333	7.55710E-002	-3.99861E-004	0.00000E+000	-3.02179E-005	-2.40040E-001	7.55768E-002	3.57640E+000	9	...........
	88	1.18667	7.05496E-002	-3.98860E-004	0.00000E+000	-2.81394E-005	-2.40040E-001	7.05516E-002	3.57640E+000	9	...........
	89	1.2	6.56073E-002	-3.98975E-004	0.00000E+000	-2.61757E-005	-2.40040E-001	6.56164E-002	3.57640E+000	9	...........
	90	1.21333	6.06422E-002	-3.98023E-004	0.00000E+000	-2.41370E-005	-2.40040E-001	6.06514E-002	3.57640E+000	9	...........
	91	1.22667	5.57006E-002	-3.97050E-004	0.00000E+000	-2.21159E-005	-2.40040E-001	5.57063E-002	3.57640E+000	9	...........
	92	1.24	5.07877E-002	-3.98747E-004	0.00000E+000	-2.02514E-005	-2.40040E-001	5.07949E-002	3.57640E+000	9	...........
	93	1.25333	4.59326E-002	-3.99156E-004	0.00000E+000	-1.83343E-005	-2.40040E-001	4.59340E-002	3.57640E+000	9	...........
	94	1.26667	4.10617E-002	-3.99292E-004	0.00000E+000	-1.63956E-005	-2.40040E-001	4.10653E-002	3.57640E+000	9	...........
	95	1.28	3.61707E-002	-3.97696E-004	0.00000E+000	-1.43849E-005	-2.40040E-001	3.61758E-002	3.57640E+000	9	...........
	96	1.29333	3.14175E-002	-3.99268E-004	0.00000E+000	-1.25440E-005	-2.40040E-001	3.14205E-002	3.57640E+000	9	...........
	97	1.30667	2.67284E-002	-3.98214E-004	0.00000E+000	-1.06436E-005	-2.40040E-001	2.67243E-002	3.57640E+000	9	...........
	98	1.32	2.20203E-002	-3.99227E-004	0.00000E+000	-8.79111E-006	-2.40040E-001	2.20130E-002	3.57640E+000	9	...........
	99	1.33333	1.73637E-002	-3.98992E-004	0.00000E+000	-6.92798E-006	-2.40040E-001	1.73546E-002	3.57640E+000	9	...........
	100	1.34667	1.26010E-002	-3.98104E-004	0.00000E+000	-5.01649E-006	-2.40040E-001	1.25902E-002	3.57640E+000	9	...........
	101	1.36	7.92770E-003	-3.99775E-004	0.00000E+000	-3.16930E-006	-2.40040E-001	7.91533E-003	3.57640E+000	9	...........
	102	1.37333	3.35021E-003	-3.98553E-004	0.00000E+000	-1.33524E-006	-2.40040E-001	3.33118E-003	3.57640E+000	9	...........
	103	1.37833	1.74124E-004	-3.99042E-004	0.00000E+000	-6.94829E-008	-2.40040E-001	1.49637E-004	3.57640E+000	9	...........
STARTTIMEOFFSET	QUANT	2702.215	Start Time Offset (s)
