EXPLAIN
TAG	PWR800_DISCHARGE
TITLE	LABEL	PWR Cyclic Charge Discharge (Cell) - Discharge Step	Test &Identifier
DATE	LABEL	12-7-2017	Date
TIME	LABEL	15:00:16	Time
NOTES	NOTES	3	&Notes...
	supercap test cell
	0.4mg
	6M KOH
PSTAT	PSTAT	IFC5000-01520	Potentiostat
CAPACITY	QUANT	1.00000E-003	Capacity (A-hr)
CELLTYPE	SELECTOR	1	&Cell Type
WORKINGCONNECTION	SELECTOR	0	&Working Lead
MAXDISCHARGETIME	VARIABLEANDUNITS	1.00000E+002	s	1.00000E+002	second(s)	Max &Discharge Time
DISCHARGEMODE	MULTIPARAM	0	4.00000E-004	&Discharge Mode	Constant Current	Amp(s)
SAMPLETIME	QUANT	1.00000E-002	Sa&mple Period (s)
DISCHARGESTOPAT1	MULTIPARAM	3	0.00000E+000	Discharge Stop At &1	Voltage < Limit	V
DISCHARGESTOPAT2	MULTIPARAM	0	0.00000E+000	Discharge Stop At &2	None	N/A
AESBHCSELECTOR	TOGGLE	F	Save Both Half Cells
IRCOMP	TOGGLE	F	IR &Measure
EOC	QUANT	0	Open Circuit (V)
SEQUENCER	TOGGLE	TRUE	Run as Sequence
PSTATMODEL	IQUANT	53	Pstat Model
PSTATSECTION	LABEL	IFC5000-01520	Pstat Section
PSTATSERIALNO	LABEL	01520	Pstat Serial Number
CTRLMODE	IQUANT	0	Control Mode
ELECTROMETER	IQUANT	1	RE=0 or CS=1
IESTAB	IQUANT	0	I/E Stability
CASPEED	IQUANT	4	Control Amp Speed
CONVENTION	IQUANT	1	Current Convention
ICHRANGE	IQUANT	2	Ich Range
ICHRANGEMODE	TOGGLE	T	Ich Auto Range
ICHOFFSETENABLE	TOGGLE	F	Ich Offset Enable
ICHOFFSET	QUANT	0	Ich Offset (V)
ICHFILTER	IQUANT	1	Ich Filter
VCHRANGE	IQUANT	2	Vch Range
VCHRANGEMODE	TOGGLE	T	Vch Auto Range
VCHOFFSETENABLE	TOGGLE	F	Vch Offset Enable
VCHOFFSET	QUANT	0	Vch Offset (V)
VCHFILTER	IQUANT	1	Vch Filter
IERANGELOWERLIMIT	IQUANT	9	I/E Range Lower Limit
IERANGEMODE	TOGGLE	F	I/E AutoRange
IERANGE	IQUANT	9	I/E Range
ACHSELECT	IQUANT	1	Ach Select
ACHRANGE	IQUANT	2	Ach Range
ACHOFFSETENABLE	TOGGLE	F	Ach Offset Enable
ACHOFFSET	QUANT	0	Ach Offset (V)
ACHFILTER	IQUANT	1	Ach Filter
CABLEID	IQUANT	14	Cable ID
DCCALDATE	LABEL	5-7-2017	DC Calibration Date
ACCALDATE	LABEL	12/3/2015	AC Calibration Date
FRAMEWORKVERSION	QUANT	7.01	Framework Version
INSTRUMENTVERSION	LABEL	4.00	Instrument Version
CURVE	TABLE	109
	Pt	T	Vf	Im	Vu	Pwr	Sig	Ach	Temp	IERange	Over
	#	s	V	A	V	W	V	V	deg C	#	bits
	0	0.013333	6.93505E-001	-3.98686E-004	0.00000E+000	-2.76491E-004	-2.40040E-001	6.93744E-001	3.57720E+000	9	...........
	1	0.026667	6.80588E-001	-3.98756E-004	0.00000E+000	-2.71389E-004	-2.40040E-001	6.80822E-001	3.57720E+000	9	...........
	2	0.04	6.69311E-001	-3.99025E-004	0.00000E+000	-2.67072E-004	-2.40040E-001	6.69540E-001	3.57720E+000	9	...........
	3	0.053333	6.58947E-001	-3.98795E-004	0.00000E+000	-2.62785E-004	-2.40040E-001	6.59176E-001	3.57720E+000	9	...........
	4	0.066667	6.49161E-001	-3.97906E-004	0.00000E+000	-2.58305E-004	-2.40040E-001	6.49374E-001	3.57720E+000	9	...........
	5	0.08	6.39848E-001	-3.98150E-004	0.00000E+000	-2.54755E-004	-2.40040E-001	6.40086E-001	3.57720E+000	9	...........
	6	0.093333	6.30823E-001	-3.98636E-004	0.00000E+000	-2.51469E-004	-2.40040E-001	6.31074E-001	3.57720E+000	9	...........
	7	0.106667	6.22061E-001	-3.97671E-004	0.00000E+000	-2.47375E-004	-2.40040E-001	6.22274E-001	3.57720E+000	9	...........
	8	0.12	6.13529E-001	-3.98479E-004	0.00000E+000	-2.44479E-004	-2.40040E-001	6.13759E-001	3.57720E+000	9	...........
	9	0.133333	6.05096E-001	-3.99524E-004	0.00000E+000	-2.41751E-004	-2.40040E-001	6.05356E-001	3.57720E+000	9	...........
	10	0.146667	5.96792E-001	-3.98907E-004	0.00000E+000	-2.38065E-004	-2.40040E-001	5.97016E-001	3.57720E+000	9	...........
	11	0.16	5.88518E-001	-3.99228E-004	0.00000E+000	-2.34953E-004	-2.40040E-001	5.88750E-001	3.57720E+000	9	...........
	12	0.173333	5.80457E-001	-3.98211E-004	0.00000E+000	-2.31145E-004	-2.40040E-001	5.80687E-001	3.57720E+000	9	...........
	13	0.186667	5.72496E-001	-4.00130E-004	0.00000E+000	-2.29073E-004	-2.40040E-001	5.72688E-001	3.57720E+000	9	...........
	14	0.2	5.64563E-001	-3.98264E-004	0.00000E+000	-2.24845E-004	-2.40040E-001	5.64767E-001	3.57720E+000	9	...........
	15	0.213333	5.56681E-001	-3.98652E-004	0.00000E+000	-2.21922E-004	-2.40040E-001	5.56894E-001	3.57720E+000	9	...........
	16	0.226667	5.48836E-001	-3.99269E-004	0.00000E+000	-2.19133E-004	-2.40040E-001	5.49021E-001	3.57720E+000	9	...........
	17	0.24	5.41066E-001	-3.98225E-004	0.00000E+000	-2.15466E-004	-2.40040E-001	5.41276E-001	3.57720E+000	9	...........
	18	0.253333	5.33344E-001	-3.98465E-004	0.00000E+000	-2.12518E-004	-2.40040E-001	5.33545E-001	3.57720E+000	9	...........
	19	0.266667	5.25704E-001	-4.00134E-004	0.00000E+000	-2.10352E-004	-2.40040E-001	5.25899E-001	3.57720E+000	9	...........
	20	0.28	5.18118E-001	-3.99058E-004	0.00000E+000	-2.06759E-004	-2.40040E-001	5.18297E-001	3.57720E+000	9	...........
	21	0.293333	5.10501E-001	-3.97792E-004	0.00000E+000	-2.03074E-004	-2.40040E-001	5.10710E-001	3.57720E+000	9	...........
	22	0.306667	5.02927E-001	-3.98187E-004	0.00000E+000	-2.00259E-004	-2.40040E-001	5.03164E-001	3.57720E+000	9	...........
	23	0.32	4.95501E-001	-3.98729E-004	0.00000E+000	-1.97571E-004	-2.40040E-001	4.95729E-001	3.57720E+000	9	...........
	24	0.333333	4.87977E-001	-3.98143E-004	0.00000E+000	-1.94284E-004	-2.40040E-001	4.88225E-001	3.57720E+000	9	...........
	25	0.346667	4.80811E-001	-3.98352E-004	0.00000E+000	-1.91532E-004	-2.40040E-001	4.80908E-001	3.57720E+000	9	...........
	26	0.36	4.73445E-001	-3.98892E-004	0.00000E+000	-1.88853E-004	-2.40040E-001	4.73543E-001	3.57720E+000	9	...........
	27	0.373333	4.66150E-001	-3.97901E-004	0.00000E+000	-1.85481E-004	-2.40040E-001	4.66245E-001	3.57720E+000	9	...........
	28	0.386667	4.58859E-001	-3.99499E-004	0.00000E+000	-1.83314E-004	-2.40040E-001	4.58953E-001	3.57720E+000	9	...........
	29	0.4	4.51621E-001	-3.99686E-004	0.00000E+000	-1.80506E-004	-2.40040E-001	4.51713E-001	3.57720E+000	9	...........
	30	0.413333	4.44424E-001	-3.98522E-004	0.00000E+000	-1.77113E-004	-2.40040E-001	4.44519E-001	3.57720E+000	9	...........
	31	0.426667	4.37310E-001	-3.98714E-004	0.00000E+000	-1.74361E-004	-2.40040E-001	4.37396E-001	3.57720E+000	9	...........
	32	0.44	4.30146E-001	-3.98368E-004	0.00000E+000	-1.71356E-004	-2.40040E-001	4.30230E-001	3.57720E+000	9	...........
	33	0.453333	4.23059E-001	-3.99432E-004	0.00000E+000	-1.68984E-004	-2.40040E-001	4.23149E-001	3.57720E+000	9	...........
	34	0.466667	4.16006E-001	-3.98816E-004	0.00000E+000	-1.65910E-004	-2.40040E-001	4.16098E-001	3.57720E+000	9	...........
	35	0.48	4.09045E-001	-3.98351E-004	0.00000E+000	-1.62943E-004	-2.40040E-001	4.09124E-001	3.57720E+000	9	...........
	36	0.493333	4.02034E-001	-3.98341E-004	0.00000E+000	-1.60146E-004	-2.40040E-001	4.02112E-001	3.57720E+000	9	...........
	37	0.506667	3.95151E-001	-3.98302E-004	0.00000E+000	-1.57389E-004	-2.40040E-001	3.95226E-001	3.57720E+000	9	...........
	38	0.52	3.88235E-001	-3.98045E-004	0.00000E+000	-1.54535E-004	-2.40040E-001	3.88313E-001	3.57720E+000	9	...........
	39	0.533333	3.81360E-001	-3.98136E-004	0.00000E+000	-1.51833E-004	-2.40040E-001	3.81439E-001	3.57720E+000	9	...........
	40	0.546667	3.74630E-001	-3.99467E-004	0.00000E+000	-1.49652E-004	-2.40040E-001	3.74696E-001	3.57720E+000	9	...........
	41	0.56	3.67878E-001	-3.98240E-004	0.00000E+000	-1.46504E-004	-2.40040E-001	3.67949E-001	3.57682E+000	9	...........
	42	0.573333	3.61206E-001	-3.98177E-004	0.00000E+000	-1.43824E-004	-2.40040E-001	3.61283E-001	3.57660E+000	9	...........
	43	0.586667	3.54574E-001	-3.99851E-004	0.00000E+000	-1.41777E-004	-2.40040E-001	3.54643E-001	3.57660E+000	9	...........
	44	0.6	3.47960E-001	-3.99665E-004	0.00000E+000	-1.39067E-004	-2.40040E-001	3.48034E-001	3.57660E+000	9	...........
	45	0.613333	3.41400E-001	-3.98395E-004	0.00000E+000	-1.36012E-004	-2.40040E-001	3.41466E-001	3.57660E+000	9	...........
	46	0.626667	3.34879E-001	-3.99238E-004	0.00000E+000	-1.33696E-004	-2.40040E-001	3.34943E-001	3.57660E+000	9	...........
	47	0.64	3.28306E-001	-3.97910E-004	0.00000E+000	-1.30636E-004	-2.40040E-001	3.28370E-001	3.57660E+000	9	...........
	48	0.653333	3.21806E-001	-3.99322E-004	0.00000E+000	-1.28504E-004	-2.40040E-001	3.21865E-001	3.57660E+000	9	...........
	49	0.666667	3.15361E-001	-3.98547E-004	0.00000E+000	-1.25686E-004	-2.40040E-001	3.15425E-001	3.57660E+000	9	...........
	50	0.68	3.08967E-001	-3.97835E-004	0.00000E+000	-1.22918E-004	-2.40040E-001	3.09028E-001	3.57660E+000	9	...........
	51	0.693333	3.02610E-001	-3.99126E-004	0.00000E+000	-1.20780E-004	-2.40040E-001	3.02669E-001	3.57660E+000	9	...........
	52	0.706667	2.96348E-001	-3.98523E-004	0.00000E+000	-1.18102E-004	-2.40040E-001	2.96407E-001	3.57660E+000	9	...........
	53	0.72	2.90074E-001	-4.00805E-004	0.00000E+000	-1.16263E-004	-2.40040E-001	2.90130E-001	3.57660E+000	9	...........
	54	0.733333	2.83904E-001	-3.97950E-004	0.00000E+000	-1.12980E-004	-2.40040E-001	2.83962E-001	3.57660E+000	9	...........
	55	0.746667	2.77719E-001	-4.00162E-004	0.00000E+000	-1.11132E-004	-2.40040E-001	2.77769E-001	3.57660E+000	9	...........
	56	0.76	2.71621E-001	-3.98445E-004	0.00000E+000	-1.08226E-004	-2.40040E-001	2.71672E-001	3.57660E+000	9	...........
	57	0.773333	2.65513E-001	-3.98332E-004	0.00000E+000	-1.05762E-004	-2.40040E-001	2.65567E-001	3.57660E+000	9	...........
	58	0.786667	2.59368E-001	-3.98591E-004	0.00000E+000	-1.03382E-004	-2.40040E-001	2.59411E-001	3.57660E+000	9	...........
	59	0.8	2.53342E-001	-3.97973E-004	0.00000E+000	-1.00823E-004	-2.40040E-001	2.53388E-001	3.57660E+000	9	...........
	60	0.813333	2.47314E-001	-3.98810E-004	0.00000E+000	-9.86315E-005	-2.40040E-001	2.47354E-001	3.57660E+000	9	...........
	61	0.826667	2.41387E-001	-3.98470E-004	0.00000E+000	-9.61855E-005	-2.40040E-001	2.41420E-001	3.57660E+000	9	...........
	62	0.84	2.35563E-001	-3.98965E-004	0.00000E+000	-9.39812E-005	-2.40040E-001	2.35602E-001	3.57660E+000	9	...........
	63	0.853333	2.29752E-001	-3.98493E-004	0.00000E+000	-9.15546E-005	-2.40040E-001	2.29795E-001	3.57660E+000	9	...........
	64	0.866667	2.23924E-001	-3.98220E-004	0.00000E+000	-8.91711E-005	-2.40040E-001	2.23961E-001	3.57660E+000	9	...........
	65	0.88	2.18093E-001	-3.98481E-004	0.00000E+000	-8.69058E-005	-2.40040E-001	2.18128E-001	3.57660E+000	9	...........
	66	0.893333	2.12274E-001	-3.98546E-004	0.00000E+000	-8.46010E-005	-2.40040E-001	2.12311E-001	3.57660E+000	9	...........
	67	0.906667	2.06589E-001	-3.99522E-004	0.00000E+000	-8.25368E-005	-2.40040E-001	2.06622E-001	3.57660E+000	9	...........
	68	0.92	2.00924E-001	-3.99478E-004	0.00000E+000	-8.02647E-005	-2.40040E-001	2.00962E-001	3.57660E+000	9	...........
	69	0.933333	1.95227E-001	-3.98950E-004	0.00000E+000	-7.78860E-005	-2.40040E-001	1.95268E-001	3.57660E+000	9	...........
	70	0.946667	1.89635E-001	-3.97872E-004	0.00000E+000	-7.54503E-005	-2.40040E-001	1.89666E-001	3.57660E+000	9	...........
	71	0.96	1.84079E-001	-3.98115E-004	0.00000E+000	-7.32848E-005	-2.40040E-001	1.84115E-001	3.57660E+000	9	...........
	72	0.97333	1.78537E-001	-3.97722E-004	0.00000E+000	-7.10079E-005	-2.40040E-001	1.78571E-001	3.57660E+000	9	...........
	73	0.98667	1.72978E-001	-3.99614E-004	0.00000E+000	-6.91244E-005	-2.40040E-001	1.73013E-001	3.57660E+000	9	...........
	74	1	1.67480E-001	-3.98281E-004	0.00000E+000	-6.67042E-005	-2.40040E-001	1.67514E-001	3.57660E+000	9	...........
	75	1.01333	1.62115E-001	-3.97987E-004	0.00000E+000	-6.45199E-005	-2.40040E-001	1.62145E-001	3.57660E+000	9	...........
	76	1.02667	1.56637E-001	-3.98869E-004	0.00000E+000	-6.24776E-005	-2.40040E-001	1.56671E-001	3.57660E+000	9	...........
	77	1.04	1.51310E-001	-3.99460E-004	0.00000E+000	-6.04423E-005	-2.40040E-001	1.51334E-001	3.57660E+000	9	...........
	78	1.05333	1.45929E-001	-3.98801E-004	0.00000E+000	-5.81966E-005	-2.40040E-001	1.45951E-001	3.57660E+000	9	...........
	79	1.06667	1.40543E-001	-4.00050E-004	0.00000E+000	-5.62244E-005	-2.40040E-001	1.40568E-001	3.57660E+000	9	...........
	80	1.08	1.35271E-001	-3.98492E-004	0.00000E+000	-5.39043E-005	-2.40040E-001	1.35298E-001	3.57660E+000	9	...........
	81	1.09333	1.30061E-001	-3.97877E-004	0.00000E+000	-5.17484E-005	-2.40040E-001	1.30085E-001	3.57660E+000	9	...........
	82	1.10667	1.24813E-001	-3.99440E-004	0.00000E+000	-4.98554E-005	-2.40040E-001	1.24827E-001	3.57660E+000	9	...........
	83	1.12	1.19623E-001	-3.98291E-004	0.00000E+000	-4.76448E-005	-2.40040E-001	1.19650E-001	3.57660E+000	9	...........
	84	1.13333	1.14544E-001	-3.99043E-004	0.00000E+000	-4.57080E-005	-2.40040E-001	1.14565E-001	3.57660E+000	9	...........
	85	1.14667	1.09461E-001	-3.98517E-004	0.00000E+000	-4.36221E-005	-2.40040E-001	1.09483E-001	3.57660E+000	9	...........
	86	1.16	1.04352E-001	-3.98895E-004	0.00000E+000	-4.16256E-005	-2.40040E-001	1.04367E-001	3.57660E+000	9	...........
	87	1.17333	9.93318E-002	-3.98811E-004	0.00000E+000	-3.96146E-005	-2.40040E-001	9.93537E-002	3.57660E+000	9	...........
	88	1.18667	9.43200E-002	-3.99138E-004	0.00000E+000	-3.76467E-005	-2.40040E-001	9.43406E-002	3.57660E+000	9	...........
	89	1.2	8.92547E-002	-3.99411E-004	0.00000E+000	-3.56493E-005	-2.40040E-001	8.92706E-002	3.57660E+000	9	...........
	90	1.21333	8.42581E-002	-3.98171E-004	0.00000E+000	-3.35491E-005	-2.40040E-001	8.42758E-002	3.57660E+000	9	...........
	91	1.22667	7.92336E-002	-3.97770E-004	0.00000E+000	-3.15167E-005	-2.40040E-001	7.92457E-002	3.57660E+000	9	...........
	92	1.24	7.43312E-002	-3.98824E-004	0.00000E+000	-2.96450E-005	-2.40040E-001	7.43325E-002	3.57660E+000	9	...........
	93	1.25333	6.94934E-002	-3.98051E-004	0.00000E+000	-2.76619E-005	-2.40040E-001	6.94981E-002	3.57660E+000	9	...........
	94	1.26667	6.46870E-002	-3.98438E-004	0.00000E+000	-2.57738E-005	-2.40040E-001	6.46961E-002	3.57660E+000	9	...........
	95	1.28	5.98725E-002	-3.97639E-004	0.00000E+000	-2.38077E-005	-2.40040E-001	5.98799E-002	3.57660E+000	9	...........
	96	1.29333	5.50895E-002	-3.99342E-004	0.00000E+000	-2.19995E-005	-2.40040E-001	5.50914E-002	3.57660E+000	9	...........
	97	1.30667	5.03603E-002	-3.97858E-004	0.00000E+000	-2.00362E-005	-2.40040E-001	5.03672E-002	3.57660E+000	9	...........
	98	1.32	4.57178E-002	-3.99593E-004	0.00000E+000	-1.82685E-005	-2.40040E-001	4.57236E-002	3.57660E+000	9	...........
	99	1.33333	4.09423E-002	-3.99591E-004	0.00000E+000	-1.63602E-005	-2.40040E-001	4.09439E-002	3.57660E+000	9	...........
	100	1.34667	3.62641E-002	-3.98220E-004	0.00000E+000	-1.44411E-005	-2.40040E-001	3.62653E-002	3.57660E+000	9	...........
	101	1.36	3.16763E-002	-3.97567E-004	0.00000E+000	-1.25935E-005	-2.40040E-001	3.16735E-002	3.57660E+000	9	...........
	102	1.37333	2.71443E-002	-3.98599E-004	0.00000E+000	-1.08197E-005	-2.40040E-001	2.71345E-002	3.57660E+000	9	...........
	103	1.38667	2.25325E-002	-3.99488E-004	0.00000E+000	-9.00144E-006	-2.40040E-001	2.25229E-002	3.57660E+000	9	...........
	104	1.4	1.79173E-002	-3.99106E-004	0.00000E+000	-7.15091E-006	-2.40040E-001	1.79059E-002	3.57660E+000	9	...........
	105	1.41333	1.33261E-002	-3.99622E-004	0.00000E+000	-5.32540E-006	-2.40040E-001	1.33112E-002	3.57660E+000	9	...........
	106	1.42667	8.83963E-003	-3.97984E-004	0.00000E+000	-3.51803E-006	-2.40040E-001	8.82200E-003	3.57660E+000	9	...........
	107	1.44	4.37445E-003	-3.98712E-004	0.00000E+000	-1.74415E-006	-2.40040E-001	4.35527E-003	3.57660E+000	9	...........
	108	1.44833	6.76571E-004	-3.99911E-004	0.00000E+000	-2.70569E-007	-2.40040E-001	6.59449E-004	3.57660E+000	9	...........
STARTTIMEOFFSET	QUANT	1985.988	Start Time Offset (s)
