EXPLAIN
TAG	PWR800_DISCHARGE
TITLE	LABEL	PWR Cyclic Charge Discharge (Cell) - Discharge Step	Test &Identifier
DATE	LABEL	12-7-2017	Date
TIME	LABEL	14:19:25	Time
NOTES	NOTES	3	&Notes...
	supercap test cell
	0.4mg
	6M KOH
PSTAT	PSTAT	IFC5000-01520	Potentiostat
CAPACITY	QUANT	1.00000E-003	Capacity (A-hr)
CELLTYPE	SELECTOR	1	&Cell Type
WORKINGCONNECTION	SELECTOR	0	&Working Lead
MAXDISCHARGETIME	VARIABLEANDUNITS	1.00000E+002	s	1.00000E+002	second(s)	Max &Discharge Time
DISCHARGEMODE	MULTIPARAM	0	4.00000E-004	&Discharge Mode	Constant Current	Amp(s)
SAMPLETIME	QUANT	1.00000E-002	Sa&mple Period (s)
DISCHARGESTOPAT1	MULTIPARAM	3	0.00000E+000	Discharge Stop At &1	Voltage < Limit	V
DISCHARGESTOPAT2	MULTIPARAM	0	0.00000E+000	Discharge Stop At &2	None	N/A
AESBHCSELECTOR	TOGGLE	F	Save Both Half Cells
IRCOMP	TOGGLE	F	IR &Measure
EOC	QUANT	0	Open Circuit (V)
SEQUENCER	TOGGLE	TRUE	Run as Sequence
PSTATMODEL	IQUANT	53	Pstat Model
PSTATSECTION	LABEL	IFC5000-01520	Pstat Section
PSTATSERIALNO	LABEL	01520	Pstat Serial Number
CTRLMODE	IQUANT	0	Control Mode
ELECTROMETER	IQUANT	1	RE=0 or CS=1
IESTAB	IQUANT	0	I/E Stability
CASPEED	IQUANT	4	Control Amp Speed
CONVENTION	IQUANT	1	Current Convention
ICHRANGE	IQUANT	2	Ich Range
ICHRANGEMODE	TOGGLE	T	Ich Auto Range
ICHOFFSETENABLE	TOGGLE	F	Ich Offset Enable
ICHOFFSET	QUANT	0	Ich Offset (V)
ICHFILTER	IQUANT	1	Ich Filter
VCHRANGE	IQUANT	2	Vch Range
VCHRANGEMODE	TOGGLE	T	Vch Auto Range
VCHOFFSETENABLE	TOGGLE	F	Vch Offset Enable
VCHOFFSET	QUANT	0	Vch Offset (V)
VCHFILTER	IQUANT	1	Vch Filter
IERANGELOWERLIMIT	IQUANT	9	I/E Range Lower Limit
IERANGEMODE	TOGGLE	F	I/E AutoRange
IERANGE	IQUANT	9	I/E Range
ACHSELECT	IQUANT	1	Ach Select
ACHRANGE	IQUANT	2	Ach Range
ACHOFFSETENABLE	TOGGLE	F	Ach Offset Enable
ACHOFFSET	QUANT	0	Ach Offset (V)
ACHFILTER	IQUANT	1	Ach Filter
CABLEID	IQUANT	14	Cable ID
DCCALDATE	LABEL	5-7-2017	DC Calibration Date
ACCALDATE	LABEL	12/3/2015	AC Calibration Date
FRAMEWORKVERSION	QUANT	7.01	Framework Version
INSTRUMENTVERSION	LABEL	4.00	Instrument Version
CURVE	TABLE	143
	Pt	T	Vf	Im	Vu	Pwr	Sig	Ach	Temp	IERange	Over
	#	s	V	A	V	W	V	V	deg C	#	bits
	0	0.013333	7.24324E-001	-3.98861E-004	0.00000E+000	-2.88905E-004	-2.40040E-001	7.24526E-001	3.57550E+000	9	...........
	1	0.026667	7.14307E-001	-3.99572E-004	0.00000E+000	-2.85417E-004	-2.40040E-001	7.14533E-001	3.57550E+000	9	...........
	2	0.04	7.05476E-001	-3.98930E-004	0.00000E+000	-2.81436E-004	-2.40040E-001	7.05665E-001	3.57550E+000	9	...........
	3	0.053333	6.97283E-001	-3.98542E-004	0.00000E+000	-2.77896E-004	-2.40040E-001	6.97484E-001	3.57550E+000	9	...........
	4	0.066667	6.89504E-001	-3.97937E-004	0.00000E+000	-2.74379E-004	-2.40040E-001	6.89717E-001	3.57550E+000	9	...........
	5	0.08	6.82050E-001	-3.97487E-004	0.00000E+000	-2.71106E-004	-2.40040E-001	6.82239E-001	3.57550E+000	9	...........
	6	0.093333	6.74813E-001	-3.98751E-004	0.00000E+000	-2.69083E-004	-2.40040E-001	6.75015E-001	3.57550E+000	9	...........
	7	0.106667	6.67641E-001	-3.98401E-004	0.00000E+000	-2.65989E-004	-2.40040E-001	6.67859E-001	3.57550E+000	9	...........
	8	0.12	6.60699E-001	-3.98219E-004	0.00000E+000	-2.63103E-004	-2.40040E-001	6.60908E-001	3.57550E+000	9	...........
	9	0.133333	6.53971E-001	-3.99266E-004	0.00000E+000	-2.61108E-004	-2.40040E-001	6.54174E-001	3.57550E+000	9	...........
	10	0.146667	6.47274E-001	-3.99690E-004	0.00000E+000	-2.58709E-004	-2.40040E-001	6.47488E-001	3.57550E+000	9	...........
	11	0.16	6.40723E-001	-3.97350E-004	0.00000E+000	-2.54591E-004	-2.40040E-001	6.40961E-001	3.57550E+000	9	...........
	12	0.173333	6.34248E-001	-4.00033E-004	0.00000E+000	-2.53720E-004	-2.40040E-001	6.34452E-001	3.57550E+000	9	...........
	13	0.186667	6.27810E-001	-3.99176E-004	0.00000E+000	-2.50607E-004	-2.40040E-001	6.28014E-001	3.57550E+000	9	...........
	14	0.2	6.21360E-001	-3.98567E-004	0.00000E+000	-2.47653E-004	-2.40040E-001	6.21556E-001	3.57550E+000	9	...........
	15	0.213333	6.15056E-001	-3.99005E-004	0.00000E+000	-2.45411E-004	-2.40040E-001	6.15274E-001	3.57550E+000	9	...........
	16	0.226667	6.08708E-001	-3.99114E-004	0.00000E+000	-2.42944E-004	-2.40040E-001	6.08965E-001	3.57550E+000	9	...........
	17	0.24	6.02499E-001	-3.98307E-004	0.00000E+000	-2.39980E-004	-2.40040E-001	6.02755E-001	3.57550E+000	9	...........
	18	0.253333	5.96358E-001	-3.97526E-004	0.00000E+000	-2.37068E-004	-2.40040E-001	5.96578E-001	3.57550E+000	9	...........
	19	0.266667	5.90192E-001	-3.97417E-004	0.00000E+000	-2.34553E-004	-2.40040E-001	5.90423E-001	3.57550E+000	9	...........
	20	0.28	5.84144E-001	-3.98545E-004	0.00000E+000	-2.32807E-004	-2.40040E-001	5.84351E-001	3.57550E+000	9	...........
	21	0.293333	5.78086E-001	-3.97642E-004	0.00000E+000	-2.29872E-004	-2.40040E-001	5.78302E-001	3.57550E+000	9	...........
	22	0.306667	5.72087E-001	-3.99533E-004	0.00000E+000	-2.28568E-004	-2.40040E-001	5.72268E-001	3.57550E+000	9	...........
	23	0.32	5.66168E-001	-3.98653E-004	0.00000E+000	-2.25705E-004	-2.40040E-001	5.66347E-001	3.57550E+000	9	...........
	24	0.333333	5.60111E-001	-3.98007E-004	0.00000E+000	-2.22928E-004	-2.40040E-001	5.60280E-001	3.57556E+000	9	...........
	25	0.346667	5.54154E-001	-3.99018E-004	0.00000E+000	-2.21117E-004	-2.40040E-001	5.54326E-001	3.57560E+000	9	...........
	26	0.36	5.48198E-001	-3.99526E-004	0.00000E+000	-2.19019E-004	-2.40040E-001	5.48377E-001	3.57560E+000	9	...........
	27	0.373333	5.42294E-001	-3.99757E-004	0.00000E+000	-2.16786E-004	-2.40040E-001	5.42455E-001	3.57560E+000	9	...........
	28	0.386667	5.36496E-001	-3.97667E-004	0.00000E+000	-2.13347E-004	-2.40040E-001	5.36679E-001	3.57560E+000	9	...........
	29	0.4	5.30665E-001	-3.98615E-004	0.00000E+000	-2.11531E-004	-2.40040E-001	5.30846E-001	3.57560E+000	9	...........
	30	0.413333	5.24888E-001	-3.97185E-004	0.00000E+000	-2.08478E-004	-2.40040E-001	5.25054E-001	3.57560E+000	9	...........
	31	0.426667	5.19166E-001	-3.98075E-004	0.00000E+000	-2.06667E-004	-2.40040E-001	5.19363E-001	3.57560E+000	9	...........
	32	0.44	5.13390E-001	-3.98082E-004	0.00000E+000	-2.04371E-004	-2.40040E-001	5.13581E-001	3.57560E+000	9	...........
	33	0.453333	5.07598E-001	-3.98111E-004	0.00000E+000	-2.02080E-004	-2.40040E-001	5.07814E-001	3.57560E+000	9	...........
	34	0.466667	5.01926E-001	-3.99291E-004	0.00000E+000	-2.00414E-004	-2.40040E-001	5.02105E-001	3.57560E+000	9	...........
	35	0.48	4.96217E-001	-3.98313E-004	0.00000E+000	-1.97650E-004	-2.40040E-001	4.96409E-001	3.57560E+000	9	...........
	36	0.493333	4.90536E-001	-3.97886E-004	0.00000E+000	-1.95178E-004	-2.40040E-001	4.90715E-001	3.57560E+000	9	...........
	37	0.506667	4.85120E-001	-3.99793E-004	0.00000E+000	-1.93948E-004	-2.40040E-001	4.85233E-001	3.57560E+000	9	...........
	38	0.52	4.79576E-001	-3.99549E-004	0.00000E+000	-1.91614E-004	-2.40040E-001	4.79671E-001	3.57560E+000	9	...........
	39	0.533333	4.74009E-001	-3.98490E-004	0.00000E+000	-1.88888E-004	-2.40040E-001	4.74103E-001	3.57560E+000	9	...........
	40	0.546667	4.68425E-001	-3.98570E-004	0.00000E+000	-1.86700E-004	-2.40040E-001	4.68511E-001	3.57560E+000	9	...........
	41	0.56	4.62855E-001	-3.97693E-004	0.00000E+000	-1.84075E-004	-2.40040E-001	4.62940E-001	3.57560E+000	9	...........
	42	0.573333	4.57347E-001	-3.98383E-004	0.00000E+000	-1.82199E-004	-2.40040E-001	4.57435E-001	3.57560E+000	9	...........
	43	0.586667	4.51935E-001	-3.98837E-004	0.00000E+000	-1.80249E-004	-2.40040E-001	4.52027E-001	3.57560E+000	9	...........
	44	0.6	4.46580E-001	-3.99227E-004	0.00000E+000	-1.78287E-004	-2.40040E-001	4.46669E-001	3.57560E+000	9	...........
	45	0.613333	4.41072E-001	-3.98433E-004	0.00000E+000	-1.75738E-004	-2.40040E-001	4.41160E-001	3.57560E+000	9	...........
	46	0.626667	4.35594E-001	-3.98276E-004	0.00000E+000	-1.73486E-004	-2.40040E-001	4.35675E-001	3.57560E+000	9	...........
	47	0.64	4.30135E-001	-4.01212E-004	0.00000E+000	-1.72575E-004	-2.40040E-001	4.30216E-001	3.57560E+000	9	...........
	48	0.653333	4.24713E-001	-3.97749E-004	0.00000E+000	-1.68929E-004	-2.40040E-001	4.24798E-001	3.57560E+000	9	...........
	49	0.666667	4.19343E-001	-3.98356E-004	0.00000E+000	-1.67048E-004	-2.40040E-001	4.19427E-001	3.57560E+000	9	...........
	50	0.68	4.13980E-001	-3.99163E-004	0.00000E+000	-1.65245E-004	-2.40040E-001	4.14060E-001	3.57560E+000	9	...........
	51	0.693333	4.08648E-001	-3.98794E-004	0.00000E+000	-1.62966E-004	-2.40040E-001	4.08723E-001	3.57560E+000	9	...........
	52	0.706667	4.03293E-001	-3.98930E-004	0.00000E+000	-1.60886E-004	-2.40040E-001	4.03369E-001	3.57560E+000	9	...........
	53	0.72	3.98078E-001	-3.98793E-004	0.00000E+000	-1.58751E-004	-2.40040E-001	3.98151E-001	3.57560E+000	9	...........
	54	0.733333	3.92848E-001	-3.98090E-004	0.00000E+000	-1.56389E-004	-2.40040E-001	3.92914E-001	3.57560E+000	9	...........
	55	0.746667	3.87547E-001	-3.98020E-004	0.00000E+000	-1.54251E-004	-2.40040E-001	3.87611E-001	3.57560E+000	9	...........
	56	0.76	3.82265E-001	-3.97535E-004	0.00000E+000	-1.51964E-004	-2.40040E-001	3.82332E-001	3.57560E+000	9	...........
	57	0.773333	3.77029E-001	-3.98332E-004	0.00000E+000	-1.50183E-004	-2.40040E-001	3.77101E-001	3.57560E+000	9	...........
	58	0.786667	3.71824E-001	-3.97197E-004	0.00000E+000	-1.47687E-004	-2.40040E-001	3.71890E-001	3.57560E+000	9	...........
	59	0.8	3.66655E-001	-3.98907E-004	0.00000E+000	-1.46261E-004	-2.40040E-001	3.66724E-001	3.57560E+000	9	...........
	60	0.813333	3.61475E-001	-3.99458E-004	0.00000E+000	-1.44394E-004	-2.40040E-001	3.61547E-001	3.57560E+000	9	...........
	61	0.826667	3.56416E-001	-3.98035E-004	0.00000E+000	-1.41866E-004	-2.40040E-001	3.56483E-001	3.57560E+000	9	...........
	62	0.84	3.51317E-001	-3.97664E-004	0.00000E+000	-1.39706E-004	-2.40040E-001	3.51377E-001	3.57560E+000	9	...........
	63	0.853333	3.46228E-001	-3.99002E-004	0.00000E+000	-1.38146E-004	-2.40040E-001	3.46298E-001	3.57560E+000	9	...........
	64	0.866667	3.41100E-001	-3.98984E-004	0.00000E+000	-1.36093E-004	-2.40040E-001	3.41162E-001	3.57560E+000	9	...........
	65	0.88	3.36077E-001	-3.97702E-004	0.00000E+000	-1.33658E-004	-2.40040E-001	3.36139E-001	3.57560E+000	9	...........
	66	0.893333	3.31101E-001	-4.00217E-004	0.00000E+000	-1.32512E-004	-2.40040E-001	3.31164E-001	3.57560E+000	9	...........
	67	0.906667	3.26074E-001	-3.98240E-004	0.00000E+000	-1.29856E-004	-2.40040E-001	3.26133E-001	3.57560E+000	9	...........
	68	0.92	3.21111E-001	-3.99590E-004	0.00000E+000	-1.28313E-004	-2.40040E-001	3.21173E-001	3.57560E+000	9	...........
	69	0.933333	3.16015E-001	-3.98060E-004	0.00000E+000	-1.25793E-004	-2.40040E-001	3.16079E-001	3.57560E+000	9	...........
	70	0.946667	3.10962E-001	-3.99619E-004	0.00000E+000	-1.24266E-004	-2.40040E-001	3.11019E-001	3.57560E+000	9	...........
	71	0.96	3.06036E-001	-3.98716E-004	0.00000E+000	-1.22021E-004	-2.40040E-001	3.06095E-001	3.57560E+000	9	...........
	72	0.97333	3.01131E-001	-3.99027E-004	0.00000E+000	-1.20159E-004	-2.40040E-001	3.01189E-001	3.57560E+000	9	...........
	73	0.98667	2.96253E-001	-3.99106E-004	0.00000E+000	-1.18237E-004	-2.40040E-001	2.96309E-001	3.57560E+000	9	...........
	74	1	2.91435E-001	-3.97817E-004	0.00000E+000	-1.15938E-004	-2.40040E-001	2.91491E-001	3.57560E+000	9	...........
	75	1.01333	2.86588E-001	-3.97101E-004	0.00000E+000	-1.13804E-004	-2.40040E-001	2.86640E-001	3.57560E+000	9	...........
	76	1.02667	2.81768E-001	-3.97892E-004	0.00000E+000	-1.12113E-004	-2.40040E-001	2.81823E-001	3.57560E+000	9	...........
	77	1.04	2.76854E-001	-3.97341E-004	0.00000E+000	-1.10005E-004	-2.40040E-001	2.76907E-001	3.57560E+000	9	...........
	78	1.05333	2.72071E-001	-3.97925E-004	0.00000E+000	-1.08264E-004	-2.40040E-001	2.72121E-001	3.57560E+000	9	...........
	79	1.06667	2.67288E-001	-3.99087E-004	0.00000E+000	-1.06671E-004	-2.40040E-001	2.67337E-001	3.57560E+000	9	...........
	80	1.08	2.62507E-001	-3.98412E-004	0.00000E+000	-1.04586E-004	-2.40040E-001	2.62565E-001	3.57560E+000	9	...........
	81	1.09333	2.57796E-001	-3.99096E-004	0.00000E+000	-1.02885E-004	-2.40040E-001	2.57846E-001	3.57560E+000	9	...........
	82	1.10667	2.53069E-001	-3.98443E-004	0.00000E+000	-1.00834E-004	-2.40040E-001	2.53120E-001	3.57560E+000	9	...........
	83	1.12	2.48346E-001	-3.98833E-004	0.00000E+000	-9.90486E-005	-2.40040E-001	2.48395E-001	3.57560E+000	9	...........
	84	1.13333	2.43695E-001	-3.99518E-004	0.00000E+000	-9.73605E-005	-2.40040E-001	2.43740E-001	3.57560E+000	9	...........
	85	1.14667	2.39038E-001	-3.98296E-004	0.00000E+000	-9.52079E-005	-2.40040E-001	2.39079E-001	3.57560E+000	9	...........
	86	1.16	2.34416E-001	-3.97494E-004	0.00000E+000	-9.31792E-005	-2.40040E-001	2.34456E-001	3.57560E+000	9	...........
	87	1.17333	2.29705E-001	-3.97710E-004	0.00000E+000	-9.13561E-005	-2.40040E-001	2.29754E-001	3.57560E+000	9	...........
	88	1.18667	2.25100E-001	-3.97350E-004	0.00000E+000	-8.94433E-005	-2.40040E-001	2.25136E-001	3.57560E+000	9	...........
	89	1.2	2.20486E-001	-3.98301E-004	0.00000E+000	-8.78197E-005	-2.40040E-001	2.20529E-001	3.57560E+000	9	...........
	90	1.21333	2.15813E-001	-3.98576E-004	0.00000E+000	-8.60177E-005	-2.40040E-001	2.15856E-001	3.57560E+000	9	...........
	91	1.22667	2.11262E-001	-3.98866E-004	0.00000E+000	-8.42653E-005	-2.40040E-001	2.11303E-001	3.57560E+000	9	...........
	92	1.24	2.06701E-001	-3.99201E-004	0.00000E+000	-8.25154E-005	-2.40040E-001	2.06734E-001	3.57560E+000	9	...........
	93	1.25333	2.02154E-001	-3.98013E-004	0.00000E+000	-8.04598E-005	-2.40040E-001	2.02195E-001	3.57560E+000	9	...........
	94	1.26667	1.97647E-001	-3.97786E-004	0.00000E+000	-7.86211E-005	-2.40040E-001	1.97684E-001	3.57560E+000	9	...........
	95	1.28	1.93144E-001	-3.99383E-004	0.00000E+000	-7.71386E-005	-2.40040E-001	1.93181E-001	3.57560E+000	9	...........
	96	1.29333	1.88674E-001	-3.98418E-004	0.00000E+000	-7.51712E-005	-2.40040E-001	1.88710E-001	3.57560E+000	9	...........
	97	1.30667	1.84197E-001	-3.98627E-004	0.00000E+000	-7.34258E-005	-2.40040E-001	1.84231E-001	3.57560E+000	9	...........
	98	1.32	1.79716E-001	-3.98561E-004	0.00000E+000	-7.16280E-005	-2.40040E-001	1.79751E-001	3.57560E+000	9	...........
	99	1.33333	1.75191E-001	-3.99199E-004	0.00000E+000	-6.99361E-005	-2.40040E-001	1.75226E-001	3.57554E+000	9	...........
	100	1.34667	1.70737E-001	-3.99718E-004	0.00000E+000	-6.82468E-005	-2.40040E-001	1.70765E-001	3.57550E+000	9	...........
	101	1.36	1.66330E-001	-3.98954E-004	0.00000E+000	-6.63580E-005	-2.40040E-001	1.66358E-001	3.57550E+000	9	...........
	102	1.37333	1.61951E-001	-3.98453E-004	0.00000E+000	-6.45300E-005	-2.40040E-001	1.61980E-001	3.57550E+000	9	...........
	103	1.38667	1.57606E-001	-3.99221E-004	0.00000E+000	-6.29195E-005	-2.40040E-001	1.57636E-001	3.57550E+000	9	...........
	104	1.4	1.53250E-001	-3.98148E-004	0.00000E+000	-6.10161E-005	-2.40040E-001	1.53281E-001	3.57550E+000	9	...........
	105	1.41333	1.48850E-001	-3.98654E-004	0.00000E+000	-5.93398E-005	-2.40040E-001	1.48872E-001	3.57550E+000	9	...........
	106	1.42667	1.44554E-001	-3.98482E-004	0.00000E+000	-5.76022E-005	-2.40040E-001	1.44568E-001	3.57550E+000	9	...........
	107	1.44	1.40208E-001	-3.98521E-004	0.00000E+000	-5.58756E-005	-2.40040E-001	1.40229E-001	3.57550E+000	9	...........
	108	1.45333	1.35967E-001	-3.98472E-004	0.00000E+000	-5.41790E-005	-2.40040E-001	1.35985E-001	3.57550E+000	9	...........
	109	1.46667	1.31698E-001	-3.97923E-004	0.00000E+000	-5.24058E-005	-2.40040E-001	1.31720E-001	3.57550E+000	9	...........
	110	1.48	1.27396E-001	-3.98342E-004	0.00000E+000	-5.07471E-005	-2.40040E-001	1.27415E-001	3.57550E+000	9	...........
	111	1.49333	1.23105E-001	-3.98816E-004	0.00000E+000	-4.90962E-005	-2.40040E-001	1.23125E-001	3.57550E+000	9	...........
	112	1.50667	1.18799E-001	-3.98646E-004	0.00000E+000	-4.73588E-005	-2.40040E-001	1.18820E-001	3.57550E+000	9	...........
	113	1.52	1.14565E-001	-3.97524E-004	0.00000E+000	-4.55424E-005	-2.40040E-001	1.14587E-001	3.57550E+000	9	...........
	114	1.53333	1.10413E-001	-3.98897E-004	0.00000E+000	-4.40434E-005	-2.40040E-001	1.10433E-001	3.57550E+000	9	...........
	115	1.54667	1.06250E-001	-3.98508E-004	0.00000E+000	-4.23413E-005	-2.40040E-001	1.06269E-001	3.57550E+000	9	...........
	116	1.56	1.02087E-001	-3.99615E-004	0.00000E+000	-4.07953E-005	-2.40040E-001	1.02106E-001	3.57550E+000	9	...........
	117	1.57333	9.79717E-002	-3.99184E-004	0.00000E+000	-3.91088E-005	-2.40040E-001	9.79916E-002	3.57550E+000	9	...........
	118	1.58667	9.38316E-002	-3.98443E-004	0.00000E+000	-3.73865E-005	-2.40040E-001	9.38469E-002	3.57550E+000	9	...........
	119	1.6	8.97611E-002	-3.99069E-004	0.00000E+000	-3.58208E-005	-2.40040E-001	8.97786E-002	3.57550E+000	9	...........
	120	1.61333	8.57243E-002	-3.99015E-004	0.00000E+000	-3.42053E-005	-2.40040E-001	8.57371E-002	3.57550E+000	9	...........
	121	1.62667	8.16884E-002	-3.98722E-004	0.00000E+000	-3.25709E-005	-2.40040E-001	8.17014E-002	3.57550E+000	9	...........
	122	1.64	7.76553E-002	-4.00036E-004	0.00000E+000	-3.10649E-005	-2.40040E-001	7.76680E-002	3.57550E+000	9	...........
	123	1.65333	7.35865E-002	-3.97775E-004	0.00000E+000	-2.92709E-005	-2.40040E-001	7.35995E-002	3.57550E+000	9	...........
	124	1.66667	6.95448E-002	-3.98551E-004	0.00000E+000	-2.77172E-005	-2.40040E-001	6.95588E-002	3.57550E+000	9	...........
	125	1.68	6.55755E-002	-3.98065E-004	0.00000E+000	-2.61033E-005	-2.40040E-001	6.55879E-002	3.57550E+000	9	...........
	126	1.69333	6.14904E-002	-3.98565E-004	0.00000E+000	-2.45079E-005	-2.40040E-001	6.15006E-002	3.57550E+000	9	...........
	127	1.70667	5.74528E-002	-3.97521E-004	0.00000E+000	-2.28387E-005	-2.40040E-001	5.74612E-002	3.57550E+000	9	...........
	128	1.72	5.33703E-002	-3.99085E-004	0.00000E+000	-2.12993E-005	-2.40040E-001	5.33800E-002	3.57550E+000	9	...........
	129	1.73333	4.93814E-002	-3.97490E-004	0.00000E+000	-1.96286E-005	-2.40040E-001	4.93847E-002	3.57550E+000	9	...........
	130	1.74667	4.55183E-002	-3.99126E-004	0.00000E+000	-1.81676E-005	-2.40040E-001	4.55279E-002	3.57550E+000	9	...........
	131	1.76	4.14734E-002	-3.98461E-004	0.00000E+000	-1.65256E-005	-2.40040E-001	4.14808E-002	3.57550E+000	9	...........
	132	1.77333	3.75078E-002	-3.97380E-004	0.00000E+000	-1.49049E-005	-2.40040E-001	3.75128E-002	3.57550E+000	9	...........
	133	1.78667	3.36246E-002	-3.98697E-004	0.00000E+000	-1.34060E-005	-2.40040E-001	3.36238E-002	3.57550E+000	9	...........
	134	1.8	2.97082E-002	-3.97135E-004	0.00000E+000	-1.17982E-005	-2.40040E-001	2.97074E-002	3.57550E+000	9	...........
	135	1.81333	2.58414E-002	-3.98946E-004	0.00000E+000	-1.03093E-005	-2.40040E-001	2.58412E-002	3.57550E+000	9	...........
	136	1.82667	2.19894E-002	-3.98270E-004	0.00000E+000	-8.75770E-006	-2.40040E-001	2.19835E-002	3.57550E+000	9	...........
	137	1.84	1.81224E-002	-3.98796E-004	0.00000E+000	-7.22712E-006	-2.40040E-001	1.81184E-002	3.57550E+000	9	...........
	138	1.85333	1.43059E-002	-3.98841E-004	0.00000E+000	-5.70579E-006	-2.40040E-001	1.43000E-002	3.57550E+000	9	...........
	139	1.86667	1.04661E-002	-3.99106E-004	0.00000E+000	-4.17707E-006	-2.40040E-001	1.04549E-002	3.57550E+000	9	...........
	140	1.88	6.61053E-003	-3.98985E-004	0.00000E+000	-2.63750E-006	-2.40040E-001	6.59616E-003	3.57550E+000	9	...........
	141	1.89333	2.86780E-003	-3.99456E-004	0.00000E+000	-1.14556E-006	-2.40040E-001	2.85273E-003	3.57550E+000	9	...........
	142	1.89833	2.68862E-004	-3.96095E-004	0.00000E+000	-1.06495E-007	-2.40040E-001	2.50881E-004	3.57550E+000	9	...........
STARTTIMEOFFSET	QUANT	35.86167	Start Time Offset (s)
