EXPLAIN
TAG	PWR800_DISCHARGE
TITLE	LABEL	PWR Cyclic Charge Discharge (Cell) - Discharge Step	Test &Identifier
DATE	LABEL	12-7-2017	Date
TIME	LABEL	15:19:30	Time
NOTES	NOTES	3	&Notes...
	supercap test cell
	0.4mg
	6M KOH
PSTAT	PSTAT	IFC5000-01520	Potentiostat
CAPACITY	QUANT	1.00000E-003	Capacity (A-hr)
CELLTYPE	SELECTOR	1	&Cell Type
WORKINGCONNECTION	SELECTOR	0	&Working Lead
MAXDISCHARGETIME	VARIABLEANDUNITS	1.00000E+002	s	1.00000E+002	second(s)	Max &Discharge Time
DISCHARGEMODE	MULTIPARAM	0	4.00000E-004	&Discharge Mode	Constant Current	Amp(s)
SAMPLETIME	QUANT	1.00000E-002	Sa&mple Period (s)
DISCHARGESTOPAT1	MULTIPARAM	3	0.00000E+000	Discharge Stop At &1	Voltage < Limit	V
DISCHARGESTOPAT2	MULTIPARAM	0	0.00000E+000	Discharge Stop At &2	None	N/A
AESBHCSELECTOR	TOGGLE	F	Save Both Half Cells
IRCOMP	TOGGLE	F	IR &Measure
EOC	QUANT	0	Open Circuit (V)
SEQUENCER	TOGGLE	TRUE	Run as Sequence
PSTATMODEL	IQUANT	53	Pstat Model
PSTATSECTION	LABEL	IFC5000-01520	Pstat Section
PSTATSERIALNO	LABEL	01520	Pstat Serial Number
CTRLMODE	IQUANT	0	Control Mode
ELECTROMETER	IQUANT	1	RE=0 or CS=1
IESTAB	IQUANT	0	I/E Stability
CASPEED	IQUANT	4	Control Amp Speed
CONVENTION	IQUANT	1	Current Convention
ICHRANGE	IQUANT	2	Ich Range
ICHRANGEMODE	TOGGLE	T	Ich Auto Range
ICHOFFSETENABLE	TOGGLE	F	Ich Offset Enable
ICHOFFSET	QUANT	0	Ich Offset (V)
ICHFILTER	IQUANT	1	Ich Filter
VCHRANGE	IQUANT	2	Vch Range
VCHRANGEMODE	TOGGLE	T	Vch Auto Range
VCHOFFSETENABLE	TOGGLE	F	Vch Offset Enable
VCHOFFSET	QUANT	0	Vch Offset (V)
VCHFILTER	IQUANT	1	Vch Filter
IERANGELOWERLIMIT	IQUANT	9	I/E Range Lower Limit
IERANGEMODE	TOGGLE	F	I/E AutoRange
IERANGE	IQUANT	9	I/E Range
ACHSELECT	IQUANT	1	Ach Select
ACHRANGE	IQUANT	2	Ach Range
ACHOFFSETENABLE	TOGGLE	F	Ach Offset Enable
ACHOFFSET	QUANT	0	Ach Offset (V)
ACHFILTER	IQUANT	1	Ach Filter
CABLEID	IQUANT	14	Cable ID
DCCALDATE	LABEL	5-7-2017	DC Calibration Date
ACCALDATE	LABEL	12/3/2015	AC Calibration Date
FRAMEWORKVERSION	QUANT	7.01	Framework Version
INSTRUMENTVERSION	LABEL	4.00	Instrument Version
CURVE	TABLE	103
	Pt	T	Vf	Im	Vu	Pwr	Sig	Ach	Temp	IERange	Over
	#	s	V	A	V	W	V	V	deg C	#	bits
	0	0.013333	6.83250E-001	-3.98299E-004	0.00000E+000	-2.72138E-004	-2.40040E-001	6.83489E-001	3.57770E+000	9	...........
	1	0.026667	6.69604E-001	-3.98458E-004	0.00000E+000	-2.66809E-004	-2.40040E-001	6.69835E-001	3.57770E+000	9	...........
	2	0.04	6.57672E-001	-3.98608E-004	0.00000E+000	-2.62154E-004	-2.40040E-001	6.57910E-001	3.57770E+000	9	...........
	3	0.053333	6.46772E-001	-3.98660E-004	0.00000E+000	-2.57842E-004	-2.40040E-001	6.47036E-001	3.57770E+000	9	...........
	4	0.066667	6.36554E-001	-3.98567E-004	0.00000E+000	-2.53709E-004	-2.40040E-001	6.36798E-001	3.57770E+000	9	...........
	5	0.08	6.26784E-001	-3.98335E-004	0.00000E+000	-2.49670E-004	-2.40040E-001	6.27016E-001	3.57770E+000	9	...........
	6	0.093333	6.17330E-001	-3.99020E-004	0.00000E+000	-2.46327E-004	-2.40040E-001	6.17572E-001	3.57770E+000	9	...........
	7	0.106667	6.08051E-001	-3.99073E-004	0.00000E+000	-2.42657E-004	-2.40040E-001	6.08341E-001	3.57770E+000	9	...........
	8	0.12	5.99125E-001	-3.99287E-004	0.00000E+000	-2.39223E-004	-2.40040E-001	5.99387E-001	3.57770E+000	9	...........
	9	0.133333	5.90345E-001	-3.99875E-004	0.00000E+000	-2.36064E-004	-2.40040E-001	5.90600E-001	3.57770E+000	9	...........
	10	0.146667	5.81649E-001	-3.98978E-004	0.00000E+000	-2.32065E-004	-2.40040E-001	5.81875E-001	3.57770E+000	9	...........
	11	0.16	5.73170E-001	-3.99685E-004	0.00000E+000	-2.29087E-004	-2.40040E-001	5.73385E-001	3.57770E+000	9	...........
	12	0.173333	5.64690E-001	-3.97785E-004	0.00000E+000	-2.24625E-004	-2.40040E-001	5.64947E-001	3.57754E+000	9	...........
	13	0.186667	5.56325E-001	-3.98650E-004	0.00000E+000	-2.21779E-004	-2.40040E-001	5.56562E-001	3.57640E+000	9	...........
	14	0.2	5.48064E-001	-3.97978E-004	0.00000E+000	-2.18117E-004	-2.40040E-001	5.48307E-001	3.57640E+000	9	...........
	15	0.213333	5.39813E-001	-3.98477E-004	0.00000E+000	-2.15103E-004	-2.40040E-001	5.40074E-001	3.57640E+000	9	...........
	16	0.226667	5.31619E-001	-3.98688E-004	0.00000E+000	-2.11950E-004	-2.40040E-001	5.31865E-001	3.57640E+000	9	...........
	17	0.24	5.23575E-001	-3.98497E-004	0.00000E+000	-2.08643E-004	-2.40040E-001	5.23802E-001	3.57640E+000	9	...........
	18	0.253333	5.15588E-001	-3.97954E-004	0.00000E+000	-2.05180E-004	-2.40040E-001	5.15774E-001	3.57640E+000	9	...........
	19	0.266667	5.07609E-001	-3.98085E-004	0.00000E+000	-2.02072E-004	-2.40040E-001	5.07845E-001	3.57640E+000	9	...........
	20	0.28	4.99691E-001	-3.97948E-004	0.00000E+000	-1.98851E-004	-2.40040E-001	4.99896E-001	3.57640E+000	9	...........
	21	0.293333	4.91868E-001	-3.98268E-004	0.00000E+000	-1.95895E-004	-2.40040E-001	4.92041E-001	3.57640E+000	9	...........
	22	0.306667	4.84174E-001	-3.99039E-004	0.00000E+000	-1.93204E-004	-2.40040E-001	4.84271E-001	3.57640E+000	9	...........
	23	0.32	4.76443E-001	-3.98809E-004	0.00000E+000	-1.90010E-004	-2.40040E-001	4.76536E-001	3.57640E+000	9	...........
	24	0.333333	4.68697E-001	-3.99141E-004	0.00000E+000	-1.87076E-004	-2.40040E-001	4.68785E-001	3.57640E+000	9	...........
	25	0.346667	4.61054E-001	-3.99299E-004	0.00000E+000	-1.84098E-004	-2.40040E-001	4.61144E-001	3.57640E+000	9	...........
	26	0.36	4.53438E-001	-3.99184E-004	0.00000E+000	-1.81006E-004	-2.40040E-001	4.53526E-001	3.57640E+000	9	...........
	27	0.373333	4.45830E-001	-3.98727E-004	0.00000E+000	-1.77765E-004	-2.40040E-001	4.45913E-001	3.57640E+000	9	...........
	28	0.386667	4.38201E-001	-3.98295E-004	0.00000E+000	-1.74533E-004	-2.40040E-001	4.38285E-001	3.57640E+000	9	...........
	29	0.4	4.30667E-001	-4.00342E-004	0.00000E+000	-1.72414E-004	-2.40040E-001	4.30749E-001	3.57640E+000	9	...........
	30	0.413333	4.23224E-001	-3.98379E-004	0.00000E+000	-1.68604E-004	-2.40040E-001	4.23319E-001	3.57640E+000	9	...........
	31	0.426667	4.15751E-001	-3.97625E-004	0.00000E+000	-1.65313E-004	-2.40040E-001	4.15840E-001	3.57640E+000	9	...........
	32	0.44	4.08360E-001	-3.99661E-004	0.00000E+000	-1.63205E-004	-2.40040E-001	4.08447E-001	3.57640E+000	9	...........
	33	0.453333	4.01037E-001	-3.97765E-004	0.00000E+000	-1.59519E-004	-2.40040E-001	4.01110E-001	3.57640E+000	9	...........
	34	0.466667	3.93752E-001	-3.98856E-004	0.00000E+000	-1.57050E-004	-2.40040E-001	3.93830E-001	3.57640E+000	9	...........
	35	0.48	3.86523E-001	-3.98769E-004	0.00000E+000	-1.54133E-004	-2.40040E-001	3.86593E-001	3.57640E+000	9	...........
	36	0.493333	3.79365E-001	-3.98342E-004	0.00000E+000	-1.51117E-004	-2.40040E-001	3.79439E-001	3.57640E+000	9	...........
	37	0.506667	3.72259E-001	-3.98233E-004	0.00000E+000	-1.48246E-004	-2.40040E-001	3.72329E-001	3.57640E+000	9	...........
	38	0.52	3.65157E-001	-3.97996E-004	0.00000E+000	-1.45331E-004	-2.40040E-001	3.65230E-001	3.57640E+000	9	...........
	39	0.533333	3.58053E-001	-3.98612E-004	0.00000E+000	-1.42724E-004	-2.40040E-001	3.58121E-001	3.57640E+000	9	...........
	40	0.546667	3.50997E-001	-3.98622E-004	0.00000E+000	-1.39915E-004	-2.40040E-001	3.51067E-001	3.57640E+000	9	...........
	41	0.56	3.43993E-001	-3.98828E-004	0.00000E+000	-1.37194E-004	-2.40040E-001	3.44055E-001	3.57640E+000	9	...........
	42	0.573333	3.37024E-001	-3.98574E-004	0.00000E+000	-1.34329E-004	-2.40040E-001	3.37093E-001	3.57640E+000	9	...........
	43	0.586667	3.30114E-001	-3.99463E-004	0.00000E+000	-1.31868E-004	-2.40040E-001	3.30182E-001	3.57640E+000	9	...........
	44	0.6	3.23210E-001	-3.98883E-004	0.00000E+000	-1.28923E-004	-2.40040E-001	3.23272E-001	3.57640E+000	9	...........
	45	0.613333	3.16402E-001	-3.98877E-004	0.00000E+000	-1.26205E-004	-2.40040E-001	3.16465E-001	3.57640E+000	9	...........
	46	0.626667	3.09753E-001	-3.98288E-004	0.00000E+000	-1.23371E-004	-2.40040E-001	3.09816E-001	3.57640E+000	9	...........
	47	0.64	3.03088E-001	-3.99076E-004	0.00000E+000	-1.20955E-004	-2.40040E-001	3.03148E-001	3.57640E+000	9	...........
	48	0.653333	2.96465E-001	-3.99512E-004	0.00000E+000	-1.18441E-004	-2.40040E-001	2.96526E-001	3.57640E+000	9	...........
	49	0.666667	2.89890E-001	-3.99638E-004	0.00000E+000	-1.15851E-004	-2.40040E-001	2.89950E-001	3.57640E+000	9	...........
	50	0.68	2.83335E-001	-3.99068E-004	0.00000E+000	-1.13070E-004	-2.40040E-001	2.83388E-001	3.57640E+000	9	...........
	51	0.693333	2.76779E-001	-3.99539E-004	0.00000E+000	-1.10584E-004	-2.40040E-001	2.76834E-001	3.57640E+000	9	...........
	52	0.706667	2.70242E-001	-3.99066E-004	0.00000E+000	-1.07844E-004	-2.40040E-001	2.70303E-001	3.57640E+000	9	...........
	53	0.72	2.63835E-001	-3.98363E-004	0.00000E+000	-1.05102E-004	-2.40040E-001	2.63890E-001	3.57640E+000	9	...........
	54	0.733333	2.57431E-001	-3.99404E-004	0.00000E+000	-1.02819E-004	-2.40040E-001	2.57487E-001	3.57640E+000	9	...........
	55	0.746667	2.51082E-001	-3.99019E-004	0.00000E+000	-1.00187E-004	-2.40040E-001	2.51136E-001	3.57640E+000	9	...........
	56	0.76	2.44791E-001	-3.99407E-004	0.00000E+000	-9.77712E-005	-2.40040E-001	2.44834E-001	3.57640E+000	9	...........
	57	0.773333	2.38538E-001	-3.97789E-004	0.00000E+000	-9.48877E-005	-2.40040E-001	2.38587E-001	3.57640E+000	9	...........
	58	0.786667	2.32365E-001	-3.98840E-004	0.00000E+000	-9.26763E-005	-2.40040E-001	2.32413E-001	3.57640E+000	9	...........
	59	0.8	2.26145E-001	-3.99516E-004	0.00000E+000	-9.03487E-005	-2.40040E-001	2.26189E-001	3.57640E+000	9	...........
	60	0.813333	2.20022E-001	-3.98387E-004	0.00000E+000	-8.76540E-005	-2.40040E-001	2.20066E-001	3.57640E+000	9	...........
	61	0.826667	2.13927E-001	-3.98941E-004	0.00000E+000	-8.53443E-005	-2.40040E-001	2.13963E-001	3.57640E+000	9	...........
	62	0.84	2.07926E-001	-3.98451E-004	0.00000E+000	-8.28483E-005	-2.40040E-001	2.07967E-001	3.57640E+000	9	...........
	63	0.853333	2.01946E-001	-3.98468E-004	0.00000E+000	-8.04689E-005	-2.40040E-001	2.01984E-001	3.57640E+000	9	...........
	64	0.866667	1.96051E-001	-3.98832E-004	0.00000E+000	-7.81916E-005	-2.40040E-001	1.96094E-001	3.57640E+000	9	...........
	65	0.88	1.90170E-001	-3.98338E-004	0.00000E+000	-7.57522E-005	-2.40040E-001	1.90210E-001	3.57640E+000	9	...........
	66	0.893333	1.84274E-001	-3.97841E-004	0.00000E+000	-7.33118E-005	-2.40040E-001	1.84312E-001	3.57640E+000	9	...........
	67	0.906667	1.78400E-001	-4.00079E-004	0.00000E+000	-7.13742E-005	-2.40040E-001	1.78437E-001	3.57640E+000	9	...........
	68	0.92	1.72547E-001	-3.98898E-004	0.00000E+000	-6.88287E-005	-2.40040E-001	1.72577E-001	3.57640E+000	9	...........
	69	0.933333	1.66745E-001	-3.99661E-004	0.00000E+000	-6.66413E-005	-2.40040E-001	1.66778E-001	3.57640E+000	9	...........
	70	0.946667	1.61111E-001	-3.98827E-004	0.00000E+000	-6.42553E-005	-2.40040E-001	1.61139E-001	3.57640E+000	9	...........
	71	0.96	1.55441E-001	-3.97892E-004	0.00000E+000	-6.18488E-005	-2.40040E-001	1.55470E-001	3.57640E+000	9	...........
	72	0.97333	1.49845E-001	-3.97675E-004	0.00000E+000	-5.95895E-005	-2.40040E-001	1.49867E-001	3.57640E+000	9	...........
	73	0.98667	1.44209E-001	-3.99488E-004	0.00000E+000	-5.76098E-005	-2.40040E-001	1.44233E-001	3.57640E+000	9	...........
	74	1	1.38595E-001	-3.98884E-004	0.00000E+000	-5.52834E-005	-2.40040E-001	1.38628E-001	3.57640E+000	9	...........
	75	1.01333	1.33114E-001	-3.97972E-004	0.00000E+000	-5.29754E-005	-2.40040E-001	1.33141E-001	3.57640E+000	9	...........
	76	1.02667	1.27659E-001	-3.99317E-004	0.00000E+000	-5.09763E-005	-2.40040E-001	1.27687E-001	3.57640E+000	9	...........
	77	1.04	1.22176E-001	-3.97550E-004	0.00000E+000	-4.85712E-005	-2.40040E-001	1.22204E-001	3.57640E+000	9	...........
	78	1.05333	1.16834E-001	-3.98991E-004	0.00000E+000	-4.66156E-005	-2.40040E-001	1.16859E-001	3.57640E+000	9	...........
	79	1.06667	1.11463E-001	-3.99682E-004	0.00000E+000	-4.45496E-005	-2.40040E-001	1.11480E-001	3.57640E+000	9	...........
	80	1.08	1.06114E-001	-3.98745E-004	0.00000E+000	-4.23124E-005	-2.40040E-001	1.06139E-001	3.57640E+000	9	...........
	81	1.09333	1.00725E-001	-3.97819E-004	0.00000E+000	-4.00702E-005	-2.40040E-001	1.00748E-001	3.57640E+000	9	...........
	82	1.10667	9.55014E-002	-3.99728E-004	0.00000E+000	-3.81746E-005	-2.40040E-001	9.55198E-002	3.57640E+000	9	...........
	83	1.12	9.02439E-002	-3.99289E-004	0.00000E+000	-3.60334E-005	-2.40040E-001	9.02609E-002	3.57640E+000	9	...........
	84	1.13333	8.51334E-002	-3.99506E-004	0.00000E+000	-3.40114E-005	-2.40040E-001	8.51500E-002	3.57640E+000	9	...........
	85	1.14667	8.00268E-002	-3.99325E-004	0.00000E+000	-3.19567E-005	-2.40040E-001	8.00317E-002	3.57640E+000	9	...........
	86	1.16	7.49390E-002	-3.98461E-004	0.00000E+000	-2.98603E-005	-2.40040E-001	7.49500E-002	3.57640E+000	9	...........
	87	1.17333	6.98445E-002	-3.97588E-004	0.00000E+000	-2.77694E-005	-2.40040E-001	6.98509E-002	3.57641E+000	9	...........
	88	1.18667	6.48085E-002	-4.00684E-004	0.00000E+000	-2.59677E-005	-2.40040E-001	6.48166E-002	3.57650E+000	9	...........
	89	1.2	5.97411E-002	-3.99943E-004	0.00000E+000	-2.38930E-005	-2.40040E-001	5.97485E-002	3.57650E+000	9	...........
	90	1.21333	5.47488E-002	-3.99811E-004	0.00000E+000	-2.18892E-005	-2.40040E-001	5.47540E-002	3.57650E+000	9	...........
	91	1.22667	4.98527E-002	-3.98942E-004	0.00000E+000	-1.98883E-005	-2.40040E-001	4.98567E-002	3.57650E+000	9	...........
	92	1.24	4.49254E-002	-3.99544E-004	0.00000E+000	-1.79497E-005	-2.40040E-001	4.49287E-002	3.57650E+000	9	...........
	93	1.25333	4.00515E-002	-3.98791E-004	0.00000E+000	-1.59722E-005	-2.40040E-001	4.00564E-002	3.57650E+000	9	...........
	94	1.26667	3.52124E-002	-3.97878E-004	0.00000E+000	-1.40102E-005	-2.40040E-001	3.52102E-002	3.57650E+000	9	...........
	95	1.28	3.03249E-002	-3.98891E-004	0.00000E+000	-1.20963E-005	-2.40040E-001	3.03223E-002	3.57650E+000	9	...........
	96	1.29333	2.56115E-002	-3.98814E-004	0.00000E+000	-1.02142E-005	-2.40040E-001	2.56081E-002	3.57650E+000	9	...........
	97	1.30667	2.08551E-002	-3.99641E-004	0.00000E+000	-8.33454E-006	-2.40040E-001	2.08498E-002	3.57650E+000	9	...........
	98	1.32	1.61037E-002	-3.98700E-004	0.00000E+000	-6.42055E-006	-2.40040E-001	1.60917E-002	3.57650E+000	9	...........
	99	1.33333	1.14093E-002	-3.98562E-004	0.00000E+000	-4.54733E-006	-2.40040E-001	1.13981E-002	3.57650E+000	9	...........
	100	1.34667	6.70395E-003	-4.00122E-004	0.00000E+000	-2.68240E-006	-2.40040E-001	6.69497E-003	3.57650E+000	9	...........
	101	1.36	2.06721E-003	-3.98090E-004	0.00000E+000	-8.22935E-007	-2.40040E-001	2.04326E-003	3.57650E+000	9	...........
	102	1.36167	-5.52944E-004	-4.00090E-004	0.00000E+000	2.21227E-007	-2.40040E-001	-5.77027E-004	3.57650E+000	9	...........
STARTTIMEOFFSET	QUANT	2883.375	Start Time Offset (s)
