EXPLAIN
TAG	PWR800_DISCHARGE
TITLE	LABEL	PWR Cyclic Charge Discharge (Cell) - Discharge Step	Test &Identifier
DATE	LABEL	12-7-2017	Date
TIME	LABEL	15:11:49	Time
NOTES	NOTES	3	&Notes...
	supercap test cell
	0.4mg
	6M KOH
PSTAT	PSTAT	IFC5000-01520	Potentiostat
CAPACITY	QUANT	1.00000E-003	Capacity (A-hr)
CELLTYPE	SELECTOR	1	&Cell Type
WORKINGCONNECTION	SELECTOR	0	&Working Lead
MAXDISCHARGETIME	VARIABLEANDUNITS	1.00000E+002	s	1.00000E+002	second(s)	Max &Discharge Time
DISCHARGEMODE	MULTIPARAM	0	4.00000E-004	&Discharge Mode	Constant Current	Amp(s)
SAMPLETIME	QUANT	1.00000E-002	Sa&mple Period (s)
DISCHARGESTOPAT1	MULTIPARAM	3	0.00000E+000	Discharge Stop At &1	Voltage < Limit	V
DISCHARGESTOPAT2	MULTIPARAM	0	0.00000E+000	Discharge Stop At &2	None	N/A
AESBHCSELECTOR	TOGGLE	F	Save Both Half Cells
IRCOMP	TOGGLE	F	IR &Measure
EOC	QUANT	0	Open Circuit (V)
SEQUENCER	TOGGLE	TRUE	Run as Sequence
PSTATMODEL	IQUANT	53	Pstat Model
PSTATSECTION	LABEL	IFC5000-01520	Pstat Section
PSTATSERIALNO	LABEL	01520	Pstat Serial Number
CTRLMODE	IQUANT	0	Control Mode
ELECTROMETER	IQUANT	1	RE=0 or CS=1
IESTAB	IQUANT	0	I/E Stability
CASPEED	IQUANT	4	Control Amp Speed
CONVENTION	IQUANT	1	Current Convention
ICHRANGE	IQUANT	2	Ich Range
ICHRANGEMODE	TOGGLE	T	Ich Auto Range
ICHOFFSETENABLE	TOGGLE	F	Ich Offset Enable
ICHOFFSET	QUANT	0	Ich Offset (V)
ICHFILTER	IQUANT	1	Ich Filter
VCHRANGE	IQUANT	2	Vch Range
VCHRANGEMODE	TOGGLE	T	Vch Auto Range
VCHOFFSETENABLE	TOGGLE	F	Vch Offset Enable
VCHOFFSET	QUANT	0	Vch Offset (V)
VCHFILTER	IQUANT	1	Vch Filter
IERANGELOWERLIMIT	IQUANT	9	I/E Range Lower Limit
IERANGEMODE	TOGGLE	F	I/E AutoRange
IERANGE	IQUANT	9	I/E Range
ACHSELECT	IQUANT	1	Ach Select
ACHRANGE	IQUANT	2	Ach Range
ACHOFFSETENABLE	TOGGLE	F	Ach Offset Enable
ACHOFFSET	QUANT	0	Ach Offset (V)
ACHFILTER	IQUANT	1	Ach Filter
CABLEID	IQUANT	14	Cable ID
DCCALDATE	LABEL	5-7-2017	DC Calibration Date
ACCALDATE	LABEL	12/3/2015	AC Calibration Date
FRAMEWORKVERSION	QUANT	7.01	Framework Version
INSTRUMENTVERSION	LABEL	4.00	Instrument Version
CURVE	TABLE	105
	Pt	T	Vf	Im	Vu	Pwr	Sig	Ach	Temp	IERange	Over
	#	s	V	A	V	W	V	V	deg C	#	bits
	0	0.013333	6.86846E-001	-3.99303E-004	0.00000E+000	-2.74260E-004	-2.40040E-001	6.87054E-001	3.57670E+000	9	...........
	1	0.026667	6.73450E-001	-3.97352E-004	0.00000E+000	-2.67597E-004	-2.40040E-001	6.73653E-001	3.57670E+000	9	...........
	2	0.04	6.61721E-001	-3.98367E-004	0.00000E+000	-2.63608E-004	-2.40040E-001	6.61917E-001	3.57670E+000	9	...........
	3	0.053333	6.51013E-001	-3.97835E-004	0.00000E+000	-2.58996E-004	-2.40040E-001	6.51227E-001	3.57670E+000	9	...........
	4	0.066667	6.40885E-001	-3.98868E-004	0.00000E+000	-2.55628E-004	-2.40040E-001	6.41101E-001	3.57670E+000	9	...........
	5	0.08	6.31225E-001	-3.98424E-004	0.00000E+000	-2.51495E-004	-2.40040E-001	6.31422E-001	3.57670E+000	9	...........
	6	0.093333	6.21951E-001	-3.97550E-004	0.00000E+000	-2.47257E-004	-2.40040E-001	6.22166E-001	3.57670E+000	9	...........
	7	0.106667	6.12964E-001	-3.98651E-004	0.00000E+000	-2.44359E-004	-2.40040E-001	6.13206E-001	3.57670E+000	9	...........
	8	0.12	6.04112E-001	-3.99581E-004	0.00000E+000	-2.41392E-004	-2.40040E-001	6.04367E-001	3.57670E+000	9	...........
	9	0.133333	5.95580E-001	-3.99439E-004	0.00000E+000	-2.37898E-004	-2.40040E-001	5.95787E-001	3.57670E+000	9	...........
	10	0.146667	5.87022E-001	-3.99113E-004	0.00000E+000	-2.34288E-004	-2.40040E-001	5.87246E-001	3.57670E+000	9	...........
	11	0.16	5.78585E-001	-3.98134E-004	0.00000E+000	-2.30355E-004	-2.40040E-001	5.78803E-001	3.57670E+000	9	...........
	12	0.173333	5.70352E-001	-3.98403E-004	0.00000E+000	-2.27230E-004	-2.40040E-001	5.70560E-001	3.57670E+000	9	...........
	13	0.186667	5.62034E-001	-3.97956E-004	0.00000E+000	-2.23665E-004	-2.40040E-001	5.62268E-001	3.57670E+000	9	...........
	14	0.2	5.53886E-001	-3.99116E-004	0.00000E+000	-2.21065E-004	-2.40040E-001	5.54114E-001	3.57670E+000	9	...........
	15	0.213333	5.45838E-001	-3.98404E-004	0.00000E+000	-2.17464E-004	-2.40040E-001	5.46076E-001	3.57670E+000	9	...........
	16	0.226667	5.37868E-001	-3.99036E-004	0.00000E+000	-2.14629E-004	-2.40040E-001	5.38114E-001	3.57670E+000	9	...........
	17	0.24	5.29825E-001	-3.98350E-004	0.00000E+000	-2.11056E-004	-2.40040E-001	5.30044E-001	3.57670E+000	9	...........
	18	0.253333	5.21867E-001	-3.99100E-004	0.00000E+000	-2.08277E-004	-2.40040E-001	5.22085E-001	3.57670E+000	9	...........
	19	0.266667	5.14005E-001	-3.98911E-004	0.00000E+000	-2.05043E-004	-2.40040E-001	5.14194E-001	3.57670E+000	9	...........
	20	0.28	5.06170E-001	-3.98273E-004	0.00000E+000	-2.01594E-004	-2.40040E-001	5.06408E-001	3.57670E+000	9	...........
	21	0.293333	4.98404E-001	-3.98197E-004	0.00000E+000	-1.98463E-004	-2.40040E-001	4.98649E-001	3.57670E+000	9	...........
	22	0.306667	4.90769E-001	-3.99800E-004	0.00000E+000	-1.96210E-004	-2.40040E-001	4.90999E-001	3.57670E+000	9	...........
	23	0.32	4.83349E-001	-3.96832E-004	0.00000E+000	-1.91808E-004	-2.40040E-001	4.83443E-001	3.57670E+000	9	...........
	24	0.333333	4.75842E-001	-3.98134E-004	0.00000E+000	-1.89449E-004	-2.40040E-001	4.75941E-001	3.57670E+000	9	...........
	25	0.346667	4.68322E-001	-3.99194E-004	0.00000E+000	-1.86951E-004	-2.40040E-001	4.68415E-001	3.57670E+000	9	...........
	26	0.36	4.60750E-001	-3.98226E-004	0.00000E+000	-1.83483E-004	-2.40040E-001	4.60834E-001	3.57670E+000	9	...........
	27	0.373333	4.53293E-001	-3.98857E-004	0.00000E+000	-1.80799E-004	-2.40040E-001	4.53380E-001	3.57670E+000	9	...........
	28	0.386667	4.45880E-001	-3.99792E-004	0.00000E+000	-1.78259E-004	-2.40040E-001	4.45972E-001	3.57670E+000	9	...........
	29	0.4	4.38480E-001	-3.99614E-004	0.00000E+000	-1.75223E-004	-2.40040E-001	4.38570E-001	3.57670E+000	9	...........
	30	0.413333	4.31043E-001	-3.99919E-004	0.00000E+000	-1.72382E-004	-2.40040E-001	4.31125E-001	3.57670E+000	9	...........
	31	0.426667	4.23686E-001	-3.98729E-004	0.00000E+000	-1.68936E-004	-2.40040E-001	4.23771E-001	3.57670E+000	9	...........
	32	0.44	4.16440E-001	-3.98632E-004	0.00000E+000	-1.66006E-004	-2.40040E-001	4.16524E-001	3.57640E+000	9	...........
	33	0.453333	4.09209E-001	-3.98919E-004	0.00000E+000	-1.63241E-004	-2.40040E-001	4.09283E-001	3.57630E+000	9	...........
	34	0.466667	4.02046E-001	-3.98583E-004	0.00000E+000	-1.60249E-004	-2.40040E-001	4.02125E-001	3.57630E+000	9	...........
	35	0.48	3.94934E-001	-3.98966E-004	0.00000E+000	-1.57565E-004	-2.40040E-001	3.95006E-001	3.57630E+000	9	...........
	36	0.493333	3.87894E-001	-3.98594E-004	0.00000E+000	-1.54612E-004	-2.40040E-001	3.87961E-001	3.57630E+000	9	...........
	37	0.506667	3.80858E-001	-3.99665E-004	0.00000E+000	-1.52216E-004	-2.40040E-001	3.80924E-001	3.57630E+000	9	...........
	38	0.52	3.73828E-001	-3.99057E-004	0.00000E+000	-1.49179E-004	-2.40040E-001	3.73893E-001	3.57630E+000	9	...........
	39	0.533333	3.66882E-001	-3.99030E-004	0.00000E+000	-1.46397E-004	-2.40040E-001	3.66949E-001	3.57630E+000	9	...........
	40	0.546667	3.59964E-001	-3.99084E-004	0.00000E+000	-1.43656E-004	-2.40040E-001	3.60025E-001	3.57630E+000	9	...........
	41	0.56	3.53002E-001	-3.98498E-004	0.00000E+000	-1.40671E-004	-2.40040E-001	3.53067E-001	3.57630E+000	9	...........
	42	0.573333	3.46118E-001	-3.98436E-004	0.00000E+000	-1.37906E-004	-2.40040E-001	3.46179E-001	3.57630E+000	9	...........
	43	0.586667	3.39249E-001	-3.99140E-004	0.00000E+000	-1.35408E-004	-2.40040E-001	3.39313E-001	3.57630E+000	9	...........
	44	0.6	3.32550E-001	-3.99688E-004	0.00000E+000	-1.32916E-004	-2.40040E-001	3.32613E-001	3.57630E+000	9	...........
	45	0.613333	3.25869E-001	-3.98932E-004	0.00000E+000	-1.30000E-004	-2.40040E-001	3.25935E-001	3.57630E+000	9	...........
	46	0.626667	3.19153E-001	-3.99071E-004	0.00000E+000	-1.27365E-004	-2.40040E-001	3.19215E-001	3.57630E+000	9	...........
	47	0.64	3.12566E-001	-3.98641E-004	0.00000E+000	-1.24602E-004	-2.40040E-001	3.12627E-001	3.57630E+000	9	...........
	48	0.653333	3.06041E-001	-3.99419E-004	0.00000E+000	-1.22238E-004	-2.40040E-001	3.06100E-001	3.57630E+000	9	...........
	49	0.666667	2.99552E-001	-3.99442E-004	0.00000E+000	-1.19654E-004	-2.40040E-001	2.99610E-001	3.57630E+000	9	...........
	50	0.68	2.93046E-001	-3.98404E-004	0.00000E+000	-1.16751E-004	-2.40040E-001	2.93098E-001	3.57630E+000	9	...........
	51	0.693333	2.86531E-001	-3.99033E-004	0.00000E+000	-1.14335E-004	-2.40040E-001	2.86587E-001	3.57630E+000	9	...........
	52	0.706667	2.80079E-001	-3.97761E-004	0.00000E+000	-1.11405E-004	-2.40040E-001	2.80132E-001	3.57630E+000	9	...........
	53	0.72	2.73723E-001	-3.99040E-004	0.00000E+000	-1.09226E-004	-2.40040E-001	2.73777E-001	3.57630E+000	9	...........
	54	0.733333	2.67469E-001	-3.97597E-004	0.00000E+000	-1.06345E-004	-2.40040E-001	2.67521E-001	3.57630E+000	9	...........
	55	0.746667	2.61150E-001	-3.99295E-004	0.00000E+000	-1.04276E-004	-2.40040E-001	2.61200E-001	3.57630E+000	9	...........
	56	0.76	2.54839E-001	-3.98530E-004	0.00000E+000	-1.01561E-004	-2.40040E-001	2.54888E-001	3.57630E+000	9	...........
	57	0.773333	2.48755E-001	-3.98445E-004	0.00000E+000	-9.91151E-005	-2.40040E-001	2.48801E-001	3.57630E+000	9	...........
	58	0.786667	2.42660E-001	-3.98625E-004	0.00000E+000	-9.67304E-005	-2.40040E-001	2.42705E-001	3.57630E+000	9	...........
	59	0.8	2.36520E-001	-3.99930E-004	0.00000E+000	-9.45917E-005	-2.40040E-001	2.36561E-001	3.57630E+000	9	...........
	60	0.813333	2.30420E-001	-4.00268E-004	0.00000E+000	-9.22297E-005	-2.40040E-001	2.30462E-001	3.57630E+000	9	...........
	61	0.826667	2.24333E-001	-3.97056E-004	0.00000E+000	-8.90725E-005	-2.40040E-001	2.24374E-001	3.57630E+000	9	...........
	62	0.84	2.18316E-001	-3.99212E-004	0.00000E+000	-8.71544E-005	-2.40040E-001	2.18356E-001	3.57630E+000	9	...........
	63	0.853333	2.12248E-001	-3.98508E-004	0.00000E+000	-8.45824E-005	-2.40040E-001	2.12285E-001	3.57630E+000	9	...........
	64	0.866667	2.06329E-001	-3.97664E-004	0.00000E+000	-8.20496E-005	-2.40040E-001	2.06367E-001	3.57630E+000	9	...........
	65	0.88	2.00561E-001	-3.97929E-004	0.00000E+000	-7.98091E-005	-2.40040E-001	2.00607E-001	3.57630E+000	9	...........
	66	0.893333	1.94756E-001	-3.99131E-004	0.00000E+000	-7.77332E-005	-2.40040E-001	1.94797E-001	3.57630E+000	9	...........
	67	0.906667	1.88863E-001	-3.98682E-004	0.00000E+000	-7.52963E-005	-2.40040E-001	1.88902E-001	3.57630E+000	9	...........
	68	0.92	1.83102E-001	-3.98315E-004	0.00000E+000	-7.29325E-005	-2.40040E-001	1.83136E-001	3.57630E+000	9	...........
	69	0.933333	1.77347E-001	-3.98847E-004	0.00000E+000	-7.07345E-005	-2.40040E-001	1.77379E-001	3.57630E+000	9	...........
	70	0.946667	1.71739E-001	-3.99429E-004	0.00000E+000	-6.85976E-005	-2.40040E-001	1.71772E-001	3.57630E+000	9	...........
	71	0.96	1.66112E-001	-3.98463E-004	0.00000E+000	-6.61897E-005	-2.40040E-001	1.66146E-001	3.57630E+000	9	...........
	72	0.97333	1.60520E-001	-3.98709E-004	0.00000E+000	-6.40009E-005	-2.40040E-001	1.60553E-001	3.57630E+000	9	...........
	73	0.98667	1.54922E-001	-3.99396E-004	0.00000E+000	-6.18753E-005	-2.40040E-001	1.54949E-001	3.57630E+000	9	...........
	74	1	1.49444E-001	-3.98949E-004	0.00000E+000	-5.96207E-005	-2.40040E-001	1.49474E-001	3.57630E+000	9	...........
	75	1.01333	1.43927E-001	-3.99881E-004	0.00000E+000	-5.75537E-005	-2.40040E-001	1.43956E-001	3.57630E+000	9	...........
	76	1.02667	1.38472E-001	-3.99843E-004	0.00000E+000	-5.53672E-005	-2.40040E-001	1.38497E-001	3.57630E+000	9	...........
	77	1.04	1.32977E-001	-3.98517E-004	0.00000E+000	-5.29937E-005	-2.40040E-001	1.32993E-001	3.57630E+000	9	...........
	78	1.05333	1.27646E-001	-3.98274E-004	0.00000E+000	-5.08381E-005	-2.40040E-001	1.27670E-001	3.57630E+000	9	...........
	79	1.06667	1.22380E-001	-3.99615E-004	0.00000E+000	-4.89048E-005	-2.40040E-001	1.22401E-001	3.57630E+000	9	...........
	80	1.08	1.17159E-001	-3.98920E-004	0.00000E+000	-4.67369E-005	-2.40040E-001	1.17178E-001	3.57630E+000	9	...........
	81	1.09333	1.11821E-001	-3.98773E-004	0.00000E+000	-4.45911E-005	-2.40040E-001	1.11840E-001	3.57630E+000	9	...........
	82	1.10667	1.06535E-001	-3.98945E-004	0.00000E+000	-4.25017E-005	-2.40040E-001	1.06550E-001	3.57630E+000	9	...........
	83	1.12	1.01342E-001	-3.98628E-004	0.00000E+000	-4.03978E-005	-2.40040E-001	1.01360E-001	3.57630E+000	9	...........
	84	1.13333	9.62434E-002	-3.98519E-004	0.00000E+000	-3.83548E-005	-2.40040E-001	9.62575E-002	3.57630E+000	9	...........
	85	1.14667	9.10977E-002	-3.99195E-004	0.00000E+000	-3.63657E-005	-2.40040E-001	9.11129E-002	3.57630E+000	9	...........
	86	1.16	8.60123E-002	-3.98958E-004	0.00000E+000	-3.43153E-005	-2.40040E-001	8.60257E-002	3.57630E+000	9	...........
	87	1.17333	8.09691E-002	-3.99093E-004	0.00000E+000	-3.23142E-005	-2.40040E-001	8.09778E-002	3.57630E+000	9	...........
	88	1.18667	7.59137E-002	-3.98470E-004	0.00000E+000	-3.02493E-005	-2.40040E-001	7.59214E-002	3.57630E+000	9	...........
	89	1.2	7.09326E-002	-3.97870E-004	0.00000E+000	-2.82219E-005	-2.40040E-001	7.09406E-002	3.57630E+000	9	...........
	90	1.21333	6.60121E-002	-3.99455E-004	0.00000E+000	-2.63689E-005	-2.40040E-001	6.60145E-002	3.57630E+000	9	...........
	91	1.22667	6.11175E-002	-3.98328E-004	0.00000E+000	-2.43448E-005	-2.40040E-001	6.11219E-002	3.57630E+000	9	...........
	92	1.24	5.61866E-002	-3.98837E-004	0.00000E+000	-2.24093E-005	-2.40040E-001	5.61907E-002	3.57630E+000	9	...........
	93	1.25333	5.13008E-002	-3.99805E-004	0.00000E+000	-2.05103E-005	-2.40040E-001	5.12981E-002	3.57630E+000	9	...........
	94	1.26667	4.65553E-002	-3.98301E-004	0.00000E+000	-1.85430E-005	-2.40040E-001	4.65536E-002	3.57630E+000	9	...........
	95	1.28	4.17856E-002	-3.99197E-004	0.00000E+000	-1.66807E-005	-2.40040E-001	4.17915E-002	3.57630E+000	9	...........
	96	1.29333	3.69679E-002	-3.97484E-004	0.00000E+000	-1.46941E-005	-2.40040E-001	3.69677E-002	3.57630E+000	9	...........
	97	1.30667	3.21793E-002	-3.99066E-004	0.00000E+000	-1.28417E-005	-2.40040E-001	3.21755E-002	3.57630E+000	9	...........
	98	1.32	2.74052E-002	-3.98250E-004	0.00000E+000	-1.09141E-005	-2.40040E-001	2.73983E-002	3.57630E+000	9	...........
	99	1.33333	2.26852E-002	-3.97983E-004	0.00000E+000	-9.02832E-006	-2.40040E-001	2.26693E-002	3.57630E+000	9	...........
	100	1.34667	1.80469E-002	-3.96062E-004	0.00000E+000	-7.14767E-006	-2.40040E-001	1.80371E-002	3.57630E+000	9	...........
	101	1.36	1.33734E-002	-3.98362E-004	0.00000E+000	-5.32745E-006	-2.40040E-001	1.33572E-002	3.57630E+000	9	...........
	102	1.37333	8.78313E-003	-3.98377E-004	0.00000E+000	-3.49900E-006	-2.40040E-001	8.76491E-003	3.57630E+000	9	...........
	103	1.38667	4.17235E-003	-3.98442E-004	0.00000E+000	-1.66244E-006	-2.40040E-001	4.14984E-003	3.57630E+000	9	...........
	104	1.39333	8.03276E-004	-4.00361E-004	0.00000E+000	-3.21600E-007	-2.40040E-001	7.83265E-004	3.57630E+000	9	...........
STARTTIMEOFFSET	QUANT	2524.624	Start Time Offset (s)
