EXPLAIN
TAG	PWR800_DISCHARGE
TITLE	LABEL	PWR Cyclic Charge Discharge (Cell) - Discharge Step	Test &Identifier
DATE	LABEL	12-7-2017	Date
TIME	LABEL	15:21:09	Time
NOTES	NOTES	3	&Notes...
	supercap test cell
	0.4mg
	6M KOH
PSTAT	PSTAT	IFC5000-01520	Potentiostat
CAPACITY	QUANT	1.00000E-003	Capacity (A-hr)
CELLTYPE	SELECTOR	1	&Cell Type
WORKINGCONNECTION	SELECTOR	0	&Working Lead
MAXDISCHARGETIME	VARIABLEANDUNITS	1.00000E+002	s	1.00000E+002	second(s)	Max &Discharge Time
DISCHARGEMODE	MULTIPARAM	0	4.00000E-004	&Discharge Mode	Constant Current	Amp(s)
SAMPLETIME	QUANT	1.00000E-002	Sa&mple Period (s)
DISCHARGESTOPAT1	MULTIPARAM	3	0.00000E+000	Discharge Stop At &1	Voltage < Limit	V
DISCHARGESTOPAT2	MULTIPARAM	0	0.00000E+000	Discharge Stop At &2	None	N/A
AESBHCSELECTOR	TOGGLE	F	Save Both Half Cells
IRCOMP	TOGGLE	F	IR &Measure
EOC	QUANT	0	Open Circuit (V)
SEQUENCER	TOGGLE	TRUE	Run as Sequence
PSTATMODEL	IQUANT	53	Pstat Model
PSTATSECTION	LABEL	IFC5000-01520	Pstat Section
PSTATSERIALNO	LABEL	01520	Pstat Serial Number
CTRLMODE	IQUANT	0	Control Mode
ELECTROMETER	IQUANT	1	RE=0 or CS=1
IESTAB	IQUANT	0	I/E Stability
CASPEED	IQUANT	4	Control Amp Speed
CONVENTION	IQUANT	1	Current Convention
ICHRANGE	IQUANT	2	Ich Range
ICHRANGEMODE	TOGGLE	T	Ich Auto Range
ICHOFFSETENABLE	TOGGLE	F	Ich Offset Enable
ICHOFFSET	QUANT	0	Ich Offset (V)
ICHFILTER	IQUANT	1	Ich Filter
VCHRANGE	IQUANT	2	Vch Range
VCHRANGEMODE	TOGGLE	T	Vch Auto Range
VCHOFFSETENABLE	TOGGLE	F	Vch Offset Enable
VCHOFFSET	QUANT	0	Vch Offset (V)
VCHFILTER	IQUANT	1	Vch Filter
IERANGELOWERLIMIT	IQUANT	9	I/E Range Lower Limit
IERANGEMODE	TOGGLE	F	I/E AutoRange
IERANGE	IQUANT	9	I/E Range
ACHSELECT	IQUANT	1	Ach Select
ACHRANGE	IQUANT	2	Ach Range
ACHOFFSETENABLE	TOGGLE	F	Ach Offset Enable
ACHOFFSET	QUANT	0	Ach Offset (V)
ACHFILTER	IQUANT	1	Ach Filter
CABLEID	IQUANT	14	Cable ID
DCCALDATE	LABEL	5-7-2017	DC Calibration Date
ACCALDATE	LABEL	12/3/2015	AC Calibration Date
FRAMEWORKVERSION	QUANT	7.01	Framework Version
INSTRUMENTVERSION	LABEL	4.00	Instrument Version
CURVE	TABLE	102
	Pt	T	Vf	Im	Vu	Pwr	Sig	Ach	Temp	IERange	Over
	#	s	V	A	V	W	V	V	deg C	#	bits
	0	0.013333	6.82255E-001	-3.99970E-004	0.00000E+000	-2.72881E-004	-2.40040E-001	6.82507E-001	3.57700E+000	9	...........
	1	0.026667	6.68556E-001	-3.98587E-004	0.00000E+000	-2.66478E-004	-2.40040E-001	6.68810E-001	3.57700E+000	9	...........
	2	0.04	6.56570E-001	-3.98457E-004	0.00000E+000	-2.61615E-004	-2.40040E-001	6.56814E-001	3.57700E+000	9	...........
	3	0.053333	6.45663E-001	-3.99079E-004	0.00000E+000	-2.57671E-004	-2.40040E-001	6.45902E-001	3.57700E+000	9	...........
	4	0.066667	6.35371E-001	-3.97680E-004	0.00000E+000	-2.52674E-004	-2.40040E-001	6.35594E-001	3.57700E+000	9	...........
	5	0.08	6.25595E-001	-3.99104E-004	0.00000E+000	-2.49678E-004	-2.40040E-001	6.25821E-001	3.57700E+000	9	...........
	6	0.093333	6.16199E-001	-4.00933E-004	0.00000E+000	-2.47054E-004	-2.40040E-001	6.16432E-001	3.57700E+000	9	...........
	7	0.106667	6.06993E-001	-3.98914E-004	0.00000E+000	-2.42138E-004	-2.40040E-001	6.07272E-001	3.57700E+000	9	...........
	8	0.12	5.98044E-001	-3.99334E-004	0.00000E+000	-2.38819E-004	-2.40040E-001	5.98282E-001	3.57700E+000	9	...........
	9	0.133333	5.89263E-001	-3.97529E-004	0.00000E+000	-2.34249E-004	-2.40040E-001	5.89511E-001	3.57700E+000	9	...........
	10	0.146667	5.80527E-001	-3.99293E-004	0.00000E+000	-2.31800E-004	-2.40040E-001	5.80768E-001	3.57700E+000	9	...........
	11	0.16	5.72010E-001	-3.99296E-004	0.00000E+000	-2.28401E-004	-2.40040E-001	5.72246E-001	3.57700E+000	9	...........
	12	0.173333	5.63587E-001	-3.99289E-004	0.00000E+000	-2.25034E-004	-2.40040E-001	5.63817E-001	3.57700E+000	9	...........
	13	0.186667	5.55129E-001	-3.99749E-004	0.00000E+000	-2.21912E-004	-2.40040E-001	5.55357E-001	3.57700E+000	9	...........
	14	0.2	5.46834E-001	-3.99677E-004	0.00000E+000	-2.18557E-004	-2.40040E-001	5.47042E-001	3.57700E+000	9	...........
	15	0.213333	5.38633E-001	-3.97826E-004	0.00000E+000	-2.14282E-004	-2.40040E-001	5.38850E-001	3.57700E+000	9	...........
	16	0.226667	5.30496E-001	-3.98723E-004	0.00000E+000	-2.11521E-004	-2.40040E-001	5.30711E-001	3.57700E+000	9	...........
	17	0.24	5.22286E-001	-3.98667E-004	0.00000E+000	-2.08218E-004	-2.40040E-001	5.22525E-001	3.57700E+000	9	...........
	18	0.253333	5.14308E-001	-3.98492E-004	0.00000E+000	-2.04947E-004	-2.40040E-001	5.14516E-001	3.57700E+000	9	...........
	19	0.266667	5.06255E-001	-3.97847E-004	0.00000E+000	-2.01412E-004	-2.40040E-001	5.06531E-001	3.57700E+000	9	...........
	20	0.28	4.98326E-001	-3.99149E-004	0.00000E+000	-1.98906E-004	-2.40040E-001	4.98548E-001	3.57700E+000	9	...........
	21	0.293333	4.90399E-001	-3.98538E-004	0.00000E+000	-1.95443E-004	-2.40040E-001	4.90591E-001	3.57700E+000	9	...........
	22	0.306667	4.82727E-001	-3.99446E-004	0.00000E+000	-1.92823E-004	-2.40040E-001	4.82844E-001	3.57700E+000	9	...........
	23	0.32	4.75009E-001	-3.98350E-004	0.00000E+000	-1.89220E-004	-2.40040E-001	4.75105E-001	3.57700E+000	9	...........
	24	0.333333	4.67232E-001	-3.98702E-004	0.00000E+000	-1.86286E-004	-2.40040E-001	4.67331E-001	3.57700E+000	9	...........
	25	0.346667	4.59614E-001	-3.99663E-004	0.00000E+000	-1.83690E-004	-2.40040E-001	4.59712E-001	3.57700E+000	9	...........
	26	0.36	4.51944E-001	-3.98480E-004	0.00000E+000	-1.80091E-004	-2.40040E-001	4.52032E-001	3.57700E+000	9	...........
	27	0.373333	4.44253E-001	-3.98270E-004	0.00000E+000	-1.76933E-004	-2.40040E-001	4.44341E-001	3.57700E+000	9	...........
	28	0.386667	4.36597E-001	-3.99173E-004	0.00000E+000	-1.74278E-004	-2.40040E-001	4.36682E-001	3.57700E+000	9	...........
	29	0.4	4.29095E-001	-3.98945E-004	0.00000E+000	-1.71185E-004	-2.40040E-001	4.29179E-001	3.57700E+000	9	...........
	30	0.413333	4.21603E-001	-3.99580E-004	0.00000E+000	-1.68464E-004	-2.40040E-001	4.21685E-001	3.57700E+000	9	...........
	31	0.426667	4.14161E-001	-3.99257E-004	0.00000E+000	-1.65357E-004	-2.40040E-001	4.14239E-001	3.57700E+000	9	...........
	32	0.44	4.06805E-001	-3.98790E-004	0.00000E+000	-1.62230E-004	-2.40040E-001	4.06886E-001	3.57700E+000	9	...........
	33	0.453333	3.99539E-001	-3.98222E-004	0.00000E+000	-1.59105E-004	-2.40040E-001	3.99611E-001	3.57700E+000	9	...........
	34	0.466667	3.92235E-001	-3.97914E-004	0.00000E+000	-1.56076E-004	-2.40040E-001	3.92305E-001	3.57700E+000	9	...........
	35	0.48	3.84922E-001	-3.98960E-004	0.00000E+000	-1.53569E-004	-2.40040E-001	3.84993E-001	3.57700E+000	9	...........
	36	0.493333	3.77656E-001	-3.97660E-004	0.00000E+000	-1.50179E-004	-2.40040E-001	3.77725E-001	3.57700E+000	9	...........
	37	0.506667	3.70511E-001	-3.99474E-004	0.00000E+000	-1.48010E-004	-2.40040E-001	3.70578E-001	3.57700E+000	9	...........
	38	0.52	3.63338E-001	-3.98954E-004	0.00000E+000	-1.44955E-004	-2.40040E-001	3.63407E-001	3.57700E+000	9	...........
	39	0.533333	3.56243E-001	-3.98808E-004	0.00000E+000	-1.42073E-004	-2.40040E-001	3.56312E-001	3.57700E+000	9	...........
	40	0.546667	3.49196E-001	-3.98398E-004	0.00000E+000	-1.39119E-004	-2.40040E-001	3.49252E-001	3.57700E+000	9	...........
	41	0.56	3.42209E-001	-3.99526E-004	0.00000E+000	-1.36721E-004	-2.40040E-001	3.42273E-001	3.57700E+000	9	...........
	42	0.573333	3.35264E-001	-3.98832E-004	0.00000E+000	-1.33714E-004	-2.40040E-001	3.35321E-001	3.57700E+000	9	...........
	43	0.586667	3.28353E-001	-4.00269E-004	0.00000E+000	-1.31429E-004	-2.40040E-001	3.28411E-001	3.57700E+000	9	...........
	44	0.6	3.21461E-001	-3.98731E-004	0.00000E+000	-1.28177E-004	-2.40040E-001	3.21521E-001	3.57700E+000	9	...........
	45	0.613333	3.14687E-001	-3.99575E-004	0.00000E+000	-1.25741E-004	-2.40040E-001	3.14748E-001	3.57700E+000	9	...........
	46	0.626667	3.07982E-001	-3.97557E-004	0.00000E+000	-1.22440E-004	-2.40040E-001	3.08044E-001	3.57700E+000	9	...........
	47	0.64	3.01263E-001	-3.98676E-004	0.00000E+000	-1.20107E-004	-2.40040E-001	3.01322E-001	3.57700E+000	9	...........
	48	0.653333	2.94582E-001	-3.98031E-004	0.00000E+000	-1.17253E-004	-2.40040E-001	2.94640E-001	3.57700E+000	9	...........
	49	0.666667	2.87933E-001	-3.97256E-004	0.00000E+000	-1.14383E-004	-2.40040E-001	2.87994E-001	3.57700E+000	9	...........
	50	0.68	2.81377E-001	-3.98276E-004	0.00000E+000	-1.12066E-004	-2.40040E-001	2.81439E-001	3.57700E+000	9	...........
	51	0.693333	2.74780E-001	-3.98666E-004	0.00000E+000	-1.09545E-004	-2.40040E-001	2.74831E-001	3.57700E+000	9	...........
	52	0.706667	2.68267E-001	-3.99202E-004	0.00000E+000	-1.07093E-004	-2.40040E-001	2.68318E-001	3.57700E+000	9	...........
	53	0.72	2.61846E-001	-3.99603E-004	0.00000E+000	-1.04635E-004	-2.40040E-001	2.61901E-001	3.57700E+000	9	...........
	54	0.733333	2.55498E-001	-3.98350E-004	0.00000E+000	-1.01777E-004	-2.40040E-001	2.55545E-001	3.57700E+000	9	...........
	55	0.746667	2.49246E-001	-3.98992E-004	0.00000E+000	-9.94469E-005	-2.40040E-001	2.49291E-001	3.57700E+000	9	...........
	56	0.76	2.42963E-001	-3.98444E-004	0.00000E+000	-9.68071E-005	-2.40040E-001	2.43007E-001	3.57700E+000	9	...........
	57	0.773333	2.36655E-001	-3.99031E-004	0.00000E+000	-9.44328E-005	-2.40040E-001	2.36701E-001	3.57700E+000	9	...........
	58	0.786667	2.30431E-001	-4.00153E-004	0.00000E+000	-9.22078E-005	-2.40040E-001	2.30472E-001	3.57700E+000	9	...........
	59	0.8	2.24305E-001	-3.98092E-004	0.00000E+000	-8.92939E-005	-2.40040E-001	2.24341E-001	3.57700E+000	9	...........
	60	0.813333	2.18211E-001	-3.98916E-004	0.00000E+000	-8.70479E-005	-2.40040E-001	2.18252E-001	3.57700E+000	9	...........
	61	0.826667	2.12113E-001	-3.98494E-004	0.00000E+000	-8.45258E-005	-2.40040E-001	2.12155E-001	3.57700E+000	9	...........
	62	0.84	2.06062E-001	-3.98664E-004	0.00000E+000	-8.21494E-005	-2.40040E-001	2.06099E-001	3.57700E+000	9	...........
	63	0.853333	2.00067E-001	-3.97853E-004	0.00000E+000	-7.95973E-005	-2.40040E-001	2.00107E-001	3.57700E+000	9	...........
	64	0.866667	1.94136E-001	-3.99032E-004	0.00000E+000	-7.74666E-005	-2.40040E-001	1.94174E-001	3.57780E+000	9	...........
	65	0.88	1.88221E-001	-3.97924E-004	0.00000E+000	-7.48978E-005	-2.40040E-001	1.88256E-001	3.57780E+000	9	...........
	66	0.893333	1.82315E-001	-3.98152E-004	0.00000E+000	-7.25890E-005	-2.40040E-001	1.82351E-001	3.57780E+000	9	...........
	67	0.906667	1.76453E-001	-3.98532E-004	0.00000E+000	-7.03223E-005	-2.40040E-001	1.76493E-001	3.57780E+000	9	...........
	68	0.92	1.70592E-001	-3.98817E-004	0.00000E+000	-6.80351E-005	-2.40040E-001	1.70629E-001	3.57780E+000	9	...........
	69	0.933333	1.64771E-001	-3.98237E-004	0.00000E+000	-6.56180E-005	-2.40040E-001	1.64808E-001	3.57780E+000	9	...........
	70	0.946667	1.59055E-001	-3.98252E-004	0.00000E+000	-6.33438E-005	-2.40040E-001	1.59086E-001	3.57780E+000	9	...........
	71	0.96	1.53403E-001	-3.98288E-004	0.00000E+000	-6.10987E-005	-2.40040E-001	1.53429E-001	3.57780E+000	9	...........
	72	0.97333	1.47773E-001	-3.99351E-004	0.00000E+000	-5.90132E-005	-2.40040E-001	1.47798E-001	3.57780E+000	9	...........
	73	0.98667	1.42248E-001	-3.99131E-004	0.00000E+000	-5.67757E-005	-2.40040E-001	1.42273E-001	3.57780E+000	9	...........
	74	1	1.36662E-001	-3.98921E-004	0.00000E+000	-5.45174E-005	-2.40040E-001	1.36688E-001	3.57780E+000	9	...........
	75	1.01333	1.31120E-001	-3.99046E-004	0.00000E+000	-5.23230E-005	-2.40040E-001	1.31142E-001	3.57780E+000	9	...........
	76	1.02667	1.25553E-001	-3.98456E-004	0.00000E+000	-5.00272E-005	-2.40040E-001	1.25579E-001	3.57780E+000	9	...........
	77	1.04	1.20074E-001	-3.97750E-004	0.00000E+000	-4.77596E-005	-2.40040E-001	1.20107E-001	3.57780E+000	9	...........
	78	1.05333	1.14632E-001	-3.99919E-004	0.00000E+000	-4.58433E-005	-2.40040E-001	1.14652E-001	3.57780E+000	9	...........
	79	1.06667	1.09241E-001	-3.98856E-004	0.00000E+000	-4.35715E-005	-2.40040E-001	1.09261E-001	3.57780E+000	9	...........
	80	1.08	1.03904E-001	-4.00195E-004	0.00000E+000	-4.15820E-005	-2.40040E-001	1.03923E-001	3.57780E+000	9	...........
	81	1.09333	9.85791E-002	-3.98738E-004	0.00000E+000	-3.93073E-005	-2.40040E-001	9.85960E-002	3.57780E+000	9	...........
	82	1.10667	9.32844E-002	-3.97965E-004	0.00000E+000	-3.71240E-005	-2.40040E-001	9.33027E-002	3.57780E+000	9	...........
	83	1.12	8.80143E-002	-3.99412E-004	0.00000E+000	-3.51539E-005	-2.40040E-001	8.80301E-002	3.57780E+000	9	...........
	84	1.13333	8.28183E-002	-3.99005E-004	0.00000E+000	-3.30449E-005	-2.40040E-001	8.28321E-002	3.57780E+000	9	...........
	85	1.14667	7.76785E-002	-3.98320E-004	0.00000E+000	-3.09409E-005	-2.40040E-001	7.76875E-002	3.57780E+000	9	...........
	86	1.16	7.25167E-002	-3.98059E-004	0.00000E+000	-2.88659E-005	-2.40040E-001	7.25233E-002	3.57780E+000	9	...........
	87	1.17333	6.74933E-002	-4.00172E-004	0.00000E+000	-2.70089E-005	-2.40040E-001	6.74962E-002	3.57780E+000	9	...........
	88	1.18667	6.25003E-002	-3.98368E-004	0.00000E+000	-2.48981E-005	-2.40040E-001	6.25028E-002	3.57780E+000	9	...........
	89	1.2	5.74588E-002	-3.98953E-004	0.00000E+000	-2.29234E-005	-2.40040E-001	5.74640E-002	3.57780E+000	9	...........
	90	1.21333	5.24363E-002	-3.98081E-004	0.00000E+000	-2.08739E-005	-2.40040E-001	5.24344E-002	3.57780E+000	9	...........
	91	1.22667	4.74651E-002	-3.98730E-004	0.00000E+000	-1.89258E-005	-2.40040E-001	4.74711E-002	3.57780E+000	9	...........
	92	1.24	4.26116E-002	-3.98545E-004	0.00000E+000	-1.69826E-005	-2.40040E-001	4.26183E-002	3.57780E+000	9	...........
	93	1.25333	3.77054E-002	-3.98433E-004	0.00000E+000	-1.50231E-005	-2.40040E-001	3.77072E-002	3.57780E+000	9	...........
	94	1.26667	3.28184E-002	-3.99059E-004	0.00000E+000	-1.30965E-005	-2.40040E-001	3.28197E-002	3.57780E+000	9	...........
	95	1.28	2.79587E-002	-3.98646E-004	0.00000E+000	-1.11456E-005	-2.40040E-001	2.79539E-002	3.57780E+000	9	...........
	96	1.29333	2.31937E-002	-3.98012E-004	0.00000E+000	-9.23139E-006	-2.40040E-001	2.31882E-002	3.57780E+000	9	...........
	97	1.30667	1.83735E-002	-3.99004E-004	0.00000E+000	-7.33112E-006	-2.40040E-001	1.83647E-002	3.57780E+000	9	...........
	98	1.32	1.37072E-002	-3.99752E-004	0.00000E+000	-5.47949E-006	-2.40040E-001	1.36939E-002	3.57780E+000	9	...........
	99	1.33333	9.05953E-003	-3.97441E-004	0.00000E+000	-3.60063E-006	-2.40040E-001	9.04786E-003	3.57780E+000	9	...........
	100	1.34667	4.38631E-003	-3.97749E-004	0.00000E+000	-1.74465E-006	-2.40040E-001	4.37189E-003	3.57780E+000	9	...........
	101	1.35333	8.43896E-004	-3.98081E-004	0.00000E+000	-3.35939E-007	-2.40040E-001	8.21181E-004	3.57780E+000	9	...........
STARTTIMEOFFSET	QUANT	2960.714	Start Time Offset (s)
