EXPLAIN
TAG	PWR800_DISCHARGE
TITLE	LABEL	PWR Cyclic Charge Discharge (Cell) - Discharge Step	Test &Identifier
DATE	LABEL	12-7-2017	Date
TIME	LABEL	15:12:51	Time
NOTES	NOTES	3	&Notes...
	supercap test cell
	0.4mg
	6M KOH
PSTAT	PSTAT	IFC5000-01520	Potentiostat
CAPACITY	QUANT	1.00000E-003	Capacity (A-hr)
CELLTYPE	SELECTOR	1	&Cell Type
WORKINGCONNECTION	SELECTOR	0	&Working Lead
MAXDISCHARGETIME	VARIABLEANDUNITS	1.00000E+002	s	1.00000E+002	second(s)	Max &Discharge Time
DISCHARGEMODE	MULTIPARAM	0	4.00000E-004	&Discharge Mode	Constant Current	Amp(s)
SAMPLETIME	QUANT	1.00000E-002	Sa&mple Period (s)
DISCHARGESTOPAT1	MULTIPARAM	3	0.00000E+000	Discharge Stop At &1	Voltage < Limit	V
DISCHARGESTOPAT2	MULTIPARAM	0	0.00000E+000	Discharge Stop At &2	None	N/A
AESBHCSELECTOR	TOGGLE	F	Save Both Half Cells
IRCOMP	TOGGLE	F	IR &Measure
EOC	QUANT	0	Open Circuit (V)
SEQUENCER	TOGGLE	TRUE	Run as Sequence
PSTATMODEL	IQUANT	53	Pstat Model
PSTATSECTION	LABEL	IFC5000-01520	Pstat Section
PSTATSERIALNO	LABEL	01520	Pstat Serial Number
CTRLMODE	IQUANT	0	Control Mode
ELECTROMETER	IQUANT	1	RE=0 or CS=1
IESTAB	IQUANT	0	I/E Stability
CASPEED	IQUANT	4	Control Amp Speed
CONVENTION	IQUANT	1	Current Convention
ICHRANGE	IQUANT	2	Ich Range
ICHRANGEMODE	TOGGLE	T	Ich Auto Range
ICHOFFSETENABLE	TOGGLE	F	Ich Offset Enable
ICHOFFSET	QUANT	0	Ich Offset (V)
ICHFILTER	IQUANT	1	Ich Filter
VCHRANGE	IQUANT	2	Vch Range
VCHRANGEMODE	TOGGLE	T	Vch Auto Range
VCHOFFSETENABLE	TOGGLE	F	Vch Offset Enable
VCHOFFSET	QUANT	0	Vch Offset (V)
VCHFILTER	IQUANT	1	Vch Filter
IERANGELOWERLIMIT	IQUANT	9	I/E Range Lower Limit
IERANGEMODE	TOGGLE	F	I/E AutoRange
IERANGE	IQUANT	9	I/E Range
ACHSELECT	IQUANT	1	Ach Select
ACHRANGE	IQUANT	2	Ach Range
ACHOFFSETENABLE	TOGGLE	F	Ach Offset Enable
ACHOFFSET	QUANT	0	Ach Offset (V)
ACHFILTER	IQUANT	1	Ach Filter
CABLEID	IQUANT	14	Cable ID
DCCALDATE	LABEL	5-7-2017	DC Calibration Date
ACCALDATE	LABEL	12/3/2015	AC Calibration Date
FRAMEWORKVERSION	QUANT	7.01	Framework Version
INSTRUMENTVERSION	LABEL	4.00	Instrument Version
CURVE	TABLE	104
	Pt	T	Vf	Im	Vu	Pwr	Sig	Ach	Temp	IERange	Over
	#	s	V	A	V	W	V	V	deg C	#	bits
	0	0.013333	6.86365E-001	-3.97987E-004	0.00000E+000	-2.73165E-004	-2.40040E-001	6.86603E-001	3.57630E+000	9	...........
	1	0.026667	6.72993E-001	-3.99260E-004	0.00000E+000	-2.68699E-004	-2.40040E-001	6.73245E-001	3.57630E+000	9	...........
	2	0.04	6.61357E-001	-3.99059E-004	0.00000E+000	-2.63921E-004	-2.40040E-001	6.61554E-001	3.57630E+000	9	...........
	3	0.053333	6.50639E-001	-4.00200E-004	0.00000E+000	-2.60386E-004	-2.40040E-001	6.50868E-001	3.57630E+000	9	...........
	4	0.066667	6.40516E-001	-3.99104E-004	0.00000E+000	-2.55633E-004	-2.40040E-001	6.40754E-001	3.57630E+000	9	...........
	5	0.08	6.30838E-001	-3.98313E-004	0.00000E+000	-2.51271E-004	-2.40040E-001	6.31084E-001	3.57630E+000	9	...........
	6	0.093333	6.21542E-001	-3.99719E-004	0.00000E+000	-2.48442E-004	-2.40040E-001	6.21763E-001	3.57630E+000	9	...........
	7	0.106667	6.12429E-001	-3.99068E-004	0.00000E+000	-2.44401E-004	-2.40040E-001	6.12671E-001	3.57630E+000	9	...........
	8	0.12	6.03521E-001	-3.99560E-004	0.00000E+000	-2.41142E-004	-2.40040E-001	6.03771E-001	3.57630E+000	9	...........
	9	0.133333	5.94873E-001	-3.97603E-004	0.00000E+000	-2.36523E-004	-2.40040E-001	5.95101E-001	3.57630E+000	9	...........
	10	0.146667	5.86296E-001	-3.98451E-004	0.00000E+000	-2.33610E-004	-2.40040E-001	5.86525E-001	3.57630E+000	9	...........
	11	0.16	5.77881E-001	-3.98104E-004	0.00000E+000	-2.30057E-004	-2.40040E-001	5.78095E-001	3.57630E+000	9	...........
	12	0.173333	5.69564E-001	-3.99787E-004	0.00000E+000	-2.27704E-004	-2.40040E-001	5.69780E-001	3.57630E+000	9	...........
	13	0.186667	5.61301E-001	-3.99355E-004	0.00000E+000	-2.24159E-004	-2.40040E-001	5.61516E-001	3.57630E+000	9	...........
	14	0.2	5.53128E-001	-3.98326E-004	0.00000E+000	-2.20325E-004	-2.40040E-001	5.53355E-001	3.57630E+000	9	...........
	15	0.213333	5.45003E-001	-3.98769E-004	0.00000E+000	-2.17330E-004	-2.40040E-001	5.45175E-001	3.57630E+000	9	...........
	16	0.226667	5.36911E-001	-3.98565E-004	0.00000E+000	-2.13994E-004	-2.40040E-001	5.37087E-001	3.57630E+000	9	...........
	17	0.24	5.28888E-001	-3.98448E-004	0.00000E+000	-2.10734E-004	-2.40040E-001	5.29072E-001	3.57630E+000	9	...........
	18	0.253333	5.21006E-001	-4.00397E-004	0.00000E+000	-2.08610E-004	-2.40040E-001	5.21182E-001	3.57630E+000	9	...........
	19	0.266667	5.13210E-001	-3.99401E-004	0.00000E+000	-2.04977E-004	-2.40040E-001	5.13414E-001	3.57630E+000	9	...........
	20	0.28	5.05347E-001	-3.99033E-004	0.00000E+000	-2.01650E-004	-2.40040E-001	5.05576E-001	3.57630E+000	9	...........
	21	0.293333	4.97617E-001	-3.98504E-004	0.00000E+000	-1.98302E-004	-2.40040E-001	4.97823E-001	3.57630E+000	9	...........
	22	0.306667	4.89900E-001	-3.98128E-004	0.00000E+000	-1.95043E-004	-2.40040E-001	4.90086E-001	3.57630E+000	9	...........
	23	0.32	4.82428E-001	-3.98337E-004	0.00000E+000	-1.92169E-004	-2.40040E-001	4.82548E-001	3.57630E+000	9	...........
	24	0.333333	4.74833E-001	-3.99145E-004	0.00000E+000	-1.89527E-004	-2.40040E-001	4.74928E-001	3.57630E+000	9	...........
	25	0.346667	4.67233E-001	-3.97007E-004	0.00000E+000	-1.85495E-004	-2.40040E-001	4.67329E-001	3.57630E+000	9	...........
	26	0.36	4.59777E-001	-3.99468E-004	0.00000E+000	-1.83666E-004	-2.40040E-001	4.59863E-001	3.57630E+000	9	...........
	27	0.373333	4.52280E-001	-3.99688E-004	0.00000E+000	-1.80771E-004	-2.40040E-001	4.52367E-001	3.57630E+000	9	...........
	28	0.386667	4.44843E-001	-3.96966E-004	0.00000E+000	-1.76588E-004	-2.40040E-001	4.44930E-001	3.57630E+000	9	...........
	29	0.4	4.37380E-001	-3.97343E-004	0.00000E+000	-1.73790E-004	-2.40040E-001	4.37463E-001	3.57630E+000	9	...........
	30	0.413333	4.29983E-001	-3.98220E-004	0.00000E+000	-1.71228E-004	-2.40040E-001	4.30066E-001	3.57630E+000	9	...........
	31	0.426667	4.22597E-001	-3.98757E-004	0.00000E+000	-1.68514E-004	-2.40040E-001	4.22680E-001	3.57630E+000	9	...........
	32	0.44	4.15348E-001	-3.98010E-004	0.00000E+000	-1.65313E-004	-2.40040E-001	4.15428E-001	3.57630E+000	9	...........
	33	0.453333	4.08047E-001	-4.00578E-004	0.00000E+000	-1.63455E-004	-2.40040E-001	4.08126E-001	3.57630E+000	9	...........
	34	0.466667	4.00881E-001	-3.99926E-004	0.00000E+000	-1.60323E-004	-2.40040E-001	4.00953E-001	3.57630E+000	9	...........
	35	0.48	3.93713E-001	-3.98745E-004	0.00000E+000	-1.56991E-004	-2.40040E-001	3.93783E-001	3.57630E+000	9	...........
	36	0.493333	3.86541E-001	-3.98706E-004	0.00000E+000	-1.54116E-004	-2.40040E-001	3.86615E-001	3.57630E+000	9	...........
	37	0.506667	3.79453E-001	-3.98055E-004	0.00000E+000	-1.51043E-004	-2.40040E-001	3.79524E-001	3.57630E+000	9	...........
	38	0.52	3.72446E-001	-3.98891E-004	0.00000E+000	-1.48565E-004	-2.40040E-001	3.72510E-001	3.57630E+000	9	...........
	39	0.533333	3.65475E-001	-3.98966E-004	0.00000E+000	-1.45812E-004	-2.40040E-001	3.65546E-001	3.57630E+000	9	...........
	40	0.546667	3.58404E-001	-3.98199E-004	0.00000E+000	-1.42716E-004	-2.40040E-001	3.58472E-001	3.57630E+000	9	...........
	41	0.56	3.51597E-001	-4.00135E-004	0.00000E+000	-1.40686E-004	-2.40040E-001	3.51664E-001	3.57630E+000	9	...........
	42	0.573333	3.44728E-001	-3.98718E-004	0.00000E+000	-1.37449E-004	-2.40040E-001	3.44796E-001	3.57630E+000	9	...........
	43	0.586667	3.37952E-001	-3.98228E-004	0.00000E+000	-1.34582E-004	-2.40040E-001	3.38015E-001	3.57630E+000	9	...........
	44	0.6	3.31130E-001	-3.97422E-004	0.00000E+000	-1.31598E-004	-2.40040E-001	3.31193E-001	3.57630E+000	9	...........
	45	0.613333	3.24383E-001	-3.98313E-004	0.00000E+000	-1.29206E-004	-2.40040E-001	3.24441E-001	3.57630E+000	9	...........
	46	0.626667	3.17672E-001	-3.98419E-004	0.00000E+000	-1.26567E-004	-2.40040E-001	3.17730E-001	3.57630E+000	9	...........
	47	0.64	3.11007E-001	-3.99430E-004	0.00000E+000	-1.24226E-004	-2.40040E-001	3.11069E-001	3.57630E+000	9	...........
	48	0.653333	3.04364E-001	-3.97628E-004	0.00000E+000	-1.21023E-004	-2.40040E-001	3.04421E-001	3.57630E+000	9	...........
	49	0.666667	2.97780E-001	-3.99045E-004	0.00000E+000	-1.18828E-004	-2.40040E-001	2.97833E-001	3.57630E+000	9	...........
	50	0.68	2.91194E-001	-3.98217E-004	0.00000E+000	-1.15958E-004	-2.40040E-001	2.91246E-001	3.57630E+000	9	...........
	51	0.693333	2.84714E-001	-3.98993E-004	0.00000E+000	-1.13599E-004	-2.40040E-001	2.84771E-001	3.57630E+000	9	...........
	52	0.706667	2.78288E-001	-3.98841E-004	0.00000E+000	-1.10992E-004	-2.40040E-001	2.78340E-001	3.57630E+000	9	...........
	53	0.72	2.71886E-001	-3.99326E-004	0.00000E+000	-1.08571E-004	-2.40040E-001	2.71937E-001	3.57630E+000	9	...........
	54	0.733333	2.65590E-001	-3.97809E-004	0.00000E+000	-1.05654E-004	-2.40040E-001	2.65643E-001	3.57630E+000	9	...........
	55	0.746667	2.59248E-001	-4.00099E-004	0.00000E+000	-1.03725E-004	-2.40040E-001	2.59299E-001	3.57630E+000	9	...........
	56	0.76	2.53012E-001	-3.97773E-004	0.00000E+000	-1.00641E-004	-2.40040E-001	2.53058E-001	3.57630E+000	9	...........
	57	0.773333	2.46864E-001	-3.98080E-004	0.00000E+000	-9.82718E-005	-2.40040E-001	2.46908E-001	3.57630E+000	9	...........
	58	0.786667	2.40686E-001	-3.99231E-004	0.00000E+000	-9.60896E-005	-2.40040E-001	2.40731E-001	3.57630E+000	9	...........
	59	0.8	2.34631E-001	-3.98817E-004	0.00000E+000	-9.35749E-005	-2.40040E-001	2.34676E-001	3.57630E+000	9	...........
	60	0.813333	2.28491E-001	-3.97905E-004	0.00000E+000	-9.09175E-005	-2.40040E-001	2.28527E-001	3.57630E+000	9	...........
	61	0.826667	2.22455E-001	-3.97903E-004	0.00000E+000	-8.85156E-005	-2.40040E-001	2.22493E-001	3.57630E+000	9	...........
	62	0.84	2.16412E-001	-3.99851E-004	0.00000E+000	-8.65326E-005	-2.40040E-001	2.16456E-001	3.57630E+000	9	...........
	63	0.853333	2.10459E-001	-3.99772E-004	0.00000E+000	-8.41355E-005	-2.40040E-001	2.10496E-001	3.57630E+000	9	...........
	64	0.866667	2.04531E-001	-3.99678E-004	0.00000E+000	-8.17466E-005	-2.40040E-001	2.04567E-001	3.57630E+000	9	...........
	65	0.88	1.98635E-001	-3.97991E-004	0.00000E+000	-7.90550E-005	-2.40040E-001	1.98673E-001	3.57630E+000	9	...........
	66	0.893333	1.92718E-001	-3.98796E-004	0.00000E+000	-7.68552E-005	-2.40040E-001	1.92753E-001	3.57630E+000	9	...........
	67	0.906667	1.86963E-001	-3.99655E-004	0.00000E+000	-7.47209E-005	-2.40040E-001	1.87001E-001	3.57630E+000	9	...........
	68	0.92	1.81244E-001	-3.97584E-004	0.00000E+000	-7.20596E-005	-2.40040E-001	1.81277E-001	3.57647E+000	9	...........
	69	0.933333	1.75528E-001	-3.97855E-004	0.00000E+000	-6.98348E-005	-2.40040E-001	1.75560E-001	3.57770E+000	9	...........
	70	0.946667	1.69838E-001	-3.99130E-004	0.00000E+000	-6.77876E-005	-2.40040E-001	1.69874E-001	3.57770E+000	9	...........
	71	0.96	1.64195E-001	-3.98403E-004	0.00000E+000	-6.54159E-005	-2.40040E-001	1.64229E-001	3.57770E+000	9	...........
	72	0.97333	1.58602E-001	-3.99061E-004	0.00000E+000	-6.32918E-005	-2.40040E-001	1.58632E-001	3.57770E+000	9	...........
	73	0.98667	1.53087E-001	-3.99076E-004	0.00000E+000	-6.10934E-005	-2.40040E-001	1.53110E-001	3.57770E+000	9	...........
	74	1	1.47587E-001	-3.98948E-004	0.00000E+000	-5.88796E-005	-2.40040E-001	1.47611E-001	3.57770E+000	9	...........
	75	1.01333	1.42091E-001	-3.98566E-004	0.00000E+000	-5.66328E-005	-2.40040E-001	1.42115E-001	3.57770E+000	9	...........
	76	1.02667	1.36586E-001	-3.98984E-004	0.00000E+000	-5.44956E-005	-2.40040E-001	1.36610E-001	3.57770E+000	9	...........
	77	1.04	1.31178E-001	-3.98687E-004	0.00000E+000	-5.22992E-005	-2.40040E-001	1.31203E-001	3.57770E+000	9	...........
	78	1.05333	1.25803E-001	-3.99091E-004	0.00000E+000	-5.02068E-005	-2.40040E-001	1.25823E-001	3.57770E+000	9	...........
	79	1.06667	1.20503E-001	-3.97516E-004	0.00000E+000	-4.79017E-005	-2.40040E-001	1.20517E-001	3.57770E+000	9	...........
	80	1.08	1.15280E-001	-3.98277E-004	0.00000E+000	-4.59132E-005	-2.40040E-001	1.15298E-001	3.57770E+000	9	...........
	81	1.09333	1.09956E-001	-3.98025E-004	0.00000E+000	-4.37652E-005	-2.40040E-001	1.09977E-001	3.57770E+000	9	...........
	82	1.10667	1.04720E-001	-3.97716E-004	0.00000E+000	-4.16489E-005	-2.40040E-001	1.04740E-001	3.57770E+000	9	...........
	83	1.12	9.94436E-002	-3.97810E-004	0.00000E+000	-3.95597E-005	-2.40040E-001	9.94620E-002	3.57770E+000	9	...........
	84	1.13333	9.42495E-002	-3.98928E-004	0.00000E+000	-3.75988E-005	-2.40040E-001	9.42667E-002	3.57770E+000	9	...........
	85	1.14667	8.91326E-002	-3.98613E-004	0.00000E+000	-3.55295E-005	-2.40040E-001	8.91484E-002	3.57770E+000	9	...........
	86	1.16	8.39700E-002	-3.99714E-004	0.00000E+000	-3.35640E-005	-2.40040E-001	8.39904E-002	3.57770E+000	9	...........
	87	1.17333	7.88900E-002	-3.97614E-004	0.00000E+000	-3.13678E-005	-2.40040E-001	7.88984E-002	3.57770E+000	9	...........
	88	1.18667	7.38515E-002	-3.98663E-004	0.00000E+000	-2.94419E-005	-2.40040E-001	7.38587E-002	3.57770E+000	9	...........
	89	1.2	6.88057E-002	-3.98622E-004	0.00000E+000	-2.74274E-005	-2.40040E-001	6.88155E-002	3.57770E+000	9	...........
	90	1.21333	6.37886E-002	-3.98152E-004	0.00000E+000	-2.53975E-005	-2.40040E-001	6.37929E-002	3.57770E+000	9	...........
	91	1.22667	5.88437E-002	-3.99163E-004	0.00000E+000	-2.34882E-005	-2.40040E-001	5.88518E-002	3.57770E+000	9	...........
	92	1.24	5.39200E-002	-3.97907E-004	0.00000E+000	-2.14552E-005	-2.40040E-001	5.39264E-002	3.57770E+000	9	...........
	93	1.25333	4.90333E-002	-3.98802E-004	0.00000E+000	-1.95546E-005	-2.40040E-001	4.90394E-002	3.57770E+000	9	...........
	94	1.26667	4.42104E-002	-3.98442E-004	0.00000E+000	-1.76153E-005	-2.40040E-001	4.42115E-002	3.57770E+000	9	...........
	95	1.28	3.93624E-002	-3.97767E-004	0.00000E+000	-1.56571E-005	-2.40040E-001	3.93650E-002	3.57770E+000	9	...........
	96	1.29333	3.45320E-002	-3.99189E-004	0.00000E+000	-1.37848E-005	-2.40040E-001	3.45283E-002	3.57770E+000	9	...........
	97	1.30667	2.98200E-002	-3.98175E-004	0.00000E+000	-1.18736E-005	-2.40040E-001	2.98185E-002	3.57770E+000	9	...........
	98	1.32	2.50860E-002	-3.98784E-004	0.00000E+000	-1.00039E-005	-2.40040E-001	2.50781E-002	3.57770E+000	9	...........
	99	1.33333	2.04072E-002	-3.98001E-004	0.00000E+000	-8.12208E-006	-2.40040E-001	2.03940E-002	3.57770E+000	9	...........
	100	1.34667	1.57047E-002	-3.98627E-004	0.00000E+000	-6.26032E-006	-2.40040E-001	1.56940E-002	3.57770E+000	9	...........
	101	1.36	1.09741E-002	-3.98630E-004	0.00000E+000	-4.37463E-006	-2.40040E-001	1.09625E-002	3.57770E+000	9	...........
	102	1.37333	6.35318E-003	-3.99231E-004	0.00000E+000	-2.53639E-006	-2.40040E-001	6.33609E-003	3.57770E+000	9	...........
	103	1.38667	1.72851E-003	-3.98079E-004	0.00000E+000	-6.88083E-007	-2.40040E-001	1.71134E-003	3.57770E+000	9	...........
STARTTIMEOFFSET	QUANT	2572.782	Start Time Offset (s)
