EXPLAIN
TAG	PWR800_DISCHARGE
TITLE	LABEL	PWR Cyclic Charge Discharge (Cell) - Discharge Step	Test &Identifier
DATE	LABEL	12-7-2017	Date
TIME	LABEL	15:05:54	Time
NOTES	NOTES	3	&Notes...
	supercap test cell
	0.4mg
	6M KOH
PSTAT	PSTAT	IFC5000-01520	Potentiostat
CAPACITY	QUANT	1.00000E-003	Capacity (A-hr)
CELLTYPE	SELECTOR	1	&Cell Type
WORKINGCONNECTION	SELECTOR	0	&Working Lead
MAXDISCHARGETIME	VARIABLEANDUNITS	1.00000E+002	s	1.00000E+002	second(s)	Max &Discharge Time
DISCHARGEMODE	MULTIPARAM	0	4.00000E-004	&Discharge Mode	Constant Current	Amp(s)
SAMPLETIME	QUANT	1.00000E-002	Sa&mple Period (s)
DISCHARGESTOPAT1	MULTIPARAM	3	0.00000E+000	Discharge Stop At &1	Voltage < Limit	V
DISCHARGESTOPAT2	MULTIPARAM	0	0.00000E+000	Discharge Stop At &2	None	N/A
AESBHCSELECTOR	TOGGLE	F	Save Both Half Cells
IRCOMP	TOGGLE	F	IR &Measure
EOC	QUANT	0	Open Circuit (V)
SEQUENCER	TOGGLE	TRUE	Run as Sequence
PSTATMODEL	IQUANT	53	Pstat Model
PSTATSECTION	LABEL	IFC5000-01520	Pstat Section
PSTATSERIALNO	LABEL	01520	Pstat Serial Number
CTRLMODE	IQUANT	0	Control Mode
ELECTROMETER	IQUANT	1	RE=0 or CS=1
IESTAB	IQUANT	0	I/E Stability
CASPEED	IQUANT	4	Control Amp Speed
CONVENTION	IQUANT	1	Current Convention
ICHRANGE	IQUANT	2	Ich Range
ICHRANGEMODE	TOGGLE	T	Ich Auto Range
ICHOFFSETENABLE	TOGGLE	F	Ich Offset Enable
ICHOFFSET	QUANT	0	Ich Offset (V)
ICHFILTER	IQUANT	1	Ich Filter
VCHRANGE	IQUANT	2	Vch Range
VCHRANGEMODE	TOGGLE	T	Vch Auto Range
VCHOFFSETENABLE	TOGGLE	F	Vch Offset Enable
VCHOFFSET	QUANT	0	Vch Offset (V)
VCHFILTER	IQUANT	1	Vch Filter
IERANGELOWERLIMIT	IQUANT	9	I/E Range Lower Limit
IERANGEMODE	TOGGLE	F	I/E AutoRange
IERANGE	IQUANT	9	I/E Range
ACHSELECT	IQUANT	1	Ach Select
ACHRANGE	IQUANT	2	Ach Range
ACHOFFSETENABLE	TOGGLE	F	Ach Offset Enable
ACHOFFSET	QUANT	0	Ach Offset (V)
ACHFILTER	IQUANT	1	Ach Filter
CABLEID	IQUANT	14	Cable ID
DCCALDATE	LABEL	5-7-2017	DC Calibration Date
ACCALDATE	LABEL	12/3/2015	AC Calibration Date
FRAMEWORKVERSION	QUANT	7.01	Framework Version
INSTRUMENTVERSION	LABEL	4.00	Instrument Version
CURVE	TABLE	107
	Pt	T	Vf	Im	Vu	Pwr	Sig	Ach	Temp	IERange	Over
	#	s	V	A	V	W	V	V	deg C	#	bits
	0	0.013333	6.90267E-001	-3.99191E-004	0.00000E+000	-2.75548E-004	-2.40040E-001	6.90473E-001	3.57770E+000	9	...........
	1	0.026667	6.77195E-001	-3.97894E-004	0.00000E+000	-2.69452E-004	-2.40040E-001	6.77420E-001	3.57770E+000	9	...........
	2	0.04	6.65731E-001	-3.97472E-004	0.00000E+000	-2.64609E-004	-2.40040E-001	6.65939E-001	3.57770E+000	9	...........
	3	0.053333	6.55141E-001	-3.98272E-004	0.00000E+000	-2.60924E-004	-2.40040E-001	6.55374E-001	3.57770E+000	9	...........
	4	0.066667	6.45247E-001	-3.97956E-004	0.00000E+000	-2.56780E-004	-2.40040E-001	6.45461E-001	3.57671E+000	9	...........
	5	0.08	6.35704E-001	-3.99289E-004	0.00000E+000	-2.53829E-004	-2.40040E-001	6.35923E-001	3.57630E+000	9	...........
	6	0.093333	6.26607E-001	-3.97531E-004	0.00000E+000	-2.49096E-004	-2.40040E-001	6.26796E-001	3.57630E+000	9	...........
	7	0.106667	6.17705E-001	-3.97826E-004	0.00000E+000	-2.45739E-004	-2.40040E-001	6.17907E-001	3.57630E+000	9	...........
	8	0.12	6.08891E-001	-3.98418E-004	0.00000E+000	-2.42593E-004	-2.40040E-001	6.09118E-001	3.57630E+000	9	...........
	9	0.133333	6.00350E-001	-3.98841E-004	0.00000E+000	-2.39444E-004	-2.40040E-001	6.00592E-001	3.57630E+000	9	...........
	10	0.146667	5.91978E-001	-3.98694E-004	0.00000E+000	-2.36018E-004	-2.40040E-001	5.92198E-001	3.57630E+000	9	...........
	11	0.16	5.83657E-001	-3.99340E-004	0.00000E+000	-2.33077E-004	-2.40040E-001	5.83867E-001	3.57630E+000	9	...........
	12	0.173333	5.75467E-001	-3.98574E-004	0.00000E+000	-2.29366E-004	-2.40040E-001	5.75682E-001	3.57630E+000	9	...........
	13	0.186667	5.67319E-001	-3.99540E-004	0.00000E+000	-2.26666E-004	-2.40040E-001	5.67502E-001	3.57630E+000	9	...........
	14	0.2	5.59218E-001	-3.99585E-004	0.00000E+000	-2.23455E-004	-2.40040E-001	5.59416E-001	3.57630E+000	9	...........
	15	0.213333	5.51231E-001	-3.99159E-004	0.00000E+000	-2.20029E-004	-2.40040E-001	5.51385E-001	3.57630E+000	9	...........
	16	0.226667	5.43301E-001	-3.99857E-004	0.00000E+000	-2.17243E-004	-2.40040E-001	5.43467E-001	3.57630E+000	9	...........
	17	0.24	5.35452E-001	-3.98956E-004	0.00000E+000	-2.13622E-004	-2.40040E-001	5.35615E-001	3.57630E+000	9	...........
	18	0.253333	5.27710E-001	-3.99076E-004	0.00000E+000	-2.10597E-004	-2.40040E-001	5.27891E-001	3.57630E+000	9	...........
	19	0.266667	5.19984E-001	-3.98976E-004	0.00000E+000	-2.07461E-004	-2.40040E-001	5.20148E-001	3.57630E+000	9	...........
	20	0.28	5.12213E-001	-3.97774E-004	0.00000E+000	-2.03745E-004	-2.40040E-001	5.12413E-001	3.57630E+000	9	...........
	21	0.293333	5.04445E-001	-3.99134E-004	0.00000E+000	-2.01342E-004	-2.40040E-001	5.04676E-001	3.57630E+000	9	...........
	22	0.306667	4.96781E-001	-3.97421E-004	0.00000E+000	-1.97431E-004	-2.40040E-001	4.96996E-001	3.57630E+000	9	...........
	23	0.32	4.89221E-001	-3.98298E-004	0.00000E+000	-1.94856E-004	-2.40040E-001	4.89431E-001	3.57630E+000	9	...........
	24	0.333333	4.81904E-001	-3.98286E-004	0.00000E+000	-1.91936E-004	-2.40040E-001	4.82026E-001	3.57630E+000	9	...........
	25	0.346667	4.74469E-001	-3.98286E-004	0.00000E+000	-1.88975E-004	-2.40040E-001	4.74561E-001	3.57630E+000	9	...........
	26	0.36	4.67040E-001	-3.99345E-004	0.00000E+000	-1.86510E-004	-2.40040E-001	4.67130E-001	3.57630E+000	9	...........
	27	0.373333	4.59636E-001	-4.00138E-004	0.00000E+000	-1.83918E-004	-2.40040E-001	4.59721E-001	3.57630E+000	9	...........
	28	0.386667	4.52275E-001	-3.98176E-004	0.00000E+000	-1.80085E-004	-2.40040E-001	4.52368E-001	3.57630E+000	9	...........
	29	0.4	4.44977E-001	-3.98071E-004	0.00000E+000	-1.77132E-004	-2.40040E-001	4.45071E-001	3.57630E+000	9	...........
	30	0.413333	4.37633E-001	-3.98554E-004	0.00000E+000	-1.74421E-004	-2.40040E-001	4.37725E-001	3.57630E+000	9	...........
	31	0.426667	4.30364E-001	-3.98976E-004	0.00000E+000	-1.71705E-004	-2.40040E-001	4.30445E-001	3.57630E+000	9	...........
	32	0.44	4.23165E-001	-4.00560E-004	0.00000E+000	-1.69503E-004	-2.40040E-001	4.23244E-001	3.57630E+000	9	...........
	33	0.453333	4.16028E-001	-3.99396E-004	0.00000E+000	-1.66160E-004	-2.40040E-001	4.16109E-001	3.57630E+000	9	...........
	34	0.466667	4.08910E-001	-4.00004E-004	0.00000E+000	-1.63566E-004	-2.40040E-001	4.08984E-001	3.57630E+000	9	...........
	35	0.48	4.01810E-001	-3.98140E-004	0.00000E+000	-1.59977E-004	-2.40040E-001	4.01887E-001	3.57630E+000	9	...........
	36	0.493333	3.94792E-001	-3.99212E-004	0.00000E+000	-1.57606E-004	-2.40040E-001	3.94866E-001	3.57630E+000	9	...........
	37	0.506667	3.87830E-001	-3.99181E-004	0.00000E+000	-1.54815E-004	-2.40040E-001	3.87904E-001	3.57630E+000	9	...........
	38	0.52	3.80906E-001	-3.98459E-004	0.00000E+000	-1.51776E-004	-2.40040E-001	3.80982E-001	3.57630E+000	9	...........
	39	0.533333	3.74045E-001	-3.98540E-004	0.00000E+000	-1.49072E-004	-2.40040E-001	3.74116E-001	3.57630E+000	9	...........
	40	0.546667	3.67282E-001	-3.98386E-004	0.00000E+000	-1.46320E-004	-2.40040E-001	3.67358E-001	3.57630E+000	9	...........
	41	0.56	3.60486E-001	-3.99357E-004	0.00000E+000	-1.43963E-004	-2.40040E-001	3.60558E-001	3.57630E+000	9	...........
	42	0.573333	3.53697E-001	-3.99081E-004	0.00000E+000	-1.41154E-004	-2.40040E-001	3.53767E-001	3.57630E+000	9	...........
	43	0.586667	3.46892E-001	-3.99763E-004	0.00000E+000	-1.38675E-004	-2.40040E-001	3.46966E-001	3.57630E+000	9	...........
	44	0.6	3.40173E-001	-3.98438E-004	0.00000E+000	-1.35538E-004	-2.40040E-001	3.40237E-001	3.57630E+000	9	...........
	45	0.613333	3.33499E-001	-3.98265E-004	0.00000E+000	-1.32821E-004	-2.40040E-001	3.33569E-001	3.57630E+000	9	...........
	46	0.626667	3.26892E-001	-3.99696E-004	0.00000E+000	-1.30657E-004	-2.40040E-001	3.26958E-001	3.57630E+000	9	...........
	47	0.64	3.20343E-001	-3.98527E-004	0.00000E+000	-1.27666E-004	-2.40040E-001	3.20406E-001	3.57630E+000	9	...........
	48	0.653333	3.13800E-001	-3.98658E-004	0.00000E+000	-1.25099E-004	-2.40040E-001	3.13858E-001	3.57630E+000	9	...........
	49	0.666667	3.07315E-001	-3.98495E-004	0.00000E+000	-1.22464E-004	-2.40040E-001	3.07375E-001	3.57630E+000	9	...........
	50	0.68	3.00877E-001	-3.98269E-004	0.00000E+000	-1.19830E-004	-2.40040E-001	3.00931E-001	3.57630E+000	9	...........
	51	0.693333	2.94454E-001	-3.99526E-004	0.00000E+000	-1.17642E-004	-2.40040E-001	2.94504E-001	3.57630E+000	9	...........
	52	0.706667	2.88116E-001	-3.97838E-004	0.00000E+000	-1.14624E-004	-2.40040E-001	2.88174E-001	3.57630E+000	9	...........
	53	0.72	2.81812E-001	-3.97812E-004	0.00000E+000	-1.12108E-004	-2.40040E-001	2.81865E-001	3.57630E+000	9	...........
	54	0.733333	2.75479E-001	-3.98723E-004	0.00000E+000	-1.09840E-004	-2.40040E-001	2.75534E-001	3.57630E+000	9	...........
	55	0.746667	2.69234E-001	-4.00133E-004	0.00000E+000	-1.07729E-004	-2.40040E-001	2.69285E-001	3.57630E+000	9	...........
	56	0.76	2.63043E-001	-3.99094E-004	0.00000E+000	-1.04979E-004	-2.40040E-001	2.63095E-001	3.57630E+000	9	...........
	57	0.773333	2.56935E-001	-3.99367E-004	0.00000E+000	-1.02611E-004	-2.40040E-001	2.56984E-001	3.57630E+000	9	...........
	58	0.786667	2.50844E-001	-3.98289E-004	0.00000E+000	-9.99085E-005	-2.40040E-001	2.50892E-001	3.57630E+000	9	...........
	59	0.8	2.44714E-001	-3.98906E-004	0.00000E+000	-9.76179E-005	-2.40040E-001	2.44759E-001	3.57630E+000	9	...........
	60	0.813333	2.38747E-001	-3.98854E-004	0.00000E+000	-9.52254E-005	-2.40040E-001	2.38792E-001	3.57630E+000	9	...........
	61	0.826667	2.32760E-001	-3.98363E-004	0.00000E+000	-9.27231E-005	-2.40040E-001	2.32804E-001	3.57630E+000	9	...........
	62	0.84	2.26912E-001	-3.98613E-004	0.00000E+000	-9.04500E-005	-2.40040E-001	2.26954E-001	3.57630E+000	9	...........
	63	0.853333	2.20990E-001	-3.99531E-004	0.00000E+000	-8.82924E-005	-2.40040E-001	2.21030E-001	3.57630E+000	9	...........
	64	0.866667	2.15159E-001	-3.98905E-004	0.00000E+000	-8.58279E-005	-2.40040E-001	2.15200E-001	3.57630E+000	9	...........
	65	0.88	2.09296E-001	-3.98865E-004	0.00000E+000	-8.34809E-005	-2.40040E-001	2.09334E-001	3.57630E+000	9	...........
	66	0.893333	2.03452E-001	-3.99555E-004	0.00000E+000	-8.12905E-005	-2.40040E-001	2.03498E-001	3.57630E+000	9	...........
	67	0.906667	1.97727E-001	-3.98036E-004	0.00000E+000	-7.87023E-005	-2.40040E-001	1.97770E-001	3.57630E+000	9	...........
	68	0.92	1.92051E-001	-3.99087E-004	0.00000E+000	-7.66448E-005	-2.40040E-001	1.92088E-001	3.57630E+000	9	...........
	69	0.933333	1.86319E-001	-3.99022E-004	0.00000E+000	-7.43454E-005	-2.40040E-001	1.86359E-001	3.57630E+000	9	...........
	70	0.946667	1.80782E-001	-3.98559E-004	0.00000E+000	-7.20522E-005	-2.40040E-001	1.80815E-001	3.57630E+000	9	...........
	71	0.96	1.75180E-001	-3.99045E-004	0.00000E+000	-6.99046E-005	-2.40040E-001	1.75217E-001	3.57630E+000	9	...........
	72	0.97333	1.69669E-001	-3.97770E-004	0.00000E+000	-6.74890E-005	-2.40040E-001	1.69700E-001	3.57630E+000	9	...........
	73	0.98667	1.64214E-001	-3.98693E-004	0.00000E+000	-6.54710E-005	-2.40040E-001	1.64243E-001	3.57630E+000	9	...........
	74	1	1.58688E-001	-3.98990E-004	0.00000E+000	-6.33150E-005	-2.40040E-001	1.58718E-001	3.57630E+000	9	...........
	75	1.01333	1.53212E-001	-3.98543E-004	0.00000E+000	-6.10615E-005	-2.40040E-001	1.53239E-001	3.57630E+000	9	...........
	76	1.02667	1.47754E-001	-3.98075E-004	0.00000E+000	-5.88171E-005	-2.40040E-001	1.47778E-001	3.57630E+000	9	...........
	77	1.04	1.42355E-001	-3.97109E-004	0.00000E+000	-5.65303E-005	-2.40040E-001	1.42378E-001	3.57630E+000	9	...........
	78	1.05333	1.36993E-001	-3.98435E-004	0.00000E+000	-5.45827E-005	-2.40040E-001	1.37016E-001	3.57630E+000	9	...........
	79	1.06667	1.31746E-001	-3.96769E-004	0.00000E+000	-5.22727E-005	-2.40040E-001	1.31766E-001	3.57630E+000	9	...........
	80	1.08	1.26500E-001	-3.98528E-004	0.00000E+000	-5.04137E-005	-2.40040E-001	1.26514E-001	3.57630E+000	9	...........
	81	1.09333	1.21360E-001	-3.98317E-004	0.00000E+000	-4.83395E-005	-2.40040E-001	1.21378E-001	3.57630E+000	9	...........
	82	1.10667	1.16109E-001	-3.98259E-004	0.00000E+000	-4.62414E-005	-2.40040E-001	1.16134E-001	3.57630E+000	9	...........
	83	1.12	1.10967E-001	-3.99022E-004	0.00000E+000	-4.42781E-005	-2.40040E-001	1.10987E-001	3.57630E+000	9	...........
	84	1.13333	1.05920E-001	-3.98691E-004	0.00000E+000	-4.22293E-005	-2.40040E-001	1.05937E-001	3.57630E+000	9	...........
	85	1.14667	1.00768E-001	-3.98454E-004	0.00000E+000	-4.01514E-005	-2.40040E-001	1.00782E-001	3.57630E+000	9	...........
	86	1.16	9.56517E-002	-3.98430E-004	0.00000E+000	-3.81105E-005	-2.40040E-001	9.56657E-002	3.57630E+000	9	...........
	87	1.17333	9.05732E-002	-3.98839E-004	0.00000E+000	-3.61241E-005	-2.40040E-001	9.05898E-002	3.57630E+000	9	...........
	88	1.18667	8.55065E-002	-3.99401E-004	0.00000E+000	-3.41514E-005	-2.40040E-001	8.55248E-002	3.57630E+000	9	...........
	89	1.2	8.04306E-002	-3.99483E-004	0.00000E+000	-3.21307E-005	-2.40040E-001	8.04406E-002	3.57630E+000	9	...........
	90	1.21333	7.55761E-002	-3.98683E-004	0.00000E+000	-3.01309E-005	-2.40040E-001	7.55825E-002	3.57630E+000	9	...........
	91	1.22667	7.06573E-002	-3.98765E-004	0.00000E+000	-2.81756E-005	-2.40040E-001	7.06612E-002	3.57630E+000	9	...........
	92	1.24	6.56982E-002	-3.98493E-004	0.00000E+000	-2.61803E-005	-2.40040E-001	6.57035E-002	3.57630E+000	9	...........
	93	1.25333	6.08074E-002	-3.98602E-004	0.00000E+000	-2.42380E-005	-2.40040E-001	6.08170E-002	3.57630E+000	9	...........
	94	1.26667	5.60303E-002	-3.98509E-004	0.00000E+000	-2.23286E-005	-2.40040E-001	5.60349E-002	3.57630E+000	9	...........
	95	1.28	5.11563E-002	-3.99124E-004	0.00000E+000	-2.04177E-005	-2.40040E-001	5.11623E-002	3.57630E+000	9	...........
	96	1.29333	4.63918E-002	-3.99341E-004	0.00000E+000	-1.85261E-005	-2.40040E-001	4.64025E-002	3.57630E+000	9	...........
	97	1.30667	4.16824E-002	-3.98309E-004	0.00000E+000	-1.66025E-005	-2.40040E-001	4.16824E-002	3.57630E+000	9	...........
	98	1.32	3.69125E-002	-3.99901E-004	0.00000E+000	-1.47614E-005	-2.40040E-001	3.69116E-002	3.57630E+000	9	...........
	99	1.33333	3.21843E-002	-3.98028E-004	0.00000E+000	-1.28102E-005	-2.40040E-001	3.21815E-002	3.57630E+000	9	...........
	100	1.34667	2.75642E-002	-3.98885E-004	0.00000E+000	-1.09950E-005	-2.40040E-001	2.75609E-002	3.57630E+000	9	...........
	101	1.36	2.28814E-002	-3.98202E-004	0.00000E+000	-9.11143E-006	-2.40040E-001	2.28736E-002	3.57630E+000	9	...........
	102	1.37333	1.82546E-002	-3.97404E-004	0.00000E+000	-7.25443E-006	-2.40040E-001	1.82522E-002	3.57630E+000	9	...........
	103	1.38667	1.37334E-002	-3.99433E-004	0.00000E+000	-5.48556E-006	-2.40040E-001	1.37213E-002	3.57630E+000	9	...........
	104	1.4	9.22209E-003	-3.97959E-004	0.00000E+000	-3.67002E-006	-2.40040E-001	9.20921E-003	3.57630E+000	9	...........
	105	1.41333	4.70912E-003	-4.00167E-004	0.00000E+000	-1.88443E-006	-2.40040E-001	4.69053E-003	3.57630E+000	9	...........
	106	1.42167	1.06974E-003	-3.98680E-004	0.00000E+000	-4.26485E-007	-2.40040E-001	1.04799E-003	3.57630E+000	9	...........
STARTTIMEOFFSET	QUANT	2249.127	Start Time Offset (s)
