EXPLAIN
TAG	PWR800_DISCHARGE
TITLE	LABEL	PWR Cyclic Charge Discharge (Cell) - Discharge Step	Test &Identifier
DATE	LABEL	12-7-2017	Date
TIME	LABEL	14:38:56	Time
NOTES	NOTES	3	&Notes...
	supercap test cell
	0.4mg
	6M KOH
PSTAT	PSTAT	IFC5000-01520	Potentiostat
CAPACITY	QUANT	1.00000E-003	Capacity (A-hr)
CELLTYPE	SELECTOR	1	&Cell Type
WORKINGCONNECTION	SELECTOR	0	&Working Lead
MAXDISCHARGETIME	VARIABLEANDUNITS	1.00000E+002	s	1.00000E+002	second(s)	Max &Discharge Time
DISCHARGEMODE	MULTIPARAM	0	4.00000E-004	&Discharge Mode	Constant Current	Amp(s)
SAMPLETIME	QUANT	1.00000E-002	Sa&mple Period (s)
DISCHARGESTOPAT1	MULTIPARAM	3	0.00000E+000	Discharge Stop At &1	Voltage < Limit	V
DISCHARGESTOPAT2	MULTIPARAM	0	0.00000E+000	Discharge Stop At &2	None	N/A
AESBHCSELECTOR	TOGGLE	F	Save Both Half Cells
IRCOMP	TOGGLE	F	IR &Measure
EOC	QUANT	0	Open Circuit (V)
SEQUENCER	TOGGLE	TRUE	Run as Sequence
PSTATMODEL	IQUANT	53	Pstat Model
PSTATSECTION	LABEL	IFC5000-01520	Pstat Section
PSTATSERIALNO	LABEL	01520	Pstat Serial Number
CTRLMODE	IQUANT	0	Control Mode
ELECTROMETER	IQUANT	1	RE=0 or CS=1
IESTAB	IQUANT	0	I/E Stability
CASPEED	IQUANT	4	Control Amp Speed
CONVENTION	IQUANT	1	Current Convention
ICHRANGE	IQUANT	2	Ich Range
ICHRANGEMODE	TOGGLE	T	Ich Auto Range
ICHOFFSETENABLE	TOGGLE	F	Ich Offset Enable
ICHOFFSET	QUANT	0	Ich Offset (V)
ICHFILTER	IQUANT	1	Ich Filter
VCHRANGE	IQUANT	2	Vch Range
VCHRANGEMODE	TOGGLE	T	Vch Auto Range
VCHOFFSETENABLE	TOGGLE	F	Vch Offset Enable
VCHOFFSET	QUANT	0	Vch Offset (V)
VCHFILTER	IQUANT	1	Vch Filter
IERANGELOWERLIMIT	IQUANT	9	I/E Range Lower Limit
IERANGEMODE	TOGGLE	F	I/E AutoRange
IERANGE	IQUANT	9	I/E Range
ACHSELECT	IQUANT	1	Ach Select
ACHRANGE	IQUANT	2	Ach Range
ACHOFFSETENABLE	TOGGLE	F	Ach Offset Enable
ACHOFFSET	QUANT	0	Ach Offset (V)
ACHFILTER	IQUANT	1	Ach Filter
CABLEID	IQUANT	14	Cable ID
DCCALDATE	LABEL	5-7-2017	DC Calibration Date
ACCALDATE	LABEL	12/3/2015	AC Calibration Date
FRAMEWORKVERSION	QUANT	7.01	Framework Version
INSTRUMENTVERSION	LABEL	4.00	Instrument Version
CURVE	TABLE	120
	Pt	T	Vf	Im	Vu	Pwr	Sig	Ach	Temp	IERange	Over
	#	s	V	A	V	W	V	V	deg C	#	bits
	0	0.013333	7.08496E-001	-3.97711E-004	0.00000E+000	-2.81777E-004	-2.40040E-001	7.08735E-001	3.57600E+000	9	...........
	1	0.026667	6.96664E-001	-3.96692E-004	0.00000E+000	-2.76361E-004	-2.40040E-001	6.96865E-001	3.57600E+000	9	...........
	2	0.04	6.86293E-001	-3.99567E-004	0.00000E+000	-2.74220E-004	-2.40040E-001	6.86509E-001	3.57600E+000	9	...........
	3	0.053333	6.76693E-001	-3.98416E-004	0.00000E+000	-2.69605E-004	-2.40040E-001	6.76918E-001	3.57600E+000	9	...........
	4	0.066667	6.67517E-001	-3.99082E-004	0.00000E+000	-2.66394E-004	-2.40040E-001	6.67764E-001	3.57600E+000	9	...........
	5	0.08	6.58691E-001	-3.99420E-004	0.00000E+000	-2.63094E-004	-2.40040E-001	6.58924E-001	3.57600E+000	9	...........
	6	0.093333	6.50237E-001	-3.99017E-004	0.00000E+000	-2.59455E-004	-2.40040E-001	6.50473E-001	3.57600E+000	9	...........
	7	0.106667	6.42045E-001	-3.98179E-004	0.00000E+000	-2.55649E-004	-2.40040E-001	6.42267E-001	3.57600E+000	9	...........
	8	0.12	6.33959E-001	-3.98478E-004	0.00000E+000	-2.52619E-004	-2.40040E-001	6.34193E-001	3.57600E+000	9	...........
	9	0.133333	6.26070E-001	-4.00548E-004	0.00000E+000	-2.50771E-004	-2.40040E-001	6.26283E-001	3.57600E+000	9	...........
	10	0.146667	6.18354E-001	-3.99179E-004	0.00000E+000	-2.46834E-004	-2.40040E-001	6.18549E-001	3.57600E+000	9	...........
	11	0.16	6.10623E-001	-4.00159E-004	0.00000E+000	-2.44346E-004	-2.40040E-001	6.10860E-001	3.57600E+000	9	...........
	12	0.173333	6.02932E-001	-3.98648E-004	0.00000E+000	-2.40357E-004	-2.40040E-001	6.03167E-001	3.57600E+000	9	...........
	13	0.186667	5.95355E-001	-3.99246E-004	0.00000E+000	-2.37693E-004	-2.40040E-001	5.95556E-001	3.57600E+000	9	...........
	14	0.2	5.87872E-001	-3.97888E-004	0.00000E+000	-2.33908E-004	-2.40040E-001	5.88105E-001	3.57600E+000	9	...........
	15	0.213333	5.80415E-001	-4.00250E-004	0.00000E+000	-2.32311E-004	-2.40040E-001	5.80640E-001	3.57600E+000	9	...........
	16	0.226667	5.73083E-001	-3.99648E-004	0.00000E+000	-2.29032E-004	-2.40040E-001	5.73293E-001	3.57600E+000	9	...........
	17	0.24	5.65768E-001	-3.98201E-004	0.00000E+000	-2.25289E-004	-2.40040E-001	5.65967E-001	3.57600E+000	9	...........
	18	0.253333	5.58443E-001	-3.98727E-004	0.00000E+000	-2.22666E-004	-2.40040E-001	5.58677E-001	3.57600E+000	9	...........
	19	0.266667	5.51163E-001	-3.98151E-004	0.00000E+000	-2.19446E-004	-2.40040E-001	5.51402E-001	3.57600E+000	9	...........
	20	0.28	5.44020E-001	-3.97705E-004	0.00000E+000	-2.16359E-004	-2.40040E-001	5.44245E-001	3.57600E+000	9	...........
	21	0.293333	5.36939E-001	-3.99355E-004	0.00000E+000	-2.14429E-004	-2.40040E-001	5.37161E-001	3.57600E+000	9	...........
	22	0.306667	5.29929E-001	-3.98505E-004	0.00000E+000	-2.11179E-004	-2.40040E-001	5.30150E-001	3.57600E+000	9	...........
	23	0.32	5.22883E-001	-3.99855E-004	0.00000E+000	-2.09078E-004	-2.40040E-001	5.23080E-001	3.57600E+000	9	...........
	24	0.333333	5.15841E-001	-3.97285E-004	0.00000E+000	-2.04936E-004	-2.40040E-001	5.16038E-001	3.57600E+000	9	...........
	25	0.346667	5.08828E-001	-3.99105E-004	0.00000E+000	-2.03076E-004	-2.40040E-001	5.09021E-001	3.57600E+000	9	...........
	26	0.36	5.01861E-001	-3.98284E-004	0.00000E+000	-1.99883E-004	-2.40040E-001	5.02085E-001	3.57600E+000	9	...........
	27	0.373333	4.94948E-001	-3.99458E-004	0.00000E+000	-1.97711E-004	-2.40040E-001	4.95151E-001	3.57600E+000	9	...........
	28	0.386667	4.88068E-001	-3.98513E-004	0.00000E+000	-1.94502E-004	-2.40040E-001	4.88276E-001	3.57600E+000	9	...........
	29	0.4	4.81436E-001	-3.99254E-004	0.00000E+000	-1.92215E-004	-2.40040E-001	4.81507E-001	3.57600E+000	9	...........
	30	0.413333	4.74661E-001	-3.98308E-004	0.00000E+000	-1.89061E-004	-2.40040E-001	4.74751E-001	3.57600E+000	9	...........
	31	0.426667	4.67952E-001	-3.97945E-004	0.00000E+000	-1.86219E-004	-2.40040E-001	4.68048E-001	3.57600E+000	9	...........
	32	0.44	4.61179E-001	-3.99435E-004	0.00000E+000	-1.84211E-004	-2.40040E-001	4.61273E-001	3.57600E+000	9	...........
	33	0.453333	4.54533E-001	-3.98721E-004	0.00000E+000	-1.81232E-004	-2.40040E-001	4.54618E-001	3.57600E+000	9	...........
	34	0.466667	4.47923E-001	-3.99369E-004	0.00000E+000	-1.78887E-004	-2.40040E-001	4.48010E-001	3.57600E+000	9	...........
	35	0.48	4.41304E-001	-3.97981E-004	0.00000E+000	-1.75630E-004	-2.40040E-001	4.41394E-001	3.57600E+000	9	...........
	36	0.493333	4.34739E-001	-3.97291E-004	0.00000E+000	-1.72718E-004	-2.40040E-001	4.34830E-001	3.57600E+000	9	...........
	37	0.506667	4.28235E-001	-3.97357E-004	0.00000E+000	-1.70162E-004	-2.40040E-001	4.28328E-001	3.57600E+000	9	...........
	38	0.52	4.21796E-001	-3.98925E-004	0.00000E+000	-1.68265E-004	-2.40040E-001	4.21883E-001	3.57600E+000	9	...........
	39	0.533333	4.15248E-001	-3.97684E-004	0.00000E+000	-1.65138E-004	-2.40040E-001	4.15338E-001	3.57600E+000	9	...........
	40	0.546667	4.08801E-001	-3.97683E-004	0.00000E+000	-1.62573E-004	-2.40040E-001	4.08880E-001	3.57600E+000	9	...........
	41	0.56	4.02470E-001	-3.98824E-004	0.00000E+000	-1.60515E-004	-2.40040E-001	4.02556E-001	3.57600E+000	9	...........
	42	0.573333	3.96091E-001	-3.99565E-004	0.00000E+000	-1.58264E-004	-2.40040E-001	3.96165E-001	3.57600E+000	9	...........
	43	0.586667	3.89808E-001	-3.99780E-004	0.00000E+000	-1.55838E-004	-2.40040E-001	3.89888E-001	3.57600E+000	9	...........
	44	0.6	3.83603E-001	-3.97966E-004	0.00000E+000	-1.52661E-004	-2.40040E-001	3.83678E-001	3.57600E+000	9	...........
	45	0.613333	3.77333E-001	-3.98344E-004	0.00000E+000	-1.50308E-004	-2.40040E-001	3.77413E-001	3.57600E+000	9	...........
	46	0.626667	3.71095E-001	-3.98677E-004	0.00000E+000	-1.47947E-004	-2.40040E-001	3.71168E-001	3.57600E+000	9	...........
	47	0.64	3.64849E-001	-3.99225E-004	0.00000E+000	-1.45657E-004	-2.40040E-001	3.64925E-001	3.57600E+000	9	...........
	48	0.653333	3.58703E-001	-3.98060E-004	0.00000E+000	-1.42785E-004	-2.40040E-001	3.58773E-001	3.57600E+000	9	...........
	49	0.666667	3.52593E-001	-3.97909E-004	0.00000E+000	-1.40300E-004	-2.40040E-001	3.52661E-001	3.57600E+000	9	...........
	50	0.68	3.46497E-001	-3.98811E-004	0.00000E+000	-1.38187E-004	-2.40040E-001	3.46567E-001	3.57600E+000	9	...........
	51	0.693333	3.40466E-001	-3.98672E-004	0.00000E+000	-1.35734E-004	-2.40040E-001	3.40533E-001	3.57600E+000	9	...........
	52	0.706667	3.34428E-001	-3.98610E-004	0.00000E+000	-1.33306E-004	-2.40040E-001	3.34495E-001	3.57600E+000	9	...........
	53	0.72	3.28445E-001	-3.99386E-004	0.00000E+000	-1.31176E-004	-2.40040E-001	3.28507E-001	3.57600E+000	9	...........
	54	0.733333	3.22459E-001	-3.98971E-004	0.00000E+000	-1.28652E-004	-2.40040E-001	3.22516E-001	3.57600E+000	9	...........
	55	0.746667	3.16556E-001	-3.98630E-004	0.00000E+000	-1.26189E-004	-2.40040E-001	3.16622E-001	3.57600E+000	9	...........
	56	0.76	3.10752E-001	-3.99065E-004	0.00000E+000	-1.24010E-004	-2.40040E-001	3.10819E-001	3.57600E+000	9	...........
	57	0.773333	3.04914E-001	-3.97861E-004	0.00000E+000	-1.21314E-004	-2.40040E-001	3.04975E-001	3.57600E+000	9	...........
	58	0.786667	2.99093E-001	-3.99934E-004	0.00000E+000	-1.19617E-004	-2.40040E-001	2.99151E-001	3.57600E+000	9	...........
	59	0.8	2.93338E-001	-3.98736E-004	0.00000E+000	-1.16964E-004	-2.40040E-001	2.93395E-001	3.57600E+000	9	...........
	60	0.813333	2.87562E-001	-3.99486E-004	0.00000E+000	-1.14877E-004	-2.40040E-001	2.87618E-001	3.57600E+000	9	...........
	61	0.826667	2.81817E-001	-3.98547E-004	0.00000E+000	-1.12317E-004	-2.40040E-001	2.81876E-001	3.57600E+000	9	...........
	62	0.84	2.76115E-001	-3.99404E-004	0.00000E+000	-1.10281E-004	-2.40040E-001	2.76166E-001	3.57600E+000	9	...........
	63	0.853333	2.70571E-001	-3.98077E-004	0.00000E+000	-1.07708E-004	-2.40040E-001	2.70616E-001	3.57600E+000	9	...........
	64	0.866667	2.64919E-001	-3.99951E-004	0.00000E+000	-1.05955E-004	-2.40040E-001	2.64972E-001	3.57600E+000	9	...........
	65	0.88	2.59360E-001	-3.98616E-004	0.00000E+000	-1.03385E-004	-2.40040E-001	2.59407E-001	3.57600E+000	9	...........
	66	0.893333	2.53818E-001	-3.98407E-004	0.00000E+000	-1.01123E-004	-2.40040E-001	2.53870E-001	3.57600E+000	9	...........
	67	0.906667	2.48356E-001	-3.99523E-004	0.00000E+000	-9.92241E-005	-2.40040E-001	2.48406E-001	3.57600E+000	9	...........
	68	0.92	2.42848E-001	-4.00214E-004	0.00000E+000	-9.71909E-005	-2.40040E-001	2.42891E-001	3.57600E+000	9	...........
	69	0.933333	2.37413E-001	-3.99234E-004	0.00000E+000	-9.47836E-005	-2.40040E-001	2.37457E-001	3.57600E+000	9	...........
	70	0.946667	2.31912E-001	-3.98628E-004	0.00000E+000	-9.24465E-005	-2.40040E-001	2.31954E-001	3.57600E+000	9	...........
	71	0.96	2.26576E-001	-3.98616E-004	0.00000E+000	-9.03165E-005	-2.40040E-001	2.26622E-001	3.57600E+000	9	...........
	72	0.97333	2.21225E-001	-3.99572E-004	0.00000E+000	-8.83954E-005	-2.40040E-001	2.21268E-001	3.57600E+000	9	...........
	73	0.98667	2.15912E-001	-3.98518E-004	0.00000E+000	-8.60449E-005	-2.40040E-001	2.15955E-001	3.57600E+000	9	...........
	74	1	2.10610E-001	-3.97895E-004	0.00000E+000	-8.38005E-005	-2.40040E-001	2.10653E-001	3.57600E+000	9	...........
	75	1.01333	2.05403E-001	-3.98534E-004	0.00000E+000	-8.18602E-005	-2.40040E-001	2.05438E-001	3.57600E+000	9	...........
	76	1.02667	2.00185E-001	-3.98982E-004	0.00000E+000	-7.98702E-005	-2.40040E-001	2.00226E-001	3.57600E+000	9	...........
	77	1.04	1.94944E-001	-4.01113E-004	0.00000E+000	-7.81945E-005	-2.40040E-001	1.94983E-001	3.57600E+000	9	...........
	78	1.05333	1.89794E-001	-3.99246E-004	0.00000E+000	-7.57745E-005	-2.40040E-001	1.89832E-001	3.57600E+000	9	...........
	79	1.06667	1.84673E-001	-3.98123E-004	0.00000E+000	-7.35227E-005	-2.40040E-001	1.84707E-001	3.57600E+000	9	...........
	80	1.08	1.79517E-001	-3.99811E-004	0.00000E+000	-7.17730E-005	-2.40040E-001	1.79552E-001	3.57600E+000	9	...........
	81	1.09333	1.74376E-001	-3.99193E-004	0.00000E+000	-6.96098E-005	-2.40040E-001	1.74409E-001	3.57600E+000	9	...........
	82	1.10667	1.69326E-001	-4.00038E-004	0.00000E+000	-6.77368E-005	-2.40040E-001	1.69360E-001	3.57600E+000	9	...........
	83	1.12	1.64235E-001	-4.00225E-004	0.00000E+000	-6.57308E-005	-2.40040E-001	1.64262E-001	3.57600E+000	9	...........
	84	1.13333	1.59198E-001	-3.97604E-004	0.00000E+000	-6.32979E-005	-2.40040E-001	1.59232E-001	3.57600E+000	9	...........
	85	1.14667	1.54184E-001	-3.99221E-004	0.00000E+000	-6.15536E-005	-2.40040E-001	1.54214E-001	3.57600E+000	9	...........
	86	1.16	1.49144E-001	-3.99702E-004	0.00000E+000	-5.96132E-005	-2.40040E-001	1.49171E-001	3.57600E+000	9	...........
	87	1.17333	1.44165E-001	-4.00292E-004	0.00000E+000	-5.77079E-005	-2.40040E-001	1.44188E-001	3.57600E+000	9	...........
	88	1.18667	1.39318E-001	-3.98251E-004	0.00000E+000	-5.54836E-005	-2.40040E-001	1.39349E-001	3.57600E+000	9	...........
	89	1.2	1.34436E-001	-3.98904E-004	0.00000E+000	-5.36270E-005	-2.40040E-001	1.34461E-001	3.57600E+000	9	...........
	90	1.21333	1.29497E-001	-3.98924E-004	0.00000E+000	-5.16595E-005	-2.40040E-001	1.29522E-001	3.57600E+000	9	...........
	91	1.22667	1.24669E-001	-3.97986E-004	0.00000E+000	-4.96165E-005	-2.40040E-001	1.24699E-001	3.57600E+000	9	...........
	92	1.24	1.19825E-001	-3.97850E-004	0.00000E+000	-4.76722E-005	-2.40040E-001	1.19844E-001	3.57600E+000	9	...........
	93	1.25333	1.15030E-001	-3.99018E-004	0.00000E+000	-4.58990E-005	-2.40040E-001	1.15048E-001	3.57600E+000	9	...........
	94	1.26667	1.10326E-001	-3.99784E-004	0.00000E+000	-4.41065E-005	-2.40040E-001	1.10345E-001	3.57600E+000	9	...........
	95	1.28	1.05553E-001	-3.99697E-004	0.00000E+000	-4.21893E-005	-2.40040E-001	1.05569E-001	3.57600E+000	9	...........
	96	1.29333	1.00894E-001	-3.98855E-004	0.00000E+000	-4.02420E-005	-2.40040E-001	1.00911E-001	3.57600E+000	9	...........
	97	1.30667	9.61551E-002	-3.97047E-004	0.00000E+000	-3.81781E-005	-2.40040E-001	9.61683E-002	3.57600E+000	9	...........
	98	1.32	9.14912E-002	-3.98112E-004	0.00000E+000	-3.64238E-005	-2.40040E-001	9.15064E-002	3.57606E+000	9	...........
	99	1.33333	8.68845E-002	-3.98809E-004	0.00000E+000	-3.46504E-005	-2.40040E-001	8.68999E-002	3.57610E+000	9	...........
	100	1.34667	8.22743E-002	-3.99142E-004	0.00000E+000	-3.28391E-005	-2.40040E-001	8.22889E-002	3.57610E+000	9	...........
	101	1.36	7.76702E-002	-3.99771E-004	0.00000E+000	-3.10503E-005	-2.40040E-001	7.76834E-002	3.57610E+000	9	...........
	102	1.37333	7.31615E-002	-3.98273E-004	0.00000E+000	-2.91382E-005	-2.40040E-001	7.31746E-002	3.57610E+000	9	...........
	103	1.38667	6.85843E-002	-3.97994E-004	0.00000E+000	-2.72961E-005	-2.40040E-001	6.85977E-002	3.57610E+000	9	...........
	104	1.4	6.39748E-002	-3.98862E-004	0.00000E+000	-2.55172E-005	-2.40040E-001	6.39899E-002	3.57610E+000	9	...........
	105	1.41333	5.95367E-002	-3.99575E-004	0.00000E+000	-2.37894E-005	-2.40040E-001	5.95518E-002	3.57610E+000	9	...........
	106	1.42667	5.50633E-002	-3.99352E-004	0.00000E+000	-2.19897E-005	-2.40040E-001	5.50718E-002	3.57610E+000	9	...........
	107	1.44	5.06216E-002	-3.99323E-004	0.00000E+000	-2.02144E-005	-2.40040E-001	5.06309E-002	3.57610E+000	9	...........
	108	1.45333	4.61606E-002	-3.99045E-004	0.00000E+000	-1.84202E-005	-2.40040E-001	4.61712E-002	3.57610E+000	9	...........
	109	1.46667	4.17659E-002	-3.99398E-004	0.00000E+000	-1.66812E-005	-2.40040E-001	4.17771E-002	3.57610E+000	9	...........
	110	1.48	3.73611E-002	-4.00414E-004	0.00000E+000	-1.49599E-005	-2.40040E-001	3.73625E-002	3.57610E+000	9	...........
	111	1.49333	3.30069E-002	-3.97817E-004	0.00000E+000	-1.31307E-005	-2.40040E-001	3.30059E-002	3.57610E+000	9	...........
	112	1.50667	2.87441E-002	-3.99263E-004	0.00000E+000	-1.14765E-005	-2.40040E-001	2.87413E-002	3.57610E+000	9	...........
	113	1.52	2.44954E-002	-3.98930E-004	0.00000E+000	-9.77194E-006	-2.40040E-001	2.44905E-002	3.57610E+000	9	...........
	114	1.53333	2.00782E-002	-3.99567E-004	0.00000E+000	-8.02259E-006	-2.40040E-001	2.00755E-002	3.57610E+000	9	...........
	115	1.54667	1.57865E-002	-3.98419E-004	0.00000E+000	-6.28964E-006	-2.40040E-001	1.57759E-002	3.57610E+000	9	...........
	116	1.56	1.16154E-002	-3.97787E-004	0.00000E+000	-4.62044E-006	-2.40040E-001	1.16059E-002	3.57610E+000	9	...........
	117	1.57333	7.35884E-003	-3.99598E-004	0.00000E+000	-2.94058E-006	-2.40040E-001	7.34083E-003	3.57610E+000	9	...........
	118	1.58667	3.13905E-003	-3.98224E-004	0.00000E+000	-1.25004E-006	-2.40040E-001	3.12359E-003	3.57610E+000	9	...........
	119	1.59167	2.96626E-004	-4.00015E-004	0.00000E+000	-1.18655E-007	-2.40040E-001	2.84918E-004	3.57610E+000	9	...........
STARTTIMEOFFSET	QUANT	976.945	Start Time Offset (s)
