EXPLAIN
TAG	PWR800_DISCHARGE
TITLE	LABEL	PWR Cyclic Charge Discharge (Cell) - Discharge Step	Test &Identifier
DATE	LABEL	12-7-2017	Date
TIME	LABEL	14:42:32	Time
NOTES	NOTES	3	&Notes...
	supercap test cell
	0.4mg
	6M KOH
PSTAT	PSTAT	IFC5000-01520	Potentiostat
CAPACITY	QUANT	1.00000E-003	Capacity (A-hr)
CELLTYPE	SELECTOR	1	&Cell Type
WORKINGCONNECTION	SELECTOR	0	&Working Lead
MAXDISCHARGETIME	VARIABLEANDUNITS	1.00000E+002	s	1.00000E+002	second(s)	Max &Discharge Time
DISCHARGEMODE	MULTIPARAM	0	4.00000E-004	&Discharge Mode	Constant Current	Amp(s)
SAMPLETIME	QUANT	1.00000E-002	Sa&mple Period (s)
DISCHARGESTOPAT1	MULTIPARAM	3	0.00000E+000	Discharge Stop At &1	Voltage < Limit	V
DISCHARGESTOPAT2	MULTIPARAM	0	0.00000E+000	Discharge Stop At &2	None	N/A
AESBHCSELECTOR	TOGGLE	F	Save Both Half Cells
IRCOMP	TOGGLE	F	IR &Measure
EOC	QUANT	0	Open Circuit (V)
SEQUENCER	TOGGLE	TRUE	Run as Sequence
PSTATMODEL	IQUANT	53	Pstat Model
PSTATSECTION	LABEL	IFC5000-01520	Pstat Section
PSTATSERIALNO	LABEL	01520	Pstat Serial Number
CTRLMODE	IQUANT	0	Control Mode
ELECTROMETER	IQUANT	1	RE=0 or CS=1
IESTAB	IQUANT	0	I/E Stability
CASPEED	IQUANT	4	Control Amp Speed
CONVENTION	IQUANT	1	Current Convention
ICHRANGE	IQUANT	2	Ich Range
ICHRANGEMODE	TOGGLE	T	Ich Auto Range
ICHOFFSETENABLE	TOGGLE	F	Ich Offset Enable
ICHOFFSET	QUANT	0	Ich Offset (V)
ICHFILTER	IQUANT	1	Ich Filter
VCHRANGE	IQUANT	2	Vch Range
VCHRANGEMODE	TOGGLE	T	Vch Auto Range
VCHOFFSETENABLE	TOGGLE	F	Vch Offset Enable
VCHOFFSET	QUANT	0	Vch Offset (V)
VCHFILTER	IQUANT	1	Vch Filter
IERANGELOWERLIMIT	IQUANT	9	I/E Range Lower Limit
IERANGEMODE	TOGGLE	F	I/E AutoRange
IERANGE	IQUANT	9	I/E Range
ACHSELECT	IQUANT	1	Ach Select
ACHRANGE	IQUANT	2	Ach Range
ACHOFFSETENABLE	TOGGLE	F	Ach Offset Enable
ACHOFFSET	QUANT	0	Ach Offset (V)
ACHFILTER	IQUANT	1	Ach Filter
CABLEID	IQUANT	14	Cable ID
DCCALDATE	LABEL	5-7-2017	DC Calibration Date
ACCALDATE	LABEL	12/3/2015	AC Calibration Date
FRAMEWORKVERSION	QUANT	7.01	Framework Version
INSTRUMENTVERSION	LABEL	4.00	Instrument Version
CURVE	TABLE	118
	Pt	T	Vf	Im	Vu	Pwr	Sig	Ach	Temp	IERange	Over
	#	s	V	A	V	W	V	V	deg C	#	bits
	0	0.013333	7.06525E-001	-3.99546E-004	0.00000E+000	-2.82289E-004	-2.40040E-001	7.06768E-001	3.57610E+000	9	...........
	1	0.026667	6.94568E-001	-3.99081E-004	0.00000E+000	-2.77189E-004	-2.40040E-001	6.94794E-001	3.57610E+000	9	...........
	2	0.04	6.83904E-001	-3.99517E-004	0.00000E+000	-2.73231E-004	-2.40040E-001	6.84139E-001	3.57610E+000	9	...........
	3	0.053333	6.74188E-001	-3.98779E-004	0.00000E+000	-2.68852E-004	-2.40040E-001	6.74395E-001	3.57610E+000	9	...........
	4	0.066667	6.64943E-001	-3.98779E-004	0.00000E+000	-2.65166E-004	-2.40040E-001	6.65185E-001	3.57610E+000	9	...........
	5	0.08	6.56128E-001	-3.99245E-004	0.00000E+000	-2.61956E-004	-2.40040E-001	6.56372E-001	3.57610E+000	9	...........
	6	0.093333	6.47577E-001	-3.98138E-004	0.00000E+000	-2.57825E-004	-2.40040E-001	6.47836E-001	3.57610E+000	9	...........
	7	0.106667	6.39205E-001	-3.99035E-004	0.00000E+000	-2.55066E-004	-2.40040E-001	6.39431E-001	3.57610E+000	9	...........
	8	0.12	6.31030E-001	-3.97725E-004	0.00000E+000	-2.50976E-004	-2.40040E-001	6.31262E-001	3.57610E+000	9	...........
	9	0.133333	6.23063E-001	-4.00041E-004	0.00000E+000	-2.49251E-004	-2.40040E-001	6.23266E-001	3.57610E+000	9	...........
	10	0.146667	6.15110E-001	-3.98253E-004	0.00000E+000	-2.44969E-004	-2.40040E-001	6.15340E-001	3.57610E+000	9	...........
	11	0.16	6.07232E-001	-3.99433E-004	0.00000E+000	-2.42549E-004	-2.40040E-001	6.07481E-001	3.57610E+000	9	...........
	12	0.173333	5.99538E-001	-3.97606E-004	0.00000E+000	-2.38380E-004	-2.40040E-001	5.99748E-001	3.57610E+000	9	...........
	13	0.186667	5.91933E-001	-3.98483E-004	0.00000E+000	-2.35875E-004	-2.40040E-001	5.92118E-001	3.57610E+000	9	...........
	14	0.2	5.84297E-001	-3.97951E-004	0.00000E+000	-2.32522E-004	-2.40040E-001	5.84453E-001	3.57610E+000	9	...........
	15	0.213333	5.76741E-001	-3.99442E-004	0.00000E+000	-2.30374E-004	-2.40040E-001	5.76926E-001	3.57610E+000	9	...........
	16	0.226667	5.69337E-001	-3.98821E-004	0.00000E+000	-2.27063E-004	-2.40040E-001	5.69497E-001	3.57610E+000	9	...........
	17	0.24	5.61957E-001	-3.99728E-004	0.00000E+000	-2.24630E-004	-2.40040E-001	5.62151E-001	3.57610E+000	9	...........
	18	0.253333	5.54633E-001	-3.98548E-004	0.00000E+000	-2.21048E-004	-2.40040E-001	5.54796E-001	3.57610E+000	9	...........
	19	0.266667	5.47272E-001	-3.98203E-004	0.00000E+000	-2.17926E-004	-2.40040E-001	5.47422E-001	3.57610E+000	9	...........
	20	0.28	5.40013E-001	-3.99252E-004	0.00000E+000	-2.15602E-004	-2.40040E-001	5.40177E-001	3.57610E+000	9	...........
	21	0.293333	5.32740E-001	-3.99233E-004	0.00000E+000	-2.12687E-004	-2.40040E-001	5.32899E-001	3.57610E+000	9	...........
	22	0.306667	5.25549E-001	-3.98345E-004	0.00000E+000	-2.09350E-004	-2.40040E-001	5.25699E-001	3.57610E+000	9	...........
	23	0.32	5.18411E-001	-3.98778E-004	0.00000E+000	-2.06731E-004	-2.40040E-001	5.18587E-001	3.57610E+000	9	...........
	24	0.333333	5.11263E-001	-3.99813E-004	0.00000E+000	-2.04409E-004	-2.40040E-001	5.11438E-001	3.57610E+000	9	...........
	25	0.346667	5.04197E-001	-3.99133E-004	0.00000E+000	-2.01242E-004	-2.40040E-001	5.04406E-001	3.57610E+000	9	...........
	26	0.36	4.97206E-001	-3.98152E-004	0.00000E+000	-1.97964E-004	-2.40040E-001	4.97428E-001	3.57610E+000	9	...........
	27	0.373333	4.90225E-001	-3.99277E-004	0.00000E+000	-1.95736E-004	-2.40040E-001	4.90426E-001	3.57610E+000	9	...........
	28	0.386667	4.83531E-001	-3.96390E-004	0.00000E+000	-1.91667E-004	-2.40040E-001	4.83646E-001	3.57610E+000	9	...........
	29	0.4	4.76707E-001	-3.98916E-004	0.00000E+000	-1.90166E-004	-2.40040E-001	4.76807E-001	3.57610E+000	9	...........
	30	0.413333	4.69851E-001	-3.98006E-004	0.00000E+000	-1.87004E-004	-2.40040E-001	4.69954E-001	3.57610E+000	9	...........
	31	0.426667	4.63011E-001	-3.97763E-004	0.00000E+000	-1.84169E-004	-2.40040E-001	4.63114E-001	3.57610E+000	9	...........
	32	0.44	4.56195E-001	-3.98650E-004	0.00000E+000	-1.81862E-004	-2.40040E-001	4.56290E-001	3.57610E+000	9	...........
	33	0.453333	4.49470E-001	-3.97618E-004	0.00000E+000	-1.78718E-004	-2.40040E-001	4.49567E-001	3.57610E+000	9	...........
	34	0.466667	4.42760E-001	-3.98214E-004	0.00000E+000	-1.76313E-004	-2.40040E-001	4.42855E-001	3.57610E+000	9	...........
	35	0.48	4.36017E-001	-3.99332E-004	0.00000E+000	-1.74116E-004	-2.40040E-001	4.36114E-001	3.57610E+000	9	...........
	36	0.493333	4.29357E-001	-3.98029E-004	0.00000E+000	-1.70897E-004	-2.40040E-001	4.29442E-001	3.57610E+000	9	...........
	37	0.506667	4.22812E-001	-3.98380E-004	0.00000E+000	-1.68440E-004	-2.40040E-001	4.22899E-001	3.57610E+000	9	...........
	38	0.52	4.16262E-001	-3.99367E-004	0.00000E+000	-1.66241E-004	-2.40040E-001	4.16349E-001	3.57610E+000	9	...........
	39	0.533333	4.09684E-001	-3.98555E-004	0.00000E+000	-1.63282E-004	-2.40040E-001	4.09763E-001	3.57610E+000	9	...........
	40	0.546667	4.03154E-001	-3.99654E-004	0.00000E+000	-1.61122E-004	-2.40040E-001	4.03233E-001	3.57610E+000	9	...........
	41	0.56	3.96704E-001	-3.99682E-004	0.00000E+000	-1.58556E-004	-2.40040E-001	3.96783E-001	3.57610E+000	9	...........
	42	0.573333	3.90333E-001	-3.98288E-004	0.00000E+000	-1.55465E-004	-2.40040E-001	3.90405E-001	3.57610E+000	9	...........
	43	0.586667	3.83837E-001	-3.98972E-004	0.00000E+000	-1.53140E-004	-2.40040E-001	3.83916E-001	3.57610E+000	9	...........
	44	0.6	3.77534E-001	-3.98234E-004	0.00000E+000	-1.50347E-004	-2.40040E-001	3.77606E-001	3.57610E+000	9	...........
	45	0.613333	3.71188E-001	-3.98582E-004	0.00000E+000	-1.47949E-004	-2.40040E-001	3.71253E-001	3.57610E+000	9	...........
	46	0.626667	3.64837E-001	-3.98849E-004	0.00000E+000	-1.45515E-004	-2.40040E-001	3.64908E-001	3.57610E+000	9	...........
	47	0.64	3.58578E-001	-3.99038E-004	0.00000E+000	-1.43086E-004	-2.40040E-001	3.58651E-001	3.57662E+000	9	...........
	48	0.653333	3.52396E-001	-3.97998E-004	0.00000E+000	-1.40253E-004	-2.40040E-001	3.52463E-001	3.57750E+000	9	...........
	49	0.666667	3.46144E-001	-3.99916E-004	0.00000E+000	-1.38429E-004	-2.40040E-001	3.46212E-001	3.57750E+000	9	...........
	50	0.68	3.40014E-001	-3.99039E-004	0.00000E+000	-1.35679E-004	-2.40040E-001	3.40081E-001	3.57750E+000	9	...........
	51	0.693333	3.33869E-001	-3.98455E-004	0.00000E+000	-1.33032E-004	-2.40040E-001	3.33937E-001	3.57750E+000	9	...........
	52	0.706667	3.27792E-001	-3.98904E-004	0.00000E+000	-1.30758E-004	-2.40040E-001	3.27857E-001	3.57750E+000	9	...........
	53	0.72	3.21837E-001	-3.98992E-004	0.00000E+000	-1.28410E-004	-2.40040E-001	3.21902E-001	3.57750E+000	9	...........
	54	0.733333	3.15871E-001	-3.97178E-004	0.00000E+000	-1.25457E-004	-2.40040E-001	3.15933E-001	3.57750E+000	9	...........
	55	0.746667	3.09894E-001	-3.97746E-004	0.00000E+000	-1.23259E-004	-2.40040E-001	3.09954E-001	3.57750E+000	9	...........
	56	0.76	3.03952E-001	-3.98650E-004	0.00000E+000	-1.21170E-004	-2.40040E-001	3.04010E-001	3.57750E+000	9	...........
	57	0.773333	2.98048E-001	-3.99272E-004	0.00000E+000	-1.19002E-004	-2.40040E-001	2.98104E-001	3.57750E+000	9	...........
	58	0.786667	2.92190E-001	-3.99757E-004	0.00000E+000	-1.16805E-004	-2.40040E-001	2.92245E-001	3.57750E+000	9	...........
	59	0.8	2.86296E-001	-3.98329E-004	0.00000E+000	-1.14040E-004	-2.40040E-001	2.86357E-001	3.57750E+000	9	...........
	60	0.813333	2.80526E-001	-3.99265E-004	0.00000E+000	-1.12004E-004	-2.40040E-001	2.80586E-001	3.57750E+000	9	...........
	61	0.826667	2.74826E-001	-3.97864E-004	0.00000E+000	-1.09344E-004	-2.40040E-001	2.74882E-001	3.57750E+000	9	...........
	62	0.84	2.69138E-001	-3.97841E-004	0.00000E+000	-1.07074E-004	-2.40040E-001	2.69194E-001	3.57750E+000	9	...........
	63	0.853333	2.63521E-001	-3.98880E-004	0.00000E+000	-1.05113E-004	-2.40040E-001	2.63584E-001	3.57750E+000	9	...........
	64	0.866667	2.57900E-001	-3.99597E-004	0.00000E+000	-1.03056E-004	-2.40040E-001	2.57950E-001	3.57750E+000	9	...........
	65	0.88	2.52270E-001	-3.99979E-004	0.00000E+000	-1.00903E-004	-2.40040E-001	2.52324E-001	3.57750E+000	9	...........
	66	0.893333	2.46723E-001	-3.96184E-004	0.00000E+000	-9.77476E-005	-2.40040E-001	2.46777E-001	3.57750E+000	9	...........
	67	0.906667	2.41176E-001	-3.98238E-004	0.00000E+000	-9.60457E-005	-2.40040E-001	2.41226E-001	3.57750E+000	9	...........
	68	0.92	2.35551E-001	-3.98817E-004	0.00000E+000	-9.39415E-005	-2.40040E-001	2.35605E-001	3.57750E+000	9	...........
	69	0.933333	2.29931E-001	-3.99016E-004	0.00000E+000	-9.17461E-005	-2.40040E-001	2.29971E-001	3.57750E+000	9	...........
	70	0.946667	2.24415E-001	-3.99960E-004	0.00000E+000	-8.97571E-005	-2.40040E-001	2.24465E-001	3.57750E+000	9	...........
	71	0.96	2.18998E-001	-3.99339E-004	0.00000E+000	-8.74543E-005	-2.40040E-001	2.19039E-001	3.57750E+000	9	...........
	72	0.97333	2.13527E-001	-3.98951E-004	0.00000E+000	-8.51869E-005	-2.40040E-001	2.13570E-001	3.57750E+000	9	...........
	73	0.98667	2.08124E-001	-3.99182E-004	0.00000E+000	-8.30796E-005	-2.40040E-001	2.08170E-001	3.57750E+000	9	...........
	74	1	2.02797E-001	-3.98720E-004	0.00000E+000	-8.08590E-005	-2.40040E-001	2.02837E-001	3.57750E+000	9	...........
	75	1.01333	1.97527E-001	-3.96602E-004	0.00000E+000	-7.83394E-005	-2.40040E-001	1.97568E-001	3.57750E+000	9	...........
	76	1.02667	1.92247E-001	-3.97059E-004	0.00000E+000	-7.63332E-005	-2.40040E-001	1.92283E-001	3.57750E+000	9	...........
	77	1.04	1.86940E-001	-3.99222E-004	0.00000E+000	-7.46305E-005	-2.40040E-001	1.86966E-001	3.57750E+000	9	...........
	78	1.05333	1.81733E-001	-3.98796E-004	0.00000E+000	-7.24742E-005	-2.40040E-001	1.81768E-001	3.57750E+000	9	...........
	79	1.06667	1.76597E-001	-3.99355E-004	0.00000E+000	-7.05249E-005	-2.40040E-001	1.76630E-001	3.57750E+000	9	...........
	80	1.08	1.71521E-001	-3.99013E-004	0.00000E+000	-6.84390E-005	-2.40040E-001	1.71558E-001	3.57750E+000	9	...........
	81	1.09333	1.66359E-001	-3.98930E-004	0.00000E+000	-6.63655E-005	-2.40040E-001	1.66394E-001	3.57750E+000	9	...........
	82	1.10667	1.61246E-001	-3.98288E-004	0.00000E+000	-6.42226E-005	-2.40040E-001	1.61277E-001	3.57750E+000	9	...........
	83	1.12	1.56188E-001	-3.98903E-004	0.00000E+000	-6.23040E-005	-2.40040E-001	1.56215E-001	3.57750E+000	9	...........
	84	1.13333	1.51108E-001	-3.98683E-004	0.00000E+000	-6.02442E-005	-2.40040E-001	1.51129E-001	3.57750E+000	9	...........
	85	1.14667	1.46072E-001	-3.98420E-004	0.00000E+000	-5.81978E-005	-2.40040E-001	1.46094E-001	3.57750E+000	9	...........
	86	1.16	1.41083E-001	-3.99427E-004	0.00000E+000	-5.63524E-005	-2.40040E-001	1.41103E-001	3.57750E+000	9	...........
	87	1.17333	1.36065E-001	-3.98481E-004	0.00000E+000	-5.42192E-005	-2.40040E-001	1.36084E-001	3.57750E+000	9	...........
	88	1.18667	1.31020E-001	-3.99026E-004	0.00000E+000	-5.22802E-005	-2.40040E-001	1.31042E-001	3.57750E+000	9	...........
	89	1.2	1.26009E-001	-3.98993E-004	0.00000E+000	-5.02768E-005	-2.40040E-001	1.26028E-001	3.57750E+000	9	...........
	90	1.21333	1.21185E-001	-3.98013E-004	0.00000E+000	-4.82333E-005	-2.40040E-001	1.21207E-001	3.57750E+000	9	...........
	91	1.22667	1.16332E-001	-3.99289E-004	0.00000E+000	-4.64499E-005	-2.40040E-001	1.16352E-001	3.57750E+000	9	...........
	92	1.24	1.11506E-001	-3.98685E-004	0.00000E+000	-4.44558E-005	-2.40040E-001	1.11531E-001	3.57750E+000	9	...........
	93	1.25333	1.06801E-001	-3.98948E-004	0.00000E+000	-4.26082E-005	-2.40040E-001	1.06821E-001	3.57750E+000	9	...........
	94	1.26667	1.02026E-001	-3.99149E-004	0.00000E+000	-4.07235E-005	-2.40040E-001	1.02050E-001	3.57750E+000	9	...........
	95	1.28	9.72726E-002	-3.98333E-004	0.00000E+000	-3.87469E-005	-2.40040E-001	9.72947E-002	3.57750E+000	9	...........
	96	1.29333	9.25599E-002	-3.98285E-004	0.00000E+000	-3.68653E-005	-2.40040E-001	9.25781E-002	3.57750E+000	9	...........
	97	1.30667	8.78391E-002	-3.99621E-004	0.00000E+000	-3.51024E-005	-2.40040E-001	8.78642E-002	3.57750E+000	9	...........
	98	1.32	8.31459E-002	-3.99813E-004	0.00000E+000	-3.32428E-005	-2.40040E-001	8.31617E-002	3.57750E+000	9	...........
	99	1.33333	7.84790E-002	-3.98396E-004	0.00000E+000	-3.12657E-005	-2.40040E-001	7.84892E-002	3.57750E+000	9	...........
	100	1.34667	7.38650E-002	-3.97904E-004	0.00000E+000	-2.93912E-005	-2.40040E-001	7.38744E-002	3.57750E+000	9	...........
	101	1.36	6.91529E-002	-3.99081E-004	0.00000E+000	-2.75976E-005	-2.40040E-001	6.91638E-002	3.57750E+000	9	...........
	102	1.37333	6.46134E-002	-3.97963E-004	0.00000E+000	-2.57138E-005	-2.40040E-001	6.46184E-002	3.57750E+000	9	...........
	103	1.38667	6.00144E-002	-4.00148E-004	0.00000E+000	-2.40147E-005	-2.40040E-001	6.00203E-002	3.57750E+000	9	...........
	104	1.4	5.54667E-002	-3.99738E-004	0.00000E+000	-2.21721E-005	-2.40040E-001	5.54740E-002	3.57750E+000	9	...........
	105	1.41333	5.09423E-002	-3.99744E-004	0.00000E+000	-2.03639E-005	-2.40040E-001	5.09525E-002	3.57750E+000	9	...........
	106	1.42667	4.63399E-002	-3.98427E-004	0.00000E+000	-1.84631E-005	-2.40040E-001	4.63489E-002	3.57750E+000	9	...........
	107	1.44	4.18867E-002	-3.97822E-004	0.00000E+000	-1.66634E-005	-2.40040E-001	4.18893E-002	3.57750E+000	9	...........
	108	1.45333	3.74381E-002	-3.98362E-004	0.00000E+000	-1.49139E-005	-2.40040E-001	3.74418E-002	3.57750E+000	9	...........
	109	1.46667	3.30119E-002	-3.98830E-004	0.00000E+000	-1.31661E-005	-2.40040E-001	3.30133E-002	3.57750E+000	9	...........
	110	1.48	2.86205E-002	-3.99274E-004	0.00000E+000	-1.14274E-005	-2.40040E-001	2.86223E-002	3.57750E+000	9	...........
	111	1.49333	2.43002E-002	-3.98448E-004	0.00000E+000	-9.68236E-006	-2.40040E-001	2.42938E-002	3.57750E+000	9	...........
	112	1.50667	2.00592E-002	-4.00011E-004	0.00000E+000	-8.02390E-006	-2.40040E-001	2.00554E-002	3.57750E+000	9	...........
	113	1.52	1.57379E-002	-3.99118E-004	0.00000E+000	-6.28127E-006	-2.40040E-001	1.57322E-002	3.57750E+000	9	...........
	114	1.53333	1.14052E-002	-3.98243E-004	0.00000E+000	-4.54205E-006	-2.40040E-001	1.13943E-002	3.57750E+000	9	...........
	115	1.54667	7.04871E-003	-3.99867E-004	0.00000E+000	-2.81855E-006	-2.40040E-001	7.03230E-003	3.57750E+000	9	...........
	116	1.56	2.69625E-003	-4.00013E-004	0.00000E+000	-1.07853E-006	-2.40040E-001	2.68024E-003	3.57750E+000	9	...........
	117	1.56333	6.92920E-005	-4.00257E-004	0.00000E+000	-2.77346E-008	-2.40040E-001	5.11119E-005	3.57750E+000	9	...........
STARTTIMEOFFSET	QUANT	1148.186	Start Time Offset (s)
