EXPLAIN
TAG	PWR800_DISCHARGE
TITLE	LABEL	PWR Cyclic Charge Discharge (Cell) - Discharge Step	Test &Identifier
DATE	LABEL	12-7-2017	Date
TIME	LABEL	15:18:58	Time
NOTES	NOTES	3	&Notes...
	supercap test cell
	0.4mg
	6M KOH
PSTAT	PSTAT	IFC5000-01520	Potentiostat
CAPACITY	QUANT	1.00000E-003	Capacity (A-hr)
CELLTYPE	SELECTOR	1	&Cell Type
WORKINGCONNECTION	SELECTOR	0	&Working Lead
MAXDISCHARGETIME	VARIABLEANDUNITS	1.00000E+002	s	1.00000E+002	second(s)	Max &Discharge Time
DISCHARGEMODE	MULTIPARAM	0	4.00000E-004	&Discharge Mode	Constant Current	Amp(s)
SAMPLETIME	QUANT	1.00000E-002	Sa&mple Period (s)
DISCHARGESTOPAT1	MULTIPARAM	3	0.00000E+000	Discharge Stop At &1	Voltage < Limit	V
DISCHARGESTOPAT2	MULTIPARAM	0	0.00000E+000	Discharge Stop At &2	None	N/A
AESBHCSELECTOR	TOGGLE	F	Save Both Half Cells
IRCOMP	TOGGLE	F	IR &Measure
EOC	QUANT	0	Open Circuit (V)
SEQUENCER	TOGGLE	TRUE	Run as Sequence
PSTATMODEL	IQUANT	53	Pstat Model
PSTATSECTION	LABEL	IFC5000-01520	Pstat Section
PSTATSERIALNO	LABEL	01520	Pstat Serial Number
CTRLMODE	IQUANT	0	Control Mode
ELECTROMETER	IQUANT	1	RE=0 or CS=1
IESTAB	IQUANT	0	I/E Stability
CASPEED	IQUANT	4	Control Amp Speed
CONVENTION	IQUANT	1	Current Convention
ICHRANGE	IQUANT	2	Ich Range
ICHRANGEMODE	TOGGLE	T	Ich Auto Range
ICHOFFSETENABLE	TOGGLE	F	Ich Offset Enable
ICHOFFSET	QUANT	0	Ich Offset (V)
ICHFILTER	IQUANT	1	Ich Filter
VCHRANGE	IQUANT	2	Vch Range
VCHRANGEMODE	TOGGLE	T	Vch Auto Range
VCHOFFSETENABLE	TOGGLE	F	Vch Offset Enable
VCHOFFSET	QUANT	0	Vch Offset (V)
VCHFILTER	IQUANT	1	Vch Filter
IERANGELOWERLIMIT	IQUANT	9	I/E Range Lower Limit
IERANGEMODE	TOGGLE	F	I/E AutoRange
IERANGE	IQUANT	9	I/E Range
ACHSELECT	IQUANT	1	Ach Select
ACHRANGE	IQUANT	2	Ach Range
ACHOFFSETENABLE	TOGGLE	F	Ach Offset Enable
ACHOFFSET	QUANT	0	Ach Offset (V)
ACHFILTER	IQUANT	1	Ach Filter
CABLEID	IQUANT	14	Cable ID
DCCALDATE	LABEL	5-7-2017	DC Calibration Date
ACCALDATE	LABEL	12/3/2015	AC Calibration Date
FRAMEWORKVERSION	QUANT	7.01	Framework Version
INSTRUMENTVERSION	LABEL	4.00	Instrument Version
CURVE	TABLE	103
	Pt	T	Vf	Im	Vu	Pwr	Sig	Ach	Temp	IERange	Over
	#	s	V	A	V	W	V	V	deg C	#	bits
	0	0.013333	6.83959E-001	-3.99857E-004	0.00000E+000	-2.73486E-004	-2.40040E-001	6.84192E-001	3.57730E+000	9	...........
	1	0.026667	6.70307E-001	-3.98425E-004	0.00000E+000	-2.67067E-004	-2.40040E-001	6.70543E-001	3.57730E+000	9	...........
	2	0.04	6.58489E-001	-3.98737E-004	0.00000E+000	-2.62564E-004	-2.40040E-001	6.58693E-001	3.57730E+000	9	...........
	3	0.053333	6.47592E-001	-3.98915E-004	0.00000E+000	-2.58334E-004	-2.40040E-001	6.47818E-001	3.57730E+000	9	...........
	4	0.066667	6.37349E-001	-3.97966E-004	0.00000E+000	-2.53644E-004	-2.40040E-001	6.37597E-001	3.57730E+000	9	...........
	5	0.08	6.27616E-001	-3.99954E-004	0.00000E+000	-2.51018E-004	-2.40040E-001	6.27839E-001	3.57730E+000	9	...........
	6	0.093333	6.18249E-001	-3.99088E-004	0.00000E+000	-2.46735E-004	-2.40040E-001	6.18453E-001	3.57730E+000	9	...........
	7	0.106667	6.08997E-001	-3.98912E-004	0.00000E+000	-2.42936E-004	-2.40040E-001	6.09233E-001	3.57730E+000	9	...........
	8	0.12	6.00063E-001	-3.99999E-004	0.00000E+000	-2.40025E-004	-2.40040E-001	6.00295E-001	3.57730E+000	9	...........
	9	0.133333	5.91301E-001	-3.98865E-004	0.00000E+000	-2.35849E-004	-2.40040E-001	5.91533E-001	3.57730E+000	9	...........
	10	0.146667	5.82618E-001	-3.97883E-004	0.00000E+000	-2.31814E-004	-2.40040E-001	5.82867E-001	3.57730E+000	9	...........
	11	0.16	5.74091E-001	-3.98596E-004	0.00000E+000	-2.28830E-004	-2.40040E-001	5.74317E-001	3.57730E+000	9	...........
	12	0.173333	5.65699E-001	-3.98288E-004	0.00000E+000	-2.25311E-004	-2.40040E-001	5.65908E-001	3.57730E+000	9	...........
	13	0.186667	5.57339E-001	-3.99041E-004	0.00000E+000	-2.22401E-004	-2.40040E-001	5.57567E-001	3.57730E+000	9	...........
	14	0.2	5.49097E-001	-3.98637E-004	0.00000E+000	-2.18891E-004	-2.40040E-001	5.49322E-001	3.57730E+000	9	...........
	15	0.213333	5.40893E-001	-3.98656E-004	0.00000E+000	-2.15630E-004	-2.40040E-001	5.41107E-001	3.57730E+000	9	...........
	16	0.226667	5.32762E-001	-3.98400E-004	0.00000E+000	-2.12252E-004	-2.40040E-001	5.32980E-001	3.57696E+000	9	...........
	17	0.24	5.24703E-001	-3.99302E-004	0.00000E+000	-2.09515E-004	-2.40040E-001	5.24921E-001	3.57640E+000	9	...........
	18	0.253333	5.16726E-001	-3.98432E-004	0.00000E+000	-2.05880E-004	-2.40040E-001	5.16925E-001	3.57640E+000	9	...........
	19	0.266667	5.08684E-001	-3.99470E-004	0.00000E+000	-2.03204E-004	-2.40040E-001	5.08934E-001	3.57640E+000	9	...........
	20	0.28	5.00796E-001	-3.98991E-004	0.00000E+000	-1.99813E-004	-2.40040E-001	5.01044E-001	3.57640E+000	9	...........
	21	0.293333	4.93062E-001	-3.98597E-004	0.00000E+000	-1.96533E-004	-2.40040E-001	4.93259E-001	3.57640E+000	9	...........
	22	0.306667	4.85343E-001	-3.98289E-004	0.00000E+000	-1.93307E-004	-2.40040E-001	4.85509E-001	3.57640E+000	9	...........
	23	0.32	4.77736E-001	-3.98599E-004	0.00000E+000	-1.90425E-004	-2.40040E-001	4.77831E-001	3.57640E+000	9	...........
	24	0.333333	4.69971E-001	-3.97611E-004	0.00000E+000	-1.86866E-004	-2.40040E-001	4.70069E-001	3.57640E+000	9	...........
	25	0.346667	4.62278E-001	-3.99325E-004	0.00000E+000	-1.84599E-004	-2.40040E-001	4.62370E-001	3.57640E+000	9	...........
	26	0.36	4.54574E-001	-3.97692E-004	0.00000E+000	-1.80781E-004	-2.40040E-001	4.54666E-001	3.57640E+000	9	...........
	27	0.373333	4.46988E-001	-3.98175E-004	0.00000E+000	-1.77979E-004	-2.40040E-001	4.47081E-001	3.57640E+000	9	...........
	28	0.386667	4.39372E-001	-4.00140E-004	0.00000E+000	-1.75810E-004	-2.40040E-001	4.39463E-001	3.57640E+000	9	...........
	29	0.4	4.31857E-001	-4.00271E-004	0.00000E+000	-1.72860E-004	-2.40040E-001	4.31945E-001	3.57640E+000	9	...........
	30	0.413333	4.24396E-001	-3.97989E-004	0.00000E+000	-1.68905E-004	-2.40040E-001	4.24492E-001	3.57640E+000	9	...........
	31	0.426667	4.16989E-001	-3.98814E-004	0.00000E+000	-1.66301E-004	-2.40040E-001	4.17073E-001	3.57640E+000	9	...........
	32	0.44	4.09600E-001	-3.99588E-004	0.00000E+000	-1.63671E-004	-2.40040E-001	4.09681E-001	3.57640E+000	9	...........
	33	0.453333	4.02271E-001	-3.97062E-004	0.00000E+000	-1.59727E-004	-2.40040E-001	4.02356E-001	3.57640E+000	9	...........
	34	0.466667	3.95043E-001	-3.98211E-004	0.00000E+000	-1.57311E-004	-2.40040E-001	3.95120E-001	3.57640E+000	9	...........
	35	0.48	3.87803E-001	-3.98949E-004	0.00000E+000	-1.54714E-004	-2.40040E-001	3.87879E-001	3.57640E+000	9	...........
	36	0.493333	3.80562E-001	-3.97532E-004	0.00000E+000	-1.51286E-004	-2.40040E-001	3.80633E-001	3.57640E+000	9	...........
	37	0.506667	3.73384E-001	-3.98805E-004	0.00000E+000	-1.48908E-004	-2.40040E-001	3.73458E-001	3.57640E+000	9	...........
	38	0.52	3.66260E-001	-3.99542E-004	0.00000E+000	-1.46336E-004	-2.40040E-001	3.66337E-001	3.57640E+000	9	...........
	39	0.533333	3.59269E-001	-3.98006E-004	0.00000E+000	-1.42991E-004	-2.40040E-001	3.59342E-001	3.57640E+000	9	...........
	40	0.546667	3.52292E-001	-3.98833E-004	0.00000E+000	-1.40506E-004	-2.40040E-001	3.52363E-001	3.57640E+000	9	...........
	41	0.56	3.45307E-001	-3.99173E-004	0.00000E+000	-1.37837E-004	-2.40040E-001	3.45380E-001	3.57640E+000	9	...........
	42	0.573333	3.38379E-001	-3.98372E-004	0.00000E+000	-1.34801E-004	-2.40040E-001	3.38453E-001	3.57640E+000	9	...........
	43	0.586667	3.31455E-001	-3.98434E-004	0.00000E+000	-1.32063E-004	-2.40040E-001	3.31520E-001	3.57640E+000	9	...........
	44	0.6	3.24596E-001	-3.98371E-004	0.00000E+000	-1.29309E-004	-2.40040E-001	3.24659E-001	3.57640E+000	9	...........
	45	0.613333	3.17817E-001	-3.99627E-004	0.00000E+000	-1.27008E-004	-2.40040E-001	3.17874E-001	3.57640E+000	9	...........
	46	0.626667	3.10997E-001	-3.98725E-004	0.00000E+000	-1.24002E-004	-2.40040E-001	3.11057E-001	3.57640E+000	9	...........
	47	0.64	3.04258E-001	-3.98425E-004	0.00000E+000	-1.21224E-004	-2.40040E-001	3.04318E-001	3.57640E+000	9	...........
	48	0.653333	2.97602E-001	-3.99146E-004	0.00000E+000	-1.18786E-004	-2.40040E-001	2.97660E-001	3.57640E+000	9	...........
	49	0.666667	2.90973E-001	-3.98404E-004	0.00000E+000	-1.15925E-004	-2.40040E-001	2.91027E-001	3.57640E+000	9	...........
	50	0.68	2.84414E-001	-3.98999E-004	0.00000E+000	-1.13481E-004	-2.40040E-001	2.84465E-001	3.57640E+000	9	...........
	51	0.693333	2.77890E-001	-3.98620E-004	0.00000E+000	-1.10772E-004	-2.40040E-001	2.77943E-001	3.57640E+000	9	...........
	52	0.706667	2.71390E-001	-3.98227E-004	0.00000E+000	-1.08075E-004	-2.40040E-001	2.71439E-001	3.57640E+000	9	...........
	53	0.72	2.65033E-001	-3.99661E-004	0.00000E+000	-1.05923E-004	-2.40040E-001	2.65091E-001	3.57640E+000	9	...........
	54	0.733333	2.58695E-001	-3.99247E-004	0.00000E+000	-1.03283E-004	-2.40040E-001	2.58751E-001	3.57640E+000	9	...........
	55	0.746667	2.52330E-001	-3.98334E-004	0.00000E+000	-1.00512E-004	-2.40040E-001	2.52382E-001	3.57640E+000	9	...........
	56	0.76	2.46047E-001	-3.98175E-004	0.00000E+000	-9.79697E-005	-2.40040E-001	2.46096E-001	3.57640E+000	9	...........
	57	0.773333	2.39828E-001	-3.99273E-004	0.00000E+000	-9.57568E-005	-2.40040E-001	2.39874E-001	3.57640E+000	9	...........
	58	0.786667	2.33560E-001	-4.00701E-004	0.00000E+000	-9.35880E-005	-2.40040E-001	2.33600E-001	3.57640E+000	9	...........
	59	0.8	2.27403E-001	-3.98943E-004	0.00000E+000	-9.07206E-005	-2.40040E-001	2.27442E-001	3.57640E+000	9	...........
	60	0.813333	2.21297E-001	-3.98651E-004	0.00000E+000	-8.82205E-005	-2.40040E-001	2.21335E-001	3.57640E+000	9	...........
	61	0.826667	2.15213E-001	-3.99784E-004	0.00000E+000	-8.60386E-005	-2.40040E-001	2.15249E-001	3.57640E+000	9	...........
	62	0.84	2.09226E-001	-3.97776E-004	0.00000E+000	-8.32250E-005	-2.40040E-001	2.09257E-001	3.57640E+000	9	...........
	63	0.853333	2.03232E-001	-3.99581E-004	0.00000E+000	-8.12077E-005	-2.40040E-001	2.03271E-001	3.57640E+000	9	...........
	64	0.866667	1.97271E-001	-3.97269E-004	0.00000E+000	-7.83697E-005	-2.40040E-001	1.97306E-001	3.57640E+000	9	...........
	65	0.88	1.91276E-001	-4.00167E-004	0.00000E+000	-7.65422E-005	-2.40040E-001	1.91314E-001	3.57640E+000	9	...........
	66	0.893333	1.85445E-001	-3.99334E-004	0.00000E+000	-7.40544E-005	-2.40040E-001	1.85478E-001	3.57640E+000	9	...........
	67	0.906667	1.79655E-001	-3.97876E-004	0.00000E+000	-7.14802E-005	-2.40040E-001	1.79687E-001	3.57640E+000	9	...........
	68	0.92	1.73837E-001	-3.97664E-004	0.00000E+000	-6.91288E-005	-2.40040E-001	1.73869E-001	3.57640E+000	9	...........
	69	0.933333	1.68059E-001	-3.98512E-004	0.00000E+000	-6.69734E-005	-2.40040E-001	1.68094E-001	3.57640E+000	9	...........
	70	0.946667	1.62318E-001	-3.98895E-004	0.00000E+000	-6.47479E-005	-2.40040E-001	1.62351E-001	3.57640E+000	9	...........
	71	0.96	1.56643E-001	-3.97717E-004	0.00000E+000	-6.22998E-005	-2.40040E-001	1.56665E-001	3.57640E+000	9	...........
	72	0.97333	1.51043E-001	-3.97782E-004	0.00000E+000	-6.00823E-005	-2.40040E-001	1.51073E-001	3.57640E+000	9	...........
	73	0.98667	1.45461E-001	-3.98007E-004	0.00000E+000	-5.78946E-005	-2.40040E-001	1.45482E-001	3.57640E+000	9	...........
	74	1	1.39892E-001	-3.98349E-004	0.00000E+000	-5.57260E-005	-2.40040E-001	1.39919E-001	3.57640E+000	9	...........
	75	1.01333	1.34369E-001	-3.98432E-004	0.00000E+000	-5.35369E-005	-2.40040E-001	1.34390E-001	3.57640E+000	9	...........
	76	1.02667	1.28889E-001	-3.99116E-004	0.00000E+000	-5.14416E-005	-2.40040E-001	1.28911E-001	3.57640E+000	9	...........
	77	1.04	1.23440E-001	-3.99328E-004	0.00000E+000	-4.92931E-005	-2.40040E-001	1.23462E-001	3.57640E+000	9	...........
	78	1.05333	1.18055E-001	-3.99587E-004	0.00000E+000	-4.71730E-005	-2.40040E-001	1.18083E-001	3.57640E+000	9	...........
	79	1.06667	1.12758E-001	-3.98073E-004	0.00000E+000	-4.48859E-005	-2.40040E-001	1.12776E-001	3.57640E+000	9	...........
	80	1.08	1.07385E-001	-3.98447E-004	0.00000E+000	-4.27872E-005	-2.40040E-001	1.07408E-001	3.57640E+000	9	...........
	81	1.09333	1.02038E-001	-3.98435E-004	0.00000E+000	-4.06557E-005	-2.40040E-001	1.02060E-001	3.57640E+000	9	...........
	82	1.10667	9.67587E-002	-3.98244E-004	0.00000E+000	-3.85335E-005	-2.40040E-001	9.67765E-002	3.57640E+000	9	...........
	83	1.12	9.15439E-002	-3.99040E-004	0.00000E+000	-3.65296E-005	-2.40040E-001	9.15606E-002	3.57640E+000	9	...........
	84	1.13333	8.63538E-002	-3.98171E-004	0.00000E+000	-3.43835E-005	-2.40040E-001	8.63702E-002	3.57640E+000	9	...........
	85	1.14667	8.12117E-002	-3.98997E-004	0.00000E+000	-3.24032E-005	-2.40040E-001	8.12243E-002	3.57640E+000	9	...........
	86	1.16	7.60732E-002	-3.98111E-004	0.00000E+000	-3.02856E-005	-2.40040E-001	7.60851E-002	3.57640E+000	9	...........
	87	1.17333	7.10717E-002	-3.99643E-004	0.00000E+000	-2.84033E-005	-2.40040E-001	7.10801E-002	3.57640E+000	9	...........
	88	1.18667	6.60715E-002	-4.00046E-004	0.00000E+000	-2.64316E-005	-2.40040E-001	6.60787E-002	3.57640E+000	9	...........
	89	1.2	6.10457E-002	-3.99911E-004	0.00000E+000	-2.44128E-005	-2.40040E-001	6.10497E-002	3.57640E+000	9	...........
	90	1.21333	5.60616E-002	-3.98884E-004	0.00000E+000	-2.23621E-005	-2.40040E-001	5.60648E-002	3.57640E+000	9	...........
	91	1.22667	5.11932E-002	-3.98435E-004	0.00000E+000	-2.03972E-005	-2.40040E-001	5.11947E-002	3.57640E+000	9	...........
	92	1.24	4.62938E-002	-3.98691E-004	0.00000E+000	-1.84569E-005	-2.40040E-001	4.62996E-002	3.57640E+000	9	...........
	93	1.25333	4.13484E-002	-3.98574E-004	0.00000E+000	-1.64804E-005	-2.40040E-001	4.13521E-002	3.57640E+000	9	...........
	94	1.26667	3.65213E-002	-4.00047E-004	0.00000E+000	-1.46102E-005	-2.40040E-001	3.65242E-002	3.57640E+000	9	...........
	95	1.28	3.17671E-002	-3.98092E-004	0.00000E+000	-1.26462E-005	-2.40040E-001	3.17666E-002	3.57640E+000	9	...........
	96	1.29333	2.70709E-002	-3.98693E-004	0.00000E+000	-1.07930E-005	-2.40040E-001	2.70667E-002	3.57640E+000	9	...........
	97	1.30667	2.23461E-002	-3.99113E-004	0.00000E+000	-8.91861E-006	-2.40040E-001	2.23409E-002	3.57640E+000	9	...........
	98	1.32	1.76936E-002	-3.98548E-004	0.00000E+000	-7.05173E-006	-2.40040E-001	1.76821E-002	3.57640E+000	9	...........
	99	1.33333	1.29647E-002	-3.98321E-004	0.00000E+000	-5.16410E-006	-2.40040E-001	1.29518E-002	3.57640E+000	9	...........
	100	1.34667	8.36826E-003	-3.98153E-004	0.00000E+000	-3.33185E-006	-2.40040E-001	8.35157E-003	3.57640E+000	9	...........
	101	1.36	3.69043E-003	-3.96768E-004	0.00000E+000	-1.46425E-006	-2.40040E-001	3.67043E-003	3.57640E+000	9	...........
	102	1.365	5.48704E-004	-3.99123E-004	0.00000E+000	-2.19000E-007	-2.40040E-001	5.33224E-004	3.57640E+000	9	...........
STARTTIMEOFFSET	QUANT	2858.399	Start Time Offset (s)
