EXPLAIN
TAG	PWR800_DISCHARGE
TITLE	LABEL	PWR Cyclic Charge Discharge (Cell) - Discharge Step	Test &Identifier
DATE	LABEL	12-7-2017	Date
TIME	LABEL	14:19:59	Time
NOTES	NOTES	3	&Notes...
	supercap test cell
	0.4mg
	6M KOH
PSTAT	PSTAT	IFC5000-01520	Potentiostat
CAPACITY	QUANT	1.00000E-003	Capacity (A-hr)
CELLTYPE	SELECTOR	1	&Cell Type
WORKINGCONNECTION	SELECTOR	0	&Working Lead
MAXDISCHARGETIME	VARIABLEANDUNITS	1.00000E+002	s	1.00000E+002	second(s)	Max &Discharge Time
DISCHARGEMODE	MULTIPARAM	0	4.00000E-004	&Discharge Mode	Constant Current	Amp(s)
SAMPLETIME	QUANT	1.00000E-002	Sa&mple Period (s)
DISCHARGESTOPAT1	MULTIPARAM	3	0.00000E+000	Discharge Stop At &1	Voltage < Limit	V
DISCHARGESTOPAT2	MULTIPARAM	0	0.00000E+000	Discharge Stop At &2	None	N/A
AESBHCSELECTOR	TOGGLE	F	Save Both Half Cells
IRCOMP	TOGGLE	F	IR &Measure
EOC	QUANT	0	Open Circuit (V)
SEQUENCER	TOGGLE	TRUE	Run as Sequence
PSTATMODEL	IQUANT	53	Pstat Model
PSTATSECTION	LABEL	IFC5000-01520	Pstat Section
PSTATSERIALNO	LABEL	01520	Pstat Serial Number
CTRLMODE	IQUANT	0	Control Mode
ELECTROMETER	IQUANT	1	RE=0 or CS=1
IESTAB	IQUANT	0	I/E Stability
CASPEED	IQUANT	4	Control Amp Speed
CONVENTION	IQUANT	1	Current Convention
ICHRANGE	IQUANT	2	Ich Range
ICHRANGEMODE	TOGGLE	T	Ich Auto Range
ICHOFFSETENABLE	TOGGLE	F	Ich Offset Enable
ICHOFFSET	QUANT	0	Ich Offset (V)
ICHFILTER	IQUANT	1	Ich Filter
VCHRANGE	IQUANT	2	Vch Range
VCHRANGEMODE	TOGGLE	T	Vch Auto Range
VCHOFFSETENABLE	TOGGLE	F	Vch Offset Enable
VCHOFFSET	QUANT	0	Vch Offset (V)
VCHFILTER	IQUANT	1	Vch Filter
IERANGELOWERLIMIT	IQUANT	9	I/E Range Lower Limit
IERANGEMODE	TOGGLE	F	I/E AutoRange
IERANGE	IQUANT	9	I/E Range
ACHSELECT	IQUANT	1	Ach Select
ACHRANGE	IQUANT	2	Ach Range
ACHOFFSETENABLE	TOGGLE	F	Ach Offset Enable
ACHOFFSET	QUANT	0	Ach Offset (V)
ACHFILTER	IQUANT	1	Ach Filter
CABLEID	IQUANT	14	Cable ID
DCCALDATE	LABEL	5-7-2017	DC Calibration Date
ACCALDATE	LABEL	12/3/2015	AC Calibration Date
FRAMEWORKVERSION	QUANT	7.01	Framework Version
INSTRUMENTVERSION	LABEL	4.00	Instrument Version
CURVE	TABLE	142
	Pt	T	Vf	Im	Vu	Pwr	Sig	Ach	Temp	IERange	Over
	#	s	V	A	V	W	V	V	deg C	#	bits
	0	0.013333	7.27577E-001	-3.95932E-004	0.00000E+000	-2.88071E-004	-2.40040E-001	7.27750E-001	3.57550E+000	9	...........
	1	0.026667	7.17350E-001	-3.98800E-004	0.00000E+000	-2.86079E-004	-2.40040E-001	7.17569E-001	3.57550E+000	9	...........
	2	0.04	7.08369E-001	-3.98126E-004	0.00000E+000	-2.82020E-004	-2.40040E-001	7.08569E-001	3.57550E+000	9	...........
	3	0.053333	6.99994E-001	-3.98880E-004	0.00000E+000	-2.79214E-004	-2.40040E-001	7.00197E-001	3.57550E+000	9	...........
	4	0.066667	6.92068E-001	-3.98952E-004	0.00000E+000	-2.76102E-004	-2.40040E-001	6.92258E-001	3.57550E+000	9	...........
	5	0.08	6.84459E-001	-3.97458E-004	0.00000E+000	-2.72044E-004	-2.40040E-001	6.84657E-001	3.57550E+000	9	...........
	6	0.093333	6.77007E-001	-3.98413E-004	0.00000E+000	-2.69729E-004	-2.40040E-001	6.77213E-001	3.57550E+000	9	...........
	7	0.106667	6.69769E-001	-3.99100E-004	0.00000E+000	-2.67305E-004	-2.40040E-001	6.69974E-001	3.57550E+000	9	...........
	8	0.12	6.62701E-001	-3.98792E-004	0.00000E+000	-2.64280E-004	-2.40040E-001	6.62925E-001	3.57550E+000	9	...........
	9	0.133333	6.55770E-001	-3.99000E-004	0.00000E+000	-2.61652E-004	-2.40040E-001	6.55976E-001	3.57550E+000	9	...........
	10	0.146667	6.48999E-001	-3.98803E-004	0.00000E+000	-2.58823E-004	-2.40040E-001	6.49206E-001	3.57550E+000	9	...........
	11	0.16	6.42233E-001	-3.99044E-004	0.00000E+000	-2.56279E-004	-2.40040E-001	6.42423E-001	3.57550E+000	9	...........
	12	0.173333	6.35516E-001	-3.98642E-004	0.00000E+000	-2.53343E-004	-2.40040E-001	6.35726E-001	3.57550E+000	9	...........
	13	0.186667	6.28891E-001	-3.98569E-004	0.00000E+000	-2.50656E-004	-2.40040E-001	6.29102E-001	3.57550E+000	9	...........
	14	0.2	6.22411E-001	-3.98067E-004	0.00000E+000	-2.47761E-004	-2.40040E-001	6.22583E-001	3.57550E+000	9	...........
	15	0.213333	6.15898E-001	-4.00075E-004	0.00000E+000	-2.46405E-004	-2.40040E-001	6.16094E-001	3.57550E+000	9	...........
	16	0.226667	6.09464E-001	-3.97592E-004	0.00000E+000	-2.42318E-004	-2.40040E-001	6.09698E-001	3.57550E+000	9	...........
	17	0.24	6.03121E-001	-3.97810E-004	0.00000E+000	-2.39928E-004	-2.40040E-001	6.03366E-001	3.57550E+000	9	...........
	18	0.253333	5.96766E-001	-3.99813E-004	0.00000E+000	-2.38595E-004	-2.40040E-001	5.96987E-001	3.57550E+000	9	...........
	19	0.266667	5.90585E-001	-3.99132E-004	0.00000E+000	-2.35721E-004	-2.40040E-001	5.90802E-001	3.57550E+000	9	...........
	20	0.28	5.84367E-001	-3.99272E-004	0.00000E+000	-2.33322E-004	-2.40040E-001	5.84595E-001	3.57550E+000	9	...........
	21	0.293333	5.78226E-001	-3.99975E-004	0.00000E+000	-2.31276E-004	-2.40040E-001	5.78431E-001	3.57550E+000	9	...........
	22	0.306667	5.72079E-001	-3.98588E-004	0.00000E+000	-2.28024E-004	-2.40040E-001	5.72290E-001	3.57550E+000	9	...........
	23	0.32	5.65967E-001	-3.98636E-004	0.00000E+000	-2.25615E-004	-2.40040E-001	5.66175E-001	3.57550E+000	9	...........
	24	0.333333	5.59856E-001	-3.97154E-004	0.00000E+000	-2.22349E-004	-2.40040E-001	5.60092E-001	3.57550E+000	9	...........
	25	0.346667	5.53736E-001	-3.99378E-004	0.00000E+000	-2.21150E-004	-2.40040E-001	5.53964E-001	3.57550E+000	9	...........
	26	0.36	5.47734E-001	-4.00014E-004	0.00000E+000	-2.19101E-004	-2.40040E-001	5.47955E-001	3.57550E+000	9	...........
	27	0.373333	5.41805E-001	-3.98104E-004	0.00000E+000	-2.15695E-004	-2.40040E-001	5.42026E-001	3.57550E+000	9	...........
	28	0.386667	5.35881E-001	-3.99020E-004	0.00000E+000	-2.13827E-004	-2.40040E-001	5.36117E-001	3.57550E+000	9	...........
	29	0.4	5.29941E-001	-3.98446E-004	0.00000E+000	-2.11153E-004	-2.40040E-001	5.30171E-001	3.57550E+000	9	...........
	30	0.413333	5.23974E-001	-3.96683E-004	0.00000E+000	-2.07851E-004	-2.40040E-001	5.24177E-001	3.57550E+000	9	...........
	31	0.426667	5.18082E-001	-3.98529E-004	0.00000E+000	-2.06471E-004	-2.40040E-001	5.18250E-001	3.57550E+000	9	...........
	32	0.44	5.12199E-001	-3.98313E-004	0.00000E+000	-2.04016E-004	-2.40040E-001	5.12400E-001	3.57550E+000	9	...........
	33	0.453333	5.06424E-001	-3.98149E-004	0.00000E+000	-2.01632E-004	-2.40040E-001	5.06635E-001	3.57550E+000	9	...........
	34	0.466667	5.00703E-001	-3.98270E-004	0.00000E+000	-1.99415E-004	-2.40040E-001	5.00895E-001	3.57550E+000	9	...........
	35	0.48	4.94902E-001	-3.98801E-004	0.00000E+000	-1.97367E-004	-2.40040E-001	4.95079E-001	3.57550E+000	9	...........
	36	0.493333	4.89133E-001	-3.98585E-004	0.00000E+000	-1.94961E-004	-2.40040E-001	4.89324E-001	3.57550E+000	9	...........
	37	0.506667	4.83616E-001	-3.98906E-004	0.00000E+000	-1.92918E-004	-2.40040E-001	4.83706E-001	3.57550E+000	9	...........
	38	0.52	4.78032E-001	-3.97911E-004	0.00000E+000	-1.90214E-004	-2.40040E-001	4.78125E-001	3.57550E+000	9	...........
	39	0.533333	4.72352E-001	-3.98458E-004	0.00000E+000	-1.88212E-004	-2.40040E-001	4.72445E-001	3.57550E+000	9	...........
	40	0.546667	4.66668E-001	-3.98947E-004	0.00000E+000	-1.86176E-004	-2.40040E-001	4.66756E-001	3.57550E+000	9	...........
	41	0.56	4.61021E-001	-3.97479E-004	0.00000E+000	-1.83246E-004	-2.40040E-001	4.61108E-001	3.57550E+000	9	...........
	42	0.573333	4.55309E-001	-3.98062E-004	0.00000E+000	-1.81241E-004	-2.40040E-001	4.55397E-001	3.57550E+000	9	...........
	43	0.586667	4.49722E-001	-3.97837E-004	0.00000E+000	-1.78916E-004	-2.40040E-001	4.49808E-001	3.57550E+000	9	...........
	44	0.6	4.44099E-001	-3.98123E-004	0.00000E+000	-1.76806E-004	-2.40040E-001	4.44183E-001	3.57550E+000	9	...........
	45	0.613333	4.38551E-001	-3.99359E-004	0.00000E+000	-1.75140E-004	-2.40040E-001	4.38631E-001	3.57550E+000	9	...........
	46	0.626667	4.33125E-001	-3.98006E-004	0.00000E+000	-1.72387E-004	-2.40040E-001	4.33203E-001	3.57550E+000	9	...........
	47	0.64	4.27702E-001	-3.98884E-004	0.00000E+000	-1.70604E-004	-2.40040E-001	4.27786E-001	3.57550E+000	9	...........
	48	0.653333	4.22298E-001	-3.99038E-004	0.00000E+000	-1.68513E-004	-2.40040E-001	4.22379E-001	3.57550E+000	9	...........
	49	0.666667	4.16815E-001	-3.98399E-004	0.00000E+000	-1.66059E-004	-2.40040E-001	4.16896E-001	3.57550E+000	9	...........
	50	0.68	4.11334E-001	-3.98546E-004	0.00000E+000	-1.63935E-004	-2.40040E-001	4.11412E-001	3.57550E+000	9	...........
	51	0.693333	4.05960E-001	-3.98959E-004	0.00000E+000	-1.61962E-004	-2.40040E-001	4.06026E-001	3.57550E+000	9	...........
	52	0.706667	4.00538E-001	-3.98035E-004	0.00000E+000	-1.59428E-004	-2.40040E-001	4.00607E-001	3.57550E+000	9	...........
	53	0.72	3.95206E-001	-3.99066E-004	0.00000E+000	-1.57713E-004	-2.40040E-001	3.95271E-001	3.57550E+000	9	...........
	54	0.733333	3.89826E-001	-3.99565E-004	0.00000E+000	-1.55761E-004	-2.40040E-001	3.89892E-001	3.57550E+000	9	...........
	55	0.746667	3.84551E-001	-3.97703E-004	0.00000E+000	-1.52937E-004	-2.40040E-001	3.84614E-001	3.57550E+000	9	...........
	56	0.76	3.79383E-001	-3.97129E-004	0.00000E+000	-1.50664E-004	-2.40040E-001	3.79451E-001	3.57550E+000	9	...........
	57	0.773333	3.74016E-001	-3.98128E-004	0.00000E+000	-1.48906E-004	-2.40040E-001	3.74079E-001	3.57550E+000	9	...........
	58	0.786667	3.68736E-001	-3.98223E-004	0.00000E+000	-1.46839E-004	-2.40040E-001	3.68801E-001	3.57550E+000	9	...........
	59	0.8	3.63499E-001	-3.98748E-004	0.00000E+000	-1.44944E-004	-2.40040E-001	3.63570E-001	3.57550E+000	9	...........
	60	0.813333	3.58245E-001	-3.97706E-004	0.00000E+000	-1.42476E-004	-2.40040E-001	3.58310E-001	3.57550E+000	9	...........
	61	0.826667	3.53066E-001	-3.99169E-004	0.00000E+000	-1.40933E-004	-2.40040E-001	3.53122E-001	3.57550E+000	9	...........
	62	0.84	3.47836E-001	-3.98844E-004	0.00000E+000	-1.38732E-004	-2.40040E-001	3.47900E-001	3.57550E+000	9	...........
	63	0.853333	3.42646E-001	-3.96713E-004	0.00000E+000	-1.35932E-004	-2.40040E-001	3.42705E-001	3.57550E+000	9	...........
	64	0.866667	3.37511E-001	-3.98233E-004	0.00000E+000	-1.34408E-004	-2.40040E-001	3.37572E-001	3.57550E+000	9	...........
	65	0.88	3.32372E-001	-3.98014E-004	0.00000E+000	-1.32289E-004	-2.40040E-001	3.32430E-001	3.57550E+000	9	...........
	66	0.893333	3.27262E-001	-3.99038E-004	0.00000E+000	-1.30590E-004	-2.40040E-001	3.27318E-001	3.57550E+000	9	...........
	67	0.906667	3.22180E-001	-3.98469E-004	0.00000E+000	-1.28379E-004	-2.40040E-001	3.22239E-001	3.57550E+000	9	...........
	68	0.92	3.17136E-001	-3.98503E-004	0.00000E+000	-1.26380E-004	-2.40040E-001	3.17193E-001	3.57550E+000	9	...........
	69	0.933333	3.12187E-001	-3.98563E-004	0.00000E+000	-1.24426E-004	-2.40040E-001	3.12244E-001	3.57550E+000	9	...........
	70	0.946667	3.07223E-001	-3.98288E-004	0.00000E+000	-1.22363E-004	-2.40040E-001	3.07277E-001	3.57550E+000	9	...........
	71	0.96	3.02169E-001	-3.98212E-004	0.00000E+000	-1.20328E-004	-2.40040E-001	3.02223E-001	3.57550E+000	9	...........
	72	0.97333	2.97271E-001	-3.99127E-004	0.00000E+000	-1.18649E-004	-2.40040E-001	2.97325E-001	3.57550E+000	9	...........
	73	0.98667	2.92284E-001	-3.99060E-004	0.00000E+000	-1.16639E-004	-2.40040E-001	2.92337E-001	3.57550E+000	9	...........
	74	1	2.87314E-001	-3.99363E-004	0.00000E+000	-1.14742E-004	-2.40040E-001	2.87370E-001	3.57550E+000	9	...........
	75	1.01333	2.82313E-001	-3.98927E-004	0.00000E+000	-1.12622E-004	-2.40040E-001	2.82376E-001	3.57550E+000	9	...........
	76	1.02667	2.77488E-001	-3.98456E-004	0.00000E+000	-1.10567E-004	-2.40040E-001	2.77535E-001	3.57550E+000	9	...........
	77	1.04	2.72598E-001	-3.98203E-004	0.00000E+000	-1.08549E-004	-2.40040E-001	2.72652E-001	3.57550E+000	9	...........
	78	1.05333	2.67783E-001	-3.98016E-004	0.00000E+000	-1.06582E-004	-2.40040E-001	2.67834E-001	3.57550E+000	9	...........
	79	1.06667	2.62965E-001	-3.98905E-004	0.00000E+000	-1.04898E-004	-2.40040E-001	2.63018E-001	3.57550E+000	9	...........
	80	1.08	2.58254E-001	-3.97950E-004	0.00000E+000	-1.02772E-004	-2.40040E-001	2.58307E-001	3.57550E+000	9	...........
	81	1.09333	2.53477E-001	-3.97995E-004	0.00000E+000	-1.00882E-004	-2.40040E-001	2.53526E-001	3.57550E+000	9	...........
	82	1.10667	2.48711E-001	-3.99570E-004	0.00000E+000	-9.93773E-005	-2.40040E-001	2.48757E-001	3.57550E+000	9	...........
	83	1.12	2.43992E-001	-3.99700E-004	0.00000E+000	-9.75236E-005	-2.40040E-001	2.44033E-001	3.57550E+000	9	...........
	84	1.13333	2.39296E-001	-3.97691E-004	0.00000E+000	-9.51660E-005	-2.40040E-001	2.39336E-001	3.57550E+000	9	...........
	85	1.14667	2.34560E-001	-3.98851E-004	0.00000E+000	-9.35547E-005	-2.40040E-001	2.34600E-001	3.57550E+000	9	...........
	86	1.16	2.29857E-001	-4.00050E-004	0.00000E+000	-9.19545E-005	-2.40040E-001	2.29898E-001	3.57550E+000	9	...........
	87	1.17333	2.25182E-001	-3.99493E-004	0.00000E+000	-8.99587E-005	-2.40040E-001	2.25225E-001	3.57550E+000	9	...........
	88	1.18667	2.20485E-001	-3.98890E-004	0.00000E+000	-8.79492E-005	-2.40040E-001	2.20521E-001	3.57550E+000	9	...........
	89	1.2	2.15903E-001	-3.97957E-004	0.00000E+000	-8.59200E-005	-2.40040E-001	2.15936E-001	3.57550E+000	9	...........
	90	1.21333	2.11322E-001	-3.99466E-004	0.00000E+000	-8.44159E-005	-2.40040E-001	2.11361E-001	3.57550E+000	9	...........
	91	1.22667	2.06704E-001	-3.98995E-004	0.00000E+000	-8.24739E-005	-2.40040E-001	2.06735E-001	3.57550E+000	9	...........
	92	1.24	2.02095E-001	-3.99007E-004	0.00000E+000	-8.06372E-005	-2.40040E-001	2.02137E-001	3.57550E+000	9	...........
	93	1.25333	1.97540E-001	-3.98013E-004	0.00000E+000	-7.86235E-005	-2.40040E-001	1.97575E-001	3.57550E+000	9	...........
	94	1.26667	1.93020E-001	-3.98434E-004	0.00000E+000	-7.69056E-005	-2.40040E-001	1.93053E-001	3.57550E+000	9	...........
	95	1.28	1.88356E-001	-3.99109E-004	0.00000E+000	-7.51748E-005	-2.40040E-001	1.88389E-001	3.57550E+000	9	...........
	96	1.29333	1.83781E-001	-4.00056E-004	0.00000E+000	-7.35228E-005	-2.40040E-001	1.83816E-001	3.57550E+000	9	...........
	97	1.30667	1.79352E-001	-3.99637E-004	0.00000E+000	-7.16756E-005	-2.40040E-001	1.79386E-001	3.57550E+000	9	...........
	98	1.32	1.74901E-001	-3.98688E-004	0.00000E+000	-6.97311E-005	-2.40040E-001	1.74936E-001	3.57550E+000	9	...........
	99	1.33333	1.70508E-001	-3.98016E-004	0.00000E+000	-6.78651E-005	-2.40040E-001	1.70535E-001	3.57555E+000	9	...........
	100	1.34667	1.65993E-001	-3.99180E-004	0.00000E+000	-6.62610E-005	-2.40040E-001	1.66022E-001	3.57560E+000	9	...........
	101	1.36	1.61554E-001	-3.97786E-004	0.00000E+000	-6.42641E-005	-2.40040E-001	1.61580E-001	3.57560E+000	9	...........
	102	1.37333	1.57093E-001	-3.99095E-004	0.00000E+000	-6.26950E-005	-2.40040E-001	1.57118E-001	3.57560E+000	9	...........
	103	1.38667	1.52721E-001	-3.99031E-004	0.00000E+000	-6.09405E-005	-2.40040E-001	1.52746E-001	3.57560E+000	9	...........
	104	1.4	1.48375E-001	-3.98381E-004	0.00000E+000	-5.91097E-005	-2.40040E-001	1.48402E-001	3.57560E+000	9	...........
	105	1.41333	1.44015E-001	-3.98997E-004	0.00000E+000	-5.74616E-005	-2.40040E-001	1.44040E-001	3.57560E+000	9	...........
	106	1.42667	1.39743E-001	-3.97981E-004	0.00000E+000	-5.56151E-005	-2.40040E-001	1.39765E-001	3.57560E+000	9	...........
	107	1.44	1.35375E-001	-3.98938E-004	0.00000E+000	-5.40061E-005	-2.40040E-001	1.35395E-001	3.57560E+000	9	...........
	108	1.45333	1.31102E-001	-3.98749E-004	0.00000E+000	-5.22770E-005	-2.40040E-001	1.31124E-001	3.57560E+000	9	...........
	109	1.46667	1.26800E-001	-3.99671E-004	0.00000E+000	-5.06784E-005	-2.40040E-001	1.26817E-001	3.57560E+000	9	...........
	110	1.48	1.22431E-001	-3.97889E-004	0.00000E+000	-4.87140E-005	-2.40040E-001	1.22453E-001	3.57560E+000	9	...........
	111	1.49333	1.18087E-001	-3.99857E-004	0.00000E+000	-4.72180E-005	-2.40040E-001	1.18111E-001	3.57560E+000	9	...........
	112	1.50667	1.13808E-001	-3.99816E-004	0.00000E+000	-4.55020E-005	-2.40040E-001	1.13834E-001	3.57560E+000	9	...........
	113	1.52	1.09653E-001	-3.97988E-004	0.00000E+000	-4.36408E-005	-2.40040E-001	1.09674E-001	3.57560E+000	9	...........
	114	1.53333	1.05383E-001	-3.98940E-004	0.00000E+000	-4.20414E-005	-2.40040E-001	1.05403E-001	3.57560E+000	9	...........
	115	1.54667	1.01267E-001	-3.99284E-004	0.00000E+000	-4.04344E-005	-2.40040E-001	1.01291E-001	3.57560E+000	9	...........
	116	1.56	9.70960E-002	-3.98471E-004	0.00000E+000	-3.86899E-005	-2.40040E-001	9.71175E-002	3.57560E+000	9	...........
	117	1.57333	9.29335E-002	-3.99032E-004	0.00000E+000	-3.70834E-005	-2.40040E-001	9.29521E-002	3.57560E+000	9	...........
	118	1.58667	8.88134E-002	-3.98270E-004	0.00000E+000	-3.53717E-005	-2.40040E-001	8.88304E-002	3.57560E+000	9	...........
	119	1.6	8.46759E-002	-3.99610E-004	0.00000E+000	-3.38373E-005	-2.40040E-001	8.46912E-002	3.57560E+000	9	...........
	120	1.61333	8.05841E-002	-3.99352E-004	0.00000E+000	-3.21814E-005	-2.40040E-001	8.05937E-002	3.57560E+000	9	...........
	121	1.62667	7.65106E-002	-3.98300E-004	0.00000E+000	-3.04742E-005	-2.40040E-001	7.65163E-002	3.57560E+000	9	...........
	122	1.64	7.25052E-002	-3.98487E-004	0.00000E+000	-2.88924E-005	-2.40040E-001	7.25082E-002	3.57560E+000	9	...........
	123	1.65333	6.84720E-002	-3.99187E-004	0.00000E+000	-2.73331E-005	-2.40040E-001	6.84771E-002	3.57560E+000	9	...........
	124	1.66667	6.44124E-002	-3.98693E-004	0.00000E+000	-2.56807E-005	-2.40040E-001	6.44127E-002	3.57560E+000	9	...........
	125	1.68	6.02962E-002	-3.99665E-004	0.00000E+000	-2.40983E-005	-2.40040E-001	6.02996E-002	3.57560E+000	9	...........
	126	1.69333	5.62948E-002	-3.98068E-004	0.00000E+000	-2.24091E-005	-2.40040E-001	5.62999E-002	3.57560E+000	9	...........
	127	1.70667	5.23191E-002	-3.98361E-004	0.00000E+000	-2.08419E-005	-2.40040E-001	5.23262E-002	3.57560E+000	9	...........
	128	1.72	4.83531E-002	-3.99545E-004	0.00000E+000	-1.93192E-005	-2.40040E-001	4.83544E-002	3.57560E+000	9	...........
	129	1.73333	4.42832E-002	-3.99632E-004	0.00000E+000	-1.76970E-005	-2.40040E-001	4.42904E-002	3.57560E+000	9	...........
	130	1.74667	4.03551E-002	-3.99446E-004	0.00000E+000	-1.61197E-005	-2.40040E-001	4.03620E-002	3.57560E+000	9	...........
	131	1.76	3.65242E-002	-3.98632E-004	0.00000E+000	-1.45597E-005	-2.40040E-001	3.65267E-002	3.57560E+000	9	...........
	132	1.77333	3.25738E-002	-3.98336E-004	0.00000E+000	-1.29753E-005	-2.40040E-001	3.25739E-002	3.57560E+000	9	...........
	133	1.78667	2.86983E-002	-3.97880E-004	0.00000E+000	-1.14185E-005	-2.40040E-001	2.86998E-002	3.57560E+000	9	...........
	134	1.8	2.47923E-002	-3.97707E-004	0.00000E+000	-9.86007E-006	-2.40040E-001	2.47887E-002	3.57560E+000	9	...........
	135	1.81333	2.09408E-002	-3.99407E-004	0.00000E+000	-8.36390E-006	-2.40040E-001	2.09325E-002	3.57560E+000	9	...........
	136	1.82667	1.70907E-002	-3.98345E-004	0.00000E+000	-6.80797E-006	-2.40040E-001	1.70812E-002	3.57560E+000	9	...........
	137	1.84	1.31667E-002	-3.98341E-004	0.00000E+000	-5.24483E-006	-2.40040E-001	1.31554E-002	3.57560E+000	9	...........
	138	1.85333	9.40229E-003	-3.98899E-004	0.00000E+000	-3.75056E-006	-2.40040E-001	9.38875E-003	3.57560E+000	9	...........
	139	1.86667	5.58847E-003	-4.00261E-004	0.00000E+000	-2.23685E-006	-2.40040E-001	5.57330E-003	3.57560E+000	9	...........
	140	1.88	1.76132E-003	-3.98187E-004	0.00000E+000	-7.01335E-007	-2.40040E-001	1.74506E-003	3.57560E+000	9	...........
	141	1.88167	-3.63135E-004	-3.94672E-004	0.00000E+000	1.43319E-007	-2.40040E-001	-3.78309E-004	3.57560E+000	9	...........
STARTTIMEOFFSET	QUANT	63.68834	Start Time Offset (s)
