EXPLAIN
TAG	PWR800_DISCHARGE
TITLE	LABEL	PWR Cyclic Charge Discharge (Cell) - Discharge Step	Test &Identifier
DATE	LABEL	12-7-2017	Date
TIME	LABEL	14:46:25	Time
NOTES	NOTES	3	&Notes...
	supercap test cell
	0.4mg
	6M KOH
PSTAT	PSTAT	IFC5000-01520	Potentiostat
CAPACITY	QUANT	1.00000E-003	Capacity (A-hr)
CELLTYPE	SELECTOR	1	&Cell Type
WORKINGCONNECTION	SELECTOR	0	&Working Lead
MAXDISCHARGETIME	VARIABLEANDUNITS	1.00000E+002	s	1.00000E+002	second(s)	Max &Discharge Time
DISCHARGEMODE	MULTIPARAM	0	4.00000E-004	&Discharge Mode	Constant Current	Amp(s)
SAMPLETIME	QUANT	1.00000E-002	Sa&mple Period (s)
DISCHARGESTOPAT1	MULTIPARAM	3	0.00000E+000	Discharge Stop At &1	Voltage < Limit	V
DISCHARGESTOPAT2	MULTIPARAM	0	0.00000E+000	Discharge Stop At &2	None	N/A
AESBHCSELECTOR	TOGGLE	F	Save Both Half Cells
IRCOMP	TOGGLE	F	IR &Measure
EOC	QUANT	0	Open Circuit (V)
SEQUENCER	TOGGLE	TRUE	Run as Sequence
PSTATMODEL	IQUANT	53	Pstat Model
PSTATSECTION	LABEL	IFC5000-01520	Pstat Section
PSTATSERIALNO	LABEL	01520	Pstat Serial Number
CTRLMODE	IQUANT	0	Control Mode
ELECTROMETER	IQUANT	1	RE=0 or CS=1
IESTAB	IQUANT	0	I/E Stability
CASPEED	IQUANT	4	Control Amp Speed
CONVENTION	IQUANT	1	Current Convention
ICHRANGE	IQUANT	2	Ich Range
ICHRANGEMODE	TOGGLE	T	Ich Auto Range
ICHOFFSETENABLE	TOGGLE	F	Ich Offset Enable
ICHOFFSET	QUANT	0	Ich Offset (V)
ICHFILTER	IQUANT	1	Ich Filter
VCHRANGE	IQUANT	2	Vch Range
VCHRANGEMODE	TOGGLE	T	Vch Auto Range
VCHOFFSETENABLE	TOGGLE	F	Vch Offset Enable
VCHOFFSET	QUANT	0	Vch Offset (V)
VCHFILTER	IQUANT	1	Vch Filter
IERANGELOWERLIMIT	IQUANT	9	I/E Range Lower Limit
IERANGEMODE	TOGGLE	F	I/E AutoRange
IERANGE	IQUANT	9	I/E Range
ACHSELECT	IQUANT	1	Ach Select
ACHRANGE	IQUANT	2	Ach Range
ACHOFFSETENABLE	TOGGLE	F	Ach Offset Enable
ACHOFFSET	QUANT	0	Ach Offset (V)
ACHFILTER	IQUANT	1	Ach Filter
CABLEID	IQUANT	14	Cable ID
DCCALDATE	LABEL	5-7-2017	DC Calibration Date
ACCALDATE	LABEL	12/3/2015	AC Calibration Date
FRAMEWORKVERSION	QUANT	7.01	Framework Version
INSTRUMENTVERSION	LABEL	4.00	Instrument Version
CURVE	TABLE	115
	Pt	T	Vf	Im	Vu	Pwr	Sig	Ach	Temp	IERange	Over
	#	s	V	A	V	W	V	V	deg C	#	bits
	0	0.013333	7.02455E-001	-3.98781E-004	0.00000E+000	-2.80126E-004	-2.40040E-001	7.02704E-001	3.57640E+000	9	...........
	1	0.026667	6.90282E-001	-3.97996E-004	0.00000E+000	-2.74729E-004	-2.40040E-001	6.90522E-001	3.57640E+000	9	...........
	2	0.04	6.79546E-001	-3.98178E-004	0.00000E+000	-2.70580E-004	-2.40040E-001	6.79764E-001	3.57640E+000	9	...........
	3	0.053333	6.69620E-001	-3.98073E-004	0.00000E+000	-2.66558E-004	-2.40040E-001	6.69830E-001	3.57640E+000	9	...........
	4	0.066667	6.60262E-001	-3.97392E-004	0.00000E+000	-2.62383E-004	-2.40040E-001	6.60482E-001	3.57640E+000	9	...........
	5	0.08	6.51356E-001	-3.98965E-004	0.00000E+000	-2.59868E-004	-2.40040E-001	6.51571E-001	3.57640E+000	9	...........
	6	0.093333	6.42649E-001	-3.98800E-004	0.00000E+000	-2.56288E-004	-2.40040E-001	6.42859E-001	3.57640E+000	9	...........
	7	0.106667	6.34163E-001	-3.98122E-004	0.00000E+000	-2.52474E-004	-2.40040E-001	6.34388E-001	3.57640E+000	9	...........
	8	0.12	6.25910E-001	-3.97922E-004	0.00000E+000	-2.49063E-004	-2.40040E-001	6.26119E-001	3.57640E+000	9	...........
	9	0.133333	6.17829E-001	-3.99805E-004	0.00000E+000	-2.47011E-004	-2.40040E-001	6.18019E-001	3.57640E+000	9	...........
	10	0.146667	6.09758E-001	-3.98742E-004	0.00000E+000	-2.43136E-004	-2.40040E-001	6.10028E-001	3.57640E+000	9	...........
	11	0.16	6.01859E-001	-3.98313E-004	0.00000E+000	-2.39728E-004	-2.40040E-001	6.02087E-001	3.57640E+000	9	...........
	12	0.173333	5.94075E-001	-3.98393E-004	0.00000E+000	-2.36675E-004	-2.40040E-001	5.94273E-001	3.57640E+000	9	...........
	13	0.186667	5.86328E-001	-3.98095E-004	0.00000E+000	-2.33414E-004	-2.40040E-001	5.86540E-001	3.57640E+000	9	...........
	14	0.2	5.78589E-001	-4.00135E-004	0.00000E+000	-2.31514E-004	-2.40040E-001	5.78792E-001	3.57640E+000	9	...........
	15	0.213333	5.70996E-001	-4.00496E-004	0.00000E+000	-2.28682E-004	-2.40040E-001	5.71186E-001	3.57640E+000	9	...........
	16	0.226667	5.63573E-001	-3.99647E-004	0.00000E+000	-2.25230E-004	-2.40040E-001	5.63769E-001	3.57640E+000	9	...........
	17	0.24	5.56011E-001	-3.97920E-004	0.00000E+000	-2.21248E-004	-2.40040E-001	5.56215E-001	3.57640E+000	9	...........
	18	0.253333	5.48602E-001	-3.98728E-004	0.00000E+000	-2.18743E-004	-2.40040E-001	5.48776E-001	3.57640E+000	9	...........
	19	0.266667	5.41213E-001	-3.98977E-004	0.00000E+000	-2.15931E-004	-2.40040E-001	5.41427E-001	3.57640E+000	9	...........
	20	0.28	5.33851E-001	-3.98267E-004	0.00000E+000	-2.12615E-004	-2.40040E-001	5.34062E-001	3.57640E+000	9	...........
	21	0.293333	5.26570E-001	-3.98657E-004	0.00000E+000	-2.09921E-004	-2.40040E-001	5.26764E-001	3.57640E+000	9	...........
	22	0.306667	5.19315E-001	-3.98372E-004	0.00000E+000	-2.06880E-004	-2.40040E-001	5.19511E-001	3.57640E+000	9	...........
	23	0.32	5.12069E-001	-3.99506E-004	0.00000E+000	-2.04575E-004	-2.40040E-001	5.12279E-001	3.57640E+000	9	...........
	24	0.333333	5.04913E-001	-3.98251E-004	0.00000E+000	-2.01082E-004	-2.40040E-001	5.05141E-001	3.57640E+000	9	...........
	25	0.346667	4.97740E-001	-3.98944E-004	0.00000E+000	-1.98570E-004	-2.40040E-001	4.97974E-001	3.57640E+000	9	...........
	26	0.36	4.90659E-001	-3.98039E-004	0.00000E+000	-1.95302E-004	-2.40040E-001	4.90894E-001	3.57640E+000	9	...........
	27	0.373333	4.83784E-001	-3.98551E-004	0.00000E+000	-1.92813E-004	-2.40040E-001	4.83926E-001	3.57640E+000	9	...........
	28	0.386667	4.76820E-001	-3.98652E-004	0.00000E+000	-1.90085E-004	-2.40040E-001	4.76916E-001	3.57640E+000	9	...........
	29	0.4	4.69737E-001	-3.98848E-004	0.00000E+000	-1.87353E-004	-2.40040E-001	4.69835E-001	3.57640E+000	9	...........
	30	0.413333	4.62841E-001	-3.98240E-004	0.00000E+000	-1.84322E-004	-2.40040E-001	4.62932E-001	3.57640E+000	9	...........
	31	0.426667	4.55893E-001	-3.99757E-004	0.00000E+000	-1.82246E-004	-2.40040E-001	4.55982E-001	3.57640E+000	9	...........
	32	0.44	4.49063E-001	-3.99431E-004	0.00000E+000	-1.79370E-004	-2.40040E-001	4.49151E-001	3.57640E+000	9	...........
	33	0.453333	4.42259E-001	-4.00264E-004	0.00000E+000	-1.77020E-004	-2.40040E-001	4.42349E-001	3.57640E+000	9	...........
	34	0.466667	4.35504E-001	-3.96476E-004	0.00000E+000	-1.72667E-004	-2.40040E-001	4.35592E-001	3.57640E+000	9	...........
	35	0.48	4.28680E-001	-3.98325E-004	0.00000E+000	-1.70754E-004	-2.40040E-001	4.28762E-001	3.57640E+000	9	...........
	36	0.493333	4.21865E-001	-3.99020E-004	0.00000E+000	-1.68333E-004	-2.40040E-001	4.21950E-001	3.57640E+000	9	...........
	37	0.506667	4.15100E-001	-3.98417E-004	0.00000E+000	-1.65383E-004	-2.40040E-001	4.15192E-001	3.57640E+000	9	...........
	38	0.52	4.08392E-001	-3.98184E-004	0.00000E+000	-1.62615E-004	-2.40040E-001	4.08468E-001	3.57640E+000	9	...........
	39	0.533333	4.01878E-001	-3.98908E-004	0.00000E+000	-1.60312E-004	-2.40040E-001	4.01952E-001	3.57640E+000	9	...........
	40	0.546667	3.95382E-001	-3.98219E-004	0.00000E+000	-1.57448E-004	-2.40040E-001	3.95459E-001	3.57640E+000	9	...........
	41	0.56	3.88858E-001	-3.98481E-004	0.00000E+000	-1.54953E-004	-2.40040E-001	3.88933E-001	3.57640E+000	9	...........
	42	0.573333	3.82330E-001	-3.99663E-004	0.00000E+000	-1.52803E-004	-2.40040E-001	3.82402E-001	3.57640E+000	9	...........
	43	0.586667	3.75867E-001	-3.99704E-004	0.00000E+000	-1.50236E-004	-2.40040E-001	3.75937E-001	3.57640E+000	9	...........
	44	0.6	3.69328E-001	-3.99749E-004	0.00000E+000	-1.47639E-004	-2.40040E-001	3.69400E-001	3.57640E+000	9	...........
	45	0.613333	3.62977E-001	-3.98656E-004	0.00000E+000	-1.44703E-004	-2.40040E-001	3.63052E-001	3.57640E+000	9	...........
	46	0.626667	3.56627E-001	-3.98816E-004	0.00000E+000	-1.42228E-004	-2.40040E-001	3.56701E-001	3.57640E+000	9	...........
	47	0.64	3.50341E-001	-3.98008E-004	0.00000E+000	-1.39439E-004	-2.40040E-001	3.50413E-001	3.57640E+000	9	...........
	48	0.653333	3.44091E-001	-3.98885E-004	0.00000E+000	-1.37253E-004	-2.40040E-001	3.44158E-001	3.57640E+000	9	...........
	49	0.666667	3.37929E-001	-3.98801E-004	0.00000E+000	-1.34767E-004	-2.40040E-001	3.38004E-001	3.57640E+000	9	...........
	50	0.68	3.31714E-001	-3.97232E-004	0.00000E+000	-1.31767E-004	-2.40040E-001	3.31783E-001	3.57640E+000	9	...........
	51	0.693333	3.25550E-001	-3.98384E-004	0.00000E+000	-1.29694E-004	-2.40040E-001	3.25619E-001	3.57640E+000	9	...........
	52	0.706667	3.19468E-001	-3.98636E-004	0.00000E+000	-1.27352E-004	-2.40040E-001	3.19536E-001	3.57640E+000	9	...........
	53	0.72	3.13362E-001	-3.99383E-004	0.00000E+000	-1.25152E-004	-2.40040E-001	3.13425E-001	3.57640E+000	9	...........
	54	0.733333	3.07225E-001	-3.99378E-004	0.00000E+000	-1.22699E-004	-2.40040E-001	3.07291E-001	3.57640E+000	9	...........
	55	0.746667	3.01165E-001	-3.99134E-004	0.00000E+000	-1.20205E-004	-2.40040E-001	3.01227E-001	3.57640E+000	9	...........
	56	0.76	2.95128E-001	-3.99280E-004	0.00000E+000	-1.17839E-004	-2.40040E-001	2.95188E-001	3.57640E+000	9	...........
	57	0.773333	2.89148E-001	-3.97581E-004	0.00000E+000	-1.14960E-004	-2.40040E-001	2.89208E-001	3.57640E+000	9	...........
	58	0.786667	2.83210E-001	-3.98173E-004	0.00000E+000	-1.12766E-004	-2.40040E-001	2.83274E-001	3.57640E+000	9	...........
	59	0.8	2.77328E-001	-3.98769E-004	0.00000E+000	-1.10590E-004	-2.40040E-001	2.77389E-001	3.57640E+000	9	...........
	60	0.813333	2.71534E-001	-3.98861E-004	0.00000E+000	-1.08304E-004	-2.40040E-001	2.71601E-001	3.57640E+000	9	...........
	61	0.826667	2.65789E-001	-3.97526E-004	0.00000E+000	-1.05658E-004	-2.40040E-001	2.65853E-001	3.57640E+000	9	...........
	62	0.84	2.60088E-001	-3.98184E-004	0.00000E+000	-1.03563E-004	-2.40040E-001	2.60147E-001	3.57640E+000	9	...........
	63	0.853333	2.54265E-001	-3.97076E-004	0.00000E+000	-1.00963E-004	-2.40040E-001	2.54326E-001	3.57640E+000	9	...........
	64	0.866667	2.48509E-001	-3.97871E-004	0.00000E+000	-9.88746E-005	-2.40040E-001	2.48565E-001	3.57640E+000	9	...........
	65	0.88	2.42887E-001	-3.99726E-004	0.00000E+000	-9.70881E-005	-2.40040E-001	2.42938E-001	3.57640E+000	9	...........
	66	0.893333	2.37317E-001	-3.98942E-004	0.00000E+000	-9.46756E-005	-2.40040E-001	2.37364E-001	3.57640E+000	9	...........
	67	0.906667	2.31681E-001	-3.99615E-004	0.00000E+000	-9.25830E-005	-2.40040E-001	2.31726E-001	3.57640E+000	9	...........
	68	0.92	2.26115E-001	-3.99100E-004	0.00000E+000	-9.02424E-005	-2.40040E-001	2.26158E-001	3.57640E+000	9	...........
	69	0.933333	2.20590E-001	-3.97797E-004	0.00000E+000	-8.77500E-005	-2.40040E-001	2.20635E-001	3.57640E+000	9	...........
	70	0.946667	2.15009E-001	-3.99011E-004	0.00000E+000	-8.57909E-005	-2.40040E-001	2.15056E-001	3.57640E+000	9	...........
	71	0.96	2.09587E-001	-3.98754E-004	0.00000E+000	-8.35736E-005	-2.40040E-001	2.09626E-001	3.57640E+000	9	...........
	72	0.97333	2.04220E-001	-3.98758E-004	0.00000E+000	-8.14345E-005	-2.40040E-001	2.04258E-001	3.57640E+000	9	...........
	73	0.98667	1.98867E-001	-3.99478E-004	0.00000E+000	-7.94429E-005	-2.40040E-001	1.98905E-001	3.57640E+000	9	...........
	74	1	1.93399E-001	-3.98877E-004	0.00000E+000	-7.71424E-005	-2.40040E-001	1.93442E-001	3.57640E+000	9	...........
	75	1.01333	1.88081E-001	-3.97169E-004	0.00000E+000	-7.47002E-005	-2.40040E-001	1.88120E-001	3.57640E+000	9	...........
	76	1.02667	1.82793E-001	-3.99133E-004	0.00000E+000	-7.29588E-005	-2.40040E-001	1.82828E-001	3.57640E+000	9	...........
	77	1.04	1.77445E-001	-3.98701E-004	0.00000E+000	-7.07477E-005	-2.40040E-001	1.77483E-001	3.57640E+000	9	...........
	78	1.05333	1.72188E-001	-3.98436E-004	0.00000E+000	-6.86058E-005	-2.40040E-001	1.72225E-001	3.57640E+000	9	...........
	79	1.06667	1.66991E-001	-3.98925E-004	0.00000E+000	-6.66168E-005	-2.40040E-001	1.67022E-001	3.57640E+000	9	...........
	80	1.08	1.61866E-001	-3.98917E-004	0.00000E+000	-6.45710E-005	-2.40040E-001	1.61893E-001	3.57640E+000	9	...........
	81	1.09333	1.56700E-001	-3.99977E-004	0.00000E+000	-6.26766E-005	-2.40040E-001	1.56726E-001	3.57640E+000	9	...........
	82	1.10667	1.51578E-001	-3.99711E-004	0.00000E+000	-6.05875E-005	-2.40040E-001	1.51603E-001	3.57640E+000	9	...........
	83	1.12	1.46480E-001	-3.98869E-004	0.00000E+000	-5.84264E-005	-2.40040E-001	1.46501E-001	3.57640E+000	9	...........
	84	1.13333	1.41385E-001	-3.98597E-004	0.00000E+000	-5.63558E-005	-2.40040E-001	1.41418E-001	3.57640E+000	9	...........
	85	1.14667	1.36354E-001	-3.98723E-004	0.00000E+000	-5.43676E-005	-2.40040E-001	1.36380E-001	3.57640E+000	9	...........
	86	1.16	1.31404E-001	-3.98699E-004	0.00000E+000	-5.23907E-005	-2.40040E-001	1.31427E-001	3.57640E+000	9	...........
	87	1.17333	1.26411E-001	-3.99063E-004	0.00000E+000	-5.04459E-005	-2.40040E-001	1.26429E-001	3.57640E+000	9	...........
	88	1.18667	1.21406E-001	-3.98657E-004	0.00000E+000	-4.83994E-005	-2.40040E-001	1.21427E-001	3.57640E+000	9	...........
	89	1.2	1.16475E-001	-3.97804E-004	0.00000E+000	-4.63343E-005	-2.40040E-001	1.16498E-001	3.57640E+000	9	...........
	90	1.21333	1.11639E-001	-3.97903E-004	0.00000E+000	-4.44215E-005	-2.40040E-001	1.11661E-001	3.57640E+000	9	...........
	91	1.22667	1.06739E-001	-3.98204E-004	0.00000E+000	-4.25037E-005	-2.40040E-001	1.06763E-001	3.57640E+000	9	...........
	92	1.24	1.01818E-001	-3.98480E-004	0.00000E+000	-4.05725E-005	-2.40040E-001	1.01833E-001	3.57640E+000	9	...........
	93	1.25333	9.69876E-002	-3.99196E-004	0.00000E+000	-3.87170E-005	-2.40040E-001	9.70050E-002	3.57640E+000	9	...........
	94	1.26667	9.22427E-002	-3.98884E-004	0.00000E+000	-3.67942E-005	-2.40040E-001	9.22570E-002	3.57640E+000	9	...........
	95	1.28	8.73921E-002	-3.97540E-004	0.00000E+000	-3.47419E-005	-2.40040E-001	8.74042E-002	3.57640E+000	9	...........
	96	1.29333	8.25547E-002	-3.98138E-004	0.00000E+000	-3.28682E-005	-2.40040E-001	8.25707E-002	3.57640E+000	9	...........
	97	1.30667	7.78060E-002	-3.98624E-004	0.00000E+000	-3.10153E-005	-2.40040E-001	7.78149E-002	3.57640E+000	9	...........
	98	1.32	7.30729E-002	-3.98627E-004	0.00000E+000	-2.91288E-005	-2.40040E-001	7.30790E-002	3.57640E+000	9	...........
	99	1.33333	6.84050E-002	-3.98570E-004	0.00000E+000	-2.72642E-005	-2.40040E-001	6.84159E-002	3.57640E+000	9	...........
	100	1.34667	6.37638E-002	-3.99903E-004	0.00000E+000	-2.54994E-005	-2.40040E-001	6.37694E-002	3.57640E+000	9	...........
	101	1.36	5.91079E-002	-3.99835E-004	0.00000E+000	-2.36334E-005	-2.40040E-001	5.91140E-002	3.57640E+000	9	...........
	102	1.37333	5.45532E-002	-3.98985E-004	0.00000E+000	-2.17659E-005	-2.40040E-001	5.45550E-002	3.57640E+000	9	...........
	103	1.38667	4.99680E-002	-3.99069E-004	0.00000E+000	-1.99407E-005	-2.40040E-001	4.99718E-002	3.57640E+000	9	...........
	104	1.4	4.54190E-002	-3.99520E-004	0.00000E+000	-1.81458E-005	-2.40040E-001	4.54280E-002	3.57640E+000	9	...........
	105	1.41333	4.09681E-002	-3.99269E-004	0.00000E+000	-1.63573E-005	-2.40040E-001	4.09783E-002	3.57670E+000	9	...........
	106	1.42667	3.65090E-002	-3.98868E-004	0.00000E+000	-1.45623E-005	-2.40040E-001	3.65167E-002	3.57680E+000	9	...........
	107	1.44	3.20083E-002	-3.98905E-004	0.00000E+000	-1.27683E-005	-2.40040E-001	3.20084E-002	3.57680E+000	9	...........
	108	1.45333	2.75549E-002	-4.00268E-004	0.00000E+000	-1.10294E-005	-2.40040E-001	2.75525E-002	3.57680E+000	9	...........
	109	1.46667	2.31033E-002	-3.97826E-004	0.00000E+000	-9.19108E-006	-2.40040E-001	2.31018E-002	3.57680E+000	9	...........
	110	1.48	1.87179E-002	-3.98574E-004	0.00000E+000	-7.46045E-006	-2.40040E-001	1.87151E-002	3.57680E+000	9	...........
	111	1.49333	1.43278E-002	-3.98257E-004	0.00000E+000	-5.70614E-006	-2.40040E-001	1.43181E-002	3.57680E+000	9	...........
	112	1.50667	9.94908E-003	-3.99555E-004	0.00000E+000	-3.97521E-006	-2.40040E-001	9.93838E-003	3.57680E+000	9	...........
	113	1.52	5.62336E-003	-4.00914E-004	0.00000E+000	-2.25448E-006	-2.40040E-001	5.60997E-003	3.57680E+000	9	...........
	114	1.53333	1.39182E-003	-3.98779E-004	0.00000E+000	-5.55031E-007	-2.40040E-001	1.36958E-003	3.57680E+000	9	...........
STARTTIMEOFFSET	QUANT	1331.845	Start Time Offset (s)
