EXPLAIN
TAG	PWR800_DISCHARGE
TITLE	LABEL	PWR Cyclic Charge Discharge (Cell) - Discharge Step	Test &Identifier
DATE	LABEL	12-7-2017	Date
TIME	LABEL	15:11:30	Time
NOTES	NOTES	3	&Notes...
	supercap test cell
	0.4mg
	6M KOH
PSTAT	PSTAT	IFC5000-01520	Potentiostat
CAPACITY	QUANT	1.00000E-003	Capacity (A-hr)
CELLTYPE	SELECTOR	1	&Cell Type
WORKINGCONNECTION	SELECTOR	0	&Working Lead
MAXDISCHARGETIME	VARIABLEANDUNITS	1.00000E+002	s	1.00000E+002	second(s)	Max &Discharge Time
DISCHARGEMODE	MULTIPARAM	0	4.00000E-004	&Discharge Mode	Constant Current	Amp(s)
SAMPLETIME	QUANT	1.00000E-002	Sa&mple Period (s)
DISCHARGESTOPAT1	MULTIPARAM	3	0.00000E+000	Discharge Stop At &1	Voltage < Limit	V
DISCHARGESTOPAT2	MULTIPARAM	0	0.00000E+000	Discharge Stop At &2	None	N/A
AESBHCSELECTOR	TOGGLE	F	Save Both Half Cells
IRCOMP	TOGGLE	F	IR &Measure
EOC	QUANT	0	Open Circuit (V)
SEQUENCER	TOGGLE	TRUE	Run as Sequence
PSTATMODEL	IQUANT	53	Pstat Model
PSTATSECTION	LABEL	IFC5000-01520	Pstat Section
PSTATSERIALNO	LABEL	01520	Pstat Serial Number
CTRLMODE	IQUANT	0	Control Mode
ELECTROMETER	IQUANT	1	RE=0 or CS=1
IESTAB	IQUANT	0	I/E Stability
CASPEED	IQUANT	4	Control Amp Speed
CONVENTION	IQUANT	1	Current Convention
ICHRANGE	IQUANT	2	Ich Range
ICHRANGEMODE	TOGGLE	T	Ich Auto Range
ICHOFFSETENABLE	TOGGLE	F	Ich Offset Enable
ICHOFFSET	QUANT	0	Ich Offset (V)
ICHFILTER	IQUANT	1	Ich Filter
VCHRANGE	IQUANT	2	Vch Range
VCHRANGEMODE	TOGGLE	T	Vch Auto Range
VCHOFFSETENABLE	TOGGLE	F	Vch Offset Enable
VCHOFFSET	QUANT	0	Vch Offset (V)
VCHFILTER	IQUANT	1	Vch Filter
IERANGELOWERLIMIT	IQUANT	9	I/E Range Lower Limit
IERANGEMODE	TOGGLE	F	I/E AutoRange
IERANGE	IQUANT	9	I/E Range
ACHSELECT	IQUANT	1	Ach Select
ACHRANGE	IQUANT	2	Ach Range
ACHOFFSETENABLE	TOGGLE	F	Ach Offset Enable
ACHOFFSET	QUANT	0	Ach Offset (V)
ACHFILTER	IQUANT	1	Ach Filter
CABLEID	IQUANT	14	Cable ID
DCCALDATE	LABEL	5-7-2017	DC Calibration Date
ACCALDATE	LABEL	12/3/2015	AC Calibration Date
FRAMEWORKVERSION	QUANT	7.01	Framework Version
INSTRUMENTVERSION	LABEL	4.00	Instrument Version
CURVE	TABLE	105
	Pt	T	Vf	Im	Vu	Pwr	Sig	Ach	Temp	IERange	Over
	#	s	V	A	V	W	V	V	deg C	#	bits
	0	0.013333	6.87445E-001	-3.98701E-004	0.00000E+000	-2.74085E-004	-2.40040E-001	6.87664E-001	3.57630E+000	9	...........
	1	0.026667	6.74182E-001	-3.98319E-004	0.00000E+000	-2.68539E-004	-2.40040E-001	6.74388E-001	3.57630E+000	9	...........
	2	0.04	6.62570E-001	-3.98566E-004	0.00000E+000	-2.64078E-004	-2.40040E-001	6.62805E-001	3.57630E+000	9	...........
	3	0.053333	6.51887E-001	-3.98557E-004	0.00000E+000	-2.59814E-004	-2.40040E-001	6.52099E-001	3.57630E+000	9	...........
	4	0.066667	6.41827E-001	-3.98186E-004	0.00000E+000	-2.55567E-004	-2.40040E-001	6.42034E-001	3.57630E+000	9	...........
	5	0.08	6.32178E-001	-3.98270E-004	0.00000E+000	-2.51777E-004	-2.40040E-001	6.32412E-001	3.57630E+000	9	...........
	6	0.093333	6.23023E-001	-3.99583E-004	0.00000E+000	-2.48950E-004	-2.40040E-001	6.23244E-001	3.57630E+000	9	...........
	7	0.106667	6.14053E-001	-3.98393E-004	0.00000E+000	-2.44634E-004	-2.40040E-001	6.14292E-001	3.57630E+000	9	...........
	8	0.12	6.05205E-001	-3.98319E-004	0.00000E+000	-2.41064E-004	-2.40040E-001	6.05441E-001	3.57630E+000	9	...........
	9	0.133333	5.96466E-001	-3.98520E-004	0.00000E+000	-2.37703E-004	-2.40040E-001	5.96695E-001	3.57630E+000	9	...........
	10	0.146667	5.87927E-001	-3.98579E-004	0.00000E+000	-2.34336E-004	-2.40040E-001	5.88177E-001	3.57630E+000	9	...........
	11	0.16	5.79617E-001	-3.99848E-004	0.00000E+000	-2.31759E-004	-2.40040E-001	5.79850E-001	3.57630E+000	9	...........
	12	0.173333	5.71383E-001	-3.98577E-004	0.00000E+000	-2.27740E-004	-2.40040E-001	5.71587E-001	3.57630E+000	9	...........
	13	0.186667	5.63112E-001	-3.97969E-004	0.00000E+000	-2.24101E-004	-2.40040E-001	5.63329E-001	3.57630E+000	9	...........
	14	0.2	5.54934E-001	-4.00313E-004	0.00000E+000	-2.22147E-004	-2.40040E-001	5.55161E-001	3.57630E+000	9	...........
	15	0.213333	5.46846E-001	-3.97996E-004	0.00000E+000	-2.17642E-004	-2.40040E-001	5.47061E-001	3.57630E+000	9	...........
	16	0.226667	5.38841E-001	-3.98992E-004	0.00000E+000	-2.14993E-004	-2.40040E-001	5.39046E-001	3.57630E+000	9	...........
	17	0.24	5.30864E-001	-3.98621E-004	0.00000E+000	-2.11613E-004	-2.40040E-001	5.31044E-001	3.57630E+000	9	...........
	18	0.253333	5.22956E-001	-3.99737E-004	0.00000E+000	-2.09045E-004	-2.40040E-001	5.23124E-001	3.57630E+000	9	...........
	19	0.266667	5.15076E-001	-3.98995E-004	0.00000E+000	-2.05512E-004	-2.40040E-001	5.15260E-001	3.57630E+000	9	...........
	20	0.28	5.07189E-001	-3.98726E-004	0.00000E+000	-2.02229E-004	-2.40040E-001	5.07414E-001	3.57630E+000	9	...........
	21	0.293333	4.99425E-001	-3.99924E-004	0.00000E+000	-1.99732E-004	-2.40040E-001	4.99640E-001	3.57630E+000	9	...........
	22	0.306667	4.91724E-001	-3.98547E-004	0.00000E+000	-1.95975E-004	-2.40040E-001	4.91919E-001	3.57630E+000	9	...........
	23	0.32	4.84272E-001	-3.99491E-004	0.00000E+000	-1.93462E-004	-2.40040E-001	4.84379E-001	3.57630E+000	9	...........
	24	0.333333	4.76841E-001	-3.98513E-004	0.00000E+000	-1.90027E-004	-2.40040E-001	4.76931E-001	3.57630E+000	9	...........
	25	0.346667	4.69277E-001	-3.97521E-004	0.00000E+000	-1.86547E-004	-2.40040E-001	4.69369E-001	3.57630E+000	9	...........
	26	0.36	4.61731E-001	-3.98927E-004	0.00000E+000	-1.84197E-004	-2.40040E-001	4.61822E-001	3.57630E+000	9	...........
	27	0.373333	4.54315E-001	-3.98430E-004	0.00000E+000	-1.81013E-004	-2.40040E-001	4.54403E-001	3.57630E+000	9	...........
	28	0.386667	4.46873E-001	-3.98056E-004	0.00000E+000	-1.77881E-004	-2.40040E-001	4.46966E-001	3.57630E+000	9	...........
	29	0.4	4.39528E-001	-3.99318E-004	0.00000E+000	-1.75511E-004	-2.40040E-001	4.39610E-001	3.57630E+000	9	...........
	30	0.413333	4.32111E-001	-3.99629E-004	0.00000E+000	-1.72684E-004	-2.40040E-001	4.32194E-001	3.57630E+000	9	...........
	31	0.426667	4.24769E-001	-3.99143E-004	0.00000E+000	-1.69543E-004	-2.40040E-001	4.24854E-001	3.57630E+000	9	...........
	32	0.44	4.17493E-001	-3.99476E-004	0.00000E+000	-1.66779E-004	-2.40040E-001	4.17576E-001	3.57630E+000	9	...........
	33	0.453333	4.10276E-001	-3.99080E-004	0.00000E+000	-1.63733E-004	-2.40040E-001	4.10359E-001	3.57630E+000	9	...........
	34	0.466667	4.03136E-001	-3.97821E-004	0.00000E+000	-1.60376E-004	-2.40040E-001	4.03210E-001	3.57630E+000	9	...........
	35	0.48	3.95981E-001	-3.98277E-004	0.00000E+000	-1.57710E-004	-2.40040E-001	3.96050E-001	3.57630E+000	9	...........
	36	0.493333	3.88910E-001	-3.99230E-004	0.00000E+000	-1.55265E-004	-2.40040E-001	3.88981E-001	3.57630E+000	9	...........
	37	0.506667	3.81854E-001	-3.97724E-004	0.00000E+000	-1.51872E-004	-2.40040E-001	3.81920E-001	3.57630E+000	9	...........
	38	0.52	3.74858E-001	-3.99535E-004	0.00000E+000	-1.49769E-004	-2.40040E-001	3.74931E-001	3.57630E+000	9	...........
	39	0.533333	3.67966E-001	-3.98444E-004	0.00000E+000	-1.46614E-004	-2.40040E-001	3.68031E-001	3.57630E+000	9	...........
	40	0.546667	3.61047E-001	-3.98358E-004	0.00000E+000	-1.43826E-004	-2.40040E-001	3.61118E-001	3.57630E+000	9	...........
	41	0.56	3.54110E-001	-3.97727E-004	0.00000E+000	-1.40839E-004	-2.40040E-001	3.54181E-001	3.57630E+000	9	...........
	42	0.573333	3.47299E-001	-3.97934E-004	0.00000E+000	-1.38202E-004	-2.40040E-001	3.47370E-001	3.57630E+000	9	...........
	43	0.586667	3.40511E-001	-3.99200E-004	0.00000E+000	-1.35932E-004	-2.40040E-001	3.40576E-001	3.57630E+000	9	...........
	44	0.6	3.33775E-001	-3.98429E-004	0.00000E+000	-1.32986E-004	-2.40040E-001	3.33840E-001	3.57630E+000	9	...........
	45	0.613333	3.27138E-001	-3.99561E-004	0.00000E+000	-1.30711E-004	-2.40040E-001	3.27195E-001	3.57630E+000	9	...........
	46	0.626667	3.20494E-001	-3.98999E-004	0.00000E+000	-1.27877E-004	-2.40040E-001	3.20557E-001	3.57630E+000	9	...........
	47	0.64	3.13860E-001	-3.98507E-004	0.00000E+000	-1.25075E-004	-2.40040E-001	3.13916E-001	3.57630E+000	9	...........
	48	0.653333	3.07317E-001	-3.98997E-004	0.00000E+000	-1.22619E-004	-2.40040E-001	3.07377E-001	3.57630E+000	9	...........
	49	0.666667	3.00768E-001	-3.99054E-004	0.00000E+000	-1.20023E-004	-2.40040E-001	3.00822E-001	3.57630E+000	9	...........
	50	0.68	2.94288E-001	-3.99172E-004	0.00000E+000	-1.17471E-004	-2.40040E-001	2.94343E-001	3.57630E+000	9	...........
	51	0.693333	2.87861E-001	-3.98452E-004	0.00000E+000	-1.14699E-004	-2.40040E-001	2.87909E-001	3.57630E+000	9	...........
	52	0.706667	2.81371E-001	-3.98947E-004	0.00000E+000	-1.12252E-004	-2.40040E-001	2.81427E-001	3.57630E+000	9	...........
	53	0.72	2.75035E-001	-3.97531E-004	0.00000E+000	-1.09335E-004	-2.40040E-001	2.75089E-001	3.57630E+000	9	...........
	54	0.733333	2.68690E-001	-3.99551E-004	0.00000E+000	-1.07355E-004	-2.40040E-001	2.68742E-001	3.57630E+000	9	...........
	55	0.746667	2.62311E-001	-4.00433E-004	0.00000E+000	-1.05038E-004	-2.40040E-001	2.62364E-001	3.57630E+000	9	...........
	56	0.76	2.55994E-001	-3.98870E-004	0.00000E+000	-1.02108E-004	-2.40040E-001	2.56045E-001	3.57630E+000	9	...........
	57	0.773333	2.49860E-001	-3.98689E-004	0.00000E+000	-9.96161E-005	-2.40040E-001	2.49905E-001	3.57630E+000	9	...........
	58	0.786667	2.43756E-001	-3.98084E-004	0.00000E+000	-9.70355E-005	-2.40040E-001	2.43797E-001	3.57665E+000	9	...........
	59	0.8	2.37587E-001	-3.99660E-004	0.00000E+000	-9.49540E-005	-2.40040E-001	2.37628E-001	3.57770E+000	9	...........
	60	0.813333	2.31522E-001	-3.98802E-004	0.00000E+000	-9.23313E-005	-2.40040E-001	2.31558E-001	3.57770E+000	9	...........
	61	0.826667	2.25504E-001	-3.99953E-004	0.00000E+000	-9.01912E-005	-2.40040E-001	2.25538E-001	3.57770E+000	9	...........
	62	0.84	2.19466E-001	-3.98630E-004	0.00000E+000	-8.74857E-005	-2.40040E-001	2.19502E-001	3.57770E+000	9	...........
	63	0.853333	2.13540E-001	-3.98824E-004	0.00000E+000	-8.51647E-005	-2.40040E-001	2.13578E-001	3.57770E+000	9	...........
	64	0.866667	2.07715E-001	-3.99082E-004	0.00000E+000	-8.28954E-005	-2.40040E-001	2.07747E-001	3.57770E+000	9	...........
	65	0.88	2.01870E-001	-3.99392E-004	0.00000E+000	-8.06254E-005	-2.40040E-001	2.01902E-001	3.57770E+000	9	...........
	66	0.893333	1.95943E-001	-3.97630E-004	0.00000E+000	-7.79128E-005	-2.40040E-001	1.95977E-001	3.57770E+000	9	...........
	67	0.906667	1.90162E-001	-3.97719E-004	0.00000E+000	-7.56308E-005	-2.40040E-001	1.90192E-001	3.57770E+000	9	...........
	68	0.92	1.84414E-001	-3.98667E-004	0.00000E+000	-7.35198E-005	-2.40040E-001	1.84448E-001	3.57770E+000	9	...........
	69	0.933333	1.78690E-001	-3.98879E-004	0.00000E+000	-7.12757E-005	-2.40040E-001	1.78716E-001	3.57770E+000	9	...........
	70	0.946667	1.73019E-001	-3.98834E-004	0.00000E+000	-6.90059E-005	-2.40040E-001	1.73051E-001	3.57770E+000	9	...........
	71	0.96	1.67358E-001	-3.98658E-004	0.00000E+000	-6.67186E-005	-2.40040E-001	1.67391E-001	3.57770E+000	9	...........
	72	0.97333	1.61804E-001	-3.98198E-004	0.00000E+000	-6.44301E-005	-2.40040E-001	1.61832E-001	3.57770E+000	9	...........
	73	0.98667	1.56216E-001	-3.98899E-004	0.00000E+000	-6.23144E-005	-2.40040E-001	1.56242E-001	3.57770E+000	9	...........
	74	1	1.50693E-001	-3.98756E-004	0.00000E+000	-6.00899E-005	-2.40040E-001	1.50718E-001	3.57770E+000	9	...........
	75	1.01333	1.45208E-001	-3.99472E-004	0.00000E+000	-5.80064E-005	-2.40040E-001	1.45231E-001	3.57770E+000	9	...........
	76	1.02667	1.39653E-001	-3.97907E-004	0.00000E+000	-5.55691E-005	-2.40040E-001	1.39677E-001	3.57770E+000	9	...........
	77	1.04	1.34296E-001	-3.98238E-004	0.00000E+000	-5.34818E-005	-2.40040E-001	1.34319E-001	3.57770E+000	9	...........
	78	1.05333	1.28921E-001	-3.99148E-004	0.00000E+000	-5.14584E-005	-2.40040E-001	1.28940E-001	3.57770E+000	9	...........
	79	1.06667	1.23570E-001	-3.97285E-004	0.00000E+000	-4.90926E-005	-2.40040E-001	1.23588E-001	3.57770E+000	9	...........
	80	1.08	1.18161E-001	-3.98985E-004	0.00000E+000	-4.71444E-005	-2.40040E-001	1.18185E-001	3.57770E+000	9	...........
	81	1.09333	1.12888E-001	-3.98304E-004	0.00000E+000	-4.49639E-005	-2.40040E-001	1.12905E-001	3.57770E+000	9	...........
	82	1.10667	1.07610E-001	-3.97717E-004	0.00000E+000	-4.27982E-005	-2.40040E-001	1.07626E-001	3.57770E+000	9	...........
	83	1.12	1.02381E-001	-4.00049E-004	0.00000E+000	-4.09576E-005	-2.40040E-001	1.02391E-001	3.57770E+000	9	...........
	84	1.13333	9.73447E-002	-3.97933E-004	0.00000E+000	-3.87367E-005	-2.40040E-001	9.73573E-002	3.57770E+000	9	...........
	85	1.14667	9.22352E-002	-3.97528E-004	0.00000E+000	-3.66661E-005	-2.40040E-001	9.22379E-002	3.57770E+000	9	...........
	86	1.16	8.71390E-002	-3.98012E-004	0.00000E+000	-3.46824E-005	-2.40040E-001	8.71537E-002	3.57770E+000	9	...........
	87	1.17333	8.20329E-002	-3.99434E-004	0.00000E+000	-3.27668E-005	-2.40040E-001	8.20397E-002	3.57770E+000	9	...........
	88	1.18667	7.69747E-002	-3.97947E-004	0.00000E+000	-3.06318E-005	-2.40040E-001	7.69818E-002	3.57770E+000	9	...........
	89	1.2	7.19347E-002	-3.99100E-004	0.00000E+000	-2.87091E-005	-2.40040E-001	7.19459E-002	3.57770E+000	9	...........
	90	1.21333	6.69983E-002	-3.98920E-004	0.00000E+000	-2.67270E-005	-2.40040E-001	6.70035E-002	3.57770E+000	9	...........
	91	1.22667	6.20453E-002	-3.98186E-004	0.00000E+000	-2.47056E-005	-2.40040E-001	6.20536E-002	3.57770E+000	9	...........
	92	1.24	5.71716E-002	-3.98382E-004	0.00000E+000	-2.27761E-005	-2.40040E-001	5.71772E-002	3.57770E+000	9	...........
	93	1.25333	5.23707E-002	-3.99599E-004	0.00000E+000	-2.09273E-005	-2.40040E-001	5.23729E-002	3.57770E+000	9	...........
	94	1.26667	4.75057E-002	-3.98836E-004	0.00000E+000	-1.89470E-005	-2.40040E-001	4.75129E-002	3.57770E+000	9	...........
	95	1.28	4.27036E-002	-4.00134E-004	0.00000E+000	-1.70871E-005	-2.40040E-001	4.27060E-002	3.57770E+000	9	...........
	96	1.29333	3.78708E-002	-3.99117E-004	0.00000E+000	-1.51149E-005	-2.40040E-001	3.78786E-002	3.57770E+000	9	...........
	97	1.30667	3.31487E-002	-3.97801E-004	0.00000E+000	-1.31866E-005	-2.40040E-001	3.31420E-002	3.57770E+000	9	...........
	98	1.32	2.84133E-002	-3.98602E-004	0.00000E+000	-1.13256E-005	-2.40040E-001	2.84097E-002	3.57770E+000	9	...........
	99	1.33333	2.37180E-002	-3.97637E-004	0.00000E+000	-9.43116E-006	-2.40040E-001	2.37101E-002	3.57770E+000	9	...........
	100	1.34667	1.90956E-002	-3.99238E-004	0.00000E+000	-7.62370E-006	-2.40040E-001	1.90847E-002	3.57770E+000	9	...........
	101	1.36	1.44318E-002	-3.97775E-004	0.00000E+000	-5.74062E-006	-2.40040E-001	1.44152E-002	3.57770E+000	9	...........
	102	1.37333	9.80666E-003	-3.98495E-004	0.00000E+000	-3.90790E-006	-2.40040E-001	9.78606E-003	3.57770E+000	9	...........
	103	1.38667	5.20929E-003	-3.97949E-004	0.00000E+000	-2.07303E-006	-2.40040E-001	5.19376E-003	3.57770E+000	9	...........
	104	1.39667	1.25340E-003	-3.99101E-004	0.00000E+000	-5.00232E-007	-2.40040E-001	1.23356E-003	3.57770E+000	9	...........
STARTTIMEOFFSET	QUANT	2510.405	Start Time Offset (s)
