EXPLAIN
TAG	PWR800_DISCHARGE
TITLE	LABEL	PWR Cyclic Charge Discharge (Cell) - Discharge Step	Test &Identifier
DATE	LABEL	12-7-2017	Date
TIME	LABEL	15:23:34	Time
NOTES	NOTES	3	&Notes...
	supercap test cell
	0.4mg
	6M KOH
PSTAT	PSTAT	IFC5000-01520	Potentiostat
CAPACITY	QUANT	1.00000E-003	Capacity (A-hr)
CELLTYPE	SELECTOR	1	&Cell Type
WORKINGCONNECTION	SELECTOR	0	&Working Lead
MAXDISCHARGETIME	VARIABLEANDUNITS	1.00000E+002	s	1.00000E+002	second(s)	Max &Discharge Time
DISCHARGEMODE	MULTIPARAM	0	4.00000E-004	&Discharge Mode	Constant Current	Amp(s)
SAMPLETIME	QUANT	1.00000E-002	Sa&mple Period (s)
DISCHARGESTOPAT1	MULTIPARAM	3	0.00000E+000	Discharge Stop At &1	Voltage < Limit	V
DISCHARGESTOPAT2	MULTIPARAM	0	0.00000E+000	Discharge Stop At &2	None	N/A
AESBHCSELECTOR	TOGGLE	F	Save Both Half Cells
IRCOMP	TOGGLE	F	IR &Measure
EOC	QUANT	0	Open Circuit (V)
SEQUENCER	TOGGLE	TRUE	Run as Sequence
PSTATMODEL	IQUANT	53	Pstat Model
PSTATSECTION	LABEL	IFC5000-01520	Pstat Section
PSTATSERIALNO	LABEL	01520	Pstat Serial Number
CTRLMODE	IQUANT	0	Control Mode
ELECTROMETER	IQUANT	1	RE=0 or CS=1
IESTAB	IQUANT	0	I/E Stability
CASPEED	IQUANT	4	Control Amp Speed
CONVENTION	IQUANT	1	Current Convention
ICHRANGE	IQUANT	2	Ich Range
ICHRANGEMODE	TOGGLE	T	Ich Auto Range
ICHOFFSETENABLE	TOGGLE	F	Ich Offset Enable
ICHOFFSET	QUANT	0	Ich Offset (V)
ICHFILTER	IQUANT	1	Ich Filter
VCHRANGE	IQUANT	2	Vch Range
VCHRANGEMODE	TOGGLE	T	Vch Auto Range
VCHOFFSETENABLE	TOGGLE	F	Vch Offset Enable
VCHOFFSET	QUANT	0	Vch Offset (V)
VCHFILTER	IQUANT	1	Vch Filter
IERANGELOWERLIMIT	IQUANT	9	I/E Range Lower Limit
IERANGEMODE	TOGGLE	F	I/E AutoRange
IERANGE	IQUANT	9	I/E Range
ACHSELECT	IQUANT	1	Ach Select
ACHRANGE	IQUANT	2	Ach Range
ACHOFFSETENABLE	TOGGLE	F	Ach Offset Enable
ACHOFFSET	QUANT	0	Ach Offset (V)
ACHFILTER	IQUANT	1	Ach Filter
CABLEID	IQUANT	14	Cable ID
DCCALDATE	LABEL	5-7-2017	DC Calibration Date
ACCALDATE	LABEL	12/3/2015	AC Calibration Date
FRAMEWORKVERSION	QUANT	7.01	Framework Version
INSTRUMENTVERSION	LABEL	4.00	Instrument Version
CURVE	TABLE	101
	Pt	T	Vf	Im	Vu	Pwr	Sig	Ach	Temp	IERange	Over
	#	s	V	A	V	W	V	V	deg C	#	bits
	0	0.013333	6.81194E-001	-3.98149E-004	0.00000E+000	-2.71217E-004	-2.40040E-001	6.81435E-001	3.57780E+000	9	...........
	1	0.026667	6.67207E-001	-3.98218E-004	0.00000E+000	-2.65693E-004	-2.40040E-001	6.67462E-001	3.57780E+000	9	...........
	2	0.04	6.55018E-001	-3.99244E-004	0.00000E+000	-2.61512E-004	-2.40040E-001	6.55262E-001	3.57780E+000	9	...........
	3	0.053333	6.44023E-001	-3.98767E-004	0.00000E+000	-2.56815E-004	-2.40040E-001	6.44266E-001	3.57780E+000	9	...........
	4	0.066667	6.33751E-001	-3.98302E-004	0.00000E+000	-2.52424E-004	-2.40040E-001	6.33973E-001	3.57780E+000	9	...........
	5	0.08	6.23903E-001	-3.99052E-004	0.00000E+000	-2.48970E-004	-2.40040E-001	6.24118E-001	3.57780E+000	9	...........
	6	0.093333	6.14318E-001	-3.99527E-004	0.00000E+000	-2.45437E-004	-2.40040E-001	6.14568E-001	3.57780E+000	9	...........
	7	0.106667	6.05035E-001	-4.00021E-004	0.00000E+000	-2.42027E-004	-2.40040E-001	6.05291E-001	3.57780E+000	9	...........
	8	0.12	5.96008E-001	-3.99471E-004	0.00000E+000	-2.38088E-004	-2.40040E-001	5.96256E-001	3.57780E+000	9	...........
	9	0.133333	5.87121E-001	-3.98580E-004	0.00000E+000	-2.34015E-004	-2.40040E-001	5.87345E-001	3.57780E+000	9	...........
	10	0.146667	5.78445E-001	-3.99079E-004	0.00000E+000	-2.30845E-004	-2.40040E-001	5.78691E-001	3.57780E+000	9	...........
	11	0.16	5.69816E-001	-3.98243E-004	0.00000E+000	-2.26925E-004	-2.40040E-001	5.70032E-001	3.57780E+000	9	...........
	12	0.173333	5.61350E-001	-3.98742E-004	0.00000E+000	-2.23834E-004	-2.40040E-001	5.61584E-001	3.57780E+000	9	...........
	13	0.186667	5.52950E-001	-3.99245E-004	0.00000E+000	-2.20762E-004	-2.40040E-001	5.53167E-001	3.57780E+000	9	...........
	14	0.2	5.44608E-001	-3.98436E-004	0.00000E+000	-2.16992E-004	-2.40040E-001	5.44826E-001	3.57765E+000	9	...........
	15	0.213333	5.36385E-001	-3.98972E-004	0.00000E+000	-2.14002E-004	-2.40040E-001	5.36595E-001	3.57740E+000	9	...........
	16	0.226667	5.28152E-001	-3.98580E-004	0.00000E+000	-2.10511E-004	-2.40040E-001	5.28381E-001	3.57740E+000	9	...........
	17	0.24	5.19996E-001	-3.99043E-004	0.00000E+000	-2.07501E-004	-2.40040E-001	5.20182E-001	3.57740E+000	9	...........
	18	0.253333	5.11909E-001	-3.97659E-004	0.00000E+000	-2.03565E-004	-2.40040E-001	5.12116E-001	3.57740E+000	9	...........
	19	0.266667	5.03831E-001	-3.99019E-004	0.00000E+000	-2.01038E-004	-2.40040E-001	5.04075E-001	3.57740E+000	9	...........
	20	0.28	4.95942E-001	-3.99766E-004	0.00000E+000	-1.98261E-004	-2.40040E-001	4.96155E-001	3.57740E+000	9	...........
	21	0.293333	4.88092E-001	-3.96915E-004	0.00000E+000	-1.93731E-004	-2.40040E-001	4.88268E-001	3.57740E+000	9	...........
	22	0.306667	4.80418E-001	-3.98209E-004	0.00000E+000	-1.91307E-004	-2.40040E-001	4.80517E-001	3.57740E+000	9	...........
	23	0.32	4.72610E-001	-3.98461E-004	0.00000E+000	-1.88317E-004	-2.40040E-001	4.72707E-001	3.57740E+000	9	...........
	24	0.333333	4.64808E-001	-3.97592E-004	0.00000E+000	-1.84804E-004	-2.40040E-001	4.64899E-001	3.57740E+000	9	...........
	25	0.346667	4.56997E-001	-3.98646E-004	0.00000E+000	-1.82180E-004	-2.40040E-001	4.57089E-001	3.57740E+000	9	...........
	26	0.36	4.49272E-001	-3.99419E-004	0.00000E+000	-1.79448E-004	-2.40040E-001	4.49367E-001	3.57740E+000	9	...........
	27	0.373333	4.41609E-001	-3.99264E-004	0.00000E+000	-1.76319E-004	-2.40040E-001	4.41698E-001	3.57740E+000	9	...........
	28	0.386667	4.33951E-001	-3.97823E-004	0.00000E+000	-1.72635E-004	-2.40040E-001	4.34041E-001	3.57740E+000	9	...........
	29	0.4	4.26318E-001	-3.99118E-004	0.00000E+000	-1.70151E-004	-2.40040E-001	4.26406E-001	3.57740E+000	9	...........
	30	0.413333	4.18827E-001	-3.99752E-004	0.00000E+000	-1.67427E-004	-2.40040E-001	4.18915E-001	3.57740E+000	9	...........
	31	0.426667	4.11406E-001	-3.97684E-004	0.00000E+000	-1.63609E-004	-2.40040E-001	4.11492E-001	3.57740E+000	9	...........
	32	0.44	4.03949E-001	-3.97624E-004	0.00000E+000	-1.60620E-004	-2.40040E-001	4.04032E-001	3.57740E+000	9	...........
	33	0.453333	3.96601E-001	-3.98138E-004	0.00000E+000	-1.57902E-004	-2.40040E-001	3.96680E-001	3.57740E+000	9	...........
	34	0.466667	3.89306E-001	-3.99650E-004	0.00000E+000	-1.55586E-004	-2.40040E-001	3.89381E-001	3.57740E+000	9	...........
	35	0.48	3.82006E-001	-3.98359E-004	0.00000E+000	-1.52176E-004	-2.40040E-001	3.82084E-001	3.57740E+000	9	...........
	36	0.493333	3.74690E-001	-3.97587E-004	0.00000E+000	-1.48972E-004	-2.40040E-001	3.74765E-001	3.57740E+000	9	...........
	37	0.506667	3.67393E-001	-3.98846E-004	0.00000E+000	-1.46533E-004	-2.40040E-001	3.67464E-001	3.57740E+000	9	...........
	38	0.52	3.60265E-001	-3.99039E-004	0.00000E+000	-1.43760E-004	-2.40040E-001	3.60339E-001	3.57740E+000	9	...........
	39	0.533333	3.53187E-001	-3.98711E-004	0.00000E+000	-1.40820E-004	-2.40040E-001	3.53257E-001	3.57740E+000	9	...........
	40	0.546667	3.46144E-001	-3.98130E-004	0.00000E+000	-1.37810E-004	-2.40040E-001	3.46211E-001	3.57740E+000	9	...........
	41	0.56	3.39132E-001	-3.98033E-004	0.00000E+000	-1.34986E-004	-2.40040E-001	3.39201E-001	3.57740E+000	9	...........
	42	0.573333	3.32102E-001	-3.98572E-004	0.00000E+000	-1.32367E-004	-2.40040E-001	3.32161E-001	3.57740E+000	9	...........
	43	0.586667	3.25204E-001	-3.98909E-004	0.00000E+000	-1.29727E-004	-2.40040E-001	3.25268E-001	3.57740E+000	9	...........
	44	0.6	3.18263E-001	-4.00782E-004	0.00000E+000	-1.27554E-004	-2.40040E-001	3.18331E-001	3.57740E+000	9	...........
	45	0.613333	3.11326E-001	-3.99334E-004	0.00000E+000	-1.24323E-004	-2.40040E-001	3.11391E-001	3.57740E+000	9	...........
	46	0.626667	3.04547E-001	-3.98119E-004	0.00000E+000	-1.21246E-004	-2.40040E-001	3.04612E-001	3.57740E+000	9	...........
	47	0.64	2.97801E-001	-3.97770E-004	0.00000E+000	-1.18456E-004	-2.40040E-001	2.97857E-001	3.57740E+000	9	...........
	48	0.653333	2.91146E-001	-3.98076E-004	0.00000E+000	-1.15898E-004	-2.40040E-001	2.91206E-001	3.57740E+000	9	...........
	49	0.666667	2.84425E-001	-3.99046E-004	0.00000E+000	-1.13498E-004	-2.40040E-001	2.84483E-001	3.57740E+000	9	...........
	50	0.68	2.77805E-001	-3.98508E-004	0.00000E+000	-1.10707E-004	-2.40040E-001	2.77858E-001	3.57740E+000	9	...........
	51	0.693333	2.71280E-001	-3.98887E-004	0.00000E+000	-1.08210E-004	-2.40040E-001	2.71339E-001	3.57740E+000	9	...........
	52	0.706667	2.64748E-001	-3.97951E-004	0.00000E+000	-1.05357E-004	-2.40040E-001	2.64802E-001	3.57740E+000	9	...........
	53	0.72	2.58251E-001	-3.98240E-004	0.00000E+000	-1.02846E-004	-2.40040E-001	2.58304E-001	3.57740E+000	9	...........
	54	0.733333	2.51820E-001	-3.98465E-004	0.00000E+000	-1.00341E-004	-2.40040E-001	2.51871E-001	3.57740E+000	9	...........
	55	0.746667	2.45394E-001	-3.98177E-004	0.00000E+000	-9.77101E-005	-2.40040E-001	2.45444E-001	3.57740E+000	9	...........
	56	0.76	2.39030E-001	-3.98745E-004	0.00000E+000	-9.53119E-005	-2.40040E-001	2.39073E-001	3.57740E+000	9	...........
	57	0.773333	2.32786E-001	-3.99208E-004	0.00000E+000	-9.29303E-005	-2.40040E-001	2.32834E-001	3.57740E+000	9	...........
	58	0.786667	2.26592E-001	-3.99362E-004	0.00000E+000	-9.04920E-005	-2.40040E-001	2.26636E-001	3.57740E+000	9	...........
	59	0.8	2.20419E-001	-3.98100E-004	0.00000E+000	-8.77490E-005	-2.40040E-001	2.20461E-001	3.57740E+000	9	...........
	60	0.813333	2.14321E-001	-3.98879E-004	0.00000E+000	-8.54882E-005	-2.40040E-001	2.14362E-001	3.57740E+000	9	...........
	61	0.826667	2.08219E-001	-4.00126E-004	0.00000E+000	-8.33137E-005	-2.40040E-001	2.08258E-001	3.57740E+000	9	...........
	62	0.84	2.02192E-001	-3.98312E-004	0.00000E+000	-8.05358E-005	-2.40040E-001	2.02231E-001	3.57740E+000	9	...........
	63	0.853333	1.96195E-001	-3.98438E-004	0.00000E+000	-7.81718E-005	-2.40040E-001	1.96230E-001	3.57740E+000	9	...........
	64	0.866667	1.90239E-001	-4.00517E-004	0.00000E+000	-7.61939E-005	-2.40040E-001	1.90276E-001	3.57740E+000	9	...........
	65	0.88	1.84327E-001	-3.97865E-004	0.00000E+000	-7.33375E-005	-2.40040E-001	1.84364E-001	3.57740E+000	9	...........
	66	0.893333	1.78425E-001	-3.99564E-004	0.00000E+000	-7.12923E-005	-2.40040E-001	1.78458E-001	3.57740E+000	9	...........
	67	0.906667	1.72557E-001	-3.98815E-004	0.00000E+000	-6.88183E-005	-2.40040E-001	1.72593E-001	3.57740E+000	9	...........
	68	0.92	1.66699E-001	-3.99595E-004	0.00000E+000	-6.66119E-005	-2.40040E-001	1.66726E-001	3.57740E+000	9	...........
	69	0.933333	1.60908E-001	-3.99171E-004	0.00000E+000	-6.42298E-005	-2.40040E-001	1.60935E-001	3.57740E+000	9	...........
	70	0.946667	1.55200E-001	-3.98353E-004	0.00000E+000	-6.18244E-005	-2.40040E-001	1.55225E-001	3.57740E+000	9	...........
	71	0.96	1.49476E-001	-3.99253E-004	0.00000E+000	-5.96787E-005	-2.40040E-001	1.49502E-001	3.57740E+000	9	...........
	72	0.97333	1.43867E-001	-3.99861E-004	0.00000E+000	-5.75267E-005	-2.40040E-001	1.43887E-001	3.57740E+000	9	...........
	73	0.98667	1.38254E-001	-3.99627E-004	0.00000E+000	-5.52501E-005	-2.40040E-001	1.38276E-001	3.57740E+000	9	...........
	74	1	1.32709E-001	-3.97852E-004	0.00000E+000	-5.27983E-005	-2.40040E-001	1.32731E-001	3.57740E+000	9	...........
	75	1.01333	1.27191E-001	-3.98873E-004	0.00000E+000	-5.07332E-005	-2.40040E-001	1.27212E-001	3.57740E+000	9	...........
	76	1.02667	1.21691E-001	-3.99717E-004	0.00000E+000	-4.86420E-005	-2.40040E-001	1.21711E-001	3.57740E+000	9	...........
	77	1.04	1.16249E-001	-3.98263E-004	0.00000E+000	-4.62979E-005	-2.40040E-001	1.16274E-001	3.57740E+000	9	...........
	78	1.05333	1.10889E-001	-3.98801E-004	0.00000E+000	-4.42226E-005	-2.40040E-001	1.10904E-001	3.57740E+000	9	...........
	79	1.06667	1.05572E-001	-3.98583E-004	0.00000E+000	-4.20791E-005	-2.40040E-001	1.05593E-001	3.57740E+000	9	...........
	80	1.08	1.00258E-001	-3.98683E-004	0.00000E+000	-3.99713E-005	-2.40040E-001	1.00279E-001	3.57740E+000	9	...........
	81	1.09333	9.49177E-002	-3.97931E-004	0.00000E+000	-3.77707E-005	-2.40040E-001	9.49311E-002	3.57740E+000	9	...........
	82	1.10667	8.96880E-002	-3.99106E-004	0.00000E+000	-3.57951E-005	-2.40040E-001	8.97072E-002	3.57740E+000	9	...........
	83	1.12	8.45032E-002	-3.97641E-004	0.00000E+000	-3.36020E-005	-2.40040E-001	8.45202E-002	3.57740E+000	9	...........
	84	1.13333	7.93073E-002	-3.99176E-004	0.00000E+000	-3.16576E-005	-2.40040E-001	7.93247E-002	3.57740E+000	9	...........
	85	1.14667	7.41055E-002	-3.97964E-004	0.00000E+000	-2.94914E-005	-2.40040E-001	7.41179E-002	3.57740E+000	9	...........
	86	1.16	6.90255E-002	-3.99400E-004	0.00000E+000	-2.75688E-005	-2.40040E-001	6.90326E-002	3.57740E+000	9	...........
	87	1.17333	6.40081E-002	-3.98803E-004	0.00000E+000	-2.55266E-005	-2.40040E-001	6.40155E-002	3.57740E+000	9	...........
	88	1.18667	5.89267E-002	-3.98437E-004	0.00000E+000	-2.34786E-005	-2.40040E-001	5.89345E-002	3.57740E+000	9	...........
	89	1.2	5.38574E-002	-3.98700E-004	0.00000E+000	-2.14729E-005	-2.40040E-001	5.38588E-002	3.57714E+000	9	...........
	90	1.21333	4.89153E-002	-3.98984E-004	0.00000E+000	-1.95164E-005	-2.40040E-001	4.89126E-002	3.57670E+000	9	...........
	91	1.22667	4.40359E-002	-3.97260E-004	0.00000E+000	-1.74937E-005	-2.40040E-001	4.40451E-002	3.57670E+000	9	...........
	92	1.24	3.90597E-002	-3.99067E-004	0.00000E+000	-1.55874E-005	-2.40040E-001	3.90653E-002	3.57670E+000	9	...........
	93	1.25333	3.41176E-002	-3.98479E-004	0.00000E+000	-1.35952E-005	-2.40040E-001	3.41208E-002	3.57670E+000	9	...........
	94	1.26667	2.91952E-002	-3.98611E-004	0.00000E+000	-1.16375E-005	-2.40040E-001	2.91925E-002	3.57670E+000	9	...........
	95	1.28	2.43554E-002	-3.98582E-004	0.00000E+000	-9.70762E-006	-2.40040E-001	2.43510E-002	3.57670E+000	9	...........
	96	1.29333	1.95953E-002	-3.99969E-004	0.00000E+000	-7.83750E-006	-2.40040E-001	1.95870E-002	3.57670E+000	9	...........
	97	1.30667	1.47838E-002	-3.98552E-004	0.00000E+000	-5.89213E-006	-2.40040E-001	1.47760E-002	3.57670E+000	9	...........
	98	1.32	1.00503E-002	-3.99469E-004	0.00000E+000	-4.01478E-006	-2.40040E-001	1.00316E-002	3.57670E+000	9	...........
	99	1.33333	5.34885E-003	-3.97584E-004	0.00000E+000	-2.12662E-006	-2.40040E-001	5.33163E-003	3.57670E+000	9	...........
	100	1.34333	1.31241E-003	-3.98534E-004	0.00000E+000	-5.23041E-007	-2.40040E-001	1.29351E-003	3.57670E+000	9	...........
STARTTIMEOFFSET	QUANT	3073.233	Start Time Offset (s)
