EXPLAIN
TAG	PWR800_DISCHARGE
TITLE	LABEL	PWR Cyclic Charge Discharge (Cell) - Discharge Step	Test &Identifier
DATE	LABEL	12-7-2017	Date
TIME	LABEL	14:58:03	Time
NOTES	NOTES	3	&Notes...
	supercap test cell
	0.4mg
	6M KOH
PSTAT	PSTAT	IFC5000-01520	Potentiostat
CAPACITY	QUANT	1.00000E-003	Capacity (A-hr)
CELLTYPE	SELECTOR	1	&Cell Type
WORKINGCONNECTION	SELECTOR	0	&Working Lead
MAXDISCHARGETIME	VARIABLEANDUNITS	1.00000E+002	s	1.00000E+002	second(s)	Max &Discharge Time
DISCHARGEMODE	MULTIPARAM	0	4.00000E-004	&Discharge Mode	Constant Current	Amp(s)
SAMPLETIME	QUANT	1.00000E-002	Sa&mple Period (s)
DISCHARGESTOPAT1	MULTIPARAM	3	0.00000E+000	Discharge Stop At &1	Voltage < Limit	V
DISCHARGESTOPAT2	MULTIPARAM	0	0.00000E+000	Discharge Stop At &2	None	N/A
AESBHCSELECTOR	TOGGLE	F	Save Both Half Cells
IRCOMP	TOGGLE	F	IR &Measure
EOC	QUANT	0	Open Circuit (V)
SEQUENCER	TOGGLE	TRUE	Run as Sequence
PSTATMODEL	IQUANT	53	Pstat Model
PSTATSECTION	LABEL	IFC5000-01520	Pstat Section
PSTATSERIALNO	LABEL	01520	Pstat Serial Number
CTRLMODE	IQUANT	0	Control Mode
ELECTROMETER	IQUANT	1	RE=0 or CS=1
IESTAB	IQUANT	0	I/E Stability
CASPEED	IQUANT	4	Control Amp Speed
CONVENTION	IQUANT	1	Current Convention
ICHRANGE	IQUANT	2	Ich Range
ICHRANGEMODE	TOGGLE	T	Ich Auto Range
ICHOFFSETENABLE	TOGGLE	F	Ich Offset Enable
ICHOFFSET	QUANT	0	Ich Offset (V)
ICHFILTER	IQUANT	1	Ich Filter
VCHRANGE	IQUANT	2	Vch Range
VCHRANGEMODE	TOGGLE	T	Vch Auto Range
VCHOFFSETENABLE	TOGGLE	F	Vch Offset Enable
VCHOFFSET	QUANT	0	Vch Offset (V)
VCHFILTER	IQUANT	1	Vch Filter
IERANGELOWERLIMIT	IQUANT	9	I/E Range Lower Limit
IERANGEMODE	TOGGLE	F	I/E AutoRange
IERANGE	IQUANT	9	I/E Range
ACHSELECT	IQUANT	1	Ach Select
ACHRANGE	IQUANT	2	Ach Range
ACHOFFSETENABLE	TOGGLE	F	Ach Offset Enable
ACHOFFSET	QUANT	0	Ach Offset (V)
ACHFILTER	IQUANT	1	Ach Filter
CABLEID	IQUANT	14	Cable ID
DCCALDATE	LABEL	5-7-2017	DC Calibration Date
ACCALDATE	LABEL	12/3/2015	AC Calibration Date
FRAMEWORKVERSION	QUANT	7.01	Framework Version
INSTRUMENTVERSION	LABEL	4.00	Instrument Version
CURVE	TABLE	110
	Pt	T	Vf	Im	Vu	Pwr	Sig	Ach	Temp	IERange	Over
	#	s	V	A	V	W	V	V	deg C	#	bits
	0	0.013333	6.95115E-001	-3.99507E-004	0.00000E+000	-2.77703E-004	-2.40040E-001	6.95329E-001	3.57640E+000	9	...........
	1	0.026667	6.82344E-001	-3.98820E-004	0.00000E+000	-2.72132E-004	-2.40040E-001	6.82555E-001	3.57640E+000	9	...........
	2	0.04	6.71153E-001	-3.98205E-004	0.00000E+000	-2.67257E-004	-2.40040E-001	6.71342E-001	3.57640E+000	9	...........
	3	0.053333	6.60938E-001	-3.99967E-004	0.00000E+000	-2.64353E-004	-2.40040E-001	6.61139E-001	3.57640E+000	9	...........
	4	0.066667	6.51318E-001	-3.99827E-004	0.00000E+000	-2.60415E-004	-2.40040E-001	6.51539E-001	3.57640E+000	9	...........
	5	0.08	6.42051E-001	-3.99921E-004	0.00000E+000	-2.56770E-004	-2.40040E-001	6.42272E-001	3.57640E+000	9	...........
	6	0.093333	6.33092E-001	-3.98943E-004	0.00000E+000	-2.52567E-004	-2.40040E-001	6.33272E-001	3.57640E+000	9	...........
	7	0.106667	6.24352E-001	-3.99282E-004	0.00000E+000	-2.49293E-004	-2.40040E-001	6.24528E-001	3.57640E+000	9	...........
	8	0.12	6.15755E-001	-3.98655E-004	0.00000E+000	-2.45474E-004	-2.40040E-001	6.15961E-001	3.57640E+000	9	...........
	9	0.133333	6.07315E-001	-3.99466E-004	0.00000E+000	-2.42601E-004	-2.40040E-001	6.07536E-001	3.57640E+000	9	...........
	10	0.146667	5.99032E-001	-3.98156E-004	0.00000E+000	-2.38508E-004	-2.40040E-001	5.99266E-001	3.57640E+000	9	...........
	11	0.16	5.90845E-001	-3.98188E-004	0.00000E+000	-2.35268E-004	-2.40040E-001	5.91070E-001	3.57640E+000	9	...........
	12	0.173333	5.82732E-001	-3.98948E-004	0.00000E+000	-2.32480E-004	-2.40040E-001	5.82973E-001	3.57640E+000	9	...........
	13	0.186667	5.74766E-001	-3.97831E-004	0.00000E+000	-2.28660E-004	-2.40040E-001	5.74961E-001	3.57640E+000	9	...........
	14	0.2	5.66930E-001	-3.99807E-004	0.00000E+000	-2.26663E-004	-2.40040E-001	5.67109E-001	3.57640E+000	9	...........
	15	0.213333	5.59103E-001	-3.99258E-004	0.00000E+000	-2.23227E-004	-2.40040E-001	5.59311E-001	3.57640E+000	9	...........
	16	0.226667	5.51346E-001	-3.99217E-004	0.00000E+000	-2.20107E-004	-2.40040E-001	5.51527E-001	3.57640E+000	9	...........
	17	0.24	5.43557E-001	-3.99563E-004	0.00000E+000	-2.17185E-004	-2.40040E-001	5.43756E-001	3.57640E+000	9	...........
	18	0.253333	5.35847E-001	-3.98506E-004	0.00000E+000	-2.13538E-004	-2.40040E-001	5.36042E-001	3.57640E+000	9	...........
	19	0.266667	5.28254E-001	-3.97845E-004	0.00000E+000	-2.10163E-004	-2.40040E-001	5.28432E-001	3.57640E+000	9	...........
	20	0.28	5.20686E-001	-3.99140E-004	0.00000E+000	-2.07827E-004	-2.40040E-001	5.20870E-001	3.57640E+000	9	...........
	21	0.293333	5.13157E-001	-3.99018E-004	0.00000E+000	-2.04759E-004	-2.40040E-001	5.13336E-001	3.57640E+000	9	...........
	22	0.306667	5.05622E-001	-3.99531E-004	0.00000E+000	-2.02012E-004	-2.40040E-001	5.05846E-001	3.57640E+000	9	...........
	23	0.32	4.98173E-001	-3.98414E-004	0.00000E+000	-1.98479E-004	-2.40040E-001	4.98359E-001	3.57640E+000	9	...........
	24	0.333333	4.90802E-001	-3.99378E-004	0.00000E+000	-1.96015E-004	-2.40040E-001	4.90971E-001	3.57640E+000	9	...........
	25	0.346667	4.83572E-001	-3.99259E-004	0.00000E+000	-1.93071E-004	-2.40040E-001	4.83690E-001	3.57640E+000	9	...........
	26	0.36	4.76332E-001	-3.99347E-004	0.00000E+000	-1.90222E-004	-2.40040E-001	4.76423E-001	3.57640E+000	9	...........
	27	0.373333	4.69008E-001	-3.98581E-004	0.00000E+000	-1.86938E-004	-2.40040E-001	4.69103E-001	3.57640E+000	9	...........
	28	0.386667	4.61731E-001	-3.98297E-004	0.00000E+000	-1.83906E-004	-2.40040E-001	4.61819E-001	3.57640E+000	9	...........
	29	0.4	4.54559E-001	-3.97781E-004	0.00000E+000	-1.80815E-004	-2.40040E-001	4.54649E-001	3.57640E+000	9	...........
	30	0.413333	4.47392E-001	-3.98001E-004	0.00000E+000	-1.78062E-004	-2.40040E-001	4.47479E-001	3.57640E+000	9	...........
	31	0.426667	4.40263E-001	-3.98067E-004	0.00000E+000	-1.75254E-004	-2.40040E-001	4.40353E-001	3.57640E+000	9	...........
	32	0.44	4.33225E-001	-3.98331E-004	0.00000E+000	-1.72567E-004	-2.40040E-001	4.33316E-001	3.57640E+000	9	...........
	33	0.453333	4.26209E-001	-3.98969E-004	0.00000E+000	-1.70044E-004	-2.40040E-001	4.26298E-001	3.57640E+000	9	...........
	34	0.466667	4.19205E-001	-3.99172E-004	0.00000E+000	-1.67335E-004	-2.40040E-001	4.19291E-001	3.57640E+000	9	...........
	35	0.48	4.12220E-001	-3.98938E-004	0.00000E+000	-1.64450E-004	-2.40040E-001	4.12303E-001	3.57640E+000	9	...........
	36	0.493333	4.05398E-001	-3.98424E-004	0.00000E+000	-1.61520E-004	-2.40040E-001	4.05478E-001	3.57640E+000	9	...........
	37	0.506667	3.98522E-001	-3.98313E-004	0.00000E+000	-1.58737E-004	-2.40040E-001	3.98600E-001	3.57640E+000	9	...........
	38	0.52	3.91662E-001	-3.98438E-004	0.00000E+000	-1.56053E-004	-2.40040E-001	3.91736E-001	3.57640E+000	9	...........
	39	0.533333	3.84819E-001	-3.98801E-004	0.00000E+000	-1.53466E-004	-2.40040E-001	3.84895E-001	3.57640E+000	9	...........
	40	0.546667	3.78065E-001	-3.98146E-004	0.00000E+000	-1.50525E-004	-2.40040E-001	3.78142E-001	3.57640E+000	9	...........
	41	0.56	3.71316E-001	-3.98575E-004	0.00000E+000	-1.47997E-004	-2.40040E-001	3.71385E-001	3.57640E+000	9	...........
	42	0.573333	3.64683E-001	-3.98785E-004	0.00000E+000	-1.45430E-004	-2.40040E-001	3.64750E-001	3.57640E+000	9	...........
	43	0.586667	3.58073E-001	-3.98874E-004	0.00000E+000	-1.42826E-004	-2.40040E-001	3.58146E-001	3.57640E+000	9	...........
	44	0.6	3.51479E-001	-3.98257E-004	0.00000E+000	-1.39979E-004	-2.40040E-001	3.51546E-001	3.57640E+000	9	...........
	45	0.613333	3.44883E-001	-3.97971E-004	0.00000E+000	-1.37253E-004	-2.40040E-001	3.44950E-001	3.57640E+000	9	...........
	46	0.626667	3.38361E-001	-3.98973E-004	0.00000E+000	-1.34997E-004	-2.40040E-001	3.38426E-001	3.57640E+000	9	...........
	47	0.64	3.31838E-001	-3.98599E-004	0.00000E+000	-1.32270E-004	-2.40040E-001	3.31900E-001	3.57640E+000	9	...........
	48	0.653333	3.25433E-001	-3.98607E-004	0.00000E+000	-1.29720E-004	-2.40040E-001	3.25496E-001	3.57640E+000	9	...........
	49	0.666667	3.19099E-001	-3.99597E-004	0.00000E+000	-1.27511E-004	-2.40040E-001	3.19159E-001	3.57640E+000	9	...........
	50	0.68	3.12744E-001	-3.98869E-004	0.00000E+000	-1.24744E-004	-2.40040E-001	3.12806E-001	3.57640E+000	9	...........
	51	0.693333	3.06422E-001	-3.99340E-004	0.00000E+000	-1.22366E-004	-2.40040E-001	3.06481E-001	3.57640E+000	9	...........
	52	0.706667	3.00140E-001	-3.97994E-004	0.00000E+000	-1.19454E-004	-2.40040E-001	3.00198E-001	3.57640E+000	9	...........
	53	0.72	2.93951E-001	-3.97633E-004	0.00000E+000	-1.16885E-004	-2.40040E-001	2.94005E-001	3.57640E+000	9	...........
	54	0.733333	2.87664E-001	-3.99872E-004	0.00000E+000	-1.15029E-004	-2.40040E-001	2.87722E-001	3.57640E+000	9	...........
	55	0.746667	2.81531E-001	-3.98235E-004	0.00000E+000	-1.12116E-004	-2.40040E-001	2.81593E-001	3.57640E+000	9	...........
	56	0.76	2.75381E-001	-3.97631E-004	0.00000E+000	-1.09500E-004	-2.40040E-001	2.75433E-001	3.57640E+000	9	...........
	57	0.773333	2.69329E-001	-3.98816E-004	0.00000E+000	-1.07413E-004	-2.40040E-001	2.69384E-001	3.57640E+000	9	...........
	58	0.786667	2.63291E-001	-3.98376E-004	0.00000E+000	-1.04889E-004	-2.40040E-001	2.63345E-001	3.57640E+000	9	...........
	59	0.8	2.57354E-001	-3.98378E-004	0.00000E+000	-1.02524E-004	-2.40040E-001	2.57409E-001	3.57640E+000	9	...........
	60	0.813333	2.51499E-001	-3.97686E-004	0.00000E+000	-1.00018E-004	-2.40040E-001	2.51553E-001	3.57640E+000	9	...........
	61	0.826667	2.45532E-001	-3.96973E-004	0.00000E+000	-9.74693E-005	-2.40040E-001	2.45582E-001	3.57640E+000	9	...........
	62	0.84	2.39593E-001	-3.98878E-004	0.00000E+000	-9.55685E-005	-2.40040E-001	2.39631E-001	3.57640E+000	9	...........
	63	0.853333	2.33729E-001	-3.97708E-004	0.00000E+000	-9.29559E-005	-2.40040E-001	2.33775E-001	3.57640E+000	9	...........
	64	0.866667	2.27881E-001	-3.98010E-004	0.00000E+000	-9.06990E-005	-2.40040E-001	2.27930E-001	3.57640E+000	9	...........
	65	0.88	2.22092E-001	-3.99107E-004	0.00000E+000	-8.86385E-005	-2.40040E-001	2.22141E-001	3.57640E+000	9	...........
	66	0.893333	2.16315E-001	-4.00187E-004	0.00000E+000	-8.65664E-005	-2.40040E-001	2.16359E-001	3.57640E+000	9	...........
	67	0.906667	2.10569E-001	-3.97637E-004	0.00000E+000	-8.37302E-005	-2.40040E-001	2.10607E-001	3.57640E+000	9	...........
	68	0.92	2.04880E-001	-3.98668E-004	0.00000E+000	-8.16791E-005	-2.40040E-001	2.04919E-001	3.57640E+000	9	...........
	69	0.933333	1.99249E-001	-3.99794E-004	0.00000E+000	-7.96587E-005	-2.40040E-001	1.99285E-001	3.57640E+000	9	...........
	70	0.946667	1.93584E-001	-3.99423E-004	0.00000E+000	-7.73218E-005	-2.40040E-001	1.93619E-001	3.57640E+000	9	...........
	71	0.96	1.88014E-001	-3.97614E-004	0.00000E+000	-7.47570E-005	-2.40040E-001	1.88047E-001	3.57640E+000	9	...........
	72	0.97333	1.82491E-001	-3.98299E-004	0.00000E+000	-7.26859E-005	-2.40040E-001	1.82523E-001	3.57640E+000	9	...........
	73	0.98667	1.76968E-001	-3.98889E-004	0.00000E+000	-7.05905E-005	-2.40040E-001	1.77003E-001	3.57640E+000	9	...........
	74	1	1.71424E-001	-3.97977E-004	0.00000E+000	-6.82228E-005	-2.40040E-001	1.71457E-001	3.57674E+000	9	...........
	75	1.01333	1.65944E-001	-3.98652E-004	0.00000E+000	-6.61538E-005	-2.40040E-001	1.65975E-001	3.57730E+000	9	...........
	76	1.02667	1.60590E-001	-3.98212E-004	0.00000E+000	-6.39490E-005	-2.40040E-001	1.60613E-001	3.57730E+000	9	...........
	77	1.04	1.55193E-001	-3.98513E-004	0.00000E+000	-6.18464E-005	-2.40040E-001	1.55217E-001	3.57730E+000	9	...........
	78	1.05333	1.49903E-001	-3.99547E-004	0.00000E+000	-5.98932E-005	-2.40040E-001	1.49920E-001	3.57730E+000	9	...........
	79	1.06667	1.44695E-001	-3.99206E-004	0.00000E+000	-5.77631E-005	-2.40040E-001	1.44716E-001	3.57730E+000	9	...........
	80	1.08	1.39387E-001	-3.98966E-004	0.00000E+000	-5.56107E-005	-2.40040E-001	1.39407E-001	3.57730E+000	9	...........
	81	1.09333	1.34216E-001	-3.99178E-004	0.00000E+000	-5.35762E-005	-2.40040E-001	1.34236E-001	3.57730E+000	9	...........
	82	1.10667	1.29002E-001	-3.98655E-004	0.00000E+000	-5.14274E-005	-2.40040E-001	1.29023E-001	3.57730E+000	9	...........
	83	1.12	1.23773E-001	-3.98626E-004	0.00000E+000	-4.93393E-005	-2.40040E-001	1.23792E-001	3.57730E+000	9	...........
	84	1.13333	1.18658E-001	-3.97606E-004	0.00000E+000	-4.71789E-005	-2.40040E-001	1.18678E-001	3.57730E+000	9	...........
	85	1.14667	1.13553E-001	-3.99643E-004	0.00000E+000	-4.53807E-005	-2.40040E-001	1.13576E-001	3.57730E+000	9	...........
	86	1.16	1.08414E-001	-3.98508E-004	0.00000E+000	-4.32038E-005	-2.40040E-001	1.08431E-001	3.57730E+000	9	...........
	87	1.17333	1.03289E-001	-3.98595E-004	0.00000E+000	-4.11704E-005	-2.40040E-001	1.03312E-001	3.57730E+000	9	...........
	88	1.18667	9.82015E-002	-3.97715E-004	0.00000E+000	-3.90563E-005	-2.40040E-001	9.82219E-002	3.57730E+000	9	...........
	89	1.2	9.33011E-002	-3.99092E-004	0.00000E+000	-3.72357E-005	-2.40040E-001	9.33183E-002	3.57730E+000	9	...........
	90	1.21333	8.82354E-002	-3.99551E-004	0.00000E+000	-3.52546E-005	-2.40040E-001	8.82531E-002	3.57730E+000	9	...........
	91	1.22667	8.32995E-002	-3.98621E-004	0.00000E+000	-3.32049E-005	-2.40040E-001	8.33136E-002	3.57730E+000	9	...........
	92	1.24	7.84773E-002	-3.99153E-004	0.00000E+000	-3.13245E-005	-2.40040E-001	7.84937E-002	3.57730E+000	9	...........
	93	1.25333	7.35519E-002	-3.98700E-004	0.00000E+000	-2.93251E-005	-2.40040E-001	7.35601E-002	3.57730E+000	9	...........
	94	1.26667	6.87475E-002	-3.99763E-004	0.00000E+000	-2.74827E-005	-2.40040E-001	6.87579E-002	3.57730E+000	9	...........
	95	1.28	6.40346E-002	-3.97900E-004	0.00000E+000	-2.54794E-005	-2.40040E-001	6.40422E-002	3.57730E+000	9	...........
	96	1.29333	5.92910E-002	-3.97378E-004	0.00000E+000	-2.35609E-005	-2.40040E-001	5.92968E-002	3.57730E+000	9	...........
	97	1.30667	5.45631E-002	-3.98381E-004	0.00000E+000	-2.17369E-005	-2.40040E-001	5.45666E-002	3.57730E+000	9	...........
	98	1.32	4.97713E-002	-3.98117E-004	0.00000E+000	-1.98148E-005	-2.40040E-001	4.97725E-002	3.57730E+000	9	...........
	99	1.33333	4.50506E-002	-3.98829E-004	0.00000E+000	-1.79675E-005	-2.40040E-001	4.50580E-002	3.57730E+000	9	...........
	100	1.34667	4.03863E-002	-3.99134E-004	0.00000E+000	-1.61196E-005	-2.40040E-001	4.03893E-002	3.57730E+000	9	...........
	101	1.36	3.58157E-002	-3.98970E-004	0.00000E+000	-1.42894E-005	-2.40040E-001	3.58171E-002	3.57730E+000	9	...........
	102	1.37333	3.11916E-002	-3.98460E-004	0.00000E+000	-1.24286E-005	-2.40040E-001	3.11931E-002	3.57730E+000	9	...........
	103	1.38667	2.67049E-002	-3.98016E-004	0.00000E+000	-1.06290E-005	-2.40040E-001	2.67048E-002	3.57730E+000	9	...........
	104	1.4	2.21648E-002	-3.98634E-004	0.00000E+000	-8.83566E-006	-2.40040E-001	2.21601E-002	3.57730E+000	9	...........
	105	1.41333	1.75950E-002	-3.98437E-004	0.00000E+000	-7.01051E-006	-2.40040E-001	1.75836E-002	3.57730E+000	9	...........
	106	1.42667	1.30408E-002	-3.97711E-004	0.00000E+000	-5.18646E-006	-2.40040E-001	1.30244E-002	3.57730E+000	9	...........
	107	1.44	8.58424E-003	-3.99306E-004	0.00000E+000	-3.42774E-006	-2.40040E-001	8.57100E-003	3.57730E+000	9	...........
	108	1.45333	4.11321E-003	-3.99506E-004	0.00000E+000	-1.64325E-006	-2.40040E-001	4.09501E-003	3.57730E+000	9	...........
	109	1.46	7.57651E-004	-3.95854E-004	0.00000E+000	-2.99919E-007	-2.40040E-001	7.39416E-004	3.57730E+000	9	...........
STARTTIMEOFFSET	QUANT	1882.163	Start Time Offset (s)
