EXPLAIN
TAG	PWR800_DISCHARGE
TITLE	LABEL	PWR Cyclic Charge Discharge (Cell) - Discharge Step	Test &Identifier
DATE	LABEL	12-7-2017	Date
TIME	LABEL	15:18:29	Time
NOTES	NOTES	3	&Notes...
	supercap test cell
	0.4mg
	6M KOH
PSTAT	PSTAT	IFC5000-01520	Potentiostat
CAPACITY	QUANT	1.00000E-003	Capacity (A-hr)
CELLTYPE	SELECTOR	1	&Cell Type
WORKINGCONNECTION	SELECTOR	0	&Working Lead
MAXDISCHARGETIME	VARIABLEANDUNITS	1.00000E+002	s	1.00000E+002	second(s)	Max &Discharge Time
DISCHARGEMODE	MULTIPARAM	0	4.00000E-004	&Discharge Mode	Constant Current	Amp(s)
SAMPLETIME	QUANT	1.00000E-002	Sa&mple Period (s)
DISCHARGESTOPAT1	MULTIPARAM	3	0.00000E+000	Discharge Stop At &1	Voltage < Limit	V
DISCHARGESTOPAT2	MULTIPARAM	0	0.00000E+000	Discharge Stop At &2	None	N/A
AESBHCSELECTOR	TOGGLE	F	Save Both Half Cells
IRCOMP	TOGGLE	F	IR &Measure
EOC	QUANT	0	Open Circuit (V)
SEQUENCER	TOGGLE	TRUE	Run as Sequence
PSTATMODEL	IQUANT	53	Pstat Model
PSTATSECTION	LABEL	IFC5000-01520	Pstat Section
PSTATSERIALNO	LABEL	01520	Pstat Serial Number
CTRLMODE	IQUANT	0	Control Mode
ELECTROMETER	IQUANT	1	RE=0 or CS=1
IESTAB	IQUANT	0	I/E Stability
CASPEED	IQUANT	4	Control Amp Speed
CONVENTION	IQUANT	1	Current Convention
ICHRANGE	IQUANT	2	Ich Range
ICHRANGEMODE	TOGGLE	T	Ich Auto Range
ICHOFFSETENABLE	TOGGLE	F	Ich Offset Enable
ICHOFFSET	QUANT	0	Ich Offset (V)
ICHFILTER	IQUANT	1	Ich Filter
VCHRANGE	IQUANT	2	Vch Range
VCHRANGEMODE	TOGGLE	T	Vch Auto Range
VCHOFFSETENABLE	TOGGLE	F	Vch Offset Enable
VCHOFFSET	QUANT	0	Vch Offset (V)
VCHFILTER	IQUANT	1	Vch Filter
IERANGELOWERLIMIT	IQUANT	9	I/E Range Lower Limit
IERANGEMODE	TOGGLE	F	I/E AutoRange
IERANGE	IQUANT	9	I/E Range
ACHSELECT	IQUANT	1	Ach Select
ACHRANGE	IQUANT	2	Ach Range
ACHOFFSETENABLE	TOGGLE	F	Ach Offset Enable
ACHOFFSET	QUANT	0	Ach Offset (V)
ACHFILTER	IQUANT	1	Ach Filter
CABLEID	IQUANT	14	Cable ID
DCCALDATE	LABEL	5-7-2017	DC Calibration Date
ACCALDATE	LABEL	12/3/2015	AC Calibration Date
FRAMEWORKVERSION	QUANT	7.01	Framework Version
INSTRUMENTVERSION	LABEL	4.00	Instrument Version
CURVE	TABLE	103
	Pt	T	Vf	Im	Vu	Pwr	Sig	Ach	Temp	IERange	Over
	#	s	V	A	V	W	V	V	deg C	#	bits
	0	0.013333	6.82320E-001	-3.99334E-004	0.00000E+000	-2.72474E-004	-2.40040E-001	6.82527E-001	3.57640E+000	9	...........
	1	0.026667	6.68622E-001	-3.98249E-004	0.00000E+000	-2.66278E-004	-2.40040E-001	6.68843E-001	3.57640E+000	9	...........
	2	0.04	6.56713E-001	-3.99662E-004	0.00000E+000	-2.62463E-004	-2.40040E-001	6.56937E-001	3.57640E+000	9	...........
	3	0.053333	6.45900E-001	-3.98628E-004	0.00000E+000	-2.57474E-004	-2.40040E-001	6.46149E-001	3.57640E+000	9	...........
	4	0.066667	6.35729E-001	-3.98736E-004	0.00000E+000	-2.53488E-004	-2.40040E-001	6.35974E-001	3.57640E+000	9	...........
	5	0.08	6.26065E-001	-3.98127E-004	0.00000E+000	-2.49253E-004	-2.40040E-001	6.26293E-001	3.57640E+000	9	...........
	6	0.093333	6.16746E-001	-4.00102E-004	0.00000E+000	-2.46761E-004	-2.40040E-001	6.16996E-001	3.57640E+000	9	...........
	7	0.106667	6.07521E-001	-3.98569E-004	0.00000E+000	-2.42139E-004	-2.40040E-001	6.07787E-001	3.57640E+000	9	...........
	8	0.12	5.98623E-001	-3.99405E-004	0.00000E+000	-2.39093E-004	-2.40040E-001	5.98866E-001	3.57640E+000	9	...........
	9	0.133333	5.89884E-001	-3.98442E-004	0.00000E+000	-2.35034E-004	-2.40040E-001	5.90126E-001	3.57640E+000	9	...........
	10	0.146667	5.81296E-001	-3.99177E-004	0.00000E+000	-2.32040E-004	-2.40040E-001	5.81542E-001	3.57640E+000	9	...........
	11	0.16	5.72814E-001	-3.99164E-004	0.00000E+000	-2.28647E-004	-2.40040E-001	5.73030E-001	3.57640E+000	9	...........
	12	0.173333	5.64479E-001	-3.98423E-004	0.00000E+000	-2.24901E-004	-2.40040E-001	5.64702E-001	3.57640E+000	9	...........
	13	0.186667	5.56136E-001	-3.98680E-004	0.00000E+000	-2.21720E-004	-2.40040E-001	5.56340E-001	3.57640E+000	9	...........
	14	0.2	5.47905E-001	-3.98381E-004	0.00000E+000	-2.18275E-004	-2.40040E-001	5.48099E-001	3.57640E+000	9	...........
	15	0.213333	5.39687E-001	-3.98333E-004	0.00000E+000	-2.14975E-004	-2.40040E-001	5.39907E-001	3.57640E+000	9	...........
	16	0.226667	5.31542E-001	-3.99934E-004	0.00000E+000	-2.12581E-004	-2.40040E-001	5.31761E-001	3.57640E+000	9	...........
	17	0.24	5.23461E-001	-3.98808E-004	0.00000E+000	-2.08761E-004	-2.40040E-001	5.23680E-001	3.57640E+000	9	...........
	18	0.253333	5.15472E-001	-3.99408E-004	0.00000E+000	-2.05884E-004	-2.40040E-001	5.15660E-001	3.57640E+000	9	...........
	19	0.266667	5.07493E-001	-3.97110E-004	0.00000E+000	-2.01530E-004	-2.40040E-001	5.07703E-001	3.57640E+000	9	...........
	20	0.28	4.99634E-001	-3.97524E-004	0.00000E+000	-1.98616E-004	-2.40040E-001	4.99833E-001	3.57640E+000	9	...........
	21	0.293333	4.91754E-001	-3.99356E-004	0.00000E+000	-1.96385E-004	-2.40040E-001	4.91936E-001	3.57640E+000	9	...........
	22	0.306667	4.84100E-001	-3.99631E-004	0.00000E+000	-1.93462E-004	-2.40040E-001	4.84218E-001	3.57640E+000	9	...........
	23	0.32	4.76448E-001	-3.98903E-004	0.00000E+000	-1.90057E-004	-2.40040E-001	4.76546E-001	3.57640E+000	9	...........
	24	0.333333	4.68837E-001	-3.98261E-004	0.00000E+000	-1.86720E-004	-2.40040E-001	4.68938E-001	3.57640E+000	9	...........
	25	0.346667	4.61217E-001	-3.98420E-004	0.00000E+000	-1.83758E-004	-2.40040E-001	4.61313E-001	3.57640E+000	9	...........
	26	0.36	4.53584E-001	-3.99058E-004	0.00000E+000	-1.81006E-004	-2.40040E-001	4.53679E-001	3.57640E+000	9	...........
	27	0.373333	4.46031E-001	-3.98360E-004	0.00000E+000	-1.77681E-004	-2.40040E-001	4.46128E-001	3.57640E+000	9	...........
	28	0.386667	4.38508E-001	-3.99956E-004	0.00000E+000	-1.75384E-004	-2.40040E-001	4.38598E-001	3.57640E+000	9	...........
	29	0.4	4.31005E-001	-3.99143E-004	0.00000E+000	-1.72033E-004	-2.40040E-001	4.31088E-001	3.57640E+000	9	...........
	30	0.413333	4.23623E-001	-3.98338E-004	0.00000E+000	-1.68745E-004	-2.40040E-001	4.23708E-001	3.57640E+000	9	...........
	31	0.426667	4.16218E-001	-3.98028E-004	0.00000E+000	-1.65667E-004	-2.40040E-001	4.16301E-001	3.57640E+000	9	...........
	32	0.44	4.08802E-001	-3.99026E-004	0.00000E+000	-1.63123E-004	-2.40040E-001	4.08881E-001	3.57640E+000	9	...........
	33	0.453333	4.01440E-001	-3.98876E-004	0.00000E+000	-1.60125E-004	-2.40040E-001	4.01519E-001	3.57640E+000	9	...........
	34	0.466667	3.94177E-001	-3.99950E-004	0.00000E+000	-1.57651E-004	-2.40040E-001	3.94251E-001	3.57640E+000	9	...........
	35	0.48	3.86919E-001	-4.00121E-004	0.00000E+000	-1.54814E-004	-2.40040E-001	3.86988E-001	3.57640E+000	9	...........
	36	0.493333	3.79769E-001	-3.97874E-004	0.00000E+000	-1.51100E-004	-2.40040E-001	3.79842E-001	3.57640E+000	9	...........
	37	0.506667	3.72624E-001	-3.99418E-004	0.00000E+000	-1.48833E-004	-2.40040E-001	3.72698E-001	3.57640E+000	9	...........
	38	0.52	3.65557E-001	-3.97985E-004	0.00000E+000	-1.45486E-004	-2.40040E-001	3.65632E-001	3.57640E+000	9	...........
	39	0.533333	3.58485E-001	-3.99251E-004	0.00000E+000	-1.43126E-004	-2.40040E-001	3.58559E-001	3.57640E+000	9	...........
	40	0.546667	3.51450E-001	-3.98567E-004	0.00000E+000	-1.40076E-004	-2.40040E-001	3.51514E-001	3.57640E+000	9	...........
	41	0.56	3.44465E-001	-3.98819E-004	0.00000E+000	-1.37379E-004	-2.40040E-001	3.44527E-001	3.57640E+000	9	...........
	42	0.573333	3.37492E-001	-3.98718E-004	0.00000E+000	-1.34564E-004	-2.40040E-001	3.37553E-001	3.57640E+000	9	...........
	43	0.586667	3.30571E-001	-3.99372E-004	0.00000E+000	-1.32021E-004	-2.40040E-001	3.30631E-001	3.57640E+000	9	...........
	44	0.6	3.23725E-001	-3.99273E-004	0.00000E+000	-1.29254E-004	-2.40040E-001	3.23785E-001	3.57640E+000	9	...........
	45	0.613333	3.16937E-001	-3.99669E-004	0.00000E+000	-1.26670E-004	-2.40040E-001	3.16994E-001	3.57640E+000	9	...........
	46	0.626667	3.10251E-001	-3.98417E-004	0.00000E+000	-1.23609E-004	-2.40040E-001	3.10312E-001	3.57640E+000	9	...........
	47	0.64	3.03544E-001	-3.97245E-004	0.00000E+000	-1.20582E-004	-2.40040E-001	3.03606E-001	3.57640E+000	9	...........
	48	0.653333	2.96902E-001	-3.99812E-004	0.00000E+000	-1.18705E-004	-2.40040E-001	2.96961E-001	3.57640E+000	9	...........
	49	0.666667	2.90353E-001	-4.00673E-004	0.00000E+000	-1.16337E-004	-2.40040E-001	2.90409E-001	3.57640E+000	9	...........
	50	0.68	2.83797E-001	-3.98956E-004	0.00000E+000	-1.13223E-004	-2.40040E-001	2.83857E-001	3.57640E+000	9	...........
	51	0.693333	2.77308E-001	-3.99408E-004	0.00000E+000	-1.10759E-004	-2.40040E-001	2.77363E-001	3.57640E+000	9	...........
	52	0.706667	2.70833E-001	-3.99083E-004	0.00000E+000	-1.08085E-004	-2.40040E-001	2.70885E-001	3.57640E+000	9	...........
	53	0.72	2.64374E-001	-3.98591E-004	0.00000E+000	-1.05377E-004	-2.40040E-001	2.64427E-001	3.57640E+000	9	...........
	54	0.733333	2.58067E-001	-3.99449E-004	0.00000E+000	-1.03085E-004	-2.40040E-001	2.58123E-001	3.57640E+000	9	...........
	55	0.746667	2.51862E-001	-3.98622E-004	0.00000E+000	-1.00398E-004	-2.40040E-001	2.51917E-001	3.57640E+000	9	...........
	56	0.76	2.45534E-001	-3.97727E-004	0.00000E+000	-9.76554E-005	-2.40040E-001	2.45583E-001	3.57640E+000	9	...........
	57	0.773333	2.39311E-001	-3.98458E-004	0.00000E+000	-9.53555E-005	-2.40040E-001	2.39358E-001	3.57640E+000	9	...........
	58	0.786667	2.33064E-001	-3.98690E-004	0.00000E+000	-9.29201E-005	-2.40040E-001	2.33113E-001	3.57760E+000	9	...........
	59	0.8	2.26919E-001	-3.99627E-004	0.00000E+000	-9.06832E-005	-2.40040E-001	2.26965E-001	3.57780E+000	9	...........
	60	0.813333	2.20837E-001	-3.99725E-004	0.00000E+000	-8.82742E-005	-2.40040E-001	2.20884E-001	3.57780E+000	9	...........
	61	0.826667	2.14807E-001	-3.98379E-004	0.00000E+000	-8.55746E-005	-2.40040E-001	2.14850E-001	3.57780E+000	9	...........
	62	0.84	2.08819E-001	-3.98963E-004	0.00000E+000	-8.33110E-005	-2.40040E-001	2.08861E-001	3.57780E+000	9	...........
	63	0.853333	2.02820E-001	-3.99155E-004	0.00000E+000	-8.09565E-005	-2.40040E-001	2.02858E-001	3.57780E+000	9	...........
	64	0.866667	1.96829E-001	-3.97431E-004	0.00000E+000	-7.82261E-005	-2.40040E-001	1.96871E-001	3.57780E+000	9	...........
	65	0.88	1.90952E-001	-3.98278E-004	0.00000E+000	-7.60521E-005	-2.40040E-001	1.90989E-001	3.57780E+000	9	...........
	66	0.893333	1.85129E-001	-3.98885E-004	0.00000E+000	-7.38451E-005	-2.40040E-001	1.85164E-001	3.57780E+000	9	...........
	67	0.906667	1.79362E-001	-3.98531E-004	0.00000E+000	-7.14813E-005	-2.40040E-001	1.79397E-001	3.57780E+000	9	...........
	68	0.92	1.73542E-001	-3.99859E-004	0.00000E+000	-6.93921E-005	-2.40040E-001	1.73571E-001	3.57780E+000	9	...........
	69	0.933333	1.67829E-001	-3.98760E-004	0.00000E+000	-6.69237E-005	-2.40040E-001	1.67854E-001	3.57780E+000	9	...........
	70	0.946667	1.62179E-001	-3.99193E-004	0.00000E+000	-6.47405E-005	-2.40040E-001	1.62205E-001	3.57780E+000	9	...........
	71	0.96	1.56467E-001	-3.98951E-004	0.00000E+000	-6.24228E-005	-2.40040E-001	1.56494E-001	3.57780E+000	9	...........
	72	0.97333	1.50813E-001	-3.98475E-004	0.00000E+000	-6.00952E-005	-2.40040E-001	1.50836E-001	3.57780E+000	9	...........
	73	0.98667	1.45269E-001	-3.98636E-004	0.00000E+000	-5.79095E-005	-2.40040E-001	1.45294E-001	3.57780E+000	9	...........
	74	1	1.39803E-001	-3.98720E-004	0.00000E+000	-5.57422E-005	-2.40040E-001	1.39824E-001	3.57780E+000	9	...........
	75	1.01333	1.34340E-001	-3.98628E-004	0.00000E+000	-5.35516E-005	-2.40040E-001	1.34357E-001	3.57780E+000	9	...........
	76	1.02667	1.28858E-001	-3.98911E-004	0.00000E+000	-5.14029E-005	-2.40040E-001	1.28881E-001	3.57780E+000	9	...........
	77	1.04	1.23395E-001	-3.98997E-004	0.00000E+000	-4.92342E-005	-2.40040E-001	1.23414E-001	3.57780E+000	9	...........
	78	1.05333	1.17994E-001	-3.99316E-004	0.00000E+000	-4.71169E-005	-2.40040E-001	1.18017E-001	3.57780E+000	9	...........
	79	1.06667	1.12644E-001	-3.97209E-004	0.00000E+000	-4.47434E-005	-2.40040E-001	1.12663E-001	3.57780E+000	9	...........
	80	1.08	1.07335E-001	-3.96701E-004	0.00000E+000	-4.25800E-005	-2.40040E-001	1.07355E-001	3.57780E+000	9	...........
	81	1.09333	1.02042E-001	-4.00070E-004	0.00000E+000	-4.08241E-005	-2.40040E-001	1.02066E-001	3.57780E+000	9	...........
	82	1.10667	9.68257E-002	-3.99159E-004	0.00000E+000	-3.86489E-005	-2.40040E-001	9.68430E-002	3.57780E+000	9	...........
	83	1.12	9.16647E-002	-3.98844E-004	0.00000E+000	-3.65599E-005	-2.40040E-001	9.16888E-002	3.57780E+000	9	...........
	84	1.13333	8.65310E-002	-4.00060E-004	0.00000E+000	-3.46176E-005	-2.40040E-001	8.65484E-002	3.57780E+000	9	...........
	85	1.14667	8.14243E-002	-3.97276E-004	0.00000E+000	-3.23479E-005	-2.40040E-001	8.14308E-002	3.57780E+000	9	...........
	86	1.16	7.63245E-002	-3.98606E-004	0.00000E+000	-3.04234E-005	-2.40040E-001	7.63333E-002	3.57780E+000	9	...........
	87	1.17333	7.12327E-002	-3.98456E-004	0.00000E+000	-2.83831E-005	-2.40040E-001	7.12456E-002	3.57780E+000	9	...........
	88	1.18667	6.62258E-002	-3.97118E-004	0.00000E+000	-2.62995E-005	-2.40040E-001	6.62310E-002	3.57780E+000	9	...........
	89	1.2	6.11510E-002	-3.98841E-004	0.00000E+000	-2.43895E-005	-2.40040E-001	6.11570E-002	3.57780E+000	9	...........
	90	1.21333	5.61362E-002	-3.98675E-004	0.00000E+000	-2.23801E-005	-2.40040E-001	5.61434E-002	3.57780E+000	9	...........
	91	1.22667	5.12241E-002	-4.00247E-004	0.00000E+000	-2.05023E-005	-2.40040E-001	5.12257E-002	3.57780E+000	9	...........
	92	1.24	4.62051E-002	-3.99049E-004	0.00000E+000	-1.84381E-005	-2.40040E-001	4.62140E-002	3.57780E+000	9	...........
	93	1.25333	4.13280E-002	-3.98806E-004	0.00000E+000	-1.64819E-005	-2.40040E-001	4.13364E-002	3.57780E+000	9	...........
	94	1.26667	3.65023E-002	-3.97679E-004	0.00000E+000	-1.45162E-005	-2.40040E-001	3.65075E-002	3.57780E+000	9	...........
	95	1.28	3.17216E-002	-3.98598E-004	0.00000E+000	-1.26442E-005	-2.40040E-001	3.17202E-002	3.57780E+000	9	...........
	96	1.29333	2.68992E-002	-3.98350E-004	0.00000E+000	-1.07153E-005	-2.40040E-001	2.68967E-002	3.57780E+000	9	...........
	97	1.30667	2.21590E-002	-3.98401E-004	0.00000E+000	-8.82817E-006	-2.40040E-001	2.21573E-002	3.57780E+000	9	...........
	98	1.32	1.73850E-002	-3.98752E-004	0.00000E+000	-6.93230E-006	-2.40040E-001	1.73771E-002	3.57780E+000	9	...........
	99	1.33333	1.26757E-002	-3.97797E-004	0.00000E+000	-5.04236E-006	-2.40040E-001	1.26663E-002	3.57780E+000	9	...........
	100	1.34667	8.04339E-003	-3.97740E-004	0.00000E+000	-3.19918E-006	-2.40040E-001	8.02619E-003	3.57780E+000	9	...........
	101	1.36	3.39665E-003	-3.99606E-004	0.00000E+000	-1.35732E-006	-2.40040E-001	3.37652E-003	3.57780E+000	9	...........
	102	1.365	9.48368E-005	-3.99681E-004	0.00000E+000	-3.79045E-008	-2.40040E-001	6.80137E-005	3.57780E+000	9	...........
STARTTIMEOFFSET	QUANT	2836.177	Start Time Offset (s)
