EXPLAIN
TAG	PWR800_DISCHARGE
TITLE	LABEL	PWR Cyclic Charge Discharge (Cell) - Discharge Step	Test &Identifier
DATE	LABEL	12-7-2017	Date
TIME	LABEL	15:01:13	Time
NOTES	NOTES	3	&Notes...
	supercap test cell
	0.4mg
	6M KOH
PSTAT	PSTAT	IFC5000-01520	Potentiostat
CAPACITY	QUANT	1.00000E-003	Capacity (A-hr)
CELLTYPE	SELECTOR	1	&Cell Type
WORKINGCONNECTION	SELECTOR	0	&Working Lead
MAXDISCHARGETIME	VARIABLEANDUNITS	1.00000E+002	s	1.00000E+002	second(s)	Max &Discharge Time
DISCHARGEMODE	MULTIPARAM	0	4.00000E-004	&Discharge Mode	Constant Current	Amp(s)
SAMPLETIME	QUANT	1.00000E-002	Sa&mple Period (s)
DISCHARGESTOPAT1	MULTIPARAM	3	0.00000E+000	Discharge Stop At &1	Voltage < Limit	V
DISCHARGESTOPAT2	MULTIPARAM	0	0.00000E+000	Discharge Stop At &2	None	N/A
AESBHCSELECTOR	TOGGLE	F	Save Both Half Cells
IRCOMP	TOGGLE	F	IR &Measure
EOC	QUANT	0	Open Circuit (V)
SEQUENCER	TOGGLE	TRUE	Run as Sequence
PSTATMODEL	IQUANT	53	Pstat Model
PSTATSECTION	LABEL	IFC5000-01520	Pstat Section
PSTATSERIALNO	LABEL	01520	Pstat Serial Number
CTRLMODE	IQUANT	0	Control Mode
ELECTROMETER	IQUANT	1	RE=0 or CS=1
IESTAB	IQUANT	0	I/E Stability
CASPEED	IQUANT	4	Control Amp Speed
CONVENTION	IQUANT	1	Current Convention
ICHRANGE	IQUANT	2	Ich Range
ICHRANGEMODE	TOGGLE	T	Ich Auto Range
ICHOFFSETENABLE	TOGGLE	F	Ich Offset Enable
ICHOFFSET	QUANT	0	Ich Offset (V)
ICHFILTER	IQUANT	1	Ich Filter
VCHRANGE	IQUANT	2	Vch Range
VCHRANGEMODE	TOGGLE	T	Vch Auto Range
VCHOFFSETENABLE	TOGGLE	F	Vch Offset Enable
VCHOFFSET	QUANT	0	Vch Offset (V)
VCHFILTER	IQUANT	1	Vch Filter
IERANGELOWERLIMIT	IQUANT	9	I/E Range Lower Limit
IERANGEMODE	TOGGLE	F	I/E AutoRange
IERANGE	IQUANT	9	I/E Range
ACHSELECT	IQUANT	1	Ach Select
ACHRANGE	IQUANT	2	Ach Range
ACHOFFSETENABLE	TOGGLE	F	Ach Offset Enable
ACHOFFSET	QUANT	0	Ach Offset (V)
ACHFILTER	IQUANT	1	Ach Filter
CABLEID	IQUANT	14	Cable ID
DCCALDATE	LABEL	5-7-2017	DC Calibration Date
ACCALDATE	LABEL	12/3/2015	AC Calibration Date
FRAMEWORKVERSION	QUANT	7.01	Framework Version
INSTRUMENTVERSION	LABEL	4.00	Instrument Version
CURVE	TABLE	109
	Pt	T	Vf	Im	Vu	Pwr	Sig	Ach	Temp	IERange	Over
	#	s	V	A	V	W	V	V	deg C	#	bits
	0	0.013333	6.92741E-001	-3.98915E-004	0.00000E+000	-2.76345E-004	-2.40040E-001	6.92982E-001	3.57780E+000	9	...........
	1	0.026667	6.79775E-001	-3.97723E-004	0.00000E+000	-2.70362E-004	-2.40040E-001	6.79989E-001	3.57780E+000	9	...........
	2	0.04	6.68447E-001	-3.98584E-004	0.00000E+000	-2.66433E-004	-2.40040E-001	6.68620E-001	3.57780E+000	9	...........
	3	0.053333	6.58038E-001	-3.99095E-004	0.00000E+000	-2.62620E-004	-2.40040E-001	6.58222E-001	3.57780E+000	9	...........
	4	0.066667	6.48203E-001	-3.98348E-004	0.00000E+000	-2.58210E-004	-2.40040E-001	6.48397E-001	3.57780E+000	9	...........
	5	0.08	6.38835E-001	-3.97396E-004	0.00000E+000	-2.53870E-004	-2.40040E-001	6.39012E-001	3.57780E+000	9	...........
	6	0.093333	6.29765E-001	-3.99607E-004	0.00000E+000	-2.51659E-004	-2.40040E-001	6.29968E-001	3.57780E+000	9	...........
	7	0.106667	6.21025E-001	-3.99462E-004	0.00000E+000	-2.48075E-004	-2.40040E-001	6.21204E-001	3.57780E+000	9	...........
	8	0.12	6.12299E-001	-3.97642E-004	0.00000E+000	-2.43476E-004	-2.40040E-001	6.12536E-001	3.57780E+000	9	...........
	9	0.133333	6.03825E-001	-3.99565E-004	0.00000E+000	-2.41267E-004	-2.40040E-001	6.04072E-001	3.57780E+000	9	...........
	10	0.146667	5.95540E-001	-3.98372E-004	0.00000E+000	-2.37246E-004	-2.40040E-001	5.95788E-001	3.57780E+000	9	...........
	11	0.16	5.87295E-001	-3.99307E-004	0.00000E+000	-2.34511E-004	-2.40040E-001	5.87535E-001	3.57780E+000	9	...........
	12	0.173333	5.79187E-001	-3.98377E-004	0.00000E+000	-2.30735E-004	-2.40040E-001	5.79400E-001	3.57780E+000	9	...........
	13	0.186667	5.71128E-001	-3.98950E-004	0.00000E+000	-2.27851E-004	-2.40040E-001	5.71348E-001	3.57780E+000	9	...........
	14	0.2	5.63094E-001	-4.00093E-004	0.00000E+000	-2.25290E-004	-2.40040E-001	5.63335E-001	3.57780E+000	9	...........
	15	0.213333	5.55199E-001	-3.98559E-004	0.00000E+000	-2.21280E-004	-2.40040E-001	5.55432E-001	3.57780E+000	9	...........
	16	0.226667	5.47429E-001	-3.99281E-004	0.00000E+000	-2.18578E-004	-2.40040E-001	5.47662E-001	3.57682E+000	9	...........
	17	0.24	5.39618E-001	-3.98044E-004	0.00000E+000	-2.14792E-004	-2.40040E-001	5.39840E-001	3.57650E+000	9	...........
	18	0.253333	5.31858E-001	-3.98485E-004	0.00000E+000	-2.11938E-004	-2.40040E-001	5.32072E-001	3.57650E+000	9	...........
	19	0.266667	5.24138E-001	-3.98142E-004	0.00000E+000	-2.08681E-004	-2.40040E-001	5.24340E-001	3.57650E+000	9	...........
	20	0.28	5.16480E-001	-3.97950E-004	0.00000E+000	-2.05533E-004	-2.40040E-001	5.16683E-001	3.57650E+000	9	...........
	21	0.293333	5.08907E-001	-3.99568E-004	0.00000E+000	-2.03343E-004	-2.40040E-001	5.09146E-001	3.57650E+000	9	...........
	22	0.306667	5.01358E-001	-3.99183E-004	0.00000E+000	-2.00134E-004	-2.40040E-001	5.01594E-001	3.57650E+000	9	...........
	23	0.32	4.93864E-001	-3.98701E-004	0.00000E+000	-1.96904E-004	-2.40040E-001	4.94073E-001	3.57650E+000	9	...........
	24	0.333333	4.86485E-001	-3.98492E-004	0.00000E+000	-1.93860E-004	-2.40040E-001	4.86657E-001	3.57650E+000	9	...........
	25	0.346667	4.79343E-001	-3.98326E-004	0.00000E+000	-1.90935E-004	-2.40040E-001	4.79437E-001	3.57650E+000	9	...........
	26	0.36	4.71979E-001	-3.98183E-004	0.00000E+000	-1.87934E-004	-2.40040E-001	4.72071E-001	3.57650E+000	9	...........
	27	0.373333	4.64657E-001	-3.97115E-004	0.00000E+000	-1.84522E-004	-2.40040E-001	4.64750E-001	3.57650E+000	9	...........
	28	0.386667	4.57393E-001	-3.98841E-004	0.00000E+000	-1.82427E-004	-2.40040E-001	4.57480E-001	3.57650E+000	9	...........
	29	0.4	4.50191E-001	-3.98441E-004	0.00000E+000	-1.79375E-004	-2.40040E-001	4.50282E-001	3.57650E+000	9	...........
	30	0.413333	4.42956E-001	-3.98465E-004	0.00000E+000	-1.76502E-004	-2.40040E-001	4.43045E-001	3.57650E+000	9	...........
	31	0.426667	4.35800E-001	-3.98864E-004	0.00000E+000	-1.73825E-004	-2.40040E-001	4.35889E-001	3.57650E+000	9	...........
	32	0.44	4.28661E-001	-3.97258E-004	0.00000E+000	-1.70289E-004	-2.40040E-001	4.28745E-001	3.57650E+000	9	...........
	33	0.453333	4.21651E-001	-3.98593E-004	0.00000E+000	-1.68067E-004	-2.40040E-001	4.21741E-001	3.57650E+000	9	...........
	34	0.466667	4.14653E-001	-3.98213E-004	0.00000E+000	-1.65121E-004	-2.40040E-001	4.14738E-001	3.57650E+000	9	...........
	35	0.48	4.07647E-001	-3.98817E-004	0.00000E+000	-1.62576E-004	-2.40040E-001	4.07732E-001	3.57650E+000	9	...........
	36	0.493333	4.00710E-001	-3.98915E-004	0.00000E+000	-1.59849E-004	-2.40040E-001	4.00786E-001	3.57650E+000	9	...........
	37	0.506667	3.93806E-001	-3.98717E-004	0.00000E+000	-1.57017E-004	-2.40040E-001	3.93879E-001	3.57650E+000	9	...........
	38	0.52	3.86913E-001	-3.99572E-004	0.00000E+000	-1.54600E-004	-2.40040E-001	3.86982E-001	3.57650E+000	9	...........
	39	0.533333	3.80088E-001	-3.98609E-004	0.00000E+000	-1.51506E-004	-2.40040E-001	3.80160E-001	3.57650E+000	9	...........
	40	0.546667	3.73324E-001	-3.98617E-004	0.00000E+000	-1.48813E-004	-2.40040E-001	3.73393E-001	3.57650E+000	9	...........
	41	0.56	3.66496E-001	-3.99145E-004	0.00000E+000	-1.46285E-004	-2.40040E-001	3.66569E-001	3.57650E+000	9	...........
	42	0.573333	3.59811E-001	-3.98685E-004	0.00000E+000	-1.43451E-004	-2.40040E-001	3.59878E-001	3.57650E+000	9	...........
	43	0.586667	3.53145E-001	-3.99673E-004	0.00000E+000	-1.41143E-004	-2.40040E-001	3.53208E-001	3.57650E+000	9	...........
	44	0.6	3.46483E-001	-3.98128E-004	0.00000E+000	-1.37944E-004	-2.40040E-001	3.46546E-001	3.57650E+000	9	...........
	45	0.613333	3.39931E-001	-3.98960E-004	0.00000E+000	-1.35619E-004	-2.40040E-001	3.39996E-001	3.57650E+000	9	...........
	46	0.626667	3.33462E-001	-3.99868E-004	0.00000E+000	-1.33341E-004	-2.40040E-001	3.33527E-001	3.57650E+000	9	...........
	47	0.64	3.26965E-001	-3.97339E-004	0.00000E+000	-1.29916E-004	-2.40040E-001	3.27027E-001	3.57650E+000	9	...........
	48	0.653333	3.20466E-001	-3.99128E-004	0.00000E+000	-1.27907E-004	-2.40040E-001	3.20520E-001	3.57650E+000	9	...........
	49	0.666667	3.13955E-001	-3.99632E-004	0.00000E+000	-1.25467E-004	-2.40040E-001	3.14014E-001	3.57650E+000	9	...........
	50	0.68	3.07576E-001	-3.97785E-004	0.00000E+000	-1.22349E-004	-2.40040E-001	3.07627E-001	3.57650E+000	9	...........
	51	0.693333	3.01216E-001	-3.98461E-004	0.00000E+000	-1.20023E-004	-2.40040E-001	3.01270E-001	3.57650E+000	9	...........
	52	0.706667	2.94886E-001	-3.98090E-004	0.00000E+000	-1.17391E-004	-2.40040E-001	2.94933E-001	3.57650E+000	9	...........
	53	0.72	2.88589E-001	-3.99245E-004	0.00000E+000	-1.15218E-004	-2.40040E-001	2.88638E-001	3.57650E+000	9	...........
	54	0.733333	2.82395E-001	-4.00293E-004	0.00000E+000	-1.13041E-004	-2.40040E-001	2.82449E-001	3.57650E+000	9	...........
	55	0.746667	2.76241E-001	-3.98557E-004	0.00000E+000	-1.10098E-004	-2.40040E-001	2.76290E-001	3.57650E+000	9	...........
	56	0.76	2.70153E-001	-3.98835E-004	0.00000E+000	-1.07747E-004	-2.40040E-001	2.70205E-001	3.57650E+000	9	...........
	57	0.773333	2.64024E-001	-3.99110E-004	0.00000E+000	-1.05375E-004	-2.40040E-001	2.64073E-001	3.57650E+000	9	...........
	58	0.786667	2.57912E-001	-3.99179E-004	0.00000E+000	-1.02953E-004	-2.40040E-001	2.57963E-001	3.57650E+000	9	...........
	59	0.8	2.51849E-001	-3.99101E-004	0.00000E+000	-1.00513E-004	-2.40040E-001	2.51897E-001	3.57650E+000	9	...........
	60	0.813333	2.45986E-001	-3.98924E-004	0.00000E+000	-9.81297E-005	-2.40040E-001	2.46036E-001	3.57650E+000	9	...........
	61	0.826667	2.39986E-001	-3.98843E-004	0.00000E+000	-9.57166E-005	-2.40040E-001	2.40031E-001	3.57650E+000	9	...........
	62	0.84	2.34097E-001	-3.98851E-004	0.00000E+000	-9.33697E-005	-2.40040E-001	2.34138E-001	3.57650E+000	9	...........
	63	0.853333	2.28190E-001	-3.99586E-004	0.00000E+000	-9.11813E-005	-2.40040E-001	2.28229E-001	3.57650E+000	9	...........
	64	0.866667	2.22279E-001	-3.97472E-004	0.00000E+000	-8.83494E-005	-2.40040E-001	2.22316E-001	3.57650E+000	9	...........
	65	0.88	2.16555E-001	-3.98543E-004	0.00000E+000	-8.63064E-005	-2.40040E-001	2.16595E-001	3.57650E+000	9	...........
	66	0.893333	2.10763E-001	-3.99774E-004	0.00000E+000	-8.42574E-005	-2.40040E-001	2.10799E-001	3.57650E+000	9	...........
	67	0.906667	2.05065E-001	-3.98065E-004	0.00000E+000	-8.16293E-005	-2.40040E-001	2.05105E-001	3.57650E+000	9	...........
	68	0.92	1.99397E-001	-3.99127E-004	0.00000E+000	-7.95846E-005	-2.40040E-001	1.99436E-001	3.57650E+000	9	...........
	69	0.933333	1.93707E-001	-3.99015E-004	0.00000E+000	-7.72918E-005	-2.40040E-001	1.93745E-001	3.57650E+000	9	...........
	70	0.946667	1.87996E-001	-3.98172E-004	0.00000E+000	-7.48548E-005	-2.40040E-001	1.88035E-001	3.57650E+000	9	...........
	71	0.96	1.82370E-001	-3.97587E-004	0.00000E+000	-7.25081E-005	-2.40040E-001	1.82403E-001	3.57650E+000	9	...........
	72	0.97333	1.76873E-001	-3.98809E-004	0.00000E+000	-7.05387E-005	-2.40040E-001	1.76905E-001	3.57650E+000	9	...........
	73	0.98667	1.71400E-001	-3.97241E-004	0.00000E+000	-6.80872E-005	-2.40040E-001	1.71428E-001	3.57650E+000	9	...........
	74	1	1.65890E-001	-3.98728E-004	0.00000E+000	-6.61448E-005	-2.40040E-001	1.65914E-001	3.57650E+000	9	...........
	75	1.01333	1.60377E-001	-3.99332E-004	0.00000E+000	-6.40438E-005	-2.40040E-001	1.60406E-001	3.57650E+000	9	...........
	76	1.02667	1.54962E-001	-3.99579E-004	0.00000E+000	-6.19198E-005	-2.40040E-001	1.54982E-001	3.57650E+000	9	...........
	77	1.04	1.49542E-001	-3.98680E-004	0.00000E+000	-5.96195E-005	-2.40040E-001	1.49568E-001	3.57650E+000	9	...........
	78	1.05333	1.44169E-001	-3.99241E-004	0.00000E+000	-5.75580E-005	-2.40040E-001	1.44191E-001	3.57650E+000	9	...........
	79	1.06667	1.38817E-001	-3.98779E-004	0.00000E+000	-5.53573E-005	-2.40040E-001	1.38834E-001	3.57650E+000	9	...........
	80	1.08	1.33511E-001	-3.99139E-004	0.00000E+000	-5.32895E-005	-2.40040E-001	1.33531E-001	3.57650E+000	9	...........
	81	1.09333	1.28322E-001	-3.98708E-004	0.00000E+000	-5.11630E-005	-2.40040E-001	1.28343E-001	3.57650E+000	9	...........
	82	1.10667	1.23079E-001	-3.98701E-004	0.00000E+000	-4.90719E-005	-2.40040E-001	1.23102E-001	3.57650E+000	9	...........
	83	1.12	1.17913E-001	-3.98878E-004	0.00000E+000	-4.70329E-005	-2.40040E-001	1.17933E-001	3.57650E+000	9	...........
	84	1.13333	1.12744E-001	-3.98968E-004	0.00000E+000	-4.49811E-005	-2.40040E-001	1.12760E-001	3.57650E+000	9	...........
	85	1.14667	1.07619E-001	-3.98921E-004	0.00000E+000	-4.29315E-005	-2.40040E-001	1.07638E-001	3.57650E+000	9	...........
	86	1.16	1.02554E-001	-3.98817E-004	0.00000E+000	-4.09001E-005	-2.40040E-001	1.02571E-001	3.57650E+000	9	...........
	87	1.17333	9.74748E-002	-3.98841E-004	0.00000E+000	-3.88769E-005	-2.40040E-001	9.74898E-002	3.57650E+000	9	...........
	88	1.18667	9.25213E-002	-3.97578E-004	0.00000E+000	-3.67844E-005	-2.40040E-001	9.25377E-002	3.57650E+000	9	...........
	89	1.2	8.75637E-002	-3.98704E-004	0.00000E+000	-3.49120E-005	-2.40040E-001	8.75802E-002	3.57650E+000	9	...........
	90	1.21333	8.26039E-002	-3.98311E-004	0.00000E+000	-3.29021E-005	-2.40040E-001	8.26146E-002	3.57650E+000	9	...........
	91	1.22667	7.77258E-002	-3.98778E-004	0.00000E+000	-3.09954E-005	-2.40040E-001	7.77334E-002	3.57650E+000	9	...........
	92	1.24	7.29138E-002	-3.99084E-004	0.00000E+000	-2.90988E-005	-2.40040E-001	7.29173E-002	3.57650E+000	9	...........
	93	1.25333	6.80654E-002	-3.98964E-004	0.00000E+000	-2.71556E-005	-2.40040E-001	6.80668E-002	3.57650E+000	9	...........
	94	1.26667	6.32267E-002	-3.98602E-004	0.00000E+000	-2.52023E-005	-2.40040E-001	6.32361E-002	3.57650E+000	9	...........
	95	1.28	5.83660E-002	-3.98322E-004	0.00000E+000	-2.32485E-005	-2.40040E-001	5.83732E-002	3.57650E+000	9	...........
	96	1.29333	5.35767E-002	-3.97871E-004	0.00000E+000	-2.13166E-005	-2.40040E-001	5.35845E-002	3.57650E+000	9	...........
	97	1.30667	4.88279E-002	-3.99113E-004	0.00000E+000	-1.94878E-005	-2.40040E-001	4.88332E-002	3.57650E+000	9	...........
	98	1.32	4.40546E-002	-3.98618E-004	0.00000E+000	-1.75609E-005	-2.40040E-001	4.40569E-002	3.57650E+000	9	...........
	99	1.33333	3.93446E-002	-3.99251E-004	0.00000E+000	-1.57084E-005	-2.40040E-001	3.93449E-002	3.57650E+000	9	...........
	100	1.34667	3.47344E-002	-3.98345E-004	0.00000E+000	-1.38363E-005	-2.40040E-001	3.47345E-002	3.57650E+000	9	...........
	101	1.36	3.01238E-002	-3.98565E-004	0.00000E+000	-1.20063E-005	-2.40040E-001	3.01172E-002	3.57650E+000	9	...........
	102	1.37333	2.54465E-002	-3.98629E-004	0.00000E+000	-1.01437E-005	-2.40040E-001	2.54411E-002	3.57650E+000	9	...........
	103	1.38667	2.08315E-002	-3.98431E-004	0.00000E+000	-8.29990E-006	-2.40040E-001	2.08219E-002	3.57650E+000	9	...........
	104	1.4	1.63037E-002	-3.97996E-004	0.00000E+000	-6.48882E-006	-2.40040E-001	1.62915E-002	3.57650E+000	9	...........
	105	1.41333	1.17612E-002	-3.98500E-004	0.00000E+000	-4.68685E-006	-2.40040E-001	1.17500E-002	3.57650E+000	9	...........
	106	1.42667	7.26784E-003	-3.99290E-004	0.00000E+000	-2.90197E-006	-2.40040E-001	7.25027E-003	3.57650E+000	9	...........
	107	1.44	2.76925E-003	-3.98522E-004	0.00000E+000	-1.10361E-006	-2.40040E-001	2.75071E-003	3.57650E+000	9	...........
	108	1.44333	-2.54124E-005	-4.00157E-004	0.00000E+000	1.01689E-008	-2.40040E-001	-5.11001E-005	3.57650E+000	9	...........
STARTTIMEOFFSET	QUANT	2030.185	Start Time Offset (s)
