EXPLAIN
TAG	PWR800_DISCHARGE
TITLE	LABEL	PWR Cyclic Charge Discharge (Cell) - Discharge Step	Test &Identifier
DATE	LABEL	12-7-2017	Date
TIME	LABEL	15:01:54	Time
NOTES	NOTES	3	&Notes...
	supercap test cell
	0.4mg
	6M KOH
PSTAT	PSTAT	IFC5000-01520	Potentiostat
CAPACITY	QUANT	1.00000E-003	Capacity (A-hr)
CELLTYPE	SELECTOR	1	&Cell Type
WORKINGCONNECTION	SELECTOR	0	&Working Lead
MAXDISCHARGETIME	VARIABLEANDUNITS	1.00000E+002	s	1.00000E+002	second(s)	Max &Discharge Time
DISCHARGEMODE	MULTIPARAM	0	4.00000E-004	&Discharge Mode	Constant Current	Amp(s)
SAMPLETIME	QUANT	1.00000E-002	Sa&mple Period (s)
DISCHARGESTOPAT1	MULTIPARAM	3	0.00000E+000	Discharge Stop At &1	Voltage < Limit	V
DISCHARGESTOPAT2	MULTIPARAM	0	0.00000E+000	Discharge Stop At &2	None	N/A
AESBHCSELECTOR	TOGGLE	F	Save Both Half Cells
IRCOMP	TOGGLE	F	IR &Measure
EOC	QUANT	0	Open Circuit (V)
SEQUENCER	TOGGLE	TRUE	Run as Sequence
PSTATMODEL	IQUANT	53	Pstat Model
PSTATSECTION	LABEL	IFC5000-01520	Pstat Section
PSTATSERIALNO	LABEL	01520	Pstat Serial Number
CTRLMODE	IQUANT	0	Control Mode
ELECTROMETER	IQUANT	1	RE=0 or CS=1
IESTAB	IQUANT	0	I/E Stability
CASPEED	IQUANT	4	Control Amp Speed
CONVENTION	IQUANT	1	Current Convention
ICHRANGE	IQUANT	2	Ich Range
ICHRANGEMODE	TOGGLE	T	Ich Auto Range
ICHOFFSETENABLE	TOGGLE	F	Ich Offset Enable
ICHOFFSET	QUANT	0	Ich Offset (V)
ICHFILTER	IQUANT	1	Ich Filter
VCHRANGE	IQUANT	2	Vch Range
VCHRANGEMODE	TOGGLE	T	Vch Auto Range
VCHOFFSETENABLE	TOGGLE	F	Vch Offset Enable
VCHOFFSET	QUANT	0	Vch Offset (V)
VCHFILTER	IQUANT	1	Vch Filter
IERANGELOWERLIMIT	IQUANT	9	I/E Range Lower Limit
IERANGEMODE	TOGGLE	F	I/E AutoRange
IERANGE	IQUANT	9	I/E Range
ACHSELECT	IQUANT	1	Ach Select
ACHRANGE	IQUANT	2	Ach Range
ACHOFFSETENABLE	TOGGLE	F	Ach Offset Enable
ACHOFFSET	QUANT	0	Ach Offset (V)
ACHFILTER	IQUANT	1	Ach Filter
CABLEID	IQUANT	14	Cable ID
DCCALDATE	LABEL	5-7-2017	DC Calibration Date
ACCALDATE	LABEL	12/3/2015	AC Calibration Date
FRAMEWORKVERSION	QUANT	7.01	Framework Version
INSTRUMENTVERSION	LABEL	4.00	Instrument Version
CURVE	TABLE	108
	Pt	T	Vf	Im	Vu	Pwr	Sig	Ach	Temp	IERange	Over
	#	s	V	A	V	W	V	V	deg C	#	bits
	0	0.013333	6.91079E-001	-3.98858E-004	0.00000E+000	-2.75643E-004	-2.40040E-001	6.91279E-001	3.57620E+000	9	...........
	1	0.026667	6.78167E-001	-3.98135E-004	0.00000E+000	-2.70002E-004	-2.40040E-001	6.78353E-001	3.57620E+000	9	...........
	2	0.04	6.66780E-001	-4.00291E-004	0.00000E+000	-2.66906E-004	-2.40040E-001	6.66974E-001	3.57620E+000	9	...........
	3	0.053333	6.56328E-001	-3.99561E-004	0.00000E+000	-2.62243E-004	-2.40040E-001	6.56512E-001	3.57620E+000	9	...........
	4	0.066667	6.46523E-001	-3.98958E-004	0.00000E+000	-2.57936E-004	-2.40040E-001	6.46717E-001	3.57620E+000	9	...........
	5	0.08	6.37151E-001	-3.97946E-004	0.00000E+000	-2.53551E-004	-2.40040E-001	6.37366E-001	3.57620E+000	9	...........
	6	0.093333	6.28060E-001	-3.98511E-004	0.00000E+000	-2.50289E-004	-2.40040E-001	6.28274E-001	3.57620E+000	9	...........
	7	0.106667	6.19243E-001	-3.97686E-004	0.00000E+000	-2.46264E-004	-2.40040E-001	6.19436E-001	3.57620E+000	9	...........
	8	0.12	6.10603E-001	-3.98982E-004	0.00000E+000	-2.43620E-004	-2.40040E-001	6.10847E-001	3.57620E+000	9	...........
	9	0.133333	6.02166E-001	-3.99040E-004	0.00000E+000	-2.40288E-004	-2.40040E-001	6.02407E-001	3.57620E+000	9	...........
	10	0.146667	5.93840E-001	-3.98992E-004	0.00000E+000	-2.36937E-004	-2.40040E-001	5.94078E-001	3.57620E+000	9	...........
	11	0.16	5.85634E-001	-3.99033E-004	0.00000E+000	-2.33688E-004	-2.40040E-001	5.85877E-001	3.57620E+000	9	...........
	12	0.173333	5.77504E-001	-3.97097E-004	0.00000E+000	-2.29325E-004	-2.40040E-001	5.77718E-001	3.57620E+000	9	...........
	13	0.186667	5.69492E-001	-3.99775E-004	0.00000E+000	-2.27669E-004	-2.40040E-001	5.69700E-001	3.57620E+000	9	...........
	14	0.2	5.61475E-001	-4.00138E-004	0.00000E+000	-2.24667E-004	-2.40040E-001	5.61704E-001	3.57620E+000	9	...........
	15	0.213333	5.53596E-001	-4.00762E-004	0.00000E+000	-2.21860E-004	-2.40040E-001	5.53816E-001	3.57620E+000	9	...........
	16	0.226667	5.45756E-001	-3.99387E-004	0.00000E+000	-2.17967E-004	-2.40040E-001	5.45974E-001	3.57620E+000	9	...........
	17	0.24	5.37939E-001	-3.97937E-004	0.00000E+000	-2.14066E-004	-2.40040E-001	5.38144E-001	3.57620E+000	9	...........
	18	0.253333	5.30151E-001	-3.98483E-004	0.00000E+000	-2.11256E-004	-2.40040E-001	5.30355E-001	3.57620E+000	9	...........
	19	0.266667	5.22432E-001	-3.99127E-004	0.00000E+000	-2.08517E-004	-2.40040E-001	5.22631E-001	3.57620E+000	9	...........
	20	0.28	5.14820E-001	-3.99880E-004	0.00000E+000	-2.05867E-004	-2.40040E-001	5.15013E-001	3.57620E+000	9	...........
	21	0.293333	5.07074E-001	-3.98263E-004	0.00000E+000	-2.01949E-004	-2.40040E-001	5.07303E-001	3.57620E+000	9	...........
	22	0.306667	4.99574E-001	-3.98513E-004	0.00000E+000	-1.99087E-004	-2.40040E-001	4.99770E-001	3.57620E+000	9	...........
	23	0.32	4.92165E-001	-3.99023E-004	0.00000E+000	-1.96385E-004	-2.40040E-001	4.92325E-001	3.57620E+000	9	...........
	24	0.333333	4.84783E-001	-3.99319E-004	0.00000E+000	-1.93583E-004	-2.40040E-001	4.84900E-001	3.57620E+000	9	...........
	25	0.346667	4.77533E-001	-3.99697E-004	0.00000E+000	-1.90868E-004	-2.40040E-001	4.77624E-001	3.57620E+000	9	...........
	26	0.36	4.70133E-001	-3.99233E-004	0.00000E+000	-1.87693E-004	-2.40040E-001	4.70218E-001	3.57620E+000	9	...........
	27	0.373333	4.62807E-001	-3.99624E-004	0.00000E+000	-1.84949E-004	-2.40040E-001	4.62895E-001	3.57620E+000	9	...........
	28	0.386667	4.55542E-001	-3.99125E-004	0.00000E+000	-1.81818E-004	-2.40040E-001	4.55626E-001	3.57620E+000	9	...........
	29	0.4	4.48319E-001	-3.99148E-004	0.00000E+000	-1.78946E-004	-2.40040E-001	4.48410E-001	3.57620E+000	9	...........
	30	0.413333	4.41085E-001	-3.97044E-004	0.00000E+000	-1.75130E-004	-2.40040E-001	4.41171E-001	3.57620E+000	9	...........
	31	0.426667	4.33908E-001	-3.98664E-004	0.00000E+000	-1.72983E-004	-2.40040E-001	4.33988E-001	3.57620E+000	9	...........
	32	0.44	4.26719E-001	-3.98847E-004	0.00000E+000	-1.70195E-004	-2.40040E-001	4.26804E-001	3.57620E+000	9	...........
	33	0.453333	4.19629E-001	-3.98626E-004	0.00000E+000	-1.67275E-004	-2.40040E-001	4.19712E-001	3.57620E+000	9	...........
	34	0.466667	4.12668E-001	-3.98737E-004	0.00000E+000	-1.64546E-004	-2.40040E-001	4.12753E-001	3.57620E+000	9	...........
	35	0.48	4.05698E-001	-3.98284E-004	0.00000E+000	-1.61583E-004	-2.40040E-001	4.05778E-001	3.57620E+000	9	...........
	36	0.493333	3.98739E-001	-3.98208E-004	0.00000E+000	-1.58781E-004	-2.40040E-001	3.98810E-001	3.57620E+000	9	...........
	37	0.506667	3.91856E-001	-3.96882E-004	0.00000E+000	-1.55520E-004	-2.40040E-001	3.91921E-001	3.57620E+000	9	...........
	38	0.52	3.84978E-001	-3.99217E-004	0.00000E+000	-1.53690E-004	-2.40040E-001	3.85052E-001	3.57620E+000	9	...........
	39	0.533333	3.78030E-001	-3.98866E-004	0.00000E+000	-1.50783E-004	-2.40040E-001	3.78100E-001	3.57620E+000	9	...........
	40	0.546667	3.71208E-001	-3.98728E-004	0.00000E+000	-1.48011E-004	-2.40040E-001	3.71273E-001	3.57620E+000	9	...........
	41	0.56	3.64451E-001	-3.98416E-004	0.00000E+000	-1.45203E-004	-2.40040E-001	3.64517E-001	3.57620E+000	9	...........
	42	0.573333	3.57818E-001	-3.98830E-004	0.00000E+000	-1.42709E-004	-2.40040E-001	3.57882E-001	3.57620E+000	9	...........
	43	0.586667	3.51115E-001	-3.97462E-004	0.00000E+000	-1.39555E-004	-2.40040E-001	3.51184E-001	3.57620E+000	9	...........
	44	0.6	3.44374E-001	-3.99050E-004	0.00000E+000	-1.37422E-004	-2.40040E-001	3.44436E-001	3.57620E+000	9	...........
	45	0.613333	3.37816E-001	-3.99506E-004	0.00000E+000	-1.34960E-004	-2.40040E-001	3.37878E-001	3.57620E+000	9	...........
	46	0.626667	3.31288E-001	-3.99390E-004	0.00000E+000	-1.32313E-004	-2.40040E-001	3.31343E-001	3.57620E+000	9	...........
	47	0.64	3.24775E-001	-3.98162E-004	0.00000E+000	-1.29313E-004	-2.40040E-001	3.24837E-001	3.57620E+000	9	...........
	48	0.653333	3.18316E-001	-3.98451E-004	0.00000E+000	-1.26834E-004	-2.40040E-001	3.18372E-001	3.57620E+000	9	...........
	49	0.666667	3.11908E-001	-3.98232E-004	0.00000E+000	-1.24212E-004	-2.40040E-001	3.11962E-001	3.57620E+000	9	...........
	50	0.68	3.05535E-001	-3.98751E-004	0.00000E+000	-1.21833E-004	-2.40040E-001	3.05594E-001	3.57620E+000	9	...........
	51	0.693333	2.99121E-001	-3.98985E-004	0.00000E+000	-1.19345E-004	-2.40040E-001	2.99177E-001	3.57620E+000	9	...........
	52	0.706667	2.92836E-001	-3.99078E-004	0.00000E+000	-1.16864E-004	-2.40040E-001	2.92889E-001	3.57620E+000	9	...........
	53	0.72	2.86571E-001	-3.99032E-004	0.00000E+000	-1.14351E-004	-2.40040E-001	2.86625E-001	3.57620E+000	9	...........
	54	0.733333	2.80399E-001	-3.98528E-004	0.00000E+000	-1.11747E-004	-2.40040E-001	2.80453E-001	3.57620E+000	9	...........
	55	0.746667	2.74247E-001	-3.97995E-004	0.00000E+000	-1.09149E-004	-2.40040E-001	2.74297E-001	3.57620E+000	9	...........
	56	0.76	2.68161E-001	-3.98456E-004	0.00000E+000	-1.06850E-004	-2.40040E-001	2.68211E-001	3.57620E+000	9	...........
	57	0.773333	2.62033E-001	-3.99004E-004	0.00000E+000	-1.04552E-004	-2.40040E-001	2.62089E-001	3.57725E+000	9	...........
	58	0.786667	2.55825E-001	-3.98282E-004	0.00000E+000	-1.01891E-004	-2.40040E-001	2.55880E-001	3.57760E+000	9	...........
	59	0.8	2.49751E-001	-4.00664E-004	0.00000E+000	-1.00066E-004	-2.40040E-001	2.49803E-001	3.57760E+000	9	...........
	60	0.813333	2.43746E-001	-4.00220E-004	0.00000E+000	-9.75520E-005	-2.40040E-001	2.43790E-001	3.57760E+000	9	...........
	61	0.826667	2.37770E-001	-3.98703E-004	0.00000E+000	-9.47998E-005	-2.40040E-001	2.37815E-001	3.57760E+000	9	...........
	62	0.84	2.31821E-001	-3.97716E-004	0.00000E+000	-9.21989E-005	-2.40040E-001	2.31858E-001	3.57760E+000	9	...........
	63	0.853333	2.25980E-001	-4.00606E-004	0.00000E+000	-9.05286E-005	-2.40040E-001	2.26021E-001	3.57760E+000	9	...........
	64	0.866667	2.20120E-001	-3.97799E-004	0.00000E+000	-8.75636E-005	-2.40040E-001	2.20163E-001	3.57760E+000	9	...........
	65	0.88	2.14285E-001	-3.98818E-004	0.00000E+000	-8.54606E-005	-2.40040E-001	2.14320E-001	3.57760E+000	9	...........
	66	0.893333	2.08554E-001	-3.98855E-004	0.00000E+000	-8.31827E-005	-2.40040E-001	2.08585E-001	3.57760E+000	9	...........
	67	0.906667	2.02971E-001	-3.98684E-004	0.00000E+000	-8.09214E-005	-2.40040E-001	2.03010E-001	3.57760E+000	9	...........
	68	0.92	1.97251E-001	-3.99448E-004	0.00000E+000	-7.87914E-005	-2.40040E-001	1.97288E-001	3.57760E+000	9	...........
	69	0.933333	1.91570E-001	-4.00061E-004	0.00000E+000	-7.66396E-005	-2.40040E-001	1.91605E-001	3.57760E+000	9	...........
	70	0.946667	1.85892E-001	-3.98825E-004	0.00000E+000	-7.41384E-005	-2.40040E-001	1.85923E-001	3.57760E+000	9	...........
	71	0.96	1.80301E-001	-3.99644E-004	0.00000E+000	-7.20563E-005	-2.40040E-001	1.80337E-001	3.57760E+000	9	...........
	72	0.97333	1.74797E-001	-3.98515E-004	0.00000E+000	-6.96590E-005	-2.40040E-001	1.74826E-001	3.57760E+000	9	...........
	73	0.98667	1.69212E-001	-3.98570E-004	0.00000E+000	-6.74429E-005	-2.40040E-001	1.69246E-001	3.57760E+000	9	...........
	74	1	1.63841E-001	-4.00199E-004	0.00000E+000	-6.55692E-005	-2.40040E-001	1.63864E-001	3.57760E+000	9	...........
	75	1.01333	1.58308E-001	-3.97286E-004	0.00000E+000	-6.28937E-005	-2.40040E-001	1.58332E-001	3.57760E+000	9	...........
	76	1.02667	1.52895E-001	-3.98997E-004	0.00000E+000	-6.10045E-005	-2.40040E-001	1.52921E-001	3.57760E+000	9	...........
	77	1.04	1.47589E-001	-3.99293E-004	0.00000E+000	-5.89313E-005	-2.40040E-001	1.47616E-001	3.57760E+000	9	...........
	78	1.05333	1.42218E-001	-4.00074E-004	0.00000E+000	-5.68978E-005	-2.40040E-001	1.42237E-001	3.57760E+000	9	...........
	79	1.06667	1.36810E-001	-4.00737E-004	0.00000E+000	-5.48246E-005	-2.40040E-001	1.36834E-001	3.57760E+000	9	...........
	80	1.08	1.31584E-001	-3.99745E-004	0.00000E+000	-5.25999E-005	-2.40040E-001	1.31605E-001	3.57760E+000	9	...........
	81	1.09333	1.26368E-001	-3.99223E-004	0.00000E+000	-5.04492E-005	-2.40040E-001	1.26389E-001	3.57760E+000	9	...........
	82	1.10667	1.21185E-001	-3.99174E-004	0.00000E+000	-4.83741E-005	-2.40040E-001	1.21209E-001	3.57760E+000	9	...........
	83	1.12	1.16064E-001	-3.99635E-004	0.00000E+000	-4.63832E-005	-2.40040E-001	1.16091E-001	3.57760E+000	9	...........
	84	1.13333	1.10979E-001	-3.98075E-004	0.00000E+000	-4.41778E-005	-2.40040E-001	1.11003E-001	3.57760E+000	9	...........
	85	1.14667	1.05851E-001	-3.98959E-004	0.00000E+000	-4.22304E-005	-2.40040E-001	1.05869E-001	3.57760E+000	9	...........
	86	1.16	1.00784E-001	-3.98223E-004	0.00000E+000	-4.01346E-005	-2.40040E-001	1.00803E-001	3.57760E+000	9	...........
	87	1.17333	9.57515E-002	-3.99621E-004	0.00000E+000	-3.82643E-005	-2.40040E-001	9.57747E-002	3.57760E+000	9	...........
	88	1.18667	9.07386E-002	-3.99033E-004	0.00000E+000	-3.62077E-005	-2.40040E-001	9.07595E-002	3.57760E+000	9	...........
	89	1.2	8.58531E-002	-3.98906E-004	0.00000E+000	-3.42473E-005	-2.40040E-001	8.58683E-002	3.57760E+000	9	...........
	90	1.21333	8.08272E-002	-3.97998E-004	0.00000E+000	-3.21690E-005	-2.40040E-001	8.08417E-002	3.57760E+000	9	...........
	91	1.22667	7.59149E-002	-3.99304E-004	0.00000E+000	-3.03131E-005	-2.40040E-001	7.59265E-002	3.57760E+000	9	...........
	92	1.24	7.10700E-002	-3.99171E-004	0.00000E+000	-2.83691E-005	-2.40040E-001	7.10861E-002	3.57760E+000	9	...........
	93	1.25333	6.62545E-002	-3.99114E-004	0.00000E+000	-2.64431E-005	-2.40040E-001	6.62659E-002	3.57760E+000	9	...........
	94	1.26667	6.13769E-002	-3.98698E-004	0.00000E+000	-2.44709E-005	-2.40040E-001	6.13913E-002	3.57760E+000	9	...........
	95	1.28	5.65967E-002	-3.99377E-004	0.00000E+000	-2.26034E-005	-2.40040E-001	5.66051E-002	3.57760E+000	9	...........
	96	1.29333	5.17756E-002	-3.98498E-004	0.00000E+000	-2.06325E-005	-2.40040E-001	5.17839E-002	3.57760E+000	9	...........
	97	1.30667	4.69942E-002	-3.97529E-004	0.00000E+000	-1.86815E-005	-2.40040E-001	4.70008E-002	3.57760E+000	9	...........
	98	1.32	4.23721E-002	-4.00507E-004	0.00000E+000	-1.69703E-005	-2.40040E-001	4.23776E-002	3.57760E+000	9	...........
	99	1.33333	3.76154E-002	-3.98281E-004	0.00000E+000	-1.49815E-005	-2.40040E-001	3.76180E-002	3.57760E+000	9	...........
	100	1.34667	3.29349E-002	-3.98910E-004	0.00000E+000	-1.31381E-005	-2.40040E-001	3.29302E-002	3.57760E+000	9	...........
	101	1.36	2.82786E-002	-3.99980E-004	0.00000E+000	-1.13109E-005	-2.40040E-001	2.82774E-002	3.57760E+000	9	...........
	102	1.37333	2.37006E-002	-3.99279E-004	0.00000E+000	-9.46315E-006	-2.40040E-001	2.36936E-002	3.57760E+000	9	...........
	103	1.38667	1.91757E-002	-3.97715E-004	0.00000E+000	-7.62647E-006	-2.40040E-001	1.91639E-002	3.57760E+000	9	...........
	104	1.4	1.45899E-002	-3.99103E-004	0.00000E+000	-5.82287E-006	-2.40040E-001	1.45719E-002	3.57760E+000	9	...........
	105	1.41333	1.00589E-002	-3.99227E-004	0.00000E+000	-4.01579E-006	-2.40040E-001	1.00463E-002	3.57760E+000	9	...........
	106	1.42667	5.45241E-003	-3.98220E-004	0.00000E+000	-2.17126E-006	-2.40040E-001	5.43455E-003	3.57760E+000	9	...........
	107	1.43833	1.22971E-003	-3.99290E-004	0.00000E+000	-4.91009E-007	-2.40040E-001	1.20866E-003	3.57760E+000	9	...........
STARTTIMEOFFSET	QUANT	2062.501	Start Time Offset (s)
