EXPLAIN
TAG	PWR800_DISCHARGE
TITLE	LABEL	PWR Cyclic Charge Discharge (Cell) - Discharge Step	Test &Identifier
DATE	LABEL	12-7-2017	Date
TIME	LABEL	15:00:04	Time
NOTES	NOTES	3	&Notes...
	supercap test cell
	0.4mg
	6M KOH
PSTAT	PSTAT	IFC5000-01520	Potentiostat
CAPACITY	QUANT	1.00000E-003	Capacity (A-hr)
CELLTYPE	SELECTOR	1	&Cell Type
WORKINGCONNECTION	SELECTOR	0	&Working Lead
MAXDISCHARGETIME	VARIABLEANDUNITS	1.00000E+002	s	1.00000E+002	second(s)	Max &Discharge Time
DISCHARGEMODE	MULTIPARAM	0	4.00000E-004	&Discharge Mode	Constant Current	Amp(s)
SAMPLETIME	QUANT	1.00000E-002	Sa&mple Period (s)
DISCHARGESTOPAT1	MULTIPARAM	3	0.00000E+000	Discharge Stop At &1	Voltage < Limit	V
DISCHARGESTOPAT2	MULTIPARAM	0	0.00000E+000	Discharge Stop At &2	None	N/A
AESBHCSELECTOR	TOGGLE	F	Save Both Half Cells
IRCOMP	TOGGLE	F	IR &Measure
EOC	QUANT	0	Open Circuit (V)
SEQUENCER	TOGGLE	TRUE	Run as Sequence
PSTATMODEL	IQUANT	53	Pstat Model
PSTATSECTION	LABEL	IFC5000-01520	Pstat Section
PSTATSERIALNO	LABEL	01520	Pstat Serial Number
CTRLMODE	IQUANT	0	Control Mode
ELECTROMETER	IQUANT	1	RE=0 or CS=1
IESTAB	IQUANT	0	I/E Stability
CASPEED	IQUANT	4	Control Amp Speed
CONVENTION	IQUANT	1	Current Convention
ICHRANGE	IQUANT	2	Ich Range
ICHRANGEMODE	TOGGLE	T	Ich Auto Range
ICHOFFSETENABLE	TOGGLE	F	Ich Offset Enable
ICHOFFSET	QUANT	0	Ich Offset (V)
ICHFILTER	IQUANT	1	Ich Filter
VCHRANGE	IQUANT	2	Vch Range
VCHRANGEMODE	TOGGLE	T	Vch Auto Range
VCHOFFSETENABLE	TOGGLE	F	Vch Offset Enable
VCHOFFSET	QUANT	0	Vch Offset (V)
VCHFILTER	IQUANT	1	Vch Filter
IERANGELOWERLIMIT	IQUANT	9	I/E Range Lower Limit
IERANGEMODE	TOGGLE	F	I/E AutoRange
IERANGE	IQUANT	9	I/E Range
ACHSELECT	IQUANT	1	Ach Select
ACHRANGE	IQUANT	2	Ach Range
ACHOFFSETENABLE	TOGGLE	F	Ach Offset Enable
ACHOFFSET	QUANT	0	Ach Offset (V)
ACHFILTER	IQUANT	1	Ach Filter
CABLEID	IQUANT	14	Cable ID
DCCALDATE	LABEL	5-7-2017	DC Calibration Date
ACCALDATE	LABEL	12/3/2015	AC Calibration Date
FRAMEWORKVERSION	QUANT	7.01	Framework Version
INSTRUMENTVERSION	LABEL	4.00	Instrument Version
CURVE	TABLE	109
	Pt	T	Vf	Im	Vu	Pwr	Sig	Ach	Temp	IERange	Over
	#	s	V	A	V	W	V	V	deg C	#	bits
	0	0.013333	6.93964E-001	-3.98257E-004	0.00000E+000	-2.76376E-004	-2.40040E-001	6.94174E-001	3.57640E+000	9	...........
	1	0.026667	6.81043E-001	-3.98205E-004	0.00000E+000	-2.71195E-004	-2.40040E-001	6.81255E-001	3.57640E+000	9	...........
	2	0.04	6.69709E-001	-3.99785E-004	0.00000E+000	-2.67739E-004	-2.40040E-001	6.69903E-001	3.57640E+000	9	...........
	3	0.053333	6.59288E-001	-4.00696E-004	0.00000E+000	-2.64174E-004	-2.40040E-001	6.59458E-001	3.57640E+000	9	...........
	4	0.066667	6.49588E-001	-3.99592E-004	0.00000E+000	-2.59570E-004	-2.40040E-001	6.49786E-001	3.57640E+000	9	...........
	5	0.08	6.40283E-001	-3.98592E-004	0.00000E+000	-2.55211E-004	-2.40040E-001	6.40471E-001	3.57640E+000	9	...........
	6	0.093333	6.31248E-001	-3.98329E-004	0.00000E+000	-2.51445E-004	-2.40040E-001	6.31453E-001	3.57640E+000	9	...........
	7	0.106667	6.22510E-001	-3.99298E-004	0.00000E+000	-2.48567E-004	-2.40040E-001	6.22662E-001	3.57640E+000	9	...........
	8	0.12	6.13858E-001	-3.98071E-004	0.00000E+000	-2.44359E-004	-2.40040E-001	6.14082E-001	3.57640E+000	9	...........
	9	0.133333	6.05404E-001	-3.99314E-004	0.00000E+000	-2.41746E-004	-2.40040E-001	6.05646E-001	3.57640E+000	9	...........
	10	0.146667	5.97117E-001	-3.98566E-004	0.00000E+000	-2.37990E-004	-2.40040E-001	5.97347E-001	3.57640E+000	9	...........
	11	0.16	5.88870E-001	-3.98740E-004	0.00000E+000	-2.34806E-004	-2.40040E-001	5.89126E-001	3.57640E+000	9	...........
	12	0.173333	5.80741E-001	-3.99815E-004	0.00000E+000	-2.32189E-004	-2.40040E-001	5.80976E-001	3.57640E+000	9	...........
	13	0.186667	5.72646E-001	-3.99177E-004	0.00000E+000	-2.28587E-004	-2.40040E-001	5.72868E-001	3.57640E+000	9	...........
	14	0.2	5.64631E-001	-3.98122E-004	0.00000E+000	-2.24792E-004	-2.40040E-001	5.64880E-001	3.57640E+000	9	...........
	15	0.213333	5.56687E-001	-3.97025E-004	0.00000E+000	-2.21019E-004	-2.40040E-001	5.56942E-001	3.57640E+000	9	...........
	16	0.226667	5.48942E-001	-3.99033E-004	0.00000E+000	-2.19046E-004	-2.40040E-001	5.49167E-001	3.57640E+000	9	...........
	17	0.24	5.41229E-001	-3.99070E-004	0.00000E+000	-2.15988E-004	-2.40040E-001	5.41456E-001	3.57640E+000	9	...........
	18	0.253333	5.33500E-001	-3.98995E-004	0.00000E+000	-2.12864E-004	-2.40040E-001	5.33710E-001	3.57640E+000	9	...........
	19	0.266667	5.25791E-001	-3.99942E-004	0.00000E+000	-2.10286E-004	-2.40040E-001	5.25989E-001	3.57640E+000	9	...........
	20	0.28	5.18194E-001	-3.98946E-004	0.00000E+000	-2.06731E-004	-2.40040E-001	5.18369E-001	3.57640E+000	9	...........
	21	0.293333	5.10666E-001	-3.97289E-004	0.00000E+000	-2.02882E-004	-2.40040E-001	5.10835E-001	3.57640E+000	9	...........
	22	0.306667	5.03107E-001	-3.98537E-004	0.00000E+000	-2.00507E-004	-2.40040E-001	5.03326E-001	3.57640E+000	9	...........
	23	0.32	4.95557E-001	-3.98219E-004	0.00000E+000	-1.97340E-004	-2.40040E-001	4.95753E-001	3.57640E+000	9	...........
	24	0.333333	4.88144E-001	-3.98651E-004	0.00000E+000	-1.94599E-004	-2.40040E-001	4.88335E-001	3.57640E+000	9	...........
	25	0.346667	4.81005E-001	-3.99281E-004	0.00000E+000	-1.92056E-004	-2.40040E-001	4.81101E-001	3.57640E+000	9	...........
	26	0.36	4.73643E-001	-3.97775E-004	0.00000E+000	-1.88403E-004	-2.40040E-001	4.73734E-001	3.57640E+000	9	...........
	27	0.373333	4.66271E-001	-3.98359E-004	0.00000E+000	-1.85743E-004	-2.40040E-001	4.66364E-001	3.57640E+000	9	...........
	28	0.386667	4.58994E-001	-3.98323E-004	0.00000E+000	-1.82828E-004	-2.40040E-001	4.59087E-001	3.57640E+000	9	...........
	29	0.4	4.51798E-001	-3.98892E-004	0.00000E+000	-1.80218E-004	-2.40040E-001	4.51888E-001	3.57640E+000	9	...........
	30	0.413333	4.44528E-001	-3.99486E-004	0.00000E+000	-1.77583E-004	-2.40040E-001	4.44610E-001	3.57640E+000	9	...........
	31	0.426667	4.37341E-001	-3.98373E-004	0.00000E+000	-1.74225E-004	-2.40040E-001	4.37424E-001	3.57640E+000	9	...........
	32	0.44	4.30257E-001	-3.98316E-004	0.00000E+000	-1.71378E-004	-2.40040E-001	4.30340E-001	3.57640E+000	9	...........
	33	0.453333	4.23223E-001	-3.97572E-004	0.00000E+000	-1.68261E-004	-2.40040E-001	4.23307E-001	3.57640E+000	9	...........
	34	0.466667	4.16187E-001	-3.99011E-004	0.00000E+000	-1.66063E-004	-2.40040E-001	4.16268E-001	3.57640E+000	9	...........
	35	0.48	4.09223E-001	-3.99716E-004	0.00000E+000	-1.63573E-004	-2.40040E-001	4.09306E-001	3.57640E+000	9	...........
	36	0.493333	4.02320E-001	-3.99594E-004	0.00000E+000	-1.60765E-004	-2.40040E-001	4.02395E-001	3.57640E+000	9	...........
	37	0.506667	3.95446E-001	-3.98468E-004	0.00000E+000	-1.57572E-004	-2.40040E-001	3.95516E-001	3.57640E+000	9	...........
	38	0.52	3.88572E-001	-3.99617E-004	0.00000E+000	-1.55280E-004	-2.40040E-001	3.88645E-001	3.57640E+000	9	...........
	39	0.533333	3.81749E-001	-3.99257E-004	0.00000E+000	-1.52416E-004	-2.40040E-001	3.81821E-001	3.57640E+000	9	...........
	40	0.546667	3.74960E-001	-3.99649E-004	0.00000E+000	-1.49852E-004	-2.40040E-001	3.75025E-001	3.57640E+000	9	...........
	41	0.56	3.68283E-001	-3.98160E-004	0.00000E+000	-1.46636E-004	-2.40040E-001	3.68351E-001	3.57640E+000	9	...........
	42	0.573333	3.61598E-001	-3.98160E-004	0.00000E+000	-1.43974E-004	-2.40040E-001	3.61671E-001	3.57640E+000	9	...........
	43	0.586667	3.55030E-001	-3.98984E-004	0.00000E+000	-1.41651E-004	-2.40040E-001	3.55095E-001	3.57640E+000	9	...........
	44	0.6	3.48332E-001	-3.98192E-004	0.00000E+000	-1.38703E-004	-2.40040E-001	3.48397E-001	3.57640E+000	9	...........
	45	0.613333	3.41718E-001	-3.98071E-004	0.00000E+000	-1.36028E-004	-2.40040E-001	3.41781E-001	3.57640E+000	9	...........
	46	0.626667	3.35135E-001	-3.97264E-004	0.00000E+000	-1.33137E-004	-2.40040E-001	3.35203E-001	3.57640E+000	9	...........
	47	0.64	3.28604E-001	-3.98789E-004	0.00000E+000	-1.31044E-004	-2.40040E-001	3.28663E-001	3.57640E+000	9	...........
	48	0.653333	3.22159E-001	-3.98989E-004	0.00000E+000	-1.28538E-004	-2.40040E-001	3.22222E-001	3.57640E+000	9	...........
	49	0.666667	3.15664E-001	-3.97497E-004	0.00000E+000	-1.25475E-004	-2.40040E-001	3.15722E-001	3.57640E+000	9	...........
	50	0.68	3.09260E-001	-3.99344E-004	0.00000E+000	-1.23501E-004	-2.40040E-001	3.09321E-001	3.57640E+000	9	...........
	51	0.693333	3.02980E-001	-3.99380E-004	0.00000E+000	-1.21004E-004	-2.40040E-001	3.03039E-001	3.57640E+000	9	...........
	52	0.706667	2.96638E-001	-3.97492E-004	0.00000E+000	-1.17911E-004	-2.40040E-001	2.96692E-001	3.57640E+000	9	...........
	53	0.72	2.90386E-001	-3.98259E-004	0.00000E+000	-1.15649E-004	-2.40040E-001	2.90439E-001	3.57640E+000	9	...........
	54	0.733333	2.84196E-001	-3.97255E-004	0.00000E+000	-1.12898E-004	-2.40040E-001	2.84254E-001	3.57640E+000	9	...........
	55	0.746667	2.78044E-001	-3.99475E-004	0.00000E+000	-1.11071E-004	-2.40040E-001	2.78096E-001	3.57640E+000	9	...........
	56	0.76	2.71931E-001	-3.99389E-004	0.00000E+000	-1.08606E-004	-2.40040E-001	2.71980E-001	3.57640E+000	9	...........
	57	0.773333	2.65728E-001	-3.98523E-004	0.00000E+000	-1.05899E-004	-2.40040E-001	2.65778E-001	3.57640E+000	9	...........
	58	0.786667	2.59669E-001	-3.98643E-004	0.00000E+000	-1.03515E-004	-2.40040E-001	2.59720E-001	3.57640E+000	9	...........
	59	0.8	2.53681E-001	-3.99590E-004	0.00000E+000	-1.01368E-004	-2.40040E-001	2.53730E-001	3.57640E+000	9	...........
	60	0.813333	2.47706E-001	-3.99046E-004	0.00000E+000	-9.88460E-005	-2.40040E-001	2.47754E-001	3.57640E+000	9	...........
	61	0.826667	2.41759E-001	-3.99082E-004	0.00000E+000	-9.64817E-005	-2.40040E-001	2.41803E-001	3.57640E+000	9	...........
	62	0.84	2.35887E-001	-3.98052E-004	0.00000E+000	-9.38952E-005	-2.40040E-001	2.35930E-001	3.57640E+000	9	...........
	63	0.853333	2.30025E-001	-3.98509E-004	0.00000E+000	-9.16672E-005	-2.40040E-001	2.30066E-001	3.57640E+000	9	...........
	64	0.866667	2.24178E-001	-3.98679E-004	0.00000E+000	-8.93751E-005	-2.40040E-001	2.24222E-001	3.57721E+000	9	...........
	65	0.88	2.18397E-001	-3.97642E-004	0.00000E+000	-8.68440E-005	-2.40040E-001	2.18442E-001	3.57770E+000	9	...........
	66	0.893333	2.12618E-001	-3.98879E-004	0.00000E+000	-8.48089E-005	-2.40040E-001	2.12659E-001	3.57770E+000	9	...........
	67	0.906667	2.06958E-001	-3.98686E-004	0.00000E+000	-8.25115E-005	-2.40040E-001	2.06993E-001	3.57770E+000	9	...........
	68	0.92	2.01255E-001	-3.98562E-004	0.00000E+000	-8.02126E-005	-2.40040E-001	2.01297E-001	3.57770E+000	9	...........
	69	0.933333	1.95642E-001	-3.98314E-004	0.00000E+000	-7.79270E-005	-2.40040E-001	1.95685E-001	3.57770E+000	9	...........
	70	0.946667	1.90071E-001	-3.99331E-004	0.00000E+000	-7.59014E-005	-2.40040E-001	1.90101E-001	3.57770E+000	9	...........
	71	0.96	1.84507E-001	-3.98541E-004	0.00000E+000	-7.35334E-005	-2.40040E-001	1.84540E-001	3.57770E+000	9	...........
	72	0.97333	1.78925E-001	-3.98498E-004	0.00000E+000	-7.13012E-005	-2.40040E-001	1.78956E-001	3.57770E+000	9	...........
	73	0.98667	1.73411E-001	-3.98187E-004	0.00000E+000	-6.90499E-005	-2.40040E-001	1.73440E-001	3.57770E+000	9	...........
	74	1	1.67934E-001	-3.98803E-004	0.00000E+000	-6.69725E-005	-2.40040E-001	1.67963E-001	3.57770E+000	9	...........
	75	1.01333	1.62492E-001	-3.99836E-004	0.00000E+000	-6.49703E-005	-2.40040E-001	1.62520E-001	3.57770E+000	9	...........
	76	1.02667	1.57067E-001	-3.99873E-004	0.00000E+000	-6.28068E-005	-2.40040E-001	1.57097E-001	3.57770E+000	9	...........
	77	1.04	1.51686E-001	-3.99178E-004	0.00000E+000	-6.05496E-005	-2.40040E-001	1.51711E-001	3.57770E+000	9	...........
	78	1.05333	1.46345E-001	-3.99285E-004	0.00000E+000	-5.84334E-005	-2.40040E-001	1.46373E-001	3.57770E+000	9	...........
	79	1.06667	1.41094E-001	-3.98683E-004	0.00000E+000	-5.62516E-005	-2.40040E-001	1.41117E-001	3.57770E+000	9	...........
	80	1.08	1.35742E-001	-3.98806E-004	0.00000E+000	-5.41348E-005	-2.40040E-001	1.35763E-001	3.57770E+000	9	...........
	81	1.09333	1.30543E-001	-3.98930E-004	0.00000E+000	-5.20777E-005	-2.40040E-001	1.30564E-001	3.57770E+000	9	...........
	82	1.10667	1.25355E-001	-3.99073E-004	0.00000E+000	-5.00260E-005	-2.40040E-001	1.25372E-001	3.57770E+000	9	...........
	83	1.12	1.20144E-001	-3.99048E-004	0.00000E+000	-4.79434E-005	-2.40040E-001	1.20161E-001	3.57770E+000	9	...........
	84	1.13333	1.14986E-001	-3.96809E-004	0.00000E+000	-4.56276E-005	-2.40040E-001	1.14999E-001	3.57770E+000	9	...........
	85	1.14667	1.09927E-001	-3.99066E-004	0.00000E+000	-4.38682E-005	-2.40040E-001	1.09941E-001	3.57770E+000	9	...........
	86	1.16	1.04844E-001	-3.99072E-004	0.00000E+000	-4.18403E-005	-2.40040E-001	1.04857E-001	3.57770E+000	9	...........
	87	1.17333	9.96895E-002	-3.98301E-004	0.00000E+000	-3.97064E-005	-2.40040E-001	9.97039E-002	3.57770E+000	9	...........
	88	1.18667	9.46595E-002	-3.99429E-004	0.00000E+000	-3.78098E-005	-2.40040E-001	9.46689E-002	3.57770E+000	9	...........
	89	1.2	8.96929E-002	-3.99741E-004	0.00000E+000	-3.58539E-005	-2.40040E-001	8.97106E-002	3.57770E+000	9	...........
	90	1.21333	8.47458E-002	-3.99123E-004	0.00000E+000	-3.38240E-005	-2.40040E-001	8.47564E-002	3.57770E+000	9	...........
	91	1.22667	7.97379E-002	-3.97844E-004	0.00000E+000	-3.17232E-005	-2.40040E-001	7.97481E-002	3.57770E+000	9	...........
	92	1.24	7.49209E-002	-3.98303E-004	0.00000E+000	-2.98412E-005	-2.40040E-001	7.49287E-002	3.57770E+000	9	...........
	93	1.25333	7.00049E-002	-3.99439E-004	0.00000E+000	-2.79627E-005	-2.40040E-001	7.00024E-002	3.57770E+000	9	...........
	94	1.26667	6.50811E-002	-3.99542E-004	0.00000E+000	-2.60026E-005	-2.40040E-001	6.50847E-002	3.57770E+000	9	...........
	95	1.28	6.02771E-002	-3.99147E-004	0.00000E+000	-2.40594E-005	-2.40040E-001	6.02799E-002	3.57770E+000	9	...........
	96	1.29333	5.55563E-002	-3.99090E-004	0.00000E+000	-2.21719E-005	-2.40040E-001	5.55590E-002	3.57770E+000	9	...........
	97	1.30667	5.08407E-002	-3.97762E-004	0.00000E+000	-2.02225E-005	-2.40040E-001	5.08413E-002	3.57770E+000	9	...........
	98	1.32	4.60444E-002	-3.98693E-004	0.00000E+000	-1.83576E-005	-2.40040E-001	4.60459E-002	3.57770E+000	9	...........
	99	1.33333	4.13569E-002	-3.98685E-004	0.00000E+000	-1.64884E-005	-2.40040E-001	4.13581E-002	3.57770E+000	9	...........
	100	1.34667	3.67051E-002	-3.98694E-004	0.00000E+000	-1.46341E-005	-2.40040E-001	3.67105E-002	3.57770E+000	9	...........
	101	1.36	3.21195E-002	-3.98915E-004	0.00000E+000	-1.28129E-005	-2.40040E-001	3.21120E-002	3.57770E+000	9	...........
	102	1.37333	2.75034E-002	-3.97872E-004	0.00000E+000	-1.09428E-005	-2.40040E-001	2.75014E-002	3.57770E+000	9	...........
	103	1.38667	2.29384E-002	-3.98567E-004	0.00000E+000	-9.14250E-006	-2.40040E-001	2.29266E-002	3.57770E+000	9	...........
	104	1.4	1.84277E-002	-3.99434E-004	0.00000E+000	-7.36067E-006	-2.40040E-001	1.84162E-002	3.57770E+000	9	...........
	105	1.41333	1.37976E-002	-3.98508E-004	0.00000E+000	-5.49846E-006	-2.40040E-001	1.37891E-002	3.57770E+000	9	...........
	106	1.42667	9.26035E-003	-3.99558E-004	0.00000E+000	-3.70005E-006	-2.40040E-001	9.24579E-003	3.57770E+000	9	...........
	107	1.44	4.78584E-003	-3.98618E-004	0.00000E+000	-1.90772E-006	-2.40040E-001	4.76772E-003	3.57770E+000	9	...........
	108	1.45	9.14307E-004	-3.99411E-004	0.00000E+000	-3.65184E-007	-2.40040E-001	8.94887E-004	3.57770E+000	9	...........
STARTTIMEOFFSET	QUANT	1977.116	Start Time Offset (s)
