EXPLAIN
TAG	PWR800_DISCHARGE
TITLE	LABEL	PWR Cyclic Charge Discharge (Cell) - Discharge Step	Test &Identifier
DATE	LABEL	12-7-2017	Date
TIME	LABEL	14:55:46	Time
NOTES	NOTES	3	&Notes...
	supercap test cell
	0.4mg
	6M KOH
PSTAT	PSTAT	IFC5000-01520	Potentiostat
CAPACITY	QUANT	1.00000E-003	Capacity (A-hr)
CELLTYPE	SELECTOR	1	&Cell Type
WORKINGCONNECTION	SELECTOR	0	&Working Lead
MAXDISCHARGETIME	VARIABLEANDUNITS	1.00000E+002	s	1.00000E+002	second(s)	Max &Discharge Time
DISCHARGEMODE	MULTIPARAM	0	4.00000E-004	&Discharge Mode	Constant Current	Amp(s)
SAMPLETIME	QUANT	1.00000E-002	Sa&mple Period (s)
DISCHARGESTOPAT1	MULTIPARAM	3	0.00000E+000	Discharge Stop At &1	Voltage < Limit	V
DISCHARGESTOPAT2	MULTIPARAM	0	0.00000E+000	Discharge Stop At &2	None	N/A
AESBHCSELECTOR	TOGGLE	F	Save Both Half Cells
IRCOMP	TOGGLE	F	IR &Measure
EOC	QUANT	0	Open Circuit (V)
SEQUENCER	TOGGLE	TRUE	Run as Sequence
PSTATMODEL	IQUANT	53	Pstat Model
PSTATSECTION	LABEL	IFC5000-01520	Pstat Section
PSTATSERIALNO	LABEL	01520	Pstat Serial Number
CTRLMODE	IQUANT	0	Control Mode
ELECTROMETER	IQUANT	1	RE=0 or CS=1
IESTAB	IQUANT	0	I/E Stability
CASPEED	IQUANT	4	Control Amp Speed
CONVENTION	IQUANT	1	Current Convention
ICHRANGE	IQUANT	2	Ich Range
ICHRANGEMODE	TOGGLE	T	Ich Auto Range
ICHOFFSETENABLE	TOGGLE	F	Ich Offset Enable
ICHOFFSET	QUANT	0	Ich Offset (V)
ICHFILTER	IQUANT	1	Ich Filter
VCHRANGE	IQUANT	2	Vch Range
VCHRANGEMODE	TOGGLE	T	Vch Auto Range
VCHOFFSETENABLE	TOGGLE	F	Vch Offset Enable
VCHOFFSET	QUANT	0	Vch Offset (V)
VCHFILTER	IQUANT	1	Vch Filter
IERANGELOWERLIMIT	IQUANT	9	I/E Range Lower Limit
IERANGEMODE	TOGGLE	F	I/E AutoRange
IERANGE	IQUANT	9	I/E Range
ACHSELECT	IQUANT	1	Ach Select
ACHRANGE	IQUANT	2	Ach Range
ACHOFFSETENABLE	TOGGLE	F	Ach Offset Enable
ACHOFFSET	QUANT	0	Ach Offset (V)
ACHFILTER	IQUANT	1	Ach Filter
CABLEID	IQUANT	14	Cable ID
DCCALDATE	LABEL	5-7-2017	DC Calibration Date
ACCALDATE	LABEL	12/3/2015	AC Calibration Date
FRAMEWORKVERSION	QUANT	7.01	Framework Version
INSTRUMENTVERSION	LABEL	4.00	Instrument Version
CURVE	TABLE	111
	Pt	T	Vf	Im	Vu	Pwr	Sig	Ach	Temp	IERange	Over
	#	s	V	A	V	W	V	V	deg C	#	bits
	0	0.013333	6.96862E-001	-3.98547E-004	0.00000E+000	-2.77732E-004	-2.40040E-001	6.97123E-001	3.57620E+000	9	...........
	1	0.026667	6.84211E-001	-3.98846E-004	0.00000E+000	-2.72895E-004	-2.40040E-001	6.84460E-001	3.57620E+000	9	...........
	2	0.04	6.73186E-001	-3.99344E-004	0.00000E+000	-2.68833E-004	-2.40040E-001	6.73413E-001	3.57620E+000	9	...........
	3	0.053333	6.62943E-001	-3.98477E-004	0.00000E+000	-2.64167E-004	-2.40040E-001	6.63204E-001	3.57620E+000	9	...........
	4	0.066667	6.53347E-001	-3.98209E-004	0.00000E+000	-2.60169E-004	-2.40040E-001	6.53573E-001	3.57620E+000	9	...........
	5	0.08	6.44127E-001	-3.98574E-004	0.00000E+000	-2.56732E-004	-2.40040E-001	6.44339E-001	3.57620E+000	9	...........
	6	0.093333	6.35192E-001	-3.98958E-004	0.00000E+000	-2.53415E-004	-2.40040E-001	6.35408E-001	3.57620E+000	9	...........
	7	0.106667	6.26590E-001	-3.98260E-004	0.00000E+000	-2.49546E-004	-2.40040E-001	6.26789E-001	3.57620E+000	9	...........
	8	0.12	6.18157E-001	-3.99251E-004	0.00000E+000	-2.46800E-004	-2.40040E-001	6.18361E-001	3.57620E+000	9	...........
	9	0.133333	6.09782E-001	-3.98852E-004	0.00000E+000	-2.43213E-004	-2.40040E-001	6.10038E-001	3.57620E+000	9	...........
	10	0.146667	6.01653E-001	-3.98588E-004	0.00000E+000	-2.39812E-004	-2.40040E-001	6.01902E-001	3.57620E+000	9	...........
	11	0.16	5.93523E-001	-3.98951E-004	0.00000E+000	-2.36787E-004	-2.40040E-001	5.93758E-001	3.57620E+000	9	...........
	12	0.173333	5.85438E-001	-3.98134E-004	0.00000E+000	-2.33083E-004	-2.40040E-001	5.85638E-001	3.57620E+000	9	...........
	13	0.186667	5.77489E-001	-3.99226E-004	0.00000E+000	-2.30549E-004	-2.40040E-001	5.77700E-001	3.57620E+000	9	...........
	14	0.2	5.69727E-001	-3.99143E-004	0.00000E+000	-2.27402E-004	-2.40040E-001	5.69935E-001	3.57620E+000	9	...........
	15	0.213333	5.61879E-001	-4.00086E-004	0.00000E+000	-2.24800E-004	-2.40040E-001	5.62120E-001	3.57620E+000	9	...........
	16	0.226667	5.54147E-001	-3.99707E-004	0.00000E+000	-2.21497E-004	-2.40040E-001	5.54354E-001	3.57620E+000	9	...........
	17	0.24	5.46491E-001	-3.99183E-004	0.00000E+000	-2.18150E-004	-2.40040E-001	5.46702E-001	3.57620E+000	9	...........
	18	0.253333	5.38831E-001	-4.00000E-004	0.00000E+000	-2.15532E-004	-2.40040E-001	5.39024E-001	3.57620E+000	9	...........
	19	0.266667	5.31154E-001	-3.97625E-004	0.00000E+000	-2.11200E-004	-2.40040E-001	5.31380E-001	3.57620E+000	9	...........
	20	0.28	5.23575E-001	-3.98308E-004	0.00000E+000	-2.08544E-004	-2.40040E-001	5.23811E-001	3.57620E+000	9	...........
	21	0.293333	5.16113E-001	-3.98927E-004	0.00000E+000	-2.05892E-004	-2.40040E-001	5.16290E-001	3.57620E+000	9	...........
	22	0.306667	5.08571E-001	-3.99268E-004	0.00000E+000	-2.03056E-004	-2.40040E-001	5.08789E-001	3.57620E+000	9	...........
	23	0.32	5.01143E-001	-3.99032E-004	0.00000E+000	-1.99972E-004	-2.40040E-001	5.01361E-001	3.57620E+000	9	...........
	24	0.333333	4.93794E-001	-3.98793E-004	0.00000E+000	-1.96921E-004	-2.40040E-001	4.93991E-001	3.57620E+000	9	...........
	25	0.346667	4.86532E-001	-3.98840E-004	0.00000E+000	-1.94048E-004	-2.40040E-001	4.86685E-001	3.57620E+000	9	...........
	26	0.36	4.79490E-001	-3.99341E-004	0.00000E+000	-1.91480E-004	-2.40040E-001	4.79582E-001	3.57620E+000	9	...........
	27	0.373333	4.72252E-001	-3.98587E-004	0.00000E+000	-1.88234E-004	-2.40040E-001	4.72351E-001	3.57620E+000	9	...........
	28	0.386667	4.65081E-001	-3.98238E-004	0.00000E+000	-1.85213E-004	-2.40040E-001	4.65173E-001	3.57620E+000	9	...........
	29	0.4	4.57913E-001	-3.99100E-004	0.00000E+000	-1.82753E-004	-2.40040E-001	4.58004E-001	3.57620E+000	9	...........
	30	0.413333	4.50831E-001	-3.97961E-004	0.00000E+000	-1.79413E-004	-2.40040E-001	4.50922E-001	3.57620E+000	9	...........
	31	0.426667	4.43704E-001	-3.99447E-004	0.00000E+000	-1.77236E-004	-2.40040E-001	4.43788E-001	3.57620E+000	9	...........
	32	0.44	4.36720E-001	-3.99628E-004	0.00000E+000	-1.74526E-004	-2.40040E-001	4.36806E-001	3.57620E+000	9	...........
	33	0.453333	4.29771E-001	-3.99913E-004	0.00000E+000	-1.71871E-004	-2.40040E-001	4.29857E-001	3.57620E+000	9	...........
	34	0.466667	4.22865E-001	-4.00127E-004	0.00000E+000	-1.69200E-004	-2.40040E-001	4.22951E-001	3.57620E+000	9	...........
	35	0.48	4.15908E-001	-3.99597E-004	0.00000E+000	-1.66196E-004	-2.40040E-001	4.15998E-001	3.57620E+000	9	...........
	36	0.493333	4.08945E-001	-3.99557E-004	0.00000E+000	-1.63397E-004	-2.40040E-001	4.09020E-001	3.57620E+000	9	...........
	37	0.506667	4.02078E-001	-3.99055E-004	0.00000E+000	-1.60451E-004	-2.40040E-001	4.02151E-001	3.57620E+000	9	...........
	38	0.52	3.95279E-001	-3.98654E-004	0.00000E+000	-1.57580E-004	-2.40040E-001	3.95353E-001	3.57620E+000	9	...........
	39	0.533333	3.88525E-001	-3.98753E-004	0.00000E+000	-1.54925E-004	-2.40040E-001	3.88598E-001	3.57620E+000	9	...........
	40	0.546667	3.81827E-001	-3.99053E-004	0.00000E+000	-1.52369E-004	-2.40040E-001	3.81901E-001	3.57620E+000	9	...........
	41	0.56	3.75101E-001	-3.98737E-004	0.00000E+000	-1.49567E-004	-2.40040E-001	3.75170E-001	3.57620E+000	9	...........
	42	0.573333	3.68354E-001	-3.99099E-004	0.00000E+000	-1.47010E-004	-2.40040E-001	3.68422E-001	3.57620E+000	9	...........
	43	0.586667	3.61858E-001	-3.99672E-004	0.00000E+000	-1.44624E-004	-2.40040E-001	3.61930E-001	3.57620E+000	9	...........
	44	0.6	3.55282E-001	-3.98700E-004	0.00000E+000	-1.41651E-004	-2.40040E-001	3.55346E-001	3.57620E+000	9	...........
	45	0.613333	3.48788E-001	-3.98686E-004	0.00000E+000	-1.39057E-004	-2.40040E-001	3.48857E-001	3.57620E+000	9	...........
	46	0.626667	3.42287E-001	-3.97834E-004	0.00000E+000	-1.36174E-004	-2.40040E-001	3.42349E-001	3.57620E+000	9	...........
	47	0.64	3.35842E-001	-3.98758E-004	0.00000E+000	-1.33920E-004	-2.40040E-001	3.35903E-001	3.57620E+000	9	...........
	48	0.653333	3.29408E-001	-3.98272E-004	0.00000E+000	-1.31194E-004	-2.40040E-001	3.29472E-001	3.57620E+000	9	...........
	49	0.666667	3.23000E-001	-3.99732E-004	0.00000E+000	-1.29114E-004	-2.40040E-001	3.23063E-001	3.57620E+000	9	...........
	50	0.68	3.16708E-001	-3.99327E-004	0.00000E+000	-1.26470E-004	-2.40040E-001	3.16772E-001	3.57620E+000	9	...........
	51	0.693333	3.10435E-001	-3.98085E-004	0.00000E+000	-1.23580E-004	-2.40040E-001	3.10496E-001	3.57620E+000	9	...........
	52	0.706667	3.04201E-001	-3.98677E-004	0.00000E+000	-1.21278E-004	-2.40040E-001	3.04263E-001	3.57620E+000	9	...........
	53	0.72	2.98011E-001	-3.98076E-004	0.00000E+000	-1.18631E-004	-2.40040E-001	2.98070E-001	3.57620E+000	9	...........
	54	0.733333	2.91772E-001	-3.98602E-004	0.00000E+000	-1.16301E-004	-2.40040E-001	2.91835E-001	3.57620E+000	9	...........
	55	0.746667	2.85647E-001	-4.00723E-004	0.00000E+000	-1.14465E-004	-2.40040E-001	2.85706E-001	3.57620E+000	9	...........
	56	0.76	2.79599E-001	-3.98777E-004	0.00000E+000	-1.11498E-004	-2.40040E-001	2.79659E-001	3.57620E+000	9	...........
	57	0.773333	2.73547E-001	-3.98582E-004	0.00000E+000	-1.09031E-004	-2.40040E-001	2.73605E-001	3.57620E+000	9	...........
	58	0.786667	2.67533E-001	-3.98182E-004	0.00000E+000	-1.06527E-004	-2.40040E-001	2.67584E-001	3.57620E+000	9	...........
	59	0.8	2.61544E-001	-3.97637E-004	0.00000E+000	-1.04000E-004	-2.40040E-001	2.61600E-001	3.57620E+000	9	...........
	60	0.813333	2.55566E-001	-3.98131E-004	0.00000E+000	-1.01749E-004	-2.40040E-001	2.55619E-001	3.57620E+000	9	...........
	61	0.826667	2.49652E-001	-3.98178E-004	0.00000E+000	-9.94059E-005	-2.40040E-001	2.49704E-001	3.57620E+000	9	...........
	62	0.84	2.43817E-001	-3.98270E-004	0.00000E+000	-9.71048E-005	-2.40040E-001	2.43862E-001	3.57620E+000	9	...........
	63	0.853333	2.37974E-001	-3.99581E-004	0.00000E+000	-9.50899E-005	-2.40040E-001	2.38020E-001	3.57620E+000	9	...........
	64	0.866667	2.32169E-001	-3.98630E-004	0.00000E+000	-9.25497E-005	-2.40040E-001	2.32215E-001	3.57620E+000	9	...........
	65	0.88	2.26364E-001	-3.99240E-004	0.00000E+000	-9.03734E-005	-2.40040E-001	2.26401E-001	3.57620E+000	9	...........
	66	0.893333	2.20600E-001	-3.98109E-004	0.00000E+000	-8.78230E-005	-2.40040E-001	2.20640E-001	3.57620E+000	9	...........
	67	0.906667	2.14860E-001	-3.97965E-004	0.00000E+000	-8.55070E-005	-2.40040E-001	2.14902E-001	3.57620E+000	9	...........
	68	0.92	2.09256E-001	-3.98706E-004	0.00000E+000	-8.34317E-005	-2.40040E-001	2.09290E-001	3.57620E+000	9	...........
	69	0.933333	2.03606E-001	-3.99642E-004	0.00000E+000	-8.13695E-005	-2.40040E-001	2.03644E-001	3.57620E+000	9	...........
	70	0.946667	1.98019E-001	-3.98675E-004	0.00000E+000	-7.89452E-005	-2.40040E-001	1.98057E-001	3.57620E+000	9	...........
	71	0.96	1.92477E-001	-3.99145E-004	0.00000E+000	-7.68262E-005	-2.40040E-001	1.92511E-001	3.57620E+000	9	...........
	72	0.97333	1.86976E-001	-3.98849E-004	0.00000E+000	-7.45753E-005	-2.40040E-001	1.87012E-001	3.57620E+000	9	...........
	73	0.98667	1.81492E-001	-4.00846E-004	0.00000E+000	-7.27502E-005	-2.40040E-001	1.81527E-001	3.57620E+000	9	...........
	74	1	1.76102E-001	-3.98302E-004	0.00000E+000	-7.01416E-005	-2.40040E-001	1.76134E-001	3.57620E+000	9	...........
	75	1.01333	1.70781E-001	-3.99796E-004	0.00000E+000	-6.82774E-005	-2.40040E-001	1.70811E-001	3.57620E+000	9	...........
	76	1.02667	1.65412E-001	-3.98868E-004	0.00000E+000	-6.59776E-005	-2.40040E-001	1.65440E-001	3.57620E+000	9	...........
	77	1.04	1.60018E-001	-3.99367E-004	0.00000E+000	-6.39060E-005	-2.40040E-001	1.60046E-001	3.57620E+000	9	...........
	78	1.05333	1.54664E-001	-3.99189E-004	0.00000E+000	-6.17400E-005	-2.40040E-001	1.54687E-001	3.57620E+000	9	...........
	79	1.06667	1.49346E-001	-3.99690E-004	0.00000E+000	-5.96919E-005	-2.40040E-001	1.49373E-001	3.57620E+000	9	...........
	80	1.08	1.44108E-001	-3.99094E-004	0.00000E+000	-5.75126E-005	-2.40040E-001	1.44129E-001	3.57620E+000	9	...........
	81	1.09333	1.38992E-001	-3.99066E-004	0.00000E+000	-5.54667E-005	-2.40040E-001	1.39015E-001	3.57620E+000	9	...........
	82	1.10667	1.33767E-001	-3.99976E-004	0.00000E+000	-5.35037E-005	-2.40040E-001	1.33790E-001	3.57620E+000	9	...........
	83	1.12	1.28600E-001	-3.97971E-004	0.00000E+000	-5.11792E-005	-2.40040E-001	1.28621E-001	3.57620E+000	9	...........
	84	1.13333	1.23515E-001	-3.98180E-004	0.00000E+000	-4.91812E-005	-2.40040E-001	1.23536E-001	3.57620E+000	9	...........
	85	1.14667	1.18464E-001	-3.97845E-004	0.00000E+000	-4.71301E-005	-2.40040E-001	1.18484E-001	3.57620E+000	9	...........
	86	1.16	1.13357E-001	-3.97885E-004	0.00000E+000	-4.51031E-005	-2.40040E-001	1.13374E-001	3.57620E+000	9	...........
	87	1.17333	1.08275E-001	-3.98225E-004	0.00000E+000	-4.31178E-005	-2.40040E-001	1.08291E-001	3.57620E+000	9	...........
	88	1.18667	1.03321E-001	-3.99462E-004	0.00000E+000	-4.12729E-005	-2.40040E-001	1.03340E-001	3.57620E+000	9	...........
	89	1.2	9.83427E-002	-3.99082E-004	0.00000E+000	-3.92468E-005	-2.40040E-001	9.83592E-002	3.57620E+000	9	...........
	90	1.21333	9.34637E-002	-3.97613E-004	0.00000E+000	-3.71624E-005	-2.40040E-001	9.34783E-002	3.57620E+000	9	...........
	91	1.22667	8.84333E-002	-3.97989E-004	0.00000E+000	-3.51955E-005	-2.40040E-001	8.84528E-002	3.57620E+000	9	...........
	92	1.24	8.35165E-002	-3.99595E-004	0.00000E+000	-3.33728E-005	-2.40040E-001	8.35379E-002	3.57620E+000	9	...........
	93	1.25333	7.86342E-002	-3.99018E-004	0.00000E+000	-3.13764E-005	-2.40040E-001	7.86415E-002	3.57620E+000	9	...........
	94	1.26667	7.37974E-002	-3.98971E-004	0.00000E+000	-2.94430E-005	-2.40040E-001	7.38071E-002	3.57620E+000	9	...........
	95	1.28	6.90145E-002	-3.99241E-004	0.00000E+000	-2.75534E-005	-2.40040E-001	6.90260E-002	3.57620E+000	9	...........
	96	1.29333	6.42396E-002	-3.98965E-004	0.00000E+000	-2.56293E-005	-2.40040E-001	6.42424E-002	3.57620E+000	9	...........
	97	1.30667	5.95279E-002	-3.98408E-004	0.00000E+000	-2.37164E-005	-2.40040E-001	5.95329E-002	3.57620E+000	9	...........
	98	1.32	5.47842E-002	-3.99539E-004	0.00000E+000	-2.18884E-005	-2.40040E-001	5.47863E-002	3.57620E+000	9	...........
	99	1.33333	5.00757E-002	-3.99549E-004	0.00000E+000	-2.00077E-005	-2.40040E-001	5.00783E-002	3.57620E+000	9	...........
	100	1.34667	4.54038E-002	-3.98632E-004	0.00000E+000	-1.80994E-005	-2.40040E-001	4.54104E-002	3.57620E+000	9	...........
	101	1.36	4.08018E-002	-3.98641E-004	0.00000E+000	-1.62653E-005	-2.40040E-001	4.08068E-002	3.57620E+000	9	...........
	102	1.37333	3.61734E-002	-3.97766E-004	0.00000E+000	-1.43886E-005	-2.40040E-001	3.61753E-002	3.57620E+000	9	...........
	103	1.38667	3.14778E-002	-3.97675E-004	0.00000E+000	-1.25179E-005	-2.40040E-001	3.14750E-002	3.57620E+000	9	...........
	104	1.4	2.68700E-002	-3.97269E-004	0.00000E+000	-1.06746E-005	-2.40040E-001	2.68666E-002	3.57620E+000	9	...........
	105	1.41333	2.23535E-002	-3.99100E-004	0.00000E+000	-8.92129E-006	-2.40040E-001	2.23471E-002	3.57620E+000	9	...........
	106	1.42667	1.79164E-002	-3.98943E-004	0.00000E+000	-7.14760E-006	-2.40040E-001	1.79062E-002	3.57672E+000	9	...........
	107	1.44	1.35124E-002	-3.98855E-004	0.00000E+000	-5.38949E-006	-2.40040E-001	1.35058E-002	3.57680E+000	9	...........
	108	1.45333	9.03954E-003	-3.98038E-004	0.00000E+000	-3.59808E-006	-2.40040E-001	9.02534E-003	3.57680E+000	9	...........
	109	1.46667	4.55984E-003	-3.98159E-004	0.00000E+000	-1.81554E-006	-2.40040E-001	4.54541E-003	3.57680E+000	9	...........
	110	1.475	9.67312E-004	-3.99558E-004	0.00000E+000	-3.86497E-007	-2.40040E-001	9.48386E-004	3.57680E+000	9	...........
STARTTIMEOFFSET	QUANT	1774.281	Start Time Offset (s)
