EXPLAIN
TAG	PWR800_DISCHARGE
TITLE	LABEL	PWR Cyclic Charge Discharge (Cell) - Discharge Step	Test &Identifier
DATE	LABEL	12-7-2017	Date
TIME	LABEL	14:49:30	Time
NOTES	NOTES	3	&Notes...
	supercap test cell
	0.4mg
	6M KOH
PSTAT	PSTAT	IFC5000-01520	Potentiostat
CAPACITY	QUANT	1.00000E-003	Capacity (A-hr)
CELLTYPE	SELECTOR	1	&Cell Type
WORKINGCONNECTION	SELECTOR	0	&Working Lead
MAXDISCHARGETIME	VARIABLEANDUNITS	1.00000E+002	s	1.00000E+002	second(s)	Max &Discharge Time
DISCHARGEMODE	MULTIPARAM	0	4.00000E-004	&Discharge Mode	Constant Current	Amp(s)
SAMPLETIME	QUANT	1.00000E-002	Sa&mple Period (s)
DISCHARGESTOPAT1	MULTIPARAM	3	0.00000E+000	Discharge Stop At &1	Voltage < Limit	V
DISCHARGESTOPAT2	MULTIPARAM	0	0.00000E+000	Discharge Stop At &2	None	N/A
AESBHCSELECTOR	TOGGLE	F	Save Both Half Cells
IRCOMP	TOGGLE	F	IR &Measure
EOC	QUANT	0	Open Circuit (V)
SEQUENCER	TOGGLE	TRUE	Run as Sequence
PSTATMODEL	IQUANT	53	Pstat Model
PSTATSECTION	LABEL	IFC5000-01520	Pstat Section
PSTATSERIALNO	LABEL	01520	Pstat Serial Number
CTRLMODE	IQUANT	0	Control Mode
ELECTROMETER	IQUANT	1	RE=0 or CS=1
IESTAB	IQUANT	0	I/E Stability
CASPEED	IQUANT	4	Control Amp Speed
CONVENTION	IQUANT	1	Current Convention
ICHRANGE	IQUANT	2	Ich Range
ICHRANGEMODE	TOGGLE	T	Ich Auto Range
ICHOFFSETENABLE	TOGGLE	F	Ich Offset Enable
ICHOFFSET	QUANT	0	Ich Offset (V)
ICHFILTER	IQUANT	1	Ich Filter
VCHRANGE	IQUANT	2	Vch Range
VCHRANGEMODE	TOGGLE	T	Vch Auto Range
VCHOFFSETENABLE	TOGGLE	F	Vch Offset Enable
VCHOFFSET	QUANT	0	Vch Offset (V)
VCHFILTER	IQUANT	1	Vch Filter
IERANGELOWERLIMIT	IQUANT	9	I/E Range Lower Limit
IERANGEMODE	TOGGLE	F	I/E AutoRange
IERANGE	IQUANT	9	I/E Range
ACHSELECT	IQUANT	1	Ach Select
ACHRANGE	IQUANT	2	Ach Range
ACHOFFSETENABLE	TOGGLE	F	Ach Offset Enable
ACHOFFSET	QUANT	0	Ach Offset (V)
ACHFILTER	IQUANT	1	Ach Filter
CABLEID	IQUANT	14	Cable ID
DCCALDATE	LABEL	5-7-2017	DC Calibration Date
ACCALDATE	LABEL	12/3/2015	AC Calibration Date
FRAMEWORKVERSION	QUANT	7.01	Framework Version
INSTRUMENTVERSION	LABEL	4.00	Instrument Version
CURVE	TABLE	114
	Pt	T	Vf	Im	Vu	Pwr	Sig	Ach	Temp	IERange	Over
	#	s	V	A	V	W	V	V	deg C	#	bits
	0	0.013333	7.01077E-001	-3.99266E-004	0.00000E+000	-2.79916E-004	-2.40040E-001	7.01238E-001	3.57650E+000	9	...........
	1	0.026667	6.88727E-001	-3.98537E-004	0.00000E+000	-2.74484E-004	-2.40040E-001	6.88900E-001	3.57650E+000	9	...........
	2	0.04	6.77888E-001	-3.98631E-004	0.00000E+000	-2.70227E-004	-2.40040E-001	6.78075E-001	3.57650E+000	9	...........
	3	0.053333	6.67877E-001	-3.98856E-004	0.00000E+000	-2.66387E-004	-2.40040E-001	6.68112E-001	3.57650E+000	9	...........
	4	0.066667	6.58441E-001	-3.97706E-004	0.00000E+000	-2.61866E-004	-2.40040E-001	6.58683E-001	3.57650E+000	9	...........
	5	0.08	6.49444E-001	-3.98486E-004	0.00000E+000	-2.58795E-004	-2.40040E-001	6.49679E-001	3.57650E+000	9	...........
	6	0.093333	6.40737E-001	-3.99329E-004	0.00000E+000	-2.55865E-004	-2.40040E-001	6.40973E-001	3.57650E+000	9	...........
	7	0.106667	6.32223E-001	-3.98087E-004	0.00000E+000	-2.51680E-004	-2.40040E-001	6.32433E-001	3.57650E+000	9	...........
	8	0.12	6.23938E-001	-3.98343E-004	0.00000E+000	-2.48541E-004	-2.40040E-001	6.24129E-001	3.57650E+000	9	...........
	9	0.133333	6.15730E-001	-3.99438E-004	0.00000E+000	-2.45946E-004	-2.40040E-001	6.15945E-001	3.57650E+000	9	...........
	10	0.146667	6.07635E-001	-3.98896E-004	0.00000E+000	-2.42383E-004	-2.40040E-001	6.07870E-001	3.57650E+000	9	...........
	11	0.16	5.99647E-001	-3.98682E-004	0.00000E+000	-2.39069E-004	-2.40040E-001	5.99906E-001	3.57650E+000	9	...........
	12	0.173333	5.91801E-001	-3.99081E-004	0.00000E+000	-2.36177E-004	-2.40040E-001	5.92046E-001	3.57650E+000	9	...........
	13	0.186667	5.83968E-001	-3.99101E-004	0.00000E+000	-2.33062E-004	-2.40040E-001	5.84218E-001	3.57650E+000	9	...........
	14	0.2	5.76287E-001	-3.98956E-004	0.00000E+000	-2.29913E-004	-2.40040E-001	5.76511E-001	3.57650E+000	9	...........
	15	0.213333	5.68632E-001	-3.99738E-004	0.00000E+000	-2.27303E-004	-2.40040E-001	5.68838E-001	3.57650E+000	9	...........
	16	0.226667	5.61035E-001	-3.98985E-004	0.00000E+000	-2.23845E-004	-2.40040E-001	5.61296E-001	3.57650E+000	9	...........
	17	0.24	5.53509E-001	-3.99028E-004	0.00000E+000	-2.20865E-004	-2.40040E-001	5.53720E-001	3.57650E+000	9	...........
	18	0.253333	5.46047E-001	-3.98870E-004	0.00000E+000	-2.17802E-004	-2.40040E-001	5.46267E-001	3.57650E+000	9	...........
	19	0.266667	5.38582E-001	-3.98761E-004	0.00000E+000	-2.14766E-004	-2.40040E-001	5.38804E-001	3.57650E+000	9	...........
	20	0.28	5.31139E-001	-3.98992E-004	0.00000E+000	-2.11920E-004	-2.40040E-001	5.31327E-001	3.57650E+000	9	...........
	21	0.293333	5.23772E-001	-3.99181E-004	0.00000E+000	-2.09080E-004	-2.40040E-001	5.23959E-001	3.57650E+000	9	...........
	22	0.306667	5.16445E-001	-3.99588E-004	0.00000E+000	-2.06365E-004	-2.40040E-001	5.16599E-001	3.57650E+000	9	...........
	23	0.32	5.09012E-001	-3.99170E-004	0.00000E+000	-2.03182E-004	-2.40040E-001	5.09215E-001	3.57650E+000	9	...........
	24	0.333333	5.01758E-001	-3.99771E-004	0.00000E+000	-2.00588E-004	-2.40040E-001	5.01945E-001	3.57650E+000	9	...........
	25	0.346667	4.94560E-001	-3.99416E-004	0.00000E+000	-1.97535E-004	-2.40040E-001	4.94756E-001	3.57650E+000	9	...........
	26	0.36	4.87444E-001	-3.98822E-004	0.00000E+000	-1.94404E-004	-2.40040E-001	4.87603E-001	3.57650E+000	9	...........
	27	0.373333	4.80560E-001	-3.96684E-004	0.00000E+000	-1.90630E-004	-2.40040E-001	4.80664E-001	3.57650E+000	9	...........
	28	0.386667	4.73506E-001	-3.98313E-004	0.00000E+000	-1.88604E-004	-2.40040E-001	4.73602E-001	3.57650E+000	9	...........
	29	0.4	4.66501E-001	-3.99058E-004	0.00000E+000	-1.86161E-004	-2.40040E-001	4.66597E-001	3.57650E+000	9	...........
	30	0.413333	4.59503E-001	-3.99684E-004	0.00000E+000	-1.83656E-004	-2.40040E-001	4.59600E-001	3.57650E+000	9	...........
	31	0.426667	4.52584E-001	-3.99561E-004	0.00000E+000	-1.80835E-004	-2.40040E-001	4.52678E-001	3.57650E+000	9	...........
	32	0.44	4.45604E-001	-3.98568E-004	0.00000E+000	-1.77603E-004	-2.40040E-001	4.45702E-001	3.57650E+000	9	...........
	33	0.453333	4.38645E-001	-3.98089E-004	0.00000E+000	-1.74620E-004	-2.40040E-001	4.38737E-001	3.57650E+000	9	...........
	34	0.466667	4.31735E-001	-3.99118E-004	0.00000E+000	-1.72313E-004	-2.40040E-001	4.31826E-001	3.57650E+000	9	...........
	35	0.48	4.24888E-001	-3.97905E-004	0.00000E+000	-1.69065E-004	-2.40040E-001	4.24980E-001	3.57650E+000	9	...........
	36	0.493333	4.18110E-001	-3.98343E-004	0.00000E+000	-1.66551E-004	-2.40040E-001	4.18198E-001	3.57650E+000	9	...........
	37	0.506667	4.11354E-001	-3.99473E-004	0.00000E+000	-1.64325E-004	-2.40040E-001	4.11439E-001	3.57650E+000	9	...........
	38	0.52	4.04612E-001	-3.98957E-004	0.00000E+000	-1.61423E-004	-2.40040E-001	4.04687E-001	3.57650E+000	9	...........
	39	0.533333	3.97954E-001	-3.97119E-004	0.00000E+000	-1.58035E-004	-2.40040E-001	3.98032E-001	3.57650E+000	9	...........
	40	0.546667	3.91280E-001	-3.98627E-004	0.00000E+000	-1.55975E-004	-2.40040E-001	3.91359E-001	3.57650E+000	9	...........
	41	0.56	3.84721E-001	-3.99376E-004	0.00000E+000	-1.53648E-004	-2.40040E-001	3.84795E-001	3.57650E+000	9	...........
	42	0.573333	3.78198E-001	-3.99008E-004	0.00000E+000	-1.50904E-004	-2.40040E-001	3.78278E-001	3.57650E+000	9	...........
	43	0.586667	3.71709E-001	-3.99348E-004	0.00000E+000	-1.48441E-004	-2.40040E-001	3.71787E-001	3.57650E+000	9	...........
	44	0.6	3.65267E-001	-3.98188E-004	0.00000E+000	-1.45445E-004	-2.40040E-001	3.65342E-001	3.57650E+000	9	...........
	45	0.613333	3.58761E-001	-3.98161E-004	0.00000E+000	-1.42845E-004	-2.40040E-001	3.58837E-001	3.57650E+000	9	...........
	46	0.626667	3.52367E-001	-3.99527E-004	0.00000E+000	-1.40780E-004	-2.40040E-001	3.52431E-001	3.57650E+000	9	...........
	47	0.64	3.46033E-001	-3.99087E-004	0.00000E+000	-1.38097E-004	-2.40040E-001	3.46105E-001	3.57650E+000	9	...........
	48	0.653333	3.39711E-001	-3.99242E-004	0.00000E+000	-1.35627E-004	-2.40040E-001	3.39789E-001	3.57650E+000	9	...........
	49	0.666667	3.33431E-001	-3.98772E-004	0.00000E+000	-1.32963E-004	-2.40040E-001	3.33507E-001	3.57650E+000	9	...........
	50	0.68	3.27255E-001	-3.99009E-004	0.00000E+000	-1.30578E-004	-2.40040E-001	3.27323E-001	3.57650E+000	9	...........
	51	0.693333	3.21065E-001	-3.99437E-004	0.00000E+000	-1.28245E-004	-2.40040E-001	3.21140E-001	3.57650E+000	9	...........
	52	0.706667	3.14877E-001	-3.99496E-004	0.00000E+000	-1.25792E-004	-2.40040E-001	3.14947E-001	3.57650E+000	9	...........
	53	0.72	3.08850E-001	-3.99740E-004	0.00000E+000	-1.23460E-004	-2.40040E-001	3.08920E-001	3.57650E+000	9	...........
	54	0.733333	3.02737E-001	-3.98531E-004	0.00000E+000	-1.20650E-004	-2.40040E-001	3.02802E-001	3.57650E+000	9	...........
	55	0.746667	2.96692E-001	-3.99140E-004	0.00000E+000	-1.18422E-004	-2.40040E-001	2.96753E-001	3.57650E+000	9	...........
	56	0.76	2.90678E-001	-3.99674E-004	0.00000E+000	-1.16177E-004	-2.40040E-001	2.90739E-001	3.57650E+000	9	...........
	57	0.773333	2.84681E-001	-4.00028E-004	0.00000E+000	-1.13881E-004	-2.40040E-001	2.84739E-001	3.57719E+000	9	...........
	58	0.786667	2.78782E-001	-3.98635E-004	0.00000E+000	-1.11132E-004	-2.40040E-001	2.78838E-001	3.57760E+000	9	...........
	59	0.8	2.72836E-001	-3.99065E-004	0.00000E+000	-1.08879E-004	-2.40040E-001	2.72889E-001	3.57760E+000	9	...........
	60	0.813333	2.66992E-001	-3.99014E-004	0.00000E+000	-1.06533E-004	-2.40040E-001	2.67044E-001	3.57760E+000	9	...........
	61	0.826667	2.61108E-001	-3.99999E-004	0.00000E+000	-1.04443E-004	-2.40040E-001	2.61168E-001	3.57760E+000	9	...........
	62	0.84	2.55286E-001	-3.99577E-004	0.00000E+000	-1.02007E-004	-2.40040E-001	2.55335E-001	3.57760E+000	9	...........
	63	0.853333	2.49526E-001	-3.98795E-004	0.00000E+000	-9.95095E-005	-2.40040E-001	2.49576E-001	3.57760E+000	9	...........
	64	0.866667	2.43782E-001	-3.99132E-004	0.00000E+000	-9.73011E-005	-2.40040E-001	2.43828E-001	3.57760E+000	9	...........
	65	0.88	2.38067E-001	-3.98582E-004	0.00000E+000	-9.48894E-005	-2.40040E-001	2.38112E-001	3.57760E+000	9	...........
	66	0.893333	2.32369E-001	-3.98923E-004	0.00000E+000	-9.26972E-005	-2.40040E-001	2.32407E-001	3.57760E+000	9	...........
	67	0.906667	2.26722E-001	-3.99859E-004	0.00000E+000	-9.06566E-005	-2.40040E-001	2.26760E-001	3.57760E+000	9	...........
	68	0.92	2.21142E-001	-3.98903E-004	0.00000E+000	-8.82144E-005	-2.40040E-001	2.21180E-001	3.57760E+000	9	...........
	69	0.933333	2.15568E-001	-3.98530E-004	0.00000E+000	-8.59103E-005	-2.40040E-001	2.15603E-001	3.57760E+000	9	...........
	70	0.946667	2.10002E-001	-4.00273E-004	0.00000E+000	-8.40582E-005	-2.40040E-001	2.10041E-001	3.57760E+000	9	...........
	71	0.96	2.04327E-001	-3.97914E-004	0.00000E+000	-8.13047E-005	-2.40040E-001	2.04366E-001	3.57760E+000	9	...........
	72	0.97333	1.98852E-001	-3.98855E-004	0.00000E+000	-7.93130E-005	-2.40040E-001	1.98895E-001	3.57760E+000	9	...........
	73	0.98667	1.93454E-001	-3.98801E-004	0.00000E+000	-7.71495E-005	-2.40040E-001	1.93492E-001	3.57760E+000	9	...........
	74	1	1.88015E-001	-3.98462E-004	0.00000E+000	-7.49167E-005	-2.40040E-001	1.88052E-001	3.57760E+000	9	...........
	75	1.01333	1.82612E-001	-3.98881E-004	0.00000E+000	-7.28405E-005	-2.40040E-001	1.82651E-001	3.57760E+000	9	...........
	76	1.02667	1.77299E-001	-3.99104E-004	0.00000E+000	-7.07607E-005	-2.40040E-001	1.77330E-001	3.57760E+000	9	...........
	77	1.04	1.72042E-001	-3.98824E-004	0.00000E+000	-6.86145E-005	-2.40040E-001	1.72079E-001	3.57760E+000	9	...........
	78	1.05333	1.66837E-001	-3.99882E-004	0.00000E+000	-6.67153E-005	-2.40040E-001	1.66870E-001	3.57760E+000	9	...........
	79	1.06667	1.61563E-001	-3.98554E-004	0.00000E+000	-6.43917E-005	-2.40040E-001	1.61598E-001	3.57760E+000	9	...........
	80	1.08	1.56261E-001	-3.97692E-004	0.00000E+000	-6.21437E-005	-2.40040E-001	1.56290E-001	3.57760E+000	9	...........
	81	1.09333	1.51055E-001	-3.99470E-004	0.00000E+000	-6.03418E-005	-2.40040E-001	1.51082E-001	3.57760E+000	9	...........
	82	1.10667	1.45918E-001	-3.98866E-004	0.00000E+000	-5.82015E-005	-2.40040E-001	1.45944E-001	3.57760E+000	9	...........
	83	1.12	1.40809E-001	-3.99418E-004	0.00000E+000	-5.62415E-005	-2.40040E-001	1.40835E-001	3.57760E+000	9	...........
	84	1.13333	1.35649E-001	-3.99428E-004	0.00000E+000	-5.41819E-005	-2.40040E-001	1.35676E-001	3.57760E+000	9	...........
	85	1.14667	1.30585E-001	-4.00358E-004	0.00000E+000	-5.22809E-005	-2.40040E-001	1.30608E-001	3.57760E+000	9	...........
	86	1.16	1.25577E-001	-3.98958E-004	0.00000E+000	-5.00998E-005	-2.40040E-001	1.25600E-001	3.57760E+000	9	...........
	87	1.17333	1.20524E-001	-3.97628E-004	0.00000E+000	-4.79237E-005	-2.40040E-001	1.20547E-001	3.57760E+000	9	...........
	88	1.18667	1.15602E-001	-3.98394E-004	0.00000E+000	-4.60552E-005	-2.40040E-001	1.15624E-001	3.57760E+000	9	...........
	89	1.2	1.10608E-001	-3.98578E-004	0.00000E+000	-4.40859E-005	-2.40040E-001	1.10632E-001	3.57760E+000	9	...........
	90	1.21333	1.05693E-001	-3.98649E-004	0.00000E+000	-4.21343E-005	-2.40040E-001	1.05713E-001	3.57760E+000	9	...........
	91	1.22667	1.00826E-001	-3.98316E-004	0.00000E+000	-4.01607E-005	-2.40040E-001	1.00846E-001	3.57760E+000	9	...........
	92	1.24	9.59811E-002	-3.98487E-004	0.00000E+000	-3.82473E-005	-2.40040E-001	9.60036E-002	3.57760E+000	9	...........
	93	1.25333	9.11344E-002	-3.99322E-004	0.00000E+000	-3.63920E-005	-2.40040E-001	9.11509E-002	3.57760E+000	9	...........
	94	1.26667	8.63070E-002	-3.98194E-004	0.00000E+000	-3.43669E-005	-2.40040E-001	8.63233E-002	3.57760E+000	9	...........
	95	1.28	8.14112E-002	-3.97926E-004	0.00000E+000	-3.23956E-005	-2.40040E-001	8.14269E-002	3.57760E+000	9	...........
	96	1.29333	7.65906E-002	-4.00661E-004	0.00000E+000	-3.06868E-005	-2.40040E-001	7.66013E-002	3.57760E+000	9	...........
	97	1.30667	7.18990E-002	-3.98712E-004	0.00000E+000	-2.86670E-005	-2.40040E-001	7.19080E-002	3.57760E+000	9	...........
	98	1.32	6.72050E-002	-3.98132E-004	0.00000E+000	-2.67565E-005	-2.40040E-001	6.72111E-002	3.57760E+000	9	...........
	99	1.33333	6.24635E-002	-3.99408E-004	0.00000E+000	-2.49485E-005	-2.40040E-001	6.24689E-002	3.57760E+000	9	...........
	100	1.34667	5.77826E-002	-3.98377E-004	0.00000E+000	-2.30193E-005	-2.40040E-001	5.77923E-002	3.57760E+000	9	...........
	101	1.36	5.31376E-002	-3.98822E-004	0.00000E+000	-2.11925E-005	-2.40040E-001	5.31391E-002	3.57760E+000	9	...........
	102	1.37333	4.85646E-002	-3.98932E-004	0.00000E+000	-1.93740E-005	-2.40040E-001	4.85708E-002	3.57760E+000	9	...........
	103	1.38667	4.40473E-002	-4.00035E-004	0.00000E+000	-1.76205E-005	-2.40040E-001	4.40537E-002	3.57760E+000	9	...........
	104	1.4	3.95026E-002	-3.99853E-004	0.00000E+000	-1.57953E-005	-2.40040E-001	3.95064E-002	3.57760E+000	9	...........
	105	1.41333	3.49355E-002	-3.98665E-004	0.00000E+000	-1.39275E-005	-2.40040E-001	3.49336E-002	3.57760E+000	9	...........
	106	1.42667	3.04008E-002	-3.98246E-004	0.00000E+000	-1.21070E-005	-2.40040E-001	3.04026E-002	3.57760E+000	9	...........
	107	1.44	2.59339E-002	-3.99259E-004	0.00000E+000	-1.03543E-005	-2.40040E-001	2.59277E-002	3.57760E+000	9	...........
	108	1.45333	2.14344E-002	-3.98102E-004	0.00000E+000	-8.53309E-006	-2.40040E-001	2.14293E-002	3.57760E+000	9	...........
	109	1.46667	1.69662E-002	-3.99163E-004	0.00000E+000	-6.77228E-006	-2.40040E-001	1.69567E-002	3.57760E+000	9	...........
	110	1.48	1.25059E-002	-3.99108E-004	0.00000E+000	-4.99122E-006	-2.40040E-001	1.24949E-002	3.57760E+000	9	...........
	111	1.49333	8.17165E-003	-3.98819E-004	0.00000E+000	-3.25901E-006	-2.40040E-001	8.15710E-003	3.57760E+000	9	...........
	112	1.50667	3.79505E-003	-3.99528E-004	0.00000E+000	-1.51623E-006	-2.40040E-001	3.78164E-003	3.57760E+000	9	...........
	113	1.51333	4.88554E-004	-3.97102E-004	0.00000E+000	-1.94006E-007	-2.40040E-001	4.70997E-004	3.57760E+000	9	...........
STARTTIMEOFFSET	QUANT	1478.205	Start Time Offset (s)
