EXPLAIN
TAG	PWR800_DISCHARGE
TITLE	LABEL	PWR Cyclic Charge Discharge (Cell) - Discharge Step	Test &Identifier
DATE	LABEL	12-7-2017	Date
TIME	LABEL	15:08:00	Time
NOTES	NOTES	3	&Notes...
	supercap test cell
	0.4mg
	6M KOH
PSTAT	PSTAT	IFC5000-01520	Potentiostat
CAPACITY	QUANT	1.00000E-003	Capacity (A-hr)
CELLTYPE	SELECTOR	1	&Cell Type
WORKINGCONNECTION	SELECTOR	0	&Working Lead
MAXDISCHARGETIME	VARIABLEANDUNITS	1.00000E+002	s	1.00000E+002	second(s)	Max &Discharge Time
DISCHARGEMODE	MULTIPARAM	0	4.00000E-004	&Discharge Mode	Constant Current	Amp(s)
SAMPLETIME	QUANT	1.00000E-002	Sa&mple Period (s)
DISCHARGESTOPAT1	MULTIPARAM	3	0.00000E+000	Discharge Stop At &1	Voltage < Limit	V
DISCHARGESTOPAT2	MULTIPARAM	0	0.00000E+000	Discharge Stop At &2	None	N/A
AESBHCSELECTOR	TOGGLE	F	Save Both Half Cells
IRCOMP	TOGGLE	F	IR &Measure
EOC	QUANT	0	Open Circuit (V)
SEQUENCER	TOGGLE	TRUE	Run as Sequence
PSTATMODEL	IQUANT	53	Pstat Model
PSTATSECTION	LABEL	IFC5000-01520	Pstat Section
PSTATSERIALNO	LABEL	01520	Pstat Serial Number
CTRLMODE	IQUANT	0	Control Mode
ELECTROMETER	IQUANT	1	RE=0 or CS=1
IESTAB	IQUANT	0	I/E Stability
CASPEED	IQUANT	4	Control Amp Speed
CONVENTION	IQUANT	1	Current Convention
ICHRANGE	IQUANT	2	Ich Range
ICHRANGEMODE	TOGGLE	T	Ich Auto Range
ICHOFFSETENABLE	TOGGLE	F	Ich Offset Enable
ICHOFFSET	QUANT	0	Ich Offset (V)
ICHFILTER	IQUANT	1	Ich Filter
VCHRANGE	IQUANT	2	Vch Range
VCHRANGEMODE	TOGGLE	T	Vch Auto Range
VCHOFFSETENABLE	TOGGLE	F	Vch Offset Enable
VCHOFFSET	QUANT	0	Vch Offset (V)
VCHFILTER	IQUANT	1	Vch Filter
IERANGELOWERLIMIT	IQUANT	9	I/E Range Lower Limit
IERANGEMODE	TOGGLE	F	I/E AutoRange
IERANGE	IQUANT	9	I/E Range
ACHSELECT	IQUANT	1	Ach Select
ACHRANGE	IQUANT	2	Ach Range
ACHOFFSETENABLE	TOGGLE	F	Ach Offset Enable
ACHOFFSET	QUANT	0	Ach Offset (V)
ACHFILTER	IQUANT	1	Ach Filter
CABLEID	IQUANT	14	Cable ID
DCCALDATE	LABEL	5-7-2017	DC Calibration Date
ACCALDATE	LABEL	12/3/2015	AC Calibration Date
FRAMEWORKVERSION	QUANT	7.01	Framework Version
INSTRUMENTVERSION	LABEL	4.00	Instrument Version
CURVE	TABLE	106
	Pt	T	Vf	Im	Vu	Pwr	Sig	Ach	Temp	IERange	Over
	#	s	V	A	V	W	V	V	deg C	#	bits
	0	0.013333	6.89197E-001	-3.99676E-004	0.00000E+000	-2.75456E-004	-2.40040E-001	6.89417E-001	3.57630E+000	9	...........
	1	0.026667	6.76009E-001	-4.00162E-004	0.00000E+000	-2.70513E-004	-2.40040E-001	6.76229E-001	3.57630E+000	9	...........
	2	0.04	6.64428E-001	-3.98544E-004	0.00000E+000	-2.64804E-004	-2.40040E-001	6.64658E-001	3.57630E+000	9	...........
	3	0.053333	6.53817E-001	-3.98611E-004	0.00000E+000	-2.60619E-004	-2.40040E-001	6.54051E-001	3.57630E+000	9	...........
	4	0.066667	6.43838E-001	-3.98075E-004	0.00000E+000	-2.56296E-004	-2.40040E-001	6.44053E-001	3.57630E+000	9	...........
	5	0.08	6.34271E-001	-3.99672E-004	0.00000E+000	-2.53500E-004	-2.40040E-001	6.34479E-001	3.57630E+000	9	...........
	6	0.093333	6.25106E-001	-3.99998E-004	0.00000E+000	-2.50041E-004	-2.40040E-001	6.25294E-001	3.57630E+000	9	...........
	7	0.106667	6.16092E-001	-3.97941E-004	0.00000E+000	-2.45168E-004	-2.40040E-001	6.16329E-001	3.57630E+000	9	...........
	8	0.12	6.07272E-001	-3.98685E-004	0.00000E+000	-2.42111E-004	-2.40040E-001	6.07537E-001	3.57630E+000	9	...........
	9	0.133333	5.98691E-001	-3.98617E-004	0.00000E+000	-2.38648E-004	-2.40040E-001	5.98937E-001	3.57630E+000	9	...........
	10	0.146667	5.90246E-001	-3.99414E-004	0.00000E+000	-2.35752E-004	-2.40040E-001	5.90493E-001	3.57630E+000	9	...........
	11	0.16	5.81848E-001	-3.98650E-004	0.00000E+000	-2.31954E-004	-2.40040E-001	5.82077E-001	3.57630E+000	9	...........
	12	0.173333	5.73613E-001	-3.99842E-004	0.00000E+000	-2.29355E-004	-2.40040E-001	5.73820E-001	3.57630E+000	9	...........
	13	0.186667	5.65477E-001	-3.98484E-004	0.00000E+000	-2.25334E-004	-2.40040E-001	5.65723E-001	3.57630E+000	9	...........
	14	0.2	5.57401E-001	-3.97462E-004	0.00000E+000	-2.21546E-004	-2.40040E-001	5.57621E-001	3.57630E+000	9	...........
	15	0.213333	5.49391E-001	-3.98569E-004	0.00000E+000	-2.18970E-004	-2.40040E-001	5.49605E-001	3.57630E+000	9	...........
	16	0.226667	5.41415E-001	-3.98368E-004	0.00000E+000	-2.15682E-004	-2.40040E-001	5.41590E-001	3.57630E+000	9	...........
	17	0.24	5.33496E-001	-3.98727E-004	0.00000E+000	-2.12719E-004	-2.40040E-001	5.33677E-001	3.57630E+000	9	...........
	18	0.253333	5.25667E-001	-3.97758E-004	0.00000E+000	-2.09088E-004	-2.40040E-001	5.25849E-001	3.57630E+000	9	...........
	19	0.266667	5.17834E-001	-3.98465E-004	0.00000E+000	-2.06338E-004	-2.40040E-001	5.18012E-001	3.57630E+000	9	...........
	20	0.28	5.10084E-001	-3.97230E-004	0.00000E+000	-2.02620E-004	-2.40040E-001	5.10291E-001	3.57630E+000	9	...........
	21	0.293333	5.02386E-001	-3.99139E-004	0.00000E+000	-2.00522E-004	-2.40040E-001	5.02573E-001	3.57630E+000	9	...........
	22	0.306667	4.94655E-001	-3.98239E-004	0.00000E+000	-1.96991E-004	-2.40040E-001	4.94863E-001	3.57630E+000	9	...........
	23	0.32	4.87026E-001	-3.98681E-004	0.00000E+000	-1.94168E-004	-2.40040E-001	4.87235E-001	3.57630E+000	9	...........
	24	0.333333	4.79710E-001	-3.99165E-004	0.00000E+000	-1.91483E-004	-2.40040E-001	4.79811E-001	3.57630E+000	9	...........
	25	0.346667	4.72202E-001	-3.98109E-004	0.00000E+000	-1.87988E-004	-2.40040E-001	4.72300E-001	3.57630E+000	9	...........
	26	0.36	4.64722E-001	-3.98119E-004	0.00000E+000	-1.85014E-004	-2.40040E-001	4.64812E-001	3.57630E+000	9	...........
	27	0.373333	4.57295E-001	-3.98483E-004	0.00000E+000	-1.82225E-004	-2.40040E-001	4.57391E-001	3.57630E+000	9	...........
	28	0.386667	4.49921E-001	-3.99269E-004	0.00000E+000	-1.79639E-004	-2.40040E-001	4.50015E-001	3.57630E+000	9	...........
	29	0.4	4.42537E-001	-3.98429E-004	0.00000E+000	-1.76320E-004	-2.40040E-001	4.42632E-001	3.57630E+000	9	...........
	30	0.413333	4.35253E-001	-3.98304E-004	0.00000E+000	-1.73363E-004	-2.40040E-001	4.35343E-001	3.57630E+000	9	...........
	31	0.426667	4.27968E-001	-3.98518E-004	0.00000E+000	-1.70553E-004	-2.40040E-001	4.28057E-001	3.57630E+000	9	...........
	32	0.44	4.20736E-001	-3.97769E-004	0.00000E+000	-1.67355E-004	-2.40040E-001	4.20822E-001	3.57630E+000	9	...........
	33	0.453333	4.13548E-001	-3.99978E-004	0.00000E+000	-1.65410E-004	-2.40040E-001	4.13633E-001	3.57630E+000	9	...........
	34	0.466667	4.06453E-001	-3.98168E-004	0.00000E+000	-1.61836E-004	-2.40040E-001	4.06528E-001	3.57630E+000	9	...........
	35	0.48	3.99390E-001	-3.98323E-004	0.00000E+000	-1.59086E-004	-2.40040E-001	3.99467E-001	3.57630E+000	9	...........
	36	0.493333	3.92333E-001	-3.99429E-004	0.00000E+000	-1.56709E-004	-2.40040E-001	3.92404E-001	3.57630E+000	9	...........
	37	0.506667	3.85304E-001	-3.99638E-004	0.00000E+000	-1.53982E-004	-2.40040E-001	3.85378E-001	3.57630E+000	9	...........
	38	0.52	3.78404E-001	-3.99194E-004	0.00000E+000	-1.51057E-004	-2.40040E-001	3.78471E-001	3.57630E+000	9	...........
	39	0.533333	3.71430E-001	-3.98593E-004	0.00000E+000	-1.48049E-004	-2.40040E-001	3.71491E-001	3.57630E+000	9	...........
	40	0.546667	3.64514E-001	-3.98965E-004	0.00000E+000	-1.45428E-004	-2.40040E-001	3.64579E-001	3.57630E+000	9	...........
	41	0.56	3.57670E-001	-3.98038E-004	0.00000E+000	-1.42366E-004	-2.40040E-001	3.57735E-001	3.57630E+000	9	...........
	42	0.573333	3.50908E-001	-3.99977E-004	0.00000E+000	-1.40355E-004	-2.40040E-001	3.50968E-001	3.57630E+000	9	...........
	43	0.586667	3.44163E-001	-3.97855E-004	0.00000E+000	-1.36927E-004	-2.40040E-001	3.44226E-001	3.57630E+000	9	...........
	44	0.6	3.37390E-001	-3.98189E-004	0.00000E+000	-1.34345E-004	-2.40040E-001	3.37452E-001	3.57630E+000	9	...........
	45	0.613333	3.30808E-001	-3.99087E-004	0.00000E+000	-1.32021E-004	-2.40040E-001	3.30864E-001	3.57630E+000	9	...........
	46	0.626667	3.24182E-001	-3.99308E-004	0.00000E+000	-1.29449E-004	-2.40040E-001	3.24246E-001	3.57630E+000	9	...........
	47	0.64	3.17546E-001	-3.97869E-004	0.00000E+000	-1.26342E-004	-2.40040E-001	3.17605E-001	3.57630E+000	9	...........
	48	0.653333	3.11051E-001	-3.98980E-004	0.00000E+000	-1.24103E-004	-2.40040E-001	3.11108E-001	3.57630E+000	9	...........
	49	0.666667	3.04566E-001	-3.99022E-004	0.00000E+000	-1.21528E-004	-2.40040E-001	3.04624E-001	3.57630E+000	9	...........
	50	0.68	2.98096E-001	-3.98233E-004	0.00000E+000	-1.18712E-004	-2.40040E-001	2.98151E-001	3.57630E+000	9	...........
	51	0.693333	2.91677E-001	-3.98513E-004	0.00000E+000	-1.16237E-004	-2.40040E-001	2.91735E-001	3.57630E+000	9	...........
	52	0.706667	2.85243E-001	-3.97045E-004	0.00000E+000	-1.13255E-004	-2.40040E-001	2.85298E-001	3.57630E+000	9	...........
	53	0.72	2.78963E-001	-3.98872E-004	0.00000E+000	-1.11271E-004	-2.40040E-001	2.79020E-001	3.57630E+000	9	...........
	54	0.733333	2.72655E-001	-3.99445E-004	0.00000E+000	-1.08911E-004	-2.40040E-001	2.72709E-001	3.57630E+000	9	...........
	55	0.746667	2.66290E-001	-3.99364E-004	0.00000E+000	-1.06346E-004	-2.40040E-001	2.66341E-001	3.57630E+000	9	...........
	56	0.76	2.60095E-001	-3.98968E-004	0.00000E+000	-1.03770E-004	-2.40040E-001	2.60141E-001	3.57630E+000	9	...........
	57	0.773333	2.53946E-001	-3.98836E-004	0.00000E+000	-1.01283E-004	-2.40040E-001	2.53995E-001	3.57630E+000	9	...........
	58	0.786667	2.47794E-001	-3.98721E-004	0.00000E+000	-9.88007E-005	-2.40040E-001	2.47839E-001	3.57630E+000	9	...........
	59	0.8	2.41658E-001	-4.00030E-004	0.00000E+000	-9.66707E-005	-2.40040E-001	2.41699E-001	3.57630E+000	9	...........
	60	0.813333	2.35570E-001	-3.98817E-004	0.00000E+000	-9.39494E-005	-2.40040E-001	2.35620E-001	3.57630E+000	9	...........
	61	0.826667	2.29595E-001	-3.96980E-004	0.00000E+000	-9.11444E-005	-2.40040E-001	2.29635E-001	3.57630E+000	9	...........
	62	0.84	2.23602E-001	-3.98308E-004	0.00000E+000	-8.90625E-005	-2.40040E-001	2.23638E-001	3.57735E+000	9	...........
	63	0.853333	2.17694E-001	-3.99028E-004	0.00000E+000	-8.68660E-005	-2.40040E-001	2.17728E-001	3.57770E+000	9	...........
	64	0.866667	2.11853E-001	-3.99420E-004	0.00000E+000	-8.46183E-005	-2.40040E-001	2.11895E-001	3.57770E+000	9	...........
	65	0.88	2.06023E-001	-3.97784E-004	0.00000E+000	-8.19527E-005	-2.40040E-001	2.06057E-001	3.57770E+000	9	...........
	66	0.893333	2.00086E-001	-3.98499E-004	0.00000E+000	-7.97341E-005	-2.40040E-001	2.00119E-001	3.57770E+000	9	...........
	67	0.906667	1.94305E-001	-3.98797E-004	0.00000E+000	-7.74882E-005	-2.40040E-001	1.94332E-001	3.57770E+000	9	...........
	68	0.92	1.88602E-001	-3.98559E-004	0.00000E+000	-7.51693E-005	-2.40040E-001	1.88632E-001	3.57770E+000	9	...........
	69	0.933333	1.82917E-001	-3.97971E-004	0.00000E+000	-7.27957E-005	-2.40040E-001	1.82946E-001	3.57770E+000	9	...........
	70	0.946667	1.77228E-001	-3.98872E-004	0.00000E+000	-7.06914E-005	-2.40040E-001	1.77261E-001	3.57770E+000	9	...........
	71	0.96	1.71672E-001	-3.98129E-004	0.00000E+000	-6.83477E-005	-2.40040E-001	1.71710E-001	3.57770E+000	9	...........
	72	0.97333	1.66183E-001	-3.98341E-004	0.00000E+000	-6.61973E-005	-2.40040E-001	1.66206E-001	3.57770E+000	9	...........
	73	0.98667	1.60606E-001	-3.98728E-004	0.00000E+000	-6.40380E-005	-2.40040E-001	1.60635E-001	3.57770E+000	9	...........
	74	1	1.55086E-001	-3.99312E-004	0.00000E+000	-6.19277E-005	-2.40040E-001	1.55111E-001	3.57770E+000	9	...........
	75	1.01333	1.49593E-001	-3.97161E-004	0.00000E+000	-5.94123E-005	-2.40040E-001	1.49620E-001	3.57770E+000	9	...........
	76	1.02667	1.44193E-001	-3.99532E-004	0.00000E+000	-5.76096E-005	-2.40040E-001	1.44210E-001	3.57770E+000	9	...........
	77	1.04	1.38865E-001	-3.99394E-004	0.00000E+000	-5.54620E-005	-2.40040E-001	1.38887E-001	3.57770E+000	9	...........
	78	1.05333	1.33513E-001	-3.99415E-004	0.00000E+000	-5.33269E-005	-2.40040E-001	1.33530E-001	3.57770E+000	9	...........
	79	1.06667	1.28205E-001	-3.99278E-004	0.00000E+000	-5.11894E-005	-2.40040E-001	1.28222E-001	3.57770E+000	9	...........
	80	1.08	1.22895E-001	-3.99520E-004	0.00000E+000	-4.90990E-005	-2.40040E-001	1.22914E-001	3.57770E+000	9	...........
	81	1.09333	1.17495E-001	-3.98560E-004	0.00000E+000	-4.68290E-005	-2.40040E-001	1.17518E-001	3.57770E+000	9	...........
	82	1.10667	1.12253E-001	-3.98477E-004	0.00000E+000	-4.47303E-005	-2.40040E-001	1.12270E-001	3.57770E+000	9	...........
	83	1.12	1.07116E-001	-3.97956E-004	0.00000E+000	-4.26275E-005	-2.40040E-001	1.07135E-001	3.57770E+000	9	...........
	84	1.13333	1.01991E-001	-3.99748E-004	0.00000E+000	-4.07708E-005	-2.40040E-001	1.02014E-001	3.57770E+000	9	...........
	85	1.14667	9.68716E-002	-3.98920E-004	0.00000E+000	-3.86440E-005	-2.40040E-001	9.68846E-002	3.57770E+000	9	...........
	86	1.16	9.18338E-002	-3.99920E-004	0.00000E+000	-3.67262E-005	-2.40040E-001	9.18522E-002	3.57770E+000	9	...........
	87	1.17333	8.67498E-002	-3.98078E-004	0.00000E+000	-3.45332E-005	-2.40040E-001	8.67641E-002	3.57770E+000	9	...........
	88	1.18667	8.16626E-002	-3.98593E-004	0.00000E+000	-3.25501E-005	-2.40040E-001	8.16719E-002	3.57770E+000	9	...........
	89	1.2	7.66805E-002	-3.99997E-004	0.00000E+000	-3.06720E-005	-2.40040E-001	7.66859E-002	3.57770E+000	9	...........
	90	1.21333	7.17836E-002	-3.99503E-004	0.00000E+000	-2.86778E-005	-2.40040E-001	7.17848E-002	3.57770E+000	9	...........
	91	1.22667	6.68781E-002	-3.99395E-004	0.00000E+000	-2.67108E-005	-2.40040E-001	6.68805E-002	3.57770E+000	9	...........
	92	1.24	6.20160E-002	-3.98250E-004	0.00000E+000	-2.46979E-005	-2.40040E-001	6.20223E-002	3.57770E+000	9	...........
	93	1.25333	5.71302E-002	-3.98880E-004	0.00000E+000	-2.27881E-005	-2.40040E-001	5.71374E-002	3.57770E+000	9	...........
	94	1.26667	5.22261E-002	-4.00069E-004	0.00000E+000	-2.08941E-005	-2.40040E-001	5.22269E-002	3.57770E+000	9	...........
	95	1.28	4.73976E-002	-3.97646E-004	0.00000E+000	-1.88475E-005	-2.40040E-001	4.73965E-002	3.57770E+000	9	...........
	96	1.29333	4.26821E-002	-3.98652E-004	0.00000E+000	-1.70153E-005	-2.40040E-001	4.26856E-002	3.57770E+000	9	...........
	97	1.30667	3.79463E-002	-3.99433E-004	0.00000E+000	-1.51570E-005	-2.40040E-001	3.79486E-002	3.57770E+000	9	...........
	98	1.32	3.32175E-002	-3.98368E-004	0.00000E+000	-1.32328E-005	-2.40040E-001	3.32180E-002	3.57770E+000	9	...........
	99	1.33333	2.85240E-002	-3.97691E-004	0.00000E+000	-1.13437E-005	-2.40040E-001	2.85169E-002	3.57770E+000	9	...........
	100	1.34667	2.38296E-002	-3.98617E-004	0.00000E+000	-9.49887E-006	-2.40040E-001	2.38215E-002	3.57770E+000	9	...........
	101	1.36	1.91063E-002	-3.99020E-004	0.00000E+000	-7.62379E-006	-2.40040E-001	1.90974E-002	3.57770E+000	9	...........
	102	1.37333	1.44930E-002	-3.98718E-004	0.00000E+000	-5.77861E-006	-2.40040E-001	1.44785E-002	3.57770E+000	9	...........
	103	1.38667	9.88158E-003	-3.99354E-004	0.00000E+000	-3.94625E-006	-2.40040E-001	9.86960E-003	3.57770E+000	9	...........
	104	1.4	5.42328E-003	-3.97539E-004	0.00000E+000	-2.15597E-006	-2.40040E-001	5.40798E-003	3.57770E+000	9	...........
	105	1.41167	1.15188E-003	-3.99227E-004	0.00000E+000	-4.59860E-007	-2.40040E-001	1.12548E-003	3.57770E+000	9	...........
STARTTIMEOFFSET	QUANT	2347.341	Start Time Offset (s)
