EXPLAIN
TAG	PWR800_DISCHARGE
TITLE	LABEL	PWR Cyclic Charge Discharge (Cell) - Discharge Step	Test &Identifier
DATE	LABEL	12-7-2017	Date
TIME	LABEL	14:34:17	Time
NOTES	NOTES	3	&Notes...
	supercap test cell
	0.4mg
	6M KOH
PSTAT	PSTAT	IFC5000-01520	Potentiostat
CAPACITY	QUANT	1.00000E-003	Capacity (A-hr)
CELLTYPE	SELECTOR	1	&Cell Type
WORKINGCONNECTION	SELECTOR	0	&Working Lead
MAXDISCHARGETIME	VARIABLEANDUNITS	1.00000E+002	s	1.00000E+002	second(s)	Max &Discharge Time
DISCHARGEMODE	MULTIPARAM	0	4.00000E-004	&Discharge Mode	Constant Current	Amp(s)
SAMPLETIME	QUANT	1.00000E-002	Sa&mple Period (s)
DISCHARGESTOPAT1	MULTIPARAM	3	0.00000E+000	Discharge Stop At &1	Voltage < Limit	V
DISCHARGESTOPAT2	MULTIPARAM	0	0.00000E+000	Discharge Stop At &2	None	N/A
AESBHCSELECTOR	TOGGLE	F	Save Both Half Cells
IRCOMP	TOGGLE	F	IR &Measure
EOC	QUANT	0	Open Circuit (V)
SEQUENCER	TOGGLE	TRUE	Run as Sequence
PSTATMODEL	IQUANT	53	Pstat Model
PSTATSECTION	LABEL	IFC5000-01520	Pstat Section
PSTATSERIALNO	LABEL	01520	Pstat Serial Number
CTRLMODE	IQUANT	0	Control Mode
ELECTROMETER	IQUANT	1	RE=0 or CS=1
IESTAB	IQUANT	0	I/E Stability
CASPEED	IQUANT	4	Control Amp Speed
CONVENTION	IQUANT	1	Current Convention
ICHRANGE	IQUANT	2	Ich Range
ICHRANGEMODE	TOGGLE	T	Ich Auto Range
ICHOFFSETENABLE	TOGGLE	F	Ich Offset Enable
ICHOFFSET	QUANT	0	Ich Offset (V)
ICHFILTER	IQUANT	1	Ich Filter
VCHRANGE	IQUANT	2	Vch Range
VCHRANGEMODE	TOGGLE	T	Vch Auto Range
VCHOFFSETENABLE	TOGGLE	F	Vch Offset Enable
VCHOFFSET	QUANT	0	Vch Offset (V)
VCHFILTER	IQUANT	1	Vch Filter
IERANGELOWERLIMIT	IQUANT	9	I/E Range Lower Limit
IERANGEMODE	TOGGLE	F	I/E AutoRange
IERANGE	IQUANT	9	I/E Range
ACHSELECT	IQUANT	1	Ach Select
ACHRANGE	IQUANT	2	Ach Range
ACHOFFSETENABLE	TOGGLE	F	Ach Offset Enable
ACHOFFSET	QUANT	0	Ach Offset (V)
ACHFILTER	IQUANT	1	Ach Filter
CABLEID	IQUANT	14	Cable ID
DCCALDATE	LABEL	5-7-2017	DC Calibration Date
ACCALDATE	LABEL	12/3/2015	AC Calibration Date
FRAMEWORKVERSION	QUANT	7.01	Framework Version
INSTRUMENTVERSION	LABEL	4.00	Instrument Version
CURVE	TABLE	122
	Pt	T	Vf	Im	Vu	Pwr	Sig	Ach	Temp	IERange	Over
	#	s	V	A	V	W	V	V	deg C	#	bits
	0	0.013333	7.07280E-001	-3.97409E-004	0.00000E+000	-2.81080E-004	-2.40040E-001	7.07564E-001	3.57640E+000	9	...........
	1	0.026667	6.95807E-001	-3.98953E-004	0.00000E+000	-2.77595E-004	-2.40040E-001	6.96054E-001	3.57640E+000	9	...........
	2	0.04	6.85606E-001	-3.98664E-004	0.00000E+000	-2.73326E-004	-2.40040E-001	6.85879E-001	3.57640E+000	9	...........
	3	0.053333	6.76269E-001	-3.98628E-004	0.00000E+000	-2.69580E-004	-2.40040E-001	6.76509E-001	3.57640E+000	9	...........
	4	0.066667	6.67376E-001	-3.99011E-004	0.00000E+000	-2.66291E-004	-2.40040E-001	6.67609E-001	3.57640E+000	9	...........
	5	0.08	6.58822E-001	-3.98274E-004	0.00000E+000	-2.62392E-004	-2.40040E-001	6.59065E-001	3.57640E+000	9	...........
	6	0.093333	6.50662E-001	-3.98686E-004	0.00000E+000	-2.59410E-004	-2.40040E-001	6.50894E-001	3.57640E+000	9	...........
	7	0.106667	6.42654E-001	-3.98453E-004	0.00000E+000	-2.56067E-004	-2.40040E-001	6.42862E-001	3.57640E+000	9	...........
	8	0.12	6.34764E-001	-4.01165E-004	0.00000E+000	-2.54645E-004	-2.40040E-001	6.34993E-001	3.57640E+000	9	...........
	9	0.133333	6.27053E-001	-3.98775E-004	0.00000E+000	-2.50053E-004	-2.40040E-001	6.27257E-001	3.57640E+000	9	...........
	10	0.146667	6.19342E-001	-3.97805E-004	0.00000E+000	-2.46377E-004	-2.40040E-001	6.19517E-001	3.57640E+000	9	...........
	11	0.16	6.11711E-001	-3.99812E-004	0.00000E+000	-2.44569E-004	-2.40040E-001	6.11934E-001	3.57640E+000	9	...........
	12	0.173333	6.04251E-001	-3.98669E-004	0.00000E+000	-2.40896E-004	-2.40040E-001	6.04493E-001	3.57640E+000	9	...........
	13	0.186667	5.96865E-001	-3.99554E-004	0.00000E+000	-2.38480E-004	-2.40040E-001	5.97078E-001	3.57640E+000	9	...........
	14	0.2	5.89517E-001	-3.99273E-004	0.00000E+000	-2.35378E-004	-2.40040E-001	5.89725E-001	3.57640E+000	9	...........
	15	0.213333	5.82283E-001	-3.98778E-004	0.00000E+000	-2.32202E-004	-2.40040E-001	5.82502E-001	3.57640E+000	9	...........
	16	0.226667	5.75120E-001	-3.99128E-004	0.00000E+000	-2.29547E-004	-2.40040E-001	5.75300E-001	3.57640E+000	9	...........
	17	0.24	5.67944E-001	-4.00307E-004	0.00000E+000	-2.27352E-004	-2.40040E-001	5.68111E-001	3.57640E+000	9	...........
	18	0.253333	5.60875E-001	-3.97418E-004	0.00000E+000	-2.22902E-004	-2.40040E-001	5.61101E-001	3.57640E+000	9	...........
	19	0.266667	5.53807E-001	-3.99473E-004	0.00000E+000	-2.21231E-004	-2.40040E-001	5.54015E-001	3.57640E+000	9	...........
	20	0.28	5.46776E-001	-3.98248E-004	0.00000E+000	-2.17752E-004	-2.40040E-001	5.47005E-001	3.57640E+000	9	...........
	21	0.293333	5.39835E-001	-4.00337E-004	0.00000E+000	-2.16116E-004	-2.40040E-001	5.40052E-001	3.57640E+000	9	...........
	22	0.306667	5.32876E-001	-3.97854E-004	0.00000E+000	-2.12007E-004	-2.40040E-001	5.33081E-001	3.57640E+000	9	...........
	23	0.32	5.26006E-001	-3.99741E-004	0.00000E+000	-2.10266E-004	-2.40040E-001	5.26236E-001	3.57640E+000	9	...........
	24	0.333333	5.19206E-001	-3.99152E-004	0.00000E+000	-2.07242E-004	-2.40040E-001	5.19429E-001	3.57640E+000	9	...........
	25	0.346667	5.12376E-001	-3.97855E-004	0.00000E+000	-2.03851E-004	-2.40040E-001	5.12589E-001	3.57640E+000	9	...........
	26	0.36	5.05562E-001	-3.99200E-004	0.00000E+000	-2.01820E-004	-2.40040E-001	5.05814E-001	3.57640E+000	9	...........
	27	0.373333	4.98777E-001	-3.99487E-004	0.00000E+000	-1.99255E-004	-2.40040E-001	4.99008E-001	3.57640E+000	9	...........
	28	0.386667	4.92163E-001	-3.99180E-004	0.00000E+000	-1.96462E-004	-2.40040E-001	4.92351E-001	3.57640E+000	9	...........
	29	0.4	4.85644E-001	-3.98540E-004	0.00000E+000	-1.93548E-004	-2.40040E-001	4.85802E-001	3.57640E+000	9	...........
	30	0.413333	4.79133E-001	-3.97796E-004	0.00000E+000	-1.90597E-004	-2.40040E-001	4.79230E-001	3.57640E+000	9	...........
	31	0.426667	4.72482E-001	-3.98696E-004	0.00000E+000	-1.88376E-004	-2.40040E-001	4.72579E-001	3.57640E+000	9	...........
	32	0.44	4.65871E-001	-3.97188E-004	0.00000E+000	-1.85038E-004	-2.40040E-001	4.65964E-001	3.57640E+000	9	...........
	33	0.453333	4.59347E-001	-3.99230E-004	0.00000E+000	-1.83385E-004	-2.40040E-001	4.59440E-001	3.57640E+000	9	...........
	34	0.466667	4.52893E-001	-3.98267E-004	0.00000E+000	-1.80372E-004	-2.40040E-001	4.52982E-001	3.57640E+000	9	...........
	35	0.48	4.46472E-001	-4.00463E-004	0.00000E+000	-1.78796E-004	-2.40040E-001	4.46561E-001	3.57640E+000	9	...........
	36	0.493333	4.40067E-001	-3.98747E-004	0.00000E+000	-1.75475E-004	-2.40040E-001	4.40152E-001	3.57640E+000	9	...........
	37	0.506667	4.33651E-001	-3.97903E-004	0.00000E+000	-1.72551E-004	-2.40040E-001	4.33738E-001	3.57640E+000	9	...........
	38	0.52	4.27296E-001	-3.98436E-004	0.00000E+000	-1.70250E-004	-2.40040E-001	4.27377E-001	3.57640E+000	9	...........
	39	0.533333	4.20910E-001	-3.99481E-004	0.00000E+000	-1.68146E-004	-2.40040E-001	4.20996E-001	3.57640E+000	9	...........
	40	0.546667	4.14667E-001	-3.98193E-004	0.00000E+000	-1.65117E-004	-2.40040E-001	4.14749E-001	3.57640E+000	9	...........
	41	0.56	4.08387E-001	-3.99065E-004	0.00000E+000	-1.62973E-004	-2.40040E-001	4.08468E-001	3.57640E+000	9	...........
	42	0.573333	4.02185E-001	-3.98440E-004	0.00000E+000	-1.60246E-004	-2.40040E-001	4.02256E-001	3.57640E+000	9	...........
	43	0.586667	3.95949E-001	-3.99189E-004	0.00000E+000	-1.58058E-004	-2.40040E-001	3.96018E-001	3.57640E+000	9	...........
	44	0.6	3.89783E-001	-3.99058E-004	0.00000E+000	-1.55546E-004	-2.40040E-001	3.89853E-001	3.57640E+000	9	...........
	45	0.613333	3.83665E-001	-3.99455E-004	0.00000E+000	-1.53257E-004	-2.40040E-001	3.83731E-001	3.57640E+000	9	...........
	46	0.626667	3.77596E-001	-3.98424E-004	0.00000E+000	-1.50443E-004	-2.40040E-001	3.77664E-001	3.57640E+000	9	...........
	47	0.64	3.71547E-001	-3.98551E-004	0.00000E+000	-1.48081E-004	-2.40040E-001	3.71612E-001	3.57640E+000	9	...........
	48	0.653333	3.65536E-001	-3.99658E-004	0.00000E+000	-1.46090E-004	-2.40040E-001	3.65607E-001	3.57640E+000	9	...........
	49	0.666667	3.59565E-001	-3.99278E-004	0.00000E+000	-1.43567E-004	-2.40040E-001	3.59630E-001	3.57640E+000	9	...........
	50	0.68	3.53673E-001	-4.00448E-004	0.00000E+000	-1.41628E-004	-2.40040E-001	3.53739E-001	3.57640E+000	9	...........
	51	0.693333	3.47785E-001	-3.98300E-004	0.00000E+000	-1.38523E-004	-2.40040E-001	3.47850E-001	3.57640E+000	9	...........
	52	0.706667	3.41845E-001	-3.99986E-004	0.00000E+000	-1.36733E-004	-2.40040E-001	3.41906E-001	3.57640E+000	9	...........
	53	0.72	3.35963E-001	-3.98729E-004	0.00000E+000	-1.33958E-004	-2.40040E-001	3.36023E-001	3.57640E+000	9	...........
	54	0.733333	3.30060E-001	-4.00043E-004	0.00000E+000	-1.32038E-004	-2.40040E-001	3.30117E-001	3.57640E+000	9	...........
	55	0.746667	3.24184E-001	-3.96837E-004	0.00000E+000	-1.28648E-004	-2.40040E-001	3.24251E-001	3.57640E+000	9	...........
	56	0.76	3.18477E-001	-3.98302E-004	0.00000E+000	-1.26850E-004	-2.40040E-001	3.18541E-001	3.57640E+000	9	...........
	57	0.773333	3.12746E-001	-3.98871E-004	0.00000E+000	-1.24745E-004	-2.40040E-001	3.12808E-001	3.57640E+000	9	...........
	58	0.786667	3.07006E-001	-3.99234E-004	0.00000E+000	-1.22567E-004	-2.40040E-001	3.07068E-001	3.57640E+000	9	...........
	59	0.8	3.01313E-001	-3.99028E-004	0.00000E+000	-1.20232E-004	-2.40040E-001	3.01376E-001	3.57640E+000	9	...........
	60	0.813333	2.95582E-001	-3.97453E-004	0.00000E+000	-1.17480E-004	-2.40040E-001	2.95642E-001	3.57640E+000	9	...........
	61	0.826667	2.89918E-001	-3.98678E-004	0.00000E+000	-1.15584E-004	-2.40040E-001	2.89974E-001	3.57640E+000	9	...........
	62	0.84	2.84358E-001	-3.99320E-004	0.00000E+000	-1.13550E-004	-2.40040E-001	2.84417E-001	3.57640E+000	9	...........
	63	0.853333	2.78819E-001	-3.99205E-004	0.00000E+000	-1.11306E-004	-2.40040E-001	2.78876E-001	3.57640E+000	9	...........
	64	0.866667	2.73244E-001	-3.97437E-004	0.00000E+000	-1.08597E-004	-2.40040E-001	2.73298E-001	3.57640E+000	9	...........
	65	0.88	2.67660E-001	-3.99287E-004	0.00000E+000	-1.06873E-004	-2.40040E-001	2.67717E-001	3.57640E+000	9	...........
	66	0.893333	2.62207E-001	-3.97596E-004	0.00000E+000	-1.04252E-004	-2.40040E-001	2.62252E-001	3.57640E+000	9	...........
	67	0.906667	2.56795E-001	-3.98607E-004	0.00000E+000	-1.02360E-004	-2.40040E-001	2.56848E-001	3.57640E+000	9	...........
	68	0.92	2.51351E-001	-3.99888E-004	0.00000E+000	-1.00512E-004	-2.40040E-001	2.51399E-001	3.57640E+000	9	...........
	69	0.933333	2.46022E-001	-3.98675E-004	0.00000E+000	-9.80828E-005	-2.40040E-001	2.46065E-001	3.57640E+000	9	...........
	70	0.946667	2.40625E-001	-3.98400E-004	0.00000E+000	-9.58648E-005	-2.40040E-001	2.40671E-001	3.57640E+000	9	...........
	71	0.96	2.35269E-001	-3.97623E-004	0.00000E+000	-9.35484E-005	-2.40040E-001	2.35315E-001	3.57640E+000	9	...........
	72	0.97333	2.30032E-001	-3.99960E-004	0.00000E+000	-9.20034E-005	-2.40040E-001	2.30071E-001	3.57640E+000	9	...........
	73	0.98667	2.24694E-001	-3.98919E-004	0.00000E+000	-8.96348E-005	-2.40040E-001	2.24736E-001	3.57640E+000	9	...........
	74	1	2.19518E-001	-3.99045E-004	0.00000E+000	-8.75974E-005	-2.40040E-001	2.19558E-001	3.57640E+000	9	...........
	75	1.01333	2.14331E-001	-3.99934E-004	0.00000E+000	-8.57183E-005	-2.40040E-001	2.14373E-001	3.57640E+000	9	...........
	76	1.02667	2.09170E-001	-3.99194E-004	0.00000E+000	-8.34995E-005	-2.40040E-001	2.09213E-001	3.57640E+000	9	...........
	77	1.04	2.04081E-001	-3.99294E-004	0.00000E+000	-8.14883E-005	-2.40040E-001	2.04126E-001	3.57640E+000	9	...........
	78	1.05333	1.99002E-001	-3.99373E-004	0.00000E+000	-7.94761E-005	-2.40040E-001	1.99040E-001	3.57640E+000	9	...........
	79	1.06667	1.93924E-001	-4.00148E-004	0.00000E+000	-7.75985E-005	-2.40040E-001	1.93962E-001	3.57640E+000	9	...........
	80	1.08	1.88796E-001	-4.00266E-004	0.00000E+000	-7.55687E-005	-2.40040E-001	1.88833E-001	3.57640E+000	9	...........
	81	1.09333	1.83686E-001	-3.98780E-004	0.00000E+000	-7.32503E-005	-2.40040E-001	1.83725E-001	3.57640E+000	9	...........
	82	1.10667	1.78590E-001	-3.98497E-004	0.00000E+000	-7.11674E-005	-2.40040E-001	1.78631E-001	3.57640E+000	9	...........
	83	1.12	1.73551E-001	-3.99011E-004	0.00000E+000	-6.92488E-005	-2.40040E-001	1.73583E-001	3.57640E+000	9	...........
	84	1.13333	1.68634E-001	-3.98967E-004	0.00000E+000	-6.72794E-005	-2.40040E-001	1.68661E-001	3.57640E+000	9	...........
	85	1.14667	1.63689E-001	-3.98014E-004	0.00000E+000	-6.51507E-005	-2.40040E-001	1.63717E-001	3.57640E+000	9	...........
	86	1.16	1.58870E-001	-3.99331E-004	0.00000E+000	-6.34417E-005	-2.40040E-001	1.58897E-001	3.57640E+000	9	...........
	87	1.17333	1.53983E-001	-3.99042E-004	0.00000E+000	-6.14456E-005	-2.40040E-001	1.54009E-001	3.57640E+000	9	...........
	88	1.18667	1.49202E-001	-3.98059E-004	0.00000E+000	-5.93914E-005	-2.40040E-001	1.49230E-001	3.57640E+000	9	...........
	89	1.2	1.44343E-001	-3.99588E-004	0.00000E+000	-5.76775E-005	-2.40040E-001	1.44369E-001	3.57640E+000	9	...........
	90	1.21333	1.39487E-001	-3.98286E-004	0.00000E+000	-5.55559E-005	-2.40040E-001	1.39514E-001	3.57640E+000	9	...........
	91	1.22667	1.34695E-001	-3.99080E-004	0.00000E+000	-5.37543E-005	-2.40040E-001	1.34720E-001	3.57640E+000	9	...........
	92	1.24	1.29948E-001	-3.98173E-004	0.00000E+000	-5.17416E-005	-2.40040E-001	1.29975E-001	3.57640E+000	9	...........
	93	1.25333	1.25182E-001	-3.99066E-004	0.00000E+000	-4.99559E-005	-2.40040E-001	1.25203E-001	3.57640E+000	9	...........
	94	1.26667	1.20399E-001	-3.97583E-004	0.00000E+000	-4.78688E-005	-2.40040E-001	1.20421E-001	3.57640E+000	9	...........
	95	1.28	1.15744E-001	-3.98394E-004	0.00000E+000	-4.61119E-005	-2.40040E-001	1.15763E-001	3.57640E+000	9	...........
	96	1.29333	1.11055E-001	-3.98131E-004	0.00000E+000	-4.42145E-005	-2.40040E-001	1.11083E-001	3.57640E+000	9	...........
	97	1.30667	1.06357E-001	-3.99425E-004	0.00000E+000	-4.24817E-005	-2.40040E-001	1.06378E-001	3.57640E+000	9	...........
	98	1.32	1.01763E-001	-3.98992E-004	0.00000E+000	-4.06027E-005	-2.40040E-001	1.01789E-001	3.57640E+000	9	...........
	99	1.33333	9.71347E-002	-4.00257E-004	0.00000E+000	-3.88788E-005	-2.40040E-001	9.71541E-002	3.57640E+000	9	...........
	100	1.34667	9.25052E-002	-3.98140E-004	0.00000E+000	-3.68300E-005	-2.40040E-001	9.25248E-002	3.57640E+000	9	...........
	101	1.36	8.79273E-002	-3.99977E-004	0.00000E+000	-3.51689E-005	-2.40040E-001	8.79497E-002	3.57640E+000	9	...........
	102	1.37333	8.33765E-002	-3.98374E-004	0.00000E+000	-3.32150E-005	-2.40040E-001	8.33919E-002	3.57640E+000	9	...........
	103	1.38667	7.88775E-002	-3.99685E-004	0.00000E+000	-3.15261E-005	-2.40040E-001	7.88853E-002	3.57640E+000	9	...........
	104	1.4	7.44167E-002	-3.97892E-004	0.00000E+000	-2.96099E-005	-2.40040E-001	7.44225E-002	3.57640E+000	9	...........
	105	1.41333	6.99332E-002	-3.99176E-004	0.00000E+000	-2.79157E-005	-2.40040E-001	6.99422E-002	3.57640E+000	9	...........
	106	1.42667	6.55415E-002	-3.97491E-004	0.00000E+000	-2.60522E-005	-2.40040E-001	6.55504E-002	3.57640E+000	9	...........
	107	1.44	6.10647E-002	-3.99146E-004	0.00000E+000	-2.43737E-005	-2.40040E-001	6.10665E-002	3.57640E+000	9	...........
	108	1.45333	5.66372E-002	-3.99449E-004	0.00000E+000	-2.26237E-005	-2.40040E-001	5.66450E-002	3.57640E+000	9	...........
	109	1.46667	5.22720E-002	-3.99213E-004	0.00000E+000	-2.08677E-005	-2.40040E-001	5.22777E-002	3.57640E+000	9	...........
	110	1.48	4.79041E-002	-3.98872E-004	0.00000E+000	-1.91076E-005	-2.40040E-001	4.79077E-002	3.57640E+000	9	...........
	111	1.49333	4.36031E-002	-3.97254E-004	0.00000E+000	-1.73215E-005	-2.40040E-001	4.36156E-002	3.57640E+000	9	...........
	112	1.50667	3.92864E-002	-3.99954E-004	0.00000E+000	-1.57128E-005	-2.40040E-001	3.92856E-002	3.57640E+000	9	...........
	113	1.52	3.49411E-002	-3.98764E-004	0.00000E+000	-1.39332E-005	-2.40040E-001	3.49438E-002	3.57640E+000	9	...........
	114	1.53333	3.06783E-002	-3.99138E-004	0.00000E+000	-1.22449E-005	-2.40040E-001	3.06741E-002	3.57640E+000	9	...........
	115	1.54667	2.63908E-002	-3.98605E-004	0.00000E+000	-1.05195E-005	-2.40040E-001	2.63840E-002	3.57640E+000	9	...........
	116	1.56	2.21511E-002	-3.97875E-004	0.00000E+000	-8.81334E-006	-2.40040E-001	2.21444E-002	3.57640E+000	9	...........
	117	1.57333	1.79581E-002	-3.99340E-004	0.00000E+000	-7.17138E-006	-2.40040E-001	1.79504E-002	3.57640E+000	9	...........
	118	1.58667	1.37349E-002	-3.97469E-004	0.00000E+000	-5.45921E-006	-2.40040E-001	1.37278E-002	3.57640E+000	9	...........
	119	1.6	9.48054E-003	-3.98625E-004	0.00000E+000	-3.77918E-006	-2.40040E-001	9.46889E-003	3.57640E+000	9	...........
	120	1.61333	5.33593E-003	-3.98945E-004	0.00000E+000	-2.12874E-006	-2.40040E-001	5.31820E-003	3.57640E+000	9	...........
	121	1.62667	1.28086E-003	-3.98215E-004	0.00000E+000	-5.10060E-007	-2.40040E-001	1.26369E-003	3.57640E+000	9	...........
STARTTIMEOFFSET	QUANT	755.3569	Start Time Offset (s)
