EXPLAIN
TAG	PWR800_DISCHARGE
TITLE	LABEL	PWR Cyclic Charge Discharge (Cell) - Discharge Step	Test &Identifier
DATE	LABEL	12-7-2017	Date
TIME	LABEL	15:08:19	Time
NOTES	NOTES	3	&Notes...
	supercap test cell
	0.4mg
	6M KOH
PSTAT	PSTAT	IFC5000-01520	Potentiostat
CAPACITY	QUANT	1.00000E-003	Capacity (A-hr)
CELLTYPE	SELECTOR	1	&Cell Type
WORKINGCONNECTION	SELECTOR	0	&Working Lead
MAXDISCHARGETIME	VARIABLEANDUNITS	1.00000E+002	s	1.00000E+002	second(s)	Max &Discharge Time
DISCHARGEMODE	MULTIPARAM	0	4.00000E-004	&Discharge Mode	Constant Current	Amp(s)
SAMPLETIME	QUANT	1.00000E-002	Sa&mple Period (s)
DISCHARGESTOPAT1	MULTIPARAM	3	0.00000E+000	Discharge Stop At &1	Voltage < Limit	V
DISCHARGESTOPAT2	MULTIPARAM	0	0.00000E+000	Discharge Stop At &2	None	N/A
AESBHCSELECTOR	TOGGLE	F	Save Both Half Cells
IRCOMP	TOGGLE	F	IR &Measure
EOC	QUANT	0	Open Circuit (V)
SEQUENCER	TOGGLE	TRUE	Run as Sequence
PSTATMODEL	IQUANT	53	Pstat Model
PSTATSECTION	LABEL	IFC5000-01520	Pstat Section
PSTATSERIALNO	LABEL	01520	Pstat Serial Number
CTRLMODE	IQUANT	0	Control Mode
ELECTROMETER	IQUANT	1	RE=0 or CS=1
IESTAB	IQUANT	0	I/E Stability
CASPEED	IQUANT	4	Control Amp Speed
CONVENTION	IQUANT	1	Current Convention
ICHRANGE	IQUANT	2	Ich Range
ICHRANGEMODE	TOGGLE	T	Ich Auto Range
ICHOFFSETENABLE	TOGGLE	F	Ich Offset Enable
ICHOFFSET	QUANT	0	Ich Offset (V)
ICHFILTER	IQUANT	1	Ich Filter
VCHRANGE	IQUANT	2	Vch Range
VCHRANGEMODE	TOGGLE	T	Vch Auto Range
VCHOFFSETENABLE	TOGGLE	F	Vch Offset Enable
VCHOFFSET	QUANT	0	Vch Offset (V)
VCHFILTER	IQUANT	1	Vch Filter
IERANGELOWERLIMIT	IQUANT	9	I/E Range Lower Limit
IERANGEMODE	TOGGLE	F	I/E AutoRange
IERANGE	IQUANT	9	I/E Range
ACHSELECT	IQUANT	1	Ach Select
ACHRANGE	IQUANT	2	Ach Range
ACHOFFSETENABLE	TOGGLE	F	Ach Offset Enable
ACHOFFSET	QUANT	0	Ach Offset (V)
ACHFILTER	IQUANT	1	Ach Filter
CABLEID	IQUANT	14	Cable ID
DCCALDATE	LABEL	5-7-2017	DC Calibration Date
ACCALDATE	LABEL	12/3/2015	AC Calibration Date
FRAMEWORKVERSION	QUANT	7.01	Framework Version
INSTRUMENTVERSION	LABEL	4.00	Instrument Version
CURVE	TABLE	106
	Pt	T	Vf	Im	Vu	Pwr	Sig	Ach	Temp	IERange	Over
	#	s	V	A	V	W	V	V	deg C	#	bits
	0	0.013333	6.90091E-001	-3.98927E-004	0.00000E+000	-2.75296E-004	-2.40040E-001	6.90288E-001	3.57680E+000	9	...........
	1	0.026667	6.76809E-001	-3.99148E-004	0.00000E+000	-2.70147E-004	-2.40040E-001	6.77017E-001	3.57680E+000	9	...........
	2	0.04	6.65196E-001	-3.98531E-004	0.00000E+000	-2.65101E-004	-2.40040E-001	6.65407E-001	3.57680E+000	9	...........
	3	0.053333	6.54565E-001	-3.98665E-004	0.00000E+000	-2.60952E-004	-2.40040E-001	6.54761E-001	3.57680E+000	9	...........
	4	0.066667	6.44573E-001	-3.97965E-004	0.00000E+000	-2.56518E-004	-2.40040E-001	6.44786E-001	3.57680E+000	9	...........
	5	0.08	6.34941E-001	-3.99454E-004	0.00000E+000	-2.53630E-004	-2.40040E-001	6.35164E-001	3.57680E+000	9	...........
	6	0.093333	6.25713E-001	-3.98510E-004	0.00000E+000	-2.49353E-004	-2.40040E-001	6.25907E-001	3.57680E+000	9	...........
	7	0.106667	6.16787E-001	-3.97505E-004	0.00000E+000	-2.45176E-004	-2.40040E-001	6.16981E-001	3.57680E+000	9	...........
	8	0.12	6.08000E-001	-3.98508E-004	0.00000E+000	-2.42293E-004	-2.40040E-001	6.08251E-001	3.57680E+000	9	...........
	9	0.133333	5.99398E-001	-3.99093E-004	0.00000E+000	-2.39215E-004	-2.40040E-001	5.99652E-001	3.57680E+000	9	...........
	10	0.146667	5.90904E-001	-3.98714E-004	0.00000E+000	-2.35601E-004	-2.40040E-001	5.91141E-001	3.57680E+000	9	...........
	11	0.16	5.82497E-001	-3.97296E-004	0.00000E+000	-2.31423E-004	-2.40040E-001	5.82746E-001	3.57680E+000	9	...........
	12	0.173333	5.74237E-001	-3.99227E-004	0.00000E+000	-2.29251E-004	-2.40040E-001	5.74465E-001	3.57680E+000	9	...........
	13	0.186667	5.66107E-001	-3.99446E-004	0.00000E+000	-2.26129E-004	-2.40040E-001	5.66331E-001	3.57680E+000	9	...........
	14	0.2	5.57971E-001	-3.99480E-004	0.00000E+000	-2.22899E-004	-2.40040E-001	5.58217E-001	3.57680E+000	9	...........
	15	0.213333	5.49951E-001	-3.98667E-004	0.00000E+000	-2.19247E-004	-2.40040E-001	5.50194E-001	3.57680E+000	9	...........
	16	0.226667	5.41943E-001	-3.99346E-004	0.00000E+000	-2.16423E-004	-2.40040E-001	5.42156E-001	3.57680E+000	9	...........
	17	0.24	5.34003E-001	-3.98768E-004	0.00000E+000	-2.12943E-004	-2.40040E-001	5.34205E-001	3.57680E+000	9	...........
	18	0.253333	5.26121E-001	-3.99526E-004	0.00000E+000	-2.10199E-004	-2.40040E-001	5.26339E-001	3.57680E+000	9	...........
	19	0.266667	5.18298E-001	-3.99173E-004	0.00000E+000	-2.06891E-004	-2.40040E-001	5.18496E-001	3.57680E+000	9	...........
	20	0.28	5.10520E-001	-3.99114E-004	0.00000E+000	-2.03755E-004	-2.40040E-001	5.10741E-001	3.57680E+000	9	...........
	21	0.293333	5.02753E-001	-3.98995E-004	0.00000E+000	-2.00596E-004	-2.40040E-001	5.02980E-001	3.57680E+000	9	...........
	22	0.306667	4.95101E-001	-3.98035E-004	0.00000E+000	-1.97067E-004	-2.40040E-001	4.95330E-001	3.57680E+000	9	...........
	23	0.32	4.87471E-001	-3.97567E-004	0.00000E+000	-1.93803E-004	-2.40040E-001	4.87636E-001	3.57680E+000	9	...........
	24	0.333333	4.80121E-001	-3.98561E-004	0.00000E+000	-1.91358E-004	-2.40040E-001	4.80222E-001	3.57679E+000	9	...........
	25	0.346667	4.72604E-001	-3.99393E-004	0.00000E+000	-1.88755E-004	-2.40040E-001	4.72702E-001	3.57670E+000	9	...........
	26	0.36	4.65129E-001	-3.99048E-004	0.00000E+000	-1.85609E-004	-2.40040E-001	4.65224E-001	3.57670E+000	9	...........
	27	0.373333	4.57630E-001	-3.99326E-004	0.00000E+000	-1.82744E-004	-2.40040E-001	4.57724E-001	3.57670E+000	9	...........
	28	0.386667	4.50209E-001	-3.99118E-004	0.00000E+000	-1.79687E-004	-2.40040E-001	4.50304E-001	3.57670E+000	9	...........
	29	0.4	4.42823E-001	-3.98214E-004	0.00000E+000	-1.76339E-004	-2.40040E-001	4.42917E-001	3.57670E+000	9	...........
	30	0.413333	4.35488E-001	-3.98174E-004	0.00000E+000	-1.73400E-004	-2.40040E-001	4.35573E-001	3.57670E+000	9	...........
	31	0.426667	4.28228E-001	-3.98748E-004	0.00000E+000	-1.70755E-004	-2.40040E-001	4.28311E-001	3.57670E+000	9	...........
	32	0.44	4.21001E-001	-3.99152E-004	0.00000E+000	-1.68043E-004	-2.40040E-001	4.21086E-001	3.57670E+000	9	...........
	33	0.453333	4.13815E-001	-3.98109E-004	0.00000E+000	-1.64743E-004	-2.40040E-001	4.13897E-001	3.57670E+000	9	...........
	34	0.466667	4.06611E-001	-3.99463E-004	0.00000E+000	-1.62426E-004	-2.40040E-001	4.06688E-001	3.57670E+000	9	...........
	35	0.48	3.99479E-001	-3.98645E-004	0.00000E+000	-1.59250E-004	-2.40040E-001	3.99556E-001	3.57670E+000	9	...........
	36	0.493333	3.92389E-001	-3.99035E-004	0.00000E+000	-1.56577E-004	-2.40040E-001	3.92466E-001	3.57670E+000	9	...........
	37	0.506667	3.85312E-001	-3.97186E-004	0.00000E+000	-1.53041E-004	-2.40040E-001	3.85384E-001	3.57670E+000	9	...........
	38	0.52	3.78355E-001	-3.98185E-004	0.00000E+000	-1.50655E-004	-2.40040E-001	3.78420E-001	3.57670E+000	9	...........
	39	0.533333	3.71440E-001	-3.99860E-004	0.00000E+000	-1.48524E-004	-2.40040E-001	3.71507E-001	3.57670E+000	9	...........
	40	0.546667	3.64532E-001	-3.98242E-004	0.00000E+000	-1.45172E-004	-2.40040E-001	3.64601E-001	3.57670E+000	9	...........
	41	0.56	3.57705E-001	-3.98816E-004	0.00000E+000	-1.42658E-004	-2.40040E-001	3.57775E-001	3.57670E+000	9	...........
	42	0.573333	3.50903E-001	-3.98285E-004	0.00000E+000	-1.39760E-004	-2.40040E-001	3.50965E-001	3.57670E+000	9	...........
	43	0.586667	3.44165E-001	-3.99651E-004	0.00000E+000	-1.37546E-004	-2.40040E-001	3.44231E-001	3.57670E+000	9	...........
	44	0.6	3.37503E-001	-3.98478E-004	0.00000E+000	-1.34488E-004	-2.40040E-001	3.37568E-001	3.57670E+000	9	...........
	45	0.613333	3.30795E-001	-3.98492E-004	0.00000E+000	-1.31819E-004	-2.40040E-001	3.30856E-001	3.57670E+000	9	...........
	46	0.626667	3.24118E-001	-3.98973E-004	0.00000E+000	-1.29314E-004	-2.40040E-001	3.24185E-001	3.57670E+000	9	...........
	47	0.64	3.17525E-001	-3.97901E-004	0.00000E+000	-1.26343E-004	-2.40040E-001	3.17584E-001	3.57670E+000	9	...........
	48	0.653333	3.10878E-001	-3.97605E-004	0.00000E+000	-1.23607E-004	-2.40040E-001	3.10944E-001	3.57670E+000	9	...........
	49	0.666667	3.04256E-001	-3.98629E-004	0.00000E+000	-1.21285E-004	-2.40040E-001	3.04315E-001	3.57670E+000	9	...........
	50	0.68	2.97796E-001	-3.99028E-004	0.00000E+000	-1.18829E-004	-2.40040E-001	2.97851E-001	3.57670E+000	9	...........
	51	0.693333	2.91442E-001	-3.98700E-004	0.00000E+000	-1.16198E-004	-2.40040E-001	2.91490E-001	3.57670E+000	9	...........
	52	0.706667	2.84976E-001	-3.97787E-004	0.00000E+000	-1.13360E-004	-2.40040E-001	2.85024E-001	3.57670E+000	9	...........
	53	0.72	2.78778E-001	-3.99094E-004	0.00000E+000	-1.11259E-004	-2.40040E-001	2.78827E-001	3.57670E+000	9	...........
	54	0.733333	2.72558E-001	-4.00012E-004	0.00000E+000	-1.09027E-004	-2.40040E-001	2.72611E-001	3.57670E+000	9	...........
	55	0.746667	2.66284E-001	-3.99248E-004	0.00000E+000	-1.06313E-004	-2.40040E-001	2.66336E-001	3.57670E+000	9	...........
	56	0.76	2.60111E-001	-3.98764E-004	0.00000E+000	-1.03723E-004	-2.40040E-001	2.60163E-001	3.57670E+000	9	...........
	57	0.773333	2.53947E-001	-3.98847E-004	0.00000E+000	-1.01286E-004	-2.40040E-001	2.53996E-001	3.57670E+000	9	...........
	58	0.786667	2.47792E-001	-3.98682E-004	0.00000E+000	-9.87903E-005	-2.40040E-001	2.47836E-001	3.57670E+000	9	...........
	59	0.8	2.41755E-001	-4.00047E-004	0.00000E+000	-9.67135E-005	-2.40040E-001	2.41794E-001	3.57670E+000	9	...........
	60	0.813333	2.35683E-001	-3.99034E-004	0.00000E+000	-9.40458E-005	-2.40040E-001	2.35728E-001	3.57670E+000	9	...........
	61	0.826667	2.29619E-001	-3.99297E-004	0.00000E+000	-9.16861E-005	-2.40040E-001	2.29658E-001	3.57670E+000	9	...........
	62	0.84	2.23681E-001	-3.98136E-004	0.00000E+000	-8.90554E-005	-2.40040E-001	2.23715E-001	3.57670E+000	9	...........
	63	0.853333	2.17708E-001	-3.98176E-004	0.00000E+000	-8.66860E-005	-2.40040E-001	2.17751E-001	3.57670E+000	9	...........
	64	0.866667	2.11850E-001	-3.98720E-004	0.00000E+000	-8.44686E-005	-2.40040E-001	2.11885E-001	3.57670E+000	9	...........
	65	0.88	2.06063E-001	-3.99538E-004	0.00000E+000	-8.23299E-005	-2.40040E-001	2.06099E-001	3.57670E+000	9	...........
	66	0.893333	2.00257E-001	-3.98627E-004	0.00000E+000	-7.98279E-005	-2.40040E-001	2.00291E-001	3.57670E+000	9	...........
	67	0.906667	1.94508E-001	-3.99839E-004	0.00000E+000	-7.77718E-005	-2.40040E-001	1.94543E-001	3.57670E+000	9	...........
	68	0.92	1.88770E-001	-3.98339E-004	0.00000E+000	-7.51947E-005	-2.40040E-001	1.88800E-001	3.57670E+000	9	...........
	69	0.933333	1.83021E-001	-3.97901E-004	0.00000E+000	-7.28241E-005	-2.40040E-001	1.83051E-001	3.57670E+000	9	...........
	70	0.946667	1.77288E-001	-3.98511E-004	0.00000E+000	-7.06513E-005	-2.40040E-001	1.77321E-001	3.57670E+000	9	...........
	71	0.96	1.71641E-001	-3.98016E-004	0.00000E+000	-6.83158E-005	-2.40040E-001	1.71677E-001	3.57670E+000	9	...........
	72	0.97333	1.66045E-001	-3.98460E-004	0.00000E+000	-6.61625E-005	-2.40040E-001	1.66076E-001	3.57670E+000	9	...........
	73	0.98667	1.60525E-001	-3.99221E-004	0.00000E+000	-6.40848E-005	-2.40040E-001	1.60552E-001	3.57670E+000	9	...........
	74	1	1.55085E-001	-3.99110E-004	0.00000E+000	-6.18959E-005	-2.40040E-001	1.55103E-001	3.57670E+000	9	...........
	75	1.01333	1.49599E-001	-3.98502E-004	0.00000E+000	-5.96155E-005	-2.40040E-001	1.49616E-001	3.57670E+000	9	...........
	76	1.02667	1.44205E-001	-3.97356E-004	0.00000E+000	-5.73007E-005	-2.40040E-001	1.44227E-001	3.57670E+000	9	...........
	77	1.04	1.38834E-001	-3.97634E-004	0.00000E+000	-5.52049E-005	-2.40040E-001	1.38859E-001	3.57670E+000	9	...........
	78	1.05333	1.33426E-001	-3.98052E-004	0.00000E+000	-5.31104E-005	-2.40040E-001	1.33450E-001	3.57670E+000	9	...........
	79	1.06667	1.28031E-001	-3.98142E-004	0.00000E+000	-5.09743E-005	-2.40040E-001	1.28049E-001	3.57670E+000	9	...........
	80	1.08	1.22670E-001	-3.98834E-004	0.00000E+000	-4.89250E-005	-2.40040E-001	1.22697E-001	3.57670E+000	9	...........
	81	1.09333	1.17455E-001	-3.99802E-004	0.00000E+000	-4.69589E-005	-2.40040E-001	1.17474E-001	3.57670E+000	9	...........
	82	1.10667	1.12145E-001	-3.98791E-004	0.00000E+000	-4.47222E-005	-2.40040E-001	1.12166E-001	3.57670E+000	9	...........
	83	1.12	1.06929E-001	-3.99665E-004	0.00000E+000	-4.27356E-005	-2.40040E-001	1.06952E-001	3.57670E+000	9	...........
	84	1.13333	1.01784E-001	-3.99745E-004	0.00000E+000	-4.06877E-005	-2.40040E-001	1.01807E-001	3.57670E+000	9	...........
	85	1.14667	9.66562E-002	-3.98600E-004	0.00000E+000	-3.85272E-005	-2.40040E-001	9.66712E-002	3.57670E+000	9	...........
	86	1.16	9.15578E-002	-3.98303E-004	0.00000E+000	-3.64677E-005	-2.40040E-001	9.15765E-002	3.57670E+000	9	...........
	87	1.17333	8.65732E-002	-3.98959E-004	0.00000E+000	-3.45392E-005	-2.40040E-001	8.65859E-002	3.57670E+000	9	...........
	88	1.18667	8.15354E-002	-3.97108E-004	0.00000E+000	-3.23784E-005	-2.40040E-001	8.15491E-002	3.57670E+000	9	...........
	89	1.2	7.65283E-002	-3.98328E-004	0.00000E+000	-3.04834E-005	-2.40040E-001	7.65374E-002	3.57670E+000	9	...........
	90	1.21333	7.15958E-002	-3.99022E-004	0.00000E+000	-2.85683E-005	-2.40040E-001	7.16031E-002	3.57670E+000	9	...........
	91	1.22667	6.66818E-002	-3.98577E-004	0.00000E+000	-2.65778E-005	-2.40040E-001	6.66873E-002	3.57670E+000	9	...........
	92	1.24	6.18270E-002	-3.99454E-004	0.00000E+000	-2.46971E-005	-2.40040E-001	6.18341E-002	3.57670E+000	9	...........
	93	1.25333	5.69647E-002	-3.99614E-004	0.00000E+000	-2.27639E-005	-2.40040E-001	5.69661E-002	3.57670E+000	9	...........
	94	1.26667	5.20667E-002	-3.99170E-004	0.00000E+000	-2.07834E-005	-2.40040E-001	5.20683E-002	3.57670E+000	9	...........
	95	1.28	4.72572E-002	-3.99121E-004	0.00000E+000	-1.88613E-005	-2.40040E-001	4.72614E-002	3.57670E+000	9	...........
	96	1.29333	4.24966E-002	-3.98753E-004	0.00000E+000	-1.69457E-005	-2.40040E-001	4.25013E-002	3.57670E+000	9	...........
	97	1.30667	3.76983E-002	-3.97973E-004	0.00000E+000	-1.50029E-005	-2.40040E-001	3.76959E-002	3.57670E+000	9	...........
	98	1.32	3.29360E-002	-3.98685E-004	0.00000E+000	-1.31311E-005	-2.40040E-001	3.29355E-002	3.57670E+000	9	...........
	99	1.33333	2.82891E-002	-3.99546E-004	0.00000E+000	-1.13028E-005	-2.40040E-001	2.82881E-002	3.57674E+000	9	...........
	100	1.34667	2.37328E-002	-3.98526E-004	0.00000E+000	-9.45814E-006	-2.40040E-001	2.37294E-002	3.57700E+000	9	...........
	101	1.36	1.91926E-002	-3.98750E-004	0.00000E+000	-7.65306E-006	-2.40040E-001	1.91853E-002	3.57700E+000	9	...........
	102	1.37333	1.46336E-002	-3.97784E-004	0.00000E+000	-5.82100E-006	-2.40040E-001	1.46253E-002	3.57700E+000	9	...........
	103	1.38667	9.96176E-003	-3.98989E-004	0.00000E+000	-3.97463E-006	-2.40040E-001	9.94628E-003	3.57700E+000	9	...........
	104	1.4	5.43370E-003	-3.99255E-004	0.00000E+000	-2.16943E-006	-2.40040E-001	5.41448E-003	3.57700E+000	9	...........
	105	1.41167	1.16592E-003	-3.98142E-004	0.00000E+000	-4.64202E-007	-2.40040E-001	1.14343E-003	3.57700E+000	9	...........
STARTTIMEOFFSET	QUANT	2361.713	Start Time Offset (s)
