EXPLAIN
TAG	PWR800_DISCHARGE
TITLE	LABEL	PWR Cyclic Charge Discharge (Cell) - Discharge Step	Test &Identifier
DATE	LABEL	12-7-2017	Date
TIME	LABEL	14:43:48	Time
NOTES	NOTES	3	&Notes...
	supercap test cell
	0.4mg
	6M KOH
PSTAT	PSTAT	IFC5000-01520	Potentiostat
CAPACITY	QUANT	1.00000E-003	Capacity (A-hr)
CELLTYPE	SELECTOR	1	&Cell Type
WORKINGCONNECTION	SELECTOR	0	&Working Lead
MAXDISCHARGETIME	VARIABLEANDUNITS	1.00000E+002	s	1.00000E+002	second(s)	Max &Discharge Time
DISCHARGEMODE	MULTIPARAM	0	4.00000E-004	&Discharge Mode	Constant Current	Amp(s)
SAMPLETIME	QUANT	1.00000E-002	Sa&mple Period (s)
DISCHARGESTOPAT1	MULTIPARAM	3	0.00000E+000	Discharge Stop At &1	Voltage < Limit	V
DISCHARGESTOPAT2	MULTIPARAM	0	0.00000E+000	Discharge Stop At &2	None	N/A
AESBHCSELECTOR	TOGGLE	F	Save Both Half Cells
IRCOMP	TOGGLE	F	IR &Measure
EOC	QUANT	0	Open Circuit (V)
SEQUENCER	TOGGLE	TRUE	Run as Sequence
PSTATMODEL	IQUANT	53	Pstat Model
PSTATSECTION	LABEL	IFC5000-01520	Pstat Section
PSTATSERIALNO	LABEL	01520	Pstat Serial Number
CTRLMODE	IQUANT	0	Control Mode
ELECTROMETER	IQUANT	1	RE=0 or CS=1
IESTAB	IQUANT	0	I/E Stability
CASPEED	IQUANT	4	Control Amp Speed
CONVENTION	IQUANT	1	Current Convention
ICHRANGE	IQUANT	2	Ich Range
ICHRANGEMODE	TOGGLE	T	Ich Auto Range
ICHOFFSETENABLE	TOGGLE	F	Ich Offset Enable
ICHOFFSET	QUANT	0	Ich Offset (V)
ICHFILTER	IQUANT	1	Ich Filter
VCHRANGE	IQUANT	2	Vch Range
VCHRANGEMODE	TOGGLE	T	Vch Auto Range
VCHOFFSETENABLE	TOGGLE	F	Vch Offset Enable
VCHOFFSET	QUANT	0	Vch Offset (V)
VCHFILTER	IQUANT	1	Vch Filter
IERANGELOWERLIMIT	IQUANT	9	I/E Range Lower Limit
IERANGEMODE	TOGGLE	F	I/E AutoRange
IERANGE	IQUANT	9	I/E Range
ACHSELECT	IQUANT	1	Ach Select
ACHRANGE	IQUANT	2	Ach Range
ACHOFFSETENABLE	TOGGLE	F	Ach Offset Enable
ACHOFFSET	QUANT	0	Ach Offset (V)
ACHFILTER	IQUANT	1	Ach Filter
CABLEID	IQUANT	14	Cable ID
DCCALDATE	LABEL	5-7-2017	DC Calibration Date
ACCALDATE	LABEL	12/3/2015	AC Calibration Date
FRAMEWORKVERSION	QUANT	7.01	Framework Version
INSTRUMENTVERSION	LABEL	4.00	Instrument Version
CURVE	TABLE	117
	Pt	T	Vf	Im	Vu	Pwr	Sig	Ach	Temp	IERange	Over
	#	s	V	A	V	W	V	V	deg C	#	bits
	0	0.013333	7.05470E-001	-3.98645E-004	0.00000E+000	-2.81232E-004	-2.40040E-001	7.05720E-001	3.57610E+000	9	...........
	1	0.026667	6.93370E-001	-3.99117E-004	0.00000E+000	-2.76736E-004	-2.40040E-001	6.93599E-001	3.57610E+000	9	...........
	2	0.04	6.82729E-001	-3.98938E-004	0.00000E+000	-2.72366E-004	-2.40040E-001	6.82967E-001	3.57610E+000	9	...........
	3	0.053333	6.72990E-001	-3.98422E-004	0.00000E+000	-2.68134E-004	-2.40040E-001	6.73229E-001	3.57610E+000	9	...........
	4	0.066667	6.63754E-001	-3.98848E-004	0.00000E+000	-2.64737E-004	-2.40040E-001	6.64012E-001	3.57610E+000	9	...........
	5	0.08	6.54863E-001	-3.99087E-004	0.00000E+000	-2.61347E-004	-2.40040E-001	6.55065E-001	3.57610E+000	9	...........
	6	0.093333	6.46267E-001	-3.98727E-004	0.00000E+000	-2.57684E-004	-2.40040E-001	6.46486E-001	3.57610E+000	9	...........
	7	0.106667	6.37855E-001	-3.97338E-004	0.00000E+000	-2.53444E-004	-2.40040E-001	6.38092E-001	3.57610E+000	9	...........
	8	0.12	6.29632E-001	-3.99830E-004	0.00000E+000	-2.51746E-004	-2.40040E-001	6.29869E-001	3.57610E+000	9	...........
	9	0.133333	6.21594E-001	-3.98018E-004	0.00000E+000	-2.47405E-004	-2.40040E-001	6.21779E-001	3.57610E+000	9	...........
	10	0.146667	6.13597E-001	-3.97244E-004	0.00000E+000	-2.43748E-004	-2.40040E-001	6.13840E-001	3.57610E+000	9	...........
	11	0.16	6.05704E-001	-3.99381E-004	0.00000E+000	-2.41907E-004	-2.40040E-001	6.05960E-001	3.57610E+000	9	...........
	12	0.173333	5.97986E-001	-3.99359E-004	0.00000E+000	-2.38811E-004	-2.40040E-001	5.98207E-001	3.57610E+000	9	...........
	13	0.186667	5.90243E-001	-3.99318E-004	0.00000E+000	-2.35695E-004	-2.40040E-001	5.90456E-001	3.57610E+000	9	...........
	14	0.2	5.82587E-001	-3.98245E-004	0.00000E+000	-2.32012E-004	-2.40040E-001	5.82793E-001	3.57610E+000	9	...........
	15	0.213333	5.75064E-001	-3.98352E-004	0.00000E+000	-2.29078E-004	-2.40040E-001	5.75250E-001	3.57610E+000	9	...........
	16	0.226667	5.67527E-001	-3.98797E-004	0.00000E+000	-2.26328E-004	-2.40040E-001	5.67734E-001	3.57610E+000	9	...........
	17	0.24	5.60057E-001	-3.99694E-004	0.00000E+000	-2.23851E-004	-2.40040E-001	5.60264E-001	3.57610E+000	9	...........
	18	0.253333	5.52596E-001	-3.98052E-004	0.00000E+000	-2.19962E-004	-2.40040E-001	5.52775E-001	3.57610E+000	9	...........
	19	0.266667	5.45244E-001	-3.99507E-004	0.00000E+000	-2.17829E-004	-2.40040E-001	5.45415E-001	3.57610E+000	9	...........
	20	0.28	5.37982E-001	-3.99059E-004	0.00000E+000	-2.14687E-004	-2.40040E-001	5.38172E-001	3.57610E+000	9	...........
	21	0.293333	5.30786E-001	-3.99108E-004	0.00000E+000	-2.11841E-004	-2.40040E-001	5.30961E-001	3.57610E+000	9	...........
	22	0.306667	5.23561E-001	-3.99310E-004	0.00000E+000	-2.09063E-004	-2.40040E-001	5.23727E-001	3.57610E+000	9	...........
	23	0.32	5.16439E-001	-3.99613E-004	0.00000E+000	-2.06375E-004	-2.40040E-001	5.16599E-001	3.57610E+000	9	...........
	24	0.333333	5.09270E-001	-3.98771E-004	0.00000E+000	-2.03082E-004	-2.40040E-001	5.09448E-001	3.57610E+000	9	...........
	25	0.346667	5.02158E-001	-3.99237E-004	0.00000E+000	-2.00480E-004	-2.40040E-001	5.02366E-001	3.57610E+000	9	...........
	26	0.36	4.95122E-001	-3.97234E-004	0.00000E+000	-1.96679E-004	-2.40040E-001	4.95326E-001	3.57610E+000	9	...........
	27	0.373333	4.88103E-001	-3.99759E-004	0.00000E+000	-1.95123E-004	-2.40040E-001	4.88294E-001	3.57610E+000	9	...........
	28	0.386667	4.81414E-001	-3.97978E-004	0.00000E+000	-1.91592E-004	-2.40040E-001	4.81489E-001	3.57610E+000	9	...........
	29	0.4	4.74417E-001	-3.97118E-004	0.00000E+000	-1.88400E-004	-2.40040E-001	4.74514E-001	3.57610E+000	9	...........
	30	0.413333	4.67477E-001	-3.97616E-004	0.00000E+000	-1.85877E-004	-2.40040E-001	4.67573E-001	3.57610E+000	9	...........
	31	0.426667	4.60603E-001	-3.96406E-004	0.00000E+000	-1.82586E-004	-2.40040E-001	4.60698E-001	3.57610E+000	9	...........
	32	0.44	4.53798E-001	-3.97835E-004	0.00000E+000	-1.80537E-004	-2.40040E-001	4.53889E-001	3.57610E+000	9	...........
	33	0.453333	4.46954E-001	-3.99329E-004	0.00000E+000	-1.78482E-004	-2.40040E-001	4.47048E-001	3.57610E+000	9	...........
	34	0.466667	4.40158E-001	-3.98596E-004	0.00000E+000	-1.75445E-004	-2.40040E-001	4.40248E-001	3.57610E+000	9	...........
	35	0.48	4.33396E-001	-3.98571E-004	0.00000E+000	-1.72739E-004	-2.40040E-001	4.33485E-001	3.57610E+000	9	...........
	36	0.493333	4.26817E-001	-3.98777E-004	0.00000E+000	-1.70205E-004	-2.40040E-001	4.26902E-001	3.57610E+000	9	...........
	37	0.506667	4.20183E-001	-3.99723E-004	0.00000E+000	-1.67957E-004	-2.40040E-001	4.20268E-001	3.57610E+000	9	...........
	38	0.52	4.13586E-001	-3.97952E-004	0.00000E+000	-1.64587E-004	-2.40040E-001	4.13675E-001	3.57610E+000	9	...........
	39	0.533333	4.07095E-001	-3.98580E-004	0.00000E+000	-1.62260E-004	-2.40040E-001	4.07179E-001	3.57610E+000	9	...........
	40	0.546667	4.00551E-001	-3.98963E-004	0.00000E+000	-1.59805E-004	-2.40040E-001	4.00629E-001	3.57610E+000	9	...........
	41	0.56	3.94062E-001	-3.98575E-004	0.00000E+000	-1.57063E-004	-2.40040E-001	3.94138E-001	3.57610E+000	9	...........
	42	0.573333	3.87531E-001	-3.97866E-004	0.00000E+000	-1.54186E-004	-2.40040E-001	3.87604E-001	3.57610E+000	9	...........
	43	0.586667	3.81157E-001	-3.99088E-004	0.00000E+000	-1.52115E-004	-2.40040E-001	3.81231E-001	3.57610E+000	9	...........
	44	0.6	3.74840E-001	-3.99072E-004	0.00000E+000	-1.49588E-004	-2.40040E-001	3.74912E-001	3.57610E+000	9	...........
	45	0.613333	3.68546E-001	-3.99478E-004	0.00000E+000	-1.47226E-004	-2.40040E-001	3.68621E-001	3.57610E+000	9	...........
	46	0.626667	3.62336E-001	-3.99665E-004	0.00000E+000	-1.44813E-004	-2.40040E-001	3.62411E-001	3.57610E+000	9	...........
	47	0.64	3.56035E-001	-3.99359E-004	0.00000E+000	-1.42186E-004	-2.40040E-001	3.56108E-001	3.57610E+000	9	...........
	48	0.653333	3.49801E-001	-3.99101E-004	0.00000E+000	-1.39606E-004	-2.40040E-001	3.49871E-001	3.57610E+000	9	...........
	49	0.666667	3.43619E-001	-3.99134E-004	0.00000E+000	-1.37150E-004	-2.40040E-001	3.43687E-001	3.57610E+000	9	...........
	50	0.68	3.37442E-001	-3.98165E-004	0.00000E+000	-1.34358E-004	-2.40040E-001	3.37511E-001	3.57610E+000	9	...........
	51	0.693333	3.31363E-001	-4.00628E-004	0.00000E+000	-1.32753E-004	-2.40040E-001	3.31431E-001	3.57610E+000	9	...........
	52	0.706667	3.25321E-001	-3.97168E-004	0.00000E+000	-1.29207E-004	-2.40040E-001	3.25387E-001	3.57610E+000	9	...........
	53	0.72	3.19206E-001	-3.98385E-004	0.00000E+000	-1.27167E-004	-2.40040E-001	3.19271E-001	3.57610E+000	9	...........
	54	0.733333	3.13184E-001	-3.99805E-004	0.00000E+000	-1.25213E-004	-2.40040E-001	3.13247E-001	3.57610E+000	9	...........
	55	0.746667	3.07190E-001	-4.00044E-004	0.00000E+000	-1.22890E-004	-2.40040E-001	3.07251E-001	3.57610E+000	9	...........
	56	0.76	3.01237E-001	-3.98175E-004	0.00000E+000	-1.19945E-004	-2.40040E-001	3.01298E-001	3.57610E+000	9	...........
	57	0.773333	2.95343E-001	-3.97569E-004	0.00000E+000	-1.17419E-004	-2.40040E-001	2.95404E-001	3.57610E+000	9	...........
	58	0.786667	2.89517E-001	-3.98732E-004	0.00000E+000	-1.15440E-004	-2.40040E-001	2.89577E-001	3.57610E+000	9	...........
	59	0.8	2.83720E-001	-4.00307E-004	0.00000E+000	-1.13575E-004	-2.40040E-001	2.83776E-001	3.57610E+000	9	...........
	60	0.813333	2.77833E-001	-3.99194E-004	0.00000E+000	-1.10909E-004	-2.40040E-001	2.77886E-001	3.57610E+000	9	...........
	61	0.826667	2.72076E-001	-3.98127E-004	0.00000E+000	-1.08321E-004	-2.40040E-001	2.72130E-001	3.57610E+000	9	...........
	62	0.84	2.66288E-001	-3.98759E-004	0.00000E+000	-1.06185E-004	-2.40040E-001	2.66341E-001	3.57610E+000	9	...........
	63	0.853333	2.60645E-001	-3.98712E-004	0.00000E+000	-1.03922E-004	-2.40040E-001	2.60688E-001	3.57610E+000	9	...........
	64	0.866667	2.54933E-001	-3.97922E-004	0.00000E+000	-1.01443E-004	-2.40040E-001	2.54984E-001	3.57610E+000	9	...........
	65	0.88	2.49275E-001	-3.99217E-004	0.00000E+000	-9.95148E-005	-2.40040E-001	2.49326E-001	3.57610E+000	9	...........
	66	0.893333	2.43702E-001	-3.98484E-004	0.00000E+000	-9.71112E-005	-2.40040E-001	2.43750E-001	3.57610E+000	9	...........
	67	0.906667	2.38111E-001	-3.99119E-004	0.00000E+000	-9.50347E-005	-2.40040E-001	2.38154E-001	3.57610E+000	9	...........
	68	0.92	2.32643E-001	-3.99513E-004	0.00000E+000	-9.29438E-005	-2.40040E-001	2.32693E-001	3.57610E+000	9	...........
	69	0.933333	2.27203E-001	-3.98610E-004	0.00000E+000	-9.05656E-005	-2.40040E-001	2.27249E-001	3.57610E+000	9	...........
	70	0.946667	2.21719E-001	-3.99998E-004	0.00000E+000	-8.86872E-005	-2.40040E-001	2.21763E-001	3.57610E+000	9	...........
	71	0.96	2.16167E-001	-3.98366E-004	0.00000E+000	-8.61133E-005	-2.40040E-001	2.16210E-001	3.57610E+000	9	...........
	72	0.97333	2.10794E-001	-3.98741E-004	0.00000E+000	-8.40522E-005	-2.40040E-001	2.10833E-001	3.57610E+000	9	...........
	73	0.98667	2.05408E-001	-3.99847E-004	0.00000E+000	-8.21316E-005	-2.40040E-001	2.05450E-001	3.57618E+000	9	...........
	74	1	1.99995E-001	-3.97779E-004	0.00000E+000	-7.95539E-005	-2.40040E-001	2.00035E-001	3.57620E+000	9	...........
	75	1.01333	1.94580E-001	-3.98417E-004	0.00000E+000	-7.75239E-005	-2.40040E-001	1.94615E-001	3.57620E+000	9	...........
	76	1.02667	1.89278E-001	-3.98493E-004	0.00000E+000	-7.54259E-005	-2.40040E-001	1.89313E-001	3.57620E+000	9	...........
	77	1.04	1.84089E-001	-3.99843E-004	0.00000E+000	-7.36066E-005	-2.40040E-001	1.84125E-001	3.57620E+000	9	...........
	78	1.05333	1.78923E-001	-3.98795E-004	0.00000E+000	-7.13536E-005	-2.40040E-001	1.78958E-001	3.57620E+000	9	...........
	79	1.06667	1.73654E-001	-3.98058E-004	0.00000E+000	-6.91243E-005	-2.40040E-001	1.73689E-001	3.57620E+000	9	...........
	80	1.08	1.68411E-001	-3.99482E-004	0.00000E+000	-6.72772E-005	-2.40040E-001	1.68450E-001	3.57620E+000	9	...........
	81	1.09333	1.63279E-001	-3.98896E-004	0.00000E+000	-6.51315E-005	-2.40040E-001	1.63304E-001	3.57620E+000	9	...........
	82	1.10667	1.58154E-001	-3.99222E-004	0.00000E+000	-6.31386E-005	-2.40040E-001	1.58175E-001	3.57620E+000	9	...........
	83	1.12	1.53044E-001	-3.99836E-004	0.00000E+000	-6.11926E-005	-2.40040E-001	1.53064E-001	3.57620E+000	9	...........
	84	1.13333	1.47925E-001	-3.98769E-004	0.00000E+000	-5.89880E-005	-2.40040E-001	1.47942E-001	3.57620E+000	9	...........
	85	1.14667	1.42901E-001	-3.98967E-004	0.00000E+000	-5.70128E-005	-2.40040E-001	1.42928E-001	3.57620E+000	9	...........
	86	1.16	1.37895E-001	-3.99348E-004	0.00000E+000	-5.50679E-005	-2.40040E-001	1.37921E-001	3.57620E+000	9	...........
	87	1.17333	1.32928E-001	-3.98878E-004	0.00000E+000	-5.30219E-005	-2.40040E-001	1.32944E-001	3.57620E+000	9	...........
	88	1.18667	1.27986E-001	-3.99823E-004	0.00000E+000	-5.11718E-005	-2.40040E-001	1.28011E-001	3.57620E+000	9	...........
	89	1.2	1.23040E-001	-3.98139E-004	0.00000E+000	-4.89871E-005	-2.40040E-001	1.23062E-001	3.57620E+000	9	...........
	90	1.21333	1.18101E-001	-3.99416E-004	0.00000E+000	-4.71714E-005	-2.40040E-001	1.18125E-001	3.57620E+000	9	...........
	91	1.22667	1.13318E-001	-3.97582E-004	0.00000E+000	-4.50534E-005	-2.40040E-001	1.13343E-001	3.57620E+000	9	...........
	92	1.24	1.08451E-001	-3.96494E-004	0.00000E+000	-4.30001E-005	-2.40040E-001	1.08476E-001	3.57620E+000	9	...........
	93	1.25333	1.03688E-001	-3.99514E-004	0.00000E+000	-4.14247E-005	-2.40040E-001	1.03708E-001	3.57620E+000	9	...........
	94	1.26667	9.89154E-002	-3.98675E-004	0.00000E+000	-3.94351E-005	-2.40040E-001	9.89345E-002	3.57620E+000	9	...........
	95	1.28	9.41476E-002	-3.98329E-004	0.00000E+000	-3.75017E-005	-2.40040E-001	9.41642E-002	3.57620E+000	9	...........
	96	1.29333	8.93101E-002	-3.98371E-004	0.00000E+000	-3.55785E-005	-2.40040E-001	8.93340E-002	3.57620E+000	9	...........
	97	1.30667	8.46033E-002	-4.00142E-004	0.00000E+000	-3.38533E-005	-2.40040E-001	8.46191E-002	3.57620E+000	9	...........
	98	1.32	7.98230E-002	-3.99208E-004	0.00000E+000	-3.18660E-005	-2.40040E-001	7.98309E-002	3.57620E+000	9	...........
	99	1.33333	7.51011E-002	-3.98581E-004	0.00000E+000	-2.99339E-005	-2.40040E-001	7.51119E-002	3.57620E+000	9	...........
	100	1.34667	7.04367E-002	-3.99393E-004	0.00000E+000	-2.81319E-005	-2.40040E-001	7.04461E-002	3.57620E+000	9	...........
	101	1.36	6.58568E-002	-3.98941E-004	0.00000E+000	-2.62730E-005	-2.40040E-001	6.58637E-002	3.57620E+000	9	...........
	102	1.37333	6.13767E-002	-3.98715E-004	0.00000E+000	-2.44718E-005	-2.40040E-001	6.13772E-002	3.57620E+000	9	...........
	103	1.38667	5.68181E-002	-3.98606E-004	0.00000E+000	-2.26481E-005	-2.40040E-001	5.68241E-002	3.57620E+000	9	...........
	104	1.4	5.22886E-002	-3.98270E-004	0.00000E+000	-2.08249E-005	-2.40040E-001	5.22938E-002	3.57620E+000	9	...........
	105	1.41333	4.77524E-002	-3.98023E-004	0.00000E+000	-1.90065E-005	-2.40040E-001	4.77523E-002	3.57620E+000	9	...........
	106	1.42667	4.32382E-002	-3.99224E-004	0.00000E+000	-1.72617E-005	-2.40040E-001	4.32446E-002	3.57620E+000	9	...........
	107	1.44	3.87357E-002	-3.98248E-004	0.00000E+000	-1.54264E-005	-2.40040E-001	3.87406E-002	3.57620E+000	9	...........
	108	1.45333	3.41992E-002	-3.99426E-004	0.00000E+000	-1.36600E-005	-2.40040E-001	3.41981E-002	3.57620E+000	9	...........
	109	1.46667	2.97834E-002	-3.98037E-004	0.00000E+000	-1.18549E-005	-2.40040E-001	2.97791E-002	3.57620E+000	9	...........
	110	1.48	2.53658E-002	-3.99391E-004	0.00000E+000	-1.01309E-005	-2.40040E-001	2.53592E-002	3.57620E+000	9	...........
	111	1.49333	2.09629E-002	-3.98427E-004	0.00000E+000	-8.35220E-006	-2.40040E-001	2.09528E-002	3.57620E+000	9	...........
	112	1.50667	1.66160E-002	-3.98673E-004	0.00000E+000	-6.62434E-006	-2.40040E-001	1.66068E-002	3.57620E+000	9	...........
	113	1.52	1.22937E-002	-3.99042E-004	0.00000E+000	-4.90570E-006	-2.40040E-001	1.22869E-002	3.57620E+000	9	...........
	114	1.53333	7.93760E-003	-3.97935E-004	0.00000E+000	-3.15865E-006	-2.40040E-001	7.92716E-003	3.57620E+000	9	...........
	115	1.54667	3.71617E-003	-3.98430E-004	0.00000E+000	-1.48064E-006	-2.40040E-001	3.69373E-003	3.57620E+000	9	...........
	116	1.55333	5.91843E-004	-3.97264E-004	0.00000E+000	-2.35118E-007	-2.40040E-001	5.74160E-004	3.57620E+000	9	...........
STARTTIMEOFFSET	QUANT	1208.859	Start Time Offset (s)
