EXPLAIN
TAG	PWR800_DISCHARGE
TITLE	LABEL	PWR Cyclic Charge Discharge (Cell) - Discharge Step	Test &Identifier
DATE	LABEL	12-7-2017	Date
TIME	LABEL	14:59:26	Time
NOTES	NOTES	3	&Notes...
	supercap test cell
	0.4mg
	6M KOH
PSTAT	PSTAT	IFC5000-01520	Potentiostat
CAPACITY	QUANT	1.00000E-003	Capacity (A-hr)
CELLTYPE	SELECTOR	1	&Cell Type
WORKINGCONNECTION	SELECTOR	0	&Working Lead
MAXDISCHARGETIME	VARIABLEANDUNITS	1.00000E+002	s	1.00000E+002	second(s)	Max &Discharge Time
DISCHARGEMODE	MULTIPARAM	0	4.00000E-004	&Discharge Mode	Constant Current	Amp(s)
SAMPLETIME	QUANT	1.00000E-002	Sa&mple Period (s)
DISCHARGESTOPAT1	MULTIPARAM	3	0.00000E+000	Discharge Stop At &1	Voltage < Limit	V
DISCHARGESTOPAT2	MULTIPARAM	0	0.00000E+000	Discharge Stop At &2	None	N/A
AESBHCSELECTOR	TOGGLE	F	Save Both Half Cells
IRCOMP	TOGGLE	F	IR &Measure
EOC	QUANT	0	Open Circuit (V)
SEQUENCER	TOGGLE	TRUE	Run as Sequence
PSTATMODEL	IQUANT	53	Pstat Model
PSTATSECTION	LABEL	IFC5000-01520	Pstat Section
PSTATSERIALNO	LABEL	01520	Pstat Serial Number
CTRLMODE	IQUANT	0	Control Mode
ELECTROMETER	IQUANT	1	RE=0 or CS=1
IESTAB	IQUANT	0	I/E Stability
CASPEED	IQUANT	4	Control Amp Speed
CONVENTION	IQUANT	1	Current Convention
ICHRANGE	IQUANT	2	Ich Range
ICHRANGEMODE	TOGGLE	T	Ich Auto Range
ICHOFFSETENABLE	TOGGLE	F	Ich Offset Enable
ICHOFFSET	QUANT	0	Ich Offset (V)
ICHFILTER	IQUANT	1	Ich Filter
VCHRANGE	IQUANT	2	Vch Range
VCHRANGEMODE	TOGGLE	T	Vch Auto Range
VCHOFFSETENABLE	TOGGLE	F	Vch Offset Enable
VCHOFFSET	QUANT	0	Vch Offset (V)
VCHFILTER	IQUANT	1	Vch Filter
IERANGELOWERLIMIT	IQUANT	9	I/E Range Lower Limit
IERANGEMODE	TOGGLE	F	I/E AutoRange
IERANGE	IQUANT	9	I/E Range
ACHSELECT	IQUANT	1	Ach Select
ACHRANGE	IQUANT	2	Ach Range
ACHOFFSETENABLE	TOGGLE	F	Ach Offset Enable
ACHOFFSET	QUANT	0	Ach Offset (V)
ACHFILTER	IQUANT	1	Ach Filter
CABLEID	IQUANT	14	Cable ID
DCCALDATE	LABEL	5-7-2017	DC Calibration Date
ACCALDATE	LABEL	12/3/2015	AC Calibration Date
FRAMEWORKVERSION	QUANT	7.01	Framework Version
INSTRUMENTVERSION	LABEL	4.00	Instrument Version
CURVE	TABLE	109
	Pt	T	Vf	Im	Vu	Pwr	Sig	Ach	Temp	IERange	Over
	#	s	V	A	V	W	V	V	deg C	#	bits
	0	0.013333	6.94987E-001	-3.98934E-004	0.00000E+000	-2.77254E-004	-2.40040E-001	6.95227E-001	3.57620E+000	9	...........
	1	0.026667	6.82076E-001	-3.99632E-004	0.00000E+000	-2.72580E-004	-2.40040E-001	6.82317E-001	3.57620E+000	9	...........
	2	0.04	6.70757E-001	-3.98648E-004	0.00000E+000	-2.67396E-004	-2.40040E-001	6.71013E-001	3.57620E+000	9	...........
	3	0.053333	6.60398E-001	-3.99125E-004	0.00000E+000	-2.63581E-004	-2.40040E-001	6.60624E-001	3.57620E+000	9	...........
	4	0.066667	6.50622E-001	-3.99168E-004	0.00000E+000	-2.59707E-004	-2.40040E-001	6.50864E-001	3.57620E+000	9	...........
	5	0.08	6.41292E-001	-3.99249E-004	0.00000E+000	-2.56035E-004	-2.40040E-001	6.41529E-001	3.57620E+000	9	...........
	6	0.093333	6.32238E-001	-3.97953E-004	0.00000E+000	-2.51601E-004	-2.40040E-001	6.32503E-001	3.57620E+000	9	...........
	7	0.106667	6.23441E-001	-3.98224E-004	0.00000E+000	-2.48269E-004	-2.40040E-001	6.23691E-001	3.57620E+000	9	...........
	8	0.12	6.14894E-001	-3.98848E-004	0.00000E+000	-2.45249E-004	-2.40040E-001	6.15137E-001	3.57620E+000	9	...........
	9	0.133333	6.06417E-001	-3.98084E-004	0.00000E+000	-2.41405E-004	-2.40040E-001	6.06690E-001	3.57620E+000	9	...........
	10	0.146667	5.98109E-001	-3.99297E-004	0.00000E+000	-2.38823E-004	-2.40040E-001	5.98365E-001	3.57620E+000	9	...........
	11	0.16	5.89929E-001	-3.99800E-004	0.00000E+000	-2.35854E-004	-2.40040E-001	5.90172E-001	3.57620E+000	9	...........
	12	0.173333	5.81819E-001	-3.97750E-004	0.00000E+000	-2.31418E-004	-2.40040E-001	5.82046E-001	3.57620E+000	9	...........
	13	0.186667	5.73808E-001	-3.98785E-004	0.00000E+000	-2.28826E-004	-2.40040E-001	5.74018E-001	3.57620E+000	9	...........
	14	0.2	5.65858E-001	-3.98262E-004	0.00000E+000	-2.25360E-004	-2.40040E-001	5.66049E-001	3.57620E+000	9	...........
	15	0.213333	5.57999E-001	-3.99552E-004	0.00000E+000	-2.22950E-004	-2.40040E-001	5.58201E-001	3.57620E+000	9	...........
	16	0.226667	5.50232E-001	-3.98458E-004	0.00000E+000	-2.19245E-004	-2.40040E-001	5.50406E-001	3.57620E+000	9	...........
	17	0.24	5.42414E-001	-3.99313E-004	0.00000E+000	-2.16593E-004	-2.40040E-001	5.42584E-001	3.57620E+000	9	...........
	18	0.253333	5.34699E-001	-3.98153E-004	0.00000E+000	-2.12892E-004	-2.40040E-001	5.34881E-001	3.57620E+000	9	...........
	19	0.266667	5.27020E-001	-3.99351E-004	0.00000E+000	-2.10466E-004	-2.40040E-001	5.27219E-001	3.57620E+000	9	...........
	20	0.28	5.19332E-001	-3.98490E-004	0.00000E+000	-2.06948E-004	-2.40040E-001	5.19491E-001	3.57620E+000	9	...........
	21	0.293333	5.11741E-001	-3.99090E-004	0.00000E+000	-2.04230E-004	-2.40040E-001	5.11896E-001	3.57620E+000	9	...........
	22	0.306667	5.04197E-001	-3.97804E-004	0.00000E+000	-2.00571E-004	-2.40040E-001	5.04378E-001	3.57620E+000	9	...........
	23	0.32	4.96796E-001	-3.99187E-004	0.00000E+000	-1.98314E-004	-2.40040E-001	4.96970E-001	3.57620E+000	9	...........
	24	0.333333	4.89436E-001	-3.98757E-004	0.00000E+000	-1.95166E-004	-2.40040E-001	4.89631E-001	3.57620E+000	9	...........
	25	0.346667	4.82253E-001	-3.99606E-004	0.00000E+000	-1.92711E-004	-2.40040E-001	4.82348E-001	3.57620E+000	9	...........
	26	0.36	4.74938E-001	-3.99058E-004	0.00000E+000	-1.89528E-004	-2.40040E-001	4.75035E-001	3.57620E+000	9	...........
	27	0.373333	4.67581E-001	-3.99005E-004	0.00000E+000	-1.86567E-004	-2.40040E-001	4.67682E-001	3.57620E+000	9	...........
	28	0.386667	4.60255E-001	-3.98809E-004	0.00000E+000	-1.83554E-004	-2.40040E-001	4.60340E-001	3.57620E+000	9	...........
	29	0.4	4.53020E-001	-3.97909E-004	0.00000E+000	-1.80261E-004	-2.40040E-001	4.53109E-001	3.57620E+000	9	...........
	30	0.413333	4.45824E-001	-3.99289E-004	0.00000E+000	-1.78012E-004	-2.40040E-001	4.45916E-001	3.57620E+000	9	...........
	31	0.426667	4.38691E-001	-3.97679E-004	0.00000E+000	-1.74458E-004	-2.40040E-001	4.38781E-001	3.57620E+000	9	...........
	32	0.44	4.31583E-001	-3.98622E-004	0.00000E+000	-1.72038E-004	-2.40040E-001	4.31673E-001	3.57620E+000	9	...........
	33	0.453333	4.24435E-001	-3.98462E-004	0.00000E+000	-1.69121E-004	-2.40040E-001	4.24525E-001	3.57620E+000	9	...........
	34	0.466667	4.17406E-001	-3.99142E-004	0.00000E+000	-1.66604E-004	-2.40040E-001	4.17496E-001	3.57620E+000	9	...........
	35	0.48	4.10413E-001	-3.99000E-004	0.00000E+000	-1.63755E-004	-2.40040E-001	4.10498E-001	3.57620E+000	9	...........
	36	0.493333	4.03502E-001	-3.99567E-004	0.00000E+000	-1.61226E-004	-2.40040E-001	4.03579E-001	3.57620E+000	9	...........
	37	0.506667	3.96724E-001	-3.99750E-004	0.00000E+000	-1.58591E-004	-2.40040E-001	3.96806E-001	3.57620E+000	9	...........
	38	0.52	3.89942E-001	-3.97074E-004	0.00000E+000	-1.54836E-004	-2.40040E-001	3.90019E-001	3.57620E+000	9	...........
	39	0.533333	3.83098E-001	-3.99868E-004	0.00000E+000	-1.53188E-004	-2.40040E-001	3.83172E-001	3.57620E+000	9	...........
	40	0.546667	3.76344E-001	-3.97731E-004	0.00000E+000	-1.49684E-004	-2.40040E-001	3.76414E-001	3.57620E+000	9	...........
	41	0.56	3.69594E-001	-3.98617E-004	0.00000E+000	-1.47326E-004	-2.40040E-001	3.69663E-001	3.57620E+000	9	...........
	42	0.573333	3.62860E-001	-3.99632E-004	0.00000E+000	-1.45011E-004	-2.40040E-001	3.62936E-001	3.57620E+000	9	...........
	43	0.586667	3.56255E-001	-3.98599E-004	0.00000E+000	-1.42003E-004	-2.40040E-001	3.56320E-001	3.57620E+000	9	...........
	44	0.6	3.49520E-001	-3.97456E-004	0.00000E+000	-1.38919E-004	-2.40040E-001	3.49590E-001	3.57620E+000	9	...........
	45	0.613333	3.42906E-001	-3.99773E-004	0.00000E+000	-1.37085E-004	-2.40040E-001	3.42974E-001	3.57620E+000	9	...........
	46	0.626667	3.36444E-001	-3.98363E-004	0.00000E+000	-1.34027E-004	-2.40040E-001	3.36511E-001	3.57620E+000	9	...........
	47	0.64	3.29904E-001	-3.98627E-004	0.00000E+000	-1.31509E-004	-2.40040E-001	3.29967E-001	3.57620E+000	9	...........
	48	0.653333	3.23539E-001	-3.99865E-004	0.00000E+000	-1.29372E-004	-2.40040E-001	3.23602E-001	3.57620E+000	9	...........
	49	0.666667	3.17170E-001	-4.00031E-004	0.00000E+000	-1.26878E-004	-2.40040E-001	3.17237E-001	3.57620E+000	9	...........
	50	0.68	3.10818E-001	-3.99400E-004	0.00000E+000	-1.24141E-004	-2.40040E-001	3.10880E-001	3.57620E+000	9	...........
	51	0.693333	3.04476E-001	-3.99295E-004	0.00000E+000	-1.21576E-004	-2.40040E-001	3.04543E-001	3.57620E+000	9	...........
	52	0.706667	2.98217E-001	-3.99358E-004	0.00000E+000	-1.19096E-004	-2.40040E-001	2.98272E-001	3.57620E+000	9	...........
	53	0.72	2.91895E-001	-3.98609E-004	0.00000E+000	-1.16352E-004	-2.40040E-001	2.91956E-001	3.57725E+000	9	...........
	54	0.733333	2.85700E-001	-3.98932E-004	0.00000E+000	-1.13975E-004	-2.40040E-001	2.85756E-001	3.57760E+000	9	...........
	55	0.746667	2.79558E-001	-3.98833E-004	0.00000E+000	-1.11497E-004	-2.40040E-001	2.79617E-001	3.57760E+000	9	...........
	56	0.76	2.73400E-001	-3.98700E-004	0.00000E+000	-1.09005E-004	-2.40040E-001	2.73458E-001	3.57760E+000	9	...........
	57	0.773333	2.67285E-001	-3.97643E-004	0.00000E+000	-1.06284E-004	-2.40040E-001	2.67340E-001	3.57760E+000	9	...........
	58	0.786667	2.61181E-001	-3.98358E-004	0.00000E+000	-1.04044E-004	-2.40040E-001	2.61236E-001	3.57760E+000	9	...........
	59	0.8	2.55079E-001	-3.97453E-004	0.00000E+000	-1.01382E-004	-2.40040E-001	2.55130E-001	3.57760E+000	9	...........
	60	0.813333	2.49053E-001	-3.98449E-004	0.00000E+000	-9.92350E-005	-2.40040E-001	2.49107E-001	3.57760E+000	9	...........
	61	0.826667	2.43057E-001	-3.97790E-004	0.00000E+000	-9.66857E-005	-2.40040E-001	2.43104E-001	3.57760E+000	9	...........
	62	0.84	2.37115E-001	-3.98956E-004	0.00000E+000	-9.45984E-005	-2.40040E-001	2.37160E-001	3.57760E+000	9	...........
	63	0.853333	2.31279E-001	-3.99058E-004	0.00000E+000	-9.22940E-005	-2.40040E-001	2.31326E-001	3.57760E+000	9	...........
	64	0.866667	2.25473E-001	-3.98327E-004	0.00000E+000	-8.98120E-005	-2.40040E-001	2.25515E-001	3.57760E+000	9	...........
	65	0.88	2.19610E-001	-3.98457E-004	0.00000E+000	-8.75053E-005	-2.40040E-001	2.19647E-001	3.57760E+000	9	...........
	66	0.893333	2.13758E-001	-3.98726E-004	0.00000E+000	-8.52308E-005	-2.40040E-001	2.13792E-001	3.57760E+000	9	...........
	67	0.906667	2.08116E-001	-3.99000E-004	0.00000E+000	-8.30382E-005	-2.40040E-001	2.08145E-001	3.57760E+000	9	...........
	68	0.92	2.02529E-001	-3.98629E-004	0.00000E+000	-8.07340E-005	-2.40040E-001	2.02569E-001	3.57760E+000	9	...........
	69	0.933333	1.96867E-001	-3.99741E-004	0.00000E+000	-7.86957E-005	-2.40040E-001	1.96900E-001	3.57760E+000	9	...........
	70	0.946667	1.91187E-001	-3.99001E-004	0.00000E+000	-7.62838E-005	-2.40040E-001	1.91227E-001	3.57760E+000	9	...........
	71	0.96	1.85632E-001	-3.98688E-004	0.00000E+000	-7.40093E-005	-2.40040E-001	1.85665E-001	3.57760E+000	9	...........
	72	0.97333	1.80068E-001	-3.99647E-004	0.00000E+000	-7.19635E-005	-2.40040E-001	1.80098E-001	3.57760E+000	9	...........
	73	0.98667	1.74601E-001	-3.98555E-004	0.00000E+000	-6.95882E-005	-2.40040E-001	1.74638E-001	3.57760E+000	9	...........
	74	1	1.69162E-001	-3.99254E-004	0.00000E+000	-6.75386E-005	-2.40040E-001	1.69201E-001	3.57760E+000	9	...........
	75	1.01333	1.63672E-001	-3.98612E-004	0.00000E+000	-6.52417E-005	-2.40040E-001	1.63705E-001	3.57760E+000	9	...........
	76	1.02667	1.58281E-001	-3.97923E-004	0.00000E+000	-6.29835E-005	-2.40040E-001	1.58305E-001	3.57760E+000	9	...........
	77	1.04	1.52938E-001	-3.99071E-004	0.00000E+000	-6.10332E-005	-2.40040E-001	1.52967E-001	3.57760E+000	9	...........
	78	1.05333	1.47577E-001	-3.98251E-004	0.00000E+000	-5.87726E-005	-2.40040E-001	1.47596E-001	3.57760E+000	9	...........
	79	1.06667	1.42258E-001	-3.99761E-004	0.00000E+000	-5.68691E-005	-2.40040E-001	1.42281E-001	3.57760E+000	9	...........
	80	1.08	1.36964E-001	-3.99292E-004	0.00000E+000	-5.46886E-005	-2.40040E-001	1.36982E-001	3.57760E+000	9	...........
	81	1.09333	1.31693E-001	-3.98709E-004	0.00000E+000	-5.25071E-005	-2.40040E-001	1.31716E-001	3.57760E+000	9	...........
	82	1.10667	1.26537E-001	-3.97826E-004	0.00000E+000	-5.03398E-005	-2.40040E-001	1.26549E-001	3.57760E+000	9	...........
	83	1.12	1.21315E-001	-3.99289E-004	0.00000E+000	-4.84395E-005	-2.40040E-001	1.21337E-001	3.57760E+000	9	...........
	84	1.13333	1.16077E-001	-3.98780E-004	0.00000E+000	-4.62892E-005	-2.40040E-001	1.16097E-001	3.57760E+000	9	...........
	85	1.14667	1.10943E-001	-3.98880E-004	0.00000E+000	-4.42529E-005	-2.40040E-001	1.10963E-001	3.57760E+000	9	...........
	86	1.16	1.05891E-001	-3.98973E-004	0.00000E+000	-4.22477E-005	-2.40040E-001	1.05917E-001	3.57760E+000	9	...........
	87	1.17333	1.00835E-001	-3.98988E-004	0.00000E+000	-4.02321E-005	-2.40040E-001	1.00857E-001	3.57760E+000	9	...........
	88	1.18667	9.58522E-002	-3.99286E-004	0.00000E+000	-3.82724E-005	-2.40040E-001	9.58675E-002	3.57760E+000	9	...........
	89	1.2	9.08656E-002	-3.97636E-004	0.00000E+000	-3.61314E-005	-2.40040E-001	9.08790E-002	3.57760E+000	9	...........
	90	1.21333	8.59284E-002	-3.99607E-004	0.00000E+000	-3.43376E-005	-2.40040E-001	8.59455E-002	3.57760E+000	9	...........
	91	1.22667	8.09879E-002	-3.99553E-004	0.00000E+000	-3.23590E-005	-2.40040E-001	8.10020E-002	3.57760E+000	9	...........
	92	1.24	7.61335E-002	-3.98478E-004	0.00000E+000	-3.03375E-005	-2.40040E-001	7.61423E-002	3.57760E+000	9	...........
	93	1.25333	7.12162E-002	-3.98228E-004	0.00000E+000	-2.83603E-005	-2.40040E-001	7.12262E-002	3.57760E+000	9	...........
	94	1.26667	6.64183E-002	-3.99369E-004	0.00000E+000	-2.65254E-005	-2.40040E-001	6.64246E-002	3.57760E+000	9	...........
	95	1.28	6.16001E-002	-3.99029E-004	0.00000E+000	-2.45802E-005	-2.40040E-001	6.15996E-002	3.57760E+000	9	...........
	96	1.29333	5.67331E-002	-3.98005E-004	0.00000E+000	-2.25800E-005	-2.40040E-001	5.67354E-002	3.57760E+000	9	...........
	97	1.30667	5.19608E-002	-3.98304E-004	0.00000E+000	-2.06962E-005	-2.40040E-001	5.19601E-002	3.57760E+000	9	...........
	98	1.32	4.72442E-002	-3.99314E-004	0.00000E+000	-1.88653E-005	-2.40040E-001	4.72499E-002	3.57760E+000	9	...........
	99	1.33333	4.25169E-002	-3.98552E-004	0.00000E+000	-1.69452E-005	-2.40040E-001	4.25234E-002	3.57760E+000	9	...........
	100	1.34667	3.78007E-002	-3.99701E-004	0.00000E+000	-1.51090E-005	-2.40040E-001	3.78029E-002	3.57760E+000	9	...........
	101	1.36	3.31998E-002	-3.97972E-004	0.00000E+000	-1.32126E-005	-2.40040E-001	3.31999E-002	3.57760E+000	9	...........
	102	1.37333	2.85752E-002	-3.99738E-004	0.00000E+000	-1.14226E-005	-2.40040E-001	2.85705E-002	3.57760E+000	9	...........
	103	1.38667	2.39768E-002	-3.98925E-004	0.00000E+000	-9.56494E-006	-2.40040E-001	2.39680E-002	3.57760E+000	9	...........
	104	1.4	1.94557E-002	-3.98448E-004	0.00000E+000	-7.75209E-006	-2.40040E-001	1.94421E-002	3.57760E+000	9	...........
	105	1.41333	1.49491E-002	-3.98582E-004	0.00000E+000	-5.95844E-006	-2.40040E-001	1.49369E-002	3.57760E+000	9	...........
	106	1.42667	1.05135E-002	-3.99143E-004	0.00000E+000	-4.19639E-006	-2.40040E-001	1.05023E-002	3.57760E+000	9	...........
	107	1.44	5.96171E-003	-3.98395E-004	0.00000E+000	-2.37511E-006	-2.40040E-001	5.94119E-003	3.57760E+000	9	...........
	108	1.45167	1.67119E-003	-3.97797E-004	0.00000E+000	-6.64795E-007	-2.40040E-001	1.65215E-003	3.57760E+000	9	...........
STARTTIMEOFFSET	QUANT	1947.538	Start Time Offset (s)
