EXPLAIN
TAG	PWR800_DISCHARGE
TITLE	LABEL	PWR Cyclic Charge Discharge (Cell) - Discharge Step	Test &Identifier
DATE	LABEL	12-7-2017	Date
TIME	LABEL	14:52:53	Time
NOTES	NOTES	3	&Notes...
	supercap test cell
	0.4mg
	6M KOH
PSTAT	PSTAT	IFC5000-01520	Potentiostat
CAPACITY	QUANT	1.00000E-003	Capacity (A-hr)
CELLTYPE	SELECTOR	1	&Cell Type
WORKINGCONNECTION	SELECTOR	0	&Working Lead
MAXDISCHARGETIME	VARIABLEANDUNITS	1.00000E+002	s	1.00000E+002	second(s)	Max &Discharge Time
DISCHARGEMODE	MULTIPARAM	0	4.00000E-004	&Discharge Mode	Constant Current	Amp(s)
SAMPLETIME	QUANT	1.00000E-002	Sa&mple Period (s)
DISCHARGESTOPAT1	MULTIPARAM	3	0.00000E+000	Discharge Stop At &1	Voltage < Limit	V
DISCHARGESTOPAT2	MULTIPARAM	0	0.00000E+000	Discharge Stop At &2	None	N/A
AESBHCSELECTOR	TOGGLE	F	Save Both Half Cells
IRCOMP	TOGGLE	F	IR &Measure
EOC	QUANT	0	Open Circuit (V)
SEQUENCER	TOGGLE	TRUE	Run as Sequence
PSTATMODEL	IQUANT	53	Pstat Model
PSTATSECTION	LABEL	IFC5000-01520	Pstat Section
PSTATSERIALNO	LABEL	01520	Pstat Serial Number
CTRLMODE	IQUANT	0	Control Mode
ELECTROMETER	IQUANT	1	RE=0 or CS=1
IESTAB	IQUANT	0	I/E Stability
CASPEED	IQUANT	4	Control Amp Speed
CONVENTION	IQUANT	1	Current Convention
ICHRANGE	IQUANT	2	Ich Range
ICHRANGEMODE	TOGGLE	T	Ich Auto Range
ICHOFFSETENABLE	TOGGLE	F	Ich Offset Enable
ICHOFFSET	QUANT	0	Ich Offset (V)
ICHFILTER	IQUANT	1	Ich Filter
VCHRANGE	IQUANT	2	Vch Range
VCHRANGEMODE	TOGGLE	T	Vch Auto Range
VCHOFFSETENABLE	TOGGLE	F	Vch Offset Enable
VCHOFFSET	QUANT	0	Vch Offset (V)
VCHFILTER	IQUANT	1	Vch Filter
IERANGELOWERLIMIT	IQUANT	9	I/E Range Lower Limit
IERANGEMODE	TOGGLE	F	I/E AutoRange
IERANGE	IQUANT	9	I/E Range
ACHSELECT	IQUANT	1	Ach Select
ACHRANGE	IQUANT	2	Ach Range
ACHOFFSETENABLE	TOGGLE	F	Ach Offset Enable
ACHOFFSET	QUANT	0	Ach Offset (V)
ACHFILTER	IQUANT	1	Ach Filter
CABLEID	IQUANT	14	Cable ID
DCCALDATE	LABEL	5-7-2017	DC Calibration Date
ACCALDATE	LABEL	12/3/2015	AC Calibration Date
FRAMEWORKVERSION	QUANT	7.01	Framework Version
INSTRUMENTVERSION	LABEL	4.00	Instrument Version
CURVE	TABLE	112
	Pt	T	Vf	Im	Vu	Pwr	Sig	Ach	Temp	IERange	Over
	#	s	V	A	V	W	V	V	deg C	#	bits
	0	0.013333	6.99499E-001	-3.98965E-004	0.00000E+000	-2.79075E-004	-2.40040E-001	6.99755E-001	3.57690E+000	9	...........
	1	0.026667	6.86912E-001	-3.98645E-004	0.00000E+000	-2.73834E-004	-2.40040E-001	6.87180E-001	3.57690E+000	9	...........
	2	0.04	6.75970E-001	-3.99761E-004	0.00000E+000	-2.70226E-004	-2.40040E-001	6.76199E-001	3.57690E+000	9	...........
	3	0.053333	6.65933E-001	-3.99820E-004	0.00000E+000	-2.66253E-004	-2.40040E-001	6.66182E-001	3.57690E+000	9	...........
	4	0.066667	6.56354E-001	-3.99529E-004	0.00000E+000	-2.62233E-004	-2.40040E-001	6.56621E-001	3.57690E+000	9	...........
	5	0.08	6.47219E-001	-3.98258E-004	0.00000E+000	-2.57760E-004	-2.40040E-001	6.47489E-001	3.57690E+000	9	...........
	6	0.093333	6.38352E-001	-3.99664E-004	0.00000E+000	-2.55126E-004	-2.40040E-001	6.38596E-001	3.57690E+000	9	...........
	7	0.106667	6.29747E-001	-3.98646E-004	0.00000E+000	-2.51046E-004	-2.40040E-001	6.29979E-001	3.57690E+000	9	...........
	8	0.12	6.21287E-001	-3.97805E-004	0.00000E+000	-2.47151E-004	-2.40040E-001	6.21511E-001	3.57690E+000	9	...........
	9	0.133333	6.13030E-001	-3.98420E-004	0.00000E+000	-2.44243E-004	-2.40040E-001	6.13299E-001	3.57690E+000	9	...........
	10	0.146667	6.04886E-001	-3.98612E-004	0.00000E+000	-2.41115E-004	-2.40040E-001	6.05148E-001	3.57690E+000	9	...........
	11	0.16	5.96778E-001	-3.99343E-004	0.00000E+000	-2.38319E-004	-2.40040E-001	5.97026E-001	3.57690E+000	9	...........
	12	0.173333	5.88772E-001	-3.98121E-004	0.00000E+000	-2.34402E-004	-2.40040E-001	5.89036E-001	3.57690E+000	9	...........
	13	0.186667	5.80957E-001	-3.98711E-004	0.00000E+000	-2.31634E-004	-2.40040E-001	5.81196E-001	3.57690E+000	9	...........
	14	0.2	5.73174E-001	-3.98650E-004	0.00000E+000	-2.28496E-004	-2.40040E-001	5.73387E-001	3.57690E+000	9	...........
	15	0.213333	5.65410E-001	-3.98799E-004	0.00000E+000	-2.25485E-004	-2.40040E-001	5.65622E-001	3.57690E+000	9	...........
	16	0.226667	5.57688E-001	-3.98854E-004	0.00000E+000	-2.22436E-004	-2.40040E-001	5.57931E-001	3.57690E+000	9	...........
	17	0.24	5.50100E-001	-3.99188E-004	0.00000E+000	-2.19593E-004	-2.40040E-001	5.50334E-001	3.57690E+000	9	...........
	18	0.253333	5.42446E-001	-4.00873E-004	0.00000E+000	-2.17452E-004	-2.40040E-001	5.42690E-001	3.57690E+000	9	...........
	19	0.266667	5.34813E-001	-4.00048E-004	0.00000E+000	-2.13951E-004	-2.40040E-001	5.35061E-001	3.57690E+000	9	...........
	20	0.28	5.27401E-001	-3.98944E-004	0.00000E+000	-2.10403E-004	-2.40040E-001	5.27640E-001	3.57690E+000	9	...........
	21	0.293333	5.19891E-001	-3.99062E-004	0.00000E+000	-2.07469E-004	-2.40040E-001	5.20130E-001	3.57690E+000	9	...........
	22	0.306667	5.12446E-001	-4.00038E-004	0.00000E+000	-2.04998E-004	-2.40040E-001	5.12689E-001	3.57690E+000	9	...........
	23	0.32	5.05061E-001	-3.98246E-004	0.00000E+000	-2.01138E-004	-2.40040E-001	5.05304E-001	3.57690E+000	9	...........
	24	0.333333	4.97717E-001	-3.99868E-004	0.00000E+000	-1.99021E-004	-2.40040E-001	4.97918E-001	3.57690E+000	9	...........
	25	0.346667	4.90473E-001	-3.99258E-004	0.00000E+000	-1.95825E-004	-2.40040E-001	4.90721E-001	3.57690E+000	9	...........
	26	0.36	4.83551E-001	-3.98621E-004	0.00000E+000	-1.92753E-004	-2.40040E-001	4.83658E-001	3.57690E+000	9	...........
	27	0.373333	4.76529E-001	-3.98636E-004	0.00000E+000	-1.89962E-004	-2.40040E-001	4.76631E-001	3.57690E+000	9	...........
	28	0.386667	4.69373E-001	-3.99191E-004	0.00000E+000	-1.87369E-004	-2.40040E-001	4.69475E-001	3.57690E+000	9	...........
	29	0.4	4.62262E-001	-3.99321E-004	0.00000E+000	-1.84591E-004	-2.40040E-001	4.62357E-001	3.57690E+000	9	...........
	30	0.413333	4.55221E-001	-3.99193E-004	0.00000E+000	-1.81721E-004	-2.40040E-001	4.55320E-001	3.57690E+000	9	...........
	31	0.426667	4.48206E-001	-3.97950E-004	0.00000E+000	-1.78363E-004	-2.40040E-001	4.48303E-001	3.57690E+000	9	...........
	32	0.44	4.41158E-001	-3.99735E-004	0.00000E+000	-1.76346E-004	-2.40040E-001	4.41255E-001	3.57625E+000	9	...........
	33	0.453333	4.34149E-001	-3.98086E-004	0.00000E+000	-1.72829E-004	-2.40040E-001	4.34241E-001	3.57620E+000	9	...........
	34	0.466667	4.27282E-001	-3.98843E-004	0.00000E+000	-1.70418E-004	-2.40040E-001	4.27375E-001	3.57620E+000	9	...........
	35	0.48	4.20388E-001	-3.98037E-004	0.00000E+000	-1.67330E-004	-2.40040E-001	4.20480E-001	3.57620E+000	9	...........
	36	0.493333	4.13416E-001	-3.99730E-004	0.00000E+000	-1.65255E-004	-2.40040E-001	4.13505E-001	3.57620E+000	9	...........
	37	0.506667	4.06639E-001	-3.97698E-004	0.00000E+000	-1.61720E-004	-2.40040E-001	4.06716E-001	3.57620E+000	9	...........
	38	0.52	3.99897E-001	-3.99747E-004	0.00000E+000	-1.59858E-004	-2.40040E-001	3.99984E-001	3.57620E+000	9	...........
	39	0.533333	3.93205E-001	-3.99229E-004	0.00000E+000	-1.56979E-004	-2.40040E-001	3.93281E-001	3.57620E+000	9	...........
	40	0.546667	3.86560E-001	-3.97554E-004	0.00000E+000	-1.53678E-004	-2.40040E-001	3.86638E-001	3.57620E+000	9	...........
	41	0.56	3.79868E-001	-3.98815E-004	0.00000E+000	-1.51497E-004	-2.40040E-001	3.79945E-001	3.57620E+000	9	...........
	42	0.573333	3.73230E-001	-3.99774E-004	0.00000E+000	-1.49208E-004	-2.40040E-001	3.73305E-001	3.57620E+000	9	...........
	43	0.586667	3.66668E-001	-3.98451E-004	0.00000E+000	-1.46099E-004	-2.40040E-001	3.66742E-001	3.57620E+000	9	...........
	44	0.6	3.60067E-001	-3.98667E-004	0.00000E+000	-1.43546E-004	-2.40040E-001	3.60139E-001	3.57620E+000	9	...........
	45	0.613333	3.53584E-001	-3.98233E-004	0.00000E+000	-1.40809E-004	-2.40040E-001	3.53651E-001	3.57620E+000	9	...........
	46	0.626667	3.47191E-001	-3.98502E-004	0.00000E+000	-1.38356E-004	-2.40040E-001	3.47261E-001	3.57620E+000	9	...........
	47	0.64	3.40799E-001	-3.98452E-004	0.00000E+000	-1.35792E-004	-2.40040E-001	3.40868E-001	3.57620E+000	9	...........
	48	0.653333	3.34414E-001	-3.98269E-004	0.00000E+000	-1.33187E-004	-2.40040E-001	3.34483E-001	3.57620E+000	9	...........
	49	0.666667	3.28036E-001	-3.99142E-004	0.00000E+000	-1.30933E-004	-2.40040E-001	3.28099E-001	3.57620E+000	9	...........
	50	0.68	3.21709E-001	-3.98805E-004	0.00000E+000	-1.28299E-004	-2.40040E-001	3.21769E-001	3.57620E+000	9	...........
	51	0.693333	3.15500E-001	-3.98181E-004	0.00000E+000	-1.25626E-004	-2.40040E-001	3.15564E-001	3.57620E+000	9	...........
	52	0.706667	3.09247E-001	-3.97994E-004	0.00000E+000	-1.23078E-004	-2.40040E-001	3.09308E-001	3.57620E+000	9	...........
	53	0.72	3.03014E-001	-3.97173E-004	0.00000E+000	-1.20349E-004	-2.40040E-001	3.03073E-001	3.57620E+000	9	...........
	54	0.733333	2.96885E-001	-3.99092E-004	0.00000E+000	-1.18484E-004	-2.40040E-001	2.96945E-001	3.57620E+000	9	...........
	55	0.746667	2.90765E-001	-3.98939E-004	0.00000E+000	-1.15997E-004	-2.40040E-001	2.90822E-001	3.57620E+000	9	...........
	56	0.76	2.84681E-001	-4.00594E-004	0.00000E+000	-1.14041E-004	-2.40040E-001	2.84743E-001	3.57620E+000	9	...........
	57	0.773333	2.78655E-001	-3.98229E-004	0.00000E+000	-1.10968E-004	-2.40040E-001	2.78712E-001	3.57620E+000	9	...........
	58	0.786667	2.72740E-001	-3.98084E-004	0.00000E+000	-1.08573E-004	-2.40040E-001	2.72799E-001	3.57620E+000	9	...........
	59	0.8	2.66755E-001	-3.99244E-004	0.00000E+000	-1.06500E-004	-2.40040E-001	2.66805E-001	3.57620E+000	9	...........
	60	0.813333	2.60765E-001	-3.98891E-004	0.00000E+000	-1.04017E-004	-2.40040E-001	2.60818E-001	3.57620E+000	9	...........
	61	0.826667	2.54963E-001	-4.00177E-004	0.00000E+000	-1.02030E-004	-2.40040E-001	2.55012E-001	3.57620E+000	9	...........
	62	0.84	2.49087E-001	-3.99633E-004	0.00000E+000	-9.95434E-005	-2.40040E-001	2.49130E-001	3.57620E+000	9	...........
	63	0.853333	2.43235E-001	-3.99851E-004	0.00000E+000	-9.72580E-005	-2.40040E-001	2.43280E-001	3.57620E+000	9	...........
	64	0.866667	2.37421E-001	-4.00174E-004	0.00000E+000	-9.50097E-005	-2.40040E-001	2.37464E-001	3.57620E+000	9	...........
	65	0.88	2.31687E-001	-3.98108E-004	0.00000E+000	-9.22364E-005	-2.40040E-001	2.31728E-001	3.57620E+000	9	...........
	66	0.893333	2.25949E-001	-3.97785E-004	0.00000E+000	-8.98792E-005	-2.40040E-001	2.25987E-001	3.57620E+000	9	...........
	67	0.906667	2.20197E-001	-4.00129E-004	0.00000E+000	-8.81072E-005	-2.40040E-001	2.20236E-001	3.57620E+000	9	...........
	68	0.92	2.14581E-001	-3.97858E-004	0.00000E+000	-8.53730E-005	-2.40040E-001	2.14620E-001	3.57620E+000	9	...........
	69	0.933333	2.09108E-001	-3.98426E-004	0.00000E+000	-8.33140E-005	-2.40040E-001	2.09149E-001	3.57620E+000	9	...........
	70	0.946667	2.03650E-001	-3.97939E-004	0.00000E+000	-8.10403E-005	-2.40040E-001	2.03688E-001	3.57620E+000	9	...........
	71	0.96	1.97928E-001	-3.99456E-004	0.00000E+000	-7.90638E-005	-2.40040E-001	1.97968E-001	3.57620E+000	9	...........
	72	0.97333	1.92359E-001	-3.99265E-004	0.00000E+000	-7.68020E-005	-2.40040E-001	1.92395E-001	3.57620E+000	9	...........
	73	0.98667	1.86903E-001	-3.98499E-004	0.00000E+000	-7.44806E-005	-2.40040E-001	1.86938E-001	3.57620E+000	9	...........
	74	1	1.81441E-001	-3.99259E-004	0.00000E+000	-7.24422E-005	-2.40040E-001	1.81483E-001	3.57620E+000	9	...........
	75	1.01333	1.76123E-001	-3.98495E-004	0.00000E+000	-7.01839E-005	-2.40040E-001	1.76151E-001	3.57620E+000	9	...........
	76	1.02667	1.70677E-001	-3.98708E-004	0.00000E+000	-6.80504E-005	-2.40040E-001	1.70712E-001	3.57620E+000	9	...........
	77	1.04	1.65331E-001	-3.99076E-004	0.00000E+000	-6.59798E-005	-2.40040E-001	1.65358E-001	3.57620E+000	9	...........
	78	1.05333	1.60024E-001	-3.99627E-004	0.00000E+000	-6.39500E-005	-2.40040E-001	1.60053E-001	3.57620E+000	9	...........
	79	1.06667	1.54784E-001	-3.99669E-004	0.00000E+000	-6.18623E-005	-2.40040E-001	1.54811E-001	3.57620E+000	9	...........
	80	1.08	1.49578E-001	-3.98594E-004	0.00000E+000	-5.96208E-005	-2.40040E-001	1.49605E-001	3.57620E+000	9	...........
	81	1.09333	1.44329E-001	-3.99009E-004	0.00000E+000	-5.75886E-005	-2.40040E-001	1.44352E-001	3.57620E+000	9	...........
	82	1.10667	1.39171E-001	-4.00670E-004	0.00000E+000	-5.57618E-005	-2.40040E-001	1.39195E-001	3.57620E+000	9	...........
	83	1.12	1.34002E-001	-3.98909E-004	0.00000E+000	-5.34545E-005	-2.40040E-001	1.34029E-001	3.57620E+000	9	...........
	84	1.13333	1.28911E-001	-3.98565E-004	0.00000E+000	-5.13792E-005	-2.40040E-001	1.28932E-001	3.57620E+000	9	...........
	85	1.14667	1.23839E-001	-3.98503E-004	0.00000E+000	-4.93502E-005	-2.40040E-001	1.23865E-001	3.57620E+000	9	...........
	86	1.16	1.18728E-001	-3.98568E-004	0.00000E+000	-4.73210E-005	-2.40040E-001	1.18746E-001	3.57620E+000	9	...........
	87	1.17333	1.13658E-001	-3.99032E-004	0.00000E+000	-4.53531E-005	-2.40040E-001	1.13677E-001	3.57620E+000	9	...........
	88	1.18667	1.08601E-001	-3.96422E-004	0.00000E+000	-4.30518E-005	-2.40040E-001	1.08621E-001	3.57620E+000	9	...........
	89	1.2	1.03653E-001	-4.00235E-004	0.00000E+000	-4.14854E-005	-2.40040E-001	1.03672E-001	3.57620E+000	9	...........
	90	1.21333	9.87270E-002	-3.98758E-004	0.00000E+000	-3.93682E-005	-2.40040E-001	9.87549E-002	3.57620E+000	9	...........
	91	1.22667	9.38092E-002	-3.98136E-004	0.00000E+000	-3.73488E-005	-2.40040E-001	9.38271E-002	3.57620E+000	9	...........
	92	1.24	8.88881E-002	-3.99252E-004	0.00000E+000	-3.54888E-005	-2.40040E-001	8.89061E-002	3.57620E+000	9	...........
	93	1.25333	8.40395E-002	-3.98451E-004	0.00000E+000	-3.34856E-005	-2.40040E-001	8.40569E-002	3.57620E+000	9	...........
	94	1.26667	7.91410E-002	-3.99974E-004	0.00000E+000	-3.16544E-005	-2.40040E-001	7.91563E-002	3.57620E+000	9	...........
	95	1.28	7.44097E-002	-3.99422E-004	0.00000E+000	-2.97209E-005	-2.40040E-001	7.44184E-002	3.57620E+000	9	...........
	96	1.29333	6.96568E-002	-3.98293E-004	0.00000E+000	-2.77438E-005	-2.40040E-001	6.96654E-002	3.57620E+000	9	...........
	97	1.30667	6.48482E-002	-3.98456E-004	0.00000E+000	-2.58391E-005	-2.40040E-001	6.48570E-002	3.57620E+000	9	...........
	98	1.32	6.01175E-002	-3.99329E-004	0.00000E+000	-2.40067E-005	-2.40040E-001	6.01261E-002	3.57620E+000	9	...........
	99	1.33333	5.54462E-002	-3.99834E-004	0.00000E+000	-2.21692E-005	-2.40040E-001	5.54541E-002	3.57620E+000	9	...........
	100	1.34667	5.07679E-002	-3.98649E-004	0.00000E+000	-2.02386E-005	-2.40040E-001	5.07749E-002	3.57620E+000	9	...........
	101	1.36	4.61630E-002	-3.98940E-004	0.00000E+000	-1.84162E-005	-2.40040E-001	4.61654E-002	3.57620E+000	9	...........
	102	1.37333	4.15693E-002	-3.98004E-004	0.00000E+000	-1.65447E-005	-2.40040E-001	4.15742E-002	3.57620E+000	9	...........
	103	1.38667	3.69378E-002	-3.99221E-004	0.00000E+000	-1.47464E-005	-2.40040E-001	3.69401E-002	3.57620E+000	9	...........
	104	1.4	3.24108E-002	-3.98363E-004	0.00000E+000	-1.29113E-005	-2.40040E-001	3.24127E-002	3.57620E+000	9	...........
	105	1.41333	2.78382E-002	-3.97949E-004	0.00000E+000	-1.10782E-005	-2.40040E-001	2.78410E-002	3.57620E+000	9	...........
	106	1.42667	2.32863E-002	-3.99931E-004	0.00000E+000	-9.31292E-006	-2.40040E-001	2.32781E-002	3.57620E+000	9	...........
	107	1.44	1.87970E-002	-3.98709E-004	0.00000E+000	-7.49453E-006	-2.40040E-001	1.87883E-002	3.57666E+000	9	...........
	108	1.45333	1.43461E-002	-3.99511E-004	0.00000E+000	-5.73143E-006	-2.40040E-001	1.43353E-002	3.57670E+000	9	...........
	109	1.46667	9.97088E-003	-3.99204E-004	0.00000E+000	-3.98042E-006	-2.40040E-001	9.95502E-003	3.57670E+000	9	...........
	110	1.48	5.58968E-003	-3.99873E-004	0.00000E+000	-2.23516E-006	-2.40040E-001	5.57241E-003	3.57670E+000	9	...........
	111	1.49167	1.51256E-003	-3.98756E-004	0.00000E+000	-6.03143E-007	-2.40040E-001	1.49331E-003	3.57670E+000	9	...........
STARTTIMEOFFSET	QUANT	1637.876	Start Time Offset (s)
