EXPLAIN
TAG	PWR800_DISCHARGE
TITLE	LABEL	PWR Cyclic Charge Discharge (Cell) - Discharge Step	Test &Identifier
DATE	LABEL	12-7-2017	Date
TIME	LABEL	14:54:06	Time
NOTES	NOTES	3	&Notes...
	supercap test cell
	0.4mg
	6M KOH
PSTAT	PSTAT	IFC5000-01520	Potentiostat
CAPACITY	QUANT	1.00000E-003	Capacity (A-hr)
CELLTYPE	SELECTOR	1	&Cell Type
WORKINGCONNECTION	SELECTOR	0	&Working Lead
MAXDISCHARGETIME	VARIABLEANDUNITS	1.00000E+002	s	1.00000E+002	second(s)	Max &Discharge Time
DISCHARGEMODE	MULTIPARAM	0	4.00000E-004	&Discharge Mode	Constant Current	Amp(s)
SAMPLETIME	QUANT	1.00000E-002	Sa&mple Period (s)
DISCHARGESTOPAT1	MULTIPARAM	3	0.00000E+000	Discharge Stop At &1	Voltage < Limit	V
DISCHARGESTOPAT2	MULTIPARAM	0	0.00000E+000	Discharge Stop At &2	None	N/A
AESBHCSELECTOR	TOGGLE	F	Save Both Half Cells
IRCOMP	TOGGLE	F	IR &Measure
EOC	QUANT	0	Open Circuit (V)
SEQUENCER	TOGGLE	TRUE	Run as Sequence
PSTATMODEL	IQUANT	53	Pstat Model
PSTATSECTION	LABEL	IFC5000-01520	Pstat Section
PSTATSERIALNO	LABEL	01520	Pstat Serial Number
CTRLMODE	IQUANT	0	Control Mode
ELECTROMETER	IQUANT	1	RE=0 or CS=1
IESTAB	IQUANT	0	I/E Stability
CASPEED	IQUANT	4	Control Amp Speed
CONVENTION	IQUANT	1	Current Convention
ICHRANGE	IQUANT	2	Ich Range
ICHRANGEMODE	TOGGLE	T	Ich Auto Range
ICHOFFSETENABLE	TOGGLE	F	Ich Offset Enable
ICHOFFSET	QUANT	0	Ich Offset (V)
ICHFILTER	IQUANT	1	Ich Filter
VCHRANGE	IQUANT	2	Vch Range
VCHRANGEMODE	TOGGLE	T	Vch Auto Range
VCHOFFSETENABLE	TOGGLE	F	Vch Offset Enable
VCHOFFSET	QUANT	0	Vch Offset (V)
VCHFILTER	IQUANT	1	Vch Filter
IERANGELOWERLIMIT	IQUANT	9	I/E Range Lower Limit
IERANGEMODE	TOGGLE	F	I/E AutoRange
IERANGE	IQUANT	9	I/E Range
ACHSELECT	IQUANT	1	Ach Select
ACHRANGE	IQUANT	2	Ach Range
ACHOFFSETENABLE	TOGGLE	F	Ach Offset Enable
ACHOFFSET	QUANT	0	Ach Offset (V)
ACHFILTER	IQUANT	1	Ach Filter
CABLEID	IQUANT	14	Cable ID
DCCALDATE	LABEL	5-7-2017	DC Calibration Date
ACCALDATE	LABEL	12/3/2015	AC Calibration Date
FRAMEWORKVERSION	QUANT	7.01	Framework Version
INSTRUMENTVERSION	LABEL	4.00	Instrument Version
CURVE	TABLE	112
	Pt	T	Vf	Im	Vu	Pwr	Sig	Ach	Temp	IERange	Over
	#	s	V	A	V	W	V	V	deg C	#	bits
	0	0.013333	6.96120E-001	-3.98579E-004	0.00000E+000	-2.77459E-004	-2.40040E-001	6.96369E-001	3.57750E+000	9	...........
	1	0.026667	6.83603E-001	-3.99278E-004	0.00000E+000	-2.72948E-004	-2.40040E-001	6.83859E-001	3.57750E+000	9	...........
	2	0.04	6.72645E-001	-3.98710E-004	0.00000E+000	-2.68191E-004	-2.40040E-001	6.72854E-001	3.57750E+000	9	...........
	3	0.053333	6.62554E-001	-3.98912E-004	0.00000E+000	-2.64301E-004	-2.40040E-001	6.62813E-001	3.57750E+000	9	...........
	4	0.066667	6.53003E-001	-3.99845E-004	0.00000E+000	-2.61100E-004	-2.40040E-001	6.53244E-001	3.57750E+000	9	...........
	5	0.08	6.43898E-001	-3.96999E-004	0.00000E+000	-2.55627E-004	-2.40040E-001	6.44096E-001	3.57750E+000	9	...........
	6	0.093333	6.35060E-001	-3.97154E-004	0.00000E+000	-2.52216E-004	-2.40040E-001	6.35273E-001	3.57750E+000	9	...........
	7	0.106667	6.26552E-001	-3.97993E-004	0.00000E+000	-2.49363E-004	-2.40040E-001	6.26751E-001	3.57750E+000	9	...........
	8	0.12	6.18177E-001	-4.00212E-004	0.00000E+000	-2.47402E-004	-2.40040E-001	6.18373E-001	3.57750E+000	9	...........
	9	0.133333	6.09773E-001	-3.97437E-004	0.00000E+000	-2.42346E-004	-2.40040E-001	6.10028E-001	3.57750E+000	9	...........
	10	0.146667	6.01544E-001	-3.98966E-004	0.00000E+000	-2.39995E-004	-2.40040E-001	6.01817E-001	3.57750E+000	9	...........
	11	0.16	5.93570E-001	-3.99308E-004	0.00000E+000	-2.37017E-004	-2.40040E-001	5.93802E-001	3.57750E+000	9	...........
	12	0.173333	5.85644E-001	-3.99414E-004	0.00000E+000	-2.33914E-004	-2.40040E-001	5.85877E-001	3.57750E+000	9	...........
	13	0.186667	5.77759E-001	-3.99493E-004	0.00000E+000	-2.30810E-004	-2.40040E-001	5.78011E-001	3.57750E+000	9	...........
	14	0.2	5.69962E-001	-3.98464E-004	0.00000E+000	-2.27110E-004	-2.40040E-001	5.70171E-001	3.57620E+000	9	...........
	15	0.213333	5.62233E-001	-3.98670E-004	0.00000E+000	-2.24145E-004	-2.40040E-001	5.62459E-001	3.57620E+000	9	...........
	16	0.226667	5.54524E-001	-3.99453E-004	0.00000E+000	-2.21506E-004	-2.40040E-001	5.54731E-001	3.57620E+000	9	...........
	17	0.24	5.46874E-001	-4.00208E-004	0.00000E+000	-2.18863E-004	-2.40040E-001	5.47045E-001	3.57620E+000	9	...........
	18	0.253333	5.39316E-001	-3.99166E-004	0.00000E+000	-2.15276E-004	-2.40040E-001	5.39517E-001	3.57620E+000	9	...........
	19	0.266667	5.31703E-001	-3.99413E-004	0.00000E+000	-2.12369E-004	-2.40040E-001	5.31899E-001	3.57620E+000	9	...........
	20	0.28	5.24223E-001	-3.97678E-004	0.00000E+000	-2.08472E-004	-2.40040E-001	5.24422E-001	3.57620E+000	9	...........
	21	0.293333	5.16824E-001	-3.98873E-004	0.00000E+000	-2.06147E-004	-2.40040E-001	5.17019E-001	3.57620E+000	9	...........
	22	0.306667	5.09412E-001	-3.99147E-004	0.00000E+000	-2.03330E-004	-2.40040E-001	5.09650E-001	3.57620E+000	9	...........
	23	0.32	5.02074E-001	-3.99515E-004	0.00000E+000	-2.00586E-004	-2.40040E-001	5.02275E-001	3.57620E+000	9	...........
	24	0.333333	4.94782E-001	-3.98954E-004	0.00000E+000	-1.97395E-004	-2.40040E-001	4.94998E-001	3.57620E+000	9	...........
	25	0.346667	4.87599E-001	-3.99069E-004	0.00000E+000	-1.94586E-004	-2.40040E-001	4.87781E-001	3.57620E+000	9	...........
	26	0.36	4.80522E-001	-3.98540E-004	0.00000E+000	-1.91507E-004	-2.40040E-001	4.80623E-001	3.57620E+000	9	...........
	27	0.373333	4.73321E-001	-3.98098E-004	0.00000E+000	-1.88428E-004	-2.40040E-001	4.73424E-001	3.57620E+000	9	...........
	28	0.386667	4.66233E-001	-3.99289E-004	0.00000E+000	-1.86161E-004	-2.40040E-001	4.66328E-001	3.57620E+000	9	...........
	29	0.4	4.59124E-001	-3.98893E-004	0.00000E+000	-1.83141E-004	-2.40040E-001	4.59218E-001	3.57620E+000	9	...........
	30	0.413333	4.51947E-001	-3.98249E-004	0.00000E+000	-1.79987E-004	-2.40040E-001	4.52040E-001	3.57620E+000	9	...........
	31	0.426667	4.44965E-001	-3.98087E-004	0.00000E+000	-1.77135E-004	-2.40040E-001	4.45059E-001	3.57620E+000	9	...........
	32	0.44	4.38042E-001	-3.97348E-004	0.00000E+000	-1.74055E-004	-2.40040E-001	4.38136E-001	3.57620E+000	9	...........
	33	0.453333	4.31131E-001	-3.98490E-004	0.00000E+000	-1.71801E-004	-2.40040E-001	4.31222E-001	3.57620E+000	9	...........
	34	0.466667	4.24192E-001	-3.98752E-004	0.00000E+000	-1.69148E-004	-2.40040E-001	4.24275E-001	3.57620E+000	9	...........
	35	0.48	4.17323E-001	-3.98977E-004	0.00000E+000	-1.66502E-004	-2.40040E-001	4.17403E-001	3.57620E+000	9	...........
	36	0.493333	4.10462E-001	-3.99904E-004	0.00000E+000	-1.64146E-004	-2.40040E-001	4.10544E-001	3.57620E+000	9	...........
	37	0.506667	4.03679E-001	-3.99549E-004	0.00000E+000	-1.61290E-004	-2.40040E-001	4.03756E-001	3.57620E+000	9	...........
	38	0.52	3.96984E-001	-3.99381E-004	0.00000E+000	-1.58548E-004	-2.40040E-001	3.97058E-001	3.57620E+000	9	...........
	39	0.533333	3.90295E-001	-3.98528E-004	0.00000E+000	-1.55544E-004	-2.40040E-001	3.90370E-001	3.57620E+000	9	...........
	40	0.546667	3.83568E-001	-3.99473E-004	0.00000E+000	-1.53225E-004	-2.40040E-001	3.83642E-001	3.57620E+000	9	...........
	41	0.56	3.76955E-001	-3.99442E-004	0.00000E+000	-1.50572E-004	-2.40040E-001	3.77023E-001	3.57620E+000	9	...........
	42	0.573333	3.70349E-001	-3.97870E-004	0.00000E+000	-1.47351E-004	-2.40040E-001	3.70410E-001	3.57620E+000	9	...........
	43	0.586667	3.63768E-001	-3.98254E-004	0.00000E+000	-1.44872E-004	-2.40040E-001	3.63836E-001	3.57620E+000	9	...........
	44	0.6	3.57261E-001	-3.98398E-004	0.00000E+000	-1.42332E-004	-2.40040E-001	3.57331E-001	3.57620E+000	9	...........
	45	0.613333	3.50797E-001	-3.98617E-004	0.00000E+000	-1.39834E-004	-2.40040E-001	3.50864E-001	3.57620E+000	9	...........
	46	0.626667	3.44341E-001	-3.98104E-004	0.00000E+000	-1.37084E-004	-2.40040E-001	3.44404E-001	3.57620E+000	9	...........
	47	0.64	3.37973E-001	-3.98656E-004	0.00000E+000	-1.34735E-004	-2.40040E-001	3.38032E-001	3.57620E+000	9	...........
	48	0.653333	3.31661E-001	-3.99003E-004	0.00000E+000	-1.32334E-004	-2.40040E-001	3.31721E-001	3.57620E+000	9	...........
	49	0.666667	3.25356E-001	-3.99253E-004	0.00000E+000	-1.29900E-004	-2.40040E-001	3.25422E-001	3.57620E+000	9	...........
	50	0.68	3.19052E-001	-3.98210E-004	0.00000E+000	-1.27050E-004	-2.40040E-001	3.19113E-001	3.57620E+000	9	...........
	51	0.693333	3.12757E-001	-3.98952E-004	0.00000E+000	-1.24775E-004	-2.40040E-001	3.12817E-001	3.57620E+000	9	...........
	52	0.706667	3.06487E-001	-3.98724E-004	0.00000E+000	-1.22204E-004	-2.40040E-001	3.06551E-001	3.57620E+000	9	...........
	53	0.72	3.00391E-001	-3.98199E-004	0.00000E+000	-1.19615E-004	-2.40040E-001	3.00444E-001	3.57620E+000	9	...........
	54	0.733333	2.94301E-001	-3.97801E-004	0.00000E+000	-1.17073E-004	-2.40040E-001	2.94357E-001	3.57620E+000	9	...........
	55	0.746667	2.88167E-001	-3.98371E-004	0.00000E+000	-1.14797E-004	-2.40040E-001	2.88222E-001	3.57620E+000	9	...........
	56	0.76	2.82096E-001	-3.99328E-004	0.00000E+000	-1.12649E-004	-2.40040E-001	2.82150E-001	3.57620E+000	9	...........
	57	0.773333	2.76050E-001	-3.98235E-004	0.00000E+000	-1.09933E-004	-2.40040E-001	2.76106E-001	3.57620E+000	9	...........
	58	0.786667	2.69961E-001	-3.98078E-004	0.00000E+000	-1.07465E-004	-2.40040E-001	2.70013E-001	3.57620E+000	9	...........
	59	0.8	2.64041E-001	-3.98001E-004	0.00000E+000	-1.05088E-004	-2.40040E-001	2.64096E-001	3.57620E+000	9	...........
	60	0.813333	2.58054E-001	-3.98720E-004	0.00000E+000	-1.02891E-004	-2.40040E-001	2.58111E-001	3.57620E+000	9	...........
	61	0.826667	2.52113E-001	-3.97484E-004	0.00000E+000	-1.00211E-004	-2.40040E-001	2.52165E-001	3.57620E+000	9	...........
	62	0.84	2.46290E-001	-3.99365E-004	0.00000E+000	-9.83597E-005	-2.40040E-001	2.46338E-001	3.57620E+000	9	...........
	63	0.853333	2.40462E-001	-3.98916E-004	0.00000E+000	-9.59239E-005	-2.40040E-001	2.40505E-001	3.57620E+000	9	...........
	64	0.866667	2.34673E-001	-3.99116E-004	0.00000E+000	-9.36616E-005	-2.40040E-001	2.34713E-001	3.57620E+000	9	...........
	65	0.88	2.28938E-001	-3.99377E-004	0.00000E+000	-9.14328E-005	-2.40040E-001	2.28976E-001	3.57620E+000	9	...........
	66	0.893333	2.23225E-001	-3.99570E-004	0.00000E+000	-8.91941E-005	-2.40040E-001	2.23266E-001	3.57620E+000	9	...........
	67	0.906667	2.17551E-001	-3.98190E-004	0.00000E+000	-8.66269E-005	-2.40040E-001	2.17596E-001	3.57620E+000	9	...........
	68	0.92	2.11931E-001	-3.98488E-004	0.00000E+000	-8.44522E-005	-2.40040E-001	2.11971E-001	3.57620E+000	9	...........
	69	0.933333	2.06301E-001	-3.97431E-004	0.00000E+000	-8.19904E-005	-2.40040E-001	2.06337E-001	3.57620E+000	9	...........
	70	0.946667	2.00696E-001	-3.98892E-004	0.00000E+000	-8.00558E-005	-2.40040E-001	2.00736E-001	3.57620E+000	9	...........
	71	0.96	1.95123E-001	-3.99377E-004	0.00000E+000	-7.79276E-005	-2.40040E-001	1.95157E-001	3.57620E+000	9	...........
	72	0.97333	1.89655E-001	-4.00547E-004	0.00000E+000	-7.59656E-005	-2.40040E-001	1.89681E-001	3.57620E+000	9	...........
	73	0.98667	1.84124E-001	-3.99114E-004	0.00000E+000	-7.34862E-005	-2.40040E-001	1.84151E-001	3.57620E+000	9	...........
	74	1	1.78669E-001	-3.96672E-004	0.00000E+000	-7.08732E-005	-2.40040E-001	1.78699E-001	3.57620E+000	9	...........
	75	1.01333	1.73223E-001	-3.98328E-004	0.00000E+000	-6.89994E-005	-2.40040E-001	1.73256E-001	3.57620E+000	9	...........
	76	1.02667	1.67873E-001	-3.98087E-004	0.00000E+000	-6.68282E-005	-2.40040E-001	1.67895E-001	3.57620E+000	9	...........
	77	1.04	1.62587E-001	-3.98784E-004	0.00000E+000	-6.48371E-005	-2.40040E-001	1.62610E-001	3.57620E+000	9	...........
	78	1.05333	1.57183E-001	-3.98799E-004	0.00000E+000	-6.26844E-005	-2.40040E-001	1.57210E-001	3.57620E+000	9	...........
	79	1.06667	1.51879E-001	-3.99316E-004	0.00000E+000	-6.06475E-005	-2.40040E-001	1.51898E-001	3.57620E+000	9	...........
	80	1.08	1.46648E-001	-3.99342E-004	0.00000E+000	-5.85627E-005	-2.40040E-001	1.46673E-001	3.57620E+000	9	...........
	81	1.09333	1.41402E-001	-3.97841E-004	0.00000E+000	-5.62556E-005	-2.40040E-001	1.41428E-001	3.57620E+000	9	...........
	82	1.10667	1.36154E-001	-3.98258E-004	0.00000E+000	-5.42245E-005	-2.40040E-001	1.36180E-001	3.57620E+000	9	...........
	83	1.12	1.31010E-001	-3.99766E-004	0.00000E+000	-5.23734E-005	-2.40040E-001	1.31029E-001	3.57620E+000	9	...........
	84	1.13333	1.25841E-001	-3.98402E-004	0.00000E+000	-5.01353E-005	-2.40040E-001	1.25862E-001	3.57620E+000	9	...........
	85	1.14667	1.20742E-001	-3.98916E-004	0.00000E+000	-4.81660E-005	-2.40040E-001	1.20765E-001	3.57620E+000	9	...........
	86	1.16	1.15705E-001	-3.99487E-004	0.00000E+000	-4.62227E-005	-2.40040E-001	1.15721E-001	3.57620E+000	9	...........
	87	1.17333	1.10670E-001	-3.98458E-004	0.00000E+000	-4.40975E-005	-2.40040E-001	1.10694E-001	3.57620E+000	9	...........
	88	1.18667	1.05726E-001	-4.00518E-004	0.00000E+000	-4.23452E-005	-2.40040E-001	1.05743E-001	3.57620E+000	9	...........
	89	1.2	1.00755E-001	-3.99401E-004	0.00000E+000	-4.02416E-005	-2.40040E-001	1.00772E-001	3.57630E+000	9	...........
	90	1.21333	9.58509E-002	-3.98413E-004	0.00000E+000	-3.81883E-005	-2.40040E-001	9.58690E-002	3.57630E+000	9	...........
	91	1.22667	9.09386E-002	-3.98764E-004	0.00000E+000	-3.62630E-005	-2.40040E-001	9.09520E-002	3.57630E+000	9	...........
	92	1.24	8.60574E-002	-3.99157E-004	0.00000E+000	-3.43505E-005	-2.40040E-001	8.60741E-002	3.57630E+000	9	...........
	93	1.25333	8.11992E-002	-3.98862E-004	0.00000E+000	-3.23873E-005	-2.40040E-001	8.12131E-002	3.57630E+000	9	...........
	94	1.26667	7.63879E-002	-3.99791E-004	0.00000E+000	-3.05392E-005	-2.40040E-001	7.64012E-002	3.57630E+000	9	...........
	95	1.28	7.15668E-002	-3.98084E-004	0.00000E+000	-2.84896E-005	-2.40040E-001	7.15806E-002	3.57630E+000	9	...........
	96	1.29333	6.67832E-002	-3.99557E-004	0.00000E+000	-2.66837E-005	-2.40040E-001	6.67939E-002	3.57630E+000	9	...........
	97	1.30667	6.19618E-002	-3.98532E-004	0.00000E+000	-2.46938E-005	-2.40040E-001	6.19742E-002	3.57630E+000	9	...........
	98	1.32	5.72085E-002	-4.00775E-004	0.00000E+000	-2.29278E-005	-2.40040E-001	5.72099E-002	3.57630E+000	9	...........
	99	1.33333	5.24972E-002	-3.98487E-004	0.00000E+000	-2.09195E-005	-2.40040E-001	5.25049E-002	3.57630E+000	9	...........
	100	1.34667	4.78459E-002	-3.99070E-004	0.00000E+000	-1.90938E-005	-2.40040E-001	4.78511E-002	3.57630E+000	9	...........
	101	1.36	4.32718E-002	-3.98793E-004	0.00000E+000	-1.72565E-005	-2.40040E-001	4.32765E-002	3.57630E+000	9	...........
	102	1.37333	3.86560E-002	-3.99536E-004	0.00000E+000	-1.54445E-005	-2.40040E-001	3.86607E-002	3.57630E+000	9	...........
	103	1.38667	3.40874E-002	-3.98641E-004	0.00000E+000	-1.35886E-005	-2.40040E-001	3.40878E-002	3.57630E+000	9	...........
	104	1.4	2.95653E-002	-3.98013E-004	0.00000E+000	-1.17674E-005	-2.40040E-001	2.95621E-002	3.57630E+000	9	...........
	105	1.41333	2.49890E-002	-3.99329E-004	0.00000E+000	-9.97882E-006	-2.40040E-001	2.49871E-002	3.57630E+000	9	...........
	106	1.42667	2.04751E-002	-3.99705E-004	0.00000E+000	-8.18399E-006	-2.40040E-001	2.04743E-002	3.57630E+000	9	...........
	107	1.44	1.60970E-002	-3.98522E-004	0.00000E+000	-6.41501E-006	-2.40040E-001	1.60890E-002	3.57630E+000	9	...........
	108	1.45333	1.17409E-002	-4.00022E-004	0.00000E+000	-4.69664E-006	-2.40040E-001	1.17315E-002	3.57630E+000	9	...........
	109	1.46667	7.39182E-003	-3.98343E-004	0.00000E+000	-2.94448E-006	-2.40040E-001	7.38097E-003	3.57630E+000	9	...........
	110	1.48	3.02101E-003	-3.99097E-004	0.00000E+000	-1.20567E-006	-2.40040E-001	3.00354E-003	3.57630E+000	9	...........
	111	1.485	2.47262E-005	-4.00707E-004	0.00000E+000	-9.90796E-009	-2.40040E-001	7.34728E-006	3.57630E+000	9	...........
STARTTIMEOFFSET	QUANT	1695.692	Start Time Offset (s)
