EXPLAIN
TAG	PWR800_DISCHARGE
TITLE	LABEL	PWR Cyclic Charge Discharge (Cell) - Discharge Step	Test &Identifier
DATE	LABEL	12-7-2017	Date
TIME	LABEL	14:47:04	Time
NOTES	NOTES	3	&Notes...
	supercap test cell
	0.4mg
	6M KOH
PSTAT	PSTAT	IFC5000-01520	Potentiostat
CAPACITY	QUANT	1.00000E-003	Capacity (A-hr)
CELLTYPE	SELECTOR	1	&Cell Type
WORKINGCONNECTION	SELECTOR	0	&Working Lead
MAXDISCHARGETIME	VARIABLEANDUNITS	1.00000E+002	s	1.00000E+002	second(s)	Max &Discharge Time
DISCHARGEMODE	MULTIPARAM	0	4.00000E-004	&Discharge Mode	Constant Current	Amp(s)
SAMPLETIME	QUANT	1.00000E-002	Sa&mple Period (s)
DISCHARGESTOPAT1	MULTIPARAM	3	0.00000E+000	Discharge Stop At &1	Voltage < Limit	V
DISCHARGESTOPAT2	MULTIPARAM	0	0.00000E+000	Discharge Stop At &2	None	N/A
AESBHCSELECTOR	TOGGLE	F	Save Both Half Cells
IRCOMP	TOGGLE	F	IR &Measure
EOC	QUANT	0	Open Circuit (V)
SEQUENCER	TOGGLE	TRUE	Run as Sequence
PSTATMODEL	IQUANT	53	Pstat Model
PSTATSECTION	LABEL	IFC5000-01520	Pstat Section
PSTATSERIALNO	LABEL	01520	Pstat Serial Number
CTRLMODE	IQUANT	0	Control Mode
ELECTROMETER	IQUANT	1	RE=0 or CS=1
IESTAB	IQUANT	0	I/E Stability
CASPEED	IQUANT	4	Control Amp Speed
CONVENTION	IQUANT	1	Current Convention
ICHRANGE	IQUANT	2	Ich Range
ICHRANGEMODE	TOGGLE	T	Ich Auto Range
ICHOFFSETENABLE	TOGGLE	F	Ich Offset Enable
ICHOFFSET	QUANT	0	Ich Offset (V)
ICHFILTER	IQUANT	1	Ich Filter
VCHRANGE	IQUANT	2	Vch Range
VCHRANGEMODE	TOGGLE	T	Vch Auto Range
VCHOFFSETENABLE	TOGGLE	F	Vch Offset Enable
VCHOFFSET	QUANT	0	Vch Offset (V)
VCHFILTER	IQUANT	1	Vch Filter
IERANGELOWERLIMIT	IQUANT	9	I/E Range Lower Limit
IERANGEMODE	TOGGLE	F	I/E AutoRange
IERANGE	IQUANT	9	I/E Range
ACHSELECT	IQUANT	1	Ach Select
ACHRANGE	IQUANT	2	Ach Range
ACHOFFSETENABLE	TOGGLE	F	Ach Offset Enable
ACHOFFSET	QUANT	0	Ach Offset (V)
ACHFILTER	IQUANT	1	Ach Filter
CABLEID	IQUANT	14	Cable ID
DCCALDATE	LABEL	5-7-2017	DC Calibration Date
ACCALDATE	LABEL	12/3/2015	AC Calibration Date
FRAMEWORKVERSION	QUANT	7.01	Framework Version
INSTRUMENTVERSION	LABEL	4.00	Instrument Version
CURVE	TABLE	115
	Pt	T	Vf	Im	Vu	Pwr	Sig	Ach	Temp	IERange	Over
	#	s	V	A	V	W	V	V	deg C	#	bits
	0	0.013333	7.02056E-001	-3.99952E-004	0.00000E+000	-2.80789E-004	-2.40040E-001	7.02275E-001	3.57720E+000	9	...........
	1	0.026667	6.89840E-001	-4.00671E-004	0.00000E+000	-2.76399E-004	-2.40040E-001	6.90054E-001	3.57720E+000	9	...........
	2	0.04	6.79087E-001	-3.98827E-004	0.00000E+000	-2.70838E-004	-2.40040E-001	6.79315E-001	3.57720E+000	9	...........
	3	0.053333	6.69208E-001	-3.98873E-004	0.00000E+000	-2.66929E-004	-2.40040E-001	6.69429E-001	3.57720E+000	9	...........
	4	0.066667	6.59872E-001	-3.99452E-004	0.00000E+000	-2.63587E-004	-2.40040E-001	6.60103E-001	3.57720E+000	9	...........
	5	0.08	6.50880E-001	-3.99795E-004	0.00000E+000	-2.60218E-004	-2.40040E-001	6.51114E-001	3.57720E+000	9	...........
	6	0.093333	6.42164E-001	-3.99341E-004	0.00000E+000	-2.56442E-004	-2.40040E-001	6.42359E-001	3.57720E+000	9	...........
	7	0.106667	6.33673E-001	-3.98992E-004	0.00000E+000	-2.52830E-004	-2.40040E-001	6.33879E-001	3.57720E+000	9	...........
	8	0.12	6.25418E-001	-3.98426E-004	0.00000E+000	-2.49183E-004	-2.40040E-001	6.25644E-001	3.57720E+000	9	...........
	9	0.133333	6.17298E-001	-3.99229E-004	0.00000E+000	-2.46444E-004	-2.40040E-001	6.17547E-001	3.57720E+000	9	...........
	10	0.146667	6.09232E-001	-3.99235E-004	0.00000E+000	-2.43227E-004	-2.40040E-001	6.09490E-001	3.57720E+000	9	...........
	11	0.16	6.01269E-001	-3.98943E-004	0.00000E+000	-2.39872E-004	-2.40040E-001	6.01511E-001	3.57720E+000	9	...........
	12	0.173333	5.93472E-001	-4.00143E-004	0.00000E+000	-2.37474E-004	-2.40040E-001	5.93701E-001	3.57720E+000	9	...........
	13	0.186667	5.85687E-001	-3.99376E-004	0.00000E+000	-2.33909E-004	-2.40040E-001	5.85935E-001	3.57720E+000	9	...........
	14	0.2	5.78026E-001	-3.98645E-004	0.00000E+000	-2.30427E-004	-2.40040E-001	5.78275E-001	3.57720E+000	9	...........
	15	0.213333	5.70467E-001	-3.99043E-004	0.00000E+000	-2.27641E-004	-2.40040E-001	5.70687E-001	3.57720E+000	9	...........
	16	0.226667	5.62824E-001	-3.98853E-004	0.00000E+000	-2.24484E-004	-2.40040E-001	5.63090E-001	3.57720E+000	9	...........
	17	0.24	5.55250E-001	-3.98605E-004	0.00000E+000	-2.21326E-004	-2.40040E-001	5.55491E-001	3.57720E+000	9	...........
	18	0.253333	5.47773E-001	-3.98938E-004	0.00000E+000	-2.18527E-004	-2.40040E-001	5.48015E-001	3.57720E+000	9	...........
	19	0.266667	5.40426E-001	-3.98222E-004	0.00000E+000	-2.15209E-004	-2.40040E-001	5.40654E-001	3.57720E+000	9	...........
	20	0.28	5.32987E-001	-3.98478E-004	0.00000E+000	-2.12384E-004	-2.40040E-001	5.33226E-001	3.57720E+000	9	...........
	21	0.293333	5.25651E-001	-3.98542E-004	0.00000E+000	-2.09494E-004	-2.40040E-001	5.25855E-001	3.57720E+000	9	...........
	22	0.306667	5.18382E-001	-3.98204E-004	0.00000E+000	-2.06422E-004	-2.40040E-001	5.18591E-001	3.57720E+000	9	...........
	23	0.32	5.11095E-001	-3.99177E-004	0.00000E+000	-2.04018E-004	-2.40040E-001	5.11309E-001	3.57720E+000	9	...........
	24	0.333333	5.03855E-001	-3.98530E-004	0.00000E+000	-2.00801E-004	-2.40040E-001	5.04105E-001	3.57720E+000	9	...........
	25	0.346667	4.96770E-001	-3.97947E-004	0.00000E+000	-1.97688E-004	-2.40040E-001	4.96978E-001	3.57720E+000	9	...........
	26	0.36	4.89696E-001	-3.98106E-004	0.00000E+000	-1.94951E-004	-2.40040E-001	4.89901E-001	3.57720E+000	9	...........
	27	0.373333	4.82797E-001	-3.98282E-004	0.00000E+000	-1.92289E-004	-2.40040E-001	4.82915E-001	3.57720E+000	9	...........
	28	0.386667	4.75821E-001	-3.98896E-004	0.00000E+000	-1.89803E-004	-2.40040E-001	4.75918E-001	3.57720E+000	9	...........
	29	0.4	4.68782E-001	-3.97972E-004	0.00000E+000	-1.86562E-004	-2.40040E-001	4.68879E-001	3.57720E+000	9	...........
	30	0.413333	4.61807E-001	-3.99193E-004	0.00000E+000	-1.84350E-004	-2.40040E-001	4.61900E-001	3.57720E+000	9	...........
	31	0.426667	4.54946E-001	-3.99172E-004	0.00000E+000	-1.81601E-004	-2.40040E-001	4.55037E-001	3.57720E+000	9	...........
	32	0.44	4.48016E-001	-3.98923E-004	0.00000E+000	-1.78724E-004	-2.40040E-001	4.48109E-001	3.57720E+000	9	...........
	33	0.453333	4.41219E-001	-3.98173E-004	0.00000E+000	-1.75681E-004	-2.40040E-001	4.41309E-001	3.57720E+000	9	...........
	34	0.466667	4.34389E-001	-3.98170E-004	0.00000E+000	-1.72961E-004	-2.40040E-001	4.34477E-001	3.57720E+000	9	...........
	35	0.48	4.27525E-001	-3.98755E-004	0.00000E+000	-1.70478E-004	-2.40040E-001	4.27614E-001	3.57720E+000	9	...........
	36	0.493333	4.20723E-001	-3.98451E-004	0.00000E+000	-1.67637E-004	-2.40040E-001	4.20812E-001	3.57720E+000	9	...........
	37	0.506667	4.14074E-001	-3.98238E-004	0.00000E+000	-1.64900E-004	-2.40040E-001	4.14160E-001	3.57720E+000	9	...........
	38	0.52	4.07383E-001	-3.99853E-004	0.00000E+000	-1.62893E-004	-2.40040E-001	4.07462E-001	3.57720E+000	9	...........
	39	0.533333	4.00787E-001	-3.99329E-004	0.00000E+000	-1.60046E-004	-2.40040E-001	4.00857E-001	3.57720E+000	9	...........
	40	0.546667	3.94187E-001	-3.97901E-004	0.00000E+000	-1.56847E-004	-2.40040E-001	3.94262E-001	3.57720E+000	9	...........
	41	0.56	3.87657E-001	-3.97438E-004	0.00000E+000	-1.54070E-004	-2.40040E-001	3.87734E-001	3.57720E+000	9	...........
	42	0.573333	3.81198E-001	-3.99627E-004	0.00000E+000	-1.52337E-004	-2.40040E-001	3.81273E-001	3.57720E+000	9	...........
	43	0.586667	3.74714E-001	-3.99271E-004	0.00000E+000	-1.49613E-004	-2.40040E-001	3.74785E-001	3.57720E+000	9	...........
	44	0.6	3.68209E-001	-3.99008E-004	0.00000E+000	-1.46919E-004	-2.40040E-001	3.68275E-001	3.57720E+000	9	...........
	45	0.613333	3.61799E-001	-3.98566E-004	0.00000E+000	-1.44200E-004	-2.40040E-001	3.61874E-001	3.57720E+000	9	...........
	46	0.626667	3.55456E-001	-3.99429E-004	0.00000E+000	-1.41980E-004	-2.40040E-001	3.55524E-001	3.57720E+000	9	...........
	47	0.64	3.49118E-001	-3.98227E-004	0.00000E+000	-1.39028E-004	-2.40040E-001	3.49189E-001	3.57720E+000	9	...........
	48	0.653333	3.42822E-001	-3.98766E-004	0.00000E+000	-1.36705E-004	-2.40040E-001	3.42882E-001	3.57720E+000	9	...........
	49	0.666667	3.36550E-001	-3.99788E-004	0.00000E+000	-1.34549E-004	-2.40040E-001	3.36616E-001	3.57720E+000	9	...........
	50	0.68	3.30350E-001	-3.98645E-004	0.00000E+000	-1.31692E-004	-2.40040E-001	3.30410E-001	3.57720E+000	9	...........
	51	0.693333	3.24223E-001	-3.98358E-004	0.00000E+000	-1.29157E-004	-2.40040E-001	3.24290E-001	3.57720E+000	9	...........
	52	0.706667	3.18104E-001	-3.98392E-004	0.00000E+000	-1.26730E-004	-2.40040E-001	3.18168E-001	3.57720E+000	9	...........
	53	0.72	3.11978E-001	-3.98421E-004	0.00000E+000	-1.24298E-004	-2.40040E-001	3.12038E-001	3.57720E+000	9	...........
	54	0.733333	3.05870E-001	-3.98607E-004	0.00000E+000	-1.21922E-004	-2.40040E-001	3.05935E-001	3.57720E+000	9	...........
	55	0.746667	2.99802E-001	-3.97215E-004	0.00000E+000	-1.19086E-004	-2.40040E-001	2.99861E-001	3.57720E+000	9	...........
	56	0.76	2.93757E-001	-3.99204E-004	0.00000E+000	-1.17269E-004	-2.40040E-001	2.93819E-001	3.57720E+000	9	...........
	57	0.773333	2.87815E-001	-3.99263E-004	0.00000E+000	-1.14914E-004	-2.40040E-001	2.87874E-001	3.57720E+000	9	...........
	58	0.786667	2.81896E-001	-3.98072E-004	0.00000E+000	-1.12215E-004	-2.40040E-001	2.81955E-001	3.57720E+000	9	...........
	59	0.8	2.76014E-001	-3.99823E-004	0.00000E+000	-1.10357E-004	-2.40040E-001	2.76074E-001	3.57720E+000	9	...........
	60	0.813333	2.70146E-001	-3.99220E-004	0.00000E+000	-1.07848E-004	-2.40040E-001	2.70200E-001	3.57720E+000	9	...........
	61	0.826667	2.64343E-001	-3.99568E-004	0.00000E+000	-1.05623E-004	-2.40040E-001	2.64396E-001	3.57720E+000	9	...........
	62	0.84	2.58640E-001	-4.00495E-004	0.00000E+000	-1.03584E-004	-2.40040E-001	2.58690E-001	3.57720E+000	9	...........
	63	0.853333	2.52909E-001	-3.98718E-004	0.00000E+000	-1.00839E-004	-2.40040E-001	2.52964E-001	3.57720E+000	9	...........
	64	0.866667	2.47168E-001	-3.98645E-004	0.00000E+000	-9.85321E-005	-2.40040E-001	2.47217E-001	3.57720E+000	9	...........
	65	0.88	2.41489E-001	-4.00047E-004	0.00000E+000	-9.66070E-005	-2.40040E-001	2.41536E-001	3.57720E+000	9	...........
	66	0.893333	2.35876E-001	-3.97637E-004	0.00000E+000	-9.37932E-005	-2.40040E-001	2.35920E-001	3.57720E+000	9	...........
	67	0.906667	2.30290E-001	-3.98816E-004	0.00000E+000	-9.18431E-005	-2.40040E-001	2.30334E-001	3.57720E+000	9	...........
	68	0.92	2.24767E-001	-3.97830E-004	0.00000E+000	-8.94189E-005	-2.40040E-001	2.24811E-001	3.57720E+000	9	...........
	69	0.933333	2.19223E-001	-3.99878E-004	0.00000E+000	-8.76624E-005	-2.40040E-001	2.19264E-001	3.57720E+000	9	...........
	70	0.946667	2.13632E-001	-3.98511E-004	0.00000E+000	-8.51349E-005	-2.40040E-001	2.13676E-001	3.57720E+000	9	...........
	71	0.96	2.08175E-001	-3.98917E-004	0.00000E+000	-8.30446E-005	-2.40040E-001	2.08214E-001	3.57720E+000	9	...........
	72	0.97333	2.02632E-001	-3.99307E-004	0.00000E+000	-8.09125E-005	-2.40040E-001	2.02671E-001	3.57720E+000	9	...........
	73	0.98667	1.97271E-001	-3.97633E-004	0.00000E+000	-7.84415E-005	-2.40040E-001	1.97310E-001	3.57640E+000	9	...........
	74	1	1.91931E-001	-3.98701E-004	0.00000E+000	-7.65230E-005	-2.40040E-001	1.91967E-001	3.57620E+000	9	...........
	75	1.01333	1.86573E-001	-3.99903E-004	0.00000E+000	-7.46111E-005	-2.40040E-001	1.86609E-001	3.57620E+000	9	...........
	76	1.02667	1.81275E-001	-3.97657E-004	0.00000E+000	-7.20852E-005	-2.40040E-001	1.81314E-001	3.57620E+000	9	...........
	77	1.04	1.75972E-001	-3.98920E-004	0.00000E+000	-7.01989E-005	-2.40040E-001	1.76006E-001	3.57620E+000	9	...........
	78	1.05333	1.70693E-001	-3.98650E-004	0.00000E+000	-6.80468E-005	-2.40040E-001	1.70727E-001	3.57620E+000	9	...........
	79	1.06667	1.65380E-001	-3.99067E-004	0.00000E+000	-6.59975E-005	-2.40040E-001	1.65417E-001	3.57620E+000	9	...........
	80	1.08	1.60159E-001	-3.99082E-004	0.00000E+000	-6.39168E-005	-2.40040E-001	1.60183E-001	3.57620E+000	9	...........
	81	1.09333	1.54961E-001	-3.98467E-004	0.00000E+000	-6.17466E-005	-2.40040E-001	1.54988E-001	3.57620E+000	9	...........
	82	1.10667	1.49828E-001	-3.99685E-004	0.00000E+000	-5.98838E-005	-2.40040E-001	1.49852E-001	3.57620E+000	9	...........
	83	1.12	1.44701E-001	-3.98201E-004	0.00000E+000	-5.76200E-005	-2.40040E-001	1.44731E-001	3.57620E+000	9	...........
	84	1.13333	1.39582E-001	-3.98273E-004	0.00000E+000	-5.55917E-005	-2.40040E-001	1.39609E-001	3.57620E+000	9	...........
	85	1.14667	1.34541E-001	-3.98918E-004	0.00000E+000	-5.36707E-005	-2.40040E-001	1.34563E-001	3.57620E+000	9	...........
	86	1.16	1.29482E-001	-3.99669E-004	0.00000E+000	-5.17499E-005	-2.40040E-001	1.29497E-001	3.57620E+000	9	...........
	87	1.17333	1.24498E-001	-3.99714E-004	0.00000E+000	-4.97638E-005	-2.40040E-001	1.24521E-001	3.57620E+000	9	...........
	88	1.18667	1.19526E-001	-3.98059E-004	0.00000E+000	-4.75785E-005	-2.40040E-001	1.19552E-001	3.57620E+000	9	...........
	89	1.2	1.14598E-001	-3.98864E-004	0.00000E+000	-4.57091E-005	-2.40040E-001	1.14623E-001	3.57620E+000	9	...........
	90	1.21333	1.09749E-001	-3.99642E-004	0.00000E+000	-4.38602E-005	-2.40040E-001	1.09776E-001	3.57620E+000	9	...........
	91	1.22667	1.04890E-001	-3.99638E-004	0.00000E+000	-4.19180E-005	-2.40040E-001	1.04905E-001	3.57620E+000	9	...........
	92	1.24	1.00052E-001	-3.98872E-004	0.00000E+000	-3.99079E-005	-2.40040E-001	1.00071E-001	3.57620E+000	9	...........
	93	1.25333	9.53299E-002	-3.99937E-004	0.00000E+000	-3.81259E-005	-2.40040E-001	9.53490E-002	3.57620E+000	9	...........
	94	1.26667	9.05973E-002	-3.98799E-004	0.00000E+000	-3.61301E-005	-2.40040E-001	9.06132E-002	3.57620E+000	9	...........
	95	1.28	8.57863E-002	-3.98943E-004	0.00000E+000	-3.42238E-005	-2.40040E-001	8.57990E-002	3.57620E+000	9	...........
	96	1.29333	8.10637E-002	-3.99039E-004	0.00000E+000	-3.23475E-005	-2.40040E-001	8.10699E-002	3.57620E+000	9	...........
	97	1.30667	7.63110E-002	-3.98844E-004	0.00000E+000	-3.04362E-005	-2.40040E-001	7.63243E-002	3.57620E+000	9	...........
	98	1.32	7.16196E-002	-3.98415E-004	0.00000E+000	-2.85343E-005	-2.40040E-001	7.16303E-002	3.57620E+000	9	...........
	99	1.33333	6.69861E-002	-4.00103E-004	0.00000E+000	-2.68014E-005	-2.40040E-001	6.69895E-002	3.57620E+000	9	...........
	100	1.34667	6.22338E-002	-3.99227E-004	0.00000E+000	-2.48454E-005	-2.40040E-001	6.22436E-002	3.57620E+000	9	...........
	101	1.36	5.76369E-002	-3.99962E-004	0.00000E+000	-2.30526E-005	-2.40040E-001	5.76401E-002	3.57620E+000	9	...........
	102	1.37333	5.30682E-002	-3.98786E-004	0.00000E+000	-2.11629E-005	-2.40040E-001	5.30707E-002	3.57620E+000	9	...........
	103	1.38667	4.85016E-002	-3.99718E-004	0.00000E+000	-1.93869E-005	-2.40040E-001	4.85049E-002	3.57620E+000	9	...........
	104	1.4	4.40267E-002	-3.99615E-004	0.00000E+000	-1.75937E-005	-2.40040E-001	4.40392E-002	3.57620E+000	9	...........
	105	1.41333	3.94717E-002	-3.98137E-004	0.00000E+000	-1.57151E-005	-2.40040E-001	3.94762E-002	3.57620E+000	9	...........
	106	1.42667	3.50242E-002	-3.98783E-004	0.00000E+000	-1.39671E-005	-2.40040E-001	3.50250E-002	3.57620E+000	9	...........
	107	1.44	3.06205E-002	-3.98437E-004	0.00000E+000	-1.22004E-005	-2.40040E-001	3.06238E-002	3.57620E+000	9	...........
	108	1.45333	2.61673E-002	-3.98416E-004	0.00000E+000	-1.04255E-005	-2.40040E-001	2.61585E-002	3.57620E+000	9	...........
	109	1.46667	2.16911E-002	-3.98470E-004	0.00000E+000	-8.64326E-006	-2.40040E-001	2.16848E-002	3.57620E+000	9	...........
	110	1.48	1.72903E-002	-3.97628E-004	0.00000E+000	-6.87511E-006	-2.40040E-001	1.72784E-002	3.57620E+000	9	...........
	111	1.49333	1.28779E-002	-3.98587E-004	0.00000E+000	-5.13299E-006	-2.40040E-001	1.28667E-002	3.57620E+000	9	...........
	112	1.50667	8.45873E-003	-3.99151E-004	0.00000E+000	-3.37631E-006	-2.40040E-001	8.44356E-003	3.57620E+000	9	...........
	113	1.52	4.13785E-003	-3.99551E-004	0.00000E+000	-1.65328E-006	-2.40040E-001	4.11960E-003	3.57620E+000	9	...........
	114	1.52833	6.25355E-004	-4.00182E-004	0.00000E+000	-2.50255E-007	-2.40040E-001	6.03467E-004	3.57620E+000	9	...........
STARTTIMEOFFSET	QUANT	1363.131	Start Time Offset (s)
