EXPLAIN
TAG	PWR800_DISCHARGE
TITLE	LABEL	PWR Cyclic Charge Discharge (Cell) - Discharge Step	Test &Identifier
DATE	LABEL	12-7-2017	Date
TIME	LABEL	15:07:05	Time
NOTES	NOTES	3	&Notes...
	supercap test cell
	0.4mg
	6M KOH
PSTAT	PSTAT	IFC5000-01520	Potentiostat
CAPACITY	QUANT	1.00000E-003	Capacity (A-hr)
CELLTYPE	SELECTOR	1	&Cell Type
WORKINGCONNECTION	SELECTOR	0	&Working Lead
MAXDISCHARGETIME	VARIABLEANDUNITS	1.00000E+002	s	1.00000E+002	second(s)	Max &Discharge Time
DISCHARGEMODE	MULTIPARAM	0	4.00000E-004	&Discharge Mode	Constant Current	Amp(s)
SAMPLETIME	QUANT	1.00000E-002	Sa&mple Period (s)
DISCHARGESTOPAT1	MULTIPARAM	3	0.00000E+000	Discharge Stop At &1	Voltage < Limit	V
DISCHARGESTOPAT2	MULTIPARAM	0	0.00000E+000	Discharge Stop At &2	None	N/A
AESBHCSELECTOR	TOGGLE	F	Save Both Half Cells
IRCOMP	TOGGLE	F	IR &Measure
EOC	QUANT	0	Open Circuit (V)
SEQUENCER	TOGGLE	TRUE	Run as Sequence
PSTATMODEL	IQUANT	53	Pstat Model
PSTATSECTION	LABEL	IFC5000-01520	Pstat Section
PSTATSERIALNO	LABEL	01520	Pstat Serial Number
CTRLMODE	IQUANT	0	Control Mode
ELECTROMETER	IQUANT	1	RE=0 or CS=1
IESTAB	IQUANT	0	I/E Stability
CASPEED	IQUANT	4	Control Amp Speed
CONVENTION	IQUANT	1	Current Convention
ICHRANGE	IQUANT	2	Ich Range
ICHRANGEMODE	TOGGLE	T	Ich Auto Range
ICHOFFSETENABLE	TOGGLE	F	Ich Offset Enable
ICHOFFSET	QUANT	0	Ich Offset (V)
ICHFILTER	IQUANT	1	Ich Filter
VCHRANGE	IQUANT	2	Vch Range
VCHRANGEMODE	TOGGLE	T	Vch Auto Range
VCHOFFSETENABLE	TOGGLE	F	Vch Offset Enable
VCHOFFSET	QUANT	0	Vch Offset (V)
VCHFILTER	IQUANT	1	Vch Filter
IERANGELOWERLIMIT	IQUANT	9	I/E Range Lower Limit
IERANGEMODE	TOGGLE	F	I/E AutoRange
IERANGE	IQUANT	9	I/E Range
ACHSELECT	IQUANT	1	Ach Select
ACHRANGE	IQUANT	2	Ach Range
ACHOFFSETENABLE	TOGGLE	F	Ach Offset Enable
ACHOFFSET	QUANT	0	Ach Offset (V)
ACHFILTER	IQUANT	1	Ach Filter
CABLEID	IQUANT	14	Cable ID
DCCALDATE	LABEL	5-7-2017	DC Calibration Date
ACCALDATE	LABEL	12/3/2015	AC Calibration Date
FRAMEWORKVERSION	QUANT	7.01	Framework Version
INSTRUMENTVERSION	LABEL	4.00	Instrument Version
CURVE	TABLE	107
	Pt	T	Vf	Im	Vu	Pwr	Sig	Ach	Temp	IERange	Over
	#	s	V	A	V	W	V	V	deg C	#	bits
	0	0.013333	6.89538E-001	-3.98249E-004	0.00000E+000	-2.74608E-004	-2.40040E-001	6.89748E-001	3.57630E+000	9	...........
	1	0.026667	6.76306E-001	-3.99230E-004	0.00000E+000	-2.70002E-004	-2.40040E-001	6.76529E-001	3.57630E+000	9	...........
	2	0.04	6.64736E-001	-3.98706E-004	0.00000E+000	-2.65034E-004	-2.40040E-001	6.64948E-001	3.57630E+000	9	...........
	3	0.053333	6.54126E-001	-3.98754E-004	0.00000E+000	-2.60835E-004	-2.40040E-001	6.54323E-001	3.57630E+000	9	...........
	4	0.066667	6.44186E-001	-3.98040E-004	0.00000E+000	-2.56412E-004	-2.40040E-001	6.44379E-001	3.57630E+000	9	...........
	5	0.08	6.34626E-001	-3.99154E-004	0.00000E+000	-2.53314E-004	-2.40040E-001	6.34808E-001	3.57630E+000	9	...........
	6	0.093333	6.25454E-001	-3.97979E-004	0.00000E+000	-2.48917E-004	-2.40040E-001	6.25666E-001	3.57630E+000	9	...........
	7	0.106667	6.16579E-001	-3.98786E-004	0.00000E+000	-2.45883E-004	-2.40040E-001	6.16787E-001	3.57630E+000	9	...........
	8	0.12	6.07820E-001	-3.99008E-004	0.00000E+000	-2.42525E-004	-2.40040E-001	6.08069E-001	3.57630E+000	9	...........
	9	0.133333	5.99272E-001	-3.99072E-004	0.00000E+000	-2.39152E-004	-2.40040E-001	5.99500E-001	3.57630E+000	9	...........
	10	0.146667	5.90840E-001	-3.98380E-004	0.00000E+000	-2.35379E-004	-2.40040E-001	5.91065E-001	3.57630E+000	9	...........
	11	0.16	5.82433E-001	-3.98921E-004	0.00000E+000	-2.32345E-004	-2.40040E-001	5.82648E-001	3.57630E+000	9	...........
	12	0.173333	5.74210E-001	-3.98769E-004	0.00000E+000	-2.28977E-004	-2.40040E-001	5.74408E-001	3.57630E+000	9	...........
	13	0.186667	5.66088E-001	-4.00050E-004	0.00000E+000	-2.26464E-004	-2.40040E-001	5.66296E-001	3.57630E+000	9	...........
	14	0.2	5.57976E-001	-3.97820E-004	0.00000E+000	-2.21974E-004	-2.40040E-001	5.58199E-001	3.57630E+000	9	...........
	15	0.213333	5.49963E-001	-3.99411E-004	0.00000E+000	-2.19661E-004	-2.40040E-001	5.50187E-001	3.57630E+000	9	...........
	16	0.226667	5.42005E-001	-3.99449E-004	0.00000E+000	-2.16504E-004	-2.40040E-001	5.42226E-001	3.57630E+000	9	...........
	17	0.24	5.34115E-001	-3.99342E-004	0.00000E+000	-2.13294E-004	-2.40040E-001	5.34355E-001	3.57630E+000	9	...........
	18	0.253333	5.26256E-001	-3.99653E-004	0.00000E+000	-2.10320E-004	-2.40040E-001	5.26501E-001	3.57630E+000	9	...........
	19	0.266667	5.18521E-001	-3.97849E-004	0.00000E+000	-2.06293E-004	-2.40040E-001	5.18753E-001	3.57630E+000	9	...........
	20	0.28	5.10778E-001	-3.99820E-004	0.00000E+000	-2.04219E-004	-2.40040E-001	5.11033E-001	3.57630E+000	9	...........
	21	0.293333	5.03069E-001	-3.98223E-004	0.00000E+000	-2.00333E-004	-2.40040E-001	5.03329E-001	3.57630E+000	9	...........
	22	0.306667	4.95425E-001	-3.98842E-004	0.00000E+000	-1.97596E-004	-2.40040E-001	4.95676E-001	3.57630E+000	9	...........
	23	0.32	4.87929E-001	-3.98083E-004	0.00000E+000	-1.94236E-004	-2.40040E-001	4.88101E-001	3.57630E+000	9	...........
	24	0.333333	4.80654E-001	-3.98826E-004	0.00000E+000	-1.91697E-004	-2.40040E-001	4.80756E-001	3.57630E+000	9	...........
	25	0.346667	4.73162E-001	-3.99029E-004	0.00000E+000	-1.88805E-004	-2.40040E-001	4.73264E-001	3.57630E+000	9	...........
	26	0.36	4.65652E-001	-3.98531E-004	0.00000E+000	-1.85577E-004	-2.40040E-001	4.65749E-001	3.57630E+000	9	...........
	27	0.373333	4.58210E-001	-3.98524E-004	0.00000E+000	-1.82608E-004	-2.40040E-001	4.58297E-001	3.57630E+000	9	...........
	28	0.386667	4.50825E-001	-3.98682E-004	0.00000E+000	-1.79736E-004	-2.40040E-001	4.50915E-001	3.57630E+000	9	...........
	29	0.4	4.43510E-001	-3.98040E-004	0.00000E+000	-1.76535E-004	-2.40040E-001	4.43596E-001	3.57630E+000	9	...........
	30	0.413333	4.36251E-001	-3.98282E-004	0.00000E+000	-1.73751E-004	-2.40040E-001	4.36338E-001	3.57630E+000	9	...........
	31	0.426667	4.29052E-001	-4.00258E-004	0.00000E+000	-1.71731E-004	-2.40040E-001	4.29137E-001	3.57630E+000	9	...........
	32	0.44	4.21789E-001	-3.99145E-004	0.00000E+000	-1.68355E-004	-2.40040E-001	4.21874E-001	3.57630E+000	9	...........
	33	0.453333	4.14562E-001	-3.98382E-004	0.00000E+000	-1.65154E-004	-2.40040E-001	4.14645E-001	3.57630E+000	9	...........
	34	0.466667	4.07406E-001	-3.98252E-004	0.00000E+000	-1.62250E-004	-2.40040E-001	4.07485E-001	3.57630E+000	9	...........
	35	0.48	4.00300E-001	-3.98817E-004	0.00000E+000	-1.59646E-004	-2.40040E-001	4.00375E-001	3.57630E+000	9	...........
	36	0.493333	3.93243E-001	-3.98532E-004	0.00000E+000	-1.56720E-004	-2.40040E-001	3.93319E-001	3.57630E+000	9	...........
	37	0.506667	3.86271E-001	-3.98283E-004	0.00000E+000	-1.53845E-004	-2.40040E-001	3.86350E-001	3.57630E+000	9	...........
	38	0.52	3.79328E-001	-3.97775E-004	0.00000E+000	-1.50887E-004	-2.40040E-001	3.79408E-001	3.57700E+000	9	...........
	39	0.533333	3.72494E-001	-3.98885E-004	0.00000E+000	-1.48582E-004	-2.40040E-001	3.72569E-001	3.57710E+000	9	...........
	40	0.546667	3.65619E-001	-3.98538E-004	0.00000E+000	-1.45713E-004	-2.40040E-001	3.65694E-001	3.57710E+000	9	...........
	41	0.56	3.58783E-001	-3.98533E-004	0.00000E+000	-1.42987E-004	-2.40040E-001	3.58854E-001	3.57710E+000	9	...........
	42	0.573333	3.52031E-001	-3.98622E-004	0.00000E+000	-1.40327E-004	-2.40040E-001	3.52106E-001	3.57710E+000	9	...........
	43	0.586667	3.45309E-001	-3.98706E-004	0.00000E+000	-1.37677E-004	-2.40040E-001	3.45380E-001	3.57710E+000	9	...........
	44	0.6	3.38601E-001	-3.98362E-004	0.00000E+000	-1.34886E-004	-2.40040E-001	3.38671E-001	3.57710E+000	9	...........
	45	0.613333	3.31897E-001	-3.98936E-004	0.00000E+000	-1.32406E-004	-2.40040E-001	3.31966E-001	3.57710E+000	9	...........
	46	0.626667	3.25277E-001	-3.97874E-004	0.00000E+000	-1.29419E-004	-2.40040E-001	3.25344E-001	3.57710E+000	9	...........
	47	0.64	3.18671E-001	-3.98161E-004	0.00000E+000	-1.26883E-004	-2.40040E-001	3.18739E-001	3.57710E+000	9	...........
	48	0.653333	3.12146E-001	-3.99225E-004	0.00000E+000	-1.24616E-004	-2.40040E-001	3.12210E-001	3.57710E+000	9	...........
	49	0.666667	3.05730E-001	-3.98551E-004	0.00000E+000	-1.21849E-004	-2.40040E-001	3.05796E-001	3.57710E+000	9	...........
	50	0.68	2.99344E-001	-3.99680E-004	0.00000E+000	-1.19642E-004	-2.40040E-001	2.99402E-001	3.57710E+000	9	...........
	51	0.693333	2.92920E-001	-3.98923E-004	0.00000E+000	-1.16853E-004	-2.40040E-001	2.92986E-001	3.57710E+000	9	...........
	52	0.706667	2.86519E-001	-3.99225E-004	0.00000E+000	-1.14386E-004	-2.40040E-001	2.86578E-001	3.57710E+000	9	...........
	53	0.72	2.80222E-001	-3.98904E-004	0.00000E+000	-1.11782E-004	-2.40040E-001	2.80278E-001	3.57710E+000	9	...........
	54	0.733333	2.73941E-001	-3.99502E-004	0.00000E+000	-1.09440E-004	-2.40040E-001	2.73995E-001	3.57710E+000	9	...........
	55	0.746667	2.67729E-001	-3.98064E-004	0.00000E+000	-1.06574E-004	-2.40040E-001	2.67785E-001	3.57710E+000	9	...........
	56	0.76	2.61532E-001	-3.97364E-004	0.00000E+000	-1.03923E-004	-2.40040E-001	2.61590E-001	3.57710E+000	9	...........
	57	0.773333	2.55374E-001	-3.99340E-004	0.00000E+000	-1.01981E-004	-2.40040E-001	2.55424E-001	3.57710E+000	9	...........
	58	0.786667	2.49249E-001	-3.97584E-004	0.00000E+000	-9.90975E-005	-2.40040E-001	2.49298E-001	3.57710E+000	9	...........
	59	0.8	2.43201E-001	-3.99194E-004	0.00000E+000	-9.70843E-005	-2.40040E-001	2.43245E-001	3.57710E+000	9	...........
	60	0.813333	2.37146E-001	-3.98316E-004	0.00000E+000	-9.44588E-005	-2.40040E-001	2.37188E-001	3.57710E+000	9	...........
	61	0.826667	2.31104E-001	-3.98398E-004	0.00000E+000	-9.20712E-005	-2.40040E-001	2.31140E-001	3.57710E+000	9	...........
	62	0.84	2.25108E-001	-3.98090E-004	0.00000E+000	-8.96133E-005	-2.40040E-001	2.25154E-001	3.57710E+000	9	...........
	63	0.853333	2.19227E-001	-3.98549E-004	0.00000E+000	-8.73728E-005	-2.40040E-001	2.19272E-001	3.57710E+000	9	...........
	64	0.866667	2.13391E-001	-3.99681E-004	0.00000E+000	-8.52885E-005	-2.40040E-001	2.13435E-001	3.57710E+000	9	...........
	65	0.88	2.07523E-001	-3.99011E-004	0.00000E+000	-8.28042E-005	-2.40040E-001	2.07561E-001	3.57710E+000	9	...........
	66	0.893333	2.01732E-001	-3.99340E-004	0.00000E+000	-8.05597E-005	-2.40040E-001	2.01772E-001	3.57710E+000	9	...........
	67	0.906667	1.96009E-001	-3.98653E-004	0.00000E+000	-7.81397E-005	-2.40040E-001	1.96045E-001	3.57710E+000	9	...........
	68	0.92	1.90285E-001	-3.98704E-004	0.00000E+000	-7.58673E-005	-2.40040E-001	1.90319E-001	3.57710E+000	9	...........
	69	0.933333	1.84654E-001	-3.99451E-004	0.00000E+000	-7.37604E-005	-2.40040E-001	1.84693E-001	3.57710E+000	9	...........
	70	0.946667	1.79026E-001	-3.98677E-004	0.00000E+000	-7.13736E-005	-2.40040E-001	1.79064E-001	3.57710E+000	9	...........
	71	0.96	1.73373E-001	-4.00021E-004	0.00000E+000	-6.93530E-005	-2.40040E-001	1.73400E-001	3.57710E+000	9	...........
	72	0.97333	1.67758E-001	-4.00118E-004	0.00000E+000	-6.71229E-005	-2.40040E-001	1.67787E-001	3.57710E+000	9	...........
	73	0.98667	1.62224E-001	-3.99304E-004	0.00000E+000	-6.47766E-005	-2.40040E-001	1.62251E-001	3.57710E+000	9	...........
	74	1	1.56717E-001	-3.98221E-004	0.00000E+000	-6.24080E-005	-2.40040E-001	1.56743E-001	3.57710E+000	9	...........
	75	1.01333	1.51238E-001	-3.98602E-004	0.00000E+000	-6.02838E-005	-2.40040E-001	1.51262E-001	3.57710E+000	9	...........
	76	1.02667	1.45752E-001	-3.98615E-004	0.00000E+000	-5.80988E-005	-2.40040E-001	1.45776E-001	3.57710E+000	9	...........
	77	1.04	1.40390E-001	-3.99449E-004	0.00000E+000	-5.60787E-005	-2.40040E-001	1.40414E-001	3.57710E+000	9	...........
	78	1.05333	1.35081E-001	-3.99642E-004	0.00000E+000	-5.39839E-005	-2.40040E-001	1.35102E-001	3.57710E+000	9	...........
	79	1.06667	1.29747E-001	-3.99070E-004	0.00000E+000	-5.17781E-005	-2.40040E-001	1.29773E-001	3.57710E+000	9	...........
	80	1.08	1.24492E-001	-3.98400E-004	0.00000E+000	-4.95977E-005	-2.40040E-001	1.24519E-001	3.57710E+000	9	...........
	81	1.09333	1.19199E-001	-3.99591E-004	0.00000E+000	-4.76309E-005	-2.40040E-001	1.19222E-001	3.57710E+000	9	...........
	82	1.10667	1.14046E-001	-3.98481E-004	0.00000E+000	-4.54451E-005	-2.40040E-001	1.14066E-001	3.57710E+000	9	...........
	83	1.12	1.08905E-001	-3.98053E-004	0.00000E+000	-4.33500E-005	-2.40040E-001	1.08921E-001	3.57710E+000	9	...........
	84	1.13333	1.03704E-001	-3.98070E-004	0.00000E+000	-4.12814E-005	-2.40040E-001	1.03724E-001	3.57710E+000	9	...........
	85	1.14667	9.85471E-002	-3.99317E-004	0.00000E+000	-3.93515E-005	-2.40040E-001	9.85701E-002	3.57710E+000	9	...........
	86	1.16	9.34473E-002	-3.99479E-004	0.00000E+000	-3.73303E-005	-2.40040E-001	9.34644E-002	3.57710E+000	9	...........
	87	1.17333	8.84569E-002	-3.98347E-004	0.00000E+000	-3.52365E-005	-2.40040E-001	8.84727E-002	3.57710E+000	9	...........
	88	1.18667	8.34279E-002	-3.97759E-004	0.00000E+000	-3.31842E-005	-2.40040E-001	8.34418E-002	3.57710E+000	9	...........
	89	1.2	7.84558E-002	-3.98342E-004	0.00000E+000	-3.12522E-005	-2.40040E-001	7.84632E-002	3.57710E+000	9	...........
	90	1.21333	7.35565E-002	-3.99253E-004	0.00000E+000	-2.93677E-005	-2.40040E-001	7.35621E-002	3.57710E+000	9	...........
	91	1.22667	6.86581E-002	-3.96667E-004	0.00000E+000	-2.72344E-005	-2.40040E-001	6.86648E-002	3.57710E+000	9	...........
	92	1.24	6.38965E-002	-3.98944E-004	0.00000E+000	-2.54911E-005	-2.40040E-001	6.39055E-002	3.57710E+000	9	...........
	93	1.25333	5.89838E-002	-3.98227E-004	0.00000E+000	-2.34889E-005	-2.40040E-001	5.89903E-002	3.57710E+000	9	...........
	94	1.26667	5.40644E-002	-3.98741E-004	0.00000E+000	-2.15577E-005	-2.40040E-001	5.40693E-002	3.57710E+000	9	...........
	95	1.28	4.92011E-002	-3.98393E-004	0.00000E+000	-1.96013E-005	-2.40040E-001	4.92058E-002	3.57710E+000	9	...........
	96	1.29333	4.44021E-002	-3.98840E-004	0.00000E+000	-1.77093E-005	-2.40040E-001	4.44090E-002	3.57710E+000	9	...........
	97	1.30667	3.97115E-002	-3.98671E-004	0.00000E+000	-1.58318E-005	-2.40040E-001	3.97130E-002	3.57710E+000	9	...........
	98	1.32	3.50530E-002	-3.97756E-004	0.00000E+000	-1.39425E-005	-2.40040E-001	3.50493E-002	3.57710E+000	9	...........
	99	1.33333	3.03912E-002	-3.99337E-004	0.00000E+000	-1.21363E-005	-2.40040E-001	3.03869E-002	3.57710E+000	9	...........
	100	1.34667	2.56910E-002	-3.98412E-004	0.00000E+000	-1.02356E-005	-2.40040E-001	2.56830E-002	3.57710E+000	9	...........
	101	1.36	2.10451E-002	-3.99296E-004	0.00000E+000	-8.40324E-006	-2.40040E-001	2.10355E-002	3.57710E+000	9	...........
	102	1.37333	1.64014E-002	-3.97331E-004	0.00000E+000	-6.51677E-006	-2.40040E-001	1.63853E-002	3.57710E+000	9	...........
	103	1.38667	1.18175E-002	-4.00319E-004	0.00000E+000	-4.73075E-006	-2.40040E-001	1.18020E-002	3.57710E+000	9	...........
	104	1.4	7.31226E-003	-3.98918E-004	0.00000E+000	-2.91699E-006	-2.40040E-001	7.29102E-003	3.57710E+000	9	...........
	105	1.41333	2.78705E-003	-3.98873E-004	0.00000E+000	-1.11168E-006	-2.40040E-001	2.76360E-003	3.57710E+000	9	...........
	106	1.41667	-2.55125E-005	-3.96272E-004	0.00000E+000	1.01099E-008	-2.40040E-001	-5.01992E-005	3.57710E+000	9	...........
STARTTIMEOFFSET	QUANT	2304.126	Start Time Offset (s)
