EXPLAIN
TAG	PWR800_DISCHARGE
TITLE	LABEL	PWR Cyclic Charge Discharge (Cell) - Discharge Step	Test &Identifier
DATE	LABEL	22-6-2017	Date
TIME	LABEL	16:02:31	Time
NOTES	NOTES	3	&Notes...
	supercap test cell
	0.6mg
	6M KOH
PSTAT	PSTAT	IFC5000-01520	Potentiostat
CAPACITY	QUANT	1.00000E-003	Capacity (A-hr)
CELLTYPE	SELECTOR	1	&Cell Type
WORKINGCONNECTION	SELECTOR	0	&Working Lead
MAXDISCHARGETIME	VARIABLEANDUNITS	1.00000E+002	s	1.00000E+002	second(s)	Max &Discharge Time
DISCHARGEMODE	MULTIPARAM	0	6.00000E-003	&Discharge Mode	Constant Current	Amp(s)
SAMPLETIME	QUANT	1.00000E-002	Sa&mple Period (s)
DISCHARGESTOPAT1	MULTIPARAM	3	0.00000E+000	Discharge Stop At &1	Voltage < Limit	V
DISCHARGESTOPAT2	MULTIPARAM	0	0.00000E+000	Discharge Stop At &2	None	N/A
AESBHCSELECTOR	TOGGLE	F	Save Both Half Cells
IRCOMP	TOGGLE	F	IR &Measure
EOC	QUANT	0	Open Circuit (V)
SEQUENCER	TOGGLE	TRUE	Run as Sequence
PSTATMODEL	IQUANT	53	Pstat Model
PSTATSECTION	LABEL	IFC5000-01520	Pstat Section
PSTATSERIALNO	LABEL	01520	Pstat Serial Number
CTRLMODE	IQUANT	0	Control Mode
ELECTROMETER	IQUANT	1	RE=0 or CS=1
IESTAB	IQUANT	0	I/E Stability
CASPEED	IQUANT	4	Control Amp Speed
CONVENTION	IQUANT	1	Current Convention
ICHRANGE	IQUANT	2	Ich Range
ICHRANGEMODE	TOGGLE	T	Ich Auto Range
ICHOFFSETENABLE	TOGGLE	F	Ich Offset Enable
ICHOFFSET	QUANT	0	Ich Offset (V)
ICHFILTER	IQUANT	1	Ich Filter
VCHRANGE	IQUANT	2	Vch Range
VCHRANGEMODE	TOGGLE	T	Vch Auto Range
VCHOFFSETENABLE	TOGGLE	F	Vch Offset Enable
VCHOFFSET	QUANT	0	Vch Offset (V)
VCHFILTER	IQUANT	1	Vch Filter
IERANGELOWERLIMIT	IQUANT	9	I/E Range Lower Limit
IERANGEMODE	TOGGLE	F	I/E AutoRange
IERANGE	IQUANT	10	I/E Range
ACHSELECT	IQUANT	1	Ach Select
ACHRANGE	IQUANT	2	Ach Range
ACHOFFSETENABLE	TOGGLE	F	Ach Offset Enable
ACHOFFSET	QUANT	0	Ach Offset (V)
ACHFILTER	IQUANT	1	Ach Filter
CABLEID	IQUANT	14	Cable ID
DCCALDATE	LABEL	20-10-2016	DC Calibration Date
ACCALDATE	LABEL	12/3/2015	AC Calibration Date
FRAMEWORKVERSION	QUANT	7.01	Framework Version
INSTRUMENTVERSION	LABEL	4.00	Instrument Version
CURVE	TABLE	56
	Pt	T	Vf	Im	Vu	Pwr	Sig	Ach	Temp	IERange	Over
	#	s	V	A	V	W	V	V	deg C	#	bits
	0	0.013333	3.88040E-001	-6.01621E-003	0.00000E+000	-2.33453E-003	-3.59960E-001	-1.11702E+000	3.57780E+000	10	...........
	1	0.026667	3.76744E-001	-6.01519E-003	0.00000E+000	-2.26619E-003	-3.59960E-001	-1.12827E+000	3.57780E+000	10	...........
	2	0.04	3.66252E-001	-6.01333E-003	0.00000E+000	-2.20239E-003	-3.59960E-001	-1.12105E+000	3.57780E+000	10	...........
	3	0.053333	3.56293E-001	-6.01174E-003	0.00000E+000	-2.14194E-003	-3.59960E-001	-1.11727E+000	3.57780E+000	10	...........
	4	0.066667	3.46658E-001	-6.01725E-003	0.00000E+000	-2.08593E-003	-3.59960E-001	-1.12818E+000	3.57780E+000	10	...........
	5	0.08	3.37313E-001	-6.01509E-003	0.00000E+000	-2.02897E-003	-3.59960E-001	-1.12059E+000	3.57780E+000	10	...........
	6	0.093333	3.28211E-001	-6.01594E-003	0.00000E+000	-1.97450E-003	-3.59960E-001	-1.11724E+000	3.57780E+000	10	...........
	7	0.106667	3.19300E-001	-6.01263E-003	0.00000E+000	-1.91983E-003	-3.59960E-001	-1.12833E+000	3.57780E+000	10	...........
	8	0.12	3.10552E-001	-6.01271E-003	0.00000E+000	-1.86726E-003	-3.59960E-001	-1.12076E+000	3.57780E+000	10	...........
	9	0.133333	3.01898E-001	-6.01627E-003	0.00000E+000	-1.81630E-003	-3.59960E-001	-1.11702E+000	3.57780E+000	10	...........
	10	0.146667	2.93469E-001	-6.01326E-003	0.00000E+000	-1.76471E-003	-3.59960E-001	-1.12834E+000	3.57780E+000	10	...........
	11	0.16	2.85105E-001	-6.01535E-003	0.00000E+000	-1.71501E-003	-3.59960E-001	-1.12112E+000	3.57780E+000	10	...........
	12	0.173333	2.76868E-001	-6.01553E-003	0.00000E+000	-1.66551E-003	-3.59960E-001	-1.11758E+000	3.57780E+000	10	...........
	13	0.186667	2.68747E-001	-6.01609E-003	0.00000E+000	-1.61681E-003	-3.59960E-001	-1.12859E+000	3.57780E+000	10	...........
	14	0.2	2.60716E-001	-6.01699E-003	0.00000E+000	-1.56873E-003	-3.59960E-001	-1.12077E+000	3.57780E+000	10	...........
	15	0.213333	2.52795E-001	-6.01721E-003	0.00000E+000	-1.52112E-003	-3.59960E-001	-1.11743E+000	3.57780E+000	10	...........
	16	0.226667	2.44940E-001	-6.01271E-003	0.00000E+000	-1.47275E-003	-3.59960E-001	-1.12879E+000	3.57780E+000	10	...........
	17	0.24	2.37225E-001	-6.01980E-003	0.00000E+000	-1.42805E-003	-3.59960E-001	-1.12125E+000	3.57780E+000	10	...........
	18	0.253333	2.29589E-001	-6.00869E-003	0.00000E+000	-1.37953E-003	-3.59960E-001	-1.11766E+000	3.57780E+000	10	...........
	19	0.266667	2.22010E-001	-6.01792E-003	0.00000E+000	-1.33604E-003	-3.59960E-001	-1.12866E+000	3.57780E+000	10	...........
	20	0.28	2.14564E-001	-6.01653E-003	0.00000E+000	-1.29093E-003	-3.59960E-001	-1.12105E+000	3.57780E+000	10	...........
	21	0.293333	2.07184E-001	-6.01392E-003	0.00000E+000	-1.24599E-003	-3.59960E-001	-1.11804E+000	3.57780E+000	10	...........
	22	0.306667	1.99910E-001	-6.01276E-003	0.00000E+000	-1.20201E-003	-3.59960E-001	-1.12915E+000	3.57780E+000	10	...........
	23	0.32	1.92689E-001	-6.01338E-003	0.00000E+000	-1.15871E-003	-3.59960E-001	-1.12112E+000	3.57780E+000	10	...........
	24	0.333333	1.85594E-001	-6.01520E-003	0.00000E+000	-1.11639E-003	-3.59960E-001	-1.11795E+000	3.57780E+000	10	...........
	25	0.346667	1.78579E-001	-6.00836E-003	0.00000E+000	-1.07297E-003	-3.59960E-001	-1.12933E+000	3.57780E+000	10	...........
	26	0.36	1.71625E-001	-6.01672E-003	0.00000E+000	-1.03262E-003	-3.59960E-001	-1.12144E+000	3.57780E+000	10	...........
	27	0.373333	1.64755E-001	-6.01244E-003	0.00000E+000	-9.90582E-004	-3.59960E-001	-1.11843E+000	3.57780E+000	10	...........
	28	0.386667	1.57917E-001	-6.01662E-003	0.00000E+000	-9.50125E-004	-3.59960E-001	-1.12940E+000	3.57780E+000	10	...........
	29	0.4	1.51163E-001	-6.01696E-003	0.00000E+000	-9.09541E-004	-3.59960E-001	-1.12089E+000	3.57780E+000	10	...........
	30	0.413333	1.44500E-001	-6.01600E-003	0.00000E+000	-8.69314E-004	-3.59960E-001	-1.11766E+000	3.57780E+000	10	...........
	31	0.426667	1.37899E-001	-6.01662E-003	0.00000E+000	-8.29683E-004	-3.59960E-001	-1.12923E+000	3.57780E+000	10	...........
	32	0.44	1.31371E-001	-6.01418E-003	0.00000E+000	-7.90087E-004	-3.59960E-001	-1.12110E+000	3.57780E+000	10	...........
	33	0.453333	1.24910E-001	-6.02092E-003	0.00000E+000	-7.52073E-004	-3.59960E-001	-1.11793E+000	3.57780E+000	10	...........
	34	0.466667	1.18485E-001	-6.01651E-003	0.00000E+000	-7.12867E-004	-3.59960E-001	-1.12921E+000	3.57780E+000	10	...........
	35	0.48	1.12131E-001	-6.01874E-003	0.00000E+000	-6.74885E-004	-3.59960E-001	-1.12119E+000	3.57780E+000	10	...........
	36	0.493333	1.05832E-001	-6.01311E-003	0.00000E+000	-6.36379E-004	-3.59960E-001	-1.11833E+000	3.57780E+000	10	...........
	37	0.506667	9.96260E-002	-6.01465E-003	0.00000E+000	-5.99216E-004	-3.59960E-001	-1.12967E+000	3.57780E+000	10	...........
	38	0.52	9.34351E-002	-6.01381E-003	0.00000E+000	-5.61900E-004	-3.59960E-001	-1.12127E+000	3.57780E+000	10	...........
	39	0.533333	8.73330E-002	-6.01166E-003	0.00000E+000	-5.25016E-004	-3.59960E-001	-1.11808E+000	3.57780E+000	10	...........
	40	0.546667	8.12993E-002	-6.01373E-003	0.00000E+000	-4.88912E-004	-3.59960E-001	-1.12960E+000	3.57780E+000	10	...........
	41	0.56	7.53182E-002	-6.01298E-003	0.00000E+000	-4.52887E-004	-3.59960E-001	-1.12140E+000	3.57780E+000	10	...........
	42	0.573333	6.93877E-002	-6.01511E-003	0.00000E+000	-4.17375E-004	-3.59960E-001	-1.11848E+000	3.57780E+000	10	...........
	43	0.586667	6.35215E-002	-6.01627E-003	0.00000E+000	-3.82163E-004	-3.59960E-001	-1.12965E+000	3.57780E+000	10	...........
	44	0.6	5.77020E-002	-6.01917E-003	0.00000E+000	-3.47318E-004	-3.59960E-001	-1.12120E+000	3.57780E+000	10	...........
	45	0.613333	5.19183E-002	-6.01472E-003	0.00000E+000	-3.12274E-004	-3.59960E-001	-1.11842E+000	3.57780E+000	10	...........
	46	0.626667	4.62651E-002	-6.01713E-003	0.00000E+000	-2.78383E-004	-3.59960E-001	-1.13000E+000	3.57780E+000	10	...........
	47	0.64	4.06208E-002	-6.01352E-003	0.00000E+000	-2.44274E-004	-3.59960E-001	-1.12155E+000	3.57780E+000	10	...........
	48	0.653333	3.50247E-002	-6.01802E-003	0.00000E+000	-2.10779E-004	-3.59960E-001	-1.11866E+000	3.57800E+000	10	...........
	49	0.666667	2.94806E-002	-6.01911E-003	0.00000E+000	-1.77447E-004	-3.59960E-001	-1.12991E+000	3.57800E+000	10	...........
	50	0.68	2.40031E-002	-6.01668E-003	0.00000E+000	-1.44419E-004	-3.59960E-001	-1.12165E+000	3.57800E+000	10	...........
	51	0.693333	1.85554E-002	-6.01808E-003	0.00000E+000	-1.11668E-004	-3.59960E-001	-1.11888E+000	3.57800E+000	10	...........
	52	0.706667	1.31359E-002	-6.01305E-003	0.00000E+000	-7.89869E-005	-3.59960E-001	-1.13051E+000	3.57800E+000	10	...........
	53	0.72	7.80578E-003	-6.01530E-003	0.00000E+000	-4.69541E-005	-3.59960E-001	-1.12149E+000	3.57800E+000	10	...........
	54	0.733333	2.48259E-003	-6.01529E-003	0.00000E+000	-1.49335E-005	-3.59960E-001	-1.11864E+000	3.57800E+000	10	...........
	55	0.735	-4.44171E-004	-6.02221E-003	0.00000E+000	2.67489E-006	-3.59960E-001	-1.13003E+000	3.57800E+000	10	...........
STARTTIMEOFFSET	QUANT	1118.748	Start Time Offset (s)
