EXPLAIN
TAG	PWR800_DISCHARGE
TITLE	LABEL	PWR Cyclic Charge Discharge (Cell) - Discharge Step	Test &Identifier
DATE	LABEL	22-6-2017	Date
TIME	LABEL	16:14:09	Time
NOTES	NOTES	3	&Notes...
	supercap test cell
	0.6mg
	6M KOH
PSTAT	PSTAT	IFC5000-01520	Potentiostat
CAPACITY	QUANT	1.00000E-003	Capacity (A-hr)
CELLTYPE	SELECTOR	1	&Cell Type
WORKINGCONNECTION	SELECTOR	0	&Working Lead
MAXDISCHARGETIME	VARIABLEANDUNITS	1.00000E+002	s	1.00000E+002	second(s)	Max &Discharge Time
DISCHARGEMODE	MULTIPARAM	0	6.00000E-003	&Discharge Mode	Constant Current	Amp(s)
SAMPLETIME	QUANT	1.00000E-002	Sa&mple Period (s)
DISCHARGESTOPAT1	MULTIPARAM	3	0.00000E+000	Discharge Stop At &1	Voltage < Limit	V
DISCHARGESTOPAT2	MULTIPARAM	0	0.00000E+000	Discharge Stop At &2	None	N/A
AESBHCSELECTOR	TOGGLE	F	Save Both Half Cells
IRCOMP	TOGGLE	F	IR &Measure
EOC	QUANT	0	Open Circuit (V)
SEQUENCER	TOGGLE	TRUE	Run as Sequence
PSTATMODEL	IQUANT	53	Pstat Model
PSTATSECTION	LABEL	IFC5000-01520	Pstat Section
PSTATSERIALNO	LABEL	01520	Pstat Serial Number
CTRLMODE	IQUANT	0	Control Mode
ELECTROMETER	IQUANT	1	RE=0 or CS=1
IESTAB	IQUANT	0	I/E Stability
CASPEED	IQUANT	4	Control Amp Speed
CONVENTION	IQUANT	1	Current Convention
ICHRANGE	IQUANT	2	Ich Range
ICHRANGEMODE	TOGGLE	T	Ich Auto Range
ICHOFFSETENABLE	TOGGLE	F	Ich Offset Enable
ICHOFFSET	QUANT	0	Ich Offset (V)
ICHFILTER	IQUANT	1	Ich Filter
VCHRANGE	IQUANT	2	Vch Range
VCHRANGEMODE	TOGGLE	T	Vch Auto Range
VCHOFFSETENABLE	TOGGLE	F	Vch Offset Enable
VCHOFFSET	QUANT	0	Vch Offset (V)
VCHFILTER	IQUANT	1	Vch Filter
IERANGELOWERLIMIT	IQUANT	9	I/E Range Lower Limit
IERANGEMODE	TOGGLE	F	I/E AutoRange
IERANGE	IQUANT	10	I/E Range
ACHSELECT	IQUANT	1	Ach Select
ACHRANGE	IQUANT	2	Ach Range
ACHOFFSETENABLE	TOGGLE	F	Ach Offset Enable
ACHOFFSET	QUANT	0	Ach Offset (V)
ACHFILTER	IQUANT	1	Ach Filter
CABLEID	IQUANT	14	Cable ID
DCCALDATE	LABEL	20-10-2016	DC Calibration Date
ACCALDATE	LABEL	12/3/2015	AC Calibration Date
FRAMEWORKVERSION	QUANT	7.01	Framework Version
INSTRUMENTVERSION	LABEL	4.00	Instrument Version
CURVE	TABLE	52
	Pt	T	Vf	Im	Vu	Pwr	Sig	Ach	Temp	IERange	Over
	#	s	V	A	V	W	V	V	deg C	#	bits
	0	0.013333	3.77004E-001	-6.01094E-003	0.00000E+000	-2.26615E-003	-3.59960E-001	-1.14050E+000	3.57650E+000	10	...........
	1	0.026667	3.65342E-001	-6.01423E-003	0.00000E+000	-2.19725E-003	-3.59960E-001	-1.15172E+000	3.57650E+000	10	...........
	2	0.04	3.54549E-001	-6.01525E-003	0.00000E+000	-2.13270E-003	-3.59960E-001	-1.14290E+000	3.57650E+000	10	...........
	3	0.053333	3.44316E-001	-6.01650E-003	0.00000E+000	-2.07158E-003	-3.59960E-001	-1.14105E+000	3.57650E+000	10	...........
	4	0.066667	3.34434E-001	-6.01914E-003	0.00000E+000	-2.01300E-003	-3.59960E-001	-1.15203E+000	3.57650E+000	10	...........
	5	0.08	3.24881E-001	-6.01533E-003	0.00000E+000	-1.95426E-003	-3.59960E-001	-1.14280E+000	3.57650E+000	10	...........
	6	0.093333	3.15532E-001	-6.01413E-003	0.00000E+000	-1.89765E-003	-3.59960E-001	-1.14117E+000	3.57650E+000	10	...........
	7	0.106667	3.06362E-001	-6.01246E-003	0.00000E+000	-1.84199E-003	-3.59960E-001	-1.15241E+000	3.57650E+000	10	...........
	8	0.12	2.97342E-001	-6.01860E-003	0.00000E+000	-1.78958E-003	-3.59960E-001	-1.14322E+000	3.57650E+000	10	...........
	9	0.133333	2.88517E-001	-6.01816E-003	0.00000E+000	-1.73634E-003	-3.59960E-001	-1.14127E+000	3.57648E+000	10	...........
	10	0.146667	2.79802E-001	-6.01233E-003	0.00000E+000	-1.68226E-003	-3.59960E-001	-1.15251E+000	3.57640E+000	10	...........
	11	0.16	2.71271E-001	-6.01212E-003	0.00000E+000	-1.63091E-003	-3.59960E-001	-1.14311E+000	3.57640E+000	10	...........
	12	0.173333	2.62773E-001	-6.01740E-003	0.00000E+000	-1.58121E-003	-3.59960E-001	-1.14173E+000	3.57640E+000	10	...........
	13	0.186667	2.54418E-001	-6.01388E-003	0.00000E+000	-1.53004E-003	-3.59960E-001	-1.15282E+000	3.57640E+000	10	...........
	14	0.2	2.46173E-001	-6.01231E-003	0.00000E+000	-1.48007E-003	-3.59960E-001	-1.14342E+000	3.57640E+000	10	...........
	15	0.213333	2.38087E-001	-6.01239E-003	0.00000E+000	-1.43147E-003	-3.59960E-001	-1.14205E+000	3.57640E+000	10	...........
	16	0.226667	2.30038E-001	-6.01650E-003	0.00000E+000	-1.38402E-003	-3.59960E-001	-1.15298E+000	3.57640E+000	10	...........
	17	0.24	2.22102E-001	-6.01638E-003	0.00000E+000	-1.33625E-003	-3.59960E-001	-1.14354E+000	3.57640E+000	10	...........
	18	0.253333	2.14274E-001	-6.01443E-003	0.00000E+000	-1.28874E-003	-3.59960E-001	-1.14235E+000	3.57640E+000	10	...........
	19	0.266667	2.06539E-001	-6.01571E-003	0.00000E+000	-1.24248E-003	-3.59960E-001	-1.15319E+000	3.57640E+000	10	...........
	20	0.28	1.98932E-001	-6.01311E-003	0.00000E+000	-1.19620E-003	-3.59960E-001	-1.14336E+000	3.57640E+000	10	...........
	21	0.293333	1.91389E-001	-6.01179E-003	0.00000E+000	-1.15059E-003	-3.59960E-001	-1.14230E+000	3.57640E+000	10	...........
	22	0.306667	1.83938E-001	-6.01859E-003	0.00000E+000	-1.10705E-003	-3.59960E-001	-1.15313E+000	3.57640E+000	10	...........
	23	0.32	1.76610E-001	-6.01139E-003	0.00000E+000	-1.06167E-003	-3.59960E-001	-1.14318E+000	3.57640E+000	10	...........
	24	0.333333	1.69341E-001	-6.01332E-003	0.00000E+000	-1.01830E-003	-3.59960E-001	-1.14209E+000	3.57640E+000	10	...........
	25	0.346667	1.62145E-001	-6.01493E-003	0.00000E+000	-9.75291E-004	-3.59960E-001	-1.15302E+000	3.57640E+000	10	...........
	26	0.36	1.55026E-001	-6.01122E-003	0.00000E+000	-9.31897E-004	-3.59960E-001	-1.14332E+000	3.57640E+000	10	...........
	27	0.373333	1.47974E-001	-6.01575E-003	0.00000E+000	-8.90175E-004	-3.59960E-001	-1.14251E+000	3.57640E+000	10	...........
	28	0.386667	1.41039E-001	-6.01531E-003	0.00000E+000	-8.48391E-004	-3.59960E-001	-1.15351E+000	3.57640E+000	10	...........
	29	0.4	1.34199E-001	-6.01477E-003	0.00000E+000	-8.07177E-004	-3.59960E-001	-1.14325E+000	3.57640E+000	10	...........
	30	0.413333	1.27408E-001	-6.01578E-003	0.00000E+000	-7.66456E-004	-3.59960E-001	-1.14266E+000	3.57640E+000	10	...........
	31	0.426667	1.20666E-001	-6.01436E-003	0.00000E+000	-7.25727E-004	-3.59960E-001	-1.15349E+000	3.57640E+000	10	...........
	32	0.44	1.14009E-001	-6.01635E-003	0.00000E+000	-6.85917E-004	-3.59960E-001	-1.14345E+000	3.57640E+000	10	...........
	33	0.453333	1.07445E-001	-6.01250E-003	0.00000E+000	-6.46012E-004	-3.59960E-001	-1.14303E+000	3.57640E+000	10	...........
	34	0.466667	1.00909E-001	-6.01959E-003	0.00000E+000	-6.07432E-004	-3.59960E-001	-1.15367E+000	3.57640E+000	10	...........
	35	0.48	9.45417E-002	-6.01338E-003	0.00000E+000	-5.68515E-004	-3.59960E-001	-1.14332E+000	3.57640E+000	10	...........
	36	0.493333	8.81885E-002	-6.01498E-003	0.00000E+000	-5.30453E-004	-3.59960E-001	-1.14282E+000	3.57640E+000	10	...........
	37	0.506667	8.19432E-002	-6.01844E-003	0.00000E+000	-4.93170E-004	-3.59960E-001	-1.15357E+000	3.57640E+000	10	...........
	38	0.52	7.57208E-002	-6.01409E-003	0.00000E+000	-4.55391E-004	-3.59960E-001	-1.14382E+000	3.57640E+000	10	...........
	39	0.533333	6.95590E-002	-6.01860E-003	0.00000E+000	-4.18648E-004	-3.59960E-001	-1.14343E+000	3.57640E+000	10	...........
	40	0.546667	6.34141E-002	-6.01642E-003	0.00000E+000	-3.81526E-004	-3.59960E-001	-1.15397E+000	3.57640E+000	10	...........
	41	0.56	5.73678E-002	-6.01567E-003	0.00000E+000	-3.45106E-004	-3.59960E-001	-1.14363E+000	3.57640E+000	10	...........
	42	0.573333	5.14159E-002	-6.01648E-003	0.00000E+000	-3.09342E-004	-3.59960E-001	-1.14344E+000	3.57640E+000	10	...........
	43	0.586667	4.55407E-002	-6.01594E-003	0.00000E+000	-2.73971E-004	-3.59960E-001	-1.15407E+000	3.57640E+000	10	...........
	44	0.6	3.96985E-002	-6.01211E-003	0.00000E+000	-2.38672E-004	-3.59960E-001	-1.14376E+000	3.57640E+000	10	...........
	45	0.613333	3.38598E-002	-6.01713E-003	0.00000E+000	-2.03739E-004	-3.59960E-001	-1.14367E+000	3.57640E+000	10	...........
	46	0.626667	2.81506E-002	-6.01228E-003	0.00000E+000	-1.69249E-004	-3.59960E-001	-1.15366E+000	3.57640E+000	10	...........
	47	0.64	2.24401E-002	-6.01608E-003	0.00000E+000	-1.35001E-004	-3.59960E-001	-1.14346E+000	3.57640E+000	10	...........
	48	0.653333	1.68305E-002	-6.01734E-003	0.00000E+000	-1.01275E-004	-3.59960E-001	-1.14350E+000	3.57640E+000	10	...........
	49	0.666667	1.12606E-002	-6.01471E-003	0.00000E+000	-6.77291E-005	-3.59960E-001	-1.15387E+000	3.57640E+000	10	...........
	50	0.68	5.76510E-003	-6.01108E-003	0.00000E+000	-3.46545E-005	-3.59960E-001	-1.14344E+000	3.57640E+000	10	...........
	51	0.688333	1.32902E-003	-6.01026E-003	0.00000E+000	-7.98778E-006	-3.59960E-001	-1.15082E+000	3.57640E+000	10	...........
STARTTIMEOFFSET	QUANT	1566.622	Start Time Offset (s)
