EXPLAIN
TAG	PWR800_DISCHARGE
TITLE	LABEL	PWR Cyclic Charge Discharge (Cell) - Discharge Step	Test &Identifier
DATE	LABEL	22-6-2017	Date
TIME	LABEL	15:46:23	Time
NOTES	NOTES	3	&Notes...
	supercap test cell
	0.6mg
	6M KOH
PSTAT	PSTAT	IFC5000-01520	Potentiostat
CAPACITY	QUANT	1.00000E-003	Capacity (A-hr)
CELLTYPE	SELECTOR	1	&Cell Type
WORKINGCONNECTION	SELECTOR	0	&Working Lead
MAXDISCHARGETIME	VARIABLEANDUNITS	1.00000E+002	s	1.00000E+002	second(s)	Max &Discharge Time
DISCHARGEMODE	MULTIPARAM	0	6.00000E-003	&Discharge Mode	Constant Current	Amp(s)
SAMPLETIME	QUANT	1.00000E-002	Sa&mple Period (s)
DISCHARGESTOPAT1	MULTIPARAM	3	0.00000E+000	Discharge Stop At &1	Voltage < Limit	V
DISCHARGESTOPAT2	MULTIPARAM	0	0.00000E+000	Discharge Stop At &2	None	N/A
AESBHCSELECTOR	TOGGLE	F	Save Both Half Cells
IRCOMP	TOGGLE	F	IR &Measure
EOC	QUANT	0	Open Circuit (V)
SEQUENCER	TOGGLE	TRUE	Run as Sequence
PSTATMODEL	IQUANT	53	Pstat Model
PSTATSECTION	LABEL	IFC5000-01520	Pstat Section
PSTATSERIALNO	LABEL	01520	Pstat Serial Number
CTRLMODE	IQUANT	0	Control Mode
ELECTROMETER	IQUANT	1	RE=0 or CS=1
IESTAB	IQUANT	0	I/E Stability
CASPEED	IQUANT	4	Control Amp Speed
CONVENTION	IQUANT	1	Current Convention
ICHRANGE	IQUANT	2	Ich Range
ICHRANGEMODE	TOGGLE	T	Ich Auto Range
ICHOFFSETENABLE	TOGGLE	F	Ich Offset Enable
ICHOFFSET	QUANT	0	Ich Offset (V)
ICHFILTER	IQUANT	1	Ich Filter
VCHRANGE	IQUANT	2	Vch Range
VCHRANGEMODE	TOGGLE	T	Vch Auto Range
VCHOFFSETENABLE	TOGGLE	F	Vch Offset Enable
VCHOFFSET	QUANT	0	Vch Offset (V)
VCHFILTER	IQUANT	1	Vch Filter
IERANGELOWERLIMIT	IQUANT	9	I/E Range Lower Limit
IERANGEMODE	TOGGLE	F	I/E AutoRange
IERANGE	IQUANT	10	I/E Range
ACHSELECT	IQUANT	1	Ach Select
ACHRANGE	IQUANT	2	Ach Range
ACHOFFSETENABLE	TOGGLE	F	Ach Offset Enable
ACHOFFSET	QUANT	0	Ach Offset (V)
ACHFILTER	IQUANT	1	Ach Filter
CABLEID	IQUANT	14	Cable ID
DCCALDATE	LABEL	20-10-2016	DC Calibration Date
ACCALDATE	LABEL	12/3/2015	AC Calibration Date
FRAMEWORKVERSION	QUANT	7.01	Framework Version
INSTRUMENTVERSION	LABEL	4.00	Instrument Version
CURVE	TABLE	63
	Pt	T	Vf	Im	Vu	Pwr	Sig	Ach	Temp	IERange	Over
	#	s	V	A	V	W	V	V	deg C	#	bits
	0	0.013333	4.10164E-001	-6.01491E-003	0.00000E+000	-2.46710E-003	-3.59960E-001	-1.07463E+000	3.57700E+000	10	...........
	1	0.026667	3.99492E-001	-6.01109E-003	0.00000E+000	-2.40139E-003	-3.59960E-001	-1.06692E+000	3.57700E+000	10	...........
	2	0.04	3.89557E-001	-6.01537E-003	0.00000E+000	-2.34333E-003	-3.59960E-001	-1.06465E+000	3.57700E+000	10	...........
	3	0.053333	3.80185E-001	-6.01513E-003	0.00000E+000	-2.28686E-003	-3.59960E-001	-1.07454E+000	3.57700E+000	10	...........
	4	0.066667	3.71108E-001	-6.01351E-003	0.00000E+000	-2.23166E-003	-3.59960E-001	-1.06720E+000	3.57700E+000	10	...........
	5	0.08	3.62327E-001	-6.01074E-003	0.00000E+000	-2.17785E-003	-3.59960E-001	-1.06482E+000	3.57700E+000	10	...........
	6	0.093333	3.53732E-001	-6.01420E-003	0.00000E+000	-2.12742E-003	-3.59960E-001	-1.07461E+000	3.57700E+000	10	...........
	7	0.106667	3.45301E-001	-6.01685E-003	0.00000E+000	-2.07763E-003	-3.59960E-001	-1.06734E+000	3.57700E+000	10	...........
	8	0.12	3.37032E-001	-6.01675E-003	0.00000E+000	-2.02784E-003	-3.59960E-001	-1.06510E+000	3.57700E+000	10	...........
	9	0.133333	3.28889E-001	-6.01007E-003	0.00000E+000	-1.97665E-003	-3.59960E-001	-1.07494E+000	3.57700E+000	10	...........
	10	0.146667	3.20894E-001	-6.01622E-003	0.00000E+000	-1.93057E-003	-3.59960E-001	-1.06737E+000	3.57700E+000	10	...........
	11	0.16	3.13026E-001	-6.01253E-003	0.00000E+000	-1.88208E-003	-3.59960E-001	-1.06492E+000	3.57700E+000	10	...........
	12	0.173333	3.05269E-001	-6.01511E-003	0.00000E+000	-1.83623E-003	-3.59960E-001	-1.07490E+000	3.57700E+000	10	...........
	13	0.186667	2.97570E-001	-6.01092E-003	0.00000E+000	-1.78867E-003	-3.59960E-001	-1.06779E+000	3.57700E+000	10	...........
	14	0.2	2.89970E-001	-6.01375E-003	0.00000E+000	-1.74381E-003	-3.59960E-001	-1.06502E+000	3.57700E+000	10	...........
	15	0.213333	2.82483E-001	-6.01260E-003	0.00000E+000	-1.69846E-003	-3.59960E-001	-1.07520E+000	3.57700E+000	10	...........
	16	0.226667	2.75023E-001	-6.00997E-003	0.00000E+000	-1.65288E-003	-3.59960E-001	-1.06771E+000	3.57700E+000	10	...........
	17	0.24	2.67647E-001	-6.02012E-003	0.00000E+000	-1.61127E-003	-3.59960E-001	-1.06555E+000	3.57700E+000	10	...........
	18	0.253333	2.60413E-001	-6.01434E-003	0.00000E+000	-1.56621E-003	-3.59960E-001	-1.07567E+000	3.57676E+000	10	...........
	19	0.266667	2.53251E-001	-6.01260E-003	0.00000E+000	-1.52270E-003	-3.59960E-001	-1.06816E+000	3.57670E+000	10	...........
	20	0.28	2.46141E-001	-6.01149E-003	0.00000E+000	-1.47968E-003	-3.59960E-001	-1.06566E+000	3.57670E+000	10	...........
	21	0.293333	2.39110E-001	-6.01564E-003	0.00000E+000	-1.43840E-003	-3.59960E-001	-1.07552E+000	3.57670E+000	10	...........
	22	0.306667	2.32193E-001	-6.01566E-003	0.00000E+000	-1.39680E-003	-3.59960E-001	-1.06836E+000	3.57670E+000	10	...........
	23	0.32	2.25315E-001	-6.01582E-003	0.00000E+000	-1.35545E-003	-3.59960E-001	-1.06581E+000	3.57670E+000	10	...........
	24	0.333333	2.18463E-001	-6.01358E-003	0.00000E+000	-1.31375E-003	-3.59960E-001	-1.07549E+000	3.57670E+000	10	...........
	25	0.346667	2.11698E-001	-6.01012E-003	0.00000E+000	-1.27233E-003	-3.59960E-001	-1.06796E+000	3.57670E+000	10	...........
	26	0.36	2.05005E-001	-6.01238E-003	0.00000E+000	-1.23257E-003	-3.59960E-001	-1.06536E+000	3.57670E+000	10	...........
	27	0.373333	1.98347E-001	-6.01482E-003	0.00000E+000	-1.19302E-003	-3.59960E-001	-1.07540E+000	3.57670E+000	10	...........
	28	0.386667	1.91785E-001	-6.01392E-003	0.00000E+000	-1.15338E-003	-3.59960E-001	-1.06824E+000	3.57670E+000	10	...........
	29	0.4	1.85277E-001	-6.01587E-003	0.00000E+000	-1.11460E-003	-3.59960E-001	-1.06547E+000	3.57670E+000	10	...........
	30	0.413333	1.78812E-001	-6.01705E-003	0.00000E+000	-1.07592E-003	-3.59960E-001	-1.07532E+000	3.57670E+000	10	...........
	31	0.426667	1.72428E-001	-6.01544E-003	0.00000E+000	-1.03723E-003	-3.59960E-001	-1.06817E+000	3.57670E+000	10	...........
	32	0.44	1.66061E-001	-6.01707E-003	0.00000E+000	-9.99202E-004	-3.59960E-001	-1.06565E+000	3.57670E+000	10	...........
	33	0.453333	1.59806E-001	-6.01230E-003	0.00000E+000	-9.60804E-004	-3.59960E-001	-1.07529E+000	3.57670E+000	10	...........
	34	0.466667	1.53597E-001	-6.02017E-003	0.00000E+000	-9.24678E-004	-3.59960E-001	-1.06830E+000	3.57670E+000	10	...........
	35	0.48	1.47437E-001	-6.01469E-003	0.00000E+000	-8.86787E-004	-3.59960E-001	-1.06559E+000	3.57670E+000	10	...........
	36	0.493333	1.41340E-001	-6.01481E-003	0.00000E+000	-8.50132E-004	-3.59960E-001	-1.07532E+000	3.57670E+000	10	...........
	37	0.506667	1.35285E-001	-6.01690E-003	0.00000E+000	-8.13994E-004	-3.59960E-001	-1.06842E+000	3.57670E+000	10	...........
	38	0.52	1.29287E-001	-6.01359E-003	0.00000E+000	-7.77480E-004	-3.59960E-001	-1.06569E+000	3.57670E+000	10	...........
	39	0.533333	1.23329E-001	-6.01861E-003	0.00000E+000	-7.42273E-004	-3.59960E-001	-1.07563E+000	3.57670E+000	10	...........
	40	0.546667	1.17447E-001	-6.01120E-003	0.00000E+000	-7.05997E-004	-3.59960E-001	-1.06865E+000	3.57670E+000	10	...........
	41	0.56	1.11617E-001	-6.01744E-003	0.00000E+000	-6.71648E-004	-3.59960E-001	-1.06560E+000	3.57670E+000	10	...........
	42	0.573333	1.05811E-001	-6.01384E-003	0.00000E+000	-6.36329E-004	-3.59960E-001	-1.07571E+000	3.57670E+000	10	...........
	43	0.586667	1.00061E-001	-6.01821E-003	0.00000E+000	-6.02187E-004	-3.59960E-001	-1.06883E+000	3.57670E+000	10	...........
	44	0.6	9.43883E-002	-6.01341E-003	0.00000E+000	-5.67596E-004	-3.59960E-001	-1.06599E+000	3.57670E+000	10	...........
	45	0.613333	8.86649E-002	-6.01739E-003	0.00000E+000	-5.33531E-004	-3.59960E-001	-1.07577E+000	3.57670E+000	10	...........
	46	0.626667	8.30587E-002	-6.01794E-003	0.00000E+000	-4.99842E-004	-3.59960E-001	-1.06862E+000	3.57670E+000	10	...........
	47	0.64	7.74936E-002	-6.01510E-003	0.00000E+000	-4.66132E-004	-3.59960E-001	-1.06586E+000	3.57670E+000	10	...........
	48	0.653333	7.20011E-002	-6.01219E-003	0.00000E+000	-4.32884E-004	-3.59960E-001	-1.07548E+000	3.57670E+000	10	...........
	49	0.666667	6.64877E-002	-6.01116E-003	0.00000E+000	-3.99668E-004	-3.59960E-001	-1.06852E+000	3.57670E+000	10	...........
	50	0.68	6.10326E-002	-6.01236E-003	0.00000E+000	-3.66950E-004	-3.59960E-001	-1.06537E+000	3.57670E+000	10	...........
	51	0.693333	5.56287E-002	-6.01501E-003	0.00000E+000	-3.34607E-004	-3.59960E-001	-1.07539E+000	3.57670E+000	10	...........
	52	0.706667	5.02759E-002	-6.01566E-003	0.00000E+000	-3.02443E-004	-3.59960E-001	-1.06836E+000	3.57670E+000	10	...........
	53	0.72	4.50311E-002	-6.01266E-003	0.00000E+000	-2.70757E-004	-3.59960E-001	-1.06582E+000	3.57670E+000	10	...........
	54	0.733333	3.97756E-002	-6.01686E-003	0.00000E+000	-2.39324E-004	-3.59960E-001	-1.07537E+000	3.57670E+000	10	...........
	55	0.746667	3.45370E-002	-6.01679E-003	0.00000E+000	-2.07802E-004	-3.59960E-001	-1.06837E+000	3.57670E+000	10	...........
	56	0.76	2.93175E-002	-6.01271E-003	0.00000E+000	-1.76277E-004	-3.59960E-001	-1.06543E+000	3.57670E+000	10	...........
	57	0.773333	2.42014E-002	-6.01833E-003	0.00000E+000	-1.45652E-004	-3.59960E-001	-1.07539E+000	3.57670E+000	10	...........
	58	0.786667	1.90706E-002	-6.01326E-003	0.00000E+000	-1.14676E-004	-3.59960E-001	-1.06866E+000	3.57670E+000	10	...........
	59	0.8	1.39940E-002	-6.01835E-003	0.00000E+000	-8.42206E-005	-3.59960E-001	-1.06568E+000	3.57670E+000	10	...........
	60	0.813333	8.94987E-003	-6.01518E-003	0.00000E+000	-5.38351E-005	-3.59960E-001	-1.07529E+000	3.57670E+000	10	...........
	61	0.826667	3.93840E-003	-6.01576E-003	0.00000E+000	-2.36924E-005	-3.59960E-001	-1.06856E+000	3.57670E+000	10	...........
	62	0.831667	5.19858E-004	-6.01334E-003	0.00000E+000	-3.12608E-006	-3.59960E-001	-1.07571E+000	3.57670E+000	10	...........
STARTTIMEOFFSET	QUANT	478.92	Start Time Offset (s)
