EXPLAIN
TAG	PWR800_DISCHARGE
TITLE	LABEL	PWR Cyclic Charge Discharge (Cell) - Discharge Step	Test &Identifier
DATE	LABEL	22-6-2017	Date
TIME	LABEL	15:53:37	Time
NOTES	NOTES	3	&Notes...
	supercap test cell
	0.6mg
	6M KOH
PSTAT	PSTAT	IFC5000-01520	Potentiostat
CAPACITY	QUANT	1.00000E-003	Capacity (A-hr)
CELLTYPE	SELECTOR	1	&Cell Type
WORKINGCONNECTION	SELECTOR	0	&Working Lead
MAXDISCHARGETIME	VARIABLEANDUNITS	1.00000E+002	s	1.00000E+002	second(s)	Max &Discharge Time
DISCHARGEMODE	MULTIPARAM	0	6.00000E-003	&Discharge Mode	Constant Current	Amp(s)
SAMPLETIME	QUANT	1.00000E-002	Sa&mple Period (s)
DISCHARGESTOPAT1	MULTIPARAM	3	0.00000E+000	Discharge Stop At &1	Voltage < Limit	V
DISCHARGESTOPAT2	MULTIPARAM	0	0.00000E+000	Discharge Stop At &2	None	N/A
AESBHCSELECTOR	TOGGLE	F	Save Both Half Cells
IRCOMP	TOGGLE	F	IR &Measure
EOC	QUANT	0	Open Circuit (V)
SEQUENCER	TOGGLE	TRUE	Run as Sequence
PSTATMODEL	IQUANT	53	Pstat Model
PSTATSECTION	LABEL	IFC5000-01520	Pstat Section
PSTATSERIALNO	LABEL	01520	Pstat Serial Number
CTRLMODE	IQUANT	0	Control Mode
ELECTROMETER	IQUANT	1	RE=0 or CS=1
IESTAB	IQUANT	0	I/E Stability
CASPEED	IQUANT	4	Control Amp Speed
CONVENTION	IQUANT	1	Current Convention
ICHRANGE	IQUANT	2	Ich Range
ICHRANGEMODE	TOGGLE	T	Ich Auto Range
ICHOFFSETENABLE	TOGGLE	F	Ich Offset Enable
ICHOFFSET	QUANT	0	Ich Offset (V)
ICHFILTER	IQUANT	1	Ich Filter
VCHRANGE	IQUANT	2	Vch Range
VCHRANGEMODE	TOGGLE	T	Vch Auto Range
VCHOFFSETENABLE	TOGGLE	F	Vch Offset Enable
VCHOFFSET	QUANT	0	Vch Offset (V)
VCHFILTER	IQUANT	1	Vch Filter
IERANGELOWERLIMIT	IQUANT	9	I/E Range Lower Limit
IERANGEMODE	TOGGLE	F	I/E AutoRange
IERANGE	IQUANT	10	I/E Range
ACHSELECT	IQUANT	1	Ach Select
ACHRANGE	IQUANT	2	Ach Range
ACHOFFSETENABLE	TOGGLE	F	Ach Offset Enable
ACHOFFSET	QUANT	0	Ach Offset (V)
ACHFILTER	IQUANT	1	Ach Filter
CABLEID	IQUANT	14	Cable ID
DCCALDATE	LABEL	20-10-2016	DC Calibration Date
ACCALDATE	LABEL	12/3/2015	AC Calibration Date
FRAMEWORKVERSION	QUANT	7.01	Framework Version
INSTRUMENTVERSION	LABEL	4.00	Instrument Version
CURVE	TABLE	59
	Pt	T	Vf	Im	Vu	Pwr	Sig	Ach	Temp	IERange	Over
	#	s	V	A	V	W	V	V	deg C	#	bits
	0	0.013333	3.97973E-001	-6.01478E-003	0.00000E+000	-2.39372E-003	-3.59960E-001	-1.10773E+000	3.57740E+000	10	...........
	1	0.026667	3.86974E-001	-6.01192E-003	0.00000E+000	-2.32646E-003	-3.59960E-001	-1.10607E+000	3.57740E+000	10	...........
	2	0.04	3.76764E-001	-6.01269E-003	0.00000E+000	-2.26537E-003	-3.59960E-001	-1.09996E+000	3.57740E+000	10	...........
	3	0.053333	3.67081E-001	-6.01110E-003	0.00000E+000	-2.20656E-003	-3.59960E-001	-1.10853E+000	3.57740E+000	10	...........
	4	0.066667	3.57736E-001	-6.01823E-003	0.00000E+000	-2.15294E-003	-3.59960E-001	-1.10628E+000	3.57740E+000	10	...........
	5	0.08	3.48663E-001	-6.01504E-003	0.00000E+000	-2.09722E-003	-3.59960E-001	-1.10025E+000	3.57740E+000	10	...........
	6	0.093333	3.39810E-001	-6.01765E-003	0.00000E+000	-2.04486E-003	-3.59960E-001	-1.10886E+000	3.57740E+000	10	...........
	7	0.106667	3.31154E-001	-6.01888E-003	0.00000E+000	-1.99318E-003	-3.59960E-001	-1.10618E+000	3.57740E+000	10	...........
	8	0.12	3.22672E-001	-6.01114E-003	0.00000E+000	-1.93963E-003	-3.59960E-001	-1.10037E+000	3.57740E+000	10	...........
	9	0.133333	3.14284E-001	-6.01318E-003	0.00000E+000	-1.88985E-003	-3.59960E-001	-1.10901E+000	3.57740E+000	10	...........
	10	0.146667	3.06074E-001	-6.01572E-003	0.00000E+000	-1.84126E-003	-3.59960E-001	-1.10578E+000	3.57740E+000	10	...........
	11	0.16	2.97961E-001	-6.01745E-003	0.00000E+000	-1.79296E-003	-3.59960E-001	-1.10013E+000	3.57740E+000	10	...........
	12	0.173333	2.89959E-001	-6.01753E-003	0.00000E+000	-1.74484E-003	-3.59960E-001	-1.10903E+000	3.57740E+000	10	...........
	13	0.186667	2.82061E-001	-6.01312E-003	0.00000E+000	-1.69607E-003	-3.59960E-001	-1.10597E+000	3.57740E+000	10	...........
	14	0.2	2.74268E-001	-6.01294E-003	0.00000E+000	-1.64916E-003	-3.59960E-001	-1.10044E+000	3.57749E+000	10	...........
	15	0.213333	2.66573E-001	-6.01329E-003	0.00000E+000	-1.60298E-003	-3.59960E-001	-1.10919E+000	3.57750E+000	10	...........
	16	0.226667	2.58948E-001	-6.01072E-003	0.00000E+000	-1.55646E-003	-3.59960E-001	-1.10576E+000	3.57750E+000	10	...........
	17	0.24	2.51423E-001	-6.01750E-003	0.00000E+000	-1.51294E-003	-3.59960E-001	-1.10058E+000	3.57750E+000	10	...........
	18	0.253333	2.44015E-001	-6.01409E-003	0.00000E+000	-1.46753E-003	-3.59960E-001	-1.10973E+000	3.57750E+000	10	...........
	19	0.266667	2.36668E-001	-6.01930E-003	0.00000E+000	-1.42458E-003	-3.59960E-001	-1.10591E+000	3.57750E+000	10	...........
	20	0.28	2.29394E-001	-6.01324E-003	0.00000E+000	-1.37940E-003	-3.59960E-001	-1.10051E+000	3.57750E+000	10	...........
	21	0.293333	2.22139E-001	-6.00842E-003	0.00000E+000	-1.33471E-003	-3.59960E-001	-1.10954E+000	3.57750E+000	10	...........
	22	0.306667	2.15037E-001	-6.01192E-003	0.00000E+000	-1.29278E-003	-3.59960E-001	-1.10599E+000	3.57750E+000	10	...........
	23	0.32	2.07991E-001	-6.01417E-003	0.00000E+000	-1.25090E-003	-3.59960E-001	-1.10075E+000	3.57750E+000	10	...........
	24	0.333333	2.01003E-001	-6.01677E-003	0.00000E+000	-1.20939E-003	-3.59960E-001	-1.11019E+000	3.57750E+000	10	...........
	25	0.346667	1.94104E-001	-6.01430E-003	0.00000E+000	-1.16740E-003	-3.59960E-001	-1.10581E+000	3.57750E+000	10	...........
	26	0.36	1.87293E-001	-6.02017E-003	0.00000E+000	-1.12754E-003	-3.59960E-001	-1.10082E+000	3.57750E+000	10	...........
	27	0.373333	1.80525E-001	-6.01506E-003	0.00000E+000	-1.08587E-003	-3.59960E-001	-1.11051E+000	3.57750E+000	10	...........
	28	0.386667	1.73807E-001	-6.01134E-003	0.00000E+000	-1.04481E-003	-3.59960E-001	-1.10601E+000	3.57750E+000	10	...........
	29	0.4	1.67168E-001	-6.01406E-003	0.00000E+000	-1.00536E-003	-3.59960E-001	-1.10110E+000	3.57750E+000	10	...........
	30	0.413333	1.60655E-001	-6.01192E-003	0.00000E+000	-9.65846E-004	-3.59960E-001	-1.11082E+000	3.57750E+000	10	...........
	31	0.426667	1.54112E-001	-6.01857E-003	0.00000E+000	-9.27533E-004	-3.59960E-001	-1.10586E+000	3.57750E+000	10	...........
	32	0.44	1.47675E-001	-6.01338E-003	0.00000E+000	-8.88026E-004	-3.59960E-001	-1.10100E+000	3.57750E+000	10	...........
	33	0.453333	1.41282E-001	-6.01405E-003	0.00000E+000	-8.49675E-004	-3.59960E-001	-1.11103E+000	3.57750E+000	10	...........
	34	0.466667	1.34962E-001	-6.01646E-003	0.00000E+000	-8.11993E-004	-3.59960E-001	-1.10523E+000	3.57750E+000	10	...........
	35	0.48	1.28737E-001	-6.01138E-003	0.00000E+000	-7.73886E-004	-3.59960E-001	-1.10062E+000	3.57750E+000	10	...........
	36	0.493333	1.22562E-001	-6.01787E-003	0.00000E+000	-7.37565E-004	-3.59960E-001	-1.11084E+000	3.57750E+000	10	...........
	37	0.506667	1.16431E-001	-6.01796E-003	0.00000E+000	-7.00679E-004	-3.59960E-001	-1.10554E+000	3.57750E+000	10	...........
	38	0.52	1.10354E-001	-6.01879E-003	0.00000E+000	-6.64201E-004	-3.59960E-001	-1.10083E+000	3.57750E+000	10	...........
	39	0.533333	1.04312E-001	-6.01782E-003	0.00000E+000	-6.27730E-004	-3.59960E-001	-1.11099E+000	3.57750E+000	10	...........
	40	0.546667	9.83616E-002	-6.01308E-003	0.00000E+000	-5.91456E-004	-3.59960E-001	-1.10488E+000	3.57750E+000	10	...........
	41	0.56	9.24489E-002	-6.01679E-003	0.00000E+000	-5.56246E-004	-3.59960E-001	-1.10068E+000	3.57750E+000	10	...........
	42	0.573333	8.65953E-002	-6.01152E-003	0.00000E+000	-5.20570E-004	-3.59960E-001	-1.11123E+000	3.57750E+000	10	...........
	43	0.586667	8.07523E-002	-6.01749E-003	0.00000E+000	-4.85926E-004	-3.59960E-001	-1.10513E+000	3.57750E+000	10	...........
	44	0.6	7.49706E-002	-6.01508E-003	0.00000E+000	-4.50954E-004	-3.59960E-001	-1.10063E+000	3.57750E+000	10	...........
	45	0.613333	6.92602E-002	-6.01538E-003	0.00000E+000	-4.16626E-004	-3.59960E-001	-1.11111E+000	3.57750E+000	10	...........
	46	0.626667	6.35945E-002	-6.01141E-003	0.00000E+000	-3.82292E-004	-3.59960E-001	-1.10466E+000	3.57750E+000	10	...........
	47	0.64	5.79863E-002	-6.01382E-003	0.00000E+000	-3.48719E-004	-3.59960E-001	-1.10088E+000	3.57750E+000	10	...........
	48	0.653333	5.24368E-002	-6.01189E-003	0.00000E+000	-3.15244E-004	-3.59960E-001	-1.11167E+000	3.57750E+000	10	...........
	49	0.666667	4.69470E-002	-6.01444E-003	0.00000E+000	-2.82360E-004	-3.59960E-001	-1.10480E+000	3.57750E+000	10	...........
	50	0.68	4.14737E-002	-6.01623E-003	0.00000E+000	-2.49515E-004	-3.59960E-001	-1.10113E+000	3.57750E+000	10	...........
	51	0.693333	3.60254E-002	-6.01437E-003	0.00000E+000	-2.16670E-004	-3.59960E-001	-1.11189E+000	3.57750E+000	10	...........
	52	0.706667	3.05969E-002	-6.01595E-003	0.00000E+000	-1.84069E-004	-3.59960E-001	-1.10510E+000	3.57750E+000	10	...........
	53	0.72	2.52520E-002	-6.01685E-003	0.00000E+000	-1.51938E-004	-3.59960E-001	-1.10152E+000	3.57750E+000	10	...........
	54	0.733333	1.99769E-002	-6.01851E-003	0.00000E+000	-1.20231E-004	-3.59960E-001	-1.11228E+000	3.57750E+000	10	...........
	55	0.746667	1.47612E-002	-6.01375E-003	0.00000E+000	-8.87704E-005	-3.59960E-001	-1.10500E+000	3.57750E+000	10	...........
	56	0.76	9.55711E-003	-6.01297E-003	0.00000E+000	-5.74667E-005	-3.59960E-001	-1.10150E+000	3.57750E+000	10	...........
	57	0.773333	4.38389E-003	-6.01227E-003	0.00000E+000	-2.63571E-005	-3.59960E-001	-1.11211E+000	3.57750E+000	10	...........
	58	0.78	5.25272E-004	-6.02011E-003	0.00000E+000	-3.16220E-006	-3.59960E-001	-1.09388E+000	3.57750E+000	10	...........
STARTTIMEOFFSET	QUANT	768.1468	Start Time Offset (s)
