EXPLAIN
TAG	PWR800_DISCHARGE
TITLE	LABEL	PWR Cyclic Charge Discharge (Cell) - Discharge Step	Test &Identifier
DATE	LABEL	22-6-2017	Date
TIME	LABEL	15:58:47	Time
NOTES	NOTES	3	&Notes...
	supercap test cell
	0.6mg
	6M KOH
PSTAT	PSTAT	IFC5000-01520	Potentiostat
CAPACITY	QUANT	1.00000E-003	Capacity (A-hr)
CELLTYPE	SELECTOR	1	&Cell Type
WORKINGCONNECTION	SELECTOR	0	&Working Lead
MAXDISCHARGETIME	VARIABLEANDUNITS	1.00000E+002	s	1.00000E+002	second(s)	Max &Discharge Time
DISCHARGEMODE	MULTIPARAM	0	6.00000E-003	&Discharge Mode	Constant Current	Amp(s)
SAMPLETIME	QUANT	1.00000E-002	Sa&mple Period (s)
DISCHARGESTOPAT1	MULTIPARAM	3	0.00000E+000	Discharge Stop At &1	Voltage < Limit	V
DISCHARGESTOPAT2	MULTIPARAM	0	0.00000E+000	Discharge Stop At &2	None	N/A
AESBHCSELECTOR	TOGGLE	F	Save Both Half Cells
IRCOMP	TOGGLE	F	IR &Measure
EOC	QUANT	0	Open Circuit (V)
SEQUENCER	TOGGLE	TRUE	Run as Sequence
PSTATMODEL	IQUANT	53	Pstat Model
PSTATSECTION	LABEL	IFC5000-01520	Pstat Section
PSTATSERIALNO	LABEL	01520	Pstat Serial Number
CTRLMODE	IQUANT	0	Control Mode
ELECTROMETER	IQUANT	1	RE=0 or CS=1
IESTAB	IQUANT	0	I/E Stability
CASPEED	IQUANT	4	Control Amp Speed
CONVENTION	IQUANT	1	Current Convention
ICHRANGE	IQUANT	2	Ich Range
ICHRANGEMODE	TOGGLE	T	Ich Auto Range
ICHOFFSETENABLE	TOGGLE	F	Ich Offset Enable
ICHOFFSET	QUANT	0	Ich Offset (V)
ICHFILTER	IQUANT	1	Ich Filter
VCHRANGE	IQUANT	2	Vch Range
VCHRANGEMODE	TOGGLE	T	Vch Auto Range
VCHOFFSETENABLE	TOGGLE	F	Vch Offset Enable
VCHOFFSET	QUANT	0	Vch Offset (V)
VCHFILTER	IQUANT	1	Vch Filter
IERANGELOWERLIMIT	IQUANT	9	I/E Range Lower Limit
IERANGEMODE	TOGGLE	F	I/E AutoRange
IERANGE	IQUANT	10	I/E Range
ACHSELECT	IQUANT	1	Ach Select
ACHRANGE	IQUANT	2	Ach Range
ACHOFFSETENABLE	TOGGLE	F	Ach Offset Enable
ACHOFFSET	QUANT	0	Ach Offset (V)
ACHFILTER	IQUANT	1	Ach Filter
CABLEID	IQUANT	14	Cable ID
DCCALDATE	LABEL	20-10-2016	DC Calibration Date
ACCALDATE	LABEL	12/3/2015	AC Calibration Date
FRAMEWORKVERSION	QUANT	7.01	Framework Version
INSTRUMENTVERSION	LABEL	4.00	Instrument Version
CURVE	TABLE	57
	Pt	T	Vf	Im	Vu	Pwr	Sig	Ach	Temp	IERange	Over
	#	s	V	A	V	W	V	V	deg C	#	bits
	0	0.013333	3.91395E-001	-6.01621E-003	0.00000E+000	-2.35471E-003	-3.59960E-001	-1.10741E+000	3.57850E+000	10	...........
	1	0.026667	3.80213E-001	-6.01678E-003	0.00000E+000	-2.28766E-003	-3.59960E-001	-1.11800E+000	3.57850E+000	10	...........
	2	0.04	3.69828E-001	-6.01708E-003	0.00000E+000	-2.22528E-003	-3.59960E-001	-1.10760E+000	3.57850E+000	10	...........
	3	0.053333	3.59934E-001	-6.01171E-003	0.00000E+000	-2.16382E-003	-3.59960E-001	-1.10748E+000	3.57850E+000	10	...........
	4	0.066667	3.50449E-001	-6.01145E-003	0.00000E+000	-2.10670E-003	-3.59960E-001	-1.11833E+000	3.57850E+000	10	...........
	5	0.08	3.41230E-001	-6.01879E-003	0.00000E+000	-2.05379E-003	-3.59960E-001	-1.10793E+000	3.57850E+000	10	...........
	6	0.093333	3.32260E-001	-6.01368E-003	0.00000E+000	-1.99810E-003	-3.59960E-001	-1.10745E+000	3.57850E+000	10	...........
	7	0.106667	3.23457E-001	-6.01478E-003	0.00000E+000	-1.94552E-003	-3.59960E-001	-1.11805E+000	3.57850E+000	10	...........
	8	0.12	3.14791E-001	-6.01651E-003	0.00000E+000	-1.89394E-003	-3.59960E-001	-1.10785E+000	3.57850E+000	10	...........
	9	0.133333	3.06242E-001	-6.02007E-003	0.00000E+000	-1.84360E-003	-3.59960E-001	-1.10769E+000	3.57850E+000	10	...........
	10	0.146667	2.97887E-001	-6.01694E-003	0.00000E+000	-1.79237E-003	-3.59960E-001	-1.11869E+000	3.57850E+000	10	...........
	11	0.16	2.89661E-001	-6.01076E-003	0.00000E+000	-1.74109E-003	-3.59960E-001	-1.10851E+000	3.57850E+000	10	...........
	12	0.173333	2.81518E-001	-6.01908E-003	0.00000E+000	-1.69448E-003	-3.59960E-001	-1.10777E+000	3.57850E+000	10	...........
	13	0.186667	2.73455E-001	-6.01720E-003	0.00000E+000	-1.64543E-003	-3.59960E-001	-1.11870E+000	3.57850E+000	10	...........
	14	0.2	2.65526E-001	-6.01284E-003	0.00000E+000	-1.59657E-003	-3.59960E-001	-1.10837E+000	3.57850E+000	10	...........
	15	0.213333	2.57658E-001	-6.01521E-003	0.00000E+000	-1.54987E-003	-3.59960E-001	-1.10818E+000	3.57850E+000	10	...........
	16	0.226667	2.49936E-001	-6.01833E-003	0.00000E+000	-1.50420E-003	-3.59960E-001	-1.11899E+000	3.57850E+000	10	...........
	17	0.24	2.42338E-001	-6.01806E-003	0.00000E+000	-1.45840E-003	-3.59960E-001	-1.10861E+000	3.57850E+000	10	...........
	18	0.253333	2.34792E-001	-6.01332E-003	0.00000E+000	-1.41188E-003	-3.59960E-001	-1.10804E+000	3.57850E+000	10	...........
	19	0.266667	2.27285E-001	-6.01591E-003	0.00000E+000	-1.36733E-003	-3.59960E-001	-1.11901E+000	3.57850E+000	10	...........
	20	0.28	2.19890E-001	-6.01639E-003	0.00000E+000	-1.32295E-003	-3.59960E-001	-1.10891E+000	3.57850E+000	10	...........
	21	0.293333	2.12603E-001	-6.01650E-003	0.00000E+000	-1.27913E-003	-3.59960E-001	-1.10849E+000	3.57850E+000	10	...........
	22	0.306667	2.05387E-001	-6.01383E-003	0.00000E+000	-1.23516E-003	-3.59960E-001	-1.11915E+000	3.57850E+000	10	...........
	23	0.32	1.98256E-001	-6.01783E-003	0.00000E+000	-1.19307E-003	-3.59960E-001	-1.10910E+000	3.57850E+000	10	...........
	24	0.333333	1.91205E-001	-6.00905E-003	0.00000E+000	-1.14896E-003	-3.59960E-001	-1.10871E+000	3.57850E+000	10	...........
	25	0.346667	1.84216E-001	-6.01586E-003	0.00000E+000	-1.10822E-003	-3.59960E-001	-1.11967E+000	3.57850E+000	10	...........
	26	0.36	1.77249E-001	-6.01880E-003	0.00000E+000	-1.06683E-003	-3.59960E-001	-1.10936E+000	3.57850E+000	10	...........
	27	0.373333	1.70420E-001	-6.01611E-003	0.00000E+000	-1.02526E-003	-3.59960E-001	-1.10886E+000	3.57850E+000	10	...........
	28	0.386667	1.63678E-001	-6.01699E-003	0.00000E+000	-9.84846E-004	-3.59960E-001	-1.11963E+000	3.57850E+000	10	...........
	29	0.4	1.57007E-001	-6.01647E-003	0.00000E+000	-9.44630E-004	-3.59960E-001	-1.10970E+000	3.57850E+000	10	...........
	30	0.413333	1.50393E-001	-6.01767E-003	0.00000E+000	-9.05016E-004	-3.59960E-001	-1.10859E+000	3.57850E+000	10	...........
	31	0.426667	1.43841E-001	-6.01509E-003	0.00000E+000	-8.65215E-004	-3.59960E-001	-1.11967E+000	3.57850E+000	10	...........
	32	0.44	1.37349E-001	-6.00971E-003	0.00000E+000	-8.25427E-004	-3.59960E-001	-1.10960E+000	3.57850E+000	10	...........
	33	0.453333	1.30890E-001	-6.01474E-003	0.00000E+000	-7.87268E-004	-3.59960E-001	-1.10866E+000	3.57824E+000	10	...........
	34	0.466667	1.24540E-001	-6.01455E-003	0.00000E+000	-7.49053E-004	-3.59960E-001	-1.11983E+000	3.57640E+000	10	...........
	35	0.48	1.18295E-001	-6.01442E-003	0.00000E+000	-7.11475E-004	-3.59960E-001	-1.10977E+000	3.57640E+000	10	...........
	36	0.493333	1.12065E-001	-6.00952E-003	0.00000E+000	-6.73455E-004	-3.59960E-001	-1.10894E+000	3.57640E+000	10	...........
	37	0.506667	1.05887E-001	-6.01597E-003	0.00000E+000	-6.37015E-004	-3.59960E-001	-1.11990E+000	3.57640E+000	10	...........
	38	0.52	9.97626E-002	-6.01566E-003	0.00000E+000	-6.00138E-004	-3.59960E-001	-1.10983E+000	3.57640E+000	10	...........
	39	0.533333	9.36862E-002	-6.01202E-003	0.00000E+000	-5.63244E-004	-3.59960E-001	-1.10918E+000	3.57640E+000	10	...........
	40	0.546667	8.76566E-002	-6.01323E-003	0.00000E+000	-5.27099E-004	-3.59960E-001	-1.12034E+000	3.57640E+000	10	...........
	41	0.56	8.16947E-002	-6.01487E-003	0.00000E+000	-4.91383E-004	-3.59960E-001	-1.11016E+000	3.57640E+000	10	...........
	42	0.573333	7.58143E-002	-6.01688E-003	0.00000E+000	-4.56166E-004	-3.59960E-001	-1.10910E+000	3.57640E+000	10	...........
	43	0.586667	6.99943E-002	-6.01174E-003	0.00000E+000	-4.20787E-004	-3.59960E-001	-1.12021E+000	3.57640E+000	10	...........
	44	0.6	6.42093E-002	-6.01560E-003	0.00000E+000	-3.86257E-004	-3.59960E-001	-1.11022E+000	3.57640E+000	10	...........
	45	0.613333	5.84948E-002	-6.01284E-003	0.00000E+000	-3.51719E-004	-3.59960E-001	-1.10937E+000	3.57640E+000	10	...........
	46	0.626667	5.27727E-002	-6.01662E-003	0.00000E+000	-3.17513E-004	-3.59960E-001	-1.12062E+000	3.57640E+000	10	...........
	47	0.64	4.71537E-002	-6.01462E-003	0.00000E+000	-2.83612E-004	-3.59960E-001	-1.11054E+000	3.57640E+000	10	...........
	48	0.653333	4.15583E-002	-6.01194E-003	0.00000E+000	-2.49846E-004	-3.59960E-001	-1.10950E+000	3.57640E+000	10	...........
	49	0.666667	3.60259E-002	-6.01549E-003	0.00000E+000	-2.16713E-004	-3.59960E-001	-1.12057E+000	3.57640E+000	10	...........
	50	0.68	3.05321E-002	-6.01758E-003	0.00000E+000	-1.83729E-004	-3.59960E-001	-1.11072E+000	3.57640E+000	10	...........
	51	0.693333	2.51033E-002	-6.02096E-003	0.00000E+000	-1.51146E-004	-3.59960E-001	-1.10951E+000	3.57640E+000	10	...........
	52	0.706667	1.97065E-002	-6.01802E-003	0.00000E+000	-1.18594E-004	-3.59960E-001	-1.12074E+000	3.57640E+000	10	...........
	53	0.72	1.43630E-002	-6.01278E-003	0.00000E+000	-8.63617E-005	-3.59960E-001	-1.11066E+000	3.57640E+000	10	...........
	54	0.733333	9.07687E-003	-6.01450E-003	0.00000E+000	-5.45929E-005	-3.59960E-001	-1.10934E+000	3.57640E+000	10	...........
	55	0.746667	3.77921E-003	-6.01502E-003	0.00000E+000	-2.27320E-005	-3.59960E-001	-1.12046E+000	3.57640E+000	10	...........
	56	0.751667	1.91763E-004	-6.02285E-003	0.00000E+000	-1.15496E-006	-3.59960E-001	-1.09797E+000	3.57640E+000	10	...........
STARTTIMEOFFSET	QUANT	972.59	Start Time Offset (s)
