EXPLAIN
TAG	PWR800_DISCHARGE
TITLE	LABEL	PWR Cyclic Charge Discharge (Cell) - Discharge Step	Test &Identifier
DATE	LABEL	22-6-2017	Date
TIME	LABEL	15:58:06	Time
NOTES	NOTES	3	&Notes...
	supercap test cell
	0.6mg
	6M KOH
PSTAT	PSTAT	IFC5000-01520	Potentiostat
CAPACITY	QUANT	1.00000E-003	Capacity (A-hr)
CELLTYPE	SELECTOR	1	&Cell Type
WORKINGCONNECTION	SELECTOR	0	&Working Lead
MAXDISCHARGETIME	VARIABLEANDUNITS	1.00000E+002	s	1.00000E+002	second(s)	Max &Discharge Time
DISCHARGEMODE	MULTIPARAM	0	6.00000E-003	&Discharge Mode	Constant Current	Amp(s)
SAMPLETIME	QUANT	1.00000E-002	Sa&mple Period (s)
DISCHARGESTOPAT1	MULTIPARAM	3	0.00000E+000	Discharge Stop At &1	Voltage < Limit	V
DISCHARGESTOPAT2	MULTIPARAM	0	0.00000E+000	Discharge Stop At &2	None	N/A
AESBHCSELECTOR	TOGGLE	F	Save Both Half Cells
IRCOMP	TOGGLE	F	IR &Measure
EOC	QUANT	0	Open Circuit (V)
SEQUENCER	TOGGLE	TRUE	Run as Sequence
PSTATMODEL	IQUANT	53	Pstat Model
PSTATSECTION	LABEL	IFC5000-01520	Pstat Section
PSTATSERIALNO	LABEL	01520	Pstat Serial Number
CTRLMODE	IQUANT	0	Control Mode
ELECTROMETER	IQUANT	1	RE=0 or CS=1
IESTAB	IQUANT	0	I/E Stability
CASPEED	IQUANT	4	Control Amp Speed
CONVENTION	IQUANT	1	Current Convention
ICHRANGE	IQUANT	2	Ich Range
ICHRANGEMODE	TOGGLE	T	Ich Auto Range
ICHOFFSETENABLE	TOGGLE	F	Ich Offset Enable
ICHOFFSET	QUANT	0	Ich Offset (V)
ICHFILTER	IQUANT	1	Ich Filter
VCHRANGE	IQUANT	2	Vch Range
VCHRANGEMODE	TOGGLE	T	Vch Auto Range
VCHOFFSETENABLE	TOGGLE	F	Vch Offset Enable
VCHOFFSET	QUANT	0	Vch Offset (V)
VCHFILTER	IQUANT	1	Vch Filter
IERANGELOWERLIMIT	IQUANT	9	I/E Range Lower Limit
IERANGEMODE	TOGGLE	F	I/E AutoRange
IERANGE	IQUANT	10	I/E Range
ACHSELECT	IQUANT	1	Ach Select
ACHRANGE	IQUANT	2	Ach Range
ACHOFFSETENABLE	TOGGLE	F	Ach Offset Enable
ACHOFFSET	QUANT	0	Ach Offset (V)
ACHFILTER	IQUANT	1	Ach Filter
CABLEID	IQUANT	14	Cable ID
DCCALDATE	LABEL	20-10-2016	DC Calibration Date
ACCALDATE	LABEL	12/3/2015	AC Calibration Date
FRAMEWORKVERSION	QUANT	7.01	Framework Version
INSTRUMENTVERSION	LABEL	4.00	Instrument Version
CURVE	TABLE	57
	Pt	T	Vf	Im	Vu	Pwr	Sig	Ach	Temp	IERange	Over
	#	s	V	A	V	W	V	V	deg C	#	bits
	0	0.013333	3.89040E-001	-6.01609E-003	0.00000E+000	-2.34050E-003	-3.59960E-001	-1.11451E+000	3.57660E+000	10	...........
	1	0.026667	3.78135E-001	-6.01674E-003	0.00000E+000	-2.27514E-003	-3.59960E-001	-1.10548E+000	3.57660E+000	10	...........
	2	0.04	3.67875E-001	-6.01409E-003	0.00000E+000	-2.21243E-003	-3.59960E-001	-1.10352E+000	3.57660E+000	10	...........
	3	0.053333	3.58133E-001	-6.01332E-003	0.00000E+000	-2.15356E-003	-3.59960E-001	-1.11438E+000	3.57660E+000	10	...........
	4	0.066667	3.48728E-001	-6.01554E-003	0.00000E+000	-2.09779E-003	-3.59960E-001	-1.10557E+000	3.57660E+000	10	...........
	5	0.08	3.39598E-001	-6.01810E-003	0.00000E+000	-2.04374E-003	-3.59960E-001	-1.10396E+000	3.57660E+000	10	...........
	6	0.093333	3.30687E-001	-6.01903E-003	0.00000E+000	-1.99042E-003	-3.59960E-001	-1.11494E+000	3.57660E+000	10	...........
	7	0.106667	3.21933E-001	-6.01355E-003	0.00000E+000	-1.93596E-003	-3.59960E-001	-1.10614E+000	3.57660E+000	10	...........
	8	0.12	3.13315E-001	-6.01555E-003	0.00000E+000	-1.88476E-003	-3.59960E-001	-1.10382E+000	3.57660E+000	10	...........
	9	0.133333	3.04891E-001	-6.01232E-003	0.00000E+000	-1.83310E-003	-3.59960E-001	-1.11507E+000	3.57660E+000	10	...........
	10	0.146667	2.96623E-001	-6.01470E-003	0.00000E+000	-1.78410E-003	-3.59960E-001	-1.10629E+000	3.57660E+000	10	...........
	11	0.16	2.88413E-001	-6.01651E-003	0.00000E+000	-1.73524E-003	-3.59960E-001	-1.10433E+000	3.57660E+000	10	...........
	12	0.173333	2.80294E-001	-6.01343E-003	0.00000E+000	-1.68553E-003	-3.59960E-001	-1.11527E+000	3.57660E+000	10	...........
	13	0.186667	2.72301E-001	-6.01372E-003	0.00000E+000	-1.63755E-003	-3.59960E-001	-1.10626E+000	3.57660E+000	10	...........
	14	0.2	2.64366E-001	-6.01799E-003	0.00000E+000	-1.59095E-003	-3.59960E-001	-1.10383E+000	3.57660E+000	10	...........
	15	0.213333	2.56614E-001	-6.01293E-003	0.00000E+000	-1.54300E-003	-3.59960E-001	-1.11517E+000	3.57660E+000	10	...........
	16	0.226667	2.48945E-001	-6.01569E-003	0.00000E+000	-1.49758E-003	-3.59960E-001	-1.10640E+000	3.57660E+000	10	...........
	17	0.24	2.41290E-001	-6.01364E-003	0.00000E+000	-1.45103E-003	-3.59960E-001	-1.10433E+000	3.57660E+000	10	...........
	18	0.253333	2.33778E-001	-6.01208E-003	0.00000E+000	-1.40549E-003	-3.59960E-001	-1.11496E+000	3.57660E+000	10	...........
	19	0.266667	2.26362E-001	-6.01701E-003	0.00000E+000	-1.36202E-003	-3.59960E-001	-1.10607E+000	3.57660E+000	10	...........
	20	0.28	2.19040E-001	-6.01553E-003	0.00000E+000	-1.31764E-003	-3.59960E-001	-1.10430E+000	3.57660E+000	10	...........
	21	0.293333	2.11780E-001	-6.01264E-003	0.00000E+000	-1.27335E-003	-3.59960E-001	-1.11538E+000	3.57660E+000	10	...........
	22	0.306667	2.04604E-001	-6.00946E-003	0.00000E+000	-1.22956E-003	-3.59960E-001	-1.10678E+000	3.57660E+000	10	...........
	23	0.32	1.97505E-001	-6.01151E-003	0.00000E+000	-1.18730E-003	-3.59960E-001	-1.10446E+000	3.57660E+000	10	...........
	24	0.333333	1.90420E-001	-6.01673E-003	0.00000E+000	-1.14570E-003	-3.59960E-001	-1.11528E+000	3.57660E+000	10	...........
	25	0.346667	1.83456E-001	-6.01461E-003	0.00000E+000	-1.10342E-003	-3.59960E-001	-1.10676E+000	3.57660E+000	10	...........
	26	0.36	1.76580E-001	-6.01310E-003	0.00000E+000	-1.06179E-003	-3.59960E-001	-1.10475E+000	3.57660E+000	10	...........
	27	0.373333	1.69791E-001	-6.01481E-003	0.00000E+000	-1.02126E-003	-3.59960E-001	-1.11560E+000	3.57660E+000	10	...........
	28	0.386667	1.63046E-001	-6.01713E-003	0.00000E+000	-9.81072E-004	-3.59960E-001	-1.10686E+000	3.57660E+000	10	...........
	29	0.4	1.56355E-001	-6.01504E-003	0.00000E+000	-9.40482E-004	-3.59960E-001	-1.10462E+000	3.57660E+000	10	...........
	30	0.413333	1.49763E-001	-6.01549E-003	0.00000E+000	-9.00900E-004	-3.59960E-001	-1.11593E+000	3.57660E+000	10	...........
	31	0.426667	1.43231E-001	-6.01604E-003	0.00000E+000	-8.61682E-004	-3.59960E-001	-1.10727E+000	3.57660E+000	10	...........
	32	0.44	1.36760E-001	-6.01472E-003	0.00000E+000	-8.22574E-004	-3.59960E-001	-1.10497E+000	3.57660E+000	10	...........
	33	0.453333	1.30387E-001	-6.01460E-003	0.00000E+000	-7.84227E-004	-3.59960E-001	-1.11586E+000	3.57660E+000	10	...........
	34	0.466667	1.24031E-001	-6.01576E-003	0.00000E+000	-7.46141E-004	-3.59960E-001	-1.10736E+000	3.57660E+000	10	...........
	35	0.48	1.17749E-001	-6.01618E-003	0.00000E+000	-7.08401E-004	-3.59960E-001	-1.10512E+000	3.57660E+000	10	...........
	36	0.493333	1.11562E-001	-6.01252E-003	0.00000E+000	-6.70771E-004	-3.59960E-001	-1.11608E+000	3.57660E+000	10	...........
	37	0.506667	1.05379E-001	-6.00935E-003	0.00000E+000	-6.33257E-004	-3.59960E-001	-1.10753E+000	3.57660E+000	10	...........
	38	0.52	9.92581E-002	-6.02078E-003	0.00000E+000	-5.97612E-004	-3.59960E-001	-1.10465E+000	3.57660E+000	10	...........
	39	0.533333	9.32698E-002	-6.01412E-003	0.00000E+000	-5.60936E-004	-3.59960E-001	-1.11564E+000	3.57660E+000	10	...........
	40	0.546667	8.72800E-002	-6.01959E-003	0.00000E+000	-5.25390E-004	-3.59960E-001	-1.10728E+000	3.57660E+000	10	...........
	41	0.56	8.13185E-002	-6.01750E-003	0.00000E+000	-4.89334E-004	-3.59960E-001	-1.10494E+000	3.57660E+000	10	...........
	42	0.573333	7.54414E-002	-6.01417E-003	0.00000E+000	-4.53718E-004	-3.59960E-001	-1.11583E+000	3.57660E+000	10	...........
	43	0.586667	6.96354E-002	-6.01061E-003	0.00000E+000	-4.18552E-004	-3.59960E-001	-1.10750E+000	3.57660E+000	10	...........
	44	0.6	6.38770E-002	-6.01133E-003	0.00000E+000	-3.83986E-004	-3.59960E-001	-1.10487E+000	3.57660E+000	10	...........
	45	0.613333	5.81499E-002	-6.01234E-003	0.00000E+000	-3.49617E-004	-3.59960E-001	-1.11602E+000	3.57660E+000	10	...........
	46	0.626667	5.25089E-002	-6.01650E-003	0.00000E+000	-3.15919E-004	-3.59960E-001	-1.10782E+000	3.57660E+000	10	...........
	47	0.64	4.69255E-002	-6.01667E-003	0.00000E+000	-2.82335E-004	-3.59960E-001	-1.10504E+000	3.57660E+000	10	...........
	48	0.653333	4.13722E-002	-6.01128E-003	0.00000E+000	-2.48700E-004	-3.59960E-001	-1.11600E+000	3.57660E+000	10	...........
	49	0.666667	3.58218E-002	-6.01465E-003	0.00000E+000	-2.15456E-004	-3.59960E-001	-1.10772E+000	3.57660E+000	10	...........
	50	0.68	3.03864E-002	-6.01815E-003	0.00000E+000	-1.82870E-004	-3.59960E-001	-1.10523E+000	3.57660E+000	10	...........
	51	0.693333	2.49730E-002	-6.01325E-003	0.00000E+000	-1.50169E-004	-3.59960E-001	-1.11623E+000	3.57660E+000	10	...........
	52	0.706667	1.95827E-002	-6.01674E-003	0.00000E+000	-1.17824E-004	-3.59960E-001	-1.10789E+000	3.57660E+000	10	...........
	53	0.72	1.42540E-002	-6.01560E-003	0.00000E+000	-8.57464E-005	-3.59960E-001	-1.10515E+000	3.57660E+000	10	...........
	54	0.733333	8.96220E-003	-6.01601E-003	0.00000E+000	-5.39166E-005	-3.59960E-001	-1.11632E+000	3.57660E+000	10	...........
	55	0.746667	3.70082E-003	-6.01695E-003	0.00000E+000	-2.22676E-005	-3.59960E-001	-1.10835E+000	3.57660E+000	10	...........
	56	0.751667	1.02098E-004	-6.01940E-003	0.00000E+000	-6.14567E-007	-3.59960E-001	-1.11746E+000	3.57660E+000	10	...........
STARTTIMEOFFSET	QUANT	945.3634	Start Time Offset (s)
