EXPLAIN
TAG	PWR800_DISCHARGE
TITLE	LABEL	PWR Cyclic Charge Discharge (Cell) - Discharge Step	Test &Identifier
DATE	LABEL	22-6-2017	Date
TIME	LABEL	16:04:13	Time
NOTES	NOTES	3	&Notes...
	supercap test cell
	0.6mg
	6M KOH
PSTAT	PSTAT	IFC5000-01520	Potentiostat
CAPACITY	QUANT	1.00000E-003	Capacity (A-hr)
CELLTYPE	SELECTOR	1	&Cell Type
WORKINGCONNECTION	SELECTOR	0	&Working Lead
MAXDISCHARGETIME	VARIABLEANDUNITS	1.00000E+002	s	1.00000E+002	second(s)	Max &Discharge Time
DISCHARGEMODE	MULTIPARAM	0	6.00000E-003	&Discharge Mode	Constant Current	Amp(s)
SAMPLETIME	QUANT	1.00000E-002	Sa&mple Period (s)
DISCHARGESTOPAT1	MULTIPARAM	3	0.00000E+000	Discharge Stop At &1	Voltage < Limit	V
DISCHARGESTOPAT2	MULTIPARAM	0	0.00000E+000	Discharge Stop At &2	None	N/A
AESBHCSELECTOR	TOGGLE	F	Save Both Half Cells
IRCOMP	TOGGLE	F	IR &Measure
EOC	QUANT	0	Open Circuit (V)
SEQUENCER	TOGGLE	TRUE	Run as Sequence
PSTATMODEL	IQUANT	53	Pstat Model
PSTATSECTION	LABEL	IFC5000-01520	Pstat Section
PSTATSERIALNO	LABEL	01520	Pstat Serial Number
CTRLMODE	IQUANT	0	Control Mode
ELECTROMETER	IQUANT	1	RE=0 or CS=1
IESTAB	IQUANT	0	I/E Stability
CASPEED	IQUANT	4	Control Amp Speed
CONVENTION	IQUANT	1	Current Convention
ICHRANGE	IQUANT	2	Ich Range
ICHRANGEMODE	TOGGLE	T	Ich Auto Range
ICHOFFSETENABLE	TOGGLE	F	Ich Offset Enable
ICHOFFSET	QUANT	0	Ich Offset (V)
ICHFILTER	IQUANT	1	Ich Filter
VCHRANGE	IQUANT	2	Vch Range
VCHRANGEMODE	TOGGLE	T	Vch Auto Range
VCHOFFSETENABLE	TOGGLE	F	Vch Offset Enable
VCHOFFSET	QUANT	0	Vch Offset (V)
VCHFILTER	IQUANT	1	Vch Filter
IERANGELOWERLIMIT	IQUANT	9	I/E Range Lower Limit
IERANGEMODE	TOGGLE	F	I/E AutoRange
IERANGE	IQUANT	10	I/E Range
ACHSELECT	IQUANT	1	Ach Select
ACHRANGE	IQUANT	2	Ach Range
ACHOFFSETENABLE	TOGGLE	F	Ach Offset Enable
ACHOFFSET	QUANT	0	Ach Offset (V)
ACHFILTER	IQUANT	1	Ach Filter
CABLEID	IQUANT	14	Cable ID
DCCALDATE	LABEL	20-10-2016	DC Calibration Date
ACCALDATE	LABEL	12/3/2015	AC Calibration Date
FRAMEWORKVERSION	QUANT	7.01	Framework Version
INSTRUMENTVERSION	LABEL	4.00	Instrument Version
CURVE	TABLE	55
	Pt	T	Vf	Im	Vu	Pwr	Sig	Ach	Temp	IERange	Over
	#	s	V	A	V	W	V	V	deg C	#	bits
	0	0.013333	3.85894E-001	-6.01562E-003	0.00000E+000	-2.32139E-003	-3.59960E-001	-1.11901E+000	3.57670E+000	10	...........
	1	0.026667	3.74557E-001	-6.01375E-003	0.00000E+000	-2.25250E-003	-3.59960E-001	-1.12855E+000	3.57670E+000	10	...........
	2	0.04	3.64019E-001	-6.01647E-003	0.00000E+000	-2.19011E-003	-3.59960E-001	-1.12402E+000	3.57670E+000	10	...........
	3	0.053333	3.53965E-001	-6.01486E-003	0.00000E+000	-2.12905E-003	-3.59960E-001	-1.11905E+000	3.57670E+000	10	...........
	4	0.066667	3.44304E-001	-6.01462E-003	0.00000E+000	-2.07086E-003	-3.59960E-001	-1.12910E+000	3.57670E+000	10	...........
	5	0.08	3.34969E-001	-6.01500E-003	0.00000E+000	-2.01483E-003	-3.59960E-001	-1.12459E+000	3.57670E+000	10	...........
	6	0.093333	3.25834E-001	-6.01686E-003	0.00000E+000	-1.96050E-003	-3.59960E-001	-1.11950E+000	3.57670E+000	10	...........
	7	0.106667	3.16858E-001	-6.01795E-003	0.00000E+000	-1.90684E-003	-3.59960E-001	-1.12919E+000	3.57670E+000	10	...........
	8	0.12	3.08075E-001	-6.01214E-003	0.00000E+000	-1.85219E-003	-3.59960E-001	-1.12485E+000	3.57670E+000	10	...........
	9	0.133333	2.99424E-001	-6.01498E-003	0.00000E+000	-1.80103E-003	-3.59960E-001	-1.11982E+000	3.57670E+000	10	...........
	10	0.146667	2.90914E-001	-6.00815E-003	0.00000E+000	-1.74786E-003	-3.59960E-001	-1.12978E+000	3.57705E+000	10	...........
	11	0.16	2.82533E-001	-6.01156E-003	0.00000E+000	-1.69846E-003	-3.59960E-001	-1.12464E+000	3.57710E+000	10	...........
	12	0.173333	2.74264E-001	-6.01608E-003	0.00000E+000	-1.64999E-003	-3.59960E-001	-1.11990E+000	3.57710E+000	10	...........
	13	0.186667	2.66116E-001	-6.01549E-003	0.00000E+000	-1.60082E-003	-3.59960E-001	-1.12973E+000	3.57710E+000	10	...........
	14	0.2	2.58039E-001	-6.01649E-003	0.00000E+000	-1.55249E-003	-3.59960E-001	-1.12498E+000	3.57710E+000	10	...........
	15	0.213333	2.50103E-001	-6.01401E-003	0.00000E+000	-1.50412E-003	-3.59960E-001	-1.12000E+000	3.57710E+000	10	...........
	16	0.226667	2.42282E-001	-6.00922E-003	0.00000E+000	-1.45592E-003	-3.59960E-001	-1.12961E+000	3.57710E+000	10	...........
	17	0.24	2.34520E-001	-6.01316E-003	0.00000E+000	-1.41021E-003	-3.59960E-001	-1.12461E+000	3.57710E+000	10	...........
	18	0.253333	2.26862E-001	-6.01497E-003	0.00000E+000	-1.36457E-003	-3.59960E-001	-1.11979E+000	3.57710E+000	10	...........
	19	0.266667	2.19280E-001	-6.01581E-003	0.00000E+000	-1.31914E-003	-3.59960E-001	-1.13001E+000	3.57710E+000	10	...........
	20	0.28	2.11767E-001	-6.01699E-003	0.00000E+000	-1.27420E-003	-3.59960E-001	-1.12496E+000	3.57710E+000	10	...........
	21	0.293333	2.04357E-001	-6.01345E-003	0.00000E+000	-1.22889E-003	-3.59960E-001	-1.11995E+000	3.57710E+000	10	...........
	22	0.306667	1.97079E-001	-6.01175E-003	0.00000E+000	-1.18479E-003	-3.59960E-001	-1.13013E+000	3.57710E+000	10	...........
	23	0.32	1.89867E-001	-6.01610E-003	0.00000E+000	-1.14226E-003	-3.59960E-001	-1.12501E+000	3.57710E+000	10	...........
	24	0.333333	1.82714E-001	-6.01706E-003	0.00000E+000	-1.09940E-003	-3.59960E-001	-1.12029E+000	3.57710E+000	10	...........
	25	0.346667	1.75633E-001	-6.01070E-003	0.00000E+000	-1.05568E-003	-3.59960E-001	-1.13040E+000	3.57710E+000	10	...........
	26	0.36	1.68647E-001	-6.01329E-003	0.00000E+000	-1.01413E-003	-3.59960E-001	-1.12494E+000	3.57710E+000	10	...........
	27	0.373333	1.61693E-001	-6.01425E-003	0.00000E+000	-9.72460E-004	-3.59960E-001	-1.12026E+000	3.57710E+000	10	...........
	28	0.386667	1.54833E-001	-6.01218E-003	0.00000E+000	-9.30884E-004	-3.59960E-001	-1.13048E+000	3.57710E+000	10	...........
	29	0.4	1.48064E-001	-6.01658E-003	0.00000E+000	-8.90840E-004	-3.59960E-001	-1.12487E+000	3.57710E+000	10	...........
	30	0.413333	1.41371E-001	-6.01384E-003	0.00000E+000	-8.50181E-004	-3.59960E-001	-1.12046E+000	3.57710E+000	10	...........
	31	0.426667	1.34727E-001	-6.01344E-003	0.00000E+000	-8.10170E-004	-3.59960E-001	-1.13064E+000	3.57710E+000	10	...........
	32	0.44	1.28182E-001	-6.01616E-003	0.00000E+000	-7.71162E-004	-3.59960E-001	-1.12496E+000	3.57710E+000	10	...........
	33	0.453333	1.21712E-001	-6.01681E-003	0.00000E+000	-7.32319E-004	-3.59960E-001	-1.12065E+000	3.57710E+000	10	...........
	34	0.466667	1.15301E-001	-6.01465E-003	0.00000E+000	-6.93496E-004	-3.59960E-001	-1.13115E+000	3.57710E+000	10	...........
	35	0.48	1.08930E-001	-6.01688E-003	0.00000E+000	-6.55420E-004	-3.59960E-001	-1.12541E+000	3.57710E+000	10	...........
	36	0.493333	1.02625E-001	-6.01448E-003	0.00000E+000	-6.17236E-004	-3.59960E-001	-1.12096E+000	3.57710E+000	10	...........
	37	0.506667	9.63729E-002	-6.01162E-003	0.00000E+000	-5.79357E-004	-3.59960E-001	-1.13111E+000	3.57710E+000	10	...........
	38	0.52	9.02468E-002	-6.01889E-003	0.00000E+000	-5.43185E-004	-3.59960E-001	-1.12519E+000	3.57710E+000	10	...........
	39	0.533333	8.41269E-002	-6.01688E-003	0.00000E+000	-5.06182E-004	-3.59960E-001	-1.12084E+000	3.57710E+000	10	...........
	40	0.546667	7.80721E-002	-6.00948E-003	0.00000E+000	-4.69172E-004	-3.59960E-001	-1.13091E+000	3.57710E+000	10	...........
	41	0.56	7.21033E-002	-6.00950E-003	0.00000E+000	-4.33305E-004	-3.59960E-001	-1.12487E+000	3.57710E+000	10	...........
	42	0.573333	6.61781E-002	-6.01399E-003	0.00000E+000	-3.97995E-004	-3.59960E-001	-1.12062E+000	3.57710E+000	10	...........
	43	0.586667	6.03034E-002	-6.01447E-003	0.00000E+000	-3.62693E-004	-3.59960E-001	-1.13102E+000	3.57710E+000	10	...........
	44	0.6	5.44903E-002	-6.01264E-003	0.00000E+000	-3.27631E-004	-3.59960E-001	-1.12518E+000	3.57710E+000	10	...........
	45	0.613333	4.87202E-002	-6.01247E-003	0.00000E+000	-2.92929E-004	-3.59960E-001	-1.12081E+000	3.57710E+000	10	...........
	46	0.626667	4.30134E-002	-6.01617E-003	0.00000E+000	-2.58776E-004	-3.59960E-001	-1.13110E+000	3.57710E+000	10	...........
	47	0.64	3.73644E-002	-6.01696E-003	0.00000E+000	-2.24820E-004	-3.59960E-001	-1.12495E+000	3.57710E+000	10	...........
	48	0.653333	3.17838E-002	-6.02151E-003	0.00000E+000	-1.91386E-004	-3.59960E-001	-1.12099E+000	3.57710E+000	10	...........
	49	0.666667	2.62240E-002	-6.00860E-003	0.00000E+000	-1.57570E-004	-3.59960E-001	-1.13138E+000	3.57710E+000	10	...........
	50	0.68	2.07031E-002	-6.01722E-003	0.00000E+000	-1.24575E-004	-3.59960E-001	-1.12515E+000	3.57710E+000	10	...........
	51	0.693333	1.52525E-002	-6.01529E-003	0.00000E+000	-9.17480E-005	-3.59960E-001	-1.12104E+000	3.57710E+000	10	...........
	52	0.706667	9.86893E-003	-6.01231E-003	0.00000E+000	-5.93351E-005	-3.59960E-001	-1.13153E+000	3.57710E+000	10	...........
	53	0.72	4.51523E-003	-6.01386E-003	0.00000E+000	-2.71540E-005	-3.59960E-001	-1.12535E+000	3.57710E+000	10	...........
	54	0.726667	5.29452E-004	-6.01130E-003	0.00000E+000	-3.18270E-006	-3.59960E-001	-1.12768E+000	3.57710E+000	10	...........
STARTTIMEOFFSET	QUANT	1184.824	Start Time Offset (s)
