EXPLAIN
TAG	PWR800_DISCHARGE
TITLE	LABEL	PWR Cyclic Charge Discharge (Cell) - Discharge Step	Test &Identifier
DATE	LABEL	22-6-2017	Date
TIME	LABEL	16:03:32	Time
NOTES	NOTES	3	&Notes...
	supercap test cell
	0.6mg
	6M KOH
PSTAT	PSTAT	IFC5000-01520	Potentiostat
CAPACITY	QUANT	1.00000E-003	Capacity (A-hr)
CELLTYPE	SELECTOR	1	&Cell Type
WORKINGCONNECTION	SELECTOR	0	&Working Lead
MAXDISCHARGETIME	VARIABLEANDUNITS	1.00000E+002	s	1.00000E+002	second(s)	Max &Discharge Time
DISCHARGEMODE	MULTIPARAM	0	6.00000E-003	&Discharge Mode	Constant Current	Amp(s)
SAMPLETIME	QUANT	1.00000E-002	Sa&mple Period (s)
DISCHARGESTOPAT1	MULTIPARAM	3	0.00000E+000	Discharge Stop At &1	Voltage < Limit	V
DISCHARGESTOPAT2	MULTIPARAM	0	0.00000E+000	Discharge Stop At &2	None	N/A
AESBHCSELECTOR	TOGGLE	F	Save Both Half Cells
IRCOMP	TOGGLE	F	IR &Measure
EOC	QUANT	0	Open Circuit (V)
SEQUENCER	TOGGLE	TRUE	Run as Sequence
PSTATMODEL	IQUANT	53	Pstat Model
PSTATSECTION	LABEL	IFC5000-01520	Pstat Section
PSTATSERIALNO	LABEL	01520	Pstat Serial Number
CTRLMODE	IQUANT	0	Control Mode
ELECTROMETER	IQUANT	1	RE=0 or CS=1
IESTAB	IQUANT	0	I/E Stability
CASPEED	IQUANT	4	Control Amp Speed
CONVENTION	IQUANT	1	Current Convention
ICHRANGE	IQUANT	2	Ich Range
ICHRANGEMODE	TOGGLE	T	Ich Auto Range
ICHOFFSETENABLE	TOGGLE	F	Ich Offset Enable
ICHOFFSET	QUANT	0	Ich Offset (V)
ICHFILTER	IQUANT	1	Ich Filter
VCHRANGE	IQUANT	2	Vch Range
VCHRANGEMODE	TOGGLE	T	Vch Auto Range
VCHOFFSETENABLE	TOGGLE	F	Vch Offset Enable
VCHOFFSET	QUANT	0	Vch Offset (V)
VCHFILTER	IQUANT	1	Vch Filter
IERANGELOWERLIMIT	IQUANT	9	I/E Range Lower Limit
IERANGEMODE	TOGGLE	F	I/E AutoRange
IERANGE	IQUANT	10	I/E Range
ACHSELECT	IQUANT	1	Ach Select
ACHRANGE	IQUANT	2	Ach Range
ACHOFFSETENABLE	TOGGLE	F	Ach Offset Enable
ACHOFFSET	QUANT	0	Ach Offset (V)
ACHFILTER	IQUANT	1	Ach Filter
CABLEID	IQUANT	14	Cable ID
DCCALDATE	LABEL	20-10-2016	DC Calibration Date
ACCALDATE	LABEL	12/3/2015	AC Calibration Date
FRAMEWORKVERSION	QUANT	7.01	Framework Version
INSTRUMENTVERSION	LABEL	4.00	Instrument Version
CURVE	TABLE	55
	Pt	T	Vf	Im	Vu	Pwr	Sig	Ach	Temp	IERange	Over
	#	s	V	A	V	W	V	V	deg C	#	bits
	0	0.013333	3.85849E-001	-6.01128E-003	0.00000E+000	-2.31945E-003	-3.59960E-001	-1.12466E+000	3.57780E+000	10	...........
	1	0.026667	3.74540E-001	-6.01394E-003	0.00000E+000	-2.25246E-003	-3.59960E-001	-1.12653E+000	3.57780E+000	10	...........
	2	0.04	3.64044E-001	-6.01302E-003	0.00000E+000	-2.18901E-003	-3.59960E-001	-1.11857E+000	3.57780E+000	10	...........
	3	0.053333	3.54052E-001	-6.01550E-003	0.00000E+000	-2.12980E-003	-3.59960E-001	-1.12495E+000	3.57780E+000	10	...........
	4	0.066667	3.44463E-001	-6.01327E-003	0.00000E+000	-2.07135E-003	-3.59960E-001	-1.12672E+000	3.57780E+000	10	...........
	5	0.08	3.35152E-001	-6.01635E-003	0.00000E+000	-2.01639E-003	-3.59960E-001	-1.11834E+000	3.57780E+000	10	...........
	6	0.093333	3.26062E-001	-6.01795E-003	0.00000E+000	-1.96223E-003	-3.59960E-001	-1.12488E+000	3.57780E+000	10	...........
	7	0.106667	3.17169E-001	-6.00963E-003	0.00000E+000	-1.90607E-003	-3.59960E-001	-1.12643E+000	3.57780E+000	10	...........
	8	0.12	3.08382E-001	-6.01648E-003	0.00000E+000	-1.85537E-003	-3.59960E-001	-1.11867E+000	3.57780E+000	10	...........
	9	0.133333	2.99757E-001	-6.01522E-003	0.00000E+000	-1.80311E-003	-3.59960E-001	-1.12539E+000	3.57780E+000	10	...........
	10	0.146667	2.91308E-001	-6.01516E-003	0.00000E+000	-1.75226E-003	-3.59960E-001	-1.12668E+000	3.57780E+000	10	...........
	11	0.16	2.82983E-001	-6.01624E-003	0.00000E+000	-1.70249E-003	-3.59960E-001	-1.11870E+000	3.57780E+000	10	...........
	12	0.173333	2.74729E-001	-6.01682E-003	0.00000E+000	-1.65300E-003	-3.59960E-001	-1.12553E+000	3.57780E+000	10	...........
	13	0.186667	2.66605E-001	-6.01344E-003	0.00000E+000	-1.60322E-003	-3.59960E-001	-1.12695E+000	3.57780E+000	10	...........
	14	0.2	2.58589E-001	-6.02002E-003	0.00000E+000	-1.55671E-003	-3.59960E-001	-1.11908E+000	3.57780E+000	10	...........
	15	0.213333	2.50675E-001	-6.01429E-003	0.00000E+000	-1.50763E-003	-3.59960E-001	-1.12577E+000	3.57780E+000	10	...........
	16	0.226667	2.42858E-001	-6.01305E-003	0.00000E+000	-1.46032E-003	-3.59960E-001	-1.12668E+000	3.57780E+000	10	...........
	17	0.24	2.35133E-001	-6.00979E-003	0.00000E+000	-1.41310E-003	-3.59960E-001	-1.11904E+000	3.57780E+000	10	...........
	18	0.253333	2.27482E-001	-6.01204E-003	0.00000E+000	-1.36763E-003	-3.59960E-001	-1.12599E+000	3.57780E+000	10	...........
	19	0.266667	2.19969E-001	-6.01634E-003	0.00000E+000	-1.32341E-003	-3.59960E-001	-1.12689E+000	3.57780E+000	10	...........
	20	0.28	2.12506E-001	-6.01120E-003	0.00000E+000	-1.27742E-003	-3.59960E-001	-1.11927E+000	3.57780E+000	10	...........
	21	0.293333	2.05117E-001	-6.01477E-003	0.00000E+000	-1.23373E-003	-3.59960E-001	-1.12616E+000	3.57780E+000	10	...........
	22	0.306667	1.97821E-001	-6.01405E-003	0.00000E+000	-1.18971E-003	-3.59960E-001	-1.12697E+000	3.57780E+000	10	...........
	23	0.32	1.90605E-001	-6.01479E-003	0.00000E+000	-1.14645E-003	-3.59960E-001	-1.11947E+000	3.57780E+000	10	...........
	24	0.333333	1.83490E-001	-6.01221E-003	0.00000E+000	-1.10318E-003	-3.59960E-001	-1.12658E+000	3.57780E+000	10	...........
	25	0.346667	1.76455E-001	-6.01703E-003	0.00000E+000	-1.06174E-003	-3.59960E-001	-1.12723E+000	3.57780E+000	10	...........
	26	0.36	1.69490E-001	-6.01923E-003	0.00000E+000	-1.02020E-003	-3.59960E-001	-1.11961E+000	3.57780E+000	10	...........
	27	0.373333	1.62618E-001	-6.01787E-003	0.00000E+000	-9.78617E-004	-3.59960E-001	-1.12663E+000	3.57780E+000	10	...........
	28	0.386667	1.55829E-001	-6.01623E-003	0.00000E+000	-9.37505E-004	-3.59960E-001	-1.12718E+000	3.57780E+000	10	...........
	29	0.4	1.49089E-001	-6.01420E-003	0.00000E+000	-8.96652E-004	-3.59960E-001	-1.11943E+000	3.57780E+000	10	...........
	30	0.413333	1.42387E-001	-6.01453E-003	0.00000E+000	-8.56390E-004	-3.59960E-001	-1.12660E+000	3.57780E+000	10	...........
	31	0.426667	1.35841E-001	-6.01075E-003	0.00000E+000	-8.16503E-004	-3.59960E-001	-1.12705E+000	3.57780E+000	10	...........
	32	0.44	1.29283E-001	-6.01772E-003	0.00000E+000	-7.77987E-004	-3.59960E-001	-1.11947E+000	3.57780E+000	10	...........
	33	0.453333	1.22804E-001	-6.01575E-003	0.00000E+000	-7.38760E-004	-3.59960E-001	-1.12679E+000	3.57780E+000	10	...........
	34	0.466667	1.16413E-001	-6.01515E-003	0.00000E+000	-7.00243E-004	-3.59960E-001	-1.12695E+000	3.57780E+000	10	...........
	35	0.48	1.10083E-001	-6.01328E-003	0.00000E+000	-6.61960E-004	-3.59960E-001	-1.11971E+000	3.57780E+000	10	...........
	36	0.493333	1.03812E-001	-6.01317E-003	0.00000E+000	-6.24238E-004	-3.59960E-001	-1.12699E+000	3.57780E+000	10	...........
	37	0.506667	9.76175E-002	-6.01397E-003	0.00000E+000	-5.87069E-004	-3.59960E-001	-1.12709E+000	3.57780E+000	10	...........
	38	0.52	9.14582E-002	-6.01514E-003	0.00000E+000	-5.50134E-004	-3.59960E-001	-1.11986E+000	3.57780E+000	10	...........
	39	0.533333	8.53836E-002	-6.01393E-003	0.00000E+000	-5.13491E-004	-3.59960E-001	-1.12711E+000	3.57780E+000	10	...........
	40	0.546667	7.93352E-002	-6.01715E-003	0.00000E+000	-4.77372E-004	-3.59960E-001	-1.12692E+000	3.57780E+000	10	...........
	41	0.56	7.33515E-002	-6.01287E-003	0.00000E+000	-4.41053E-004	-3.59960E-001	-1.11966E+000	3.57780E+000	10	...........
	42	0.573333	6.74248E-002	-6.01797E-003	0.00000E+000	-4.05760E-004	-3.59960E-001	-1.12718E+000	3.57780E+000	10	...........
	43	0.586667	6.16020E-002	-6.01677E-003	0.00000E+000	-3.70645E-004	-3.59960E-001	-1.12688E+000	3.57780E+000	10	...........
	44	0.6	5.58123E-002	-6.01503E-003	0.00000E+000	-3.35713E-004	-3.59960E-001	-1.11999E+000	3.57780E+000	10	...........
	45	0.613333	5.01257E-002	-6.00847E-003	0.00000E+000	-3.01179E-004	-3.59960E-001	-1.12741E+000	3.57780E+000	10	...........
	46	0.626667	4.44190E-002	-6.01295E-003	0.00000E+000	-2.67089E-004	-3.59960E-001	-1.12711E+000	3.57780E+000	10	...........
	47	0.64	3.87514E-002	-6.01641E-003	0.00000E+000	-2.33145E-004	-3.59960E-001	-1.11989E+000	3.57780E+000	10	...........
	48	0.653333	3.31977E-002	-6.01169E-003	0.00000E+000	-1.99574E-004	-3.59960E-001	-1.12754E+000	3.57780E+000	10	...........
	49	0.666667	2.76699E-002	-6.01266E-003	0.00000E+000	-1.66370E-004	-3.59960E-001	-1.12717E+000	3.57780E+000	10	...........
	50	0.68	2.21714E-002	-6.01610E-003	0.00000E+000	-1.33386E-004	-3.59960E-001	-1.11990E+000	3.57780E+000	10	...........
	51	0.693333	1.67164E-002	-6.01211E-003	0.00000E+000	-1.00501E-004	-3.59960E-001	-1.12756E+000	3.57780E+000	10	...........
	52	0.706667	1.13576E-002	-6.01519E-003	0.00000E+000	-6.83180E-005	-3.59960E-001	-1.12685E+000	3.57780E+000	10	...........
	53	0.72	6.00026E-003	-6.01716E-003	0.00000E+000	-3.61045E-005	-3.59960E-001	-1.11983E+000	3.57780E+000	10	...........
	54	0.73	1.39239E-003	-6.01107E-003	0.00000E+000	-8.36974E-006	-3.59960E-001	-1.13296E+000	3.57780E+000	10	...........
STARTTIMEOFFSET	QUANT	1158.492	Start Time Offset (s)
