EXPLAIN
TAG	PWR800_DISCHARGE
TITLE	LABEL	PWR Cyclic Charge Discharge (Cell) - Discharge Step	Test &Identifier
DATE	LABEL	22-6-2017	Date
TIME	LABEL	15:37:20	Time
NOTES	NOTES	3	&Notes...
	supercap test cell
	0.6mg
	6M KOH
PSTAT	PSTAT	IFC5000-01520	Potentiostat
CAPACITY	QUANT	1.00000E-003	Capacity (A-hr)
CELLTYPE	SELECTOR	1	&Cell Type
WORKINGCONNECTION	SELECTOR	0	&Working Lead
MAXDISCHARGETIME	VARIABLEANDUNITS	1.00000E+002	s	1.00000E+002	second(s)	Max &Discharge Time
DISCHARGEMODE	MULTIPARAM	0	6.00000E-003	&Discharge Mode	Constant Current	Amp(s)
SAMPLETIME	QUANT	1.00000E-002	Sa&mple Period (s)
DISCHARGESTOPAT1	MULTIPARAM	3	0.00000E+000	Discharge Stop At &1	Voltage < Limit	V
DISCHARGESTOPAT2	MULTIPARAM	0	0.00000E+000	Discharge Stop At &2	None	N/A
AESBHCSELECTOR	TOGGLE	F	Save Both Half Cells
IRCOMP	TOGGLE	F	IR &Measure
EOC	QUANT	0	Open Circuit (V)
SEQUENCER	TOGGLE	TRUE	Run as Sequence
PSTATMODEL	IQUANT	53	Pstat Model
PSTATSECTION	LABEL	IFC5000-01520	Pstat Section
PSTATSERIALNO	LABEL	01520	Pstat Serial Number
CTRLMODE	IQUANT	0	Control Mode
ELECTROMETER	IQUANT	1	RE=0 or CS=1
IESTAB	IQUANT	0	I/E Stability
CASPEED	IQUANT	4	Control Amp Speed
CONVENTION	IQUANT	1	Current Convention
ICHRANGE	IQUANT	2	Ich Range
ICHRANGEMODE	TOGGLE	T	Ich Auto Range
ICHOFFSETENABLE	TOGGLE	F	Ich Offset Enable
ICHOFFSET	QUANT	0	Ich Offset (V)
ICHFILTER	IQUANT	1	Ich Filter
VCHRANGE	IQUANT	2	Vch Range
VCHRANGEMODE	TOGGLE	T	Vch Auto Range
VCHOFFSETENABLE	TOGGLE	F	Vch Offset Enable
VCHOFFSET	QUANT	0	Vch Offset (V)
VCHFILTER	IQUANT	1	Vch Filter
IERANGELOWERLIMIT	IQUANT	9	I/E Range Lower Limit
IERANGEMODE	TOGGLE	F	I/E AutoRange
IERANGE	IQUANT	10	I/E Range
ACHSELECT	IQUANT	1	Ach Select
ACHRANGE	IQUANT	2	Ach Range
ACHOFFSETENABLE	TOGGLE	F	Ach Offset Enable
ACHOFFSET	QUANT	0	Ach Offset (V)
ACHFILTER	IQUANT	1	Ach Filter
CABLEID	IQUANT	14	Cable ID
DCCALDATE	LABEL	20-10-2016	DC Calibration Date
ACCALDATE	LABEL	12/3/2015	AC Calibration Date
FRAMEWORKVERSION	QUANT	7.01	Framework Version
INSTRUMENTVERSION	LABEL	4.00	Instrument Version
CURVE	TABLE	73
	Pt	T	Vf	Im	Vu	Pwr	Sig	Ach	Temp	IERange	Over
	#	s	V	A	V	W	V	V	deg C	#	bits
	0	0.013333	4.38049E-001	-6.01564E-003	0.00000E+000	-2.63514E-003	-3.59960E-001	-1.00102E+000	3.57720E+000	10	...........
	1	0.026667	4.28094E-001	-6.01321E-003	0.00000E+000	-2.57422E-003	-3.59960E-001	-1.00586E+000	3.57720E+000	10	...........
	2	0.04	4.18811E-001	-6.01327E-003	0.00000E+000	-2.51842E-003	-3.59960E-001	-1.01133E+000	3.57720E+000	10	...........
	3	0.053333	4.10017E-001	-6.01469E-003	0.00000E+000	-2.46613E-003	-3.59960E-001	-1.00109E+000	3.57720E+000	10	...........
	4	0.066667	4.01571E-001	-6.01350E-003	0.00000E+000	-2.41485E-003	-3.59960E-001	-1.00605E+000	3.57720E+000	10	...........
	5	0.08	3.93378E-001	-6.01221E-003	0.00000E+000	-2.36507E-003	-3.59960E-001	-1.01174E+000	3.57720E+000	10	...........
	6	0.093333	3.85366E-001	-6.01368E-003	0.00000E+000	-2.31747E-003	-3.59960E-001	-1.00152E+000	3.57720E+000	10	...........
	7	0.106667	3.77526E-001	-6.01696E-003	0.00000E+000	-2.27156E-003	-3.59960E-001	-1.00653E+000	3.57720E+000	10	...........
	8	0.12	3.69838E-001	-6.01316E-003	0.00000E+000	-2.22389E-003	-3.59960E-001	-1.01168E+000	3.57720E+000	10	...........
	9	0.133333	3.62242E-001	-6.01585E-003	0.00000E+000	-2.17919E-003	-3.59960E-001	-1.00174E+000	3.57720E+000	10	...........
	10	0.146667	3.54779E-001	-6.01384E-003	0.00000E+000	-2.13358E-003	-3.59960E-001	-1.00682E+000	3.57720E+000	10	...........
	11	0.16	3.47401E-001	-6.01450E-003	0.00000E+000	-2.08944E-003	-3.59960E-001	-1.01234E+000	3.57720E+000	10	...........
	12	0.173333	3.40088E-001	-6.01509E-003	0.00000E+000	-2.04566E-003	-3.59960E-001	-1.00213E+000	3.57720E+000	10	...........
	13	0.186667	3.32961E-001	-6.01654E-003	0.00000E+000	-2.00328E-003	-3.59960E-001	-1.00702E+000	3.57720E+000	10	...........
	14	0.2	3.25918E-001	-6.01379E-003	0.00000E+000	-1.96000E-003	-3.59960E-001	-1.01226E+000	3.57720E+000	10	...........
	15	0.213333	3.18912E-001	-6.01479E-003	0.00000E+000	-1.91819E-003	-3.59960E-001	-1.00217E+000	3.57720E+000	10	...........
	16	0.226667	3.11944E-001	-6.01818E-003	0.00000E+000	-1.87733E-003	-3.59960E-001	-1.00725E+000	3.57720E+000	10	...........
	17	0.24	3.05124E-001	-6.01770E-003	0.00000E+000	-1.83614E-003	-3.59960E-001	-1.01253E+000	3.57720E+000	10	...........
	18	0.253333	2.98344E-001	-6.01754E-003	0.00000E+000	-1.79529E-003	-3.59960E-001	-1.00184E+000	3.57720E+000	10	...........
	19	0.266667	2.91579E-001	-6.01470E-003	0.00000E+000	-1.75376E-003	-3.59960E-001	-1.00669E+000	3.57720E+000	10	...........
	20	0.28	2.84932E-001	-6.01343E-003	0.00000E+000	-1.71342E-003	-3.59960E-001	-1.01227E+000	3.57720E+000	10	...........
	21	0.293333	2.78341E-001	-6.01710E-003	0.00000E+000	-1.67481E-003	-3.59960E-001	-1.00226E+000	3.57720E+000	10	...........
	22	0.306667	2.71825E-001	-6.01763E-003	0.00000E+000	-1.63574E-003	-3.59960E-001	-1.00711E+000	3.57720E+000	10	...........
	23	0.32	2.65341E-001	-6.01598E-003	0.00000E+000	-1.59628E-003	-3.59960E-001	-1.01227E+000	3.57720E+000	10	...........
	24	0.333333	2.58918E-001	-6.01594E-003	0.00000E+000	-1.55764E-003	-3.59960E-001	-1.00209E+000	3.57720E+000	10	...........
	25	0.346667	2.52524E-001	-6.01554E-003	0.00000E+000	-1.51907E-003	-3.59960E-001	-1.00725E+000	3.57720E+000	10	...........
	26	0.36	2.46212E-001	-6.01528E-003	0.00000E+000	-1.48104E-003	-3.59960E-001	-1.01264E+000	3.57720E+000	10	...........
	27	0.373333	2.39965E-001	-6.01546E-003	0.00000E+000	-1.44350E-003	-3.59960E-001	-1.00231E+000	3.57720E+000	10	...........
	28	0.386667	2.33768E-001	-6.01460E-003	0.00000E+000	-1.40602E-003	-3.59960E-001	-1.00726E+000	3.57720E+000	10	...........
	29	0.4	2.27601E-001	-6.01316E-003	0.00000E+000	-1.36860E-003	-3.59960E-001	-1.01282E+000	3.57720E+000	10	...........
	30	0.413333	2.21484E-001	-6.01564E-003	0.00000E+000	-1.33237E-003	-3.59960E-001	-1.00260E+000	3.57720E+000	10	...........
	31	0.426667	2.15421E-001	-6.01593E-003	0.00000E+000	-1.29596E-003	-3.59960E-001	-1.00740E+000	3.57720E+000	10	...........
	32	0.44	2.09392E-001	-6.01546E-003	0.00000E+000	-1.25959E-003	-3.59960E-001	-1.01298E+000	3.57720E+000	10	...........
	33	0.453333	2.03442E-001	-6.01396E-003	0.00000E+000	-1.22349E-003	-3.59960E-001	-1.00263E+000	3.57720E+000	10	...........
	34	0.466667	1.97544E-001	-6.01348E-003	0.00000E+000	-1.18793E-003	-3.59960E-001	-1.00767E+000	3.57720E+000	10	...........
	35	0.48	1.91671E-001	-6.01846E-003	0.00000E+000	-1.15356E-003	-3.59960E-001	-1.01328E+000	3.57720E+000	10	...........
	36	0.493333	1.85812E-001	-6.01827E-003	0.00000E+000	-1.11827E-003	-3.59960E-001	-1.00320E+000	3.57720E+000	10	...........
	37	0.506667	1.80042E-001	-6.01493E-003	0.00000E+000	-1.08294E-003	-3.59960E-001	-1.00782E+000	3.57720E+000	10	...........
	38	0.52	1.74249E-001	-6.01652E-003	0.00000E+000	-1.04837E-003	-3.59960E-001	-1.01321E+000	3.57720E+000	10	...........
	39	0.533333	1.68535E-001	-6.01420E-003	0.00000E+000	-1.01361E-003	-3.59960E-001	-1.00294E+000	3.57720E+000	10	...........
	40	0.546667	1.62868E-001	-6.01351E-003	0.00000E+000	-9.79409E-004	-3.59960E-001	-1.00786E+000	3.57720E+000	10	...........
	41	0.56	1.57250E-001	-6.01156E-003	0.00000E+000	-9.45320E-004	-3.59960E-001	-1.01355E+000	3.57720E+000	10	...........
	42	0.573333	1.51673E-001	-6.01663E-003	0.00000E+000	-9.12559E-004	-3.59960E-001	-1.00273E+000	3.57720E+000	10	...........
	43	0.586667	1.46107E-001	-6.01877E-003	0.00000E+000	-8.79385E-004	-3.59960E-001	-1.00752E+000	3.57720E+000	10	...........
	44	0.6	1.40596E-001	-6.01583E-003	0.00000E+000	-8.45800E-004	-3.59960E-001	-1.01307E+000	3.57720E+000	10	...........
	45	0.613333	1.35112E-001	-6.01781E-003	0.00000E+000	-8.13077E-004	-3.59960E-001	-1.00283E+000	3.57720E+000	10	...........
	46	0.626667	1.29665E-001	-6.01163E-003	0.00000E+000	-7.79498E-004	-3.59960E-001	-1.00770E+000	3.57720E+000	10	...........
	47	0.64	1.24252E-001	-6.01363E-003	0.00000E+000	-7.47207E-004	-3.59960E-001	-1.01313E+000	3.57720E+000	10	...........
	48	0.653333	1.18871E-001	-6.01425E-003	0.00000E+000	-7.14919E-004	-3.59960E-001	-1.00303E+000	3.57847E+000	10	...........
	49	0.666667	1.13526E-001	-6.01735E-003	0.00000E+000	-6.83126E-004	-3.59960E-001	-1.00759E+000	3.57850E+000	10	...........
	50	0.68	1.08230E-001	-6.01263E-003	0.00000E+000	-6.50749E-004	-3.59960E-001	-1.01343E+000	3.57850E+000	10	...........
	51	0.693333	1.02932E-001	-6.01489E-003	0.00000E+000	-6.19126E-004	-3.59960E-001	-1.00318E+000	3.57850E+000	10	...........
	52	0.706667	9.76826E-002	-6.01673E-003	0.00000E+000	-5.87729E-004	-3.59960E-001	-1.00784E+000	3.57850E+000	10	...........
	53	0.72	9.24452E-002	-6.01342E-003	0.00000E+000	-5.55912E-004	-3.59960E-001	-1.01331E+000	3.57850E+000	10	...........
	54	0.733333	8.72883E-002	-6.01577E-003	0.00000E+000	-5.25106E-004	-3.59960E-001	-1.00299E+000	3.57850E+000	10	...........
	55	0.746667	8.21291E-002	-6.01168E-003	0.00000E+000	-4.93734E-004	-3.59960E-001	-1.00784E+000	3.57850E+000	10	...........
	56	0.76	7.70390E-002	-6.01612E-003	0.00000E+000	-4.63476E-004	-3.59960E-001	-1.01378E+000	3.57850E+000	10	...........
	57	0.773333	7.19437E-002	-6.01239E-003	0.00000E+000	-4.32553E-004	-3.59960E-001	-1.00323E+000	3.57850E+000	10	...........
	58	0.786667	6.68794E-002	-6.01289E-003	0.00000E+000	-4.02138E-004	-3.59960E-001	-1.00781E+000	3.57850E+000	10	...........
	59	0.8	6.18654E-002	-6.01279E-003	0.00000E+000	-3.71984E-004	-3.59960E-001	-1.01393E+000	3.57850E+000	10	...........
	60	0.813333	5.68791E-002	-6.01652E-003	0.00000E+000	-3.42214E-004	-3.59960E-001	-1.00344E+000	3.57850E+000	10	...........
	61	0.826667	5.19267E-002	-6.01682E-003	0.00000E+000	-3.12434E-004	-3.59960E-001	-1.00822E+000	3.57850E+000	10	...........
	62	0.84	4.70499E-002	-6.01557E-003	0.00000E+000	-2.83032E-004	-3.59960E-001	-1.01406E+000	3.57850E+000	10	...........
	63	0.853333	4.21417E-002	-6.01634E-003	0.00000E+000	-2.53539E-004	-3.59960E-001	-1.00342E+000	3.57850E+000	10	...........
	64	0.866667	3.72712E-002	-6.01622E-003	0.00000E+000	-2.24231E-004	-3.59960E-001	-1.00804E+000	3.57850E+000	10	...........
	65	0.88	3.24335E-002	-6.01465E-003	0.00000E+000	-1.95076E-004	-3.59960E-001	-1.01412E+000	3.57850E+000	10	...........
	66	0.893333	2.75976E-002	-6.01671E-003	0.00000E+000	-1.66047E-004	-3.59960E-001	-1.00365E+000	3.57850E+000	10	...........
	67	0.906667	2.28306E-002	-6.01187E-003	0.00000E+000	-1.37255E-004	-3.59960E-001	-1.00807E+000	3.57850E+000	10	...........
	68	0.92	1.80509E-002	-6.01871E-003	0.00000E+000	-1.08643E-004	-3.59960E-001	-1.01381E+000	3.57850E+000	10	...........
	69	0.933333	1.33343E-002	-6.01287E-003	0.00000E+000	-8.01775E-005	-3.59960E-001	-1.00333E+000	3.57850E+000	10	...........
	70	0.946667	8.64597E-003	-6.01629E-003	0.00000E+000	-5.20167E-005	-3.59960E-001	-1.00813E+000	3.57850E+000	10	...........
	71	0.96	3.97009E-003	-6.01252E-003	0.00000E+000	-2.38703E-005	-3.59960E-001	-1.01401E+000	3.57850E+000	10	...........
	72	0.96667	4.79647E-004	-6.02129E-003	0.00000E+000	-2.88810E-006	-3.59960E-001	-9.97528E-001	3.57850E+000	10	...........
STARTTIMEOFFSET	QUANT	103.48	Start Time Offset (s)
