EXPLAIN
TAG	PWR800_DISCHARGE
TITLE	LABEL	PWR Cyclic Charge Discharge (Cell) - Discharge Step	Test &Identifier
DATE	LABEL	22-6-2017	Date
TIME	LABEL	16:11:13	Time
NOTES	NOTES	3	&Notes...
	supercap test cell
	0.6mg
	6M KOH
PSTAT	PSTAT	IFC5000-01520	Potentiostat
CAPACITY	QUANT	1.00000E-003	Capacity (A-hr)
CELLTYPE	SELECTOR	1	&Cell Type
WORKINGCONNECTION	SELECTOR	0	&Working Lead
MAXDISCHARGETIME	VARIABLEANDUNITS	1.00000E+002	s	1.00000E+002	second(s)	Max &Discharge Time
DISCHARGEMODE	MULTIPARAM	0	6.00000E-003	&Discharge Mode	Constant Current	Amp(s)
SAMPLETIME	QUANT	1.00000E-002	Sa&mple Period (s)
DISCHARGESTOPAT1	MULTIPARAM	3	0.00000E+000	Discharge Stop At &1	Voltage < Limit	V
DISCHARGESTOPAT2	MULTIPARAM	0	0.00000E+000	Discharge Stop At &2	None	N/A
AESBHCSELECTOR	TOGGLE	F	Save Both Half Cells
IRCOMP	TOGGLE	F	IR &Measure
EOC	QUANT	0	Open Circuit (V)
SEQUENCER	TOGGLE	TRUE	Run as Sequence
PSTATMODEL	IQUANT	53	Pstat Model
PSTATSECTION	LABEL	IFC5000-01520	Pstat Section
PSTATSERIALNO	LABEL	01520	Pstat Serial Number
CTRLMODE	IQUANT	0	Control Mode
ELECTROMETER	IQUANT	1	RE=0 or CS=1
IESTAB	IQUANT	0	I/E Stability
CASPEED	IQUANT	4	Control Amp Speed
CONVENTION	IQUANT	1	Current Convention
ICHRANGE	IQUANT	2	Ich Range
ICHRANGEMODE	TOGGLE	T	Ich Auto Range
ICHOFFSETENABLE	TOGGLE	F	Ich Offset Enable
ICHOFFSET	QUANT	0	Ich Offset (V)
ICHFILTER	IQUANT	1	Ich Filter
VCHRANGE	IQUANT	2	Vch Range
VCHRANGEMODE	TOGGLE	T	Vch Auto Range
VCHOFFSETENABLE	TOGGLE	F	Vch Offset Enable
VCHOFFSET	QUANT	0	Vch Offset (V)
VCHFILTER	IQUANT	1	Vch Filter
IERANGELOWERLIMIT	IQUANT	9	I/E Range Lower Limit
IERANGEMODE	TOGGLE	F	I/E AutoRange
IERANGE	IQUANT	10	I/E Range
ACHSELECT	IQUANT	1	Ach Select
ACHRANGE	IQUANT	2	Ach Range
ACHOFFSETENABLE	TOGGLE	F	Ach Offset Enable
ACHOFFSET	QUANT	0	Ach Offset (V)
ACHFILTER	IQUANT	1	Ach Filter
CABLEID	IQUANT	14	Cable ID
DCCALDATE	LABEL	20-10-2016	DC Calibration Date
ACCALDATE	LABEL	12/3/2015	AC Calibration Date
FRAMEWORKVERSION	QUANT	7.01	Framework Version
INSTRUMENTVERSION	LABEL	4.00	Instrument Version
CURVE	TABLE	53
	Pt	T	Vf	Im	Vu	Pwr	Sig	Ach	Temp	IERange	Over
	#	s	V	A	V	W	V	V	deg C	#	bits
	0	0.013333	3.77036E-001	-6.01456E-003	0.00000E+000	-2.26770E-003	-3.59960E-001	-1.12971E+000	3.57670E+000	10	...........
	1	0.026667	3.65644E-001	-6.01656E-003	0.00000E+000	-2.19992E-003	-3.59960E-001	-1.13460E+000	3.57670E+000	10	...........
	2	0.04	3.55039E-001	-6.01054E-003	0.00000E+000	-2.13398E-003	-3.59960E-001	-1.13863E+000	3.57670E+000	10	...........
	3	0.053333	3.44871E-001	-6.01242E-003	0.00000E+000	-2.07351E-003	-3.59960E-001	-1.12979E+000	3.57670E+000	10	...........
	4	0.066667	3.35122E-001	-6.01291E-003	0.00000E+000	-2.01506E-003	-3.59960E-001	-1.13471E+000	3.57670E+000	10	...........
	5	0.08	3.25659E-001	-6.01215E-003	0.00000E+000	-1.95791E-003	-3.59960E-001	-1.13900E+000	3.57670E+000	10	...........
	6	0.093333	3.16407E-001	-6.01118E-003	0.00000E+000	-1.90198E-003	-3.59960E-001	-1.13022E+000	3.57670E+000	10	...........
	7	0.106667	3.07324E-001	-6.01937E-003	0.00000E+000	-1.84990E-003	-3.59960E-001	-1.13486E+000	3.57670E+000	10	...........
	8	0.12	2.98444E-001	-6.01339E-003	0.00000E+000	-1.79466E-003	-3.59960E-001	-1.13918E+000	3.57670E+000	10	...........
	9	0.133333	2.89652E-001	-6.01387E-003	0.00000E+000	-1.74193E-003	-3.59960E-001	-1.13041E+000	3.57670E+000	10	...........
	10	0.146667	2.81041E-001	-6.01661E-003	0.00000E+000	-1.69092E-003	-3.59960E-001	-1.13535E+000	3.57670E+000	10	...........
	11	0.16	2.72532E-001	-6.01099E-003	0.00000E+000	-1.63818E-003	-3.59960E-001	-1.13942E+000	3.57670E+000	10	...........
	12	0.173333	2.64096E-001	-6.01322E-003	0.00000E+000	-1.58807E-003	-3.59960E-001	-1.13043E+000	3.57670E+000	10	...........
	13	0.186667	2.55838E-001	-6.01385E-003	0.00000E+000	-1.53857E-003	-3.59960E-001	-1.13526E+000	3.57670E+000	10	...........
	14	0.2	2.47649E-001	-6.01673E-003	0.00000E+000	-1.49003E-003	-3.59960E-001	-1.13942E+000	3.57670E+000	10	...........
	15	0.213333	2.39573E-001	-6.01784E-003	0.00000E+000	-1.44171E-003	-3.59960E-001	-1.13062E+000	3.57670E+000	10	...........
	16	0.226667	2.31639E-001	-6.01350E-003	0.00000E+000	-1.39296E-003	-3.59960E-001	-1.13559E+000	3.57670E+000	10	...........
	17	0.24	2.23768E-001	-6.01514E-003	0.00000E+000	-1.34600E-003	-3.59960E-001	-1.13930E+000	3.57670E+000	10	...........
	18	0.253333	2.15998E-001	-6.01716E-003	0.00000E+000	-1.29969E-003	-3.59960E-001	-1.13037E+000	3.57670E+000	10	...........
	19	0.266667	2.08313E-001	-6.02068E-003	0.00000E+000	-1.25419E-003	-3.59960E-001	-1.13542E+000	3.57670E+000	10	...........
	20	0.28	2.00753E-001	-6.01102E-003	0.00000E+000	-1.20673E-003	-3.59960E-001	-1.13950E+000	3.57670E+000	10	...........
	21	0.293333	1.93275E-001	-6.01247E-003	0.00000E+000	-1.16206E-003	-3.59960E-001	-1.13074E+000	3.57670E+000	10	...........
	22	0.306667	1.85866E-001	-6.01186E-003	0.00000E+000	-1.11740E-003	-3.59960E-001	-1.13566E+000	3.57670E+000	10	...........
	23	0.32	1.78595E-001	-6.01129E-003	0.00000E+000	-1.07358E-003	-3.59960E-001	-1.13966E+000	3.57670E+000	10	...........
	24	0.333333	1.71376E-001	-6.01325E-003	0.00000E+000	-1.03053E-003	-3.59960E-001	-1.13071E+000	3.57670E+000	10	...........
	25	0.346667	1.64253E-001	-6.01751E-003	0.00000E+000	-9.88396E-004	-3.59960E-001	-1.13590E+000	3.57670E+000	10	...........
	26	0.36	1.57198E-001	-6.01509E-003	0.00000E+000	-9.45558E-004	-3.59960E-001	-1.13986E+000	3.57670E+000	10	...........
	27	0.373333	1.50228E-001	-6.01311E-003	0.00000E+000	-9.03335E-004	-3.59960E-001	-1.13125E+000	3.57670E+000	10	...........
	28	0.386667	1.43364E-001	-6.01373E-003	0.00000E+000	-8.62155E-004	-3.59960E-001	-1.13595E+000	3.57670E+000	10	...........
	29	0.4	1.36516E-001	-6.01836E-003	0.00000E+000	-8.21601E-004	-3.59960E-001	-1.13995E+000	3.57670E+000	10	...........
	30	0.413333	1.29738E-001	-6.01671E-003	0.00000E+000	-7.80592E-004	-3.59960E-001	-1.13134E+000	3.57670E+000	10	...........
	31	0.426667	1.23066E-001	-6.01585E-003	0.00000E+000	-7.40348E-004	-3.59960E-001	-1.13655E+000	3.57670E+000	10	...........
	32	0.44	1.16462E-001	-6.01143E-003	0.00000E+000	-7.00102E-004	-3.59960E-001	-1.14015E+000	3.57670E+000	10	...........
	33	0.453333	1.09894E-001	-6.01315E-003	0.00000E+000	-6.60808E-004	-3.59960E-001	-1.13134E+000	3.57650E+000	10	...........
	34	0.466667	1.03458E-001	-6.01634E-003	0.00000E+000	-6.22441E-004	-3.59960E-001	-1.13625E+000	3.57630E+000	10	...........
	35	0.48	9.71079E-002	-6.01828E-003	0.00000E+000	-5.84423E-004	-3.59960E-001	-1.14036E+000	3.57630E+000	10	...........
	36	0.493333	9.07548E-002	-6.01932E-003	0.00000E+000	-5.46282E-004	-3.59960E-001	-1.13163E+000	3.57630E+000	10	...........
	37	0.506667	8.44679E-002	-6.01808E-003	0.00000E+000	-5.08335E-004	-3.59960E-001	-1.13679E+000	3.57630E+000	10	...........
	38	0.52	7.82860E-002	-6.01634E-003	0.00000E+000	-4.70995E-004	-3.59960E-001	-1.14043E+000	3.57630E+000	10	...........
	39	0.533333	7.21291E-002	-6.01226E-003	0.00000E+000	-4.33659E-004	-3.59960E-001	-1.13162E+000	3.57630E+000	10	...........
	40	0.546667	6.60644E-002	-6.01173E-003	0.00000E+000	-3.97161E-004	-3.59960E-001	-1.13647E+000	3.57630E+000	10	...........
	41	0.56	6.00700E-002	-6.01769E-003	0.00000E+000	-3.61482E-004	-3.59960E-001	-1.14030E+000	3.57630E+000	10	...........
	42	0.573333	5.41098E-002	-6.01679E-003	0.00000E+000	-3.25567E-004	-3.59960E-001	-1.13149E+000	3.57630E+000	10	...........
	43	0.586667	4.82067E-002	-6.01196E-003	0.00000E+000	-2.89817E-004	-3.59960E-001	-1.13643E+000	3.57630E+000	10	...........
	44	0.6	4.23701E-002	-6.01350E-003	0.00000E+000	-2.54793E-004	-3.59960E-001	-1.14020E+000	3.57630E+000	10	...........
	45	0.613333	3.66123E-002	-6.01097E-003	0.00000E+000	-2.20076E-004	-3.59960E-001	-1.13174E+000	3.57630E+000	10	...........
	46	0.626667	3.08779E-002	-6.01510E-003	0.00000E+000	-1.85733E-004	-3.59960E-001	-1.13675E+000	3.57630E+000	10	...........
	47	0.64	2.52337E-002	-6.01475E-003	0.00000E+000	-1.51774E-004	-3.59960E-001	-1.14050E+000	3.57630E+000	10	...........
	48	0.653333	1.96453E-002	-6.01439E-003	0.00000E+000	-1.18154E-004	-3.59960E-001	-1.13154E+000	3.57630E+000	10	...........
	49	0.666667	1.40961E-002	-6.01610E-003	0.00000E+000	-8.48034E-005	-3.59960E-001	-1.13650E+000	3.57630E+000	10	...........
	50	0.68	8.57319E-003	-6.01367E-003	0.00000E+000	-5.15564E-005	-3.59960E-001	-1.14039E+000	3.57630E+000	10	...........
	51	0.693333	3.14858E-003	-6.01897E-003	0.00000E+000	-1.89512E-005	-3.59960E-001	-1.13171E+000	3.57630E+000	10	...........
	52	0.696667	-2.21626E-004	-6.02159E-003	0.00000E+000	1.33454E-006	-3.59960E-001	-1.14675E+000	3.57630E+000	10	...........
STARTTIMEOFFSET	QUANT	1455.191	Start Time Offset (s)
