EXPLAIN
TAG	PWR800_DISCHARGE
TITLE	LABEL	PWR Cyclic Charge Discharge (Cell) - Discharge Step	Test &Identifier
DATE	LABEL	22-6-2017	Date
TIME	LABEL	15:44:19	Time
NOTES	NOTES	3	&Notes...
	supercap test cell
	0.6mg
	6M KOH
PSTAT	PSTAT	IFC5000-01520	Potentiostat
CAPACITY	QUANT	1.00000E-003	Capacity (A-hr)
CELLTYPE	SELECTOR	1	&Cell Type
WORKINGCONNECTION	SELECTOR	0	&Working Lead
MAXDISCHARGETIME	VARIABLEANDUNITS	1.00000E+002	s	1.00000E+002	second(s)	Max &Discharge Time
DISCHARGEMODE	MULTIPARAM	0	6.00000E-003	&Discharge Mode	Constant Current	Amp(s)
SAMPLETIME	QUANT	1.00000E-002	Sa&mple Period (s)
DISCHARGESTOPAT1	MULTIPARAM	3	0.00000E+000	Discharge Stop At &1	Voltage < Limit	V
DISCHARGESTOPAT2	MULTIPARAM	0	0.00000E+000	Discharge Stop At &2	None	N/A
AESBHCSELECTOR	TOGGLE	F	Save Both Half Cells
IRCOMP	TOGGLE	F	IR &Measure
EOC	QUANT	0	Open Circuit (V)
SEQUENCER	TOGGLE	TRUE	Run as Sequence
PSTATMODEL	IQUANT	53	Pstat Model
PSTATSECTION	LABEL	IFC5000-01520	Pstat Section
PSTATSERIALNO	LABEL	01520	Pstat Serial Number
CTRLMODE	IQUANT	0	Control Mode
ELECTROMETER	IQUANT	1	RE=0 or CS=1
IESTAB	IQUANT	0	I/E Stability
CASPEED	IQUANT	4	Control Amp Speed
CONVENTION	IQUANT	1	Current Convention
ICHRANGE	IQUANT	2	Ich Range
ICHRANGEMODE	TOGGLE	T	Ich Auto Range
ICHOFFSETENABLE	TOGGLE	F	Ich Offset Enable
ICHOFFSET	QUANT	0	Ich Offset (V)
ICHFILTER	IQUANT	1	Ich Filter
VCHRANGE	IQUANT	2	Vch Range
VCHRANGEMODE	TOGGLE	T	Vch Auto Range
VCHOFFSETENABLE	TOGGLE	F	Vch Offset Enable
VCHOFFSET	QUANT	0	Vch Offset (V)
VCHFILTER	IQUANT	1	Vch Filter
IERANGELOWERLIMIT	IQUANT	9	I/E Range Lower Limit
IERANGEMODE	TOGGLE	F	I/E AutoRange
IERANGE	IQUANT	10	I/E Range
ACHSELECT	IQUANT	1	Ach Select
ACHRANGE	IQUANT	2	Ach Range
ACHOFFSETENABLE	TOGGLE	F	Ach Offset Enable
ACHOFFSET	QUANT	0	Ach Offset (V)
ACHFILTER	IQUANT	1	Ach Filter
CABLEID	IQUANT	14	Cable ID
DCCALDATE	LABEL	20-10-2016	DC Calibration Date
ACCALDATE	LABEL	12/3/2015	AC Calibration Date
FRAMEWORKVERSION	QUANT	7.01	Framework Version
INSTRUMENTVERSION	LABEL	4.00	Instrument Version
CURVE	TABLE	64
	Pt	T	Vf	Im	Vu	Pwr	Sig	Ach	Temp	IERange	Over
	#	s	V	A	V	W	V	V	deg C	#	bits
	0	0.013333	4.11282E-001	-6.01579E-003	0.00000E+000	-2.47418E-003	-3.59960E-001	-1.05575E+000	3.57730E+000	10	...........
	1	0.026667	4.00981E-001	-6.01166E-003	0.00000E+000	-2.41056E-003	-3.59960E-001	-1.05479E+000	3.57730E+000	10	...........
	2	0.04	3.91305E-001	-6.01525E-003	0.00000E+000	-2.35379E-003	-3.59960E-001	-1.06463E+000	3.57730E+000	10	...........
	3	0.053333	3.82089E-001	-6.01260E-003	0.00000E+000	-2.29735E-003	-3.59960E-001	-1.05610E+000	3.57730E+000	10	...........
	4	0.066667	3.73206E-001	-6.01634E-003	0.00000E+000	-2.24534E-003	-3.59960E-001	-1.05510E+000	3.57730E+000	10	...........
	5	0.08	3.64573E-001	-6.01334E-003	0.00000E+000	-2.19230E-003	-3.59960E-001	-1.06493E+000	3.57730E+000	10	...........
	6	0.093333	3.56099E-001	-6.01592E-003	0.00000E+000	-2.14226E-003	-3.59960E-001	-1.05627E+000	3.57730E+000	10	...........
	7	0.106667	3.47806E-001	-6.01334E-003	0.00000E+000	-2.09148E-003	-3.59960E-001	-1.05496E+000	3.57730E+000	10	...........
	8	0.12	3.39693E-001	-6.01677E-003	0.00000E+000	-2.04385E-003	-3.59960E-001	-1.06516E+000	3.57730E+000	10	...........
	9	0.133333	3.31660E-001	-6.01391E-003	0.00000E+000	-1.99457E-003	-3.59960E-001	-1.05680E+000	3.57730E+000	10	...........
	10	0.146667	3.23761E-001	-6.01556E-003	0.00000E+000	-1.94760E-003	-3.59960E-001	-1.05519E+000	3.57730E+000	10	...........
	11	0.16	3.15943E-001	-6.01329E-003	0.00000E+000	-1.89986E-003	-3.59960E-001	-1.06537E+000	3.57730E+000	10	...........
	12	0.173333	3.08215E-001	-6.01782E-003	0.00000E+000	-1.85478E-003	-3.59960E-001	-1.05683E+000	3.57730E+000	10	...........
	13	0.186667	3.00644E-001	-6.01408E-003	0.00000E+000	-1.80810E-003	-3.59960E-001	-1.05567E+000	3.57730E+000	10	...........
	14	0.2	2.93134E-001	-6.01750E-003	0.00000E+000	-1.76393E-003	-3.59960E-001	-1.06567E+000	3.57730E+000	10	...........
	15	0.213333	2.85731E-001	-6.01313E-003	0.00000E+000	-1.71814E-003	-3.59960E-001	-1.05720E+000	3.57730E+000	10	...........
	16	0.226667	2.78382E-001	-6.01244E-003	0.00000E+000	-1.67376E-003	-3.59960E-001	-1.05570E+000	3.57730E+000	10	...........
	17	0.24	2.71145E-001	-6.01122E-003	0.00000E+000	-1.62991E-003	-3.59960E-001	-1.06567E+000	3.57730E+000	10	...........
	18	0.253333	2.64001E-001	-6.01413E-003	0.00000E+000	-1.58773E-003	-3.59960E-001	-1.05741E+000	3.57730E+000	10	...........
	19	0.266667	2.56900E-001	-6.01543E-003	0.00000E+000	-1.54536E-003	-3.59960E-001	-1.05605E+000	3.57730E+000	10	...........
	20	0.28	2.49908E-001	-6.00809E-003	0.00000E+000	-1.50147E-003	-3.59960E-001	-1.06578E+000	3.57730E+000	10	...........
	21	0.293333	2.42972E-001	-6.01607E-003	0.00000E+000	-1.46174E-003	-3.59960E-001	-1.05776E+000	3.57722E+000	10	...........
	22	0.306667	2.36079E-001	-6.01099E-003	0.00000E+000	-1.41907E-003	-3.59960E-001	-1.05588E+000	3.57670E+000	10	...........
	23	0.32	2.29233E-001	-6.01907E-003	0.00000E+000	-1.37977E-003	-3.59960E-001	-1.06567E+000	3.57670E+000	10	...........
	24	0.333333	2.22501E-001	-6.01462E-003	0.00000E+000	-1.33826E-003	-3.59960E-001	-1.05789E+000	3.57670E+000	10	...........
	25	0.346667	2.15809E-001	-6.01287E-003	0.00000E+000	-1.29763E-003	-3.59960E-001	-1.05583E+000	3.57670E+000	10	...........
	26	0.36	2.09193E-001	-6.01308E-003	0.00000E+000	-1.25789E-003	-3.59960E-001	-1.06555E+000	3.57670E+000	10	...........
	27	0.373333	2.02590E-001	-6.01318E-003	0.00000E+000	-1.21821E-003	-3.59960E-001	-1.05771E+000	3.57670E+000	10	...........
	28	0.386667	1.96088E-001	-6.01544E-003	0.00000E+000	-1.17956E-003	-3.59960E-001	-1.05626E+000	3.57670E+000	10	...........
	29	0.4	1.89622E-001	-6.01314E-003	0.00000E+000	-1.14023E-003	-3.59960E-001	-1.06595E+000	3.57670E+000	10	...........
	30	0.413333	1.83257E-001	-6.01381E-003	0.00000E+000	-1.10207E-003	-3.59960E-001	-1.05808E+000	3.57670E+000	10	...........
	31	0.426667	1.76910E-001	-6.01497E-003	0.00000E+000	-1.06411E-003	-3.59960E-001	-1.05588E+000	3.57670E+000	10	...........
	32	0.44	1.70636E-001	-6.01263E-003	0.00000E+000	-1.02597E-003	-3.59960E-001	-1.06591E+000	3.57670E+000	10	...........
	33	0.453333	1.64447E-001	-6.01780E-003	0.00000E+000	-9.89611E-004	-3.59960E-001	-1.05842E+000	3.57670E+000	10	...........
	34	0.466667	1.58281E-001	-6.00947E-003	0.00000E+000	-9.51185E-004	-3.59960E-001	-1.05611E+000	3.57670E+000	10	...........
	35	0.48	1.52154E-001	-6.01520E-003	0.00000E+000	-9.15234E-004	-3.59960E-001	-1.06599E+000	3.57670E+000	10	...........
	36	0.493333	1.46084E-001	-6.01023E-003	0.00000E+000	-8.77996E-004	-3.59960E-001	-1.05849E+000	3.57670E+000	10	...........
	37	0.506667	1.40080E-001	-6.01406E-003	0.00000E+000	-8.42450E-004	-3.59960E-001	-1.05621E+000	3.57670E+000	10	...........
	38	0.52	1.34162E-001	-6.01352E-003	0.00000E+000	-8.06784E-004	-3.59960E-001	-1.06620E+000	3.57670E+000	10	...........
	39	0.533333	1.28253E-001	-6.01338E-003	0.00000E+000	-7.71231E-004	-3.59960E-001	-1.05871E+000	3.57670E+000	10	...........
	40	0.546667	1.22448E-001	-6.01623E-003	0.00000E+000	-7.36676E-004	-3.59960E-001	-1.05638E+000	3.57670E+000	10	...........
	41	0.56	1.16606E-001	-6.01525E-003	0.00000E+000	-7.01416E-004	-3.59960E-001	-1.06598E+000	3.57670E+000	10	...........
	42	0.573333	1.10838E-001	-6.01273E-003	0.00000E+000	-6.66439E-004	-3.59960E-001	-1.05893E+000	3.57670E+000	10	...........
	43	0.586667	1.05137E-001	-6.01231E-003	0.00000E+000	-6.32118E-004	-3.59960E-001	-1.05663E+000	3.57670E+000	10	...........
	44	0.6	9.94591E-002	-6.01487E-003	0.00000E+000	-5.98234E-004	-3.59960E-001	-1.06628E+000	3.57670E+000	10	...........
	45	0.613333	9.38084E-002	-6.01714E-003	0.00000E+000	-5.64459E-004	-3.59960E-001	-1.05894E+000	3.57670E+000	10	...........
	46	0.626667	8.82496E-002	-6.01657E-003	0.00000E+000	-5.30960E-004	-3.59960E-001	-1.05614E+000	3.57670E+000	10	...........
	47	0.64	8.26817E-002	-6.01195E-003	0.00000E+000	-4.97078E-004	-3.59960E-001	-1.06590E+000	3.57670E+000	10	...........
	48	0.653333	7.72061E-002	-6.01263E-003	0.00000E+000	-4.64212E-004	-3.59960E-001	-1.05899E+000	3.57670E+000	10	...........
	49	0.666667	7.17538E-002	-6.01527E-003	0.00000E+000	-4.31618E-004	-3.59960E-001	-1.05639E+000	3.57670E+000	10	...........
	50	0.68	6.63453E-002	-6.01252E-003	0.00000E+000	-3.98903E-004	-3.59960E-001	-1.06590E+000	3.57670E+000	10	...........
	51	0.693333	6.09746E-002	-6.01393E-003	0.00000E+000	-3.66697E-004	-3.59960E-001	-1.05888E+000	3.57670E+000	10	...........
	52	0.706667	5.56325E-002	-6.01259E-003	0.00000E+000	-3.34495E-004	-3.59960E-001	-1.05619E+000	3.57670E+000	10	...........
	53	0.72	5.03544E-002	-6.01294E-003	0.00000E+000	-3.02778E-004	-3.59960E-001	-1.06608E+000	3.57670E+000	10	...........
	54	0.733333	4.51607E-002	-6.01439E-003	0.00000E+000	-2.71614E-004	-3.59960E-001	-1.05918E+000	3.57670E+000	10	...........
	55	0.746667	3.99371E-002	-6.01373E-003	0.00000E+000	-2.40171E-004	-3.59960E-001	-1.05626E+000	3.57670E+000	10	...........
	56	0.76	3.47402E-002	-6.01951E-003	0.00000E+000	-2.09119E-004	-3.59960E-001	-1.06577E+000	3.57670E+000	10	...........
	57	0.773333	2.95955E-002	-6.01258E-003	0.00000E+000	-1.77945E-004	-3.59960E-001	-1.05931E+000	3.57670E+000	10	...........
	58	0.786667	2.44921E-002	-6.01771E-003	0.00000E+000	-1.47386E-004	-3.59960E-001	-1.05646E+000	3.57670E+000	10	...........
	59	0.8	1.94220E-002	-6.01862E-003	0.00000E+000	-1.16894E-004	-3.59960E-001	-1.06588E+000	3.57670E+000	10	...........
	60	0.813333	1.44270E-002	-6.01562E-003	0.00000E+000	-8.67875E-005	-3.59960E-001	-1.05919E+000	3.57670E+000	10	...........
	61	0.826667	9.42795E-003	-6.02001E-003	0.00000E+000	-5.67563E-005	-3.59960E-001	-1.05611E+000	3.57670E+000	10	...........
	62	0.84	4.47685E-003	-6.01550E-003	0.00000E+000	-2.69305E-005	-3.59960E-001	-1.06604E+000	3.57670E+000	10	...........
	63	0.846667	7.50270E-004	-6.01491E-003	0.00000E+000	-4.51281E-006	-3.59960E-001	-1.04994E+000	3.57670E+000	10	...........
STARTTIMEOFFSET	QUANT	394.4083	Start Time Offset (s)
