EXPLAIN
TAG	PWR800_DISCHARGE
TITLE	LABEL	PWR Cyclic Charge Discharge (Cell) - Discharge Step	Test &Identifier
DATE	LABEL	22-6-2017	Date
TIME	LABEL	16:00:14	Time
NOTES	NOTES	3	&Notes...
	supercap test cell
	0.6mg
	6M KOH
PSTAT	PSTAT	IFC5000-01520	Potentiostat
CAPACITY	QUANT	1.00000E-003	Capacity (A-hr)
CELLTYPE	SELECTOR	1	&Cell Type
WORKINGCONNECTION	SELECTOR	0	&Working Lead
MAXDISCHARGETIME	VARIABLEANDUNITS	1.00000E+002	s	1.00000E+002	second(s)	Max &Discharge Time
DISCHARGEMODE	MULTIPARAM	0	6.00000E-003	&Discharge Mode	Constant Current	Amp(s)
SAMPLETIME	QUANT	1.00000E-002	Sa&mple Period (s)
DISCHARGESTOPAT1	MULTIPARAM	3	0.00000E+000	Discharge Stop At &1	Voltage < Limit	V
DISCHARGESTOPAT2	MULTIPARAM	0	0.00000E+000	Discharge Stop At &2	None	N/A
AESBHCSELECTOR	TOGGLE	F	Save Both Half Cells
IRCOMP	TOGGLE	F	IR &Measure
EOC	QUANT	0	Open Circuit (V)
SEQUENCER	TOGGLE	TRUE	Run as Sequence
PSTATMODEL	IQUANT	53	Pstat Model
PSTATSECTION	LABEL	IFC5000-01520	Pstat Section
PSTATSERIALNO	LABEL	01520	Pstat Serial Number
CTRLMODE	IQUANT	0	Control Mode
ELECTROMETER	IQUANT	1	RE=0 or CS=1
IESTAB	IQUANT	0	I/E Stability
CASPEED	IQUANT	4	Control Amp Speed
CONVENTION	IQUANT	1	Current Convention
ICHRANGE	IQUANT	2	Ich Range
ICHRANGEMODE	TOGGLE	T	Ich Auto Range
ICHOFFSETENABLE	TOGGLE	F	Ich Offset Enable
ICHOFFSET	QUANT	0	Ich Offset (V)
ICHFILTER	IQUANT	1	Ich Filter
VCHRANGE	IQUANT	2	Vch Range
VCHRANGEMODE	TOGGLE	T	Vch Auto Range
VCHOFFSETENABLE	TOGGLE	F	Vch Offset Enable
VCHOFFSET	QUANT	0	Vch Offset (V)
VCHFILTER	IQUANT	1	Vch Filter
IERANGELOWERLIMIT	IQUANT	9	I/E Range Lower Limit
IERANGEMODE	TOGGLE	F	I/E AutoRange
IERANGE	IQUANT	10	I/E Range
ACHSELECT	IQUANT	1	Ach Select
ACHRANGE	IQUANT	2	Ach Range
ACHOFFSETENABLE	TOGGLE	F	Ach Offset Enable
ACHOFFSET	QUANT	0	Ach Offset (V)
ACHFILTER	IQUANT	1	Ach Filter
CABLEID	IQUANT	14	Cable ID
DCCALDATE	LABEL	20-10-2016	DC Calibration Date
ACCALDATE	LABEL	12/3/2015	AC Calibration Date
FRAMEWORKVERSION	QUANT	7.01	Framework Version
INSTRUMENTVERSION	LABEL	4.00	Instrument Version
CURVE	TABLE	56
	Pt	T	Vf	Im	Vu	Pwr	Sig	Ach	Temp	IERange	Over
	#	s	V	A	V	W	V	V	deg C	#	bits
	0	0.013333	3.89597E-001	-6.01587E-003	0.00000E+000	-2.34376E-003	-3.59960E-001	-1.11321E+000	3.57720E+000	10	...........
	1	0.026667	3.78388E-001	-6.01322E-003	0.00000E+000	-2.27533E-003	-3.59960E-001	-1.11828E+000	3.57720E+000	10	...........
	2	0.04	3.67953E-001	-6.01202E-003	0.00000E+000	-2.21214E-003	-3.59960E-001	-1.12228E+000	3.57720E+000	10	...........
	3	0.053333	3.58097E-001	-6.01352E-003	0.00000E+000	-2.15343E-003	-3.59960E-001	-1.11373E+000	3.57720E+000	10	...........
	4	0.066667	3.48554E-001	-6.01641E-003	0.00000E+000	-2.09705E-003	-3.59960E-001	-1.11876E+000	3.57720E+000	10	...........
	5	0.08	3.39296E-001	-6.01187E-003	0.00000E+000	-2.03980E-003	-3.59960E-001	-1.12227E+000	3.57720E+000	10	...........
	6	0.093333	3.30320E-001	-6.01601E-003	0.00000E+000	-1.98721E-003	-3.59960E-001	-1.11396E+000	3.57720E+000	10	...........
	7	0.106667	3.21443E-001	-6.01563E-003	0.00000E+000	-1.93368E-003	-3.59960E-001	-1.11916E+000	3.57720E+000	10	...........
	8	0.12	3.12724E-001	-6.01651E-003	0.00000E+000	-1.88150E-003	-3.59960E-001	-1.12275E+000	3.57720E+000	10	...........
	9	0.133333	3.04185E-001	-6.01513E-003	0.00000E+000	-1.82971E-003	-3.59960E-001	-1.11397E+000	3.57720E+000	10	...........
	10	0.146667	2.95757E-001	-6.01276E-003	0.00000E+000	-1.77832E-003	-3.59960E-001	-1.11915E+000	3.57720E+000	10	...........
	11	0.16	2.87480E-001	-6.01200E-003	0.00000E+000	-1.72833E-003	-3.59960E-001	-1.12277E+000	3.57720E+000	10	...........
	12	0.173333	2.79311E-001	-6.01779E-003	0.00000E+000	-1.68083E-003	-3.59960E-001	-1.11399E+000	3.57720E+000	10	...........
	13	0.186667	2.71198E-001	-6.01556E-003	0.00000E+000	-1.63141E-003	-3.59960E-001	-1.11920E+000	3.57720E+000	10	...........
	14	0.2	2.63265E-001	-6.01350E-003	0.00000E+000	-1.58314E-003	-3.59960E-001	-1.12234E+000	3.57720E+000	10	...........
	15	0.213333	2.55417E-001	-6.01708E-003	0.00000E+000	-1.53686E-003	-3.59960E-001	-1.11383E+000	3.57720E+000	10	...........
	16	0.226667	2.47619E-001	-6.01807E-003	0.00000E+000	-1.49019E-003	-3.59960E-001	-1.11925E+000	3.57720E+000	10	...........
	17	0.24	2.39942E-001	-6.01562E-003	0.00000E+000	-1.44340E-003	-3.59960E-001	-1.12265E+000	3.57720E+000	10	...........
	18	0.253333	2.32366E-001	-6.01212E-003	0.00000E+000	-1.39701E-003	-3.59960E-001	-1.11420E+000	3.57720E+000	10	...........
	19	0.266667	2.24880E-001	-6.01518E-003	0.00000E+000	-1.35270E-003	-3.59960E-001	-1.11927E+000	3.57720E+000	10	...........
	20	0.28	2.17445E-001	-6.01662E-003	0.00000E+000	-1.30828E-003	-3.59960E-001	-1.12246E+000	3.57720E+000	10	...........
	21	0.293333	2.10133E-001	-6.01581E-003	0.00000E+000	-1.26412E-003	-3.59960E-001	-1.11408E+000	3.57720E+000	10	...........
	22	0.306667	2.02908E-001	-6.01429E-003	0.00000E+000	-1.22035E-003	-3.59960E-001	-1.11947E+000	3.57720E+000	10	...........
	23	0.32	1.95718E-001	-6.01434E-003	0.00000E+000	-1.17711E-003	-3.59960E-001	-1.12266E+000	3.57720E+000	10	...........
	24	0.333333	1.88638E-001	-6.01415E-003	0.00000E+000	-1.13449E-003	-3.59960E-001	-1.11414E+000	3.57690E+000	10	...........
	25	0.346667	1.81620E-001	-6.01048E-003	0.00000E+000	-1.09162E-003	-3.59960E-001	-1.11945E+000	3.57680E+000	10	...........
	26	0.36	1.74701E-001	-6.01699E-003	0.00000E+000	-1.05117E-003	-3.59960E-001	-1.12262E+000	3.57680E+000	10	...........
	27	0.373333	1.67842E-001	-6.00940E-003	0.00000E+000	-1.00863E-003	-3.59960E-001	-1.11444E+000	3.57680E+000	10	...........
	28	0.386667	1.61053E-001	-6.01368E-003	0.00000E+000	-9.68520E-004	-3.59960E-001	-1.11987E+000	3.57680E+000	10	...........
	29	0.4	1.54313E-001	-6.01318E-003	0.00000E+000	-9.27913E-004	-3.59960E-001	-1.12298E+000	3.57680E+000	10	...........
	30	0.413333	1.47705E-001	-6.01666E-003	0.00000E+000	-8.88692E-004	-3.59960E-001	-1.11445E+000	3.57680E+000	10	...........
	31	0.426667	1.41134E-001	-6.01434E-003	0.00000E+000	-8.48830E-004	-3.59960E-001	-1.11976E+000	3.57680E+000	10	...........
	32	0.44	1.34631E-001	-6.01374E-003	0.00000E+000	-8.09635E-004	-3.59960E-001	-1.12306E+000	3.57680E+000	10	...........
	33	0.453333	1.28172E-001	-6.01402E-003	0.00000E+000	-7.70833E-004	-3.59960E-001	-1.11444E+000	3.57680E+000	10	...........
	34	0.466667	1.21756E-001	-6.01253E-003	0.00000E+000	-7.32064E-004	-3.59960E-001	-1.11985E+000	3.57680E+000	10	...........
	35	0.48	1.15464E-001	-6.01318E-003	0.00000E+000	-6.94308E-004	-3.59960E-001	-1.12267E+000	3.57680E+000	10	...........
	36	0.493333	1.09206E-001	-6.01443E-003	0.00000E+000	-6.56809E-004	-3.59960E-001	-1.11391E+000	3.57680E+000	10	...........
	37	0.506667	1.03009E-001	-6.01786E-003	0.00000E+000	-6.19892E-004	-3.59960E-001	-1.11959E+000	3.57680E+000	10	...........
	38	0.52	9.68481E-002	-6.01340E-003	0.00000E+000	-5.82386E-004	-3.59960E-001	-1.12263E+000	3.57680E+000	10	...........
	39	0.533333	9.08010E-002	-6.01458E-003	0.00000E+000	-5.46130E-004	-3.59960E-001	-1.11408E+000	3.57680E+000	10	...........
	40	0.546667	8.47720E-002	-6.01621E-003	0.00000E+000	-5.10006E-004	-3.59960E-001	-1.11975E+000	3.57680E+000	10	...........
	41	0.56	7.88222E-002	-6.01560E-003	0.00000E+000	-4.74163E-004	-3.59960E-001	-1.12263E+000	3.57680E+000	10	...........
	42	0.573333	7.29340E-002	-6.01328E-003	0.00000E+000	-4.38573E-004	-3.59960E-001	-1.11452E+000	3.57680E+000	10	...........
	43	0.586667	6.70872E-002	-6.01713E-003	0.00000E+000	-4.03673E-004	-3.59960E-001	-1.11992E+000	3.57680E+000	10	...........
	44	0.6	6.12663E-002	-6.01658E-003	0.00000E+000	-3.68613E-004	-3.59960E-001	-1.12260E+000	3.57680E+000	10	...........
	45	0.613333	5.55279E-002	-6.01618E-003	0.00000E+000	-3.34066E-004	-3.59960E-001	-1.11413E+000	3.57680E+000	10	...........
	46	0.626667	4.98537E-002	-6.01367E-003	0.00000E+000	-2.99804E-004	-3.59960E-001	-1.11984E+000	3.57680E+000	10	...........
	47	0.64	4.42257E-002	-6.01235E-003	0.00000E+000	-2.65900E-004	-3.59960E-001	-1.12279E+000	3.57680E+000	10	...........
	48	0.653333	3.86519E-002	-6.01433E-003	0.00000E+000	-2.32465E-004	-3.59960E-001	-1.11447E+000	3.57680E+000	10	...........
	49	0.666667	3.31333E-002	-6.01161E-003	0.00000E+000	-1.99184E-004	-3.59960E-001	-1.11994E+000	3.57680E+000	10	...........
	50	0.68	2.76374E-002	-6.01282E-003	0.00000E+000	-1.66179E-004	-3.59960E-001	-1.12271E+000	3.57680E+000	10	...........
	51	0.693333	2.22033E-002	-6.01676E-003	0.00000E+000	-1.33592E-004	-3.59960E-001	-1.11447E+000	3.57680E+000	10	...........
	52	0.706667	1.68067E-002	-6.01626E-003	0.00000E+000	-1.01114E-004	-3.59960E-001	-1.12027E+000	3.57680E+000	10	...........
	53	0.72	1.14884E-002	-6.01739E-003	0.00000E+000	-6.91300E-005	-3.59960E-001	-1.12303E+000	3.57680E+000	10	...........
	54	0.733333	6.19426E-003	-6.01631E-003	0.00000E+000	-3.72666E-005	-3.59960E-001	-1.11463E+000	3.57680E+000	10	...........
	55	0.743333	1.58859E-003	-6.01324E-003	0.00000E+000	-9.55255E-006	-3.59960E-001	-1.12603E+000	3.57680E+000	10	...........
STARTTIMEOFFSET	QUANT	1029.655	Start Time Offset (s)
