EXPLAIN
TAG	PWR800_DISCHARGE
TITLE	LABEL	PWR Cyclic Charge Discharge (Cell) - Discharge Step	Test &Identifier
DATE	LABEL	22-6-2017	Date
TIME	LABEL	15:50:12	Time
NOTES	NOTES	3	&Notes...
	supercap test cell
	0.6mg
	6M KOH
PSTAT	PSTAT	IFC5000-01520	Potentiostat
CAPACITY	QUANT	1.00000E-003	Capacity (A-hr)
CELLTYPE	SELECTOR	1	&Cell Type
WORKINGCONNECTION	SELECTOR	0	&Working Lead
MAXDISCHARGETIME	VARIABLEANDUNITS	1.00000E+002	s	1.00000E+002	second(s)	Max &Discharge Time
DISCHARGEMODE	MULTIPARAM	0	6.00000E-003	&Discharge Mode	Constant Current	Amp(s)
SAMPLETIME	QUANT	1.00000E-002	Sa&mple Period (s)
DISCHARGESTOPAT1	MULTIPARAM	3	0.00000E+000	Discharge Stop At &1	Voltage < Limit	V
DISCHARGESTOPAT2	MULTIPARAM	0	0.00000E+000	Discharge Stop At &2	None	N/A
AESBHCSELECTOR	TOGGLE	F	Save Both Half Cells
IRCOMP	TOGGLE	F	IR &Measure
EOC	QUANT	0	Open Circuit (V)
SEQUENCER	TOGGLE	TRUE	Run as Sequence
PSTATMODEL	IQUANT	53	Pstat Model
PSTATSECTION	LABEL	IFC5000-01520	Pstat Section
PSTATSERIALNO	LABEL	01520	Pstat Serial Number
CTRLMODE	IQUANT	0	Control Mode
ELECTROMETER	IQUANT	1	RE=0 or CS=1
IESTAB	IQUANT	0	I/E Stability
CASPEED	IQUANT	4	Control Amp Speed
CONVENTION	IQUANT	1	Current Convention
ICHRANGE	IQUANT	2	Ich Range
ICHRANGEMODE	TOGGLE	T	Ich Auto Range
ICHOFFSETENABLE	TOGGLE	F	Ich Offset Enable
ICHOFFSET	QUANT	0	Ich Offset (V)
ICHFILTER	IQUANT	1	Ich Filter
VCHRANGE	IQUANT	2	Vch Range
VCHRANGEMODE	TOGGLE	T	Vch Auto Range
VCHOFFSETENABLE	TOGGLE	F	Vch Offset Enable
VCHOFFSET	QUANT	0	Vch Offset (V)
VCHFILTER	IQUANT	1	Vch Filter
IERANGELOWERLIMIT	IQUANT	9	I/E Range Lower Limit
IERANGEMODE	TOGGLE	F	I/E AutoRange
IERANGE	IQUANT	10	I/E Range
ACHSELECT	IQUANT	1	Ach Select
ACHRANGE	IQUANT	2	Ach Range
ACHOFFSETENABLE	TOGGLE	F	Ach Offset Enable
ACHOFFSET	QUANT	0	Ach Offset (V)
ACHFILTER	IQUANT	1	Ach Filter
CABLEID	IQUANT	14	Cable ID
DCCALDATE	LABEL	20-10-2016	DC Calibration Date
ACCALDATE	LABEL	12/3/2015	AC Calibration Date
FRAMEWORKVERSION	QUANT	7.01	Framework Version
INSTRUMENTVERSION	LABEL	4.00	Instrument Version
CURVE	TABLE	60
	Pt	T	Vf	Im	Vu	Pwr	Sig	Ach	Temp	IERange	Over
	#	s	V	A	V	W	V	V	deg C	#	bits
	0	0.013333	3.97028E-001	-6.00961E-003	0.00000E+000	-2.38598E-003	-3.59960E-001	-1.09447E+000	3.57730E+000	10	...........
	1	0.026667	3.86420E-001	-6.01507E-003	0.00000E+000	-2.32435E-003	-3.59960E-001	-1.08509E+000	3.57730E+000	10	...........
	2	0.04	3.76536E-001	-6.01346E-003	0.00000E+000	-2.26428E-003	-3.59960E-001	-1.08960E+000	3.57730E+000	10	...........
	3	0.053333	3.67170E-001	-6.01503E-003	0.00000E+000	-2.20854E-003	-3.59960E-001	-1.09478E+000	3.57730E+000	10	...........
	4	0.066667	3.58105E-001	-6.01544E-003	0.00000E+000	-2.15416E-003	-3.59960E-001	-1.08510E+000	3.57704E+000	10	...........
	5	0.08	3.49280E-001	-6.01503E-003	0.00000E+000	-2.10093E-003	-3.59960E-001	-1.08960E+000	3.57660E+000	10	...........
	6	0.093333	3.40677E-001	-6.01194E-003	0.00000E+000	-2.04813E-003	-3.59960E-001	-1.09534E+000	3.57660E+000	10	...........
	7	0.106667	3.32296E-001	-6.01772E-003	0.00000E+000	-1.99966E-003	-3.59960E-001	-1.08538E+000	3.57660E+000	10	...........
	8	0.12	3.24057E-001	-6.01570E-003	0.00000E+000	-1.94943E-003	-3.59960E-001	-1.08926E+000	3.57660E+000	10	...........
	9	0.133333	3.15900E-001	-6.01640E-003	0.00000E+000	-1.90058E-003	-3.59960E-001	-1.09491E+000	3.57660E+000	10	...........
	10	0.146667	3.07881E-001	-6.01240E-003	0.00000E+000	-1.85110E-003	-3.59960E-001	-1.08551E+000	3.57660E+000	10	...........
	11	0.16	2.99967E-001	-6.01660E-003	0.00000E+000	-1.80478E-003	-3.59960E-001	-1.08922E+000	3.57660E+000	10	...........
	12	0.173333	2.92129E-001	-6.01395E-003	0.00000E+000	-1.75685E-003	-3.59960E-001	-1.09559E+000	3.57660E+000	10	...........
	13	0.186667	2.84427E-001	-6.01558E-003	0.00000E+000	-1.71100E-003	-3.59960E-001	-1.08545E+000	3.57660E+000	10	...........
	14	0.2	2.76792E-001	-6.01170E-003	0.00000E+000	-1.66399E-003	-3.59960E-001	-1.08918E+000	3.57660E+000	10	...........
	15	0.213333	2.69270E-001	-6.01512E-003	0.00000E+000	-1.61969E-003	-3.59960E-001	-1.09564E+000	3.57660E+000	10	...........
	16	0.226667	2.61881E-001	-6.01340E-003	0.00000E+000	-1.57480E-003	-3.59960E-001	-1.08554E+000	3.57660E+000	10	...........
	17	0.24	2.54514E-001	-6.01890E-003	0.00000E+000	-1.53189E-003	-3.59960E-001	-1.08908E+000	3.57660E+000	10	...........
	18	0.253333	2.47252E-001	-6.01132E-003	0.00000E+000	-1.48631E-003	-3.59960E-001	-1.09553E+000	3.57660E+000	10	...........
	19	0.266667	2.40024E-001	-6.01464E-003	0.00000E+000	-1.44366E-003	-3.59960E-001	-1.08522E+000	3.57660E+000	10	...........
	20	0.28	2.32857E-001	-6.01779E-003	0.00000E+000	-1.40128E-003	-3.59960E-001	-1.08890E+000	3.57660E+000	10	...........
	21	0.293333	2.25831E-001	-6.01537E-003	0.00000E+000	-1.35846E-003	-3.59960E-001	-1.09596E+000	3.57660E+000	10	...........
	22	0.306667	2.18874E-001	-6.01168E-003	0.00000E+000	-1.31580E-003	-3.59960E-001	-1.08540E+000	3.57660E+000	10	...........
	23	0.32	2.11992E-001	-6.01136E-003	0.00000E+000	-1.27436E-003	-3.59960E-001	-1.08860E+000	3.57660E+000	10	...........
	24	0.333333	2.05125E-001	-6.01240E-003	0.00000E+000	-1.23329E-003	-3.59960E-001	-1.09598E+000	3.57660E+000	10	...........
	25	0.346667	1.98373E-001	-6.01523E-003	0.00000E+000	-1.19326E-003	-3.59960E-001	-1.08540E+000	3.57660E+000	10	...........
	26	0.36	1.91666E-001	-6.01682E-003	0.00000E+000	-1.15322E-003	-3.59960E-001	-1.08884E+000	3.57660E+000	10	...........
	27	0.373333	1.85019E-001	-6.01324E-003	0.00000E+000	-1.11257E-003	-3.59960E-001	-1.09625E+000	3.57660E+000	10	...........
	28	0.386667	1.78514E-001	-6.01338E-003	0.00000E+000	-1.07347E-003	-3.59960E-001	-1.08555E+000	3.57660E+000	10	...........
	29	0.4	1.72030E-001	-6.01068E-003	0.00000E+000	-1.03402E-003	-3.59960E-001	-1.08858E+000	3.57660E+000	10	...........
	30	0.413333	1.65531E-001	-6.01473E-003	0.00000E+000	-9.95625E-004	-3.59960E-001	-1.09640E+000	3.57660E+000	10	...........
	31	0.426667	1.59143E-001	-6.01765E-003	0.00000E+000	-9.57668E-004	-3.59960E-001	-1.08579E+000	3.57660E+000	10	...........
	32	0.44	1.52797E-001	-6.01822E-003	0.00000E+000	-9.19565E-004	-3.59960E-001	-1.08842E+000	3.57660E+000	10	...........
	33	0.453333	1.46561E-001	-6.01600E-003	0.00000E+000	-8.81710E-004	-3.59960E-001	-1.09583E+000	3.57660E+000	10	...........
	34	0.466667	1.40296E-001	-6.01475E-003	0.00000E+000	-8.43844E-004	-3.59960E-001	-1.08534E+000	3.57660E+000	10	...........
	35	0.48	1.34140E-001	-6.01533E-003	0.00000E+000	-8.06895E-004	-3.59960E-001	-1.08845E+000	3.57660E+000	10	...........
	36	0.493333	1.28067E-001	-6.01678E-003	0.00000E+000	-7.70550E-004	-3.59960E-001	-1.09646E+000	3.57660E+000	10	...........
	37	0.506667	1.22028E-001	-6.01677E-003	0.00000E+000	-7.34214E-004	-3.59960E-001	-1.08557E+000	3.57660E+000	10	...........
	38	0.52	1.16045E-001	-6.01559E-003	0.00000E+000	-6.98077E-004	-3.59960E-001	-1.08808E+000	3.57660E+000	10	...........
	39	0.533333	1.10092E-001	-6.01346E-003	0.00000E+000	-6.62037E-004	-3.59960E-001	-1.09657E+000	3.57660E+000	10	...........
	40	0.546667	1.04200E-001	-6.01227E-003	0.00000E+000	-6.26482E-004	-3.59960E-001	-1.08591E+000	3.57660E+000	10	...........
	41	0.56	9.83710E-002	-6.01633E-003	0.00000E+000	-5.91833E-004	-3.59960E-001	-1.08857E+000	3.57660E+000	10	...........
	42	0.573333	9.25817E-002	-6.01491E-003	0.00000E+000	-5.56871E-004	-3.59960E-001	-1.09681E+000	3.57660E+000	10	...........
	43	0.586667	8.68100E-002	-6.01442E-003	0.00000E+000	-5.22112E-004	-3.59960E-001	-1.08595E+000	3.57660E+000	10	...........
	44	0.6	8.11068E-002	-6.01229E-003	0.00000E+000	-4.87638E-004	-3.59960E-001	-1.08832E+000	3.57660E+000	10	...........
	45	0.613333	7.54718E-002	-6.01423E-003	0.00000E+000	-4.53905E-004	-3.59960E-001	-1.09702E+000	3.57660E+000	10	...........
	46	0.626667	6.98592E-002	-6.01310E-003	0.00000E+000	-4.20070E-004	-3.59960E-001	-1.08634E+000	3.57660E+000	10	...........
	47	0.64	6.43018E-002	-6.01544E-003	0.00000E+000	-3.86804E-004	-3.59960E-001	-1.08814E+000	3.57660E+000	10	...........
	48	0.653333	5.87707E-002	-6.01701E-003	0.00000E+000	-3.53624E-004	-3.59960E-001	-1.09717E+000	3.57660E+000	10	...........
	49	0.666667	5.32840E-002	-6.00999E-003	0.00000E+000	-3.20236E-004	-3.59960E-001	-1.08673E+000	3.57660E+000	10	...........
	50	0.68	4.79277E-002	-6.01317E-003	0.00000E+000	-2.88197E-004	-3.59960E-001	-1.08868E+000	3.57660E+000	10	...........
	51	0.693333	4.25766E-002	-6.01772E-003	0.00000E+000	-2.56214E-004	-3.59960E-001	-1.09761E+000	3.57660E+000	10	...........
	52	0.706667	3.72542E-002	-6.01294E-003	0.00000E+000	-2.24007E-004	-3.59960E-001	-1.08665E+000	3.57660E+000	10	...........
	53	0.72	3.19462E-002	-6.01345E-003	0.00000E+000	-1.92107E-004	-3.59960E-001	-1.08827E+000	3.57660E+000	10	...........
	54	0.733333	2.66800E-002	-6.01895E-003	0.00000E+000	-1.60586E-004	-3.59960E-001	-1.09780E+000	3.57660E+000	10	...........
	55	0.746667	2.14594E-002	-6.01374E-003	0.00000E+000	-1.29051E-004	-3.59960E-001	-1.08665E+000	3.57660E+000	10	...........
	56	0.76	1.62852E-002	-6.01748E-003	0.00000E+000	-9.79956E-005	-3.59960E-001	-1.08798E+000	3.57660E+000	10	...........
	57	0.773333	1.11606E-002	-6.00999E-003	0.00000E+000	-6.70752E-005	-3.59960E-001	-1.09723E+000	3.57660E+000	10	...........
	58	0.786667	6.06963E-003	-6.01425E-003	0.00000E+000	-3.65043E-005	-3.59960E-001	-1.08621E+000	3.57660E+000	10	...........
	59	0.798333	1.31793E-003	-6.01609E-003	0.00000E+000	-7.92877E-006	-3.59960E-001	-1.08957E+000	3.57660E+000	10	...........
STARTTIMEOFFSET	QUANT	631.5331	Start Time Offset (s)
