EXPLAIN
TAG	PWR800_DISCHARGE
TITLE	LABEL	PWR Cyclic Charge Discharge (Cell) - Discharge Step	Test &Identifier
DATE	LABEL	22-6-2017	Date
TIME	LABEL	16:03:37	Time
NOTES	NOTES	3	&Notes...
	supercap test cell
	0.6mg
	6M KOH
PSTAT	PSTAT	IFC5000-01520	Potentiostat
CAPACITY	QUANT	1.00000E-003	Capacity (A-hr)
CELLTYPE	SELECTOR	1	&Cell Type
WORKINGCONNECTION	SELECTOR	0	&Working Lead
MAXDISCHARGETIME	VARIABLEANDUNITS	1.00000E+002	s	1.00000E+002	second(s)	Max &Discharge Time
DISCHARGEMODE	MULTIPARAM	0	6.00000E-003	&Discharge Mode	Constant Current	Amp(s)
SAMPLETIME	QUANT	1.00000E-002	Sa&mple Period (s)
DISCHARGESTOPAT1	MULTIPARAM	3	0.00000E+000	Discharge Stop At &1	Voltage < Limit	V
DISCHARGESTOPAT2	MULTIPARAM	0	0.00000E+000	Discharge Stop At &2	None	N/A
AESBHCSELECTOR	TOGGLE	F	Save Both Half Cells
IRCOMP	TOGGLE	F	IR &Measure
EOC	QUANT	0	Open Circuit (V)
SEQUENCER	TOGGLE	TRUE	Run as Sequence
PSTATMODEL	IQUANT	53	Pstat Model
PSTATSECTION	LABEL	IFC5000-01520	Pstat Section
PSTATSERIALNO	LABEL	01520	Pstat Serial Number
CTRLMODE	IQUANT	0	Control Mode
ELECTROMETER	IQUANT	1	RE=0 or CS=1
IESTAB	IQUANT	0	I/E Stability
CASPEED	IQUANT	4	Control Amp Speed
CONVENTION	IQUANT	1	Current Convention
ICHRANGE	IQUANT	2	Ich Range
ICHRANGEMODE	TOGGLE	T	Ich Auto Range
ICHOFFSETENABLE	TOGGLE	F	Ich Offset Enable
ICHOFFSET	QUANT	0	Ich Offset (V)
ICHFILTER	IQUANT	1	Ich Filter
VCHRANGE	IQUANT	2	Vch Range
VCHRANGEMODE	TOGGLE	T	Vch Auto Range
VCHOFFSETENABLE	TOGGLE	F	Vch Offset Enable
VCHOFFSET	QUANT	0	Vch Offset (V)
VCHFILTER	IQUANT	1	Vch Filter
IERANGELOWERLIMIT	IQUANT	9	I/E Range Lower Limit
IERANGEMODE	TOGGLE	F	I/E AutoRange
IERANGE	IQUANT	10	I/E Range
ACHSELECT	IQUANT	1	Ach Select
ACHRANGE	IQUANT	2	Ach Range
ACHOFFSETENABLE	TOGGLE	F	Ach Offset Enable
ACHOFFSET	QUANT	0	Ach Offset (V)
ACHFILTER	IQUANT	1	Ach Filter
CABLEID	IQUANT	14	Cable ID
DCCALDATE	LABEL	20-10-2016	DC Calibration Date
ACCALDATE	LABEL	12/3/2015	AC Calibration Date
FRAMEWORKVERSION	QUANT	7.01	Framework Version
INSTRUMENTVERSION	LABEL	4.00	Instrument Version
CURVE	TABLE	55
	Pt	T	Vf	Im	Vu	Pwr	Sig	Ach	Temp	IERange	Over
	#	s	V	A	V	W	V	V	deg C	#	bits
	0	0.013333	3.86701E-001	-6.01238E-003	0.00000E+000	-2.32499E-003	-3.59960E-001	-1.12580E+000	3.57660E+000	10	...........
	1	0.026667	3.75391E-001	-6.01608E-003	0.00000E+000	-2.25838E-003	-3.59960E-001	-1.11846E+000	3.57660E+000	10	...........
	2	0.04	3.64870E-001	-6.01146E-003	0.00000E+000	-2.19340E-003	-3.59960E-001	-1.12571E+000	3.57660E+000	10	...........
	3	0.053333	3.54811E-001	-6.01619E-003	0.00000E+000	-2.13461E-003	-3.59960E-001	-1.12550E+000	3.57660E+000	10	...........
	4	0.066667	3.45178E-001	-6.01576E-003	0.00000E+000	-2.07651E-003	-3.59960E-001	-1.11820E+000	3.57660E+000	10	...........
	5	0.08	3.35857E-001	-6.01583E-003	0.00000E+000	-2.02046E-003	-3.59960E-001	-1.12588E+000	3.57660E+000	10	...........
	6	0.093333	3.26763E-001	-6.01398E-003	0.00000E+000	-1.96515E-003	-3.59960E-001	-1.12560E+000	3.57660E+000	10	...........
	7	0.106667	3.17820E-001	-6.01486E-003	0.00000E+000	-1.91164E-003	-3.59960E-001	-1.11859E+000	3.57660E+000	10	...........
	8	0.12	3.09018E-001	-6.01810E-003	0.00000E+000	-1.85970E-003	-3.59960E-001	-1.12606E+000	3.57660E+000	10	...........
	9	0.133333	3.00385E-001	-6.01117E-003	0.00000E+000	-1.80567E-003	-3.59960E-001	-1.12562E+000	3.57660E+000	10	...........
	10	0.146667	2.91894E-001	-6.01554E-003	0.00000E+000	-1.75590E-003	-3.59960E-001	-1.11884E+000	3.57660E+000	10	...........
	11	0.16	2.83500E-001	-6.01218E-003	0.00000E+000	-1.70445E-003	-3.59960E-001	-1.12647E+000	3.57660E+000	10	...........
	12	0.173333	2.75234E-001	-6.01603E-003	0.00000E+000	-1.65581E-003	-3.59960E-001	-1.12591E+000	3.57660E+000	10	...........
	13	0.186667	2.67102E-001	-6.01899E-003	0.00000E+000	-1.60769E-003	-3.59960E-001	-1.11870E+000	3.57660E+000	10	...........
	14	0.2	2.59074E-001	-6.01324E-003	0.00000E+000	-1.55787E-003	-3.59960E-001	-1.12658E+000	3.57660E+000	10	...........
	15	0.213333	2.51130E-001	-6.01619E-003	0.00000E+000	-1.51085E-003	-3.59960E-001	-1.12594E+000	3.57660E+000	10	...........
	16	0.226667	2.43312E-001	-6.01721E-003	0.00000E+000	-1.46406E-003	-3.59960E-001	-1.11892E+000	3.57660E+000	10	...........
	17	0.24	2.35597E-001	-6.01369E-003	0.00000E+000	-1.41681E-003	-3.59960E-001	-1.12681E+000	3.57660E+000	10	...........
	18	0.253333	2.27957E-001	-6.01408E-003	0.00000E+000	-1.37095E-003	-3.59960E-001	-1.12592E+000	3.57660E+000	10	...........
	19	0.266667	2.20411E-001	-6.01342E-003	0.00000E+000	-1.32542E-003	-3.59960E-001	-1.11926E+000	3.57660E+000	10	...........
	20	0.28	2.12928E-001	-6.01284E-003	0.00000E+000	-1.28030E-003	-3.59960E-001	-1.12746E+000	3.57660E+000	10	...........
	21	0.293333	2.05522E-001	-6.01537E-003	0.00000E+000	-1.23629E-003	-3.59960E-001	-1.12596E+000	3.57660E+000	10	...........
	22	0.306667	1.98261E-001	-6.01260E-003	0.00000E+000	-1.19206E-003	-3.59960E-001	-1.11930E+000	3.57660E+000	10	...........
	23	0.32	1.91004E-001	-6.01614E-003	0.00000E+000	-1.14911E-003	-3.59960E-001	-1.12749E+000	3.57660E+000	10	...........
	24	0.333333	1.83862E-001	-6.01267E-003	0.00000E+000	-1.10550E-003	-3.59960E-001	-1.12579E+000	3.57660E+000	10	...........
	25	0.346667	1.76795E-001	-6.01196E-003	0.00000E+000	-1.06288E-003	-3.59960E-001	-1.11958E+000	3.57660E+000	10	...........
	26	0.36	1.69845E-001	-6.01662E-003	0.00000E+000	-1.02189E-003	-3.59960E-001	-1.12769E+000	3.57660E+000	10	...........
	27	0.373333	1.62965E-001	-6.01042E-003	0.00000E+000	-9.79486E-004	-3.59960E-001	-1.12578E+000	3.57660E+000	10	...........
	28	0.386667	1.56142E-001	-6.00924E-003	0.00000E+000	-9.38293E-004	-3.59960E-001	-1.11935E+000	3.57660E+000	10	...........
	29	0.4	1.49384E-001	-6.01582E-003	0.00000E+000	-8.98666E-004	-3.59960E-001	-1.12749E+000	3.57660E+000	10	...........
	30	0.413333	1.42721E-001	-6.01579E-003	0.00000E+000	-8.58577E-004	-3.59960E-001	-1.12563E+000	3.57660E+000	10	...........
	31	0.426667	1.36146E-001	-6.01563E-003	0.00000E+000	-8.19003E-004	-3.59960E-001	-1.11923E+000	3.57660E+000	10	...........
	32	0.44	1.29579E-001	-6.01276E-003	0.00000E+000	-7.79130E-004	-3.59960E-001	-1.12782E+000	3.57660E+000	10	...........
	33	0.453333	1.23084E-001	-6.01437E-003	0.00000E+000	-7.40274E-004	-3.59960E-001	-1.12568E+000	3.57660E+000	10	...........
	34	0.466667	1.16667E-001	-6.01561E-003	0.00000E+000	-7.01822E-004	-3.59960E-001	-1.11942E+000	3.57660E+000	10	...........
	35	0.48	1.10341E-001	-6.01776E-003	0.00000E+000	-6.64003E-004	-3.59960E-001	-1.12812E+000	3.57660E+000	10	...........
	36	0.493333	1.04057E-001	-6.01383E-003	0.00000E+000	-6.25778E-004	-3.59960E-001	-1.12553E+000	3.57660E+000	10	...........
	37	0.506667	9.78297E-002	-6.01665E-003	0.00000E+000	-5.88607E-004	-3.59960E-001	-1.11968E+000	3.57660E+000	10	...........
	38	0.52	9.16542E-002	-6.01512E-003	0.00000E+000	-5.51311E-004	-3.59960E-001	-1.12817E+000	3.57660E+000	10	...........
	39	0.533333	8.55341E-002	-6.01497E-003	0.00000E+000	-5.14486E-004	-3.59960E-001	-1.12580E+000	3.57660E+000	10	...........
	40	0.546667	7.94917E-002	-6.01848E-003	0.00000E+000	-4.78419E-004	-3.59960E-001	-1.11966E+000	3.57660E+000	10	...........
	41	0.56	7.35423E-002	-6.01578E-003	0.00000E+000	-4.42414E-004	-3.59960E-001	-1.12846E+000	3.57660E+000	10	...........
	42	0.573333	6.76298E-002	-6.01849E-003	0.00000E+000	-4.07029E-004	-3.59960E-001	-1.12567E+000	3.57660E+000	10	...........
	43	0.586667	6.17985E-002	-6.01094E-003	0.00000E+000	-3.71467E-004	-3.59960E-001	-1.11988E+000	3.57660E+000	10	...........
	44	0.6	5.59407E-002	-6.01526E-003	0.00000E+000	-3.36497E-004	-3.59960E-001	-1.12877E+000	3.57660E+000	10	...........
	45	0.613333	5.02178E-002	-6.01200E-003	0.00000E+000	-3.01910E-004	-3.59960E-001	-1.12555E+000	3.57660E+000	10	...........
	46	0.626667	4.45703E-002	-6.01785E-003	0.00000E+000	-2.68217E-004	-3.59960E-001	-1.11999E+000	3.57660E+000	10	...........
	47	0.64	3.89135E-002	-6.01776E-003	0.00000E+000	-2.34172E-004	-3.59960E-001	-1.12916E+000	3.57660E+000	10	...........
	48	0.653333	3.33005E-002	-6.01179E-003	0.00000E+000	-2.00196E-004	-3.59960E-001	-1.12559E+000	3.57660E+000	10	...........
	49	0.666667	2.77566E-002	-6.01235E-003	0.00000E+000	-1.66882E-004	-3.59960E-001	-1.12016E+000	3.57660E+000	10	...........
	50	0.68	2.22383E-002	-6.01373E-003	0.00000E+000	-1.33735E-004	-3.59960E-001	-1.12924E+000	3.57660E+000	10	...........
	51	0.693333	1.68095E-002	-6.00978E-003	0.00000E+000	-1.01021E-004	-3.59960E-001	-1.12545E+000	3.57660E+000	10	...........
	52	0.706667	1.14036E-002	-6.01579E-003	0.00000E+000	-6.86019E-005	-3.59960E-001	-1.11990E+000	3.57660E+000	10	...........
	53	0.72	6.03264E-003	-6.01195E-003	0.00000E+000	-3.62679E-005	-3.59960E-001	-1.12915E+000	3.57660E+000	10	...........
	54	0.73	1.40078E-003	-6.01669E-003	0.00000E+000	-8.42805E-006	-3.59960E-001	-1.12224E+000	3.57660E+000	10	...........
STARTTIMEOFFSET	QUANT	1161.426	Start Time Offset (s)
