EXPLAIN
TAG	PWR800_DISCHARGE
TITLE	LABEL	PWR Cyclic Charge Discharge (Cell) - Discharge Step	Test &Identifier
DATE	LABEL	22-6-2017	Date
TIME	LABEL	16:01:41	Time
NOTES	NOTES	3	&Notes...
	supercap test cell
	0.6mg
	6M KOH
PSTAT	PSTAT	IFC5000-01520	Potentiostat
CAPACITY	QUANT	1.00000E-003	Capacity (A-hr)
CELLTYPE	SELECTOR	1	&Cell Type
WORKINGCONNECTION	SELECTOR	0	&Working Lead
MAXDISCHARGETIME	VARIABLEANDUNITS	1.00000E+002	s	1.00000E+002	second(s)	Max &Discharge Time
DISCHARGEMODE	MULTIPARAM	0	6.00000E-003	&Discharge Mode	Constant Current	Amp(s)
SAMPLETIME	QUANT	1.00000E-002	Sa&mple Period (s)
DISCHARGESTOPAT1	MULTIPARAM	3	0.00000E+000	Discharge Stop At &1	Voltage < Limit	V
DISCHARGESTOPAT2	MULTIPARAM	0	0.00000E+000	Discharge Stop At &2	None	N/A
AESBHCSELECTOR	TOGGLE	F	Save Both Half Cells
IRCOMP	TOGGLE	F	IR &Measure
EOC	QUANT	0	Open Circuit (V)
SEQUENCER	TOGGLE	TRUE	Run as Sequence
PSTATMODEL	IQUANT	53	Pstat Model
PSTATSECTION	LABEL	IFC5000-01520	Pstat Section
PSTATSERIALNO	LABEL	01520	Pstat Serial Number
CTRLMODE	IQUANT	0	Control Mode
ELECTROMETER	IQUANT	1	RE=0 or CS=1
IESTAB	IQUANT	0	I/E Stability
CASPEED	IQUANT	4	Control Amp Speed
CONVENTION	IQUANT	1	Current Convention
ICHRANGE	IQUANT	2	Ich Range
ICHRANGEMODE	TOGGLE	T	Ich Auto Range
ICHOFFSETENABLE	TOGGLE	F	Ich Offset Enable
ICHOFFSET	QUANT	0	Ich Offset (V)
ICHFILTER	IQUANT	1	Ich Filter
VCHRANGE	IQUANT	2	Vch Range
VCHRANGEMODE	TOGGLE	T	Vch Auto Range
VCHOFFSETENABLE	TOGGLE	F	Vch Offset Enable
VCHOFFSET	QUANT	0	Vch Offset (V)
VCHFILTER	IQUANT	1	Vch Filter
IERANGELOWERLIMIT	IQUANT	9	I/E Range Lower Limit
IERANGEMODE	TOGGLE	F	I/E AutoRange
IERANGE	IQUANT	10	I/E Range
ACHSELECT	IQUANT	1	Ach Select
ACHRANGE	IQUANT	2	Ach Range
ACHOFFSETENABLE	TOGGLE	F	Ach Offset Enable
ACHOFFSET	QUANT	0	Ach Offset (V)
ACHFILTER	IQUANT	1	Ach Filter
CABLEID	IQUANT	14	Cable ID
DCCALDATE	LABEL	20-10-2016	DC Calibration Date
ACCALDATE	LABEL	12/3/2015	AC Calibration Date
FRAMEWORKVERSION	QUANT	7.01	Framework Version
INSTRUMENTVERSION	LABEL	4.00	Instrument Version
CURVE	TABLE	56
	Pt	T	Vf	Im	Vu	Pwr	Sig	Ach	Temp	IERange	Over
	#	s	V	A	V	W	V	V	deg C	#	bits
	0	0.013333	3.88864E-001	-6.01697E-003	0.00000E+000	-2.33978E-003	-3.59960E-001	-1.12334E+000	3.57890E+000	10	...........
	1	0.026667	3.77546E-001	-6.01299E-003	0.00000E+000	-2.27018E-003	-3.59960E-001	-1.12350E+000	3.57890E+000	10	...........
	2	0.04	3.67049E-001	-6.01178E-003	0.00000E+000	-2.20662E-003	-3.59960E-001	-1.11615E+000	3.57890E+000	10	...........
	3	0.053333	3.57074E-001	-6.01054E-003	0.00000E+000	-2.14621E-003	-3.59960E-001	-1.12367E+000	3.57890E+000	10	...........
	4	0.066667	3.47514E-001	-6.01266E-003	0.00000E+000	-2.08948E-003	-3.59960E-001	-1.12412E+000	3.57890E+000	10	...........
	5	0.08	3.38181E-001	-6.01735E-003	0.00000E+000	-2.03496E-003	-3.59960E-001	-1.11687E+000	3.57890E+000	10	...........
	6	0.093333	3.29102E-001	-6.01411E-003	0.00000E+000	-1.97925E-003	-3.59960E-001	-1.12384E+000	3.57890E+000	10	...........
	7	0.106667	3.20224E-001	-6.01610E-003	0.00000E+000	-1.92650E-003	-3.59960E-001	-1.12402E+000	3.57890E+000	10	...........
	8	0.12	3.11499E-001	-6.01394E-003	0.00000E+000	-1.87334E-003	-3.59960E-001	-1.11682E+000	3.57890E+000	10	...........
	9	0.133333	3.02868E-001	-6.01318E-003	0.00000E+000	-1.82120E-003	-3.59960E-001	-1.12435E+000	3.57890E+000	10	...........
	10	0.146667	2.94386E-001	-6.01566E-003	0.00000E+000	-1.77093E-003	-3.59960E-001	-1.12468E+000	3.57890E+000	10	...........
	11	0.16	2.86083E-001	-6.01780E-003	0.00000E+000	-1.72159E-003	-3.59960E-001	-1.11709E+000	3.57890E+000	10	...........
	12	0.173333	2.77843E-001	-6.01706E-003	0.00000E+000	-1.67180E-003	-3.59960E-001	-1.12413E+000	3.57890E+000	10	...........
	13	0.186667	2.69737E-001	-6.00979E-003	0.00000E+000	-1.62106E-003	-3.59960E-001	-1.12451E+000	3.57890E+000	10	...........
	14	0.2	2.61738E-001	-6.01432E-003	0.00000E+000	-1.57418E-003	-3.59960E-001	-1.11725E+000	3.57890E+000	10	...........
	15	0.213333	2.53826E-001	-6.01376E-003	0.00000E+000	-1.52645E-003	-3.59960E-001	-1.12437E+000	3.57890E+000	10	...........
	16	0.226667	2.46015E-001	-6.00912E-003	0.00000E+000	-1.47834E-003	-3.59960E-001	-1.12448E+000	3.57890E+000	10	...........
	17	0.24	2.38293E-001	-6.01397E-003	0.00000E+000	-1.43309E-003	-3.59960E-001	-1.11684E+000	3.57890E+000	10	...........
	18	0.253333	2.30702E-001	-6.01413E-003	0.00000E+000	-1.38747E-003	-3.59960E-001	-1.12402E+000	3.57890E+000	10	...........
	19	0.266667	2.23182E-001	-6.01460E-003	0.00000E+000	-1.34235E-003	-3.59960E-001	-1.12449E+000	3.57890E+000	10	...........
	20	0.28	2.15759E-001	-6.01930E-003	0.00000E+000	-1.29872E-003	-3.59960E-001	-1.11718E+000	3.57890E+000	10	...........
	21	0.293333	2.08405E-001	-6.01002E-003	0.00000E+000	-1.25252E-003	-3.59960E-001	-1.12420E+000	3.57890E+000	10	...........
	22	0.306667	2.01138E-001	-6.01711E-003	0.00000E+000	-1.21027E-003	-3.59960E-001	-1.12424E+000	3.57890E+000	10	...........
	23	0.32	1.93948E-001	-6.01689E-003	0.00000E+000	-1.16696E-003	-3.59960E-001	-1.11705E+000	3.57890E+000	10	...........
	24	0.333333	1.86820E-001	-6.01191E-003	0.00000E+000	-1.12314E-003	-3.59960E-001	-1.12428E+000	3.57890E+000	10	...........
	25	0.346667	1.79808E-001	-6.01029E-003	0.00000E+000	-1.08070E-003	-3.59960E-001	-1.12464E+000	3.57890E+000	10	...........
	26	0.36	1.72843E-001	-6.01779E-003	0.00000E+000	-1.04014E-003	-3.59960E-001	-1.11718E+000	3.57890E+000	10	...........
	27	0.373333	1.65983E-001	-6.01433E-003	0.00000E+000	-9.98278E-004	-3.59960E-001	-1.12438E+000	3.57890E+000	10	...........
	28	0.386667	1.59204E-001	-6.01845E-003	0.00000E+000	-9.58159E-004	-3.59960E-001	-1.12469E+000	3.57890E+000	10	...........
	29	0.4	1.52463E-001	-6.01801E-003	0.00000E+000	-9.17522E-004	-3.59960E-001	-1.11742E+000	3.57890E+000	10	...........
	30	0.413333	1.45792E-001	-6.01433E-003	0.00000E+000	-8.76842E-004	-3.59960E-001	-1.12467E+000	3.57890E+000	10	...........
	31	0.426667	1.39156E-001	-6.01779E-003	0.00000E+000	-8.37409E-004	-3.59960E-001	-1.12475E+000	3.57890E+000	10	...........
	32	0.44	1.32645E-001	-6.01681E-003	0.00000E+000	-7.98102E-004	-3.59960E-001	-1.11730E+000	3.57890E+000	10	...........
	33	0.453333	1.26176E-001	-6.01203E-003	0.00000E+000	-7.58575E-004	-3.59960E-001	-1.12468E+000	3.57890E+000	10	...........
	34	0.466667	1.19775E-001	-6.01358E-003	0.00000E+000	-7.20278E-004	-3.59960E-001	-1.12496E+000	3.57890E+000	10	...........
	35	0.48	1.13464E-001	-6.01669E-003	0.00000E+000	-6.82679E-004	-3.59960E-001	-1.11771E+000	3.57890E+000	10	...........
	36	0.493333	1.07196E-001	-6.01837E-003	0.00000E+000	-6.45147E-004	-3.59960E-001	-1.12476E+000	3.57890E+000	10	...........
	37	0.506667	1.00995E-001	-6.01721E-003	0.00000E+000	-6.07707E-004	-3.59960E-001	-1.12513E+000	3.57734E+000	10	...........
	38	0.52	9.48529E-002	-6.01212E-003	0.00000E+000	-5.70267E-004	-3.59960E-001	-1.11758E+000	3.57640E+000	10	...........
	39	0.533333	8.87085E-002	-6.01711E-003	0.00000E+000	-5.33769E-004	-3.59960E-001	-1.12506E+000	3.57640E+000	10	...........
	40	0.546667	8.26993E-002	-6.01623E-003	0.00000E+000	-4.97538E-004	-3.59960E-001	-1.12516E+000	3.57640E+000	10	...........
	41	0.56	7.67097E-002	-6.01638E-003	0.00000E+000	-4.61515E-004	-3.59960E-001	-1.11754E+000	3.57640E+000	10	...........
	42	0.573333	7.07982E-002	-6.01489E-003	0.00000E+000	-4.25843E-004	-3.59960E-001	-1.12443E+000	3.57640E+000	10	...........
	43	0.586667	6.49417E-002	-6.01091E-003	0.00000E+000	-3.90359E-004	-3.59960E-001	-1.12468E+000	3.57640E+000	10	...........
	44	0.6	5.91223E-002	-6.01509E-003	0.00000E+000	-3.55626E-004	-3.59960E-001	-1.11759E+000	3.57640E+000	10	...........
	45	0.613333	5.33993E-002	-6.01248E-003	0.00000E+000	-3.21063E-004	-3.59960E-001	-1.12467E+000	3.57640E+000	10	...........
	46	0.626667	4.77035E-002	-6.00947E-003	0.00000E+000	-2.86673E-004	-3.59960E-001	-1.12484E+000	3.57640E+000	10	...........
	47	0.64	4.20471E-002	-6.01660E-003	0.00000E+000	-2.52981E-004	-3.59960E-001	-1.11731E+000	3.57640E+000	10	...........
	48	0.653333	3.64659E-002	-6.01567E-003	0.00000E+000	-2.19367E-004	-3.59960E-001	-1.12462E+000	3.57640E+000	10	...........
	49	0.666667	3.09372E-002	-6.01214E-003	0.00000E+000	-1.85999E-004	-3.59960E-001	-1.12501E+000	3.57640E+000	10	...........
	50	0.68	2.54508E-002	-6.01643E-003	0.00000E+000	-1.53123E-004	-3.59960E-001	-1.11768E+000	3.57640E+000	10	...........
	51	0.693333	1.99711E-002	-6.01396E-003	0.00000E+000	-1.20105E-004	-3.59960E-001	-1.12474E+000	3.57640E+000	10	...........
	52	0.706667	1.45786E-002	-6.01633E-003	0.00000E+000	-8.77097E-005	-3.59960E-001	-1.12479E+000	3.57640E+000	10	...........
	53	0.72	9.20880E-003	-6.02093E-003	0.00000E+000	-5.54456E-005	-3.59960E-001	-1.11764E+000	3.57640E+000	10	...........
	54	0.733333	3.92185E-003	-6.01934E-003	0.00000E+000	-2.36070E-005	-3.59960E-001	-1.12490E+000	3.57640E+000	10	...........
	55	0.738333	3.15766E-004	-6.01595E-003	0.00000E+000	-1.89964E-006	-3.59960E-001	-1.11350E+000	3.57640E+000	10	...........
STARTTIMEOFFSET	QUANT	1086.232	Start Time Offset (s)
