EXPLAIN
TAG	PWR800_DISCHARGE
TITLE	LABEL	PWR Cyclic Charge Discharge (Cell) - Discharge Step	Test &Identifier
DATE	LABEL	22-6-2017	Date
TIME	LABEL	16:01:16	Time
NOTES	NOTES	3	&Notes...
	supercap test cell
	0.6mg
	6M KOH
PSTAT	PSTAT	IFC5000-01520	Potentiostat
CAPACITY	QUANT	1.00000E-003	Capacity (A-hr)
CELLTYPE	SELECTOR	1	&Cell Type
WORKINGCONNECTION	SELECTOR	0	&Working Lead
MAXDISCHARGETIME	VARIABLEANDUNITS	1.00000E+002	s	1.00000E+002	second(s)	Max &Discharge Time
DISCHARGEMODE	MULTIPARAM	0	6.00000E-003	&Discharge Mode	Constant Current	Amp(s)
SAMPLETIME	QUANT	1.00000E-002	Sa&mple Period (s)
DISCHARGESTOPAT1	MULTIPARAM	3	0.00000E+000	Discharge Stop At &1	Voltage < Limit	V
DISCHARGESTOPAT2	MULTIPARAM	0	0.00000E+000	Discharge Stop At &2	None	N/A
AESBHCSELECTOR	TOGGLE	F	Save Both Half Cells
IRCOMP	TOGGLE	F	IR &Measure
EOC	QUANT	0	Open Circuit (V)
SEQUENCER	TOGGLE	TRUE	Run as Sequence
PSTATMODEL	IQUANT	53	Pstat Model
PSTATSECTION	LABEL	IFC5000-01520	Pstat Section
PSTATSERIALNO	LABEL	01520	Pstat Serial Number
CTRLMODE	IQUANT	0	Control Mode
ELECTROMETER	IQUANT	1	RE=0 or CS=1
IESTAB	IQUANT	0	I/E Stability
CASPEED	IQUANT	4	Control Amp Speed
CONVENTION	IQUANT	1	Current Convention
ICHRANGE	IQUANT	2	Ich Range
ICHRANGEMODE	TOGGLE	T	Ich Auto Range
ICHOFFSETENABLE	TOGGLE	F	Ich Offset Enable
ICHOFFSET	QUANT	0	Ich Offset (V)
ICHFILTER	IQUANT	1	Ich Filter
VCHRANGE	IQUANT	2	Vch Range
VCHRANGEMODE	TOGGLE	T	Vch Auto Range
VCHOFFSETENABLE	TOGGLE	F	Vch Offset Enable
VCHOFFSET	QUANT	0	Vch Offset (V)
VCHFILTER	IQUANT	1	Vch Filter
IERANGELOWERLIMIT	IQUANT	9	I/E Range Lower Limit
IERANGEMODE	TOGGLE	F	I/E AutoRange
IERANGE	IQUANT	10	I/E Range
ACHSELECT	IQUANT	1	Ach Select
ACHRANGE	IQUANT	2	Ach Range
ACHOFFSETENABLE	TOGGLE	F	Ach Offset Enable
ACHOFFSET	QUANT	0	Ach Offset (V)
ACHFILTER	IQUANT	1	Ach Filter
CABLEID	IQUANT	14	Cable ID
DCCALDATE	LABEL	20-10-2016	DC Calibration Date
ACCALDATE	LABEL	12/3/2015	AC Calibration Date
FRAMEWORKVERSION	QUANT	7.01	Framework Version
INSTRUMENTVERSION	LABEL	4.00	Instrument Version
CURVE	TABLE	56
	Pt	T	Vf	Im	Vu	Pwr	Sig	Ach	Temp	IERange	Over
	#	s	V	A	V	W	V	V	deg C	#	bits
	0	0.013333	3.89248E-001	-6.01374E-003	0.00000E+000	-2.34084E-003	-3.59960E-001	-1.11759E+000	3.57780E+000	10	...........
	1	0.026667	3.77935E-001	-6.01379E-003	0.00000E+000	-2.27282E-003	-3.59960E-001	-1.11495E+000	3.57780E+000	10	...........
	2	0.04	3.67423E-001	-6.01343E-003	0.00000E+000	-2.20948E-003	-3.59960E-001	-1.12622E+000	3.57780E+000	10	...........
	3	0.053333	3.57550E-001	-6.00954E-003	0.00000E+000	-2.14871E-003	-3.59960E-001	-1.11793E+000	3.57780E+000	10	...........
	4	0.066667	3.47947E-001	-6.01883E-003	0.00000E+000	-2.09424E-003	-3.59960E-001	-1.11518E+000	3.57780E+000	10	...........
	5	0.08	3.38674E-001	-6.01718E-003	0.00000E+000	-2.03786E-003	-3.59960E-001	-1.12642E+000	3.57780E+000	10	...........
	6	0.093333	3.29604E-001	-6.01081E-003	0.00000E+000	-1.98119E-003	-3.59960E-001	-1.11817E+000	3.57780E+000	10	...........
	7	0.106667	3.20712E-001	-6.01497E-003	0.00000E+000	-1.92907E-003	-3.59960E-001	-1.11572E+000	3.57780E+000	10	...........
	8	0.12	3.11984E-001	-6.01485E-003	0.00000E+000	-1.87653E-003	-3.59960E-001	-1.12668E+000	3.57780E+000	10	...........
	9	0.133333	3.03391E-001	-6.01664E-003	0.00000E+000	-1.82539E-003	-3.59960E-001	-1.11844E+000	3.57780E+000	10	...........
	10	0.146667	2.94951E-001	-6.01729E-003	0.00000E+000	-1.77480E-003	-3.59960E-001	-1.11565E+000	3.57780E+000	10	...........
	11	0.16	2.86654E-001	-6.01744E-003	0.00000E+000	-1.72492E-003	-3.59960E-001	-1.12699E+000	3.57780E+000	10	...........
	12	0.173333	2.78438E-001	-6.01420E-003	0.00000E+000	-1.67458E-003	-3.59960E-001	-1.11850E+000	3.57780E+000	10	...........
	13	0.186667	2.70366E-001	-6.01382E-003	0.00000E+000	-1.62593E-003	-3.59960E-001	-1.11568E+000	3.57780E+000	10	...........
	14	0.2	2.62373E-001	-6.01183E-003	0.00000E+000	-1.57734E-003	-3.59960E-001	-1.12669E+000	3.57780E+000	10	...........
	15	0.213333	2.54482E-001	-6.01357E-003	0.00000E+000	-1.53035E-003	-3.59960E-001	-1.11826E+000	3.57780E+000	10	...........
	16	0.226667	2.46672E-001	-6.01676E-003	0.00000E+000	-1.48417E-003	-3.59960E-001	-1.11579E+000	3.57780E+000	10	...........
	17	0.24	2.39010E-001	-6.01813E-003	0.00000E+000	-1.43839E-003	-3.59960E-001	-1.12701E+000	3.57780E+000	10	...........
	18	0.253333	2.31397E-001	-6.01776E-003	0.00000E+000	-1.39249E-003	-3.59960E-001	-1.11858E+000	3.57780E+000	10	...........
	19	0.266667	2.23884E-001	-6.01803E-003	0.00000E+000	-1.34734E-003	-3.59960E-001	-1.11584E+000	3.57780E+000	10	...........
	20	0.28	2.16458E-001	-6.01535E-003	0.00000E+000	-1.30207E-003	-3.59960E-001	-1.12699E+000	3.57780E+000	10	...........
	21	0.293333	2.09106E-001	-6.01357E-003	0.00000E+000	-1.25747E-003	-3.59960E-001	-1.11873E+000	3.57780E+000	10	...........
	22	0.306667	2.01843E-001	-6.01562E-003	0.00000E+000	-1.21421E-003	-3.59960E-001	-1.11619E+000	3.57780E+000	10	...........
	23	0.32	1.94679E-001	-6.01807E-003	0.00000E+000	-1.17159E-003	-3.59960E-001	-1.12715E+000	3.57780E+000	10	...........
	24	0.333333	1.87579E-001	-6.01480E-003	0.00000E+000	-1.12825E-003	-3.59960E-001	-1.11878E+000	3.57780E+000	10	...........
	25	0.346667	1.80533E-001	-6.01669E-003	0.00000E+000	-1.08621E-003	-3.59960E-001	-1.11630E+000	3.57780E+000	10	...........
	26	0.36	1.73595E-001	-6.01641E-003	0.00000E+000	-1.04442E-003	-3.59960E-001	-1.12730E+000	3.57780E+000	10	...........
	27	0.373333	1.66718E-001	-6.01816E-003	0.00000E+000	-1.00334E-003	-3.59960E-001	-1.11889E+000	3.57780E+000	10	...........
	28	0.386667	1.59937E-001	-6.01695E-003	0.00000E+000	-9.62335E-004	-3.59960E-001	-1.11645E+000	3.57780E+000	10	...........
	29	0.4	1.53231E-001	-6.01535E-003	0.00000E+000	-9.21735E-004	-3.59960E-001	-1.12735E+000	3.57780E+000	10	...........
	30	0.413333	1.46557E-001	-6.01450E-003	0.00000E+000	-8.81468E-004	-3.59960E-001	-1.11918E+000	3.57780E+000	10	...........
	31	0.426667	1.39978E-001	-6.01506E-003	0.00000E+000	-8.41975E-004	-3.59960E-001	-1.11686E+000	3.57780E+000	10	...........
	32	0.44	1.33450E-001	-6.01713E-003	0.00000E+000	-8.02988E-004	-3.59960E-001	-1.12771E+000	3.57780E+000	10	...........
	33	0.453333	1.26964E-001	-6.01166E-003	0.00000E+000	-7.63264E-004	-3.59960E-001	-1.11943E+000	3.57780E+000	10	...........
	34	0.466667	1.20552E-001	-6.02076E-003	0.00000E+000	-7.25813E-004	-3.59960E-001	-1.11658E+000	3.57780E+000	10	...........
	35	0.48	1.14230E-001	-6.01442E-003	0.00000E+000	-6.87028E-004	-3.59960E-001	-1.12756E+000	3.57780E+000	10	...........
	36	0.493333	1.07968E-001	-6.01575E-003	0.00000E+000	-6.49506E-004	-3.59960E-001	-1.11909E+000	3.57780E+000	10	...........
	37	0.506667	1.01794E-001	-6.01552E-003	0.00000E+000	-6.12342E-004	-3.59960E-001	-1.11656E+000	3.57780E+000	10	...........
	38	0.52	9.56489E-002	-6.01800E-003	0.00000E+000	-5.75615E-004	-3.59960E-001	-1.12751E+000	3.57780E+000	10	...........
	39	0.533333	8.95463E-002	-6.01444E-003	0.00000E+000	-5.38571E-004	-3.59960E-001	-1.11909E+000	3.57780E+000	10	...........
	40	0.546667	8.35046E-002	-6.01201E-003	0.00000E+000	-5.02031E-004	-3.59960E-001	-1.11629E+000	3.57780E+000	10	...........
	41	0.56	7.75137E-002	-6.01709E-003	0.00000E+000	-4.66407E-004	-3.59960E-001	-1.12769E+000	3.57780E+000	10	...........
	42	0.573333	7.15945E-002	-6.01577E-003	0.00000E+000	-4.30696E-004	-3.59960E-001	-1.11931E+000	3.57780E+000	10	...........
	43	0.586667	6.57362E-002	-6.01539E-003	0.00000E+000	-3.95429E-004	-3.59960E-001	-1.11665E+000	3.57780E+000	10	...........
	44	0.6	5.99246E-002	-6.01668E-003	0.00000E+000	-3.60547E-004	-3.59960E-001	-1.12753E+000	3.57780E+000	10	...........
	45	0.613333	5.41825E-002	-6.01322E-003	0.00000E+000	-3.25811E-004	-3.59960E-001	-1.11919E+000	3.57780E+000	10	...........
	46	0.626667	4.84943E-002	-6.02067E-003	0.00000E+000	-2.91968E-004	-3.59960E-001	-1.11641E+000	3.57780E+000	10	...........
	47	0.64	4.29008E-002	-6.01023E-003	0.00000E+000	-2.57844E-004	-3.59960E-001	-1.12776E+000	3.57780E+000	10	...........
	48	0.653333	3.72940E-002	-6.01005E-003	0.00000E+000	-2.24139E-004	-3.59960E-001	-1.11941E+000	3.57780E+000	10	...........
	49	0.666667	3.17322E-002	-6.01065E-003	0.00000E+000	-1.90731E-004	-3.59960E-001	-1.11650E+000	3.57780E+000	10	...........
	50	0.68	2.62056E-002	-6.02028E-003	0.00000E+000	-1.57765E-004	-3.59960E-001	-1.12754E+000	3.57780E+000	10	...........
	51	0.693333	2.08203E-002	-6.01239E-003	0.00000E+000	-1.25180E-004	-3.59960E-001	-1.11929E+000	3.57780E+000	10	...........
	52	0.706667	1.54133E-002	-6.01465E-003	0.00000E+000	-9.27059E-005	-3.59960E-001	-1.11687E+000	3.57780E+000	10	...........
	53	0.72	1.00538E-002	-6.01675E-003	0.00000E+000	-6.04912E-005	-3.59960E-001	-1.12783E+000	3.57780E+000	10	...........
	54	0.733333	4.74754E-003	-6.01679E-003	0.00000E+000	-2.85649E-005	-3.59960E-001	-1.11955E+000	3.57780E+000	10	...........
	55	0.74	8.04605E-004	-6.01057E-003	0.00000E+000	-4.83614E-006	-3.59960E-001	-1.12498E+000	3.57780E+000	10	...........
STARTTIMEOFFSET	QUANT	1069.89	Start Time Offset (s)
