EXPLAIN
TAG	PWR800_DISCHARGE
TITLE	LABEL	PWR Cyclic Charge Discharge (Cell) - Discharge Step	Test &Identifier
DATE	LABEL	22-6-2017	Date
TIME	LABEL	15:50:41	Time
NOTES	NOTES	3	&Notes...
	supercap test cell
	0.6mg
	6M KOH
PSTAT	PSTAT	IFC5000-01520	Potentiostat
CAPACITY	QUANT	1.00000E-003	Capacity (A-hr)
CELLTYPE	SELECTOR	1	&Cell Type
WORKINGCONNECTION	SELECTOR	0	&Working Lead
MAXDISCHARGETIME	VARIABLEANDUNITS	1.00000E+002	s	1.00000E+002	second(s)	Max &Discharge Time
DISCHARGEMODE	MULTIPARAM	0	6.00000E-003	&Discharge Mode	Constant Current	Amp(s)
SAMPLETIME	QUANT	1.00000E-002	Sa&mple Period (s)
DISCHARGESTOPAT1	MULTIPARAM	3	0.00000E+000	Discharge Stop At &1	Voltage < Limit	V
DISCHARGESTOPAT2	MULTIPARAM	0	0.00000E+000	Discharge Stop At &2	None	N/A
AESBHCSELECTOR	TOGGLE	F	Save Both Half Cells
IRCOMP	TOGGLE	F	IR &Measure
EOC	QUANT	0	Open Circuit (V)
SEQUENCER	TOGGLE	TRUE	Run as Sequence
PSTATMODEL	IQUANT	53	Pstat Model
PSTATSECTION	LABEL	IFC5000-01520	Pstat Section
PSTATSERIALNO	LABEL	01520	Pstat Serial Number
CTRLMODE	IQUANT	0	Control Mode
ELECTROMETER	IQUANT	1	RE=0 or CS=1
IESTAB	IQUANT	0	I/E Stability
CASPEED	IQUANT	4	Control Amp Speed
CONVENTION	IQUANT	1	Current Convention
ICHRANGE	IQUANT	2	Ich Range
ICHRANGEMODE	TOGGLE	T	Ich Auto Range
ICHOFFSETENABLE	TOGGLE	F	Ich Offset Enable
ICHOFFSET	QUANT	0	Ich Offset (V)
ICHFILTER	IQUANT	1	Ich Filter
VCHRANGE	IQUANT	2	Vch Range
VCHRANGEMODE	TOGGLE	T	Vch Auto Range
VCHOFFSETENABLE	TOGGLE	F	Vch Offset Enable
VCHOFFSET	QUANT	0	Vch Offset (V)
VCHFILTER	IQUANT	1	Vch Filter
IERANGELOWERLIMIT	IQUANT	9	I/E Range Lower Limit
IERANGEMODE	TOGGLE	F	I/E AutoRange
IERANGE	IQUANT	10	I/E Range
ACHSELECT	IQUANT	1	Ach Select
ACHRANGE	IQUANT	2	Ach Range
ACHOFFSETENABLE	TOGGLE	F	Ach Offset Enable
ACHOFFSET	QUANT	0	Ach Offset (V)
ACHFILTER	IQUANT	1	Ach Filter
CABLEID	IQUANT	14	Cable ID
DCCALDATE	LABEL	20-10-2016	DC Calibration Date
ACCALDATE	LABEL	12/3/2015	AC Calibration Date
FRAMEWORKVERSION	QUANT	7.01	Framework Version
INSTRUMENTVERSION	LABEL	4.00	Instrument Version
CURVE	TABLE	60
	Pt	T	Vf	Im	Vu	Pwr	Sig	Ach	Temp	IERange	Over
	#	s	V	A	V	W	V	V	deg C	#	bits
	0	0.013333	4.02476E-001	-6.01077E-003	0.00000E+000	-2.41919E-003	-3.59960E-001	-1.08512E+000	3.57750E+000	10	...........
	1	0.026667	3.91566E-001	-6.01145E-003	0.00000E+000	-2.35388E-003	-3.59960E-001	-1.09142E+000	3.57750E+000	10	...........
	2	0.04	3.81416E-001	-6.01060E-003	0.00000E+000	-2.29254E-003	-3.59960E-001	-1.09362E+000	3.57750E+000	10	...........
	3	0.053333	3.71839E-001	-6.01277E-003	0.00000E+000	-2.23578E-003	-3.59960E-001	-1.08543E+000	3.57750E+000	10	...........
	4	0.066667	3.62552E-001	-6.01756E-003	0.00000E+000	-2.18168E-003	-3.59960E-001	-1.09180E+000	3.57750E+000	10	...........
	5	0.08	3.53581E-001	-6.01353E-003	0.00000E+000	-2.12627E-003	-3.59960E-001	-1.09382E+000	3.57750E+000	10	...........
	6	0.093333	3.44879E-001	-6.00951E-003	0.00000E+000	-2.07255E-003	-3.59960E-001	-1.08548E+000	3.57750E+000	10	...........
	7	0.106667	3.36321E-001	-6.01335E-003	0.00000E+000	-2.02241E-003	-3.59960E-001	-1.09187E+000	3.57750E+000	10	...........
	8	0.12	3.27919E-001	-6.01412E-003	0.00000E+000	-1.97215E-003	-3.59960E-001	-1.09367E+000	3.57750E+000	10	...........
	9	0.133333	3.19641E-001	-6.01521E-003	0.00000E+000	-1.92271E-003	-3.59960E-001	-1.08546E+000	3.57750E+000	10	...........
	10	0.146667	3.11463E-001	-6.01623E-003	0.00000E+000	-1.87383E-003	-3.59960E-001	-1.09186E+000	3.57750E+000	10	...........
	11	0.16	3.03441E-001	-6.01294E-003	0.00000E+000	-1.82457E-003	-3.59960E-001	-1.09366E+000	3.57750E+000	10	...........
	12	0.173333	2.95507E-001	-6.01132E-003	0.00000E+000	-1.77639E-003	-3.59960E-001	-1.08556E+000	3.57750E+000	10	...........
	13	0.186667	2.87713E-001	-6.01575E-003	0.00000E+000	-1.73081E-003	-3.59960E-001	-1.09209E+000	3.57750E+000	10	...........
	14	0.2	2.79993E-001	-6.01641E-003	0.00000E+000	-1.68455E-003	-3.59960E-001	-1.09382E+000	3.57750E+000	10	...........
	15	0.213333	2.72321E-001	-6.01042E-003	0.00000E+000	-1.63676E-003	-3.59960E-001	-1.08587E+000	3.57767E+000	10	...........
	16	0.226667	2.64776E-001	-6.01318E-003	0.00000E+000	-1.59214E-003	-3.59960E-001	-1.09233E+000	3.57770E+000	10	...........
	17	0.24	2.57357E-001	-6.01286E-003	0.00000E+000	-1.54745E-003	-3.59960E-001	-1.09388E+000	3.57770E+000	10	...........
	18	0.253333	2.49975E-001	-6.01571E-003	0.00000E+000	-1.50378E-003	-3.59960E-001	-1.08592E+000	3.57770E+000	10	...........
	19	0.266667	2.42684E-001	-6.01487E-003	0.00000E+000	-1.45971E-003	-3.59960E-001	-1.09243E+000	3.57770E+000	10	...........
	20	0.28	2.35421E-001	-6.01427E-003	0.00000E+000	-1.41588E-003	-3.59960E-001	-1.09417E+000	3.57770E+000	10	...........
	21	0.293333	2.28288E-001	-6.01411E-003	0.00000E+000	-1.37295E-003	-3.59960E-001	-1.08596E+000	3.57770E+000	10	...........
	22	0.306667	2.21231E-001	-6.01108E-003	0.00000E+000	-1.32984E-003	-3.59960E-001	-1.09226E+000	3.57770E+000	10	...........
	23	0.32	2.14250E-001	-6.01453E-003	0.00000E+000	-1.28861E-003	-3.59960E-001	-1.09413E+000	3.57770E+000	10	...........
	24	0.333333	2.07342E-001	-6.01348E-003	0.00000E+000	-1.24685E-003	-3.59960E-001	-1.08645E+000	3.57770E+000	10	...........
	25	0.346667	2.00489E-001	-6.01720E-003	0.00000E+000	-1.20638E-003	-3.59960E-001	-1.09293E+000	3.57770E+000	10	...........
	26	0.36	1.93689E-001	-6.01807E-003	0.00000E+000	-1.16563E-003	-3.59960E-001	-1.09453E+000	3.57770E+000	10	...........
	27	0.373333	1.86996E-001	-6.01704E-003	0.00000E+000	-1.12516E-003	-3.59960E-001	-1.08634E+000	3.57770E+000	10	...........
	28	0.386667	1.80375E-001	-6.01455E-003	0.00000E+000	-1.08487E-003	-3.59960E-001	-1.09297E+000	3.57770E+000	10	...........
	29	0.4	1.73787E-001	-6.01688E-003	0.00000E+000	-1.04566E-003	-3.59960E-001	-1.09470E+000	3.57770E+000	10	...........
	30	0.413333	1.67272E-001	-6.01830E-003	0.00000E+000	-1.00670E-003	-3.59960E-001	-1.08651E+000	3.57770E+000	10	...........
	31	0.426667	1.60824E-001	-6.01492E-003	0.00000E+000	-9.67343E-004	-3.59960E-001	-1.09280E+000	3.57770E+000	10	...........
	32	0.44	1.54421E-001	-6.01168E-003	0.00000E+000	-9.28331E-004	-3.59960E-001	-1.09403E+000	3.57770E+000	10	...........
	33	0.453333	1.48060E-001	-6.01777E-003	0.00000E+000	-8.90993E-004	-3.59960E-001	-1.08604E+000	3.57770E+000	10	...........
	34	0.466667	1.41813E-001	-6.01329E-003	0.00000E+000	-8.52761E-004	-3.59960E-001	-1.09303E+000	3.57770E+000	10	...........
	35	0.48	1.35586E-001	-6.01601E-003	0.00000E+000	-8.15685E-004	-3.59960E-001	-1.09418E+000	3.57770E+000	10	...........
	36	0.493333	1.29432E-001	-6.01607E-003	0.00000E+000	-7.78670E-004	-3.59960E-001	-1.08611E+000	3.57770E+000	10	...........
	37	0.506667	1.23331E-001	-6.01448E-003	0.00000E+000	-7.41774E-004	-3.59960E-001	-1.09277E+000	3.57770E+000	10	...........
	38	0.52	1.17282E-001	-6.01905E-003	0.00000E+000	-7.05924E-004	-3.59960E-001	-1.09416E+000	3.57770E+000	10	...........
	39	0.533333	1.11273E-001	-6.00947E-003	0.00000E+000	-6.68690E-004	-3.59960E-001	-1.08647E+000	3.57770E+000	10	...........
	40	0.546667	1.05331E-001	-6.01268E-003	0.00000E+000	-6.33322E-004	-3.59960E-001	-1.09302E+000	3.57770E+000	10	...........
	41	0.56	9.94352E-002	-6.01488E-003	0.00000E+000	-5.98091E-004	-3.59960E-001	-1.09428E+000	3.57770E+000	10	...........
	42	0.573333	9.35830E-002	-6.01499E-003	0.00000E+000	-5.62902E-004	-3.59960E-001	-1.08625E+000	3.57770E+000	10	...........
	43	0.586667	8.77838E-002	-6.01426E-003	0.00000E+000	-5.27955E-004	-3.59960E-001	-1.09305E+000	3.57770E+000	10	...........
	44	0.6	8.20294E-002	-6.01107E-003	0.00000E+000	-4.93085E-004	-3.59960E-001	-1.09430E+000	3.57770E+000	10	...........
	45	0.613333	7.63578E-002	-6.01464E-003	0.00000E+000	-4.59265E-004	-3.59960E-001	-1.08642E+000	3.57770E+000	10	...........
	46	0.626667	7.07285E-002	-6.01667E-003	0.00000E+000	-4.25550E-004	-3.59960E-001	-1.09294E+000	3.57770E+000	10	...........
	47	0.64	6.51322E-002	-6.01420E-003	0.00000E+000	-3.91718E-004	-3.59960E-001	-1.09430E+000	3.57770E+000	10	...........
	48	0.653333	5.96149E-002	-6.01103E-003	0.00000E+000	-3.58347E-004	-3.59960E-001	-1.08681E+000	3.57770E+000	10	...........
	49	0.666667	5.41144E-002	-6.01539E-003	0.00000E+000	-3.25520E-004	-3.59960E-001	-1.09343E+000	3.57770E+000	10	...........
	50	0.68	4.86841E-002	-6.01401E-003	0.00000E+000	-2.92787E-004	-3.59960E-001	-1.09441E+000	3.57770E+000	10	...........
	51	0.693333	4.32668E-002	-6.01487E-003	0.00000E+000	-2.60244E-004	-3.59960E-001	-1.08666E+000	3.57770E+000	10	...........
	52	0.706667	3.78817E-002	-6.01818E-003	0.00000E+000	-2.27979E-004	-3.59960E-001	-1.09336E+000	3.57770E+000	10	...........
	53	0.72	3.25568E-002	-6.01880E-003	0.00000E+000	-1.95953E-004	-3.59960E-001	-1.09465E+000	3.57770E+000	10	...........
	54	0.733333	2.72484E-002	-6.01367E-003	0.00000E+000	-1.63863E-004	-3.59960E-001	-1.08679E+000	3.57770E+000	10	...........
	55	0.746667	2.20426E-002	-6.01384E-003	0.00000E+000	-1.32561E-004	-3.59960E-001	-1.09338E+000	3.57770E+000	10	...........
	56	0.76	1.68400E-002	-6.01143E-003	0.00000E+000	-1.01233E-004	-3.59960E-001	-1.09397E+000	3.57770E+000	10	...........
	57	0.773333	1.16525E-002	-6.00999E-003	0.00000E+000	-7.00315E-005	-3.59960E-001	-1.08618E+000	3.57770E+000	10	...........
	58	0.786667	6.55601E-003	-6.01233E-003	0.00000E+000	-3.94169E-005	-3.59960E-001	-1.09338E+000	3.57770E+000	10	...........
	59	0.798333	1.75983E-003	-6.01331E-003	0.00000E+000	-1.05824E-005	-3.59960E-001	-1.09358E+000	3.57770E+000	10	...........
STARTTIMEOFFSET	QUANT	650.8281	Start Time Offset (s)
