EXPLAIN
TAG	PWR800_DISCHARGE
TITLE	LABEL	PWR Cyclic Charge Discharge (Cell) - Discharge Step	Test &Identifier
DATE	LABEL	22-6-2017	Date
TIME	LABEL	15:57:08	Time
NOTES	NOTES	3	&Notes...
	supercap test cell
	0.6mg
	6M KOH
PSTAT	PSTAT	IFC5000-01520	Potentiostat
CAPACITY	QUANT	1.00000E-003	Capacity (A-hr)
CELLTYPE	SELECTOR	1	&Cell Type
WORKINGCONNECTION	SELECTOR	0	&Working Lead
MAXDISCHARGETIME	VARIABLEANDUNITS	1.00000E+002	s	1.00000E+002	second(s)	Max &Discharge Time
DISCHARGEMODE	MULTIPARAM	0	6.00000E-003	&Discharge Mode	Constant Current	Amp(s)
SAMPLETIME	QUANT	1.00000E-002	Sa&mple Period (s)
DISCHARGESTOPAT1	MULTIPARAM	3	0.00000E+000	Discharge Stop At &1	Voltage < Limit	V
DISCHARGESTOPAT2	MULTIPARAM	0	0.00000E+000	Discharge Stop At &2	None	N/A
AESBHCSELECTOR	TOGGLE	F	Save Both Half Cells
IRCOMP	TOGGLE	F	IR &Measure
EOC	QUANT	0	Open Circuit (V)
SEQUENCER	TOGGLE	TRUE	Run as Sequence
PSTATMODEL	IQUANT	53	Pstat Model
PSTATSECTION	LABEL	IFC5000-01520	Pstat Section
PSTATSERIALNO	LABEL	01520	Pstat Serial Number
CTRLMODE	IQUANT	0	Control Mode
ELECTROMETER	IQUANT	1	RE=0 or CS=1
IESTAB	IQUANT	0	I/E Stability
CASPEED	IQUANT	4	Control Amp Speed
CONVENTION	IQUANT	1	Current Convention
ICHRANGE	IQUANT	2	Ich Range
ICHRANGEMODE	TOGGLE	T	Ich Auto Range
ICHOFFSETENABLE	TOGGLE	F	Ich Offset Enable
ICHOFFSET	QUANT	0	Ich Offset (V)
ICHFILTER	IQUANT	1	Ich Filter
VCHRANGE	IQUANT	2	Vch Range
VCHRANGEMODE	TOGGLE	T	Vch Auto Range
VCHOFFSETENABLE	TOGGLE	F	Vch Offset Enable
VCHOFFSET	QUANT	0	Vch Offset (V)
VCHFILTER	IQUANT	1	Vch Filter
IERANGELOWERLIMIT	IQUANT	9	I/E Range Lower Limit
IERANGEMODE	TOGGLE	F	I/E AutoRange
IERANGE	IQUANT	10	I/E Range
ACHSELECT	IQUANT	1	Ach Select
ACHRANGE	IQUANT	2	Ach Range
ACHOFFSETENABLE	TOGGLE	F	Ach Offset Enable
ACHOFFSET	QUANT	0	Ach Offset (V)
ACHFILTER	IQUANT	1	Ach Filter
CABLEID	IQUANT	14	Cable ID
DCCALDATE	LABEL	20-10-2016	DC Calibration Date
ACCALDATE	LABEL	12/3/2015	AC Calibration Date
FRAMEWORKVERSION	QUANT	7.01	Framework Version
INSTRUMENTVERSION	LABEL	4.00	Instrument Version
CURVE	TABLE	57
	Pt	T	Vf	Im	Vu	Pwr	Sig	Ach	Temp	IERange	Over
	#	s	V	A	V	W	V	V	deg C	#	bits
	0	0.013333	3.94076E-001	-6.01028E-003	0.00000E+000	-2.36851E-003	-3.59960E-001	-1.10063E+000	3.57790E+000	10	...........
	1	0.026667	3.82913E-001	-6.01803E-003	0.00000E+000	-2.30438E-003	-3.59960E-001	-1.11185E+000	3.57790E+000	10	...........
	2	0.04	3.72547E-001	-6.01494E-003	0.00000E+000	-2.24085E-003	-3.59960E-001	-1.10341E+000	3.57790E+000	10	...........
	3	0.053333	3.62718E-001	-6.01158E-003	0.00000E+000	-2.18051E-003	-3.59960E-001	-1.10108E+000	3.57790E+000	10	...........
	4	0.066667	3.53229E-001	-6.01582E-003	0.00000E+000	-2.12496E-003	-3.59960E-001	-1.11236E+000	3.57790E+000	10	...........
	5	0.08	3.44045E-001	-6.01066E-003	0.00000E+000	-2.06794E-003	-3.59960E-001	-1.10362E+000	3.57790E+000	10	...........
	6	0.093333	3.35082E-001	-6.01586E-003	0.00000E+000	-2.01581E-003	-3.59960E-001	-1.10117E+000	3.57790E+000	10	...........
	7	0.106667	3.26287E-001	-6.01561E-003	0.00000E+000	-1.96282E-003	-3.59960E-001	-1.11252E+000	3.57790E+000	10	...........
	8	0.12	3.17675E-001	-6.01130E-003	0.00000E+000	-1.90964E-003	-3.59960E-001	-1.10403E+000	3.57790E+000	10	...........
	9	0.133333	3.09203E-001	-6.01423E-003	0.00000E+000	-1.85962E-003	-3.59960E-001	-1.10111E+000	3.57790E+000	10	...........
	10	0.146667	3.00859E-001	-6.01817E-003	0.00000E+000	-1.81062E-003	-3.59960E-001	-1.11228E+000	3.57790E+000	10	...........
	11	0.16	2.92651E-001	-6.01177E-003	0.00000E+000	-1.75935E-003	-3.59960E-001	-1.10364E+000	3.57790E+000	10	...........
	12	0.173333	2.84538E-001	-6.01578E-003	0.00000E+000	-1.71172E-003	-3.59960E-001	-1.10137E+000	3.57790E+000	10	...........
	13	0.186667	2.76502E-001	-6.01872E-003	0.00000E+000	-1.66419E-003	-3.59960E-001	-1.11270E+000	3.57790E+000	10	...........
	14	0.2	2.68619E-001	-6.01733E-003	0.00000E+000	-1.61637E-003	-3.59960E-001	-1.10418E+000	3.57790E+000	10	...........
	15	0.213333	2.60779E-001	-6.01687E-003	0.00000E+000	-1.56907E-003	-3.59960E-001	-1.10143E+000	3.57790E+000	10	...........
	16	0.226667	2.53117E-001	-6.01163E-003	0.00000E+000	-1.52165E-003	-3.59960E-001	-1.11251E+000	3.57790E+000	10	...........
	17	0.24	2.45488E-001	-6.01877E-003	0.00000E+000	-1.47754E-003	-3.59960E-001	-1.10452E+000	3.57790E+000	10	...........
	18	0.253333	2.37933E-001	-6.01791E-003	0.00000E+000	-1.43186E-003	-3.59960E-001	-1.10192E+000	3.57790E+000	10	...........
	19	0.266667	2.30467E-001	-6.01570E-003	0.00000E+000	-1.38642E-003	-3.59960E-001	-1.11304E+000	3.57790E+000	10	...........
	20	0.28	2.23110E-001	-6.01620E-003	0.00000E+000	-1.34227E-003	-3.59960E-001	-1.10460E+000	3.57790E+000	10	...........
	21	0.293333	2.15825E-001	-6.01608E-003	0.00000E+000	-1.29842E-003	-3.59960E-001	-1.10184E+000	3.57790E+000	10	...........
	22	0.306667	2.08645E-001	-6.01116E-003	0.00000E+000	-1.25420E-003	-3.59960E-001	-1.11336E+000	3.57790E+000	10	...........
	23	0.32	2.01481E-001	-6.01567E-003	0.00000E+000	-1.21204E-003	-3.59960E-001	-1.10501E+000	3.57790E+000	10	...........
	24	0.333333	1.94428E-001	-6.00933E-003	0.00000E+000	-1.16838E-003	-3.59960E-001	-1.10235E+000	3.57790E+000	10	...........
	25	0.346667	1.87472E-001	-6.01482E-003	0.00000E+000	-1.12761E-003	-3.59960E-001	-1.11357E+000	3.57790E+000	10	...........
	26	0.36	1.80586E-001	-6.01705E-003	0.00000E+000	-1.08660E-003	-3.59960E-001	-1.10526E+000	3.57790E+000	10	...........
	27	0.373333	1.73792E-001	-6.01035E-003	0.00000E+000	-1.04455E-003	-3.59960E-001	-1.10268E+000	3.57790E+000	10	...........
	28	0.386667	1.67041E-001	-6.01947E-003	0.00000E+000	-1.00550E-003	-3.59960E-001	-1.11390E+000	3.57790E+000	10	...........
	29	0.4	1.60338E-001	-6.02006E-003	0.00000E+000	-9.65245E-004	-3.59960E-001	-1.10580E+000	3.57790E+000	10	...........
	30	0.413333	1.53755E-001	-6.01576E-003	0.00000E+000	-9.24955E-004	-3.59960E-001	-1.10274E+000	3.57790E+000	10	...........
	31	0.426667	1.47227E-001	-6.01363E-003	0.00000E+000	-8.85368E-004	-3.59960E-001	-1.11391E+000	3.57790E+000	10	...........
	32	0.44	1.40717E-001	-6.01614E-003	0.00000E+000	-8.46573E-004	-3.59960E-001	-1.10574E+000	3.57790E+000	10	...........
	33	0.453333	1.34308E-001	-6.01154E-003	0.00000E+000	-8.07400E-004	-3.59960E-001	-1.10260E+000	3.57790E+000	10	...........
	34	0.466667	1.27920E-001	-6.01087E-003	0.00000E+000	-7.68908E-004	-3.59960E-001	-1.11380E+000	3.57790E+000	10	...........
	35	0.48	1.21595E-001	-6.01514E-003	0.00000E+000	-7.31413E-004	-3.59960E-001	-1.10537E+000	3.57790E+000	10	...........
	36	0.493333	1.15400E-001	-6.01634E-003	0.00000E+000	-6.94283E-004	-3.59960E-001	-1.10244E+000	3.57790E+000	10	...........
	37	0.506667	1.09237E-001	-6.01683E-003	0.00000E+000	-6.57262E-004	-3.59960E-001	-1.11400E+000	3.57790E+000	10	...........
	38	0.52	1.03123E-001	-6.01419E-003	0.00000E+000	-6.20200E-004	-3.59960E-001	-1.10558E+000	3.57790E+000	10	...........
	39	0.533333	9.70585E-002	-6.01414E-003	0.00000E+000	-5.83723E-004	-3.59960E-001	-1.10290E+000	3.57790E+000	10	...........
	40	0.546667	9.10157E-002	-6.01772E-003	0.00000E+000	-5.47707E-004	-3.59960E-001	-1.11373E+000	3.57790E+000	10	...........
	41	0.56	8.51061E-002	-6.01613E-003	0.00000E+000	-5.12009E-004	-3.59960E-001	-1.10539E+000	3.57790E+000	10	...........
	42	0.573333	7.92722E-002	-6.01590E-003	0.00000E+000	-4.76894E-004	-3.59960E-001	-1.10308E+000	3.57659E+000	10	...........
	43	0.586667	7.34391E-002	-6.01553E-003	0.00000E+000	-4.41775E-004	-3.59960E-001	-1.11429E+000	3.57640E+000	10	...........
	44	0.6	6.76352E-002	-6.01509E-003	0.00000E+000	-4.06832E-004	-3.59960E-001	-1.10579E+000	3.57640E+000	10	...........
	45	0.613333	6.18947E-002	-6.01434E-003	0.00000E+000	-3.72256E-004	-3.59960E-001	-1.10281E+000	3.57640E+000	10	...........
	46	0.626667	5.62096E-002	-6.01272E-003	0.00000E+000	-3.37973E-004	-3.59960E-001	-1.11402E+000	3.57640E+000	10	...........
	47	0.64	5.05598E-002	-6.01695E-003	0.00000E+000	-3.04216E-004	-3.59960E-001	-1.10585E+000	3.57640E+000	10	...........
	48	0.653333	4.50299E-002	-6.01526E-003	0.00000E+000	-2.70867E-004	-3.59960E-001	-1.10306E+000	3.57640E+000	10	...........
	49	0.666667	3.94969E-002	-6.01924E-003	0.00000E+000	-2.37741E-004	-3.59960E-001	-1.11426E+000	3.57640E+000	10	...........
	50	0.68	3.40371E-002	-6.01356E-003	0.00000E+000	-2.04684E-004	-3.59960E-001	-1.10596E+000	3.57640E+000	10	...........
	51	0.693333	2.85806E-002	-6.01550E-003	0.00000E+000	-1.71926E-004	-3.59960E-001	-1.10314E+000	3.57640E+000	10	...........
	52	0.706667	2.32148E-002	-6.01610E-003	0.00000E+000	-1.39663E-004	-3.59960E-001	-1.11426E+000	3.57640E+000	10	...........
	53	0.72	1.78764E-002	-6.01532E-003	0.00000E+000	-1.07532E-004	-3.59960E-001	-1.10602E+000	3.57640E+000	10	...........
	54	0.733333	1.25491E-002	-6.01517E-003	0.00000E+000	-7.54850E-005	-3.59960E-001	-1.10324E+000	3.57640E+000	10	...........
	55	0.746667	7.28423E-003	-6.01022E-003	0.00000E+000	-4.37798E-005	-3.59960E-001	-1.11419E+000	3.57640E+000	10	...........
	56	0.76	2.09129E-003	-6.01492E-003	0.00000E+000	-1.25789E-005	-3.59960E-001	-1.10606E+000	3.57640E+000	10	...........
STARTTIMEOFFSET	QUANT	907.3416	Start Time Offset (s)
