EXPLAIN
TAG	PWR800_DISCHARGE
TITLE	LABEL	PWR Cyclic Charge Discharge (Cell) - Discharge Step	Test &Identifier
DATE	LABEL	22-6-2017	Date
TIME	LABEL	15:54:57	Time
NOTES	NOTES	3	&Notes...
	supercap test cell
	0.6mg
	6M KOH
PSTAT	PSTAT	IFC5000-01520	Potentiostat
CAPACITY	QUANT	1.00000E-003	Capacity (A-hr)
CELLTYPE	SELECTOR	1	&Cell Type
WORKINGCONNECTION	SELECTOR	0	&Working Lead
MAXDISCHARGETIME	VARIABLEANDUNITS	1.00000E+002	s	1.00000E+002	second(s)	Max &Discharge Time
DISCHARGEMODE	MULTIPARAM	0	6.00000E-003	&Discharge Mode	Constant Current	Amp(s)
SAMPLETIME	QUANT	1.00000E-002	Sa&mple Period (s)
DISCHARGESTOPAT1	MULTIPARAM	3	0.00000E+000	Discharge Stop At &1	Voltage < Limit	V
DISCHARGESTOPAT2	MULTIPARAM	0	0.00000E+000	Discharge Stop At &2	None	N/A
AESBHCSELECTOR	TOGGLE	F	Save Both Half Cells
IRCOMP	TOGGLE	F	IR &Measure
EOC	QUANT	0	Open Circuit (V)
SEQUENCER	TOGGLE	TRUE	Run as Sequence
PSTATMODEL	IQUANT	53	Pstat Model
PSTATSECTION	LABEL	IFC5000-01520	Pstat Section
PSTATSERIALNO	LABEL	01520	Pstat Serial Number
CTRLMODE	IQUANT	0	Control Mode
ELECTROMETER	IQUANT	1	RE=0 or CS=1
IESTAB	IQUANT	0	I/E Stability
CASPEED	IQUANT	4	Control Amp Speed
CONVENTION	IQUANT	1	Current Convention
ICHRANGE	IQUANT	2	Ich Range
ICHRANGEMODE	TOGGLE	T	Ich Auto Range
ICHOFFSETENABLE	TOGGLE	F	Ich Offset Enable
ICHOFFSET	QUANT	0	Ich Offset (V)
ICHFILTER	IQUANT	1	Ich Filter
VCHRANGE	IQUANT	2	Vch Range
VCHRANGEMODE	TOGGLE	T	Vch Auto Range
VCHOFFSETENABLE	TOGGLE	F	Vch Offset Enable
VCHOFFSET	QUANT	0	Vch Offset (V)
VCHFILTER	IQUANT	1	Vch Filter
IERANGELOWERLIMIT	IQUANT	9	I/E Range Lower Limit
IERANGEMODE	TOGGLE	F	I/E AutoRange
IERANGE	IQUANT	10	I/E Range
ACHSELECT	IQUANT	1	Ach Select
ACHRANGE	IQUANT	2	Ach Range
ACHOFFSETENABLE	TOGGLE	F	Ach Offset Enable
ACHOFFSET	QUANT	0	Ach Offset (V)
ACHFILTER	IQUANT	1	Ach Filter
CABLEID	IQUANT	14	Cable ID
DCCALDATE	LABEL	20-10-2016	DC Calibration Date
ACCALDATE	LABEL	12/3/2015	AC Calibration Date
FRAMEWORKVERSION	QUANT	7.01	Framework Version
INSTRUMENTVERSION	LABEL	4.00	Instrument Version
CURVE	TABLE	58
	Pt	T	Vf	Im	Vu	Pwr	Sig	Ach	Temp	IERange	Over
	#	s	V	A	V	W	V	V	deg C	#	bits
	0	0.013333	3.95954E-001	-6.02098E-003	0.00000E+000	-2.38403E-003	-3.59960E-001	-1.10805E+000	3.57790E+000	10	...........
	1	0.026667	3.84890E-001	-6.01584E-003	0.00000E+000	-2.31544E-003	-3.59960E-001	-1.11224E+000	3.57790E+000	10	...........
	2	0.04	3.74653E-001	-6.01601E-003	0.00000E+000	-2.25391E-003	-3.59960E-001	-1.11758E+000	3.57790E+000	10	...........
	3	0.053333	3.64895E-001	-6.01257E-003	0.00000E+000	-2.19396E-003	-3.59960E-001	-1.10856E+000	3.57790E+000	10	...........
	4	0.066667	3.55549E-001	-6.01396E-003	0.00000E+000	-2.13826E-003	-3.59960E-001	-1.11269E+000	3.57790E+000	10	...........
	5	0.08	3.46443E-001	-6.01240E-003	0.00000E+000	-2.08295E-003	-3.59960E-001	-1.11759E+000	3.57790E+000	10	...........
	6	0.093333	3.37560E-001	-6.01380E-003	0.00000E+000	-2.03002E-003	-3.59960E-001	-1.10878E+000	3.57790E+000	10	...........
	7	0.106667	3.28870E-001	-6.01824E-003	0.00000E+000	-1.97922E-003	-3.59960E-001	-1.11346E+000	3.57790E+000	10	...........
	8	0.12	3.20316E-001	-6.01585E-003	0.00000E+000	-1.92698E-003	-3.59960E-001	-1.11773E+000	3.57790E+000	10	...........
	9	0.133333	3.11890E-001	-6.01673E-003	0.00000E+000	-1.87655E-003	-3.59960E-001	-1.10896E+000	3.57790E+000	10	...........
	10	0.146667	3.03609E-001	-6.01016E-003	0.00000E+000	-1.82474E-003	-3.59960E-001	-1.11345E+000	3.57790E+000	10	...........
	11	0.16	2.95433E-001	-6.01776E-003	0.00000E+000	-1.77785E-003	-3.59960E-001	-1.11812E+000	3.57790E+000	10	...........
	12	0.173333	2.87423E-001	-6.01205E-003	0.00000E+000	-1.72800E-003	-3.59960E-001	-1.10948E+000	3.57790E+000	10	...........
	13	0.186667	2.79483E-001	-6.01367E-003	0.00000E+000	-1.68072E-003	-3.59960E-001	-1.11396E+000	3.57790E+000	10	...........
	14	0.2	2.71620E-001	-6.01422E-003	0.00000E+000	-1.63358E-003	-3.59960E-001	-1.11797E+000	3.57790E+000	10	...........
	15	0.213333	2.63871E-001	-6.01410E-003	0.00000E+000	-1.58694E-003	-3.59960E-001	-1.10954E+000	3.57790E+000	10	...........
	16	0.226667	2.56232E-001	-6.01785E-003	0.00000E+000	-1.54197E-003	-3.59960E-001	-1.11432E+000	3.57790E+000	10	...........
	17	0.24	2.48682E-001	-6.01442E-003	0.00000E+000	-1.49568E-003	-3.59960E-001	-1.11836E+000	3.57790E+000	10	...........
	18	0.253333	2.41211E-001	-6.01446E-003	0.00000E+000	-1.45075E-003	-3.59960E-001	-1.10987E+000	3.57790E+000	10	...........
	19	0.266667	2.33809E-001	-6.01212E-003	0.00000E+000	-1.40568E-003	-3.59960E-001	-1.11450E+000	3.57790E+000	10	...........
	20	0.28	2.26485E-001	-6.01737E-003	0.00000E+000	-1.36284E-003	-3.59960E-001	-1.11800E+000	3.57790E+000	10	...........
	21	0.293333	2.19285E-001	-6.01241E-003	0.00000E+000	-1.31843E-003	-3.59960E-001	-1.10959E+000	3.57790E+000	10	...........
	22	0.306667	2.12171E-001	-6.01429E-003	0.00000E+000	-1.27605E-003	-3.59960E-001	-1.11471E+000	3.57790E+000	10	...........
	23	0.32	2.05090E-001	-6.01424E-003	0.00000E+000	-1.23346E-003	-3.59960E-001	-1.11810E+000	3.57790E+000	10	...........
	24	0.333333	1.98102E-001	-6.01320E-003	0.00000E+000	-1.19123E-003	-3.59960E-001	-1.10983E+000	3.57790E+000	10	...........
	25	0.346667	1.91156E-001	-6.01885E-003	0.00000E+000	-1.15054E-003	-3.59960E-001	-1.11500E+000	3.57790E+000	10	...........
	26	0.36	1.84340E-001	-6.01469E-003	0.00000E+000	-1.10875E-003	-3.59960E-001	-1.11807E+000	3.57790E+000	10	...........
	27	0.373333	1.77561E-001	-6.01398E-003	0.00000E+000	-1.06785E-003	-3.59960E-001	-1.10975E+000	3.57790E+000	10	...........
	28	0.386667	1.70850E-001	-6.01393E-003	0.00000E+000	-1.02748E-003	-3.59960E-001	-1.11525E+000	3.57790E+000	10	...........
	29	0.4	1.64216E-001	-6.01625E-003	0.00000E+000	-9.87965E-004	-3.59960E-001	-1.11801E+000	3.57790E+000	10	...........
	30	0.413333	1.57639E-001	-6.01535E-003	0.00000E+000	-9.48253E-004	-3.59960E-001	-1.11008E+000	3.57790E+000	10	...........
	31	0.426667	1.51108E-001	-6.01719E-003	0.00000E+000	-9.09242E-004	-3.59960E-001	-1.11578E+000	3.57790E+000	10	...........
	32	0.44	1.44667E-001	-6.01589E-003	0.00000E+000	-8.70299E-004	-3.59960E-001	-1.11811E+000	3.57790E+000	10	...........
	33	0.453333	1.38297E-001	-6.01724E-003	0.00000E+000	-8.32165E-004	-3.59960E-001	-1.11017E+000	3.57790E+000	10	...........
	34	0.466667	1.31966E-001	-6.01347E-003	0.00000E+000	-7.93575E-004	-3.59960E-001	-1.11602E+000	3.57790E+000	10	...........
	35	0.48	1.25703E-001	-6.01079E-003	0.00000E+000	-7.55576E-004	-3.59960E-001	-1.11823E+000	3.57790E+000	10	...........
	36	0.493333	1.19519E-001	-6.01858E-003	0.00000E+000	-7.19337E-004	-3.59960E-001	-1.11059E+000	3.57790E+000	10	...........
	37	0.506667	1.13379E-001	-6.01263E-003	0.00000E+000	-6.81705E-004	-3.59960E-001	-1.11653E+000	3.57776E+000	10	...........
	38	0.52	1.07254E-001	-6.01745E-003	0.00000E+000	-6.45392E-004	-3.59960E-001	-1.11841E+000	3.57680E+000	10	...........
	39	0.533333	1.01236E-001	-6.01539E-003	0.00000E+000	-6.08974E-004	-3.59960E-001	-1.11054E+000	3.57680E+000	10	...........
	40	0.546667	9.52812E-002	-6.01423E-003	0.00000E+000	-5.73043E-004	-3.59960E-001	-1.11670E+000	3.57680E+000	10	...........
	41	0.56	8.93358E-002	-6.01049E-003	0.00000E+000	-5.36952E-004	-3.59960E-001	-1.11822E+000	3.57680E+000	10	...........
	42	0.573333	8.34859E-002	-6.01359E-003	0.00000E+000	-5.02049E-004	-3.59960E-001	-1.11039E+000	3.57680E+000	10	...........
	43	0.586667	7.76806E-002	-6.01182E-003	0.00000E+000	-4.67002E-004	-3.59960E-001	-1.11651E+000	3.57680E+000	10	...........
	44	0.6	7.18961E-002	-6.01440E-003	0.00000E+000	-4.32412E-004	-3.59960E-001	-1.11791E+000	3.57680E+000	10	...........
	45	0.613333	6.61758E-002	-6.01639E-003	0.00000E+000	-3.98140E-004	-3.59960E-001	-1.11013E+000	3.57680E+000	10	...........
	46	0.626667	6.04865E-002	-6.01097E-003	0.00000E+000	-3.63582E-004	-3.59960E-001	-1.11700E+000	3.57680E+000	10	...........
	47	0.64	5.49130E-002	-6.01443E-003	0.00000E+000	-3.30270E-004	-3.59960E-001	-1.11787E+000	3.57680E+000	10	...........
	48	0.653333	4.93452E-002	-6.01239E-003	0.00000E+000	-2.96682E-004	-3.59960E-001	-1.11052E+000	3.57680E+000	10	...........
	49	0.666667	4.38830E-002	-6.01320E-003	0.00000E+000	-2.63877E-004	-3.59960E-001	-1.11716E+000	3.57680E+000	10	...........
	50	0.68	3.83706E-002	-6.01520E-003	0.00000E+000	-2.30807E-004	-3.59960E-001	-1.11803E+000	3.57680E+000	10	...........
	51	0.693333	3.29582E-002	-6.01774E-003	0.00000E+000	-1.98334E-004	-3.59960E-001	-1.11059E+000	3.57680E+000	10	...........
	52	0.706667	2.76076E-002	-6.01539E-003	0.00000E+000	-1.66070E-004	-3.59960E-001	-1.11744E+000	3.57680E+000	10	...........
	53	0.72	2.22673E-002	-6.01227E-003	0.00000E+000	-1.33877E-004	-3.59960E-001	-1.11792E+000	3.57680E+000	10	...........
	54	0.733333	1.69407E-002	-6.01566E-003	0.00000E+000	-1.01910E-004	-3.59960E-001	-1.11058E+000	3.57680E+000	10	...........
	55	0.746667	1.16755E-002	-6.01684E-003	0.00000E+000	-7.02499E-005	-3.59960E-001	-1.11744E+000	3.57680E+000	10	...........
	56	0.76	6.47641E-003	-6.01728E-003	0.00000E+000	-3.89703E-005	-3.59960E-001	-1.11763E+000	3.57680E+000	10	...........
	57	0.771667	1.64856E-003	-6.01543E-003	0.00000E+000	-9.91682E-006	-3.59960E-001	-1.10872E+000	3.57680E+000	10	...........
STARTTIMEOFFSET	QUANT	821.1669	Start Time Offset (s)
