EXPLAIN
TAG	PWR800_DISCHARGE
TITLE	LABEL	PWR Cyclic Charge Discharge (Cell) - Discharge Step	Test &Identifier
DATE	LABEL	22-6-2017	Date
TIME	LABEL	16:06:06	Time
NOTES	NOTES	3	&Notes...
	supercap test cell
	0.6mg
	6M KOH
PSTAT	PSTAT	IFC5000-01520	Potentiostat
CAPACITY	QUANT	1.00000E-003	Capacity (A-hr)
CELLTYPE	SELECTOR	1	&Cell Type
WORKINGCONNECTION	SELECTOR	0	&Working Lead
MAXDISCHARGETIME	VARIABLEANDUNITS	1.00000E+002	s	1.00000E+002	second(s)	Max &Discharge Time
DISCHARGEMODE	MULTIPARAM	0	6.00000E-003	&Discharge Mode	Constant Current	Amp(s)
SAMPLETIME	QUANT	1.00000E-002	Sa&mple Period (s)
DISCHARGESTOPAT1	MULTIPARAM	3	0.00000E+000	Discharge Stop At &1	Voltage < Limit	V
DISCHARGESTOPAT2	MULTIPARAM	0	0.00000E+000	Discharge Stop At &2	None	N/A
AESBHCSELECTOR	TOGGLE	F	Save Both Half Cells
IRCOMP	TOGGLE	F	IR &Measure
EOC	QUANT	0	Open Circuit (V)
SEQUENCER	TOGGLE	TRUE	Run as Sequence
PSTATMODEL	IQUANT	53	Pstat Model
PSTATSECTION	LABEL	IFC5000-01520	Pstat Section
PSTATSERIALNO	LABEL	01520	Pstat Serial Number
CTRLMODE	IQUANT	0	Control Mode
ELECTROMETER	IQUANT	1	RE=0 or CS=1
IESTAB	IQUANT	0	I/E Stability
CASPEED	IQUANT	4	Control Amp Speed
CONVENTION	IQUANT	1	Current Convention
ICHRANGE	IQUANT	2	Ich Range
ICHRANGEMODE	TOGGLE	T	Ich Auto Range
ICHOFFSETENABLE	TOGGLE	F	Ich Offset Enable
ICHOFFSET	QUANT	0	Ich Offset (V)
ICHFILTER	IQUANT	1	Ich Filter
VCHRANGE	IQUANT	2	Vch Range
VCHRANGEMODE	TOGGLE	T	Vch Auto Range
VCHOFFSETENABLE	TOGGLE	F	Vch Offset Enable
VCHOFFSET	QUANT	0	Vch Offset (V)
VCHFILTER	IQUANT	1	Vch Filter
IERANGELOWERLIMIT	IQUANT	9	I/E Range Lower Limit
IERANGEMODE	TOGGLE	F	I/E AutoRange
IERANGE	IQUANT	10	I/E Range
ACHSELECT	IQUANT	1	Ach Select
ACHRANGE	IQUANT	2	Ach Range
ACHOFFSETENABLE	TOGGLE	F	Ach Offset Enable
ACHOFFSET	QUANT	0	Ach Offset (V)
ACHFILTER	IQUANT	1	Ach Filter
CABLEID	IQUANT	14	Cable ID
DCCALDATE	LABEL	20-10-2016	DC Calibration Date
ACCALDATE	LABEL	12/3/2015	AC Calibration Date
FRAMEWORKVERSION	QUANT	7.01	Framework Version
INSTRUMENTVERSION	LABEL	4.00	Instrument Version
CURVE	TABLE	54
	Pt	T	Vf	Im	Vu	Pwr	Sig	Ach	Temp	IERange	Over
	#	s	V	A	V	W	V	V	deg C	#	bits
	0	0.013333	3.84017E-001	-6.01166E-003	0.00000E+000	-2.30858E-003	-3.59960E-001	-1.12844E+000	3.57720E+000	10	...........
	1	0.026667	3.72573E-001	-6.01840E-003	0.00000E+000	-2.24229E-003	-3.59960E-001	-1.13879E+000	3.57720E+000	10	...........
	2	0.04	3.61932E-001	-6.01511E-003	0.00000E+000	-2.17706E-003	-3.59960E-001	-1.13300E+000	3.57720E+000	10	...........
	3	0.053333	3.51865E-001	-6.01252E-003	0.00000E+000	-2.11560E-003	-3.59960E-001	-1.12835E+000	3.57720E+000	10	...........
	4	0.066667	3.42150E-001	-6.01300E-003	0.00000E+000	-2.05735E-003	-3.59960E-001	-1.13904E+000	3.57720E+000	10	...........
	5	0.08	3.32724E-001	-6.01529E-003	0.00000E+000	-2.00143E-003	-3.59960E-001	-1.13336E+000	3.57720E+000	10	...........
	6	0.093333	3.23556E-001	-6.01752E-003	0.00000E+000	-1.94700E-003	-3.59960E-001	-1.12919E+000	3.57720E+000	10	...........
	7	0.106667	3.14573E-001	-6.01428E-003	0.00000E+000	-1.89193E-003	-3.59960E-001	-1.13956E+000	3.57720E+000	10	...........
	8	0.12	3.05726E-001	-6.02020E-003	0.00000E+000	-1.84053E-003	-3.59960E-001	-1.13362E+000	3.57720E+000	10	...........
	9	0.133333	2.97029E-001	-6.01331E-003	0.00000E+000	-1.78613E-003	-3.59960E-001	-1.12936E+000	3.57720E+000	10	...........
	10	0.146667	2.88428E-001	-6.01325E-003	0.00000E+000	-1.73439E-003	-3.59960E-001	-1.13992E+000	3.57720E+000	10	...........
	11	0.16	2.79997E-001	-6.01397E-003	0.00000E+000	-1.68390E-003	-3.59960E-001	-1.13380E+000	3.57720E+000	10	...........
	12	0.173333	2.71657E-001	-6.01504E-003	0.00000E+000	-1.63403E-003	-3.59960E-001	-1.12926E+000	3.57720E+000	10	...........
	13	0.186667	2.63441E-001	-6.01459E-003	0.00000E+000	-1.58449E-003	-3.59960E-001	-1.13964E+000	3.57720E+000	10	...........
	14	0.2	2.55355E-001	-6.01880E-003	0.00000E+000	-1.53693E-003	-3.59960E-001	-1.13341E+000	3.57720E+000	10	...........
	15	0.213333	2.47357E-001	-6.01181E-003	0.00000E+000	-1.48707E-003	-3.59960E-001	-1.12917E+000	3.57720E+000	10	...........
	16	0.226667	2.39484E-001	-6.01750E-003	0.00000E+000	-1.44110E-003	-3.59960E-001	-1.13992E+000	3.57720E+000	10	...........
	17	0.24	2.31705E-001	-6.01207E-003	0.00000E+000	-1.39302E-003	-3.59960E-001	-1.13357E+000	3.57720E+000	10	...........
	18	0.253333	2.23997E-001	-6.01125E-003	0.00000E+000	-1.34650E-003	-3.59960E-001	-1.12918E+000	3.57720E+000	10	...........
	19	0.266667	2.16392E-001	-6.01369E-003	0.00000E+000	-1.30131E-003	-3.59960E-001	-1.13988E+000	3.57720E+000	10	...........
	20	0.28	2.08908E-001	-6.01935E-003	0.00000E+000	-1.25749E-003	-3.59960E-001	-1.13348E+000	3.57710E+000	10	...........
	21	0.293333	2.01442E-001	-6.01309E-003	0.00000E+000	-1.21129E-003	-3.59960E-001	-1.12972E+000	3.57700E+000	10	...........
	22	0.306667	1.94125E-001	-6.01234E-003	0.00000E+000	-1.16714E-003	-3.59960E-001	-1.14013E+000	3.57700E+000	10	...........
	23	0.32	1.86905E-001	-6.00725E-003	0.00000E+000	-1.12279E-003	-3.59960E-001	-1.13354E+000	3.57700E+000	10	...........
	24	0.333333	1.79740E-001	-6.01333E-003	0.00000E+000	-1.08084E-003	-3.59960E-001	-1.12972E+000	3.57700E+000	10	...........
	25	0.346667	1.72648E-001	-6.01358E-003	0.00000E+000	-1.03823E-003	-3.59960E-001	-1.14045E+000	3.57700E+000	10	...........
	26	0.36	1.65629E-001	-6.01848E-003	0.00000E+000	-9.96837E-004	-3.59960E-001	-1.13393E+000	3.57700E+000	10	...........
	27	0.373333	1.58690E-001	-6.02139E-003	0.00000E+000	-9.55535E-004	-3.59960E-001	-1.12965E+000	3.57700E+000	10	...........
	28	0.386667	1.51846E-001	-6.01248E-003	0.00000E+000	-9.12969E-004	-3.59960E-001	-1.14022E+000	3.57700E+000	10	...........
	29	0.4	1.45032E-001	-6.01703E-003	0.00000E+000	-8.72660E-004	-3.59960E-001	-1.13395E+000	3.57700E+000	10	...........
	30	0.413333	1.38318E-001	-6.01525E-003	0.00000E+000	-8.32015E-004	-3.59960E-001	-1.13011E+000	3.57700E+000	10	...........
	31	0.426667	1.31693E-001	-6.01860E-003	0.00000E+000	-7.92611E-004	-3.59960E-001	-1.14078E+000	3.57700E+000	10	...........
	32	0.44	1.25098E-001	-6.01624E-003	0.00000E+000	-7.52620E-004	-3.59960E-001	-1.13406E+000	3.57700E+000	10	...........
	33	0.453333	1.18569E-001	-6.01799E-003	0.00000E+000	-7.13547E-004	-3.59960E-001	-1.13002E+000	3.57700E+000	10	...........
	34	0.466667	1.12148E-001	-6.01644E-003	0.00000E+000	-6.74733E-004	-3.59960E-001	-1.14089E+000	3.57700E+000	10	...........
	35	0.48	1.05788E-001	-6.01312E-003	0.00000E+000	-6.36118E-004	-3.59960E-001	-1.13430E+000	3.57700E+000	10	...........
	36	0.493333	9.94723E-002	-6.00930E-003	0.00000E+000	-5.97759E-004	-3.59960E-001	-1.13037E+000	3.57700E+000	10	...........
	37	0.506667	9.32177E-002	-6.01447E-003	0.00000E+000	-5.60655E-004	-3.59960E-001	-1.14092E+000	3.57700E+000	10	...........
	38	0.52	8.70778E-002	-6.01666E-003	0.00000E+000	-5.23918E-004	-3.59960E-001	-1.13349E+000	3.57700E+000	10	...........
	39	0.533333	8.09767E-002	-6.01263E-003	0.00000E+000	-4.86883E-004	-3.59960E-001	-1.12976E+000	3.57700E+000	10	...........
	40	0.546667	7.49262E-002	-6.01722E-003	0.00000E+000	-4.50847E-004	-3.59960E-001	-1.14093E+000	3.57700E+000	10	...........
	41	0.56	6.89336E-002	-6.01294E-003	0.00000E+000	-4.14493E-004	-3.59960E-001	-1.13373E+000	3.57700E+000	10	...........
	42	0.573333	6.29953E-002	-6.01524E-003	0.00000E+000	-3.78932E-004	-3.59960E-001	-1.12994E+000	3.57700E+000	10	...........
	43	0.586667	5.71255E-002	-6.01622E-003	0.00000E+000	-3.43679E-004	-3.59960E-001	-1.14072E+000	3.57700E+000	10	...........
	44	0.6	5.13074E-002	-6.01530E-003	0.00000E+000	-3.08629E-004	-3.59960E-001	-1.13367E+000	3.57700E+000	10	...........
	45	0.613333	4.56126E-002	-6.01366E-003	0.00000E+000	-2.74299E-004	-3.59960E-001	-1.13018E+000	3.57700E+000	10	...........
	46	0.626667	3.99314E-002	-6.01438E-003	0.00000E+000	-2.40163E-004	-3.59960E-001	-1.14112E+000	3.57700E+000	10	...........
	47	0.64	3.42694E-002	-6.01615E-003	0.00000E+000	-2.06170E-004	-3.59960E-001	-1.13383E+000	3.57700E+000	10	...........
	48	0.653333	2.86481E-002	-6.01955E-003	0.00000E+000	-1.72449E-004	-3.59960E-001	-1.13001E+000	3.57700E+000	10	...........
	49	0.666667	2.30873E-002	-6.01240E-003	0.00000E+000	-1.38810E-004	-3.59960E-001	-1.14098E+000	3.57700E+000	10	...........
	50	0.68	1.75532E-002	-6.01871E-003	0.00000E+000	-1.05648E-004	-3.59960E-001	-1.13378E+000	3.57700E+000	10	...........
	51	0.693333	1.21161E-002	-6.01703E-003	0.00000E+000	-7.29030E-005	-3.59960E-001	-1.13036E+000	3.57700E+000	10	...........
	52	0.706667	6.70006E-003	-6.01252E-003	0.00000E+000	-4.02843E-005	-3.59960E-001	-1.14118E+000	3.57700E+000	10	...........
	53	0.718333	1.69406E-003	-6.01593E-003	0.00000E+000	-1.01913E-005	-3.59960E-001	-1.13214E+000	3.57700E+000	10	...........
STARTTIMEOFFSET	QUANT	1258.818	Start Time Offset (s)
