EXPLAIN
TAG	PWR800_DISCHARGE
TITLE	LABEL	PWR Cyclic Charge Discharge (Cell) - Discharge Step	Test &Identifier
DATE	LABEL	22-6-2017	Date
TIME	LABEL	15:56:08	Time
NOTES	NOTES	3	&Notes...
	supercap test cell
	0.6mg
	6M KOH
PSTAT	PSTAT	IFC5000-01520	Potentiostat
CAPACITY	QUANT	1.00000E-003	Capacity (A-hr)
CELLTYPE	SELECTOR	1	&Cell Type
WORKINGCONNECTION	SELECTOR	0	&Working Lead
MAXDISCHARGETIME	VARIABLEANDUNITS	1.00000E+002	s	1.00000E+002	second(s)	Max &Discharge Time
DISCHARGEMODE	MULTIPARAM	0	6.00000E-003	&Discharge Mode	Constant Current	Amp(s)
SAMPLETIME	QUANT	1.00000E-002	Sa&mple Period (s)
DISCHARGESTOPAT1	MULTIPARAM	3	0.00000E+000	Discharge Stop At &1	Voltage < Limit	V
DISCHARGESTOPAT2	MULTIPARAM	0	0.00000E+000	Discharge Stop At &2	None	N/A
AESBHCSELECTOR	TOGGLE	F	Save Both Half Cells
IRCOMP	TOGGLE	F	IR &Measure
EOC	QUANT	0	Open Circuit (V)
SEQUENCER	TOGGLE	TRUE	Run as Sequence
PSTATMODEL	IQUANT	53	Pstat Model
PSTATSECTION	LABEL	IFC5000-01520	Pstat Section
PSTATSERIALNO	LABEL	01520	Pstat Serial Number
CTRLMODE	IQUANT	0	Control Mode
ELECTROMETER	IQUANT	1	RE=0 or CS=1
IESTAB	IQUANT	0	I/E Stability
CASPEED	IQUANT	4	Control Amp Speed
CONVENTION	IQUANT	1	Current Convention
ICHRANGE	IQUANT	2	Ich Range
ICHRANGEMODE	TOGGLE	T	Ich Auto Range
ICHOFFSETENABLE	TOGGLE	F	Ich Offset Enable
ICHOFFSET	QUANT	0	Ich Offset (V)
ICHFILTER	IQUANT	1	Ich Filter
VCHRANGE	IQUANT	2	Vch Range
VCHRANGEMODE	TOGGLE	T	Vch Auto Range
VCHOFFSETENABLE	TOGGLE	F	Vch Offset Enable
VCHOFFSET	QUANT	0	Vch Offset (V)
VCHFILTER	IQUANT	1	Vch Filter
IERANGELOWERLIMIT	IQUANT	9	I/E Range Lower Limit
IERANGEMODE	TOGGLE	F	I/E AutoRange
IERANGE	IQUANT	10	I/E Range
ACHSELECT	IQUANT	1	Ach Select
ACHRANGE	IQUANT	2	Ach Range
ACHOFFSETENABLE	TOGGLE	F	Ach Offset Enable
ACHOFFSET	QUANT	0	Ach Offset (V)
ACHFILTER	IQUANT	1	Ach Filter
CABLEID	IQUANT	14	Cable ID
DCCALDATE	LABEL	20-10-2016	DC Calibration Date
ACCALDATE	LABEL	12/3/2015	AC Calibration Date
FRAMEWORKVERSION	QUANT	7.01	Framework Version
INSTRUMENTVERSION	LABEL	4.00	Instrument Version
CURVE	TABLE	58
	Pt	T	Vf	Im	Vu	Pwr	Sig	Ach	Temp	IERange	Over
	#	s	V	A	V	W	V	V	deg C	#	bits
	0	0.013333	3.95034E-001	-6.01553E-003	0.00000E+000	-2.37634E-003	-3.59960E-001	-1.09552E+000	3.57790E+000	10	...........
	1	0.026667	3.83885E-001	-6.01406E-003	0.00000E+000	-2.30871E-003	-3.59960E-001	-1.09009E+000	3.57790E+000	10	...........
	2	0.04	3.73590E-001	-6.01529E-003	0.00000E+000	-2.24725E-003	-3.59960E-001	-1.09874E+000	3.57790E+000	10	...........
	3	0.053333	3.63789E-001	-6.01486E-003	0.00000E+000	-2.18814E-003	-3.59960E-001	-1.09623E+000	3.57790E+000	10	...........
	4	0.066667	3.54368E-001	-6.01345E-003	0.00000E+000	-2.13097E-003	-3.59960E-001	-1.09031E+000	3.57790E+000	10	...........
	5	0.08	3.45230E-001	-6.01363E-003	0.00000E+000	-2.07609E-003	-3.59960E-001	-1.09888E+000	3.57790E+000	10	...........
	6	0.093333	3.36323E-001	-6.01712E-003	0.00000E+000	-2.02370E-003	-3.59960E-001	-1.09619E+000	3.57790E+000	10	...........
	7	0.106667	3.27599E-001	-6.01312E-003	0.00000E+000	-1.96989E-003	-3.59960E-001	-1.09094E+000	3.57790E+000	10	...........
	8	0.12	3.18982E-001	-6.01248E-003	0.00000E+000	-1.91787E-003	-3.59960E-001	-1.09950E+000	3.57790E+000	10	...........
	9	0.133333	3.10553E-001	-6.01057E-003	0.00000E+000	-1.86660E-003	-3.59960E-001	-1.09635E+000	3.57790E+000	10	...........
	10	0.146667	3.02242E-001	-6.01361E-003	0.00000E+000	-1.81756E-003	-3.59960E-001	-1.09103E+000	3.57790E+000	10	...........
	11	0.16	2.94021E-001	-6.01517E-003	0.00000E+000	-1.76859E-003	-3.59960E-001	-1.09973E+000	3.57790E+000	10	...........
	12	0.173333	2.85949E-001	-6.01491E-003	0.00000E+000	-1.71996E-003	-3.59960E-001	-1.09683E+000	3.57790E+000	10	...........
	13	0.186667	2.78001E-001	-6.01080E-003	0.00000E+000	-1.67101E-003	-3.59960E-001	-1.09189E+000	3.57790E+000	10	...........
	14	0.2	2.70094E-001	-6.01732E-003	0.00000E+000	-1.62524E-003	-3.59960E-001	-1.10047E+000	3.57790E+000	10	...........
	15	0.213333	2.62343E-001	-6.01616E-003	0.00000E+000	-1.57830E-003	-3.59960E-001	-1.09688E+000	3.57790E+000	10	...........
	16	0.226667	2.54669E-001	-6.01241E-003	0.00000E+000	-1.53117E-003	-3.59960E-001	-1.09185E+000	3.57790E+000	10	...........
	17	0.24	2.47040E-001	-6.01212E-003	0.00000E+000	-1.48523E-003	-3.59960E-001	-1.10076E+000	3.57790E+000	10	...........
	18	0.253333	2.39548E-001	-6.01624E-003	0.00000E+000	-1.44118E-003	-3.59960E-001	-1.09705E+000	3.57790E+000	10	...........
	19	0.266667	2.32101E-001	-6.01955E-003	0.00000E+000	-1.39714E-003	-3.59960E-001	-1.09193E+000	3.57790E+000	10	...........
	20	0.28	2.24737E-001	-6.01759E-003	0.00000E+000	-1.35237E-003	-3.59960E-001	-1.10067E+000	3.57790E+000	10	...........
	21	0.293333	2.17487E-001	-6.01334E-003	0.00000E+000	-1.30782E-003	-3.59960E-001	-1.09672E+000	3.57790E+000	10	...........
	22	0.306667	2.10307E-001	-6.01103E-003	0.00000E+000	-1.26416E-003	-3.59960E-001	-1.09195E+000	3.57790E+000	10	...........
	23	0.32	2.03188E-001	-6.01904E-003	0.00000E+000	-1.22300E-003	-3.59960E-001	-1.10059E+000	3.57790E+000	10	...........
	24	0.333333	1.96185E-001	-6.01503E-003	0.00000E+000	-1.18006E-003	-3.59960E-001	-1.09641E+000	3.57790E+000	10	...........
	25	0.346667	1.89250E-001	-6.01633E-003	0.00000E+000	-1.13859E-003	-3.59960E-001	-1.09116E+000	3.57790E+000	10	...........
	26	0.36	1.82382E-001	-6.01508E-003	0.00000E+000	-1.09704E-003	-3.59960E-001	-1.10031E+000	3.57790E+000	10	...........
	27	0.373333	1.75575E-001	-6.01341E-003	0.00000E+000	-1.05581E-003	-3.59960E-001	-1.09585E+000	3.57790E+000	10	...........
	28	0.386667	1.68816E-001	-6.01577E-003	0.00000E+000	-1.01556E-003	-3.59960E-001	-1.09036E+000	3.57790E+000	10	...........
	29	0.4	1.62179E-001	-6.01782E-003	0.00000E+000	-9.75966E-004	-3.59960E-001	-1.09929E+000	3.57790E+000	10	...........
	30	0.413333	1.55535E-001	-6.01266E-003	0.00000E+000	-9.35176E-004	-3.59960E-001	-1.09464E+000	3.57790E+000	10	...........
	31	0.426667	1.49030E-001	-6.01379E-003	0.00000E+000	-8.96233E-004	-3.59960E-001	-1.08974E+000	3.57790E+000	10	...........
	32	0.44	1.42557E-001	-6.01663E-003	0.00000E+000	-8.57714E-004	-3.59960E-001	-1.09934E+000	3.57790E+000	10	...........
	33	0.453333	1.36164E-001	-6.01611E-003	0.00000E+000	-8.19180E-004	-3.59960E-001	-1.09430E+000	3.57790E+000	10	...........
	34	0.466667	1.29822E-001	-6.01371E-003	0.00000E+000	-7.80711E-004	-3.59960E-001	-1.08916E+000	3.57790E+000	10	...........
	35	0.48	1.23518E-001	-6.01419E-003	0.00000E+000	-7.42864E-004	-3.59960E-001	-1.09827E+000	3.57790E+000	10	...........
	36	0.493333	1.17318E-001	-6.01703E-003	0.00000E+000	-7.05908E-004	-3.59960E-001	-1.09313E+000	3.57790E+000	10	...........
	37	0.506667	1.11179E-001	-6.01824E-003	0.00000E+000	-6.69104E-004	-3.59960E-001	-1.08859E+000	3.57790E+000	10	...........
	38	0.52	1.05052E-001	-6.01785E-003	0.00000E+000	-6.32185E-004	-3.59960E-001	-1.09784E+000	3.57790E+000	10	...........
	39	0.533333	9.89913E-002	-6.01024E-003	0.00000E+000	-5.94961E-004	-3.59960E-001	-1.09224E+000	3.57790E+000	10	...........
	40	0.546667	9.30279E-002	-6.01149E-003	0.00000E+000	-5.59236E-004	-3.59960E-001	-1.08758E+000	3.57790E+000	10	...........
	41	0.56	8.70471E-002	-6.01449E-003	0.00000E+000	-5.23545E-004	-3.59960E-001	-1.09734E+000	3.57790E+000	10	...........
	42	0.573333	8.11633E-002	-6.01401E-003	0.00000E+000	-4.88117E-004	-3.59960E-001	-1.09205E+000	3.57790E+000	10	...........
	43	0.586667	7.53424E-002	-6.01777E-003	0.00000E+000	-4.53393E-004	-3.59960E-001	-1.08770E+000	3.57790E+000	10	...........
	44	0.6	6.95631E-002	-6.01821E-003	0.00000E+000	-4.18645E-004	-3.59960E-001	-1.09765E+000	3.57790E+000	10	...........
	45	0.613333	6.38309E-002	-6.01131E-003	0.00000E+000	-3.83707E-004	-3.59960E-001	-1.09186E+000	3.57790E+000	10	...........
	46	0.626667	5.81649E-002	-6.01534E-003	0.00000E+000	-3.49882E-004	-3.59960E-001	-1.08744E+000	3.57790E+000	10	...........
	47	0.64	5.25220E-002	-6.01726E-003	0.00000E+000	-3.16038E-004	-3.59960E-001	-1.09742E+000	3.57790E+000	10	...........
	48	0.653333	4.69538E-002	-6.01834E-003	0.00000E+000	-2.82584E-004	-3.59960E-001	-1.09164E+000	3.57790E+000	10	...........
	49	0.666667	4.14106E-002	-6.01298E-003	0.00000E+000	-2.49001E-004	-3.59960E-001	-1.08670E+000	3.57790E+000	10	...........
	50	0.68	3.59538E-002	-6.01391E-003	0.00000E+000	-2.16223E-004	-3.59960E-001	-1.09645E+000	3.57790E+000	10	...........
	51	0.693333	3.05256E-002	-6.01430E-003	0.00000E+000	-1.83590E-004	-3.59960E-001	-1.09010E+000	3.57790E+000	10	...........
	52	0.706667	2.51551E-002	-6.02104E-003	0.00000E+000	-1.51460E-004	-3.59960E-001	-1.08547E+000	3.57790E+000	10	...........
	53	0.72	1.98142E-002	-6.02040E-003	0.00000E+000	-1.19289E-004	-3.59960E-001	-1.09573E+000	3.57790E+000	10	...........
	54	0.733333	1.45264E-002	-6.01432E-003	0.00000E+000	-8.73661E-005	-3.59960E-001	-1.08954E+000	3.57790E+000	10	...........
	55	0.746667	9.24099E-003	-6.01055E-003	0.00000E+000	-5.55434E-005	-3.59960E-001	-1.08495E+000	3.57790E+000	10	...........
	56	0.76	4.02250E-003	-6.01051E-003	0.00000E+000	-2.41773E-005	-3.59960E-001	-1.09480E+000	3.57790E+000	10	...........
	57	0.765	4.54252E-004	-6.02096E-003	0.00000E+000	-2.73504E-006	-3.59960E-001	-1.07453E+000	3.57787E+000	10	...........
STARTTIMEOFFSET	QUANT	867.4969	Start Time Offset (s)
