EXPLAIN
TAG	PWR800_DISCHARGE
TITLE	LABEL	PWR Cyclic Charge Discharge (Cell) - Discharge Step	Test &Identifier
DATE	LABEL	22-6-2017	Date
TIME	LABEL	15:45:59	Time
NOTES	NOTES	3	&Notes...
	supercap test cell
	0.6mg
	6M KOH
PSTAT	PSTAT	IFC5000-01520	Potentiostat
CAPACITY	QUANT	1.00000E-003	Capacity (A-hr)
CELLTYPE	SELECTOR	1	&Cell Type
WORKINGCONNECTION	SELECTOR	0	&Working Lead
MAXDISCHARGETIME	VARIABLEANDUNITS	1.00000E+002	s	1.00000E+002	second(s)	Max &Discharge Time
DISCHARGEMODE	MULTIPARAM	0	6.00000E-003	&Discharge Mode	Constant Current	Amp(s)
SAMPLETIME	QUANT	1.00000E-002	Sa&mple Period (s)
DISCHARGESTOPAT1	MULTIPARAM	3	0.00000E+000	Discharge Stop At &1	Voltage < Limit	V
DISCHARGESTOPAT2	MULTIPARAM	0	0.00000E+000	Discharge Stop At &2	None	N/A
AESBHCSELECTOR	TOGGLE	F	Save Both Half Cells
IRCOMP	TOGGLE	F	IR &Measure
EOC	QUANT	0	Open Circuit (V)
SEQUENCER	TOGGLE	TRUE	Run as Sequence
PSTATMODEL	IQUANT	53	Pstat Model
PSTATSECTION	LABEL	IFC5000-01520	Pstat Section
PSTATSERIALNO	LABEL	01520	Pstat Serial Number
CTRLMODE	IQUANT	0	Control Mode
ELECTROMETER	IQUANT	1	RE=0 or CS=1
IESTAB	IQUANT	0	I/E Stability
CASPEED	IQUANT	4	Control Amp Speed
CONVENTION	IQUANT	1	Current Convention
ICHRANGE	IQUANT	2	Ich Range
ICHRANGEMODE	TOGGLE	T	Ich Auto Range
ICHOFFSETENABLE	TOGGLE	F	Ich Offset Enable
ICHOFFSET	QUANT	0	Ich Offset (V)
ICHFILTER	IQUANT	1	Ich Filter
VCHRANGE	IQUANT	2	Vch Range
VCHRANGEMODE	TOGGLE	T	Vch Auto Range
VCHOFFSETENABLE	TOGGLE	F	Vch Offset Enable
VCHOFFSET	QUANT	0	Vch Offset (V)
VCHFILTER	IQUANT	1	Vch Filter
IERANGELOWERLIMIT	IQUANT	9	I/E Range Lower Limit
IERANGEMODE	TOGGLE	F	I/E AutoRange
IERANGE	IQUANT	10	I/E Range
ACHSELECT	IQUANT	1	Ach Select
ACHRANGE	IQUANT	2	Ach Range
ACHOFFSETENABLE	TOGGLE	F	Ach Offset Enable
ACHOFFSET	QUANT	0	Ach Offset (V)
ACHFILTER	IQUANT	1	Ach Filter
CABLEID	IQUANT	14	Cable ID
DCCALDATE	LABEL	20-10-2016	DC Calibration Date
ACCALDATE	LABEL	12/3/2015	AC Calibration Date
FRAMEWORKVERSION	QUANT	7.01	Framework Version
INSTRUMENTVERSION	LABEL	4.00	Instrument Version
CURVE	TABLE	63
	Pt	T	Vf	Im	Vu	Pwr	Sig	Ach	Temp	IERange	Over
	#	s	V	A	V	W	V	V	deg C	#	bits
	0	0.013333	4.10909E-001	-6.01808E-003	0.00000E+000	-2.47288E-003	-3.59960E-001	-1.06282E+000	3.57670E+000	10	...........
	1	0.026667	4.00266E-001	-6.01761E-003	0.00000E+000	-2.40865E-003	-3.59960E-001	-1.07209E+000	3.57670E+000	10	...........
	2	0.04	3.90341E-001	-6.00938E-003	0.00000E+000	-2.34571E-003	-3.59960E-001	-1.06269E+000	3.57670E+000	10	...........
	3	0.053333	3.80934E-001	-6.01626E-003	0.00000E+000	-2.29180E-003	-3.59960E-001	-1.06278E+000	3.57670E+000	10	...........
	4	0.066667	3.71924E-001	-6.01088E-003	0.00000E+000	-2.23559E-003	-3.59960E-001	-1.07236E+000	3.57670E+000	10	...........
	5	0.08	3.63151E-001	-6.01273E-003	0.00000E+000	-2.18353E-003	-3.59960E-001	-1.06304E+000	3.57670E+000	10	...........
	6	0.093333	3.54539E-001	-6.01456E-003	0.00000E+000	-2.13239E-003	-3.59960E-001	-1.06311E+000	3.57670E+000	10	...........
	7	0.106667	3.46175E-001	-6.01235E-003	0.00000E+000	-2.08132E-003	-3.59960E-001	-1.07247E+000	3.57670E+000	10	...........
	8	0.12	3.37922E-001	-6.01268E-003	0.00000E+000	-2.03181E-003	-3.59960E-001	-1.06313E+000	3.57670E+000	10	...........
	9	0.133333	3.29788E-001	-6.01421E-003	0.00000E+000	-1.98342E-003	-3.59960E-001	-1.06322E+000	3.57670E+000	10	...........
	10	0.146667	3.21825E-001	-6.01684E-003	0.00000E+000	-1.93637E-003	-3.59960E-001	-1.07254E+000	3.57670E+000	10	...........
	11	0.16	3.13940E-001	-6.01313E-003	0.00000E+000	-1.88776E-003	-3.59960E-001	-1.06338E+000	3.57670E+000	10	...........
	12	0.173333	3.06141E-001	-6.01103E-003	0.00000E+000	-1.84022E-003	-3.59960E-001	-1.06332E+000	3.57670E+000	10	...........
	13	0.186667	2.98460E-001	-6.01786E-003	0.00000E+000	-1.79609E-003	-3.59960E-001	-1.07265E+000	3.57670E+000	10	...........
	14	0.2	2.90870E-001	-6.01449E-003	0.00000E+000	-1.74944E-003	-3.59960E-001	-1.06333E+000	3.57670E+000	10	...........
	15	0.213333	2.83385E-001	-6.01540E-003	0.00000E+000	-1.70468E-003	-3.59960E-001	-1.06351E+000	3.57670E+000	10	...........
	16	0.226667	2.75997E-001	-6.01835E-003	0.00000E+000	-1.66105E-003	-3.59960E-001	-1.07285E+000	3.57670E+000	10	...........
	17	0.24	2.68654E-001	-6.01315E-003	0.00000E+000	-1.61546E-003	-3.59960E-001	-1.06374E+000	3.57670E+000	10	...........
	18	0.253333	2.61396E-001	-6.01139E-003	0.00000E+000	-1.57135E-003	-3.59960E-001	-1.06347E+000	3.57670E+000	10	...........
	19	0.266667	2.54207E-001	-6.01592E-003	0.00000E+000	-1.52929E-003	-3.59960E-001	-1.07297E+000	3.57670E+000	10	...........
	20	0.28	2.47103E-001	-6.01371E-003	0.00000E+000	-1.48601E-003	-3.59960E-001	-1.06412E+000	3.57670E+000	10	...........
	21	0.293333	2.40088E-001	-6.01429E-003	0.00000E+000	-1.44396E-003	-3.59960E-001	-1.06372E+000	3.57670E+000	10	...........
	22	0.306667	2.33116E-001	-6.01467E-003	0.00000E+000	-1.40212E-003	-3.59960E-001	-1.07338E+000	3.57670E+000	10	...........
	23	0.32	2.26289E-001	-6.01590E-003	0.00000E+000	-1.36134E-003	-3.59960E-001	-1.06421E+000	3.57670E+000	10	...........
	24	0.333333	2.19468E-001	-6.01262E-003	0.00000E+000	-1.31958E-003	-3.59960E-001	-1.06349E+000	3.57670E+000	10	...........
	25	0.346667	2.12729E-001	-6.01667E-003	0.00000E+000	-1.27992E-003	-3.59960E-001	-1.07323E+000	3.57670E+000	10	...........
	26	0.36	2.06025E-001	-6.01792E-003	0.00000E+000	-1.23984E-003	-3.59960E-001	-1.06404E+000	3.57670E+000	10	...........
	27	0.373333	1.99378E-001	-6.02069E-003	0.00000E+000	-1.20039E-003	-3.59960E-001	-1.06342E+000	3.57670E+000	10	...........
	28	0.386667	1.92808E-001	-6.02061E-003	0.00000E+000	-1.16082E-003	-3.59960E-001	-1.07326E+000	3.57670E+000	10	...........
	29	0.4	1.86328E-001	-6.01379E-003	0.00000E+000	-1.12054E-003	-3.59960E-001	-1.06432E+000	3.57670E+000	10	...........
	30	0.413333	1.79873E-001	-6.01179E-003	0.00000E+000	-1.08136E-003	-3.59960E-001	-1.06380E+000	3.57670E+000	10	...........
	31	0.426667	1.73505E-001	-6.01571E-003	0.00000E+000	-1.04375E-003	-3.59960E-001	-1.07346E+000	3.57670E+000	10	...........
	32	0.44	1.67190E-001	-6.01400E-003	0.00000E+000	-1.00548E-003	-3.59960E-001	-1.06436E+000	3.57670E+000	10	...........
	33	0.453333	1.60939E-001	-6.01632E-003	0.00000E+000	-9.68259E-004	-3.59960E-001	-1.06357E+000	3.57670E+000	10	...........
	34	0.466667	1.54727E-001	-6.01720E-003	0.00000E+000	-9.31021E-004	-3.59960E-001	-1.07350E+000	3.57670E+000	10	...........
	35	0.48	1.48545E-001	-6.01919E-003	0.00000E+000	-8.94122E-004	-3.59960E-001	-1.06466E+000	3.57670E+000	10	...........
	36	0.493333	1.42475E-001	-6.01105E-003	0.00000E+000	-8.56422E-004	-3.59960E-001	-1.06376E+000	3.57670E+000	10	...........
	37	0.506667	1.36443E-001	-6.00813E-003	0.00000E+000	-8.19767E-004	-3.59960E-001	-1.07334E+000	3.57670E+000	10	...........
	38	0.52	1.30445E-001	-6.01960E-003	0.00000E+000	-7.85225E-004	-3.59960E-001	-1.06456E+000	3.57670E+000	10	...........
	39	0.533333	1.24547E-001	-6.01618E-003	0.00000E+000	-7.49295E-004	-3.59960E-001	-1.06379E+000	3.57670E+000	10	...........
	40	0.546667	1.18664E-001	-6.01454E-003	0.00000E+000	-7.13709E-004	-3.59960E-001	-1.07360E+000	3.57670E+000	10	...........
	41	0.56	1.12864E-001	-6.01382E-003	0.00000E+000	-6.78741E-004	-3.59960E-001	-1.06497E+000	3.57670E+000	10	...........
	42	0.573333	1.07045E-001	-6.01205E-003	0.00000E+000	-6.43562E-004	-3.59960E-001	-1.06390E+000	3.57670E+000	10	...........
	43	0.586667	1.01306E-001	-6.01466E-003	0.00000E+000	-6.09320E-004	-3.59960E-001	-1.07364E+000	3.57670E+000	10	...........
	44	0.6	9.55643E-002	-6.01442E-003	0.00000E+000	-5.74764E-004	-3.59960E-001	-1.06509E+000	3.57670E+000	10	...........
	45	0.613333	8.98849E-002	-6.01348E-003	0.00000E+000	-5.40521E-004	-3.59960E-001	-1.06402E+000	3.57670E+000	10	...........
	46	0.626667	8.43017E-002	-6.01699E-003	0.00000E+000	-5.07242E-004	-3.59960E-001	-1.07376E+000	3.57670E+000	10	...........
	47	0.64	7.87348E-002	-6.01564E-003	0.00000E+000	-4.73640E-004	-3.59960E-001	-1.06514E+000	3.57670E+000	10	...........
	48	0.653333	7.32181E-002	-6.01551E-003	0.00000E+000	-4.40444E-004	-3.59960E-001	-1.06398E+000	3.57670E+000	10	...........
	49	0.666667	6.77135E-002	-6.01665E-003	0.00000E+000	-4.07409E-004	-3.59960E-001	-1.07369E+000	3.57670E+000	10	...........
	50	0.68	6.22649E-002	-6.01550E-003	0.00000E+000	-3.74554E-004	-3.59960E-001	-1.06508E+000	3.57670E+000	10	...........
	51	0.693333	5.68709E-002	-6.01826E-003	0.00000E+000	-3.42264E-004	-3.59960E-001	-1.06389E+000	3.57670E+000	10	...........
	52	0.706667	5.15018E-002	-6.01581E-003	0.00000E+000	-3.09825E-004	-3.59960E-001	-1.07363E+000	3.57670E+000	10	...........
	53	0.72	4.62351E-002	-6.01537E-003	0.00000E+000	-2.78121E-004	-3.59960E-001	-1.06509E+000	3.57670E+000	10	...........
	54	0.733333	4.09543E-002	-6.01820E-003	0.00000E+000	-2.46471E-004	-3.59960E-001	-1.06374E+000	3.57670E+000	10	...........
	55	0.746667	3.57258E-002	-6.01485E-003	0.00000E+000	-2.14885E-004	-3.59960E-001	-1.07373E+000	3.57670E+000	10	...........
	56	0.76	3.05245E-002	-6.00983E-003	0.00000E+000	-1.83447E-004	-3.59960E-001	-1.06531E+000	3.57670E+000	10	...........
	57	0.773333	2.53846E-002	-6.01939E-003	0.00000E+000	-1.52800E-004	-3.59960E-001	-1.06369E+000	3.57670E+000	10	...........
	58	0.786667	2.02378E-002	-6.01719E-003	0.00000E+000	-1.21774E-004	-3.59960E-001	-1.07361E+000	3.57670E+000	10	...........
	59	0.8	1.51399E-002	-6.01172E-003	0.00000E+000	-9.10170E-005	-3.59960E-001	-1.06538E+000	3.57670E+000	10	...........
	60	0.813333	1.00967E-002	-6.01669E-003	0.00000E+000	-6.07488E-005	-3.59960E-001	-1.06402E+000	3.57670E+000	10	...........
	61	0.826667	5.09368E-003	-6.01343E-003	0.00000E+000	-3.06305E-005	-3.59960E-001	-1.07383E+000	3.57670E+000	10	...........
	62	0.835	1.07787E-003	-6.01859E-003	0.00000E+000	-6.48724E-006	-3.59960E-001	-1.05901E+000	3.57670E+000	10	...........
STARTTIMEOFFSET	QUANT	462.1685	Start Time Offset (s)
