EXPLAIN
TAG	PWR800_DISCHARGE
TITLE	LABEL	PWR Cyclic Charge Discharge (Cell) - Discharge Step	Test &Identifier
DATE	LABEL	22-6-2017	Date
TIME	LABEL	15:46:01	Time
NOTES	NOTES	3	&Notes...
	supercap test cell
	0.6mg
	6M KOH
PSTAT	PSTAT	IFC5000-01520	Potentiostat
CAPACITY	QUANT	1.00000E-003	Capacity (A-hr)
CELLTYPE	SELECTOR	1	&Cell Type
WORKINGCONNECTION	SELECTOR	0	&Working Lead
MAXDISCHARGETIME	VARIABLEANDUNITS	1.00000E+002	s	1.00000E+002	second(s)	Max &Discharge Time
DISCHARGEMODE	MULTIPARAM	0	6.00000E-003	&Discharge Mode	Constant Current	Amp(s)
SAMPLETIME	QUANT	1.00000E-002	Sa&mple Period (s)
DISCHARGESTOPAT1	MULTIPARAM	3	0.00000E+000	Discharge Stop At &1	Voltage < Limit	V
DISCHARGESTOPAT2	MULTIPARAM	0	0.00000E+000	Discharge Stop At &2	None	N/A
AESBHCSELECTOR	TOGGLE	F	Save Both Half Cells
IRCOMP	TOGGLE	F	IR &Measure
EOC	QUANT	0	Open Circuit (V)
SEQUENCER	TOGGLE	TRUE	Run as Sequence
PSTATMODEL	IQUANT	53	Pstat Model
PSTATSECTION	LABEL	IFC5000-01520	Pstat Section
PSTATSERIALNO	LABEL	01520	Pstat Serial Number
CTRLMODE	IQUANT	0	Control Mode
ELECTROMETER	IQUANT	1	RE=0 or CS=1
IESTAB	IQUANT	0	I/E Stability
CASPEED	IQUANT	4	Control Amp Speed
CONVENTION	IQUANT	1	Current Convention
ICHRANGE	IQUANT	2	Ich Range
ICHRANGEMODE	TOGGLE	T	Ich Auto Range
ICHOFFSETENABLE	TOGGLE	F	Ich Offset Enable
ICHOFFSET	QUANT	0	Ich Offset (V)
ICHFILTER	IQUANT	1	Ich Filter
VCHRANGE	IQUANT	2	Vch Range
VCHRANGEMODE	TOGGLE	T	Vch Auto Range
VCHOFFSETENABLE	TOGGLE	F	Vch Offset Enable
VCHOFFSET	QUANT	0	Vch Offset (V)
VCHFILTER	IQUANT	1	Vch Filter
IERANGELOWERLIMIT	IQUANT	9	I/E Range Lower Limit
IERANGEMODE	TOGGLE	F	I/E AutoRange
IERANGE	IQUANT	10	I/E Range
ACHSELECT	IQUANT	1	Ach Select
ACHRANGE	IQUANT	2	Ach Range
ACHOFFSETENABLE	TOGGLE	F	Ach Offset Enable
ACHOFFSET	QUANT	0	Ach Offset (V)
ACHFILTER	IQUANT	1	Ach Filter
CABLEID	IQUANT	14	Cable ID
DCCALDATE	LABEL	20-10-2016	DC Calibration Date
ACCALDATE	LABEL	12/3/2015	AC Calibration Date
FRAMEWORKVERSION	QUANT	7.01	Framework Version
INSTRUMENTVERSION	LABEL	4.00	Instrument Version
CURVE	TABLE	63
	Pt	T	Vf	Im	Vu	Pwr	Sig	Ach	Temp	IERange	Over
	#	s	V	A	V	W	V	V	deg C	#	bits
	0	0.013333	4.10443E-001	-6.01457E-003	0.00000E+000	-2.46864E-003	-3.59960E-001	-1.06616E+000	3.57810E+000	10	...........
	1	0.026667	3.99769E-001	-6.01453E-003	0.00000E+000	-2.40442E-003	-3.59960E-001	-1.06337E+000	3.57810E+000	10	...........
	2	0.04	3.89864E-001	-6.01502E-003	0.00000E+000	-2.34504E-003	-3.59960E-001	-1.07338E+000	3.57810E+000	10	...........
	3	0.053333	3.80461E-001	-6.01099E-003	0.00000E+000	-2.28694E-003	-3.59960E-001	-1.06677E+000	3.57810E+000	10	...........
	4	0.066667	3.71433E-001	-6.01668E-003	0.00000E+000	-2.23480E-003	-3.59960E-001	-1.06375E+000	3.57810E+000	10	...........
	5	0.08	3.62643E-001	-6.01518E-003	0.00000E+000	-2.18136E-003	-3.59960E-001	-1.07385E+000	3.57810E+000	10	...........
	6	0.093333	3.54073E-001	-6.01514E-003	0.00000E+000	-2.12980E-003	-3.59960E-001	-1.06736E+000	3.57810E+000	10	...........
	7	0.106667	3.45692E-001	-6.01362E-003	0.00000E+000	-2.07886E-003	-3.59960E-001	-1.06419E+000	3.57810E+000	10	...........
	8	0.12	3.37433E-001	-6.01571E-003	0.00000E+000	-2.02990E-003	-3.59960E-001	-1.07391E+000	3.57810E+000	10	...........
	9	0.133333	3.29336E-001	-6.01371E-003	0.00000E+000	-1.98053E-003	-3.59960E-001	-1.06742E+000	3.57810E+000	10	...........
	10	0.146667	3.21337E-001	-6.01395E-003	0.00000E+000	-1.93251E-003	-3.59960E-001	-1.06465E+000	3.57810E+000	10	...........
	11	0.16	3.13456E-001	-6.01484E-003	0.00000E+000	-1.88539E-003	-3.59960E-001	-1.07438E+000	3.57810E+000	10	...........
	12	0.173333	3.05656E-001	-6.01275E-003	0.00000E+000	-1.83784E-003	-3.59960E-001	-1.06822E+000	3.57810E+000	10	...........
	13	0.186667	2.98026E-001	-6.01448E-003	0.00000E+000	-1.79248E-003	-3.59960E-001	-1.06530E+000	3.57810E+000	10	...........
	14	0.2	2.90452E-001	-6.01338E-003	0.00000E+000	-1.74660E-003	-3.59960E-001	-1.07500E+000	3.57810E+000	10	...........
	15	0.213333	2.82940E-001	-6.01236E-003	0.00000E+000	-1.70114E-003	-3.59960E-001	-1.06898E+000	3.57810E+000	10	...........
	16	0.226667	2.75554E-001	-6.01651E-003	0.00000E+000	-1.65787E-003	-3.59960E-001	-1.06574E+000	3.57810E+000	10	...........
	17	0.24	2.68240E-001	-6.00960E-003	0.00000E+000	-1.61202E-003	-3.59960E-001	-1.07536E+000	3.57810E+000	10	...........
	18	0.253333	2.60994E-001	-6.01668E-003	0.00000E+000	-1.57032E-003	-3.59960E-001	-1.06929E+000	3.57810E+000	10	...........
	19	0.266667	2.53822E-001	-6.01052E-003	0.00000E+000	-1.52560E-003	-3.59960E-001	-1.06613E+000	3.57810E+000	10	...........
	20	0.28	2.46734E-001	-6.01392E-003	0.00000E+000	-1.48384E-003	-3.59960E-001	-1.07577E+000	3.57810E+000	10	...........
	21	0.293333	2.39721E-001	-6.01364E-003	0.00000E+000	-1.44160E-003	-3.59960E-001	-1.07003E+000	3.57810E+000	10	...........
	22	0.306667	2.32743E-001	-6.02022E-003	0.00000E+000	-1.40116E-003	-3.59960E-001	-1.06648E+000	3.57810E+000	10	...........
	23	0.32	2.25822E-001	-6.01397E-003	0.00000E+000	-1.35809E-003	-3.59960E-001	-1.07599E+000	3.57810E+000	10	...........
	24	0.333333	2.19041E-001	-6.01738E-003	0.00000E+000	-1.31805E-003	-3.59960E-001	-1.07025E+000	3.57810E+000	10	...........
	25	0.346667	2.12318E-001	-6.01842E-003	0.00000E+000	-1.27782E-003	-3.59960E-001	-1.06689E+000	3.57810E+000	10	...........
	26	0.36	2.05638E-001	-6.01506E-003	0.00000E+000	-1.23692E-003	-3.59960E-001	-1.07617E+000	3.57810E+000	10	...........
	27	0.373333	1.99014E-001	-6.01130E-003	0.00000E+000	-1.19633E-003	-3.59960E-001	-1.07041E+000	3.57810E+000	10	...........
	28	0.386667	1.92474E-001	-6.01635E-003	0.00000E+000	-1.15799E-003	-3.59960E-001	-1.06671E+000	3.57810E+000	10	...........
	29	0.4	1.85961E-001	-6.01097E-003	0.00000E+000	-1.11781E-003	-3.59960E-001	-1.07625E+000	3.57810E+000	10	...........
	30	0.413333	1.79572E-001	-6.01398E-003	0.00000E+000	-1.07995E-003	-3.59960E-001	-1.07044E+000	3.57810E+000	10	...........
	31	0.426667	1.73166E-001	-6.01100E-003	0.00000E+000	-1.04090E-003	-3.59960E-001	-1.06655E+000	3.57810E+000	10	...........
	32	0.44	1.66846E-001	-6.01178E-003	0.00000E+000	-1.00304E-003	-3.59960E-001	-1.07574E+000	3.57810E+000	10	...........
	33	0.453333	1.60585E-001	-6.01508E-003	0.00000E+000	-9.65931E-004	-3.59960E-001	-1.06985E+000	3.57810E+000	10	...........
	34	0.466667	1.54387E-001	-6.01443E-003	0.00000E+000	-9.28548E-004	-3.59960E-001	-1.06619E+000	3.57810E+000	10	...........
	35	0.48	1.48237E-001	-6.01465E-003	0.00000E+000	-8.91593E-004	-3.59960E-001	-1.07557E+000	3.57670E+000	10	...........
	36	0.493333	1.42143E-001	-6.01690E-003	0.00000E+000	-8.55260E-004	-3.59960E-001	-1.06986E+000	3.57670E+000	10	...........
	37	0.506667	1.36115E-001	-6.01386E-003	0.00000E+000	-8.18575E-004	-3.59960E-001	-1.06602E+000	3.57670E+000	10	...........
	38	0.52	1.30089E-001	-6.01224E-003	0.00000E+000	-7.82124E-004	-3.59960E-001	-1.07518E+000	3.57670E+000	10	...........
	39	0.533333	1.24137E-001	-6.01113E-003	0.00000E+000	-7.46204E-004	-3.59960E-001	-1.06978E+000	3.57670E+000	10	...........
	40	0.546667	1.18243E-001	-6.01869E-003	0.00000E+000	-7.11667E-004	-3.59960E-001	-1.06596E+000	3.57670E+000	10	...........
	41	0.56	1.12371E-001	-6.01504E-003	0.00000E+000	-6.75918E-004	-3.59960E-001	-1.07500E+000	3.57670E+000	10	...........
	42	0.573333	1.06592E-001	-6.01219E-003	0.00000E+000	-6.40852E-004	-3.59960E-001	-1.06971E+000	3.57670E+000	10	...........
	43	0.586667	1.00819E-001	-6.01301E-003	0.00000E+000	-6.06228E-004	-3.59960E-001	-1.06554E+000	3.57670E+000	10	...........
	44	0.6	9.51267E-002	-6.01590E-003	0.00000E+000	-5.72273E-004	-3.59960E-001	-1.07458E+000	3.57670E+000	10	...........
	45	0.613333	8.94833E-002	-6.01197E-003	0.00000E+000	-5.37971E-004	-3.59960E-001	-1.06968E+000	3.57670E+000	10	...........
	46	0.626667	8.38824E-002	-6.01754E-003	0.00000E+000	-5.04766E-004	-3.59960E-001	-1.06549E+000	3.57670E+000	10	...........
	47	0.64	7.83271E-002	-6.01445E-003	0.00000E+000	-4.71095E-004	-3.59960E-001	-1.07456E+000	3.57670E+000	10	...........
	48	0.653333	7.27958E-002	-6.01337E-003	0.00000E+000	-4.37748E-004	-3.59960E-001	-1.06955E+000	3.57670E+000	10	...........
	49	0.666667	6.73311E-002	-6.01158E-003	0.00000E+000	-4.04767E-004	-3.59960E-001	-1.06547E+000	3.57670E+000	10	...........
	50	0.68	6.19093E-002	-6.01425E-003	0.00000E+000	-3.72338E-004	-3.59960E-001	-1.07464E+000	3.57670E+000	10	...........
	51	0.693333	5.65141E-002	-6.01446E-003	0.00000E+000	-3.39902E-004	-3.59960E-001	-1.06936E+000	3.57670E+000	10	...........
	52	0.706667	5.11254E-002	-6.01258E-003	0.00000E+000	-3.07396E-004	-3.59960E-001	-1.06530E+000	3.57670E+000	10	...........
	53	0.72	4.58608E-002	-6.01973E-003	0.00000E+000	-2.76070E-004	-3.59960E-001	-1.07424E+000	3.57670E+000	10	...........
	54	0.733333	4.05878E-002	-6.01744E-003	0.00000E+000	-2.44234E-004	-3.59960E-001	-1.06941E+000	3.57670E+000	10	...........
	55	0.746667	3.53492E-002	-6.01696E-003	0.00000E+000	-2.12695E-004	-3.59960E-001	-1.06530E+000	3.57670E+000	10	...........
	56	0.76	3.01417E-002	-6.01277E-003	0.00000E+000	-1.81235E-004	-3.59960E-001	-1.07367E+000	3.57670E+000	10	...........
	57	0.773333	2.49392E-002	-6.01921E-003	0.00000E+000	-1.50114E-004	-3.59960E-001	-1.06894E+000	3.57670E+000	10	...........
	58	0.786667	1.98619E-002	-6.01239E-003	0.00000E+000	-1.19418E-004	-3.59960E-001	-1.06467E+000	3.57670E+000	10	...........
	59	0.8	1.47874E-002	-6.01411E-003	0.00000E+000	-8.89331E-005	-3.59960E-001	-1.07350E+000	3.57670E+000	10	...........
	60	0.813333	9.73795E-003	-6.01877E-003	0.00000E+000	-5.86105E-005	-3.59960E-001	-1.06922E+000	3.57670E+000	10	...........
	61	0.826667	4.72073E-003	-6.01830E-003	0.00000E+000	-2.84108E-005	-3.59960E-001	-1.06467E+000	3.57670E+000	10	...........
	62	0.835	6.94604E-004	-6.01477E-003	0.00000E+000	-4.17788E-006	-3.59960E-001	-1.07731E+000	3.57670E+000	10	...........
STARTTIMEOFFSET	QUANT	463.8468	Start Time Offset (s)
