EXPLAIN
TAG	PWR800_DISCHARGE
TITLE	LABEL	PWR Cyclic Charge Discharge (Cell) - Discharge Step	Test &Identifier
DATE	LABEL	22-6-2017	Date
TIME	LABEL	15:51:47	Time
NOTES	NOTES	3	&Notes...
	supercap test cell
	0.6mg
	6M KOH
PSTAT	PSTAT	IFC5000-01520	Potentiostat
CAPACITY	QUANT	1.00000E-003	Capacity (A-hr)
CELLTYPE	SELECTOR	1	&Cell Type
WORKINGCONNECTION	SELECTOR	0	&Working Lead
MAXDISCHARGETIME	VARIABLEANDUNITS	1.00000E+002	s	1.00000E+002	second(s)	Max &Discharge Time
DISCHARGEMODE	MULTIPARAM	0	6.00000E-003	&Discharge Mode	Constant Current	Amp(s)
SAMPLETIME	QUANT	1.00000E-002	Sa&mple Period (s)
DISCHARGESTOPAT1	MULTIPARAM	3	0.00000E+000	Discharge Stop At &1	Voltage < Limit	V
DISCHARGESTOPAT2	MULTIPARAM	0	0.00000E+000	Discharge Stop At &2	None	N/A
AESBHCSELECTOR	TOGGLE	F	Save Both Half Cells
IRCOMP	TOGGLE	F	IR &Measure
EOC	QUANT	0	Open Circuit (V)
SEQUENCER	TOGGLE	TRUE	Run as Sequence
PSTATMODEL	IQUANT	53	Pstat Model
PSTATSECTION	LABEL	IFC5000-01520	Pstat Section
PSTATSERIALNO	LABEL	01520	Pstat Serial Number
CTRLMODE	IQUANT	0	Control Mode
ELECTROMETER	IQUANT	1	RE=0 or CS=1
IESTAB	IQUANT	0	I/E Stability
CASPEED	IQUANT	4	Control Amp Speed
CONVENTION	IQUANT	1	Current Convention
ICHRANGE	IQUANT	2	Ich Range
ICHRANGEMODE	TOGGLE	T	Ich Auto Range
ICHOFFSETENABLE	TOGGLE	F	Ich Offset Enable
ICHOFFSET	QUANT	0	Ich Offset (V)
ICHFILTER	IQUANT	1	Ich Filter
VCHRANGE	IQUANT	2	Vch Range
VCHRANGEMODE	TOGGLE	T	Vch Auto Range
VCHOFFSETENABLE	TOGGLE	F	Vch Offset Enable
VCHOFFSET	QUANT	0	Vch Offset (V)
VCHFILTER	IQUANT	1	Vch Filter
IERANGELOWERLIMIT	IQUANT	9	I/E Range Lower Limit
IERANGEMODE	TOGGLE	F	I/E AutoRange
IERANGE	IQUANT	10	I/E Range
ACHSELECT	IQUANT	1	Ach Select
ACHRANGE	IQUANT	2	Ach Range
ACHOFFSETENABLE	TOGGLE	F	Ach Offset Enable
ACHOFFSET	QUANT	0	Ach Offset (V)
ACHFILTER	IQUANT	1	Ach Filter
CABLEID	IQUANT	14	Cable ID
DCCALDATE	LABEL	20-10-2016	DC Calibration Date
ACCALDATE	LABEL	12/3/2015	AC Calibration Date
FRAMEWORKVERSION	QUANT	7.01	Framework Version
INSTRUMENTVERSION	LABEL	4.00	Instrument Version
CURVE	TABLE	60
	Pt	T	Vf	Im	Vu	Pwr	Sig	Ach	Temp	IERange	Over
	#	s	V	A	V	W	V	V	deg C	#	bits
	0	0.013333	4.01119E-001	-6.01949E-003	0.00000E+000	-2.41453E-003	-3.59960E-001	-1.09265E+000	3.57720E+000	10	...........
	1	0.026667	3.90145E-001	-6.01823E-003	0.00000E+000	-2.34798E-003	-3.59960E-001	-1.08599E+000	3.57720E+000	10	...........
	2	0.04	3.79972E-001	-6.01318E-003	0.00000E+000	-2.28484E-003	-3.59960E-001	-1.09384E+000	3.57720E+000	10	...........
	3	0.053333	3.70298E-001	-6.01446E-003	0.00000E+000	-2.22714E-003	-3.59960E-001	-1.09315E+000	3.57720E+000	10	...........
	4	0.066667	3.61026E-001	-6.01703E-003	0.00000E+000	-2.17230E-003	-3.59960E-001	-1.08636E+000	3.57720E+000	10	...........
	5	0.08	3.52031E-001	-6.01330E-003	0.00000E+000	-2.11687E-003	-3.59960E-001	-1.09404E+000	3.57720E+000	10	...........
	6	0.093333	3.43194E-001	-6.01831E-003	0.00000E+000	-2.06545E-003	-3.59960E-001	-1.09301E+000	3.57720E+000	10	...........
	7	0.106667	3.34583E-001	-6.01730E-003	0.00000E+000	-2.01329E-003	-3.59960E-001	-1.08662E+000	3.57720E+000	10	...........
	8	0.12	3.26140E-001	-6.01421E-003	0.00000E+000	-1.96147E-003	-3.59960E-001	-1.09450E+000	3.57720E+000	10	...........
	9	0.133333	3.17829E-001	-6.01304E-003	0.00000E+000	-1.91112E-003	-3.59960E-001	-1.09387E+000	3.57720E+000	10	...........
	10	0.146667	3.09605E-001	-6.01555E-003	0.00000E+000	-1.86245E-003	-3.59960E-001	-1.08671E+000	3.57720E+000	10	...........
	11	0.16	3.01511E-001	-6.00959E-003	0.00000E+000	-1.81196E-003	-3.59960E-001	-1.09459E+000	3.57720E+000	10	...........
	12	0.173333	2.93512E-001	-6.01455E-003	0.00000E+000	-1.76534E-003	-3.59960E-001	-1.09382E+000	3.57720E+000	10	...........
	13	0.186667	2.85640E-001	-6.01518E-003	0.00000E+000	-1.71818E-003	-3.59960E-001	-1.08716E+000	3.57720E+000	10	...........
	14	0.2	2.77905E-001	-6.01556E-003	0.00000E+000	-1.67175E-003	-3.59960E-001	-1.09477E+000	3.57720E+000	10	...........
	15	0.213333	2.70212E-001	-6.01178E-003	0.00000E+000	-1.62445E-003	-3.59960E-001	-1.09355E+000	3.57720E+000	10	...........
	16	0.226667	2.62599E-001	-6.01815E-003	0.00000E+000	-1.58036E-003	-3.59960E-001	-1.08667E+000	3.57720E+000	10	...........
	17	0.24	2.55140E-001	-6.01392E-003	0.00000E+000	-1.53439E-003	-3.59960E-001	-1.09453E+000	3.57720E+000	10	...........
	18	0.253333	2.47733E-001	-6.01501E-003	0.00000E+000	-1.49011E-003	-3.59960E-001	-1.09376E+000	3.57720E+000	10	...........
	19	0.266667	2.40440E-001	-6.01711E-003	0.00000E+000	-1.44675E-003	-3.59960E-001	-1.08698E+000	3.57720E+000	10	...........
	20	0.28	2.33207E-001	-6.01605E-003	0.00000E+000	-1.40299E-003	-3.59960E-001	-1.09461E+000	3.57720E+000	10	...........
	21	0.293333	2.26018E-001	-6.01397E-003	0.00000E+000	-1.35926E-003	-3.59960E-001	-1.09393E+000	3.57689E+000	10	...........
	22	0.306667	2.18921E-001	-6.01405E-003	0.00000E+000	-1.31660E-003	-3.59960E-001	-1.08708E+000	3.57670E+000	10	...........
	23	0.32	2.11887E-001	-6.01617E-003	0.00000E+000	-1.27475E-003	-3.59960E-001	-1.09503E+000	3.57670E+000	10	...........
	24	0.333333	2.04921E-001	-6.01649E-003	0.00000E+000	-1.23290E-003	-3.59960E-001	-1.09416E+000	3.57670E+000	10	...........
	25	0.346667	1.98042E-001	-6.01185E-003	0.00000E+000	-1.19060E-003	-3.59960E-001	-1.08721E+000	3.57670E+000	10	...........
	26	0.36	1.91237E-001	-6.01531E-003	0.00000E+000	-1.15035E-003	-3.59960E-001	-1.09496E+000	3.57670E+000	10	...........
	27	0.373333	1.84512E-001	-6.01512E-003	0.00000E+000	-1.10986E-003	-3.59960E-001	-1.09433E+000	3.57670E+000	10	...........
	28	0.386667	1.77821E-001	-6.01280E-003	0.00000E+000	-1.06920E-003	-3.59960E-001	-1.08766E+000	3.57670E+000	10	...........
	29	0.4	1.71222E-001	-6.01115E-003	0.00000E+000	-1.02924E-003	-3.59960E-001	-1.09531E+000	3.57670E+000	10	...........
	30	0.413333	1.64700E-001	-6.01671E-003	0.00000E+000	-9.90954E-004	-3.59960E-001	-1.09426E+000	3.57670E+000	10	...........
	31	0.426667	1.58236E-001	-6.01498E-003	0.00000E+000	-9.51789E-004	-3.59960E-001	-1.08760E+000	3.57670E+000	10	...........
	32	0.44	1.51826E-001	-6.01570E-003	0.00000E+000	-9.13341E-004	-3.59960E-001	-1.09544E+000	3.57670E+000	10	...........
	33	0.453333	1.45472E-001	-6.01265E-003	0.00000E+000	-8.74670E-004	-3.59960E-001	-1.09463E+000	3.57670E+000	10	...........
	34	0.466667	1.39163E-001	-6.01358E-003	0.00000E+000	-8.36868E-004	-3.59960E-001	-1.08782E+000	3.57670E+000	10	...........
	35	0.48	1.32934E-001	-6.01590E-003	0.00000E+000	-7.99719E-004	-3.59960E-001	-1.09546E+000	3.57670E+000	10	...........
	36	0.493333	1.26751E-001	-6.01699E-003	0.00000E+000	-7.62656E-004	-3.59960E-001	-1.09458E+000	3.57670E+000	10	...........
	37	0.506667	1.20680E-001	-6.00848E-003	0.00000E+000	-7.25101E-004	-3.59960E-001	-1.08785E+000	3.57670E+000	10	...........
	38	0.52	1.14583E-001	-6.01508E-003	0.00000E+000	-6.89226E-004	-3.59960E-001	-1.09560E+000	3.57670E+000	10	...........
	39	0.533333	1.08541E-001	-6.01536E-003	0.00000E+000	-6.52915E-004	-3.59960E-001	-1.09451E+000	3.57670E+000	10	...........
	40	0.546667	1.02577E-001	-6.01619E-003	0.00000E+000	-6.17123E-004	-3.59960E-001	-1.08771E+000	3.57670E+000	10	...........
	41	0.56	9.66649E-002	-6.01479E-003	0.00000E+000	-5.81419E-004	-3.59960E-001	-1.09528E+000	3.57670E+000	10	...........
	42	0.573333	9.08229E-002	-6.01323E-003	0.00000E+000	-5.46139E-004	-3.59960E-001	-1.09475E+000	3.57670E+000	10	...........
	43	0.586667	8.50722E-002	-6.00933E-003	0.00000E+000	-5.11227E-004	-3.59960E-001	-1.08796E+000	3.57670E+000	10	...........
	44	0.6	7.93129E-002	-6.01305E-003	0.00000E+000	-4.76913E-004	-3.59960E-001	-1.09578E+000	3.57670E+000	10	...........
	45	0.613333	7.36033E-002	-6.01590E-003	0.00000E+000	-4.42790E-004	-3.59960E-001	-1.09470E+000	3.57670E+000	10	...........
	46	0.626667	6.79653E-002	-6.01514E-003	0.00000E+000	-4.08821E-004	-3.59960E-001	-1.08753E+000	3.57670E+000	10	...........
	47	0.64	6.23350E-002	-6.01643E-003	0.00000E+000	-3.75034E-004	-3.59960E-001	-1.09547E+000	3.57670E+000	10	...........
	48	0.653333	5.67966E-002	-6.01748E-003	0.00000E+000	-3.41772E-004	-3.59960E-001	-1.09506E+000	3.57670E+000	10	...........
	49	0.666667	5.12818E-002	-6.01518E-003	0.00000E+000	-3.08469E-004	-3.59960E-001	-1.08791E+000	3.57670E+000	10	...........
	50	0.68	4.58635E-002	-6.01425E-003	0.00000E+000	-2.75835E-004	-3.59960E-001	-1.09551E+000	3.57670E+000	10	...........
	51	0.693333	4.04055E-002	-6.01398E-003	0.00000E+000	-2.42998E-004	-3.59960E-001	-1.09465E+000	3.57670E+000	10	...........
	52	0.706667	3.50103E-002	-6.01110E-003	0.00000E+000	-2.10451E-004	-3.59960E-001	-1.08783E+000	3.57670E+000	10	...........
	53	0.72	2.96627E-002	-6.01590E-003	0.00000E+000	-1.78448E-004	-3.59960E-001	-1.09569E+000	3.57670E+000	10	...........
	54	0.733333	2.43547E-002	-6.01434E-003	0.00000E+000	-1.46477E-004	-3.59960E-001	-1.09512E+000	3.57670E+000	10	...........
	55	0.746667	1.91486E-002	-6.01631E-003	0.00000E+000	-1.15204E-004	-3.59960E-001	-1.08806E+000	3.57670E+000	10	...........
	56	0.76	1.39196E-002	-6.01462E-003	0.00000E+000	-8.37213E-005	-3.59960E-001	-1.09564E+000	3.57670E+000	10	...........
	57	0.773333	8.73120E-003	-6.01296E-003	0.00000E+000	-5.25004E-005	-3.59960E-001	-1.09511E+000	3.57670E+000	10	...........
	58	0.786667	3.61878E-003	-6.01253E-003	0.00000E+000	-2.17580E-005	-3.59960E-001	-1.08850E+000	3.57670E+000	10	...........
	59	0.791667	1.13510E-004	-6.01531E-003	0.00000E+000	-6.82800E-007	-3.59960E-001	-1.10342E+000	3.57670E+000	10	...........
STARTTIMEOFFSET	QUANT	695.5251	Start Time Offset (s)
