EXPLAIN
TAG	PWR800_DISCHARGE
TITLE	LABEL	PWR Cyclic Charge Discharge (Cell) - Discharge Step	Test &Identifier
DATE	LABEL	22-6-2017	Date
TIME	LABEL	16:08:34	Time
NOTES	NOTES	3	&Notes...
	supercap test cell
	0.6mg
	6M KOH
PSTAT	PSTAT	IFC5000-01520	Potentiostat
CAPACITY	QUANT	1.00000E-003	Capacity (A-hr)
CELLTYPE	SELECTOR	1	&Cell Type
WORKINGCONNECTION	SELECTOR	0	&Working Lead
MAXDISCHARGETIME	VARIABLEANDUNITS	1.00000E+002	s	1.00000E+002	second(s)	Max &Discharge Time
DISCHARGEMODE	MULTIPARAM	0	6.00000E-003	&Discharge Mode	Constant Current	Amp(s)
SAMPLETIME	QUANT	1.00000E-002	Sa&mple Period (s)
DISCHARGESTOPAT1	MULTIPARAM	3	0.00000E+000	Discharge Stop At &1	Voltage < Limit	V
DISCHARGESTOPAT2	MULTIPARAM	0	0.00000E+000	Discharge Stop At &2	None	N/A
AESBHCSELECTOR	TOGGLE	F	Save Both Half Cells
IRCOMP	TOGGLE	F	IR &Measure
EOC	QUANT	0	Open Circuit (V)
SEQUENCER	TOGGLE	TRUE	Run as Sequence
PSTATMODEL	IQUANT	53	Pstat Model
PSTATSECTION	LABEL	IFC5000-01520	Pstat Section
PSTATSERIALNO	LABEL	01520	Pstat Serial Number
CTRLMODE	IQUANT	0	Control Mode
ELECTROMETER	IQUANT	1	RE=0 or CS=1
IESTAB	IQUANT	0	I/E Stability
CASPEED	IQUANT	4	Control Amp Speed
CONVENTION	IQUANT	1	Current Convention
ICHRANGE	IQUANT	2	Ich Range
ICHRANGEMODE	TOGGLE	T	Ich Auto Range
ICHOFFSETENABLE	TOGGLE	F	Ich Offset Enable
ICHOFFSET	QUANT	0	Ich Offset (V)
ICHFILTER	IQUANT	1	Ich Filter
VCHRANGE	IQUANT	2	Vch Range
VCHRANGEMODE	TOGGLE	T	Vch Auto Range
VCHOFFSETENABLE	TOGGLE	F	Vch Offset Enable
VCHOFFSET	QUANT	0	Vch Offset (V)
VCHFILTER	IQUANT	1	Vch Filter
IERANGELOWERLIMIT	IQUANT	9	I/E Range Lower Limit
IERANGEMODE	TOGGLE	F	I/E AutoRange
IERANGE	IQUANT	10	I/E Range
ACHSELECT	IQUANT	1	Ach Select
ACHRANGE	IQUANT	2	Ach Range
ACHOFFSETENABLE	TOGGLE	F	Ach Offset Enable
ACHOFFSET	QUANT	0	Ach Offset (V)
ACHFILTER	IQUANT	1	Ach Filter
CABLEID	IQUANT	14	Cable ID
DCCALDATE	LABEL	20-10-2016	DC Calibration Date
ACCALDATE	LABEL	12/3/2015	AC Calibration Date
FRAMEWORKVERSION	QUANT	7.01	Framework Version
INSTRUMENTVERSION	LABEL	4.00	Instrument Version
CURVE	TABLE	54
	Pt	T	Vf	Im	Vu	Pwr	Sig	Ach	Temp	IERange	Over
	#	s	V	A	V	W	V	V	deg C	#	bits
	0	0.013333	3.81669E-001	-6.01466E-003	0.00000E+000	-2.29561E-003	-3.59960E-001	-1.12638E+000	3.57660E+000	10	...........
	1	0.026667	3.70137E-001	-6.01539E-003	0.00000E+000	-2.22652E-003	-3.59960E-001	-1.11670E+000	3.57660E+000	10	...........
	2	0.04	3.59470E-001	-6.01242E-003	0.00000E+000	-2.16128E-003	-3.59960E-001	-1.11970E+000	3.57660E+000	10	...........
	3	0.053333	3.49325E-001	-6.01402E-003	0.00000E+000	-2.10085E-003	-3.59960E-001	-1.12615E+000	3.57660E+000	10	...........
	4	0.066667	3.39505E-001	-6.01646E-003	0.00000E+000	-2.04262E-003	-3.59960E-001	-1.11677E+000	3.57660E+000	10	...........
	5	0.08	3.30040E-001	-6.01057E-003	0.00000E+000	-1.98373E-003	-3.59960E-001	-1.12071E+000	3.57660E+000	10	...........
	6	0.093333	3.20801E-001	-6.01261E-003	0.00000E+000	-1.92885E-003	-3.59960E-001	-1.12709E+000	3.57660E+000	10	...........
	7	0.106667	3.11734E-001	-6.02263E-003	0.00000E+000	-1.87746E-003	-3.59960E-001	-1.11709E+000	3.57660E+000	10	...........
	8	0.12	3.02860E-001	-6.01859E-003	0.00000E+000	-1.82279E-003	-3.59960E-001	-1.12061E+000	3.57650E+000	10	...........
	9	0.133333	2.94131E-001	-6.01358E-003	0.00000E+000	-1.76878E-003	-3.59960E-001	-1.12741E+000	3.57640E+000	10	...........
	10	0.146667	2.85534E-001	-6.01838E-003	0.00000E+000	-1.71845E-003	-3.59960E-001	-1.11750E+000	3.57640E+000	10	...........
	11	0.16	2.77093E-001	-6.01377E-003	0.00000E+000	-1.66637E-003	-3.59960E-001	-1.12101E+000	3.57640E+000	10	...........
	12	0.173333	2.68727E-001	-6.01279E-003	0.00000E+000	-1.61580E-003	-3.59960E-001	-1.12709E+000	3.57640E+000	10	...........
	13	0.186667	2.60465E-001	-6.01273E-003	0.00000E+000	-1.56611E-003	-3.59960E-001	-1.11689E+000	3.57640E+000	10	...........
	14	0.2	2.52297E-001	-6.01435E-003	0.00000E+000	-1.51740E-003	-3.59960E-001	-1.12055E+000	3.57640E+000	10	...........
	15	0.213333	2.44298E-001	-6.01048E-003	0.00000E+000	-1.46835E-003	-3.59960E-001	-1.12705E+000	3.57640E+000	10	...........
	16	0.226667	2.36348E-001	-6.00857E-003	0.00000E+000	-1.42011E-003	-3.59960E-001	-1.11743E+000	3.57640E+000	10	...........
	17	0.24	2.28530E-001	-6.01755E-003	0.00000E+000	-1.37519E-003	-3.59960E-001	-1.12040E+000	3.57640E+000	10	...........
	18	0.253333	2.20805E-001	-6.01343E-003	0.00000E+000	-1.32780E-003	-3.59960E-001	-1.12643E+000	3.57640E+000	10	...........
	19	0.266667	2.13152E-001	-6.01387E-003	0.00000E+000	-1.28187E-003	-3.59960E-001	-1.11687E+000	3.57640E+000	10	...........
	20	0.28	2.05581E-001	-6.01833E-003	0.00000E+000	-1.23726E-003	-3.59960E-001	-1.12081E+000	3.57640E+000	10	...........
	21	0.293333	1.98151E-001	-6.01517E-003	0.00000E+000	-1.19191E-003	-3.59960E-001	-1.12693E+000	3.57640E+000	10	...........
	22	0.306667	1.90809E-001	-6.01519E-003	0.00000E+000	-1.14775E-003	-3.59960E-001	-1.11717E+000	3.57640E+000	10	...........
	23	0.32	1.83564E-001	-6.01269E-003	0.00000E+000	-1.10371E-003	-3.59960E-001	-1.12069E+000	3.57640E+000	10	...........
	24	0.333333	1.76322E-001	-6.01317E-003	0.00000E+000	-1.06025E-003	-3.59960E-001	-1.12695E+000	3.57640E+000	10	...........
	25	0.346667	1.69177E-001	-6.01672E-003	0.00000E+000	-1.01789E-003	-3.59960E-001	-1.11748E+000	3.57640E+000	10	...........
	26	0.36	1.62148E-001	-6.01357E-003	0.00000E+000	-9.75090E-004	-3.59960E-001	-1.12106E+000	3.57640E+000	10	...........
	27	0.373333	1.55184E-001	-6.01012E-003	0.00000E+000	-9.32678E-004	-3.59960E-001	-1.12696E+000	3.57640E+000	10	...........
	28	0.386667	1.48325E-001	-6.01820E-003	0.00000E+000	-8.92648E-004	-3.59960E-001	-1.11707E+000	3.57640E+000	10	...........
	29	0.4	1.41529E-001	-6.01783E-003	0.00000E+000	-8.51697E-004	-3.59960E-001	-1.12099E+000	3.57640E+000	10	...........
	30	0.413333	1.34794E-001	-6.01748E-003	0.00000E+000	-8.11122E-004	-3.59960E-001	-1.12706E+000	3.57640E+000	10	...........
	31	0.426667	1.28138E-001	-6.01550E-003	0.00000E+000	-7.70814E-004	-3.59960E-001	-1.11729E+000	3.57640E+000	10	...........
	32	0.44	1.21537E-001	-6.01514E-003	0.00000E+000	-7.31064E-004	-3.59960E-001	-1.12126E+000	3.57640E+000	10	...........
	33	0.453333	1.15033E-001	-6.01856E-003	0.00000E+000	-6.92333E-004	-3.59960E-001	-1.12695E+000	3.57640E+000	10	...........
	34	0.466667	1.08543E-001	-6.01563E-003	0.00000E+000	-6.52955E-004	-3.59960E-001	-1.11724E+000	3.57640E+000	10	...........
	35	0.48	1.02133E-001	-6.01537E-003	0.00000E+000	-6.14365E-004	-3.59960E-001	-1.12145E+000	3.57640E+000	10	...........
	36	0.493333	9.57948E-002	-6.01590E-003	0.00000E+000	-5.76292E-004	-3.59960E-001	-1.12754E+000	3.57640E+000	10	...........
	37	0.506667	8.95591E-002	-6.01375E-003	0.00000E+000	-5.38586E-004	-3.59960E-001	-1.11762E+000	3.57640E+000	10	...........
	38	0.52	8.32985E-002	-6.01950E-003	0.00000E+000	-5.01415E-004	-3.59960E-001	-1.12152E+000	3.57640E+000	10	...........
	39	0.533333	7.72143E-002	-6.01179E-003	0.00000E+000	-4.64196E-004	-3.59960E-001	-1.12708E+000	3.57640E+000	10	...........
	40	0.546667	7.11322E-002	-6.01537E-003	0.00000E+000	-4.27886E-004	-3.59960E-001	-1.11732E+000	3.57640E+000	10	...........
	41	0.56	6.51235E-002	-6.01510E-003	0.00000E+000	-3.91724E-004	-3.59960E-001	-1.12150E+000	3.57640E+000	10	...........
	42	0.573333	5.91907E-002	-6.01367E-003	0.00000E+000	-3.55954E-004	-3.59960E-001	-1.12738E+000	3.57640E+000	10	...........
	43	0.586667	5.32908E-002	-6.01270E-003	0.00000E+000	-3.20421E-004	-3.59960E-001	-1.11788E+000	3.57640E+000	10	...........
	44	0.6	4.74902E-002	-6.01676E-003	0.00000E+000	-2.85737E-004	-3.59960E-001	-1.12157E+000	3.57640E+000	10	...........
	45	0.613333	4.17299E-002	-6.01593E-003	0.00000E+000	-2.51045E-004	-3.59960E-001	-1.12755E+000	3.57640E+000	10	...........
	46	0.626667	3.60083E-002	-6.01817E-003	0.00000E+000	-2.16704E-004	-3.59960E-001	-1.11821E+000	3.57640E+000	10	...........
	47	0.64	3.03411E-002	-6.01307E-003	0.00000E+000	-1.82443E-004	-3.59960E-001	-1.12216E+000	3.57640E+000	10	...........
	48	0.653333	2.47458E-002	-6.01776E-003	0.00000E+000	-1.48914E-004	-3.59960E-001	-1.12787E+000	3.57640E+000	10	...........
	49	0.666667	1.91616E-002	-6.01510E-003	0.00000E+000	-1.15259E-004	-3.59960E-001	-1.11811E+000	3.57640E+000	10	...........
	50	0.68	1.36632E-002	-6.01160E-003	0.00000E+000	-8.21379E-005	-3.59960E-001	-1.12236E+000	3.57640E+000	10	...........
	51	0.693333	8.22197E-003	-6.01458E-003	0.00000E+000	-4.94517E-005	-3.59960E-001	-1.12812E+000	3.57640E+000	10	...........
	52	0.706667	2.73742E-003	-6.01859E-003	0.00000E+000	-1.64754E-005	-3.59960E-001	-1.11827E+000	3.57640E+000	10	...........
	53	0.708333	-2.94506E-004	-6.03156E-003	0.00000E+000	1.77633E-006	-3.59960E-001	-1.13345E+000	3.57640E+000	10	...........
STARTTIMEOFFSET	QUANT	1353.414	Start Time Offset (s)
