EXPLAIN
TAG	PWR800_DISCHARGE
TITLE	LABEL	PWR Cyclic Charge Discharge (Cell) - Discharge Step	Test &Identifier
DATE	LABEL	22-6-2017	Date
TIME	LABEL	15:43:47	Time
NOTES	NOTES	3	&Notes...
	supercap test cell
	0.6mg
	6M KOH
PSTAT	PSTAT	IFC5000-01520	Potentiostat
CAPACITY	QUANT	1.00000E-003	Capacity (A-hr)
CELLTYPE	SELECTOR	1	&Cell Type
WORKINGCONNECTION	SELECTOR	0	&Working Lead
MAXDISCHARGETIME	VARIABLEANDUNITS	1.00000E+002	s	1.00000E+002	second(s)	Max &Discharge Time
DISCHARGEMODE	MULTIPARAM	0	6.00000E-003	&Discharge Mode	Constant Current	Amp(s)
SAMPLETIME	QUANT	1.00000E-002	Sa&mple Period (s)
DISCHARGESTOPAT1	MULTIPARAM	3	0.00000E+000	Discharge Stop At &1	Voltage < Limit	V
DISCHARGESTOPAT2	MULTIPARAM	0	0.00000E+000	Discharge Stop At &2	None	N/A
AESBHCSELECTOR	TOGGLE	F	Save Both Half Cells
IRCOMP	TOGGLE	F	IR &Measure
EOC	QUANT	0	Open Circuit (V)
SEQUENCER	TOGGLE	TRUE	Run as Sequence
PSTATMODEL	IQUANT	53	Pstat Model
PSTATSECTION	LABEL	IFC5000-01520	Pstat Section
PSTATSERIALNO	LABEL	01520	Pstat Serial Number
CTRLMODE	IQUANT	0	Control Mode
ELECTROMETER	IQUANT	1	RE=0 or CS=1
IESTAB	IQUANT	0	I/E Stability
CASPEED	IQUANT	4	Control Amp Speed
CONVENTION	IQUANT	1	Current Convention
ICHRANGE	IQUANT	2	Ich Range
ICHRANGEMODE	TOGGLE	T	Ich Auto Range
ICHOFFSETENABLE	TOGGLE	F	Ich Offset Enable
ICHOFFSET	QUANT	0	Ich Offset (V)
ICHFILTER	IQUANT	1	Ich Filter
VCHRANGE	IQUANT	2	Vch Range
VCHRANGEMODE	TOGGLE	T	Vch Auto Range
VCHOFFSETENABLE	TOGGLE	F	Vch Offset Enable
VCHOFFSET	QUANT	0	Vch Offset (V)
VCHFILTER	IQUANT	1	Vch Filter
IERANGELOWERLIMIT	IQUANT	9	I/E Range Lower Limit
IERANGEMODE	TOGGLE	F	I/E AutoRange
IERANGE	IQUANT	10	I/E Range
ACHSELECT	IQUANT	1	Ach Select
ACHRANGE	IQUANT	2	Ach Range
ACHOFFSETENABLE	TOGGLE	F	Ach Offset Enable
ACHOFFSET	QUANT	0	Ach Offset (V)
ACHFILTER	IQUANT	1	Ach Filter
CABLEID	IQUANT	14	Cable ID
DCCALDATE	LABEL	20-10-2016	DC Calibration Date
ACCALDATE	LABEL	12/3/2015	AC Calibration Date
FRAMEWORKVERSION	QUANT	7.01	Framework Version
INSTRUMENTVERSION	LABEL	4.00	Instrument Version
CURVE	TABLE	65
	Pt	T	Vf	Im	Vu	Pwr	Sig	Ach	Temp	IERange	Over
	#	s	V	A	V	W	V	V	deg C	#	bits
	0	0.013333	4.14963E-001	-6.01440E-003	0.00000E+000	-2.49575E-003	-3.59960E-001	-1.05187E+000	3.57690E+000	10	...........
	1	0.026667	4.04458E-001	-6.01917E-003	0.00000E+000	-2.43450E-003	-3.59960E-001	-1.06068E+000	3.57690E+000	10	...........
	2	0.04	3.94653E-001	-6.01571E-003	0.00000E+000	-2.37412E-003	-3.59960E-001	-1.05877E+000	3.57690E+000	10	...........
	3	0.053333	3.85391E-001	-6.00924E-003	0.00000E+000	-2.31591E-003	-3.59960E-001	-1.05581E+000	3.57690E+000	10	...........
	4	0.066667	3.76421E-001	-6.01852E-003	0.00000E+000	-2.26550E-003	-3.59960E-001	-1.06582E+000	3.57690E+000	10	...........
	5	0.08	3.67779E-001	-6.01658E-003	0.00000E+000	-2.21277E-003	-3.59960E-001	-1.06477E+000	3.57690E+000	10	...........
	6	0.093333	3.59318E-001	-6.01449E-003	0.00000E+000	-2.16112E-003	-3.59960E-001	-1.06300E+000	3.57690E+000	10	...........
	7	0.106667	3.51014E-001	-6.01877E-003	0.00000E+000	-2.11267E-003	-3.59960E-001	-1.07426E+000	3.57690E+000	10	...........
	8	0.12	3.42851E-001	-6.02135E-003	0.00000E+000	-2.06442E-003	-3.59960E-001	-1.07500E+000	3.57690E+000	10	...........
	9	0.133333	3.34832E-001	-6.01759E-003	0.00000E+000	-2.01488E-003	-3.59960E-001	-1.07383E+000	3.57690E+000	10	...........
	10	0.146667	3.26946E-001	-6.01531E-003	0.00000E+000	-1.96668E-003	-3.59960E-001	-1.08440E+000	3.57690E+000	10	...........
	11	0.16	3.19161E-001	-6.01651E-003	0.00000E+000	-1.92023E-003	-3.59960E-001	-1.08462E+000	3.57690E+000	10	...........
	12	0.173333	3.11478E-001	-6.01417E-003	0.00000E+000	-1.87328E-003	-3.59960E-001	-1.08283E+000	3.57690E+000	10	...........
	13	0.186667	3.03899E-001	-6.01499E-003	0.00000E+000	-1.82795E-003	-3.59960E-001	-1.09341E+000	3.57690E+000	10	...........
	14	0.2	2.96390E-001	-6.01582E-003	0.00000E+000	-1.78303E-003	-3.59960E-001	-1.09299E+000	3.57690E+000	10	...........
	15	0.213333	2.88978E-001	-6.01577E-003	0.00000E+000	-1.73842E-003	-3.59960E-001	-1.09001E+000	3.57690E+000	10	...........
	16	0.226667	2.81653E-001	-6.01665E-003	0.00000E+000	-1.69461E-003	-3.59960E-001	-1.09935E+000	3.57690E+000	10	...........
	17	0.24	2.74388E-001	-6.01142E-003	0.00000E+000	-1.64946E-003	-3.59960E-001	-1.09838E+000	3.57690E+000	10	...........
	18	0.253333	2.67197E-001	-6.00989E-003	0.00000E+000	-1.60582E-003	-3.59960E-001	-1.09503E+000	3.57690E+000	10	...........
	19	0.266667	2.60143E-001	-6.01560E-003	0.00000E+000	-1.56491E-003	-3.59960E-001	-1.10333E+000	3.57690E+000	10	...........
	20	0.28	2.53144E-001	-6.01820E-003	0.00000E+000	-1.52347E-003	-3.59960E-001	-1.10107E+000	3.57690E+000	10	...........
	21	0.293333	2.46202E-001	-6.01405E-003	0.00000E+000	-1.48067E-003	-3.59960E-001	-1.09596E+000	3.57690E+000	10	...........
	22	0.306667	2.39300E-001	-6.01542E-003	0.00000E+000	-1.43949E-003	-3.59960E-001	-1.10343E+000	3.57690E+000	10	...........
	23	0.32	2.32472E-001	-6.01407E-003	0.00000E+000	-1.39810E-003	-3.59960E-001	-1.10074E+000	3.57690E+000	10	...........
	24	0.333333	2.25733E-001	-6.01760E-003	0.00000E+000	-1.35837E-003	-3.59960E-001	-1.09539E+000	3.57690E+000	10	...........
	25	0.346667	2.19045E-001	-6.01524E-003	0.00000E+000	-1.31761E-003	-3.59960E-001	-1.10176E+000	3.57690E+000	10	...........
	26	0.36	2.12398E-001	-6.01663E-003	0.00000E+000	-1.27792E-003	-3.59960E-001	-1.09863E+000	3.57690E+000	10	...........
	27	0.373333	2.05867E-001	-6.01751E-003	0.00000E+000	-1.23881E-003	-3.59960E-001	-1.09274E+000	3.57690E+000	10	...........
	28	0.386667	1.99382E-001	-6.01356E-003	0.00000E+000	-1.19899E-003	-3.59960E-001	-1.09968E+000	3.57690E+000	10	...........
	29	0.4	1.92913E-001	-6.01479E-003	0.00000E+000	-1.16033E-003	-3.59960E-001	-1.09674E+000	3.57690E+000	10	...........
	30	0.413333	1.86511E-001	-6.01455E-003	0.00000E+000	-1.12178E-003	-3.59960E-001	-1.09115E+000	3.57690E+000	10	...........
	31	0.426667	1.80196E-001	-6.01643E-003	0.00000E+000	-1.08414E-003	-3.59960E-001	-1.09765E+000	3.57690E+000	10	...........
	32	0.44	1.73904E-001	-6.01232E-003	0.00000E+000	-1.04557E-003	-3.59960E-001	-1.09488E+000	3.57690E+000	10	...........
	33	0.453333	1.67716E-001	-6.01734E-003	0.00000E+000	-1.00920E-003	-3.59960E-001	-1.08913E+000	3.57690E+000	10	...........
	34	0.466667	1.61596E-001	-6.01515E-003	0.00000E+000	-9.72026E-004	-3.59960E-001	-1.09551E+000	3.57690E+000	10	...........
	35	0.48	1.55497E-001	-6.01181E-003	0.00000E+000	-9.34819E-004	-3.59960E-001	-1.09301E+000	3.57690E+000	10	...........
	36	0.493333	1.49434E-001	-6.02067E-003	0.00000E+000	-8.99693E-004	-3.59960E-001	-1.08685E+000	3.57690E+000	10	...........
	37	0.506667	1.43464E-001	-6.01440E-003	0.00000E+000	-8.62850E-004	-3.59960E-001	-1.09296E+000	3.57690E+000	10	...........
	38	0.52	1.37525E-001	-6.01398E-003	0.00000E+000	-8.27070E-004	-3.59960E-001	-1.08991E+000	3.57690E+000	10	...........
	39	0.533333	1.31616E-001	-6.01082E-003	0.00000E+000	-7.91119E-004	-3.59960E-001	-1.08386E+000	3.57690E+000	10	...........
	40	0.546667	1.25736E-001	-6.01432E-003	0.00000E+000	-7.56214E-004	-3.59960E-001	-1.09009E+000	3.57690E+000	10	...........
	41	0.56	1.19903E-001	-6.01348E-003	0.00000E+000	-7.21037E-004	-3.59960E-001	-1.08736E+000	3.57690E+000	10	...........
	42	0.573333	1.14162E-001	-6.01527E-003	0.00000E+000	-6.86712E-004	-3.59960E-001	-1.08091E+000	3.57690E+000	10	...........
	43	0.586667	1.08444E-001	-6.01590E-003	0.00000E+000	-6.52388E-004	-3.59960E-001	-1.08731E+000	3.57690E+000	10	...........
	44	0.6	1.02789E-001	-6.01258E-003	0.00000E+000	-6.18025E-004	-3.59960E-001	-1.08428E+000	3.57690E+000	10	...........
	45	0.613333	9.71591E-002	-6.01375E-003	0.00000E+000	-5.84291E-004	-3.59960E-001	-1.07777E+000	3.57690E+000	10	...........
	46	0.626667	9.15609E-002	-6.01288E-003	0.00000E+000	-5.50545E-004	-3.59960E-001	-1.08350E+000	3.57690E+000	10	...........
	47	0.64	8.60422E-002	-6.01616E-003	0.00000E+000	-5.17644E-004	-3.59960E-001	-1.08072E+000	3.57690E+000	10	...........
	48	0.653333	8.05255E-002	-6.01472E-003	0.00000E+000	-4.84339E-004	-3.59960E-001	-1.07440E+000	3.57690E+000	10	...........
	49	0.666667	7.50659E-002	-6.01888E-003	0.00000E+000	-4.51813E-004	-3.59960E-001	-1.08043E+000	3.57690E+000	10	...........
	50	0.68	6.96533E-002	-6.01342E-003	0.00000E+000	-4.18854E-004	-3.59960E-001	-1.07804E+000	3.57690E+000	10	...........
	51	0.693333	6.42730E-002	-6.01721E-003	0.00000E+000	-3.86744E-004	-3.59960E-001	-1.07218E+000	3.57690E+000	10	...........
	52	0.706667	5.89445E-002	-6.01522E-003	0.00000E+000	-3.54564E-004	-3.59960E-001	-1.07864E+000	3.57690E+000	10	...........
	53	0.72	5.36309E-002	-6.01768E-003	0.00000E+000	-3.22733E-004	-3.59960E-001	-1.07678E+000	3.57690E+000	10	...........
	54	0.733333	4.84215E-002	-6.01314E-003	0.00000E+000	-2.91165E-004	-3.59960E-001	-1.07135E+000	3.57690E+000	10	...........
	55	0.746667	4.32475E-002	-6.01382E-003	0.00000E+000	-2.60083E-004	-3.59960E-001	-1.07792E+000	3.57690E+000	10	...........
	56	0.76	3.80362E-002	-6.01665E-003	0.00000E+000	-2.28851E-004	-3.59960E-001	-1.07610E+000	3.57690E+000	10	...........
	57	0.773333	3.29065E-002	-6.01885E-003	0.00000E+000	-1.98059E-004	-3.59960E-001	-1.07088E+000	3.57690E+000	10	...........
	58	0.786667	2.77784E-002	-6.01636E-003	0.00000E+000	-1.67125E-004	-3.59960E-001	-1.07742E+000	3.57690E+000	10	...........
	59	0.8	2.27051E-002	-6.01641E-003	0.00000E+000	-1.36603E-004	-3.59960E-001	-1.07599E+000	3.57690E+000	10	...........
	60	0.813333	1.76868E-002	-6.01609E-003	0.00000E+000	-1.06406E-004	-3.59960E-001	-1.07017E+000	3.57690E+000	10	...........
	61	0.826667	1.26565E-002	-6.02250E-003	0.00000E+000	-7.62236E-005	-3.59960E-001	-1.07649E+000	3.57690E+000	10	...........
	62	0.84	7.70244E-003	-6.01602E-003	0.00000E+000	-4.63380E-005	-3.59960E-001	-1.07445E+000	3.57690E+000	10	...........
	63	0.853333	2.80487E-003	-6.01510E-003	0.00000E+000	-1.68716E-005	-3.59960E-001	-1.06865E+000	3.57690E+000	10	...........
	64	0.856667	-2.53211E-004	-6.01466E-003	0.00000E+000	1.52298E-006	-3.59960E-001	-1.08104E+000	3.57690E+000	10	...........
STARTTIMEOFFSET	QUANT	372.1067	Start Time Offset (s)
