EXPLAIN
TAG	PWR800_DISCHARGE
TITLE	LABEL	PWR Cyclic Charge Discharge (Cell) - Discharge Step	Test &Identifier
DATE	LABEL	22-6-2017	Date
TIME	LABEL	15:44:04	Time
NOTES	NOTES	3	&Notes...
	supercap test cell
	0.6mg
	6M KOH
PSTAT	PSTAT	IFC5000-01520	Potentiostat
CAPACITY	QUANT	1.00000E-003	Capacity (A-hr)
CELLTYPE	SELECTOR	1	&Cell Type
WORKINGCONNECTION	SELECTOR	0	&Working Lead
MAXDISCHARGETIME	VARIABLEANDUNITS	1.00000E+002	s	1.00000E+002	second(s)	Max &Discharge Time
DISCHARGEMODE	MULTIPARAM	0	6.00000E-003	&Discharge Mode	Constant Current	Amp(s)
SAMPLETIME	QUANT	1.00000E-002	Sa&mple Period (s)
DISCHARGESTOPAT1	MULTIPARAM	3	0.00000E+000	Discharge Stop At &1	Voltage < Limit	V
DISCHARGESTOPAT2	MULTIPARAM	0	0.00000E+000	Discharge Stop At &2	None	N/A
AESBHCSELECTOR	TOGGLE	F	Save Both Half Cells
IRCOMP	TOGGLE	F	IR &Measure
EOC	QUANT	0	Open Circuit (V)
SEQUENCER	TOGGLE	TRUE	Run as Sequence
PSTATMODEL	IQUANT	53	Pstat Model
PSTATSECTION	LABEL	IFC5000-01520	Pstat Section
PSTATSERIALNO	LABEL	01520	Pstat Serial Number
CTRLMODE	IQUANT	0	Control Mode
ELECTROMETER	IQUANT	1	RE=0 or CS=1
IESTAB	IQUANT	0	I/E Stability
CASPEED	IQUANT	4	Control Amp Speed
CONVENTION	IQUANT	1	Current Convention
ICHRANGE	IQUANT	2	Ich Range
ICHRANGEMODE	TOGGLE	T	Ich Auto Range
ICHOFFSETENABLE	TOGGLE	F	Ich Offset Enable
ICHOFFSET	QUANT	0	Ich Offset (V)
ICHFILTER	IQUANT	1	Ich Filter
VCHRANGE	IQUANT	2	Vch Range
VCHRANGEMODE	TOGGLE	T	Vch Auto Range
VCHOFFSETENABLE	TOGGLE	F	Vch Offset Enable
VCHOFFSET	QUANT	0	Vch Offset (V)
VCHFILTER	IQUANT	1	Vch Filter
IERANGELOWERLIMIT	IQUANT	9	I/E Range Lower Limit
IERANGEMODE	TOGGLE	F	I/E AutoRange
IERANGE	IQUANT	10	I/E Range
ACHSELECT	IQUANT	1	Ach Select
ACHRANGE	IQUANT	2	Ach Range
ACHOFFSETENABLE	TOGGLE	F	Ach Offset Enable
ACHOFFSET	QUANT	0	Ach Offset (V)
ACHFILTER	IQUANT	1	Ach Filter
CABLEID	IQUANT	14	Cable ID
DCCALDATE	LABEL	20-10-2016	DC Calibration Date
ACCALDATE	LABEL	12/3/2015	AC Calibration Date
FRAMEWORKVERSION	QUANT	7.01	Framework Version
INSTRUMENTVERSION	LABEL	4.00	Instrument Version
CURVE	TABLE	64
	Pt	T	Vf	Im	Vu	Pwr	Sig	Ach	Temp	IERange	Over
	#	s	V	A	V	W	V	V	deg C	#	bits
	0	0.013333	4.14893E-001	-6.01555E-003	0.00000E+000	-2.49581E-003	-3.59960E-001	-1.04980E+000	3.57760E+000	10	...........
	1	0.026667	4.04316E-001	-6.01892E-003	0.00000E+000	-2.43354E-003	-3.59960E-001	-1.05134E+000	3.57760E+000	10	...........
	2	0.04	3.94486E-001	-6.01486E-003	0.00000E+000	-2.37278E-003	-3.59960E-001	-1.05920E+000	3.57760E+000	10	...........
	3	0.053333	3.85163E-001	-6.01447E-003	0.00000E+000	-2.31655E-003	-3.59960E-001	-1.04978E+000	3.57760E+000	10	...........
	4	0.066667	3.76209E-001	-6.01382E-003	0.00000E+000	-2.26245E-003	-3.59960E-001	-1.05131E+000	3.57760E+000	10	...........
	5	0.08	3.67475E-001	-6.01226E-003	0.00000E+000	-2.20935E-003	-3.59960E-001	-1.05945E+000	3.57760E+000	10	...........
	6	0.093333	3.58964E-001	-6.01901E-003	0.00000E+000	-2.16061E-003	-3.59960E-001	-1.05014E+000	3.57760E+000	10	...........
	7	0.106667	3.50629E-001	-6.00815E-003	0.00000E+000	-2.10663E-003	-3.59960E-001	-1.05152E+000	3.57760E+000	10	...........
	8	0.12	3.42471E-001	-6.01529E-003	0.00000E+000	-2.06006E-003	-3.59960E-001	-1.05948E+000	3.57760E+000	10	...........
	9	0.133333	3.34433E-001	-6.01197E-003	0.00000E+000	-2.01060E-003	-3.59960E-001	-1.05019E+000	3.57760E+000	10	...........
	10	0.146667	3.26536E-001	-6.01535E-003	0.00000E+000	-1.96423E-003	-3.59960E-001	-1.05172E+000	3.57760E+000	10	...........
	11	0.16	3.18751E-001	-6.01727E-003	0.00000E+000	-1.91801E-003	-3.59960E-001	-1.05993E+000	3.57760E+000	10	...........
	12	0.173333	3.11022E-001	-6.01661E-003	0.00000E+000	-1.87130E-003	-3.59960E-001	-1.05058E+000	3.57760E+000	10	...........
	13	0.186667	3.03407E-001	-6.01250E-003	0.00000E+000	-1.82423E-003	-3.59960E-001	-1.05184E+000	3.57760E+000	10	...........
	14	0.2	2.95864E-001	-6.01259E-003	0.00000E+000	-1.77891E-003	-3.59960E-001	-1.06002E+000	3.57760E+000	10	...........
	15	0.213333	2.88442E-001	-6.01682E-003	0.00000E+000	-1.73550E-003	-3.59960E-001	-1.05034E+000	3.57760E+000	10	...........
	16	0.226667	2.81107E-001	-6.01335E-003	0.00000E+000	-1.69039E-003	-3.59960E-001	-1.05209E+000	3.57760E+000	10	...........
	17	0.24	2.73851E-001	-6.01491E-003	0.00000E+000	-1.64719E-003	-3.59960E-001	-1.06000E+000	3.57760E+000	10	...........
	18	0.253333	2.66701E-001	-6.01530E-003	0.00000E+000	-1.60428E-003	-3.59960E-001	-1.05037E+000	3.57760E+000	10	...........
	19	0.266667	2.59583E-001	-6.01763E-003	0.00000E+000	-1.56208E-003	-3.59960E-001	-1.05150E+000	3.57760E+000	10	...........
	20	0.28	2.52499E-001	-6.01671E-003	0.00000E+000	-1.51921E-003	-3.59960E-001	-1.05982E+000	3.57760E+000	10	...........
	21	0.293333	2.45537E-001	-6.01134E-003	0.00000E+000	-1.47601E-003	-3.59960E-001	-1.05058E+000	3.57760E+000	10	...........
	22	0.306667	2.38645E-001	-6.01706E-003	0.00000E+000	-1.43594E-003	-3.59960E-001	-1.05176E+000	3.57760E+000	10	...........
	23	0.32	2.31834E-001	-6.01170E-003	0.00000E+000	-1.39372E-003	-3.59960E-001	-1.05990E+000	3.57704E+000	10	...........
	24	0.333333	2.25103E-001	-6.00740E-003	0.00000E+000	-1.35228E-003	-3.59960E-001	-1.05058E+000	3.57670E+000	10	...........
	25	0.346667	2.18390E-001	-6.01380E-003	0.00000E+000	-1.31336E-003	-3.59960E-001	-1.05167E+000	3.57670E+000	10	...........
	26	0.36	2.11748E-001	-6.01835E-003	0.00000E+000	-1.27437E-003	-3.59960E-001	-1.06015E+000	3.57670E+000	10	...........
	27	0.373333	2.05207E-001	-6.01269E-003	0.00000E+000	-1.23384E-003	-3.59960E-001	-1.05060E+000	3.57670E+000	10	...........
	28	0.386667	1.98673E-001	-6.01361E-003	0.00000E+000	-1.19474E-003	-3.59960E-001	-1.05188E+000	3.57670E+000	10	...........
	29	0.4	1.92231E-001	-6.01621E-003	0.00000E+000	-1.15650E-003	-3.59960E-001	-1.05997E+000	3.57670E+000	10	...........
	30	0.413333	1.85863E-001	-6.01392E-003	0.00000E+000	-1.11776E-003	-3.59960E-001	-1.05056E+000	3.57670E+000	10	...........
	31	0.426667	1.79517E-001	-6.01456E-003	0.00000E+000	-1.07972E-003	-3.59960E-001	-1.05182E+000	3.57670E+000	10	...........
	32	0.44	1.73253E-001	-6.01103E-003	0.00000E+000	-1.04143E-003	-3.59960E-001	-1.06035E+000	3.57670E+000	10	...........
	33	0.453333	1.67061E-001	-6.01948E-003	0.00000E+000	-1.00562E-003	-3.59960E-001	-1.05077E+000	3.57670E+000	10	...........
	34	0.466667	1.60889E-001	-6.01499E-003	0.00000E+000	-9.67747E-004	-3.59960E-001	-1.05190E+000	3.57670E+000	10	...........
	35	0.48	1.54752E-001	-6.01525E-003	0.00000E+000	-9.30868E-004	-3.59960E-001	-1.06037E+000	3.57670E+000	10	...........
	36	0.493333	1.48681E-001	-6.01047E-003	0.00000E+000	-8.93641E-004	-3.59960E-001	-1.05101E+000	3.57670E+000	10	...........
	37	0.506667	1.42704E-001	-6.01608E-003	0.00000E+000	-8.58518E-004	-3.59960E-001	-1.05226E+000	3.57670E+000	10	...........
	38	0.52	1.36702E-001	-6.01837E-003	0.00000E+000	-8.22721E-004	-3.59960E-001	-1.06053E+000	3.57670E+000	10	...........
	39	0.533333	1.30775E-001	-6.01588E-003	0.00000E+000	-7.86728E-004	-3.59960E-001	-1.05091E+000	3.57670E+000	10	...........
	40	0.546667	1.24921E-001	-6.01549E-003	0.00000E+000	-7.51461E-004	-3.59960E-001	-1.05206E+000	3.57670E+000	10	...........
	41	0.56	1.19090E-001	-6.01603E-003	0.00000E+000	-7.16447E-004	-3.59960E-001	-1.06057E+000	3.57670E+000	10	...........
	42	0.573333	1.13315E-001	-6.01080E-003	0.00000E+000	-6.81117E-004	-3.59960E-001	-1.05096E+000	3.57670E+000	10	...........
	43	0.586667	1.07595E-001	-6.01456E-003	0.00000E+000	-6.47135E-004	-3.59960E-001	-1.05184E+000	3.57670E+000	10	...........
	44	0.6	1.01926E-001	-6.01283E-003	0.00000E+000	-6.12864E-004	-3.59960E-001	-1.06013E+000	3.57670E+000	10	...........
	45	0.613333	9.63080E-002	-6.01788E-003	0.00000E+000	-5.79570E-004	-3.59960E-001	-1.05072E+000	3.57670E+000	10	...........
	46	0.626667	9.07291E-002	-6.01436E-003	0.00000E+000	-5.45677E-004	-3.59960E-001	-1.05197E+000	3.57670E+000	10	...........
	47	0.64	8.51824E-002	-6.01515E-003	0.00000E+000	-5.12385E-004	-3.59960E-001	-1.06041E+000	3.57670E+000	10	...........
	48	0.653333	7.96533E-002	-6.01447E-003	0.00000E+000	-4.79073E-004	-3.59960E-001	-1.05079E+000	3.57670E+000	10	...........
	49	0.666667	7.42087E-002	-6.01767E-003	0.00000E+000	-4.46563E-004	-3.59960E-001	-1.05169E+000	3.57670E+000	10	...........
	50	0.68	6.88020E-002	-6.01824E-003	0.00000E+000	-4.14067E-004	-3.59960E-001	-1.06027E+000	3.57670E+000	10	...........
	51	0.693333	6.34126E-002	-6.01207E-003	0.00000E+000	-3.81241E-004	-3.59960E-001	-1.05118E+000	3.57670E+000	10	...........
	52	0.706667	5.80546E-002	-6.01542E-003	0.00000E+000	-3.49223E-004	-3.59960E-001	-1.05204E+000	3.57670E+000	10	...........
	53	0.72	5.27411E-002	-6.01795E-003	0.00000E+000	-3.17393E-004	-3.59960E-001	-1.06049E+000	3.57670E+000	10	...........
	54	0.733333	4.75383E-002	-6.01398E-003	0.00000E+000	-2.85895E-004	-3.59960E-001	-1.05088E+000	3.57670E+000	10	...........
	55	0.746667	4.23212E-002	-6.01850E-003	0.00000E+000	-2.54710E-004	-3.59960E-001	-1.05186E+000	3.57670E+000	10	...........
	56	0.76	3.71417E-002	-6.01781E-003	0.00000E+000	-2.23512E-004	-3.59960E-001	-1.06057E+000	3.57670E+000	10	...........
	57	0.773333	3.19801E-002	-6.01426E-003	0.00000E+000	-1.92337E-004	-3.59960E-001	-1.05106E+000	3.57670E+000	10	...........
	58	0.786667	2.68163E-002	-6.01541E-003	0.00000E+000	-1.61311E-004	-3.59960E-001	-1.05185E+000	3.57670E+000	10	...........
	59	0.8	2.17207E-002	-6.01563E-003	0.00000E+000	-1.30664E-004	-3.59960E-001	-1.06086E+000	3.57670E+000	10	...........
	60	0.813333	1.67091E-002	-6.01289E-003	0.00000E+000	-1.00470E-004	-3.59960E-001	-1.05121E+000	3.57670E+000	10	...........
	61	0.826667	1.17045E-002	-6.01173E-003	0.00000E+000	-7.03640E-005	-3.59960E-001	-1.05212E+000	3.57670E+000	10	...........
	62	0.84	6.72532E-003	-6.01443E-003	0.00000E+000	-4.04490E-005	-3.59960E-001	-1.06090E+000	3.57670E+000	10	...........
	63	0.853333	1.78930E-003	-6.01720E-003	0.00000E+000	-1.07666E-005	-3.59960E-001	-1.05132E+000	3.57670E+000	10	...........
STARTTIMEOFFSET	QUANT	384.1384	Start Time Offset (s)
