EXPLAIN
TAG	PWR800_DISCHARGE
TITLE	LABEL	PWR Cyclic Charge Discharge (Cell) - Discharge Step	Test &Identifier
DATE	LABEL	22-6-2017	Date
TIME	LABEL	15:57:22	Time
NOTES	NOTES	3	&Notes...
	supercap test cell
	0.6mg
	6M KOH
PSTAT	PSTAT	IFC5000-01520	Potentiostat
CAPACITY	QUANT	1.00000E-003	Capacity (A-hr)
CELLTYPE	SELECTOR	1	&Cell Type
WORKINGCONNECTION	SELECTOR	0	&Working Lead
MAXDISCHARGETIME	VARIABLEANDUNITS	1.00000E+002	s	1.00000E+002	second(s)	Max &Discharge Time
DISCHARGEMODE	MULTIPARAM	0	6.00000E-003	&Discharge Mode	Constant Current	Amp(s)
SAMPLETIME	QUANT	1.00000E-002	Sa&mple Period (s)
DISCHARGESTOPAT1	MULTIPARAM	3	0.00000E+000	Discharge Stop At &1	Voltage < Limit	V
DISCHARGESTOPAT2	MULTIPARAM	0	0.00000E+000	Discharge Stop At &2	None	N/A
AESBHCSELECTOR	TOGGLE	F	Save Both Half Cells
IRCOMP	TOGGLE	F	IR &Measure
EOC	QUANT	0	Open Circuit (V)
SEQUENCER	TOGGLE	TRUE	Run as Sequence
PSTATMODEL	IQUANT	53	Pstat Model
PSTATSECTION	LABEL	IFC5000-01520	Pstat Section
PSTATSERIALNO	LABEL	01520	Pstat Serial Number
CTRLMODE	IQUANT	0	Control Mode
ELECTROMETER	IQUANT	1	RE=0 or CS=1
IESTAB	IQUANT	0	I/E Stability
CASPEED	IQUANT	4	Control Amp Speed
CONVENTION	IQUANT	1	Current Convention
ICHRANGE	IQUANT	2	Ich Range
ICHRANGEMODE	TOGGLE	T	Ich Auto Range
ICHOFFSETENABLE	TOGGLE	F	Ich Offset Enable
ICHOFFSET	QUANT	0	Ich Offset (V)
ICHFILTER	IQUANT	1	Ich Filter
VCHRANGE	IQUANT	2	Vch Range
VCHRANGEMODE	TOGGLE	T	Vch Auto Range
VCHOFFSETENABLE	TOGGLE	F	Vch Offset Enable
VCHOFFSET	QUANT	0	Vch Offset (V)
VCHFILTER	IQUANT	1	Vch Filter
IERANGELOWERLIMIT	IQUANT	9	I/E Range Lower Limit
IERANGEMODE	TOGGLE	F	I/E AutoRange
IERANGE	IQUANT	10	I/E Range
ACHSELECT	IQUANT	1	Ach Select
ACHRANGE	IQUANT	2	Ach Range
ACHOFFSETENABLE	TOGGLE	F	Ach Offset Enable
ACHOFFSET	QUANT	0	Ach Offset (V)
ACHFILTER	IQUANT	1	Ach Filter
CABLEID	IQUANT	14	Cable ID
DCCALDATE	LABEL	20-10-2016	DC Calibration Date
ACCALDATE	LABEL	12/3/2015	AC Calibration Date
FRAMEWORKVERSION	QUANT	7.01	Framework Version
INSTRUMENTVERSION	LABEL	4.00	Instrument Version
CURVE	TABLE	57
	Pt	T	Vf	Im	Vu	Pwr	Sig	Ach	Temp	IERange	Over
	#	s	V	A	V	W	V	V	deg C	#	bits
	0	0.013333	3.93204E-001	-6.01077E-003	0.00000E+000	-2.36346E-003	-3.59960E-001	-1.09162E+000	3.57790E+000	10	...........
	1	0.026667	3.82052E-001	-6.01648E-003	0.00000E+000	-2.29861E-003	-3.59960E-001	-1.10219E+000	3.57790E+000	10	...........
	2	0.04	3.71689E-001	-6.00470E-003	0.00000E+000	-2.23188E-003	-3.59960E-001	-1.09264E+000	3.57790E+000	10	...........
	3	0.053333	3.61858E-001	-6.01349E-003	0.00000E+000	-2.17603E-003	-3.59960E-001	-1.09240E+000	3.57790E+000	10	...........
	4	0.066667	3.52346E-001	-6.01701E-003	0.00000E+000	-2.12007E-003	-3.59960E-001	-1.10282E+000	3.57790E+000	10	...........
	5	0.08	3.43166E-001	-6.01442E-003	0.00000E+000	-2.06394E-003	-3.59960E-001	-1.09259E+000	3.57790E+000	10	...........
	6	0.093333	3.34216E-001	-6.01337E-003	0.00000E+000	-2.00976E-003	-3.59960E-001	-1.09221E+000	3.57790E+000	10	...........
	7	0.106667	3.25440E-001	-6.01126E-003	0.00000E+000	-1.95630E-003	-3.59960E-001	-1.10253E+000	3.57790E+000	10	...........
	8	0.12	3.16795E-001	-6.02004E-003	0.00000E+000	-1.90712E-003	-3.59960E-001	-1.09250E+000	3.57790E+000	10	...........
	9	0.133333	3.08377E-001	-6.01612E-003	0.00000E+000	-1.85523E-003	-3.59960E-001	-1.09272E+000	3.57790E+000	10	...........
	10	0.146667	3.00059E-001	-6.01752E-003	0.00000E+000	-1.80561E-003	-3.59960E-001	-1.10298E+000	3.57790E+000	10	...........
	11	0.16	2.91795E-001	-6.01603E-003	0.00000E+000	-1.75545E-003	-3.59960E-001	-1.09280E+000	3.57790E+000	10	...........
	12	0.173333	2.83704E-001	-6.01175E-003	0.00000E+000	-1.70556E-003	-3.59960E-001	-1.09310E+000	3.57790E+000	10	...........
	13	0.186667	2.75697E-001	-6.01726E-003	0.00000E+000	-1.65894E-003	-3.59960E-001	-1.10358E+000	3.57790E+000	10	...........
	14	0.2	2.67778E-001	-6.01957E-003	0.00000E+000	-1.61191E-003	-3.59960E-001	-1.09348E+000	3.57790E+000	10	...........
	15	0.213333	2.60021E-001	-6.01696E-003	0.00000E+000	-1.56454E-003	-3.59960E-001	-1.09343E+000	3.57790E+000	10	...........
	16	0.226667	2.52285E-001	-6.01611E-003	0.00000E+000	-1.51777E-003	-3.59960E-001	-1.10376E+000	3.57790E+000	10	...........
	17	0.24	2.44651E-001	-6.01356E-003	0.00000E+000	-1.47122E-003	-3.59960E-001	-1.09344E+000	3.57790E+000	10	...........
	18	0.253333	2.37127E-001	-6.01278E-003	0.00000E+000	-1.42579E-003	-3.59960E-001	-1.09382E+000	3.57790E+000	10	...........
	19	0.266667	2.29695E-001	-6.01612E-003	0.00000E+000	-1.38188E-003	-3.59960E-001	-1.10400E+000	3.57790E+000	10	...........
	20	0.28	2.22307E-001	-6.00784E-003	0.00000E+000	-1.33558E-003	-3.59960E-001	-1.09347E+000	3.57790E+000	10	...........
	21	0.293333	2.15033E-001	-6.01255E-003	0.00000E+000	-1.29290E-003	-3.59960E-001	-1.09404E+000	3.57790E+000	10	...........
	22	0.306667	2.07812E-001	-6.01816E-003	0.00000E+000	-1.25064E-003	-3.59960E-001	-1.10448E+000	3.57790E+000	10	...........
	23	0.32	2.00720E-001	-6.01088E-003	0.00000E+000	-1.20650E-003	-3.59960E-001	-1.09435E+000	3.57790E+000	10	...........
	24	0.333333	1.93684E-001	-6.01250E-003	0.00000E+000	-1.16452E-003	-3.59960E-001	-1.09467E+000	3.57790E+000	10	...........
	25	0.346667	1.86733E-001	-6.01870E-003	0.00000E+000	-1.12389E-003	-3.59960E-001	-1.10463E+000	3.57790E+000	10	...........
	26	0.36	1.79852E-001	-6.01243E-003	0.00000E+000	-1.08135E-003	-3.59960E-001	-1.09432E+000	3.57790E+000	10	...........
	27	0.373333	1.73024E-001	-6.01744E-003	0.00000E+000	-1.04116E-003	-3.59960E-001	-1.09493E+000	3.57790E+000	10	...........
	28	0.386667	1.66260E-001	-6.01566E-003	0.00000E+000	-1.00017E-003	-3.59960E-001	-1.10525E+000	3.57790E+000	10	...........
	29	0.4	1.59556E-001	-6.01274E-003	0.00000E+000	-9.59368E-004	-3.59960E-001	-1.09467E+000	3.57790E+000	10	...........
	30	0.413333	1.52944E-001	-6.01504E-003	0.00000E+000	-9.19963E-004	-3.59960E-001	-1.09493E+000	3.57790E+000	10	...........
	31	0.426667	1.46399E-001	-6.01353E-003	0.00000E+000	-8.80376E-004	-3.59960E-001	-1.10505E+000	3.57790E+000	10	...........
	32	0.44	1.39911E-001	-6.01491E-003	0.00000E+000	-8.41552E-004	-3.59960E-001	-1.09501E+000	3.57790E+000	10	...........
	33	0.453333	1.33498E-001	-6.01787E-003	0.00000E+000	-8.03372E-004	-3.59960E-001	-1.09586E+000	3.57790E+000	10	...........
	34	0.466667	1.27173E-001	-6.01406E-003	0.00000E+000	-7.64827E-004	-3.59960E-001	-1.10577E+000	3.57790E+000	10	...........
	35	0.48	1.20882E-001	-6.01291E-003	0.00000E+000	-7.26854E-004	-3.59960E-001	-1.09518E+000	3.57790E+000	10	...........
	36	0.493333	1.14645E-001	-6.01556E-003	0.00000E+000	-6.89653E-004	-3.59960E-001	-1.09587E+000	3.57790E+000	10	...........
	37	0.506667	1.08476E-001	-6.01607E-003	0.00000E+000	-6.52598E-004	-3.59960E-001	-1.10592E+000	3.57790E+000	10	...........
	38	0.52	1.02358E-001	-6.01728E-003	0.00000E+000	-6.15916E-004	-3.59960E-001	-1.09547E+000	3.57790E+000	10	...........
	39	0.533333	9.63153E-002	-6.01993E-003	0.00000E+000	-5.79811E-004	-3.59960E-001	-1.09626E+000	3.57790E+000	10	...........
	40	0.546667	9.03157E-002	-6.01576E-003	0.00000E+000	-5.43317E-004	-3.59960E-001	-1.10592E+000	3.57790E+000	10	...........
	41	0.56	8.43538E-002	-6.01861E-003	0.00000E+000	-5.07693E-004	-3.59960E-001	-1.09544E+000	3.57790E+000	10	...........
	42	0.573333	7.84906E-002	-6.01622E-003	0.00000E+000	-4.72216E-004	-3.59960E-001	-1.09674E+000	3.57790E+000	10	...........
	43	0.586667	7.26427E-002	-6.01389E-003	0.00000E+000	-4.36865E-004	-3.59960E-001	-1.10620E+000	3.57790E+000	10	...........
	44	0.6	6.68421E-002	-6.01438E-003	0.00000E+000	-4.02014E-004	-3.59960E-001	-1.09564E+000	3.57790E+000	10	...........
	45	0.613333	6.11305E-002	-6.01581E-003	0.00000E+000	-3.67750E-004	-3.59960E-001	-1.09670E+000	3.57790E+000	10	...........
	46	0.626667	5.54742E-002	-6.01559E-003	0.00000E+000	-3.33710E-004	-3.59960E-001	-1.10645E+000	3.57790E+000	10	...........
	47	0.64	4.98105E-002	-6.01804E-003	0.00000E+000	-2.99761E-004	-3.59960E-001	-1.09621E+000	3.57790E+000	10	...........
	48	0.653333	4.42915E-002	-6.02047E-003	0.00000E+000	-2.66655E-004	-3.59960E-001	-1.09739E+000	3.57790E+000	10	...........
	49	0.666667	3.87665E-002	-6.01873E-003	0.00000E+000	-2.33325E-004	-3.59960E-001	-1.10652E+000	3.57790E+000	10	...........
	50	0.68	3.33035E-002	-6.01828E-003	0.00000E+000	-2.00430E-004	-3.59960E-001	-1.09580E+000	3.57790E+000	10	...........
	51	0.693333	2.78816E-002	-6.01642E-003	0.00000E+000	-1.67748E-004	-3.59960E-001	-1.09707E+000	3.57790E+000	10	...........
	52	0.706667	2.24588E-002	-6.01473E-003	0.00000E+000	-1.35084E-004	-3.59960E-001	-1.10673E+000	3.57790E+000	10	...........
	53	0.72	1.70831E-002	-6.01138E-003	0.00000E+000	-1.02693E-004	-3.59960E-001	-1.09607E+000	3.57790E+000	10	...........
	54	0.733333	1.17644E-002	-6.01518E-003	0.00000E+000	-7.07649E-005	-3.59960E-001	-1.09710E+000	3.57790E+000	10	...........
	55	0.746667	6.50973E-003	-6.01861E-003	0.00000E+000	-3.91796E-005	-3.59960E-001	-1.10642E+000	3.57790E+000	10	...........
	56	0.758333	1.61051E-003	-6.01741E-003	0.00000E+000	-9.69108E-006	-3.59960E-001	-1.09398E+000	3.57790E+000	10	...........
STARTTIMEOFFSET	QUANT	916.4918	Start Time Offset (s)
