EXPLAIN
TAG	PWR800_DISCHARGE
TITLE	LABEL	PWR Cyclic Charge Discharge (Cell) - Discharge Step	Test &Identifier
DATE	LABEL	22-6-2017	Date
TIME	LABEL	16:14:11	Time
NOTES	NOTES	3	&Notes...
	supercap test cell
	0.6mg
	6M KOH
PSTAT	PSTAT	IFC5000-01520	Potentiostat
CAPACITY	QUANT	1.00000E-003	Capacity (A-hr)
CELLTYPE	SELECTOR	1	&Cell Type
WORKINGCONNECTION	SELECTOR	0	&Working Lead
MAXDISCHARGETIME	VARIABLEANDUNITS	1.00000E+002	s	1.00000E+002	second(s)	Max &Discharge Time
DISCHARGEMODE	MULTIPARAM	0	6.00000E-003	&Discharge Mode	Constant Current	Amp(s)
SAMPLETIME	QUANT	1.00000E-002	Sa&mple Period (s)
DISCHARGESTOPAT1	MULTIPARAM	3	0.00000E+000	Discharge Stop At &1	Voltage < Limit	V
DISCHARGESTOPAT2	MULTIPARAM	0	0.00000E+000	Discharge Stop At &2	None	N/A
AESBHCSELECTOR	TOGGLE	F	Save Both Half Cells
IRCOMP	TOGGLE	F	IR &Measure
EOC	QUANT	0	Open Circuit (V)
SEQUENCER	TOGGLE	TRUE	Run as Sequence
PSTATMODEL	IQUANT	53	Pstat Model
PSTATSECTION	LABEL	IFC5000-01520	Pstat Section
PSTATSERIALNO	LABEL	01520	Pstat Serial Number
CTRLMODE	IQUANT	0	Control Mode
ELECTROMETER	IQUANT	1	RE=0 or CS=1
IESTAB	IQUANT	0	I/E Stability
CASPEED	IQUANT	4	Control Amp Speed
CONVENTION	IQUANT	1	Current Convention
ICHRANGE	IQUANT	2	Ich Range
ICHRANGEMODE	TOGGLE	T	Ich Auto Range
ICHOFFSETENABLE	TOGGLE	F	Ich Offset Enable
ICHOFFSET	QUANT	0	Ich Offset (V)
ICHFILTER	IQUANT	1	Ich Filter
VCHRANGE	IQUANT	2	Vch Range
VCHRANGEMODE	TOGGLE	T	Vch Auto Range
VCHOFFSETENABLE	TOGGLE	F	Vch Offset Enable
VCHOFFSET	QUANT	0	Vch Offset (V)
VCHFILTER	IQUANT	1	Vch Filter
IERANGELOWERLIMIT	IQUANT	9	I/E Range Lower Limit
IERANGEMODE	TOGGLE	F	I/E AutoRange
IERANGE	IQUANT	10	I/E Range
ACHSELECT	IQUANT	1	Ach Select
ACHRANGE	IQUANT	2	Ach Range
ACHOFFSETENABLE	TOGGLE	F	Ach Offset Enable
ACHOFFSET	QUANT	0	Ach Offset (V)
ACHFILTER	IQUANT	1	Ach Filter
CABLEID	IQUANT	14	Cable ID
DCCALDATE	LABEL	20-10-2016	DC Calibration Date
ACCALDATE	LABEL	12/3/2015	AC Calibration Date
FRAMEWORKVERSION	QUANT	7.01	Framework Version
INSTRUMENTVERSION	LABEL	4.00	Instrument Version
CURVE	TABLE	52
	Pt	T	Vf	Im	Vu	Pwr	Sig	Ach	Temp	IERange	Over
	#	s	V	A	V	W	V	V	deg C	#	bits
	0	0.013333	3.77054E-001	-6.00996E-003	0.00000E+000	-2.26608E-003	-3.59960E-001	-1.14600E+000	3.57640E+000	10	...........
	1	0.026667	3.65393E-001	-6.01565E-003	0.00000E+000	-2.19808E-003	-3.59960E-001	-1.13967E+000	3.57640E+000	10	...........
	2	0.04	3.54563E-001	-6.01555E-003	0.00000E+000	-2.13289E-003	-3.59960E-001	-1.14834E+000	3.57640E+000	10	...........
	3	0.053333	3.44284E-001	-6.01689E-003	0.00000E+000	-2.07152E-003	-3.59960E-001	-1.14539E+000	3.57640E+000	10	...........
	4	0.066667	3.34446E-001	-6.01065E-003	0.00000E+000	-2.01023E-003	-3.59960E-001	-1.13921E+000	3.57640E+000	10	...........
	5	0.08	3.24864E-001	-6.01514E-003	0.00000E+000	-1.95410E-003	-3.59960E-001	-1.14834E+000	3.57640E+000	10	...........
	6	0.093333	3.15488E-001	-6.01299E-003	0.00000E+000	-1.89703E-003	-3.59960E-001	-1.14578E+000	3.57640E+000	10	...........
	7	0.106667	3.06307E-001	-6.01770E-003	0.00000E+000	-1.84326E-003	-3.59960E-001	-1.13961E+000	3.57640E+000	10	...........
	8	0.12	2.97303E-001	-6.01564E-003	0.00000E+000	-1.78847E-003	-3.59960E-001	-1.14834E+000	3.57640E+000	10	...........
	9	0.133333	2.88467E-001	-6.01647E-003	0.00000E+000	-1.73555E-003	-3.59960E-001	-1.14560E+000	3.57640E+000	10	...........
	10	0.146667	2.79726E-001	-6.01360E-003	0.00000E+000	-1.68216E-003	-3.59960E-001	-1.13988E+000	3.57640E+000	10	...........
	11	0.16	2.71115E-001	-6.01319E-003	0.00000E+000	-1.63027E-003	-3.59960E-001	-1.14896E+000	3.57640E+000	10	...........
	12	0.173333	2.62654E-001	-6.01256E-003	0.00000E+000	-1.57923E-003	-3.59960E-001	-1.14552E+000	3.57640E+000	10	...........
	13	0.186667	2.54324E-001	-6.01661E-003	0.00000E+000	-1.53017E-003	-3.59960E-001	-1.13960E+000	3.57640E+000	10	...........
	14	0.2	2.46070E-001	-6.01921E-003	0.00000E+000	-1.48115E-003	-3.59960E-001	-1.14889E+000	3.57640E+000	10	...........
	15	0.213333	2.37954E-001	-6.01613E-003	0.00000E+000	-1.43156E-003	-3.59960E-001	-1.14576E+000	3.57640E+000	10	...........
	16	0.226667	2.29950E-001	-6.01240E-003	0.00000E+000	-1.38255E-003	-3.59960E-001	-1.14014E+000	3.57640E+000	10	...........
	17	0.24	2.22025E-001	-6.01143E-003	0.00000E+000	-1.33469E-003	-3.59960E-001	-1.14901E+000	3.57640E+000	10	...........
	18	0.253333	2.14204E-001	-6.01854E-003	0.00000E+000	-1.28919E-003	-3.59960E-001	-1.14563E+000	3.57640E+000	10	...........
	19	0.266667	2.06433E-001	-6.01100E-003	0.00000E+000	-1.24087E-003	-3.59960E-001	-1.14034E+000	3.57640E+000	10	...........
	20	0.28	1.98801E-001	-6.01671E-003	0.00000E+000	-1.19613E-003	-3.59960E-001	-1.14964E+000	3.57640E+000	10	...........
	21	0.293333	1.91246E-001	-6.01164E-003	0.00000E+000	-1.14970E-003	-3.59960E-001	-1.14594E+000	3.57640E+000	10	...........
	22	0.306667	1.83775E-001	-6.01459E-003	0.00000E+000	-1.10533E-003	-3.59960E-001	-1.14037E+000	3.57640E+000	10	...........
	23	0.32	1.76397E-001	-6.01481E-003	0.00000E+000	-1.06099E-003	-3.59960E-001	-1.14984E+000	3.57640E+000	10	...........
	24	0.333333	1.69144E-001	-6.01609E-003	0.00000E+000	-1.01759E-003	-3.59960E-001	-1.14593E+000	3.57640E+000	10	...........
	25	0.346667	1.61973E-001	-6.01604E-003	0.00000E+000	-9.74433E-004	-3.59960E-001	-1.14051E+000	3.57640E+000	10	...........
	26	0.36	1.54882E-001	-6.01423E-003	0.00000E+000	-9.31499E-004	-3.59960E-001	-1.15010E+000	3.57640E+000	10	...........
	27	0.373333	1.47842E-001	-6.01456E-003	0.00000E+000	-8.89202E-004	-3.59960E-001	-1.14591E+000	3.57640E+000	10	...........
	28	0.386667	1.40902E-001	-6.01497E-003	0.00000E+000	-8.47522E-004	-3.59960E-001	-1.14002E+000	3.57640E+000	10	...........
	29	0.4	1.33987E-001	-6.01239E-003	0.00000E+000	-8.05580E-004	-3.59960E-001	-1.14989E+000	3.57640E+000	10	...........
	30	0.413333	1.27205E-001	-6.01401E-003	0.00000E+000	-7.65015E-004	-3.59960E-001	-1.14533E+000	3.57640E+000	10	...........
	31	0.426667	1.20483E-001	-6.01781E-003	0.00000E+000	-7.25044E-004	-3.59960E-001	-1.14037E+000	3.57640E+000	10	...........
	32	0.44	1.13835E-001	-6.01333E-003	0.00000E+000	-6.84525E-004	-3.59960E-001	-1.15016E+000	3.57640E+000	10	...........
	33	0.453333	1.07271E-001	-6.01577E-003	0.00000E+000	-6.45317E-004	-3.59960E-001	-1.14540E+000	3.57640E+000	10	...........
	34	0.466667	1.00821E-001	-6.01734E-003	0.00000E+000	-6.06676E-004	-3.59960E-001	-1.14038E+000	3.57640E+000	10	...........
	35	0.48	9.43935E-002	-6.01547E-003	0.00000E+000	-5.67821E-004	-3.59960E-001	-1.15021E+000	3.57640E+000	10	...........
	36	0.493333	8.80307E-002	-6.01416E-003	0.00000E+000	-5.29431E-004	-3.59960E-001	-1.14547E+000	3.57640E+000	10	...........
	37	0.506667	8.17508E-002	-6.01269E-003	0.00000E+000	-4.91542E-004	-3.59960E-001	-1.14072E+000	3.57640E+000	10	...........
	38	0.52	7.55375E-002	-6.01229E-003	0.00000E+000	-4.54154E-004	-3.59960E-001	-1.15052E+000	3.57640E+000	10	...........
	39	0.533333	6.93694E-002	-6.01260E-003	0.00000E+000	-4.17090E-004	-3.59960E-001	-1.14522E+000	3.57640E+000	10	...........
	40	0.546667	6.32272E-002	-6.01802E-003	0.00000E+000	-3.80503E-004	-3.59960E-001	-1.14060E+000	3.57640E+000	10	...........
	41	0.56	5.72074E-002	-6.01076E-003	0.00000E+000	-3.43860E-004	-3.59960E-001	-1.15061E+000	3.57640E+000	10	...........
	42	0.573333	5.12319E-002	-6.01346E-003	0.00000E+000	-3.08081E-004	-3.59960E-001	-1.14543E+000	3.57640E+000	10	...........
	43	0.586667	4.54067E-002	-6.01363E-003	0.00000E+000	-2.73059E-004	-3.59960E-001	-1.14054E+000	3.57640E+000	10	...........
	44	0.6	3.95192E-002	-6.01604E-003	0.00000E+000	-2.37749E-004	-3.59960E-001	-1.15090E+000	3.57640E+000	10	...........
	45	0.613333	3.37384E-002	-6.01927E-003	0.00000E+000	-2.03080E-004	-3.59960E-001	-1.14569E+000	3.57640E+000	10	...........
	46	0.626667	2.79908E-002	-6.01872E-003	0.00000E+000	-1.68468E-004	-3.59960E-001	-1.14105E+000	3.57640E+000	10	...........
	47	0.64	2.22791E-002	-6.01659E-003	0.00000E+000	-1.34044E-004	-3.59960E-001	-1.15117E+000	3.57640E+000	10	...........
	48	0.653333	1.66522E-002	-6.01075E-003	0.00000E+000	-1.00092E-004	-3.59960E-001	-1.14543E+000	3.57640E+000	10	...........
	49	0.666667	1.10955E-002	-6.01332E-003	0.00000E+000	-6.67209E-005	-3.59960E-001	-1.14068E+000	3.57640E+000	10	...........
	50	0.68	5.59366E-003	-6.02006E-003	0.00000E+000	-3.36742E-005	-3.59960E-001	-1.15107E+000	3.57640E+000	10	...........
	51	0.688333	1.14172E-003	-6.01629E-003	0.00000E+000	-6.86890E-006	-3.59960E-001	-1.13908E+000	3.57640E+000	10	...........
STARTTIMEOFFSET	QUANT	1568.004	Start Time Offset (s)
