EXPLAIN
TAG	PWR800_DISCHARGE
TITLE	LABEL	PWR Cyclic Charge Discharge (Cell) - Discharge Step	Test &Identifier
DATE	LABEL	22-6-2017	Date
TIME	LABEL	15:42:00	Time
NOTES	NOTES	3	&Notes...
	supercap test cell
	0.6mg
	6M KOH
PSTAT	PSTAT	IFC5000-01520	Potentiostat
CAPACITY	QUANT	1.00000E-003	Capacity (A-hr)
CELLTYPE	SELECTOR	1	&Cell Type
WORKINGCONNECTION	SELECTOR	0	&Working Lead
MAXDISCHARGETIME	VARIABLEANDUNITS	1.00000E+002	s	1.00000E+002	second(s)	Max &Discharge Time
DISCHARGEMODE	MULTIPARAM	0	6.00000E-003	&Discharge Mode	Constant Current	Amp(s)
SAMPLETIME	QUANT	1.00000E-002	Sa&mple Period (s)
DISCHARGESTOPAT1	MULTIPARAM	3	0.00000E+000	Discharge Stop At &1	Voltage < Limit	V
DISCHARGESTOPAT2	MULTIPARAM	0	0.00000E+000	Discharge Stop At &2	None	N/A
AESBHCSELECTOR	TOGGLE	F	Save Both Half Cells
IRCOMP	TOGGLE	F	IR &Measure
EOC	QUANT	0	Open Circuit (V)
SEQUENCER	TOGGLE	TRUE	Run as Sequence
PSTATMODEL	IQUANT	53	Pstat Model
PSTATSECTION	LABEL	IFC5000-01520	Pstat Section
PSTATSERIALNO	LABEL	01520	Pstat Serial Number
CTRLMODE	IQUANT	0	Control Mode
ELECTROMETER	IQUANT	1	RE=0 or CS=1
IESTAB	IQUANT	0	I/E Stability
CASPEED	IQUANT	4	Control Amp Speed
CONVENTION	IQUANT	1	Current Convention
ICHRANGE	IQUANT	2	Ich Range
ICHRANGEMODE	TOGGLE	T	Ich Auto Range
ICHOFFSETENABLE	TOGGLE	F	Ich Offset Enable
ICHOFFSET	QUANT	0	Ich Offset (V)
ICHFILTER	IQUANT	1	Ich Filter
VCHRANGE	IQUANT	2	Vch Range
VCHRANGEMODE	TOGGLE	T	Vch Auto Range
VCHOFFSETENABLE	TOGGLE	F	Vch Offset Enable
VCHOFFSET	QUANT	0	Vch Offset (V)
VCHFILTER	IQUANT	1	Vch Filter
IERANGELOWERLIMIT	IQUANT	9	I/E Range Lower Limit
IERANGEMODE	TOGGLE	F	I/E AutoRange
IERANGE	IQUANT	10	I/E Range
ACHSELECT	IQUANT	1	Ach Select
ACHRANGE	IQUANT	2	Ach Range
ACHOFFSETENABLE	TOGGLE	F	Ach Offset Enable
ACHOFFSET	QUANT	0	Ach Offset (V)
ACHFILTER	IQUANT	1	Ach Filter
CABLEID	IQUANT	14	Cable ID
DCCALDATE	LABEL	20-10-2016	DC Calibration Date
ACCALDATE	LABEL	12/3/2015	AC Calibration Date
FRAMEWORKVERSION	QUANT	7.01	Framework Version
INSTRUMENTVERSION	LABEL	4.00	Instrument Version
CURVE	TABLE	66
	Pt	T	Vf	Im	Vu	Pwr	Sig	Ach	Temp	IERange	Over
	#	s	V	A	V	W	V	V	deg C	#	bits
	0	0.013333	4.19730E-001	-6.01270E-003	0.00000E+000	-2.52371E-003	-3.59960E-001	-1.04063E+000	3.57830E+000	10	...........
	1	0.026667	4.09269E-001	-6.01609E-003	0.00000E+000	-2.46220E-003	-3.59960E-001	-1.04832E+000	3.57830E+000	10	...........
	2	0.04	3.99593E-001	-6.01303E-003	0.00000E+000	-2.40276E-003	-3.59960E-001	-1.03791E+000	3.57830E+000	10	...........
	3	0.053333	3.90382E-001	-6.01531E-003	0.00000E+000	-2.34827E-003	-3.59960E-001	-1.04116E+000	3.57830E+000	10	...........
	4	0.066667	3.81484E-001	-6.01462E-003	0.00000E+000	-2.29448E-003	-3.59960E-001	-1.04852E+000	3.57830E+000	10	...........
	5	0.08	3.72882E-001	-6.01491E-003	0.00000E+000	-2.24285E-003	-3.59960E-001	-1.03799E+000	3.57830E+000	10	...........
	6	0.093333	3.64537E-001	-6.01389E-003	0.00000E+000	-2.19228E-003	-3.59960E-001	-1.04132E+000	3.57830E+000	10	...........
	7	0.106667	3.56331E-001	-6.01537E-003	0.00000E+000	-2.14346E-003	-3.59960E-001	-1.04894E+000	3.57830E+000	10	...........
	8	0.12	3.48265E-001	-6.01228E-003	0.00000E+000	-2.09386E-003	-3.59960E-001	-1.03848E+000	3.57830E+000	10	...........
	9	0.133333	3.40328E-001	-6.01824E-003	0.00000E+000	-2.04817E-003	-3.59960E-001	-1.04143E+000	3.57830E+000	10	...........
	10	0.146667	3.32516E-001	-6.01703E-003	0.00000E+000	-2.00076E-003	-3.59960E-001	-1.04873E+000	3.57830E+000	10	...........
	11	0.16	3.24837E-001	-6.01441E-003	0.00000E+000	-1.95370E-003	-3.59960E-001	-1.03812E+000	3.57830E+000	10	...........
	12	0.173333	3.17245E-001	-6.01649E-003	0.00000E+000	-1.90870E-003	-3.59960E-001	-1.04127E+000	3.57830E+000	10	...........
	13	0.186667	3.09731E-001	-6.01353E-003	0.00000E+000	-1.86258E-003	-3.59960E-001	-1.04902E+000	3.57830E+000	10	...........
	14	0.2	3.02340E-001	-6.01485E-003	0.00000E+000	-1.81853E-003	-3.59960E-001	-1.03821E+000	3.57830E+000	10	...........
	15	0.213333	2.95004E-001	-6.01172E-003	0.00000E+000	-1.77348E-003	-3.59960E-001	-1.04108E+000	3.57830E+000	10	...........
	16	0.226667	2.87776E-001	-6.01813E-003	0.00000E+000	-1.73187E-003	-3.59960E-001	-1.04939E+000	3.57830E+000	10	...........
	17	0.24	2.80568E-001	-6.01631E-003	0.00000E+000	-1.68798E-003	-3.59960E-001	-1.03869E+000	3.57830E+000	10	...........
	18	0.253333	2.73482E-001	-6.01511E-003	0.00000E+000	-1.64503E-003	-3.59960E-001	-1.04131E+000	3.57830E+000	10	...........
	19	0.266667	2.66503E-001	-6.01493E-003	0.00000E+000	-1.60300E-003	-3.59960E-001	-1.04932E+000	3.57830E+000	10	...........
	20	0.28	2.59537E-001	-6.01478E-003	0.00000E+000	-1.56106E-003	-3.59960E-001	-1.03865E+000	3.57830E+000	10	...........
	21	0.293333	2.52635E-001	-6.01880E-003	0.00000E+000	-1.52056E-003	-3.59960E-001	-1.04139E+000	3.57830E+000	10	...........
	22	0.306667	2.45788E-001	-6.01644E-003	0.00000E+000	-1.47877E-003	-3.59960E-001	-1.04970E+000	3.57830E+000	10	...........
	23	0.32	2.39067E-001	-6.01658E-003	0.00000E+000	-1.43836E-003	-3.59960E-001	-1.03877E+000	3.57830E+000	10	...........
	24	0.333333	2.32437E-001	-6.01539E-003	0.00000E+000	-1.39820E-003	-3.59960E-001	-1.04138E+000	3.57830E+000	10	...........
	25	0.346667	2.25759E-001	-6.01880E-003	0.00000E+000	-1.35880E-003	-3.59960E-001	-1.04975E+000	3.57830E+000	10	...........
	26	0.36	2.19195E-001	-6.01622E-003	0.00000E+000	-1.31872E-003	-3.59960E-001	-1.03914E+000	3.57830E+000	10	...........
	27	0.373333	2.12718E-001	-6.01577E-003	0.00000E+000	-1.27966E-003	-3.59960E-001	-1.04177E+000	3.57830E+000	10	...........
	28	0.386667	2.06292E-001	-6.01393E-003	0.00000E+000	-1.24063E-003	-3.59960E-001	-1.05018E+000	3.57830E+000	10	...........
	29	0.4	1.99896E-001	-6.01494E-003	0.00000E+000	-1.20237E-003	-3.59960E-001	-1.03945E+000	3.57830E+000	10	...........
	30	0.413333	1.93557E-001	-6.02064E-003	0.00000E+000	-1.16534E-003	-3.59960E-001	-1.04159E+000	3.57830E+000	10	...........
	31	0.426667	1.87305E-001	-6.01630E-003	0.00000E+000	-1.12688E-003	-3.59960E-001	-1.05043E+000	3.57830E+000	10	...........
	32	0.44	1.81068E-001	-6.01402E-003	0.00000E+000	-1.08895E-003	-3.59960E-001	-1.03945E+000	3.57830E+000	10	...........
	33	0.453333	1.74914E-001	-6.01507E-003	0.00000E+000	-1.05212E-003	-3.59960E-001	-1.04184E+000	3.57830E+000	10	...........
	34	0.466667	1.68790E-001	-6.01364E-003	0.00000E+000	-1.01504E-003	-3.59960E-001	-1.05038E+000	3.57830E+000	10	...........
	35	0.48	1.62711E-001	-6.01456E-003	0.00000E+000	-9.78636E-004	-3.59960E-001	-1.03916E+000	3.57830E+000	10	...........
	36	0.493333	1.56718E-001	-6.00829E-003	0.00000E+000	-9.41609E-004	-3.59960E-001	-1.04141E+000	3.57830E+000	10	...........
	37	0.506667	1.50788E-001	-6.01422E-003	0.00000E+000	-9.06873E-004	-3.59960E-001	-1.05025E+000	3.57830E+000	10	...........
	38	0.52	1.44862E-001	-6.01340E-003	0.00000E+000	-8.71111E-004	-3.59960E-001	-1.03960E+000	3.57830E+000	10	...........
	39	0.533333	1.38991E-001	-6.01081E-003	0.00000E+000	-8.35447E-004	-3.59960E-001	-1.04145E+000	3.57830E+000	10	...........
	40	0.546667	1.33188E-001	-6.01513E-003	0.00000E+000	-8.01144E-004	-3.59960E-001	-1.05060E+000	3.57830E+000	10	...........
	41	0.56	1.27429E-001	-6.01521E-003	0.00000E+000	-7.66512E-004	-3.59960E-001	-1.03971E+000	3.57830E+000	10	...........
	42	0.573333	1.21703E-001	-6.01528E-003	0.00000E+000	-7.32076E-004	-3.59960E-001	-1.04165E+000	3.57830E+000	10	...........
	43	0.586667	1.15996E-001	-6.01602E-003	0.00000E+000	-6.97833E-004	-3.59960E-001	-1.05071E+000	3.57830E+000	10	...........
	44	0.6	1.10338E-001	-6.01482E-003	0.00000E+000	-6.63664E-004	-3.59960E-001	-1.03973E+000	3.57830E+000	10	...........
	45	0.613333	1.04737E-001	-6.01665E-003	0.00000E+000	-6.30164E-004	-3.59960E-001	-1.04165E+000	3.57778E+000	10	...........
	46	0.626667	9.92185E-002	-6.01493E-003	0.00000E+000	-5.96792E-004	-3.59960E-001	-1.05085E+000	3.57760E+000	10	...........
	47	0.64	9.36742E-002	-6.01624E-003	0.00000E+000	-5.63566E-004	-3.59960E-001	-1.03983E+000	3.57760E+000	10	...........
	48	0.653333	8.81812E-002	-6.01463E-003	0.00000E+000	-5.30377E-004	-3.59960E-001	-1.04145E+000	3.57760E+000	10	...........
	49	0.666667	8.27457E-002	-6.01508E-003	0.00000E+000	-4.97722E-004	-3.59960E-001	-1.05086E+000	3.57760E+000	10	...........
	50	0.68	7.73171E-002	-6.01590E-003	0.00000E+000	-4.65132E-004	-3.59960E-001	-1.04005E+000	3.57760E+000	10	...........
	51	0.693333	7.19741E-002	-6.01419E-003	0.00000E+000	-4.32866E-004	-3.59960E-001	-1.04179E+000	3.57760E+000	10	...........
	52	0.706667	6.66529E-002	-6.01275E-003	0.00000E+000	-4.00767E-004	-3.59960E-001	-1.05132E+000	3.57760E+000	10	...........
	53	0.72	6.13743E-002	-6.01204E-003	0.00000E+000	-3.68985E-004	-3.59960E-001	-1.04021E+000	3.57760E+000	10	...........
	54	0.733333	5.61047E-002	-6.01785E-003	0.00000E+000	-3.37630E-004	-3.59960E-001	-1.04150E+000	3.57760E+000	10	...........
	55	0.746667	5.09013E-002	-6.01622E-003	0.00000E+000	-3.06233E-004	-3.59960E-001	-1.05138E+000	3.57760E+000	10	...........
	56	0.76	4.57622E-002	-6.01579E-003	0.00000E+000	-2.75295E-004	-3.59960E-001	-1.04031E+000	3.57760E+000	10	...........
	57	0.773333	4.06181E-002	-6.01639E-003	0.00000E+000	-2.44374E-004	-3.59960E-001	-1.04176E+000	3.57760E+000	10	...........
	58	0.786667	3.55251E-002	-6.01654E-003	0.00000E+000	-2.13738E-004	-3.59960E-001	-1.05111E+000	3.57760E+000	10	...........
	59	0.8	3.04842E-002	-6.01326E-003	0.00000E+000	-1.83309E-004	-3.59960E-001	-1.03972E+000	3.57760E+000	10	...........
	60	0.813333	2.54413E-002	-6.01332E-003	0.00000E+000	-1.52986E-004	-3.59960E-001	-1.04119E+000	3.57760E+000	10	...........
	61	0.826667	2.04497E-002	-6.01812E-003	0.00000E+000	-1.23069E-004	-3.59960E-001	-1.05105E+000	3.57760E+000	10	...........
	62	0.84	1.54777E-002	-6.02000E-003	0.00000E+000	-9.31757E-005	-3.59960E-001	-1.04015E+000	3.57760E+000	10	...........
	63	0.853333	1.05341E-002	-6.01488E-003	0.00000E+000	-6.33614E-005	-3.59960E-001	-1.04131E+000	3.57760E+000	10	...........
	64	0.866667	5.64649E-003	-6.01322E-003	0.00000E+000	-3.39536E-005	-3.59960E-001	-1.05117E+000	3.57760E+000	10	...........
	65	0.876667	1.39641E-003	-6.01401E-003	0.00000E+000	-8.39800E-006	-3.59960E-001	-1.03533E+000	3.57760E+000	10	...........
STARTTIMEOFFSET	QUANT	298.89	Start Time Offset (s)
