EXPLAIN
TAG	PWR800_DISCHARGE
TITLE	LABEL	PWR Cyclic Charge Discharge (Cell) - Discharge Step	Test &Identifier
DATE	LABEL	22-6-2017	Date
TIME	LABEL	15:49:07	Time
NOTES	NOTES	3	&Notes...
	supercap test cell
	0.6mg
	6M KOH
PSTAT	PSTAT	IFC5000-01520	Potentiostat
CAPACITY	QUANT	1.00000E-003	Capacity (A-hr)
CELLTYPE	SELECTOR	1	&Cell Type
WORKINGCONNECTION	SELECTOR	0	&Working Lead
MAXDISCHARGETIME	VARIABLEANDUNITS	1.00000E+002	s	1.00000E+002	second(s)	Max &Discharge Time
DISCHARGEMODE	MULTIPARAM	0	6.00000E-003	&Discharge Mode	Constant Current	Amp(s)
SAMPLETIME	QUANT	1.00000E-002	Sa&mple Period (s)
DISCHARGESTOPAT1	MULTIPARAM	3	0.00000E+000	Discharge Stop At &1	Voltage < Limit	V
DISCHARGESTOPAT2	MULTIPARAM	0	0.00000E+000	Discharge Stop At &2	None	N/A
AESBHCSELECTOR	TOGGLE	F	Save Both Half Cells
IRCOMP	TOGGLE	F	IR &Measure
EOC	QUANT	0	Open Circuit (V)
SEQUENCER	TOGGLE	TRUE	Run as Sequence
PSTATMODEL	IQUANT	53	Pstat Model
PSTATSECTION	LABEL	IFC5000-01520	Pstat Section
PSTATSERIALNO	LABEL	01520	Pstat Serial Number
CTRLMODE	IQUANT	0	Control Mode
ELECTROMETER	IQUANT	1	RE=0 or CS=1
IESTAB	IQUANT	0	I/E Stability
CASPEED	IQUANT	4	Control Amp Speed
CONVENTION	IQUANT	1	Current Convention
ICHRANGE	IQUANT	2	Ich Range
ICHRANGEMODE	TOGGLE	T	Ich Auto Range
ICHOFFSETENABLE	TOGGLE	F	Ich Offset Enable
ICHOFFSET	QUANT	0	Ich Offset (V)
ICHFILTER	IQUANT	1	Ich Filter
VCHRANGE	IQUANT	2	Vch Range
VCHRANGEMODE	TOGGLE	T	Vch Auto Range
VCHOFFSETENABLE	TOGGLE	F	Vch Offset Enable
VCHOFFSET	QUANT	0	Vch Offset (V)
VCHFILTER	IQUANT	1	Vch Filter
IERANGELOWERLIMIT	IQUANT	9	I/E Range Lower Limit
IERANGEMODE	TOGGLE	F	I/E AutoRange
IERANGE	IQUANT	10	I/E Range
ACHSELECT	IQUANT	1	Ach Select
ACHRANGE	IQUANT	2	Ach Range
ACHOFFSETENABLE	TOGGLE	F	Ach Offset Enable
ACHOFFSET	QUANT	0	Ach Offset (V)
ACHFILTER	IQUANT	1	Ach Filter
CABLEID	IQUANT	14	Cable ID
DCCALDATE	LABEL	20-10-2016	DC Calibration Date
ACCALDATE	LABEL	12/3/2015	AC Calibration Date
FRAMEWORKVERSION	QUANT	7.01	Framework Version
INSTRUMENTVERSION	LABEL	4.00	Instrument Version
CURVE	TABLE	61
	Pt	T	Vf	Im	Vu	Pwr	Sig	Ach	Temp	IERange	Over
	#	s	V	A	V	W	V	V	deg C	#	bits
	0	0.013333	4.04592E-001	-6.01385E-003	0.00000E+000	-2.43315E-003	-3.59960E-001	-1.08775E+000	3.57700E+000	10	...........
	1	0.026667	3.93717E-001	-6.01055E-003	0.00000E+000	-2.36646E-003	-3.59960E-001	-1.07802E+000	3.57700E+000	10	...........
	2	0.04	3.83629E-001	-6.01526E-003	0.00000E+000	-2.30763E-003	-3.59960E-001	-1.08097E+000	3.57700E+000	10	...........
	3	0.053333	3.74081E-001	-6.01364E-003	0.00000E+000	-2.24959E-003	-3.59960E-001	-1.08830E+000	3.57700E+000	10	...........
	4	0.066667	3.64921E-001	-6.01915E-003	0.00000E+000	-2.19651E-003	-3.59960E-001	-1.07850E+000	3.57700E+000	10	...........
	5	0.08	3.56022E-001	-6.01401E-003	0.00000E+000	-2.14112E-003	-3.59960E-001	-1.08093E+000	3.57700E+000	10	...........
	6	0.093333	3.47297E-001	-6.01491E-003	0.00000E+000	-2.08896E-003	-3.59960E-001	-1.08840E+000	3.57700E+000	10	...........
	7	0.106667	3.38782E-001	-6.01309E-003	0.00000E+000	-2.03712E-003	-3.59960E-001	-1.07867E+000	3.57700E+000	10	...........
	8	0.12	3.30422E-001	-6.01590E-003	0.00000E+000	-1.98779E-003	-3.59960E-001	-1.08128E+000	3.57700E+000	10	...........
	9	0.133333	3.22184E-001	-6.01282E-003	0.00000E+000	-1.93723E-003	-3.59960E-001	-1.08865E+000	3.57700E+000	10	...........
	10	0.146667	3.14071E-001	-6.01769E-003	0.00000E+000	-1.88998E-003	-3.59960E-001	-1.07867E+000	3.57700E+000	10	...........
	11	0.16	3.06119E-001	-6.01758E-003	0.00000E+000	-1.84210E-003	-3.59960E-001	-1.08111E+000	3.57700E+000	10	...........
	12	0.173333	2.98277E-001	-6.01939E-003	0.00000E+000	-1.79545E-003	-3.59960E-001	-1.08867E+000	3.57700E+000	10	...........
	13	0.186667	2.90491E-001	-6.01859E-003	0.00000E+000	-1.74835E-003	-3.59960E-001	-1.07910E+000	3.57700E+000	10	...........
	14	0.2	2.82816E-001	-6.01379E-003	0.00000E+000	-1.70080E-003	-3.59960E-001	-1.08091E+000	3.57700E+000	10	...........
	15	0.213333	2.75181E-001	-6.01267E-003	0.00000E+000	-1.65457E-003	-3.59960E-001	-1.08816E+000	3.57700E+000	10	...........
	16	0.226667	2.67653E-001	-6.01683E-003	0.00000E+000	-1.61042E-003	-3.59960E-001	-1.07893E+000	3.57700E+000	10	...........
	17	0.24	2.60263E-001	-6.01309E-003	0.00000E+000	-1.56499E-003	-3.59960E-001	-1.08117E+000	3.57700E+000	10	...........
	18	0.253333	2.52954E-001	-6.01149E-003	0.00000E+000	-1.52063E-003	-3.59960E-001	-1.08904E+000	3.57700E+000	10	...........
	19	0.266667	2.45685E-001	-6.01800E-003	0.00000E+000	-1.47853E-003	-3.59960E-001	-1.07908E+000	3.57686E+000	10	...........
	20	0.28	2.38508E-001	-6.01282E-003	0.00000E+000	-1.43410E-003	-3.59960E-001	-1.08110E+000	3.57660E+000	10	...........
	21	0.293333	2.31402E-001	-6.01664E-003	0.00000E+000	-1.39226E-003	-3.59960E-001	-1.08911E+000	3.57660E+000	10	...........
	22	0.306667	2.24343E-001	-6.01674E-003	0.00000E+000	-1.34982E-003	-3.59960E-001	-1.07941E+000	3.57660E+000	10	...........
	23	0.32	2.17376E-001	-6.01314E-003	0.00000E+000	-1.30711E-003	-3.59960E-001	-1.08158E+000	3.57660E+000	10	...........
	24	0.333333	2.10521E-001	-6.01293E-003	0.00000E+000	-1.26585E-003	-3.59960E-001	-1.08945E+000	3.57660E+000	10	...........
	25	0.346667	2.03688E-001	-6.01640E-003	0.00000E+000	-1.22547E-003	-3.59960E-001	-1.07944E+000	3.57660E+000	10	...........
	26	0.36	1.96958E-001	-6.01840E-003	0.00000E+000	-1.18537E-003	-3.59960E-001	-1.08158E+000	3.57660E+000	10	...........
	27	0.373333	1.90291E-001	-6.01579E-003	0.00000E+000	-1.14475E-003	-3.59960E-001	-1.08975E+000	3.57660E+000	10	...........
	28	0.386667	1.83679E-001	-6.01425E-003	0.00000E+000	-1.10469E-003	-3.59960E-001	-1.07982E+000	3.57660E+000	10	...........
	29	0.4	1.77151E-001	-6.01436E-003	0.00000E+000	-1.06545E-003	-3.59960E-001	-1.08173E+000	3.57660E+000	10	...........
	30	0.413333	1.70603E-001	-6.01527E-003	0.00000E+000	-1.02622E-003	-3.59960E-001	-1.08980E+000	3.57660E+000	10	...........
	31	0.426667	1.64170E-001	-6.01704E-003	0.00000E+000	-9.87820E-004	-3.59960E-001	-1.08007E+000	3.57660E+000	10	...........
	32	0.44	1.57826E-001	-6.01918E-003	0.00000E+000	-9.49982E-004	-3.59960E-001	-1.08195E+000	3.57660E+000	10	...........
	33	0.453333	1.51528E-001	-6.01338E-003	0.00000E+000	-9.11193E-004	-3.59960E-001	-1.09027E+000	3.57660E+000	10	...........
	34	0.466667	1.45294E-001	-6.01235E-003	0.00000E+000	-8.73555E-004	-3.59960E-001	-1.08013E+000	3.57660E+000	10	...........
	35	0.48	1.39047E-001	-6.01265E-003	0.00000E+000	-8.36042E-004	-3.59960E-001	-1.08190E+000	3.57660E+000	10	...........
	36	0.493333	1.32913E-001	-6.01610E-003	0.00000E+000	-7.99618E-004	-3.59960E-001	-1.09017E+000	3.57660E+000	10	...........
	37	0.506667	1.26835E-001	-6.01183E-003	0.00000E+000	-7.62513E-004	-3.59960E-001	-1.08033E+000	3.57660E+000	10	...........
	38	0.52	1.20810E-001	-6.01388E-003	0.00000E+000	-7.26538E-004	-3.59960E-001	-1.08185E+000	3.57660E+000	10	...........
	39	0.533333	1.14818E-001	-6.01219E-003	0.00000E+000	-6.90310E-004	-3.59960E-001	-1.09007E+000	3.57660E+000	10	...........
	40	0.546667	1.08853E-001	-6.01626E-003	0.00000E+000	-6.54887E-004	-3.59960E-001	-1.07983E+000	3.57660E+000	10	...........
	41	0.56	1.02972E-001	-6.01370E-003	0.00000E+000	-6.19240E-004	-3.59960E-001	-1.08182E+000	3.57660E+000	10	...........
	42	0.573333	9.71568E-002	-6.01414E-003	0.00000E+000	-5.84315E-004	-3.59960E-001	-1.09033E+000	3.57660E+000	10	...........
	43	0.586667	9.14356E-002	-6.01004E-003	0.00000E+000	-5.49532E-004	-3.59960E-001	-1.08014E+000	3.57660E+000	10	...........
	44	0.6	8.56891E-002	-6.01504E-003	0.00000E+000	-5.15423E-004	-3.59960E-001	-1.08168E+000	3.57660E+000	10	...........
	45	0.613333	8.00031E-002	-6.01465E-003	0.00000E+000	-4.81191E-004	-3.59960E-001	-1.08989E+000	3.57660E+000	10	...........
	46	0.626667	7.43581E-002	-6.01429E-003	0.00000E+000	-4.47211E-004	-3.59960E-001	-1.07991E+000	3.57660E+000	10	...........
	47	0.64	6.87793E-002	-6.01445E-003	0.00000E+000	-4.13670E-004	-3.59960E-001	-1.08183E+000	3.57660E+000	10	...........
	48	0.653333	6.32451E-002	-6.01220E-003	0.00000E+000	-3.80242E-004	-3.59960E-001	-1.09022E+000	3.57660E+000	10	...........
	49	0.666667	5.77358E-002	-6.01870E-003	0.00000E+000	-3.47494E-004	-3.59960E-001	-1.08021E+000	3.57660E+000	10	...........
	50	0.68	5.22928E-002	-6.01720E-003	0.00000E+000	-3.14656E-004	-3.59960E-001	-1.08164E+000	3.57660E+000	10	...........
	51	0.693333	4.69357E-002	-6.01841E-003	0.00000E+000	-2.82478E-004	-3.59960E-001	-1.09039E+000	3.57660E+000	10	...........
	52	0.706667	4.15796E-002	-6.01543E-003	0.00000E+000	-2.50119E-004	-3.59960E-001	-1.08039E+000	3.57660E+000	10	...........
	53	0.72	3.62726E-002	-6.01511E-003	0.00000E+000	-2.18183E-004	-3.59960E-001	-1.08189E+000	3.57660E+000	10	...........
	54	0.733333	3.09876E-002	-6.01429E-003	0.00000E+000	-1.86369E-004	-3.59960E-001	-1.09062E+000	3.57660E+000	10	...........
	55	0.746667	2.57547E-002	-6.01080E-003	0.00000E+000	-1.54807E-004	-3.59960E-001	-1.08034E+000	3.57660E+000	10	...........
	56	0.76	2.05913E-002	-6.01289E-003	0.00000E+000	-1.23813E-004	-3.59960E-001	-1.08192E+000	3.57660E+000	10	...........
	57	0.773333	1.54208E-002	-6.01744E-003	0.00000E+000	-9.27939E-005	-3.59960E-001	-1.09087E+000	3.57660E+000	10	...........
	58	0.786667	1.03005E-002	-6.01907E-003	0.00000E+000	-6.19994E-005	-3.59960E-001	-1.08089E+000	3.57660E+000	10	...........
	59	0.8	5.22911E-003	-6.01456E-003	0.00000E+000	-3.14508E-005	-3.59960E-001	-1.08197E+000	3.57660E+000	10	...........
	60	0.808333	1.16398E-003	-6.01202E-003	0.00000E+000	-6.99787E-006	-3.59960E-001	-1.09025E+000	3.57660E+000	10	...........
STARTTIMEOFFSET	QUANT	589.4315	Start Time Offset (s)
