EXPLAIN
TAG	PWR800_DISCHARGE
TITLE	LABEL	PWR Cyclic Charge Discharge (Cell) - Discharge Step	Test &Identifier
DATE	LABEL	22-6-2017	Date
TIME	LABEL	16:09:44	Time
NOTES	NOTES	3	&Notes...
	supercap test cell
	0.6mg
	6M KOH
PSTAT	PSTAT	IFC5000-01520	Potentiostat
CAPACITY	QUANT	1.00000E-003	Capacity (A-hr)
CELLTYPE	SELECTOR	1	&Cell Type
WORKINGCONNECTION	SELECTOR	0	&Working Lead
MAXDISCHARGETIME	VARIABLEANDUNITS	1.00000E+002	s	1.00000E+002	second(s)	Max &Discharge Time
DISCHARGEMODE	MULTIPARAM	0	6.00000E-003	&Discharge Mode	Constant Current	Amp(s)
SAMPLETIME	QUANT	1.00000E-002	Sa&mple Period (s)
DISCHARGESTOPAT1	MULTIPARAM	3	0.00000E+000	Discharge Stop At &1	Voltage < Limit	V
DISCHARGESTOPAT2	MULTIPARAM	0	0.00000E+000	Discharge Stop At &2	None	N/A
AESBHCSELECTOR	TOGGLE	F	Save Both Half Cells
IRCOMP	TOGGLE	F	IR &Measure
EOC	QUANT	0	Open Circuit (V)
SEQUENCER	TOGGLE	TRUE	Run as Sequence
PSTATMODEL	IQUANT	53	Pstat Model
PSTATSECTION	LABEL	IFC5000-01520	Pstat Section
PSTATSERIALNO	LABEL	01520	Pstat Serial Number
CTRLMODE	IQUANT	0	Control Mode
ELECTROMETER	IQUANT	1	RE=0 or CS=1
IESTAB	IQUANT	0	I/E Stability
CASPEED	IQUANT	4	Control Amp Speed
CONVENTION	IQUANT	1	Current Convention
ICHRANGE	IQUANT	2	Ich Range
ICHRANGEMODE	TOGGLE	T	Ich Auto Range
ICHOFFSETENABLE	TOGGLE	F	Ich Offset Enable
ICHOFFSET	QUANT	0	Ich Offset (V)
ICHFILTER	IQUANT	1	Ich Filter
VCHRANGE	IQUANT	2	Vch Range
VCHRANGEMODE	TOGGLE	T	Vch Auto Range
VCHOFFSETENABLE	TOGGLE	F	Vch Offset Enable
VCHOFFSET	QUANT	0	Vch Offset (V)
VCHFILTER	IQUANT	1	Vch Filter
IERANGELOWERLIMIT	IQUANT	9	I/E Range Lower Limit
IERANGEMODE	TOGGLE	F	I/E AutoRange
IERANGE	IQUANT	10	I/E Range
ACHSELECT	IQUANT	1	Ach Select
ACHRANGE	IQUANT	2	Ach Range
ACHOFFSETENABLE	TOGGLE	F	Ach Offset Enable
ACHOFFSET	QUANT	0	Ach Offset (V)
ACHFILTER	IQUANT	1	Ach Filter
CABLEID	IQUANT	14	Cable ID
DCCALDATE	LABEL	20-10-2016	DC Calibration Date
ACCALDATE	LABEL	12/3/2015	AC Calibration Date
FRAMEWORKVERSION	QUANT	7.01	Framework Version
INSTRUMENTVERSION	LABEL	4.00	Instrument Version
CURVE	TABLE	53
	Pt	T	Vf	Im	Vu	Pwr	Sig	Ach	Temp	IERange	Over
	#	s	V	A	V	W	V	V	deg C	#	bits
	0	0.013333	3.80491E-001	-6.01658E-003	0.00000E+000	-2.28925E-003	-3.59960E-001	-1.13840E+000	3.57650E+000	10	...........
	1	0.026667	3.69005E-001	-6.01201E-003	0.00000E+000	-2.21846E-003	-3.59960E-001	-1.12975E+000	3.57650E+000	10	...........
	2	0.04	3.58315E-001	-6.01535E-003	0.00000E+000	-2.15539E-003	-3.59960E-001	-1.13398E+000	3.57650E+000	10	...........
	3	0.053333	3.48139E-001	-6.01920E-003	0.00000E+000	-2.09552E-003	-3.59960E-001	-1.13880E+000	3.57650E+000	10	...........
	4	0.066667	3.38346E-001	-6.01223E-003	0.00000E+000	-2.03421E-003	-3.59960E-001	-1.12960E+000	3.57650E+000	10	...........
	5	0.08	3.28851E-001	-6.01339E-003	0.00000E+000	-1.97751E-003	-3.59960E-001	-1.13444E+000	3.57650E+000	10	...........
	6	0.093333	3.19601E-001	-6.01678E-003	0.00000E+000	-1.92297E-003	-3.59960E-001	-1.13905E+000	3.57650E+000	10	...........
	7	0.106667	3.10507E-001	-6.02104E-003	0.00000E+000	-1.86957E-003	-3.59960E-001	-1.13005E+000	3.57650E+000	10	...........
	8	0.12	3.01600E-001	-6.01816E-003	0.00000E+000	-1.81508E-003	-3.59960E-001	-1.13442E+000	3.57650E+000	10	...........
	9	0.133333	2.92818E-001	-6.01856E-003	0.00000E+000	-1.76234E-003	-3.59960E-001	-1.13915E+000	3.57650E+000	10	...........
	10	0.146667	2.84214E-001	-6.00951E-003	0.00000E+000	-1.70799E-003	-3.59960E-001	-1.13004E+000	3.57650E+000	10	...........
	11	0.16	2.75690E-001	-6.01531E-003	0.00000E+000	-1.65836E-003	-3.59960E-001	-1.13509E+000	3.57650E+000	10	...........
	12	0.173333	2.67324E-001	-6.01291E-003	0.00000E+000	-1.60740E-003	-3.59960E-001	-1.13941E+000	3.57650E+000	10	...........
	13	0.186667	2.59028E-001	-6.01036E-003	0.00000E+000	-1.55685E-003	-3.59960E-001	-1.13043E+000	3.57650E+000	10	...........
	14	0.2	2.50855E-001	-6.01638E-003	0.00000E+000	-1.50924E-003	-3.59960E-001	-1.13509E+000	3.57650E+000	10	...........
	15	0.213333	2.42795E-001	-6.01478E-003	0.00000E+000	-1.46036E-003	-3.59960E-001	-1.13969E+000	3.57650E+000	10	...........
	16	0.226667	2.34853E-001	-6.01520E-003	0.00000E+000	-1.41269E-003	-3.59960E-001	-1.13085E+000	3.57650E+000	10	...........
	17	0.24	2.27045E-001	-6.01396E-003	0.00000E+000	-1.36544E-003	-3.59960E-001	-1.13554E+000	3.57650E+000	10	...........
	18	0.253333	2.19289E-001	-6.01670E-003	0.00000E+000	-1.31939E-003	-3.59960E-001	-1.13975E+000	3.57650E+000	10	...........
	19	0.266667	2.11600E-001	-6.01772E-003	0.00000E+000	-1.27335E-003	-3.59960E-001	-1.13077E+000	3.57650E+000	10	...........
	20	0.28	2.04022E-001	-6.01497E-003	0.00000E+000	-1.22719E-003	-3.59960E-001	-1.13517E+000	3.57650E+000	10	...........
	21	0.293333	1.96567E-001	-6.01892E-003	0.00000E+000	-1.18312E-003	-3.59960E-001	-1.13987E+000	3.57650E+000	10	...........
	22	0.306667	1.89190E-001	-6.01556E-003	0.00000E+000	-1.13809E-003	-3.59960E-001	-1.13084E+000	3.57650E+000	10	...........
	23	0.32	1.81898E-001	-6.01553E-003	0.00000E+000	-1.09421E-003	-3.59960E-001	-1.13553E+000	3.57642E+000	10	...........
	24	0.333333	1.74677E-001	-6.01197E-003	0.00000E+000	-1.05016E-003	-3.59960E-001	-1.13985E+000	3.57630E+000	10	...........
	25	0.346667	1.67522E-001	-6.01585E-003	0.00000E+000	-1.00778E-003	-3.59960E-001	-1.13106E+000	3.57630E+000	10	...........
	26	0.36	1.60464E-001	-6.01596E-003	0.00000E+000	-9.65347E-004	-3.59960E-001	-1.13573E+000	3.57630E+000	10	...........
	27	0.373333	1.53562E-001	-6.01584E-003	0.00000E+000	-9.23802E-004	-3.59960E-001	-1.13995E+000	3.57630E+000	10	...........
	28	0.386667	1.46644E-001	-6.01424E-003	0.00000E+000	-8.81951E-004	-3.59960E-001	-1.13096E+000	3.57630E+000	10	...........
	29	0.4	1.39815E-001	-6.01740E-003	0.00000E+000	-8.41323E-004	-3.59960E-001	-1.13564E+000	3.57630E+000	10	...........
	30	0.413333	1.33048E-001	-6.01401E-003	0.00000E+000	-8.00152E-004	-3.59960E-001	-1.14011E+000	3.57630E+000	10	...........
	31	0.426667	1.26373E-001	-6.01360E-003	0.00000E+000	-7.59957E-004	-3.59960E-001	-1.13144E+000	3.57630E+000	10	...........
	32	0.44	1.19751E-001	-6.01550E-003	0.00000E+000	-7.20363E-004	-3.59960E-001	-1.13599E+000	3.57630E+000	10	...........
	33	0.453333	1.13235E-001	-6.01075E-003	0.00000E+000	-6.80628E-004	-3.59960E-001	-1.14004E+000	3.57630E+000	10	...........
	34	0.466667	1.06770E-001	-6.01502E-003	0.00000E+000	-6.42223E-004	-3.59960E-001	-1.13134E+000	3.57630E+000	10	...........
	35	0.48	1.00378E-001	-6.01789E-003	0.00000E+000	-6.04066E-004	-3.59960E-001	-1.13622E+000	3.57630E+000	10	...........
	36	0.493333	9.40489E-002	-6.01534E-003	0.00000E+000	-5.65736E-004	-3.59960E-001	-1.14061E+000	3.57630E+000	10	...........
	37	0.506667	8.77741E-002	-6.01228E-003	0.00000E+000	-5.27723E-004	-3.59960E-001	-1.13172E+000	3.57630E+000	10	...........
	38	0.52	8.16290E-002	-6.01414E-003	0.00000E+000	-4.90928E-004	-3.59960E-001	-1.13622E+000	3.57630E+000	10	...........
	39	0.533333	7.54823E-002	-6.01638E-003	0.00000E+000	-4.54131E-004	-3.59960E-001	-1.14052E+000	3.57630E+000	10	...........
	40	0.546667	6.93989E-002	-6.01868E-003	0.00000E+000	-4.17689E-004	-3.59960E-001	-1.13184E+000	3.57630E+000	10	...........
	41	0.56	6.33498E-002	-6.01606E-003	0.00000E+000	-3.81116E-004	-3.59960E-001	-1.13670E+000	3.57630E+000	10	...........
	42	0.573333	5.73935E-002	-6.01506E-003	0.00000E+000	-3.45225E-004	-3.59960E-001	-1.14072E+000	3.57630E+000	10	...........
	43	0.586667	5.14918E-002	-6.01540E-003	0.00000E+000	-3.09744E-004	-3.59960E-001	-1.13173E+000	3.57630E+000	10	...........
	44	0.6	4.57139E-002	-6.01851E-003	0.00000E+000	-2.75129E-004	-3.59960E-001	-1.13609E+000	3.57630E+000	10	...........
	45	0.613333	3.99409E-002	-6.01195E-003	0.00000E+000	-2.40123E-004	-3.59960E-001	-1.14035E+000	3.57630E+000	10	...........
	46	0.626667	3.42158E-002	-6.01480E-003	0.00000E+000	-2.05801E-004	-3.59960E-001	-1.13184E+000	3.57630E+000	10	...........
	47	0.64	2.85583E-002	-6.01749E-003	0.00000E+000	-1.71849E-004	-3.59960E-001	-1.13643E+000	3.57630E+000	10	...........
	48	0.653333	2.29432E-002	-6.01719E-003	0.00000E+000	-1.38053E-004	-3.59960E-001	-1.14027E+000	3.57630E+000	10	...........
	49	0.666667	1.73933E-002	-6.01991E-003	0.00000E+000	-1.04706E-004	-3.59960E-001	-1.13156E+000	3.57630E+000	10	...........
	50	0.68	1.18708E-002	-6.01316E-003	0.00000E+000	-7.13807E-005	-3.59960E-001	-1.13633E+000	3.57630E+000	10	...........
	51	0.693333	6.38868E-003	-6.01734E-003	0.00000E+000	-3.84429E-005	-3.59960E-001	-1.14069E+000	3.57630E+000	10	...........
	52	0.705	1.34413E-003	-6.01277E-003	0.00000E+000	-8.08194E-006	-3.59960E-001	-1.12992E+000	3.57630E+000	10	...........
STARTTIMEOFFSET	QUANT	1398.827	Start Time Offset (s)
