EXPLAIN
TAG	PWR800_DISCHARGE
TITLE	LABEL	PWR Cyclic Charge Discharge (Cell) - Discharge Step	Test &Identifier
DATE	LABEL	22-6-2017	Date
TIME	LABEL	16:02:13	Time
NOTES	NOTES	3	&Notes...
	supercap test cell
	0.6mg
	6M KOH
PSTAT	PSTAT	IFC5000-01520	Potentiostat
CAPACITY	QUANT	1.00000E-003	Capacity (A-hr)
CELLTYPE	SELECTOR	1	&Cell Type
WORKINGCONNECTION	SELECTOR	0	&Working Lead
MAXDISCHARGETIME	VARIABLEANDUNITS	1.00000E+002	s	1.00000E+002	second(s)	Max &Discharge Time
DISCHARGEMODE	MULTIPARAM	0	6.00000E-003	&Discharge Mode	Constant Current	Amp(s)
SAMPLETIME	QUANT	1.00000E-002	Sa&mple Period (s)
DISCHARGESTOPAT1	MULTIPARAM	3	0.00000E+000	Discharge Stop At &1	Voltage < Limit	V
DISCHARGESTOPAT2	MULTIPARAM	0	0.00000E+000	Discharge Stop At &2	None	N/A
AESBHCSELECTOR	TOGGLE	F	Save Both Half Cells
IRCOMP	TOGGLE	F	IR &Measure
EOC	QUANT	0	Open Circuit (V)
SEQUENCER	TOGGLE	TRUE	Run as Sequence
PSTATMODEL	IQUANT	53	Pstat Model
PSTATSECTION	LABEL	IFC5000-01520	Pstat Section
PSTATSERIALNO	LABEL	01520	Pstat Serial Number
CTRLMODE	IQUANT	0	Control Mode
ELECTROMETER	IQUANT	1	RE=0 or CS=1
IESTAB	IQUANT	0	I/E Stability
CASPEED	IQUANT	4	Control Amp Speed
CONVENTION	IQUANT	1	Current Convention
ICHRANGE	IQUANT	2	Ich Range
ICHRANGEMODE	TOGGLE	T	Ich Auto Range
ICHOFFSETENABLE	TOGGLE	F	Ich Offset Enable
ICHOFFSET	QUANT	0	Ich Offset (V)
ICHFILTER	IQUANT	1	Ich Filter
VCHRANGE	IQUANT	2	Vch Range
VCHRANGEMODE	TOGGLE	T	Vch Auto Range
VCHOFFSETENABLE	TOGGLE	F	Vch Offset Enable
VCHOFFSET	QUANT	0	Vch Offset (V)
VCHFILTER	IQUANT	1	Vch Filter
IERANGELOWERLIMIT	IQUANT	9	I/E Range Lower Limit
IERANGEMODE	TOGGLE	F	I/E AutoRange
IERANGE	IQUANT	10	I/E Range
ACHSELECT	IQUANT	1	Ach Select
ACHRANGE	IQUANT	2	Ach Range
ACHOFFSETENABLE	TOGGLE	F	Ach Offset Enable
ACHOFFSET	QUANT	0	Ach Offset (V)
ACHFILTER	IQUANT	1	Ach Filter
CABLEID	IQUANT	14	Cable ID
DCCALDATE	LABEL	20-10-2016	DC Calibration Date
ACCALDATE	LABEL	12/3/2015	AC Calibration Date
FRAMEWORKVERSION	QUANT	7.01	Framework Version
INSTRUMENTVERSION	LABEL	4.00	Instrument Version
CURVE	TABLE	56
	Pt	T	Vf	Im	Vu	Pwr	Sig	Ach	Temp	IERange	Over
	#	s	V	A	V	W	V	V	deg C	#	bits
	0	0.013333	3.87452E-001	-6.01479E-003	0.00000E+000	-2.33044E-003	-3.59960E-001	-1.11782E+000	3.57780E+000	10	...........
	1	0.026667	3.76132E-001	-6.01605E-003	0.00000E+000	-2.26283E-003	-3.59960E-001	-1.11335E+000	3.57780E+000	10	...........
	2	0.04	3.65613E-001	-6.01353E-003	0.00000E+000	-2.19863E-003	-3.59960E-001	-1.12371E+000	3.57780E+000	10	...........
	3	0.053333	3.55656E-001	-6.01435E-003	0.00000E+000	-2.13904E-003	-3.59960E-001	-1.11832E+000	3.57780E+000	10	...........
	4	0.066667	3.46066E-001	-6.01335E-003	0.00000E+000	-2.08101E-003	-3.59960E-001	-1.11372E+000	3.57780E+000	10	...........
	5	0.08	3.36754E-001	-6.01873E-003	0.00000E+000	-2.02683E-003	-3.59960E-001	-1.12383E+000	3.57780E+000	10	...........
	6	0.093333	3.27684E-001	-6.01372E-003	0.00000E+000	-1.97060E-003	-3.59960E-001	-1.11821E+000	3.57780E+000	10	...........
	7	0.106667	3.18778E-001	-6.01302E-003	0.00000E+000	-1.91682E-003	-3.59960E-001	-1.11406E+000	3.57780E+000	10	...........
	8	0.12	3.10043E-001	-6.00954E-003	0.00000E+000	-1.86321E-003	-3.59960E-001	-1.12430E+000	3.57780E+000	10	...........
	9	0.133333	3.01458E-001	-6.01608E-003	0.00000E+000	-1.81360E-003	-3.59960E-001	-1.11843E+000	3.57780E+000	10	...........
	10	0.146667	2.92966E-001	-6.01324E-003	0.00000E+000	-1.76167E-003	-3.59960E-001	-1.11423E+000	3.57780E+000	10	...........
	11	0.16	2.84595E-001	-6.01637E-003	0.00000E+000	-1.71223E-003	-3.59960E-001	-1.12479E+000	3.57780E+000	10	...........
	12	0.173333	2.76385E-001	-6.01940E-003	0.00000E+000	-1.66367E-003	-3.59960E-001	-1.11870E+000	3.57780E+000	10	...........
	13	0.186667	2.68297E-001	-6.01736E-003	0.00000E+000	-1.61444E-003	-3.59960E-001	-1.11456E+000	3.57780E+000	10	...........
	14	0.2	2.60300E-001	-6.01243E-003	0.00000E+000	-1.56503E-003	-3.59960E-001	-1.12472E+000	3.57780E+000	10	...........
	15	0.213333	2.52394E-001	-6.01360E-003	0.00000E+000	-1.51780E-003	-3.59960E-001	-1.11888E+000	3.57780E+000	10	...........
	16	0.226667	2.44601E-001	-6.01452E-003	0.00000E+000	-1.47116E-003	-3.59960E-001	-1.11433E+000	3.57780E+000	10	...........
	17	0.24	2.36884E-001	-6.01416E-003	0.00000E+000	-1.42466E-003	-3.59960E-001	-1.12474E+000	3.57780E+000	10	...........
	18	0.253333	2.29256E-001	-6.01375E-003	0.00000E+000	-1.37869E-003	-3.59960E-001	-1.11835E+000	3.57780E+000	10	...........
	19	0.266667	2.21731E-001	-6.01182E-003	0.00000E+000	-1.33301E-003	-3.59960E-001	-1.11414E+000	3.57780E+000	10	...........
	20	0.28	2.14281E-001	-6.01194E-003	0.00000E+000	-1.28825E-003	-3.59960E-001	-1.12489E+000	3.57780E+000	10	...........
	21	0.293333	2.06932E-001	-6.01793E-003	0.00000E+000	-1.24530E-003	-3.59960E-001	-1.11863E+000	3.57780E+000	10	...........
	22	0.306667	1.99670E-001	-6.01382E-003	0.00000E+000	-1.20078E-003	-3.59960E-001	-1.11462E+000	3.57780E+000	10	...........
	23	0.32	1.92449E-001	-6.01642E-003	0.00000E+000	-1.15786E-003	-3.59960E-001	-1.12513E+000	3.57780E+000	10	...........
	24	0.333333	1.85340E-001	-6.01504E-003	0.00000E+000	-1.11483E-003	-3.59960E-001	-1.11861E+000	3.57780E+000	10	...........
	25	0.346667	1.78338E-001	-6.01893E-003	0.00000E+000	-1.07340E-003	-3.59960E-001	-1.11439E+000	3.57780E+000	10	...........
	26	0.36	1.71349E-001	-6.01884E-003	0.00000E+000	-1.03132E-003	-3.59960E-001	-1.12541E+000	3.57780E+000	10	...........
	27	0.373333	1.64467E-001	-6.01129E-003	0.00000E+000	-9.88662E-004	-3.59960E-001	-1.11886E+000	3.57780E+000	10	...........
	28	0.386667	1.57661E-001	-6.01430E-003	0.00000E+000	-9.48218E-004	-3.59960E-001	-1.11475E+000	3.57780E+000	10	...........
	29	0.4	1.50938E-001	-6.01595E-003	0.00000E+000	-9.08037E-004	-3.59960E-001	-1.12539E+000	3.57780E+000	10	...........
	30	0.413333	1.44255E-001	-6.01279E-003	0.00000E+000	-8.67374E-004	-3.59960E-001	-1.11865E+000	3.57780E+000	10	...........
	31	0.426667	1.37639E-001	-6.01535E-003	0.00000E+000	-8.27946E-004	-3.59960E-001	-1.11492E+000	3.57780E+000	10	...........
	32	0.44	1.31115E-001	-6.02083E-003	0.00000E+000	-7.89422E-004	-3.59960E-001	-1.12582E+000	3.57780E+000	10	...........
	33	0.453333	1.24688E-001	-6.01191E-003	0.00000E+000	-7.49615E-004	-3.59960E-001	-1.11885E+000	3.57780E+000	10	...........
	34	0.466667	1.18260E-001	-6.01452E-003	0.00000E+000	-7.11274E-004	-3.59960E-001	-1.11504E+000	3.57780E+000	10	...........
	35	0.48	1.11960E-001	-6.01018E-003	0.00000E+000	-6.72899E-004	-3.59960E-001	-1.12576E+000	3.57780E+000	10	...........
	36	0.493333	1.05709E-001	-6.01450E-003	0.00000E+000	-6.35790E-004	-3.59960E-001	-1.11912E+000	3.57780E+000	10	...........
	37	0.506667	9.95000E-002	-6.01537E-003	0.00000E+000	-5.98530E-004	-3.59960E-001	-1.11535E+000	3.57780E+000	10	...........
	38	0.52	9.33959E-002	-6.01415E-003	0.00000E+000	-5.61697E-004	-3.59960E-001	-1.12597E+000	3.57780E+000	10	...........
	39	0.533333	8.73127E-002	-6.00885E-003	0.00000E+000	-5.24649E-004	-3.59960E-001	-1.11882E+000	3.57780E+000	10	...........
	40	0.546667	8.13040E-002	-6.01322E-003	0.00000E+000	-4.88899E-004	-3.59960E-001	-1.11494E+000	3.57780E+000	10	...........
	41	0.56	7.53166E-002	-6.01316E-003	0.00000E+000	-4.52891E-004	-3.59960E-001	-1.12600E+000	3.57780E+000	10	...........
	42	0.573333	6.93917E-002	-6.01154E-003	0.00000E+000	-4.17151E-004	-3.59960E-001	-1.11887E+000	3.57780E+000	10	...........
	43	0.586667	6.34994E-002	-6.01390E-003	0.00000E+000	-3.81879E-004	-3.59960E-001	-1.11511E+000	3.57780E+000	10	...........
	44	0.6	5.76683E-002	-6.01241E-003	0.00000E+000	-3.46726E-004	-3.59960E-001	-1.12591E+000	3.57780E+000	10	...........
	45	0.613333	5.19308E-002	-6.01223E-003	0.00000E+000	-3.12220E-004	-3.59960E-001	-1.11880E+000	3.57780E+000	10	...........
	46	0.626667	4.62441E-002	-6.01605E-003	0.00000E+000	-2.78207E-004	-3.59960E-001	-1.11528E+000	3.57780E+000	10	...........
	47	0.64	4.06202E-002	-6.01680E-003	0.00000E+000	-2.44403E-004	-3.59960E-001	-1.12630E+000	3.57780E+000	10	...........
	48	0.653333	3.50373E-002	-6.01828E-003	0.00000E+000	-2.10864E-004	-3.59960E-001	-1.11874E+000	3.57780E+000	10	...........
	49	0.666667	2.95066E-002	-6.02053E-003	0.00000E+000	-1.77645E-004	-3.59960E-001	-1.11543E+000	3.57780E+000	10	...........
	50	0.68	2.40060E-002	-6.01438E-003	0.00000E+000	-1.44381E-004	-3.59960E-001	-1.12652E+000	3.57780E+000	10	...........
	51	0.693333	1.85277E-002	-6.01778E-003	0.00000E+000	-1.11495E-004	-3.59960E-001	-1.11884E+000	3.57780E+000	10	...........
	52	0.706667	1.31088E-002	-6.01786E-003	0.00000E+000	-7.88872E-005	-3.59960E-001	-1.11551E+000	3.57780E+000	10	...........
	53	0.72	7.80065E-003	-6.01503E-003	0.00000E+000	-4.69211E-005	-3.59960E-001	-1.12651E+000	3.57780E+000	10	...........
	54	0.733333	2.51191E-003	-6.01808E-003	0.00000E+000	-1.51169E-005	-3.59960E-001	-1.11875E+000	3.57780E+000	10	...........
	55	0.735	-4.50378E-004	-6.01095E-003	0.00000E+000	2.70720E-006	-3.59960E-001	-1.12850E+000	3.57780E+000	10	...........
STARTTIMEOFFSET	QUANT	1106.943	Start Time Offset (s)
