EXPLAIN
TAG	PWR800_DISCHARGE
TITLE	LABEL	PWR Cyclic Charge Discharge (Cell) - Discharge Step	Test &Identifier
DATE	LABEL	22-6-2017	Date
TIME	LABEL	16:12:06	Time
NOTES	NOTES	3	&Notes...
	supercap test cell
	0.6mg
	6M KOH
PSTAT	PSTAT	IFC5000-01520	Potentiostat
CAPACITY	QUANT	1.00000E-003	Capacity (A-hr)
CELLTYPE	SELECTOR	1	&Cell Type
WORKINGCONNECTION	SELECTOR	0	&Working Lead
MAXDISCHARGETIME	VARIABLEANDUNITS	1.00000E+002	s	1.00000E+002	second(s)	Max &Discharge Time
DISCHARGEMODE	MULTIPARAM	0	6.00000E-003	&Discharge Mode	Constant Current	Amp(s)
SAMPLETIME	QUANT	1.00000E-002	Sa&mple Period (s)
DISCHARGESTOPAT1	MULTIPARAM	3	0.00000E+000	Discharge Stop At &1	Voltage < Limit	V
DISCHARGESTOPAT2	MULTIPARAM	0	0.00000E+000	Discharge Stop At &2	None	N/A
AESBHCSELECTOR	TOGGLE	F	Save Both Half Cells
IRCOMP	TOGGLE	F	IR &Measure
EOC	QUANT	0	Open Circuit (V)
SEQUENCER	TOGGLE	TRUE	Run as Sequence
PSTATMODEL	IQUANT	53	Pstat Model
PSTATSECTION	LABEL	IFC5000-01520	Pstat Section
PSTATSERIALNO	LABEL	01520	Pstat Serial Number
CTRLMODE	IQUANT	0	Control Mode
ELECTROMETER	IQUANT	1	RE=0 or CS=1
IESTAB	IQUANT	0	I/E Stability
CASPEED	IQUANT	4	Control Amp Speed
CONVENTION	IQUANT	1	Current Convention
ICHRANGE	IQUANT	2	Ich Range
ICHRANGEMODE	TOGGLE	T	Ich Auto Range
ICHOFFSETENABLE	TOGGLE	F	Ich Offset Enable
ICHOFFSET	QUANT	0	Ich Offset (V)
ICHFILTER	IQUANT	1	Ich Filter
VCHRANGE	IQUANT	2	Vch Range
VCHRANGEMODE	TOGGLE	T	Vch Auto Range
VCHOFFSETENABLE	TOGGLE	F	Vch Offset Enable
VCHOFFSET	QUANT	0	Vch Offset (V)
VCHFILTER	IQUANT	1	Vch Filter
IERANGELOWERLIMIT	IQUANT	9	I/E Range Lower Limit
IERANGEMODE	TOGGLE	F	I/E AutoRange
IERANGE	IQUANT	10	I/E Range
ACHSELECT	IQUANT	1	Ach Select
ACHRANGE	IQUANT	2	Ach Range
ACHOFFSETENABLE	TOGGLE	F	Ach Offset Enable
ACHOFFSET	QUANT	0	Ach Offset (V)
ACHFILTER	IQUANT	1	Ach Filter
CABLEID	IQUANT	14	Cable ID
DCCALDATE	LABEL	20-10-2016	DC Calibration Date
ACCALDATE	LABEL	12/3/2015	AC Calibration Date
FRAMEWORKVERSION	QUANT	7.01	Framework Version
INSTRUMENTVERSION	LABEL	4.00	Instrument Version
CURVE	TABLE	53
	Pt	T	Vf	Im	Vu	Pwr	Sig	Ach	Temp	IERange	Over
	#	s	V	A	V	W	V	V	deg C	#	bits
	0	0.013333	3.78416E-001	-6.01583E-003	0.00000E+000	-2.27649E-003	-3.59960E-001	-1.13906E+000	3.57660E+000	10	...........
	1	0.026667	3.66795E-001	-6.01104E-003	0.00000E+000	-2.20482E-003	-3.59960E-001	-1.14044E+000	3.57660E+000	10	...........
	2	0.04	3.56014E-001	-6.01651E-003	0.00000E+000	-2.14196E-003	-3.59960E-001	-1.13265E+000	3.57660E+000	10	...........
	3	0.053333	3.45845E-001	-6.01121E-003	0.00000E+000	-2.07895E-003	-3.59960E-001	-1.13948E+000	3.57660E+000	10	...........
	4	0.066667	3.35988E-001	-6.01861E-003	0.00000E+000	-2.02218E-003	-3.59960E-001	-1.14091E+000	3.57660E+000	10	...........
	5	0.08	3.26447E-001	-6.01388E-003	0.00000E+000	-1.96321E-003	-3.59960E-001	-1.13308E+000	3.57660E+000	10	...........
	6	0.093333	3.17090E-001	-6.01582E-003	0.00000E+000	-1.90756E-003	-3.59960E-001	-1.13963E+000	3.57660E+000	10	...........
	7	0.106667	3.07955E-001	-6.01454E-003	0.00000E+000	-1.85221E-003	-3.59960E-001	-1.14099E+000	3.57660E+000	10	...........
	8	0.12	2.98989E-001	-6.01382E-003	0.00000E+000	-1.79807E-003	-3.59960E-001	-1.13335E+000	3.57660E+000	10	...........
	9	0.133333	2.90161E-001	-6.01504E-003	0.00000E+000	-1.74533E-003	-3.59960E-001	-1.14017E+000	3.57660E+000	10	...........
	10	0.146667	2.81500E-001	-6.01698E-003	0.00000E+000	-1.69378E-003	-3.59960E-001	-1.14089E+000	3.57660E+000	10	...........
	11	0.16	2.72938E-001	-6.01497E-003	0.00000E+000	-1.64172E-003	-3.59960E-001	-1.13345E+000	3.57660E+000	10	...........
	12	0.173333	2.64464E-001	-6.01352E-003	0.00000E+000	-1.59036E-003	-3.59960E-001	-1.14024E+000	3.57660E+000	10	...........
	13	0.186667	2.56122E-001	-6.01732E-003	0.00000E+000	-1.54117E-003	-3.59960E-001	-1.14136E+000	3.57660E+000	10	...........
	14	0.2	2.47928E-001	-6.01132E-003	0.00000E+000	-1.49037E-003	-3.59960E-001	-1.13392E+000	3.57660E+000	10	...........
	15	0.213333	2.39849E-001	-6.01423E-003	0.00000E+000	-1.44251E-003	-3.59960E-001	-1.14069E+000	3.57660E+000	10	...........
	16	0.226667	2.31883E-001	-6.01280E-003	0.00000E+000	-1.39427E-003	-3.59960E-001	-1.14144E+000	3.57660E+000	10	...........
	17	0.24	2.23967E-001	-6.01642E-003	0.00000E+000	-1.34748E-003	-3.59960E-001	-1.13395E+000	3.57660E+000	10	...........
	18	0.253333	2.16162E-001	-6.01488E-003	0.00000E+000	-1.30019E-003	-3.59960E-001	-1.14100E+000	3.57660E+000	10	...........
	19	0.266667	2.08468E-001	-6.01527E-003	0.00000E+000	-1.25399E-003	-3.59960E-001	-1.14161E+000	3.57660E+000	10	...........
	20	0.28	2.00883E-001	-6.01217E-003	0.00000E+000	-1.20774E-003	-3.59960E-001	-1.13389E+000	3.57641E+000	10	...........
	21	0.293333	1.93361E-001	-6.01793E-003	0.00000E+000	-1.16363E-003	-3.59960E-001	-1.14081E+000	3.57640E+000	10	...........
	22	0.306667	1.85917E-001	-6.01275E-003	0.00000E+000	-1.11787E-003	-3.59960E-001	-1.14153E+000	3.57640E+000	10	...........
	23	0.32	1.78590E-001	-6.01299E-003	0.00000E+000	-1.07386E-003	-3.59960E-001	-1.13423E+000	3.57640E+000	10	...........
	24	0.333333	1.71303E-001	-6.01523E-003	0.00000E+000	-1.03043E-003	-3.59960E-001	-1.14121E+000	3.57640E+000	10	...........
	25	0.346667	1.64153E-001	-6.01576E-003	0.00000E+000	-9.87505E-004	-3.59960E-001	-1.14141E+000	3.57640E+000	10	...........
	26	0.36	1.57075E-001	-6.01859E-003	0.00000E+000	-9.45373E-004	-3.59960E-001	-1.13427E+000	3.57640E+000	10	...........
	27	0.373333	1.50079E-001	-6.01683E-003	0.00000E+000	-9.03001E-004	-3.59960E-001	-1.14136E+000	3.57640E+000	10	...........
	28	0.386667	1.43140E-001	-6.01595E-003	0.00000E+000	-8.61126E-004	-3.59960E-001	-1.14166E+000	3.57640E+000	10	...........
	29	0.4	1.36314E-001	-6.01212E-003	0.00000E+000	-8.19535E-004	-3.59960E-001	-1.13454E+000	3.57640E+000	10	...........
	30	0.413333	1.29566E-001	-6.01474E-003	0.00000E+000	-7.79308E-004	-3.59960E-001	-1.14177E+000	3.57640E+000	10	...........
	31	0.426667	1.22906E-001	-6.01139E-003	0.00000E+000	-7.38838E-004	-3.59960E-001	-1.14182E+000	3.57640E+000	10	...........
	32	0.44	1.16314E-001	-6.01708E-003	0.00000E+000	-6.99874E-004	-3.59960E-001	-1.13471E+000	3.57640E+000	10	...........
	33	0.453333	1.09735E-001	-6.01501E-003	0.00000E+000	-6.60055E-004	-3.59960E-001	-1.14189E+000	3.57640E+000	10	...........
	34	0.466667	1.03258E-001	-6.01299E-003	0.00000E+000	-6.20890E-004	-3.59960E-001	-1.14204E+000	3.57640E+000	10	...........
	35	0.48	9.68207E-002	-6.01177E-003	0.00000E+000	-5.82064E-004	-3.59960E-001	-1.13477E+000	3.57640E+000	10	...........
	36	0.493333	9.04842E-002	-6.01163E-003	0.00000E+000	-5.43957E-004	-3.59960E-001	-1.14210E+000	3.57640E+000	10	...........
	37	0.506667	8.41983E-002	-6.01507E-003	0.00000E+000	-5.06459E-004	-3.59960E-001	-1.14202E+000	3.57640E+000	10	...........
	38	0.52	7.79703E-002	-6.01857E-003	0.00000E+000	-4.69270E-004	-3.59960E-001	-1.13508E+000	3.57640E+000	10	...........
	39	0.533333	7.17872E-002	-6.02076E-003	0.00000E+000	-4.32214E-004	-3.59960E-001	-1.14242E+000	3.57640E+000	10	...........
	40	0.546667	6.56870E-002	-6.01200E-003	0.00000E+000	-3.94910E-004	-3.59960E-001	-1.14218E+000	3.57640E+000	10	...........
	41	0.56	5.96693E-002	-6.01471E-003	0.00000E+000	-3.58894E-004	-3.59960E-001	-1.13497E+000	3.57640E+000	10	...........
	42	0.573333	5.37070E-002	-6.01111E-003	0.00000E+000	-3.22839E-004	-3.59960E-001	-1.14248E+000	3.57640E+000	10	...........
	43	0.586667	4.77957E-002	-6.01327E-003	0.00000E+000	-2.87409E-004	-3.59960E-001	-1.14209E+000	3.57640E+000	10	...........
	44	0.6	4.19776E-002	-6.01683E-003	0.00000E+000	-2.52572E-004	-3.59960E-001	-1.13497E+000	3.57640E+000	10	...........
	45	0.613333	3.61737E-002	-6.01703E-003	0.00000E+000	-2.17658E-004	-3.59960E-001	-1.14224E+000	3.57640E+000	10	...........
	46	0.626667	3.04529E-002	-6.01084E-003	0.00000E+000	-1.83048E-004	-3.59960E-001	-1.14202E+000	3.57640E+000	10	...........
	47	0.64	2.47535E-002	-6.01750E-003	0.00000E+000	-1.48954E-004	-3.59960E-001	-1.13490E+000	3.57640E+000	10	...........
	48	0.653333	1.91191E-002	-6.01322E-003	0.00000E+000	-1.14967E-004	-3.59960E-001	-1.14254E+000	3.57640E+000	10	...........
	49	0.666667	1.35923E-002	-6.01282E-003	0.00000E+000	-8.17278E-005	-3.59960E-001	-1.14205E+000	3.57640E+000	10	...........
	50	0.68	8.08847E-003	-6.01114E-003	0.00000E+000	-4.86209E-005	-3.59960E-001	-1.13515E+000	3.57640E+000	10	...........
	51	0.693333	2.62042E-003	-6.01594E-003	0.00000E+000	-1.57643E-005	-3.59960E-001	-1.14250E+000	3.57640E+000	10	...........
	52	0.695	-4.05328E-004	-6.02205E-003	0.00000E+000	2.44091E-006	-3.59960E-001	-1.12286E+000	3.57640E+000	10	...........
STARTTIMEOFFSET	QUANT	1488.777	Start Time Offset (s)
