EXPLAIN
TAG	PWR800_DISCHARGE
TITLE	LABEL	PWR Cyclic Charge Discharge (Cell) - Discharge Step	Test &Identifier
DATE	LABEL	22-6-2017	Date
TIME	LABEL	16:04:15	Time
NOTES	NOTES	3	&Notes...
	supercap test cell
	0.6mg
	6M KOH
PSTAT	PSTAT	IFC5000-01520	Potentiostat
CAPACITY	QUANT	1.00000E-003	Capacity (A-hr)
CELLTYPE	SELECTOR	1	&Cell Type
WORKINGCONNECTION	SELECTOR	0	&Working Lead
MAXDISCHARGETIME	VARIABLEANDUNITS	1.00000E+002	s	1.00000E+002	second(s)	Max &Discharge Time
DISCHARGEMODE	MULTIPARAM	0	6.00000E-003	&Discharge Mode	Constant Current	Amp(s)
SAMPLETIME	QUANT	1.00000E-002	Sa&mple Period (s)
DISCHARGESTOPAT1	MULTIPARAM	3	0.00000E+000	Discharge Stop At &1	Voltage < Limit	V
DISCHARGESTOPAT2	MULTIPARAM	0	0.00000E+000	Discharge Stop At &2	None	N/A
AESBHCSELECTOR	TOGGLE	F	Save Both Half Cells
IRCOMP	TOGGLE	F	IR &Measure
EOC	QUANT	0	Open Circuit (V)
SEQUENCER	TOGGLE	TRUE	Run as Sequence
PSTATMODEL	IQUANT	53	Pstat Model
PSTATSECTION	LABEL	IFC5000-01520	Pstat Section
PSTATSERIALNO	LABEL	01520	Pstat Serial Number
CTRLMODE	IQUANT	0	Control Mode
ELECTROMETER	IQUANT	1	RE=0 or CS=1
IESTAB	IQUANT	0	I/E Stability
CASPEED	IQUANT	4	Control Amp Speed
CONVENTION	IQUANT	1	Current Convention
ICHRANGE	IQUANT	2	Ich Range
ICHRANGEMODE	TOGGLE	T	Ich Auto Range
ICHOFFSETENABLE	TOGGLE	F	Ich Offset Enable
ICHOFFSET	QUANT	0	Ich Offset (V)
ICHFILTER	IQUANT	1	Ich Filter
VCHRANGE	IQUANT	2	Vch Range
VCHRANGEMODE	TOGGLE	T	Vch Auto Range
VCHOFFSETENABLE	TOGGLE	F	Vch Offset Enable
VCHOFFSET	QUANT	0	Vch Offset (V)
VCHFILTER	IQUANT	1	Vch Filter
IERANGELOWERLIMIT	IQUANT	9	I/E Range Lower Limit
IERANGEMODE	TOGGLE	F	I/E AutoRange
IERANGE	IQUANT	10	I/E Range
ACHSELECT	IQUANT	1	Ach Select
ACHRANGE	IQUANT	2	Ach Range
ACHOFFSETENABLE	TOGGLE	F	Ach Offset Enable
ACHOFFSET	QUANT	0	Ach Offset (V)
ACHFILTER	IQUANT	1	Ach Filter
CABLEID	IQUANT	14	Cable ID
DCCALDATE	LABEL	20-10-2016	DC Calibration Date
ACCALDATE	LABEL	12/3/2015	AC Calibration Date
FRAMEWORKVERSION	QUANT	7.01	Framework Version
INSTRUMENTVERSION	LABEL	4.00	Instrument Version
CURVE	TABLE	55
	Pt	T	Vf	Im	Vu	Pwr	Sig	Ach	Temp	IERange	Over
	#	s	V	A	V	W	V	V	deg C	#	bits
	0	0.013333	3.86138E-001	-6.01342E-003	0.00000E+000	-2.32201E-003	-3.59960E-001	-1.12080E+000	3.57680E+000	10	...........
	1	0.026667	3.74728E-001	-6.01641E-003	0.00000E+000	-2.25452E-003	-3.59960E-001	-1.12113E+000	3.57680E+000	10	...........
	2	0.04	3.64136E-001	-6.01408E-003	0.00000E+000	-2.18994E-003	-3.59960E-001	-1.13170E+000	3.57680E+000	10	...........
	3	0.053333	3.54071E-001	-6.01784E-003	0.00000E+000	-2.13074E-003	-3.59960E-001	-1.12116E+000	3.57680E+000	10	...........
	4	0.066667	3.44433E-001	-6.01372E-003	0.00000E+000	-2.07132E-003	-3.59960E-001	-1.12114E+000	3.57680E+000	10	...........
	5	0.08	3.35073E-001	-6.01092E-003	0.00000E+000	-2.01410E-003	-3.59960E-001	-1.13184E+000	3.57680E+000	10	...........
	6	0.093333	3.25939E-001	-6.01773E-003	0.00000E+000	-1.96141E-003	-3.59960E-001	-1.12133E+000	3.57680E+000	10	...........
	7	0.106667	3.16966E-001	-6.01097E-003	0.00000E+000	-1.90527E-003	-3.59960E-001	-1.12158E+000	3.57680E+000	10	...........
	8	0.12	3.08158E-001	-6.01370E-003	0.00000E+000	-1.85317E-003	-3.59960E-001	-1.13197E+000	3.57680E+000	10	...........
	9	0.133333	2.99495E-001	-6.01217E-003	0.00000E+000	-1.80061E-003	-3.59960E-001	-1.12152E+000	3.57680E+000	10	...........
	10	0.146667	2.90995E-001	-6.01353E-003	0.00000E+000	-1.74991E-003	-3.59960E-001	-1.12178E+000	3.57680E+000	10	...........
	11	0.16	2.82600E-001	-6.01511E-003	0.00000E+000	-1.69987E-003	-3.59960E-001	-1.13252E+000	3.57680E+000	10	...........
	12	0.173333	2.74313E-001	-6.01022E-003	0.00000E+000	-1.64868E-003	-3.59960E-001	-1.12193E+000	3.57680E+000	10	...........
	13	0.186667	2.66181E-001	-6.01225E-003	0.00000E+000	-1.60035E-003	-3.59960E-001	-1.12184E+000	3.57680E+000	10	...........
	14	0.2	2.58119E-001	-6.01611E-003	0.00000E+000	-1.55287E-003	-3.59960E-001	-1.13238E+000	3.57680E+000	10	...........
	15	0.213333	2.50161E-001	-6.01702E-003	0.00000E+000	-1.50522E-003	-3.59960E-001	-1.12191E+000	3.57680E+000	10	...........
	16	0.226667	2.42309E-001	-6.01363E-003	0.00000E+000	-1.45716E-003	-3.59960E-001	-1.12223E+000	3.57680E+000	10	...........
	17	0.24	2.34565E-001	-6.01765E-003	0.00000E+000	-1.41153E-003	-3.59960E-001	-1.13234E+000	3.57680E+000	10	...........
	18	0.253333	2.26868E-001	-6.01904E-003	0.00000E+000	-1.36553E-003	-3.59960E-001	-1.12167E+000	3.57680E+000	10	...........
	19	0.266667	2.19310E-001	-6.01413E-003	0.00000E+000	-1.31896E-003	-3.59960E-001	-1.12190E+000	3.57680E+000	10	...........
	20	0.28	2.11799E-001	-6.01381E-003	0.00000E+000	-1.27372E-003	-3.59960E-001	-1.13238E+000	3.57680E+000	10	...........
	21	0.293333	2.04400E-001	-6.01338E-003	0.00000E+000	-1.22913E-003	-3.59960E-001	-1.12191E+000	3.57680E+000	10	...........
	22	0.306667	1.97073E-001	-6.01401E-003	0.00000E+000	-1.18520E-003	-3.59960E-001	-1.12229E+000	3.57680E+000	10	...........
	23	0.32	1.89854E-001	-6.01334E-003	0.00000E+000	-1.14166E-003	-3.59960E-001	-1.13258E+000	3.57680E+000	10	...........
	24	0.333333	1.82732E-001	-6.01870E-003	0.00000E+000	-1.09981E-003	-3.59960E-001	-1.12172E+000	3.57680E+000	10	...........
	25	0.346667	1.75671E-001	-6.01856E-003	0.00000E+000	-1.05729E-003	-3.59960E-001	-1.12230E+000	3.57680E+000	10	...........
	26	0.36	1.68693E-001	-6.01579E-003	0.00000E+000	-1.01482E-003	-3.59960E-001	-1.13280E+000	3.57680E+000	10	...........
	27	0.373333	1.61781E-001	-6.02111E-003	0.00000E+000	-9.74099E-004	-3.59960E-001	-1.12200E+000	3.57680E+000	10	...........
	28	0.386667	1.54945E-001	-6.01540E-003	0.00000E+000	-9.32058E-004	-3.59960E-001	-1.12260E+000	3.57680E+000	10	...........
	29	0.4	1.48151E-001	-6.01658E-003	0.00000E+000	-8.91363E-004	-3.59960E-001	-1.13272E+000	3.57680E+000	10	...........
	30	0.413333	1.41469E-001	-6.01650E-003	0.00000E+000	-8.51150E-004	-3.59960E-001	-1.12214E+000	3.57680E+000	10	...........
	31	0.426667	1.34825E-001	-6.01497E-003	0.00000E+000	-8.10967E-004	-3.59960E-001	-1.12264E+000	3.57680E+000	10	...........
	32	0.44	1.28259E-001	-6.01462E-003	0.00000E+000	-7.71430E-004	-3.59960E-001	-1.13308E+000	3.57680E+000	10	...........
	33	0.453333	1.21755E-001	-6.01772E-003	0.00000E+000	-7.32685E-004	-3.59960E-001	-1.12233E+000	3.57680E+000	10	...........
	34	0.466667	1.15324E-001	-6.01307E-003	0.00000E+000	-6.93448E-004	-3.59960E-001	-1.12281E+000	3.57680E+000	10	...........
	35	0.48	1.08973E-001	-6.02027E-003	0.00000E+000	-6.56047E-004	-3.59960E-001	-1.13300E+000	3.57680E+000	10	...........
	36	0.493333	1.02730E-001	-6.01723E-003	0.00000E+000	-6.18152E-004	-3.59960E-001	-1.12265E+000	3.57680E+000	10	...........
	37	0.506667	9.64762E-002	-6.01687E-003	0.00000E+000	-5.80485E-004	-3.59960E-001	-1.12308E+000	3.57680E+000	10	...........
	38	0.52	9.03091E-002	-6.01532E-003	0.00000E+000	-5.43238E-004	-3.59960E-001	-1.13339E+000	3.57680E+000	10	...........
	39	0.533333	8.42186E-002	-6.01452E-003	0.00000E+000	-5.06534E-004	-3.59960E-001	-1.12266E+000	3.57680E+000	10	...........
	40	0.546667	7.81595E-002	-6.01818E-003	0.00000E+000	-4.70378E-004	-3.59960E-001	-1.12301E+000	3.57680E+000	10	...........
	41	0.56	7.21552E-002	-6.01273E-003	0.00000E+000	-4.33850E-004	-3.59960E-001	-1.13303E+000	3.57680E+000	10	...........
	42	0.573333	6.62521E-002	-6.01318E-003	0.00000E+000	-3.98386E-004	-3.59960E-001	-1.12243E+000	3.57680E+000	10	...........
	43	0.586667	6.03620E-002	-6.01470E-003	0.00000E+000	-3.63060E-004	-3.59960E-001	-1.12304E+000	3.57680E+000	10	...........
	44	0.6	5.45212E-002	-6.01940E-003	0.00000E+000	-3.28185E-004	-3.59960E-001	-1.13312E+000	3.57680E+000	10	...........
	45	0.613333	4.87829E-002	-6.01226E-003	0.00000E+000	-2.93296E-004	-3.59960E-001	-1.12226E+000	3.57680E+000	10	...........
	46	0.626667	4.30815E-002	-6.02107E-003	0.00000E+000	-2.59397E-004	-3.59960E-001	-1.12317E+000	3.57680E+000	10	...........
	47	0.64	3.74261E-002	-6.01477E-003	0.00000E+000	-2.25109E-004	-3.59960E-001	-1.13342E+000	3.57680E+000	10	...........
	48	0.653333	3.18053E-002	-6.01692E-003	0.00000E+000	-1.91370E-004	-3.59960E-001	-1.12264E+000	3.57680E+000	10	...........
	49	0.666667	2.62594E-002	-6.01510E-003	0.00000E+000	-1.57953E-004	-3.59960E-001	-1.12322E+000	3.57680E+000	10	...........
	50	0.68	2.07394E-002	-6.01023E-003	0.00000E+000	-1.24649E-004	-3.59960E-001	-1.13319E+000	3.57680E+000	10	...........
	51	0.693333	1.53038E-002	-6.01892E-003	0.00000E+000	-9.21124E-005	-3.59960E-001	-1.12241E+000	3.57680E+000	10	...........
	52	0.706667	9.90707E-003	-6.01236E-003	0.00000E+000	-5.95649E-005	-3.59960E-001	-1.12353E+000	3.57680E+000	10	...........
	53	0.72	4.54164E-003	-6.01519E-003	0.00000E+000	-2.73188E-005	-3.59960E-001	-1.13334E+000	3.57680E+000	10	...........
	54	0.726667	5.38687E-004	-6.00955E-003	0.00000E+000	-3.23727E-006	-3.59960E-001	-1.11237E+000	3.57680E+000	10	...........
STARTTIMEOFFSET	QUANT	1186.284	Start Time Offset (s)
