EXPLAIN
TAG	PWR800_DISCHARGE
TITLE	LABEL	PWR Cyclic Charge Discharge (Cell) - Discharge Step	Test &Identifier
DATE	LABEL	22-6-2017	Date
TIME	LABEL	16:01:53	Time
NOTES	NOTES	3	&Notes...
	supercap test cell
	0.6mg
	6M KOH
PSTAT	PSTAT	IFC5000-01520	Potentiostat
CAPACITY	QUANT	1.00000E-003	Capacity (A-hr)
CELLTYPE	SELECTOR	1	&Cell Type
WORKINGCONNECTION	SELECTOR	0	&Working Lead
MAXDISCHARGETIME	VARIABLEANDUNITS	1.00000E+002	s	1.00000E+002	second(s)	Max &Discharge Time
DISCHARGEMODE	MULTIPARAM	0	6.00000E-003	&Discharge Mode	Constant Current	Amp(s)
SAMPLETIME	QUANT	1.00000E-002	Sa&mple Period (s)
DISCHARGESTOPAT1	MULTIPARAM	3	0.00000E+000	Discharge Stop At &1	Voltage < Limit	V
DISCHARGESTOPAT2	MULTIPARAM	0	0.00000E+000	Discharge Stop At &2	None	N/A
AESBHCSELECTOR	TOGGLE	F	Save Both Half Cells
IRCOMP	TOGGLE	F	IR &Measure
EOC	QUANT	0	Open Circuit (V)
SEQUENCER	TOGGLE	TRUE	Run as Sequence
PSTATMODEL	IQUANT	53	Pstat Model
PSTATSECTION	LABEL	IFC5000-01520	Pstat Section
PSTATSERIALNO	LABEL	01520	Pstat Serial Number
CTRLMODE	IQUANT	0	Control Mode
ELECTROMETER	IQUANT	1	RE=0 or CS=1
IESTAB	IQUANT	0	I/E Stability
CASPEED	IQUANT	4	Control Amp Speed
CONVENTION	IQUANT	1	Current Convention
ICHRANGE	IQUANT	2	Ich Range
ICHRANGEMODE	TOGGLE	T	Ich Auto Range
ICHOFFSETENABLE	TOGGLE	F	Ich Offset Enable
ICHOFFSET	QUANT	0	Ich Offset (V)
ICHFILTER	IQUANT	1	Ich Filter
VCHRANGE	IQUANT	2	Vch Range
VCHRANGEMODE	TOGGLE	T	Vch Auto Range
VCHOFFSETENABLE	TOGGLE	F	Vch Offset Enable
VCHOFFSET	QUANT	0	Vch Offset (V)
VCHFILTER	IQUANT	1	Vch Filter
IERANGELOWERLIMIT	IQUANT	9	I/E Range Lower Limit
IERANGEMODE	TOGGLE	F	I/E AutoRange
IERANGE	IQUANT	10	I/E Range
ACHSELECT	IQUANT	1	Ach Select
ACHRANGE	IQUANT	2	Ach Range
ACHOFFSETENABLE	TOGGLE	F	Ach Offset Enable
ACHOFFSET	QUANT	0	Ach Offset (V)
ACHFILTER	IQUANT	1	Ach Filter
CABLEID	IQUANT	14	Cable ID
DCCALDATE	LABEL	20-10-2016	DC Calibration Date
ACCALDATE	LABEL	12/3/2015	AC Calibration Date
FRAMEWORKVERSION	QUANT	7.01	Framework Version
INSTRUMENTVERSION	LABEL	4.00	Instrument Version
CURVE	TABLE	56
	Pt	T	Vf	Im	Vu	Pwr	Sig	Ach	Temp	IERange	Over
	#	s	V	A	V	W	V	V	deg C	#	bits
	0	0.013333	3.87852E-001	-6.01535E-003	0.00000E+000	-2.33307E-003	-3.59960E-001	-1.11769E+000	3.57720E+000	10	...........
	1	0.026667	3.76575E-001	-6.01592E-003	0.00000E+000	-2.26545E-003	-3.59960E-001	-1.11821E+000	3.57720E+000	10	...........
	2	0.04	3.66089E-001	-6.01284E-003	0.00000E+000	-2.20123E-003	-3.59960E-001	-1.12834E+000	3.57720E+000	10	...........
	3	0.053333	3.56147E-001	-6.01917E-003	0.00000E+000	-2.14371E-003	-3.59960E-001	-1.11789E+000	3.57720E+000	10	...........
	4	0.066667	3.46586E-001	-6.01684E-003	0.00000E+000	-2.08535E-003	-3.59960E-001	-1.11860E+000	3.57720E+000	10	...........
	5	0.08	3.37254E-001	-6.01816E-003	0.00000E+000	-2.02965E-003	-3.59960E-001	-1.12880E+000	3.57720E+000	10	...........
	6	0.093333	3.28187E-001	-6.01042E-003	0.00000E+000	-1.97254E-003	-3.59960E-001	-1.11803E+000	3.57720E+000	10	...........
	7	0.106667	3.19272E-001	-6.01558E-003	0.00000E+000	-1.92060E-003	-3.59960E-001	-1.11831E+000	3.57720E+000	10	...........
	8	0.12	3.10523E-001	-6.01058E-003	0.00000E+000	-1.86642E-003	-3.59960E-001	-1.12846E+000	3.57720E+000	10	...........
	9	0.133333	3.01938E-001	-6.01652E-003	0.00000E+000	-1.81662E-003	-3.59960E-001	-1.11784E+000	3.57720E+000	10	...........
	10	0.146667	2.93495E-001	-6.01782E-003	0.00000E+000	-1.76620E-003	-3.59960E-001	-1.11864E+000	3.57720E+000	10	...........
	11	0.16	2.85191E-001	-6.01720E-003	0.00000E+000	-1.71605E-003	-3.59960E-001	-1.12870E+000	3.57730E+000	10	...........
	12	0.173333	2.76944E-001	-6.01942E-003	0.00000E+000	-1.66704E-003	-3.59960E-001	-1.11793E+000	3.57730E+000	10	...........
	13	0.186667	2.68835E-001	-6.01265E-003	0.00000E+000	-1.61641E-003	-3.59960E-001	-1.11879E+000	3.57730E+000	10	...........
	14	0.2	2.60848E-001	-6.01419E-003	0.00000E+000	-1.56879E-003	-3.59960E-001	-1.12900E+000	3.57730E+000	10	...........
	15	0.213333	2.52932E-001	-6.00991E-003	0.00000E+000	-1.52010E-003	-3.59960E-001	-1.11822E+000	3.57730E+000	10	...........
	16	0.226667	2.45157E-001	-6.01659E-003	0.00000E+000	-1.47501E-003	-3.59960E-001	-1.11884E+000	3.57730E+000	10	...........
	17	0.24	2.37480E-001	-6.01532E-003	0.00000E+000	-1.42852E-003	-3.59960E-001	-1.12865E+000	3.57730E+000	10	...........
	18	0.253333	2.29854E-001	-6.01540E-003	0.00000E+000	-1.38266E-003	-3.59960E-001	-1.11830E+000	3.57730E+000	10	...........
	19	0.266667	2.22314E-001	-6.01655E-003	0.00000E+000	-1.33756E-003	-3.59960E-001	-1.11921E+000	3.57730E+000	10	...........
	20	0.28	2.14906E-001	-6.01145E-003	0.00000E+000	-1.29189E-003	-3.59960E-001	-1.12923E+000	3.57730E+000	10	...........
	21	0.293333	2.07580E-001	-6.01831E-003	0.00000E+000	-1.24928E-003	-3.59960E-001	-1.11847E+000	3.57730E+000	10	...........
	22	0.306667	2.00329E-001	-6.01187E-003	0.00000E+000	-1.20435E-003	-3.59960E-001	-1.11914E+000	3.57730E+000	10	...........
	23	0.32	1.93140E-001	-6.00904E-003	0.00000E+000	-1.16059E-003	-3.59960E-001	-1.12937E+000	3.57730E+000	10	...........
	24	0.333333	1.86018E-001	-6.01308E-003	0.00000E+000	-1.11854E-003	-3.59960E-001	-1.11894E+000	3.57730E+000	10	...........
	25	0.346667	1.78944E-001	-6.01402E-003	0.00000E+000	-1.07617E-003	-3.59960E-001	-1.11963E+000	3.57730E+000	10	...........
	26	0.36	1.71953E-001	-6.01663E-003	0.00000E+000	-1.03458E-003	-3.59960E-001	-1.12939E+000	3.57730E+000	10	...........
	27	0.373333	1.65107E-001	-6.01394E-003	0.00000E+000	-9.92944E-004	-3.59960E-001	-1.11886E+000	3.57730E+000	10	...........
	28	0.386667	1.58301E-001	-6.01193E-003	0.00000E+000	-9.51692E-004	-3.59960E-001	-1.11981E+000	3.57730E+000	10	...........
	29	0.4	1.51581E-001	-6.01118E-003	0.00000E+000	-9.11181E-004	-3.59960E-001	-1.12985E+000	3.57730E+000	10	...........
	30	0.413333	1.44902E-001	-6.01453E-003	0.00000E+000	-8.71516E-004	-3.59960E-001	-1.11919E+000	3.57730E+000	10	...........
	31	0.426667	1.38327E-001	-6.01357E-003	0.00000E+000	-8.31836E-004	-3.59960E-001	-1.11964E+000	3.57730E+000	10	...........
	32	0.44	1.31812E-001	-6.01068E-003	0.00000E+000	-7.92279E-004	-3.59960E-001	-1.12939E+000	3.57730E+000	10	...........
	33	0.453333	1.25348E-001	-6.01646E-003	0.00000E+000	-7.54152E-004	-3.59960E-001	-1.11871E+000	3.57730E+000	10	...........
	34	0.466667	1.18947E-001	-6.01224E-003	0.00000E+000	-7.15135E-004	-3.59960E-001	-1.11988E+000	3.57730E+000	10	...........
	35	0.48	1.12587E-001	-6.01604E-003	0.00000E+000	-6.77329E-004	-3.59960E-001	-1.12950E+000	3.57730E+000	10	...........
	36	0.493333	1.06343E-001	-6.01339E-003	0.00000E+000	-6.39481E-004	-3.59960E-001	-1.11881E+000	3.57730E+000	10	...........
	37	0.506667	1.00144E-001	-6.01435E-003	0.00000E+000	-6.02303E-004	-3.59960E-001	-1.12008E+000	3.57730E+000	10	...........
	38	0.52	9.40205E-002	-6.01147E-003	0.00000E+000	-5.65201E-004	-3.59960E-001	-1.12961E+000	3.57730E+000	10	...........
	39	0.533333	8.79186E-002	-6.01744E-003	0.00000E+000	-5.29045E-004	-3.59960E-001	-1.11908E+000	3.57730E+000	10	...........
	40	0.546667	8.18919E-002	-6.01652E-003	0.00000E+000	-4.92704E-004	-3.59960E-001	-1.12008E+000	3.57730E+000	10	...........
	41	0.56	7.59174E-002	-6.01507E-003	0.00000E+000	-4.56648E-004	-3.59960E-001	-1.12948E+000	3.57730E+000	10	...........
	42	0.573333	7.00381E-002	-6.01145E-003	0.00000E+000	-4.21030E-004	-3.59960E-001	-1.11898E+000	3.57730E+000	10	...........
	43	0.586667	6.41630E-002	-6.01545E-003	0.00000E+000	-3.85969E-004	-3.59960E-001	-1.12018E+000	3.57730E+000	10	...........
	44	0.6	5.83415E-002	-6.01483E-003	0.00000E+000	-3.50914E-004	-3.59960E-001	-1.12980E+000	3.57730E+000	10	...........
	45	0.613333	5.25720E-002	-6.01502E-003	0.00000E+000	-3.16222E-004	-3.59960E-001	-1.11919E+000	3.57730E+000	10	...........
	46	0.626667	4.68908E-002	-6.01320E-003	0.00000E+000	-2.81964E-004	-3.59960E-001	-1.12003E+000	3.57730E+000	10	...........
	47	0.64	4.12957E-002	-6.01425E-003	0.00000E+000	-2.48363E-004	-3.59960E-001	-1.12950E+000	3.57730E+000	10	...........
	48	0.653333	3.56799E-002	-6.01419E-003	0.00000E+000	-2.14586E-004	-3.59960E-001	-1.11925E+000	3.57730E+000	10	...........
	49	0.666667	3.01311E-002	-6.01469E-003	0.00000E+000	-1.81229E-004	-3.59960E-001	-1.12058E+000	3.57730E+000	10	...........
	50	0.68	2.46219E-002	-6.00964E-003	0.00000E+000	-1.47969E-004	-3.59960E-001	-1.13005E+000	3.57730E+000	10	...........
	51	0.693333	1.91729E-002	-6.01185E-003	0.00000E+000	-1.15265E-004	-3.59960E-001	-1.11925E+000	3.57730E+000	10	...........
	52	0.706667	1.37738E-002	-6.01407E-003	0.00000E+000	-8.28365E-005	-3.59960E-001	-1.12034E+000	3.57730E+000	10	...........
	53	0.72	8.44780E-003	-6.01176E-003	0.00000E+000	-5.07862E-005	-3.59960E-001	-1.12999E+000	3.57730E+000	10	...........
	54	0.733333	3.11334E-003	-6.01764E-003	0.00000E+000	-1.87350E-005	-3.59960E-001	-1.11935E+000	3.57730E+000	10	...........
	55	0.736667	-1.72622E-004	-6.01679E-003	0.00000E+000	1.03863E-006	-3.59960E-001	-1.13279E+000	3.57730E+000	10	...........
STARTTIMEOFFSET	QUANT	1093.638	Start Time Offset (s)
