EXPLAIN
TAG	PWR800_DISCHARGE
TITLE	LABEL	PWR Cyclic Charge Discharge (Cell) - Discharge Step	Test &Identifier
DATE	LABEL	22-6-2017	Date
TIME	LABEL	15:58:52	Time
NOTES	NOTES	3	&Notes...
	supercap test cell
	0.6mg
	6M KOH
PSTAT	PSTAT	IFC5000-01520	Potentiostat
CAPACITY	QUANT	1.00000E-003	Capacity (A-hr)
CELLTYPE	SELECTOR	1	&Cell Type
WORKINGCONNECTION	SELECTOR	0	&Working Lead
MAXDISCHARGETIME	VARIABLEANDUNITS	1.00000E+002	s	1.00000E+002	second(s)	Max &Discharge Time
DISCHARGEMODE	MULTIPARAM	0	6.00000E-003	&Discharge Mode	Constant Current	Amp(s)
SAMPLETIME	QUANT	1.00000E-002	Sa&mple Period (s)
DISCHARGESTOPAT1	MULTIPARAM	3	0.00000E+000	Discharge Stop At &1	Voltage < Limit	V
DISCHARGESTOPAT2	MULTIPARAM	0	0.00000E+000	Discharge Stop At &2	None	N/A
AESBHCSELECTOR	TOGGLE	F	Save Both Half Cells
IRCOMP	TOGGLE	F	IR &Measure
EOC	QUANT	0	Open Circuit (V)
SEQUENCER	TOGGLE	TRUE	Run as Sequence
PSTATMODEL	IQUANT	53	Pstat Model
PSTATSECTION	LABEL	IFC5000-01520	Pstat Section
PSTATSERIALNO	LABEL	01520	Pstat Serial Number
CTRLMODE	IQUANT	0	Control Mode
ELECTROMETER	IQUANT	1	RE=0 or CS=1
IESTAB	IQUANT	0	I/E Stability
CASPEED	IQUANT	4	Control Amp Speed
CONVENTION	IQUANT	1	Current Convention
ICHRANGE	IQUANT	2	Ich Range
ICHRANGEMODE	TOGGLE	T	Ich Auto Range
ICHOFFSETENABLE	TOGGLE	F	Ich Offset Enable
ICHOFFSET	QUANT	0	Ich Offset (V)
ICHFILTER	IQUANT	1	Ich Filter
VCHRANGE	IQUANT	2	Vch Range
VCHRANGEMODE	TOGGLE	T	Vch Auto Range
VCHOFFSETENABLE	TOGGLE	F	Vch Offset Enable
VCHOFFSET	QUANT	0	Vch Offset (V)
VCHFILTER	IQUANT	1	Vch Filter
IERANGELOWERLIMIT	IQUANT	9	I/E Range Lower Limit
IERANGEMODE	TOGGLE	F	I/E AutoRange
IERANGE	IQUANT	10	I/E Range
ACHSELECT	IQUANT	1	Ach Select
ACHRANGE	IQUANT	2	Ach Range
ACHOFFSETENABLE	TOGGLE	F	Ach Offset Enable
ACHOFFSET	QUANT	0	Ach Offset (V)
ACHFILTER	IQUANT	1	Ach Filter
CABLEID	IQUANT	14	Cable ID
DCCALDATE	LABEL	20-10-2016	DC Calibration Date
ACCALDATE	LABEL	12/3/2015	AC Calibration Date
FRAMEWORKVERSION	QUANT	7.01	Framework Version
INSTRUMENTVERSION	LABEL	4.00	Instrument Version
CURVE	TABLE	57
	Pt	T	Vf	Im	Vu	Pwr	Sig	Ach	Temp	IERange	Over
	#	s	V	A	V	W	V	V	deg C	#	bits
	0	0.013333	3.91243E-001	-6.01332E-003	0.00000E+000	-2.35267E-003	-3.59960E-001	-1.10758E+000	3.57650E+000	10	...........
	1	0.026667	3.80000E-001	-6.01483E-003	0.00000E+000	-2.28564E-003	-3.59960E-001	-1.11882E+000	3.57650E+000	10	...........
	2	0.04	3.69585E-001	-6.01423E-003	0.00000E+000	-2.22277E-003	-3.59960E-001	-1.11062E+000	3.57650E+000	10	...........
	3	0.053333	3.59694E-001	-6.00939E-003	0.00000E+000	-2.16154E-003	-3.59960E-001	-1.10791E+000	3.57650E+000	10	...........
	4	0.066667	3.50166E-001	-6.01482E-003	0.00000E+000	-2.10618E-003	-3.59960E-001	-1.11913E+000	3.57650E+000	10	...........
	5	0.08	3.40934E-001	-6.01671E-003	0.00000E+000	-2.05130E-003	-3.59960E-001	-1.11101E+000	3.57650E+000	10	...........
	6	0.093333	3.31951E-001	-6.01552E-003	0.00000E+000	-1.99686E-003	-3.59960E-001	-1.10800E+000	3.57650E+000	10	...........
	7	0.106667	3.23140E-001	-6.01811E-003	0.00000E+000	-1.94469E-003	-3.59960E-001	-1.11914E+000	3.57650E+000	10	...........
	8	0.12	3.14464E-001	-6.01562E-003	0.00000E+000	-1.89170E-003	-3.59960E-001	-1.11114E+000	3.57650E+000	10	...........
	9	0.133333	3.05942E-001	-6.01749E-003	0.00000E+000	-1.84100E-003	-3.59960E-001	-1.10836E+000	3.57650E+000	10	...........
	10	0.146667	2.97577E-001	-6.01157E-003	0.00000E+000	-1.78890E-003	-3.59960E-001	-1.11940E+000	3.57650E+000	10	...........
	11	0.16	2.89299E-001	-6.01600E-003	0.00000E+000	-1.74042E-003	-3.59960E-001	-1.11145E+000	3.57650E+000	10	...........
	12	0.173333	2.81124E-001	-6.01020E-003	0.00000E+000	-1.68961E-003	-3.59960E-001	-1.10871E+000	3.57650E+000	10	...........
	13	0.186667	2.73103E-001	-6.01586E-003	0.00000E+000	-1.64295E-003	-3.59960E-001	-1.11971E+000	3.57650E+000	10	...........
	14	0.2	2.65199E-001	-6.01369E-003	0.00000E+000	-1.59483E-003	-3.59960E-001	-1.11192E+000	3.57650E+000	10	...........
	15	0.213333	2.57351E-001	-6.02022E-003	0.00000E+000	-1.54931E-003	-3.59960E-001	-1.10885E+000	3.57650E+000	10	...........
	16	0.226667	2.49633E-001	-6.01621E-003	0.00000E+000	-1.50185E-003	-3.59960E-001	-1.11972E+000	3.57650E+000	10	...........
	17	0.24	2.41985E-001	-6.01394E-003	0.00000E+000	-1.45528E-003	-3.59960E-001	-1.11184E+000	3.57650E+000	10	...........
	18	0.253333	2.34436E-001	-6.01223E-003	0.00000E+000	-1.40948E-003	-3.59960E-001	-1.10903E+000	3.57650E+000	10	...........
	19	0.266667	2.26948E-001	-6.01391E-003	0.00000E+000	-1.36485E-003	-3.59960E-001	-1.12005E+000	3.57650E+000	10	...........
	20	0.28	2.19600E-001	-6.01110E-003	0.00000E+000	-1.32004E-003	-3.59960E-001	-1.11196E+000	3.57650E+000	10	...........
	21	0.293333	2.12321E-001	-6.01154E-003	0.00000E+000	-1.27638E-003	-3.59960E-001	-1.10877E+000	3.57650E+000	10	...........
	22	0.306667	2.05085E-001	-6.01520E-003	0.00000E+000	-1.23363E-003	-3.59960E-001	-1.11974E+000	3.57650E+000	10	...........
	23	0.32	1.97956E-001	-6.01491E-003	0.00000E+000	-1.19069E-003	-3.59960E-001	-1.11212E+000	3.57650E+000	10	...........
	24	0.333333	1.90894E-001	-6.01698E-003	0.00000E+000	-1.14860E-003	-3.59960E-001	-1.10915E+000	3.57650E+000	10	...........
	25	0.346667	1.83887E-001	-6.01576E-003	0.00000E+000	-1.10622E-003	-3.59960E-001	-1.11979E+000	3.57650E+000	10	...........
	26	0.36	1.77002E-001	-6.01509E-003	0.00000E+000	-1.06468E-003	-3.59960E-001	-1.11228E+000	3.57650E+000	10	...........
	27	0.373333	1.70152E-001	-6.01781E-003	0.00000E+000	-1.02394E-003	-3.59960E-001	-1.10892E+000	3.57650E+000	10	...........
	28	0.386667	1.63371E-001	-6.01736E-003	0.00000E+000	-9.83063E-004	-3.59960E-001	-1.11995E+000	3.57650E+000	10	...........
	29	0.4	1.56694E-001	-6.01566E-003	0.00000E+000	-9.42617E-004	-3.59960E-001	-1.11244E+000	3.57650E+000	10	...........
	30	0.413333	1.50046E-001	-6.01437E-003	0.00000E+000	-9.02430E-004	-3.59960E-001	-1.10922E+000	3.57650E+000	10	...........
	31	0.426667	1.43525E-001	-6.01384E-003	0.00000E+000	-8.63139E-004	-3.59960E-001	-1.11989E+000	3.57650E+000	10	...........
	32	0.44	1.37005E-001	-6.01622E-003	0.00000E+000	-8.24251E-004	-3.59960E-001	-1.11235E+000	3.57650E+000	10	...........
	33	0.453333	1.30598E-001	-6.01197E-003	0.00000E+000	-7.85153E-004	-3.59960E-001	-1.10919E+000	3.57650E+000	10	...........
	34	0.466667	1.24209E-001	-6.01943E-003	0.00000E+000	-7.47668E-004	-3.59960E-001	-1.11999E+000	3.57650E+000	10	...........
	35	0.48	1.17940E-001	-6.01346E-003	0.00000E+000	-7.09225E-004	-3.59960E-001	-1.11283E+000	3.57650E+000	10	...........
	36	0.493333	1.11703E-001	-6.01822E-003	0.00000E+000	-6.72252E-004	-3.59960E-001	-1.10948E+000	3.57650E+000	10	...........
	37	0.506667	1.05509E-001	-6.01718E-003	0.00000E+000	-6.34866E-004	-3.59960E-001	-1.12014E+000	3.57650E+000	10	...........
	38	0.52	9.94143E-002	-6.00903E-003	0.00000E+000	-5.97384E-004	-3.59960E-001	-1.11280E+000	3.57650E+000	10	...........
	39	0.533333	9.33594E-002	-6.01148E-003	0.00000E+000	-5.61228E-004	-3.59960E-001	-1.10964E+000	3.57650E+000	10	...........
	40	0.546667	8.73575E-002	-6.01586E-003	0.00000E+000	-5.25530E-004	-3.59960E-001	-1.12028E+000	3.57650E+000	10	...........
	41	0.56	8.14101E-002	-6.01543E-003	0.00000E+000	-4.89717E-004	-3.59960E-001	-1.11294E+000	3.57650E+000	10	...........
	42	0.573333	7.54996E-002	-6.01874E-003	0.00000E+000	-4.54412E-004	-3.59960E-001	-1.10940E+000	3.57650E+000	10	...........
	43	0.586667	6.96683E-002	-6.01270E-003	0.00000E+000	-4.18895E-004	-3.59960E-001	-1.12015E+000	3.57650E+000	10	...........
	44	0.6	6.38759E-002	-6.01284E-003	0.00000E+000	-3.84075E-004	-3.59960E-001	-1.11297E+000	3.57650E+000	10	...........
	45	0.613333	5.81076E-002	-6.01525E-003	0.00000E+000	-3.49532E-004	-3.59960E-001	-1.10933E+000	3.57650E+000	10	...........
	46	0.626667	5.24172E-002	-6.01905E-003	0.00000E+000	-3.15502E-004	-3.59960E-001	-1.12003E+000	3.57650E+000	10	...........
	47	0.64	4.68233E-002	-6.01567E-003	0.00000E+000	-2.81674E-004	-3.59960E-001	-1.11296E+000	3.57650E+000	10	...........
	48	0.653333	4.12487E-002	-6.01159E-003	0.00000E+000	-2.47970E-004	-3.59960E-001	-1.10928E+000	3.57650E+000	10	...........
	49	0.666667	3.57000E-002	-6.01106E-003	0.00000E+000	-2.14595E-004	-3.59960E-001	-1.12023E+000	3.57650E+000	10	...........
	50	0.68	3.02349E-002	-6.01415E-003	0.00000E+000	-1.81837E-004	-3.59960E-001	-1.11327E+000	3.57650E+000	10	...........
	51	0.693333	2.47844E-002	-6.01419E-003	0.00000E+000	-1.49058E-004	-3.59960E-001	-1.10924E+000	3.57650E+000	10	...........
	52	0.706667	1.94240E-002	-6.01157E-003	0.00000E+000	-1.16769E-004	-3.59960E-001	-1.11995E+000	3.57650E+000	10	...........
	53	0.72	1.40774E-002	-6.01655E-003	0.00000E+000	-8.46974E-005	-3.59960E-001	-1.11311E+000	3.57650E+000	10	...........
	54	0.733333	8.79725E-003	-6.01267E-003	0.00000E+000	-5.28950E-005	-3.59960E-001	-1.10951E+000	3.57650E+000	10	...........
	55	0.746667	3.49756E-003	-6.01787E-003	0.00000E+000	-2.10479E-005	-3.59960E-001	-1.12013E+000	3.57650E+000	10	...........
	56	0.75	2.66262E-004	-6.00890E-003	0.00000E+000	-1.59994E-006	-3.59960E-001	-1.09740E+000	3.57650E+000	10	...........
STARTTIMEOFFSET	QUANT	975.61	Start Time Offset (s)
