EXPLAIN
TAG	PWR800_DISCHARGE
TITLE	LABEL	PWR Cyclic Charge Discharge (Cell) - Discharge Step	Test &Identifier
DATE	LABEL	22-6-2017	Date
TIME	LABEL	16:07:54	Time
NOTES	NOTES	3	&Notes...
	supercap test cell
	0.6mg
	6M KOH
PSTAT	PSTAT	IFC5000-01520	Potentiostat
CAPACITY	QUANT	1.00000E-003	Capacity (A-hr)
CELLTYPE	SELECTOR	1	&Cell Type
WORKINGCONNECTION	SELECTOR	0	&Working Lead
MAXDISCHARGETIME	VARIABLEANDUNITS	1.00000E+002	s	1.00000E+002	second(s)	Max &Discharge Time
DISCHARGEMODE	MULTIPARAM	0	6.00000E-003	&Discharge Mode	Constant Current	Amp(s)
SAMPLETIME	QUANT	1.00000E-002	Sa&mple Period (s)
DISCHARGESTOPAT1	MULTIPARAM	3	0.00000E+000	Discharge Stop At &1	Voltage < Limit	V
DISCHARGESTOPAT2	MULTIPARAM	0	0.00000E+000	Discharge Stop At &2	None	N/A
AESBHCSELECTOR	TOGGLE	F	Save Both Half Cells
IRCOMP	TOGGLE	F	IR &Measure
EOC	QUANT	0	Open Circuit (V)
SEQUENCER	TOGGLE	TRUE	Run as Sequence
PSTATMODEL	IQUANT	53	Pstat Model
PSTATSECTION	LABEL	IFC5000-01520	Pstat Section
PSTATSERIALNO	LABEL	01520	Pstat Serial Number
CTRLMODE	IQUANT	0	Control Mode
ELECTROMETER	IQUANT	1	RE=0 or CS=1
IESTAB	IQUANT	0	I/E Stability
CASPEED	IQUANT	4	Control Amp Speed
CONVENTION	IQUANT	1	Current Convention
ICHRANGE	IQUANT	2	Ich Range
ICHRANGEMODE	TOGGLE	T	Ich Auto Range
ICHOFFSETENABLE	TOGGLE	F	Ich Offset Enable
ICHOFFSET	QUANT	0	Ich Offset (V)
ICHFILTER	IQUANT	1	Ich Filter
VCHRANGE	IQUANT	2	Vch Range
VCHRANGEMODE	TOGGLE	T	Vch Auto Range
VCHOFFSETENABLE	TOGGLE	F	Vch Offset Enable
VCHOFFSET	QUANT	0	Vch Offset (V)
VCHFILTER	IQUANT	1	Vch Filter
IERANGELOWERLIMIT	IQUANT	9	I/E Range Lower Limit
IERANGEMODE	TOGGLE	F	I/E AutoRange
IERANGE	IQUANT	10	I/E Range
ACHSELECT	IQUANT	1	Ach Select
ACHRANGE	IQUANT	2	Ach Range
ACHOFFSETENABLE	TOGGLE	F	Ach Offset Enable
ACHOFFSET	QUANT	0	Ach Offset (V)
ACHFILTER	IQUANT	1	Ach Filter
CABLEID	IQUANT	14	Cable ID
DCCALDATE	LABEL	20-10-2016	DC Calibration Date
ACCALDATE	LABEL	12/3/2015	AC Calibration Date
FRAMEWORKVERSION	QUANT	7.01	Framework Version
INSTRUMENTVERSION	LABEL	4.00	Instrument Version
CURVE	TABLE	54
	Pt	T	Vf	Im	Vu	Pwr	Sig	Ach	Temp	IERange	Over
	#	s	V	A	V	W	V	V	deg C	#	bits
	0	0.013333	3.81842E-001	-6.01486E-003	0.00000E+000	-2.29673E-003	-3.59960E-001	-1.12733E+000	3.57660E+000	10	...........
	1	0.026667	3.70331E-001	-6.01386E-003	0.00000E+000	-2.22712E-003	-3.59960E-001	-1.13228E+000	3.57660E+000	10	...........
	2	0.04	3.59720E-001	-6.01694E-003	0.00000E+000	-2.16441E-003	-3.59960E-001	-1.13622E+000	3.57660E+000	10	...........
	3	0.053333	3.49608E-001	-6.01346E-003	0.00000E+000	-2.10235E-003	-3.59960E-001	-1.12732E+000	3.57657E+000	10	...........
	4	0.066667	3.39875E-001	-6.01694E-003	0.00000E+000	-2.04500E-003	-3.59960E-001	-1.13218E+000	3.57640E+000	10	...........
	5	0.08	3.30370E-001	-6.01304E-003	0.00000E+000	-1.98653E-003	-3.59960E-001	-1.13594E+000	3.57640E+000	10	...........
	6	0.093333	3.21156E-001	-6.01695E-003	0.00000E+000	-1.93238E-003	-3.59960E-001	-1.12729E+000	3.57640E+000	10	...........
	7	0.106667	3.12127E-001	-6.01678E-003	0.00000E+000	-1.87800E-003	-3.59960E-001	-1.13251E+000	3.57640E+000	10	...........
	8	0.12	3.03269E-001	-6.01633E-003	0.00000E+000	-1.82456E-003	-3.59960E-001	-1.13603E+000	3.57640E+000	10	...........
	9	0.133333	2.94546E-001	-6.00936E-003	0.00000E+000	-1.77003E-003	-3.59960E-001	-1.12738E+000	3.57640E+000	10	...........
	10	0.146667	2.85933E-001	-6.01336E-003	0.00000E+000	-1.71942E-003	-3.59960E-001	-1.13272E+000	3.57640E+000	10	...........
	11	0.16	2.77498E-001	-6.01518E-003	0.00000E+000	-1.66920E-003	-3.59960E-001	-1.13637E+000	3.57640E+000	10	...........
	12	0.173333	2.69170E-001	-6.00937E-003	0.00000E+000	-1.61755E-003	-3.59960E-001	-1.12763E+000	3.57640E+000	10	...........
	13	0.186667	2.60898E-001	-6.01249E-003	0.00000E+000	-1.56865E-003	-3.59960E-001	-1.13265E+000	3.57640E+000	10	...........
	14	0.2	2.52793E-001	-6.01217E-003	0.00000E+000	-1.51984E-003	-3.59960E-001	-1.13645E+000	3.57640E+000	10	...........
	15	0.213333	2.44792E-001	-6.02013E-003	0.00000E+000	-1.47368E-003	-3.59960E-001	-1.12796E+000	3.57640E+000	10	...........
	16	0.226667	2.36839E-001	-6.01831E-003	0.00000E+000	-1.42537E-003	-3.59960E-001	-1.13302E+000	3.57640E+000	10	...........
	17	0.24	2.29017E-001	-6.01018E-003	0.00000E+000	-1.37643E-003	-3.59960E-001	-1.13665E+000	3.57640E+000	10	...........
	18	0.253333	2.21326E-001	-6.01772E-003	0.00000E+000	-1.33188E-003	-3.59960E-001	-1.12767E+000	3.57640E+000	10	...........
	19	0.266667	2.13702E-001	-6.01227E-003	0.00000E+000	-1.28484E-003	-3.59960E-001	-1.13277E+000	3.57640E+000	10	...........
	20	0.28	2.06171E-001	-6.01379E-003	0.00000E+000	-1.23987E-003	-3.59960E-001	-1.13650E+000	3.57640E+000	10	...........
	21	0.293333	1.98721E-001	-6.01046E-003	0.00000E+000	-1.19440E-003	-3.59960E-001	-1.12787E+000	3.57640E+000	10	...........
	22	0.306667	1.91356E-001	-6.01170E-003	0.00000E+000	-1.15038E-003	-3.59960E-001	-1.13296E+000	3.57640E+000	10	...........
	23	0.32	1.84086E-001	-6.01663E-003	0.00000E+000	-1.10758E-003	-3.59960E-001	-1.13642E+000	3.57640E+000	10	...........
	24	0.333333	1.76900E-001	-6.01474E-003	0.00000E+000	-1.06401E-003	-3.59960E-001	-1.12770E+000	3.57640E+000	10	...........
	25	0.346667	1.69829E-001	-6.01591E-003	0.00000E+000	-1.02168E-003	-3.59960E-001	-1.13307E+000	3.57640E+000	10	...........
	26	0.36	1.62835E-001	-6.01543E-003	0.00000E+000	-9.79521E-004	-3.59960E-001	-1.13665E+000	3.57640E+000	10	...........
	27	0.373333	1.55880E-001	-6.01460E-003	0.00000E+000	-9.37558E-004	-3.59960E-001	-1.12792E+000	3.57640E+000	10	...........
	28	0.386667	1.48989E-001	-6.01749E-003	0.00000E+000	-8.96541E-004	-3.59960E-001	-1.13236E+000	3.57640E+000	10	...........
	29	0.4	1.42198E-001	-6.01513E-003	0.00000E+000	-8.55339E-004	-3.59960E-001	-1.13610E+000	3.57640E+000	10	...........
	30	0.413333	1.35449E-001	-6.01480E-003	0.00000E+000	-8.14701E-004	-3.59960E-001	-1.12770E+000	3.57640E+000	10	...........
	31	0.426667	1.28791E-001	-6.01453E-003	0.00000E+000	-7.74617E-004	-3.59960E-001	-1.13289E+000	3.57640E+000	10	...........
	32	0.44	1.22162E-001	-6.01714E-003	0.00000E+000	-7.35068E-004	-3.59960E-001	-1.13623E+000	3.57640E+000	10	...........
	33	0.453333	1.15667E-001	-6.01441E-003	0.00000E+000	-6.95670E-004	-3.59960E-001	-1.12743E+000	3.57640E+000	10	...........
	34	0.466667	1.09238E-001	-6.01175E-003	0.00000E+000	-6.56712E-004	-3.59960E-001	-1.13261E+000	3.57640E+000	10	...........
	35	0.48	1.02878E-001	-6.01522E-003	0.00000E+000	-6.18836E-004	-3.59960E-001	-1.13638E+000	3.57640E+000	10	...........
	36	0.493333	9.65939E-002	-6.01152E-003	0.00000E+000	-5.80677E-004	-3.59960E-001	-1.12801E+000	3.57640E+000	10	...........
	37	0.506667	9.02812E-002	-6.01857E-003	0.00000E+000	-5.43364E-004	-3.59960E-001	-1.13290E+000	3.57640E+000	10	...........
	38	0.52	8.41159E-002	-6.01665E-003	0.00000E+000	-5.06096E-004	-3.59960E-001	-1.13614E+000	3.57640E+000	10	...........
	39	0.533333	7.80366E-002	-6.01000E-003	0.00000E+000	-4.69000E-004	-3.59960E-001	-1.12770E+000	3.57640E+000	10	...........
	40	0.546667	7.19376E-002	-6.00907E-003	0.00000E+000	-4.32278E-004	-3.59960E-001	-1.13329E+000	3.57640E+000	10	...........
	41	0.56	6.59164E-002	-6.01674E-003	0.00000E+000	-3.96602E-004	-3.59960E-001	-1.13657E+000	3.57640E+000	10	...........
	42	0.573333	5.99844E-002	-6.01658E-003	0.00000E+000	-3.60901E-004	-3.59960E-001	-1.12767E+000	3.57640E+000	10	...........
	43	0.586667	5.41151E-002	-6.01428E-003	0.00000E+000	-3.25463E-004	-3.59960E-001	-1.13287E+000	3.57640E+000	10	...........
	44	0.6	4.83381E-002	-6.01728E-003	0.00000E+000	-2.90864E-004	-3.59960E-001	-1.13658E+000	3.57640E+000	10	...........
	45	0.613333	4.25976E-002	-6.01374E-003	0.00000E+000	-2.56171E-004	-3.59960E-001	-1.12834E+000	3.57640E+000	10	...........
	46	0.626667	3.68811E-002	-6.01115E-003	0.00000E+000	-2.21698E-004	-3.59960E-001	-1.13348E+000	3.57640E+000	10	...........
	47	0.64	3.12166E-002	-6.01362E-003	0.00000E+000	-1.87725E-004	-3.59960E-001	-1.13661E+000	3.57640E+000	10	...........
	48	0.653333	2.56072E-002	-6.01300E-003	0.00000E+000	-1.53976E-004	-3.59960E-001	-1.12809E+000	3.57640E+000	10	...........
	49	0.666667	2.00642E-002	-6.01616E-003	0.00000E+000	-1.20710E-004	-3.59960E-001	-1.13357E+000	3.57640E+000	10	...........
	50	0.68	1.45519E-002	-6.01789E-003	0.00000E+000	-8.75719E-005	-3.59960E-001	-1.13690E+000	3.57640E+000	10	...........
	51	0.693333	9.08329E-003	-6.01262E-003	0.00000E+000	-5.46143E-005	-3.59960E-001	-1.12834E+000	3.57640E+000	10	...........
	52	0.706667	3.66274E-003	-6.01855E-003	0.00000E+000	-2.20444E-005	-3.59960E-001	-1.13295E+000	3.57640E+000	10	...........
	53	0.71	2.93141E-004	-6.00698E-003	0.00000E+000	-1.76090E-006	-3.59960E-001	-1.12229E+000	3.57640E+000	10	...........
STARTTIMEOFFSET	QUANT	1327.746	Start Time Offset (s)
