EXPLAIN
TAG	PWR800_DISCHARGE
TITLE	LABEL	PWR Cyclic Charge Discharge (Cell) - Discharge Step	Test &Identifier
DATE	LABEL	22-6-2017	Date
TIME	LABEL	16:03:21	Time
NOTES	NOTES	3	&Notes...
	supercap test cell
	0.6mg
	6M KOH
PSTAT	PSTAT	IFC5000-01520	Potentiostat
CAPACITY	QUANT	1.00000E-003	Capacity (A-hr)
CELLTYPE	SELECTOR	1	&Cell Type
WORKINGCONNECTION	SELECTOR	0	&Working Lead
MAXDISCHARGETIME	VARIABLEANDUNITS	1.00000E+002	s	1.00000E+002	second(s)	Max &Discharge Time
DISCHARGEMODE	MULTIPARAM	0	6.00000E-003	&Discharge Mode	Constant Current	Amp(s)
SAMPLETIME	QUANT	1.00000E-002	Sa&mple Period (s)
DISCHARGESTOPAT1	MULTIPARAM	3	0.00000E+000	Discharge Stop At &1	Voltage < Limit	V
DISCHARGESTOPAT2	MULTIPARAM	0	0.00000E+000	Discharge Stop At &2	None	N/A
AESBHCSELECTOR	TOGGLE	F	Save Both Half Cells
IRCOMP	TOGGLE	F	IR &Measure
EOC	QUANT	0	Open Circuit (V)
SEQUENCER	TOGGLE	TRUE	Run as Sequence
PSTATMODEL	IQUANT	53	Pstat Model
PSTATSECTION	LABEL	IFC5000-01520	Pstat Section
PSTATSERIALNO	LABEL	01520	Pstat Serial Number
CTRLMODE	IQUANT	0	Control Mode
ELECTROMETER	IQUANT	1	RE=0 or CS=1
IESTAB	IQUANT	0	I/E Stability
CASPEED	IQUANT	4	Control Amp Speed
CONVENTION	IQUANT	1	Current Convention
ICHRANGE	IQUANT	2	Ich Range
ICHRANGEMODE	TOGGLE	T	Ich Auto Range
ICHOFFSETENABLE	TOGGLE	F	Ich Offset Enable
ICHOFFSET	QUANT	0	Ich Offset (V)
ICHFILTER	IQUANT	1	Ich Filter
VCHRANGE	IQUANT	2	Vch Range
VCHRANGEMODE	TOGGLE	T	Vch Auto Range
VCHOFFSETENABLE	TOGGLE	F	Vch Offset Enable
VCHOFFSET	QUANT	0	Vch Offset (V)
VCHFILTER	IQUANT	1	Vch Filter
IERANGELOWERLIMIT	IQUANT	9	I/E Range Lower Limit
IERANGEMODE	TOGGLE	F	I/E AutoRange
IERANGE	IQUANT	10	I/E Range
ACHSELECT	IQUANT	1	Ach Select
ACHRANGE	IQUANT	2	Ach Range
ACHOFFSETENABLE	TOGGLE	F	Ach Offset Enable
ACHOFFSET	QUANT	0	Ach Offset (V)
ACHFILTER	IQUANT	1	Ach Filter
CABLEID	IQUANT	14	Cable ID
DCCALDATE	LABEL	20-10-2016	DC Calibration Date
ACCALDATE	LABEL	12/3/2015	AC Calibration Date
FRAMEWORKVERSION	QUANT	7.01	Framework Version
INSTRUMENTVERSION	LABEL	4.00	Instrument Version
CURVE	TABLE	55
	Pt	T	Vf	Im	Vu	Pwr	Sig	Ach	Temp	IERange	Over
	#	s	V	A	V	W	V	V	deg C	#	bits
	0	0.013333	3.87161E-001	-6.01768E-003	0.00000E+000	-2.32981E-003	-3.59960E-001	-1.11902E+000	3.57660E+000	10	...........
	1	0.026667	3.75784E-001	-6.01271E-003	0.00000E+000	-2.25948E-003	-3.59960E-001	-1.13019E+000	3.57660E+000	10	...........
	2	0.04	3.65232E-001	-6.01458E-003	0.00000E+000	-2.19672E-003	-3.59960E-001	-1.12008E+000	3.57660E+000	10	...........
	3	0.053333	3.55211E-001	-6.01690E-003	0.00000E+000	-2.13727E-003	-3.59960E-001	-1.11976E+000	3.57660E+000	10	...........
	4	0.066667	3.45600E-001	-6.01640E-003	0.00000E+000	-2.07927E-003	-3.59960E-001	-1.13063E+000	3.57645E+000	10	...........
	5	0.08	3.36188E-001	-6.01010E-003	0.00000E+000	-2.02052E-003	-3.59960E-001	-1.12006E+000	3.57640E+000	10	...........
	6	0.093333	3.27067E-001	-6.01748E-003	0.00000E+000	-1.96812E-003	-3.59960E-001	-1.11982E+000	3.57640E+000	10	...........
	7	0.106667	3.18143E-001	-6.01768E-003	0.00000E+000	-1.91448E-003	-3.59960E-001	-1.13084E+000	3.57640E+000	10	...........
	8	0.12	3.09375E-001	-6.01507E-003	0.00000E+000	-1.86091E-003	-3.59960E-001	-1.12058E+000	3.57640E+000	10	...........
	9	0.133333	3.00729E-001	-6.01603E-003	0.00000E+000	-1.80919E-003	-3.59960E-001	-1.11999E+000	3.57640E+000	10	...........
	10	0.146667	2.92193E-001	-6.01720E-003	0.00000E+000	-1.75818E-003	-3.59960E-001	-1.13085E+000	3.57640E+000	10	...........
	11	0.16	2.83848E-001	-6.01646E-003	0.00000E+000	-1.70776E-003	-3.59960E-001	-1.12037E+000	3.57640E+000	10	...........
	12	0.173333	2.75549E-001	-6.01408E-003	0.00000E+000	-1.65717E-003	-3.59960E-001	-1.12034E+000	3.57640E+000	10	...........
	13	0.186667	2.67390E-001	-6.01503E-003	0.00000E+000	-1.60836E-003	-3.59960E-001	-1.13112E+000	3.57640E+000	10	...........
	14	0.2	2.59356E-001	-6.01288E-003	0.00000E+000	-1.55948E-003	-3.59960E-001	-1.12044E+000	3.57640E+000	10	...........
	15	0.213333	2.51457E-001	-6.01178E-003	0.00000E+000	-1.51171E-003	-3.59960E-001	-1.11977E+000	3.57640E+000	10	...........
	16	0.226667	2.43588E-001	-6.01775E-003	0.00000E+000	-1.46585E-003	-3.59960E-001	-1.13062E+000	3.57640E+000	10	...........
	17	0.24	2.35848E-001	-6.01249E-003	0.00000E+000	-1.41804E-003	-3.59960E-001	-1.12047E+000	3.57640E+000	10	...........
	18	0.253333	2.28190E-001	-6.01706E-003	0.00000E+000	-1.37303E-003	-3.59960E-001	-1.12020E+000	3.57640E+000	10	...........
	19	0.266667	2.20619E-001	-6.01150E-003	0.00000E+000	-1.32625E-003	-3.59960E-001	-1.13116E+000	3.57640E+000	10	...........
	20	0.28	2.13174E-001	-6.01681E-003	0.00000E+000	-1.28263E-003	-3.59960E-001	-1.12034E+000	3.57640E+000	10	...........
	21	0.293333	2.05786E-001	-6.01650E-003	0.00000E+000	-1.23811E-003	-3.59960E-001	-1.12012E+000	3.57640E+000	10	...........
	22	0.306667	1.98493E-001	-6.01357E-003	0.00000E+000	-1.19365E-003	-3.59960E-001	-1.13123E+000	3.57640E+000	10	...........
	23	0.32	1.91267E-001	-6.01604E-003	0.00000E+000	-1.15067E-003	-3.59960E-001	-1.12092E+000	3.57640E+000	10	...........
	24	0.333333	1.84117E-001	-6.01407E-003	0.00000E+000	-1.10729E-003	-3.59960E-001	-1.12018E+000	3.57640E+000	10	...........
	25	0.346667	1.77105E-001	-6.01905E-003	0.00000E+000	-1.06601E-003	-3.59960E-001	-1.13125E+000	3.57640E+000	10	...........
	26	0.36	1.70154E-001	-6.01312E-003	0.00000E+000	-1.02316E-003	-3.59960E-001	-1.12077E+000	3.57640E+000	10	...........
	27	0.373333	1.63241E-001	-6.01545E-003	0.00000E+000	-9.81970E-004	-3.59960E-001	-1.12050E+000	3.57640E+000	10	...........
	28	0.386667	1.56433E-001	-6.01477E-003	0.00000E+000	-9.40909E-004	-3.59960E-001	-1.13130E+000	3.57640E+000	10	...........
	29	0.4	1.49667E-001	-6.01510E-003	0.00000E+000	-9.00265E-004	-3.59960E-001	-1.12089E+000	3.57640E+000	10	...........
	30	0.413333	1.42953E-001	-6.01550E-003	0.00000E+000	-8.59935E-004	-3.59960E-001	-1.12043E+000	3.57640E+000	10	...........
	31	0.426667	1.36366E-001	-6.01797E-003	0.00000E+000	-8.20646E-004	-3.59960E-001	-1.13150E+000	3.57640E+000	10	...........
	32	0.44	1.29860E-001	-6.01208E-003	0.00000E+000	-7.80732E-004	-3.59960E-001	-1.12131E+000	3.57640E+000	10	...........
	33	0.453333	1.23368E-001	-6.01879E-003	0.00000E+000	-7.42529E-004	-3.59960E-001	-1.12089E+000	3.57640E+000	10	...........
	34	0.466667	1.16943E-001	-6.01221E-003	0.00000E+000	-7.03083E-004	-3.59960E-001	-1.13173E+000	3.57640E+000	10	...........
	35	0.48	1.10611E-001	-6.01479E-003	0.00000E+000	-6.65304E-004	-3.59960E-001	-1.12132E+000	3.57640E+000	10	...........
	36	0.493333	1.04326E-001	-6.01489E-003	0.00000E+000	-6.27510E-004	-3.59960E-001	-1.12066E+000	3.57640E+000	10	...........
	37	0.506667	9.81136E-002	-6.01589E-003	0.00000E+000	-5.90241E-004	-3.59960E-001	-1.13192E+000	3.57640E+000	10	...........
	38	0.52	9.19467E-002	-6.01280E-003	0.00000E+000	-5.52857E-004	-3.59960E-001	-1.12099E+000	3.57640E+000	10	...........
	39	0.533333	8.58480E-002	-6.01386E-003	0.00000E+000	-5.16277E-004	-3.59960E-001	-1.12052E+000	3.57640E+000	10	...........
	40	0.546667	7.98255E-002	-6.01193E-003	0.00000E+000	-4.79905E-004	-3.59960E-001	-1.13144E+000	3.57640E+000	10	...........
	41	0.56	7.38420E-002	-6.01644E-003	0.00000E+000	-4.44266E-004	-3.59960E-001	-1.12111E+000	3.57640E+000	10	...........
	42	0.573333	6.79195E-002	-6.01528E-003	0.00000E+000	-4.08555E-004	-3.59960E-001	-1.12075E+000	3.57640E+000	10	...........
	43	0.586667	6.20448E-002	-6.01716E-003	0.00000E+000	-3.73334E-004	-3.59960E-001	-1.13171E+000	3.57640E+000	10	...........
	44	0.6	5.62390E-002	-6.02022E-003	0.00000E+000	-3.38571E-004	-3.59960E-001	-1.12109E+000	3.57640E+000	10	...........
	45	0.613333	5.04999E-002	-6.01274E-003	0.00000E+000	-3.03643E-004	-3.59960E-001	-1.12049E+000	3.57640E+000	10	...........
	46	0.626667	4.48171E-002	-6.01204E-003	0.00000E+000	-2.69443E-004	-3.59960E-001	-1.13140E+000	3.57640E+000	10	...........
	47	0.64	3.91661E-002	-6.02014E-003	0.00000E+000	-2.35785E-004	-3.59960E-001	-1.12119E+000	3.57640E+000	10	...........
	48	0.653333	3.35778E-002	-6.01978E-003	0.00000E+000	-2.02131E-004	-3.59960E-001	-1.12076E+000	3.57640E+000	10	...........
	49	0.666667	2.80311E-002	-6.01550E-003	0.00000E+000	-1.68621E-004	-3.59960E-001	-1.13165E+000	3.57640E+000	10	...........
	50	0.68	2.25172E-002	-6.01588E-003	0.00000E+000	-1.35461E-004	-3.59960E-001	-1.12122E+000	3.57640E+000	10	...........
	51	0.693333	1.70651E-002	-6.01729E-003	0.00000E+000	-1.02686E-004	-3.59960E-001	-1.12079E+000	3.57640E+000	10	...........
	52	0.706667	1.16809E-002	-6.01976E-003	0.00000E+000	-7.03162E-005	-3.59960E-001	-1.13179E+000	3.57640E+000	10	...........
	53	0.72	6.35580E-003	-6.01284E-003	0.00000E+000	-3.82164E-005	-3.59960E-001	-1.12163E+000	3.57640E+000	10	...........
	54	0.73	1.65356E-003	-6.01970E-003	0.00000E+000	-9.95391E-006	-3.59960E-001	-1.12457E+000	3.57640E+000	10	...........
STARTTIMEOFFSET	QUANT	1151.149	Start Time Offset (s)
