EXPLAIN
TAG	PWR800_DISCHARGE
TITLE	LABEL	PWR Cyclic Charge Discharge (Cell) - Discharge Step	Test &Identifier
DATE	LABEL	22-6-2017	Date
TIME	LABEL	15:51:55	Time
NOTES	NOTES	3	&Notes...
	supercap test cell
	0.6mg
	6M KOH
PSTAT	PSTAT	IFC5000-01520	Potentiostat
CAPACITY	QUANT	1.00000E-003	Capacity (A-hr)
CELLTYPE	SELECTOR	1	&Cell Type
WORKINGCONNECTION	SELECTOR	0	&Working Lead
MAXDISCHARGETIME	VARIABLEANDUNITS	1.00000E+002	s	1.00000E+002	second(s)	Max &Discharge Time
DISCHARGEMODE	MULTIPARAM	0	6.00000E-003	&Discharge Mode	Constant Current	Amp(s)
SAMPLETIME	QUANT	1.00000E-002	Sa&mple Period (s)
DISCHARGESTOPAT1	MULTIPARAM	3	0.00000E+000	Discharge Stop At &1	Voltage < Limit	V
DISCHARGESTOPAT2	MULTIPARAM	0	0.00000E+000	Discharge Stop At &2	None	N/A
AESBHCSELECTOR	TOGGLE	F	Save Both Half Cells
IRCOMP	TOGGLE	F	IR &Measure
EOC	QUANT	0	Open Circuit (V)
SEQUENCER	TOGGLE	TRUE	Run as Sequence
PSTATMODEL	IQUANT	53	Pstat Model
PSTATSECTION	LABEL	IFC5000-01520	Pstat Section
PSTATSERIALNO	LABEL	01520	Pstat Serial Number
CTRLMODE	IQUANT	0	Control Mode
ELECTROMETER	IQUANT	1	RE=0 or CS=1
IESTAB	IQUANT	0	I/E Stability
CASPEED	IQUANT	4	Control Amp Speed
CONVENTION	IQUANT	1	Current Convention
ICHRANGE	IQUANT	2	Ich Range
ICHRANGEMODE	TOGGLE	T	Ich Auto Range
ICHOFFSETENABLE	TOGGLE	F	Ich Offset Enable
ICHOFFSET	QUANT	0	Ich Offset (V)
ICHFILTER	IQUANT	1	Ich Filter
VCHRANGE	IQUANT	2	Vch Range
VCHRANGEMODE	TOGGLE	T	Vch Auto Range
VCHOFFSETENABLE	TOGGLE	F	Vch Offset Enable
VCHOFFSET	QUANT	0	Vch Offset (V)
VCHFILTER	IQUANT	1	Vch Filter
IERANGELOWERLIMIT	IQUANT	9	I/E Range Lower Limit
IERANGEMODE	TOGGLE	F	I/E AutoRange
IERANGE	IQUANT	10	I/E Range
ACHSELECT	IQUANT	1	Ach Select
ACHRANGE	IQUANT	2	Ach Range
ACHOFFSETENABLE	TOGGLE	F	Ach Offset Enable
ACHOFFSET	QUANT	0	Ach Offset (V)
ACHFILTER	IQUANT	1	Ach Filter
CABLEID	IQUANT	14	Cable ID
DCCALDATE	LABEL	20-10-2016	DC Calibration Date
ACCALDATE	LABEL	12/3/2015	AC Calibration Date
FRAMEWORKVERSION	QUANT	7.01	Framework Version
INSTRUMENTVERSION	LABEL	4.00	Instrument Version
CURVE	TABLE	60
	Pt	T	Vf	Im	Vu	Pwr	Sig	Ach	Temp	IERange	Over
	#	s	V	A	V	W	V	V	deg C	#	bits
	0	0.013333	4.00644E-001	-6.01683E-003	0.00000E+000	-2.41061E-003	-3.59960E-001	-1.08722E+000	3.57750E+000	10	...........
	1	0.026667	3.89702E-001	-6.01345E-003	0.00000E+000	-2.34345E-003	-3.59960E-001	-1.09178E+000	3.57750E+000	10	...........
	2	0.04	3.79492E-001	-6.01549E-003	0.00000E+000	-2.28283E-003	-3.59960E-001	-1.09662E+000	3.57750E+000	10	...........
	3	0.053333	3.69858E-001	-6.01283E-003	0.00000E+000	-2.22389E-003	-3.59960E-001	-1.08791E+000	3.57750E+000	10	...........
	4	0.066667	3.60562E-001	-6.01826E-003	0.00000E+000	-2.16996E-003	-3.59960E-001	-1.09233E+000	3.57750E+000	10	...........
	5	0.08	3.51549E-001	-6.01261E-003	0.00000E+000	-2.11372E-003	-3.59960E-001	-1.09681E+000	3.57750E+000	10	...........
	6	0.093333	3.42735E-001	-6.01355E-003	0.00000E+000	-2.06105E-003	-3.59960E-001	-1.08772E+000	3.57750E+000	10	...........
	7	0.106667	3.34108E-001	-6.01206E-003	0.00000E+000	-2.00868E-003	-3.59960E-001	-1.09244E+000	3.57750E+000	10	...........
	8	0.12	3.25645E-001	-6.01437E-003	0.00000E+000	-1.95855E-003	-3.59960E-001	-1.09728E+000	3.57750E+000	10	...........
	9	0.133333	3.17329E-001	-6.01459E-003	0.00000E+000	-1.90860E-003	-3.59960E-001	-1.08792E+000	3.57750E+000	10	...........
	10	0.146667	3.09153E-001	-6.01507E-003	0.00000E+000	-1.85957E-003	-3.59960E-001	-1.09197E+000	3.57750E+000	10	...........
	11	0.16	3.01066E-001	-6.00859E-003	0.00000E+000	-1.80898E-003	-3.59960E-001	-1.09677E+000	3.57713E+000	10	...........
	12	0.173333	2.93091E-001	-6.01721E-003	0.00000E+000	-1.76359E-003	-3.59960E-001	-1.08785E+000	3.57690E+000	10	...........
	13	0.186667	2.85167E-001	-6.01714E-003	0.00000E+000	-1.71589E-003	-3.59960E-001	-1.09261E+000	3.57690E+000	10	...........
	14	0.2	2.77372E-001	-6.01678E-003	0.00000E+000	-1.66888E-003	-3.59960E-001	-1.09711E+000	3.57690E+000	10	...........
	15	0.213333	2.69678E-001	-6.01737E-003	0.00000E+000	-1.62275E-003	-3.59960E-001	-1.08788E+000	3.57690E+000	10	...........
	16	0.226667	2.62117E-001	-6.01038E-003	0.00000E+000	-1.57543E-003	-3.59960E-001	-1.09220E+000	3.57690E+000	10	...........
	17	0.24	2.54625E-001	-6.02042E-003	0.00000E+000	-1.53295E-003	-3.59960E-001	-1.09716E+000	3.57690E+000	10	...........
	18	0.253333	2.47214E-001	-6.01467E-003	0.00000E+000	-1.48691E-003	-3.59960E-001	-1.08830E+000	3.57690E+000	10	...........
	19	0.266667	2.39884E-001	-6.01062E-003	0.00000E+000	-1.44185E-003	-3.59960E-001	-1.09265E+000	3.57690E+000	10	...........
	20	0.28	2.32650E-001	-6.01418E-003	0.00000E+000	-1.39920E-003	-3.59960E-001	-1.09715E+000	3.57690E+000	10	...........
	21	0.293333	2.25500E-001	-6.01502E-003	0.00000E+000	-1.35639E-003	-3.59960E-001	-1.08813E+000	3.57690E+000	10	...........
	22	0.306667	2.18401E-001	-6.01371E-003	0.00000E+000	-1.31340E-003	-3.59960E-001	-1.09260E+000	3.57690E+000	10	...........
	23	0.32	2.11380E-001	-6.01428E-003	0.00000E+000	-1.27130E-003	-3.59960E-001	-1.09768E+000	3.57690E+000	10	...........
	24	0.333333	2.04438E-001	-6.01489E-003	0.00000E+000	-1.22967E-003	-3.59960E-001	-1.08855E+000	3.57690E+000	10	...........
	25	0.346667	1.97529E-001	-6.01872E-003	0.00000E+000	-1.18887E-003	-3.59960E-001	-1.09290E+000	3.57690E+000	10	...........
	26	0.36	1.90730E-001	-6.01921E-003	0.00000E+000	-1.14804E-003	-3.59960E-001	-1.09763E+000	3.57690E+000	10	...........
	27	0.373333	1.84039E-001	-6.01527E-003	0.00000E+000	-1.10704E-003	-3.59960E-001	-1.08865E+000	3.57690E+000	10	...........
	28	0.386667	1.77349E-001	-6.01080E-003	0.00000E+000	-1.06601E-003	-3.59960E-001	-1.09329E+000	3.57690E+000	10	...........
	29	0.4	1.70749E-001	-6.01530E-003	0.00000E+000	-1.02710E-003	-3.59960E-001	-1.09800E+000	3.57690E+000	10	...........
	30	0.413333	1.64218E-001	-6.01311E-003	0.00000E+000	-9.87462E-004	-3.59960E-001	-1.08881E+000	3.57690E+000	10	...........
	31	0.426667	1.57730E-001	-6.01392E-003	0.00000E+000	-9.48576E-004	-3.59960E-001	-1.09317E+000	3.57690E+000	10	...........
	32	0.44	1.51326E-001	-6.01392E-003	0.00000E+000	-9.10062E-004	-3.59960E-001	-1.09815E+000	3.57690E+000	10	...........
	33	0.453333	1.44960E-001	-6.01601E-003	0.00000E+000	-8.72081E-004	-3.59960E-001	-1.08880E+000	3.57690E+000	10	...........
	34	0.466667	1.38648E-001	-6.01841E-003	0.00000E+000	-8.34439E-004	-3.59960E-001	-1.09321E+000	3.57690E+000	10	...........
	35	0.48	1.32424E-001	-6.01000E-003	0.00000E+000	-7.95871E-004	-3.59960E-001	-1.09784E+000	3.57690E+000	10	...........
	36	0.493333	1.26260E-001	-6.01359E-003	0.00000E+000	-7.59277E-004	-3.59960E-001	-1.08868E+000	3.57690E+000	10	...........
	37	0.506667	1.20126E-001	-6.01972E-003	0.00000E+000	-7.23122E-004	-3.59960E-001	-1.09336E+000	3.57690E+000	10	...........
	38	0.52	1.14077E-001	-6.01432E-003	0.00000E+000	-6.86094E-004	-3.59960E-001	-1.09825E+000	3.57690E+000	10	...........
	39	0.533333	1.08062E-001	-6.01443E-003	0.00000E+000	-6.49931E-004	-3.59960E-001	-1.08882E+000	3.57690E+000	10	...........
	40	0.546667	1.02125E-001	-6.01642E-003	0.00000E+000	-6.14425E-004	-3.59960E-001	-1.09320E+000	3.57690E+000	10	...........
	41	0.56	9.62092E-002	-6.01579E-003	0.00000E+000	-5.78774E-004	-3.59960E-001	-1.09804E+000	3.57690E+000	10	...........
	42	0.573333	9.03756E-002	-6.01773E-003	0.00000E+000	-5.43856E-004	-3.59960E-001	-1.08912E+000	3.57690E+000	10	...........
	43	0.586667	8.45597E-002	-6.01504E-003	0.00000E+000	-5.08630E-004	-3.59960E-001	-1.09355E+000	3.57690E+000	10	...........
	44	0.6	7.87988E-002	-6.01827E-003	0.00000E+000	-4.74233E-004	-3.59960E-001	-1.09829E+000	3.57690E+000	10	...........
	45	0.613333	7.31130E-002	-6.01338E-003	0.00000E+000	-4.39656E-004	-3.59960E-001	-1.08889E+000	3.57690E+000	10	...........
	46	0.626667	6.74327E-002	-6.01915E-003	0.00000E+000	-4.05887E-004	-3.59960E-001	-1.09332E+000	3.57690E+000	10	...........
	47	0.64	6.17939E-002	-6.01602E-003	0.00000E+000	-3.71753E-004	-3.59960E-001	-1.09845E+000	3.57690E+000	10	...........
	48	0.653333	5.62081E-002	-6.01642E-003	0.00000E+000	-3.38172E-004	-3.59960E-001	-1.08935E+000	3.57690E+000	10	...........
	49	0.666667	5.07114E-002	-6.01203E-003	0.00000E+000	-3.04879E-004	-3.59960E-001	-1.09345E+000	3.57690E+000	10	...........
	50	0.68	4.52776E-002	-6.01348E-003	0.00000E+000	-2.72276E-004	-3.59960E-001	-1.09842E+000	3.57690E+000	10	...........
	51	0.693333	3.98770E-002	-6.01357E-003	0.00000E+000	-2.39803E-004	-3.59960E-001	-1.08941E+000	3.57690E+000	10	...........
	52	0.706667	3.44890E-002	-6.01136E-003	0.00000E+000	-2.07326E-004	-3.59960E-001	-1.09359E+000	3.57690E+000	10	...........
	53	0.72	2.91728E-002	-6.01583E-003	0.00000E+000	-1.75499E-004	-3.59960E-001	-1.09859E+000	3.57690E+000	10	...........
	54	0.733333	2.38742E-002	-6.01802E-003	0.00000E+000	-1.43675E-004	-3.59960E-001	-1.08916E+000	3.57690E+000	10	...........
	55	0.746667	1.86070E-002	-6.01508E-003	0.00000E+000	-1.11923E-004	-3.59960E-001	-1.09359E+000	3.57690E+000	10	...........
	56	0.76	1.34138E-002	-6.01638E-003	0.00000E+000	-8.07024E-005	-3.59960E-001	-1.09886E+000	3.57690E+000	10	...........
	57	0.773333	8.24468E-003	-6.01271E-003	0.00000E+000	-4.95729E-005	-3.59960E-001	-1.08932E+000	3.57690E+000	10	...........
	58	0.786667	3.13074E-003	-6.01388E-003	0.00000E+000	-1.88279E-005	-3.59960E-001	-1.09329E+000	3.57690E+000	10	...........
	59	0.79	-5.17887E-005	-6.01595E-003	0.00000E+000	3.11558E-007	-3.59960E-001	-1.08601E+000	3.57690E+000	10	...........
STARTTIMEOFFSET	QUANT	700.2917	Start Time Offset (s)
