EXPLAIN
TAG	PWR800_DISCHARGE
TITLE	LABEL	PWR Cyclic Charge Discharge (Cell) - Discharge Step	Test &Identifier
DATE	LABEL	22-6-2017	Date
TIME	LABEL	16:02:11	Time
NOTES	NOTES	3	&Notes...
	supercap test cell
	0.6mg
	6M KOH
PSTAT	PSTAT	IFC5000-01520	Potentiostat
CAPACITY	QUANT	1.00000E-003	Capacity (A-hr)
CELLTYPE	SELECTOR	1	&Cell Type
WORKINGCONNECTION	SELECTOR	0	&Working Lead
MAXDISCHARGETIME	VARIABLEANDUNITS	1.00000E+002	s	1.00000E+002	second(s)	Max &Discharge Time
DISCHARGEMODE	MULTIPARAM	0	6.00000E-003	&Discharge Mode	Constant Current	Amp(s)
SAMPLETIME	QUANT	1.00000E-002	Sa&mple Period (s)
DISCHARGESTOPAT1	MULTIPARAM	3	0.00000E+000	Discharge Stop At &1	Voltage < Limit	V
DISCHARGESTOPAT2	MULTIPARAM	0	0.00000E+000	Discharge Stop At &2	None	N/A
AESBHCSELECTOR	TOGGLE	F	Save Both Half Cells
IRCOMP	TOGGLE	F	IR &Measure
EOC	QUANT	0	Open Circuit (V)
SEQUENCER	TOGGLE	TRUE	Run as Sequence
PSTATMODEL	IQUANT	53	Pstat Model
PSTATSECTION	LABEL	IFC5000-01520	Pstat Section
PSTATSERIALNO	LABEL	01520	Pstat Serial Number
CTRLMODE	IQUANT	0	Control Mode
ELECTROMETER	IQUANT	1	RE=0 or CS=1
IESTAB	IQUANT	0	I/E Stability
CASPEED	IQUANT	4	Control Amp Speed
CONVENTION	IQUANT	1	Current Convention
ICHRANGE	IQUANT	2	Ich Range
ICHRANGEMODE	TOGGLE	T	Ich Auto Range
ICHOFFSETENABLE	TOGGLE	F	Ich Offset Enable
ICHOFFSET	QUANT	0	Ich Offset (V)
ICHFILTER	IQUANT	1	Ich Filter
VCHRANGE	IQUANT	2	Vch Range
VCHRANGEMODE	TOGGLE	T	Vch Auto Range
VCHOFFSETENABLE	TOGGLE	F	Vch Offset Enable
VCHOFFSET	QUANT	0	Vch Offset (V)
VCHFILTER	IQUANT	1	Vch Filter
IERANGELOWERLIMIT	IQUANT	9	I/E Range Lower Limit
IERANGEMODE	TOGGLE	F	I/E AutoRange
IERANGE	IQUANT	10	I/E Range
ACHSELECT	IQUANT	1	Ach Select
ACHRANGE	IQUANT	2	Ach Range
ACHOFFSETENABLE	TOGGLE	F	Ach Offset Enable
ACHOFFSET	QUANT	0	Ach Offset (V)
ACHFILTER	IQUANT	1	Ach Filter
CABLEID	IQUANT	14	Cable ID
DCCALDATE	LABEL	20-10-2016	DC Calibration Date
ACCALDATE	LABEL	12/3/2015	AC Calibration Date
FRAMEWORKVERSION	QUANT	7.01	Framework Version
INSTRUMENTVERSION	LABEL	4.00	Instrument Version
CURVE	TABLE	56
	Pt	T	Vf	Im	Vu	Pwr	Sig	Ach	Temp	IERange	Over
	#	s	V	A	V	W	V	V	deg C	#	bits
	0	0.013333	3.87681E-001	-6.01427E-003	0.00000E+000	-2.33162E-003	-3.59960E-001	-1.11268E+000	3.57645E+000	10	...........
	1	0.026667	3.76377E-001	-6.01271E-003	0.00000E+000	-2.26305E-003	-3.59960E-001	-1.11858E+000	3.57640E+000	10	...........
	2	0.04	3.65860E-001	-6.01426E-003	0.00000E+000	-2.20038E-003	-3.59960E-001	-1.12130E+000	3.57640E+000	10	...........
	3	0.053333	3.55911E-001	-6.01278E-003	0.00000E+000	-2.14002E-003	-3.59960E-001	-1.11285E+000	3.57640E+000	10	...........
	4	0.066667	3.46312E-001	-6.01560E-003	0.00000E+000	-2.08328E-003	-3.59960E-001	-1.11866E+000	3.57640E+000	10	...........
	5	0.08	3.36979E-001	-6.01644E-003	0.00000E+000	-2.02742E-003	-3.59960E-001	-1.12127E+000	3.57640E+000	10	...........
	6	0.093333	3.27874E-001	-6.01372E-003	0.00000E+000	-1.97174E-003	-3.59960E-001	-1.11326E+000	3.57640E+000	10	...........
	7	0.106667	3.19002E-001	-6.01207E-003	0.00000E+000	-1.91787E-003	-3.59960E-001	-1.11913E+000	3.57640E+000	10	...........
	8	0.12	3.10250E-001	-6.01596E-003	0.00000E+000	-1.86645E-003	-3.59960E-001	-1.12119E+000	3.57640E+000	10	...........
	9	0.133333	3.01671E-001	-6.01890E-003	0.00000E+000	-1.81572E-003	-3.59960E-001	-1.11305E+000	3.57640E+000	10	...........
	10	0.146667	2.93212E-001	-6.01439E-003	0.00000E+000	-1.76349E-003	-3.59960E-001	-1.11951E+000	3.57640E+000	10	...........
	11	0.16	2.84876E-001	-6.01574E-003	0.00000E+000	-1.71374E-003	-3.59960E-001	-1.12171E+000	3.57640E+000	10	...........
	12	0.173333	2.76622E-001	-6.01477E-003	0.00000E+000	-1.66382E-003	-3.59960E-001	-1.11348E+000	3.57640E+000	10	...........
	13	0.186667	2.68506E-001	-6.01538E-003	0.00000E+000	-1.61517E-003	-3.59960E-001	-1.11961E+000	3.57640E+000	10	...........
	14	0.2	2.60471E-001	-6.01443E-003	0.00000E+000	-1.56658E-003	-3.59960E-001	-1.12159E+000	3.57640E+000	10	...........
	15	0.213333	2.52530E-001	-6.01346E-003	0.00000E+000	-1.51858E-003	-3.59960E-001	-1.11351E+000	3.57640E+000	10	...........
	16	0.226667	2.44717E-001	-6.01719E-003	0.00000E+000	-1.47251E-003	-3.59960E-001	-1.12012E+000	3.57640E+000	10	...........
	17	0.24	2.36985E-001	-6.01682E-003	0.00000E+000	-1.42590E-003	-3.59960E-001	-1.12150E+000	3.57640E+000	10	...........
	18	0.253333	2.29354E-001	-6.01865E-003	0.00000E+000	-1.38040E-003	-3.59960E-001	-1.11314E+000	3.57640E+000	10	...........
	19	0.266667	2.21871E-001	-6.01264E-003	0.00000E+000	-1.33403E-003	-3.59960E-001	-1.11971E+000	3.57640E+000	10	...........
	20	0.28	2.14453E-001	-6.00986E-003	0.00000E+000	-1.28883E-003	-3.59960E-001	-1.12150E+000	3.57640E+000	10	...........
	21	0.293333	2.07119E-001	-6.01581E-003	0.00000E+000	-1.24599E-003	-3.59960E-001	-1.11353E+000	3.57640E+000	10	...........
	22	0.306667	1.99804E-001	-6.01716E-003	0.00000E+000	-1.20225E-003	-3.59960E-001	-1.12025E+000	3.57640E+000	10	...........
	23	0.32	1.92593E-001	-6.01330E-003	0.00000E+000	-1.15812E-003	-3.59960E-001	-1.12121E+000	3.57640E+000	10	...........
	24	0.333333	1.85516E-001	-6.01515E-003	0.00000E+000	-1.11591E-003	-3.59960E-001	-1.11344E+000	3.57640E+000	10	...........
	25	0.346667	1.78505E-001	-6.01051E-003	0.00000E+000	-1.07290E-003	-3.59960E-001	-1.12048E+000	3.57640E+000	10	...........
	26	0.36	1.71532E-001	-6.01389E-003	0.00000E+000	-1.03157E-003	-3.59960E-001	-1.12147E+000	3.57640E+000	10	...........
	27	0.373333	1.64644E-001	-6.01609E-003	0.00000E+000	-9.90513E-004	-3.59960E-001	-1.11368E+000	3.57640E+000	10	...........
	28	0.386667	1.57840E-001	-6.01719E-003	0.00000E+000	-9.49753E-004	-3.59960E-001	-1.12042E+000	3.57640E+000	10	...........
	29	0.4	1.51121E-001	-6.01648E-003	0.00000E+000	-9.09218E-004	-3.59960E-001	-1.12138E+000	3.57640E+000	10	...........
	30	0.413333	1.44466E-001	-6.01259E-003	0.00000E+000	-8.68613E-004	-3.59960E-001	-1.11370E+000	3.57640E+000	10	...........
	31	0.426667	1.37875E-001	-6.01402E-003	0.00000E+000	-8.29182E-004	-3.59960E-001	-1.12093E+000	3.57640E+000	10	...........
	32	0.44	1.31337E-001	-6.01141E-003	0.00000E+000	-7.89520E-004	-3.59960E-001	-1.12125E+000	3.57640E+000	10	...........
	33	0.453333	1.24874E-001	-6.01765E-003	0.00000E+000	-7.51446E-004	-3.59960E-001	-1.11375E+000	3.57640E+000	10	...........
	34	0.466667	1.18487E-001	-6.01763E-003	0.00000E+000	-7.13009E-004	-3.59960E-001	-1.12091E+000	3.57640E+000	10	...........
	35	0.48	1.12153E-001	-6.01628E-003	0.00000E+000	-6.74744E-004	-3.59960E-001	-1.12154E+000	3.57640E+000	10	...........
	36	0.493333	1.05900E-001	-6.01582E-003	0.00000E+000	-6.37077E-004	-3.59960E-001	-1.11420E+000	3.57640E+000	10	...........
	37	0.506667	9.96885E-002	-6.01404E-003	0.00000E+000	-5.99530E-004	-3.59960E-001	-1.12149E+000	3.57640E+000	10	...........
	38	0.52	9.35039E-002	-6.01326E-003	0.00000E+000	-5.62263E-004	-3.59960E-001	-1.12137E+000	3.57640E+000	10	...........
	39	0.533333	8.74063E-002	-6.01527E-003	0.00000E+000	-5.25772E-004	-3.59960E-001	-1.11397E+000	3.57640E+000	10	...........
	40	0.546667	8.13380E-002	-6.01264E-003	0.00000E+000	-4.89056E-004	-3.59960E-001	-1.12147E+000	3.57640E+000	10	...........
	41	0.56	7.54044E-002	-6.00868E-003	0.00000E+000	-4.53081E-004	-3.59960E-001	-1.12152E+000	3.57640E+000	10	...........
	42	0.573333	6.95197E-002	-6.02219E-003	0.00000E+000	-4.18661E-004	-3.59960E-001	-1.11397E+000	3.57640E+000	10	...........
	43	0.586667	6.36599E-002	-6.01543E-003	0.00000E+000	-3.82942E-004	-3.59960E-001	-1.12142E+000	3.57640E+000	10	...........
	44	0.6	5.78410E-002	-6.01699E-003	0.00000E+000	-3.48028E-004	-3.59960E-001	-1.12103E+000	3.57640E+000	10	...........
	45	0.613333	5.21100E-002	-6.01899E-003	0.00000E+000	-3.13649E-004	-3.59960E-001	-1.11397E+000	3.57640E+000	10	...........
	46	0.626667	4.64524E-002	-6.01352E-003	0.00000E+000	-2.79343E-004	-3.59960E-001	-1.12172E+000	3.57640E+000	10	...........
	47	0.64	4.07964E-002	-6.01396E-003	0.00000E+000	-2.45348E-004	-3.59960E-001	-1.12134E+000	3.57640E+000	10	...........
	48	0.653333	3.51451E-002	-6.01072E-003	0.00000E+000	-2.11247E-004	-3.59960E-001	-1.11420E+000	3.57640E+000	10	...........
	49	0.666667	2.96108E-002	-6.01987E-003	0.00000E+000	-1.78253E-004	-3.59960E-001	-1.12156E+000	3.57640E+000	10	...........
	50	0.68	2.41580E-002	-6.01782E-003	0.00000E+000	-1.45378E-004	-3.59960E-001	-1.12131E+000	3.57640E+000	10	...........
	51	0.693333	1.87390E-002	-6.01479E-003	0.00000E+000	-1.12711E-004	-3.59960E-001	-1.11432E+000	3.57640E+000	10	...........
	52	0.706667	1.33041E-002	-6.01422E-003	0.00000E+000	-8.00136E-005	-3.59960E-001	-1.12198E+000	3.57640E+000	10	...........
	53	0.72	7.94495E-003	-6.01283E-003	0.00000E+000	-4.77716E-005	-3.59960E-001	-1.12107E+000	3.57640E+000	10	...........
	54	0.733333	2.63607E-003	-6.01317E-003	0.00000E+000	-1.58512E-005	-3.59960E-001	-1.11409E+000	3.57640E+000	10	...........
	55	0.735	-3.21936E-004	-6.01637E-003	0.00000E+000	1.93689E-006	-3.59960E-001	-1.12866E+000	3.57640E+000	10	...........
STARTTIMEOFFSET	QUANT	1105.466	Start Time Offset (s)
