EXPLAIN
TAG	PWR800_DISCHARGE
TITLE	LABEL	PWR Cyclic Charge Discharge (Cell) - Discharge Step	Test &Identifier
DATE	LABEL	22-6-2017	Date
TIME	LABEL	15:48:09	Time
NOTES	NOTES	3	&Notes...
	supercap test cell
	0.6mg
	6M KOH
PSTAT	PSTAT	IFC5000-01520	Potentiostat
CAPACITY	QUANT	1.00000E-003	Capacity (A-hr)
CELLTYPE	SELECTOR	1	&Cell Type
WORKINGCONNECTION	SELECTOR	0	&Working Lead
MAXDISCHARGETIME	VARIABLEANDUNITS	1.00000E+002	s	1.00000E+002	second(s)	Max &Discharge Time
DISCHARGEMODE	MULTIPARAM	0	6.00000E-003	&Discharge Mode	Constant Current	Amp(s)
SAMPLETIME	QUANT	1.00000E-002	Sa&mple Period (s)
DISCHARGESTOPAT1	MULTIPARAM	3	0.00000E+000	Discharge Stop At &1	Voltage < Limit	V
DISCHARGESTOPAT2	MULTIPARAM	0	0.00000E+000	Discharge Stop At &2	None	N/A
AESBHCSELECTOR	TOGGLE	F	Save Both Half Cells
IRCOMP	TOGGLE	F	IR &Measure
EOC	QUANT	0	Open Circuit (V)
SEQUENCER	TOGGLE	TRUE	Run as Sequence
PSTATMODEL	IQUANT	53	Pstat Model
PSTATSECTION	LABEL	IFC5000-01520	Pstat Section
PSTATSERIALNO	LABEL	01520	Pstat Serial Number
CTRLMODE	IQUANT	0	Control Mode
ELECTROMETER	IQUANT	1	RE=0 or CS=1
IESTAB	IQUANT	0	I/E Stability
CASPEED	IQUANT	4	Control Amp Speed
CONVENTION	IQUANT	1	Current Convention
ICHRANGE	IQUANT	2	Ich Range
ICHRANGEMODE	TOGGLE	T	Ich Auto Range
ICHOFFSETENABLE	TOGGLE	F	Ich Offset Enable
ICHOFFSET	QUANT	0	Ich Offset (V)
ICHFILTER	IQUANT	1	Ich Filter
VCHRANGE	IQUANT	2	Vch Range
VCHRANGEMODE	TOGGLE	T	Vch Auto Range
VCHOFFSETENABLE	TOGGLE	F	Vch Offset Enable
VCHOFFSET	QUANT	0	Vch Offset (V)
VCHFILTER	IQUANT	1	Vch Filter
IERANGELOWERLIMIT	IQUANT	9	I/E Range Lower Limit
IERANGEMODE	TOGGLE	F	I/E AutoRange
IERANGE	IQUANT	10	I/E Range
ACHSELECT	IQUANT	1	Ach Select
ACHRANGE	IQUANT	2	Ach Range
ACHOFFSETENABLE	TOGGLE	F	Ach Offset Enable
ACHOFFSET	QUANT	0	Ach Offset (V)
ACHFILTER	IQUANT	1	Ach Filter
CABLEID	IQUANT	14	Cable ID
DCCALDATE	LABEL	20-10-2016	DC Calibration Date
ACCALDATE	LABEL	12/3/2015	AC Calibration Date
FRAMEWORKVERSION	QUANT	7.01	Framework Version
INSTRUMENTVERSION	LABEL	4.00	Instrument Version
CURVE	TABLE	62
	Pt	T	Vf	Im	Vu	Pwr	Sig	Ach	Temp	IERange	Over
	#	s	V	A	V	W	V	V	deg C	#	bits
	0	0.013333	4.06984E-001	-6.01584E-003	0.00000E+000	-2.44835E-003	-3.59960E-001	-1.07849E+000	3.57810E+000	10	...........
	1	0.026667	3.96216E-001	-6.01483E-003	0.00000E+000	-2.38317E-003	-3.59960E-001	-1.07892E+000	3.57810E+000	10	...........
	2	0.04	3.86194E-001	-6.01616E-003	0.00000E+000	-2.32341E-003	-3.59960E-001	-1.08807E+000	3.57810E+000	10	...........
	3	0.053333	3.76714E-001	-6.00814E-003	0.00000E+000	-2.26335E-003	-3.59960E-001	-1.07827E+000	3.57810E+000	10	...........
	4	0.066667	3.67553E-001	-6.01626E-003	0.00000E+000	-2.21129E-003	-3.59960E-001	-1.07889E+000	3.57810E+000	10	...........
	5	0.08	3.58683E-001	-6.01588E-003	0.00000E+000	-2.15780E-003	-3.59960E-001	-1.08851E+000	3.57810E+000	10	...........
	6	0.093333	3.50010E-001	-6.01139E-003	0.00000E+000	-2.10405E-003	-3.59960E-001	-1.07809E+000	3.57810E+000	10	...........
	7	0.106667	3.41528E-001	-6.00971E-003	0.00000E+000	-2.05248E-003	-3.59960E-001	-1.07853E+000	3.57810E+000	10	...........
	8	0.12	3.33205E-001	-6.01652E-003	0.00000E+000	-2.00473E-003	-3.59960E-001	-1.08801E+000	3.57810E+000	10	...........
	9	0.133333	3.25018E-001	-6.01236E-003	0.00000E+000	-1.95412E-003	-3.59960E-001	-1.07800E+000	3.57810E+000	10	...........
	10	0.146667	3.16976E-001	-6.01049E-003	0.00000E+000	-1.90518E-003	-3.59960E-001	-1.07831E+000	3.57810E+000	10	...........
	11	0.16	3.08990E-001	-6.01437E-003	0.00000E+000	-1.85838E-003	-3.59960E-001	-1.08786E+000	3.57810E+000	10	...........
	12	0.173333	3.01132E-001	-6.01310E-003	0.00000E+000	-1.81074E-003	-3.59960E-001	-1.07779E+000	3.57810E+000	10	...........
	13	0.186667	2.93374E-001	-6.01492E-003	0.00000E+000	-1.76462E-003	-3.59960E-001	-1.07793E+000	3.57810E+000	10	...........
	14	0.2	2.85727E-001	-6.01362E-003	0.00000E+000	-1.71825E-003	-3.59960E-001	-1.08746E+000	3.57810E+000	10	...........
	15	0.213333	2.78145E-001	-6.01508E-003	0.00000E+000	-1.67306E-003	-3.59960E-001	-1.07774E+000	3.57810E+000	10	...........
	16	0.226667	2.70667E-001	-6.01225E-003	0.00000E+000	-1.62732E-003	-3.59960E-001	-1.07732E+000	3.57810E+000	10	...........
	17	0.24	2.63247E-001	-6.01213E-003	0.00000E+000	-1.58267E-003	-3.59960E-001	-1.08683E+000	3.57810E+000	10	...........
	18	0.253333	2.55920E-001	-6.01375E-003	0.00000E+000	-1.53904E-003	-3.59960E-001	-1.07709E+000	3.57810E+000	10	...........
	19	0.266667	2.48710E-001	-6.01097E-003	0.00000E+000	-1.49499E-003	-3.59960E-001	-1.07686E+000	3.57810E+000	10	...........
	20	0.28	2.41491E-001	-6.01465E-003	0.00000E+000	-1.45248E-003	-3.59960E-001	-1.08628E+000	3.57810E+000	10	...........
	21	0.293333	2.34421E-001	-6.01134E-003	0.00000E+000	-1.40918E-003	-3.59960E-001	-1.07616E+000	3.57810E+000	10	...........
	22	0.306667	2.27383E-001	-6.01631E-003	0.00000E+000	-1.36801E-003	-3.59960E-001	-1.07589E+000	3.57810E+000	10	...........
	23	0.32	2.20443E-001	-6.01407E-003	0.00000E+000	-1.32576E-003	-3.59960E-001	-1.08592E+000	3.57810E+000	10	...........
	24	0.333333	2.13557E-001	-6.01456E-003	0.00000E+000	-1.28445E-003	-3.59960E-001	-1.07621E+000	3.57810E+000	10	...........
	25	0.346667	2.06751E-001	-6.01700E-003	0.00000E+000	-1.24402E-003	-3.59960E-001	-1.07565E+000	3.57810E+000	10	...........
	26	0.36	2.00049E-001	-6.02108E-003	0.00000E+000	-1.20451E-003	-3.59960E-001	-1.08530E+000	3.57810E+000	10	...........
	27	0.373333	1.93375E-001	-6.01579E-003	0.00000E+000	-1.16330E-003	-3.59960E-001	-1.07529E+000	3.57810E+000	10	...........
	28	0.386667	1.86764E-001	-6.01034E-003	0.00000E+000	-1.12251E-003	-3.59960E-001	-1.07520E+000	3.57810E+000	10	...........
	29	0.4	1.80205E-001	-6.01395E-003	0.00000E+000	-1.08374E-003	-3.59960E-001	-1.08532E+000	3.57810E+000	10	...........
	30	0.413333	1.73710E-001	-6.01743E-003	0.00000E+000	-1.04529E-003	-3.59960E-001	-1.07525E+000	3.57810E+000	10	...........
	31	0.426667	1.67254E-001	-6.01526E-003	0.00000E+000	-1.00608E-003	-3.59960E-001	-1.07430E+000	3.57810E+000	10	...........
	32	0.44	1.60902E-001	-6.01652E-003	0.00000E+000	-9.68068E-004	-3.59960E-001	-1.08430E+000	3.57810E+000	10	...........
	33	0.453333	1.54636E-001	-6.01289E-003	0.00000E+000	-9.29809E-004	-3.59960E-001	-1.07503E+000	3.57810E+000	10	...........
	34	0.466667	1.48365E-001	-6.01163E-003	0.00000E+000	-8.91916E-004	-3.59960E-001	-1.07464E+000	3.57810E+000	10	...........
	35	0.48	1.42151E-001	-6.01727E-003	0.00000E+000	-8.55363E-004	-3.59960E-001	-1.08450E+000	3.57810E+000	10	...........
	36	0.493333	1.36028E-001	-6.00897E-003	0.00000E+000	-8.17386E-004	-3.59960E-001	-1.07455E+000	3.57810E+000	10	...........
	37	0.506667	1.29955E-001	-6.01234E-003	0.00000E+000	-7.81330E-004	-3.59960E-001	-1.07403E+000	3.57810E+000	10	...........
	38	0.52	1.23940E-001	-6.01567E-003	0.00000E+000	-7.45584E-004	-3.59960E-001	-1.08432E+000	3.57810E+000	10	...........
	39	0.533333	1.17968E-001	-6.01534E-003	0.00000E+000	-7.09615E-004	-3.59960E-001	-1.07486E+000	3.57810E+000	10	...........
	40	0.546667	1.12049E-001	-6.01565E-003	0.00000E+000	-6.74048E-004	-3.59960E-001	-1.07411E+000	3.57810E+000	10	...........
	41	0.56	1.06130E-001	-6.01291E-003	0.00000E+000	-6.38151E-004	-3.59960E-001	-1.08379E+000	3.57810E+000	10	...........
	42	0.573333	1.00339E-001	-6.01188E-003	0.00000E+000	-6.03223E-004	-3.59960E-001	-1.07453E+000	3.57810E+000	10	...........
	43	0.586667	9.45796E-002	-6.00985E-003	0.00000E+000	-5.68409E-004	-3.59960E-001	-1.07356E+000	3.57810E+000	10	...........
	44	0.6	8.88507E-002	-6.01370E-003	0.00000E+000	-5.34322E-004	-3.59960E-001	-1.08388E+000	3.57810E+000	10	...........
	45	0.613333	8.31959E-002	-6.01489E-003	0.00000E+000	-5.00414E-004	-3.59960E-001	-1.07420E+000	3.57810E+000	10	...........
	46	0.626667	7.75616E-002	-6.01615E-003	0.00000E+000	-4.66623E-004	-3.59960E-001	-1.07305E+000	3.57810E+000	10	...........
	47	0.64	7.19877E-002	-6.01081E-003	0.00000E+000	-4.32705E-004	-3.59960E-001	-1.08332E+000	3.57810E+000	10	...........
	48	0.653333	6.64526E-002	-6.01463E-003	0.00000E+000	-3.99688E-004	-3.59960E-001	-1.07419E+000	3.57810E+000	10	...........
	49	0.666667	6.09409E-002	-6.01479E-003	0.00000E+000	-3.66547E-004	-3.59960E-001	-1.07336E+000	3.57810E+000	10	...........
	50	0.68	5.54770E-002	-6.01702E-003	0.00000E+000	-3.33806E-004	-3.59960E-001	-1.08334E+000	3.57810E+000	10	...........
	51	0.693333	5.00873E-002	-6.01803E-003	0.00000E+000	-3.01427E-004	-3.59960E-001	-1.07393E+000	3.57810E+000	10	...........
	52	0.706667	4.47800E-002	-6.01407E-003	0.00000E+000	-2.69310E-004	-3.59960E-001	-1.07276E+000	3.57810E+000	10	...........
	53	0.72	3.94527E-002	-6.01474E-003	0.00000E+000	-2.37298E-004	-3.59960E-001	-1.08329E+000	3.57810E+000	10	...........
	54	0.733333	3.41619E-002	-6.01942E-003	0.00000E+000	-2.05635E-004	-3.59960E-001	-1.07414E+000	3.57810E+000	10	...........
	55	0.746667	2.89183E-002	-6.01514E-003	0.00000E+000	-1.73947E-004	-3.59960E-001	-1.07260E+000	3.57810E+000	10	...........
	56	0.76	2.36976E-002	-6.01167E-003	0.00000E+000	-1.42462E-004	-3.59960E-001	-1.08279E+000	3.57810E+000	10	...........
	57	0.773333	1.85683E-002	-6.01342E-003	0.00000E+000	-1.11659E-004	-3.59960E-001	-1.07345E+000	3.57810E+000	10	...........
	58	0.786667	1.34312E-002	-6.01067E-003	0.00000E+000	-8.07302E-005	-3.59960E-001	-1.07246E+000	3.57810E+000	10	...........
	59	0.8	8.37719E-003	-6.01324E-003	0.00000E+000	-5.03741E-005	-3.59960E-001	-1.08283E+000	3.57810E+000	10	...........
	60	0.813333	3.31485E-003	-6.01427E-003	0.00000E+000	-1.99364E-005	-3.59960E-001	-1.07346E+000	3.57810E+000	10	...........
	61	0.816667	2.02191E-004	-6.00899E-003	0.00000E+000	-1.21496E-006	-3.59960E-001	-1.08440E+000	3.57810E+000	10	...........
STARTTIMEOFFSET	QUANT	550.1899	Start Time Offset (s)
