EXPLAIN
TAG	PWR800_DISCHARGE
TITLE	LABEL	PWR Cyclic Charge Discharge (Cell) - Discharge Step	Test &Identifier
DATE	LABEL	22-6-2017	Date
TIME	LABEL	16:10:13	Time
NOTES	NOTES	3	&Notes...
	supercap test cell
	0.6mg
	6M KOH
PSTAT	PSTAT	IFC5000-01520	Potentiostat
CAPACITY	QUANT	1.00000E-003	Capacity (A-hr)
CELLTYPE	SELECTOR	1	&Cell Type
WORKINGCONNECTION	SELECTOR	0	&Working Lead
MAXDISCHARGETIME	VARIABLEANDUNITS	1.00000E+002	s	1.00000E+002	second(s)	Max &Discharge Time
DISCHARGEMODE	MULTIPARAM	0	6.00000E-003	&Discharge Mode	Constant Current	Amp(s)
SAMPLETIME	QUANT	1.00000E-002	Sa&mple Period (s)
DISCHARGESTOPAT1	MULTIPARAM	3	0.00000E+000	Discharge Stop At &1	Voltage < Limit	V
DISCHARGESTOPAT2	MULTIPARAM	0	0.00000E+000	Discharge Stop At &2	None	N/A
AESBHCSELECTOR	TOGGLE	F	Save Both Half Cells
IRCOMP	TOGGLE	F	IR &Measure
EOC	QUANT	0	Open Circuit (V)
SEQUENCER	TOGGLE	TRUE	Run as Sequence
PSTATMODEL	IQUANT	53	Pstat Model
PSTATSECTION	LABEL	IFC5000-01520	Pstat Section
PSTATSERIALNO	LABEL	01520	Pstat Serial Number
CTRLMODE	IQUANT	0	Control Mode
ELECTROMETER	IQUANT	1	RE=0 or CS=1
IESTAB	IQUANT	0	I/E Stability
CASPEED	IQUANT	4	Control Amp Speed
CONVENTION	IQUANT	1	Current Convention
ICHRANGE	IQUANT	2	Ich Range
ICHRANGEMODE	TOGGLE	T	Ich Auto Range
ICHOFFSETENABLE	TOGGLE	F	Ich Offset Enable
ICHOFFSET	QUANT	0	Ich Offset (V)
ICHFILTER	IQUANT	1	Ich Filter
VCHRANGE	IQUANT	2	Vch Range
VCHRANGEMODE	TOGGLE	T	Vch Auto Range
VCHOFFSETENABLE	TOGGLE	F	Vch Offset Enable
VCHOFFSET	QUANT	0	Vch Offset (V)
VCHFILTER	IQUANT	1	Vch Filter
IERANGELOWERLIMIT	IQUANT	9	I/E Range Lower Limit
IERANGEMODE	TOGGLE	F	I/E AutoRange
IERANGE	IQUANT	10	I/E Range
ACHSELECT	IQUANT	1	Ach Select
ACHRANGE	IQUANT	2	Ach Range
ACHOFFSETENABLE	TOGGLE	F	Ach Offset Enable
ACHOFFSET	QUANT	0	Ach Offset (V)
ACHFILTER	IQUANT	1	Ach Filter
CABLEID	IQUANT	14	Cable ID
DCCALDATE	LABEL	20-10-2016	DC Calibration Date
ACCALDATE	LABEL	12/3/2015	AC Calibration Date
FRAMEWORKVERSION	QUANT	7.01	Framework Version
INSTRUMENTVERSION	LABEL	4.00	Instrument Version
CURVE	TABLE	53
	Pt	T	Vf	Im	Vu	Pwr	Sig	Ach	Temp	IERange	Over
	#	s	V	A	V	W	V	V	deg C	#	bits
	0	0.013333	3.79846E-001	-6.01513E-003	0.00000E+000	-2.28482E-003	-3.59960E-001	-1.13180E+000	3.57780E+000	10	...........
	1	0.026667	3.68298E-001	-6.01494E-003	0.00000E+000	-2.21529E-003	-3.59960E-001	-1.13506E+000	3.57780E+000	10	...........
	2	0.04	3.57579E-001	-6.00986E-003	0.00000E+000	-2.14900E-003	-3.59960E-001	-1.14158E+000	3.57780E+000	10	...........
	3	0.053333	3.47417E-001	-6.01414E-003	0.00000E+000	-2.08942E-003	-3.59960E-001	-1.13193E+000	3.57780E+000	10	...........
	4	0.066667	3.37662E-001	-6.01294E-003	0.00000E+000	-2.03034E-003	-3.59960E-001	-1.13510E+000	3.57780E+000	10	...........
	5	0.08	3.28148E-001	-6.01241E-003	0.00000E+000	-1.97296E-003	-3.59960E-001	-1.14154E+000	3.57780E+000	10	...........
	6	0.093333	3.18928E-001	-6.01202E-003	0.00000E+000	-1.91740E-003	-3.59960E-001	-1.13157E+000	3.57780E+000	10	...........
	7	0.106667	3.09875E-001	-6.01347E-003	0.00000E+000	-1.86342E-003	-3.59960E-001	-1.13486E+000	3.57780E+000	10	...........
	8	0.12	3.00940E-001	-6.02233E-003	0.00000E+000	-1.81236E-003	-3.59960E-001	-1.14167E+000	3.57780E+000	10	...........
	9	0.133333	2.92144E-001	-6.01535E-003	0.00000E+000	-1.75735E-003	-3.59960E-001	-1.13198E+000	3.57780E+000	10	...........
	10	0.146667	2.83500E-001	-6.01415E-003	0.00000E+000	-1.70501E-003	-3.59960E-001	-1.13494E+000	3.57780E+000	10	...........
	11	0.16	2.75019E-001	-6.01970E-003	0.00000E+000	-1.65553E-003	-3.59960E-001	-1.14166E+000	3.57780E+000	10	...........
	12	0.173333	2.66643E-001	-6.01310E-003	0.00000E+000	-1.60335E-003	-3.59960E-001	-1.13163E+000	3.57780E+000	10	...........
	13	0.186667	2.58331E-001	-6.00975E-003	0.00000E+000	-1.55250E-003	-3.59960E-001	-1.13508E+000	3.57780E+000	10	...........
	14	0.2	2.50131E-001	-6.00969E-003	0.00000E+000	-1.50321E-003	-3.59960E-001	-1.14227E+000	3.57780E+000	10	...........
	15	0.213333	2.42072E-001	-6.01347E-003	0.00000E+000	-1.45570E-003	-3.59960E-001	-1.13193E+000	3.57780E+000	10	...........
	16	0.226667	2.34149E-001	-6.01449E-003	0.00000E+000	-1.40829E-003	-3.59960E-001	-1.13477E+000	3.57780E+000	10	...........
	17	0.24	2.26266E-001	-6.01846E-003	0.00000E+000	-1.36177E-003	-3.59960E-001	-1.14175E+000	3.57780E+000	10	...........
	18	0.253333	2.18503E-001	-6.01810E-003	0.00000E+000	-1.31497E-003	-3.59960E-001	-1.13191E+000	3.57780E+000	10	...........
	19	0.266667	2.10795E-001	-6.01262E-003	0.00000E+000	-1.26743E-003	-3.59960E-001	-1.13503E+000	3.57780E+000	10	...........
	20	0.28	2.03217E-001	-6.01517E-003	0.00000E+000	-1.22239E-003	-3.59960E-001	-1.14245E+000	3.57780E+000	10	...........
	21	0.293333	1.95769E-001	-6.01636E-003	0.00000E+000	-1.17782E-003	-3.59960E-001	-1.13199E+000	3.57780E+000	10	...........
	22	0.306667	1.88415E-001	-6.01590E-003	0.00000E+000	-1.13349E-003	-3.59960E-001	-1.13486E+000	3.57780E+000	10	...........
	23	0.32	1.81109E-001	-6.01422E-003	0.00000E+000	-1.08923E-003	-3.59960E-001	-1.14269E+000	3.57780E+000	10	...........
	24	0.333333	1.73893E-001	-6.01596E-003	0.00000E+000	-1.04613E-003	-3.59960E-001	-1.13256E+000	3.57780E+000	10	...........
	25	0.346667	1.66746E-001	-6.01083E-003	0.00000E+000	-1.00228E-003	-3.59960E-001	-1.13482E+000	3.57780E+000	10	...........
	26	0.36	1.59700E-001	-6.01048E-003	0.00000E+000	-9.59874E-004	-3.59960E-001	-1.14238E+000	3.57780E+000	10	...........
	27	0.373333	1.52744E-001	-6.01133E-003	0.00000E+000	-9.18194E-004	-3.59960E-001	-1.13219E+000	3.57780E+000	10	...........
	28	0.386667	1.45790E-001	-6.01736E-003	0.00000E+000	-8.77272E-004	-3.59960E-001	-1.13465E+000	3.57780E+000	10	...........
	29	0.4	1.38970E-001	-6.01332E-003	0.00000E+000	-8.35670E-004	-3.59960E-001	-1.14260E+000	3.57780E+000	10	...........
	30	0.413333	1.32240E-001	-6.01681E-003	0.00000E+000	-7.95663E-004	-3.59960E-001	-1.13203E+000	3.57780E+000	10	...........
	31	0.426667	1.25570E-001	-6.01464E-003	0.00000E+000	-7.55256E-004	-3.59960E-001	-1.13434E+000	3.57780E+000	10	...........
	32	0.44	1.18946E-001	-6.01696E-003	0.00000E+000	-7.15692E-004	-3.59960E-001	-1.14231E+000	3.57780E+000	10	...........
	33	0.453333	1.12393E-001	-6.02022E-003	0.00000E+000	-6.76629E-004	-3.59960E-001	-1.13224E+000	3.57780E+000	10	...........
	34	0.466667	1.05922E-001	-6.01671E-003	0.00000E+000	-6.37300E-004	-3.59960E-001	-1.13466E+000	3.57780E+000	10	...........
	35	0.48	9.95274E-002	-6.01372E-003	0.00000E+000	-5.98530E-004	-3.59960E-001	-1.14261E+000	3.57780E+000	10	...........
	36	0.493333	9.31840E-002	-6.01188E-003	0.00000E+000	-5.60211E-004	-3.59960E-001	-1.13191E+000	3.57780E+000	10	...........
	37	0.506667	8.69249E-002	-6.01472E-003	0.00000E+000	-5.22829E-004	-3.59960E-001	-1.13432E+000	3.57780E+000	10	...........
	38	0.52	8.07246E-002	-6.01945E-003	0.00000E+000	-4.85918E-004	-3.59960E-001	-1.14278E+000	3.57780E+000	10	...........
	39	0.533333	7.46056E-002	-6.01848E-003	0.00000E+000	-4.49012E-004	-3.59960E-001	-1.13243E+000	3.57780E+000	10	...........
	40	0.546667	6.85478E-002	-6.01410E-003	0.00000E+000	-4.12253E-004	-3.59960E-001	-1.13434E+000	3.57780E+000	10	...........
	41	0.56	6.25701E-002	-6.01355E-003	0.00000E+000	-3.76268E-004	-3.59960E-001	-1.14260E+000	3.57780E+000	10	...........
	42	0.573333	5.65960E-002	-6.01930E-003	0.00000E+000	-3.40668E-004	-3.59960E-001	-1.13223E+000	3.57780E+000	10	...........
	43	0.586667	5.07095E-002	-6.01150E-003	0.00000E+000	-3.04840E-004	-3.59960E-001	-1.13441E+000	3.57630E+000	10	...........
	44	0.6	4.48973E-002	-6.01802E-003	0.00000E+000	-2.70193E-004	-3.59960E-001	-1.14288E+000	3.57630E+000	10	...........
	45	0.613333	3.91206E-002	-6.01342E-003	0.00000E+000	-2.35249E-004	-3.59960E-001	-1.13254E+000	3.57630E+000	10	...........
	46	0.626667	3.33949E-002	-6.01267E-003	0.00000E+000	-2.00793E-004	-3.59960E-001	-1.13420E+000	3.57630E+000	10	...........
	47	0.64	2.77442E-002	-6.01944E-003	0.00000E+000	-1.67005E-004	-3.59960E-001	-1.14254E+000	3.57630E+000	10	...........
	48	0.653333	2.21282E-002	-6.00803E-003	0.00000E+000	-1.32947E-004	-3.59960E-001	-1.13271E+000	3.57630E+000	10	...........
	49	0.666667	1.65520E-002	-6.01375E-003	0.00000E+000	-9.95397E-005	-3.59960E-001	-1.13445E+000	3.57630E+000	10	...........
	50	0.68	1.10409E-002	-6.01241E-003	0.00000E+000	-6.63826E-005	-3.59960E-001	-1.14291E+000	3.57630E+000	10	...........
	51	0.693333	5.58650E-003	-6.02089E-003	0.00000E+000	-3.36357E-005	-3.59960E-001	-1.13256E+000	3.57630E+000	10	...........
	52	0.701667	1.22521E-003	-6.01147E-003	0.00000E+000	-7.36530E-006	-3.59960E-001	-1.14172E+000	3.57630E+000	10	...........
STARTTIMEOFFSET	QUANT	1417.199	Start Time Offset (s)
