EXPLAIN
TAG	PWR800_DISCHARGE
TITLE	LABEL	PWR Cyclic Charge Discharge (Cell) - Discharge Step	Test &Identifier
DATE	LABEL	22-6-2017	Date
TIME	LABEL	16:08:09	Time
NOTES	NOTES	3	&Notes...
	supercap test cell
	0.6mg
	6M KOH
PSTAT	PSTAT	IFC5000-01520	Potentiostat
CAPACITY	QUANT	1.00000E-003	Capacity (A-hr)
CELLTYPE	SELECTOR	1	&Cell Type
WORKINGCONNECTION	SELECTOR	0	&Working Lead
MAXDISCHARGETIME	VARIABLEANDUNITS	1.00000E+002	s	1.00000E+002	second(s)	Max &Discharge Time
DISCHARGEMODE	MULTIPARAM	0	6.00000E-003	&Discharge Mode	Constant Current	Amp(s)
SAMPLETIME	QUANT	1.00000E-002	Sa&mple Period (s)
DISCHARGESTOPAT1	MULTIPARAM	3	0.00000E+000	Discharge Stop At &1	Voltage < Limit	V
DISCHARGESTOPAT2	MULTIPARAM	0	0.00000E+000	Discharge Stop At &2	None	N/A
AESBHCSELECTOR	TOGGLE	F	Save Both Half Cells
IRCOMP	TOGGLE	F	IR &Measure
EOC	QUANT	0	Open Circuit (V)
SEQUENCER	TOGGLE	TRUE	Run as Sequence
PSTATMODEL	IQUANT	53	Pstat Model
PSTATSECTION	LABEL	IFC5000-01520	Pstat Section
PSTATSERIALNO	LABEL	01520	Pstat Serial Number
CTRLMODE	IQUANT	0	Control Mode
ELECTROMETER	IQUANT	1	RE=0 or CS=1
IESTAB	IQUANT	0	I/E Stability
CASPEED	IQUANT	4	Control Amp Speed
CONVENTION	IQUANT	1	Current Convention
ICHRANGE	IQUANT	2	Ich Range
ICHRANGEMODE	TOGGLE	T	Ich Auto Range
ICHOFFSETENABLE	TOGGLE	F	Ich Offset Enable
ICHOFFSET	QUANT	0	Ich Offset (V)
ICHFILTER	IQUANT	1	Ich Filter
VCHRANGE	IQUANT	2	Vch Range
VCHRANGEMODE	TOGGLE	T	Vch Auto Range
VCHOFFSETENABLE	TOGGLE	F	Vch Offset Enable
VCHOFFSET	QUANT	0	Vch Offset (V)
VCHFILTER	IQUANT	1	Vch Filter
IERANGELOWERLIMIT	IQUANT	9	I/E Range Lower Limit
IERANGEMODE	TOGGLE	F	I/E AutoRange
IERANGE	IQUANT	10	I/E Range
ACHSELECT	IQUANT	1	Ach Select
ACHRANGE	IQUANT	2	Ach Range
ACHOFFSETENABLE	TOGGLE	F	Ach Offset Enable
ACHOFFSET	QUANT	0	Ach Offset (V)
ACHFILTER	IQUANT	1	Ach Filter
CABLEID	IQUANT	14	Cable ID
DCCALDATE	LABEL	20-10-2016	DC Calibration Date
ACCALDATE	LABEL	12/3/2015	AC Calibration Date
FRAMEWORKVERSION	QUANT	7.01	Framework Version
INSTRUMENTVERSION	LABEL	4.00	Instrument Version
CURVE	TABLE	54
	Pt	T	Vf	Im	Vu	Pwr	Sig	Ach	Temp	IERange	Over
	#	s	V	A	V	W	V	V	deg C	#	bits
	0	0.013333	3.81391E-001	-6.01539E-003	0.00000E+000	-2.29421E-003	-3.59960E-001	-1.12858E+000	3.57980E+000	10	...........
	1	0.026667	3.69935E-001	-6.01784E-003	0.00000E+000	-2.22621E-003	-3.59960E-001	-1.13963E+000	3.57980E+000	10	...........
	2	0.04	3.59243E-001	-6.01435E-003	0.00000E+000	-2.16061E-003	-3.59960E-001	-1.12997E+000	3.57980E+000	10	...........
	3	0.053333	3.49108E-001	-6.01980E-003	0.00000E+000	-2.10156E-003	-3.59960E-001	-1.12871E+000	3.57980E+000	10	...........
	4	0.066667	3.39364E-001	-6.01627E-003	0.00000E+000	-2.04170E-003	-3.59960E-001	-1.13989E+000	3.57980E+000	10	...........
	5	0.08	3.29890E-001	-6.01259E-003	0.00000E+000	-1.98349E-003	-3.59960E-001	-1.12991E+000	3.57980E+000	10	...........
	6	0.093333	3.20646E-001	-6.01982E-003	0.00000E+000	-1.93023E-003	-3.59960E-001	-1.12889E+000	3.57980E+000	10	...........
	7	0.106667	3.11627E-001	-6.01372E-003	0.00000E+000	-1.87404E-003	-3.59960E-001	-1.14010E+000	3.57980E+000	10	...........
	8	0.12	3.02738E-001	-6.01299E-003	0.00000E+000	-1.82036E-003	-3.59960E-001	-1.13059E+000	3.57980E+000	10	...........
	9	0.133333	2.94074E-001	-6.01570E-003	0.00000E+000	-1.76906E-003	-3.59960E-001	-1.12946E+000	3.57980E+000	10	...........
	10	0.146667	2.85460E-001	-6.01293E-003	0.00000E+000	-1.71645E-003	-3.59960E-001	-1.14075E+000	3.57980E+000	10	...........
	11	0.16	2.76990E-001	-6.01321E-003	0.00000E+000	-1.66560E-003	-3.59960E-001	-1.13056E+000	3.57980E+000	10	...........
	12	0.173333	2.68631E-001	-6.01818E-003	0.00000E+000	-1.61667E-003	-3.59960E-001	-1.12995E+000	3.57980E+000	10	...........
	13	0.186667	2.60350E-001	-6.01144E-003	0.00000E+000	-1.56508E-003	-3.59960E-001	-1.14103E+000	3.57980E+000	10	...........
	14	0.2	2.52214E-001	-6.01401E-003	0.00000E+000	-1.51682E-003	-3.59960E-001	-1.13097E+000	3.57980E+000	10	...........
	15	0.213333	2.44182E-001	-6.01590E-003	0.00000E+000	-1.46897E-003	-3.59960E-001	-1.13017E+000	3.57980E+000	10	...........
	16	0.226667	2.36280E-001	-6.01461E-003	0.00000E+000	-1.42113E-003	-3.59960E-001	-1.14092E+000	3.57980E+000	10	...........
	17	0.24	2.28469E-001	-6.01393E-003	0.00000E+000	-1.37400E-003	-3.59960E-001	-1.13100E+000	3.57980E+000	10	...........
	18	0.253333	2.20780E-001	-6.01092E-003	0.00000E+000	-1.32709E-003	-3.59960E-001	-1.13003E+000	3.57980E+000	10	...........
	19	0.266667	2.13113E-001	-6.01736E-003	0.00000E+000	-1.28238E-003	-3.59960E-001	-1.14072E+000	3.57980E+000	10	...........
	20	0.28	2.05594E-001	-6.01501E-003	0.00000E+000	-1.23665E-003	-3.59960E-001	-1.13070E+000	3.57980E+000	10	...........
	21	0.293333	1.98160E-001	-6.01393E-003	0.00000E+000	-1.19172E-003	-3.59960E-001	-1.13008E+000	3.57980E+000	10	...........
	22	0.306667	1.90793E-001	-6.01037E-003	0.00000E+000	-1.14674E-003	-3.59960E-001	-1.14091E+000	3.57980E+000	10	...........
	23	0.32	1.83532E-001	-6.01479E-003	0.00000E+000	-1.10390E-003	-3.59960E-001	-1.13100E+000	3.57980E+000	10	...........
	24	0.333333	1.76340E-001	-6.01586E-003	0.00000E+000	-1.06084E-003	-3.59960E-001	-1.13031E+000	3.57980E+000	10	...........
	25	0.346667	1.69220E-001	-6.01735E-003	0.00000E+000	-1.01826E-003	-3.59960E-001	-1.14115E+000	3.57980E+000	10	...........
	26	0.36	1.62163E-001	-6.01322E-003	0.00000E+000	-9.75124E-004	-3.59960E-001	-1.13078E+000	3.57980E+000	10	...........
	27	0.373333	1.55250E-001	-6.01501E-003	0.00000E+000	-9.33832E-004	-3.59960E-001	-1.13049E+000	3.57980E+000	10	...........
	28	0.386667	1.48389E-001	-6.01199E-003	0.00000E+000	-8.92116E-004	-3.59960E-001	-1.14146E+000	3.57980E+000	10	...........
	29	0.4	1.41585E-001	-6.01229E-003	0.00000E+000	-8.51250E-004	-3.59960E-001	-1.13117E+000	3.57980E+000	10	...........
	30	0.413333	1.34834E-001	-6.02067E-003	0.00000E+000	-8.11789E-004	-3.59960E-001	-1.13054E+000	3.57980E+000	10	...........
	31	0.426667	1.28217E-001	-6.01704E-003	0.00000E+000	-7.71484E-004	-3.59960E-001	-1.14134E+000	3.57980E+000	10	...........
	32	0.44	1.21625E-001	-6.01382E-003	0.00000E+000	-7.31428E-004	-3.59960E-001	-1.13100E+000	3.57980E+000	10	...........
	33	0.453333	1.15072E-001	-6.01596E-003	0.00000E+000	-6.92267E-004	-3.59960E-001	-1.13107E+000	3.57980E+000	10	...........
	34	0.466667	1.08643E-001	-6.01214E-003	0.00000E+000	-6.53174E-004	-3.59960E-001	-1.14181E+000	3.57980E+000	10	...........
	35	0.48	1.02281E-001	-6.01955E-003	0.00000E+000	-6.15688E-004	-3.59960E-001	-1.13106E+000	3.57980E+000	10	...........
	36	0.493333	9.59875E-002	-6.01267E-003	0.00000E+000	-5.77141E-004	-3.59960E-001	-1.13103E+000	3.57980E+000	10	...........
	37	0.506667	8.97625E-002	-6.01360E-003	0.00000E+000	-5.39795E-004	-3.59960E-001	-1.14180E+000	3.57980E+000	10	...........
	38	0.52	8.35570E-002	-6.01734E-003	0.00000E+000	-5.02791E-004	-3.59960E-001	-1.13146E+000	3.57980E+000	10	...........
	39	0.533333	7.74333E-002	-6.01409E-003	0.00000E+000	-4.65691E-004	-3.59960E-001	-1.13143E+000	3.57853E+000	10	...........
	40	0.546667	7.13393E-002	-6.01849E-003	0.00000E+000	-4.29355E-004	-3.59960E-001	-1.14155E+000	3.57640E+000	10	...........
	41	0.56	6.53451E-002	-6.01073E-003	0.00000E+000	-3.92772E-004	-3.59960E-001	-1.13073E+000	3.57640E+000	10	...........
	42	0.573333	5.93953E-002	-6.01542E-003	0.00000E+000	-3.57288E-004	-3.59960E-001	-1.13089E+000	3.57640E+000	10	...........
	43	0.586667	5.34992E-002	-6.01540E-003	0.00000E+000	-3.21819E-004	-3.59960E-001	-1.14138E+000	3.57640E+000	10	...........
	44	0.6	4.77253E-002	-6.01737E-003	0.00000E+000	-2.87181E-004	-3.59960E-001	-1.13079E+000	3.57640E+000	10	...........
	45	0.613333	4.19625E-002	-6.02005E-003	0.00000E+000	-2.52617E-004	-3.59960E-001	-1.13102E+000	3.57640E+000	10	...........
	46	0.626667	3.62590E-002	-6.01822E-003	0.00000E+000	-2.18214E-004	-3.59960E-001	-1.14123E+000	3.57640E+000	10	...........
	47	0.64	3.06072E-002	-6.01135E-003	0.00000E+000	-1.83991E-004	-3.59960E-001	-1.13064E+000	3.57640E+000	10	...........
	48	0.653333	2.50022E-002	-6.01368E-003	0.00000E+000	-1.50356E-004	-3.59960E-001	-1.13142E+000	3.57640E+000	10	...........
	49	0.666667	1.94312E-002	-6.01728E-003	0.00000E+000	-1.16923E-004	-3.59960E-001	-1.14144E+000	3.57640E+000	10	...........
	50	0.68	1.39302E-002	-6.01503E-003	0.00000E+000	-8.37906E-005	-3.59960E-001	-1.13072E+000	3.57640E+000	10	...........
	51	0.693333	8.48124E-003	-6.01778E-003	0.00000E+000	-5.10382E-005	-3.59960E-001	-1.13131E+000	3.57640E+000	10	...........
	52	0.706667	3.08899E-003	-6.01431E-003	0.00000E+000	-1.85781E-005	-3.59960E-001	-1.14124E+000	3.57640E+000	10	...........
	53	0.71	-2.70029E-004	-6.01437E-003	0.00000E+000	1.62406E-006	-3.59960E-001	-1.12258E+000	3.57640E+000	10	...........
STARTTIMEOFFSET	QUANT	1337.736	Start Time Offset (s)
