EXPLAIN
TAG	PWR800_DISCHARGE
TITLE	LABEL	PWR Cyclic Charge Discharge (Cell) - Discharge Step	Test &Identifier
DATE	LABEL	22-6-2017	Date
TIME	LABEL	15:58:10	Time
NOTES	NOTES	3	&Notes...
	supercap test cell
	0.6mg
	6M KOH
PSTAT	PSTAT	IFC5000-01520	Potentiostat
CAPACITY	QUANT	1.00000E-003	Capacity (A-hr)
CELLTYPE	SELECTOR	1	&Cell Type
WORKINGCONNECTION	SELECTOR	0	&Working Lead
MAXDISCHARGETIME	VARIABLEANDUNITS	1.00000E+002	s	1.00000E+002	second(s)	Max &Discharge Time
DISCHARGEMODE	MULTIPARAM	0	6.00000E-003	&Discharge Mode	Constant Current	Amp(s)
SAMPLETIME	QUANT	1.00000E-002	Sa&mple Period (s)
DISCHARGESTOPAT1	MULTIPARAM	3	0.00000E+000	Discharge Stop At &1	Voltage < Limit	V
DISCHARGESTOPAT2	MULTIPARAM	0	0.00000E+000	Discharge Stop At &2	None	N/A
AESBHCSELECTOR	TOGGLE	F	Save Both Half Cells
IRCOMP	TOGGLE	F	IR &Measure
EOC	QUANT	0	Open Circuit (V)
SEQUENCER	TOGGLE	TRUE	Run as Sequence
PSTATMODEL	IQUANT	53	Pstat Model
PSTATSECTION	LABEL	IFC5000-01520	Pstat Section
PSTATSERIALNO	LABEL	01520	Pstat Serial Number
CTRLMODE	IQUANT	0	Control Mode
ELECTROMETER	IQUANT	1	RE=0 or CS=1
IESTAB	IQUANT	0	I/E Stability
CASPEED	IQUANT	4	Control Amp Speed
CONVENTION	IQUANT	1	Current Convention
ICHRANGE	IQUANT	2	Ich Range
ICHRANGEMODE	TOGGLE	T	Ich Auto Range
ICHOFFSETENABLE	TOGGLE	F	Ich Offset Enable
ICHOFFSET	QUANT	0	Ich Offset (V)
ICHFILTER	IQUANT	1	Ich Filter
VCHRANGE	IQUANT	2	Vch Range
VCHRANGEMODE	TOGGLE	T	Vch Auto Range
VCHOFFSETENABLE	TOGGLE	F	Vch Offset Enable
VCHOFFSET	QUANT	0	Vch Offset (V)
VCHFILTER	IQUANT	1	Vch Filter
IERANGELOWERLIMIT	IQUANT	9	I/E Range Lower Limit
IERANGEMODE	TOGGLE	F	I/E AutoRange
IERANGE	IQUANT	10	I/E Range
ACHSELECT	IQUANT	1	Ach Select
ACHRANGE	IQUANT	2	Ach Range
ACHOFFSETENABLE	TOGGLE	F	Ach Offset Enable
ACHOFFSET	QUANT	0	Ach Offset (V)
ACHFILTER	IQUANT	1	Ach Filter
CABLEID	IQUANT	14	Cable ID
DCCALDATE	LABEL	20-10-2016	DC Calibration Date
ACCALDATE	LABEL	12/3/2015	AC Calibration Date
FRAMEWORKVERSION	QUANT	7.01	Framework Version
INSTRUMENTVERSION	LABEL	4.00	Instrument Version
CURVE	TABLE	57
	Pt	T	Vf	Im	Vu	Pwr	Sig	Ach	Temp	IERange	Over
	#	s	V	A	V	W	V	V	deg C	#	bits
	0	0.013333	3.90942E-001	-6.01793E-003	0.00000E+000	-2.35266E-003	-3.59960E-001	-1.11385E+000	3.57680E+000	10	...........
	1	0.026667	3.79792E-001	-6.01233E-003	0.00000E+000	-2.28344E-003	-3.59960E-001	-1.11060E+000	3.57680E+000	10	...........
	2	0.04	3.69467E-001	-6.01557E-003	0.00000E+000	-2.22255E-003	-3.59960E-001	-1.10499E+000	3.57680E+000	10	...........
	3	0.053333	3.59669E-001	-6.00975E-003	0.00000E+000	-2.16152E-003	-3.59960E-001	-1.11384E+000	3.57680E+000	10	...........
	4	0.066667	3.50154E-001	-6.01460E-003	0.00000E+000	-2.10604E-003	-3.59960E-001	-1.11065E+000	3.57680E+000	10	...........
	5	0.08	3.40981E-001	-6.01224E-003	0.00000E+000	-2.05006E-003	-3.59960E-001	-1.10501E+000	3.57680E+000	10	...........
	6	0.093333	3.32048E-001	-6.01813E-003	0.00000E+000	-1.99831E-003	-3.59960E-001	-1.11375E+000	3.57680E+000	10	...........
	7	0.106667	3.23313E-001	-6.01069E-003	0.00000E+000	-1.94333E-003	-3.59960E-001	-1.11068E+000	3.57680E+000	10	...........
	8	0.12	3.14681E-001	-6.01618E-003	0.00000E+000	-1.89318E-003	-3.59960E-001	-1.10505E+000	3.57680E+000	10	...........
	9	0.133333	3.06210E-001	-6.01098E-003	0.00000E+000	-1.84062E-003	-3.59960E-001	-1.11374E+000	3.57680E+000	10	...........
	10	0.146667	2.97839E-001	-6.01145E-003	0.00000E+000	-1.79044E-003	-3.59960E-001	-1.11115E+000	3.57680E+000	10	...........
	11	0.16	2.89596E-001	-6.01516E-003	0.00000E+000	-1.74197E-003	-3.59960E-001	-1.10531E+000	3.57680E+000	10	...........
	12	0.173333	2.81487E-001	-6.01389E-003	0.00000E+000	-1.69283E-003	-3.59960E-001	-1.11392E+000	3.57680E+000	10	...........
	13	0.186667	2.73515E-001	-6.01904E-003	0.00000E+000	-1.64630E-003	-3.59960E-001	-1.11104E+000	3.57680E+000	10	...........
	14	0.2	2.65592E-001	-6.01383E-003	0.00000E+000	-1.59723E-003	-3.59960E-001	-1.10557E+000	3.57680E+000	10	...........
	15	0.213333	2.57830E-001	-6.01299E-003	0.00000E+000	-1.55033E-003	-3.59960E-001	-1.11422E+000	3.57680E+000	10	...........
	16	0.226667	2.50098E-001	-6.01497E-003	0.00000E+000	-1.50433E-003	-3.59960E-001	-1.11148E+000	3.57680E+000	10	...........
	17	0.24	2.42465E-001	-6.01672E-003	0.00000E+000	-1.45884E-003	-3.59960E-001	-1.10538E+000	3.57680E+000	10	...........
	18	0.253333	2.34949E-001	-6.01366E-003	0.00000E+000	-1.41290E-003	-3.59960E-001	-1.11409E+000	3.57680E+000	10	...........
	19	0.266667	2.27491E-001	-6.01088E-003	0.00000E+000	-1.36742E-003	-3.59960E-001	-1.11136E+000	3.57680E+000	10	...........
	20	0.28	2.20144E-001	-6.00953E-003	0.00000E+000	-1.32296E-003	-3.59960E-001	-1.10600E+000	3.57680E+000	10	...........
	21	0.293333	2.12847E-001	-6.01841E-003	0.00000E+000	-1.28100E-003	-3.59960E-001	-1.11433E+000	3.57680E+000	10	...........
	22	0.306667	2.05696E-001	-6.01521E-003	0.00000E+000	-1.23730E-003	-3.59960E-001	-1.11144E+000	3.57680E+000	10	...........
	23	0.32	1.98544E-001	-6.01542E-003	0.00000E+000	-1.19433E-003	-3.59960E-001	-1.10581E+000	3.57660E+000	10	...........
	24	0.333333	1.91524E-001	-6.01034E-003	0.00000E+000	-1.15112E-003	-3.59960E-001	-1.11449E+000	3.57660E+000	10	...........
	25	0.346667	1.84553E-001	-6.01371E-003	0.00000E+000	-1.10985E-003	-3.59960E-001	-1.11206E+000	3.57660E+000	10	...........
	26	0.36	1.77673E-001	-6.01322E-003	0.00000E+000	-1.06839E-003	-3.59960E-001	-1.10634E+000	3.57660E+000	10	...........
	27	0.373333	1.70850E-001	-6.01345E-003	0.00000E+000	-1.02740E-003	-3.59960E-001	-1.11454E+000	3.57660E+000	10	...........
	28	0.386667	1.64098E-001	-6.01266E-003	0.00000E+000	-9.86666E-004	-3.59960E-001	-1.11186E+000	3.57660E+000	10	...........
	29	0.4	1.57436E-001	-6.01178E-003	0.00000E+000	-9.46471E-004	-3.59960E-001	-1.10579E+000	3.57660E+000	10	...........
	30	0.413333	1.50825E-001	-6.01652E-003	0.00000E+000	-9.07441E-004	-3.59960E-001	-1.11462E+000	3.57660E+000	10	...........
	31	0.426667	1.44329E-001	-6.01636E-003	0.00000E+000	-8.68333E-004	-3.59960E-001	-1.11170E+000	3.57660E+000	10	...........
	32	0.44	1.37843E-001	-6.01445E-003	0.00000E+000	-8.29050E-004	-3.59960E-001	-1.10596E+000	3.57660E+000	10	...........
	33	0.453333	1.31435E-001	-6.01606E-003	0.00000E+000	-7.90718E-004	-3.59960E-001	-1.11438E+000	3.57660E+000	10	...........
	34	0.466667	1.25076E-001	-6.00876E-003	0.00000E+000	-7.51548E-004	-3.59960E-001	-1.11183E+000	3.57660E+000	10	...........
	35	0.48	1.18763E-001	-6.02005E-003	0.00000E+000	-7.14961E-004	-3.59960E-001	-1.10610E+000	3.57660E+000	10	...........
	36	0.493333	1.12526E-001	-6.01165E-003	0.00000E+000	-6.76465E-004	-3.59960E-001	-1.11473E+000	3.57660E+000	10	...........
	37	0.506667	1.06341E-001	-6.01124E-003	0.00000E+000	-6.39242E-004	-3.59960E-001	-1.11211E+000	3.57660E+000	10	...........
	38	0.52	1.00249E-001	-6.01617E-003	0.00000E+000	-6.03113E-004	-3.59960E-001	-1.10602E+000	3.57660E+000	10	...........
	39	0.533333	9.41925E-002	-6.01591E-003	0.00000E+000	-5.66654E-004	-3.59960E-001	-1.11466E+000	3.57660E+000	10	...........
	40	0.546667	8.81902E-002	-6.01659E-003	0.00000E+000	-5.30604E-004	-3.59960E-001	-1.11218E+000	3.57660E+000	10	...........
	41	0.56	8.22522E-002	-6.01642E-003	0.00000E+000	-4.94864E-004	-3.59960E-001	-1.10625E+000	3.57660E+000	10	...........
	42	0.573333	7.63591E-002	-6.01512E-003	0.00000E+000	-4.59309E-004	-3.59960E-001	-1.11458E+000	3.57660E+000	10	...........
	43	0.586667	7.05505E-002	-6.01143E-003	0.00000E+000	-4.24109E-004	-3.59960E-001	-1.11209E+000	3.57660E+000	10	...........
	44	0.6	6.47539E-002	-6.01471E-003	0.00000E+000	-3.89476E-004	-3.59960E-001	-1.10640E+000	3.57660E+000	10	...........
	45	0.613333	5.89897E-002	-6.01260E-003	0.00000E+000	-3.54681E-004	-3.59960E-001	-1.11482E+000	3.57660E+000	10	...........
	46	0.626667	5.33174E-002	-6.00916E-003	0.00000E+000	-3.20393E-004	-3.59960E-001	-1.11262E+000	3.57660E+000	10	...........
	47	0.64	4.77360E-002	-6.01540E-003	0.00000E+000	-2.87151E-004	-3.59960E-001	-1.10655E+000	3.57660E+000	10	...........
	48	0.653333	4.21827E-002	-6.01776E-003	0.00000E+000	-2.53845E-004	-3.59960E-001	-1.11476E+000	3.57660E+000	10	...........
	49	0.666667	3.66526E-002	-6.01789E-003	0.00000E+000	-2.20572E-004	-3.59960E-001	-1.11240E+000	3.57660E+000	10	...........
	50	0.68	3.11746E-002	-6.01725E-003	0.00000E+000	-1.87586E-004	-3.59960E-001	-1.10651E+000	3.57660E+000	10	...........
	51	0.693333	2.57279E-002	-6.01114E-003	0.00000E+000	-1.54654E-004	-3.59960E-001	-1.11487E+000	3.57660E+000	10	...........
	52	0.706667	2.03622E-002	-6.01529E-003	0.00000E+000	-1.22485E-004	-3.59960E-001	-1.11256E+000	3.57660E+000	10	...........
	53	0.72	1.50315E-002	-6.01251E-003	0.00000E+000	-9.03773E-005	-3.59960E-001	-1.10614E+000	3.57660E+000	10	...........
	54	0.733333	9.74941E-003	-6.01480E-003	0.00000E+000	-5.86407E-005	-3.59960E-001	-1.11455E+000	3.57660E+000	10	...........
	55	0.746667	4.51063E-003	-6.01420E-003	0.00000E+000	-2.71278E-005	-3.59960E-001	-1.11228E+000	3.57660E+000	10	...........
	56	0.753333	5.79657E-004	-6.01775E-003	0.00000E+000	-3.48823E-006	-3.59960E-001	-1.10872E+000	3.57660E+000	10	...........
STARTTIMEOFFSET	QUANT	948.3901	Start Time Offset (s)
