EXPLAIN
TAG	PWR800_DISCHARGE
TITLE	LABEL	PWR Cyclic Charge Discharge (Cell) - Discharge Step	Test &Identifier
DATE	LABEL	22-6-2017	Date
TIME	LABEL	16:05:15	Time
NOTES	NOTES	3	&Notes...
	supercap test cell
	0.6mg
	6M KOH
PSTAT	PSTAT	IFC5000-01520	Potentiostat
CAPACITY	QUANT	1.00000E-003	Capacity (A-hr)
CELLTYPE	SELECTOR	1	&Cell Type
WORKINGCONNECTION	SELECTOR	0	&Working Lead
MAXDISCHARGETIME	VARIABLEANDUNITS	1.00000E+002	s	1.00000E+002	second(s)	Max &Discharge Time
DISCHARGEMODE	MULTIPARAM	0	6.00000E-003	&Discharge Mode	Constant Current	Amp(s)
SAMPLETIME	QUANT	1.00000E-002	Sa&mple Period (s)
DISCHARGESTOPAT1	MULTIPARAM	3	0.00000E+000	Discharge Stop At &1	Voltage < Limit	V
DISCHARGESTOPAT2	MULTIPARAM	0	0.00000E+000	Discharge Stop At &2	None	N/A
AESBHCSELECTOR	TOGGLE	F	Save Both Half Cells
IRCOMP	TOGGLE	F	IR &Measure
EOC	QUANT	0	Open Circuit (V)
SEQUENCER	TOGGLE	TRUE	Run as Sequence
PSTATMODEL	IQUANT	53	Pstat Model
PSTATSECTION	LABEL	IFC5000-01520	Pstat Section
PSTATSERIALNO	LABEL	01520	Pstat Serial Number
CTRLMODE	IQUANT	0	Control Mode
ELECTROMETER	IQUANT	1	RE=0 or CS=1
IESTAB	IQUANT	0	I/E Stability
CASPEED	IQUANT	4	Control Amp Speed
CONVENTION	IQUANT	1	Current Convention
ICHRANGE	IQUANT	2	Ich Range
ICHRANGEMODE	TOGGLE	T	Ich Auto Range
ICHOFFSETENABLE	TOGGLE	F	Ich Offset Enable
ICHOFFSET	QUANT	0	Ich Offset (V)
ICHFILTER	IQUANT	1	Ich Filter
VCHRANGE	IQUANT	2	Vch Range
VCHRANGEMODE	TOGGLE	T	Vch Auto Range
VCHOFFSETENABLE	TOGGLE	F	Vch Offset Enable
VCHOFFSET	QUANT	0	Vch Offset (V)
VCHFILTER	IQUANT	1	Vch Filter
IERANGELOWERLIMIT	IQUANT	9	I/E Range Lower Limit
IERANGEMODE	TOGGLE	F	I/E AutoRange
IERANGE	IQUANT	10	I/E Range
ACHSELECT	IQUANT	1	Ach Select
ACHRANGE	IQUANT	2	Ach Range
ACHOFFSETENABLE	TOGGLE	F	Ach Offset Enable
ACHOFFSET	QUANT	0	Ach Offset (V)
ACHFILTER	IQUANT	1	Ach Filter
CABLEID	IQUANT	14	Cable ID
DCCALDATE	LABEL	20-10-2016	DC Calibration Date
ACCALDATE	LABEL	12/3/2015	AC Calibration Date
FRAMEWORKVERSION	QUANT	7.01	Framework Version
INSTRUMENTVERSION	LABEL	4.00	Instrument Version
CURVE	TABLE	54
	Pt	T	Vf	Im	Vu	Pwr	Sig	Ach	Temp	IERange	Over
	#	s	V	A	V	W	V	V	deg C	#	bits
	0	0.013333	3.83950E-001	-6.01553E-003	0.00000E+000	-2.30966E-003	-3.59960E-001	-1.12332E+000	3.57780E+000	10	...........
	1	0.026667	3.72571E-001	-6.01279E-003	0.00000E+000	-2.24019E-003	-3.59960E-001	-1.13234E+000	3.57780E+000	10	...........
	2	0.04	3.61990E-001	-6.01484E-003	0.00000E+000	-2.17731E-003	-3.59960E-001	-1.12153E+000	3.57780E+000	10	...........
	3	0.053333	3.51928E-001	-6.01406E-003	0.00000E+000	-2.11652E-003	-3.59960E-001	-1.12350E+000	3.57780E+000	10	...........
	4	0.066667	3.42248E-001	-6.01198E-003	0.00000E+000	-2.05759E-003	-3.59960E-001	-1.13250E+000	3.57780E+000	10	...........
	5	0.08	3.32842E-001	-6.01428E-003	0.00000E+000	-2.00180E-003	-3.59960E-001	-1.12204E+000	3.57780E+000	10	...........
	6	0.093333	3.23678E-001	-6.01985E-003	0.00000E+000	-1.94849E-003	-3.59960E-001	-1.12397E+000	3.57780E+000	10	...........
	7	0.106667	3.14716E-001	-6.01491E-003	0.00000E+000	-1.89299E-003	-3.59960E-001	-1.13275E+000	3.57780E+000	10	...........
	8	0.12	3.05935E-001	-6.01614E-003	0.00000E+000	-1.84055E-003	-3.59960E-001	-1.12212E+000	3.57780E+000	10	...........
	9	0.133333	2.97301E-001	-6.01301E-003	0.00000E+000	-1.78767E-003	-3.59960E-001	-1.12442E+000	3.57780E+000	10	...........
	10	0.146667	2.88779E-001	-6.01311E-003	0.00000E+000	-1.73646E-003	-3.59960E-001	-1.13322E+000	3.57780E+000	10	...........
	11	0.16	2.80382E-001	-6.01406E-003	0.00000E+000	-1.68623E-003	-3.59960E-001	-1.12256E+000	3.57780E+000	10	...........
	12	0.173333	2.72095E-001	-6.01443E-003	0.00000E+000	-1.63650E-003	-3.59960E-001	-1.12465E+000	3.57780E+000	10	...........
	13	0.186667	2.63948E-001	-6.01672E-003	0.00000E+000	-1.58810E-003	-3.59960E-001	-1.13323E+000	3.57780E+000	10	...........
	14	0.2	2.55853E-001	-6.01513E-003	0.00000E+000	-1.53899E-003	-3.59960E-001	-1.12266E+000	3.57780E+000	10	...........
	15	0.213333	2.47851E-001	-6.01638E-003	0.00000E+000	-1.49117E-003	-3.59960E-001	-1.12507E+000	3.57780E+000	10	...........
	16	0.226667	2.39965E-001	-6.00781E-003	0.00000E+000	-1.44166E-003	-3.59960E-001	-1.13333E+000	3.57780E+000	10	...........
	17	0.24	2.32157E-001	-6.01214E-003	0.00000E+000	-1.39576E-003	-3.59960E-001	-1.12250E+000	3.57780E+000	10	...........
	18	0.253333	2.24464E-001	-6.00990E-003	0.00000E+000	-1.34901E-003	-3.59960E-001	-1.12477E+000	3.57780E+000	10	...........
	19	0.266667	2.16863E-001	-6.01471E-003	0.00000E+000	-1.30437E-003	-3.59960E-001	-1.13297E+000	3.57780E+000	10	...........
	20	0.28	2.09385E-001	-6.01889E-003	0.00000E+000	-1.26026E-003	-3.59960E-001	-1.12254E+000	3.57780E+000	10	...........
	21	0.293333	2.01979E-001	-6.01473E-003	0.00000E+000	-1.21485E-003	-3.59960E-001	-1.12518E+000	3.57780E+000	10	...........
	22	0.306667	1.94693E-001	-6.01563E-003	0.00000E+000	-1.17120E-003	-3.59960E-001	-1.13304E+000	3.57780E+000	10	...........
	23	0.32	1.87482E-001	-6.01416E-003	0.00000E+000	-1.12755E-003	-3.59960E-001	-1.12257E+000	3.57780E+000	10	...........
	24	0.333333	1.80335E-001	-6.01364E-003	0.00000E+000	-1.08447E-003	-3.59960E-001	-1.12531E+000	3.57780E+000	10	...........
	25	0.346667	1.73253E-001	-6.01318E-003	0.00000E+000	-1.04180E-003	-3.59960E-001	-1.13324E+000	3.57780E+000	10	...........
	26	0.36	1.66241E-001	-6.02075E-003	0.00000E+000	-1.00090E-003	-3.59960E-001	-1.12283E+000	3.57780E+000	10	...........
	27	0.373333	1.59359E-001	-6.01773E-003	0.00000E+000	-9.58981E-004	-3.59960E-001	-1.12572E+000	3.57780E+000	10	...........
	28	0.386667	1.52530E-001	-6.01702E-003	0.00000E+000	-9.17776E-004	-3.59960E-001	-1.13332E+000	3.57780E+000	10	...........
	29	0.4	1.45769E-001	-6.01651E-003	0.00000E+000	-8.77022E-004	-3.59960E-001	-1.12274E+000	3.57780E+000	10	...........
	30	0.413333	1.39045E-001	-6.01445E-003	0.00000E+000	-8.36281E-004	-3.59960E-001	-1.12586E+000	3.57780E+000	10	...........
	31	0.426667	1.32409E-001	-6.01529E-003	0.00000E+000	-7.96478E-004	-3.59960E-001	-1.13331E+000	3.57780E+000	10	...........
	32	0.44	1.25837E-001	-6.01813E-003	0.00000E+000	-7.57306E-004	-3.59960E-001	-1.12298E+000	3.57780E+000	10	...........
	33	0.453333	1.19387E-001	-6.00914E-003	0.00000E+000	-7.17415E-004	-3.59960E-001	-1.12613E+000	3.57780E+000	10	...........
	34	0.466667	1.12951E-001	-6.01231E-003	0.00000E+000	-6.79095E-004	-3.59960E-001	-1.13362E+000	3.57780E+000	10	...........
	35	0.48	1.06576E-001	-6.01512E-003	0.00000E+000	-6.41068E-004	-3.59960E-001	-1.12335E+000	3.57780E+000	10	...........
	36	0.493333	1.00257E-001	-6.01891E-003	0.00000E+000	-6.03438E-004	-3.59960E-001	-1.12643E+000	3.57780E+000	10	...........
	37	0.506667	9.40420E-002	-6.01778E-003	0.00000E+000	-5.65924E-004	-3.59960E-001	-1.13352E+000	3.57780E+000	10	...........
	38	0.52	8.78858E-002	-6.01479E-003	0.00000E+000	-5.28615E-004	-3.59960E-001	-1.12309E+000	3.57780E+000	10	...........
	39	0.533333	8.17756E-002	-6.01604E-003	0.00000E+000	-4.91965E-004	-3.59960E-001	-1.12652E+000	3.57780E+000	10	...........
	40	0.546667	7.57331E-002	-6.01757E-003	0.00000E+000	-4.55730E-004	-3.59960E-001	-1.13348E+000	3.57780E+000	10	...........
	41	0.56	6.97471E-002	-6.01837E-003	0.00000E+000	-4.19764E-004	-3.59960E-001	-1.12303E+000	3.57780E+000	10	...........
	42	0.573333	6.38081E-002	-6.01307E-003	0.00000E+000	-3.83682E-004	-3.59960E-001	-1.12612E+000	3.57780E+000	10	...........
	43	0.586667	5.79173E-002	-6.01434E-003	0.00000E+000	-3.48334E-004	-3.59960E-001	-1.13317E+000	3.57780E+000	10	...........
	44	0.6	5.20763E-002	-6.01094E-003	0.00000E+000	-3.13027E-004	-3.59960E-001	-1.12310E+000	3.57780E+000	10	...........
	45	0.613333	4.63914E-002	-6.01191E-003	0.00000E+000	-2.78901E-004	-3.59960E-001	-1.12660E+000	3.57780E+000	10	...........
	46	0.626667	4.07054E-002	-6.01577E-003	0.00000E+000	-2.44874E-004	-3.59960E-001	-1.13329E+000	3.57780E+000	10	...........
	47	0.64	3.50237E-002	-6.01695E-003	0.00000E+000	-2.10736E-004	-3.59960E-001	-1.12305E+000	3.57780E+000	10	...........
	48	0.653333	2.94288E-002	-6.01689E-003	0.00000E+000	-1.77070E-004	-3.59960E-001	-1.12670E+000	3.57780E+000	10	...........
	49	0.666667	2.39001E-002	-6.01827E-003	0.00000E+000	-1.43837E-004	-3.59960E-001	-1.13329E+000	3.57780E+000	10	...........
	50	0.68	1.84130E-002	-6.01487E-003	0.00000E+000	-1.10752E-004	-3.59960E-001	-1.12328E+000	3.57780E+000	10	...........
	51	0.693333	1.29779E-002	-6.01352E-003	0.00000E+000	-7.80431E-005	-3.59960E-001	-1.12706E+000	3.57780E+000	10	...........
	52	0.706667	7.60009E-003	-6.01867E-003	0.00000E+000	-4.57424E-005	-3.59960E-001	-1.13305E+000	3.57780E+000	10	...........
	53	0.72	2.25624E-003	-6.01287E-003	0.00000E+000	-1.35665E-005	-3.59960E-001	-1.12310E+000	3.57780E+000	10	...........
STARTTIMEOFFSET	QUANT	1225.567	Start Time Offset (s)
