EXPLAIN
TAG	PWR800_DISCHARGE
TITLE	LABEL	PWR Cyclic Charge Discharge (Cell) - Discharge Step	Test &Identifier
DATE	LABEL	22-6-2017	Date
TIME	LABEL	15:56:29	Time
NOTES	NOTES	3	&Notes...
	supercap test cell
	0.6mg
	6M KOH
PSTAT	PSTAT	IFC5000-01520	Potentiostat
CAPACITY	QUANT	1.00000E-003	Capacity (A-hr)
CELLTYPE	SELECTOR	1	&Cell Type
WORKINGCONNECTION	SELECTOR	0	&Working Lead
MAXDISCHARGETIME	VARIABLEANDUNITS	1.00000E+002	s	1.00000E+002	second(s)	Max &Discharge Time
DISCHARGEMODE	MULTIPARAM	0	6.00000E-003	&Discharge Mode	Constant Current	Amp(s)
SAMPLETIME	QUANT	1.00000E-002	Sa&mple Period (s)
DISCHARGESTOPAT1	MULTIPARAM	3	0.00000E+000	Discharge Stop At &1	Voltage < Limit	V
DISCHARGESTOPAT2	MULTIPARAM	0	0.00000E+000	Discharge Stop At &2	None	N/A
AESBHCSELECTOR	TOGGLE	F	Save Both Half Cells
IRCOMP	TOGGLE	F	IR &Measure
EOC	QUANT	0	Open Circuit (V)
SEQUENCER	TOGGLE	TRUE	Run as Sequence
PSTATMODEL	IQUANT	53	Pstat Model
PSTATSECTION	LABEL	IFC5000-01520	Pstat Section
PSTATSERIALNO	LABEL	01520	Pstat Serial Number
CTRLMODE	IQUANT	0	Control Mode
ELECTROMETER	IQUANT	1	RE=0 or CS=1
IESTAB	IQUANT	0	I/E Stability
CASPEED	IQUANT	4	Control Amp Speed
CONVENTION	IQUANT	1	Current Convention
ICHRANGE	IQUANT	2	Ich Range
ICHRANGEMODE	TOGGLE	T	Ich Auto Range
ICHOFFSETENABLE	TOGGLE	F	Ich Offset Enable
ICHOFFSET	QUANT	0	Ich Offset (V)
ICHFILTER	IQUANT	1	Ich Filter
VCHRANGE	IQUANT	2	Vch Range
VCHRANGEMODE	TOGGLE	T	Vch Auto Range
VCHOFFSETENABLE	TOGGLE	F	Vch Offset Enable
VCHOFFSET	QUANT	0	Vch Offset (V)
VCHFILTER	IQUANT	1	Vch Filter
IERANGELOWERLIMIT	IQUANT	9	I/E Range Lower Limit
IERANGEMODE	TOGGLE	F	I/E AutoRange
IERANGE	IQUANT	10	I/E Range
ACHSELECT	IQUANT	1	Ach Select
ACHRANGE	IQUANT	2	Ach Range
ACHOFFSETENABLE	TOGGLE	F	Ach Offset Enable
ACHOFFSET	QUANT	0	Ach Offset (V)
ACHFILTER	IQUANT	1	Ach Filter
CABLEID	IQUANT	14	Cable ID
DCCALDATE	LABEL	20-10-2016	DC Calibration Date
ACCALDATE	LABEL	12/3/2015	AC Calibration Date
FRAMEWORKVERSION	QUANT	7.01	Framework Version
INSTRUMENTVERSION	LABEL	4.00	Instrument Version
CURVE	TABLE	58
	Pt	T	Vf	Im	Vu	Pwr	Sig	Ach	Temp	IERange	Over
	#	s	V	A	V	W	V	V	deg C	#	bits
	0	0.013333	3.94283E-001	-6.01194E-003	0.00000E+000	-2.37041E-003	-3.59960E-001	-1.09112E+000	3.57650E+000	10	...........
	1	0.026667	3.83156E-001	-6.01373E-003	0.00000E+000	-2.30420E-003	-3.59960E-001	-1.08273E+000	3.57650E+000	10	...........
	2	0.04	3.72844E-001	-6.01675E-003	0.00000E+000	-2.24331E-003	-3.59960E-001	-1.08072E+000	3.57650E+000	10	...........
	3	0.053333	3.63022E-001	-6.01685E-003	0.00000E+000	-2.18425E-003	-3.59960E-001	-1.09206E+000	3.57650E+000	10	...........
	4	0.066667	3.53572E-001	-6.01224E-003	0.00000E+000	-2.12576E-003	-3.59960E-001	-1.08313E+000	3.57650E+000	10	...........
	5	0.08	3.44412E-001	-6.01488E-003	0.00000E+000	-2.07160E-003	-3.59960E-001	-1.08100E+000	3.57650E+000	10	...........
	6	0.093333	3.35440E-001	-6.01392E-003	0.00000E+000	-2.01731E-003	-3.59960E-001	-1.09170E+000	3.57650E+000	10	...........
	7	0.106667	3.26676E-001	-6.01262E-003	0.00000E+000	-1.96418E-003	-3.59960E-001	-1.08323E+000	3.57650E+000	10	...........
	8	0.12	3.18109E-001	-6.01465E-003	0.00000E+000	-1.91332E-003	-3.59960E-001	-1.08128E+000	3.57650E+000	10	...........
	9	0.133333	3.09617E-001	-6.01607E-003	0.00000E+000	-1.86268E-003	-3.59960E-001	-1.09207E+000	3.57650E+000	10	...........
	10	0.146667	3.01301E-001	-6.01653E-003	0.00000E+000	-1.81278E-003	-3.59960E-001	-1.08312E+000	3.57650E+000	10	...........
	11	0.16	2.93137E-001	-6.01270E-003	0.00000E+000	-1.76254E-003	-3.59960E-001	-1.08144E+000	3.57650E+000	10	...........
	12	0.173333	2.85087E-001	-6.01263E-003	0.00000E+000	-1.71412E-003	-3.59960E-001	-1.09273E+000	3.57650E+000	10	...........
	13	0.186667	2.77112E-001	-6.01581E-003	0.00000E+000	-1.66705E-003	-3.59960E-001	-1.08380E+000	3.57650E+000	10	...........
	14	0.2	2.69202E-001	-6.01402E-003	0.00000E+000	-1.61899E-003	-3.59960E-001	-1.08206E+000	3.57650E+000	10	...........
	15	0.213333	2.61412E-001	-6.01380E-003	0.00000E+000	-1.57208E-003	-3.59960E-001	-1.09298E+000	3.57650E+000	10	...........
	16	0.226667	2.53740E-001	-6.01426E-003	0.00000E+000	-1.52606E-003	-3.59960E-001	-1.08424E+000	3.57650E+000	10	...........
	17	0.24	2.46149E-001	-6.01726E-003	0.00000E+000	-1.48114E-003	-3.59960E-001	-1.08260E+000	3.57650E+000	10	...........
	18	0.253333	2.38651E-001	-6.01370E-003	0.00000E+000	-1.43517E-003	-3.59960E-001	-1.09371E+000	3.57650E+000	10	...........
	19	0.266667	2.31198E-001	-6.01566E-003	0.00000E+000	-1.39081E-003	-3.59960E-001	-1.08450E+000	3.57650E+000	10	...........
	20	0.28	2.23852E-001	-6.01680E-003	0.00000E+000	-1.34687E-003	-3.59960E-001	-1.08284E+000	3.57650E+000	10	...........
	21	0.293333	2.16588E-001	-6.01174E-003	0.00000E+000	-1.30207E-003	-3.59960E-001	-1.09426E+000	3.57650E+000	10	...........
	22	0.306667	2.09415E-001	-6.01652E-003	0.00000E+000	-1.25995E-003	-3.59960E-001	-1.08510E+000	3.57650E+000	10	...........
	23	0.32	2.02327E-001	-6.01429E-003	0.00000E+000	-1.21686E-003	-3.59960E-001	-1.08365E+000	3.57650E+000	10	...........
	24	0.333333	1.95296E-001	-6.01387E-003	0.00000E+000	-1.17449E-003	-3.59960E-001	-1.09449E+000	3.57650E+000	10	...........
	25	0.346667	1.88329E-001	-6.01804E-003	0.00000E+000	-1.13337E-003	-3.59960E-001	-1.08522E+000	3.57650E+000	10	...........
	26	0.36	1.81448E-001	-6.01594E-003	0.00000E+000	-1.09158E-003	-3.59960E-001	-1.08389E+000	3.57650E+000	10	...........
	27	0.373333	1.74620E-001	-6.01334E-003	0.00000E+000	-1.05005E-003	-3.59960E-001	-1.09518E+000	3.57650E+000	10	...........
	28	0.386667	1.67873E-001	-6.01937E-003	0.00000E+000	-1.01049E-003	-3.59960E-001	-1.08558E+000	3.57650E+000	10	...........
	29	0.4	1.61233E-001	-6.01401E-003	0.00000E+000	-9.69657E-004	-3.59960E-001	-1.08412E+000	3.57650E+000	10	...........
	30	0.413333	1.54642E-001	-6.01711E-003	0.00000E+000	-9.30500E-004	-3.59960E-001	-1.09474E+000	3.57650E+000	10	...........
	31	0.426667	1.48125E-001	-6.00862E-003	0.00000E+000	-8.90028E-004	-3.59960E-001	-1.08560E+000	3.57650E+000	10	...........
	32	0.44	1.41653E-001	-6.01307E-003	0.00000E+000	-8.51771E-004	-3.59960E-001	-1.08439E+000	3.57650E+000	10	...........
	33	0.453333	1.35191E-001	-6.01516E-003	0.00000E+000	-8.13199E-004	-3.59960E-001	-1.09512E+000	3.57650E+000	10	...........
	34	0.466667	1.28853E-001	-6.01157E-003	0.00000E+000	-7.74608E-004	-3.59960E-001	-1.08530E+000	3.57650E+000	10	...........
	35	0.48	1.22519E-001	-6.01528E-003	0.00000E+000	-7.36983E-004	-3.59960E-001	-1.08418E+000	3.57650E+000	10	...........
	36	0.493333	1.16299E-001	-6.01454E-003	0.00000E+000	-6.99484E-004	-3.59960E-001	-1.09546E+000	3.57650E+000	10	...........
	37	0.506667	1.10141E-001	-6.01610E-003	0.00000E+000	-6.62621E-004	-3.59960E-001	-1.08591E+000	3.57650E+000	10	...........
	38	0.52	1.04049E-001	-6.01247E-003	0.00000E+000	-6.25591E-004	-3.59960E-001	-1.08493E+000	3.57650E+000	10	...........
	39	0.533333	9.79766E-002	-6.01270E-003	0.00000E+000	-5.89104E-004	-3.59960E-001	-1.09595E+000	3.57650E+000	10	...........
	40	0.546667	9.19914E-002	-6.01945E-003	0.00000E+000	-5.53737E-004	-3.59960E-001	-1.08648E+000	3.57650E+000	10	...........
	41	0.56	8.60507E-002	-6.01393E-003	0.00000E+000	-5.17503E-004	-3.59960E-001	-1.08549E+000	3.57650E+000	10	...........
	42	0.573333	8.01576E-002	-6.00871E-003	0.00000E+000	-4.81644E-004	-3.59960E-001	-1.09674E+000	3.57650E+000	10	...........
	43	0.586667	7.43186E-002	-6.01591E-003	0.00000E+000	-4.47094E-004	-3.59960E-001	-1.08706E+000	3.57650E+000	10	...........
	44	0.6	6.85437E-002	-6.01404E-003	0.00000E+000	-4.12224E-004	-3.59960E-001	-1.08612E+000	3.57650E+000	10	...........
	45	0.613333	6.28401E-002	-6.01291E-003	0.00000E+000	-3.77852E-004	-3.59960E-001	-1.09735E+000	3.57650E+000	10	...........
	46	0.626667	5.71724E-002	-6.01415E-003	0.00000E+000	-3.43843E-004	-3.59960E-001	-1.08803E+000	3.57650E+000	10	...........
	47	0.64	5.15124E-002	-6.01878E-003	0.00000E+000	-3.10042E-004	-3.59960E-001	-1.08699E+000	3.57650E+000	10	...........
	48	0.653333	4.59466E-002	-6.01541E-003	0.00000E+000	-2.76388E-004	-3.59960E-001	-1.09837E+000	3.57650E+000	10	...........
	49	0.666667	4.04314E-002	-6.01579E-003	0.00000E+000	-2.43227E-004	-3.59960E-001	-1.08847E+000	3.57650E+000	10	...........
	50	0.68	3.49906E-002	-6.01740E-003	0.00000E+000	-2.10553E-004	-3.59960E-001	-1.08762E+000	3.57650E+000	10	...........
	51	0.693333	2.95395E-002	-6.01365E-003	0.00000E+000	-1.77640E-004	-3.59960E-001	-1.09865E+000	3.57650E+000	10	...........
	52	0.706667	2.41166E-002	-6.00968E-003	0.00000E+000	-1.44933E-004	-3.59960E-001	-1.08920E+000	3.57650E+000	10	...........
	53	0.72	1.87534E-002	-6.01426E-003	0.00000E+000	-1.12788E-004	-3.59960E-001	-1.08807E+000	3.57650E+000	10	...........
	54	0.733333	1.34813E-002	-6.01102E-003	0.00000E+000	-8.10365E-005	-3.59960E-001	-1.09878E+000	3.57650E+000	10	...........
	55	0.746667	8.23058E-003	-6.01173E-003	0.00000E+000	-4.94800E-005	-3.59960E-001	-1.08895E+000	3.57650E+000	10	...........
	56	0.76	2.99569E-003	-6.01394E-003	0.00000E+000	-1.80159E-005	-3.59960E-001	-1.08838E+000	3.57650E+000	10	...........
	57	0.763333	-2.32938E-004	-6.01220E-003	0.00000E+000	1.40047E-006	-3.59960E-001	-1.09764E+000	3.57650E+000	10	...........
STARTTIMEOFFSET	QUANT	881.3119	Start Time Offset (s)
