EXPLAIN
TAG	PWR800_DISCHARGE
TITLE	LABEL	PWR Cyclic Charge Discharge (Cell) - Discharge Step	Test &Identifier
DATE	LABEL	22-6-2017	Date
TIME	LABEL	16:03:05	Time
NOTES	NOTES	3	&Notes...
	supercap test cell
	0.6mg
	6M KOH
PSTAT	PSTAT	IFC5000-01520	Potentiostat
CAPACITY	QUANT	1.00000E-003	Capacity (A-hr)
CELLTYPE	SELECTOR	1	&Cell Type
WORKINGCONNECTION	SELECTOR	0	&Working Lead
MAXDISCHARGETIME	VARIABLEANDUNITS	1.00000E+002	s	1.00000E+002	second(s)	Max &Discharge Time
DISCHARGEMODE	MULTIPARAM	0	6.00000E-003	&Discharge Mode	Constant Current	Amp(s)
SAMPLETIME	QUANT	1.00000E-002	Sa&mple Period (s)
DISCHARGESTOPAT1	MULTIPARAM	3	0.00000E+000	Discharge Stop At &1	Voltage < Limit	V
DISCHARGESTOPAT2	MULTIPARAM	0	0.00000E+000	Discharge Stop At &2	None	N/A
AESBHCSELECTOR	TOGGLE	F	Save Both Half Cells
IRCOMP	TOGGLE	F	IR &Measure
EOC	QUANT	0	Open Circuit (V)
SEQUENCER	TOGGLE	TRUE	Run as Sequence
PSTATMODEL	IQUANT	53	Pstat Model
PSTATSECTION	LABEL	IFC5000-01520	Pstat Section
PSTATSERIALNO	LABEL	01520	Pstat Serial Number
CTRLMODE	IQUANT	0	Control Mode
ELECTROMETER	IQUANT	1	RE=0 or CS=1
IESTAB	IQUANT	0	I/E Stability
CASPEED	IQUANT	4	Control Amp Speed
CONVENTION	IQUANT	1	Current Convention
ICHRANGE	IQUANT	2	Ich Range
ICHRANGEMODE	TOGGLE	T	Ich Auto Range
ICHOFFSETENABLE	TOGGLE	F	Ich Offset Enable
ICHOFFSET	QUANT	0	Ich Offset (V)
ICHFILTER	IQUANT	1	Ich Filter
VCHRANGE	IQUANT	2	Vch Range
VCHRANGEMODE	TOGGLE	T	Vch Auto Range
VCHOFFSETENABLE	TOGGLE	F	Vch Offset Enable
VCHOFFSET	QUANT	0	Vch Offset (V)
VCHFILTER	IQUANT	1	Vch Filter
IERANGELOWERLIMIT	IQUANT	9	I/E Range Lower Limit
IERANGEMODE	TOGGLE	F	I/E AutoRange
IERANGE	IQUANT	10	I/E Range
ACHSELECT	IQUANT	1	Ach Select
ACHRANGE	IQUANT	2	Ach Range
ACHOFFSETENABLE	TOGGLE	F	Ach Offset Enable
ACHOFFSET	QUANT	0	Ach Offset (V)
ACHFILTER	IQUANT	1	Ach Filter
CABLEID	IQUANT	14	Cable ID
DCCALDATE	LABEL	20-10-2016	DC Calibration Date
ACCALDATE	LABEL	12/3/2015	AC Calibration Date
FRAMEWORKVERSION	QUANT	7.01	Framework Version
INSTRUMENTVERSION	LABEL	4.00	Instrument Version
CURVE	TABLE	55
	Pt	T	Vf	Im	Vu	Pwr	Sig	Ach	Temp	IERange	Over
	#	s	V	A	V	W	V	V	deg C	#	bits
	0	0.013333	3.87483E-001	-6.01568E-003	0.00000E+000	-2.33098E-003	-3.59960E-001	-1.12342E+000	3.57780E+000	10	...........
	1	0.026667	3.76087E-001	-6.01652E-003	0.00000E+000	-2.26273E-003	-3.59960E-001	-1.12917E+000	3.57780E+000	10	...........
	2	0.04	3.65521E-001	-6.01684E-003	0.00000E+000	-2.19928E-003	-3.59960E-001	-1.11977E+000	3.57780E+000	10	...........
	3	0.053333	3.55525E-001	-6.01610E-003	0.00000E+000	-2.13888E-003	-3.59960E-001	-1.12366E+000	3.57780E+000	10	...........
	4	0.066667	3.45907E-001	-6.01067E-003	0.00000E+000	-2.07913E-003	-3.59960E-001	-1.12951E+000	3.57780E+000	10	...........
	5	0.08	3.36553E-001	-6.01655E-003	0.00000E+000	-2.02488E-003	-3.59960E-001	-1.11986E+000	3.57780E+000	10	...........
	6	0.093333	3.27448E-001	-6.01424E-003	0.00000E+000	-1.96935E-003	-3.59960E-001	-1.12398E+000	3.57780E+000	10	...........
	7	0.106667	3.18519E-001	-6.01724E-003	0.00000E+000	-1.91660E-003	-3.59960E-001	-1.12958E+000	3.57780E+000	10	...........
	8	0.12	3.09746E-001	-6.01337E-003	0.00000E+000	-1.86262E-003	-3.59960E-001	-1.12014E+000	3.57780E+000	10	...........
	9	0.133333	3.01110E-001	-6.01314E-003	0.00000E+000	-1.81062E-003	-3.59960E-001	-1.12422E+000	3.57780E+000	10	...........
	10	0.146667	2.92645E-001	-6.01167E-003	0.00000E+000	-1.75928E-003	-3.59960E-001	-1.12985E+000	3.57780E+000	10	...........
	11	0.16	2.84289E-001	-6.01849E-003	0.00000E+000	-1.71099E-003	-3.59960E-001	-1.12048E+000	3.57780E+000	10	...........
	12	0.173333	2.76052E-001	-6.01012E-003	0.00000E+000	-1.65910E-003	-3.59960E-001	-1.12491E+000	3.57780E+000	10	...........
	13	0.186667	2.67876E-001	-6.01200E-003	0.00000E+000	-1.61047E-003	-3.59960E-001	-1.12994E+000	3.57780E+000	10	...........
	14	0.2	2.59836E-001	-6.01063E-003	0.00000E+000	-1.56178E-003	-3.59960E-001	-1.12066E+000	3.57780E+000	10	...........
	15	0.213333	2.51890E-001	-6.01428E-003	0.00000E+000	-1.51493E-003	-3.59960E-001	-1.12504E+000	3.57780E+000	10	...........
	16	0.226667	2.44064E-001	-6.01418E-003	0.00000E+000	-1.46784E-003	-3.59960E-001	-1.13001E+000	3.57780E+000	10	...........
	17	0.24	2.36327E-001	-6.01758E-003	0.00000E+000	-1.42212E-003	-3.59960E-001	-1.12042E+000	3.57780E+000	10	...........
	18	0.253333	2.28710E-001	-6.01401E-003	0.00000E+000	-1.37546E-003	-3.59960E-001	-1.12478E+000	3.57780E+000	10	...........
	19	0.266667	2.21171E-001	-6.01131E-003	0.00000E+000	-1.32953E-003	-3.59960E-001	-1.12947E+000	3.57780E+000	10	...........
	20	0.28	2.13713E-001	-6.01349E-003	0.00000E+000	-1.28516E-003	-3.59960E-001	-1.12032E+000	3.57780E+000	10	...........
	21	0.293333	2.06341E-001	-6.01180E-003	0.00000E+000	-1.24048E-003	-3.59960E-001	-1.12521E+000	3.57780E+000	10	...........
	22	0.306667	1.99060E-001	-6.01648E-003	0.00000E+000	-1.19764E-003	-3.59960E-001	-1.12968E+000	3.57780E+000	10	...........
	23	0.32	1.91847E-001	-6.00937E-003	0.00000E+000	-1.15288E-003	-3.59960E-001	-1.12056E+000	3.57780E+000	10	...........
	24	0.333333	1.84676E-001	-6.01433E-003	0.00000E+000	-1.11070E-003	-3.59960E-001	-1.12518E+000	3.57780E+000	10	...........
	25	0.346667	1.77638E-001	-6.01576E-003	0.00000E+000	-1.06863E-003	-3.59960E-001	-1.12974E+000	3.57780E+000	10	...........
	26	0.36	1.70666E-001	-6.01547E-003	0.00000E+000	-1.02663E-003	-3.59960E-001	-1.12075E+000	3.57780E+000	10	...........
	27	0.373333	1.63771E-001	-6.01178E-003	0.00000E+000	-9.84553E-004	-3.59960E-001	-1.12549E+000	3.57780E+000	10	...........
	28	0.386667	1.56956E-001	-6.01331E-003	0.00000E+000	-9.43824E-004	-3.59960E-001	-1.12986E+000	3.57780E+000	10	...........
	29	0.4	1.50191E-001	-6.01705E-003	0.00000E+000	-9.03706E-004	-3.59960E-001	-1.12070E+000	3.57780E+000	10	...........
	30	0.413333	1.43503E-001	-6.01304E-003	0.00000E+000	-8.62890E-004	-3.59960E-001	-1.12545E+000	3.57780E+000	10	...........
	31	0.426667	1.36908E-001	-6.00992E-003	0.00000E+000	-8.22808E-004	-3.59960E-001	-1.13005E+000	3.57780E+000	10	...........
	32	0.44	1.30324E-001	-6.01385E-003	0.00000E+000	-7.83748E-004	-3.59960E-001	-1.12125E+000	3.57780E+000	10	...........
	33	0.453333	1.23863E-001	-6.01424E-003	0.00000E+000	-7.44941E-004	-3.59960E-001	-1.12577E+000	3.57780E+000	10	...........
	34	0.466667	1.17443E-001	-6.01823E-003	0.00000E+000	-7.06797E-004	-3.59960E-001	-1.13008E+000	3.57780E+000	10	...........
	35	0.48	1.11120E-001	-6.01291E-003	0.00000E+000	-6.68153E-004	-3.59960E-001	-1.12116E+000	3.57780E+000	10	...........
	36	0.493333	1.04864E-001	-6.01048E-003	0.00000E+000	-6.30281E-004	-3.59960E-001	-1.12608E+000	3.57780E+000	10	...........
	37	0.506667	9.86223E-002	-6.01150E-003	0.00000E+000	-5.92868E-004	-3.59960E-001	-1.13025E+000	3.57780E+000	10	...........
	38	0.52	9.24554E-002	-6.01154E-003	0.00000E+000	-5.55800E-004	-3.59960E-001	-1.12135E+000	3.57780E+000	10	...........
	39	0.533333	8.63428E-002	-6.01595E-003	0.00000E+000	-5.19434E-004	-3.59960E-001	-1.12605E+000	3.57780E+000	10	...........
	40	0.546667	8.03037E-002	-6.01513E-003	0.00000E+000	-4.83037E-004	-3.59960E-001	-1.13008E+000	3.57780E+000	10	...........
	41	0.56	7.43588E-002	-6.01228E-003	0.00000E+000	-4.47066E-004	-3.59960E-001	-1.12098E+000	3.57780E+000	10	...........
	42	0.573333	6.84474E-002	-6.01728E-003	0.00000E+000	-4.11867E-004	-3.59960E-001	-1.12620E+000	3.57780E+000	10	...........
	43	0.586667	6.25909E-002	-6.01215E-003	0.00000E+000	-3.76306E-004	-3.59960E-001	-1.12994E+000	3.57780E+000	10	...........
	44	0.6	5.68048E-002	-6.01934E-003	0.00000E+000	-3.41927E-004	-3.59960E-001	-1.12092E+000	3.57780E+000	10	...........
	45	0.613333	5.10448E-002	-6.01631E-003	0.00000E+000	-3.07101E-004	-3.59960E-001	-1.12624E+000	3.57780E+000	10	...........
	46	0.626667	4.53718E-002	-6.01381E-003	0.00000E+000	-2.72857E-004	-3.59960E-001	-1.12990E+000	3.57780E+000	10	...........
	47	0.64	3.97306E-002	-6.01258E-003	0.00000E+000	-2.38883E-004	-3.59960E-001	-1.12129E+000	3.57780E+000	10	...........
	48	0.653333	3.41159E-002	-6.01719E-003	0.00000E+000	-2.05282E-004	-3.59960E-001	-1.12620E+000	3.57780E+000	10	...........
	49	0.666667	2.85842E-002	-6.01747E-003	0.00000E+000	-1.72005E-004	-3.59960E-001	-1.12964E+000	3.57780E+000	10	...........
	50	0.68	2.31294E-002	-6.01895E-003	0.00000E+000	-1.39215E-004	-3.59960E-001	-1.12109E+000	3.57780E+000	10	...........
	51	0.693333	1.76904E-002	-6.01952E-003	0.00000E+000	-1.06488E-004	-3.59960E-001	-1.12647E+000	3.57780E+000	10	...........
	52	0.706667	1.22531E-002	-6.01604E-003	0.00000E+000	-7.37151E-005	-3.59960E-001	-1.12970E+000	3.57780E+000	10	...........
	53	0.72	6.90574E-003	-6.01436E-003	0.00000E+000	-4.15336E-005	-3.59960E-001	-1.12096E+000	3.57780E+000	10	...........
	54	0.731667	1.93721E-003	-6.02269E-003	0.00000E+000	-1.16672E-005	-3.59960E-001	-1.12889E+000	3.57780E+000	10	...........
STARTTIMEOFFSET	QUANT	1140.861	Start Time Offset (s)
