EXPLAIN
TAG	PWR800_DISCHARGE
TITLE	LABEL	PWR Cyclic Charge Discharge (Cell) - Discharge Step	Test &Identifier
DATE	LABEL	22-6-2017	Date
TIME	LABEL	15:45:29	Time
NOTES	NOTES	3	&Notes...
	supercap test cell
	0.6mg
	6M KOH
PSTAT	PSTAT	IFC5000-01520	Potentiostat
CAPACITY	QUANT	1.00000E-003	Capacity (A-hr)
CELLTYPE	SELECTOR	1	&Cell Type
WORKINGCONNECTION	SELECTOR	0	&Working Lead
MAXDISCHARGETIME	VARIABLEANDUNITS	1.00000E+002	s	1.00000E+002	second(s)	Max &Discharge Time
DISCHARGEMODE	MULTIPARAM	0	6.00000E-003	&Discharge Mode	Constant Current	Amp(s)
SAMPLETIME	QUANT	1.00000E-002	Sa&mple Period (s)
DISCHARGESTOPAT1	MULTIPARAM	3	0.00000E+000	Discharge Stop At &1	Voltage < Limit	V
DISCHARGESTOPAT2	MULTIPARAM	0	0.00000E+000	Discharge Stop At &2	None	N/A
AESBHCSELECTOR	TOGGLE	F	Save Both Half Cells
IRCOMP	TOGGLE	F	IR &Measure
EOC	QUANT	0	Open Circuit (V)
SEQUENCER	TOGGLE	TRUE	Run as Sequence
PSTATMODEL	IQUANT	53	Pstat Model
PSTATSECTION	LABEL	IFC5000-01520	Pstat Section
PSTATSERIALNO	LABEL	01520	Pstat Serial Number
CTRLMODE	IQUANT	0	Control Mode
ELECTROMETER	IQUANT	1	RE=0 or CS=1
IESTAB	IQUANT	0	I/E Stability
CASPEED	IQUANT	4	Control Amp Speed
CONVENTION	IQUANT	1	Current Convention
ICHRANGE	IQUANT	2	Ich Range
ICHRANGEMODE	TOGGLE	T	Ich Auto Range
ICHOFFSETENABLE	TOGGLE	F	Ich Offset Enable
ICHOFFSET	QUANT	0	Ich Offset (V)
ICHFILTER	IQUANT	1	Ich Filter
VCHRANGE	IQUANT	2	Vch Range
VCHRANGEMODE	TOGGLE	T	Vch Auto Range
VCHOFFSETENABLE	TOGGLE	F	Vch Offset Enable
VCHOFFSET	QUANT	0	Vch Offset (V)
VCHFILTER	IQUANT	1	Vch Filter
IERANGELOWERLIMIT	IQUANT	9	I/E Range Lower Limit
IERANGEMODE	TOGGLE	F	I/E AutoRange
IERANGE	IQUANT	10	I/E Range
ACHSELECT	IQUANT	1	Ach Select
ACHRANGE	IQUANT	2	Ach Range
ACHOFFSETENABLE	TOGGLE	F	Ach Offset Enable
ACHOFFSET	QUANT	0	Ach Offset (V)
ACHFILTER	IQUANT	1	Ach Filter
CABLEID	IQUANT	14	Cable ID
DCCALDATE	LABEL	20-10-2016	DC Calibration Date
ACCALDATE	LABEL	12/3/2015	AC Calibration Date
FRAMEWORKVERSION	QUANT	7.01	Framework Version
INSTRUMENTVERSION	LABEL	4.00	Instrument Version
CURVE	TABLE	63
	Pt	T	Vf	Im	Vu	Pwr	Sig	Ach	Temp	IERange	Over
	#	s	V	A	V	W	V	V	deg C	#	bits
	0	0.013333	4.11124E-001	-6.01461E-003	0.00000E+000	-2.47275E-003	-3.59960E-001	-1.07000E+000	3.57820E+000	10	...........
	1	0.026667	4.00532E-001	-6.00985E-003	0.00000E+000	-2.40714E-003	-3.59960E-001	-1.06057E+000	3.57820E+000	10	...........
	2	0.04	3.90661E-001	-6.01577E-003	0.00000E+000	-2.35012E-003	-3.59960E-001	-1.06088E+000	3.57820E+000	10	...........
	3	0.053333	3.81269E-001	-6.01593E-003	0.00000E+000	-2.29369E-003	-3.59960E-001	-1.07018E+000	3.57820E+000	10	...........
	4	0.066667	3.72221E-001	-6.01801E-003	0.00000E+000	-2.24003E-003	-3.59960E-001	-1.06082E+000	3.57820E+000	10	...........
	5	0.08	3.63470E-001	-6.01578E-003	0.00000E+000	-2.18655E-003	-3.59960E-001	-1.06107E+000	3.57820E+000	10	...........
	6	0.093333	3.54956E-001	-6.01285E-003	0.00000E+000	-2.13429E-003	-3.59960E-001	-1.07008E+000	3.57820E+000	10	...........
	7	0.106667	3.46584E-001	-6.01507E-003	0.00000E+000	-2.08473E-003	-3.59960E-001	-1.06080E+000	3.57820E+000	10	...........
	8	0.12	3.38331E-001	-6.01295E-003	0.00000E+000	-2.03437E-003	-3.59960E-001	-1.06141E+000	3.57820E+000	10	...........
	9	0.133333	3.30248E-001	-6.01703E-003	0.00000E+000	-1.98711E-003	-3.59960E-001	-1.07074E+000	3.57820E+000	10	...........
	10	0.146667	3.22282E-001	-6.01824E-003	0.00000E+000	-1.93957E-003	-3.59960E-001	-1.06140E+000	3.57820E+000	10	...........
	11	0.16	3.14428E-001	-6.01402E-003	0.00000E+000	-1.89098E-003	-3.59960E-001	-1.06144E+000	3.57820E+000	10	...........
	12	0.173333	3.06690E-001	-6.01287E-003	0.00000E+000	-1.84409E-003	-3.59960E-001	-1.07074E+000	3.57820E+000	10	...........
	13	0.186667	2.99043E-001	-6.01424E-003	0.00000E+000	-1.79852E-003	-3.59960E-001	-1.06151E+000	3.57820E+000	10	...........
	14	0.2	2.91479E-001	-6.01862E-003	0.00000E+000	-1.75430E-003	-3.59960E-001	-1.06179E+000	3.57820E+000	10	...........
	15	0.213333	2.83994E-001	-6.01370E-003	0.00000E+000	-1.70786E-003	-3.59960E-001	-1.07109E+000	3.57820E+000	10	...........
	16	0.226667	2.76573E-001	-6.01357E-003	0.00000E+000	-1.66319E-003	-3.59960E-001	-1.06135E+000	3.57820E+000	10	...........
	17	0.24	2.69293E-001	-6.01622E-003	0.00000E+000	-1.62012E-003	-3.59960E-001	-1.06122E+000	3.57820E+000	10	...........
	18	0.253333	2.62053E-001	-6.01579E-003	0.00000E+000	-1.57646E-003	-3.59960E-001	-1.07074E+000	3.57820E+000	10	...........
	19	0.266667	2.54895E-001	-6.01359E-003	0.00000E+000	-1.53284E-003	-3.59960E-001	-1.06162E+000	3.57820E+000	10	...........
	20	0.28	2.47830E-001	-6.01525E-003	0.00000E+000	-1.49076E-003	-3.59960E-001	-1.06168E+000	3.57820E+000	10	...........
	21	0.293333	2.40849E-001	-6.01574E-003	0.00000E+000	-1.44888E-003	-3.59960E-001	-1.07081E+000	3.57820E+000	10	...........
	22	0.306667	2.33931E-001	-6.02075E-003	0.00000E+000	-1.40844E-003	-3.59960E-001	-1.06167E+000	3.57820E+000	10	...........
	23	0.32	2.27065E-001	-6.01619E-003	0.00000E+000	-1.36607E-003	-3.59960E-001	-1.06161E+000	3.57820E+000	10	...........
	24	0.333333	2.20274E-001	-6.01315E-003	0.00000E+000	-1.32454E-003	-3.59960E-001	-1.07111E+000	3.57820E+000	10	...........
	25	0.346667	2.13517E-001	-6.01644E-003	0.00000E+000	-1.28461E-003	-3.59960E-001	-1.06198E+000	3.57820E+000	10	...........
	26	0.36	2.06855E-001	-6.01489E-003	0.00000E+000	-1.24421E-003	-3.59960E-001	-1.06152E+000	3.57820E+000	10	...........
	27	0.373333	2.00233E-001	-6.01761E-003	0.00000E+000	-1.20492E-003	-3.59960E-001	-1.07081E+000	3.57820E+000	10	...........
	28	0.386667	1.93687E-001	-6.01425E-003	0.00000E+000	-1.16488E-003	-3.59960E-001	-1.06198E+000	3.57820E+000	10	...........
	29	0.4	1.87211E-001	-6.01571E-003	0.00000E+000	-1.12621E-003	-3.59960E-001	-1.06157E+000	3.57820E+000	10	...........
	30	0.413333	1.80773E-001	-6.01384E-003	0.00000E+000	-1.08714E-003	-3.59960E-001	-1.07112E+000	3.57820E+000	10	...........
	31	0.426667	1.74417E-001	-6.01298E-003	0.00000E+000	-1.04876E-003	-3.59960E-001	-1.06211E+000	3.57820E+000	10	...........
	32	0.44	1.68143E-001	-6.01421E-003	0.00000E+000	-1.01125E-003	-3.59960E-001	-1.06154E+000	3.57820E+000	10	...........
	33	0.453333	1.61876E-001	-6.01066E-003	0.00000E+000	-9.72983E-004	-3.59960E-001	-1.07125E+000	3.57820E+000	10	...........
	34	0.466667	1.55703E-001	-6.01612E-003	0.00000E+000	-9.36731E-004	-3.59960E-001	-1.06234E+000	3.57820E+000	10	...........
	35	0.48	1.49599E-001	-6.01583E-003	0.00000E+000	-8.99959E-004	-3.59960E-001	-1.06171E+000	3.57820E+000	10	...........
	36	0.493333	1.43500E-001	-6.01387E-003	0.00000E+000	-8.62988E-004	-3.59960E-001	-1.07123E+000	3.57820E+000	10	...........
	37	0.506667	1.37459E-001	-6.01487E-003	0.00000E+000	-8.26796E-004	-3.59960E-001	-1.06230E+000	3.57820E+000	10	...........
	38	0.52	1.31462E-001	-6.01454E-003	0.00000E+000	-7.90682E-004	-3.59960E-001	-1.06178E+000	3.57820E+000	10	...........
	39	0.533333	1.25508E-001	-6.01708E-003	0.00000E+000	-7.55193E-004	-3.59960E-001	-1.07144E+000	3.57820E+000	10	...........
	40	0.546667	1.19572E-001	-6.01491E-003	0.00000E+000	-7.19213E-004	-3.59960E-001	-1.06211E+000	3.57820E+000	10	...........
	41	0.56	1.13740E-001	-6.01514E-003	0.00000E+000	-6.84160E-004	-3.59960E-001	-1.06130E+000	3.57820E+000	10	...........
	42	0.573333	1.07986E-001	-6.01416E-003	0.00000E+000	-6.49442E-004	-3.59960E-001	-1.07101E+000	3.57820E+000	10	...........
	43	0.586667	1.02265E-001	-6.01212E-003	0.00000E+000	-6.14831E-004	-3.59960E-001	-1.06222E+000	3.57820E+000	10	...........
	44	0.6	9.65811E-002	-6.01416E-003	0.00000E+000	-5.80854E-004	-3.59960E-001	-1.06181E+000	3.57820E+000	10	...........
	45	0.613333	9.09231E-002	-6.01508E-003	0.00000E+000	-5.46910E-004	-3.59960E-001	-1.07142E+000	3.57820E+000	10	...........
	46	0.626667	8.53291E-002	-6.01643E-003	0.00000E+000	-5.13377E-004	-3.59960E-001	-1.06227E+000	3.57820E+000	10	...........
	47	0.64	7.97994E-002	-6.01073E-003	0.00000E+000	-4.79652E-004	-3.59960E-001	-1.06150E+000	3.57817E+000	10	...........
	48	0.653333	7.42958E-002	-6.01477E-003	0.00000E+000	-4.46872E-004	-3.59960E-001	-1.07109E+000	3.57810E+000	10	...........
	49	0.666667	6.88066E-002	-6.01260E-003	0.00000E+000	-4.13706E-004	-3.59960E-001	-1.06262E+000	3.57810E+000	10	...........
	50	0.68	6.33821E-002	-6.01352E-003	0.00000E+000	-3.81150E-004	-3.59960E-001	-1.06171E+000	3.57810E+000	10	...........
	51	0.693333	5.79872E-002	-6.01549E-003	0.00000E+000	-3.48821E-004	-3.59960E-001	-1.07129E+000	3.57810E+000	10	...........
	52	0.706667	5.26248E-002	-6.01534E-003	0.00000E+000	-3.16556E-004	-3.59960E-001	-1.06255E+000	3.57810E+000	10	...........
	53	0.72	4.73456E-002	-6.01435E-003	0.00000E+000	-2.84753E-004	-3.59960E-001	-1.06164E+000	3.57810E+000	10	...........
	54	0.733333	4.20604E-002	-6.01436E-003	0.00000E+000	-2.52966E-004	-3.59960E-001	-1.07130E+000	3.57810E+000	10	...........
	55	0.746667	3.68751E-002	-6.01513E-003	0.00000E+000	-2.21808E-004	-3.59960E-001	-1.06270E+000	3.57810E+000	10	...........
	56	0.76	3.16997E-002	-6.01426E-003	0.00000E+000	-1.90650E-004	-3.59960E-001	-1.06177E+000	3.57810E+000	10	...........
	57	0.773333	2.65368E-002	-6.01498E-003	0.00000E+000	-1.59618E-004	-3.59960E-001	-1.07158E+000	3.57810E+000	10	...........
	58	0.786667	2.14117E-002	-6.01288E-003	0.00000E+000	-1.28746E-004	-3.59960E-001	-1.06302E+000	3.57810E+000	10	...........
	59	0.8	1.63167E-002	-6.01059E-003	0.00000E+000	-9.80730E-005	-3.59960E-001	-1.06197E+000	3.57810E+000	10	...........
	60	0.813333	1.12803E-002	-6.01355E-003	0.00000E+000	-6.78348E-005	-3.59960E-001	-1.07183E+000	3.57810E+000	10	...........
	61	0.826667	6.27685E-003	-6.01471E-003	0.00000E+000	-3.77534E-005	-3.59960E-001	-1.06306E+000	3.57810E+000	10	...........
	62	0.838333	1.66395E-003	-6.01681E-003	0.00000E+000	-1.00117E-005	-3.59960E-001	-1.06247E+000	3.57810E+000	10	...........
STARTTIMEOFFSET	QUANT	441.9717	Start Time Offset (s)
