EXPLAIN
TAG	PWR800_DISCHARGE
TITLE	LABEL	PWR Cyclic Charge Discharge (Cell) - Discharge Step	Test &Identifier
DATE	LABEL	22-6-2017	Date
TIME	LABEL	16:12:22	Time
NOTES	NOTES	3	&Notes...
	supercap test cell
	0.6mg
	6M KOH
PSTAT	PSTAT	IFC5000-01520	Potentiostat
CAPACITY	QUANT	1.00000E-003	Capacity (A-hr)
CELLTYPE	SELECTOR	1	&Cell Type
WORKINGCONNECTION	SELECTOR	0	&Working Lead
MAXDISCHARGETIME	VARIABLEANDUNITS	1.00000E+002	s	1.00000E+002	second(s)	Max &Discharge Time
DISCHARGEMODE	MULTIPARAM	0	6.00000E-003	&Discharge Mode	Constant Current	Amp(s)
SAMPLETIME	QUANT	1.00000E-002	Sa&mple Period (s)
DISCHARGESTOPAT1	MULTIPARAM	3	0.00000E+000	Discharge Stop At &1	Voltage < Limit	V
DISCHARGESTOPAT2	MULTIPARAM	0	0.00000E+000	Discharge Stop At &2	None	N/A
AESBHCSELECTOR	TOGGLE	F	Save Both Half Cells
IRCOMP	TOGGLE	F	IR &Measure
EOC	QUANT	0	Open Circuit (V)
SEQUENCER	TOGGLE	TRUE	Run as Sequence
PSTATMODEL	IQUANT	53	Pstat Model
PSTATSECTION	LABEL	IFC5000-01520	Pstat Section
PSTATSERIALNO	LABEL	01520	Pstat Serial Number
CTRLMODE	IQUANT	0	Control Mode
ELECTROMETER	IQUANT	1	RE=0 or CS=1
IESTAB	IQUANT	0	I/E Stability
CASPEED	IQUANT	4	Control Amp Speed
CONVENTION	IQUANT	1	Current Convention
ICHRANGE	IQUANT	2	Ich Range
ICHRANGEMODE	TOGGLE	T	Ich Auto Range
ICHOFFSETENABLE	TOGGLE	F	Ich Offset Enable
ICHOFFSET	QUANT	0	Ich Offset (V)
ICHFILTER	IQUANT	1	Ich Filter
VCHRANGE	IQUANT	2	Vch Range
VCHRANGEMODE	TOGGLE	T	Vch Auto Range
VCHOFFSETENABLE	TOGGLE	F	Vch Offset Enable
VCHOFFSET	QUANT	0	Vch Offset (V)
VCHFILTER	IQUANT	1	Vch Filter
IERANGELOWERLIMIT	IQUANT	9	I/E Range Lower Limit
IERANGEMODE	TOGGLE	F	I/E AutoRange
IERANGE	IQUANT	10	I/E Range
ACHSELECT	IQUANT	1	Ach Select
ACHRANGE	IQUANT	2	Ach Range
ACHOFFSETENABLE	TOGGLE	F	Ach Offset Enable
ACHOFFSET	QUANT	0	Ach Offset (V)
ACHFILTER	IQUANT	1	Ach Filter
CABLEID	IQUANT	14	Cable ID
DCCALDATE	LABEL	20-10-2016	DC Calibration Date
ACCALDATE	LABEL	12/3/2015	AC Calibration Date
FRAMEWORKVERSION	QUANT	7.01	Framework Version
INSTRUMENTVERSION	LABEL	4.00	Instrument Version
CURVE	TABLE	53
	Pt	T	Vf	Im	Vu	Pwr	Sig	Ach	Temp	IERange	Over
	#	s	V	A	V	W	V	V	deg C	#	bits
	0	0.013333	3.78571E-001	-6.01220E-003	0.00000E+000	-2.27605E-003	-3.59960E-001	-1.14499E+000	3.57680E+000	10	...........
	1	0.026667	3.66967E-001	-6.01368E-003	0.00000E+000	-2.20682E-003	-3.59960E-001	-1.13801E+000	3.57680E+000	10	...........
	2	0.04	3.56173E-001	-6.01077E-003	0.00000E+000	-2.14088E-003	-3.59960E-001	-1.14523E+000	3.57680E+000	10	...........
	3	0.053333	3.45906E-001	-6.01341E-003	0.00000E+000	-2.08007E-003	-3.59960E-001	-1.14511E+000	3.57680E+000	10	...........
	4	0.066667	3.36071E-001	-6.01197E-003	0.00000E+000	-2.02045E-003	-3.59960E-001	-1.13794E+000	3.57680E+000	10	...........
	5	0.08	3.26536E-001	-6.01738E-003	0.00000E+000	-1.96489E-003	-3.59960E-001	-1.14560E+000	3.57680E+000	10	...........
	6	0.093333	3.17194E-001	-6.01562E-003	0.00000E+000	-1.90812E-003	-3.59960E-001	-1.14551E+000	3.57680E+000	10	...........
	7	0.106667	3.08077E-001	-6.01604E-003	0.00000E+000	-1.85340E-003	-3.59960E-001	-1.13816E+000	3.57680E+000	10	...........
	8	0.12	2.99086E-001	-6.01905E-003	0.00000E+000	-1.80021E-003	-3.59960E-001	-1.14545E+000	3.57680E+000	10	...........
	9	0.133333	2.90230E-001	-6.01436E-003	0.00000E+000	-1.74555E-003	-3.59960E-001	-1.14523E+000	3.57680E+000	10	...........
	10	0.146667	2.81549E-001	-6.01886E-003	0.00000E+000	-1.69460E-003	-3.59960E-001	-1.13847E+000	3.57680E+000	10	...........
	11	0.16	2.72995E-001	-6.01339E-003	0.00000E+000	-1.64162E-003	-3.59960E-001	-1.14594E+000	3.57680E+000	10	...........
	12	0.173333	2.64538E-001	-6.01396E-003	0.00000E+000	-1.59092E-003	-3.59960E-001	-1.14582E+000	3.57680E+000	10	...........
	13	0.186667	2.56199E-001	-6.01480E-003	0.00000E+000	-1.54098E-003	-3.59960E-001	-1.13857E+000	3.57680E+000	10	...........
	14	0.2	2.47969E-001	-6.01852E-003	0.00000E+000	-1.49241E-003	-3.59960E-001	-1.14601E+000	3.57680E+000	10	...........
	15	0.213333	2.39888E-001	-6.01702E-003	0.00000E+000	-1.44341E-003	-3.59960E-001	-1.14622E+000	3.57680E+000	10	...........
	16	0.226667	2.31932E-001	-6.01582E-003	0.00000E+000	-1.39526E-003	-3.59960E-001	-1.13921E+000	3.57680E+000	10	...........
	17	0.24	2.24025E-001	-6.01632E-003	0.00000E+000	-1.34780E-003	-3.59960E-001	-1.14637E+000	3.57680E+000	10	...........
	18	0.253333	2.16259E-001	-6.01530E-003	0.00000E+000	-1.30086E-003	-3.59960E-001	-1.14634E+000	3.57680E+000	10	...........
	19	0.266667	2.08549E-001	-6.01773E-003	0.00000E+000	-1.25499E-003	-3.59960E-001	-1.13925E+000	3.57680E+000	10	...........
	20	0.28	2.00938E-001	-6.01980E-003	0.00000E+000	-1.20961E-003	-3.59960E-001	-1.14659E+000	3.57680E+000	10	...........
	21	0.293333	1.93403E-001	-6.01672E-003	0.00000E+000	-1.16365E-003	-3.59960E-001	-1.14656E+000	3.57680E+000	10	...........
	22	0.306667	1.85970E-001	-6.01298E-003	0.00000E+000	-1.11824E-003	-3.59960E-001	-1.13930E+000	3.57680E+000	10	...........
	23	0.32	1.78633E-001	-6.01562E-003	0.00000E+000	-1.07459E-003	-3.59960E-001	-1.14655E+000	3.57680E+000	10	...........
	24	0.333333	1.71410E-001	-6.01324E-003	0.00000E+000	-1.03073E-003	-3.59960E-001	-1.14632E+000	3.57680E+000	10	...........
	25	0.346667	1.64232E-001	-6.01058E-003	0.00000E+000	-9.87131E-004	-3.59960E-001	-1.13918E+000	3.57680E+000	10	...........
	26	0.36	1.57161E-001	-6.01720E-003	0.00000E+000	-9.45666E-004	-3.59960E-001	-1.14679E+000	3.57680E+000	10	...........
	27	0.373333	1.50114E-001	-6.01789E-003	0.00000E+000	-9.03372E-004	-3.59960E-001	-1.14654E+000	3.57680E+000	10	...........
	28	0.386667	1.43189E-001	-6.01358E-003	0.00000E+000	-8.61081E-004	-3.59960E-001	-1.13909E+000	3.57680E+000	10	...........
	29	0.4	1.36334E-001	-6.01648E-003	0.00000E+000	-8.20252E-004	-3.59960E-001	-1.14662E+000	3.57680E+000	10	...........
	30	0.413333	1.29591E-001	-6.01577E-003	0.00000E+000	-7.79587E-004	-3.59960E-001	-1.14655E+000	3.57680E+000	10	...........
	31	0.426667	1.22895E-001	-6.01513E-003	0.00000E+000	-7.39231E-004	-3.59960E-001	-1.13937E+000	3.57680E+000	10	...........
	32	0.44	1.16251E-001	-6.01652E-003	0.00000E+000	-6.99425E-004	-3.59960E-001	-1.14653E+000	3.57680E+000	10	...........
	33	0.453333	1.09684E-001	-6.01584E-003	0.00000E+000	-6.59841E-004	-3.59960E-001	-1.14645E+000	3.57680E+000	10	...........
	34	0.466667	1.03234E-001	-6.01531E-003	0.00000E+000	-6.20984E-004	-3.59960E-001	-1.13920E+000	3.57680E+000	10	...........
	35	0.48	9.68290E-002	-6.01537E-003	0.00000E+000	-5.82462E-004	-3.59960E-001	-1.14670E+000	3.57680E+000	10	...........
	36	0.493333	9.04598E-002	-6.01653E-003	0.00000E+000	-5.44254E-004	-3.59960E-001	-1.14670E+000	3.57680E+000	10	...........
	37	0.506667	8.41647E-002	-6.01456E-003	0.00000E+000	-5.06213E-004	-3.59960E-001	-1.13947E+000	3.57680E+000	10	...........
	38	0.52	7.79383E-002	-6.01713E-003	0.00000E+000	-4.68965E-004	-3.59960E-001	-1.14666E+000	3.57680E+000	10	...........
	39	0.533333	7.18111E-002	-6.01592E-003	0.00000E+000	-4.32010E-004	-3.59960E-001	-1.14679E+000	3.57680E+000	10	...........
	40	0.546667	6.57208E-002	-6.01582E-003	0.00000E+000	-3.95364E-004	-3.59960E-001	-1.13997E+000	3.57680E+000	10	...........
	41	0.56	5.96838E-002	-6.01226E-003	0.00000E+000	-3.58835E-004	-3.59960E-001	-1.14722E+000	3.57680E+000	10	...........
	42	0.573333	5.37311E-002	-6.01350E-003	0.00000E+000	-3.23112E-004	-3.59960E-001	-1.14723E+000	3.57680E+000	10	...........
	43	0.586667	4.78677E-002	-6.01416E-003	0.00000E+000	-2.87884E-004	-3.59960E-001	-1.14002E+000	3.57680E+000	10	...........
	44	0.6	4.20350E-002	-6.01584E-003	0.00000E+000	-2.52876E-004	-3.59960E-001	-1.14713E+000	3.57680E+000	10	...........
	45	0.613333	3.62422E-002	-6.01219E-003	0.00000E+000	-2.17895E-004	-3.59960E-001	-1.14742E+000	3.57680E+000	10	...........
	46	0.626667	3.05040E-002	-6.01439E-003	0.00000E+000	-1.83463E-004	-3.59960E-001	-1.14011E+000	3.57680E+000	10	...........
	47	0.64	2.48496E-002	-6.01343E-003	0.00000E+000	-1.49431E-004	-3.59960E-001	-1.14719E+000	3.57680E+000	10	...........
	48	0.653333	1.92083E-002	-6.01182E-003	0.00000E+000	-1.15477E-004	-3.59960E-001	-1.14694E+000	3.57680E+000	10	...........
	49	0.666667	1.36523E-002	-6.01737E-003	0.00000E+000	-8.21511E-005	-3.59960E-001	-1.13963E+000	3.57680E+000	10	...........
	50	0.68	8.11928E-003	-6.01607E-003	0.00000E+000	-4.88461E-005	-3.59960E-001	-1.14713E+000	3.57680E+000	10	...........
	51	0.693333	2.64640E-003	-6.01309E-003	0.00000E+000	-1.59130E-005	-3.59960E-001	-1.14712E+000	3.57680E+000	10	...........
	52	0.695	-4.02725E-004	-6.01504E-003	0.00000E+000	2.42241E-006	-3.59960E-001	-1.15172E+000	3.57680E+000	10	...........
STARTTIMEOFFSET	QUANT	1498.547	Start Time Offset (s)
