EXPLAIN
TAG	PWR800_DISCHARGE
TITLE	LABEL	PWR Cyclic Charge Discharge (Cell) - Discharge Step	Test &Identifier
DATE	LABEL	22-6-2017	Date
TIME	LABEL	15:36:41	Time
NOTES	NOTES	3	&Notes...
	supercap test cell
	0.6mg
	6M KOH
PSTAT	PSTAT	IFC5000-01520	Potentiostat
CAPACITY	QUANT	1.00000E-003	Capacity (A-hr)
CELLTYPE	SELECTOR	1	&Cell Type
WORKINGCONNECTION	SELECTOR	0	&Working Lead
MAXDISCHARGETIME	VARIABLEANDUNITS	1.00000E+002	s	1.00000E+002	second(s)	Max &Discharge Time
DISCHARGEMODE	MULTIPARAM	0	6.00000E-003	&Discharge Mode	Constant Current	Amp(s)
SAMPLETIME	QUANT	1.00000E-002	Sa&mple Period (s)
DISCHARGESTOPAT1	MULTIPARAM	3	0.00000E+000	Discharge Stop At &1	Voltage < Limit	V
DISCHARGESTOPAT2	MULTIPARAM	0	0.00000E+000	Discharge Stop At &2	None	N/A
AESBHCSELECTOR	TOGGLE	F	Save Both Half Cells
IRCOMP	TOGGLE	F	IR &Measure
EOC	QUANT	0	Open Circuit (V)
SEQUENCER	TOGGLE	TRUE	Run as Sequence
PSTATMODEL	IQUANT	53	Pstat Model
PSTATSECTION	LABEL	IFC5000-01520	Pstat Section
PSTATSERIALNO	LABEL	01520	Pstat Serial Number
CTRLMODE	IQUANT	0	Control Mode
ELECTROMETER	IQUANT	1	RE=0 or CS=1
IESTAB	IQUANT	0	I/E Stability
CASPEED	IQUANT	4	Control Amp Speed
CONVENTION	IQUANT	1	Current Convention
ICHRANGE	IQUANT	2	Ich Range
ICHRANGEMODE	TOGGLE	T	Ich Auto Range
ICHOFFSETENABLE	TOGGLE	F	Ich Offset Enable
ICHOFFSET	QUANT	0	Ich Offset (V)
ICHFILTER	IQUANT	1	Ich Filter
VCHRANGE	IQUANT	2	Vch Range
VCHRANGEMODE	TOGGLE	T	Vch Auto Range
VCHOFFSETENABLE	TOGGLE	F	Vch Offset Enable
VCHOFFSET	QUANT	0	Vch Offset (V)
VCHFILTER	IQUANT	1	Vch Filter
IERANGELOWERLIMIT	IQUANT	9	I/E Range Lower Limit
IERANGEMODE	TOGGLE	F	I/E AutoRange
IERANGE	IQUANT	10	I/E Range
ACHSELECT	IQUANT	1	Ach Select
ACHRANGE	IQUANT	2	Ach Range
ACHOFFSETENABLE	TOGGLE	F	Ach Offset Enable
ACHOFFSET	QUANT	0	Ach Offset (V)
ACHFILTER	IQUANT	1	Ach Filter
CABLEID	IQUANT	14	Cable ID
DCCALDATE	LABEL	20-10-2016	DC Calibration Date
ACCALDATE	LABEL	12/3/2015	AC Calibration Date
FRAMEWORKVERSION	QUANT	7.01	Framework Version
INSTRUMENTVERSION	LABEL	4.00	Instrument Version
CURVE	TABLE	74
	Pt	T	Vf	Im	Vu	Pwr	Sig	Ach	Temp	IERange	Over
	#	s	V	A	V	W	V	V	deg C	#	bits
	0	0.013333	4.41978E-001	-6.01349E-003	0.00000E+000	-2.65783E-003	-3.59960E-001	-9.96363E-001	3.58020E+000	10	...........
	1	0.026667	4.32118E-001	-6.01558E-003	0.00000E+000	-2.59944E-003	-3.59960E-001	-1.00117E+000	3.58020E+000	10	...........
	2	0.04	4.22991E-001	-6.01288E-003	0.00000E+000	-2.54339E-003	-3.59960E-001	-9.91451E-001	3.58020E+000	10	...........
	3	0.053333	4.14308E-001	-6.01623E-003	0.00000E+000	-2.49257E-003	-3.59960E-001	-9.96339E-001	3.58020E+000	10	...........
	4	0.066667	4.05936E-001	-6.01484E-003	0.00000E+000	-2.44164E-003	-3.59960E-001	-1.00056E+000	3.58020E+000	10	...........
	5	0.08	3.97811E-001	-6.01315E-003	0.00000E+000	-2.39210E-003	-3.59960E-001	-9.91076E-001	3.58020E+000	10	...........
	6	0.093333	3.89892E-001	-6.01557E-003	0.00000E+000	-2.34542E-003	-3.59960E-001	-9.96581E-001	3.58020E+000	10	...........
	7	0.106667	3.82152E-001	-6.01641E-003	0.00000E+000	-2.29918E-003	-3.59960E-001	-1.00122E+000	3.58020E+000	10	...........
	8	0.12	3.74532E-001	-6.01632E-003	0.00000E+000	-2.25331E-003	-3.59960E-001	-9.91426E-001	3.58020E+000	10	...........
	9	0.133333	3.67047E-001	-6.01622E-003	0.00000E+000	-2.20824E-003	-3.59960E-001	-9.96577E-001	3.58020E+000	10	...........
	10	0.146667	3.59671E-001	-6.01642E-003	0.00000E+000	-2.16393E-003	-3.59960E-001	-1.00119E+000	3.58020E+000	10	...........
	11	0.16	3.52399E-001	-6.01891E-003	0.00000E+000	-2.12106E-003	-3.59960E-001	-9.91476E-001	3.58020E+000	10	...........
	12	0.173333	3.45204E-001	-6.01395E-003	0.00000E+000	-2.07604E-003	-3.59960E-001	-9.97016E-001	3.58020E+000	10	...........
	13	0.186667	3.38125E-001	-6.01288E-003	0.00000E+000	-2.03310E-003	-3.59960E-001	-1.00147E+000	3.58020E+000	10	...........
	14	0.2	3.31102E-001	-6.01358E-003	0.00000E+000	-1.99111E-003	-3.59960E-001	-9.91557E-001	3.58020E+000	10	...........
	15	0.213333	3.24182E-001	-6.01622E-003	0.00000E+000	-1.95035E-003	-3.59960E-001	-9.97123E-001	3.58020E+000	10	...........
	16	0.226667	3.17318E-001	-6.01134E-003	0.00000E+000	-1.90751E-003	-3.59960E-001	-1.00164E+000	3.58020E+000	10	...........
	17	0.24	3.10540E-001	-6.01456E-003	0.00000E+000	-1.86776E-003	-3.59960E-001	-9.91944E-001	3.58020E+000	10	...........
	18	0.253333	3.03781E-001	-6.01557E-003	0.00000E+000	-1.82742E-003	-3.59960E-001	-9.97261E-001	3.57802E+000	10	...........
	19	0.266667	2.97173E-001	-6.01477E-003	0.00000E+000	-1.78743E-003	-3.59960E-001	-1.00163E+000	3.57730E+000	10	...........
	20	0.28	2.90572E-001	-6.01140E-003	0.00000E+000	-1.74674E-003	-3.59960E-001	-9.91949E-001	3.57730E+000	10	...........
	21	0.293333	2.84025E-001	-6.01280E-003	0.00000E+000	-1.70779E-003	-3.59960E-001	-9.97616E-001	3.57730E+000	10	...........
	22	0.306667	2.77578E-001	-6.01682E-003	0.00000E+000	-1.67014E-003	-3.59960E-001	-1.00201E+000	3.57730E+000	10	...........
	23	0.32	2.71156E-001	-6.01429E-003	0.00000E+000	-1.63081E-003	-3.59960E-001	-9.92153E-001	3.57730E+000	10	...........
	24	0.333333	2.64792E-001	-6.01605E-003	0.00000E+000	-1.59300E-003	-3.59960E-001	-9.97487E-001	3.57730E+000	10	...........
	25	0.346667	2.58494E-001	-6.01651E-003	0.00000E+000	-1.55523E-003	-3.59960E-001	-1.00184E+000	3.57730E+000	10	...........
	26	0.36	2.52250E-001	-6.01320E-003	0.00000E+000	-1.51683E-003	-3.59960E-001	-9.92353E-001	3.57730E+000	10	...........
	27	0.373333	2.46044E-001	-6.01628E-003	0.00000E+000	-1.48027E-003	-3.59960E-001	-9.97532E-001	3.57730E+000	10	...........
	28	0.386667	2.39870E-001	-6.01666E-003	0.00000E+000	-1.44321E-003	-3.59960E-001	-1.00168E+000	3.57730E+000	10	...........
	29	0.4	2.33778E-001	-6.01444E-003	0.00000E+000	-1.40605E-003	-3.59960E-001	-9.91929E-001	3.57730E+000	10	...........
	30	0.413333	2.27722E-001	-6.01823E-003	0.00000E+000	-1.37048E-003	-3.59960E-001	-9.97468E-001	3.57730E+000	10	...........
	31	0.426667	2.21684E-001	-6.01836E-003	0.00000E+000	-1.33418E-003	-3.59960E-001	-1.00183E+000	3.57730E+000	10	...........
	32	0.44	2.15719E-001	-6.01840E-003	0.00000E+000	-1.29828E-003	-3.59960E-001	-9.92316E-001	3.57730E+000	10	...........
	33	0.453333	2.09775E-001	-6.01624E-003	0.00000E+000	-1.26206E-003	-3.59960E-001	-9.97586E-001	3.57730E+000	10	...........
	34	0.466667	2.03884E-001	-6.01610E-003	0.00000E+000	-1.22659E-003	-3.59960E-001	-1.00194E+000	3.57730E+000	10	...........
	35	0.48	1.98039E-001	-6.01366E-003	0.00000E+000	-1.19094E-003	-3.59960E-001	-9.92114E-001	3.57730E+000	10	...........
	36	0.493333	1.92243E-001	-6.01498E-003	0.00000E+000	-1.15634E-003	-3.59960E-001	-9.98003E-001	3.57730E+000	10	...........
	37	0.506667	1.86477E-001	-6.01579E-003	0.00000E+000	-1.12181E-003	-3.59960E-001	-1.00234E+000	3.57730E+000	10	...........
	38	0.52	1.80757E-001	-6.01540E-003	0.00000E+000	-1.08733E-003	-3.59960E-001	-9.92516E-001	3.57730E+000	10	...........
	39	0.533333	1.75113E-001	-6.01066E-003	0.00000E+000	-1.05254E-003	-3.59960E-001	-9.97686E-001	3.57730E+000	10	...........
	40	0.546667	1.69486E-001	-6.01389E-003	0.00000E+000	-1.01927E-003	-3.59960E-001	-1.00212E+000	3.57730E+000	10	...........
	41	0.56	1.63871E-001	-6.01595E-003	0.00000E+000	-9.85838E-004	-3.59960E-001	-9.92548E-001	3.57730E+000	10	...........
	42	0.573333	1.58346E-001	-6.01289E-003	0.00000E+000	-9.52114E-004	-3.59960E-001	-9.98288E-001	3.57730E+000	10	...........
	43	0.586667	1.52809E-001	-6.01456E-003	0.00000E+000	-9.19080E-004	-3.59960E-001	-1.00243E+000	3.57730E+000	10	...........
	44	0.6	1.47335E-001	-6.01665E-003	0.00000E+000	-8.86464E-004	-3.59960E-001	-9.92583E-001	3.57730E+000	10	...........
	45	0.613333	1.41884E-001	-6.01631E-003	0.00000E+000	-8.53617E-004	-3.59960E-001	-9.98168E-001	3.57730E+000	10	...........
	46	0.626667	1.36483E-001	-6.01314E-003	0.00000E+000	-8.20694E-004	-3.59960E-001	-1.00266E+000	3.57730E+000	10	...........
	47	0.64	1.31089E-001	-6.01546E-003	0.00000E+000	-7.88561E-004	-3.59960E-001	-9.92948E-001	3.57730E+000	10	...........
	48	0.653333	1.25743E-001	-6.01504E-003	0.00000E+000	-7.56351E-004	-3.59960E-001	-9.98536E-001	3.57730E+000	10	...........
	49	0.666667	1.20435E-001	-6.01187E-003	0.00000E+000	-7.24041E-004	-3.59960E-001	-1.00246E+000	3.57730E+000	10	...........
	50	0.68	1.15109E-001	-6.01509E-003	0.00000E+000	-6.92393E-004	-3.59960E-001	-9.92694E-001	3.57730E+000	10	...........
	51	0.693333	1.09864E-001	-6.01117E-003	0.00000E+000	-6.60410E-004	-3.59960E-001	-9.98111E-001	3.57730E+000	10	...........
	52	0.706667	1.04657E-001	-6.01248E-003	0.00000E+000	-6.29251E-004	-3.59960E-001	-1.00226E+000	3.57730E+000	10	...........
	53	0.72	9.94091E-002	-6.01315E-003	0.00000E+000	-5.97762E-004	-3.59960E-001	-9.92616E-001	3.57730E+000	10	...........
	54	0.733333	9.42497E-002	-6.01457E-003	0.00000E+000	-5.66871E-004	-3.59960E-001	-9.97989E-001	3.57730E+000	10	...........
	55	0.746667	8.91407E-002	-6.01549E-003	0.00000E+000	-5.36224E-004	-3.59960E-001	-1.00236E+000	3.57730E+000	10	...........
	56	0.76	8.40344E-002	-6.01408E-003	0.00000E+000	-5.05389E-004	-3.59960E-001	-9.92984E-001	3.57730E+000	10	...........
	57	0.773333	7.89946E-002	-6.01743E-003	0.00000E+000	-4.75344E-004	-3.59960E-001	-9.98349E-001	3.57730E+000	10	...........
	58	0.786667	7.39882E-002	-6.01384E-003	0.00000E+000	-4.44953E-004	-3.59960E-001	-1.00259E+000	3.57730E+000	10	...........
	59	0.8	6.89974E-002	-6.01183E-003	0.00000E+000	-4.14801E-004	-3.59960E-001	-9.92618E-001	3.57730E+000	10	...........
	60	0.813333	6.39771E-002	-6.01821E-003	0.00000E+000	-3.85027E-004	-3.59960E-001	-9.98337E-001	3.57730E+000	10	...........
	61	0.826667	5.90398E-002	-6.01653E-003	0.00000E+000	-3.55214E-004	-3.59960E-001	-1.00267E+000	3.57730E+000	10	...........
	62	0.84	5.41207E-002	-6.01894E-003	0.00000E+000	-3.25749E-004	-3.59960E-001	-9.93059E-001	3.57730E+000	10	...........
	63	0.853333	4.92442E-002	-6.01593E-003	0.00000E+000	-2.96250E-004	-3.59960E-001	-9.98357E-001	3.57730E+000	10	...........
	64	0.866667	4.44329E-002	-6.01549E-003	0.00000E+000	-2.67285E-004	-3.59960E-001	-1.00243E+000	3.57730E+000	10	...........
	65	0.88	3.95835E-002	-6.01462E-003	0.00000E+000	-2.38080E-004	-3.59960E-001	-9.92866E-001	3.57730E+000	10	...........
	66	0.893333	3.47578E-002	-6.01661E-003	0.00000E+000	-2.09124E-004	-3.59960E-001	-9.98562E-001	3.57730E+000	10	...........
	67	0.906667	3.00075E-002	-6.01417E-003	0.00000E+000	-1.80470E-004	-3.59960E-001	-1.00287E+000	3.57730E+000	10	...........
	68	0.92	2.52381E-002	-6.01284E-003	0.00000E+000	-1.51753E-004	-3.59960E-001	-9.93218E-001	3.57730E+000	10	...........
	69	0.933333	2.05268E-002	-6.01726E-003	0.00000E+000	-1.23515E-004	-3.59960E-001	-9.98711E-001	3.57730E+000	10	...........
	70	0.946667	1.58318E-002	-6.01201E-003	0.00000E+000	-9.51808E-005	-3.59960E-001	-1.00299E+000	3.57730E+000	10	...........
	71	0.96	1.11332E-002	-6.01740E-003	0.00000E+000	-6.69932E-005	-3.59960E-001	-9.93246E-001	3.57730E+000	10	...........
	72	0.97333	6.49587E-003	-6.01051E-003	0.00000E+000	-3.90435E-005	-3.59960E-001	-9.98897E-001	3.57730E+000	10	...........
	73	0.98667	1.88064E-003	-6.01377E-003	0.00000E+000	-1.13098E-005	-3.59960E-001	-1.00279E+000	3.57730E+000	10	...........
STARTTIMEOFFSET	QUANT	75.92833	Start Time Offset (s)
