EXPLAIN
TAG	PWR800_DISCHARGE
TITLE	LABEL	PWR Cyclic Charge Discharge (Cell) - Discharge Step	Test &Identifier
DATE	LABEL	22-6-2017	Date
TIME	LABEL	16:09:27	Time
NOTES	NOTES	3	&Notes...
	supercap test cell
	0.6mg
	6M KOH
PSTAT	PSTAT	IFC5000-01520	Potentiostat
CAPACITY	QUANT	1.00000E-003	Capacity (A-hr)
CELLTYPE	SELECTOR	1	&Cell Type
WORKINGCONNECTION	SELECTOR	0	&Working Lead
MAXDISCHARGETIME	VARIABLEANDUNITS	1.00000E+002	s	1.00000E+002	second(s)	Max &Discharge Time
DISCHARGEMODE	MULTIPARAM	0	6.00000E-003	&Discharge Mode	Constant Current	Amp(s)
SAMPLETIME	QUANT	1.00000E-002	Sa&mple Period (s)
DISCHARGESTOPAT1	MULTIPARAM	3	0.00000E+000	Discharge Stop At &1	Voltage < Limit	V
DISCHARGESTOPAT2	MULTIPARAM	0	0.00000E+000	Discharge Stop At &2	None	N/A
AESBHCSELECTOR	TOGGLE	F	Save Both Half Cells
IRCOMP	TOGGLE	F	IR &Measure
EOC	QUANT	0	Open Circuit (V)
SEQUENCER	TOGGLE	TRUE	Run as Sequence
PSTATMODEL	IQUANT	53	Pstat Model
PSTATSECTION	LABEL	IFC5000-01520	Pstat Section
PSTATSERIALNO	LABEL	01520	Pstat Serial Number
CTRLMODE	IQUANT	0	Control Mode
ELECTROMETER	IQUANT	1	RE=0 or CS=1
IESTAB	IQUANT	0	I/E Stability
CASPEED	IQUANT	4	Control Amp Speed
CONVENTION	IQUANT	1	Current Convention
ICHRANGE	IQUANT	2	Ich Range
ICHRANGEMODE	TOGGLE	T	Ich Auto Range
ICHOFFSETENABLE	TOGGLE	F	Ich Offset Enable
ICHOFFSET	QUANT	0	Ich Offset (V)
ICHFILTER	IQUANT	1	Ich Filter
VCHRANGE	IQUANT	2	Vch Range
VCHRANGEMODE	TOGGLE	T	Vch Auto Range
VCHOFFSETENABLE	TOGGLE	F	Vch Offset Enable
VCHOFFSET	QUANT	0	Vch Offset (V)
VCHFILTER	IQUANT	1	Vch Filter
IERANGELOWERLIMIT	IQUANT	9	I/E Range Lower Limit
IERANGEMODE	TOGGLE	F	I/E AutoRange
IERANGE	IQUANT	10	I/E Range
ACHSELECT	IQUANT	1	Ach Select
ACHRANGE	IQUANT	2	Ach Range
ACHOFFSETENABLE	TOGGLE	F	Ach Offset Enable
ACHOFFSET	QUANT	0	Ach Offset (V)
ACHFILTER	IQUANT	1	Ach Filter
CABLEID	IQUANT	14	Cable ID
DCCALDATE	LABEL	20-10-2016	DC Calibration Date
ACCALDATE	LABEL	12/3/2015	AC Calibration Date
FRAMEWORKVERSION	QUANT	7.01	Framework Version
INSTRUMENTVERSION	LABEL	4.00	Instrument Version
CURVE	TABLE	53
	Pt	T	Vf	Im	Vu	Pwr	Sig	Ach	Temp	IERange	Over
	#	s	V	A	V	W	V	V	deg C	#	bits
	0	0.013333	3.80533E-001	-6.01517E-003	0.00000E+000	-2.28897E-003	-3.59960E-001	-1.12323E+000	3.57657E+000	10	...........
	1	0.026667	3.68989E-001	-6.01567E-003	0.00000E+000	-2.21972E-003	-3.59960E-001	-1.12772E+000	3.57640E+000	10	...........
	2	0.04	3.58267E-001	-6.01640E-003	0.00000E+000	-2.15548E-003	-3.59960E-001	-1.13278E+000	3.57640E+000	10	...........
	3	0.053333	3.48148E-001	-6.01631E-003	0.00000E+000	-2.09457E-003	-3.59960E-001	-1.12356E+000	3.57640E+000	10	...........
	4	0.066667	3.38371E-001	-6.01450E-003	0.00000E+000	-2.03513E-003	-3.59960E-001	-1.12811E+000	3.57640E+000	10	...........
	5	0.08	3.28893E-001	-6.01280E-003	0.00000E+000	-1.97757E-003	-3.59960E-001	-1.13324E+000	3.57640E+000	10	...........
	6	0.093333	3.19641E-001	-6.01885E-003	0.00000E+000	-1.92387E-003	-3.59960E-001	-1.12440E+000	3.57640E+000	10	...........
	7	0.106667	3.10590E-001	-6.01510E-003	0.00000E+000	-1.86823E-003	-3.59960E-001	-1.12897E+000	3.57640E+000	10	...........
	8	0.12	3.01666E-001	-6.01009E-003	0.00000E+000	-1.81304E-003	-3.59960E-001	-1.13344E+000	3.57640E+000	10	...........
	9	0.133333	2.92868E-001	-6.01400E-003	0.00000E+000	-1.76131E-003	-3.59960E-001	-1.12457E+000	3.57640E+000	10	...........
	10	0.146667	2.84251E-001	-6.01781E-003	0.00000E+000	-1.71057E-003	-3.59960E-001	-1.12920E+000	3.57640E+000	10	...........
	11	0.16	2.75771E-001	-6.01392E-003	0.00000E+000	-1.65846E-003	-3.59960E-001	-1.13396E+000	3.57640E+000	10	...........
	12	0.173333	2.67388E-001	-6.01276E-003	0.00000E+000	-1.60774E-003	-3.59960E-001	-1.12502E+000	3.57640E+000	10	...........
	13	0.186667	2.59119E-001	-6.01029E-003	0.00000E+000	-1.55738E-003	-3.59960E-001	-1.12951E+000	3.57640E+000	10	...........
	14	0.2	2.50983E-001	-6.01240E-003	0.00000E+000	-1.50901E-003	-3.59960E-001	-1.13397E+000	3.57640E+000	10	...........
	15	0.213333	2.42970E-001	-6.01313E-003	0.00000E+000	-1.46101E-003	-3.59960E-001	-1.12536E+000	3.57640E+000	10	...........
	16	0.226667	2.35003E-001	-6.01590E-003	0.00000E+000	-1.41376E-003	-3.59960E-001	-1.13032E+000	3.57640E+000	10	...........
	17	0.24	2.27166E-001	-6.01347E-003	0.00000E+000	-1.36606E-003	-3.59960E-001	-1.13464E+000	3.57640E+000	10	...........
	18	0.253333	2.19454E-001	-6.01565E-003	0.00000E+000	-1.32016E-003	-3.59960E-001	-1.12590E+000	3.57640E+000	10	...........
	19	0.266667	2.11787E-001	-6.01310E-003	0.00000E+000	-1.27350E-003	-3.59960E-001	-1.13063E+000	3.57640E+000	10	...........
	20	0.28	2.04192E-001	-6.01781E-003	0.00000E+000	-1.22879E-003	-3.59960E-001	-1.13468E+000	3.57640E+000	10	...........
	21	0.293333	1.96720E-001	-6.01332E-003	0.00000E+000	-1.18294E-003	-3.59960E-001	-1.12623E+000	3.57640E+000	10	...........
	22	0.306667	1.89321E-001	-6.01131E-003	0.00000E+000	-1.13807E-003	-3.59960E-001	-1.13091E+000	3.57640E+000	10	...........
	23	0.32	1.82051E-001	-6.01266E-003	0.00000E+000	-1.09461E-003	-3.59960E-001	-1.13495E+000	3.57640E+000	10	...........
	24	0.333333	1.74835E-001	-6.01575E-003	0.00000E+000	-1.05176E-003	-3.59960E-001	-1.12598E+000	3.57640E+000	10	...........
	25	0.346667	1.67652E-001	-6.02208E-003	0.00000E+000	-1.00961E-003	-3.59960E-001	-1.13081E+000	3.57640E+000	10	...........
	26	0.36	1.60647E-001	-6.01315E-003	0.00000E+000	-9.65997E-004	-3.59960E-001	-1.13486E+000	3.57640E+000	10	...........
	27	0.373333	1.53675E-001	-6.01255E-003	0.00000E+000	-9.23981E-004	-3.59960E-001	-1.12659E+000	3.57640E+000	10	...........
	28	0.386667	1.46737E-001	-6.01450E-003	0.00000E+000	-8.82548E-004	-3.59960E-001	-1.13103E+000	3.57640E+000	10	...........
	29	0.4	1.39872E-001	-6.01822E-003	0.00000E+000	-8.41782E-004	-3.59960E-001	-1.13463E+000	3.57640E+000	10	...........
	30	0.413333	1.33117E-001	-6.01278E-003	0.00000E+000	-8.00403E-004	-3.59960E-001	-1.12667E+000	3.57640E+000	10	...........
	31	0.426667	1.26475E-001	-6.01654E-003	0.00000E+000	-7.60939E-004	-3.59960E-001	-1.13169E+000	3.57640E+000	10	...........
	32	0.44	1.19860E-001	-6.01357E-003	0.00000E+000	-7.20784E-004	-3.59960E-001	-1.13521E+000	3.57640E+000	10	...........
	33	0.453333	1.13378E-001	-6.01237E-003	0.00000E+000	-6.81670E-004	-3.59960E-001	-1.12609E+000	3.57640E+000	10	...........
	34	0.466667	1.06925E-001	-6.01100E-003	0.00000E+000	-6.42725E-004	-3.59960E-001	-1.13126E+000	3.57640E+000	10	...........
	35	0.48	1.00540E-001	-6.01684E-003	0.00000E+000	-6.04935E-004	-3.59960E-001	-1.13499E+000	3.57640E+000	10	...........
	36	0.493333	9.42075E-002	-6.01235E-003	0.00000E+000	-5.66408E-004	-3.59960E-001	-1.12654E+000	3.57640E+000	10	...........
	37	0.506667	8.79543E-002	-6.00907E-003	0.00000E+000	-5.28523E-004	-3.59960E-001	-1.13171E+000	3.57640E+000	10	...........
	38	0.52	8.17850E-002	-6.01328E-003	0.00000E+000	-4.91796E-004	-3.59960E-001	-1.13480E+000	3.57640E+000	10	...........
	39	0.533333	7.56438E-002	-6.01393E-003	0.00000E+000	-4.54917E-004	-3.59960E-001	-1.12621E+000	3.57640E+000	10	...........
	40	0.546667	6.95949E-002	-6.00997E-003	0.00000E+000	-4.18263E-004	-3.59960E-001	-1.13189E+000	3.57640E+000	10	...........
	41	0.56	6.36291E-002	-6.01115E-003	0.00000E+000	-3.82484E-004	-3.59960E-001	-1.13526E+000	3.57640E+000	10	...........
	42	0.573333	5.76623E-002	-6.01764E-003	0.00000E+000	-3.46991E-004	-3.59960E-001	-1.12694E+000	3.57640E+000	10	...........
	43	0.586667	5.17697E-002	-6.01405E-003	0.00000E+000	-3.11346E-004	-3.59960E-001	-1.13187E+000	3.57640E+000	10	...........
	44	0.6	4.59331E-002	-6.02093E-003	0.00000E+000	-2.76560E-004	-3.59960E-001	-1.13465E+000	3.57640E+000	10	...........
	45	0.613333	4.01808E-002	-6.01588E-003	0.00000E+000	-2.41723E-004	-3.59960E-001	-1.12674E+000	3.57640E+000	10	...........
	46	0.626667	3.44849E-002	-6.01443E-003	0.00000E+000	-2.07407E-004	-3.59960E-001	-1.13226E+000	3.57640E+000	10	...........
	47	0.64	2.88241E-002	-6.01595E-003	0.00000E+000	-1.73404E-004	-3.59960E-001	-1.13499E+000	3.57640E+000	10	...........
	48	0.653333	2.31666E-002	-6.01229E-003	0.00000E+000	-1.39284E-004	-3.59960E-001	-1.12623E+000	3.57640E+000	10	...........
	49	0.666667	1.76043E-002	-6.01607E-003	0.00000E+000	-1.05909E-004	-3.59960E-001	-1.13151E+000	3.57640E+000	10	...........
	50	0.68	1.21048E-002	-6.01395E-003	0.00000E+000	-7.27977E-005	-3.59960E-001	-1.13468E+000	3.57640E+000	10	...........
	51	0.693333	6.62874E-003	-6.01687E-003	0.00000E+000	-3.98843E-005	-3.59960E-001	-1.12645E+000	3.57640E+000	10	...........
	52	0.705	1.54910E-003	-6.01357E-003	0.00000E+000	-9.31560E-006	-3.59960E-001	-1.13471E+000	3.57640E+000	10	...........
STARTTIMEOFFSET	QUANT	1387.504	Start Time Offset (s)
