EXPLAIN
TAG	PWR800_DISCHARGE
TITLE	LABEL	PWR Cyclic Charge Discharge (Cell) - Discharge Step	Test &Identifier
DATE	LABEL	22-6-2017	Date
TIME	LABEL	16:11:00	Time
NOTES	NOTES	3	&Notes...
	supercap test cell
	0.6mg
	6M KOH
PSTAT	PSTAT	IFC5000-01520	Potentiostat
CAPACITY	QUANT	1.00000E-003	Capacity (A-hr)
CELLTYPE	SELECTOR	1	&Cell Type
WORKINGCONNECTION	SELECTOR	0	&Working Lead
MAXDISCHARGETIME	VARIABLEANDUNITS	1.00000E+002	s	1.00000E+002	second(s)	Max &Discharge Time
DISCHARGEMODE	MULTIPARAM	0	6.00000E-003	&Discharge Mode	Constant Current	Amp(s)
SAMPLETIME	QUANT	1.00000E-002	Sa&mple Period (s)
DISCHARGESTOPAT1	MULTIPARAM	3	0.00000E+000	Discharge Stop At &1	Voltage < Limit	V
DISCHARGESTOPAT2	MULTIPARAM	0	0.00000E+000	Discharge Stop At &2	None	N/A
AESBHCSELECTOR	TOGGLE	F	Save Both Half Cells
IRCOMP	TOGGLE	F	IR &Measure
EOC	QUANT	0	Open Circuit (V)
SEQUENCER	TOGGLE	TRUE	Run as Sequence
PSTATMODEL	IQUANT	53	Pstat Model
PSTATSECTION	LABEL	IFC5000-01520	Pstat Section
PSTATSERIALNO	LABEL	01520	Pstat Serial Number
CTRLMODE	IQUANT	0	Control Mode
ELECTROMETER	IQUANT	1	RE=0 or CS=1
IESTAB	IQUANT	0	I/E Stability
CASPEED	IQUANT	4	Control Amp Speed
CONVENTION	IQUANT	1	Current Convention
ICHRANGE	IQUANT	2	Ich Range
ICHRANGEMODE	TOGGLE	T	Ich Auto Range
ICHOFFSETENABLE	TOGGLE	F	Ich Offset Enable
ICHOFFSET	QUANT	0	Ich Offset (V)
ICHFILTER	IQUANT	1	Ich Filter
VCHRANGE	IQUANT	2	Vch Range
VCHRANGEMODE	TOGGLE	T	Vch Auto Range
VCHOFFSETENABLE	TOGGLE	F	Vch Offset Enable
VCHOFFSET	QUANT	0	Vch Offset (V)
VCHFILTER	IQUANT	1	Vch Filter
IERANGELOWERLIMIT	IQUANT	9	I/E Range Lower Limit
IERANGEMODE	TOGGLE	F	I/E AutoRange
IERANGE	IQUANT	10	I/E Range
ACHSELECT	IQUANT	1	Ach Select
ACHRANGE	IQUANT	2	Ach Range
ACHOFFSETENABLE	TOGGLE	F	Ach Offset Enable
ACHOFFSET	QUANT	0	Ach Offset (V)
ACHFILTER	IQUANT	1	Ach Filter
CABLEID	IQUANT	14	Cable ID
DCCALDATE	LABEL	20-10-2016	DC Calibration Date
ACCALDATE	LABEL	12/3/2015	AC Calibration Date
FRAMEWORKVERSION	QUANT	7.01	Framework Version
INSTRUMENTVERSION	LABEL	4.00	Instrument Version
CURVE	TABLE	53
	Pt	T	Vf	Im	Vu	Pwr	Sig	Ach	Temp	IERange	Over
	#	s	V	A	V	W	V	V	deg C	#	bits
	0	0.013333	3.79771E-001	-6.01803E-003	0.00000E+000	-2.28547E-003	-3.59960E-001	-1.13393E+000	3.57780E+000	10	...........
	1	0.026667	3.68233E-001	-6.01448E-003	0.00000E+000	-2.21473E-003	-3.59960E-001	-1.14018E+000	3.57780E+000	10	...........
	2	0.04	3.57478E-001	-6.01308E-003	0.00000E+000	-2.14954E-003	-3.59960E-001	-1.14233E+000	3.57780E+000	10	...........
	3	0.053333	3.47292E-001	-6.01554E-003	0.00000E+000	-2.08915E-003	-3.59960E-001	-1.13407E+000	3.57780E+000	10	...........
	4	0.066667	3.37538E-001	-6.01697E-003	0.00000E+000	-2.03095E-003	-3.59960E-001	-1.14009E+000	3.57780E+000	10	...........
	5	0.08	3.28048E-001	-6.01203E-003	0.00000E+000	-1.97223E-003	-3.59960E-001	-1.14262E+000	3.57780E+000	10	...........
	6	0.093333	3.18721E-001	-6.01631E-003	0.00000E+000	-1.91752E-003	-3.59960E-001	-1.13455E+000	3.57780E+000	10	...........
	7	0.106667	3.09612E-001	-6.02003E-003	0.00000E+000	-1.86387E-003	-3.59960E-001	-1.14033E+000	3.57780E+000	10	...........
	8	0.12	3.00686E-001	-6.01298E-003	0.00000E+000	-1.80802E-003	-3.59960E-001	-1.14251E+000	3.57780E+000	10	...........
	9	0.133333	2.91939E-001	-6.01843E-003	0.00000E+000	-1.75701E-003	-3.59960E-001	-1.13441E+000	3.57780E+000	10	...........
	10	0.146667	2.83263E-001	-6.01519E-003	0.00000E+000	-1.70388E-003	-3.59960E-001	-1.14067E+000	3.57780E+000	10	...........
	11	0.16	2.74723E-001	-6.01315E-003	0.00000E+000	-1.65195E-003	-3.59960E-001	-1.14294E+000	3.57780E+000	10	...........
	12	0.173333	2.66327E-001	-6.01649E-003	0.00000E+000	-1.60235E-003	-3.59960E-001	-1.13495E+000	3.57780E+000	10	...........
	13	0.186667	2.58035E-001	-6.01995E-003	0.00000E+000	-1.55336E-003	-3.59960E-001	-1.14072E+000	3.57780E+000	10	...........
	14	0.2	2.49843E-001	-6.01313E-003	0.00000E+000	-1.50234E-003	-3.59960E-001	-1.14295E+000	3.57780E+000	10	...........
	15	0.213333	2.41752E-001	-6.01609E-003	0.00000E+000	-1.45440E-003	-3.59960E-001	-1.13484E+000	3.57780E+000	10	...........
	16	0.226667	2.33779E-001	-6.01469E-003	0.00000E+000	-1.40611E-003	-3.59960E-001	-1.14110E+000	3.57780E+000	10	...........
	17	0.24	2.25926E-001	-6.01448E-003	0.00000E+000	-1.35883E-003	-3.59960E-001	-1.14310E+000	3.57780E+000	10	...........
	18	0.253333	2.18148E-001	-6.01663E-003	0.00000E+000	-1.31252E-003	-3.59960E-001	-1.13460E+000	3.57780E+000	10	...........
	19	0.266667	2.10444E-001	-6.01607E-003	0.00000E+000	-1.26604E-003	-3.59960E-001	-1.14087E+000	3.57780E+000	10	...........
	20	0.28	2.02846E-001	-6.01623E-003	0.00000E+000	-1.22037E-003	-3.59960E-001	-1.14306E+000	3.57780E+000	10	...........
	21	0.293333	1.95315E-001	-6.01514E-003	0.00000E+000	-1.17485E-003	-3.59960E-001	-1.13505E+000	3.57780E+000	10	...........
	22	0.306667	1.87910E-001	-6.01681E-003	0.00000E+000	-1.13062E-003	-3.59960E-001	-1.14141E+000	3.57780E+000	10	...........
	23	0.32	1.80591E-001	-6.01518E-003	0.00000E+000	-1.08629E-003	-3.59960E-001	-1.14310E+000	3.57780E+000	10	...........
	24	0.333333	1.73366E-001	-6.01679E-003	0.00000E+000	-1.04310E-003	-3.59960E-001	-1.13517E+000	3.57780E+000	10	...........
	25	0.346667	1.66202E-001	-6.01612E-003	0.00000E+000	-9.99894E-004	-3.59960E-001	-1.14154E+000	3.57780E+000	10	...........
	26	0.36	1.59145E-001	-6.01547E-003	0.00000E+000	-9.57333E-004	-3.59960E-001	-1.14323E+000	3.57780E+000	10	...........
	27	0.373333	1.52156E-001	-6.01565E-003	0.00000E+000	-9.15315E-004	-3.59960E-001	-1.13507E+000	3.57780E+000	10	...........
	28	0.386667	1.45206E-001	-6.01480E-003	0.00000E+000	-8.73382E-004	-3.59960E-001	-1.14167E+000	3.57780E+000	10	...........
	29	0.4	1.38368E-001	-6.01853E-003	0.00000E+000	-8.32774E-004	-3.59960E-001	-1.14289E+000	3.57780E+000	10	...........
	30	0.413333	1.31616E-001	-6.01609E-003	0.00000E+000	-7.91813E-004	-3.59960E-001	-1.13523E+000	3.57780E+000	10	...........
	31	0.426667	1.24918E-001	-6.01432E-003	0.00000E+000	-7.51294E-004	-3.59960E-001	-1.14191E+000	3.57780E+000	10	...........
	32	0.44	1.18265E-001	-6.01883E-003	0.00000E+000	-7.11818E-004	-3.59960E-001	-1.14327E+000	3.57780E+000	10	...........
	33	0.453333	1.11731E-001	-6.01469E-003	0.00000E+000	-6.72026E-004	-3.59960E-001	-1.13557E+000	3.57780E+000	10	...........
	34	0.466667	1.05268E-001	-6.01505E-003	0.00000E+000	-6.33191E-004	-3.59960E-001	-1.14189E+000	3.57780E+000	10	...........
	35	0.48	9.88790E-002	-6.01454E-003	0.00000E+000	-5.94711E-004	-3.59960E-001	-1.14348E+000	3.57780E+000	10	...........
	36	0.493333	9.25236E-002	-6.01304E-003	0.00000E+000	-5.56348E-004	-3.59960E-001	-1.13582E+000	3.57780E+000	10	...........
	37	0.506667	8.62435E-002	-6.01589E-003	0.00000E+000	-5.18831E-004	-3.59960E-001	-1.14226E+000	3.57780E+000	10	...........
	38	0.52	8.00309E-002	-6.01934E-003	0.00000E+000	-4.81734E-004	-3.59960E-001	-1.14349E+000	3.57780E+000	10	...........
	39	0.533333	7.38786E-002	-6.01785E-003	0.00000E+000	-4.44591E-004	-3.59960E-001	-1.13546E+000	3.57780E+000	10	...........
	40	0.546667	6.77844E-002	-6.01464E-003	0.00000E+000	-4.07699E-004	-3.59960E-001	-1.14238E+000	3.57780E+000	10	...........
	41	0.56	6.17288E-002	-6.01838E-003	0.00000E+000	-3.71508E-004	-3.59960E-001	-1.14346E+000	3.57780E+000	10	...........
	42	0.573333	5.57418E-002	-6.01419E-003	0.00000E+000	-3.35242E-004	-3.59960E-001	-1.13533E+000	3.57780E+000	10	...........
	43	0.586667	4.98587E-002	-6.01113E-003	0.00000E+000	-2.99707E-004	-3.59960E-001	-1.14198E+000	3.57780E+000	10	...........
	44	0.6	4.40521E-002	-6.01377E-003	0.00000E+000	-2.64920E-004	-3.59960E-001	-1.14323E+000	3.57780E+000	10	...........
	45	0.613333	3.82851E-002	-6.01625E-003	0.00000E+000	-2.30333E-004	-3.59960E-001	-1.13540E+000	3.57780E+000	10	...........
	46	0.626667	3.25394E-002	-6.01536E-003	0.00000E+000	-1.95736E-004	-3.59960E-001	-1.14222E+000	3.57870E+000	10	...........
	47	0.64	2.68996E-002	-6.01358E-003	0.00000E+000	-1.61763E-004	-3.59960E-001	-1.14331E+000	3.57870E+000	10	...........
	48	0.653333	2.12592E-002	-6.01258E-003	0.00000E+000	-1.27822E-004	-3.59960E-001	-1.13532E+000	3.57870E+000	10	...........
	49	0.666667	1.56940E-002	-6.01081E-003	0.00000E+000	-9.43336E-005	-3.59960E-001	-1.14213E+000	3.57870E+000	10	...........
	50	0.68	1.01432E-002	-6.01444E-003	0.00000E+000	-6.10057E-005	-3.59960E-001	-1.14323E+000	3.57870E+000	10	...........
	51	0.693333	4.66174E-003	-6.01564E-003	0.00000E+000	-2.80434E-005	-3.59960E-001	-1.13550E+000	3.57870E+000	10	...........
	52	0.7	5.97902E-004	-6.01952E-003	0.00000E+000	-3.59909E-006	-3.59960E-001	-1.14997E+000	3.57870E+000	10	...........
STARTTIMEOFFSET	QUANT	1446.769	Start Time Offset (s)
