EXPLAIN
TAG	PWR800_DISCHARGE
TITLE	LABEL	PWR Cyclic Charge Discharge (Cell) - Discharge Step	Test &Identifier
DATE	LABEL	22-6-2017	Date
TIME	LABEL	15:49:45	Time
NOTES	NOTES	3	&Notes...
	supercap test cell
	0.6mg
	6M KOH
PSTAT	PSTAT	IFC5000-01520	Potentiostat
CAPACITY	QUANT	1.00000E-003	Capacity (A-hr)
CELLTYPE	SELECTOR	1	&Cell Type
WORKINGCONNECTION	SELECTOR	0	&Working Lead
MAXDISCHARGETIME	VARIABLEANDUNITS	1.00000E+002	s	1.00000E+002	second(s)	Max &Discharge Time
DISCHARGEMODE	MULTIPARAM	0	6.00000E-003	&Discharge Mode	Constant Current	Amp(s)
SAMPLETIME	QUANT	1.00000E-002	Sa&mple Period (s)
DISCHARGESTOPAT1	MULTIPARAM	3	0.00000E+000	Discharge Stop At &1	Voltage < Limit	V
DISCHARGESTOPAT2	MULTIPARAM	0	0.00000E+000	Discharge Stop At &2	None	N/A
AESBHCSELECTOR	TOGGLE	F	Save Both Half Cells
IRCOMP	TOGGLE	F	IR &Measure
EOC	QUANT	0	Open Circuit (V)
SEQUENCER	TOGGLE	TRUE	Run as Sequence
PSTATMODEL	IQUANT	53	Pstat Model
PSTATSECTION	LABEL	IFC5000-01520	Pstat Section
PSTATSERIALNO	LABEL	01520	Pstat Serial Number
CTRLMODE	IQUANT	0	Control Mode
ELECTROMETER	IQUANT	1	RE=0 or CS=1
IESTAB	IQUANT	0	I/E Stability
CASPEED	IQUANT	4	Control Amp Speed
CONVENTION	IQUANT	1	Current Convention
ICHRANGE	IQUANT	2	Ich Range
ICHRANGEMODE	TOGGLE	T	Ich Auto Range
ICHOFFSETENABLE	TOGGLE	F	Ich Offset Enable
ICHOFFSET	QUANT	0	Ich Offset (V)
ICHFILTER	IQUANT	1	Ich Filter
VCHRANGE	IQUANT	2	Vch Range
VCHRANGEMODE	TOGGLE	T	Vch Auto Range
VCHOFFSETENABLE	TOGGLE	F	Vch Offset Enable
VCHOFFSET	QUANT	0	Vch Offset (V)
VCHFILTER	IQUANT	1	Vch Filter
IERANGELOWERLIMIT	IQUANT	9	I/E Range Lower Limit
IERANGEMODE	TOGGLE	F	I/E AutoRange
IERANGE	IQUANT	10	I/E Range
ACHSELECT	IQUANT	1	Ach Select
ACHRANGE	IQUANT	2	Ach Range
ACHOFFSETENABLE	TOGGLE	F	Ach Offset Enable
ACHOFFSET	QUANT	0	Ach Offset (V)
ACHFILTER	IQUANT	1	Ach Filter
CABLEID	IQUANT	14	Cable ID
DCCALDATE	LABEL	20-10-2016	DC Calibration Date
ACCALDATE	LABEL	12/3/2015	AC Calibration Date
FRAMEWORKVERSION	QUANT	7.01	Framework Version
INSTRUMENTVERSION	LABEL	4.00	Instrument Version
CURVE	TABLE	61
	Pt	T	Vf	Im	Vu	Pwr	Sig	Ach	Temp	IERange	Over
	#	s	V	A	V	W	V	V	deg C	#	bits
	0	0.013333	4.03405E-001	-6.00782E-003	0.00000E+000	-2.42358E-003	-3.59960E-001	-1.08114E+000	3.57680E+000	10	...........
	1	0.026667	3.92561E-001	-6.01444E-003	0.00000E+000	-2.36103E-003	-3.59960E-001	-1.08191E+000	3.57680E+000	10	...........
	2	0.04	3.82502E-001	-6.01880E-003	0.00000E+000	-2.30220E-003	-3.59960E-001	-1.09154E+000	3.57680E+000	10	...........
	3	0.053333	3.72996E-001	-6.01550E-003	0.00000E+000	-2.24375E-003	-3.59960E-001	-1.08131E+000	3.57680E+000	10	...........
	4	0.066667	3.63787E-001	-6.01804E-003	0.00000E+000	-2.18928E-003	-3.59960E-001	-1.08209E+000	3.57680E+000	10	...........
	5	0.08	3.54878E-001	-6.00759E-003	0.00000E+000	-2.13196E-003	-3.59960E-001	-1.09213E+000	3.57680E+000	10	...........
	6	0.093333	3.46145E-001	-6.01509E-003	0.00000E+000	-2.08210E-003	-3.59960E-001	-1.08209E+000	3.57680E+000	10	...........
	7	0.106667	3.37632E-001	-6.01387E-003	0.00000E+000	-2.03048E-003	-3.59960E-001	-1.08274E+000	3.57680E+000	10	...........
	8	0.12	3.29286E-001	-6.01009E-003	0.00000E+000	-1.97904E-003	-3.59960E-001	-1.09256E+000	3.57680E+000	10	...........
	9	0.133333	3.21074E-001	-6.01691E-003	0.00000E+000	-1.93187E-003	-3.59960E-001	-1.08280E+000	3.57680E+000	10	...........
	10	0.146667	3.12969E-001	-6.01409E-003	0.00000E+000	-1.88222E-003	-3.59960E-001	-1.08359E+000	3.57680E+000	10	...........
	11	0.16	3.04948E-001	-6.01175E-003	0.00000E+000	-1.83327E-003	-3.59960E-001	-1.09359E+000	3.57662E+000	10	...........
	12	0.173333	2.97048E-001	-6.01272E-003	0.00000E+000	-1.78607E-003	-3.59960E-001	-1.08349E+000	3.57660E+000	10	...........
	13	0.186667	2.89270E-001	-6.01716E-003	0.00000E+000	-1.74058E-003	-3.59960E-001	-1.08391E+000	3.57660E+000	10	...........
	14	0.2	2.81572E-001	-6.01934E-003	0.00000E+000	-1.69488E-003	-3.59960E-001	-1.09407E+000	3.57660E+000	10	...........
	15	0.213333	2.73955E-001	-6.01393E-003	0.00000E+000	-1.64754E-003	-3.59960E-001	-1.08442E+000	3.57660E+000	10	...........
	16	0.226667	2.66431E-001	-6.01414E-003	0.00000E+000	-1.60235E-003	-3.59960E-001	-1.08478E+000	3.57660E+000	10	...........
	17	0.24	2.58939E-001	-6.01665E-003	0.00000E+000	-1.55794E-003	-3.59960E-001	-1.09467E+000	3.57660E+000	10	...........
	18	0.253333	2.51609E-001	-6.01295E-003	0.00000E+000	-1.51291E-003	-3.59960E-001	-1.08448E+000	3.57660E+000	10	...........
	19	0.266667	2.44337E-001	-6.01364E-003	0.00000E+000	-1.46935E-003	-3.59960E-001	-1.08486E+000	3.57660E+000	10	...........
	20	0.28	2.37163E-001	-6.01141E-003	0.00000E+000	-1.42568E-003	-3.59960E-001	-1.09490E+000	3.57660E+000	10	...........
	21	0.293333	2.30049E-001	-6.01170E-003	0.00000E+000	-1.38298E-003	-3.59960E-001	-1.08470E+000	3.57660E+000	10	...........
	22	0.306667	2.22977E-001	-6.01819E-003	0.00000E+000	-1.34192E-003	-3.59960E-001	-1.08494E+000	3.57660E+000	10	...........
	23	0.32	2.16024E-001	-6.01789E-003	0.00000E+000	-1.30001E-003	-3.59960E-001	-1.09479E+000	3.57660E+000	10	...........
	24	0.333333	2.09130E-001	-6.01568E-003	0.00000E+000	-1.25806E-003	-3.59960E-001	-1.08497E+000	3.57660E+000	10	...........
	25	0.346667	2.02284E-001	-6.01475E-003	0.00000E+000	-1.21669E-003	-3.59960E-001	-1.08514E+000	3.57660E+000	10	...........
	26	0.36	1.95520E-001	-6.01774E-003	0.00000E+000	-1.17659E-003	-3.59960E-001	-1.09504E+000	3.57660E+000	10	...........
	27	0.373333	1.88858E-001	-6.01059E-003	0.00000E+000	-1.13515E-003	-3.59960E-001	-1.08519E+000	3.57660E+000	10	...........
	28	0.386667	1.82244E-001	-6.01157E-003	0.00000E+000	-1.09557E-003	-3.59960E-001	-1.08498E+000	3.57660E+000	10	...........
	29	0.4	1.75662E-001	-6.01393E-003	0.00000E+000	-1.05642E-003	-3.59960E-001	-1.09514E+000	3.57660E+000	10	...........
	30	0.413333	1.69160E-001	-6.01489E-003	0.00000E+000	-1.01748E-003	-3.59960E-001	-1.08512E+000	3.57660E+000	10	...........
	31	0.426667	1.62739E-001	-6.01414E-003	0.00000E+000	-9.78737E-004	-3.59960E-001	-1.08505E+000	3.57660E+000	10	...........
	32	0.44	1.56349E-001	-6.01318E-003	0.00000E+000	-9.40152E-004	-3.59960E-001	-1.09516E+000	3.57660E+000	10	...........
	33	0.453333	1.50050E-001	-6.01021E-003	0.00000E+000	-9.01832E-004	-3.59960E-001	-1.08502E+000	3.57660E+000	10	...........
	34	0.466667	1.43773E-001	-6.01326E-003	0.00000E+000	-8.64546E-004	-3.59960E-001	-1.08487E+000	3.57660E+000	10	...........
	35	0.48	1.37553E-001	-6.01496E-003	0.00000E+000	-8.27376E-004	-3.59960E-001	-1.09536E+000	3.57660E+000	10	...........
	36	0.493333	1.31417E-001	-6.01386E-003	0.00000E+000	-7.90325E-004	-3.59960E-001	-1.08495E+000	3.57660E+000	10	...........
	37	0.506667	1.25310E-001	-6.01436E-003	0.00000E+000	-7.53657E-004	-3.59960E-001	-1.08474E+000	3.57660E+000	10	...........
	38	0.52	1.19254E-001	-6.01341E-003	0.00000E+000	-7.17122E-004	-3.59960E-001	-1.09530E+000	3.57660E+000	10	...........
	39	0.533333	1.13248E-001	-6.01947E-003	0.00000E+000	-6.81692E-004	-3.59960E-001	-1.08490E+000	3.57660E+000	10	...........
	40	0.546667	1.07312E-001	-6.01488E-003	0.00000E+000	-6.45468E-004	-3.59960E-001	-1.08495E+000	3.57660E+000	10	...........
	41	0.56	1.01438E-001	-6.01411E-003	0.00000E+000	-6.10060E-004	-3.59960E-001	-1.09539E+000	3.57660E+000	10	...........
	42	0.573333	9.56252E-002	-6.01851E-003	0.00000E+000	-5.75521E-004	-3.59960E-001	-1.08493E+000	3.57660E+000	10	...........
	43	0.586667	8.98333E-002	-6.01923E-003	0.00000E+000	-5.40727E-004	-3.59960E-001	-1.08464E+000	3.57660E+000	10	...........
	44	0.6	8.40924E-002	-6.02111E-003	0.00000E+000	-5.06329E-004	-3.59960E-001	-1.09485E+000	3.57660E+000	10	...........
	45	0.613333	7.84495E-002	-6.01251E-003	0.00000E+000	-4.71678E-004	-3.59960E-001	-1.08453E+000	3.57660E+000	10	...........
	46	0.626667	7.28119E-002	-6.01697E-003	0.00000E+000	-4.38107E-004	-3.59960E-001	-1.08423E+000	3.57660E+000	10	...........
	47	0.64	6.72178E-002	-6.01423E-003	0.00000E+000	-4.04263E-004	-3.59960E-001	-1.09483E+000	3.57660E+000	10	...........
	48	0.653333	6.16549E-002	-6.01528E-003	0.00000E+000	-3.70871E-004	-3.59960E-001	-1.08433E+000	3.57660E+000	10	...........
	49	0.666667	5.61655E-002	-6.01695E-003	0.00000E+000	-3.37944E-004	-3.59960E-001	-1.08398E+000	3.57660E+000	10	...........
	50	0.68	5.06700E-002	-6.01291E-003	0.00000E+000	-3.04674E-004	-3.59960E-001	-1.09485E+000	3.57660E+000	10	...........
	51	0.693333	4.53065E-002	-6.01120E-003	0.00000E+000	-2.72346E-004	-3.59960E-001	-1.08437E+000	3.57660E+000	10	...........
	52	0.706667	3.99332E-002	-6.01857E-003	0.00000E+000	-2.40341E-004	-3.59960E-001	-1.08371E+000	3.57660E+000	10	...........
	53	0.72	3.46471E-002	-6.01637E-003	0.00000E+000	-2.08450E-004	-3.59960E-001	-1.09455E+000	3.57660E+000	10	...........
	54	0.733333	2.93506E-002	-6.01263E-003	0.00000E+000	-1.76474E-004	-3.59960E-001	-1.08454E+000	3.57660E+000	10	...........
	55	0.746667	2.41048E-002	-6.01243E-003	0.00000E+000	-1.44928E-004	-3.59960E-001	-1.08381E+000	3.57660E+000	10	...........
	56	0.76	1.89175E-002	-6.01537E-003	0.00000E+000	-1.13795E-004	-3.59960E-001	-1.09467E+000	3.57660E+000	10	...........
	57	0.773333	1.37282E-002	-6.00955E-003	0.00000E+000	-8.25006E-005	-3.59960E-001	-1.08447E+000	3.57660E+000	10	...........
	58	0.786667	8.59333E-003	-6.01677E-003	0.00000E+000	-5.17041E-005	-3.59960E-001	-1.08335E+000	3.57660E+000	10	...........
	59	0.8	3.51065E-003	-6.01695E-003	0.00000E+000	-2.11234E-005	-3.59960E-001	-1.09438E+000	3.57660E+000	10	...........
	60	0.805	5.96842E-005	-6.01228E-003	0.00000E+000	-3.58838E-007	-3.59960E-001	-1.07220E+000	3.57660E+000	10	...........
STARTTIMEOFFSET	QUANT	613.7647	Start Time Offset (s)
