EXPLAIN
TAG	PWR800_DISCHARGE
TITLE	LABEL	PWR Cyclic Charge Discharge (Cell) - Discharge Step	Test &Identifier
DATE	LABEL	22-6-2017	Date
TIME	LABEL	15:55:25	Time
NOTES	NOTES	3	&Notes...
	supercap test cell
	0.6mg
	6M KOH
PSTAT	PSTAT	IFC5000-01520	Potentiostat
CAPACITY	QUANT	1.00000E-003	Capacity (A-hr)
CELLTYPE	SELECTOR	1	&Cell Type
WORKINGCONNECTION	SELECTOR	0	&Working Lead
MAXDISCHARGETIME	VARIABLEANDUNITS	1.00000E+002	s	1.00000E+002	second(s)	Max &Discharge Time
DISCHARGEMODE	MULTIPARAM	0	6.00000E-003	&Discharge Mode	Constant Current	Amp(s)
SAMPLETIME	QUANT	1.00000E-002	Sa&mple Period (s)
DISCHARGESTOPAT1	MULTIPARAM	3	0.00000E+000	Discharge Stop At &1	Voltage < Limit	V
DISCHARGESTOPAT2	MULTIPARAM	0	0.00000E+000	Discharge Stop At &2	None	N/A
AESBHCSELECTOR	TOGGLE	F	Save Both Half Cells
IRCOMP	TOGGLE	F	IR &Measure
EOC	QUANT	0	Open Circuit (V)
SEQUENCER	TOGGLE	TRUE	Run as Sequence
PSTATMODEL	IQUANT	53	Pstat Model
PSTATSECTION	LABEL	IFC5000-01520	Pstat Section
PSTATSERIALNO	LABEL	01520	Pstat Serial Number
CTRLMODE	IQUANT	0	Control Mode
ELECTROMETER	IQUANT	1	RE=0 or CS=1
IESTAB	IQUANT	0	I/E Stability
CASPEED	IQUANT	4	Control Amp Speed
CONVENTION	IQUANT	1	Current Convention
ICHRANGE	IQUANT	2	Ich Range
ICHRANGEMODE	TOGGLE	T	Ich Auto Range
ICHOFFSETENABLE	TOGGLE	F	Ich Offset Enable
ICHOFFSET	QUANT	0	Ich Offset (V)
ICHFILTER	IQUANT	1	Ich Filter
VCHRANGE	IQUANT	2	Vch Range
VCHRANGEMODE	TOGGLE	T	Vch Auto Range
VCHOFFSETENABLE	TOGGLE	F	Vch Offset Enable
VCHOFFSET	QUANT	0	Vch Offset (V)
VCHFILTER	IQUANT	1	Vch Filter
IERANGELOWERLIMIT	IQUANT	9	I/E Range Lower Limit
IERANGEMODE	TOGGLE	F	I/E AutoRange
IERANGE	IQUANT	10	I/E Range
ACHSELECT	IQUANT	1	Ach Select
ACHRANGE	IQUANT	2	Ach Range
ACHOFFSETENABLE	TOGGLE	F	Ach Offset Enable
ACHOFFSET	QUANT	0	Ach Offset (V)
ACHFILTER	IQUANT	1	Ach Filter
CABLEID	IQUANT	14	Cable ID
DCCALDATE	LABEL	20-10-2016	DC Calibration Date
ACCALDATE	LABEL	12/3/2015	AC Calibration Date
FRAMEWORKVERSION	QUANT	7.01	Framework Version
INSTRUMENTVERSION	LABEL	4.00	Instrument Version
CURVE	TABLE	58
	Pt	T	Vf	Im	Vu	Pwr	Sig	Ach	Temp	IERange	Over
	#	s	V	A	V	W	V	V	deg C	#	bits
	0	0.013333	3.95695E-001	-6.01423E-003	0.00000E+000	-2.37980E-003	-3.59960E-001	-1.09768E+000	3.57680E+000	10	...........
	1	0.026667	3.84637E-001	-6.01362E-003	0.00000E+000	-2.31306E-003	-3.59960E-001	-1.10660E+000	3.57680E+000	10	...........
	2	0.04	3.74351E-001	-6.01509E-003	0.00000E+000	-2.25175E-003	-3.59960E-001	-1.09646E+000	3.57680E+000	10	...........
	3	0.053333	3.64582E-001	-6.01471E-003	0.00000E+000	-2.19286E-003	-3.59960E-001	-1.09803E+000	3.57680E+000	10	...........
	4	0.066667	3.55210E-001	-6.01107E-003	0.00000E+000	-2.13520E-003	-3.59960E-001	-1.10622E+000	3.57680E+000	10	...........
	5	0.08	3.46064E-001	-6.01265E-003	0.00000E+000	-2.08076E-003	-3.59960E-001	-1.09624E+000	3.57680E+000	10	...........
	6	0.093333	3.37152E-001	-6.01875E-003	0.00000E+000	-2.02923E-003	-3.59960E-001	-1.09808E+000	3.57680E+000	10	...........
	7	0.106667	3.28459E-001	-6.01307E-003	0.00000E+000	-1.97505E-003	-3.59960E-001	-1.10663E+000	3.57680E+000	10	...........
	8	0.12	3.19910E-001	-6.01300E-003	0.00000E+000	-1.92362E-003	-3.59960E-001	-1.09668E+000	3.57680E+000	10	...........
	9	0.133333	3.11514E-001	-6.00897E-003	0.00000E+000	-1.87188E-003	-3.59960E-001	-1.09876E+000	3.57680E+000	10	...........
	10	0.146667	3.03183E-001	-6.01226E-003	0.00000E+000	-1.82282E-003	-3.59960E-001	-1.10708E+000	3.57680E+000	10	...........
	11	0.16	2.95015E-001	-6.01126E-003	0.00000E+000	-1.77341E-003	-3.59960E-001	-1.09723E+000	3.57680E+000	10	...........
	12	0.173333	2.86928E-001	-6.01555E-003	0.00000E+000	-1.72603E-003	-3.59960E-001	-1.09891E+000	3.57680E+000	10	...........
	13	0.186667	2.78997E-001	-6.00945E-003	0.00000E+000	-1.67662E-003	-3.59960E-001	-1.10773E+000	3.57680E+000	10	...........
	14	0.2	2.71118E-001	-6.01220E-003	0.00000E+000	-1.63001E-003	-3.59960E-001	-1.09749E+000	3.57680E+000	10	...........
	15	0.213333	2.63395E-001	-6.01373E-003	0.00000E+000	-1.58399E-003	-3.59960E-001	-1.09942E+000	3.57680E+000	10	...........
	16	0.226667	2.55730E-001	-6.00958E-003	0.00000E+000	-1.53683E-003	-3.59960E-001	-1.10816E+000	3.57680E+000	10	...........
	17	0.24	2.48195E-001	-6.01388E-003	0.00000E+000	-1.49262E-003	-3.59960E-001	-1.09815E+000	3.57680E+000	10	...........
	18	0.253333	2.40727E-001	-6.01215E-003	0.00000E+000	-1.44728E-003	-3.59960E-001	-1.09991E+000	3.57680E+000	10	...........
	19	0.266667	2.33290E-001	-6.01215E-003	0.00000E+000	-1.40257E-003	-3.59960E-001	-1.10835E+000	3.57680E+000	10	...........
	20	0.28	2.25965E-001	-6.01383E-003	0.00000E+000	-1.35891E-003	-3.59960E-001	-1.09858E+000	3.57680E+000	10	...........
	21	0.293333	2.18748E-001	-6.01563E-003	0.00000E+000	-1.31591E-003	-3.59960E-001	-1.10062E+000	3.57680E+000	10	...........
	22	0.306667	2.11618E-001	-6.01642E-003	0.00000E+000	-1.27318E-003	-3.59960E-001	-1.10907E+000	3.57680E+000	10	...........
	23	0.32	2.04505E-001	-6.01292E-003	0.00000E+000	-1.22967E-003	-3.59960E-001	-1.09904E+000	3.57680E+000	10	...........
	24	0.333333	1.97528E-001	-6.01460E-003	0.00000E+000	-1.18805E-003	-3.59960E-001	-1.10062E+000	3.57680E+000	10	...........
	25	0.346667	1.90560E-001	-6.01543E-003	0.00000E+000	-1.14630E-003	-3.59960E-001	-1.10896E+000	3.57680E+000	10	...........
	26	0.36	1.83685E-001	-6.01203E-003	0.00000E+000	-1.10432E-003	-3.59960E-001	-1.09871E+000	3.57680E+000	10	...........
	27	0.373333	1.76907E-001	-6.01253E-003	0.00000E+000	-1.06366E-003	-3.59960E-001	-1.10065E+000	3.57680E+000	10	...........
	28	0.386667	1.70197E-001	-6.01578E-003	0.00000E+000	-1.02386E-003	-3.59960E-001	-1.10877E+000	3.57680E+000	10	...........
	29	0.4	1.63545E-001	-6.01389E-003	0.00000E+000	-9.83542E-004	-3.59960E-001	-1.09848E+000	3.57680E+000	10	...........
	30	0.413333	1.56941E-001	-6.01342E-003	0.00000E+000	-9.43751E-004	-3.59960E-001	-1.10045E+000	3.57680E+000	10	...........
	31	0.426667	1.50443E-001	-6.01294E-003	0.00000E+000	-9.04606E-004	-3.59960E-001	-1.10901E+000	3.57650E+000	10	...........
	32	0.44	1.43970E-001	-6.01158E-003	0.00000E+000	-8.65485E-004	-3.59960E-001	-1.09897E+000	3.57650E+000	10	...........
	33	0.453333	1.37561E-001	-6.01246E-003	0.00000E+000	-8.27077E-004	-3.59960E-001	-1.10082E+000	3.57650E+000	10	...........
	34	0.466667	1.31222E-001	-6.01516E-003	0.00000E+000	-7.89322E-004	-3.59960E-001	-1.10905E+000	3.57650E+000	10	...........
	35	0.48	1.24967E-001	-6.01716E-003	0.00000E+000	-7.51948E-004	-3.59960E-001	-1.09912E+000	3.57650E+000	10	...........
	36	0.493333	1.18751E-001	-6.01535E-003	0.00000E+000	-7.14330E-004	-3.59960E-001	-1.10080E+000	3.57650E+000	10	...........
	37	0.506667	1.12576E-001	-6.01780E-003	0.00000E+000	-6.77461E-004	-3.59960E-001	-1.10905E+000	3.57650E+000	10	...........
	38	0.52	1.06516E-001	-6.01666E-003	0.00000E+000	-6.40870E-004	-3.59960E-001	-1.09890E+000	3.57650E+000	10	...........
	39	0.533333	1.00478E-001	-6.01242E-003	0.00000E+000	-6.04115E-004	-3.59960E-001	-1.10069E+000	3.57650E+000	10	...........
	40	0.546667	9.44721E-002	-6.01705E-003	0.00000E+000	-5.68444E-004	-3.59960E-001	-1.10865E+000	3.57650E+000	10	...........
	41	0.56	8.85457E-002	-6.01639E-003	0.00000E+000	-5.32725E-004	-3.59960E-001	-1.09838E+000	3.57650E+000	10	...........
	42	0.573333	8.26851E-002	-6.01553E-003	0.00000E+000	-4.97394E-004	-3.59960E-001	-1.10070E+000	3.57650E+000	10	...........
	43	0.586667	7.68568E-002	-6.01380E-003	0.00000E+000	-4.62201E-004	-3.59960E-001	-1.10906E+000	3.57650E+000	10	...........
	44	0.6	7.10685E-002	-6.01521E-003	0.00000E+000	-4.27492E-004	-3.59960E-001	-1.09885E+000	3.57650E+000	10	...........
	45	0.613333	6.53250E-002	-6.01630E-003	0.00000E+000	-3.93015E-004	-3.59960E-001	-1.10078E+000	3.57650E+000	10	...........
	46	0.626667	5.96606E-002	-6.01298E-003	0.00000E+000	-3.58738E-004	-3.59960E-001	-1.10908E+000	3.57650E+000	10	...........
	47	0.64	5.40179E-002	-6.01582E-003	0.00000E+000	-3.24962E-004	-3.59960E-001	-1.09873E+000	3.57650E+000	10	...........
	48	0.653333	4.84904E-002	-6.01612E-003	0.00000E+000	-2.91724E-004	-3.59960E-001	-1.10049E+000	3.57650E+000	10	...........
	49	0.666667	4.29743E-002	-6.01640E-003	0.00000E+000	-2.58551E-004	-3.59960E-001	-1.10845E+000	3.57650E+000	10	...........
	50	0.68	3.75472E-002	-6.00990E-003	0.00000E+000	-2.25655E-004	-3.59960E-001	-1.09828E+000	3.57650E+000	10	...........
	51	0.693333	3.21093E-002	-6.01428E-003	0.00000E+000	-1.93114E-004	-3.59960E-001	-1.10008E+000	3.57650E+000	10	...........
	52	0.706667	2.66863E-002	-6.01765E-003	0.00000E+000	-1.60589E-004	-3.59960E-001	-1.10796E+000	3.57650E+000	10	...........
	53	0.72	2.13740E-002	-6.01111E-003	0.00000E+000	-1.28482E-004	-3.59960E-001	-1.09797E+000	3.57650E+000	10	...........
	54	0.733333	1.60673E-002	-6.01272E-003	0.00000E+000	-9.66081E-005	-3.59960E-001	-1.09976E+000	3.57650E+000	10	...........
	55	0.746667	1.08113E-002	-6.01584E-003	0.00000E+000	-6.50389E-005	-3.59960E-001	-1.10782E+000	3.57650E+000	10	...........
	56	0.76	5.60511E-003	-6.01364E-003	0.00000E+000	-3.37071E-005	-3.59960E-001	-1.09776E+000	3.57650E+000	10	...........
	57	0.77	1.09387E-003	-6.01440E-003	0.00000E+000	-6.57899E-006	-3.59960E-001	-1.10467E+000	3.57650E+000	10	...........
STARTTIMEOFFSET	QUANT	839.757	Start Time Offset (s)
