EXPLAIN
TAG	PWR800_DISCHARGE
TITLE	LABEL	PWR Cyclic Charge Discharge (Cell) - Discharge Step	Test &Identifier
DATE	LABEL	22-6-2017	Date
TIME	LABEL	15:59:54	Time
NOTES	NOTES	3	&Notes...
	supercap test cell
	0.6mg
	6M KOH
PSTAT	PSTAT	IFC5000-01520	Potentiostat
CAPACITY	QUANT	1.00000E-003	Capacity (A-hr)
CELLTYPE	SELECTOR	1	&Cell Type
WORKINGCONNECTION	SELECTOR	0	&Working Lead
MAXDISCHARGETIME	VARIABLEANDUNITS	1.00000E+002	s	1.00000E+002	second(s)	Max &Discharge Time
DISCHARGEMODE	MULTIPARAM	0	6.00000E-003	&Discharge Mode	Constant Current	Amp(s)
SAMPLETIME	QUANT	1.00000E-002	Sa&mple Period (s)
DISCHARGESTOPAT1	MULTIPARAM	3	0.00000E+000	Discharge Stop At &1	Voltage < Limit	V
DISCHARGESTOPAT2	MULTIPARAM	0	0.00000E+000	Discharge Stop At &2	None	N/A
AESBHCSELECTOR	TOGGLE	F	Save Both Half Cells
IRCOMP	TOGGLE	F	IR &Measure
EOC	QUANT	0	Open Circuit (V)
SEQUENCER	TOGGLE	TRUE	Run as Sequence
PSTATMODEL	IQUANT	53	Pstat Model
PSTATSECTION	LABEL	IFC5000-01520	Pstat Section
PSTATSERIALNO	LABEL	01520	Pstat Serial Number
CTRLMODE	IQUANT	0	Control Mode
ELECTROMETER	IQUANT	1	RE=0 or CS=1
IESTAB	IQUANT	0	I/E Stability
CASPEED	IQUANT	4	Control Amp Speed
CONVENTION	IQUANT	1	Current Convention
ICHRANGE	IQUANT	2	Ich Range
ICHRANGEMODE	TOGGLE	T	Ich Auto Range
ICHOFFSETENABLE	TOGGLE	F	Ich Offset Enable
ICHOFFSET	QUANT	0	Ich Offset (V)
ICHFILTER	IQUANT	1	Ich Filter
VCHRANGE	IQUANT	2	Vch Range
VCHRANGEMODE	TOGGLE	T	Vch Auto Range
VCHOFFSETENABLE	TOGGLE	F	Vch Offset Enable
VCHOFFSET	QUANT	0	Vch Offset (V)
VCHFILTER	IQUANT	1	Vch Filter
IERANGELOWERLIMIT	IQUANT	9	I/E Range Lower Limit
IERANGEMODE	TOGGLE	F	I/E AutoRange
IERANGE	IQUANT	10	I/E Range
ACHSELECT	IQUANT	1	Ach Select
ACHRANGE	IQUANT	2	Ach Range
ACHOFFSETENABLE	TOGGLE	F	Ach Offset Enable
ACHOFFSET	QUANT	0	Ach Offset (V)
ACHFILTER	IQUANT	1	Ach Filter
CABLEID	IQUANT	14	Cable ID
DCCALDATE	LABEL	20-10-2016	DC Calibration Date
ACCALDATE	LABEL	12/3/2015	AC Calibration Date
FRAMEWORKVERSION	QUANT	7.01	Framework Version
INSTRUMENTVERSION	LABEL	4.00	Instrument Version
CURVE	TABLE	56
	Pt	T	Vf	Im	Vu	Pwr	Sig	Ach	Temp	IERange	Over
	#	s	V	A	V	W	V	V	deg C	#	bits
	0	0.013333	3.90614E-001	-6.01541E-003	0.00000E+000	-2.34970E-003	-3.59960E-001	-1.11344E+000	3.57640E+000	10	...........
	1	0.026667	3.79366E-001	-6.01055E-003	0.00000E+000	-2.28020E-003	-3.59960E-001	-1.11330E+000	3.57640E+000	10	...........
	2	0.04	3.68913E-001	-6.01682E-003	0.00000E+000	-2.21968E-003	-3.59960E-001	-1.12395E+000	3.57640E+000	10	...........
	3	0.053333	3.58993E-001	-6.01236E-003	0.00000E+000	-2.15839E-003	-3.59960E-001	-1.11371E+000	3.57640E+000	10	...........
	4	0.066667	3.49458E-001	-6.01133E-003	0.00000E+000	-2.10071E-003	-3.59960E-001	-1.11335E+000	3.57640E+000	10	...........
	5	0.08	3.40228E-001	-6.01407E-003	0.00000E+000	-2.04615E-003	-3.59960E-001	-1.12422E+000	3.57640E+000	10	...........
	6	0.093333	3.31147E-001	-6.01273E-003	0.00000E+000	-1.99110E-003	-3.59960E-001	-1.11403E+000	3.57640E+000	10	...........
	7	0.106667	3.22283E-001	-6.01714E-003	0.00000E+000	-1.93922E-003	-3.59960E-001	-1.11346E+000	3.57640E+000	10	...........
	8	0.12	3.13619E-001	-6.01406E-003	0.00000E+000	-1.88612E-003	-3.59960E-001	-1.12441E+000	3.57640E+000	10	...........
	9	0.133333	3.05081E-001	-6.01122E-003	0.00000E+000	-1.83391E-003	-3.59960E-001	-1.11438E+000	3.57640E+000	10	...........
	10	0.146667	2.96677E-001	-6.01357E-003	0.00000E+000	-1.78409E-003	-3.59960E-001	-1.11421E+000	3.57640E+000	10	...........
	11	0.16	2.88365E-001	-6.01461E-003	0.00000E+000	-1.73440E-003	-3.59960E-001	-1.12472E+000	3.57640E+000	10	...........
	12	0.173333	2.80178E-001	-6.01368E-003	0.00000E+000	-1.68490E-003	-3.59960E-001	-1.11460E+000	3.57640E+000	10	...........
	13	0.186667	2.72129E-001	-6.01350E-003	0.00000E+000	-1.63645E-003	-3.59960E-001	-1.11392E+000	3.57640E+000	10	...........
	14	0.2	2.64172E-001	-6.01384E-003	0.00000E+000	-1.58869E-003	-3.59960E-001	-1.12505E+000	3.57640E+000	10	...........
	15	0.213333	2.56287E-001	-6.00915E-003	0.00000E+000	-1.54007E-003	-3.59960E-001	-1.11496E+000	3.57640E+000	10	...........
	16	0.226667	2.48506E-001	-6.01610E-003	0.00000E+000	-1.49503E-003	-3.59960E-001	-1.11375E+000	3.57640E+000	10	...........
	17	0.24	2.40875E-001	-6.01722E-003	0.00000E+000	-1.44940E-003	-3.59960E-001	-1.12447E+000	3.57640E+000	10	...........
	18	0.253333	2.33268E-001	-6.01708E-003	0.00000E+000	-1.40359E-003	-3.59960E-001	-1.11451E+000	3.57640E+000	10	...........
	19	0.266667	2.25797E-001	-6.01608E-003	0.00000E+000	-1.35841E-003	-3.59960E-001	-1.11379E+000	3.57640E+000	10	...........
	20	0.28	2.18406E-001	-6.01533E-003	0.00000E+000	-1.31378E-003	-3.59960E-001	-1.12486E+000	3.57640E+000	10	...........
	21	0.293333	2.11088E-001	-6.01376E-003	0.00000E+000	-1.26944E-003	-3.59960E-001	-1.11504E+000	3.57640E+000	10	...........
	22	0.306667	2.03825E-001	-6.01276E-003	0.00000E+000	-1.22555E-003	-3.59960E-001	-1.11399E+000	3.57640E+000	10	...........
	23	0.32	1.96668E-001	-6.01495E-003	0.00000E+000	-1.18295E-003	-3.59960E-001	-1.12470E+000	3.57640E+000	10	...........
	24	0.333333	1.89575E-001	-6.00873E-003	0.00000E+000	-1.13910E-003	-3.59960E-001	-1.11514E+000	3.57640E+000	10	...........
	25	0.346667	1.82590E-001	-6.01423E-003	0.00000E+000	-1.09814E-003	-3.59960E-001	-1.11415E+000	3.57640E+000	10	...........
	26	0.36	1.75652E-001	-6.01947E-003	0.00000E+000	-1.05733E-003	-3.59960E-001	-1.12518E+000	3.57640E+000	10	...........
	27	0.373333	1.68773E-001	-6.01642E-003	0.00000E+000	-1.01541E-003	-3.59960E-001	-1.11522E+000	3.57640E+000	10	...........
	28	0.386667	1.61989E-001	-6.01395E-003	0.00000E+000	-9.74192E-004	-3.59960E-001	-1.11398E+000	3.57640E+000	10	...........
	29	0.4	1.55279E-001	-6.01869E-003	0.00000E+000	-9.34577E-004	-3.59960E-001	-1.12502E+000	3.57640E+000	10	...........
	30	0.413333	1.48653E-001	-6.01453E-003	0.00000E+000	-8.94076E-004	-3.59960E-001	-1.11542E+000	3.57640E+000	10	...........
	31	0.426667	1.42085E-001	-6.01285E-003	0.00000E+000	-8.54333E-004	-3.59960E-001	-1.11434E+000	3.57640E+000	10	...........
	32	0.44	1.35620E-001	-6.01193E-003	0.00000E+000	-8.15339E-004	-3.59960E-001	-1.12517E+000	3.57640E+000	10	...........
	33	0.453333	1.29133E-001	-6.01647E-003	0.00000E+000	-7.76921E-004	-3.59960E-001	-1.11561E+000	3.57640E+000	10	...........
	34	0.466667	1.22755E-001	-6.01140E-003	0.00000E+000	-7.37926E-004	-3.59960E-001	-1.11439E+000	3.57640E+000	10	...........
	35	0.48	1.16420E-001	-6.01492E-003	0.00000E+000	-7.00259E-004	-3.59960E-001	-1.12543E+000	3.57640E+000	10	...........
	36	0.493333	1.10150E-001	-6.01432E-003	0.00000E+000	-6.62479E-004	-3.59960E-001	-1.11600E+000	3.57640E+000	10	...........
	37	0.506667	1.03943E-001	-6.01854E-003	0.00000E+000	-6.25586E-004	-3.59960E-001	-1.11422E+000	3.57640E+000	10	...........
	38	0.52	9.78269E-002	-6.01691E-003	0.00000E+000	-5.88616E-004	-3.59960E-001	-1.12518E+000	3.57640E+000	10	...........
	39	0.533333	9.17466E-002	-6.01444E-003	0.00000E+000	-5.51804E-004	-3.59960E-001	-1.11588E+000	3.57640E+000	10	...........
	40	0.546667	8.57231E-002	-6.01103E-003	0.00000E+000	-5.15284E-004	-3.59960E-001	-1.11432E+000	3.57640E+000	10	...........
	41	0.56	7.97381E-002	-6.01605E-003	0.00000E+000	-4.79708E-004	-3.59960E-001	-1.12520E+000	3.57640E+000	10	...........
	42	0.573333	7.38327E-002	-6.01496E-003	0.00000E+000	-4.44101E-004	-3.59960E-001	-1.11553E+000	3.57640E+000	10	...........
	43	0.586667	6.79794E-002	-6.01964E-003	0.00000E+000	-4.09211E-004	-3.59960E-001	-1.11399E+000	3.57640E+000	10	...........
	44	0.6	6.22218E-002	-6.01540E-003	0.00000E+000	-3.74289E-004	-3.59960E-001	-1.12514E+000	3.57640E+000	10	...........
	45	0.613333	5.64883E-002	-6.01825E-003	0.00000E+000	-3.39961E-004	-3.59960E-001	-1.11589E+000	3.57640E+000	10	...........
	46	0.626667	5.07872E-002	-6.01445E-003	0.00000E+000	-3.05457E-004	-3.59960E-001	-1.11427E+000	3.57640E+000	10	...........
	47	0.64	4.51987E-002	-6.01367E-003	0.00000E+000	-2.71810E-004	-3.59960E-001	-1.12521E+000	3.57640E+000	10	...........
	48	0.653333	3.96063E-002	-6.01543E-003	0.00000E+000	-2.38249E-004	-3.59960E-001	-1.11606E+000	3.57640E+000	10	...........
	49	0.666667	3.40794E-002	-6.01133E-003	0.00000E+000	-2.04863E-004	-3.59960E-001	-1.11410E+000	3.57640E+000	10	...........
	50	0.68	2.85922E-002	-6.00981E-003	0.00000E+000	-1.71834E-004	-3.59960E-001	-1.12541E+000	3.57640E+000	10	...........
	51	0.693333	2.31764E-002	-6.01543E-003	0.00000E+000	-1.39416E-004	-3.59960E-001	-1.11605E+000	3.57640E+000	10	...........
	52	0.706667	1.77913E-002	-6.01190E-003	0.00000E+000	-1.06959E-004	-3.59960E-001	-1.11397E+000	3.57640E+000	10	...........
	53	0.72	1.24431E-002	-6.01003E-003	0.00000E+000	-7.47834E-005	-3.59960E-001	-1.12502E+000	3.57640E+000	10	...........
	54	0.733333	7.14069E-003	-6.01595E-003	0.00000E+000	-4.29581E-005	-3.59960E-001	-1.11615E+000	3.57640E+000	10	...........
	55	0.746667	1.91140E-003	-6.01637E-003	0.00000E+000	-1.14997E-005	-3.59960E-001	-1.11442E+000	3.57640E+000	10	...........
STARTTIMEOFFSET	QUANT	1016.187	Start Time Offset (s)
