EXPLAIN
TAG	PWR800_DISCHARGE
TITLE	LABEL	PWR Cyclic Charge Discharge (Cell) - Discharge Step	Test &Identifier
DATE	LABEL	22-6-2017	Date
TIME	LABEL	15:45:27	Time
NOTES	NOTES	3	&Notes...
	supercap test cell
	0.6mg
	6M KOH
PSTAT	PSTAT	IFC5000-01520	Potentiostat
CAPACITY	QUANT	1.00000E-003	Capacity (A-hr)
CELLTYPE	SELECTOR	1	&Cell Type
WORKINGCONNECTION	SELECTOR	0	&Working Lead
MAXDISCHARGETIME	VARIABLEANDUNITS	1.00000E+002	s	1.00000E+002	second(s)	Max &Discharge Time
DISCHARGEMODE	MULTIPARAM	0	6.00000E-003	&Discharge Mode	Constant Current	Amp(s)
SAMPLETIME	QUANT	1.00000E-002	Sa&mple Period (s)
DISCHARGESTOPAT1	MULTIPARAM	3	0.00000E+000	Discharge Stop At &1	Voltage < Limit	V
DISCHARGESTOPAT2	MULTIPARAM	0	0.00000E+000	Discharge Stop At &2	None	N/A
AESBHCSELECTOR	TOGGLE	F	Save Both Half Cells
IRCOMP	TOGGLE	F	IR &Measure
EOC	QUANT	0	Open Circuit (V)
SEQUENCER	TOGGLE	TRUE	Run as Sequence
PSTATMODEL	IQUANT	53	Pstat Model
PSTATSECTION	LABEL	IFC5000-01520	Pstat Section
PSTATSERIALNO	LABEL	01520	Pstat Serial Number
CTRLMODE	IQUANT	0	Control Mode
ELECTROMETER	IQUANT	1	RE=0 or CS=1
IESTAB	IQUANT	0	I/E Stability
CASPEED	IQUANT	4	Control Amp Speed
CONVENTION	IQUANT	1	Current Convention
ICHRANGE	IQUANT	2	Ich Range
ICHRANGEMODE	TOGGLE	T	Ich Auto Range
ICHOFFSETENABLE	TOGGLE	F	Ich Offset Enable
ICHOFFSET	QUANT	0	Ich Offset (V)
ICHFILTER	IQUANT	1	Ich Filter
VCHRANGE	IQUANT	2	Vch Range
VCHRANGEMODE	TOGGLE	T	Vch Auto Range
VCHOFFSETENABLE	TOGGLE	F	Vch Offset Enable
VCHOFFSET	QUANT	0	Vch Offset (V)
VCHFILTER	IQUANT	1	Vch Filter
IERANGELOWERLIMIT	IQUANT	9	I/E Range Lower Limit
IERANGEMODE	TOGGLE	F	I/E AutoRange
IERANGE	IQUANT	10	I/E Range
ACHSELECT	IQUANT	1	Ach Select
ACHRANGE	IQUANT	2	Ach Range
ACHOFFSETENABLE	TOGGLE	F	Ach Offset Enable
ACHOFFSET	QUANT	0	Ach Offset (V)
ACHFILTER	IQUANT	1	Ach Filter
CABLEID	IQUANT	14	Cable ID
DCCALDATE	LABEL	20-10-2016	DC Calibration Date
ACCALDATE	LABEL	12/3/2015	AC Calibration Date
FRAMEWORKVERSION	QUANT	7.01	Framework Version
INSTRUMENTVERSION	LABEL	4.00	Instrument Version
CURVE	TABLE	63
	Pt	T	Vf	Im	Vu	Pwr	Sig	Ach	Temp	IERange	Over
	#	s	V	A	V	W	V	V	deg C	#	bits
	0	0.013333	4.10904E-001	-6.01595E-003	0.00000E+000	-2.47198E-003	-3.59960E-001	-1.06071E+000	3.57690E+000	10	...........
	1	0.026667	4.00257E-001	-6.01294E-003	0.00000E+000	-2.40672E-003	-3.59960E-001	-1.05958E+000	3.57690E+000	10	...........
	2	0.04	3.90422E-001	-6.01153E-003	0.00000E+000	-2.34703E-003	-3.59960E-001	-1.06958E+000	3.57690E+000	10	...........
	3	0.053333	3.81075E-001	-6.01356E-003	0.00000E+000	-2.29162E-003	-3.59960E-001	-1.06099E+000	3.57690E+000	10	...........
	4	0.066667	3.72061E-001	-6.01229E-003	0.00000E+000	-2.23694E-003	-3.59960E-001	-1.06004E+000	3.57690E+000	10	...........
	5	0.08	3.63301E-001	-6.01308E-003	0.00000E+000	-2.18456E-003	-3.59960E-001	-1.06988E+000	3.57690E+000	10	...........
	6	0.093333	3.54756E-001	-6.01549E-003	0.00000E+000	-2.13403E-003	-3.59960E-001	-1.06148E+000	3.57690E+000	10	...........
	7	0.106667	3.46393E-001	-6.00888E-003	0.00000E+000	-2.08144E-003	-3.59960E-001	-1.05999E+000	3.57690E+000	10	...........
	8	0.12	3.38157E-001	-6.01432E-003	0.00000E+000	-2.03379E-003	-3.59960E-001	-1.07014E+000	3.57690E+000	10	...........
	9	0.133333	3.30084E-001	-6.01311E-003	0.00000E+000	-1.98483E-003	-3.59960E-001	-1.06152E+000	3.57670E+000	10	...........
	10	0.146667	3.22121E-001	-6.01334E-003	0.00000E+000	-1.93702E-003	-3.59960E-001	-1.06006E+000	3.57670E+000	10	...........
	11	0.16	3.14279E-001	-6.01905E-003	0.00000E+000	-1.89166E-003	-3.59960E-001	-1.07012E+000	3.57670E+000	10	...........
	12	0.173333	3.06534E-001	-6.01407E-003	0.00000E+000	-1.84351E-003	-3.59960E-001	-1.06136E+000	3.57670E+000	10	...........
	13	0.186667	2.98895E-001	-6.01588E-003	0.00000E+000	-1.79812E-003	-3.59960E-001	-1.06019E+000	3.57670E+000	10	...........
	14	0.2	2.91337E-001	-6.01059E-003	0.00000E+000	-1.75111E-003	-3.59960E-001	-1.07035E+000	3.57670E+000	10	...........
	15	0.213333	2.83827E-001	-6.01710E-003	0.00000E+000	-1.70781E-003	-3.59960E-001	-1.06172E+000	3.57670E+000	10	...........
	16	0.226667	2.76429E-001	-6.01419E-003	0.00000E+000	-1.66250E-003	-3.59960E-001	-1.06055E+000	3.57670E+000	10	...........
	17	0.24	2.69134E-001	-6.01347E-003	0.00000E+000	-1.61843E-003	-3.59960E-001	-1.07025E+000	3.57670E+000	10	...........
	18	0.253333	2.61918E-001	-6.01208E-003	0.00000E+000	-1.57467E-003	-3.59960E-001	-1.06196E+000	3.57670E+000	10	...........
	19	0.266667	2.54747E-001	-6.01456E-003	0.00000E+000	-1.53219E-003	-3.59960E-001	-1.06060E+000	3.57670E+000	10	...........
	20	0.28	2.47694E-001	-6.00973E-003	0.00000E+000	-1.48857E-003	-3.59960E-001	-1.07056E+000	3.57670E+000	10	...........
	21	0.293333	2.40734E-001	-6.01491E-003	0.00000E+000	-1.44800E-003	-3.59960E-001	-1.06221E+000	3.57670E+000	10	...........
	22	0.306667	2.33785E-001	-6.01808E-003	0.00000E+000	-1.40694E-003	-3.59960E-001	-1.06055E+000	3.57670E+000	10	...........
	23	0.32	2.26906E-001	-6.01527E-003	0.00000E+000	-1.36490E-003	-3.59960E-001	-1.07057E+000	3.57670E+000	10	...........
	24	0.333333	2.20116E-001	-6.01401E-003	0.00000E+000	-1.32378E-003	-3.59960E-001	-1.06237E+000	3.57670E+000	10	...........
	25	0.346667	2.13380E-001	-6.01323E-003	0.00000E+000	-1.28311E-003	-3.59960E-001	-1.06082E+000	3.57670E+000	10	...........
	26	0.36	2.06697E-001	-6.01389E-003	0.00000E+000	-1.24305E-003	-3.59960E-001	-1.07076E+000	3.57670E+000	10	...........
	27	0.373333	2.00111E-001	-6.01764E-003	0.00000E+000	-1.20419E-003	-3.59960E-001	-1.06261E+000	3.57670E+000	10	...........
	28	0.386667	1.93599E-001	-6.01453E-003	0.00000E+000	-1.16441E-003	-3.59960E-001	-1.06092E+000	3.57670E+000	10	...........
	29	0.4	1.87122E-001	-6.01432E-003	0.00000E+000	-1.12541E-003	-3.59960E-001	-1.07095E+000	3.57670E+000	10	...........
	30	0.413333	1.80725E-001	-6.01142E-003	0.00000E+000	-1.08642E-003	-3.59960E-001	-1.06298E+000	3.57670E+000	10	...........
	31	0.426667	1.74339E-001	-6.01125E-003	0.00000E+000	-1.04799E-003	-3.59960E-001	-1.06116E+000	3.57670E+000	10	...........
	32	0.44	1.68022E-001	-6.01159E-003	0.00000E+000	-1.01008E-003	-3.59960E-001	-1.07108E+000	3.57670E+000	10	...........
	33	0.453333	1.61770E-001	-6.01836E-003	0.00000E+000	-9.73589E-004	-3.59960E-001	-1.06294E+000	3.57670E+000	10	...........
	34	0.466667	1.55550E-001	-6.01302E-003	0.00000E+000	-9.35327E-004	-3.59960E-001	-1.06104E+000	3.57670E+000	10	...........
	35	0.48	1.49451E-001	-6.01110E-003	0.00000E+000	-8.98367E-004	-3.59960E-001	-1.07093E+000	3.57670E+000	10	...........
	36	0.493333	1.43350E-001	-6.01454E-003	0.00000E+000	-8.62186E-004	-3.59960E-001	-1.06287E+000	3.57670E+000	10	...........
	37	0.506667	1.37340E-001	-6.01344E-003	0.00000E+000	-8.25886E-004	-3.59960E-001	-1.06129E+000	3.57670E+000	10	...........
	38	0.52	1.31411E-001	-6.01345E-003	0.00000E+000	-7.90235E-004	-3.59960E-001	-1.07115E+000	3.57670E+000	10	...........
	39	0.533333	1.25479E-001	-6.01624E-003	0.00000E+000	-7.54909E-004	-3.59960E-001	-1.06325E+000	3.57670E+000	10	...........
	40	0.546667	1.19573E-001	-6.01556E-003	0.00000E+000	-7.19297E-004	-3.59960E-001	-1.06127E+000	3.57670E+000	10	...........
	41	0.56	1.13698E-001	-6.01465E-003	0.00000E+000	-6.83855E-004	-3.59960E-001	-1.07131E+000	3.57670E+000	10	...........
	42	0.573333	1.07925E-001	-6.01414E-003	0.00000E+000	-6.49074E-004	-3.59960E-001	-1.06307E+000	3.57670E+000	10	...........
	43	0.586667	1.02197E-001	-6.01423E-003	0.00000E+000	-6.14634E-004	-3.59960E-001	-1.06146E+000	3.57670E+000	10	...........
	44	0.6	9.65076E-002	-6.01594E-003	0.00000E+000	-5.80585E-004	-3.59960E-001	-1.07123E+000	3.57670E+000	10	...........
	45	0.613333	9.08643E-002	-6.01583E-003	0.00000E+000	-5.46624E-004	-3.59960E-001	-1.06331E+000	3.57670E+000	10	...........
	46	0.626667	8.52686E-002	-6.01716E-003	0.00000E+000	-5.13075E-004	-3.59960E-001	-1.06147E+000	3.57670E+000	10	...........
	47	0.64	7.97326E-002	-6.01926E-003	0.00000E+000	-4.79931E-004	-3.59960E-001	-1.07121E+000	3.57670E+000	10	...........
	48	0.653333	7.42189E-002	-6.01352E-003	0.00000E+000	-4.46317E-004	-3.59960E-001	-1.06349E+000	3.57670E+000	10	...........
	49	0.666667	6.87787E-002	-6.01167E-003	0.00000E+000	-4.13475E-004	-3.59960E-001	-1.06147E+000	3.57670E+000	10	...........
	50	0.68	6.33414E-002	-6.01358E-003	0.00000E+000	-3.80908E-004	-3.59960E-001	-1.07152E+000	3.57670E+000	10	...........
	51	0.693333	5.79295E-002	-6.01545E-003	0.00000E+000	-3.48472E-004	-3.59960E-001	-1.06382E+000	3.57670E+000	10	...........
	52	0.706667	5.25719E-002	-6.01543E-003	0.00000E+000	-3.16243E-004	-3.59960E-001	-1.06157E+000	3.57670E+000	10	...........
	53	0.72	4.72953E-002	-6.01304E-003	0.00000E+000	-2.84389E-004	-3.59960E-001	-1.07152E+000	3.57670E+000	10	...........
	54	0.733333	4.20692E-002	-6.01463E-003	0.00000E+000	-2.53031E-004	-3.59960E-001	-1.06392E+000	3.57670E+000	10	...........
	55	0.746667	3.68530E-002	-6.01474E-003	0.00000E+000	-2.21662E-004	-3.59960E-001	-1.06183E+000	3.57670E+000	10	...........
	56	0.76	3.16665E-002	-6.01315E-003	0.00000E+000	-1.90416E-004	-3.59960E-001	-1.07174E+000	3.57670E+000	10	...........
	57	0.773333	2.65143E-002	-6.01745E-003	0.00000E+000	-1.59548E-004	-3.59960E-001	-1.06384E+000	3.57670E+000	10	...........
	58	0.786667	2.14106E-002	-6.01270E-003	0.00000E+000	-1.28735E-004	-3.59960E-001	-1.06146E+000	3.57670E+000	10	...........
	59	0.8	1.63093E-002	-6.01719E-003	0.00000E+000	-9.81361E-005	-3.59960E-001	-1.07133E+000	3.57670E+000	10	...........
	60	0.813333	1.12825E-002	-6.01516E-003	0.00000E+000	-6.78660E-005	-3.59960E-001	-1.06366E+000	3.57670E+000	10	...........
	61	0.826667	6.27635E-003	-6.01995E-003	0.00000E+000	-3.77833E-005	-3.59960E-001	-1.06140E+000	3.57670E+000	10	...........
	62	0.838333	1.62927E-003	-6.01489E-003	0.00000E+000	-9.79989E-006	-3.59960E-001	-1.07280E+000	3.57670E+000	10	...........
STARTTIMEOFFSET	QUANT	440.285	Start Time Offset (s)
