EXPLAIN
TAG	PWR800_DISCHARGE
TITLE	LABEL	PWR Cyclic Charge Discharge (Cell) - Discharge Step	Test &Identifier
DATE	LABEL	22-6-2017	Date
TIME	LABEL	15:45:14	Time
NOTES	NOTES	3	&Notes...
	supercap test cell
	0.6mg
	6M KOH
PSTAT	PSTAT	IFC5000-01520	Potentiostat
CAPACITY	QUANT	1.00000E-003	Capacity (A-hr)
CELLTYPE	SELECTOR	1	&Cell Type
WORKINGCONNECTION	SELECTOR	0	&Working Lead
MAXDISCHARGETIME	VARIABLEANDUNITS	1.00000E+002	s	1.00000E+002	second(s)	Max &Discharge Time
DISCHARGEMODE	MULTIPARAM	0	6.00000E-003	&Discharge Mode	Constant Current	Amp(s)
SAMPLETIME	QUANT	1.00000E-002	Sa&mple Period (s)
DISCHARGESTOPAT1	MULTIPARAM	3	0.00000E+000	Discharge Stop At &1	Voltage < Limit	V
DISCHARGESTOPAT2	MULTIPARAM	0	0.00000E+000	Discharge Stop At &2	None	N/A
AESBHCSELECTOR	TOGGLE	F	Save Both Half Cells
IRCOMP	TOGGLE	F	IR &Measure
EOC	QUANT	0	Open Circuit (V)
SEQUENCER	TOGGLE	TRUE	Run as Sequence
PSTATMODEL	IQUANT	53	Pstat Model
PSTATSECTION	LABEL	IFC5000-01520	Pstat Section
PSTATSERIALNO	LABEL	01520	Pstat Serial Number
CTRLMODE	IQUANT	0	Control Mode
ELECTROMETER	IQUANT	1	RE=0 or CS=1
IESTAB	IQUANT	0	I/E Stability
CASPEED	IQUANT	4	Control Amp Speed
CONVENTION	IQUANT	1	Current Convention
ICHRANGE	IQUANT	2	Ich Range
ICHRANGEMODE	TOGGLE	T	Ich Auto Range
ICHOFFSETENABLE	TOGGLE	F	Ich Offset Enable
ICHOFFSET	QUANT	0	Ich Offset (V)
ICHFILTER	IQUANT	1	Ich Filter
VCHRANGE	IQUANT	2	Vch Range
VCHRANGEMODE	TOGGLE	T	Vch Auto Range
VCHOFFSETENABLE	TOGGLE	F	Vch Offset Enable
VCHOFFSET	QUANT	0	Vch Offset (V)
VCHFILTER	IQUANT	1	Vch Filter
IERANGELOWERLIMIT	IQUANT	9	I/E Range Lower Limit
IERANGEMODE	TOGGLE	F	I/E AutoRange
IERANGE	IQUANT	10	I/E Range
ACHSELECT	IQUANT	1	Ach Select
ACHRANGE	IQUANT	2	Ach Range
ACHOFFSETENABLE	TOGGLE	F	Ach Offset Enable
ACHOFFSET	QUANT	0	Ach Offset (V)
ACHFILTER	IQUANT	1	Ach Filter
CABLEID	IQUANT	14	Cable ID
DCCALDATE	LABEL	20-10-2016	DC Calibration Date
ACCALDATE	LABEL	12/3/2015	AC Calibration Date
FRAMEWORKVERSION	QUANT	7.01	Framework Version
INSTRUMENTVERSION	LABEL	4.00	Instrument Version
CURVE	TABLE	64
	Pt	T	Vf	Im	Vu	Pwr	Sig	Ach	Temp	IERange	Over
	#	s	V	A	V	W	V	V	deg C	#	bits
	0	0.013333	4.12444E-001	-6.01254E-003	0.00000E+000	-2.47984E-003	-3.59960E-001	-1.06807E+000	3.57820E+000	10	...........
	1	0.026667	4.01825E-001	-6.01311E-003	0.00000E+000	-2.41622E-003	-3.59960E-001	-1.07801E+000	3.57820E+000	10	...........
	2	0.04	3.91969E-001	-6.01336E-003	0.00000E+000	-2.35705E-003	-3.59960E-001	-1.06929E+000	3.57820E+000	10	...........
	3	0.053333	3.82599E-001	-6.01100E-003	0.00000E+000	-2.29980E-003	-3.59960E-001	-1.06828E+000	3.57820E+000	10	...........
	4	0.066667	3.73557E-001	-6.01443E-003	0.00000E+000	-2.24673E-003	-3.59960E-001	-1.07770E+000	3.57820E+000	10	...........
	5	0.08	3.64808E-001	-6.01628E-003	0.00000E+000	-2.19478E-003	-3.59960E-001	-1.06879E+000	3.57820E+000	10	...........
	6	0.093333	3.56222E-001	-6.01601E-003	0.00000E+000	-2.14303E-003	-3.59960E-001	-1.06784E+000	3.57820E+000	10	...........
	7	0.106667	3.47865E-001	-6.01177E-003	0.00000E+000	-2.09128E-003	-3.59960E-001	-1.07772E+000	3.57820E+000	10	...........
	8	0.12	3.39671E-001	-6.01302E-003	0.00000E+000	-2.04245E-003	-3.59960E-001	-1.06880E+000	3.57820E+000	10	...........
	9	0.133333	3.31591E-001	-6.01409E-003	0.00000E+000	-1.99422E-003	-3.59960E-001	-1.06773E+000	3.57820E+000	10	...........
	10	0.146667	3.23658E-001	-6.01055E-003	0.00000E+000	-1.94536E-003	-3.59960E-001	-1.07719E+000	3.57820E+000	10	...........
	11	0.16	3.15784E-001	-6.01580E-003	0.00000E+000	-1.89970E-003	-3.59960E-001	-1.06797E+000	3.57820E+000	10	...........
	12	0.173333	3.08010E-001	-6.01405E-003	0.00000E+000	-1.85239E-003	-3.59960E-001	-1.06708E+000	3.57820E+000	10	...........
	13	0.186667	3.00371E-001	-6.01681E-003	0.00000E+000	-1.80727E-003	-3.59960E-001	-1.07640E+000	3.57820E+000	10	...........
	14	0.2	2.92824E-001	-6.01154E-003	0.00000E+000	-1.76033E-003	-3.59960E-001	-1.06706E+000	3.57820E+000	10	...........
	15	0.213333	2.85385E-001	-6.01264E-003	0.00000E+000	-1.71592E-003	-3.59960E-001	-1.06505E+000	3.57820E+000	10	...........
	16	0.226667	2.77992E-001	-6.01700E-003	0.00000E+000	-1.67267E-003	-3.59960E-001	-1.07376E+000	3.57820E+000	10	...........
	17	0.24	2.70648E-001	-6.01442E-003	0.00000E+000	-1.62779E-003	-3.59960E-001	-1.06377E+000	3.57820E+000	10	...........
	18	0.253333	2.63420E-001	-6.01589E-003	0.00000E+000	-1.58471E-003	-3.59960E-001	-1.06192E+000	3.57820E+000	10	...........
	19	0.266667	2.56260E-001	-6.01369E-003	0.00000E+000	-1.54107E-003	-3.59960E-001	-1.07061E+000	3.57820E+000	10	...........
	20	0.28	2.49212E-001	-6.02017E-003	0.00000E+000	-1.50030E-003	-3.59960E-001	-1.06123E+000	3.57820E+000	10	...........
	21	0.293333	2.42167E-001	-6.01669E-003	0.00000E+000	-1.45704E-003	-3.59960E-001	-1.05961E+000	3.57820E+000	10	...........
	22	0.306667	2.35242E-001	-6.01607E-003	0.00000E+000	-1.41523E-003	-3.59960E-001	-1.06892E+000	3.57820E+000	10	...........
	23	0.32	2.28388E-001	-6.01769E-003	0.00000E+000	-1.37437E-003	-3.59960E-001	-1.06003E+000	3.57820E+000	10	...........
	24	0.333333	2.21590E-001	-6.01472E-003	0.00000E+000	-1.33280E-003	-3.59960E-001	-1.05923E+000	3.57820E+000	10	...........
	25	0.346667	2.14868E-001	-6.01915E-003	0.00000E+000	-1.29332E-003	-3.59960E-001	-1.06945E+000	3.57820E+000	10	...........
	26	0.36	2.08176E-001	-6.01549E-003	0.00000E+000	-1.25228E-003	-3.59960E-001	-1.06142E+000	3.57820E+000	10	...........
	27	0.373333	2.01598E-001	-6.01230E-003	0.00000E+000	-1.21207E-003	-3.59960E-001	-1.06090E+000	3.57820E+000	10	...........
	28	0.386667	1.95085E-001	-6.01447E-003	0.00000E+000	-1.17334E-003	-3.59960E-001	-1.07036E+000	3.57820E+000	10	...........
	29	0.4	1.88610E-001	-6.01628E-003	0.00000E+000	-1.13473E-003	-3.59960E-001	-1.06142E+000	3.57820E+000	10	...........
	30	0.413333	1.82206E-001	-6.01634E-003	0.00000E+000	-1.09621E-003	-3.59960E-001	-1.06041E+000	3.57820E+000	10	...........
	31	0.426667	1.75871E-001	-6.01351E-003	0.00000E+000	-1.05760E-003	-3.59960E-001	-1.07035E+000	3.57820E+000	10	...........
	32	0.44	1.69555E-001	-6.01034E-003	0.00000E+000	-1.01908E-003	-3.59960E-001	-1.06144E+000	3.57820E+000	10	...........
	33	0.453333	1.63247E-001	-6.01517E-003	0.00000E+000	-9.81959E-004	-3.59960E-001	-1.06042E+000	3.57820E+000	10	...........
	34	0.466667	1.57069E-001	-6.01592E-003	0.00000E+000	-9.44913E-004	-3.59960E-001	-1.06993E+000	3.57820E+000	10	...........
	35	0.48	1.50942E-001	-6.01622E-003	0.00000E+000	-9.08098E-004	-3.59960E-001	-1.06055E+000	3.57820E+000	10	...........
	36	0.493333	1.44838E-001	-6.01533E-003	0.00000E+000	-8.71247E-004	-3.59960E-001	-1.05938E+000	3.57820E+000	10	...........
	37	0.506667	1.38826E-001	-6.01187E-003	0.00000E+000	-8.34604E-004	-3.59960E-001	-1.06916E+000	3.57820E+000	10	...........
	38	0.52	1.32868E-001	-6.01080E-003	0.00000E+000	-7.98643E-004	-3.59960E-001	-1.06017E+000	3.57820E+000	10	...........
	39	0.533333	1.26944E-001	-6.01433E-003	0.00000E+000	-7.63485E-004	-3.59960E-001	-1.05910E+000	3.57820E+000	10	...........
	40	0.546667	1.21044E-001	-6.01317E-003	0.00000E+000	-7.27855E-004	-3.59960E-001	-1.06876E+000	3.57771E+000	10	...........
	41	0.56	1.15234E-001	-6.01033E-003	0.00000E+000	-6.92594E-004	-3.59960E-001	-1.06007E+000	3.57670E+000	10	...........
	42	0.573333	1.09433E-001	-6.01429E-003	0.00000E+000	-6.58160E-004	-3.59960E-001	-1.05929E+000	3.57670E+000	10	...........
	43	0.586667	1.03708E-001	-6.01474E-003	0.00000E+000	-6.23779E-004	-3.59960E-001	-1.06916E+000	3.57670E+000	10	...........
	44	0.6	9.80067E-002	-6.01293E-003	0.00000E+000	-5.89307E-004	-3.59960E-001	-1.06051E+000	3.57670E+000	10	...........
	45	0.613333	9.23422E-002	-6.01298E-003	0.00000E+000	-5.55252E-004	-3.59960E-001	-1.05966E+000	3.57670E+000	10	...........
	46	0.626667	8.67748E-002	-6.01159E-003	0.00000E+000	-5.21655E-004	-3.59960E-001	-1.06969E+000	3.57670E+000	10	...........
	47	0.64	8.12065E-002	-6.01208E-003	0.00000E+000	-4.88220E-004	-3.59960E-001	-1.06092E+000	3.57670E+000	10	...........
	48	0.653333	7.56979E-002	-6.00850E-003	0.00000E+000	-4.54830E-004	-3.59960E-001	-1.06005E+000	3.57670E+000	10	...........
	49	0.666667	7.02452E-002	-6.01172E-003	0.00000E+000	-4.22294E-004	-3.59960E-001	-1.06954E+000	3.57670E+000	10	...........
	50	0.68	6.48090E-002	-6.01237E-003	0.00000E+000	-3.89656E-004	-3.59960E-001	-1.06071E+000	3.57670E+000	10	...........
	51	0.693333	5.94190E-002	-6.01433E-003	0.00000E+000	-3.57365E-004	-3.59960E-001	-1.06006E+000	3.57670E+000	10	...........
	52	0.706667	5.40485E-002	-6.01204E-003	0.00000E+000	-3.24942E-004	-3.59960E-001	-1.06955E+000	3.57670E+000	10	...........
	53	0.72	4.87346E-002	-6.01061E-003	0.00000E+000	-2.92925E-004	-3.59960E-001	-1.06075E+000	3.57670E+000	10	...........
	54	0.733333	4.35179E-002	-6.01244E-003	0.00000E+000	-2.61649E-004	-3.59960E-001	-1.05973E+000	3.57670E+000	10	...........
	55	0.746667	3.82554E-002	-6.01431E-003	0.00000E+000	-2.30080E-004	-3.59960E-001	-1.06946E+000	3.57670E+000	10	...........
	56	0.76	3.30613E-002	-6.01184E-003	0.00000E+000	-1.98759E-004	-3.59960E-001	-1.06082E+000	3.57670E+000	10	...........
	57	0.773333	2.79055E-002	-6.01570E-003	0.00000E+000	-1.67871E-004	-3.59960E-001	-1.06002E+000	3.57670E+000	10	...........
	58	0.786667	2.28047E-002	-6.01558E-003	0.00000E+000	-1.37184E-004	-3.59960E-001	-1.06961E+000	3.57670E+000	10	...........
	59	0.8	1.77348E-002	-6.01047E-003	0.00000E+000	-1.06595E-004	-3.59960E-001	-1.06096E+000	3.57670E+000	10	...........
	60	0.813333	1.26876E-002	-6.01342E-003	0.00000E+000	-7.62957E-005	-3.59960E-001	-1.05986E+000	3.57670E+000	10	...........
	61	0.826667	7.69362E-003	-6.01689E-003	0.00000E+000	-4.62917E-005	-3.59960E-001	-1.06949E+000	3.57670E+000	10	...........
	62	0.84	2.70435E-003	-6.01586E-003	0.00000E+000	-1.62690E-005	-3.59960E-001	-1.06026E+000	3.57670E+000	10	...........
	63	0.841667	-6.33514E-005	-6.01512E-003	0.00000E+000	3.81066E-007	-3.59960E-001	-1.07208E+000	3.57670E+000	10	...........
STARTTIMEOFFSET	QUANT	431.8333	Start Time Offset (s)
