EXPLAIN
TAG	PWR800_DISCHARGE
TITLE	LABEL	PWR Cyclic Charge Discharge (Cell) - Discharge Step	Test &Identifier
DATE	LABEL	22-6-2017	Date
TIME	LABEL	16:00:30	Time
NOTES	NOTES	3	&Notes...
	supercap test cell
	0.6mg
	6M KOH
PSTAT	PSTAT	IFC5000-01520	Potentiostat
CAPACITY	QUANT	1.00000E-003	Capacity (A-hr)
CELLTYPE	SELECTOR	1	&Cell Type
WORKINGCONNECTION	SELECTOR	0	&Working Lead
MAXDISCHARGETIME	VARIABLEANDUNITS	1.00000E+002	s	1.00000E+002	second(s)	Max &Discharge Time
DISCHARGEMODE	MULTIPARAM	0	6.00000E-003	&Discharge Mode	Constant Current	Amp(s)
SAMPLETIME	QUANT	1.00000E-002	Sa&mple Period (s)
DISCHARGESTOPAT1	MULTIPARAM	3	0.00000E+000	Discharge Stop At &1	Voltage < Limit	V
DISCHARGESTOPAT2	MULTIPARAM	0	0.00000E+000	Discharge Stop At &2	None	N/A
AESBHCSELECTOR	TOGGLE	F	Save Both Half Cells
IRCOMP	TOGGLE	F	IR &Measure
EOC	QUANT	0	Open Circuit (V)
SEQUENCER	TOGGLE	TRUE	Run as Sequence
PSTATMODEL	IQUANT	53	Pstat Model
PSTATSECTION	LABEL	IFC5000-01520	Pstat Section
PSTATSERIALNO	LABEL	01520	Pstat Serial Number
CTRLMODE	IQUANT	0	Control Mode
ELECTROMETER	IQUANT	1	RE=0 or CS=1
IESTAB	IQUANT	0	I/E Stability
CASPEED	IQUANT	4	Control Amp Speed
CONVENTION	IQUANT	1	Current Convention
ICHRANGE	IQUANT	2	Ich Range
ICHRANGEMODE	TOGGLE	T	Ich Auto Range
ICHOFFSETENABLE	TOGGLE	F	Ich Offset Enable
ICHOFFSET	QUANT	0	Ich Offset (V)
ICHFILTER	IQUANT	1	Ich Filter
VCHRANGE	IQUANT	2	Vch Range
VCHRANGEMODE	TOGGLE	T	Vch Auto Range
VCHOFFSETENABLE	TOGGLE	F	Vch Offset Enable
VCHOFFSET	QUANT	0	Vch Offset (V)
VCHFILTER	IQUANT	1	Vch Filter
IERANGELOWERLIMIT	IQUANT	9	I/E Range Lower Limit
IERANGEMODE	TOGGLE	F	I/E AutoRange
IERANGE	IQUANT	10	I/E Range
ACHSELECT	IQUANT	1	Ach Select
ACHRANGE	IQUANT	2	Ach Range
ACHOFFSETENABLE	TOGGLE	F	Ach Offset Enable
ACHOFFSET	QUANT	0	Ach Offset (V)
ACHFILTER	IQUANT	1	Ach Filter
CABLEID	IQUANT	14	Cable ID
DCCALDATE	LABEL	20-10-2016	DC Calibration Date
ACCALDATE	LABEL	12/3/2015	AC Calibration Date
FRAMEWORKVERSION	QUANT	7.01	Framework Version
INSTRUMENTVERSION	LABEL	4.00	Instrument Version
CURVE	TABLE	56
	Pt	T	Vf	Im	Vu	Pwr	Sig	Ach	Temp	IERange	Over
	#	s	V	A	V	W	V	V	deg C	#	bits
	0	0.013333	3.89268E-001	-6.00989E-003	0.00000E+000	-2.33946E-003	-3.59960E-001	-1.12668E+000	3.57670E+000	10	...........
	1	0.026667	3.77967E-001	-6.01263E-003	0.00000E+000	-2.27258E-003	-3.59960E-001	-1.11693E+000	3.57670E+000	10	...........
	2	0.04	3.67532E-001	-6.01355E-003	0.00000E+000	-2.21017E-003	-3.59960E-001	-1.11634E+000	3.57670E+000	10	...........
	3	0.053333	3.57607E-001	-6.01320E-003	0.00000E+000	-2.15036E-003	-3.59960E-001	-1.12674E+000	3.57670E+000	10	...........
	4	0.066667	3.48062E-001	-6.01453E-003	0.00000E+000	-2.09343E-003	-3.59960E-001	-1.11681E+000	3.57670E+000	10	...........
	5	0.08	3.38751E-001	-6.01503E-003	0.00000E+000	-2.03759E-003	-3.59960E-001	-1.11650E+000	3.57670E+000	10	...........
	6	0.093333	3.29678E-001	-6.01564E-003	0.00000E+000	-1.98323E-003	-3.59960E-001	-1.12716E+000	3.57670E+000	10	...........
	7	0.106667	3.20817E-001	-6.01629E-003	0.00000E+000	-1.93013E-003	-3.59960E-001	-1.11722E+000	3.57670E+000	10	...........
	8	0.12	3.12149E-001	-6.01178E-003	0.00000E+000	-1.87657E-003	-3.59960E-001	-1.11670E+000	3.57670E+000	10	...........
	9	0.133333	3.03579E-001	-6.01399E-003	0.00000E+000	-1.82572E-003	-3.59960E-001	-1.12739E+000	3.57670E+000	10	...........
	10	0.146667	2.95140E-001	-6.01535E-003	0.00000E+000	-1.77537E-003	-3.59960E-001	-1.11739E+000	3.57670E+000	10	...........
	11	0.16	2.86856E-001	-6.01859E-003	0.00000E+000	-1.72647E-003	-3.59960E-001	-1.11688E+000	3.57670E+000	10	...........
	12	0.173333	2.78684E-001	-6.01534E-003	0.00000E+000	-1.67638E-003	-3.59960E-001	-1.12757E+000	3.57670E+000	10	...........
	13	0.186667	2.70626E-001	-6.01421E-003	0.00000E+000	-1.62760E-003	-3.59960E-001	-1.11737E+000	3.57670E+000	10	...........
	14	0.2	2.62630E-001	-6.00909E-003	0.00000E+000	-1.57816E-003	-3.59960E-001	-1.11678E+000	3.57670E+000	10	...........
	15	0.213333	2.54769E-001	-6.01568E-003	0.00000E+000	-1.53261E-003	-3.59960E-001	-1.12727E+000	3.57670E+000	10	...........
	16	0.226667	2.46970E-001	-6.01477E-003	0.00000E+000	-1.48547E-003	-3.59960E-001	-1.11740E+000	3.57670E+000	10	...........
	17	0.24	2.39314E-001	-6.01686E-003	0.00000E+000	-1.43992E-003	-3.59960E-001	-1.11678E+000	3.57670E+000	10	...........
	18	0.253333	2.31712E-001	-6.01679E-003	0.00000E+000	-1.39416E-003	-3.59960E-001	-1.12735E+000	3.57670E+000	10	...........
	19	0.266667	2.24211E-001	-6.01748E-003	0.00000E+000	-1.34918E-003	-3.59960E-001	-1.11726E+000	3.57670E+000	10	...........
	20	0.28	2.16783E-001	-6.01472E-003	0.00000E+000	-1.30389E-003	-3.59960E-001	-1.11720E+000	3.57670E+000	10	...........
	21	0.293333	2.09462E-001	-6.01288E-003	0.00000E+000	-1.25947E-003	-3.59960E-001	-1.12787E+000	3.57670E+000	10	...........
	22	0.306667	2.02205E-001	-6.01692E-003	0.00000E+000	-1.21665E-003	-3.59960E-001	-1.11741E+000	3.57670E+000	10	...........
	23	0.32	1.95048E-001	-6.01641E-003	0.00000E+000	-1.17349E-003	-3.59960E-001	-1.11688E+000	3.57670E+000	10	...........
	24	0.333333	1.87955E-001	-6.01011E-003	0.00000E+000	-1.12963E-003	-3.59960E-001	-1.12765E+000	3.57655E+000	10	...........
	25	0.346667	1.80887E-001	-6.01128E-003	0.00000E+000	-1.08736E-003	-3.59960E-001	-1.11771E+000	3.57640E+000	10	...........
	26	0.36	1.73966E-001	-6.01307E-003	0.00000E+000	-1.04607E-003	-3.59960E-001	-1.11727E+000	3.57640E+000	10	...........
	27	0.373333	1.67117E-001	-6.01721E-003	0.00000E+000	-1.00558E-003	-3.59960E-001	-1.12769E+000	3.57640E+000	10	...........
	28	0.386667	1.60357E-001	-6.01502E-003	0.00000E+000	-9.64552E-004	-3.59960E-001	-1.11754E+000	3.57640E+000	10	...........
	29	0.4	1.53636E-001	-6.01472E-003	0.00000E+000	-9.24080E-004	-3.59960E-001	-1.11696E+000	3.57640E+000	10	...........
	30	0.413333	1.47008E-001	-6.01443E-003	0.00000E+000	-8.84170E-004	-3.59960E-001	-1.12810E+000	3.57640E+000	10	...........
	31	0.426667	1.40455E-001	-6.01636E-003	0.00000E+000	-8.45025E-004	-3.59960E-001	-1.11789E+000	3.57640E+000	10	...........
	32	0.44	1.33954E-001	-6.01710E-003	0.00000E+000	-8.06014E-004	-3.59960E-001	-1.11744E+000	3.57640E+000	10	...........
	33	0.453333	1.27455E-001	-6.01995E-003	0.00000E+000	-7.67271E-004	-3.59960E-001	-1.12796E+000	3.57640E+000	10	...........
	34	0.466667	1.21063E-001	-6.01639E-003	0.00000E+000	-7.28360E-004	-3.59960E-001	-1.11786E+000	3.57640E+000	10	...........
	35	0.48	1.14781E-001	-6.01484E-003	0.00000E+000	-6.90387E-004	-3.59960E-001	-1.11758E+000	3.57640E+000	10	...........
	36	0.493333	1.08554E-001	-6.00994E-003	0.00000E+000	-6.52405E-004	-3.59960E-001	-1.12842E+000	3.57640E+000	10	...........
	37	0.506667	1.02344E-001	-6.01652E-003	0.00000E+000	-6.15756E-004	-3.59960E-001	-1.11814E+000	3.57640E+000	10	...........
	38	0.52	9.61798E-002	-6.01975E-003	0.00000E+000	-5.78979E-004	-3.59960E-001	-1.11742E+000	3.57640E+000	10	...........
	39	0.533333	9.01147E-002	-6.01326E-003	0.00000E+000	-5.41884E-004	-3.59960E-001	-1.12766E+000	3.57640E+000	10	...........
	40	0.546667	8.40950E-002	-6.01862E-003	0.00000E+000	-5.06136E-004	-3.59960E-001	-1.11776E+000	3.57640E+000	10	...........
	41	0.56	7.81740E-002	-6.01365E-003	0.00000E+000	-4.70111E-004	-3.59960E-001	-1.11738E+000	3.57640E+000	10	...........
	42	0.573333	7.22713E-002	-6.01213E-003	0.00000E+000	-4.34504E-004	-3.59960E-001	-1.12787E+000	3.57640E+000	10	...........
	43	0.586667	6.64135E-002	-6.01394E-003	0.00000E+000	-3.99407E-004	-3.59960E-001	-1.11751E+000	3.57640E+000	10	...........
	44	0.6	6.05986E-002	-6.01382E-003	0.00000E+000	-3.64429E-004	-3.59960E-001	-1.11743E+000	3.57640E+000	10	...........
	45	0.613333	5.48827E-002	-6.01662E-003	0.00000E+000	-3.30209E-004	-3.59960E-001	-1.12799E+000	3.57640E+000	10	...........
	46	0.626667	4.91873E-002	-6.01502E-003	0.00000E+000	-2.95863E-004	-3.59960E-001	-1.11774E+000	3.57640E+000	10	...........
	47	0.64	4.35739E-002	-6.01582E-003	0.00000E+000	-2.62133E-004	-3.59960E-001	-1.11773E+000	3.57640E+000	10	...........
	48	0.653333	3.79962E-002	-6.01559E-003	0.00000E+000	-2.28570E-004	-3.59960E-001	-1.12797E+000	3.57640E+000	10	...........
	49	0.666667	3.24231E-002	-6.01686E-003	0.00000E+000	-1.95085E-004	-3.59960E-001	-1.11767E+000	3.57640E+000	10	...........
	50	0.68	2.69442E-002	-6.01577E-003	0.00000E+000	-1.62090E-004	-3.59960E-001	-1.11752E+000	3.57640E+000	10	...........
	51	0.693333	2.15000E-002	-6.01866E-003	0.00000E+000	-1.29401E-004	-3.59960E-001	-1.12810E+000	3.57640E+000	10	...........
	52	0.706667	1.61319E-002	-6.01769E-003	0.00000E+000	-9.70765E-005	-3.59960E-001	-1.11784E+000	3.57640E+000	10	...........
	53	0.72	1.08294E-002	-6.01304E-003	0.00000E+000	-6.51176E-005	-3.59960E-001	-1.11732E+000	3.57640E+000	10	...........
	54	0.733333	5.52850E-003	-6.01206E-003	0.00000E+000	-3.32377E-005	-3.59960E-001	-1.12800E+000	3.57640E+000	10	...........
	55	0.741667	1.26023E-003	-6.01802E-003	0.00000E+000	-7.58408E-006	-3.59960E-001	-1.11012E+000	3.57640E+000	10	...........
STARTTIMEOFFSET	QUANT	1040.112	Start Time Offset (s)
