EXPLAIN
TAG	PWR800_DISCHARGE
TITLE	LABEL	PWR Cyclic Charge Discharge (Cell) - Discharge Step	Test &Identifier
DATE	LABEL	22-6-2017	Date
TIME	LABEL	15:59:15	Time
NOTES	NOTES	3	&Notes...
	supercap test cell
	0.6mg
	6M KOH
PSTAT	PSTAT	IFC5000-01520	Potentiostat
CAPACITY	QUANT	1.00000E-003	Capacity (A-hr)
CELLTYPE	SELECTOR	1	&Cell Type
WORKINGCONNECTION	SELECTOR	0	&Working Lead
MAXDISCHARGETIME	VARIABLEANDUNITS	1.00000E+002	s	1.00000E+002	second(s)	Max &Discharge Time
DISCHARGEMODE	MULTIPARAM	0	6.00000E-003	&Discharge Mode	Constant Current	Amp(s)
SAMPLETIME	QUANT	1.00000E-002	Sa&mple Period (s)
DISCHARGESTOPAT1	MULTIPARAM	3	0.00000E+000	Discharge Stop At &1	Voltage < Limit	V
DISCHARGESTOPAT2	MULTIPARAM	0	0.00000E+000	Discharge Stop At &2	None	N/A
AESBHCSELECTOR	TOGGLE	F	Save Both Half Cells
IRCOMP	TOGGLE	F	IR &Measure
EOC	QUANT	0	Open Circuit (V)
SEQUENCER	TOGGLE	TRUE	Run as Sequence
PSTATMODEL	IQUANT	53	Pstat Model
PSTATSECTION	LABEL	IFC5000-01520	Pstat Section
PSTATSERIALNO	LABEL	01520	Pstat Serial Number
CTRLMODE	IQUANT	0	Control Mode
ELECTROMETER	IQUANT	1	RE=0 or CS=1
IESTAB	IQUANT	0	I/E Stability
CASPEED	IQUANT	4	Control Amp Speed
CONVENTION	IQUANT	1	Current Convention
ICHRANGE	IQUANT	2	Ich Range
ICHRANGEMODE	TOGGLE	T	Ich Auto Range
ICHOFFSETENABLE	TOGGLE	F	Ich Offset Enable
ICHOFFSET	QUANT	0	Ich Offset (V)
ICHFILTER	IQUANT	1	Ich Filter
VCHRANGE	IQUANT	2	Vch Range
VCHRANGEMODE	TOGGLE	T	Vch Auto Range
VCHOFFSETENABLE	TOGGLE	F	Vch Offset Enable
VCHOFFSET	QUANT	0	Vch Offset (V)
VCHFILTER	IQUANT	1	Vch Filter
IERANGELOWERLIMIT	IQUANT	9	I/E Range Lower Limit
IERANGEMODE	TOGGLE	F	I/E AutoRange
IERANGE	IQUANT	10	I/E Range
ACHSELECT	IQUANT	1	Ach Select
ACHRANGE	IQUANT	2	Ach Range
ACHOFFSETENABLE	TOGGLE	F	Ach Offset Enable
ACHOFFSET	QUANT	0	Ach Offset (V)
ACHFILTER	IQUANT	1	Ach Filter
CABLEID	IQUANT	14	Cable ID
DCCALDATE	LABEL	20-10-2016	DC Calibration Date
ACCALDATE	LABEL	12/3/2015	AC Calibration Date
FRAMEWORKVERSION	QUANT	7.01	Framework Version
INSTRUMENTVERSION	LABEL	4.00	Instrument Version
CURVE	TABLE	57
	Pt	T	Vf	Im	Vu	Pwr	Sig	Ach	Temp	IERange	Over
	#	s	V	A	V	W	V	V	deg C	#	bits
	0	0.013333	3.91089E-001	-6.01343E-003	0.00000E+000	-2.35179E-003	-3.59960E-001	-1.11810E+000	3.57650E+000	10	...........
	1	0.026667	3.79850E-001	-6.01375E-003	0.00000E+000	-2.28432E-003	-3.59960E-001	-1.11698E+000	3.57650E+000	10	...........
	2	0.04	3.69436E-001	-6.01668E-003	0.00000E+000	-2.22278E-003	-3.59960E-001	-1.11049E+000	3.57650E+000	10	...........
	3	0.053333	3.59558E-001	-6.01291E-003	0.00000E+000	-2.16199E-003	-3.59960E-001	-1.11817E+000	3.57650E+000	10	...........
	4	0.066667	3.49989E-001	-6.01508E-003	0.00000E+000	-2.10521E-003	-3.59960E-001	-1.11735E+000	3.57650E+000	10	...........
	5	0.08	3.40724E-001	-6.01565E-003	0.00000E+000	-2.04967E-003	-3.59960E-001	-1.11052E+000	3.57650E+000	10	...........
	6	0.093333	3.31696E-001	-6.01484E-003	0.00000E+000	-1.99510E-003	-3.59960E-001	-1.11813E+000	3.57650E+000	10	...........
	7	0.106667	3.22890E-001	-6.01447E-003	0.00000E+000	-1.94202E-003	-3.59960E-001	-1.11727E+000	3.57650E+000	10	...........
	8	0.12	3.14220E-001	-6.01604E-003	0.00000E+000	-1.89036E-003	-3.59960E-001	-1.11073E+000	3.57650E+000	10	...........
	9	0.133333	3.05669E-001	-6.00886E-003	0.00000E+000	-1.83672E-003	-3.59960E-001	-1.11860E+000	3.57650E+000	10	...........
	10	0.146667	2.97251E-001	-6.01699E-003	0.00000E+000	-1.78856E-003	-3.59960E-001	-1.11760E+000	3.57650E+000	10	...........
	11	0.16	2.88975E-001	-6.01043E-003	0.00000E+000	-1.73687E-003	-3.59960E-001	-1.11077E+000	3.57650E+000	10	...........
	12	0.173333	2.80801E-001	-6.00955E-003	0.00000E+000	-1.68749E-003	-3.59960E-001	-1.11879E+000	3.57650E+000	10	...........
	13	0.186667	2.72757E-001	-6.01635E-003	0.00000E+000	-1.64100E-003	-3.59960E-001	-1.11790E+000	3.57650E+000	10	...........
	14	0.2	2.64787E-001	-6.01778E-003	0.00000E+000	-1.59343E-003	-3.59960E-001	-1.11125E+000	3.57650E+000	10	...........
	15	0.213333	2.56943E-001	-6.01387E-003	0.00000E+000	-1.54522E-003	-3.59960E-001	-1.11898E+000	3.57650E+000	10	...........
	16	0.226667	2.49187E-001	-6.01436E-003	0.00000E+000	-1.49870E-003	-3.59960E-001	-1.11788E+000	3.57650E+000	10	...........
	17	0.24	2.41535E-001	-6.01632E-003	0.00000E+000	-1.45315E-003	-3.59960E-001	-1.11118E+000	3.57650E+000	10	...........
	18	0.253333	2.33968E-001	-6.01640E-003	0.00000E+000	-1.40765E-003	-3.59960E-001	-1.11915E+000	3.57650E+000	10	...........
	19	0.266667	2.26497E-001	-6.01557E-003	0.00000E+000	-1.36251E-003	-3.59960E-001	-1.11808E+000	3.57650E+000	10	...........
	20	0.28	2.19069E-001	-6.01942E-003	0.00000E+000	-1.31867E-003	-3.59960E-001	-1.11149E+000	3.57650E+000	10	...........
	21	0.293333	2.11769E-001	-6.01690E-003	0.00000E+000	-1.27419E-003	-3.59960E-001	-1.11934E+000	3.57650E+000	10	...........
	22	0.306667	2.04542E-001	-6.01848E-003	0.00000E+000	-1.23103E-003	-3.59960E-001	-1.11849E+000	3.57650E+000	10	...........
	23	0.32	1.97421E-001	-6.01364E-003	0.00000E+000	-1.18722E-003	-3.59960E-001	-1.11186E+000	3.57650E+000	10	...........
	24	0.333333	1.90364E-001	-6.01363E-003	0.00000E+000	-1.14478E-003	-3.59960E-001	-1.11963E+000	3.57650E+000	10	...........
	25	0.346667	1.83336E-001	-6.01695E-003	0.00000E+000	-1.10312E-003	-3.59960E-001	-1.11864E+000	3.57650E+000	10	...........
	26	0.36	1.76442E-001	-6.01365E-003	0.00000E+000	-1.06106E-003	-3.59960E-001	-1.11204E+000	3.57650E+000	10	...........
	27	0.373333	1.69599E-001	-6.01441E-003	0.00000E+000	-1.02004E-003	-3.59960E-001	-1.11970E+000	3.57650E+000	10	...........
	28	0.386667	1.62810E-001	-6.01612E-003	0.00000E+000	-9.79486E-004	-3.59960E-001	-1.11888E+000	3.57650E+000	10	...........
	29	0.4	1.56116E-001	-6.02099E-003	0.00000E+000	-9.39971E-004	-3.59960E-001	-1.11156E+000	3.57650E+000	10	...........
	30	0.413333	1.49447E-001	-6.01421E-003	0.00000E+000	-8.98806E-004	-3.59960E-001	-1.11941E+000	3.57650E+000	10	...........
	31	0.426667	1.42866E-001	-6.01043E-003	0.00000E+000	-8.58683E-004	-3.59960E-001	-1.11844E+000	3.57650E+000	10	...........
	32	0.44	1.36351E-001	-6.01969E-003	0.00000E+000	-8.20789E-004	-3.59960E-001	-1.11158E+000	3.57650E+000	10	...........
	33	0.453333	1.29939E-001	-6.01587E-003	0.00000E+000	-7.81699E-004	-3.59960E-001	-1.11956E+000	3.57650E+000	10	...........
	34	0.466667	1.23597E-001	-6.01477E-003	0.00000E+000	-7.43405E-004	-3.59960E-001	-1.11870E+000	3.57650E+000	10	...........
	35	0.48	1.17275E-001	-6.01490E-003	0.00000E+000	-7.05400E-004	-3.59960E-001	-1.11180E+000	3.57650E+000	10	...........
	36	0.493333	1.11023E-001	-6.01599E-003	0.00000E+000	-6.67910E-004	-3.59960E-001	-1.11946E+000	3.57650E+000	10	...........
	37	0.506667	1.04851E-001	-6.01420E-003	0.00000E+000	-6.30595E-004	-3.59960E-001	-1.11855E+000	3.57650E+000	10	...........
	38	0.52	9.87178E-002	-6.01762E-003	0.00000E+000	-5.94046E-004	-3.59960E-001	-1.11179E+000	3.57650E+000	10	...........
	39	0.533333	9.26235E-002	-6.01625E-003	0.00000E+000	-5.57246E-004	-3.59960E-001	-1.11977E+000	3.57650E+000	10	...........
	40	0.546667	8.66239E-002	-6.01347E-003	0.00000E+000	-5.20910E-004	-3.59960E-001	-1.11847E+000	3.57650E+000	10	...........
	41	0.56	8.07115E-002	-6.01219E-003	0.00000E+000	-4.85253E-004	-3.59960E-001	-1.11187E+000	3.57650E+000	10	...........
	42	0.573333	7.47828E-002	-6.01610E-003	0.00000E+000	-4.49901E-004	-3.59960E-001	-1.11973E+000	3.57650E+000	10	...........
	43	0.586667	6.89233E-002	-6.01566E-003	0.00000E+000	-4.14619E-004	-3.59960E-001	-1.11862E+000	3.57650E+000	10	...........
	44	0.6	6.31203E-002	-6.00891E-003	0.00000E+000	-3.79284E-004	-3.59960E-001	-1.11197E+000	3.57650E+000	10	...........
	45	0.613333	5.73768E-002	-6.01373E-003	0.00000E+000	-3.45049E-004	-3.59960E-001	-1.11977E+000	3.57650E+000	10	...........
	46	0.626667	5.16812E-002	-6.01613E-003	0.00000E+000	-3.10921E-004	-3.59960E-001	-1.11881E+000	3.57650E+000	10	...........
	47	0.64	4.60749E-002	-6.01628E-003	0.00000E+000	-2.77200E-004	-3.59960E-001	-1.11215E+000	3.57650E+000	10	...........
	48	0.653333	4.05230E-002	-6.01261E-003	0.00000E+000	-2.43649E-004	-3.59960E-001	-1.12005E+000	3.57650E+000	10	...........
	49	0.666667	3.49699E-002	-6.01621E-003	0.00000E+000	-2.10386E-004	-3.59960E-001	-1.11896E+000	3.57650E+000	10	...........
	50	0.68	2.94839E-002	-6.02022E-003	0.00000E+000	-1.77499E-004	-3.59960E-001	-1.11210E+000	3.57650E+000	10	...........
	51	0.693333	2.40645E-002	-6.01405E-003	0.00000E+000	-1.44725E-004	-3.59960E-001	-1.11974E+000	3.57650E+000	10	...........
	52	0.706667	1.86620E-002	-6.01516E-003	0.00000E+000	-1.12255E-004	-3.59960E-001	-1.11874E+000	3.57650E+000	10	...........
	53	0.72	1.33290E-002	-6.01061E-003	0.00000E+000	-8.01152E-005	-3.59960E-001	-1.11219E+000	3.57650E+000	10	...........
	54	0.733333	8.03509E-003	-6.01642E-003	0.00000E+000	-4.83425E-005	-3.59960E-001	-1.11967E+000	3.57650E+000	10	...........
	55	0.746667	2.77702E-003	-6.01484E-003	0.00000E+000	-1.67033E-005	-3.59960E-001	-1.11858E+000	3.57650E+000	10	...........
	56	0.748333	-1.61860E-004	-6.01963E-003	0.00000E+000	9.74336E-007	-3.59960E-001	-1.12347E+000	3.57650E+000	10	...........
STARTTIMEOFFSET	QUANT	990.67	Start Time Offset (s)
