EXPLAIN
TAG	PWR800_DISCHARGE
TITLE	LABEL	PWR Cyclic Charge Discharge (Cell) - Discharge Step	Test &Identifier
DATE	LABEL	22-6-2017	Date
TIME	LABEL	15:50:50	Time
NOTES	NOTES	3	&Notes...
	supercap test cell
	0.6mg
	6M KOH
PSTAT	PSTAT	IFC5000-01520	Potentiostat
CAPACITY	QUANT	1.00000E-003	Capacity (A-hr)
CELLTYPE	SELECTOR	1	&Cell Type
WORKINGCONNECTION	SELECTOR	0	&Working Lead
MAXDISCHARGETIME	VARIABLEANDUNITS	1.00000E+002	s	1.00000E+002	second(s)	Max &Discharge Time
DISCHARGEMODE	MULTIPARAM	0	6.00000E-003	&Discharge Mode	Constant Current	Amp(s)
SAMPLETIME	QUANT	1.00000E-002	Sa&mple Period (s)
DISCHARGESTOPAT1	MULTIPARAM	3	0.00000E+000	Discharge Stop At &1	Voltage < Limit	V
DISCHARGESTOPAT2	MULTIPARAM	0	0.00000E+000	Discharge Stop At &2	None	N/A
AESBHCSELECTOR	TOGGLE	F	Save Both Half Cells
IRCOMP	TOGGLE	F	IR &Measure
EOC	QUANT	0	Open Circuit (V)
SEQUENCER	TOGGLE	TRUE	Run as Sequence
PSTATMODEL	IQUANT	53	Pstat Model
PSTATSECTION	LABEL	IFC5000-01520	Pstat Section
PSTATSERIALNO	LABEL	01520	Pstat Serial Number
CTRLMODE	IQUANT	0	Control Mode
ELECTROMETER	IQUANT	1	RE=0 or CS=1
IESTAB	IQUANT	0	I/E Stability
CASPEED	IQUANT	4	Control Amp Speed
CONVENTION	IQUANT	1	Current Convention
ICHRANGE	IQUANT	2	Ich Range
ICHRANGEMODE	TOGGLE	T	Ich Auto Range
ICHOFFSETENABLE	TOGGLE	F	Ich Offset Enable
ICHOFFSET	QUANT	0	Ich Offset (V)
ICHFILTER	IQUANT	1	Ich Filter
VCHRANGE	IQUANT	2	Vch Range
VCHRANGEMODE	TOGGLE	T	Vch Auto Range
VCHOFFSETENABLE	TOGGLE	F	Vch Offset Enable
VCHOFFSET	QUANT	0	Vch Offset (V)
VCHFILTER	IQUANT	1	Vch Filter
IERANGELOWERLIMIT	IQUANT	9	I/E Range Lower Limit
IERANGEMODE	TOGGLE	F	I/E AutoRange
IERANGE	IQUANT	10	I/E Range
ACHSELECT	IQUANT	1	Ach Select
ACHRANGE	IQUANT	2	Ach Range
ACHOFFSETENABLE	TOGGLE	F	Ach Offset Enable
ACHOFFSET	QUANT	0	Ach Offset (V)
ACHFILTER	IQUANT	1	Ach Filter
CABLEID	IQUANT	14	Cable ID
DCCALDATE	LABEL	20-10-2016	DC Calibration Date
ACCALDATE	LABEL	12/3/2015	AC Calibration Date
FRAMEWORKVERSION	QUANT	7.01	Framework Version
INSTRUMENTVERSION	LABEL	4.00	Instrument Version
CURVE	TABLE	60
	Pt	T	Vf	Im	Vu	Pwr	Sig	Ach	Temp	IERange	Over
	#	s	V	A	V	W	V	V	deg C	#	bits
	0	0.013333	4.01153E-001	-6.01448E-003	0.00000E+000	-2.41273E-003	-3.59960E-001	-1.09114E+000	3.57800E+000	10	...........
	1	0.026667	3.90281E-001	-6.01785E-003	0.00000E+000	-2.34865E-003	-3.59960E-001	-1.08244E+000	3.57800E+000	10	...........
	2	0.04	3.80191E-001	-6.01537E-003	0.00000E+000	-2.28699E-003	-3.59960E-001	-1.08796E+000	3.57800E+000	10	...........
	3	0.053333	3.70595E-001	-6.01876E-003	0.00000E+000	-2.23052E-003	-3.59960E-001	-1.09170E+000	3.57800E+000	10	...........
	4	0.066667	3.61333E-001	-6.00731E-003	0.00000E+000	-2.17064E-003	-3.59960E-001	-1.08293E+000	3.57800E+000	10	...........
	5	0.08	3.52407E-001	-6.01900E-003	0.00000E+000	-2.12114E-003	-3.59960E-001	-1.08826E+000	3.57800E+000	10	...........
	6	0.093333	3.43703E-001	-6.01569E-003	0.00000E+000	-2.06761E-003	-3.59960E-001	-1.09187E+000	3.57800E+000	10	...........
	7	0.106667	3.35108E-001	-6.01199E-003	0.00000E+000	-2.01467E-003	-3.59960E-001	-1.08321E+000	3.57800E+000	10	...........
	8	0.12	3.26660E-001	-6.00965E-003	0.00000E+000	-1.96311E-003	-3.59960E-001	-1.08843E+000	3.57800E+000	10	...........
	9	0.133333	3.18411E-001	-6.01199E-003	0.00000E+000	-1.91429E-003	-3.59960E-001	-1.09180E+000	3.57800E+000	10	...........
	10	0.146667	3.10242E-001	-6.01099E-003	0.00000E+000	-1.86486E-003	-3.59960E-001	-1.08296E+000	3.57800E+000	10	...........
	11	0.16	3.02205E-001	-6.01530E-003	0.00000E+000	-1.81785E-003	-3.59960E-001	-1.08836E+000	3.57800E+000	10	...........
	12	0.173333	2.94272E-001	-6.01280E-003	0.00000E+000	-1.76940E-003	-3.59960E-001	-1.09186E+000	3.57800E+000	10	...........
	13	0.186667	2.86451E-001	-6.01671E-003	0.00000E+000	-1.72349E-003	-3.59960E-001	-1.08324E+000	3.57800E+000	10	...........
	14	0.2	2.78734E-001	-6.01324E-003	0.00000E+000	-1.67609E-003	-3.59960E-001	-1.08841E+000	3.57800E+000	10	...........
	15	0.213333	2.71145E-001	-6.01581E-003	0.00000E+000	-1.63116E-003	-3.59960E-001	-1.09229E+000	3.57800E+000	10	...........
	16	0.226667	2.63608E-001	-6.00841E-003	0.00000E+000	-1.58387E-003	-3.59960E-001	-1.08372E+000	3.57800E+000	10	...........
	17	0.24	2.56097E-001	-6.01141E-003	0.00000E+000	-1.53950E-003	-3.59960E-001	-1.08910E+000	3.57800E+000	10	...........
	18	0.253333	2.48767E-001	-6.01397E-003	0.00000E+000	-1.49608E-003	-3.59960E-001	-1.09225E+000	3.57800E+000	10	...........
	19	0.266667	2.41460E-001	-6.01251E-003	0.00000E+000	-1.45178E-003	-3.59960E-001	-1.08370E+000	3.57800E+000	10	...........
	20	0.28	2.34263E-001	-6.01389E-003	0.00000E+000	-1.40883E-003	-3.59960E-001	-1.08920E+000	3.57800E+000	10	...........
	21	0.293333	2.27124E-001	-6.00940E-003	0.00000E+000	-1.36488E-003	-3.59960E-001	-1.09252E+000	3.57800E+000	10	...........
	22	0.306667	2.20051E-001	-6.01170E-003	0.00000E+000	-1.32288E-003	-3.59960E-001	-1.08370E+000	3.57800E+000	10	...........
	23	0.32	2.13116E-001	-6.01456E-003	0.00000E+000	-1.28180E-003	-3.59960E-001	-1.08933E+000	3.57800E+000	10	...........
	24	0.333333	2.06156E-001	-6.02096E-003	0.00000E+000	-1.24126E-003	-3.59960E-001	-1.09253E+000	3.57800E+000	10	...........
	25	0.346667	1.99307E-001	-6.01254E-003	0.00000E+000	-1.19834E-003	-3.59960E-001	-1.08401E+000	3.57800E+000	10	...........
	26	0.36	1.92514E-001	-6.01624E-003	0.00000E+000	-1.15821E-003	-3.59960E-001	-1.08963E+000	3.57800E+000	10	...........
	27	0.373333	1.85776E-001	-6.01520E-003	0.00000E+000	-1.11748E-003	-3.59960E-001	-1.09287E+000	3.57800E+000	10	...........
	28	0.386667	1.79142E-001	-6.01682E-003	0.00000E+000	-1.07786E-003	-3.59960E-001	-1.08423E+000	3.57800E+000	10	...........
	29	0.4	1.72573E-001	-6.01267E-003	0.00000E+000	-1.03763E-003	-3.59960E-001	-1.08995E+000	3.57800E+000	10	...........
	30	0.413333	1.66072E-001	-6.00944E-003	0.00000E+000	-9.97997E-004	-3.59960E-001	-1.09321E+000	3.57800E+000	10	...........
	31	0.426667	1.59616E-001	-6.01562E-003	0.00000E+000	-9.60190E-004	-3.59960E-001	-1.08463E+000	3.57800E+000	10	...........
	32	0.44	1.53222E-001	-6.01497E-003	0.00000E+000	-9.21629E-004	-3.59960E-001	-1.09002E+000	3.57800E+000	10	...........
	33	0.453333	1.46896E-001	-6.01699E-003	0.00000E+000	-8.83869E-004	-3.59960E-001	-1.09309E+000	3.57800E+000	10	...........
	34	0.466667	1.40604E-001	-6.01628E-003	0.00000E+000	-8.45916E-004	-3.59960E-001	-1.08410E+000	3.57800E+000	10	...........
	35	0.48	1.34356E-001	-6.00943E-003	0.00000E+000	-8.07404E-004	-3.59960E-001	-1.08993E+000	3.57800E+000	10	...........
	36	0.493333	1.28228E-001	-6.01846E-003	0.00000E+000	-7.71737E-004	-3.59960E-001	-1.09281E+000	3.57800E+000	10	...........
	37	0.506667	1.22155E-001	-6.01565E-003	0.00000E+000	-7.34843E-004	-3.59960E-001	-1.08435E+000	3.57800E+000	10	...........
	38	0.52	1.16084E-001	-6.01585E-003	0.00000E+000	-6.98342E-004	-3.59960E-001	-1.09000E+000	3.57800E+000	10	...........
	39	0.533333	1.10089E-001	-6.01554E-003	0.00000E+000	-6.62246E-004	-3.59960E-001	-1.09312E+000	3.57800E+000	10	...........
	40	0.546667	1.04160E-001	-6.01152E-003	0.00000E+000	-6.26160E-004	-3.59960E-001	-1.08460E+000	3.57800E+000	10	...........
	41	0.56	9.82775E-002	-6.01699E-003	0.00000E+000	-5.91334E-004	-3.59960E-001	-1.09026E+000	3.57800E+000	10	...........
	42	0.573333	9.24306E-002	-6.01182E-003	0.00000E+000	-5.55677E-004	-3.59960E-001	-1.09325E+000	3.57800E+000	10	...........
	43	0.586667	8.66574E-002	-6.01649E-003	0.00000E+000	-5.21373E-004	-3.59960E-001	-1.08454E+000	3.57800E+000	10	...........
	44	0.6	8.08992E-002	-6.01539E-003	0.00000E+000	-4.86641E-004	-3.59960E-001	-1.09043E+000	3.57800E+000	10	...........
	45	0.613333	7.52205E-002	-6.01579E-003	0.00000E+000	-4.52511E-004	-3.59960E-001	-1.09336E+000	3.57819E+000	10	...........
	46	0.626667	6.95976E-002	-6.01862E-003	0.00000E+000	-4.18882E-004	-3.59960E-001	-1.08487E+000	3.57950E+000	10	...........
	47	0.64	6.40279E-002	-6.01553E-003	0.00000E+000	-3.85161E-004	-3.59960E-001	-1.09046E+000	3.57950E+000	10	...........
	48	0.653333	5.84485E-002	-6.01718E-003	0.00000E+000	-3.51695E-004	-3.59960E-001	-1.09341E+000	3.57950E+000	10	...........
	49	0.666667	5.29160E-002	-6.01957E-003	0.00000E+000	-3.18532E-004	-3.59960E-001	-1.08477E+000	3.57950E+000	10	...........
	50	0.68	4.74896E-002	-6.01384E-003	0.00000E+000	-2.85595E-004	-3.59960E-001	-1.09076E+000	3.57950E+000	10	...........
	51	0.693333	4.21261E-002	-6.01448E-003	0.00000E+000	-2.53367E-004	-3.59960E-001	-1.09359E+000	3.57950E+000	10	...........
	52	0.706667	3.67779E-002	-6.01502E-003	0.00000E+000	-2.21219E-004	-3.59960E-001	-1.08496E+000	3.57950E+000	10	...........
	53	0.72	3.14666E-002	-6.00912E-003	0.00000E+000	-1.89087E-004	-3.59960E-001	-1.09092E+000	3.57950E+000	10	...........
	54	0.733333	2.61960E-002	-6.01287E-003	0.00000E+000	-1.57513E-004	-3.59960E-001	-1.09364E+000	3.57950E+000	10	...........
	55	0.746667	2.09922E-002	-6.01326E-003	0.00000E+000	-1.26232E-004	-3.59960E-001	-1.08509E+000	3.57950E+000	10	...........
	56	0.76	1.57683E-002	-6.01287E-003	0.00000E+000	-9.48125E-005	-3.59960E-001	-1.09115E+000	3.57950E+000	10	...........
	57	0.773333	1.06144E-002	-6.01339E-003	0.00000E+000	-6.38287E-005	-3.59960E-001	-1.09361E+000	3.57950E+000	10	...........
	58	0.786667	5.44253E-003	-6.01425E-003	0.00000E+000	-3.27328E-005	-3.59960E-001	-1.08459E+000	3.57950E+000	10	...........
	59	0.796667	9.86539E-004	-6.00924E-003	0.00000E+000	-5.92835E-006	-3.59960E-001	-1.09644E+000	3.57950E+000	10	...........
STARTTIMEOFFSET	QUANT	657.2415	Start Time Offset (s)
