EXPLAIN
TAG	PWR800_DISCHARGE
TITLE	LABEL	PWR Cyclic Charge Discharge (Cell) - Discharge Step	Test &Identifier
DATE	LABEL	22-6-2017	Date
TIME	LABEL	16:12:48	Time
NOTES	NOTES	3	&Notes...
	supercap test cell
	0.6mg
	6M KOH
PSTAT	PSTAT	IFC5000-01520	Potentiostat
CAPACITY	QUANT	1.00000E-003	Capacity (A-hr)
CELLTYPE	SELECTOR	1	&Cell Type
WORKINGCONNECTION	SELECTOR	0	&Working Lead
MAXDISCHARGETIME	VARIABLEANDUNITS	1.00000E+002	s	1.00000E+002	second(s)	Max &Discharge Time
DISCHARGEMODE	MULTIPARAM	0	6.00000E-003	&Discharge Mode	Constant Current	Amp(s)
SAMPLETIME	QUANT	1.00000E-002	Sa&mple Period (s)
DISCHARGESTOPAT1	MULTIPARAM	3	0.00000E+000	Discharge Stop At &1	Voltage < Limit	V
DISCHARGESTOPAT2	MULTIPARAM	0	0.00000E+000	Discharge Stop At &2	None	N/A
AESBHCSELECTOR	TOGGLE	F	Save Both Half Cells
IRCOMP	TOGGLE	F	IR &Measure
EOC	QUANT	0	Open Circuit (V)
SEQUENCER	TOGGLE	TRUE	Run as Sequence
PSTATMODEL	IQUANT	53	Pstat Model
PSTATSECTION	LABEL	IFC5000-01520	Pstat Section
PSTATSERIALNO	LABEL	01520	Pstat Serial Number
CTRLMODE	IQUANT	0	Control Mode
ELECTROMETER	IQUANT	1	RE=0 or CS=1
IESTAB	IQUANT	0	I/E Stability
CASPEED	IQUANT	4	Control Amp Speed
CONVENTION	IQUANT	1	Current Convention
ICHRANGE	IQUANT	2	Ich Range
ICHRANGEMODE	TOGGLE	T	Ich Auto Range
ICHOFFSETENABLE	TOGGLE	F	Ich Offset Enable
ICHOFFSET	QUANT	0	Ich Offset (V)
ICHFILTER	IQUANT	1	Ich Filter
VCHRANGE	IQUANT	2	Vch Range
VCHRANGEMODE	TOGGLE	T	Vch Auto Range
VCHOFFSETENABLE	TOGGLE	F	Vch Offset Enable
VCHOFFSET	QUANT	0	Vch Offset (V)
VCHFILTER	IQUANT	1	Vch Filter
IERANGELOWERLIMIT	IQUANT	9	I/E Range Lower Limit
IERANGEMODE	TOGGLE	F	I/E AutoRange
IERANGE	IQUANT	10	I/E Range
ACHSELECT	IQUANT	1	Ach Select
ACHRANGE	IQUANT	2	Ach Range
ACHOFFSETENABLE	TOGGLE	F	Ach Offset Enable
ACHOFFSET	QUANT	0	Ach Offset (V)
ACHFILTER	IQUANT	1	Ach Filter
CABLEID	IQUANT	14	Cable ID
DCCALDATE	LABEL	20-10-2016	DC Calibration Date
ACCALDATE	LABEL	12/3/2015	AC Calibration Date
FRAMEWORKVERSION	QUANT	7.01	Framework Version
INSTRUMENTVERSION	LABEL	4.00	Instrument Version
CURVE	TABLE	52
	Pt	T	Vf	Im	Vu	Pwr	Sig	Ach	Temp	IERange	Over
	#	s	V	A	V	W	V	V	deg C	#	bits
	0	0.013333	3.78307E-001	-6.01366E-003	0.00000E+000	-2.27501E-003	-3.59960E-001	-1.13776E+000	3.57780E+000	10	...........
	1	0.026667	3.66631E-001	-6.01845E-003	0.00000E+000	-2.20655E-003	-3.59960E-001	-1.14587E+000	3.57780E+000	10	...........
	2	0.04	3.55859E-001	-6.01360E-003	0.00000E+000	-2.13999E-003	-3.59960E-001	-1.14477E+000	3.57780E+000	10	...........
	3	0.053333	3.45652E-001	-6.01379E-003	0.00000E+000	-2.07868E-003	-3.59960E-001	-1.13803E+000	3.57780E+000	10	...........
	4	0.066667	3.35793E-001	-6.01505E-003	0.00000E+000	-2.01981E-003	-3.59960E-001	-1.14583E+000	3.57780E+000	10	...........
	5	0.08	3.26243E-001	-6.01183E-003	0.00000E+000	-1.96132E-003	-3.59960E-001	-1.14504E+000	3.57780E+000	10	...........
	6	0.093333	3.16872E-001	-6.01658E-003	0.00000E+000	-1.90649E-003	-3.59960E-001	-1.13856E+000	3.57780E+000	10	...........
	7	0.106667	3.07772E-001	-6.01404E-003	0.00000E+000	-1.85095E-003	-3.59960E-001	-1.14624E+000	3.57780E+000	10	...........
	8	0.12	2.98806E-001	-6.01644E-003	0.00000E+000	-1.79775E-003	-3.59960E-001	-1.14529E+000	3.57780E+000	10	...........
	9	0.133333	2.89971E-001	-6.01559E-003	0.00000E+000	-1.74435E-003	-3.59960E-001	-1.13850E+000	3.57780E+000	10	...........
	10	0.146667	2.81274E-001	-6.01157E-003	0.00000E+000	-1.69090E-003	-3.59960E-001	-1.14624E+000	3.57780E+000	10	...........
	11	0.16	2.72738E-001	-6.00979E-003	0.00000E+000	-1.63910E-003	-3.59960E-001	-1.14575E+000	3.57780E+000	10	...........
	12	0.173333	2.64256E-001	-6.01430E-003	0.00000E+000	-1.58932E-003	-3.59960E-001	-1.13859E+000	3.57780E+000	10	...........
	13	0.186667	2.55932E-001	-6.01502E-003	0.00000E+000	-1.53943E-003	-3.59960E-001	-1.14633E+000	3.57780E+000	10	...........
	14	0.2	2.47734E-001	-6.01680E-003	0.00000E+000	-1.49056E-003	-3.59960E-001	-1.14519E+000	3.57780E+000	10	...........
	15	0.213333	2.39572E-001	-6.01831E-003	0.00000E+000	-1.44182E-003	-3.59960E-001	-1.13849E+000	3.57780E+000	10	...........
	16	0.226667	2.31571E-001	-6.01845E-003	0.00000E+000	-1.39370E-003	-3.59960E-001	-1.14623E+000	3.57780E+000	10	...........
	17	0.24	2.23678E-001	-6.01955E-003	0.00000E+000	-1.34644E-003	-3.59960E-001	-1.14549E+000	3.57780E+000	10	...........
	18	0.253333	2.15898E-001	-6.01431E-003	0.00000E+000	-1.29848E-003	-3.59960E-001	-1.13863E+000	3.57780E+000	10	...........
	19	0.266667	2.08164E-001	-6.01575E-003	0.00000E+000	-1.25226E-003	-3.59960E-001	-1.14636E+000	3.57780E+000	10	...........
	20	0.28	2.00566E-001	-6.01619E-003	0.00000E+000	-1.20664E-003	-3.59960E-001	-1.14579E+000	3.57780E+000	10	...........
	21	0.293333	1.93062E-001	-6.01210E-003	0.00000E+000	-1.16071E-003	-3.59960E-001	-1.13901E+000	3.57780E+000	10	...........
	22	0.306667	1.85609E-001	-6.01365E-003	0.00000E+000	-1.11619E-003	-3.59960E-001	-1.14643E+000	3.57780E+000	10	...........
	23	0.32	1.78248E-001	-6.01276E-003	0.00000E+000	-1.07177E-003	-3.59960E-001	-1.14578E+000	3.57780E+000	10	...........
	24	0.333333	1.71006E-001	-6.00760E-003	0.00000E+000	-1.02734E-003	-3.59960E-001	-1.13884E+000	3.57780E+000	10	...........
	25	0.346667	1.63832E-001	-6.01298E-003	0.00000E+000	-9.85121E-004	-3.59960E-001	-1.14651E+000	3.57780E+000	10	...........
	26	0.36	1.56737E-001	-6.01705E-003	0.00000E+000	-9.43095E-004	-3.59960E-001	-1.14620E+000	3.57780E+000	10	...........
	27	0.373333	1.49729E-001	-6.01637E-003	0.00000E+000	-9.00824E-004	-3.59960E-001	-1.13923E+000	3.57780E+000	10	...........
	28	0.386667	1.42828E-001	-6.01243E-003	0.00000E+000	-8.58745E-004	-3.59960E-001	-1.14655E+000	3.57780E+000	10	...........
	29	0.4	1.35989E-001	-6.01202E-003	0.00000E+000	-8.17571E-004	-3.59960E-001	-1.14630E+000	3.57780E+000	10	...........
	30	0.413333	1.29177E-001	-6.01928E-003	0.00000E+000	-7.77551E-004	-3.59960E-001	-1.13932E+000	3.57780E+000	10	...........
	31	0.426667	1.22454E-001	-6.01152E-003	0.00000E+000	-7.36136E-004	-3.59960E-001	-1.14679E+000	3.57780E+000	10	...........
	32	0.44	1.15853E-001	-6.01145E-003	0.00000E+000	-6.96442E-004	-3.59960E-001	-1.14672E+000	3.57780E+000	10	...........
	33	0.453333	1.09316E-001	-6.01127E-003	0.00000E+000	-6.57128E-004	-3.59960E-001	-1.13947E+000	3.57780E+000	10	...........
	34	0.466667	1.02815E-001	-6.01892E-003	0.00000E+000	-6.18836E-004	-3.59960E-001	-1.14675E+000	3.57780E+000	10	...........
	35	0.48	9.63779E-002	-6.01598E-003	0.00000E+000	-5.79807E-004	-3.59960E-001	-1.14675E+000	3.57780E+000	10	...........
	36	0.493333	9.00489E-002	-6.01288E-003	0.00000E+000	-5.41453E-004	-3.59960E-001	-1.13962E+000	3.57780E+000	10	...........
	37	0.506667	8.37693E-002	-6.01417E-003	0.00000E+000	-5.03803E-004	-3.59960E-001	-1.14700E+000	3.57780E+000	10	...........
	38	0.52	7.75517E-002	-6.01252E-003	0.00000E+000	-4.66282E-004	-3.59960E-001	-1.14666E+000	3.57780E+000	10	...........
	39	0.533333	7.14059E-002	-6.01567E-003	0.00000E+000	-4.29554E-004	-3.59960E-001	-1.13922E+000	3.57780E+000	10	...........
	40	0.546667	6.53231E-002	-6.01321E-003	0.00000E+000	-3.92802E-004	-3.59960E-001	-1.14663E+000	3.57780E+000	10	...........
	41	0.56	5.92729E-002	-6.01514E-003	0.00000E+000	-3.56535E-004	-3.59960E-001	-1.14665E+000	3.57780E+000	10	...........
	42	0.573333	5.32524E-002	-6.01307E-003	0.00000E+000	-3.20210E-004	-3.59960E-001	-1.13952E+000	3.57780E+000	10	...........
	43	0.586667	4.73856E-002	-6.01592E-003	0.00000E+000	-2.85068E-004	-3.59960E-001	-1.14682E+000	3.57780E+000	10	...........
	44	0.6	4.15463E-002	-6.01888E-003	0.00000E+000	-2.50062E-004	-3.59960E-001	-1.14678E+000	3.57780E+000	10	...........
	45	0.613333	3.57391E-002	-6.02045E-003	0.00000E+000	-2.15166E-004	-3.59960E-001	-1.13966E+000	3.57780E+000	10	...........
	46	0.626667	3.00078E-002	-6.01193E-003	0.00000E+000	-1.80405E-004	-3.59960E-001	-1.14685E+000	3.57780E+000	10	...........
	47	0.64	2.43255E-002	-6.01705E-003	0.00000E+000	-1.46367E-004	-3.59960E-001	-1.14720E+000	3.57780E+000	10	...........
	48	0.653333	1.87228E-002	-6.01425E-003	0.00000E+000	-1.12604E-004	-3.59960E-001	-1.13967E+000	3.57780E+000	10	...........
	49	0.666667	1.31515E-002	-6.00906E-003	0.00000E+000	-7.90281E-005	-3.59960E-001	-1.14677E+000	3.57780E+000	10	...........
	50	0.68	7.62557E-003	-6.01536E-003	0.00000E+000	-4.58706E-005	-3.59960E-001	-1.14715E+000	3.57780E+000	10	...........
	51	0.693333	2.15415E-003	-6.01575E-003	0.00000E+000	-1.29588E-005	-3.59960E-001	-1.13972E+000	3.57780E+000	10	...........
STARTTIMEOFFSET	QUANT	1515.278	Start Time Offset (s)
