EXPLAIN
TAG	PWR800_DISCHARGE
TITLE	LABEL	PWR Cyclic Charge Discharge (Cell) - Discharge Step	Test &Identifier
DATE	LABEL	22-6-2017	Date
TIME	LABEL	16:08:51	Time
NOTES	NOTES	3	&Notes...
	supercap test cell
	0.6mg
	6M KOH
PSTAT	PSTAT	IFC5000-01520	Potentiostat
CAPACITY	QUANT	1.00000E-003	Capacity (A-hr)
CELLTYPE	SELECTOR	1	&Cell Type
WORKINGCONNECTION	SELECTOR	0	&Working Lead
MAXDISCHARGETIME	VARIABLEANDUNITS	1.00000E+002	s	1.00000E+002	second(s)	Max &Discharge Time
DISCHARGEMODE	MULTIPARAM	0	6.00000E-003	&Discharge Mode	Constant Current	Amp(s)
SAMPLETIME	QUANT	1.00000E-002	Sa&mple Period (s)
DISCHARGESTOPAT1	MULTIPARAM	3	0.00000E+000	Discharge Stop At &1	Voltage < Limit	V
DISCHARGESTOPAT2	MULTIPARAM	0	0.00000E+000	Discharge Stop At &2	None	N/A
AESBHCSELECTOR	TOGGLE	F	Save Both Half Cells
IRCOMP	TOGGLE	F	IR &Measure
EOC	QUANT	0	Open Circuit (V)
SEQUENCER	TOGGLE	TRUE	Run as Sequence
PSTATMODEL	IQUANT	53	Pstat Model
PSTATSECTION	LABEL	IFC5000-01520	Pstat Section
PSTATSERIALNO	LABEL	01520	Pstat Serial Number
CTRLMODE	IQUANT	0	Control Mode
ELECTROMETER	IQUANT	1	RE=0 or CS=1
IESTAB	IQUANT	0	I/E Stability
CASPEED	IQUANT	4	Control Amp Speed
CONVENTION	IQUANT	1	Current Convention
ICHRANGE	IQUANT	2	Ich Range
ICHRANGEMODE	TOGGLE	T	Ich Auto Range
ICHOFFSETENABLE	TOGGLE	F	Ich Offset Enable
ICHOFFSET	QUANT	0	Ich Offset (V)
ICHFILTER	IQUANT	1	Ich Filter
VCHRANGE	IQUANT	2	Vch Range
VCHRANGEMODE	TOGGLE	T	Vch Auto Range
VCHOFFSETENABLE	TOGGLE	F	Vch Offset Enable
VCHOFFSET	QUANT	0	Vch Offset (V)
VCHFILTER	IQUANT	1	Vch Filter
IERANGELOWERLIMIT	IQUANT	9	I/E Range Lower Limit
IERANGEMODE	TOGGLE	F	I/E AutoRange
IERANGE	IQUANT	10	I/E Range
ACHSELECT	IQUANT	1	Ach Select
ACHRANGE	IQUANT	2	Ach Range
ACHOFFSETENABLE	TOGGLE	F	Ach Offset Enable
ACHOFFSET	QUANT	0	Ach Offset (V)
ACHFILTER	IQUANT	1	Ach Filter
CABLEID	IQUANT	14	Cable ID
DCCALDATE	LABEL	20-10-2016	DC Calibration Date
ACCALDATE	LABEL	12/3/2015	AC Calibration Date
FRAMEWORKVERSION	QUANT	7.01	Framework Version
INSTRUMENTVERSION	LABEL	4.00	Instrument Version
CURVE	TABLE	53
	Pt	T	Vf	Im	Vu	Pwr	Sig	Ach	Temp	IERange	Over
	#	s	V	A	V	W	V	V	deg C	#	bits
	0	0.013333	3.81001E-001	-6.01338E-003	0.00000E+000	-2.29110E-003	-3.59960E-001	-1.13148E+000	3.57670E+000	10	...........
	1	0.026667	3.69511E-001	-6.01084E-003	0.00000E+000	-2.22107E-003	-3.59960E-001	-1.12757E+000	3.57670E+000	10	...........
	2	0.04	3.58827E-001	-6.01424E-003	0.00000E+000	-2.15807E-003	-3.59960E-001	-1.13816E+000	3.57670E+000	10	...........
	3	0.053333	3.48740E-001	-6.00950E-003	0.00000E+000	-2.09575E-003	-3.59960E-001	-1.13212E+000	3.57670E+000	10	...........
	4	0.066667	3.39004E-001	-6.01108E-003	0.00000E+000	-2.03778E-003	-3.59960E-001	-1.12795E+000	3.57670E+000	10	...........
	5	0.08	3.29542E-001	-6.01498E-003	0.00000E+000	-1.98219E-003	-3.59960E-001	-1.13815E+000	3.57670E+000	10	...........
	6	0.093333	3.20314E-001	-6.01374E-003	0.00000E+000	-1.92629E-003	-3.59960E-001	-1.13212E+000	3.57670E+000	10	...........
	7	0.106667	3.11276E-001	-6.01406E-003	0.00000E+000	-1.87203E-003	-3.59960E-001	-1.12827E+000	3.57670E+000	10	...........
	8	0.12	3.02402E-001	-6.01342E-003	0.00000E+000	-1.81847E-003	-3.59960E-001	-1.13849E+000	3.57670E+000	10	...........
	9	0.133333	2.93662E-001	-6.01858E-003	0.00000E+000	-1.76743E-003	-3.59960E-001	-1.13190E+000	3.57670E+000	10	...........
	10	0.146667	2.85055E-001	-6.01374E-003	0.00000E+000	-1.71425E-003	-3.59960E-001	-1.12808E+000	3.57670E+000	10	...........
	11	0.16	2.76570E-001	-6.01297E-003	0.00000E+000	-1.66301E-003	-3.59960E-001	-1.13865E+000	3.57670E+000	10	...........
	12	0.173333	2.68189E-001	-6.01803E-003	0.00000E+000	-1.61397E-003	-3.59960E-001	-1.13226E+000	3.57670E+000	10	...........
	13	0.186667	2.59958E-001	-6.01619E-003	0.00000E+000	-1.56396E-003	-3.59960E-001	-1.12836E+000	3.57670E+000	10	...........
	14	0.2	2.51787E-001	-6.01262E-003	0.00000E+000	-1.51390E-003	-3.59960E-001	-1.13911E+000	3.57670E+000	10	...........
	15	0.213333	2.43777E-001	-6.01479E-003	0.00000E+000	-1.46627E-003	-3.59960E-001	-1.13226E+000	3.57670E+000	10	...........
	16	0.226667	2.35853E-001	-6.01606E-003	0.00000E+000	-1.41890E-003	-3.59960E-001	-1.12873E+000	3.57670E+000	10	...........
	17	0.24	2.27997E-001	-6.01780E-003	0.00000E+000	-1.37204E-003	-3.59960E-001	-1.13959E+000	3.57670E+000	10	...........
	18	0.253333	2.20297E-001	-6.01778E-003	0.00000E+000	-1.32570E-003	-3.59960E-001	-1.13251E+000	3.57670E+000	10	...........
	19	0.266667	2.12639E-001	-6.01447E-003	0.00000E+000	-1.27891E-003	-3.59960E-001	-1.12893E+000	3.57670E+000	10	...........
	20	0.28	2.05104E-001	-6.01415E-003	0.00000E+000	-1.23353E-003	-3.59960E-001	-1.13959E+000	3.57670E+000	10	...........
	21	0.293333	1.97648E-001	-6.01395E-003	0.00000E+000	-1.18865E-003	-3.59960E-001	-1.13280E+000	3.57670E+000	10	...........
	22	0.306667	1.90291E-001	-6.01314E-003	0.00000E+000	-1.14425E-003	-3.59960E-001	-1.12915E+000	3.57670E+000	10	...........
	23	0.32	1.82963E-001	-6.01512E-003	0.00000E+000	-1.10054E-003	-3.59960E-001	-1.13986E+000	3.57670E+000	10	...........
	24	0.333333	1.75772E-001	-6.01307E-003	0.00000E+000	-1.05693E-003	-3.59960E-001	-1.13281E+000	3.57670E+000	10	...........
	25	0.346667	1.68664E-001	-6.01601E-003	0.00000E+000	-1.01469E-003	-3.59960E-001	-1.12945E+000	3.57670E+000	10	...........
	26	0.36	1.61603E-001	-6.01315E-003	0.00000E+000	-9.71743E-004	-3.59960E-001	-1.14030E+000	3.57670E+000	10	...........
	27	0.373333	1.54638E-001	-6.01908E-003	0.00000E+000	-9.30777E-004	-3.59960E-001	-1.13320E+000	3.57670E+000	10	...........
	28	0.386667	1.47717E-001	-6.01631E-003	0.00000E+000	-8.88709E-004	-3.59960E-001	-1.12967E+000	3.57670E+000	10	...........
	29	0.4	1.40929E-001	-6.00848E-003	0.00000E+000	-8.46767E-004	-3.59960E-001	-1.14063E+000	3.57663E+000	10	...........
	30	0.413333	1.34190E-001	-6.01151E-003	0.00000E+000	-8.06683E-004	-3.59960E-001	-1.13317E+000	3.57640E+000	10	...........
	31	0.426667	1.27530E-001	-6.01592E-003	0.00000E+000	-7.67209E-004	-3.59960E-001	-1.12995E+000	3.57640E+000	10	...........
	32	0.44	1.20958E-001	-6.01377E-003	0.00000E+000	-7.27415E-004	-3.59960E-001	-1.14080E+000	3.57640E+000	10	...........
	33	0.453333	1.14446E-001	-6.01011E-003	0.00000E+000	-6.87835E-004	-3.59960E-001	-1.13293E+000	3.57640E+000	10	...........
	34	0.466667	1.07976E-001	-6.01455E-003	0.00000E+000	-6.49424E-004	-3.59960E-001	-1.12963E+000	3.57640E+000	10	...........
	35	0.48	1.01556E-001	-6.01703E-003	0.00000E+000	-6.11066E-004	-3.59960E-001	-1.14069E+000	3.57640E+000	10	...........
	36	0.493333	9.52549E-002	-6.01102E-003	0.00000E+000	-5.72579E-004	-3.59960E-001	-1.13322E+000	3.57640E+000	10	...........
	37	0.506667	8.89986E-002	-6.01484E-003	0.00000E+000	-5.35312E-004	-3.59960E-001	-1.13009E+000	3.57640E+000	10	...........
	38	0.52	8.28217E-002	-6.01520E-003	0.00000E+000	-4.98189E-004	-3.59960E-001	-1.14094E+000	3.57640E+000	10	...........
	39	0.533333	7.67258E-002	-6.01537E-003	0.00000E+000	-4.61534E-004	-3.59960E-001	-1.13301E+000	3.57640E+000	10	...........
	40	0.546667	7.06739E-002	-6.01958E-003	0.00000E+000	-4.25427E-004	-3.59960E-001	-1.12999E+000	3.57640E+000	10	...........
	41	0.56	6.46340E-002	-6.01326E-003	0.00000E+000	-3.88661E-004	-3.59960E-001	-1.14139E+000	3.57640E+000	10	...........
	42	0.573333	5.86624E-002	-6.01453E-003	0.00000E+000	-3.52826E-004	-3.59960E-001	-1.13334E+000	3.57640E+000	10	...........
	43	0.586667	5.27281E-002	-6.01946E-003	0.00000E+000	-3.17395E-004	-3.59960E-001	-1.13046E+000	3.57640E+000	10	...........
	44	0.6	4.69758E-002	-6.01250E-003	0.00000E+000	-2.82442E-004	-3.59960E-001	-1.14142E+000	3.57640E+000	10	...........
	45	0.613333	4.11912E-002	-6.01232E-003	0.00000E+000	-2.47655E-004	-3.59960E-001	-1.13327E+000	3.57640E+000	10	...........
	46	0.626667	3.54772E-002	-6.01608E-003	0.00000E+000	-2.13433E-004	-3.59960E-001	-1.13056E+000	3.57640E+000	10	...........
	47	0.64	2.97976E-002	-6.01518E-003	0.00000E+000	-1.79238E-004	-3.59960E-001	-1.14161E+000	3.57640E+000	10	...........
	48	0.653333	2.41633E-002	-6.01371E-003	0.00000E+000	-1.45311E-004	-3.59960E-001	-1.13331E+000	3.57640E+000	10	...........
	49	0.666667	1.85973E-002	-6.01713E-003	0.00000E+000	-1.11902E-004	-3.59960E-001	-1.13082E+000	3.57640E+000	10	...........
	50	0.68	1.31017E-002	-6.01925E-003	0.00000E+000	-7.88623E-005	-3.59960E-001	-1.14175E+000	3.57640E+000	10	...........
	51	0.693333	7.63725E-003	-6.01282E-003	0.00000E+000	-4.59214E-005	-3.59960E-001	-1.13368E+000	3.57640E+000	10	...........
	52	0.706667	2.21199E-003	-6.01556E-003	0.00000E+000	-1.33064E-005	-3.59960E-001	-1.13118E+000	3.57640E+000	10	...........
STARTTIMEOFFSET	QUANT	1364.792	Start Time Offset (s)
