EXPLAIN
TAG	PWR800_DISCHARGE
TITLE	LABEL	PWR Cyclic Charge Discharge (Cell) - Discharge Step	Test &Identifier
DATE	LABEL	22-6-2017	Date
TIME	LABEL	15:51:14	Time
NOTES	NOTES	3	&Notes...
	supercap test cell
	0.6mg
	6M KOH
PSTAT	PSTAT	IFC5000-01520	Potentiostat
CAPACITY	QUANT	1.00000E-003	Capacity (A-hr)
CELLTYPE	SELECTOR	1	&Cell Type
WORKINGCONNECTION	SELECTOR	0	&Working Lead
MAXDISCHARGETIME	VARIABLEANDUNITS	1.00000E+002	s	1.00000E+002	second(s)	Max &Discharge Time
DISCHARGEMODE	MULTIPARAM	0	6.00000E-003	&Discharge Mode	Constant Current	Amp(s)
SAMPLETIME	QUANT	1.00000E-002	Sa&mple Period (s)
DISCHARGESTOPAT1	MULTIPARAM	3	0.00000E+000	Discharge Stop At &1	Voltage < Limit	V
DISCHARGESTOPAT2	MULTIPARAM	0	0.00000E+000	Discharge Stop At &2	None	N/A
AESBHCSELECTOR	TOGGLE	F	Save Both Half Cells
IRCOMP	TOGGLE	F	IR &Measure
EOC	QUANT	0	Open Circuit (V)
SEQUENCER	TOGGLE	TRUE	Run as Sequence
PSTATMODEL	IQUANT	53	Pstat Model
PSTATSECTION	LABEL	IFC5000-01520	Pstat Section
PSTATSERIALNO	LABEL	01520	Pstat Serial Number
CTRLMODE	IQUANT	0	Control Mode
ELECTROMETER	IQUANT	1	RE=0 or CS=1
IESTAB	IQUANT	0	I/E Stability
CASPEED	IQUANT	4	Control Amp Speed
CONVENTION	IQUANT	1	Current Convention
ICHRANGE	IQUANT	2	Ich Range
ICHRANGEMODE	TOGGLE	T	Ich Auto Range
ICHOFFSETENABLE	TOGGLE	F	Ich Offset Enable
ICHOFFSET	QUANT	0	Ich Offset (V)
ICHFILTER	IQUANT	1	Ich Filter
VCHRANGE	IQUANT	2	Vch Range
VCHRANGEMODE	TOGGLE	T	Vch Auto Range
VCHOFFSETENABLE	TOGGLE	F	Vch Offset Enable
VCHOFFSET	QUANT	0	Vch Offset (V)
VCHFILTER	IQUANT	1	Vch Filter
IERANGELOWERLIMIT	IQUANT	9	I/E Range Lower Limit
IERANGEMODE	TOGGLE	F	I/E AutoRange
IERANGE	IQUANT	10	I/E Range
ACHSELECT	IQUANT	1	Ach Select
ACHRANGE	IQUANT	2	Ach Range
ACHOFFSETENABLE	TOGGLE	F	Ach Offset Enable
ACHOFFSET	QUANT	0	Ach Offset (V)
ACHFILTER	IQUANT	1	Ach Filter
CABLEID	IQUANT	14	Cable ID
DCCALDATE	LABEL	20-10-2016	DC Calibration Date
ACCALDATE	LABEL	12/3/2015	AC Calibration Date
FRAMEWORKVERSION	QUANT	7.01	Framework Version
INSTRUMENTVERSION	LABEL	4.00	Instrument Version
CURVE	TABLE	60
	Pt	T	Vf	Im	Vu	Pwr	Sig	Ach	Temp	IERange	Over
	#	s	V	A	V	W	V	V	deg C	#	bits
	0	0.013333	4.00491E-001	-6.01472E-003	0.00000E+000	-2.40884E-003	-3.59960E-001	-1.09520E+000	3.57800E+000	10	...........
	1	0.026667	3.89560E-001	-6.01809E-003	0.00000E+000	-2.34441E-003	-3.59960E-001	-1.08866E+000	3.57800E+000	10	...........
	2	0.04	3.79423E-001	-6.01411E-003	0.00000E+000	-2.28189E-003	-3.59960E-001	-1.08481E+000	3.57800E+000	10	...........
	3	0.053333	3.69820E-001	-6.01544E-003	0.00000E+000	-2.22463E-003	-3.59960E-001	-1.09552E+000	3.57800E+000	10	...........
	4	0.066667	3.60563E-001	-6.01565E-003	0.00000E+000	-2.16902E-003	-3.59960E-001	-1.08903E+000	3.57800E+000	10	...........
	5	0.08	3.51583E-001	-6.01246E-003	0.00000E+000	-2.11388E-003	-3.59960E-001	-1.08459E+000	3.57800E+000	10	...........
	6	0.093333	3.42876E-001	-6.01836E-003	0.00000E+000	-2.06355E-003	-3.59960E-001	-1.09523E+000	3.57800E+000	10	...........
	7	0.106667	3.34291E-001	-6.01109E-003	0.00000E+000	-2.00945E-003	-3.59960E-001	-1.08918E+000	3.57800E+000	10	...........
	8	0.12	3.25871E-001	-6.01902E-003	0.00000E+000	-1.96142E-003	-3.59960E-001	-1.08503E+000	3.57800E+000	10	...........
	9	0.133333	3.17562E-001	-6.01673E-003	0.00000E+000	-1.91069E-003	-3.59960E-001	-1.09545E+000	3.57800E+000	10	...........
	10	0.146667	3.09365E-001	-6.01615E-003	0.00000E+000	-1.86119E-003	-3.59960E-001	-1.08937E+000	3.57800E+000	10	...........
	11	0.16	3.01340E-001	-6.01266E-003	0.00000E+000	-1.81185E-003	-3.59960E-001	-1.08496E+000	3.57800E+000	10	...........
	12	0.173333	2.93392E-001	-6.01582E-003	0.00000E+000	-1.76499E-003	-3.59960E-001	-1.09570E+000	3.57800E+000	10	...........
	13	0.186667	2.85582E-001	-6.01592E-003	0.00000E+000	-1.71804E-003	-3.59960E-001	-1.09024E+000	3.57800E+000	10	...........
	14	0.2	2.77851E-001	-6.01019E-003	0.00000E+000	-1.66994E-003	-3.59960E-001	-1.08584E+000	3.57800E+000	10	...........
	15	0.213333	2.70171E-001	-6.01201E-003	0.00000E+000	-1.62427E-003	-3.59960E-001	-1.09595E+000	3.57800E+000	10	...........
	16	0.226667	2.62642E-001	-6.01375E-003	0.00000E+000	-1.57947E-003	-3.59960E-001	-1.09018E+000	3.57800E+000	10	...........
	17	0.24	2.55152E-001	-6.01793E-003	0.00000E+000	-1.53548E-003	-3.59960E-001	-1.08571E+000	3.57800E+000	10	...........
	18	0.253333	2.47752E-001	-6.01676E-003	0.00000E+000	-1.49066E-003	-3.59960E-001	-1.09605E+000	3.57800E+000	10	...........
	19	0.266667	2.40433E-001	-6.01498E-003	0.00000E+000	-1.44620E-003	-3.59960E-001	-1.09031E+000	3.57800E+000	10	...........
	20	0.28	2.33244E-001	-6.01236E-003	0.00000E+000	-1.40235E-003	-3.59960E-001	-1.08523E+000	3.57800E+000	10	...........
	21	0.293333	2.26089E-001	-6.01450E-003	0.00000E+000	-1.35981E-003	-3.59960E-001	-1.09572E+000	3.57800E+000	10	...........
	22	0.306667	2.19068E-001	-6.01401E-003	0.00000E+000	-1.31748E-003	-3.59960E-001	-1.09036E+000	3.57800E+000	10	...........
	23	0.32	2.12087E-001	-6.01131E-003	0.00000E+000	-1.27492E-003	-3.59960E-001	-1.08562E+000	3.57800E+000	10	...........
	24	0.333333	2.05161E-001	-6.01197E-003	0.00000E+000	-1.23342E-003	-3.59960E-001	-1.09555E+000	3.57800E+000	10	...........
	25	0.346667	1.98308E-001	-6.01800E-003	0.00000E+000	-1.19342E-003	-3.59960E-001	-1.09042E+000	3.57800E+000	10	...........
	26	0.36	1.91553E-001	-6.01365E-003	0.00000E+000	-1.15193E-003	-3.59960E-001	-1.08555E+000	3.57800E+000	10	...........
	27	0.373333	1.84851E-001	-6.01555E-003	0.00000E+000	-1.11198E-003	-3.59960E-001	-1.09550E+000	3.57800E+000	10	...........
	28	0.386667	1.78165E-001	-6.01382E-003	0.00000E+000	-1.07145E-003	-3.59960E-001	-1.09090E+000	3.57800E+000	10	...........
	29	0.4	1.71564E-001	-6.01788E-003	0.00000E+000	-1.03245E-003	-3.59960E-001	-1.08556E+000	3.57800E+000	10	...........
	30	0.413333	1.65080E-001	-6.01374E-003	0.00000E+000	-9.92750E-004	-3.59960E-001	-1.09550E+000	3.57800E+000	10	...........
	31	0.426667	1.58596E-001	-6.01583E-003	0.00000E+000	-9.54084E-004	-3.59960E-001	-1.09080E+000	3.57800E+000	10	...........
	32	0.44	1.52186E-001	-6.01213E-003	0.00000E+000	-9.14960E-004	-3.59960E-001	-1.08571E+000	3.57800E+000	10	...........
	33	0.453333	1.45838E-001	-6.01489E-003	0.00000E+000	-8.77197E-004	-3.59960E-001	-1.09530E+000	3.57800E+000	10	...........
	34	0.466667	1.39590E-001	-6.01420E-003	0.00000E+000	-8.39522E-004	-3.59960E-001	-1.09099E+000	3.57800E+000	10	...........
	35	0.48	1.33349E-001	-6.01118E-003	0.00000E+000	-8.01586E-004	-3.59960E-001	-1.08579E+000	3.57800E+000	10	...........
	36	0.493333	1.27195E-001	-6.01893E-003	0.00000E+000	-7.65580E-004	-3.59960E-001	-1.09546E+000	3.57800E+000	10	...........
	37	0.506667	1.21105E-001	-6.01980E-003	0.00000E+000	-7.29031E-004	-3.59960E-001	-1.09158E+000	3.57800E+000	10	...........
	38	0.52	1.14994E-001	-6.01635E-003	0.00000E+000	-6.91843E-004	-3.59960E-001	-1.08592E+000	3.57800E+000	10	...........
	39	0.533333	1.09019E-001	-6.01096E-003	0.00000E+000	-6.55309E-004	-3.59960E-001	-1.09542E+000	3.57800E+000	10	...........
	40	0.546667	1.03098E-001	-6.01448E-003	0.00000E+000	-6.20079E-004	-3.59960E-001	-1.09132E+000	3.57800E+000	10	...........
	41	0.56	9.72151E-002	-6.01788E-003	0.00000E+000	-5.85029E-004	-3.59960E-001	-1.08604E+000	3.57800E+000	10	...........
	42	0.573333	9.13913E-002	-6.01161E-003	0.00000E+000	-5.49409E-004	-3.59960E-001	-1.09529E+000	3.57800E+000	10	...........
	43	0.586667	8.56092E-002	-6.01227E-003	0.00000E+000	-5.14706E-004	-3.59960E-001	-1.09153E+000	3.57800E+000	10	...........
	44	0.6	7.98487E-002	-6.01695E-003	0.00000E+000	-4.80445E-004	-3.59960E-001	-1.08587E+000	3.57800E+000	10	...........
	45	0.613333	7.41743E-002	-6.01512E-003	0.00000E+000	-4.46168E-004	-3.59960E-001	-1.09476E+000	3.57800E+000	10	...........
	46	0.626667	6.85385E-002	-6.01374E-003	0.00000E+000	-4.12173E-004	-3.59960E-001	-1.09154E+000	3.57800E+000	10	...........
	47	0.64	6.29793E-002	-6.00801E-003	0.00000E+000	-3.78380E-004	-3.59960E-001	-1.08602E+000	3.57800E+000	10	...........
	48	0.653333	5.73934E-002	-6.01364E-003	0.00000E+000	-3.45143E-004	-3.59960E-001	-1.09490E+000	3.57800E+000	10	...........
	49	0.666667	5.18398E-002	-6.01824E-003	0.00000E+000	-3.11984E-004	-3.59960E-001	-1.09181E+000	3.57800E+000	10	...........
	50	0.68	4.64374E-002	-6.01425E-003	0.00000E+000	-2.79286E-004	-3.59960E-001	-1.08577E+000	3.57800E+000	10	...........
	51	0.693333	4.10164E-002	-6.01461E-003	0.00000E+000	-2.46697E-004	-3.59960E-001	-1.09483E+000	3.57800E+000	10	...........
	52	0.706667	3.56529E-002	-6.01617E-003	0.00000E+000	-2.14494E-004	-3.59960E-001	-1.09177E+000	3.57800E+000	10	...........
	53	0.72	3.03256E-002	-6.01567E-003	0.00000E+000	-1.82429E-004	-3.59960E-001	-1.08633E+000	3.57800E+000	10	...........
	54	0.733333	2.50262E-002	-6.01424E-003	0.00000E+000	-1.50514E-004	-3.59960E-001	-1.09496E+000	3.57800E+000	10	...........
	55	0.746667	1.97852E-002	-6.01714E-003	0.00000E+000	-1.19051E-004	-3.59960E-001	-1.09211E+000	3.57800E+000	10	...........
	56	0.76	1.45894E-002	-6.01614E-003	0.00000E+000	-8.77718E-005	-3.59960E-001	-1.08593E+000	3.57800E+000	10	...........
	57	0.773333	9.42442E-003	-6.01355E-003	0.00000E+000	-5.66742E-005	-3.59960E-001	-1.09499E+000	3.57800E+000	10	...........
	58	0.786667	4.33144E-003	-6.01346E-003	0.00000E+000	-2.60470E-005	-3.59960E-001	-1.09259E+000	3.57800E+000	10	...........
	59	0.793333	5.26248E-004	-6.01650E-003	0.00000E+000	-3.16617E-006	-3.59960E-001	-1.08877E+000	3.57800E+000	10	...........
STARTTIMEOFFSET	QUANT	673.2332	Start Time Offset (s)
