EXPLAIN
TAG	PWR800_DISCHARGE
TITLE	LABEL	PWR Cyclic Charge Discharge (Cell) - Discharge Step	Test &Identifier
DATE	LABEL	22-6-2017	Date
TIME	LABEL	16:12:54	Time
NOTES	NOTES	3	&Notes...
	supercap test cell
	0.6mg
	6M KOH
PSTAT	PSTAT	IFC5000-01520	Potentiostat
CAPACITY	QUANT	1.00000E-003	Capacity (A-hr)
CELLTYPE	SELECTOR	1	&Cell Type
WORKINGCONNECTION	SELECTOR	0	&Working Lead
MAXDISCHARGETIME	VARIABLEANDUNITS	1.00000E+002	s	1.00000E+002	second(s)	Max &Discharge Time
DISCHARGEMODE	MULTIPARAM	0	6.00000E-003	&Discharge Mode	Constant Current	Amp(s)
SAMPLETIME	QUANT	1.00000E-002	Sa&mple Period (s)
DISCHARGESTOPAT1	MULTIPARAM	3	0.00000E+000	Discharge Stop At &1	Voltage < Limit	V
DISCHARGESTOPAT2	MULTIPARAM	0	0.00000E+000	Discharge Stop At &2	None	N/A
AESBHCSELECTOR	TOGGLE	F	Save Both Half Cells
IRCOMP	TOGGLE	F	IR &Measure
EOC	QUANT	0	Open Circuit (V)
SEQUENCER	TOGGLE	TRUE	Run as Sequence
PSTATMODEL	IQUANT	53	Pstat Model
PSTATSECTION	LABEL	IFC5000-01520	Pstat Section
PSTATSERIALNO	LABEL	01520	Pstat Serial Number
CTRLMODE	IQUANT	0	Control Mode
ELECTROMETER	IQUANT	1	RE=0 or CS=1
IESTAB	IQUANT	0	I/E Stability
CASPEED	IQUANT	4	Control Amp Speed
CONVENTION	IQUANT	1	Current Convention
ICHRANGE	IQUANT	2	Ich Range
ICHRANGEMODE	TOGGLE	T	Ich Auto Range
ICHOFFSETENABLE	TOGGLE	F	Ich Offset Enable
ICHOFFSET	QUANT	0	Ich Offset (V)
ICHFILTER	IQUANT	1	Ich Filter
VCHRANGE	IQUANT	2	Vch Range
VCHRANGEMODE	TOGGLE	T	Vch Auto Range
VCHOFFSETENABLE	TOGGLE	F	Vch Offset Enable
VCHOFFSET	QUANT	0	Vch Offset (V)
VCHFILTER	IQUANT	1	Vch Filter
IERANGELOWERLIMIT	IQUANT	9	I/E Range Lower Limit
IERANGEMODE	TOGGLE	F	I/E AutoRange
IERANGE	IQUANT	10	I/E Range
ACHSELECT	IQUANT	1	Ach Select
ACHRANGE	IQUANT	2	Ach Range
ACHOFFSETENABLE	TOGGLE	F	Ach Offset Enable
ACHOFFSET	QUANT	0	Ach Offset (V)
ACHFILTER	IQUANT	1	Ach Filter
CABLEID	IQUANT	14	Cable ID
DCCALDATE	LABEL	20-10-2016	DC Calibration Date
ACCALDATE	LABEL	12/3/2015	AC Calibration Date
FRAMEWORKVERSION	QUANT	7.01	Framework Version
INSTRUMENTVERSION	LABEL	4.00	Instrument Version
CURVE	TABLE	52
	Pt	T	Vf	Im	Vu	Pwr	Sig	Ach	Temp	IERange	Over
	#	s	V	A	V	W	V	V	deg C	#	bits
	0	0.013333	3.77461E-001	-6.01803E-003	0.00000E+000	-2.27157E-003	-3.59960E-001	-1.14572E+000	3.57670E+000	10	...........
	1	0.026667	3.65867E-001	-6.01543E-003	0.00000E+000	-2.20085E-003	-3.59960E-001	-1.13791E+000	3.57670E+000	10	...........
	2	0.04	3.55098E-001	-6.01764E-003	0.00000E+000	-2.13685E-003	-3.59960E-001	-1.14495E+000	3.57670E+000	10	...........
	3	0.053333	3.44867E-001	-6.01479E-003	0.00000E+000	-2.07430E-003	-3.59960E-001	-1.14549E+000	3.57670E+000	10	...........
	4	0.066667	3.35046E-001	-6.01535E-003	0.00000E+000	-2.01542E-003	-3.59960E-001	-1.13799E+000	3.57670E+000	10	...........
	5	0.08	3.25486E-001	-6.02137E-003	0.00000E+000	-1.95987E-003	-3.59960E-001	-1.14498E+000	3.57670E+000	10	...........
	6	0.093333	3.16132E-001	-6.01628E-003	0.00000E+000	-1.90194E-003	-3.59960E-001	-1.14572E+000	3.57670E+000	10	...........
	7	0.106667	3.07005E-001	-6.01320E-003	0.00000E+000	-1.84608E-003	-3.59960E-001	-1.13807E+000	3.57670E+000	10	...........
	8	0.12	2.98029E-001	-6.01401E-003	0.00000E+000	-1.79235E-003	-3.59960E-001	-1.14533E+000	3.57670E+000	10	...........
	9	0.133333	2.89220E-001	-6.01530E-003	0.00000E+000	-1.73975E-003	-3.59960E-001	-1.14606E+000	3.57670E+000	10	...........
	10	0.146667	2.80516E-001	-6.01499E-003	0.00000E+000	-1.68730E-003	-3.59960E-001	-1.13846E+000	3.57670E+000	10	...........
	11	0.16	2.71914E-001	-6.01804E-003	0.00000E+000	-1.63639E-003	-3.59960E-001	-1.14514E+000	3.57670E+000	10	...........
	12	0.173333	2.63497E-001	-6.01458E-003	0.00000E+000	-1.58482E-003	-3.59960E-001	-1.14610E+000	3.57670E+000	10	...........
	13	0.186667	2.55203E-001	-6.01601E-003	0.00000E+000	-1.53530E-003	-3.59960E-001	-1.13857E+000	3.57670E+000	10	...........
	14	0.2	2.47012E-001	-6.01240E-003	0.00000E+000	-1.48514E-003	-3.59960E-001	-1.14562E+000	3.57670E+000	10	...........
	15	0.213333	2.38886E-001	-6.01328E-003	0.00000E+000	-1.43649E-003	-3.59960E-001	-1.14647E+000	3.57670E+000	10	...........
	16	0.226667	2.30875E-001	-6.01100E-003	0.00000E+000	-1.38779E-003	-3.59960E-001	-1.13876E+000	3.57670E+000	10	...........
	17	0.24	2.22940E-001	-6.01315E-003	0.00000E+000	-1.34057E-003	-3.59960E-001	-1.14559E+000	3.57670E+000	10	...........
	18	0.253333	2.15158E-001	-6.01308E-003	0.00000E+000	-1.29376E-003	-3.59960E-001	-1.14673E+000	3.57670E+000	10	...........
	19	0.266667	2.07453E-001	-6.01508E-003	0.00000E+000	-1.24784E-003	-3.59960E-001	-1.13929E+000	3.57666E+000	10	...........
	20	0.28	1.99860E-001	-6.01333E-003	0.00000E+000	-1.20183E-003	-3.59960E-001	-1.14605E+000	3.57640E+000	10	...........
	21	0.293333	1.92312E-001	-6.01434E-003	0.00000E+000	-1.15663E-003	-3.59960E-001	-1.14701E+000	3.57640E+000	10	...........
	22	0.306667	1.84891E-001	-6.01350E-003	0.00000E+000	-1.11185E-003	-3.59960E-001	-1.13902E+000	3.57640E+000	10	...........
	23	0.32	1.77523E-001	-6.01588E-003	0.00000E+000	-1.06796E-003	-3.59960E-001	-1.14621E+000	3.57640E+000	10	...........
	24	0.333333	1.70307E-001	-6.01590E-003	0.00000E+000	-1.02455E-003	-3.59960E-001	-1.14722E+000	3.57640E+000	10	...........
	25	0.346667	1.63130E-001	-6.01429E-003	0.00000E+000	-9.81108E-004	-3.59960E-001	-1.13929E+000	3.57640E+000	10	...........
	26	0.36	1.56073E-001	-6.01496E-003	0.00000E+000	-9.38774E-004	-3.59960E-001	-1.14609E+000	3.57640E+000	10	...........
	27	0.373333	1.49061E-001	-6.01321E-003	0.00000E+000	-8.96335E-004	-3.59960E-001	-1.14686E+000	3.57640E+000	10	...........
	28	0.386667	1.42172E-001	-6.01375E-003	0.00000E+000	-8.54985E-004	-3.59960E-001	-1.13912E+000	3.57640E+000	10	...........
	29	0.4	1.35299E-001	-6.01433E-003	0.00000E+000	-8.13735E-004	-3.59960E-001	-1.14607E+000	3.57640E+000	10	...........
	30	0.413333	1.28516E-001	-6.01107E-003	0.00000E+000	-7.72517E-004	-3.59960E-001	-1.14713E+000	3.57640E+000	10	...........
	31	0.426667	1.21832E-001	-6.01530E-003	0.00000E+000	-7.32855E-004	-3.59960E-001	-1.13944E+000	3.57640E+000	10	...........
	32	0.44	1.15206E-001	-6.02080E-003	0.00000E+000	-6.93636E-004	-3.59960E-001	-1.14606E+000	3.57640E+000	10	...........
	33	0.453333	1.08614E-001	-6.01253E-003	0.00000E+000	-6.53046E-004	-3.59960E-001	-1.14721E+000	3.57640E+000	10	...........
	34	0.466667	1.02115E-001	-6.01049E-003	0.00000E+000	-6.13761E-004	-3.59960E-001	-1.13955E+000	3.57640E+000	10	...........
	35	0.48	9.56955E-002	-6.01940E-003	0.00000E+000	-5.76029E-004	-3.59960E-001	-1.14628E+000	3.57640E+000	10	...........
	36	0.493333	8.93682E-002	-6.01288E-003	0.00000E+000	-5.37360E-004	-3.59960E-001	-1.14714E+000	3.57640E+000	10	...........
	37	0.506667	8.30510E-002	-6.01470E-003	0.00000E+000	-4.99527E-004	-3.59960E-001	-1.13957E+000	3.57640E+000	10	...........
	38	0.52	7.68279E-002	-6.01886E-003	0.00000E+000	-4.62417E-004	-3.59960E-001	-1.14653E+000	3.57640E+000	10	...........
	39	0.533333	7.06905E-002	-6.01786E-003	0.00000E+000	-4.25406E-004	-3.59960E-001	-1.14753E+000	3.57640E+000	10	...........
	40	0.546667	6.45816E-002	-6.01784E-003	0.00000E+000	-3.88642E-004	-3.59960E-001	-1.13959E+000	3.57640E+000	10	...........
	41	0.56	5.85735E-002	-6.01842E-003	0.00000E+000	-3.52519E-004	-3.59960E-001	-1.14627E+000	3.57640E+000	10	...........
	42	0.573333	5.26226E-002	-6.01720E-003	0.00000E+000	-3.16640E-004	-3.59960E-001	-1.14740E+000	3.57640E+000	10	...........
	43	0.586667	4.67698E-002	-6.01319E-003	0.00000E+000	-2.81236E-004	-3.59960E-001	-1.13994E+000	3.57640E+000	10	...........
	44	0.6	4.09782E-002	-6.01333E-003	0.00000E+000	-2.46415E-004	-3.59960E-001	-1.14674E+000	3.57640E+000	10	...........
	45	0.613333	3.51619E-002	-6.01598E-003	0.00000E+000	-2.11533E-004	-3.59960E-001	-1.14794E+000	3.57640E+000	10	...........
	46	0.626667	2.94220E-002	-6.01964E-003	0.00000E+000	-1.77109E-004	-3.59960E-001	-1.14021E+000	3.57640E+000	10	...........
	47	0.64	2.37630E-002	-6.01169E-003	0.00000E+000	-1.42856E-004	-3.59960E-001	-1.14672E+000	3.57640E+000	10	...........
	48	0.653333	1.81937E-002	-6.01352E-003	0.00000E+000	-1.09408E-004	-3.59960E-001	-1.14831E+000	3.57640E+000	10	...........
	49	0.666667	1.26130E-002	-6.01403E-003	0.00000E+000	-7.58550E-005	-3.59960E-001	-1.14039E+000	3.57640E+000	10	...........
	50	0.68	7.08886E-003	-6.01556E-003	0.00000E+000	-4.26434E-005	-3.59960E-001	-1.14716E+000	3.57640E+000	10	...........
	51	0.691667	1.95522E-003	-6.01450E-003	0.00000E+000	-1.17596E-005	-3.59960E-001	-1.14707E+000	3.57640E+000	10	...........
STARTTIMEOFFSET	QUANT	1519.455	Start Time Offset (s)
