EXPLAIN
TAG	PWR800_DISCHARGE
TITLE	LABEL	PWR Cyclic Charge Discharge (Cell) - Discharge Step	Test &Identifier
DATE	LABEL	22-6-2017	Date
TIME	LABEL	16:04:22	Time
NOTES	NOTES	3	&Notes...
	supercap test cell
	0.6mg
	6M KOH
PSTAT	PSTAT	IFC5000-01520	Potentiostat
CAPACITY	QUANT	1.00000E-003	Capacity (A-hr)
CELLTYPE	SELECTOR	1	&Cell Type
WORKINGCONNECTION	SELECTOR	0	&Working Lead
MAXDISCHARGETIME	VARIABLEANDUNITS	1.00000E+002	s	1.00000E+002	second(s)	Max &Discharge Time
DISCHARGEMODE	MULTIPARAM	0	6.00000E-003	&Discharge Mode	Constant Current	Amp(s)
SAMPLETIME	QUANT	1.00000E-002	Sa&mple Period (s)
DISCHARGESTOPAT1	MULTIPARAM	3	0.00000E+000	Discharge Stop At &1	Voltage < Limit	V
DISCHARGESTOPAT2	MULTIPARAM	0	0.00000E+000	Discharge Stop At &2	None	N/A
AESBHCSELECTOR	TOGGLE	F	Save Both Half Cells
IRCOMP	TOGGLE	F	IR &Measure
EOC	QUANT	0	Open Circuit (V)
SEQUENCER	TOGGLE	TRUE	Run as Sequence
PSTATMODEL	IQUANT	53	Pstat Model
PSTATSECTION	LABEL	IFC5000-01520	Pstat Section
PSTATSERIALNO	LABEL	01520	Pstat Serial Number
CTRLMODE	IQUANT	0	Control Mode
ELECTROMETER	IQUANT	1	RE=0 or CS=1
IESTAB	IQUANT	0	I/E Stability
CASPEED	IQUANT	4	Control Amp Speed
CONVENTION	IQUANT	1	Current Convention
ICHRANGE	IQUANT	2	Ich Range
ICHRANGEMODE	TOGGLE	T	Ich Auto Range
ICHOFFSETENABLE	TOGGLE	F	Ich Offset Enable
ICHOFFSET	QUANT	0	Ich Offset (V)
ICHFILTER	IQUANT	1	Ich Filter
VCHRANGE	IQUANT	2	Vch Range
VCHRANGEMODE	TOGGLE	T	Vch Auto Range
VCHOFFSETENABLE	TOGGLE	F	Vch Offset Enable
VCHOFFSET	QUANT	0	Vch Offset (V)
VCHFILTER	IQUANT	1	Vch Filter
IERANGELOWERLIMIT	IQUANT	9	I/E Range Lower Limit
IERANGEMODE	TOGGLE	F	I/E AutoRange
IERANGE	IQUANT	10	I/E Range
ACHSELECT	IQUANT	1	Ach Select
ACHRANGE	IQUANT	2	Ach Range
ACHOFFSETENABLE	TOGGLE	F	Ach Offset Enable
ACHOFFSET	QUANT	0	Ach Offset (V)
ACHFILTER	IQUANT	1	Ach Filter
CABLEID	IQUANT	14	Cable ID
DCCALDATE	LABEL	20-10-2016	DC Calibration Date
ACCALDATE	LABEL	12/3/2015	AC Calibration Date
FRAMEWORKVERSION	QUANT	7.01	Framework Version
INSTRUMENTVERSION	LABEL	4.00	Instrument Version
CURVE	TABLE	55
	Pt	T	Vf	Im	Vu	Pwr	Sig	Ach	Temp	IERange	Over
	#	s	V	A	V	W	V	V	deg C	#	bits
	0	0.013333	3.86373E-001	-6.01496E-003	0.00000E+000	-2.32402E-003	-3.59960E-001	-1.12260E+000	3.57730E+000	10	...........
	1	0.026667	3.74986E-001	-6.01216E-003	0.00000E+000	-2.25447E-003	-3.59960E-001	-1.12000E+000	3.57730E+000	10	...........
	2	0.04	3.64397E-001	-6.01753E-003	0.00000E+000	-2.19277E-003	-3.59960E-001	-1.13113E+000	3.57730E+000	10	...........
	3	0.053333	3.54358E-001	-6.01612E-003	0.00000E+000	-2.13186E-003	-3.59960E-001	-1.12300E+000	3.57730E+000	10	...........
	4	0.066667	3.44680E-001	-6.01278E-003	0.00000E+000	-2.07249E-003	-3.59960E-001	-1.12031E+000	3.57730E+000	10	...........
	5	0.08	3.35297E-001	-6.02043E-003	0.00000E+000	-2.01863E-003	-3.59960E-001	-1.13134E+000	3.57730E+000	10	...........
	6	0.093333	3.26181E-001	-6.01344E-003	0.00000E+000	-1.96147E-003	-3.59960E-001	-1.12328E+000	3.57730E+000	10	...........
	7	0.106667	3.17208E-001	-6.01323E-003	0.00000E+000	-1.90744E-003	-3.59960E-001	-1.12034E+000	3.57730E+000	10	...........
	8	0.12	3.08410E-001	-6.01336E-003	0.00000E+000	-1.85458E-003	-3.59960E-001	-1.13145E+000	3.57730E+000	10	...........
	9	0.133333	2.99709E-001	-6.01231E-003	0.00000E+000	-1.80194E-003	-3.59960E-001	-1.12339E+000	3.57730E+000	10	...........
	10	0.146667	2.91185E-001	-6.01926E-003	0.00000E+000	-1.75272E-003	-3.59960E-001	-1.12066E+000	3.57730E+000	10	...........
	11	0.16	2.82755E-001	-6.01345E-003	0.00000E+000	-1.70033E-003	-3.59960E-001	-1.13176E+000	3.57730E+000	10	...........
	12	0.173333	2.74455E-001	-6.01163E-003	0.00000E+000	-1.64992E-003	-3.59960E-001	-1.12345E+000	3.57730E+000	10	...........
	13	0.186667	2.66277E-001	-6.02016E-003	0.00000E+000	-1.60303E-003	-3.59960E-001	-1.12112E+000	3.57719E+000	10	...........
	14	0.2	2.58217E-001	-6.01696E-003	0.00000E+000	-1.55368E-003	-3.59960E-001	-1.13229E+000	3.57640E+000	10	...........
	15	0.213333	2.50241E-001	-6.01227E-003	0.00000E+000	-1.50452E-003	-3.59960E-001	-1.12380E+000	3.57640E+000	10	...........
	16	0.226667	2.42412E-001	-6.01833E-003	0.00000E+000	-1.45892E-003	-3.59960E-001	-1.12113E+000	3.57640E+000	10	...........
	17	0.24	2.34653E-001	-6.01531E-003	0.00000E+000	-1.41151E-003	-3.59960E-001	-1.13227E+000	3.57640E+000	10	...........
	18	0.253333	2.26967E-001	-6.01633E-003	0.00000E+000	-1.36551E-003	-3.59960E-001	-1.12338E+000	3.57640E+000	10	...........
	19	0.266667	2.19408E-001	-6.01106E-003	0.00000E+000	-1.31888E-003	-3.59960E-001	-1.12099E+000	3.57640E+000	10	...........
	20	0.28	2.11936E-001	-6.01428E-003	0.00000E+000	-1.27464E-003	-3.59960E-001	-1.13217E+000	3.57640E+000	10	...........
	21	0.293333	2.04531E-001	-6.01340E-003	0.00000E+000	-1.22993E-003	-3.59960E-001	-1.12364E+000	3.57640E+000	10	...........
	22	0.306667	1.97203E-001	-6.01312E-003	0.00000E+000	-1.18580E-003	-3.59960E-001	-1.12107E+000	3.57640E+000	10	...........
	23	0.32	1.89952E-001	-6.01570E-003	0.00000E+000	-1.14269E-003	-3.59960E-001	-1.13232E+000	3.57640E+000	10	...........
	24	0.333333	1.82838E-001	-6.01480E-003	0.00000E+000	-1.09973E-003	-3.59960E-001	-1.12382E+000	3.57640E+000	10	...........
	25	0.346667	1.75747E-001	-6.01564E-003	0.00000E+000	-1.05723E-003	-3.59960E-001	-1.12138E+000	3.57640E+000	10	...........
	26	0.36	1.68793E-001	-6.01538E-003	0.00000E+000	-1.01535E-003	-3.59960E-001	-1.13241E+000	3.57640E+000	10	...........
	27	0.373333	1.61859E-001	-6.01662E-003	0.00000E+000	-9.73845E-004	-3.59960E-001	-1.12366E+000	3.57640E+000	10	...........
	28	0.386667	1.54973E-001	-6.01440E-003	0.00000E+000	-9.32068E-004	-3.59960E-001	-1.12151E+000	3.57640E+000	10	...........
	29	0.4	1.48197E-001	-6.01673E-003	0.00000E+000	-8.91659E-004	-3.59960E-001	-1.13272E+000	3.57640E+000	10	...........
	30	0.413333	1.41501E-001	-6.01100E-003	0.00000E+000	-8.50561E-004	-3.59960E-001	-1.12393E+000	3.57640E+000	10	...........
	31	0.426667	1.34919E-001	-6.01254E-003	0.00000E+000	-8.11207E-004	-3.59960E-001	-1.12145E+000	3.57640E+000	10	...........
	32	0.44	1.28330E-001	-6.01307E-003	0.00000E+000	-7.71659E-004	-3.59960E-001	-1.13273E+000	3.57640E+000	10	...........
	33	0.453333	1.21836E-001	-6.01170E-003	0.00000E+000	-7.32443E-004	-3.59960E-001	-1.12408E+000	3.57640E+000	10	...........
	34	0.466667	1.15395E-001	-6.01444E-003	0.00000E+000	-6.94039E-004	-3.59960E-001	-1.12200E+000	3.57640E+000	10	...........
	35	0.48	1.09038E-001	-6.01684E-003	0.00000E+000	-6.56062E-004	-3.59960E-001	-1.13316E+000	3.57640E+000	10	...........
	36	0.493333	1.02751E-001	-6.01396E-003	0.00000E+000	-6.17938E-004	-3.59960E-001	-1.12420E+000	3.57640E+000	10	...........
	37	0.506667	9.65535E-002	-6.01470E-003	0.00000E+000	-5.80741E-004	-3.59960E-001	-1.12188E+000	3.57640E+000	10	...........
	38	0.52	9.03715E-002	-6.01089E-003	0.00000E+000	-5.43213E-004	-3.59960E-001	-1.13312E+000	3.57640E+000	10	...........
	39	0.533333	8.42461E-002	-6.01758E-003	0.00000E+000	-5.06958E-004	-3.59960E-001	-1.12437E+000	3.57640E+000	10	...........
	40	0.546667	7.82348E-002	-6.01374E-003	0.00000E+000	-4.70484E-004	-3.59960E-001	-1.12202E+000	3.57640E+000	10	...........
	41	0.56	7.22265E-002	-6.01998E-003	0.00000E+000	-4.34802E-004	-3.59960E-001	-1.13301E+000	3.57640E+000	10	...........
	42	0.573333	6.62696E-002	-6.02194E-003	0.00000E+000	-3.99072E-004	-3.59960E-001	-1.12375E+000	3.57640E+000	10	...........
	43	0.586667	6.04089E-002	-6.01798E-003	0.00000E+000	-3.63540E-004	-3.59960E-001	-1.12171E+000	3.57640E+000	10	...........
	44	0.6	5.46258E-002	-6.01327E-003	0.00000E+000	-3.28480E-004	-3.59960E-001	-1.13293E+000	3.57640E+000	10	...........
	45	0.613333	4.88959E-002	-6.01074E-003	0.00000E+000	-2.93901E-004	-3.59960E-001	-1.12406E+000	3.57640E+000	10	...........
	46	0.626667	4.31483E-002	-6.01415E-003	0.00000E+000	-2.59501E-004	-3.59960E-001	-1.12171E+000	3.57640E+000	10	...........
	47	0.64	3.74733E-002	-6.01719E-003	0.00000E+000	-2.25484E-004	-3.59960E-001	-1.13301E+000	3.57640E+000	10	...........
	48	0.653333	3.19135E-002	-6.01683E-003	0.00000E+000	-1.92018E-004	-3.59960E-001	-1.12409E+000	3.57640E+000	10	...........
	49	0.666667	2.63734E-002	-6.01212E-003	0.00000E+000	-1.58560E-004	-3.59960E-001	-1.12209E+000	3.57640E+000	10	...........
	50	0.68	2.08779E-002	-6.01247E-003	0.00000E+000	-1.25528E-004	-3.59960E-001	-1.13322E+000	3.57640E+000	10	...........
	51	0.693333	1.53926E-002	-6.01286E-003	0.00000E+000	-9.25535E-005	-3.59960E-001	-1.12387E+000	3.57640E+000	10	...........
	52	0.706667	1.00134E-002	-6.01246E-003	0.00000E+000	-6.02049E-005	-3.59960E-001	-1.12202E+000	3.57640E+000	10	...........
	53	0.72	4.64757E-003	-6.01675E-003	0.00000E+000	-2.79632E-005	-3.59960E-001	-1.13317E+000	3.57640E+000	10	...........
	54	0.726667	6.82621E-004	-6.00974E-003	0.00000E+000	-4.10237E-006	-3.59960E-001	-1.11295E+000	3.57640E+000	10	...........
STARTTIMEOFFSET	QUANT	1190.664	Start Time Offset (s)
