EXPLAIN
TAG	PWR800_DISCHARGE
TITLE	LABEL	PWR Cyclic Charge Discharge (Cell) - Discharge Step	Test &Identifier
DATE	LABEL	22-6-2017	Date
TIME	LABEL	16:09:53	Time
NOTES	NOTES	3	&Notes...
	supercap test cell
	0.6mg
	6M KOH
PSTAT	PSTAT	IFC5000-01520	Potentiostat
CAPACITY	QUANT	1.00000E-003	Capacity (A-hr)
CELLTYPE	SELECTOR	1	&Cell Type
WORKINGCONNECTION	SELECTOR	0	&Working Lead
MAXDISCHARGETIME	VARIABLEANDUNITS	1.00000E+002	s	1.00000E+002	second(s)	Max &Discharge Time
DISCHARGEMODE	MULTIPARAM	0	6.00000E-003	&Discharge Mode	Constant Current	Amp(s)
SAMPLETIME	QUANT	1.00000E-002	Sa&mple Period (s)
DISCHARGESTOPAT1	MULTIPARAM	3	0.00000E+000	Discharge Stop At &1	Voltage < Limit	V
DISCHARGESTOPAT2	MULTIPARAM	0	0.00000E+000	Discharge Stop At &2	None	N/A
AESBHCSELECTOR	TOGGLE	F	Save Both Half Cells
IRCOMP	TOGGLE	F	IR &Measure
EOC	QUANT	0	Open Circuit (V)
SEQUENCER	TOGGLE	TRUE	Run as Sequence
PSTATMODEL	IQUANT	53	Pstat Model
PSTATSECTION	LABEL	IFC5000-01520	Pstat Section
PSTATSERIALNO	LABEL	01520	Pstat Serial Number
CTRLMODE	IQUANT	0	Control Mode
ELECTROMETER	IQUANT	1	RE=0 or CS=1
IESTAB	IQUANT	0	I/E Stability
CASPEED	IQUANT	4	Control Amp Speed
CONVENTION	IQUANT	1	Current Convention
ICHRANGE	IQUANT	2	Ich Range
ICHRANGEMODE	TOGGLE	T	Ich Auto Range
ICHOFFSETENABLE	TOGGLE	F	Ich Offset Enable
ICHOFFSET	QUANT	0	Ich Offset (V)
ICHFILTER	IQUANT	1	Ich Filter
VCHRANGE	IQUANT	2	Vch Range
VCHRANGEMODE	TOGGLE	T	Vch Auto Range
VCHOFFSETENABLE	TOGGLE	F	Vch Offset Enable
VCHOFFSET	QUANT	0	Vch Offset (V)
VCHFILTER	IQUANT	1	Vch Filter
IERANGELOWERLIMIT	IQUANT	9	I/E Range Lower Limit
IERANGEMODE	TOGGLE	F	I/E AutoRange
IERANGE	IQUANT	10	I/E Range
ACHSELECT	IQUANT	1	Ach Select
ACHRANGE	IQUANT	2	Ach Range
ACHOFFSETENABLE	TOGGLE	F	Ach Offset Enable
ACHOFFSET	QUANT	0	Ach Offset (V)
ACHFILTER	IQUANT	1	Ach Filter
CABLEID	IQUANT	14	Cable ID
DCCALDATE	LABEL	20-10-2016	DC Calibration Date
ACCALDATE	LABEL	12/3/2015	AC Calibration Date
FRAMEWORKVERSION	QUANT	7.01	Framework Version
INSTRUMENTVERSION	LABEL	4.00	Instrument Version
CURVE	TABLE	53
	Pt	T	Vf	Im	Vu	Pwr	Sig	Ach	Temp	IERange	Over
	#	s	V	A	V	W	V	V	deg C	#	bits
	0	0.013333	3.80191E-001	-6.01372E-003	0.00000E+000	-2.28636E-003	-3.59960E-001	-1.13165E+000	3.57670E+000	10	...........
	1	0.026667	3.68658E-001	-6.01344E-003	0.00000E+000	-2.21690E-003	-3.59960E-001	-1.14282E+000	3.57670E+000	10	...........
	2	0.04	3.57960E-001	-6.01315E-003	0.00000E+000	-2.15247E-003	-3.59960E-001	-1.13265E+000	3.57670E+000	10	...........
	3	0.053333	3.47785E-001	-6.01473E-003	0.00000E+000	-2.09184E-003	-3.59960E-001	-1.13198E+000	3.57670E+000	10	...........
	4	0.066667	3.37984E-001	-6.01750E-003	0.00000E+000	-2.03382E-003	-3.59960E-001	-1.14309E+000	3.57670E+000	10	...........
	5	0.08	3.28508E-001	-6.01588E-003	0.00000E+000	-1.97627E-003	-3.59960E-001	-1.13262E+000	3.57670E+000	10	...........
	6	0.093333	3.19253E-001	-6.01754E-003	0.00000E+000	-1.92112E-003	-3.59960E-001	-1.13177E+000	3.57670E+000	10	...........
	7	0.106667	3.10187E-001	-6.01091E-003	0.00000E+000	-1.86451E-003	-3.59960E-001	-1.14264E+000	3.57670E+000	10	...........
	8	0.12	3.01289E-001	-6.01490E-003	0.00000E+000	-1.81222E-003	-3.59960E-001	-1.13311E+000	3.57670E+000	10	...........
	9	0.133333	2.92496E-001	-6.01757E-003	0.00000E+000	-1.76011E-003	-3.59960E-001	-1.13198E+000	3.57670E+000	10	...........
	10	0.146667	2.83880E-001	-6.00904E-003	0.00000E+000	-1.70585E-003	-3.59960E-001	-1.14257E+000	3.57670E+000	10	...........
	11	0.16	2.75354E-001	-6.01350E-003	0.00000E+000	-1.65584E-003	-3.59960E-001	-1.13282E+000	3.57670E+000	10	...........
	12	0.173333	2.66947E-001	-6.01590E-003	0.00000E+000	-1.60593E-003	-3.59960E-001	-1.13213E+000	3.57670E+000	10	...........
	13	0.186667	2.58677E-001	-6.01722E-003	0.00000E+000	-1.55651E-003	-3.59960E-001	-1.14292E+000	3.57670E+000	10	...........
	14	0.2	2.50511E-001	-6.01083E-003	0.00000E+000	-1.50578E-003	-3.59960E-001	-1.13319E+000	3.57670E+000	10	...........
	15	0.213333	2.42463E-001	-6.01862E-003	0.00000E+000	-1.45930E-003	-3.59960E-001	-1.13198E+000	3.57670E+000	10	...........
	16	0.226667	2.34532E-001	-6.01236E-003	0.00000E+000	-1.41009E-003	-3.59960E-001	-1.14297E+000	3.57670E+000	10	...........
	17	0.24	2.26656E-001	-6.01783E-003	0.00000E+000	-1.36398E-003	-3.59960E-001	-1.13338E+000	3.57670E+000	10	...........
	18	0.253333	2.18922E-001	-6.01722E-003	0.00000E+000	-1.31730E-003	-3.59960E-001	-1.13249E+000	3.57670E+000	10	...........
	19	0.266667	2.11278E-001	-6.01464E-003	0.00000E+000	-1.27076E-003	-3.59960E-001	-1.14334E+000	3.57670E+000	10	...........
	20	0.28	2.03744E-001	-6.01279E-003	0.00000E+000	-1.22507E-003	-3.59960E-001	-1.13339E+000	3.57670E+000	10	...........
	21	0.293333	1.96247E-001	-6.01561E-003	0.00000E+000	-1.18055E-003	-3.59960E-001	-1.13239E+000	3.57670E+000	10	...........
	22	0.306667	1.88863E-001	-6.01048E-003	0.00000E+000	-1.13516E-003	-3.59960E-001	-1.14370E+000	3.57670E+000	10	...........
	23	0.32	1.81563E-001	-6.01627E-003	0.00000E+000	-1.09233E-003	-3.59960E-001	-1.13379E+000	3.57670E+000	10	...........
	24	0.333333	1.74358E-001	-6.01308E-003	0.00000E+000	-1.04843E-003	-3.59960E-001	-1.13301E+000	3.57670E+000	10	...........
	25	0.346667	1.67188E-001	-6.01689E-003	0.00000E+000	-1.00595E-003	-3.59960E-001	-1.14396E+000	3.57670E+000	10	...........
	26	0.36	1.60123E-001	-6.01963E-003	0.00000E+000	-9.63879E-004	-3.59960E-001	-1.13377E+000	3.57670E+000	10	...........
	27	0.373333	1.53152E-001	-6.01546E-003	0.00000E+000	-9.21280E-004	-3.59960E-001	-1.13297E+000	3.57670E+000	10	...........
	28	0.386667	1.46216E-001	-6.01329E-003	0.00000E+000	-8.79240E-004	-3.59960E-001	-1.14406E+000	3.57670E+000	10	...........
	29	0.4	1.39390E-001	-6.01949E-003	0.00000E+000	-8.39056E-004	-3.59960E-001	-1.13374E+000	3.57670E+000	10	...........
	30	0.413333	1.32644E-001	-6.01771E-003	0.00000E+000	-7.98210E-004	-3.59960E-001	-1.13282E+000	3.57670E+000	10	...........
	31	0.426667	1.25957E-001	-6.01537E-003	0.00000E+000	-7.57677E-004	-3.59960E-001	-1.14376E+000	3.57670E+000	10	...........
	32	0.44	1.19387E-001	-6.01230E-003	0.00000E+000	-7.17792E-004	-3.59960E-001	-1.13360E+000	3.57670E+000	10	...........
	33	0.453333	1.12862E-001	-6.01207E-003	0.00000E+000	-6.78536E-004	-3.59960E-001	-1.13305E+000	3.57670E+000	10	...........
	34	0.466667	1.06417E-001	-6.01379E-003	0.00000E+000	-6.39967E-004	-3.59960E-001	-1.14365E+000	3.57665E+000	10	...........
	35	0.48	1.00023E-001	-6.01691E-003	0.00000E+000	-6.01829E-004	-3.59960E-001	-1.13366E+000	3.57630E+000	10	...........
	36	0.493333	9.36929E-002	-6.01604E-003	0.00000E+000	-5.63660E-004	-3.59960E-001	-1.13291E+000	3.57630E+000	10	...........
	37	0.506667	8.74093E-002	-6.01445E-003	0.00000E+000	-5.25719E-004	-3.59960E-001	-1.14376E+000	3.57630E+000	10	...........
	38	0.52	8.12421E-002	-6.00992E-003	0.00000E+000	-4.88258E-004	-3.59960E-001	-1.13416E+000	3.57630E+000	10	...........
	39	0.533333	7.50722E-002	-6.01583E-003	0.00000E+000	-4.51622E-004	-3.59960E-001	-1.13308E+000	3.57630E+000	10	...........
	40	0.546667	6.90227E-002	-6.01762E-003	0.00000E+000	-4.15353E-004	-3.59960E-001	-1.14380E+000	3.57630E+000	10	...........
	41	0.56	6.30009E-002	-6.01237E-003	0.00000E+000	-3.78785E-004	-3.59960E-001	-1.13427E+000	3.57630E+000	10	...........
	42	0.573333	5.70887E-002	-6.01173E-003	0.00000E+000	-3.43202E-004	-3.59960E-001	-1.13324E+000	3.57630E+000	10	...........
	43	0.586667	5.11753E-002	-6.01550E-003	0.00000E+000	-3.07845E-004	-3.59960E-001	-1.14407E+000	3.57630E+000	10	...........
	44	0.6	4.53774E-002	-6.01294E-003	0.00000E+000	-2.72851E-004	-3.59960E-001	-1.13426E+000	3.57630E+000	10	...........
	45	0.613333	3.95858E-002	-6.01357E-003	0.00000E+000	-2.38052E-004	-3.59960E-001	-1.13331E+000	3.57630E+000	10	...........
	46	0.626667	3.38741E-002	-6.01047E-003	0.00000E+000	-2.03599E-004	-3.59960E-001	-1.14415E+000	3.57630E+000	10	...........
	47	0.64	2.81962E-002	-6.01328E-003	0.00000E+000	-1.69552E-004	-3.59960E-001	-1.13452E+000	3.57630E+000	10	...........
	48	0.653333	2.25699E-002	-6.01256E-003	0.00000E+000	-1.35703E-004	-3.59960E-001	-1.13387E+000	3.57630E+000	10	...........
	49	0.666667	1.69661E-002	-6.01664E-003	0.00000E+000	-1.02079E-004	-3.59960E-001	-1.14439E+000	3.57630E+000	10	...........
	50	0.68	1.14471E-002	-6.01406E-003	0.00000E+000	-6.88436E-005	-3.59960E-001	-1.13444E+000	3.57630E+000	10	...........
	51	0.693333	5.97310E-003	-6.01826E-003	0.00000E+000	-3.59477E-005	-3.59960E-001	-1.13371E+000	3.57630E+000	10	...........
	52	0.703333	1.26214E-003	-6.01579E-003	0.00000E+000	-7.59278E-006	-3.59960E-001	-1.14587E+000	3.57630E+000	10	...........
STARTTIMEOFFSET	QUANT	1404.487	Start Time Offset (s)
