EXPLAIN
TAG	PWR800_DISCHARGE
TITLE	LABEL	PWR Cyclic Charge Discharge (Cell) - Discharge Step	Test &Identifier
DATE	LABEL	22-6-2017	Date
TIME	LABEL	15:38:38	Time
NOTES	NOTES	3	&Notes...
	supercap test cell
	0.6mg
	6M KOH
PSTAT	PSTAT	IFC5000-01520	Potentiostat
CAPACITY	QUANT	1.00000E-003	Capacity (A-hr)
CELLTYPE	SELECTOR	1	&Cell Type
WORKINGCONNECTION	SELECTOR	0	&Working Lead
MAXDISCHARGETIME	VARIABLEANDUNITS	1.00000E+002	s	1.00000E+002	second(s)	Max &Discharge Time
DISCHARGEMODE	MULTIPARAM	0	6.00000E-003	&Discharge Mode	Constant Current	Amp(s)
SAMPLETIME	QUANT	1.00000E-002	Sa&mple Period (s)
DISCHARGESTOPAT1	MULTIPARAM	3	0.00000E+000	Discharge Stop At &1	Voltage < Limit	V
DISCHARGESTOPAT2	MULTIPARAM	0	0.00000E+000	Discharge Stop At &2	None	N/A
AESBHCSELECTOR	TOGGLE	F	Save Both Half Cells
IRCOMP	TOGGLE	F	IR &Measure
EOC	QUANT	0	Open Circuit (V)
SEQUENCER	TOGGLE	TRUE	Run as Sequence
PSTATMODEL	IQUANT	53	Pstat Model
PSTATSECTION	LABEL	IFC5000-01520	Pstat Section
PSTATSERIALNO	LABEL	01520	Pstat Serial Number
CTRLMODE	IQUANT	0	Control Mode
ELECTROMETER	IQUANT	1	RE=0 or CS=1
IESTAB	IQUANT	0	I/E Stability
CASPEED	IQUANT	4	Control Amp Speed
CONVENTION	IQUANT	1	Current Convention
ICHRANGE	IQUANT	2	Ich Range
ICHRANGEMODE	TOGGLE	T	Ich Auto Range
ICHOFFSETENABLE	TOGGLE	F	Ich Offset Enable
ICHOFFSET	QUANT	0	Ich Offset (V)
ICHFILTER	IQUANT	1	Ich Filter
VCHRANGE	IQUANT	2	Vch Range
VCHRANGEMODE	TOGGLE	T	Vch Auto Range
VCHOFFSETENABLE	TOGGLE	F	Vch Offset Enable
VCHOFFSET	QUANT	0	Vch Offset (V)
VCHFILTER	IQUANT	1	Vch Filter
IERANGELOWERLIMIT	IQUANT	9	I/E Range Lower Limit
IERANGEMODE	TOGGLE	F	I/E AutoRange
IERANGE	IQUANT	10	I/E Range
ACHSELECT	IQUANT	1	Ach Select
ACHRANGE	IQUANT	2	Ach Range
ACHOFFSETENABLE	TOGGLE	F	Ach Offset Enable
ACHOFFSET	QUANT	0	Ach Offset (V)
ACHFILTER	IQUANT	1	Ach Filter
CABLEID	IQUANT	14	Cable ID
DCCALDATE	LABEL	20-10-2016	DC Calibration Date
ACCALDATE	LABEL	12/3/2015	AC Calibration Date
FRAMEWORKVERSION	QUANT	7.01	Framework Version
INSTRUMENTVERSION	LABEL	4.00	Instrument Version
CURVE	TABLE	70
	Pt	T	Vf	Im	Vu	Pwr	Sig	Ach	Temp	IERange	Over
	#	s	V	A	V	W	V	V	deg C	#	bits
	0	0.013333	4.31158E-001	-6.01599E-003	0.00000E+000	-2.59384E-003	-3.59960E-001	-1.01829E+000	3.57850E+000	10	...........
	1	0.026667	4.21086E-001	-6.01962E-003	0.00000E+000	-2.53478E-003	-3.59960E-001	-1.03031E+000	3.57850E+000	10	...........
	2	0.04	4.11688E-001	-6.01376E-003	0.00000E+000	-2.47579E-003	-3.59960E-001	-1.01895E+000	3.57850E+000	10	...........
	3	0.053333	4.02778E-001	-6.01438E-003	0.00000E+000	-2.42246E-003	-3.59960E-001	-1.01841E+000	3.57850E+000	10	...........
	4	0.066667	3.94205E-001	-6.01658E-003	0.00000E+000	-2.37176E-003	-3.59960E-001	-1.03057E+000	3.57850E+000	10	...........
	5	0.08	3.85877E-001	-6.01870E-003	0.00000E+000	-2.32248E-003	-3.59960E-001	-1.01937E+000	3.57850E+000	10	...........
	6	0.093333	3.77774E-001	-6.01518E-003	0.00000E+000	-2.27238E-003	-3.59960E-001	-1.01861E+000	3.57850E+000	10	...........
	7	0.106667	3.69787E-001	-6.01707E-003	0.00000E+000	-2.22504E-003	-3.59960E-001	-1.03073E+000	3.57850E+000	10	...........
	8	0.12	3.61982E-001	-6.01549E-003	0.00000E+000	-2.17750E-003	-3.59960E-001	-1.01960E+000	3.57850E+000	10	...........
	9	0.133333	3.54305E-001	-6.01559E-003	0.00000E+000	-2.13135E-003	-3.59960E-001	-1.01897E+000	3.57850E+000	10	...........
	10	0.146667	3.46693E-001	-6.01508E-003	0.00000E+000	-2.08538E-003	-3.59960E-001	-1.03107E+000	3.57850E+000	10	...........
	11	0.16	3.39226E-001	-6.01107E-003	0.00000E+000	-2.03911E-003	-3.59960E-001	-1.01966E+000	3.57850E+000	10	...........
	12	0.173333	3.31849E-001	-6.01495E-003	0.00000E+000	-1.99605E-003	-3.59960E-001	-1.01903E+000	3.57850E+000	10	...........
	13	0.186667	3.24547E-001	-6.01724E-003	0.00000E+000	-1.95288E-003	-3.59960E-001	-1.03089E+000	3.57850E+000	10	...........
	14	0.2	3.17346E-001	-6.01585E-003	0.00000E+000	-1.90911E-003	-3.59960E-001	-1.01975E+000	3.57850E+000	10	...........
	15	0.213333	3.10229E-001	-6.01803E-003	0.00000E+000	-1.86697E-003	-3.59960E-001	-1.01891E+000	3.57850E+000	10	...........
	16	0.226667	3.03194E-001	-6.01295E-003	0.00000E+000	-1.82309E-003	-3.59960E-001	-1.03105E+000	3.57850E+000	10	...........
	17	0.24	2.96251E-001	-6.01722E-003	0.00000E+000	-1.78261E-003	-3.59960E-001	-1.01956E+000	3.57850E+000	10	...........
	18	0.253333	2.89331E-001	-6.01566E-003	0.00000E+000	-1.74052E-003	-3.59960E-001	-1.01884E+000	3.57850E+000	10	...........
	19	0.266667	2.82485E-001	-6.01595E-003	0.00000E+000	-1.69942E-003	-3.59960E-001	-1.03119E+000	3.57850E+000	10	...........
	20	0.28	2.75720E-001	-6.01633E-003	0.00000E+000	-1.65882E-003	-3.59960E-001	-1.01999E+000	3.57850E+000	10	...........
	21	0.293333	2.69060E-001	-6.01482E-003	0.00000E+000	-1.61835E-003	-3.59960E-001	-1.01918E+000	3.57850E+000	10	...........
	22	0.306667	2.62433E-001	-6.01827E-003	0.00000E+000	-1.57939E-003	-3.59960E-001	-1.03111E+000	3.57850E+000	10	...........
	23	0.32	2.55811E-001	-6.01640E-003	0.00000E+000	-1.53906E-003	-3.59960E-001	-1.01991E+000	3.57850E+000	10	...........
	24	0.333333	2.49275E-001	-6.01495E-003	0.00000E+000	-1.49938E-003	-3.59960E-001	-1.01920E+000	3.57850E+000	10	...........
	25	0.346667	2.42824E-001	-6.02163E-003	0.00000E+000	-1.46220E-003	-3.59960E-001	-1.03135E+000	3.57790E+000	10	...........
	26	0.36	2.36409E-001	-6.01413E-003	0.00000E+000	-1.42179E-003	-3.59960E-001	-1.02024E+000	3.57730E+000	10	...........
	27	0.373333	2.30056E-001	-6.01721E-003	0.00000E+000	-1.38430E-003	-3.59960E-001	-1.01930E+000	3.57730E+000	10	...........
	28	0.386667	2.23768E-001	-6.01472E-003	0.00000E+000	-1.34590E-003	-3.59960E-001	-1.03140E+000	3.57730E+000	10	...........
	29	0.4	2.17521E-001	-6.01528E-003	0.00000E+000	-1.30845E-003	-3.59960E-001	-1.02056E+000	3.57730E+000	10	...........
	30	0.413333	2.11343E-001	-6.01764E-003	0.00000E+000	-1.27179E-003	-3.59960E-001	-1.01968E+000	3.57730E+000	10	...........
	31	0.426667	2.05206E-001	-6.01726E-003	0.00000E+000	-1.23478E-003	-3.59960E-001	-1.03176E+000	3.57730E+000	10	...........
	32	0.44	1.99116E-001	-6.01252E-003	0.00000E+000	-1.19719E-003	-3.59960E-001	-1.02060E+000	3.57730E+000	10	...........
	33	0.453333	1.93061E-001	-6.01629E-003	0.00000E+000	-1.16151E-003	-3.59960E-001	-1.01973E+000	3.57730E+000	10	...........
	34	0.466667	1.87045E-001	-6.01715E-003	0.00000E+000	-1.12548E-003	-3.59960E-001	-1.03202E+000	3.57730E+000	10	...........
	35	0.48	1.81084E-001	-6.01496E-003	0.00000E+000	-1.08921E-003	-3.59960E-001	-1.02085E+000	3.57730E+000	10	...........
	36	0.493333	1.75196E-001	-6.01445E-003	0.00000E+000	-1.05371E-003	-3.59960E-001	-1.01980E+000	3.57730E+000	10	...........
	37	0.506667	1.69348E-001	-6.01677E-003	0.00000E+000	-1.01893E-003	-3.59960E-001	-1.03194E+000	3.57730E+000	10	...........
	38	0.52	1.63548E-001	-6.01697E-003	0.00000E+000	-9.84063E-004	-3.59960E-001	-1.02040E+000	3.57730E+000	10	...........
	39	0.533333	1.57775E-001	-6.00805E-003	0.00000E+000	-9.47919E-004	-3.59960E-001	-1.01955E+000	3.57730E+000	10	...........
	40	0.546667	1.52063E-001	-6.00861E-003	0.00000E+000	-9.13686E-004	-3.59960E-001	-1.03191E+000	3.57730E+000	10	...........
	41	0.56	1.46365E-001	-6.01345E-003	0.00000E+000	-8.80162E-004	-3.59960E-001	-1.02064E+000	3.57730E+000	10	...........
	42	0.573333	1.40703E-001	-6.01391E-003	0.00000E+000	-8.46176E-004	-3.59960E-001	-1.01971E+000	3.57730E+000	10	...........
	43	0.586667	1.35104E-001	-6.01325E-003	0.00000E+000	-8.12416E-004	-3.59960E-001	-1.03188E+000	3.57730E+000	10	...........
	44	0.6	1.29548E-001	-6.01495E-003	0.00000E+000	-7.79225E-004	-3.59960E-001	-1.02077E+000	3.57730E+000	10	...........
	45	0.613333	1.23957E-001	-6.01390E-003	0.00000E+000	-7.45464E-004	-3.59960E-001	-1.01980E+000	3.57730E+000	10	...........
	46	0.626667	1.18462E-001	-6.01444E-003	0.00000E+000	-7.12482E-004	-3.59960E-001	-1.03188E+000	3.57730E+000	10	...........
	47	0.64	1.12999E-001	-6.01527E-003	0.00000E+000	-6.79718E-004	-3.59960E-001	-1.02060E+000	3.57730E+000	10	...........
	48	0.653333	1.07549E-001	-6.01778E-003	0.00000E+000	-6.47204E-004	-3.59960E-001	-1.01968E+000	3.57730E+000	10	...........
	49	0.666667	1.02155E-001	-6.01680E-003	0.00000E+000	-6.14644E-004	-3.59960E-001	-1.03211E+000	3.57730E+000	10	...........
	50	0.68	9.67890E-002	-6.01526E-003	0.00000E+000	-5.82210E-004	-3.59960E-001	-1.02100E+000	3.57730E+000	10	...........
	51	0.693333	9.15148E-002	-6.01546E-003	0.00000E+000	-5.50504E-004	-3.59960E-001	-1.01974E+000	3.57730E+000	10	...........
	52	0.706667	8.62412E-002	-6.01575E-003	0.00000E+000	-5.18805E-004	-3.59960E-001	-1.03200E+000	3.57730E+000	10	...........
	53	0.72	8.10006E-002	-6.01666E-003	0.00000E+000	-4.87353E-004	-3.59960E-001	-1.02102E+000	3.57730E+000	10	...........
	54	0.733333	7.58004E-002	-6.01579E-003	0.00000E+000	-4.55999E-004	-3.59960E-001	-1.02009E+000	3.57730E+000	10	...........
	55	0.746667	7.06097E-002	-6.01484E-003	0.00000E+000	-4.24706E-004	-3.59960E-001	-1.03241E+000	3.57730E+000	10	...........
	56	0.76	6.54735E-002	-6.01314E-003	0.00000E+000	-3.93701E-004	-3.59960E-001	-1.02132E+000	3.57730E+000	10	...........
	57	0.773333	6.03704E-002	-6.01585E-003	0.00000E+000	-3.63179E-004	-3.59960E-001	-1.02021E+000	3.57730E+000	10	...........
	58	0.786667	5.53174E-002	-6.01495E-003	0.00000E+000	-3.32731E-004	-3.59960E-001	-1.03239E+000	3.57730E+000	10	...........
	59	0.8	5.02842E-002	-6.01318E-003	0.00000E+000	-3.02368E-004	-3.59960E-001	-1.02163E+000	3.57730E+000	10	...........
	60	0.813333	4.52995E-002	-6.01576E-003	0.00000E+000	-2.72510E-004	-3.59960E-001	-1.02020E+000	3.57730E+000	10	...........
	61	0.826667	4.03000E-002	-6.01382E-003	0.00000E+000	-2.42357E-004	-3.59960E-001	-1.03235E+000	3.57730E+000	10	...........
	62	0.84	3.53350E-002	-6.02072E-003	0.00000E+000	-2.12742E-004	-3.59960E-001	-1.02077E+000	3.57730E+000	10	...........
	63	0.853333	3.04222E-002	-6.01669E-003	0.00000E+000	-1.83041E-004	-3.59960E-001	-1.01966E+000	3.57730E+000	10	...........
	64	0.866667	2.55700E-002	-6.01546E-003	0.00000E+000	-1.53815E-004	-3.59960E-001	-1.03226E+000	3.57730E+000	10	...........
	65	0.88	2.07521E-002	-6.01436E-003	0.00000E+000	-1.24811E-004	-3.59960E-001	-1.02101E+000	3.57730E+000	10	...........
	66	0.893333	1.59384E-002	-6.01045E-003	0.00000E+000	-9.57967E-005	-3.59960E-001	-1.01959E+000	3.57730E+000	10	...........
	67	0.906667	1.11627E-002	-6.01286E-003	0.00000E+000	-6.71196E-005	-3.59960E-001	-1.03206E+000	3.57730E+000	10	...........
	68	0.92	6.40449E-003	-6.01855E-003	0.00000E+000	-3.85458E-005	-3.59960E-001	-1.02097E+000	3.57730E+000	10	...........
	69	0.933333	1.65765E-003	-6.01352E-003	0.00000E+000	-9.96829E-006	-3.59960E-001	-1.01984E+000	3.57730E+000	10	...........
STARTTIMEOFFSET	QUANT	158.9117	Start Time Offset (s)
