EXPLAIN
TAG	PWR800_DISCHARGE
TITLE	LABEL	PWR Cyclic Charge Discharge (Cell) - Discharge Step	Test &Identifier
DATE	LABEL	22-6-2017	Date
TIME	LABEL	15:41:47	Time
NOTES	NOTES	3	&Notes...
	supercap test cell
	0.6mg
	6M KOH
PSTAT	PSTAT	IFC5000-01520	Potentiostat
CAPACITY	QUANT	1.00000E-003	Capacity (A-hr)
CELLTYPE	SELECTOR	1	&Cell Type
WORKINGCONNECTION	SELECTOR	0	&Working Lead
MAXDISCHARGETIME	VARIABLEANDUNITS	1.00000E+002	s	1.00000E+002	second(s)	Max &Discharge Time
DISCHARGEMODE	MULTIPARAM	0	6.00000E-003	&Discharge Mode	Constant Current	Amp(s)
SAMPLETIME	QUANT	1.00000E-002	Sa&mple Period (s)
DISCHARGESTOPAT1	MULTIPARAM	3	0.00000E+000	Discharge Stop At &1	Voltage < Limit	V
DISCHARGESTOPAT2	MULTIPARAM	0	0.00000E+000	Discharge Stop At &2	None	N/A
AESBHCSELECTOR	TOGGLE	F	Save Both Half Cells
IRCOMP	TOGGLE	F	IR &Measure
EOC	QUANT	0	Open Circuit (V)
SEQUENCER	TOGGLE	TRUE	Run as Sequence
PSTATMODEL	IQUANT	53	Pstat Model
PSTATSECTION	LABEL	IFC5000-01520	Pstat Section
PSTATSERIALNO	LABEL	01520	Pstat Serial Number
CTRLMODE	IQUANT	0	Control Mode
ELECTROMETER	IQUANT	1	RE=0 or CS=1
IESTAB	IQUANT	0	I/E Stability
CASPEED	IQUANT	4	Control Amp Speed
CONVENTION	IQUANT	1	Current Convention
ICHRANGE	IQUANT	2	Ich Range
ICHRANGEMODE	TOGGLE	T	Ich Auto Range
ICHOFFSETENABLE	TOGGLE	F	Ich Offset Enable
ICHOFFSET	QUANT	0	Ich Offset (V)
ICHFILTER	IQUANT	1	Ich Filter
VCHRANGE	IQUANT	2	Vch Range
VCHRANGEMODE	TOGGLE	T	Vch Auto Range
VCHOFFSETENABLE	TOGGLE	F	Vch Offset Enable
VCHOFFSET	QUANT	0	Vch Offset (V)
VCHFILTER	IQUANT	1	Vch Filter
IERANGELOWERLIMIT	IQUANT	9	I/E Range Lower Limit
IERANGEMODE	TOGGLE	F	I/E AutoRange
IERANGE	IQUANT	10	I/E Range
ACHSELECT	IQUANT	1	Ach Select
ACHRANGE	IQUANT	2	Ach Range
ACHOFFSETENABLE	TOGGLE	F	Ach Offset Enable
ACHOFFSET	QUANT	0	Ach Offset (V)
ACHFILTER	IQUANT	1	Ach Filter
CABLEID	IQUANT	14	Cable ID
DCCALDATE	LABEL	20-10-2016	DC Calibration Date
ACCALDATE	LABEL	12/3/2015	AC Calibration Date
FRAMEWORKVERSION	QUANT	7.01	Framework Version
INSTRUMENTVERSION	LABEL	4.00	Instrument Version
CURVE	TABLE	67
	Pt	T	Vf	Im	Vu	Pwr	Sig	Ach	Temp	IERange	Over
	#	s	V	A	V	W	V	V	deg C	#	bits
	0	0.013333	4.21115E-001	-6.01795E-003	0.00000E+000	-2.53425E-003	-3.59960E-001	-1.03469E+000	3.57830E+000	10	...........
	1	0.026667	4.10703E-001	-6.01311E-003	0.00000E+000	-2.46960E-003	-3.59960E-001	-1.04219E+000	3.57830E+000	10	...........
	2	0.04	4.01015E-001	-6.01431E-003	0.00000E+000	-2.41183E-003	-3.59960E-001	-1.04278E+000	3.57830E+000	10	...........
	3	0.053333	3.91815E-001	-6.01584E-003	0.00000E+000	-2.35710E-003	-3.59960E-001	-1.03518E+000	3.57830E+000	10	...........
	4	0.066667	3.82981E-001	-6.01667E-003	0.00000E+000	-2.30427E-003	-3.59960E-001	-1.04212E+000	3.57830E+000	10	...........
	5	0.08	3.74407E-001	-6.01431E-003	0.00000E+000	-2.25180E-003	-3.59960E-001	-1.04313E+000	3.57830E+000	10	...........
	6	0.093333	3.66016E-001	-6.01579E-003	0.00000E+000	-2.20188E-003	-3.59960E-001	-1.03527E+000	3.57830E+000	10	...........
	7	0.106667	3.57785E-001	-6.01400E-003	0.00000E+000	-2.15172E-003	-3.59960E-001	-1.04209E+000	3.57830E+000	10	...........
	8	0.12	3.49709E-001	-6.01583E-003	0.00000E+000	-2.10379E-003	-3.59960E-001	-1.04287E+000	3.57830E+000	10	...........
	9	0.133333	3.41814E-001	-6.01349E-003	0.00000E+000	-2.05550E-003	-3.59960E-001	-1.03496E+000	3.57830E+000	10	...........
	10	0.146667	3.34046E-001	-6.01395E-003	0.00000E+000	-2.00894E-003	-3.59960E-001	-1.04223E+000	3.57830E+000	10	...........
	11	0.16	3.26324E-001	-6.01626E-003	0.00000E+000	-1.96325E-003	-3.59960E-001	-1.04328E+000	3.57830E+000	10	...........
	12	0.173333	3.18721E-001	-6.01894E-003	0.00000E+000	-1.91836E-003	-3.59960E-001	-1.03528E+000	3.57830E+000	10	...........
	13	0.186667	3.11204E-001	-6.01138E-003	0.00000E+000	-1.87076E-003	-3.59960E-001	-1.04230E+000	3.57830E+000	10	...........
	14	0.2	3.03766E-001	-6.01415E-003	0.00000E+000	-1.82689E-003	-3.59960E-001	-1.04356E+000	3.57830E+000	10	...........
	15	0.213333	2.96453E-001	-6.01613E-003	0.00000E+000	-1.78350E-003	-3.59960E-001	-1.03545E+000	3.57830E+000	10	...........
	16	0.226667	2.89197E-001	-6.01414E-003	0.00000E+000	-1.73927E-003	-3.59960E-001	-1.04253E+000	3.57830E+000	10	...........
	17	0.24	2.82014E-001	-6.01568E-003	0.00000E+000	-1.69650E-003	-3.59960E-001	-1.04377E+000	3.57830E+000	10	...........
	18	0.253333	2.74946E-001	-6.01930E-003	0.00000E+000	-1.65498E-003	-3.59960E-001	-1.03569E+000	3.57830E+000	10	...........
	19	0.266667	2.67925E-001	-6.01877E-003	0.00000E+000	-1.61258E-003	-3.59960E-001	-1.04252E+000	3.57830E+000	10	...........
	20	0.28	2.60952E-001	-6.01474E-003	0.00000E+000	-1.56956E-003	-3.59960E-001	-1.04392E+000	3.57830E+000	10	...........
	21	0.293333	2.54061E-001	-6.01405E-003	0.00000E+000	-1.52793E-003	-3.59960E-001	-1.03587E+000	3.57830E+000	10	...........
	22	0.306667	2.47302E-001	-6.01497E-003	0.00000E+000	-1.48751E-003	-3.59960E-001	-1.04255E+000	3.57830E+000	10	...........
	23	0.32	2.40549E-001	-6.01272E-003	0.00000E+000	-1.44636E-003	-3.59960E-001	-1.04424E+000	3.57830E+000	10	...........
	24	0.333333	2.33874E-001	-6.01927E-003	0.00000E+000	-1.40775E-003	-3.59960E-001	-1.03614E+000	3.57830E+000	10	...........
	25	0.346667	2.27248E-001	-6.01564E-003	0.00000E+000	-1.36704E-003	-3.59960E-001	-1.04277E+000	3.57830E+000	10	...........
	26	0.36	2.20717E-001	-6.01146E-003	0.00000E+000	-1.32683E-003	-3.59960E-001	-1.04456E+000	3.57830E+000	10	...........
	27	0.373333	2.14209E-001	-6.01352E-003	0.00000E+000	-1.28815E-003	-3.59960E-001	-1.03632E+000	3.57830E+000	10	...........
	28	0.386667	2.07771E-001	-6.01677E-003	0.00000E+000	-1.25011E-003	-3.59960E-001	-1.04275E+000	3.57787E+000	10	...........
	29	0.4	2.01384E-001	-6.01441E-003	0.00000E+000	-1.21121E-003	-3.59960E-001	-1.04467E+000	3.57690E+000	10	...........
	30	0.413333	1.95047E-001	-6.01747E-003	0.00000E+000	-1.17369E-003	-3.59960E-001	-1.03640E+000	3.57690E+000	10	...........
	31	0.426667	1.88768E-001	-6.01525E-003	0.00000E+000	-1.13549E-003	-3.59960E-001	-1.04245E+000	3.57690E+000	10	...........
	32	0.44	1.82526E-001	-6.01397E-003	0.00000E+000	-1.09771E-003	-3.59960E-001	-1.04447E+000	3.57690E+000	10	...........
	33	0.453333	1.76374E-001	-6.01408E-003	0.00000E+000	-1.06073E-003	-3.59960E-001	-1.03621E+000	3.57690E+000	10	...........
	34	0.466667	1.70270E-001	-6.01187E-003	0.00000E+000	-1.02364E-003	-3.59960E-001	-1.04231E+000	3.57690E+000	10	...........
	35	0.48	1.64192E-001	-6.01475E-003	0.00000E+000	-9.87572E-004	-3.59960E-001	-1.04458E+000	3.57690E+000	10	...........
	36	0.493333	1.58164E-001	-6.01728E-003	0.00000E+000	-9.51716E-004	-3.59960E-001	-1.03626E+000	3.57690E+000	10	...........
	37	0.506667	1.52189E-001	-6.01868E-003	0.00000E+000	-9.15978E-004	-3.59960E-001	-1.04229E+000	3.57690E+000	10	...........
	38	0.52	1.46291E-001	-6.01671E-003	0.00000E+000	-8.80188E-004	-3.59960E-001	-1.04470E+000	3.57690E+000	10	...........
	39	0.533333	1.40434E-001	-6.01456E-003	0.00000E+000	-8.44651E-004	-3.59960E-001	-1.03595E+000	3.57690E+000	10	...........
	40	0.546667	1.34621E-001	-6.01672E-003	0.00000E+000	-8.09975E-004	-3.59960E-001	-1.04198E+000	3.57690E+000	10	...........
	41	0.56	1.28845E-001	-6.01600E-003	0.00000E+000	-7.75134E-004	-3.59960E-001	-1.04465E+000	3.57690E+000	10	...........
	42	0.573333	1.23077E-001	-6.01359E-003	0.00000E+000	-7.40135E-004	-3.59960E-001	-1.03622E+000	3.57690E+000	10	...........
	43	0.586667	1.17438E-001	-6.01680E-003	0.00000E+000	-7.06602E-004	-3.59960E-001	-1.04223E+000	3.57690E+000	10	...........
	44	0.6	1.11802E-001	-6.01466E-003	0.00000E+000	-6.72449E-004	-3.59960E-001	-1.04469E+000	3.57690E+000	10	...........
	45	0.613333	1.06217E-001	-6.01771E-003	0.00000E+000	-6.39183E-004	-3.59960E-001	-1.03607E+000	3.57690E+000	10	...........
	46	0.626667	1.00624E-001	-6.01547E-003	0.00000E+000	-6.05302E-004	-3.59960E-001	-1.04209E+000	3.57690E+000	10	...........
	47	0.64	9.50926E-002	-6.01490E-003	0.00000E+000	-5.71972E-004	-3.59960E-001	-1.04536E+000	3.57690E+000	10	...........
	48	0.653333	8.96177E-002	-6.01359E-003	0.00000E+000	-5.38924E-004	-3.59960E-001	-1.03653E+000	3.57690E+000	10	...........
	49	0.666667	8.41978E-002	-6.01401E-003	0.00000E+000	-5.06367E-004	-3.59960E-001	-1.04219E+000	3.57690E+000	10	...........
	50	0.68	7.88186E-002	-6.01428E-003	0.00000E+000	-4.74037E-004	-3.59960E-001	-1.04510E+000	3.57690E+000	10	...........
	51	0.693333	7.34411E-002	-6.01265E-003	0.00000E+000	-4.41575E-004	-3.59960E-001	-1.03687E+000	3.57690E+000	10	...........
	52	0.706667	6.80895E-002	-6.01051E-003	0.00000E+000	-4.09253E-004	-3.59960E-001	-1.04256E+000	3.57690E+000	10	...........
	53	0.72	6.27991E-002	-6.01437E-003	0.00000E+000	-3.77697E-004	-3.59960E-001	-1.04535E+000	3.57690E+000	10	...........
	54	0.733333	5.75739E-002	-6.01149E-003	0.00000E+000	-3.46105E-004	-3.59960E-001	-1.03662E+000	3.57690E+000	10	...........
	55	0.746667	5.24095E-002	-6.01594E-003	0.00000E+000	-3.15293E-004	-3.59960E-001	-1.04191E+000	3.57690E+000	10	...........
	56	0.76	4.72607E-002	-6.01503E-003	0.00000E+000	-2.84274E-004	-3.59960E-001	-1.04552E+000	3.57690E+000	10	...........
	57	0.773333	4.20792E-002	-6.01715E-003	0.00000E+000	-2.53197E-004	-3.59960E-001	-1.03664E+000	3.57690E+000	10	...........
	58	0.786667	3.69588E-002	-6.01215E-003	0.00000E+000	-2.22202E-004	-3.59960E-001	-1.04215E+000	3.57690E+000	10	...........
	59	0.8	3.18927E-002	-6.01702E-003	0.00000E+000	-1.91899E-004	-3.59960E-001	-1.04535E+000	3.57690E+000	10	...........
	60	0.813333	2.68803E-002	-6.01397E-003	0.00000E+000	-1.61658E-004	-3.59960E-001	-1.03661E+000	3.57690E+000	10	...........
	61	0.826667	2.18616E-002	-6.01570E-003	0.00000E+000	-1.31513E-004	-3.59960E-001	-1.04212E+000	3.57690E+000	10	...........
	62	0.84	1.68775E-002	-6.00950E-003	0.00000E+000	-1.01425E-004	-3.59960E-001	-1.04585E+000	3.57690E+000	10	...........
	63	0.853333	1.19210E-002	-6.01765E-003	0.00000E+000	-7.17362E-005	-3.59960E-001	-1.03675E+000	3.57690E+000	10	...........
	64	0.866667	7.04673E-003	-6.01183E-003	0.00000E+000	-4.23638E-005	-3.59960E-001	-1.04207E+000	3.57690E+000	10	...........
	65	0.88	2.17465E-003	-6.01680E-003	0.00000E+000	-1.30844E-005	-3.59960E-001	-1.04607E+000	3.57690E+000	10	...........
	66	0.881667	-5.18753E-004	-6.01379E-003	0.00000E+000	3.11967E-006	-3.59960E-001	-1.04773E+000	3.57690E+000	10	...........
STARTTIMEOFFSET	QUANT	290.0484	Start Time Offset (s)
