EXPLAIN
TAG	PWR800_DISCHARGE
TITLE	LABEL	PWR Cyclic Charge Discharge (Cell) - Discharge Step	Test &Identifier
DATE	LABEL	22-6-2017	Date
TIME	LABEL	15:53:15	Time
NOTES	NOTES	3	&Notes...
	supercap test cell
	0.6mg
	6M KOH
PSTAT	PSTAT	IFC5000-01520	Potentiostat
CAPACITY	QUANT	1.00000E-003	Capacity (A-hr)
CELLTYPE	SELECTOR	1	&Cell Type
WORKINGCONNECTION	SELECTOR	0	&Working Lead
MAXDISCHARGETIME	VARIABLEANDUNITS	1.00000E+002	s	1.00000E+002	second(s)	Max &Discharge Time
DISCHARGEMODE	MULTIPARAM	0	6.00000E-003	&Discharge Mode	Constant Current	Amp(s)
SAMPLETIME	QUANT	1.00000E-002	Sa&mple Period (s)
DISCHARGESTOPAT1	MULTIPARAM	3	0.00000E+000	Discharge Stop At &1	Voltage < Limit	V
DISCHARGESTOPAT2	MULTIPARAM	0	0.00000E+000	Discharge Stop At &2	None	N/A
AESBHCSELECTOR	TOGGLE	F	Save Both Half Cells
IRCOMP	TOGGLE	F	IR &Measure
EOC	QUANT	0	Open Circuit (V)
SEQUENCER	TOGGLE	TRUE	Run as Sequence
PSTATMODEL	IQUANT	53	Pstat Model
PSTATSECTION	LABEL	IFC5000-01520	Pstat Section
PSTATSERIALNO	LABEL	01520	Pstat Serial Number
CTRLMODE	IQUANT	0	Control Mode
ELECTROMETER	IQUANT	1	RE=0 or CS=1
IESTAB	IQUANT	0	I/E Stability
CASPEED	IQUANT	4	Control Amp Speed
CONVENTION	IQUANT	1	Current Convention
ICHRANGE	IQUANT	2	Ich Range
ICHRANGEMODE	TOGGLE	T	Ich Auto Range
ICHOFFSETENABLE	TOGGLE	F	Ich Offset Enable
ICHOFFSET	QUANT	0	Ich Offset (V)
ICHFILTER	IQUANT	1	Ich Filter
VCHRANGE	IQUANT	2	Vch Range
VCHRANGEMODE	TOGGLE	T	Vch Auto Range
VCHOFFSETENABLE	TOGGLE	F	Vch Offset Enable
VCHOFFSET	QUANT	0	Vch Offset (V)
VCHFILTER	IQUANT	1	Vch Filter
IERANGELOWERLIMIT	IQUANT	9	I/E Range Lower Limit
IERANGEMODE	TOGGLE	F	I/E AutoRange
IERANGE	IQUANT	10	I/E Range
ACHSELECT	IQUANT	1	Ach Select
ACHRANGE	IQUANT	2	Ach Range
ACHOFFSETENABLE	TOGGLE	F	Ach Offset Enable
ACHOFFSET	QUANT	0	Ach Offset (V)
ACHFILTER	IQUANT	1	Ach Filter
CABLEID	IQUANT	14	Cable ID
DCCALDATE	LABEL	20-10-2016	DC Calibration Date
ACCALDATE	LABEL	12/3/2015	AC Calibration Date
FRAMEWORKVERSION	QUANT	7.01	Framework Version
INSTRUMENTVERSION	LABEL	4.00	Instrument Version
CURVE	TABLE	59
	Pt	T	Vf	Im	Vu	Pwr	Sig	Ach	Temp	IERange	Over
	#	s	V	A	V	W	V	V	deg C	#	bits
	0	0.013333	3.98430E-001	-6.01341E-003	0.00000E+000	-2.39592E-003	-3.59960E-001	-1.10387E+000	3.57790E+000	10	...........
	1	0.026667	3.87499E-001	-6.01538E-003	0.00000E+000	-2.33095E-003	-3.59960E-001	-1.10484E+000	3.57790E+000	10	...........
	2	0.04	3.77277E-001	-6.00966E-003	0.00000E+000	-2.26731E-003	-3.59960E-001	-1.09714E+000	3.57790E+000	10	...........
	3	0.053333	3.67586E-001	-6.01455E-003	0.00000E+000	-2.21086E-003	-3.59960E-001	-1.10394E+000	3.57790E+000	10	...........
	4	0.066667	3.58287E-001	-6.01601E-003	0.00000E+000	-2.15546E-003	-3.59960E-001	-1.10510E+000	3.57790E+000	10	...........
	5	0.08	3.49241E-001	-6.01523E-003	0.00000E+000	-2.10076E-003	-3.59960E-001	-1.09755E+000	3.57790E+000	10	...........
	6	0.093333	3.40365E-001	-6.01450E-003	0.00000E+000	-2.04713E-003	-3.59960E-001	-1.10425E+000	3.57790E+000	10	...........
	7	0.106667	3.31721E-001	-6.01377E-003	0.00000E+000	-1.99489E-003	-3.59960E-001	-1.10508E+000	3.57790E+000	10	...........
	8	0.12	3.23264E-001	-6.01550E-003	0.00000E+000	-1.94459E-003	-3.59960E-001	-1.09764E+000	3.57790E+000	10	...........
	9	0.133333	3.14939E-001	-6.01808E-003	0.00000E+000	-1.89533E-003	-3.59960E-001	-1.10448E+000	3.57790E+000	10	...........
	10	0.146667	3.06692E-001	-6.01295E-003	0.00000E+000	-1.84412E-003	-3.59960E-001	-1.10529E+000	3.57790E+000	10	...........
	11	0.16	2.98569E-001	-6.01696E-003	0.00000E+000	-1.79647E-003	-3.59960E-001	-1.09786E+000	3.57790E+000	10	...........
	12	0.173333	2.90574E-001	-6.01581E-003	0.00000E+000	-1.74804E-003	-3.59960E-001	-1.10487E+000	3.57790E+000	10	...........
	13	0.186667	2.82691E-001	-6.01221E-003	0.00000E+000	-1.69960E-003	-3.59960E-001	-1.10538E+000	3.57790E+000	10	...........
	14	0.2	2.74876E-001	-6.01181E-003	0.00000E+000	-1.65250E-003	-3.59960E-001	-1.09791E+000	3.57790E+000	10	...........
	15	0.213333	2.67140E-001	-6.01655E-003	0.00000E+000	-1.60726E-003	-3.59960E-001	-1.10524E+000	3.57790E+000	10	...........
	16	0.226667	2.59502E-001	-6.01118E-003	0.00000E+000	-1.55991E-003	-3.59960E-001	-1.10561E+000	3.57790E+000	10	...........
	17	0.24	2.52010E-001	-6.02169E-003	0.00000E+000	-1.51753E-003	-3.59960E-001	-1.09797E+000	3.57790E+000	10	...........
	18	0.253333	2.44573E-001	-6.01601E-003	0.00000E+000	-1.47135E-003	-3.59960E-001	-1.10511E+000	3.57790E+000	10	...........
	19	0.266667	2.37239E-001	-6.01955E-003	0.00000E+000	-1.42807E-003	-3.59960E-001	-1.10554E+000	3.57790E+000	10	...........
	20	0.28	2.29973E-001	-6.01120E-003	0.00000E+000	-1.38241E-003	-3.59960E-001	-1.09803E+000	3.57790E+000	10	...........
	21	0.293333	2.22768E-001	-6.01115E-003	0.00000E+000	-1.33909E-003	-3.59960E-001	-1.10512E+000	3.57790E+000	10	...........
	22	0.306667	2.15652E-001	-6.01503E-003	0.00000E+000	-1.29715E-003	-3.59960E-001	-1.10520E+000	3.57790E+000	10	...........
	23	0.32	2.08614E-001	-6.01406E-003	0.00000E+000	-1.25462E-003	-3.59960E-001	-1.09792E+000	3.57790E+000	10	...........
	24	0.333333	2.01636E-001	-6.01264E-003	0.00000E+000	-1.21237E-003	-3.59960E-001	-1.10531E+000	3.57790E+000	10	...........
	25	0.346667	1.94715E-001	-6.01540E-003	0.00000E+000	-1.17129E-003	-3.59960E-001	-1.10531E+000	3.57790E+000	10	...........
	26	0.36	1.87850E-001	-6.01289E-003	0.00000E+000	-1.12952E-003	-3.59960E-001	-1.09829E+000	3.57790E+000	10	...........
	27	0.373333	1.81075E-001	-6.01222E-003	0.00000E+000	-1.08866E-003	-3.59960E-001	-1.10556E+000	3.57790E+000	10	...........
	28	0.386667	1.74408E-001	-6.01277E-003	0.00000E+000	-1.04868E-003	-3.59960E-001	-1.10533E+000	3.57790E+000	10	...........
	29	0.4	1.67777E-001	-6.01965E-003	0.00000E+000	-1.00996E-003	-3.59960E-001	-1.09813E+000	3.57790E+000	10	...........
	30	0.413333	1.61239E-001	-6.01457E-003	0.00000E+000	-9.69785E-004	-3.59960E-001	-1.10606E+000	3.57790E+000	10	...........
	31	0.426667	1.54767E-001	-6.01643E-003	0.00000E+000	-9.31147E-004	-3.59960E-001	-1.10554E+000	3.57790E+000	10	...........
	32	0.44	1.48352E-001	-6.01668E-003	0.00000E+000	-8.92589E-004	-3.59960E-001	-1.09838E+000	3.57790E+000	10	...........
	33	0.453333	1.41999E-001	-6.01401E-003	0.00000E+000	-8.53987E-004	-3.59960E-001	-1.10595E+000	3.57790E+000	10	...........
	34	0.466667	1.35683E-001	-6.01335E-003	0.00000E+000	-8.15910E-004	-3.59960E-001	-1.10547E+000	3.57790E+000	10	...........
	35	0.48	1.29456E-001	-6.01598E-003	0.00000E+000	-7.78802E-004	-3.59960E-001	-1.09887E+000	3.57790E+000	10	...........
	36	0.493333	1.23217E-001	-6.01239E-003	0.00000E+000	-7.40830E-004	-3.59960E-001	-1.10635E+000	3.57790E+000	10	...........
	37	0.506667	1.17063E-001	-6.01369E-003	0.00000E+000	-7.03980E-004	-3.59960E-001	-1.10559E+000	3.57667E+000	10	...........
	38	0.52	1.11003E-001	-6.01535E-003	0.00000E+000	-6.67720E-004	-3.59960E-001	-1.09861E+000	3.57650E+000	10	...........
	39	0.533333	1.04996E-001	-6.01964E-003	0.00000E+000	-6.32037E-004	-3.59960E-001	-1.10653E+000	3.57650E+000	10	...........
	40	0.546667	9.90400E-002	-6.01755E-003	0.00000E+000	-5.95978E-004	-3.59960E-001	-1.10560E+000	3.57650E+000	10	...........
	41	0.56	9.31161E-002	-6.01681E-003	0.00000E+000	-5.60262E-004	-3.59960E-001	-1.09895E+000	3.57650E+000	10	...........
	42	0.573333	8.72477E-002	-6.01513E-003	0.00000E+000	-5.24806E-004	-3.59960E-001	-1.10649E+000	3.57650E+000	10	...........
	43	0.586667	8.14190E-002	-6.01824E-003	0.00000E+000	-4.89999E-004	-3.59960E-001	-1.10557E+000	3.57650E+000	10	...........
	44	0.6	7.56402E-002	-6.01511E-003	0.00000E+000	-4.54984E-004	-3.59960E-001	-1.09880E+000	3.57650E+000	10	...........
	45	0.613333	6.99404E-002	-6.01087E-003	0.00000E+000	-4.20403E-004	-3.59960E-001	-1.10643E+000	3.57650E+000	10	...........
	46	0.626667	6.42660E-002	-6.01342E-003	0.00000E+000	-3.86459E-004	-3.59960E-001	-1.10525E+000	3.57650E+000	10	...........
	47	0.64	5.86589E-002	-6.01297E-003	0.00000E+000	-3.52714E-004	-3.59960E-001	-1.09862E+000	3.57650E+000	10	...........
	48	0.653333	5.31200E-002	-6.01158E-003	0.00000E+000	-3.19335E-004	-3.59960E-001	-1.10651E+000	3.57650E+000	10	...........
	49	0.666667	4.76066E-002	-6.01987E-003	0.00000E+000	-2.86585E-004	-3.59960E-001	-1.10505E+000	3.57650E+000	10	...........
	50	0.68	4.21689E-002	-6.01968E-003	0.00000E+000	-2.53843E-004	-3.59960E-001	-1.09866E+000	3.57650E+000	10	...........
	51	0.693333	3.67809E-002	-6.01847E-003	0.00000E+000	-2.21365E-004	-3.59960E-001	-1.10682E+000	3.57650E+000	10	...........
	52	0.706667	3.14015E-002	-6.01764E-003	0.00000E+000	-1.88963E-004	-3.59960E-001	-1.10526E+000	3.57650E+000	10	...........
	53	0.72	2.60548E-002	-6.01509E-003	0.00000E+000	-1.56722E-004	-3.59960E-001	-1.09873E+000	3.57650E+000	10	...........
	54	0.733333	2.07739E-002	-6.01686E-003	0.00000E+000	-1.24994E-004	-3.59960E-001	-1.10695E+000	3.57650E+000	10	...........
	55	0.746667	1.54897E-002	-6.01437E-003	0.00000E+000	-9.31606E-005	-3.59960E-001	-1.10544E+000	3.57650E+000	10	...........
	56	0.76	1.02862E-002	-6.01677E-003	0.00000E+000	-6.18896E-005	-3.59960E-001	-1.09894E+000	3.57650E+000	10	...........
	57	0.773333	5.15733E-003	-6.01595E-003	0.00000E+000	-3.10262E-005	-3.59960E-001	-1.10704E+000	3.57650E+000	10	...........
	58	0.781667	1.00096E-003	-6.01854E-003	0.00000E+000	-6.02433E-006	-3.59960E-001	-1.10027E+000	3.57650E+000	10	...........
STARTTIMEOFFSET	QUANT	754.0233	Start Time Offset (s)
