EXPLAIN
TAG	PWR800_DISCHARGE
TITLE	LABEL	PWR Cyclic Charge Discharge (Cell) - Discharge Step	Test &Identifier
DATE	LABEL	22-6-2017	Date
TIME	LABEL	16:07:23	Time
NOTES	NOTES	3	&Notes...
	supercap test cell
	0.6mg
	6M KOH
PSTAT	PSTAT	IFC5000-01520	Potentiostat
CAPACITY	QUANT	1.00000E-003	Capacity (A-hr)
CELLTYPE	SELECTOR	1	&Cell Type
WORKINGCONNECTION	SELECTOR	0	&Working Lead
MAXDISCHARGETIME	VARIABLEANDUNITS	1.00000E+002	s	1.00000E+002	second(s)	Max &Discharge Time
DISCHARGEMODE	MULTIPARAM	0	6.00000E-003	&Discharge Mode	Constant Current	Amp(s)
SAMPLETIME	QUANT	1.00000E-002	Sa&mple Period (s)
DISCHARGESTOPAT1	MULTIPARAM	3	0.00000E+000	Discharge Stop At &1	Voltage < Limit	V
DISCHARGESTOPAT2	MULTIPARAM	0	0.00000E+000	Discharge Stop At &2	None	N/A
AESBHCSELECTOR	TOGGLE	F	Save Both Half Cells
IRCOMP	TOGGLE	F	IR &Measure
EOC	QUANT	0	Open Circuit (V)
SEQUENCER	TOGGLE	TRUE	Run as Sequence
PSTATMODEL	IQUANT	53	Pstat Model
PSTATSECTION	LABEL	IFC5000-01520	Pstat Section
PSTATSERIALNO	LABEL	01520	Pstat Serial Number
CTRLMODE	IQUANT	0	Control Mode
ELECTROMETER	IQUANT	1	RE=0 or CS=1
IESTAB	IQUANT	0	I/E Stability
CASPEED	IQUANT	4	Control Amp Speed
CONVENTION	IQUANT	1	Current Convention
ICHRANGE	IQUANT	2	Ich Range
ICHRANGEMODE	TOGGLE	T	Ich Auto Range
ICHOFFSETENABLE	TOGGLE	F	Ich Offset Enable
ICHOFFSET	QUANT	0	Ich Offset (V)
ICHFILTER	IQUANT	1	Ich Filter
VCHRANGE	IQUANT	2	Vch Range
VCHRANGEMODE	TOGGLE	T	Vch Auto Range
VCHOFFSETENABLE	TOGGLE	F	Vch Offset Enable
VCHOFFSET	QUANT	0	Vch Offset (V)
VCHFILTER	IQUANT	1	Vch Filter
IERANGELOWERLIMIT	IQUANT	9	I/E Range Lower Limit
IERANGEMODE	TOGGLE	F	I/E AutoRange
IERANGE	IQUANT	10	I/E Range
ACHSELECT	IQUANT	1	Ach Select
ACHRANGE	IQUANT	2	Ach Range
ACHOFFSETENABLE	TOGGLE	F	Ach Offset Enable
ACHOFFSET	QUANT	0	Ach Offset (V)
ACHFILTER	IQUANT	1	Ach Filter
CABLEID	IQUANT	14	Cable ID
DCCALDATE	LABEL	20-10-2016	DC Calibration Date
ACCALDATE	LABEL	12/3/2015	AC Calibration Date
FRAMEWORKVERSION	QUANT	7.01	Framework Version
INSTRUMENTVERSION	LABEL	4.00	Instrument Version
CURVE	TABLE	54
	Pt	T	Vf	Im	Vu	Pwr	Sig	Ach	Temp	IERange	Over
	#	s	V	A	V	W	V	V	deg C	#	bits
	0	0.013333	3.83168E-001	-6.01734E-003	0.00000E+000	-2.30565E-003	-3.59960E-001	-1.13252E+000	3.57730E+000	10	...........
	1	0.026667	3.71691E-001	-6.01678E-003	0.00000E+000	-2.23638E-003	-3.59960E-001	-1.14209E+000	3.57730E+000	10	...........
	2	0.04	3.61075E-001	-6.01600E-003	0.00000E+000	-2.17223E-003	-3.59960E-001	-1.13097E+000	3.57730E+000	10	...........
	3	0.053333	3.50938E-001	-6.01648E-003	0.00000E+000	-2.11141E-003	-3.59960E-001	-1.13242E+000	3.57730E+000	10	...........
	4	0.066667	3.41248E-001	-6.00962E-003	0.00000E+000	-2.05077E-003	-3.59960E-001	-1.14219E+000	3.57730E+000	10	...........
	5	0.08	3.31768E-001	-6.01924E-003	0.00000E+000	-1.99699E-003	-3.59960E-001	-1.13124E+000	3.57730E+000	10	...........
	6	0.093333	3.22562E-001	-6.01477E-003	0.00000E+000	-1.94014E-003	-3.59960E-001	-1.13278E+000	3.57730E+000	10	...........
	7	0.106667	3.13530E-001	-6.01656E-003	0.00000E+000	-1.88637E-003	-3.59960E-001	-1.14248E+000	3.57730E+000	10	...........
	8	0.12	3.04628E-001	-6.01396E-003	0.00000E+000	-1.83202E-003	-3.59960E-001	-1.13117E+000	3.57710E+000	10	...........
	9	0.133333	2.95959E-001	-6.01045E-003	0.00000E+000	-1.77884E-003	-3.59960E-001	-1.13276E+000	3.57650E+000	10	...........
	10	0.146667	2.87373E-001	-6.01239E-003	0.00000E+000	-1.72780E-003	-3.59960E-001	-1.14275E+000	3.57650E+000	10	...........
	11	0.16	2.78909E-001	-6.01630E-003	0.00000E+000	-1.67800E-003	-3.59960E-001	-1.13170E+000	3.57650E+000	10	...........
	12	0.173333	2.70557E-001	-6.01294E-003	0.00000E+000	-1.62684E-003	-3.59960E-001	-1.13294E+000	3.57650E+000	10	...........
	13	0.186667	2.62267E-001	-6.01608E-003	0.00000E+000	-1.57782E-003	-3.59960E-001	-1.14280E+000	3.57650E+000	10	...........
	14	0.2	2.54180E-001	-6.01503E-003	0.00000E+000	-1.52890E-003	-3.59960E-001	-1.13156E+000	3.57650E+000	10	...........
	15	0.213333	2.46142E-001	-6.01560E-003	0.00000E+000	-1.48069E-003	-3.59960E-001	-1.13305E+000	3.57650E+000	10	...........
	16	0.226667	2.38234E-001	-6.01630E-003	0.00000E+000	-1.43329E-003	-3.59960E-001	-1.14323E+000	3.57650E+000	10	...........
	17	0.24	2.30421E-001	-6.01006E-003	0.00000E+000	-1.38485E-003	-3.59960E-001	-1.13184E+000	3.57650E+000	10	...........
	18	0.253333	2.22739E-001	-6.01711E-003	0.00000E+000	-1.34025E-003	-3.59960E-001	-1.13312E+000	3.57650E+000	10	...........
	19	0.266667	2.15092E-001	-6.01282E-003	0.00000E+000	-1.29331E-003	-3.59960E-001	-1.14312E+000	3.57650E+000	10	...........
	20	0.28	2.07509E-001	-6.01318E-003	0.00000E+000	-1.24779E-003	-3.59960E-001	-1.13220E+000	3.57650E+000	10	...........
	21	0.293333	2.00086E-001	-6.01457E-003	0.00000E+000	-1.20343E-003	-3.59960E-001	-1.13342E+000	3.57650E+000	10	...........
	22	0.306667	1.92703E-001	-6.01441E-003	0.00000E+000	-1.15899E-003	-3.59960E-001	-1.14326E+000	3.57650E+000	10	...........
	23	0.32	1.85384E-001	-6.01384E-003	0.00000E+000	-1.11487E-003	-3.59960E-001	-1.13219E+000	3.57650E+000	10	...........
	24	0.333333	1.78205E-001	-6.01299E-003	0.00000E+000	-1.07154E-003	-3.59960E-001	-1.13323E+000	3.57650E+000	10	...........
	25	0.346667	1.71115E-001	-6.01200E-003	0.00000E+000	-1.02874E-003	-3.59960E-001	-1.14323E+000	3.57650E+000	10	...........
	26	0.36	1.64108E-001	-6.01575E-003	0.00000E+000	-9.87233E-004	-3.59960E-001	-1.13207E+000	3.57650E+000	10	...........
	27	0.373333	1.57147E-001	-6.01295E-003	0.00000E+000	-9.44918E-004	-3.59960E-001	-1.13295E+000	3.57650E+000	10	...........
	28	0.386667	1.50250E-001	-6.01228E-003	0.00000E+000	-9.03346E-004	-3.59960E-001	-1.14295E+000	3.57650E+000	10	...........
	29	0.4	1.43412E-001	-6.01601E-003	0.00000E+000	-8.62768E-004	-3.59960E-001	-1.13183E+000	3.57650E+000	10	...........
	30	0.413333	1.36746E-001	-6.01488E-003	0.00000E+000	-8.22512E-004	-3.59960E-001	-1.13312E+000	3.57650E+000	10	...........
	31	0.426667	1.30120E-001	-6.01727E-003	0.00000E+000	-7.82966E-004	-3.59960E-001	-1.14321E+000	3.57650E+000	10	...........
	32	0.44	1.23545E-001	-6.01454E-003	0.00000E+000	-7.43065E-004	-3.59960E-001	-1.13212E+000	3.57650E+000	10	...........
	33	0.453333	1.16997E-001	-6.00974E-003	0.00000E+000	-7.03124E-004	-3.59960E-001	-1.13292E+000	3.57650E+000	10	...........
	34	0.466667	1.10513E-001	-6.01529E-003	0.00000E+000	-6.64768E-004	-3.59960E-001	-1.14309E+000	3.57650E+000	10	...........
	35	0.48	1.04117E-001	-6.01226E-003	0.00000E+000	-6.25978E-004	-3.59960E-001	-1.13236E+000	3.57650E+000	10	...........
	36	0.493333	9.78215E-002	-6.01370E-003	0.00000E+000	-5.88269E-004	-3.59960E-001	-1.13316E+000	3.57650E+000	10	...........
	37	0.506667	9.16038E-002	-6.01997E-003	0.00000E+000	-5.51452E-004	-3.59960E-001	-1.14319E+000	3.57650E+000	10	...........
	38	0.52	8.53915E-002	-6.01762E-003	0.00000E+000	-5.13854E-004	-3.59960E-001	-1.13175E+000	3.57650E+000	10	...........
	39	0.533333	7.92827E-002	-6.01172E-003	0.00000E+000	-4.76625E-004	-3.59960E-001	-1.13293E+000	3.57650E+000	10	...........
	40	0.546667	7.32201E-002	-6.02004E-003	0.00000E+000	-4.40788E-004	-3.59960E-001	-1.14340E+000	3.57650E+000	10	...........
	41	0.56	6.72403E-002	-6.01368E-003	0.00000E+000	-4.04362E-004	-3.59960E-001	-1.13235E+000	3.57650E+000	10	...........
	42	0.573333	6.12837E-002	-6.01003E-003	0.00000E+000	-3.68317E-004	-3.59960E-001	-1.13326E+000	3.57650E+000	10	...........
	43	0.586667	5.53669E-002	-6.01355E-003	0.00000E+000	-3.32951E-004	-3.59960E-001	-1.14341E+000	3.57650E+000	10	...........
	44	0.6	4.95365E-002	-6.01528E-003	0.00000E+000	-2.97976E-004	-3.59960E-001	-1.13221E+000	3.57650E+000	10	...........
	45	0.613333	4.38511E-002	-6.01490E-003	0.00000E+000	-2.63760E-004	-3.59960E-001	-1.13320E+000	3.57650E+000	10	...........
	46	0.626667	3.80949E-002	-6.01592E-003	0.00000E+000	-2.29176E-004	-3.59960E-001	-1.14363E+000	3.57650E+000	10	...........
	47	0.64	3.24482E-002	-6.01609E-003	0.00000E+000	-1.95211E-004	-3.59960E-001	-1.13262E+000	3.57650E+000	10	...........
	48	0.653333	2.67903E-002	-6.01331E-003	0.00000E+000	-1.61098E-004	-3.59960E-001	-1.13322E+000	3.57650E+000	10	...........
	49	0.666667	2.12405E-002	-6.01498E-003	0.00000E+000	-1.27762E-004	-3.59960E-001	-1.14328E+000	3.57650E+000	10	...........
	50	0.68	1.57228E-002	-6.01299E-003	0.00000E+000	-9.45414E-005	-3.59960E-001	-1.13212E+000	3.57650E+000	10	...........
	51	0.693333	1.02505E-002	-6.01374E-003	0.00000E+000	-6.16436E-005	-3.59960E-001	-1.13285E+000	3.57650E+000	10	...........
	52	0.706667	4.88997E-003	-6.01075E-003	0.00000E+000	-2.93924E-005	-3.59960E-001	-1.14351E+000	3.57650E+000	10	...........
	53	0.713333	8.83492E-004	-6.01650E-003	0.00000E+000	-5.31553E-006	-3.59960E-001	-1.12169E+000	3.57650E+000	10	...........
STARTTIMEOFFSET	QUANT	1307.703	Start Time Offset (s)
