EXPLAIN
TAG	PWR800_DISCHARGE
TITLE	LABEL	PWR Cyclic Charge Discharge (Cell) - Discharge Step	Test &Identifier
DATE	LABEL	22-6-2017	Date
TIME	LABEL	16:09:09	Time
NOTES	NOTES	3	&Notes...
	supercap test cell
	0.6mg
	6M KOH
PSTAT	PSTAT	IFC5000-01520	Potentiostat
CAPACITY	QUANT	1.00000E-003	Capacity (A-hr)
CELLTYPE	SELECTOR	1	&Cell Type
WORKINGCONNECTION	SELECTOR	0	&Working Lead
MAXDISCHARGETIME	VARIABLEANDUNITS	1.00000E+002	s	1.00000E+002	second(s)	Max &Discharge Time
DISCHARGEMODE	MULTIPARAM	0	6.00000E-003	&Discharge Mode	Constant Current	Amp(s)
SAMPLETIME	QUANT	1.00000E-002	Sa&mple Period (s)
DISCHARGESTOPAT1	MULTIPARAM	3	0.00000E+000	Discharge Stop At &1	Voltage < Limit	V
DISCHARGESTOPAT2	MULTIPARAM	0	0.00000E+000	Discharge Stop At &2	None	N/A
AESBHCSELECTOR	TOGGLE	F	Save Both Half Cells
IRCOMP	TOGGLE	F	IR &Measure
EOC	QUANT	0	Open Circuit (V)
SEQUENCER	TOGGLE	TRUE	Run as Sequence
PSTATMODEL	IQUANT	53	Pstat Model
PSTATSECTION	LABEL	IFC5000-01520	Pstat Section
PSTATSERIALNO	LABEL	01520	Pstat Serial Number
CTRLMODE	IQUANT	0	Control Mode
ELECTROMETER	IQUANT	1	RE=0 or CS=1
IESTAB	IQUANT	0	I/E Stability
CASPEED	IQUANT	4	Control Amp Speed
CONVENTION	IQUANT	1	Current Convention
ICHRANGE	IQUANT	2	Ich Range
ICHRANGEMODE	TOGGLE	T	Ich Auto Range
ICHOFFSETENABLE	TOGGLE	F	Ich Offset Enable
ICHOFFSET	QUANT	0	Ich Offset (V)
ICHFILTER	IQUANT	1	Ich Filter
VCHRANGE	IQUANT	2	Vch Range
VCHRANGEMODE	TOGGLE	T	Vch Auto Range
VCHOFFSETENABLE	TOGGLE	F	Vch Offset Enable
VCHOFFSET	QUANT	0	Vch Offset (V)
VCHFILTER	IQUANT	1	Vch Filter
IERANGELOWERLIMIT	IQUANT	9	I/E Range Lower Limit
IERANGEMODE	TOGGLE	F	I/E AutoRange
IERANGE	IQUANT	10	I/E Range
ACHSELECT	IQUANT	1	Ach Select
ACHRANGE	IQUANT	2	Ach Range
ACHOFFSETENABLE	TOGGLE	F	Ach Offset Enable
ACHOFFSET	QUANT	0	Ach Offset (V)
ACHFILTER	IQUANT	1	Ach Filter
CABLEID	IQUANT	14	Cable ID
DCCALDATE	LABEL	20-10-2016	DC Calibration Date
ACCALDATE	LABEL	12/3/2015	AC Calibration Date
FRAMEWORKVERSION	QUANT	7.01	Framework Version
INSTRUMENTVERSION	LABEL	4.00	Instrument Version
CURVE	TABLE	53
	Pt	T	Vf	Im	Vu	Pwr	Sig	Ach	Temp	IERange	Over
	#	s	V	A	V	W	V	V	deg C	#	bits
	0	0.013333	3.81560E-001	-6.01658E-003	0.00000E+000	-2.29569E-003	-3.59960E-001	-1.13393E+000	3.57780E+000	10	...........
	1	0.026667	3.70052E-001	-6.01377E-003	0.00000E+000	-2.22541E-003	-3.59960E-001	-1.12918E+000	3.57780E+000	10	...........
	2	0.04	3.59344E-001	-6.01635E-003	0.00000E+000	-2.16194E-003	-3.59960E-001	-1.13828E+000	3.57780E+000	10	...........
	3	0.053333	3.49215E-001	-6.01786E-003	0.00000E+000	-2.10153E-003	-3.59960E-001	-1.13456E+000	3.57780E+000	10	...........
	4	0.066667	3.39438E-001	-6.01466E-003	0.00000E+000	-2.04161E-003	-3.59960E-001	-1.12902E+000	3.57780E+000	10	...........
	5	0.08	3.29940E-001	-6.01340E-003	0.00000E+000	-1.98406E-003	-3.59960E-001	-1.13781E+000	3.57780E+000	10	...........
	6	0.093333	3.20708E-001	-6.01335E-003	0.00000E+000	-1.92853E-003	-3.59960E-001	-1.13462E+000	3.57780E+000	10	...........
	7	0.106667	3.11651E-001	-6.01517E-003	0.00000E+000	-1.87464E-003	-3.59960E-001	-1.12950E+000	3.57780E+000	10	...........
	8	0.12	3.02770E-001	-6.01564E-003	0.00000E+000	-1.82135E-003	-3.59960E-001	-1.13835E+000	3.57780E+000	10	...........
	9	0.133333	2.93990E-001	-6.01575E-003	0.00000E+000	-1.76857E-003	-3.59960E-001	-1.13466E+000	3.57780E+000	10	...........
	10	0.146667	2.85386E-001	-6.01485E-003	0.00000E+000	-1.71655E-003	-3.59960E-001	-1.12925E+000	3.57780E+000	10	...........
	11	0.16	2.76873E-001	-6.01494E-003	0.00000E+000	-1.66537E-003	-3.59960E-001	-1.13823E+000	3.57780E+000	10	...........
	12	0.173333	2.68514E-001	-6.01397E-003	0.00000E+000	-1.61483E-003	-3.59960E-001	-1.13523E+000	3.57780E+000	10	...........
	13	0.186667	2.60232E-001	-6.01577E-003	0.00000E+000	-1.56549E-003	-3.59960E-001	-1.12962E+000	3.57780E+000	10	...........
	14	0.2	2.52079E-001	-6.01515E-003	0.00000E+000	-1.51630E-003	-3.59960E-001	-1.13835E+000	3.57780E+000	10	...........
	15	0.213333	2.44045E-001	-6.01507E-003	0.00000E+000	-1.46795E-003	-3.59960E-001	-1.13516E+000	3.57780E+000	10	...........
	16	0.226667	2.36142E-001	-6.01714E-003	0.00000E+000	-1.42090E-003	-3.59960E-001	-1.12980E+000	3.57780E+000	10	...........
	17	0.24	2.28323E-001	-6.01627E-003	0.00000E+000	-1.37365E-003	-3.59960E-001	-1.13833E+000	3.57780E+000	10	...........
	18	0.253333	2.20574E-001	-6.01937E-003	0.00000E+000	-1.32772E-003	-3.59960E-001	-1.13553E+000	3.57780E+000	10	...........
	19	0.266667	2.12898E-001	-6.01472E-003	0.00000E+000	-1.28052E-003	-3.59960E-001	-1.12988E+000	3.57780E+000	10	...........
	20	0.28	2.05371E-001	-6.01475E-003	0.00000E+000	-1.23525E-003	-3.59960E-001	-1.13850E+000	3.57780E+000	10	...........
	21	0.293333	1.97861E-001	-6.01522E-003	0.00000E+000	-1.19018E-003	-3.59960E-001	-1.13597E+000	3.57780E+000	10	...........
	22	0.306667	1.90492E-001	-6.01390E-003	0.00000E+000	-1.14560E-003	-3.59960E-001	-1.13036E+000	3.57780E+000	10	...........
	23	0.32	1.83184E-001	-6.01283E-003	0.00000E+000	-1.10145E-003	-3.59960E-001	-1.13876E+000	3.57780E+000	10	...........
	24	0.333333	1.75937E-001	-6.00906E-003	0.00000E+000	-1.05721E-003	-3.59960E-001	-1.13624E+000	3.57780E+000	10	...........
	25	0.346667	1.68798E-001	-6.01889E-003	0.00000E+000	-1.01597E-003	-3.59960E-001	-1.13033E+000	3.57780E+000	10	...........
	26	0.36	1.61767E-001	-6.01412E-003	0.00000E+000	-9.72889E-004	-3.59960E-001	-1.13882E+000	3.57780E+000	10	...........
	27	0.373333	1.54761E-001	-6.01673E-003	0.00000E+000	-9.31152E-004	-3.59960E-001	-1.13662E+000	3.57780E+000	10	...........
	28	0.386667	1.47924E-001	-6.01873E-003	0.00000E+000	-8.90315E-004	-3.59960E-001	-1.13058E+000	3.57780E+000	10	...........
	29	0.4	1.41140E-001	-6.01259E-003	0.00000E+000	-8.48619E-004	-3.59960E-001	-1.13862E+000	3.57780E+000	10	...........
	30	0.413333	1.34372E-001	-6.01530E-003	0.00000E+000	-8.08285E-004	-3.59960E-001	-1.13618E+000	3.57780E+000	10	...........
	31	0.426667	1.27685E-001	-6.01585E-003	0.00000E+000	-7.68131E-004	-3.59960E-001	-1.13039E+000	3.57780E+000	10	...........
	32	0.44	1.21072E-001	-6.01738E-003	0.00000E+000	-7.28534E-004	-3.59960E-001	-1.13858E+000	3.57780E+000	10	...........
	33	0.453333	1.14530E-001	-6.01273E-003	0.00000E+000	-6.88637E-004	-3.59960E-001	-1.13666E+000	3.57780E+000	10	...........
	34	0.466667	1.08045E-001	-6.01513E-003	0.00000E+000	-6.49907E-004	-3.59960E-001	-1.13046E+000	3.57780E+000	10	...........
	35	0.48	1.01650E-001	-6.02369E-003	0.00000E+000	-6.12306E-004	-3.59960E-001	-1.13849E+000	3.57780E+000	10	...........
	36	0.493333	9.53093E-002	-6.01608E-003	0.00000E+000	-5.73389E-004	-3.59960E-001	-1.13670E+000	3.57780E+000	10	...........
	37	0.506667	8.90117E-002	-6.01715E-003	0.00000E+000	-5.35597E-004	-3.59960E-001	-1.13076E+000	3.57780E+000	10	...........
	38	0.52	8.27805E-002	-6.01495E-003	0.00000E+000	-4.97921E-004	-3.59960E-001	-1.13849E+000	3.57780E+000	10	...........
	39	0.533333	7.66509E-002	-6.01493E-003	0.00000E+000	-4.61050E-004	-3.59960E-001	-1.13680E+000	3.57780E+000	10	...........
	40	0.546667	7.06617E-002	-6.01845E-003	0.00000E+000	-4.25274E-004	-3.59960E-001	-1.13060E+000	3.57780E+000	10	...........
	41	0.56	6.46295E-002	-6.01636E-003	0.00000E+000	-3.88835E-004	-3.59960E-001	-1.13878E+000	3.57780E+000	10	...........
	42	0.573333	5.86658E-002	-6.01543E-003	0.00000E+000	-3.52900E-004	-3.59960E-001	-1.13712E+000	3.57780E+000	10	...........
	43	0.586667	5.27837E-002	-6.01636E-003	0.00000E+000	-3.17566E-004	-3.59960E-001	-1.13078E+000	3.57780E+000	10	...........
	44	0.6	4.69715E-002	-6.01237E-003	0.00000E+000	-2.82410E-004	-3.59960E-001	-1.13854E+000	3.57780E+000	10	...........
	45	0.613333	4.11869E-002	-6.01560E-003	0.00000E+000	-2.47764E-004	-3.59960E-001	-1.13741E+000	3.57780E+000	10	...........
	46	0.626667	3.54586E-002	-6.01585E-003	0.00000E+000	-2.13313E-004	-3.59960E-001	-1.13096E+000	3.57780E+000	10	...........
	47	0.64	2.98048E-002	-6.00977E-003	0.00000E+000	-1.79120E-004	-3.59960E-001	-1.13891E+000	3.57780E+000	10	...........
	48	0.653333	2.42060E-002	-6.01066E-003	0.00000E+000	-1.45494E-004	-3.59960E-001	-1.13770E+000	3.57780E+000	10	...........
	49	0.666667	1.86629E-002	-6.00902E-003	0.00000E+000	-1.12146E-004	-3.59960E-001	-1.13083E+000	3.57780E+000	10	...........
	50	0.68	1.31179E-002	-6.01295E-003	0.00000E+000	-7.88772E-005	-3.59960E-001	-1.13860E+000	3.57780E+000	10	...........
	51	0.693333	7.65709E-003	-6.01581E-003	0.00000E+000	-4.60636E-005	-3.59960E-001	-1.13775E+000	3.57780E+000	10	...........
	52	0.706667	2.22684E-003	-6.01435E-003	0.00000E+000	-1.33930E-005	-3.59960E-001	-1.13117E+000	3.57780E+000	10	...........
STARTTIMEOFFSET	QUANT	1376.156	Start Time Offset (s)
