EXPLAIN
TAG	PWR800_DISCHARGE
TITLE	LABEL	PWR Cyclic Charge Discharge (Cell) - Discharge Step	Test &Identifier
DATE	LABEL	22-6-2017	Date
TIME	LABEL	15:56:50	Time
NOTES	NOTES	3	&Notes...
	supercap test cell
	0.6mg
	6M KOH
PSTAT	PSTAT	IFC5000-01520	Potentiostat
CAPACITY	QUANT	1.00000E-003	Capacity (A-hr)
CELLTYPE	SELECTOR	1	&Cell Type
WORKINGCONNECTION	SELECTOR	0	&Working Lead
MAXDISCHARGETIME	VARIABLEANDUNITS	1.00000E+002	s	1.00000E+002	second(s)	Max &Discharge Time
DISCHARGEMODE	MULTIPARAM	0	6.00000E-003	&Discharge Mode	Constant Current	Amp(s)
SAMPLETIME	QUANT	1.00000E-002	Sa&mple Period (s)
DISCHARGESTOPAT1	MULTIPARAM	3	0.00000E+000	Discharge Stop At &1	Voltage < Limit	V
DISCHARGESTOPAT2	MULTIPARAM	0	0.00000E+000	Discharge Stop At &2	None	N/A
AESBHCSELECTOR	TOGGLE	F	Save Both Half Cells
IRCOMP	TOGGLE	F	IR &Measure
EOC	QUANT	0	Open Circuit (V)
SEQUENCER	TOGGLE	TRUE	Run as Sequence
PSTATMODEL	IQUANT	53	Pstat Model
PSTATSECTION	LABEL	IFC5000-01520	Pstat Section
PSTATSERIALNO	LABEL	01520	Pstat Serial Number
CTRLMODE	IQUANT	0	Control Mode
ELECTROMETER	IQUANT	1	RE=0 or CS=1
IESTAB	IQUANT	0	I/E Stability
CASPEED	IQUANT	4	Control Amp Speed
CONVENTION	IQUANT	1	Current Convention
ICHRANGE	IQUANT	2	Ich Range
ICHRANGEMODE	TOGGLE	T	Ich Auto Range
ICHOFFSETENABLE	TOGGLE	F	Ich Offset Enable
ICHOFFSET	QUANT	0	Ich Offset (V)
ICHFILTER	IQUANT	1	Ich Filter
VCHRANGE	IQUANT	2	Vch Range
VCHRANGEMODE	TOGGLE	T	Vch Auto Range
VCHOFFSETENABLE	TOGGLE	F	Vch Offset Enable
VCHOFFSET	QUANT	0	Vch Offset (V)
VCHFILTER	IQUANT	1	Vch Filter
IERANGELOWERLIMIT	IQUANT	9	I/E Range Lower Limit
IERANGEMODE	TOGGLE	F	I/E AutoRange
IERANGE	IQUANT	10	I/E Range
ACHSELECT	IQUANT	1	Ach Select
ACHRANGE	IQUANT	2	Ach Range
ACHOFFSETENABLE	TOGGLE	F	Ach Offset Enable
ACHOFFSET	QUANT	0	Ach Offset (V)
ACHFILTER	IQUANT	1	Ach Filter
CABLEID	IQUANT	14	Cable ID
DCCALDATE	LABEL	20-10-2016	DC Calibration Date
ACCALDATE	LABEL	12/3/2015	AC Calibration Date
FRAMEWORKVERSION	QUANT	7.01	Framework Version
INSTRUMENTVERSION	LABEL	4.00	Instrument Version
CURVE	TABLE	58
	Pt	T	Vf	Im	Vu	Pwr	Sig	Ach	Temp	IERange	Over
	#	s	V	A	V	W	V	V	deg C	#	bits
	0	0.013333	3.94387E-001	-6.01518E-003	0.00000E+000	-2.37231E-003	-3.59960E-001	-1.09712E+000	3.57700E+000	10	...........
	1	0.026667	3.83267E-001	-6.01737E-003	0.00000E+000	-2.30626E-003	-3.59960E-001	-1.10049E+000	3.57700E+000	10	...........
	2	0.04	3.72905E-001	-6.01307E-003	0.00000E+000	-2.24230E-003	-3.59960E-001	-1.09212E+000	3.57700E+000	10	...........
	3	0.053333	3.63108E-001	-6.01543E-003	0.00000E+000	-2.18425E-003	-3.59960E-001	-1.09709E+000	3.57700E+000	10	...........
	4	0.066667	3.53687E-001	-6.01443E-003	0.00000E+000	-2.12723E-003	-3.59960E-001	-1.10012E+000	3.57700E+000	10	...........
	5	0.08	3.44538E-001	-6.01178E-003	0.00000E+000	-2.07129E-003	-3.59960E-001	-1.09192E+000	3.57700E+000	10	...........
	6	0.093333	3.35565E-001	-6.01554E-003	0.00000E+000	-2.01861E-003	-3.59960E-001	-1.09755E+000	3.57708E+000	10	...........
	7	0.106667	3.26834E-001	-6.01716E-003	0.00000E+000	-1.96661E-003	-3.59960E-001	-1.10086E+000	3.57710E+000	10	...........
	8	0.12	3.18209E-001	-6.01703E-003	0.00000E+000	-1.91467E-003	-3.59960E-001	-1.09208E+000	3.57710E+000	10	...........
	9	0.133333	3.09729E-001	-6.01359E-003	0.00000E+000	-1.86258E-003	-3.59960E-001	-1.09725E+000	3.57710E+000	10	...........
	10	0.146667	3.01403E-001	-6.01767E-003	0.00000E+000	-1.81374E-003	-3.59960E-001	-1.10092E+000	3.57710E+000	10	...........
	11	0.16	2.93188E-001	-6.01723E-003	0.00000E+000	-1.76418E-003	-3.59960E-001	-1.09243E+000	3.57710E+000	10	...........
	12	0.173333	2.85092E-001	-6.01805E-003	0.00000E+000	-1.71570E-003	-3.59960E-001	-1.09767E+000	3.57710E+000	10	...........
	13	0.186667	2.77038E-001	-6.00764E-003	0.00000E+000	-1.66435E-003	-3.59960E-001	-1.10115E+000	3.57710E+000	10	...........
	14	0.2	2.69145E-001	-6.01271E-003	0.00000E+000	-1.61829E-003	-3.59960E-001	-1.09246E+000	3.57710E+000	10	...........
	15	0.213333	2.61343E-001	-6.00824E-003	0.00000E+000	-1.57021E-003	-3.59960E-001	-1.09756E+000	3.57710E+000	10	...........
	16	0.226667	2.53632E-001	-6.01696E-003	0.00000E+000	-1.52609E-003	-3.59960E-001	-1.10154E+000	3.57710E+000	10	...........
	17	0.24	2.46007E-001	-6.01574E-003	0.00000E+000	-1.47991E-003	-3.59960E-001	-1.09284E+000	3.57710E+000	10	...........
	18	0.253333	2.38526E-001	-6.01530E-003	0.00000E+000	-1.43481E-003	-3.59960E-001	-1.09790E+000	3.57710E+000	10	...........
	19	0.266667	2.31089E-001	-6.01604E-003	0.00000E+000	-1.39024E-003	-3.59960E-001	-1.10160E+000	3.57710E+000	10	...........
	20	0.28	2.23755E-001	-6.01356E-003	0.00000E+000	-1.34556E-003	-3.59960E-001	-1.09293E+000	3.57710E+000	10	...........
	21	0.293333	2.16442E-001	-6.01991E-003	0.00000E+000	-1.30296E-003	-3.59960E-001	-1.09788E+000	3.57710E+000	10	...........
	22	0.306667	2.09247E-001	-6.01495E-003	0.00000E+000	-1.25861E-003	-3.59960E-001	-1.10198E+000	3.57710E+000	10	...........
	23	0.32	2.02159E-001	-6.01752E-003	0.00000E+000	-1.21650E-003	-3.59960E-001	-1.09293E+000	3.57710E+000	10	...........
	24	0.333333	1.95108E-001	-6.01815E-003	0.00000E+000	-1.17419E-003	-3.59960E-001	-1.09778E+000	3.57710E+000	10	...........
	25	0.346667	1.88196E-001	-6.01270E-003	0.00000E+000	-1.13156E-003	-3.59960E-001	-1.10198E+000	3.57710E+000	10	...........
	26	0.36	1.81304E-001	-6.01603E-003	0.00000E+000	-1.09073E-003	-3.59960E-001	-1.09327E+000	3.57710E+000	10	...........
	27	0.373333	1.74471E-001	-6.01399E-003	0.00000E+000	-1.04927E-003	-3.59960E-001	-1.09813E+000	3.57710E+000	10	...........
	28	0.386667	1.67733E-001	-6.01508E-003	0.00000E+000	-1.00893E-003	-3.59960E-001	-1.10172E+000	3.57710E+000	10	...........
	29	0.4	1.61082E-001	-6.01230E-003	0.00000E+000	-9.68476E-004	-3.59960E-001	-1.09313E+000	3.57710E+000	10	...........
	30	0.413333	1.54458E-001	-6.01384E-003	0.00000E+000	-9.28883E-004	-3.59960E-001	-1.09761E+000	3.57710E+000	10	...........
	31	0.426667	1.47897E-001	-6.01737E-003	0.00000E+000	-8.89949E-004	-3.59960E-001	-1.10221E+000	3.57710E+000	10	...........
	32	0.44	1.41396E-001	-6.01504E-003	0.00000E+000	-8.50504E-004	-3.59960E-001	-1.09331E+000	3.57710E+000	10	...........
	33	0.453333	1.34991E-001	-6.01463E-003	0.00000E+000	-8.11921E-004	-3.59960E-001	-1.09798E+000	3.57710E+000	10	...........
	34	0.466667	1.28614E-001	-6.01470E-003	0.00000E+000	-7.73574E-004	-3.59960E-001	-1.10233E+000	3.57710E+000	10	...........
	35	0.48	1.22326E-001	-6.02039E-003	0.00000E+000	-7.36449E-004	-3.59960E-001	-1.09330E+000	3.57710E+000	10	...........
	36	0.493333	1.16099E-001	-6.01244E-003	0.00000E+000	-6.98037E-004	-3.59960E-001	-1.09812E+000	3.57710E+000	10	...........
	37	0.506667	1.09945E-001	-6.01511E-003	0.00000E+000	-6.61331E-004	-3.59960E-001	-1.10274E+000	3.57710E+000	10	...........
	38	0.52	1.03838E-001	-6.01274E-003	0.00000E+000	-6.24349E-004	-3.59960E-001	-1.09352E+000	3.57710E+000	10	...........
	39	0.533333	9.77475E-002	-6.01413E-003	0.00000E+000	-5.87866E-004	-3.59960E-001	-1.09794E+000	3.57710E+000	10	...........
	40	0.546667	9.17243E-002	-6.01690E-003	0.00000E+000	-5.51896E-004	-3.59960E-001	-1.10264E+000	3.57710E+000	10	...........
	41	0.56	8.57760E-002	-6.01275E-003	0.00000E+000	-5.15750E-004	-3.59960E-001	-1.09365E+000	3.57710E+000	10	...........
	42	0.573333	7.98926E-002	-6.00945E-003	0.00000E+000	-4.80110E-004	-3.59960E-001	-1.09809E+000	3.57710E+000	10	...........
	43	0.586667	7.40565E-002	-6.01317E-003	0.00000E+000	-4.45314E-004	-3.59960E-001	-1.10288E+000	3.57710E+000	10	...........
	44	0.6	6.83019E-002	-6.01980E-003	0.00000E+000	-4.11164E-004	-3.59960E-001	-1.09382E+000	3.57710E+000	10	...........
	45	0.613333	6.25505E-002	-6.01684E-003	0.00000E+000	-3.76356E-004	-3.59960E-001	-1.09842E+000	3.57710E+000	10	...........
	46	0.626667	5.68882E-002	-6.01381E-003	0.00000E+000	-3.42115E-004	-3.59960E-001	-1.10355E+000	3.57710E+000	10	...........
	47	0.64	5.12704E-002	-6.01460E-003	0.00000E+000	-3.08371E-004	-3.59960E-001	-1.09420E+000	3.57710E+000	10	...........
	48	0.653333	4.57312E-002	-6.01562E-003	0.00000E+000	-2.75102E-004	-3.59960E-001	-1.09852E+000	3.57710E+000	10	...........
	49	0.666667	4.01839E-002	-6.01385E-003	0.00000E+000	-2.41660E-004	-3.59960E-001	-1.10336E+000	3.57710E+000	10	...........
	50	0.68	3.47236E-002	-6.01186E-003	0.00000E+000	-2.08754E-004	-3.59960E-001	-1.09406E+000	3.57710E+000	10	...........
	51	0.693333	2.92847E-002	-6.01767E-003	0.00000E+000	-1.76225E-004	-3.59960E-001	-1.09838E+000	3.57710E+000	10	...........
	52	0.706667	2.38849E-002	-6.02003E-003	0.00000E+000	-1.43788E-004	-3.59960E-001	-1.10348E+000	3.57710E+000	10	...........
	53	0.72	1.85468E-002	-6.01471E-003	0.00000E+000	-1.11553E-004	-3.59960E-001	-1.09412E+000	3.57710E+000	10	...........
	54	0.733333	1.32588E-002	-6.01577E-003	0.00000E+000	-7.97621E-005	-3.59960E-001	-1.09802E+000	3.57710E+000	10	...........
	55	0.746667	8.03816E-003	-6.01566E-003	0.00000E+000	-4.83549E-005	-3.59960E-001	-1.10348E+000	3.57710E+000	10	...........
	56	0.76	2.84723E-003	-6.01694E-003	0.00000E+000	-1.71316E-005	-3.59960E-001	-1.09431E+000	3.57710E+000	10	...........
	57	0.761667	-9.40853E-005	-6.01345E-003	0.00000E+000	5.65777E-007	-3.59960E-001	-1.10967E+000	3.57710E+000	10	...........
STARTTIMEOFFSET	QUANT	895.1085	Start Time Offset (s)
