EXPLAIN
TAG	PWR800_DISCHARGE
TITLE	LABEL	PWR Cyclic Charge Discharge (Cell) - Discharge Step	Test &Identifier
DATE	LABEL	22-6-2017	Date
TIME	LABEL	15:43:57	Time
NOTES	NOTES	3	&Notes...
	supercap test cell
	0.6mg
	6M KOH
PSTAT	PSTAT	IFC5000-01520	Potentiostat
CAPACITY	QUANT	1.00000E-003	Capacity (A-hr)
CELLTYPE	SELECTOR	1	&Cell Type
WORKINGCONNECTION	SELECTOR	0	&Working Lead
MAXDISCHARGETIME	VARIABLEANDUNITS	1.00000E+002	s	1.00000E+002	second(s)	Max &Discharge Time
DISCHARGEMODE	MULTIPARAM	0	6.00000E-003	&Discharge Mode	Constant Current	Amp(s)
SAMPLETIME	QUANT	1.00000E-002	Sa&mple Period (s)
DISCHARGESTOPAT1	MULTIPARAM	3	0.00000E+000	Discharge Stop At &1	Voltage < Limit	V
DISCHARGESTOPAT2	MULTIPARAM	0	0.00000E+000	Discharge Stop At &2	None	N/A
AESBHCSELECTOR	TOGGLE	F	Save Both Half Cells
IRCOMP	TOGGLE	F	IR &Measure
EOC	QUANT	0	Open Circuit (V)
SEQUENCER	TOGGLE	TRUE	Run as Sequence
PSTATMODEL	IQUANT	53	Pstat Model
PSTATSECTION	LABEL	IFC5000-01520	Pstat Section
PSTATSERIALNO	LABEL	01520	Pstat Serial Number
CTRLMODE	IQUANT	0	Control Mode
ELECTROMETER	IQUANT	1	RE=0 or CS=1
IESTAB	IQUANT	0	I/E Stability
CASPEED	IQUANT	4	Control Amp Speed
CONVENTION	IQUANT	1	Current Convention
ICHRANGE	IQUANT	2	Ich Range
ICHRANGEMODE	TOGGLE	T	Ich Auto Range
ICHOFFSETENABLE	TOGGLE	F	Ich Offset Enable
ICHOFFSET	QUANT	0	Ich Offset (V)
ICHFILTER	IQUANT	1	Ich Filter
VCHRANGE	IQUANT	2	Vch Range
VCHRANGEMODE	TOGGLE	T	Vch Auto Range
VCHOFFSETENABLE	TOGGLE	F	Vch Offset Enable
VCHOFFSET	QUANT	0	Vch Offset (V)
VCHFILTER	IQUANT	1	Vch Filter
IERANGELOWERLIMIT	IQUANT	9	I/E Range Lower Limit
IERANGEMODE	TOGGLE	F	I/E AutoRange
IERANGE	IQUANT	10	I/E Range
ACHSELECT	IQUANT	1	Ach Select
ACHRANGE	IQUANT	2	Ach Range
ACHOFFSETENABLE	TOGGLE	F	Ach Offset Enable
ACHOFFSET	QUANT	0	Ach Offset (V)
ACHFILTER	IQUANT	1	Ach Filter
CABLEID	IQUANT	14	Cable ID
DCCALDATE	LABEL	20-10-2016	DC Calibration Date
ACCALDATE	LABEL	12/3/2015	AC Calibration Date
FRAMEWORKVERSION	QUANT	7.01	Framework Version
INSTRUMENTVERSION	LABEL	4.00	Instrument Version
CURVE	TABLE	64
	Pt	T	Vf	Im	Vu	Pwr	Sig	Ach	Temp	IERange	Over
	#	s	V	A	V	W	V	V	deg C	#	bits
	0	0.013333	4.14659E-001	-6.01528E-003	0.00000E+000	-2.49429E-003	-3.59960E-001	-1.05478E+000	3.57700E+000	10	...........
	1	0.026667	4.04101E-001	-6.01379E-003	0.00000E+000	-2.43017E-003	-3.59960E-001	-1.05032E+000	3.57700E+000	10	...........
	2	0.04	3.94296E-001	-6.01074E-003	0.00000E+000	-2.37001E-003	-3.59960E-001	-1.05890E+000	3.57700E+000	10	...........
	3	0.053333	3.85002E-001	-6.01767E-003	0.00000E+000	-2.31682E-003	-3.59960E-001	-1.05485E+000	3.57700E+000	10	...........
	4	0.066667	3.76067E-001	-6.01360E-003	0.00000E+000	-2.26152E-003	-3.59960E-001	-1.05052E+000	3.57700E+000	10	...........
	5	0.08	3.67390E-001	-6.01357E-003	0.00000E+000	-2.20933E-003	-3.59960E-001	-1.05901E+000	3.57700E+000	10	...........
	6	0.093333	3.58917E-001	-6.01316E-003	0.00000E+000	-2.15822E-003	-3.59960E-001	-1.05491E+000	3.57700E+000	10	...........
	7	0.106667	3.50573E-001	-6.01519E-003	0.00000E+000	-2.10877E-003	-3.59960E-001	-1.05043E+000	3.57700E+000	10	...........
	8	0.12	3.42407E-001	-6.01394E-003	0.00000E+000	-2.05922E-003	-3.59960E-001	-1.05915E+000	3.57700E+000	10	...........
	9	0.133333	3.34390E-001	-6.01275E-003	0.00000E+000	-2.01061E-003	-3.59960E-001	-1.05538E+000	3.57700E+000	10	...........
	10	0.146667	3.26489E-001	-6.01809E-003	0.00000E+000	-1.96484E-003	-3.59960E-001	-1.05096E+000	3.57700E+000	10	...........
	11	0.16	3.18683E-001	-6.01835E-003	0.00000E+000	-1.91795E-003	-3.59960E-001	-1.05950E+000	3.57700E+000	10	...........
	12	0.173333	3.10986E-001	-6.01161E-003	0.00000E+000	-1.86952E-003	-3.59960E-001	-1.05534E+000	3.57700E+000	10	...........
	13	0.186667	3.03348E-001	-6.01243E-003	0.00000E+000	-1.82386E-003	-3.59960E-001	-1.05077E+000	3.57700E+000	10	...........
	14	0.2	2.95810E-001	-6.01664E-003	0.00000E+000	-1.77979E-003	-3.59960E-001	-1.05978E+000	3.57700E+000	10	...........
	15	0.213333	2.88375E-001	-6.01526E-003	0.00000E+000	-1.73465E-003	-3.59960E-001	-1.05557E+000	3.57700E+000	10	...........
	16	0.226667	2.81049E-001	-6.01320E-003	0.00000E+000	-1.69001E-003	-3.59960E-001	-1.05114E+000	3.57700E+000	10	...........
	17	0.24	2.73792E-001	-6.01045E-003	0.00000E+000	-1.64561E-003	-3.59960E-001	-1.05989E+000	3.57700E+000	10	...........
	18	0.253333	2.66606E-001	-6.01127E-003	0.00000E+000	-1.60264E-003	-3.59960E-001	-1.05566E+000	3.57700E+000	10	...........
	19	0.266667	2.59505E-001	-6.01557E-003	0.00000E+000	-1.56107E-003	-3.59960E-001	-1.05121E+000	3.57700E+000	10	...........
	20	0.28	2.52501E-001	-6.01471E-003	0.00000E+000	-1.51872E-003	-3.59960E-001	-1.06027E+000	3.57700E+000	10	...........
	21	0.293333	2.45543E-001	-6.01325E-003	0.00000E+000	-1.47651E-003	-3.59960E-001	-1.05611E+000	3.57700E+000	10	...........
	22	0.306667	2.38658E-001	-6.01438E-003	0.00000E+000	-1.43538E-003	-3.59960E-001	-1.05171E+000	3.57700E+000	10	...........
	23	0.32	2.31847E-001	-6.00936E-003	0.00000E+000	-1.39325E-003	-3.59960E-001	-1.06061E+000	3.57700E+000	10	...........
	24	0.333333	2.25087E-001	-6.01719E-003	0.00000E+000	-1.35439E-003	-3.59960E-001	-1.05616E+000	3.57700E+000	10	...........
	25	0.346667	2.18428E-001	-6.01579E-003	0.00000E+000	-1.31402E-003	-3.59960E-001	-1.05208E+000	3.57700E+000	10	...........
	26	0.36	2.11813E-001	-6.01454E-003	0.00000E+000	-1.27396E-003	-3.59960E-001	-1.06093E+000	3.57700E+000	10	...........
	27	0.373333	2.05254E-001	-6.01438E-003	0.00000E+000	-1.23448E-003	-3.59960E-001	-1.05632E+000	3.57700E+000	10	...........
	28	0.386667	1.98760E-001	-6.01129E-003	0.00000E+000	-1.19480E-003	-3.59960E-001	-1.05206E+000	3.57700E+000	10	...........
	29	0.4	1.92339E-001	-6.01330E-003	0.00000E+000	-1.15659E-003	-3.59960E-001	-1.06093E+000	3.57700E+000	10	...........
	30	0.413333	1.85913E-001	-6.01439E-003	0.00000E+000	-1.11815E-003	-3.59960E-001	-1.05617E+000	3.57700E+000	10	...........
	31	0.426667	1.79561E-001	-6.01702E-003	0.00000E+000	-1.08042E-003	-3.59960E-001	-1.05203E+000	3.57700E+000	10	...........
	32	0.44	1.73253E-001	-6.01097E-003	0.00000E+000	-1.04142E-003	-3.59960E-001	-1.06099E+000	3.57700E+000	10	...........
	33	0.453333	1.67065E-001	-6.01265E-003	0.00000E+000	-1.00450E-003	-3.59960E-001	-1.05631E+000	3.57700E+000	10	...........
	34	0.466667	1.60905E-001	-6.01246E-003	0.00000E+000	-9.67433E-004	-3.59960E-001	-1.05211E+000	3.57700E+000	10	...........
	35	0.48	1.54763E-001	-6.01777E-003	0.00000E+000	-9.31326E-004	-3.59960E-001	-1.06135E+000	3.57700E+000	10	...........
	36	0.493333	1.48732E-001	-6.01525E-003	0.00000E+000	-8.94659E-004	-3.59960E-001	-1.05650E+000	3.57700E+000	10	...........
	37	0.506667	1.42741E-001	-6.02006E-003	0.00000E+000	-8.59308E-004	-3.59960E-001	-1.05203E+000	3.57700E+000	10	...........
	38	0.52	1.36808E-001	-6.01296E-003	0.00000E+000	-8.22621E-004	-3.59960E-001	-1.06127E+000	3.57700E+000	10	...........
	39	0.533333	1.30934E-001	-6.01293E-003	0.00000E+000	-7.87297E-004	-3.59960E-001	-1.05658E+000	3.57700E+000	10	...........
	40	0.546667	1.25060E-001	-6.01737E-003	0.00000E+000	-7.52533E-004	-3.59960E-001	-1.05243E+000	3.57700E+000	10	...........
	41	0.56	1.19251E-001	-6.01922E-003	0.00000E+000	-7.17798E-004	-3.59960E-001	-1.06163E+000	3.57700E+000	10	...........
	42	0.573333	1.13497E-001	-6.01753E-003	0.00000E+000	-6.82974E-004	-3.59960E-001	-1.05658E+000	3.57700E+000	10	...........
	43	0.586667	1.07782E-001	-6.02069E-003	0.00000E+000	-6.48925E-004	-3.59960E-001	-1.05229E+000	3.57700E+000	10	...........
	44	0.6	1.02126E-001	-6.01716E-003	0.00000E+000	-6.14507E-004	-3.59960E-001	-1.06155E+000	3.57700E+000	10	...........
	45	0.613333	9.64464E-002	-6.01593E-003	0.00000E+000	-5.80215E-004	-3.59960E-001	-1.05702E+000	3.57700E+000	10	...........
	46	0.626667	9.08414E-002	-6.01415E-003	0.00000E+000	-5.46334E-004	-3.59960E-001	-1.05270E+000	3.57700E+000	10	...........
	47	0.64	8.53118E-002	-6.01889E-003	0.00000E+000	-5.13482E-004	-3.59960E-001	-1.06187E+000	3.57700E+000	10	...........
	48	0.653333	7.98383E-002	-6.01186E-003	0.00000E+000	-4.79976E-004	-3.59960E-001	-1.05680E+000	3.57700E+000	10	...........
	49	0.666667	7.43661E-002	-6.01820E-003	0.00000E+000	-4.47550E-004	-3.59960E-001	-1.05289E+000	3.57700E+000	10	...........
	50	0.68	6.89822E-002	-6.01563E-003	0.00000E+000	-4.14972E-004	-3.59960E-001	-1.06219E+000	3.57700E+000	10	...........
	51	0.693333	6.35659E-002	-6.01534E-003	0.00000E+000	-3.82371E-004	-3.59960E-001	-1.05682E+000	3.57700E+000	10	...........
	52	0.706667	5.82181E-002	-6.01730E-003	0.00000E+000	-3.50316E-004	-3.59960E-001	-1.05297E+000	3.57700E+000	10	...........
	53	0.72	5.29224E-002	-6.01615E-003	0.00000E+000	-3.18389E-004	-3.59960E-001	-1.06192E+000	3.57700E+000	10	...........
	54	0.733333	4.77048E-002	-6.01730E-003	0.00000E+000	-2.87054E-004	-3.59960E-001	-1.05665E+000	3.57700E+000	10	...........
	55	0.746667	4.25270E-002	-6.01355E-003	0.00000E+000	-2.55738E-004	-3.59960E-001	-1.05283E+000	3.57700E+000	10	...........
	56	0.76	3.73662E-002	-6.01577E-003	0.00000E+000	-2.24786E-004	-3.59960E-001	-1.06215E+000	3.57700E+000	10	...........
	57	0.773333	3.22373E-002	-6.01601E-003	0.00000E+000	-1.93940E-004	-3.59960E-001	-1.05680E+000	3.57700E+000	10	...........
	58	0.786667	2.70909E-002	-6.01483E-003	0.00000E+000	-1.62947E-004	-3.59960E-001	-1.05298E+000	3.57700E+000	10	...........
	59	0.8	2.20302E-002	-6.01669E-003	0.00000E+000	-1.32549E-004	-3.59960E-001	-1.06226E+000	3.57700E+000	10	...........
	60	0.813333	1.69842E-002	-6.01518E-003	0.00000E+000	-1.02163E-004	-3.59960E-001	-1.05704E+000	3.57700E+000	10	...........
	61	0.826667	1.19759E-002	-6.01846E-003	0.00000E+000	-7.20766E-005	-3.59960E-001	-1.05305E+000	3.57700E+000	10	...........
	62	0.84	7.02187E-003	-6.01608E-003	0.00000E+000	-4.22441E-005	-3.59960E-001	-1.06221E+000	3.57779E+000	10	...........
	63	0.853333	2.09305E-003	-6.01713E-003	0.00000E+000	-1.25942E-005	-3.59960E-001	-1.05700E+000	3.57820E+000	10	...........
STARTTIMEOFFSET	QUANT	378.99	Start Time Offset (s)
