EXPLAIN
TAG	PWR800_DISCHARGE
TITLE	LABEL	PWR Cyclic Charge Discharge (Cell) - Discharge Step	Test &Identifier
DATE	LABEL	22-6-2017	Date
TIME	LABEL	15:45:37	Time
NOTES	NOTES	3	&Notes...
	supercap test cell
	0.6mg
	6M KOH
PSTAT	PSTAT	IFC5000-01520	Potentiostat
CAPACITY	QUANT	1.00000E-003	Capacity (A-hr)
CELLTYPE	SELECTOR	1	&Cell Type
WORKINGCONNECTION	SELECTOR	0	&Working Lead
MAXDISCHARGETIME	VARIABLEANDUNITS	1.00000E+002	s	1.00000E+002	second(s)	Max &Discharge Time
DISCHARGEMODE	MULTIPARAM	0	6.00000E-003	&Discharge Mode	Constant Current	Amp(s)
SAMPLETIME	QUANT	1.00000E-002	Sa&mple Period (s)
DISCHARGESTOPAT1	MULTIPARAM	3	0.00000E+000	Discharge Stop At &1	Voltage < Limit	V
DISCHARGESTOPAT2	MULTIPARAM	0	0.00000E+000	Discharge Stop At &2	None	N/A
AESBHCSELECTOR	TOGGLE	F	Save Both Half Cells
IRCOMP	TOGGLE	F	IR &Measure
EOC	QUANT	0	Open Circuit (V)
SEQUENCER	TOGGLE	TRUE	Run as Sequence
PSTATMODEL	IQUANT	53	Pstat Model
PSTATSECTION	LABEL	IFC5000-01520	Pstat Section
PSTATSERIALNO	LABEL	01520	Pstat Serial Number
CTRLMODE	IQUANT	0	Control Mode
ELECTROMETER	IQUANT	1	RE=0 or CS=1
IESTAB	IQUANT	0	I/E Stability
CASPEED	IQUANT	4	Control Amp Speed
CONVENTION	IQUANT	1	Current Convention
ICHRANGE	IQUANT	2	Ich Range
ICHRANGEMODE	TOGGLE	T	Ich Auto Range
ICHOFFSETENABLE	TOGGLE	F	Ich Offset Enable
ICHOFFSET	QUANT	0	Ich Offset (V)
ICHFILTER	IQUANT	1	Ich Filter
VCHRANGE	IQUANT	2	Vch Range
VCHRANGEMODE	TOGGLE	T	Vch Auto Range
VCHOFFSETENABLE	TOGGLE	F	Vch Offset Enable
VCHOFFSET	QUANT	0	Vch Offset (V)
VCHFILTER	IQUANT	1	Vch Filter
IERANGELOWERLIMIT	IQUANT	9	I/E Range Lower Limit
IERANGEMODE	TOGGLE	F	I/E AutoRange
IERANGE	IQUANT	10	I/E Range
ACHSELECT	IQUANT	1	Ach Select
ACHRANGE	IQUANT	2	Ach Range
ACHOFFSETENABLE	TOGGLE	F	Ach Offset Enable
ACHOFFSET	QUANT	0	Ach Offset (V)
ACHFILTER	IQUANT	1	Ach Filter
CABLEID	IQUANT	14	Cable ID
DCCALDATE	LABEL	20-10-2016	DC Calibration Date
ACCALDATE	LABEL	12/3/2015	AC Calibration Date
FRAMEWORKVERSION	QUANT	7.01	Framework Version
INSTRUMENTVERSION	LABEL	4.00	Instrument Version
CURVE	TABLE	63
	Pt	T	Vf	Im	Vu	Pwr	Sig	Ach	Temp	IERange	Over
	#	s	V	A	V	W	V	V	deg C	#	bits
	0	0.013333	4.11930E-001	-6.01258E-003	0.00000E+000	-2.47676E-003	-3.59960E-001	-1.06687E+000	3.57700E+000	10	...........
	1	0.026667	4.01282E-001	-6.01339E-003	0.00000E+000	-2.41307E-003	-3.59960E-001	-1.07581E+000	3.57700E+000	10	...........
	2	0.04	3.91404E-001	-6.01657E-003	0.00000E+000	-2.35491E-003	-3.59960E-001	-1.06650E+000	3.57700E+000	10	...........
	3	0.053333	3.82037E-001	-6.01452E-003	0.00000E+000	-2.29777E-003	-3.59960E-001	-1.06682E+000	3.57700E+000	10	...........
	4	0.066667	3.73006E-001	-6.01517E-003	0.00000E+000	-2.24370E-003	-3.59960E-001	-1.07599E+000	3.57700E+000	10	...........
	5	0.08	3.64229E-001	-6.01550E-003	0.00000E+000	-2.19102E-003	-3.59960E-001	-1.06681E+000	3.57700E+000	10	...........
	6	0.093333	3.55641E-001	-6.01218E-003	0.00000E+000	-2.13818E-003	-3.59960E-001	-1.06742E+000	3.57700E+000	10	...........
	7	0.106667	3.47245E-001	-6.01144E-003	0.00000E+000	-2.08744E-003	-3.59960E-001	-1.07665E+000	3.57700E+000	10	...........
	8	0.12	3.38994E-001	-6.01464E-003	0.00000E+000	-2.03892E-003	-3.59960E-001	-1.06713E+000	3.57700E+000	10	...........
	9	0.133333	3.30929E-001	-6.01139E-003	0.00000E+000	-1.98934E-003	-3.59960E-001	-1.06732E+000	3.57700E+000	10	...........
	10	0.146667	3.22976E-001	-6.01353E-003	0.00000E+000	-1.94223E-003	-3.59960E-001	-1.07648E+000	3.57700E+000	10	...........
	11	0.16	3.15092E-001	-6.01326E-003	0.00000E+000	-1.89473E-003	-3.59960E-001	-1.06710E+000	3.57700E+000	10	...........
	12	0.173333	3.07314E-001	-6.01322E-003	0.00000E+000	-1.84795E-003	-3.59960E-001	-1.06660E+000	3.57700E+000	10	...........
	13	0.186667	2.99652E-001	-6.01326E-003	0.00000E+000	-1.80189E-003	-3.59960E-001	-1.07557E+000	3.57700E+000	10	...........
	14	0.2	2.92059E-001	-6.01439E-003	0.00000E+000	-1.75655E-003	-3.59960E-001	-1.06581E+000	3.57693E+000	10	...........
	15	0.213333	2.84547E-001	-6.01471E-003	0.00000E+000	-1.71147E-003	-3.59960E-001	-1.06507E+000	3.57670E+000	10	...........
	16	0.226667	2.77139E-001	-6.01386E-003	0.00000E+000	-1.66667E-003	-3.59960E-001	-1.07340E+000	3.57670E+000	10	...........
	17	0.24	2.69800E-001	-6.01134E-003	0.00000E+000	-1.62186E-003	-3.59960E-001	-1.06301E+000	3.57670E+000	10	...........
	18	0.253333	2.62565E-001	-6.01598E-003	0.00000E+000	-1.57959E-003	-3.59960E-001	-1.06139E+000	3.57670E+000	10	...........
	19	0.266667	2.55398E-001	-6.01614E-003	0.00000E+000	-1.53651E-003	-3.59960E-001	-1.06899E+000	3.57670E+000	10	...........
	20	0.28	2.48306E-001	-6.01844E-003	0.00000E+000	-1.49441E-003	-3.59960E-001	-1.05815E+000	3.57670E+000	10	...........
	21	0.293333	2.41284E-001	-6.01926E-003	0.00000E+000	-1.45235E-003	-3.59960E-001	-1.05589E+000	3.57670E+000	10	...........
	22	0.306667	2.34393E-001	-6.01658E-003	0.00000E+000	-1.41024E-003	-3.59960E-001	-1.06292E+000	3.57670E+000	10	...........
	23	0.32	2.27528E-001	-6.01446E-003	0.00000E+000	-1.36846E-003	-3.59960E-001	-1.05139E+000	3.57670E+000	10	...........
	24	0.333333	2.20735E-001	-6.01756E-003	0.00000E+000	-1.32828E-003	-3.59960E-001	-1.04903E+000	3.57670E+000	10	...........
	25	0.346667	2.14009E-001	-6.01562E-003	0.00000E+000	-1.28740E-003	-3.59960E-001	-1.05693E+000	3.57670E+000	10	...........
	26	0.36	2.07352E-001	-6.01701E-003	0.00000E+000	-1.24764E-003	-3.59960E-001	-1.04596E+000	3.57670E+000	10	...........
	27	0.373333	2.00740E-001	-6.01319E-003	0.00000E+000	-1.20709E-003	-3.59960E-001	-1.04360E+000	3.57670E+000	10	...........
	28	0.386667	1.94200E-001	-6.01287E-003	0.00000E+000	-1.16770E-003	-3.59960E-001	-1.05135E+000	3.57670E+000	10	...........
	29	0.4	1.87686E-001	-6.01565E-003	0.00000E+000	-1.12905E-003	-3.59960E-001	-1.04091E+000	3.57670E+000	10	...........
	30	0.413333	1.81256E-001	-6.01386E-003	0.00000E+000	-1.09005E-003	-3.59960E-001	-1.03888E+000	3.57670E+000	10	...........
	31	0.426667	1.74886E-001	-6.01138E-003	0.00000E+000	-1.05131E-003	-3.59960E-001	-1.04612E+000	3.57670E+000	10	...........
	32	0.44	1.68591E-001	-6.01453E-003	0.00000E+000	-1.01399E-003	-3.59960E-001	-1.03393E+000	3.57670E+000	10	...........
	33	0.453333	1.62293E-001	-6.01664E-003	0.00000E+000	-9.76460E-004	-3.59960E-001	-1.02904E+000	3.57670E+000	10	...........
	34	0.466667	1.56095E-001	-6.01685E-003	0.00000E+000	-9.39202E-004	-3.59960E-001	-1.03480E+000	3.57670E+000	10	...........
	35	0.48	1.49949E-001	-6.01550E-003	0.00000E+000	-9.02017E-004	-3.59960E-001	-1.02211E+000	3.57670E+000	10	...........
	36	0.493333	1.43856E-001	-6.01555E-003	0.00000E+000	-8.65372E-004	-3.59960E-001	-1.01811E+000	3.57670E+000	10	...........
	37	0.506667	1.37803E-001	-6.01549E-003	0.00000E+000	-8.28953E-004	-3.59960E-001	-1.02479E+000	3.57670E+000	10	...........
	38	0.52	1.31820E-001	-6.01266E-003	0.00000E+000	-7.92587E-004	-3.59960E-001	-1.01353E+000	3.57670E+000	10	...........
	39	0.533333	1.25832E-001	-6.01789E-003	0.00000E+000	-7.57246E-004	-3.59960E-001	-1.01079E+000	3.57670E+000	10	...........
	40	0.546667	1.19910E-001	-6.01677E-003	0.00000E+000	-7.21469E-004	-3.59960E-001	-1.01955E+000	3.57670E+000	10	...........
	41	0.56	1.14084E-001	-6.01462E-003	0.00000E+000	-6.86172E-004	-3.59960E-001	-1.00972E+000	3.57670E+000	10	...........
	42	0.573333	1.08290E-001	-6.01570E-003	0.00000E+000	-6.51443E-004	-3.59960E-001	-1.00803E+000	3.57670E+000	10	...........
	43	0.586667	1.02539E-001	-6.01323E-003	0.00000E+000	-6.16594E-004	-3.59960E-001	-1.01765E+000	3.57670E+000	10	...........
	44	0.6	9.68249E-002	-6.01468E-003	0.00000E+000	-5.82371E-004	-3.59960E-001	-1.00888E+000	3.57670E+000	10	...........
	45	0.613333	9.11803E-002	-6.01351E-003	0.00000E+000	-5.48314E-004	-3.59960E-001	-1.00856E+000	3.57670E+000	10	...........
	46	0.626667	8.55817E-002	-6.01260E-003	0.00000E+000	-5.14568E-004	-3.59960E-001	-1.01908E+000	3.57670E+000	10	...........
	47	0.64	8.00456E-002	-6.01869E-003	0.00000E+000	-4.81769E-004	-3.59960E-001	-1.01135E+000	3.57670E+000	10	...........
	48	0.653333	7.45072E-002	-6.01578E-003	0.00000E+000	-4.48219E-004	-3.59960E-001	-1.01160E+000	3.57670E+000	10	...........
	49	0.666667	6.90035E-002	-6.01479E-003	0.00000E+000	-4.15041E-004	-3.59960E-001	-1.02224E+000	3.57670E+000	10	...........
	50	0.68	6.35594E-002	-6.01934E-003	0.00000E+000	-3.82586E-004	-3.59960E-001	-1.01510E+000	3.57670E+000	10	...........
	51	0.693333	5.81359E-002	-6.01848E-003	0.00000E+000	-3.49890E-004	-3.59960E-001	-1.01462E+000	3.57670E+000	10	...........
	52	0.706667	5.27847E-002	-6.01196E-003	0.00000E+000	-3.17339E-004	-3.59960E-001	-1.02580E+000	3.57670E+000	10	...........
	53	0.72	4.75068E-002	-6.01534E-003	0.00000E+000	-2.85770E-004	-3.59960E-001	-1.01826E+000	3.57670E+000	10	...........
	54	0.733333	4.22737E-002	-6.01391E-003	0.00000E+000	-2.54230E-004	-3.59960E-001	-1.01787E+000	3.57670E+000	10	...........
	55	0.746667	3.70857E-002	-6.01543E-003	0.00000E+000	-2.23087E-004	-3.59960E-001	-1.02868E+000	3.57670E+000	10	...........
	56	0.76	3.18572E-002	-6.01515E-003	0.00000E+000	-1.91626E-004	-3.59960E-001	-1.02138E+000	3.57670E+000	10	...........
	57	0.773333	2.67158E-002	-6.01421E-003	0.00000E+000	-1.60675E-004	-3.59960E-001	-1.02070E+000	3.57670E+000	10	...........
	58	0.786667	2.16045E-002	-6.01441E-003	0.00000E+000	-1.29938E-004	-3.59960E-001	-1.03143E+000	3.57670E+000	10	...........
	59	0.8	1.65177E-002	-6.01295E-003	0.00000E+000	-9.93202E-005	-3.59960E-001	-1.02422E+000	3.57670E+000	10	...........
	60	0.813333	1.14797E-002	-6.01341E-003	0.00000E+000	-6.90324E-005	-3.59960E-001	-1.02364E+000	3.57670E+000	10	...........
	61	0.826667	6.49254E-003	-6.01560E-003	0.00000E+000	-3.90565E-005	-3.59960E-001	-1.03448E+000	3.57670E+000	10	...........
	62	0.838333	1.84901E-003	-6.01249E-003	0.00000E+000	-1.11172E-005	-3.59960E-001	-1.02547E+000	3.57670E+000	10	...........
STARTTIMEOFFSET	QUANT	447.0301	Start Time Offset (s)
