EXPLAIN
TAG	PWR800_DISCHARGE
TITLE	LABEL	PWR Cyclic Charge Discharge (Cell) - Discharge Step	Test &Identifier
DATE	LABEL	22-6-2017	Date
TIME	LABEL	16:03:30	Time
NOTES	NOTES	3	&Notes...
	supercap test cell
	0.6mg
	6M KOH
PSTAT	PSTAT	IFC5000-01520	Potentiostat
CAPACITY	QUANT	1.00000E-003	Capacity (A-hr)
CELLTYPE	SELECTOR	1	&Cell Type
WORKINGCONNECTION	SELECTOR	0	&Working Lead
MAXDISCHARGETIME	VARIABLEANDUNITS	1.00000E+002	s	1.00000E+002	second(s)	Max &Discharge Time
DISCHARGEMODE	MULTIPARAM	0	6.00000E-003	&Discharge Mode	Constant Current	Amp(s)
SAMPLETIME	QUANT	1.00000E-002	Sa&mple Period (s)
DISCHARGESTOPAT1	MULTIPARAM	3	0.00000E+000	Discharge Stop At &1	Voltage < Limit	V
DISCHARGESTOPAT2	MULTIPARAM	0	0.00000E+000	Discharge Stop At &2	None	N/A
AESBHCSELECTOR	TOGGLE	F	Save Both Half Cells
IRCOMP	TOGGLE	F	IR &Measure
EOC	QUANT	0	Open Circuit (V)
SEQUENCER	TOGGLE	TRUE	Run as Sequence
PSTATMODEL	IQUANT	53	Pstat Model
PSTATSECTION	LABEL	IFC5000-01520	Pstat Section
PSTATSERIALNO	LABEL	01520	Pstat Serial Number
CTRLMODE	IQUANT	0	Control Mode
ELECTROMETER	IQUANT	1	RE=0 or CS=1
IESTAB	IQUANT	0	I/E Stability
CASPEED	IQUANT	4	Control Amp Speed
CONVENTION	IQUANT	1	Current Convention
ICHRANGE	IQUANT	2	Ich Range
ICHRANGEMODE	TOGGLE	T	Ich Auto Range
ICHOFFSETENABLE	TOGGLE	F	Ich Offset Enable
ICHOFFSET	QUANT	0	Ich Offset (V)
ICHFILTER	IQUANT	1	Ich Filter
VCHRANGE	IQUANT	2	Vch Range
VCHRANGEMODE	TOGGLE	T	Vch Auto Range
VCHOFFSETENABLE	TOGGLE	F	Vch Offset Enable
VCHOFFSET	QUANT	0	Vch Offset (V)
VCHFILTER	IQUANT	1	Vch Filter
IERANGELOWERLIMIT	IQUANT	9	I/E Range Lower Limit
IERANGEMODE	TOGGLE	F	I/E AutoRange
IERANGE	IQUANT	10	I/E Range
ACHSELECT	IQUANT	1	Ach Select
ACHRANGE	IQUANT	2	Ach Range
ACHOFFSETENABLE	TOGGLE	F	Ach Offset Enable
ACHOFFSET	QUANT	0	Ach Offset (V)
ACHFILTER	IQUANT	1	Ach Filter
CABLEID	IQUANT	14	Cable ID
DCCALDATE	LABEL	20-10-2016	DC Calibration Date
ACCALDATE	LABEL	12/3/2015	AC Calibration Date
FRAMEWORKVERSION	QUANT	7.01	Framework Version
INSTRUMENTVERSION	LABEL	4.00	Instrument Version
CURVE	TABLE	55
	Pt	T	Vf	Im	Vu	Pwr	Sig	Ach	Temp	IERange	Over
	#	s	V	A	V	W	V	V	deg C	#	bits
	0	0.013333	3.86900E-001	-6.01282E-003	0.00000E+000	-2.32636E-003	-3.59960E-001	-1.11882E+000	3.57655E+000	10	...........
	1	0.026667	3.75547E-001	-6.01996E-003	0.00000E+000	-2.26078E-003	-3.59960E-001	-1.12059E+000	3.57640E+000	10	...........
	2	0.04	3.65028E-001	-6.01704E-003	0.00000E+000	-2.19639E-003	-3.59960E-001	-1.12963E+000	3.57640E+000	10	...........
	3	0.053333	3.55034E-001	-6.01301E-003	0.00000E+000	-2.13483E-003	-3.59960E-001	-1.11885E+000	3.57640E+000	10	...........
	4	0.066667	3.45403E-001	-6.01331E-003	0.00000E+000	-2.07701E-003	-3.59960E-001	-1.12086E+000	3.57640E+000	10	...........
	5	0.08	3.36036E-001	-6.01655E-003	0.00000E+000	-2.02178E-003	-3.59960E-001	-1.12991E+000	3.57640E+000	10	...........
	6	0.093333	3.26922E-001	-6.01747E-003	0.00000E+000	-1.96724E-003	-3.59960E-001	-1.11909E+000	3.57640E+000	10	...........
	7	0.106667	3.17981E-001	-6.01616E-003	0.00000E+000	-1.91302E-003	-3.59960E-001	-1.12081E+000	3.57640E+000	10	...........
	8	0.12	3.09237E-001	-6.01688E-003	0.00000E+000	-1.86064E-003	-3.59960E-001	-1.12974E+000	3.57640E+000	10	...........
	9	0.133333	3.00614E-001	-6.01240E-003	0.00000E+000	-1.80741E-003	-3.59960E-001	-1.11873E+000	3.57640E+000	10	...........
	10	0.146667	2.92098E-001	-6.01800E-003	0.00000E+000	-1.75785E-003	-3.59960E-001	-1.12078E+000	3.57640E+000	10	...........
	11	0.16	2.83718E-001	-6.01338E-003	0.00000E+000	-1.70610E-003	-3.59960E-001	-1.12974E+000	3.57640E+000	10	...........
	12	0.173333	2.75488E-001	-6.02018E-003	0.00000E+000	-1.65848E-003	-3.59960E-001	-1.11905E+000	3.57640E+000	10	...........
	13	0.186667	2.67358E-001	-6.01508E-003	0.00000E+000	-1.60818E-003	-3.59960E-001	-1.12111E+000	3.57640E+000	10	...........
	14	0.2	2.59298E-001	-6.01579E-003	0.00000E+000	-1.55988E-003	-3.59960E-001	-1.12979E+000	3.57640E+000	10	...........
	15	0.213333	2.51368E-001	-6.01352E-003	0.00000E+000	-1.51160E-003	-3.59960E-001	-1.11942E+000	3.57640E+000	10	...........
	16	0.226667	2.43539E-001	-6.00992E-003	0.00000E+000	-1.46365E-003	-3.59960E-001	-1.12125E+000	3.57640E+000	10	...........
	17	0.24	2.35780E-001	-6.01607E-003	0.00000E+000	-1.41847E-003	-3.59960E-001	-1.12999E+000	3.57640E+000	10	...........
	18	0.253333	2.28124E-001	-6.01211E-003	0.00000E+000	-1.37151E-003	-3.59960E-001	-1.11939E+000	3.57640E+000	10	...........
	19	0.266667	2.20578E-001	-6.01227E-003	0.00000E+000	-1.32618E-003	-3.59960E-001	-1.12133E+000	3.57640E+000	10	...........
	20	0.28	2.13095E-001	-6.01555E-003	0.00000E+000	-1.28188E-003	-3.59960E-001	-1.13048E+000	3.57640E+000	10	...........
	21	0.293333	2.05714E-001	-6.01512E-003	0.00000E+000	-1.23740E-003	-3.59960E-001	-1.11971E+000	3.57640E+000	10	...........
	22	0.306667	1.98463E-001	-6.01339E-003	0.00000E+000	-1.19344E-003	-3.59960E-001	-1.12184E+000	3.57640E+000	10	...........
	23	0.32	1.91219E-001	-6.01256E-003	0.00000E+000	-1.14972E-003	-3.59960E-001	-1.13046E+000	3.57640E+000	10	...........
	24	0.333333	1.84079E-001	-6.01393E-003	0.00000E+000	-1.10704E-003	-3.59960E-001	-1.11975E+000	3.57640E+000	10	...........
	25	0.346667	1.77019E-001	-6.01579E-003	0.00000E+000	-1.06491E-003	-3.59960E-001	-1.12206E+000	3.57640E+000	10	...........
	26	0.36	1.70032E-001	-6.01217E-003	0.00000E+000	-1.02226E-003	-3.59960E-001	-1.13077E+000	3.57640E+000	10	...........
	27	0.373333	1.63132E-001	-6.01464E-003	0.00000E+000	-9.81178E-004	-3.59960E-001	-1.12000E+000	3.57640E+000	10	...........
	28	0.386667	1.56289E-001	-6.01256E-003	0.00000E+000	-9.39697E-004	-3.59960E-001	-1.12209E+000	3.57640E+000	10	...........
	29	0.4	1.49547E-001	-6.01470E-003	0.00000E+000	-8.99481E-004	-3.59960E-001	-1.13050E+000	3.57640E+000	10	...........
	30	0.413333	1.42853E-001	-6.01351E-003	0.00000E+000	-8.59051E-004	-3.59960E-001	-1.12002E+000	3.57640E+000	10	...........
	31	0.426667	1.36257E-001	-6.01342E-003	0.00000E+000	-8.19369E-004	-3.59960E-001	-1.12237E+000	3.57640E+000	10	...........
	32	0.44	1.29704E-001	-6.01214E-003	0.00000E+000	-7.79799E-004	-3.59960E-001	-1.13058E+000	3.57640E+000	10	...........
	33	0.453333	1.23235E-001	-6.01664E-003	0.00000E+000	-7.41458E-004	-3.59960E-001	-1.11953E+000	3.57640E+000	10	...........
	34	0.466667	1.16823E-001	-6.01848E-003	0.00000E+000	-7.03099E-004	-3.59960E-001	-1.12197E+000	3.57640E+000	10	...........
	35	0.48	1.10469E-001	-6.01069E-003	0.00000E+000	-6.63996E-004	-3.59960E-001	-1.13067E+000	3.57640E+000	10	...........
	36	0.493333	1.04184E-001	-6.01108E-003	0.00000E+000	-6.26258E-004	-3.59960E-001	-1.12002E+000	3.57640E+000	10	...........
	37	0.506667	9.79759E-002	-6.01231E-003	0.00000E+000	-5.89062E-004	-3.59960E-001	-1.12205E+000	3.57640E+000	10	...........
	38	0.52	9.17900E-002	-6.01126E-003	0.00000E+000	-5.51773E-004	-3.59960E-001	-1.13038E+000	3.57640E+000	10	...........
	39	0.533333	8.56806E-002	-6.01615E-003	0.00000E+000	-5.15468E-004	-3.59960E-001	-1.11987E+000	3.57640E+000	10	...........
	40	0.546667	7.96605E-002	-6.01224E-003	0.00000E+000	-4.78938E-004	-3.59960E-001	-1.12254E+000	3.57640E+000	10	...........
	41	0.56	7.36790E-002	-6.01215E-003	0.00000E+000	-4.42969E-004	-3.59960E-001	-1.13055E+000	3.57640E+000	10	...........
	42	0.573333	6.77350E-002	-6.01703E-003	0.00000E+000	-4.07563E-004	-3.59960E-001	-1.11996E+000	3.57640E+000	10	...........
	43	0.586667	6.18607E-002	-6.01631E-003	0.00000E+000	-3.72173E-004	-3.59960E-001	-1.12235E+000	3.57640E+000	10	...........
	44	0.6	5.60897E-002	-6.01647E-003	0.00000E+000	-3.37461E-004	-3.59960E-001	-1.13062E+000	3.57640E+000	10	...........
	45	0.613333	5.03147E-002	-6.01884E-003	0.00000E+000	-3.02837E-004	-3.59960E-001	-1.12009E+000	3.57640E+000	10	...........
	46	0.626667	4.46593E-002	-6.01251E-003	0.00000E+000	-2.68515E-004	-3.59960E-001	-1.12243E+000	3.57640E+000	10	...........
	47	0.64	3.89728E-002	-6.01745E-003	0.00000E+000	-2.34517E-004	-3.59960E-001	-1.13044E+000	3.57640E+000	10	...........
	48	0.653333	3.33859E-002	-6.01026E-003	0.00000E+000	-2.00658E-004	-3.59960E-001	-1.11980E+000	3.57640E+000	10	...........
	49	0.666667	2.78531E-002	-6.01445E-003	0.00000E+000	-1.67521E-004	-3.59960E-001	-1.12276E+000	3.57640E+000	10	...........
	50	0.68	2.23724E-002	-6.01154E-003	0.00000E+000	-1.34493E-004	-3.59960E-001	-1.13072E+000	3.57640E+000	10	...........
	51	0.693333	1.69161E-002	-6.01879E-003	0.00000E+000	-1.01815E-004	-3.59960E-001	-1.12017E+000	3.57640E+000	10	...........
	52	0.706667	1.15340E-002	-6.01671E-003	0.00000E+000	-6.93967E-005	-3.59960E-001	-1.12251E+000	3.57640E+000	10	...........
	53	0.72	6.15003E-003	-6.01061E-003	0.00000E+000	-3.69655E-005	-3.59960E-001	-1.13056E+000	3.57640E+000	10	...........
	54	0.73	1.44486E-003	-6.01338E-003	0.00000E+000	-8.68850E-006	-3.59960E-001	-1.11552E+000	3.57640E+000	10	...........
STARTTIMEOFFSET	QUANT	1157.026	Start Time Offset (s)
