EXPLAIN
TAG	PWR800_DISCHARGE
TITLE	LABEL	PWR Cyclic Charge Discharge (Cell) - Discharge Step	Test &Identifier
DATE	LABEL	22-6-2017	Date
TIME	LABEL	15:53:48	Time
NOTES	NOTES	3	&Notes...
	supercap test cell
	0.6mg
	6M KOH
PSTAT	PSTAT	IFC5000-01520	Potentiostat
CAPACITY	QUANT	1.00000E-003	Capacity (A-hr)
CELLTYPE	SELECTOR	1	&Cell Type
WORKINGCONNECTION	SELECTOR	0	&Working Lead
MAXDISCHARGETIME	VARIABLEANDUNITS	1.00000E+002	s	1.00000E+002	second(s)	Max &Discharge Time
DISCHARGEMODE	MULTIPARAM	0	6.00000E-003	&Discharge Mode	Constant Current	Amp(s)
SAMPLETIME	QUANT	1.00000E-002	Sa&mple Period (s)
DISCHARGESTOPAT1	MULTIPARAM	3	0.00000E+000	Discharge Stop At &1	Voltage < Limit	V
DISCHARGESTOPAT2	MULTIPARAM	0	0.00000E+000	Discharge Stop At &2	None	N/A
AESBHCSELECTOR	TOGGLE	F	Save Both Half Cells
IRCOMP	TOGGLE	F	IR &Measure
EOC	QUANT	0	Open Circuit (V)
SEQUENCER	TOGGLE	TRUE	Run as Sequence
PSTATMODEL	IQUANT	53	Pstat Model
PSTATSECTION	LABEL	IFC5000-01520	Pstat Section
PSTATSERIALNO	LABEL	01520	Pstat Serial Number
CTRLMODE	IQUANT	0	Control Mode
ELECTROMETER	IQUANT	1	RE=0 or CS=1
IESTAB	IQUANT	0	I/E Stability
CASPEED	IQUANT	4	Control Amp Speed
CONVENTION	IQUANT	1	Current Convention
ICHRANGE	IQUANT	2	Ich Range
ICHRANGEMODE	TOGGLE	T	Ich Auto Range
ICHOFFSETENABLE	TOGGLE	F	Ich Offset Enable
ICHOFFSET	QUANT	0	Ich Offset (V)
ICHFILTER	IQUANT	1	Ich Filter
VCHRANGE	IQUANT	2	Vch Range
VCHRANGEMODE	TOGGLE	T	Vch Auto Range
VCHOFFSETENABLE	TOGGLE	F	Vch Offset Enable
VCHOFFSET	QUANT	0	Vch Offset (V)
VCHFILTER	IQUANT	1	Vch Filter
IERANGELOWERLIMIT	IQUANT	9	I/E Range Lower Limit
IERANGEMODE	TOGGLE	F	I/E AutoRange
IERANGE	IQUANT	10	I/E Range
ACHSELECT	IQUANT	1	Ach Select
ACHRANGE	IQUANT	2	Ach Range
ACHOFFSETENABLE	TOGGLE	F	Ach Offset Enable
ACHOFFSET	QUANT	0	Ach Offset (V)
ACHFILTER	IQUANT	1	Ach Filter
CABLEID	IQUANT	14	Cable ID
DCCALDATE	LABEL	20-10-2016	DC Calibration Date
ACCALDATE	LABEL	12/3/2015	AC Calibration Date
FRAMEWORKVERSION	QUANT	7.01	Framework Version
INSTRUMENTVERSION	LABEL	4.00	Instrument Version
CURVE	TABLE	59
	Pt	T	Vf	Im	Vu	Pwr	Sig	Ach	Temp	IERange	Over
	#	s	V	A	V	W	V	V	deg C	#	bits
	0	0.013333	3.98109E-001	-6.01250E-003	0.00000E+000	-2.39363E-003	-3.59960E-001	-1.09895E+000	3.57720E+000	10	...........
	1	0.026667	3.87086E-001	-6.01471E-003	0.00000E+000	-2.32821E-003	-3.59960E-001	-1.10458E+000	3.57720E+000	10	...........
	2	0.04	3.76869E-001	-6.01971E-003	0.00000E+000	-2.26864E-003	-3.59960E-001	-1.10752E+000	3.57720E+000	10	...........
	3	0.053333	3.67161E-001	-6.01862E-003	0.00000E+000	-2.20980E-003	-3.59960E-001	-1.09925E+000	3.57720E+000	10	...........
	4	0.066667	3.57821E-001	-6.01456E-003	0.00000E+000	-2.15213E-003	-3.59960E-001	-1.10496E+000	3.57720E+000	10	...........
	5	0.08	3.48736E-001	-6.01241E-003	0.00000E+000	-2.09675E-003	-3.59960E-001	-1.10749E+000	3.57720E+000	10	...........
	6	0.093333	3.39884E-001	-6.01364E-003	0.00000E+000	-2.04394E-003	-3.59960E-001	-1.09950E+000	3.57720E+000	10	...........
	7	0.106667	3.31180E-001	-6.01411E-003	0.00000E+000	-1.99175E-003	-3.59960E-001	-1.10570E+000	3.57720E+000	10	...........
	8	0.12	3.22668E-001	-6.01469E-003	0.00000E+000	-1.94075E-003	-3.59960E-001	-1.10797E+000	3.57720E+000	10	...........
	9	0.133333	3.14305E-001	-6.01406E-003	0.00000E+000	-1.89025E-003	-3.59960E-001	-1.09965E+000	3.57720E+000	10	...........
	10	0.146667	3.06051E-001	-6.01541E-003	0.00000E+000	-1.84102E-003	-3.59960E-001	-1.10594E+000	3.57720E+000	10	...........
	11	0.16	2.97910E-001	-6.01900E-003	0.00000E+000	-1.79312E-003	-3.59960E-001	-1.10804E+000	3.57720E+000	10	...........
	12	0.173333	2.89915E-001	-6.01030E-003	0.00000E+000	-1.74248E-003	-3.59960E-001	-1.10007E+000	3.57720E+000	10	...........
	13	0.186667	2.82016E-001	-6.01338E-003	0.00000E+000	-1.69587E-003	-3.59960E-001	-1.10620E+000	3.57720E+000	10	...........
	14	0.2	2.74170E-001	-6.01272E-003	0.00000E+000	-1.64851E-003	-3.59960E-001	-1.10779E+000	3.57720E+000	10	...........
	15	0.213333	2.66454E-001	-6.01578E-003	0.00000E+000	-1.60293E-003	-3.59960E-001	-1.09969E+000	3.57720E+000	10	...........
	16	0.226667	2.58784E-001	-6.01149E-003	0.00000E+000	-1.55568E-003	-3.59960E-001	-1.10617E+000	3.57720E+000	10	...........
	17	0.24	2.51261E-001	-6.01256E-003	0.00000E+000	-1.51072E-003	-3.59960E-001	-1.10760E+000	3.57720E+000	10	...........
	18	0.253333	2.43793E-001	-6.01931E-003	0.00000E+000	-1.46747E-003	-3.59960E-001	-1.09979E+000	3.57720E+000	10	...........
	19	0.266667	2.36482E-001	-6.01440E-003	0.00000E+000	-1.42230E-003	-3.59960E-001	-1.10620E+000	3.57720E+000	10	...........
	20	0.28	2.29208E-001	-6.01347E-003	0.00000E+000	-1.37833E-003	-3.59960E-001	-1.10763E+000	3.57720E+000	10	...........
	21	0.293333	2.22000E-001	-6.01014E-003	0.00000E+000	-1.33425E-003	-3.59960E-001	-1.10001E+000	3.57720E+000	10	...........
	22	0.306667	2.14857E-001	-6.01509E-003	0.00000E+000	-1.29238E-003	-3.59960E-001	-1.10693E+000	3.57720E+000	10	...........
	23	0.32	2.07828E-001	-6.01469E-003	0.00000E+000	-1.25002E-003	-3.59960E-001	-1.10756E+000	3.57720E+000	10	...........
	24	0.333333	2.00831E-001	-6.01699E-003	0.00000E+000	-1.20840E-003	-3.59960E-001	-1.09994E+000	3.57720E+000	10	...........
	25	0.346667	1.93923E-001	-6.01226E-003	0.00000E+000	-1.16592E-003	-3.59960E-001	-1.10688E+000	3.57720E+000	10	...........
	26	0.36	1.87086E-001	-6.01441E-003	0.00000E+000	-1.12521E-003	-3.59960E-001	-1.10762E+000	3.57720E+000	10	...........
	27	0.373333	1.80356E-001	-6.01881E-003	0.00000E+000	-1.08553E-003	-3.59960E-001	-1.10007E+000	3.57720E+000	10	...........
	28	0.386667	1.73644E-001	-6.01683E-003	0.00000E+000	-1.04479E-003	-3.59960E-001	-1.10697E+000	3.57720E+000	10	...........
	29	0.4	1.67021E-001	-6.01474E-003	0.00000E+000	-1.00459E-003	-3.59960E-001	-1.10760E+000	3.57720E+000	10	...........
	30	0.413333	1.60504E-001	-6.00971E-003	0.00000E+000	-9.64579E-004	-3.59960E-001	-1.09984E+000	3.57720E+000	10	...........
	31	0.426667	1.53981E-001	-6.01313E-003	0.00000E+000	-9.25909E-004	-3.59960E-001	-1.10752E+000	3.57720E+000	10	...........
	32	0.44	1.47569E-001	-6.01494E-003	0.00000E+000	-8.87622E-004	-3.59960E-001	-1.10780E+000	3.57720E+000	10	...........
	33	0.453333	1.41202E-001	-6.00695E-003	0.00000E+000	-8.48191E-004	-3.59960E-001	-1.10023E+000	3.57720E+000	10	...........
	34	0.466667	1.34862E-001	-6.01812E-003	0.00000E+000	-8.11615E-004	-3.59960E-001	-1.10749E+000	3.57720E+000	10	...........
	35	0.48	1.28614E-001	-6.01227E-003	0.00000E+000	-7.73262E-004	-3.59960E-001	-1.10768E+000	3.57720E+000	10	...........
	36	0.493333	1.22395E-001	-6.01438E-003	0.00000E+000	-7.36129E-004	-3.59960E-001	-1.10042E+000	3.57720E+000	10	...........
	37	0.506667	1.16244E-001	-6.01521E-003	0.00000E+000	-6.99231E-004	-3.59960E-001	-1.10794E+000	3.57720E+000	10	...........
	38	0.52	1.10168E-001	-6.01788E-003	0.00000E+000	-6.62977E-004	-3.59960E-001	-1.10761E+000	3.57720E+000	10	...........
	39	0.533333	1.04118E-001	-6.01275E-003	0.00000E+000	-6.26036E-004	-3.59960E-001	-1.10027E+000	3.57720E+000	10	...........
	40	0.546667	9.81197E-002	-6.01513E-003	0.00000E+000	-5.90203E-004	-3.59960E-001	-1.10757E+000	3.57720E+000	10	...........
	41	0.56	9.22421E-002	-6.01514E-003	0.00000E+000	-5.54849E-004	-3.59960E-001	-1.10728E+000	3.57720E+000	10	...........
	42	0.573333	8.63759E-002	-6.01584E-003	0.00000E+000	-5.19624E-004	-3.59960E-001	-1.10039E+000	3.57720E+000	10	...........
	43	0.586667	8.05755E-002	-6.01499E-003	0.00000E+000	-4.84661E-004	-3.59960E-001	-1.10780E+000	3.57720E+000	10	...........
	44	0.6	7.48179E-002	-6.01597E-003	0.00000E+000	-4.50102E-004	-3.59960E-001	-1.10712E+000	3.57720E+000	10	...........
	45	0.613333	6.90691E-002	-6.01895E-003	0.00000E+000	-4.15724E-004	-3.59960E-001	-1.10028E+000	3.57720E+000	10	...........
	46	0.626667	6.33978E-002	-6.01860E-003	0.00000E+000	-3.81566E-004	-3.59960E-001	-1.10793E+000	3.57720E+000	10	...........
	47	0.64	5.77968E-002	-6.01506E-003	0.00000E+000	-3.47651E-004	-3.59960E-001	-1.10698E+000	3.57720E+000	10	...........
	48	0.653333	5.22431E-002	-6.01563E-003	0.00000E+000	-3.14275E-004	-3.59960E-001	-1.10032E+000	3.57720E+000	10	...........
	49	0.666667	4.67393E-002	-6.01525E-003	0.00000E+000	-2.81148E-004	-3.59960E-001	-1.10808E+000	3.57720E+000	10	...........
	50	0.68	4.12686E-002	-6.01387E-003	0.00000E+000	-2.48184E-004	-3.59960E-001	-1.10684E+000	3.57720E+000	10	...........
	51	0.693333	3.58520E-002	-6.01104E-003	0.00000E+000	-2.15508E-004	-3.59960E-001	-1.10029E+000	3.57720E+000	10	...........
	52	0.706667	3.04688E-002	-6.01842E-003	0.00000E+000	-1.83374E-004	-3.59960E-001	-1.10834E+000	3.57720E+000	10	...........
	53	0.72	2.51530E-002	-6.01464E-003	0.00000E+000	-1.51286E-004	-3.59960E-001	-1.10686E+000	3.57720E+000	10	...........
	54	0.733333	1.98483E-002	-6.01386E-003	0.00000E+000	-1.19365E-004	-3.59960E-001	-1.10028E+000	3.57720E+000	10	...........
	55	0.746667	1.45995E-002	-6.01736E-003	0.00000E+000	-8.78507E-005	-3.59960E-001	-1.10847E+000	3.57720E+000	10	...........
	56	0.76	9.35045E-003	-6.01648E-003	0.00000E+000	-5.62568E-005	-3.59960E-001	-1.10684E+000	3.57720E+000	10	...........
	57	0.773333	4.18946E-003	-6.01565E-003	0.00000E+000	-2.52023E-005	-3.59960E-001	-1.10053E+000	3.57720E+000	10	...........
	58	0.78	3.71528E-004	-6.01387E-003	0.00000E+000	-2.23432E-006	-3.59960E-001	-1.11508E+000	3.57720E+000	10	...........
STARTTIMEOFFSET	QUANT	775.9752	Start Time Offset (s)
