EXPLAIN
TAG	PWR800_DISCHARGE
TITLE	LABEL	PWR Cyclic Charge Discharge (Cell) - Discharge Step	Test &Identifier
DATE	LABEL	22-6-2017	Date
TIME	LABEL	15:45:54	Time
NOTES	NOTES	3	&Notes...
	supercap test cell
	0.6mg
	6M KOH
PSTAT	PSTAT	IFC5000-01520	Potentiostat
CAPACITY	QUANT	1.00000E-003	Capacity (A-hr)
CELLTYPE	SELECTOR	1	&Cell Type
WORKINGCONNECTION	SELECTOR	0	&Working Lead
MAXDISCHARGETIME	VARIABLEANDUNITS	1.00000E+002	s	1.00000E+002	second(s)	Max &Discharge Time
DISCHARGEMODE	MULTIPARAM	0	6.00000E-003	&Discharge Mode	Constant Current	Amp(s)
SAMPLETIME	QUANT	1.00000E-002	Sa&mple Period (s)
DISCHARGESTOPAT1	MULTIPARAM	3	0.00000E+000	Discharge Stop At &1	Voltage < Limit	V
DISCHARGESTOPAT2	MULTIPARAM	0	0.00000E+000	Discharge Stop At &2	None	N/A
AESBHCSELECTOR	TOGGLE	F	Save Both Half Cells
IRCOMP	TOGGLE	F	IR &Measure
EOC	QUANT	0	Open Circuit (V)
SEQUENCER	TOGGLE	TRUE	Run as Sequence
PSTATMODEL	IQUANT	53	Pstat Model
PSTATSECTION	LABEL	IFC5000-01520	Pstat Section
PSTATSERIALNO	LABEL	01520	Pstat Serial Number
CTRLMODE	IQUANT	0	Control Mode
ELECTROMETER	IQUANT	1	RE=0 or CS=1
IESTAB	IQUANT	0	I/E Stability
CASPEED	IQUANT	4	Control Amp Speed
CONVENTION	IQUANT	1	Current Convention
ICHRANGE	IQUANT	2	Ich Range
ICHRANGEMODE	TOGGLE	T	Ich Auto Range
ICHOFFSETENABLE	TOGGLE	F	Ich Offset Enable
ICHOFFSET	QUANT	0	Ich Offset (V)
ICHFILTER	IQUANT	1	Ich Filter
VCHRANGE	IQUANT	2	Vch Range
VCHRANGEMODE	TOGGLE	T	Vch Auto Range
VCHOFFSETENABLE	TOGGLE	F	Vch Offset Enable
VCHOFFSET	QUANT	0	Vch Offset (V)
VCHFILTER	IQUANT	1	Vch Filter
IERANGELOWERLIMIT	IQUANT	9	I/E Range Lower Limit
IERANGEMODE	TOGGLE	F	I/E AutoRange
IERANGE	IQUANT	10	I/E Range
ACHSELECT	IQUANT	1	Ach Select
ACHRANGE	IQUANT	2	Ach Range
ACHOFFSETENABLE	TOGGLE	F	Ach Offset Enable
ACHOFFSET	QUANT	0	Ach Offset (V)
ACHFILTER	IQUANT	1	Ach Filter
CABLEID	IQUANT	14	Cable ID
DCCALDATE	LABEL	20-10-2016	DC Calibration Date
ACCALDATE	LABEL	12/3/2015	AC Calibration Date
FRAMEWORKVERSION	QUANT	7.01	Framework Version
INSTRUMENTVERSION	LABEL	4.00	Instrument Version
CURVE	TABLE	63
	Pt	T	Vf	Im	Vu	Pwr	Sig	Ach	Temp	IERange	Over
	#	s	V	A	V	W	V	V	deg C	#	bits
	0	0.013333	4.11039E-001	-6.01212E-003	0.00000E+000	-2.47121E-003	-3.59960E-001	-1.06231E+000	3.57670E+000	10	...........
	1	0.026667	4.00384E-001	-6.01328E-003	0.00000E+000	-2.40762E-003	-3.59960E-001	-1.06647E+000	3.57670E+000	10	...........
	2	0.04	3.90464E-001	-6.01460E-003	0.00000E+000	-2.34848E-003	-3.59960E-001	-1.07061E+000	3.57670E+000	10	...........
	3	0.053333	3.81061E-001	-6.01663E-003	0.00000E+000	-2.29271E-003	-3.59960E-001	-1.06248E+000	3.57670E+000	10	...........
	4	0.066667	3.72030E-001	-6.01575E-003	0.00000E+000	-2.23804E-003	-3.59960E-001	-1.06656E+000	3.57670E+000	10	...........
	5	0.08	3.63258E-001	-6.01226E-003	0.00000E+000	-2.18400E-003	-3.59960E-001	-1.07084E+000	3.57670E+000	10	...........
	6	0.093333	3.54657E-001	-6.01513E-003	0.00000E+000	-2.13331E-003	-3.59960E-001	-1.06292E+000	3.57670E+000	10	...........
	7	0.106667	3.46277E-001	-6.01186E-003	0.00000E+000	-2.08177E-003	-3.59960E-001	-1.06696E+000	3.57670E+000	10	...........
	8	0.12	3.38087E-001	-6.01722E-003	0.00000E+000	-2.03434E-003	-3.59960E-001	-1.07098E+000	3.57670E+000	10	...........
	9	0.133333	3.29944E-001	-6.01634E-003	0.00000E+000	-1.98505E-003	-3.59960E-001	-1.06281E+000	3.57670E+000	10	...........
	10	0.146667	3.21933E-001	-6.01575E-003	0.00000E+000	-1.93667E-003	-3.59960E-001	-1.06693E+000	3.57670E+000	10	...........
	11	0.16	3.14046E-001	-6.01343E-003	0.00000E+000	-1.88850E-003	-3.59960E-001	-1.07084E+000	3.57670E+000	10	...........
	12	0.173333	3.06247E-001	-6.01543E-003	0.00000E+000	-1.84221E-003	-3.59960E-001	-1.06272E+000	3.57670E+000	10	...........
	13	0.186667	2.98585E-001	-6.01173E-003	0.00000E+000	-1.79502E-003	-3.59960E-001	-1.06657E+000	3.57670E+000	10	...........
	14	0.2	2.91006E-001	-6.01236E-003	0.00000E+000	-1.74963E-003	-3.59960E-001	-1.07106E+000	3.57670E+000	10	...........
	15	0.213333	2.83487E-001	-6.01442E-003	0.00000E+000	-1.70501E-003	-3.59960E-001	-1.06296E+000	3.57670E+000	10	...........
	16	0.226667	2.76080E-001	-6.01120E-003	0.00000E+000	-1.65957E-003	-3.59960E-001	-1.06688E+000	3.57670E+000	10	...........
	17	0.24	2.68785E-001	-6.01578E-003	0.00000E+000	-1.61695E-003	-3.59960E-001	-1.07142E+000	3.57670E+000	10	...........
	18	0.253333	2.61541E-001	-6.01176E-003	0.00000E+000	-1.57232E-003	-3.59960E-001	-1.06306E+000	3.57670E+000	10	...........
	19	0.266667	2.54350E-001	-6.01254E-003	0.00000E+000	-1.52929E-003	-3.59960E-001	-1.06658E+000	3.57670E+000	10	...........
	20	0.28	2.47231E-001	-6.01490E-003	0.00000E+000	-1.48707E-003	-3.59960E-001	-1.07146E+000	3.57670E+000	10	...........
	21	0.293333	2.40220E-001	-6.01313E-003	0.00000E+000	-1.44447E-003	-3.59960E-001	-1.06319E+000	3.57670E+000	10	...........
	22	0.306667	2.33274E-001	-6.00966E-003	0.00000E+000	-1.40190E-003	-3.59960E-001	-1.06692E+000	3.57670E+000	10	...........
	23	0.32	2.26383E-001	-6.01328E-003	0.00000E+000	-1.36130E-003	-3.59960E-001	-1.07147E+000	3.57670E+000	10	...........
	24	0.333333	2.19575E-001	-6.01932E-003	0.00000E+000	-1.32169E-003	-3.59960E-001	-1.06321E+000	3.57670E+000	10	...........
	25	0.346667	2.12870E-001	-6.01590E-003	0.00000E+000	-1.28060E-003	-3.59960E-001	-1.06697E+000	3.57670E+000	10	...........
	26	0.36	2.06198E-001	-6.01660E-003	0.00000E+000	-1.24061E-003	-3.59960E-001	-1.07179E+000	3.57670E+000	10	...........
	27	0.373333	1.99556E-001	-6.01568E-003	0.00000E+000	-1.20047E-003	-3.59960E-001	-1.06365E+000	3.57670E+000	10	...........
	28	0.386667	1.92993E-001	-6.01248E-003	0.00000E+000	-1.16036E-003	-3.59960E-001	-1.06715E+000	3.57670E+000	10	...........
	29	0.4	1.86507E-001	-6.01127E-003	0.00000E+000	-1.12114E-003	-3.59960E-001	-1.07194E+000	3.57670E+000	10	...........
	30	0.413333	1.80082E-001	-6.01551E-003	0.00000E+000	-1.08329E-003	-3.59960E-001	-1.06370E+000	3.57670E+000	10	...........
	31	0.426667	1.73692E-001	-6.01550E-003	0.00000E+000	-1.04485E-003	-3.59960E-001	-1.06717E+000	3.57670E+000	10	...........
	32	0.44	1.67346E-001	-6.01829E-003	0.00000E+000	-1.00714E-003	-3.59960E-001	-1.07212E+000	3.57670E+000	10	...........
	33	0.453333	1.61099E-001	-6.01179E-003	0.00000E+000	-9.68492E-004	-3.59960E-001	-1.06377E+000	3.57670E+000	10	...........
	34	0.466667	1.54870E-001	-6.01271E-003	0.00000E+000	-9.31187E-004	-3.59960E-001	-1.06728E+000	3.57670E+000	10	...........
	35	0.48	1.48752E-001	-6.01537E-003	0.00000E+000	-8.94798E-004	-3.59960E-001	-1.07196E+000	3.57670E+000	10	...........
	36	0.493333	1.42620E-001	-6.01367E-003	0.00000E+000	-8.57670E-004	-3.59960E-001	-1.06352E+000	3.57670E+000	10	...........
	37	0.506667	1.36603E-001	-6.01363E-003	0.00000E+000	-8.21478E-004	-3.59960E-001	-1.06692E+000	3.57670E+000	10	...........
	38	0.52	1.30615E-001	-6.01663E-003	0.00000E+000	-7.85863E-004	-3.59960E-001	-1.07225E+000	3.57670E+000	10	...........
	39	0.533333	1.24687E-001	-6.01612E-003	0.00000E+000	-7.50134E-004	-3.59960E-001	-1.06352E+000	3.57670E+000	10	...........
	40	0.546667	1.18774E-001	-6.01446E-003	0.00000E+000	-7.14361E-004	-3.59960E-001	-1.06691E+000	3.57670E+000	10	...........
	41	0.56	1.12928E-001	-6.01527E-003	0.00000E+000	-6.79295E-004	-3.59960E-001	-1.07220E+000	3.57670E+000	10	...........
	42	0.573333	1.07141E-001	-6.01312E-003	0.00000E+000	-6.44250E-004	-3.59960E-001	-1.06371E+000	3.57670E+000	10	...........
	43	0.586667	1.01421E-001	-6.01189E-003	0.00000E+000	-6.09729E-004	-3.59960E-001	-1.06704E+000	3.57670E+000	10	...........
	44	0.6	9.57122E-002	-6.01629E-003	0.00000E+000	-5.75832E-004	-3.59960E-001	-1.07250E+000	3.57670E+000	10	...........
	45	0.613333	9.00754E-002	-6.01236E-003	0.00000E+000	-5.41566E-004	-3.59960E-001	-1.06375E+000	3.57670E+000	10	...........
	46	0.626667	8.44413E-002	-6.01528E-003	0.00000E+000	-5.07938E-004	-3.59960E-001	-1.06689E+000	3.57670E+000	10	...........
	47	0.64	7.88630E-002	-6.01551E-003	0.00000E+000	-4.74401E-004	-3.59960E-001	-1.07262E+000	3.57670E+000	10	...........
	48	0.653333	7.33316E-002	-6.01515E-003	0.00000E+000	-4.41101E-004	-3.59960E-001	-1.06390E+000	3.57670E+000	10	...........
	49	0.666667	6.78638E-002	-6.01328E-003	0.00000E+000	-4.08085E-004	-3.59960E-001	-1.06704E+000	3.57670E+000	10	...........
	50	0.68	6.24302E-002	-6.01467E-003	0.00000E+000	-3.75497E-004	-3.59960E-001	-1.07266E+000	3.57670E+000	10	...........
	51	0.693333	5.70507E-002	-6.01443E-003	0.00000E+000	-3.43127E-004	-3.59960E-001	-1.06408E+000	3.57670E+000	10	...........
	52	0.706667	5.17073E-002	-6.01777E-003	0.00000E+000	-3.11163E-004	-3.59960E-001	-1.06734E+000	3.57670E+000	10	...........
	53	0.72	4.64271E-002	-6.01437E-003	0.00000E+000	-2.79229E-004	-3.59960E-001	-1.07300E+000	3.57670E+000	10	...........
	54	0.733333	4.11507E-002	-6.01509E-003	0.00000E+000	-2.47525E-004	-3.59960E-001	-1.06430E+000	3.57670E+000	10	...........
	55	0.746667	3.58994E-002	-6.01388E-003	0.00000E+000	-2.15895E-004	-3.59960E-001	-1.06737E+000	3.57670E+000	10	...........
	56	0.76	3.06973E-002	-6.01579E-003	0.00000E+000	-1.84668E-004	-3.59960E-001	-1.07327E+000	3.57670E+000	10	...........
	57	0.773333	2.55408E-002	-6.01772E-003	0.00000E+000	-1.53697E-004	-3.59960E-001	-1.06449E+000	3.57670E+000	10	...........
	58	0.786667	2.04264E-002	-6.01469E-003	0.00000E+000	-1.22858E-004	-3.59960E-001	-1.06764E+000	3.57670E+000	10	...........
	59	0.8	1.53187E-002	-6.01226E-003	0.00000E+000	-9.20999E-005	-3.59960E-001	-1.07302E+000	3.57670E+000	10	...........
	60	0.813333	1.02858E-002	-6.01425E-003	0.00000E+000	-6.18615E-005	-3.59960E-001	-1.06447E+000	3.57670E+000	10	...........
	61	0.826667	5.29331E-003	-6.01599E-003	0.00000E+000	-3.18445E-005	-3.59960E-001	-1.06737E+000	3.57670E+000	10	...........
	62	0.836667	9.60327E-004	-6.01381E-003	0.00000E+000	-5.77523E-006	-3.59960E-001	-1.07282E+000	3.57670E+000	10	...........
STARTTIMEOFFSET	QUANT	458.8068	Start Time Offset (s)
