EXPLAIN
TAG	PWR800_DISCHARGE
TITLE	LABEL	PWR Cyclic Charge Discharge (Cell) - Discharge Step	Test &Identifier
DATE	LABEL	22-6-2017	Date
TIME	LABEL	16:06:55	Time
NOTES	NOTES	3	&Notes...
	supercap test cell
	0.6mg
	6M KOH
PSTAT	PSTAT	IFC5000-01520	Potentiostat
CAPACITY	QUANT	1.00000E-003	Capacity (A-hr)
CELLTYPE	SELECTOR	1	&Cell Type
WORKINGCONNECTION	SELECTOR	0	&Working Lead
MAXDISCHARGETIME	VARIABLEANDUNITS	1.00000E+002	s	1.00000E+002	second(s)	Max &Discharge Time
DISCHARGEMODE	MULTIPARAM	0	6.00000E-003	&Discharge Mode	Constant Current	Amp(s)
SAMPLETIME	QUANT	1.00000E-002	Sa&mple Period (s)
DISCHARGESTOPAT1	MULTIPARAM	3	0.00000E+000	Discharge Stop At &1	Voltage < Limit	V
DISCHARGESTOPAT2	MULTIPARAM	0	0.00000E+000	Discharge Stop At &2	None	N/A
AESBHCSELECTOR	TOGGLE	F	Save Both Half Cells
IRCOMP	TOGGLE	F	IR &Measure
EOC	QUANT	0	Open Circuit (V)
SEQUENCER	TOGGLE	TRUE	Run as Sequence
PSTATMODEL	IQUANT	53	Pstat Model
PSTATSECTION	LABEL	IFC5000-01520	Pstat Section
PSTATSERIALNO	LABEL	01520	Pstat Serial Number
CTRLMODE	IQUANT	0	Control Mode
ELECTROMETER	IQUANT	1	RE=0 or CS=1
IESTAB	IQUANT	0	I/E Stability
CASPEED	IQUANT	4	Control Amp Speed
CONVENTION	IQUANT	1	Current Convention
ICHRANGE	IQUANT	2	Ich Range
ICHRANGEMODE	TOGGLE	T	Ich Auto Range
ICHOFFSETENABLE	TOGGLE	F	Ich Offset Enable
ICHOFFSET	QUANT	0	Ich Offset (V)
ICHFILTER	IQUANT	1	Ich Filter
VCHRANGE	IQUANT	2	Vch Range
VCHRANGEMODE	TOGGLE	T	Vch Auto Range
VCHOFFSETENABLE	TOGGLE	F	Vch Offset Enable
VCHOFFSET	QUANT	0	Vch Offset (V)
VCHFILTER	IQUANT	1	Vch Filter
IERANGELOWERLIMIT	IQUANT	9	I/E Range Lower Limit
IERANGEMODE	TOGGLE	F	I/E AutoRange
IERANGE	IQUANT	10	I/E Range
ACHSELECT	IQUANT	1	Ach Select
ACHRANGE	IQUANT	2	Ach Range
ACHOFFSETENABLE	TOGGLE	F	Ach Offset Enable
ACHOFFSET	QUANT	0	Ach Offset (V)
ACHFILTER	IQUANT	1	Ach Filter
CABLEID	IQUANT	14	Cable ID
DCCALDATE	LABEL	20-10-2016	DC Calibration Date
ACCALDATE	LABEL	12/3/2015	AC Calibration Date
FRAMEWORKVERSION	QUANT	7.01	Framework Version
INSTRUMENTVERSION	LABEL	4.00	Instrument Version
CURVE	TABLE	54
	Pt	T	Vf	Im	Vu	Pwr	Sig	Ach	Temp	IERange	Over
	#	s	V	A	V	W	V	V	deg C	#	bits
	0	0.013333	3.83217E-001	-6.01599E-003	0.00000E+000	-2.30543E-003	-3.59960E-001	-1.12870E+000	3.57670E+000	10	...........
	1	0.026667	3.71744E-001	-6.01123E-003	0.00000E+000	-2.23464E-003	-3.59960E-001	-1.13792E+000	3.57670E+000	10	...........
	2	0.04	3.61108E-001	-6.01450E-003	0.00000E+000	-2.17189E-003	-3.59960E-001	-1.13438E+000	3.57670E+000	10	...........
	3	0.053333	3.51035E-001	-6.01574E-003	0.00000E+000	-2.11173E-003	-3.59960E-001	-1.12870E+000	3.57670E+000	10	...........
	4	0.066667	3.41362E-001	-6.01018E-003	0.00000E+000	-2.05165E-003	-3.59960E-001	-1.13791E+000	3.57670E+000	10	...........
	5	0.08	3.31941E-001	-6.01539E-003	0.00000E+000	-1.99676E-003	-3.59960E-001	-1.13375E+000	3.57670E+000	10	...........
	6	0.093333	3.22690E-001	-6.01494E-003	0.00000E+000	-1.94096E-003	-3.59960E-001	-1.12859E+000	3.57670E+000	10	...........
	7	0.106667	3.13683E-001	-6.01435E-003	0.00000E+000	-1.88660E-003	-3.59960E-001	-1.13803E+000	3.57670E+000	10	...........
	8	0.12	3.04817E-001	-6.01549E-003	0.00000E+000	-1.83362E-003	-3.59960E-001	-1.13400E+000	3.57670E+000	10	...........
	9	0.133333	2.96134E-001	-6.01405E-003	0.00000E+000	-1.78096E-003	-3.59960E-001	-1.12890E+000	3.57670E+000	10	...........
	10	0.146667	2.87571E-001	-6.01571E-003	0.00000E+000	-1.72994E-003	-3.59960E-001	-1.13842E+000	3.57670E+000	10	...........
	11	0.16	2.79090E-001	-6.02038E-003	0.00000E+000	-1.68023E-003	-3.59960E-001	-1.13382E+000	3.57670E+000	10	...........
	12	0.173333	2.70789E-001	-6.01231E-003	0.00000E+000	-1.62807E-003	-3.59960E-001	-1.12915E+000	3.57670E+000	10	...........
	13	0.186667	2.62583E-001	-6.01478E-003	0.00000E+000	-1.57938E-003	-3.59960E-001	-1.13896E+000	3.57670E+000	10	...........
	14	0.2	2.54474E-001	-6.01809E-003	0.00000E+000	-1.53145E-003	-3.59960E-001	-1.13410E+000	3.57670E+000	10	...........
	15	0.213333	2.46487E-001	-6.01505E-003	0.00000E+000	-1.48263E-003	-3.59960E-001	-1.12906E+000	3.57670E+000	10	...........
	16	0.226667	2.38589E-001	-6.01456E-003	0.00000E+000	-1.43501E-003	-3.59960E-001	-1.13881E+000	3.57670E+000	10	...........
	17	0.24	2.30815E-001	-6.01151E-003	0.00000E+000	-1.38755E-003	-3.59960E-001	-1.13393E+000	3.57670E+000	10	...........
	18	0.253333	2.23095E-001	-6.01495E-003	0.00000E+000	-1.34190E-003	-3.59960E-001	-1.12924E+000	3.57670E+000	10	...........
	19	0.266667	2.15480E-001	-6.01486E-003	0.00000E+000	-1.29608E-003	-3.59960E-001	-1.13939E+000	3.57670E+000	10	...........
	20	0.28	2.07964E-001	-6.01648E-003	0.00000E+000	-1.25121E-003	-3.59960E-001	-1.13417E+000	3.57670E+000	10	...........
	21	0.293333	2.00540E-001	-6.01600E-003	0.00000E+000	-1.20645E-003	-3.59960E-001	-1.12940E+000	3.57670E+000	10	...........
	22	0.306667	1.93190E-001	-6.01562E-003	0.00000E+000	-1.16216E-003	-3.59960E-001	-1.13988E+000	3.57670E+000	10	...........
	23	0.32	1.85933E-001	-6.01715E-003	0.00000E+000	-1.11879E-003	-3.59960E-001	-1.13435E+000	3.57670E+000	10	...........
	24	0.333333	1.78746E-001	-6.01613E-003	0.00000E+000	-1.07536E-003	-3.59960E-001	-1.12974E+000	3.57670E+000	10	...........
	25	0.346667	1.71625E-001	-6.01572E-003	0.00000E+000	-1.03245E-003	-3.59960E-001	-1.13986E+000	3.57670E+000	10	...........
	26	0.36	1.64634E-001	-6.01864E-003	0.00000E+000	-9.90873E-004	-3.59960E-001	-1.13410E+000	3.57670E+000	10	...........
	27	0.373333	1.57637E-001	-6.01477E-003	0.00000E+000	-9.48150E-004	-3.59960E-001	-1.12960E+000	3.57670E+000	10	...........
	28	0.386667	1.50793E-001	-6.01162E-003	0.00000E+000	-9.06509E-004	-3.59960E-001	-1.13986E+000	3.57670E+000	10	...........
	29	0.4	1.44027E-001	-6.01101E-003	0.00000E+000	-8.65747E-004	-3.59960E-001	-1.13401E+000	3.57670E+000	10	...........
	30	0.413333	1.37296E-001	-6.01335E-003	0.00000E+000	-8.25608E-004	-3.59960E-001	-1.12949E+000	3.57640E+000	10	...........
	31	0.426667	1.30672E-001	-6.01242E-003	0.00000E+000	-7.85655E-004	-3.59960E-001	-1.14012E+000	3.57640E+000	10	...........
	32	0.44	1.24087E-001	-6.01900E-003	0.00000E+000	-7.46878E-004	-3.59960E-001	-1.13399E+000	3.57640E+000	10	...........
	33	0.453333	1.17523E-001	-6.01740E-003	0.00000E+000	-7.07183E-004	-3.59960E-001	-1.12962E+000	3.57640E+000	10	...........
	34	0.466667	1.11082E-001	-6.01504E-003	0.00000E+000	-6.68161E-004	-3.59960E-001	-1.14059E+000	3.57640E+000	10	...........
	35	0.48	1.04707E-001	-6.01584E-003	0.00000E+000	-6.29898E-004	-3.59960E-001	-1.13379E+000	3.57640E+000	10	...........
	36	0.493333	9.84078E-002	-6.00954E-003	0.00000E+000	-5.91386E-004	-3.59960E-001	-1.12969E+000	3.57640E+000	10	...........
	37	0.506667	9.21850E-002	-6.01591E-003	0.00000E+000	-5.54577E-004	-3.59960E-001	-1.14047E+000	3.57640E+000	10	...........
	38	0.52	8.59698E-002	-6.01557E-003	0.00000E+000	-5.17157E-004	-3.59960E-001	-1.13397E+000	3.57640E+000	10	...........
	39	0.533333	7.98593E-002	-6.01955E-003	0.00000E+000	-4.80717E-004	-3.59960E-001	-1.12979E+000	3.57640E+000	10	...........
	40	0.546667	7.37846E-002	-6.01875E-003	0.00000E+000	-4.44091E-004	-3.59960E-001	-1.14041E+000	3.57640E+000	10	...........
	41	0.56	6.77576E-002	-6.01686E-003	0.00000E+000	-4.07688E-004	-3.59960E-001	-1.13362E+000	3.57640E+000	10	...........
	42	0.573333	6.18251E-002	-6.01648E-003	0.00000E+000	-3.71969E-004	-3.59960E-001	-1.13002E+000	3.57640E+000	10	...........
	43	0.586667	5.59883E-002	-6.01527E-003	0.00000E+000	-3.36785E-004	-3.59960E-001	-1.14091E+000	3.57640E+000	10	...........
	44	0.6	5.01440E-002	-6.01652E-003	0.00000E+000	-3.01692E-004	-3.59960E-001	-1.13409E+000	3.57640E+000	10	...........
	45	0.613333	4.44139E-002	-6.01685E-003	0.00000E+000	-2.67232E-004	-3.59960E-001	-1.13012E+000	3.57640E+000	10	...........
	46	0.626667	3.87101E-002	-6.01373E-003	0.00000E+000	-2.32792E-004	-3.59960E-001	-1.14110E+000	3.57640E+000	10	...........
	47	0.64	3.30670E-002	-6.01338E-003	0.00000E+000	-1.98844E-004	-3.59960E-001	-1.13417E+000	3.57640E+000	10	...........
	48	0.653333	2.74604E-002	-6.01002E-003	0.00000E+000	-1.65037E-004	-3.59960E-001	-1.13073E+000	3.57640E+000	10	...........
	49	0.666667	2.19059E-002	-6.01580E-003	0.00000E+000	-1.31782E-004	-3.59960E-001	-1.14129E+000	3.57640E+000	10	...........
	50	0.68	1.64237E-002	-6.01298E-003	0.00000E+000	-9.87557E-005	-3.59960E-001	-1.13383E+000	3.57640E+000	10	...........
	51	0.693333	1.09536E-002	-6.01615E-003	0.00000E+000	-6.58987E-005	-3.59960E-001	-1.13052E+000	3.57640E+000	10	...........
	52	0.706667	5.56481E-003	-6.01498E-003	0.00000E+000	-3.34723E-005	-3.59960E-001	-1.14141E+000	3.57640E+000	10	...........
	53	0.715	1.22473E-003	-6.01444E-003	0.00000E+000	-7.36605E-006	-3.59960E-001	-1.12719E+000	3.57640E+000	10	...........
STARTTIMEOFFSET	QUANT	1290.49	Start Time Offset (s)
