EXPLAIN
TAG	PWR800_DISCHARGE
TITLE	LABEL	PWR Cyclic Charge Discharge (Cell) - Discharge Step	Test &Identifier
DATE	LABEL	22-6-2017	Date
TIME	LABEL	15:46:36	Time
NOTES	NOTES	3	&Notes...
	supercap test cell
	0.6mg
	6M KOH
PSTAT	PSTAT	IFC5000-01520	Potentiostat
CAPACITY	QUANT	1.00000E-003	Capacity (A-hr)
CELLTYPE	SELECTOR	1	&Cell Type
WORKINGCONNECTION	SELECTOR	0	&Working Lead
MAXDISCHARGETIME	VARIABLEANDUNITS	1.00000E+002	s	1.00000E+002	second(s)	Max &Discharge Time
DISCHARGEMODE	MULTIPARAM	0	6.00000E-003	&Discharge Mode	Constant Current	Amp(s)
SAMPLETIME	QUANT	1.00000E-002	Sa&mple Period (s)
DISCHARGESTOPAT1	MULTIPARAM	3	0.00000E+000	Discharge Stop At &1	Voltage < Limit	V
DISCHARGESTOPAT2	MULTIPARAM	0	0.00000E+000	Discharge Stop At &2	None	N/A
AESBHCSELECTOR	TOGGLE	F	Save Both Half Cells
IRCOMP	TOGGLE	F	IR &Measure
EOC	QUANT	0	Open Circuit (V)
SEQUENCER	TOGGLE	TRUE	Run as Sequence
PSTATMODEL	IQUANT	53	Pstat Model
PSTATSECTION	LABEL	IFC5000-01520	Pstat Section
PSTATSERIALNO	LABEL	01520	Pstat Serial Number
CTRLMODE	IQUANT	0	Control Mode
ELECTROMETER	IQUANT	1	RE=0 or CS=1
IESTAB	IQUANT	0	I/E Stability
CASPEED	IQUANT	4	Control Amp Speed
CONVENTION	IQUANT	1	Current Convention
ICHRANGE	IQUANT	2	Ich Range
ICHRANGEMODE	TOGGLE	T	Ich Auto Range
ICHOFFSETENABLE	TOGGLE	F	Ich Offset Enable
ICHOFFSET	QUANT	0	Ich Offset (V)
ICHFILTER	IQUANT	1	Ich Filter
VCHRANGE	IQUANT	2	Vch Range
VCHRANGEMODE	TOGGLE	T	Vch Auto Range
VCHOFFSETENABLE	TOGGLE	F	Vch Offset Enable
VCHOFFSET	QUANT	0	Vch Offset (V)
VCHFILTER	IQUANT	1	Vch Filter
IERANGELOWERLIMIT	IQUANT	9	I/E Range Lower Limit
IERANGEMODE	TOGGLE	F	I/E AutoRange
IERANGE	IQUANT	10	I/E Range
ACHSELECT	IQUANT	1	Ach Select
ACHRANGE	IQUANT	2	Ach Range
ACHOFFSETENABLE	TOGGLE	F	Ach Offset Enable
ACHOFFSET	QUANT	0	Ach Offset (V)
ACHFILTER	IQUANT	1	Ach Filter
CABLEID	IQUANT	14	Cable ID
DCCALDATE	LABEL	20-10-2016	DC Calibration Date
ACCALDATE	LABEL	12/3/2015	AC Calibration Date
FRAMEWORKVERSION	QUANT	7.01	Framework Version
INSTRUMENTVERSION	LABEL	4.00	Instrument Version
CURVE	TABLE	63
	Pt	T	Vf	Im	Vu	Pwr	Sig	Ach	Temp	IERange	Over
	#	s	V	A	V	W	V	V	deg C	#	bits
	0	0.013333	4.09851E-001	-6.01133E-003	0.00000E+000	-2.46375E-003	-3.59960E-001	-1.06858E+000	3.57680E+000	10	...........
	1	0.026667	3.99154E-001	-6.01472E-003	0.00000E+000	-2.40080E-003	-3.59960E-001	-1.06180E+000	3.57680E+000	10	...........
	2	0.04	3.89236E-001	-6.01002E-003	0.00000E+000	-2.33932E-003	-3.59960E-001	-1.06828E+000	3.57680E+000	10	...........
	3	0.053333	3.79793E-001	-6.01468E-003	0.00000E+000	-2.28433E-003	-3.59960E-001	-1.06894E+000	3.57680E+000	10	...........
	4	0.066667	3.70711E-001	-6.01896E-003	0.00000E+000	-2.23129E-003	-3.59960E-001	-1.06199E+000	3.57680E+000	10	...........
	5	0.08	3.61908E-001	-6.01313E-003	0.00000E+000	-2.17620E-003	-3.59960E-001	-1.06888E+000	3.57680E+000	10	...........
	6	0.093333	3.53275E-001	-6.01761E-003	0.00000E+000	-2.12587E-003	-3.59960E-001	-1.06910E+000	3.57680E+000	10	...........
	7	0.106667	3.44887E-001	-6.01457E-003	0.00000E+000	-2.07434E-003	-3.59960E-001	-1.06264E+000	3.57680E+000	10	...........
	8	0.12	3.36626E-001	-6.01561E-003	0.00000E+000	-2.02501E-003	-3.59960E-001	-1.06917E+000	3.57680E+000	10	...........
	9	0.133333	3.28448E-001	-6.02214E-003	0.00000E+000	-1.97796E-003	-3.59960E-001	-1.06974E+000	3.57680E+000	10	...........
	10	0.146667	3.20454E-001	-6.01623E-003	0.00000E+000	-1.92793E-003	-3.59960E-001	-1.06283E+000	3.57680E+000	10	...........
	11	0.16	3.12547E-001	-6.01894E-003	0.00000E+000	-1.88120E-003	-3.59960E-001	-1.06920E+000	3.57680E+000	10	...........
	12	0.173333	3.04769E-001	-6.01599E-003	0.00000E+000	-1.83349E-003	-3.59960E-001	-1.06995E+000	3.57680E+000	10	...........
	13	0.186667	2.97082E-001	-6.01630E-003	0.00000E+000	-1.78734E-003	-3.59960E-001	-1.06317E+000	3.57680E+000	10	...........
	14	0.2	2.89435E-001	-6.01237E-003	0.00000E+000	-1.74019E-003	-3.59960E-001	-1.06934E+000	3.57680E+000	10	...........
	15	0.213333	2.81938E-001	-6.01110E-003	0.00000E+000	-1.69476E-003	-3.59960E-001	-1.06991E+000	3.57680E+000	10	...........
	16	0.226667	2.74486E-001	-6.01712E-003	0.00000E+000	-1.65161E-003	-3.59960E-001	-1.06293E+000	3.57680E+000	10	...........
	17	0.24	2.67130E-001	-6.01660E-003	0.00000E+000	-1.60722E-003	-3.59960E-001	-1.06939E+000	3.57680E+000	10	...........
	18	0.253333	2.59873E-001	-6.01666E-003	0.00000E+000	-1.56357E-003	-3.59960E-001	-1.07021E+000	3.57680E+000	10	...........
	19	0.266667	2.52696E-001	-6.01591E-003	0.00000E+000	-1.52020E-003	-3.59960E-001	-1.06328E+000	3.57680E+000	10	...........
	20	0.28	2.45562E-001	-6.01557E-003	0.00000E+000	-1.47720E-003	-3.59960E-001	-1.06954E+000	3.57680E+000	10	...........
	21	0.293333	2.38524E-001	-6.01177E-003	0.00000E+000	-1.43395E-003	-3.59960E-001	-1.07036E+000	3.57680E+000	10	...........
	22	0.306667	2.31603E-001	-6.01756E-003	0.00000E+000	-1.39369E-003	-3.59960E-001	-1.06352E+000	3.57680E+000	10	...........
	23	0.32	2.24693E-001	-6.01754E-003	0.00000E+000	-1.35210E-003	-3.59960E-001	-1.06995E+000	3.57680E+000	10	...........
	24	0.333333	2.17846E-001	-6.01413E-003	0.00000E+000	-1.31015E-003	-3.59960E-001	-1.07050E+000	3.57680E+000	10	...........
	25	0.346667	2.11101E-001	-6.01071E-003	0.00000E+000	-1.26887E-003	-3.59960E-001	-1.06370E+000	3.57680E+000	10	...........
	26	0.36	2.04388E-001	-6.01826E-003	0.00000E+000	-1.23006E-003	-3.59960E-001	-1.06974E+000	3.57680E+000	10	...........
	27	0.373333	1.97747E-001	-6.01881E-003	0.00000E+000	-1.19020E-003	-3.59960E-001	-1.07088E+000	3.57680E+000	10	...........
	28	0.386667	1.91194E-001	-6.00968E-003	0.00000E+000	-1.14901E-003	-3.59960E-001	-1.06394E+000	3.57680E+000	10	...........
	29	0.4	1.84672E-001	-6.01003E-003	0.00000E+000	-1.10988E-003	-3.59960E-001	-1.07001E+000	3.57680E+000	10	...........
	30	0.413333	1.78178E-001	-6.01642E-003	0.00000E+000	-1.07200E-003	-3.59960E-001	-1.07109E+000	3.57680E+000	10	...........
	31	0.426667	1.71796E-001	-6.01288E-003	0.00000E+000	-1.03299E-003	-3.59960E-001	-1.06408E+000	3.57680E+000	10	...........
	32	0.44	1.65459E-001	-6.01639E-003	0.00000E+000	-9.95465E-004	-3.59960E-001	-1.07045E+000	3.57680E+000	10	...........
	33	0.453333	1.59219E-001	-6.01721E-003	0.00000E+000	-9.58055E-004	-3.59960E-001	-1.07144E+000	3.57680E+000	10	...........
	34	0.466667	1.52995E-001	-6.01748E-003	0.00000E+000	-9.20642E-004	-3.59960E-001	-1.06433E+000	3.57680E+000	10	...........
	35	0.48	1.46842E-001	-6.01200E-003	0.00000E+000	-8.82816E-004	-3.59960E-001	-1.07041E+000	3.57680E+000	10	...........
	36	0.493333	1.40714E-001	-6.01371E-003	0.00000E+000	-8.46212E-004	-3.59960E-001	-1.07143E+000	3.57680E+000	10	...........
	37	0.506667	1.34662E-001	-6.01511E-003	0.00000E+000	-8.10007E-004	-3.59960E-001	-1.06439E+000	3.57680E+000	10	...........
	38	0.52	1.28626E-001	-6.01102E-003	0.00000E+000	-7.73173E-004	-3.59960E-001	-1.07047E+000	3.57680E+000	10	...........
	39	0.533333	1.22660E-001	-6.01574E-003	0.00000E+000	-7.37888E-004	-3.59960E-001	-1.07147E+000	3.57680E+000	10	...........
	40	0.546667	1.16764E-001	-6.01786E-003	0.00000E+000	-7.02670E-004	-3.59960E-001	-1.06413E+000	3.57680E+000	10	...........
	41	0.56	1.10898E-001	-6.01763E-003	0.00000E+000	-6.67342E-004	-3.59960E-001	-1.07042E+000	3.57680E+000	10	...........
	42	0.573333	1.05068E-001	-6.01346E-003	0.00000E+000	-6.31822E-004	-3.59960E-001	-1.07184E+000	3.57680E+000	10	...........
	43	0.586667	9.93332E-002	-6.01964E-003	0.00000E+000	-5.97950E-004	-3.59960E-001	-1.06460E+000	3.57680E+000	10	...........
	44	0.6	9.36377E-002	-6.01088E-003	0.00000E+000	-5.62845E-004	-3.59960E-001	-1.07074E+000	3.57680E+000	10	...........
	45	0.613333	8.79526E-002	-6.01988E-003	0.00000E+000	-5.29464E-004	-3.59960E-001	-1.07191E+000	3.57680E+000	10	...........
	46	0.626667	8.23677E-002	-6.01804E-003	0.00000E+000	-4.95692E-004	-3.59960E-001	-1.06453E+000	3.57680E+000	10	...........
	47	0.64	7.67767E-002	-6.01367E-003	0.00000E+000	-4.61710E-004	-3.59960E-001	-1.07072E+000	3.57680E+000	10	...........
	48	0.653333	7.12741E-002	-6.01215E-003	0.00000E+000	-4.28511E-004	-3.59960E-001	-1.07215E+000	3.57680E+000	10	...........
	49	0.666667	6.58103E-002	-6.01095E-003	0.00000E+000	-3.95582E-004	-3.59960E-001	-1.06481E+000	3.57680E+000	10	...........
	50	0.68	6.03675E-002	-6.01629E-003	0.00000E+000	-3.63189E-004	-3.59960E-001	-1.07047E+000	3.57680E+000	10	...........
	51	0.693333	5.49750E-002	-6.01413E-003	0.00000E+000	-3.30627E-004	-3.59960E-001	-1.07210E+000	3.57680E+000	10	...........
	52	0.706667	4.95739E-002	-6.01503E-003	0.00000E+000	-2.98188E-004	-3.59960E-001	-1.06498E+000	3.57680E+000	10	...........
	53	0.72	4.42909E-002	-6.01619E-003	0.00000E+000	-2.66463E-004	-3.59960E-001	-1.07084E+000	3.57680E+000	10	...........
	54	0.733333	3.90488E-002	-6.01729E-003	0.00000E+000	-2.34968E-004	-3.59960E-001	-1.07228E+000	3.57680E+000	10	...........
	55	0.746667	3.38347E-002	-6.01442E-003	0.00000E+000	-2.03496E-004	-3.59960E-001	-1.06507E+000	3.57680E+000	10	...........
	56	0.76	2.86465E-002	-6.01646E-003	0.00000E+000	-1.72350E-004	-3.59960E-001	-1.07070E+000	3.57680E+000	10	...........
	57	0.773333	2.34706E-002	-6.01363E-003	0.00000E+000	-1.41144E-004	-3.59960E-001	-1.07253E+000	3.57680E+000	10	...........
	58	0.786667	1.83571E-002	-6.01195E-003	0.00000E+000	-1.10362E-004	-3.59960E-001	-1.06531E+000	3.57680E+000	10	...........
	59	0.8	1.32992E-002	-6.01618E-003	0.00000E+000	-8.00104E-005	-3.59960E-001	-1.07086E+000	3.57680E+000	10	...........
	60	0.813333	8.24458E-003	-6.01510E-003	0.00000E+000	-4.95920E-005	-3.59960E-001	-1.07252E+000	3.57680E+000	10	...........
	61	0.826667	3.21516E-003	-6.01567E-003	0.00000E+000	-1.93414E-005	-3.59960E-001	-1.06512E+000	3.57680E+000	10	...........
	62	0.83	1.04283E-004	-6.01767E-003	0.00000E+000	-6.27542E-007	-3.59960E-001	-1.07847E+000	3.57680E+000	10	...........
STARTTIMEOFFSET	QUANT	487.2717	Start Time Offset (s)
