EXPLAIN
TAG	PWR800_DISCHARGE
TITLE	LABEL	PWR Cyclic Charge Discharge (Cell) - Discharge Step	Test &Identifier
DATE	LABEL	22-6-2017	Date
TIME	LABEL	16:13:29	Time
NOTES	NOTES	3	&Notes...
	supercap test cell
	0.6mg
	6M KOH
PSTAT	PSTAT	IFC5000-01520	Potentiostat
CAPACITY	QUANT	1.00000E-003	Capacity (A-hr)
CELLTYPE	SELECTOR	1	&Cell Type
WORKINGCONNECTION	SELECTOR	0	&Working Lead
MAXDISCHARGETIME	VARIABLEANDUNITS	1.00000E+002	s	1.00000E+002	second(s)	Max &Discharge Time
DISCHARGEMODE	MULTIPARAM	0	6.00000E-003	&Discharge Mode	Constant Current	Amp(s)
SAMPLETIME	QUANT	1.00000E-002	Sa&mple Period (s)
DISCHARGESTOPAT1	MULTIPARAM	3	0.00000E+000	Discharge Stop At &1	Voltage < Limit	V
DISCHARGESTOPAT2	MULTIPARAM	0	0.00000E+000	Discharge Stop At &2	None	N/A
AESBHCSELECTOR	TOGGLE	F	Save Both Half Cells
IRCOMP	TOGGLE	F	IR &Measure
EOC	QUANT	0	Open Circuit (V)
SEQUENCER	TOGGLE	TRUE	Run as Sequence
PSTATMODEL	IQUANT	53	Pstat Model
PSTATSECTION	LABEL	IFC5000-01520	Pstat Section
PSTATSERIALNO	LABEL	01520	Pstat Serial Number
CTRLMODE	IQUANT	0	Control Mode
ELECTROMETER	IQUANT	1	RE=0 or CS=1
IESTAB	IQUANT	0	I/E Stability
CASPEED	IQUANT	4	Control Amp Speed
CONVENTION	IQUANT	1	Current Convention
ICHRANGE	IQUANT	2	Ich Range
ICHRANGEMODE	TOGGLE	T	Ich Auto Range
ICHOFFSETENABLE	TOGGLE	F	Ich Offset Enable
ICHOFFSET	QUANT	0	Ich Offset (V)
ICHFILTER	IQUANT	1	Ich Filter
VCHRANGE	IQUANT	2	Vch Range
VCHRANGEMODE	TOGGLE	T	Vch Auto Range
VCHOFFSETENABLE	TOGGLE	F	Vch Offset Enable
VCHOFFSET	QUANT	0	Vch Offset (V)
VCHFILTER	IQUANT	1	Vch Filter
IERANGELOWERLIMIT	IQUANT	9	I/E Range Lower Limit
IERANGEMODE	TOGGLE	F	I/E AutoRange
IERANGE	IQUANT	10	I/E Range
ACHSELECT	IQUANT	1	Ach Select
ACHRANGE	IQUANT	2	Ach Range
ACHOFFSETENABLE	TOGGLE	F	Ach Offset Enable
ACHOFFSET	QUANT	0	Ach Offset (V)
ACHFILTER	IQUANT	1	Ach Filter
CABLEID	IQUANT	14	Cable ID
DCCALDATE	LABEL	20-10-2016	DC Calibration Date
ACCALDATE	LABEL	12/3/2015	AC Calibration Date
FRAMEWORKVERSION	QUANT	7.01	Framework Version
INSTRUMENTVERSION	LABEL	4.00	Instrument Version
CURVE	TABLE	52
	Pt	T	Vf	Im	Vu	Pwr	Sig	Ach	Temp	IERange	Over
	#	s	V	A	V	W	V	V	deg C	#	bits
	0	0.013333	3.77165E-001	-6.01707E-003	0.00000E+000	-2.26943E-003	-3.59960E-001	-1.14840E+000	3.57660E+000	10	...........
	1	0.026667	3.65589E-001	-6.01730E-003	0.00000E+000	-2.19986E-003	-3.59960E-001	-1.13982E+000	3.57660E+000	10	...........
	2	0.04	3.54784E-001	-6.01402E-003	0.00000E+000	-2.13368E-003	-3.59960E-001	-1.13759E+000	3.57660E+000	10	...........
	3	0.053333	3.44548E-001	-6.01511E-003	0.00000E+000	-2.07249E-003	-3.59960E-001	-1.14844E+000	3.57660E+000	10	...........
	4	0.066667	3.34699E-001	-6.00875E-003	0.00000E+000	-2.01112E-003	-3.59960E-001	-1.14007E+000	3.57660E+000	10	...........
	5	0.08	3.25118E-001	-6.01385E-003	0.00000E+000	-1.95521E-003	-3.59960E-001	-1.13780E+000	3.57660E+000	10	...........
	6	0.093333	3.15775E-001	-6.01649E-003	0.00000E+000	-1.89986E-003	-3.59960E-001	-1.14898E+000	3.57660E+000	10	...........
	7	0.106667	3.06663E-001	-6.01532E-003	0.00000E+000	-1.84467E-003	-3.59960E-001	-1.13995E+000	3.57660E+000	10	...........
	8	0.12	2.97669E-001	-6.01208E-003	0.00000E+000	-1.78961E-003	-3.59960E-001	-1.13757E+000	3.57660E+000	10	...........
	9	0.133333	2.88847E-001	-6.01664E-003	0.00000E+000	-1.73789E-003	-3.59960E-001	-1.14883E+000	3.57660E+000	10	...........
	10	0.146667	2.80110E-001	-6.01416E-003	0.00000E+000	-1.68463E-003	-3.59960E-001	-1.14021E+000	3.57660E+000	10	...........
	11	0.16	2.71529E-001	-6.01615E-003	0.00000E+000	-1.63356E-003	-3.59960E-001	-1.13794E+000	3.57660E+000	10	...........
	12	0.173333	2.63091E-001	-6.01478E-003	0.00000E+000	-1.58243E-003	-3.59960E-001	-1.14922E+000	3.57660E+000	10	...........
	13	0.186667	2.54766E-001	-6.00954E-003	0.00000E+000	-1.53103E-003	-3.59960E-001	-1.14021E+000	3.57660E+000	10	...........
	14	0.2	2.46560E-001	-6.01566E-003	0.00000E+000	-1.48322E-003	-3.59960E-001	-1.13798E+000	3.57660E+000	10	...........
	15	0.213333	2.38492E-001	-6.00955E-003	0.00000E+000	-1.43323E-003	-3.59960E-001	-1.14949E+000	3.57660E+000	10	...........
	16	0.226667	2.30432E-001	-6.01520E-003	0.00000E+000	-1.38610E-003	-3.59960E-001	-1.14079E+000	3.57660E+000	10	...........
	17	0.24	2.22535E-001	-6.01438E-003	0.00000E+000	-1.33841E-003	-3.59960E-001	-1.13824E+000	3.57660E+000	10	...........
	18	0.253333	2.14690E-001	-6.01871E-003	0.00000E+000	-1.29216E-003	-3.59960E-001	-1.14950E+000	3.57660E+000	10	...........
	19	0.266667	2.06969E-001	-6.01210E-003	0.00000E+000	-1.24432E-003	-3.59960E-001	-1.14063E+000	3.57660E+000	10	...........
	20	0.28	1.99351E-001	-6.01406E-003	0.00000E+000	-1.19891E-003	-3.59960E-001	-1.13849E+000	3.57660E+000	10	...........
	21	0.293333	1.91834E-001	-6.01531E-003	0.00000E+000	-1.15394E-003	-3.59960E-001	-1.14971E+000	3.57660E+000	10	...........
	22	0.306667	1.84368E-001	-6.01489E-003	0.00000E+000	-1.10895E-003	-3.59960E-001	-1.14109E+000	3.57660E+000	10	...........
	23	0.32	1.77024E-001	-6.01111E-003	0.00000E+000	-1.06411E-003	-3.59960E-001	-1.13886E+000	3.57660E+000	10	...........
	24	0.333333	1.69788E-001	-6.01890E-003	0.00000E+000	-1.02194E-003	-3.59960E-001	-1.14998E+000	3.57660E+000	10	...........
	25	0.346667	1.62580E-001	-6.01446E-003	0.00000E+000	-9.77831E-004	-3.59960E-001	-1.14112E+000	3.57660E+000	10	...........
	26	0.36	1.55483E-001	-6.01450E-003	0.00000E+000	-9.35154E-004	-3.59960E-001	-1.13901E+000	3.57660E+000	10	...........
	27	0.373333	1.48519E-001	-6.01152E-003	0.00000E+000	-8.92828E-004	-3.59960E-001	-1.15034E+000	3.57660E+000	10	...........
	28	0.386667	1.41568E-001	-6.01640E-003	0.00000E+000	-8.51733E-004	-3.59960E-001	-1.14132E+000	3.57640E+000	10	...........
	29	0.4	1.34735E-001	-6.01795E-003	0.00000E+000	-8.10827E-004	-3.59960E-001	-1.13914E+000	3.57640E+000	10	...........
	30	0.413333	1.27973E-001	-6.01292E-003	0.00000E+000	-7.69489E-004	-3.59960E-001	-1.15032E+000	3.57640E+000	10	...........
	31	0.426667	1.21284E-001	-6.01261E-003	0.00000E+000	-7.29233E-004	-3.59960E-001	-1.14133E+000	3.57640E+000	10	...........
	32	0.44	1.14676E-001	-6.01247E-003	0.00000E+000	-6.89485E-004	-3.59960E-001	-1.13910E+000	3.57640E+000	10	...........
	33	0.453333	1.08091E-001	-6.01393E-003	0.00000E+000	-6.50050E-004	-3.59960E-001	-1.15027E+000	3.57640E+000	10	...........
	34	0.466667	1.01604E-001	-6.01364E-003	0.00000E+000	-6.11012E-004	-3.59960E-001	-1.14135E+000	3.57640E+000	10	...........
	35	0.48	9.51452E-002	-6.01376E-003	0.00000E+000	-5.72181E-004	-3.59960E-001	-1.13925E+000	3.57640E+000	10	...........
	36	0.493333	8.87682E-002	-6.01900E-003	0.00000E+000	-5.34296E-004	-3.59960E-001	-1.15056E+000	3.57640E+000	10	...........
	37	0.506667	8.24858E-002	-6.01736E-003	0.00000E+000	-4.96347E-004	-3.59960E-001	-1.14144E+000	3.57640E+000	10	...........
	38	0.52	7.63070E-002	-6.01435E-003	0.00000E+000	-4.58937E-004	-3.59960E-001	-1.13927E+000	3.57640E+000	10	...........
	39	0.533333	7.01714E-002	-6.01825E-003	0.00000E+000	-4.22309E-004	-3.59960E-001	-1.15058E+000	3.57640E+000	10	...........
	40	0.546667	6.41051E-002	-6.01336E-003	0.00000E+000	-3.85487E-004	-3.59960E-001	-1.14154E+000	3.57640E+000	10	...........
	41	0.56	5.80802E-002	-6.01549E-003	0.00000E+000	-3.49381E-004	-3.59960E-001	-1.13944E+000	3.57640E+000	10	...........
	42	0.573333	5.20716E-002	-6.01876E-003	0.00000E+000	-3.13406E-004	-3.59960E-001	-1.15072E+000	3.57640E+000	10	...........
	43	0.586667	4.61963E-002	-6.01876E-003	0.00000E+000	-2.78044E-004	-3.59960E-001	-1.14151E+000	3.57640E+000	10	...........
	44	0.6	4.03716E-002	-6.00901E-003	0.00000E+000	-2.42593E-004	-3.59960E-001	-1.13959E+000	3.57640E+000	10	...........
	45	0.613333	3.45381E-002	-6.01686E-003	0.00000E+000	-2.07811E-004	-3.59960E-001	-1.15074E+000	3.57640E+000	10	...........
	46	0.626667	2.88051E-002	-6.01446E-003	0.00000E+000	-1.73247E-004	-3.59960E-001	-1.14167E+000	3.57640E+000	10	...........
	47	0.64	2.31561E-002	-6.01478E-003	0.00000E+000	-1.39279E-004	-3.59960E-001	-1.13989E+000	3.57640E+000	10	...........
	48	0.653333	1.75048E-002	-6.01482E-003	0.00000E+000	-1.05288E-004	-3.59960E-001	-1.15101E+000	3.57640E+000	10	...........
	49	0.666667	1.18986E-002	-6.02255E-003	0.00000E+000	-7.16601E-005	-3.59960E-001	-1.14173E+000	3.57640E+000	10	...........
	50	0.68	6.41997E-003	-6.01707E-003	0.00000E+000	-3.86294E-005	-3.59960E-001	-1.13997E+000	3.57640E+000	10	...........
	51	0.69	1.62441E-003	-6.00811E-003	0.00000E+000	-9.75963E-006	-3.59960E-001	-1.15296E+000	3.57640E+000	10	...........
STARTTIMEOFFSET	QUANT	1541.692	Start Time Offset (s)
