EXPLAIN
TAG	PWR800_DISCHARGE
TITLE	LABEL	PWR Cyclic Charge Discharge (Cell) - Discharge Step	Test &Identifier
DATE	LABEL	22-6-2017	Date
TIME	LABEL	15:57:34	Time
NOTES	NOTES	3	&Notes...
	supercap test cell
	0.6mg
	6M KOH
PSTAT	PSTAT	IFC5000-01520	Potentiostat
CAPACITY	QUANT	1.00000E-003	Capacity (A-hr)
CELLTYPE	SELECTOR	1	&Cell Type
WORKINGCONNECTION	SELECTOR	0	&Working Lead
MAXDISCHARGETIME	VARIABLEANDUNITS	1.00000E+002	s	1.00000E+002	second(s)	Max &Discharge Time
DISCHARGEMODE	MULTIPARAM	0	6.00000E-003	&Discharge Mode	Constant Current	Amp(s)
SAMPLETIME	QUANT	1.00000E-002	Sa&mple Period (s)
DISCHARGESTOPAT1	MULTIPARAM	3	0.00000E+000	Discharge Stop At &1	Voltage < Limit	V
DISCHARGESTOPAT2	MULTIPARAM	0	0.00000E+000	Discharge Stop At &2	None	N/A
AESBHCSELECTOR	TOGGLE	F	Save Both Half Cells
IRCOMP	TOGGLE	F	IR &Measure
EOC	QUANT	0	Open Circuit (V)
SEQUENCER	TOGGLE	TRUE	Run as Sequence
PSTATMODEL	IQUANT	53	Pstat Model
PSTATSECTION	LABEL	IFC5000-01520	Pstat Section
PSTATSERIALNO	LABEL	01520	Pstat Serial Number
CTRLMODE	IQUANT	0	Control Mode
ELECTROMETER	IQUANT	1	RE=0 or CS=1
IESTAB	IQUANT	0	I/E Stability
CASPEED	IQUANT	4	Control Amp Speed
CONVENTION	IQUANT	1	Current Convention
ICHRANGE	IQUANT	2	Ich Range
ICHRANGEMODE	TOGGLE	T	Ich Auto Range
ICHOFFSETENABLE	TOGGLE	F	Ich Offset Enable
ICHOFFSET	QUANT	0	Ich Offset (V)
ICHFILTER	IQUANT	1	Ich Filter
VCHRANGE	IQUANT	2	Vch Range
VCHRANGEMODE	TOGGLE	T	Vch Auto Range
VCHOFFSETENABLE	TOGGLE	F	Vch Offset Enable
VCHOFFSET	QUANT	0	Vch Offset (V)
VCHFILTER	IQUANT	1	Vch Filter
IERANGELOWERLIMIT	IQUANT	9	I/E Range Lower Limit
IERANGEMODE	TOGGLE	F	I/E AutoRange
IERANGE	IQUANT	10	I/E Range
ACHSELECT	IQUANT	1	Ach Select
ACHRANGE	IQUANT	2	Ach Range
ACHOFFSETENABLE	TOGGLE	F	Ach Offset Enable
ACHOFFSET	QUANT	0	Ach Offset (V)
ACHFILTER	IQUANT	1	Ach Filter
CABLEID	IQUANT	14	Cable ID
DCCALDATE	LABEL	20-10-2016	DC Calibration Date
ACCALDATE	LABEL	12/3/2015	AC Calibration Date
FRAMEWORKVERSION	QUANT	7.01	Framework Version
INSTRUMENTVERSION	LABEL	4.00	Instrument Version
CURVE	TABLE	57
	Pt	T	Vf	Im	Vu	Pwr	Sig	Ach	Temp	IERange	Over
	#	s	V	A	V	W	V	V	deg C	#	bits
	0	0.013333	3.92612E-001	-6.02128E-003	0.00000E+000	-2.36403E-003	-3.59960E-001	-1.08680E+000	3.57690E+000	10	...........
	1	0.026667	3.81409E-001	-6.01448E-003	0.00000E+000	-2.29398E-003	-3.59960E-001	-1.09304E+000	3.57690E+000	10	...........
	2	0.04	3.71029E-001	-6.01624E-003	0.00000E+000	-2.23220E-003	-3.59960E-001	-1.09542E+000	3.57690E+000	10	...........
	3	0.053333	3.61202E-001	-6.01557E-003	0.00000E+000	-2.17283E-003	-3.59960E-001	-1.08735E+000	3.57690E+000	10	...........
	4	0.066667	3.51721E-001	-6.01871E-003	0.00000E+000	-2.11691E-003	-3.59960E-001	-1.09356E+000	3.57690E+000	10	...........
	5	0.08	3.42555E-001	-6.01479E-003	0.00000E+000	-2.06039E-003	-3.59960E-001	-1.09600E+000	3.57690E+000	10	...........
	6	0.093333	3.33591E-001	-6.01180E-003	0.00000E+000	-2.00549E-003	-3.59960E-001	-1.08765E+000	3.57690E+000	10	...........
	7	0.106667	3.24847E-001	-6.01192E-003	0.00000E+000	-1.95295E-003	-3.59960E-001	-1.09358E+000	3.57690E+000	10	...........
	8	0.12	3.16234E-001	-6.01705E-003	0.00000E+000	-1.90280E-003	-3.59960E-001	-1.09640E+000	3.57690E+000	10	...........
	9	0.133333	3.07743E-001	-6.00917E-003	0.00000E+000	-1.84928E-003	-3.59960E-001	-1.08837E+000	3.57690E+000	10	...........
	10	0.146667	2.99380E-001	-6.01555E-003	0.00000E+000	-1.80093E-003	-3.59960E-001	-1.09429E+000	3.57690E+000	10	...........
	11	0.16	2.91139E-001	-6.01490E-003	0.00000E+000	-1.75117E-003	-3.59960E-001	-1.09692E+000	3.57690E+000	10	...........
	12	0.173333	2.83004E-001	-6.01336E-003	0.00000E+000	-1.70180E-003	-3.59960E-001	-1.08903E+000	3.57690E+000	10	...........
	13	0.186667	2.74965E-001	-6.01512E-003	0.00000E+000	-1.65395E-003	-3.59960E-001	-1.09464E+000	3.57690E+000	10	...........
	14	0.2	2.67060E-001	-6.01617E-003	0.00000E+000	-1.60668E-003	-3.59960E-001	-1.09804E+000	3.57680E+000	10	...........
	15	0.213333	2.59286E-001	-6.01188E-003	0.00000E+000	-1.55880E-003	-3.59960E-001	-1.08941E+000	3.57680E+000	10	...........
	16	0.226667	2.51562E-001	-6.01202E-003	0.00000E+000	-1.51240E-003	-3.59960E-001	-1.09516E+000	3.57680E+000	10	...........
	17	0.24	2.43912E-001	-6.01190E-003	0.00000E+000	-1.46637E-003	-3.59960E-001	-1.09834E+000	3.57680E+000	10	...........
	18	0.253333	2.36387E-001	-6.01798E-003	0.00000E+000	-1.42257E-003	-3.59960E-001	-1.08998E+000	3.57680E+000	10	...........
	19	0.266667	2.28967E-001	-6.01672E-003	0.00000E+000	-1.37763E-003	-3.59960E-001	-1.09575E+000	3.57680E+000	10	...........
	20	0.28	2.21623E-001	-6.01430E-003	0.00000E+000	-1.33290E-003	-3.59960E-001	-1.09906E+000	3.57680E+000	10	...........
	21	0.293333	2.14355E-001	-6.01426E-003	0.00000E+000	-1.28919E-003	-3.59960E-001	-1.09071E+000	3.57680E+000	10	...........
	22	0.306667	2.07158E-001	-6.01611E-003	0.00000E+000	-1.24628E-003	-3.59960E-001	-1.09609E+000	3.57680E+000	10	...........
	23	0.32	2.00043E-001	-6.01543E-003	0.00000E+000	-1.20335E-003	-3.59960E-001	-1.09963E+000	3.57680E+000	10	...........
	24	0.333333	1.93012E-001	-6.01171E-003	0.00000E+000	-1.16033E-003	-3.59960E-001	-1.09137E+000	3.57680E+000	10	...........
	25	0.346667	1.86076E-001	-6.01661E-003	0.00000E+000	-1.11955E-003	-3.59960E-001	-1.09685E+000	3.57680E+000	10	...........
	26	0.36	1.79144E-001	-6.01599E-003	0.00000E+000	-1.07773E-003	-3.59960E-001	-1.10049E+000	3.57680E+000	10	...........
	27	0.373333	1.72320E-001	-6.01962E-003	0.00000E+000	-1.03730E-003	-3.59960E-001	-1.09176E+000	3.57680E+000	10	...........
	28	0.386667	1.65599E-001	-6.01271E-003	0.00000E+000	-9.95699E-004	-3.59960E-001	-1.09698E+000	3.57680E+000	10	...........
	29	0.4	1.58930E-001	-6.02004E-003	0.00000E+000	-9.56763E-004	-3.59960E-001	-1.10099E+000	3.57680E+000	10	...........
	30	0.413333	1.52324E-001	-6.00717E-003	0.00000E+000	-9.15037E-004	-3.59960E-001	-1.09219E+000	3.57680E+000	10	...........
	31	0.426667	1.45766E-001	-6.01265E-003	0.00000E+000	-8.76441E-004	-3.59960E-001	-1.09722E+000	3.57680E+000	10	...........
	32	0.44	1.39282E-001	-6.02036E-003	0.00000E+000	-8.38529E-004	-3.59960E-001	-1.10107E+000	3.57680E+000	10	...........
	33	0.453333	1.32849E-001	-6.01311E-003	0.00000E+000	-7.98835E-004	-3.59960E-001	-1.09261E+000	3.57680E+000	10	...........
	34	0.466667	1.26496E-001	-6.01146E-003	0.00000E+000	-7.60424E-004	-3.59960E-001	-1.09779E+000	3.57680E+000	10	...........
	35	0.48	1.20191E-001	-6.01489E-003	0.00000E+000	-7.22933E-004	-3.59960E-001	-1.10187E+000	3.57680E+000	10	...........
	36	0.493333	1.13960E-001	-6.01808E-003	0.00000E+000	-6.85822E-004	-3.59960E-001	-1.09307E+000	3.57680E+000	10	...........
	37	0.506667	1.07798E-001	-6.01292E-003	0.00000E+000	-6.48182E-004	-3.59960E-001	-1.09815E+000	3.57680E+000	10	...........
	38	0.52	1.01704E-001	-6.01619E-003	0.00000E+000	-6.11868E-004	-3.59960E-001	-1.10231E+000	3.57680E+000	10	...........
	39	0.533333	9.56558E-002	-6.01512E-003	0.00000E+000	-5.75381E-004	-3.59960E-001	-1.09369E+000	3.57680E+000	10	...........
	40	0.546667	8.96092E-002	-6.01543E-003	0.00000E+000	-5.39038E-004	-3.59960E-001	-1.09860E+000	3.57680E+000	10	...........
	41	0.56	8.37173E-002	-6.01122E-003	0.00000E+000	-5.03243E-004	-3.59960E-001	-1.10303E+000	3.57680E+000	10	...........
	42	0.573333	7.78382E-002	-6.01098E-003	0.00000E+000	-4.67884E-004	-3.59960E-001	-1.09422E+000	3.57680E+000	10	...........
	43	0.586667	7.19891E-002	-6.01332E-003	0.00000E+000	-4.32893E-004	-3.59960E-001	-1.09914E+000	3.57680E+000	10	...........
	44	0.6	6.62106E-002	-6.01413E-003	0.00000E+000	-3.98199E-004	-3.59960E-001	-1.10362E+000	3.57680E+000	10	...........
	45	0.613333	6.04613E-002	-6.01126E-003	0.00000E+000	-3.63449E-004	-3.59960E-001	-1.09467E+000	3.57680E+000	10	...........
	46	0.626667	5.47823E-002	-6.01322E-003	0.00000E+000	-3.29418E-004	-3.59960E-001	-1.09963E+000	3.57680E+000	10	...........
	47	0.64	4.91836E-002	-6.01313E-003	0.00000E+000	-2.95747E-004	-3.59960E-001	-1.10414E+000	3.57680E+000	10	...........
	48	0.653333	4.36263E-002	-6.01187E-003	0.00000E+000	-2.62276E-004	-3.59960E-001	-1.09533E+000	3.57680E+000	10	...........
	49	0.666667	3.80861E-002	-6.01428E-003	0.00000E+000	-2.29060E-004	-3.59960E-001	-1.10012E+000	3.57680E+000	10	...........
	50	0.68	3.26197E-002	-6.01900E-003	0.00000E+000	-1.96338E-004	-3.59960E-001	-1.10486E+000	3.57680E+000	10	...........
	51	0.693333	2.71951E-002	-6.01641E-003	0.00000E+000	-1.63617E-004	-3.59960E-001	-1.09577E+000	3.57680E+000	10	...........
	52	0.706667	2.18191E-002	-6.00992E-003	0.00000E+000	-1.31131E-004	-3.59960E-001	-1.10038E+000	3.57680E+000	10	...........
	53	0.72	1.64626E-002	-6.01623E-003	0.00000E+000	-9.90426E-005	-3.59960E-001	-1.10522E+000	3.57680E+000	10	...........
	54	0.733333	1.11754E-002	-6.01919E-003	0.00000E+000	-6.72670E-005	-3.59960E-001	-1.09590E+000	3.57680E+000	10	...........
	55	0.746667	5.95623E-003	-6.01341E-003	0.00000E+000	-3.58173E-005	-3.59960E-001	-1.10025E+000	3.57680E+000	10	...........
	56	0.756667	1.34620E-003	-6.01080E-003	0.00000E+000	-8.09175E-006	-3.59960E-001	-1.10432E+000	3.57680E+000	10	...........
STARTTIMEOFFSET	QUANT	924.1069	Start Time Offset (s)
