EXPLAIN
TAG	PWR800_DISCHARGE
TITLE	LABEL	PWR Cyclic Charge Discharge (Cell) - Discharge Step	Test &Identifier
DATE	LABEL	22-6-2017	Date
TIME	LABEL	15:43:52	Time
NOTES	NOTES	3	&Notes...
	supercap test cell
	0.6mg
	6M KOH
PSTAT	PSTAT	IFC5000-01520	Potentiostat
CAPACITY	QUANT	1.00000E-003	Capacity (A-hr)
CELLTYPE	SELECTOR	1	&Cell Type
WORKINGCONNECTION	SELECTOR	0	&Working Lead
MAXDISCHARGETIME	VARIABLEANDUNITS	1.00000E+002	s	1.00000E+002	second(s)	Max &Discharge Time
DISCHARGEMODE	MULTIPARAM	0	6.00000E-003	&Discharge Mode	Constant Current	Amp(s)
SAMPLETIME	QUANT	1.00000E-002	Sa&mple Period (s)
DISCHARGESTOPAT1	MULTIPARAM	3	0.00000E+000	Discharge Stop At &1	Voltage < Limit	V
DISCHARGESTOPAT2	MULTIPARAM	0	0.00000E+000	Discharge Stop At &2	None	N/A
AESBHCSELECTOR	TOGGLE	F	Save Both Half Cells
IRCOMP	TOGGLE	F	IR &Measure
EOC	QUANT	0	Open Circuit (V)
SEQUENCER	TOGGLE	TRUE	Run as Sequence
PSTATMODEL	IQUANT	53	Pstat Model
PSTATSECTION	LABEL	IFC5000-01520	Pstat Section
PSTATSERIALNO	LABEL	01520	Pstat Serial Number
CTRLMODE	IQUANT	0	Control Mode
ELECTROMETER	IQUANT	1	RE=0 or CS=1
IESTAB	IQUANT	0	I/E Stability
CASPEED	IQUANT	4	Control Amp Speed
CONVENTION	IQUANT	1	Current Convention
ICHRANGE	IQUANT	2	Ich Range
ICHRANGEMODE	TOGGLE	T	Ich Auto Range
ICHOFFSETENABLE	TOGGLE	F	Ich Offset Enable
ICHOFFSET	QUANT	0	Ich Offset (V)
ICHFILTER	IQUANT	1	Ich Filter
VCHRANGE	IQUANT	2	Vch Range
VCHRANGEMODE	TOGGLE	T	Vch Auto Range
VCHOFFSETENABLE	TOGGLE	F	Vch Offset Enable
VCHOFFSET	QUANT	0	Vch Offset (V)
VCHFILTER	IQUANT	1	Vch Filter
IERANGELOWERLIMIT	IQUANT	9	I/E Range Lower Limit
IERANGEMODE	TOGGLE	F	I/E AutoRange
IERANGE	IQUANT	10	I/E Range
ACHSELECT	IQUANT	1	Ach Select
ACHRANGE	IQUANT	2	Ach Range
ACHOFFSETENABLE	TOGGLE	F	Ach Offset Enable
ACHOFFSET	QUANT	0	Ach Offset (V)
ACHFILTER	IQUANT	1	Ach Filter
CABLEID	IQUANT	14	Cable ID
DCCALDATE	LABEL	20-10-2016	DC Calibration Date
ACCALDATE	LABEL	12/3/2015	AC Calibration Date
FRAMEWORKVERSION	QUANT	7.01	Framework Version
INSTRUMENTVERSION	LABEL	4.00	Instrument Version
CURVE	TABLE	65
	Pt	T	Vf	Im	Vu	Pwr	Sig	Ach	Temp	IERange	Over
	#	s	V	A	V	W	V	V	deg C	#	bits
	0	0.013333	4.14993E-001	-6.01440E-003	0.00000E+000	-2.49594E-003	-3.59960E-001	-1.04971E+000	3.57680E+000	10	...........
	1	0.026667	4.04424E-001	-6.01484E-003	0.00000E+000	-2.43254E-003	-3.59960E-001	-1.05088E+000	3.57680E+000	10	...........
	2	0.04	3.94626E-001	-6.01062E-003	0.00000E+000	-2.37195E-003	-3.59960E-001	-1.05935E+000	3.57680E+000	10	...........
	3	0.053333	3.85308E-001	-6.01778E-003	0.00000E+000	-2.31870E-003	-3.59960E-001	-1.04996E+000	3.57680E+000	10	...........
	4	0.066667	3.76335E-001	-6.01916E-003	0.00000E+000	-2.26522E-003	-3.59960E-001	-1.05099E+000	3.57680E+000	10	...........
	5	0.08	3.67684E-001	-6.01374E-003	0.00000E+000	-2.21116E-003	-3.59960E-001	-1.05933E+000	3.57680E+000	10	...........
	6	0.093333	3.59207E-001	-6.01359E-003	0.00000E+000	-2.16012E-003	-3.59960E-001	-1.05004E+000	3.57680E+000	10	...........
	7	0.106667	3.50882E-001	-6.01238E-003	0.00000E+000	-2.10964E-003	-3.59960E-001	-1.05129E+000	3.57680E+000	10	...........
	8	0.12	3.42756E-001	-6.01738E-003	0.00000E+000	-2.06249E-003	-3.59960E-001	-1.05980E+000	3.57680E+000	10	...........
	9	0.133333	3.34717E-001	-6.01533E-003	0.00000E+000	-2.01343E-003	-3.59960E-001	-1.05018E+000	3.57680E+000	10	...........
	10	0.146667	3.26841E-001	-6.01561E-003	0.00000E+000	-1.96615E-003	-3.59960E-001	-1.05152E+000	3.57680E+000	10	...........
	11	0.16	3.19027E-001	-6.01398E-003	0.00000E+000	-1.91862E-003	-3.59960E-001	-1.05994E+000	3.57680E+000	10	...........
	12	0.173333	3.11342E-001	-6.01664E-003	0.00000E+000	-1.87324E-003	-3.59960E-001	-1.05061E+000	3.57680E+000	10	...........
	13	0.186667	3.03746E-001	-6.01341E-003	0.00000E+000	-1.82655E-003	-3.59960E-001	-1.05217E+000	3.57680E+000	10	...........
	14	0.2	2.96249E-001	-6.01235E-003	0.00000E+000	-1.78115E-003	-3.59960E-001	-1.06029E+000	3.57680E+000	10	...........
	15	0.213333	2.88837E-001	-6.01545E-003	0.00000E+000	-1.73748E-003	-3.59960E-001	-1.05098E+000	3.57680E+000	10	...........
	16	0.226667	2.81470E-001	-6.01638E-003	0.00000E+000	-1.69343E-003	-3.59960E-001	-1.05234E+000	3.57680E+000	10	...........
	17	0.24	2.74225E-001	-6.01061E-003	0.00000E+000	-1.64826E-003	-3.59960E-001	-1.06081E+000	3.57680E+000	10	...........
	18	0.253333	2.67032E-001	-6.01786E-003	0.00000E+000	-1.60696E-003	-3.59960E-001	-1.05148E+000	3.57680E+000	10	...........
	19	0.266667	2.59952E-001	-6.01347E-003	0.00000E+000	-1.56322E-003	-3.59960E-001	-1.05285E+000	3.57680E+000	10	...........
	20	0.28	2.52922E-001	-6.01614E-003	0.00000E+000	-1.52162E-003	-3.59960E-001	-1.06070E+000	3.57680E+000	10	...........
	21	0.293333	2.45942E-001	-6.01175E-003	0.00000E+000	-1.47854E-003	-3.59960E-001	-1.05125E+000	3.57680E+000	10	...........
	22	0.306667	2.39068E-001	-6.01427E-003	0.00000E+000	-1.43782E-003	-3.59960E-001	-1.05283E+000	3.57680E+000	10	...........
	23	0.32	2.32240E-001	-6.01930E-003	0.00000E+000	-1.39793E-003	-3.59960E-001	-1.06102E+000	3.57680E+000	10	...........
	24	0.333333	2.25458E-001	-6.01575E-003	0.00000E+000	-1.35630E-003	-3.59960E-001	-1.05133E+000	3.57680E+000	10	...........
	25	0.346667	2.18797E-001	-6.01770E-003	0.00000E+000	-1.31665E-003	-3.59960E-001	-1.05278E+000	3.57680E+000	10	...........
	26	0.36	2.12198E-001	-6.01517E-003	0.00000E+000	-1.27641E-003	-3.59960E-001	-1.06110E+000	3.57680E+000	10	...........
	27	0.373333	2.05655E-001	-6.01393E-003	0.00000E+000	-1.23680E-003	-3.59960E-001	-1.05187E+000	3.57680E+000	10	...........
	28	0.386667	1.99142E-001	-6.01424E-003	0.00000E+000	-1.19769E-003	-3.59960E-001	-1.05307E+000	3.57680E+000	10	...........
	29	0.4	1.92680E-001	-6.01824E-003	0.00000E+000	-1.15959E-003	-3.59960E-001	-1.06126E+000	3.57680E+000	10	...........
	30	0.413333	1.86290E-001	-6.01337E-003	0.00000E+000	-1.12023E-003	-3.59960E-001	-1.05154E+000	3.57680E+000	10	...........
	31	0.426667	1.79988E-001	-6.01369E-003	0.00000E+000	-1.08239E-003	-3.59960E-001	-1.05339E+000	3.57680E+000	10	...........
	32	0.44	1.73715E-001	-6.01368E-003	0.00000E+000	-1.04467E-003	-3.59960E-001	-1.06173E+000	3.57680E+000	10	...........
	33	0.453333	1.67485E-001	-6.01391E-003	0.00000E+000	-1.00724E-003	-3.59960E-001	-1.05187E+000	3.57680E+000	10	...........
	34	0.466667	1.61334E-001	-6.01235E-003	0.00000E+000	-9.69995E-004	-3.59960E-001	-1.05311E+000	3.57680E+000	10	...........
	35	0.48	1.55245E-001	-6.01154E-003	0.00000E+000	-9.33259E-004	-3.59960E-001	-1.06130E+000	3.57680E+000	10	...........
	36	0.493333	1.49137E-001	-6.01824E-003	0.00000E+000	-8.97542E-004	-3.59960E-001	-1.05226E+000	3.57680E+000	10	...........
	37	0.506667	1.43116E-001	-6.02024E-003	0.00000E+000	-8.61593E-004	-3.59960E-001	-1.05403E+000	3.57680E+000	10	...........
	38	0.52	1.37177E-001	-6.01509E-003	0.00000E+000	-8.25134E-004	-3.59960E-001	-1.06181E+000	3.57680E+000	10	...........
	39	0.533333	1.31269E-001	-6.01902E-003	0.00000E+000	-7.90109E-004	-3.59960E-001	-1.05231E+000	3.57680E+000	10	...........
	40	0.546667	1.25435E-001	-6.01703E-003	0.00000E+000	-7.54745E-004	-3.59960E-001	-1.05398E+000	3.57680E+000	10	...........
	41	0.56	1.19633E-001	-6.01347E-003	0.00000E+000	-7.19410E-004	-3.59960E-001	-1.06202E+000	3.57680E+000	10	...........
	42	0.573333	1.13886E-001	-6.01261E-003	0.00000E+000	-6.84755E-004	-3.59960E-001	-1.05287E+000	3.57680E+000	10	...........
	43	0.586667	1.08115E-001	-6.01815E-003	0.00000E+000	-6.50655E-004	-3.59960E-001	-1.05416E+000	3.57680E+000	10	...........
	44	0.6	1.02455E-001	-6.01192E-003	0.00000E+000	-6.15953E-004	-3.59960E-001	-1.06221E+000	3.57680E+000	10	...........
	45	0.613333	9.68588E-002	-6.01639E-003	0.00000E+000	-5.82740E-004	-3.59960E-001	-1.05274E+000	3.57680E+000	10	...........
	46	0.626667	9.12842E-002	-6.01810E-003	0.00000E+000	-5.49358E-004	-3.59960E-001	-1.05492E+000	3.57680E+000	10	...........
	47	0.64	8.57724E-002	-6.01505E-003	0.00000E+000	-5.15925E-004	-3.59960E-001	-1.06336E+000	3.57680E+000	10	...........
	48	0.653333	8.02567E-002	-6.01477E-003	0.00000E+000	-4.82725E-004	-3.59960E-001	-1.05487E+000	3.57680E+000	10	...........
	49	0.666667	7.47958E-002	-6.01593E-003	0.00000E+000	-4.49966E-004	-3.59960E-001	-1.05722E+000	3.57680E+000	10	...........
	50	0.68	6.93333E-002	-6.01341E-003	0.00000E+000	-4.16930E-004	-3.59960E-001	-1.06627E+000	3.57680E+000	10	...........
	51	0.693333	6.39434E-002	-6.01450E-003	0.00000E+000	-3.84588E-004	-3.59960E-001	-1.05831E+000	3.57680E+000	10	...........
	52	0.706667	5.85704E-002	-6.01576E-003	0.00000E+000	-3.52346E-004	-3.59960E-001	-1.06138E+000	3.57680E+000	10	...........
	53	0.72	5.32720E-002	-6.01347E-003	0.00000E+000	-3.20350E-004	-3.59960E-001	-1.07031E+000	3.57680E+000	10	...........
	54	0.733333	4.80183E-002	-6.01648E-003	0.00000E+000	-2.88901E-004	-3.59960E-001	-1.06199E+000	3.57680E+000	10	...........
	55	0.746667	4.28003E-002	-6.01200E-003	0.00000E+000	-2.57316E-004	-3.59960E-001	-1.06436E+000	3.57680E+000	10	...........
	56	0.76	3.75896E-002	-6.02119E-003	0.00000E+000	-2.26334E-004	-3.59960E-001	-1.07322E+000	3.57680E+000	10	...........
	57	0.773333	3.24604E-002	-6.01578E-003	0.00000E+000	-1.95274E-004	-3.59960E-001	-1.06442E+000	3.57680E+000	10	...........
	58	0.786667	2.73850E-002	-6.01375E-003	0.00000E+000	-1.64687E-004	-3.59960E-001	-1.06640E+000	3.57680E+000	10	...........
	59	0.8	2.22978E-002	-6.01480E-003	0.00000E+000	-1.34117E-004	-3.59960E-001	-1.07445E+000	3.57680E+000	10	...........
	60	0.813333	1.72799E-002	-6.01723E-003	0.00000E+000	-1.03977E-004	-3.59960E-001	-1.06543E+000	3.57680E+000	10	...........
	61	0.826667	1.23017E-002	-6.01562E-003	0.00000E+000	-7.40022E-005	-3.59960E-001	-1.06752E+000	3.57680E+000	10	...........
	62	0.84	7.32255E-003	-6.01579E-003	0.00000E+000	-4.40509E-005	-3.59960E-001	-1.07527E+000	3.57680E+000	10	...........
	63	0.853333	2.39123E-003	-6.01330E-003	0.00000E+000	-1.43792E-005	-3.59960E-001	-1.06631E+000	3.57680E+000	10	...........
	64	0.855	-3.83504E-004	-6.01879E-003	0.00000E+000	2.30823E-006	-3.59960E-001	-1.07908E+000	3.57680E+000	10	...........
STARTTIMEOFFSET	QUANT	375.5517	Start Time Offset (s)
