EXPLAIN
TAG	PWR800_DISCHARGE
TITLE	LABEL	PWR Cyclic Charge Discharge (Cell) - Discharge Step	Test &Identifier
DATE	LABEL	22-6-2017	Date
TIME	LABEL	15:44:39	Time
NOTES	NOTES	3	&Notes...
	supercap test cell
	0.6mg
	6M KOH
PSTAT	PSTAT	IFC5000-01520	Potentiostat
CAPACITY	QUANT	1.00000E-003	Capacity (A-hr)
CELLTYPE	SELECTOR	1	&Cell Type
WORKINGCONNECTION	SELECTOR	0	&Working Lead
MAXDISCHARGETIME	VARIABLEANDUNITS	1.00000E+002	s	1.00000E+002	second(s)	Max &Discharge Time
DISCHARGEMODE	MULTIPARAM	0	6.00000E-003	&Discharge Mode	Constant Current	Amp(s)
SAMPLETIME	QUANT	1.00000E-002	Sa&mple Period (s)
DISCHARGESTOPAT1	MULTIPARAM	3	0.00000E+000	Discharge Stop At &1	Voltage < Limit	V
DISCHARGESTOPAT2	MULTIPARAM	0	0.00000E+000	Discharge Stop At &2	None	N/A
AESBHCSELECTOR	TOGGLE	F	Save Both Half Cells
IRCOMP	TOGGLE	F	IR &Measure
EOC	QUANT	0	Open Circuit (V)
SEQUENCER	TOGGLE	TRUE	Run as Sequence
PSTATMODEL	IQUANT	53	Pstat Model
PSTATSECTION	LABEL	IFC5000-01520	Pstat Section
PSTATSERIALNO	LABEL	01520	Pstat Serial Number
CTRLMODE	IQUANT	0	Control Mode
ELECTROMETER	IQUANT	1	RE=0 or CS=1
IESTAB	IQUANT	0	I/E Stability
CASPEED	IQUANT	4	Control Amp Speed
CONVENTION	IQUANT	1	Current Convention
ICHRANGE	IQUANT	2	Ich Range
ICHRANGEMODE	TOGGLE	T	Ich Auto Range
ICHOFFSETENABLE	TOGGLE	F	Ich Offset Enable
ICHOFFSET	QUANT	0	Ich Offset (V)
ICHFILTER	IQUANT	1	Ich Filter
VCHRANGE	IQUANT	2	Vch Range
VCHRANGEMODE	TOGGLE	T	Vch Auto Range
VCHOFFSETENABLE	TOGGLE	F	Vch Offset Enable
VCHOFFSET	QUANT	0	Vch Offset (V)
VCHFILTER	IQUANT	1	Vch Filter
IERANGELOWERLIMIT	IQUANT	9	I/E Range Lower Limit
IERANGEMODE	TOGGLE	F	I/E AutoRange
IERANGE	IQUANT	10	I/E Range
ACHSELECT	IQUANT	1	Ach Select
ACHRANGE	IQUANT	2	Ach Range
ACHOFFSETENABLE	TOGGLE	F	Ach Offset Enable
ACHOFFSET	QUANT	0	Ach Offset (V)
ACHFILTER	IQUANT	1	Ach Filter
CABLEID	IQUANT	14	Cable ID
DCCALDATE	LABEL	20-10-2016	DC Calibration Date
ACCALDATE	LABEL	12/3/2015	AC Calibration Date
FRAMEWORKVERSION	QUANT	7.01	Framework Version
INSTRUMENTVERSION	LABEL	4.00	Instrument Version
CURVE	TABLE	64
	Pt	T	Vf	Im	Vu	Pwr	Sig	Ach	Temp	IERange	Over
	#	s	V	A	V	W	V	V	deg C	#	bits
	0	0.013333	4.11401E-001	-6.01250E-003	0.00000E+000	-2.47355E-003	-3.59960E-001	-1.05760E+000	3.57730E+000	10	...........
	1	0.026667	4.00990E-001	-6.01201E-003	0.00000E+000	-2.41075E-003	-3.59960E-001	-1.05211E+000	3.57730E+000	10	...........
	2	0.04	3.91295E-001	-6.01517E-003	0.00000E+000	-2.35371E-003	-3.59960E-001	-1.04851E+000	3.57730E+000	10	...........
	3	0.053333	3.82043E-001	-6.01381E-003	0.00000E+000	-2.29753E-003	-3.59960E-001	-1.05783E+000	3.57730E+000	10	...........
	4	0.066667	3.73132E-001	-6.01455E-003	0.00000E+000	-2.24422E-003	-3.59960E-001	-1.05220E+000	3.57730E+000	10	...........
	5	0.08	3.64500E-001	-6.01417E-003	0.00000E+000	-2.19216E-003	-3.59960E-001	-1.04849E+000	3.57730E+000	10	...........
	6	0.093333	3.55991E-001	-6.01417E-003	0.00000E+000	-2.14099E-003	-3.59960E-001	-1.05798E+000	3.57730E+000	10	...........
	7	0.106667	3.47662E-001	-6.01463E-003	0.00000E+000	-2.09106E-003	-3.59960E-001	-1.05242E+000	3.57730E+000	10	...........
	8	0.12	3.39504E-001	-6.01509E-003	0.00000E+000	-2.04215E-003	-3.59960E-001	-1.04901E+000	3.57730E+000	10	...........
	9	0.133333	3.31478E-001	-6.01376E-003	0.00000E+000	-1.99343E-003	-3.59960E-001	-1.05837E+000	3.57730E+000	10	...........
	10	0.146667	3.23518E-001	-6.01376E-003	0.00000E+000	-1.94556E-003	-3.59960E-001	-1.05236E+000	3.57730E+000	10	...........
	11	0.16	3.15699E-001	-6.01704E-003	0.00000E+000	-1.89957E-003	-3.59960E-001	-1.04903E+000	3.57730E+000	10	...........
	12	0.173333	3.08033E-001	-6.01187E-003	0.00000E+000	-1.85185E-003	-3.59960E-001	-1.05840E+000	3.57730E+000	10	...........
	13	0.186667	3.00423E-001	-6.01084E-003	0.00000E+000	-1.80579E-003	-3.59960E-001	-1.05273E+000	3.57730E+000	10	...........
	14	0.2	2.92899E-001	-6.01508E-003	0.00000E+000	-1.76181E-003	-3.59960E-001	-1.04922E+000	3.57730E+000	10	...........
	15	0.213333	2.85447E-001	-6.01133E-003	0.00000E+000	-1.71592E-003	-3.59960E-001	-1.05863E+000	3.57730E+000	10	...........
	16	0.226667	2.78096E-001	-6.01320E-003	0.00000E+000	-1.67224E-003	-3.59960E-001	-1.05237E+000	3.57730E+000	10	...........
	17	0.24	2.70816E-001	-6.01188E-003	0.00000E+000	-1.62812E-003	-3.59960E-001	-1.04885E+000	3.57730E+000	10	...........
	18	0.253333	2.63613E-001	-6.01369E-003	0.00000E+000	-1.58529E-003	-3.59960E-001	-1.05855E+000	3.57730E+000	10	...........
	19	0.266667	2.56494E-001	-6.01261E-003	0.00000E+000	-1.54220E-003	-3.59960E-001	-1.05239E+000	3.57730E+000	10	...........
	20	0.28	2.49455E-001	-6.01665E-003	0.00000E+000	-1.50088E-003	-3.59960E-001	-1.04895E+000	3.57730E+000	10	...........
	21	0.293333	2.42507E-001	-6.01449E-003	0.00000E+000	-1.45855E-003	-3.59960E-001	-1.05851E+000	3.57730E+000	10	...........
	22	0.306667	2.35609E-001	-6.01467E-003	0.00000E+000	-1.41711E-003	-3.59960E-001	-1.05250E+000	3.57730E+000	10	...........
	23	0.32	2.28800E-001	-6.01714E-003	0.00000E+000	-1.37672E-003	-3.59960E-001	-1.04921E+000	3.57730E+000	10	...........
	24	0.333333	2.22024E-001	-6.01517E-003	0.00000E+000	-1.33551E-003	-3.59960E-001	-1.05886E+000	3.57730E+000	10	...........
	25	0.346667	2.15330E-001	-6.01410E-003	0.00000E+000	-1.29501E-003	-3.59960E-001	-1.05255E+000	3.57685E+000	10	...........
	26	0.36	2.08731E-001	-6.01502E-003	0.00000E+000	-1.25552E-003	-3.59960E-001	-1.04933E+000	3.57670E+000	10	...........
	27	0.373333	2.02165E-001	-6.01921E-003	0.00000E+000	-1.21687E-003	-3.59960E-001	-1.05892E+000	3.57670E+000	10	...........
	28	0.386667	1.95660E-001	-6.01570E-003	0.00000E+000	-1.17703E-003	-3.59960E-001	-1.05262E+000	3.57670E+000	10	...........
	29	0.4	1.89213E-001	-6.01333E-003	0.00000E+000	-1.13780E-003	-3.59960E-001	-1.04932E+000	3.57670E+000	10	...........
	30	0.413333	1.82804E-001	-6.01853E-003	0.00000E+000	-1.10021E-003	-3.59960E-001	-1.05884E+000	3.57670E+000	10	...........
	31	0.426667	1.76462E-001	-6.01578E-003	0.00000E+000	-1.06156E-003	-3.59960E-001	-1.05239E+000	3.57670E+000	10	...........
	32	0.44	1.70155E-001	-6.01855E-003	0.00000E+000	-1.02409E-003	-3.59960E-001	-1.04952E+000	3.57670E+000	10	...........
	33	0.453333	1.63968E-001	-6.01781E-003	0.00000E+000	-9.86726E-004	-3.59960E-001	-1.05922E+000	3.57670E+000	10	...........
	34	0.466667	1.57829E-001	-6.01428E-003	0.00000E+000	-9.49229E-004	-3.59960E-001	-1.05281E+000	3.57670E+000	10	...........
	35	0.48	1.51699E-001	-6.01198E-003	0.00000E+000	-9.12010E-004	-3.59960E-001	-1.04986E+000	3.57670E+000	10	...........
	36	0.493333	1.45641E-001	-6.01839E-003	0.00000E+000	-8.76524E-004	-3.59960E-001	-1.05924E+000	3.57670E+000	10	...........
	37	0.506667	1.39683E-001	-6.01444E-003	0.00000E+000	-8.40114E-004	-3.59960E-001	-1.05310E+000	3.57670E+000	10	...........
	38	0.52	1.33709E-001	-6.01566E-003	0.00000E+000	-8.04347E-004	-3.59960E-001	-1.04985E+000	3.57670E+000	10	...........
	39	0.533333	1.27770E-001	-6.01389E-003	0.00000E+000	-7.68396E-004	-3.59960E-001	-1.05965E+000	3.57670E+000	10	...........
	40	0.546667	1.21879E-001	-6.01823E-003	0.00000E+000	-7.33496E-004	-3.59960E-001	-1.05287E+000	3.57670E+000	10	...........
	41	0.56	1.16048E-001	-6.01855E-003	0.00000E+000	-6.98441E-004	-3.59960E-001	-1.04962E+000	3.57670E+000	10	...........
	42	0.573333	1.10292E-001	-6.01916E-003	0.00000E+000	-6.63864E-004	-3.59960E-001	-1.05933E+000	3.57670E+000	10	...........
	43	0.586667	1.04601E-001	-6.01207E-003	0.00000E+000	-6.28868E-004	-3.59960E-001	-1.05279E+000	3.57670E+000	10	...........
	44	0.6	9.89234E-002	-6.01372E-003	0.00000E+000	-5.94898E-004	-3.59960E-001	-1.04973E+000	3.57670E+000	10	...........
	45	0.613333	9.32961E-002	-6.01675E-003	0.00000E+000	-5.61339E-004	-3.59960E-001	-1.05944E+000	3.57670E+000	10	...........
	46	0.626667	8.77038E-002	-6.01156E-003	0.00000E+000	-5.27237E-004	-3.59960E-001	-1.05274E+000	3.57670E+000	10	...........
	47	0.64	8.21368E-002	-6.01485E-003	0.00000E+000	-4.94041E-004	-3.59960E-001	-1.04972E+000	3.57670E+000	10	...........
	48	0.653333	7.66076E-002	-6.01648E-003	0.00000E+000	-4.60908E-004	-3.59960E-001	-1.05952E+000	3.57670E+000	10	...........
	49	0.666667	7.11965E-002	-6.00956E-003	0.00000E+000	-4.27859E-004	-3.59960E-001	-1.05288E+000	3.57670E+000	10	...........
	50	0.68	6.57696E-002	-6.01574E-003	0.00000E+000	-3.95652E-004	-3.59960E-001	-1.04990E+000	3.57670E+000	10	...........
	51	0.693333	6.03486E-002	-6.01712E-003	0.00000E+000	-3.63125E-004	-3.59960E-001	-1.05939E+000	3.57670E+000	10	...........
	52	0.706667	5.49882E-002	-6.01800E-003	0.00000E+000	-3.30919E-004	-3.59960E-001	-1.05275E+000	3.57670E+000	10	...........
	53	0.72	4.97119E-002	-6.01485E-003	0.00000E+000	-2.99010E-004	-3.59960E-001	-1.04987E+000	3.57670E+000	10	...........
	54	0.733333	4.44977E-002	-6.01829E-003	0.00000E+000	-2.67800E-004	-3.59960E-001	-1.05993E+000	3.57670E+000	10	...........
	55	0.746667	3.92776E-002	-6.01674E-003	0.00000E+000	-2.36323E-004	-3.59960E-001	-1.05283E+000	3.57670E+000	10	...........
	56	0.76	3.40958E-002	-6.01450E-003	0.00000E+000	-2.05069E-004	-3.59960E-001	-1.04996E+000	3.57670E+000	10	...........
	57	0.773333	2.89406E-002	-6.01179E-003	0.00000E+000	-1.73985E-004	-3.59960E-001	-1.05990E+000	3.57670E+000	10	...........
	58	0.786667	2.38572E-002	-6.01374E-003	0.00000E+000	-1.43471E-004	-3.59960E-001	-1.05293E+000	3.57670E+000	10	...........
	59	0.8	1.87723E-002	-6.01410E-003	0.00000E+000	-1.12898E-004	-3.59960E-001	-1.05029E+000	3.57670E+000	10	...........
	60	0.813333	1.37266E-002	-6.01709E-003	0.00000E+000	-8.25943E-005	-3.59960E-001	-1.05996E+000	3.57670E+000	10	...........
	61	0.826667	8.76104E-003	-6.01373E-003	0.00000E+000	-5.26865E-005	-3.59960E-001	-1.05280E+000	3.57670E+000	10	...........
	62	0.84	3.80805E-003	-6.01423E-003	0.00000E+000	-2.29025E-005	-3.59960E-001	-1.05006E+000	3.57670E+000	10	...........
	63	0.845	4.20415E-004	-6.02199E-003	0.00000E+000	-2.53174E-006	-3.59960E-001	-1.06244E+000	3.57670E+000	10	...........
STARTTIMEOFFSET	QUANT	408.0583	Start Time Offset (s)
