EXPLAIN
TAG	PWR800_DISCHARGE
TITLE	LABEL	PWR Cyclic Charge Discharge (Cell) - Discharge Step	Test &Identifier
DATE	LABEL	22-6-2017	Date
TIME	LABEL	15:50:55	Time
NOTES	NOTES	3	&Notes...
	supercap test cell
	0.6mg
	6M KOH
PSTAT	PSTAT	IFC5000-01520	Potentiostat
CAPACITY	QUANT	1.00000E-003	Capacity (A-hr)
CELLTYPE	SELECTOR	1	&Cell Type
WORKINGCONNECTION	SELECTOR	0	&Working Lead
MAXDISCHARGETIME	VARIABLEANDUNITS	1.00000E+002	s	1.00000E+002	second(s)	Max &Discharge Time
DISCHARGEMODE	MULTIPARAM	0	6.00000E-003	&Discharge Mode	Constant Current	Amp(s)
SAMPLETIME	QUANT	1.00000E-002	Sa&mple Period (s)
DISCHARGESTOPAT1	MULTIPARAM	3	0.00000E+000	Discharge Stop At &1	Voltage < Limit	V
DISCHARGESTOPAT2	MULTIPARAM	0	0.00000E+000	Discharge Stop At &2	None	N/A
AESBHCSELECTOR	TOGGLE	F	Save Both Half Cells
IRCOMP	TOGGLE	F	IR &Measure
EOC	QUANT	0	Open Circuit (V)
SEQUENCER	TOGGLE	TRUE	Run as Sequence
PSTATMODEL	IQUANT	53	Pstat Model
PSTATSECTION	LABEL	IFC5000-01520	Pstat Section
PSTATSERIALNO	LABEL	01520	Pstat Serial Number
CTRLMODE	IQUANT	0	Control Mode
ELECTROMETER	IQUANT	1	RE=0 or CS=1
IESTAB	IQUANT	0	I/E Stability
CASPEED	IQUANT	4	Control Amp Speed
CONVENTION	IQUANT	1	Current Convention
ICHRANGE	IQUANT	2	Ich Range
ICHRANGEMODE	TOGGLE	T	Ich Auto Range
ICHOFFSETENABLE	TOGGLE	F	Ich Offset Enable
ICHOFFSET	QUANT	0	Ich Offset (V)
ICHFILTER	IQUANT	1	Ich Filter
VCHRANGE	IQUANT	2	Vch Range
VCHRANGEMODE	TOGGLE	T	Vch Auto Range
VCHOFFSETENABLE	TOGGLE	F	Vch Offset Enable
VCHOFFSET	QUANT	0	Vch Offset (V)
VCHFILTER	IQUANT	1	Vch Filter
IERANGELOWERLIMIT	IQUANT	9	I/E Range Lower Limit
IERANGEMODE	TOGGLE	F	I/E AutoRange
IERANGE	IQUANT	10	I/E Range
ACHSELECT	IQUANT	1	Ach Select
ACHRANGE	IQUANT	2	Ach Range
ACHOFFSETENABLE	TOGGLE	F	Ach Offset Enable
ACHOFFSET	QUANT	0	Ach Offset (V)
ACHFILTER	IQUANT	1	Ach Filter
CABLEID	IQUANT	14	Cable ID
DCCALDATE	LABEL	20-10-2016	DC Calibration Date
ACCALDATE	LABEL	12/3/2015	AC Calibration Date
FRAMEWORKVERSION	QUANT	7.01	Framework Version
INSTRUMENTVERSION	LABEL	4.00	Instrument Version
CURVE	TABLE	60
	Pt	T	Vf	Im	Vu	Pwr	Sig	Ach	Temp	IERange	Over
	#	s	V	A	V	W	V	V	deg C	#	bits
	0	0.013333	4.01671E-001	-6.01868E-003	0.00000E+000	-2.41753E-003	-3.59960E-001	-1.09399E+000	3.57660E+000	10	...........
	1	0.026667	3.90806E-001	-6.01653E-003	0.00000E+000	-2.35130E-003	-3.59960E-001	-1.08384E+000	3.57660E+000	10	...........
	2	0.04	3.80712E-001	-6.01537E-003	0.00000E+000	-2.29012E-003	-3.59960E-001	-1.08710E+000	3.57660E+000	10	...........
	3	0.053333	3.71070E-001	-6.01689E-003	0.00000E+000	-2.23269E-003	-3.59960E-001	-1.09425E+000	3.57660E+000	10	...........
	4	0.066667	3.61869E-001	-6.01397E-003	0.00000E+000	-2.17627E-003	-3.59960E-001	-1.08405E+000	3.57660E+000	10	...........
	5	0.08	3.52900E-001	-6.01381E-003	0.00000E+000	-2.12227E-003	-3.59960E-001	-1.08764E+000	3.57660E+000	10	...........
	6	0.093333	3.44107E-001	-6.01501E-003	0.00000E+000	-2.06981E-003	-3.59960E-001	-1.09442E+000	3.57660E+000	10	...........
	7	0.106667	3.35555E-001	-6.01470E-003	0.00000E+000	-2.01826E-003	-3.59960E-001	-1.08425E+000	3.57660E+000	10	...........
	8	0.12	3.27193E-001	-6.02083E-003	0.00000E+000	-1.96997E-003	-3.59960E-001	-1.08773E+000	3.57660E+000	10	...........
	9	0.133333	3.18865E-001	-6.01657E-003	0.00000E+000	-1.91848E-003	-3.59960E-001	-1.09473E+000	3.57660E+000	10	...........
	10	0.146667	3.10705E-001	-6.01356E-003	0.00000E+000	-1.86844E-003	-3.59960E-001	-1.08435E+000	3.57660E+000	10	...........
	11	0.16	3.02666E-001	-6.01510E-003	0.00000E+000	-1.82057E-003	-3.59960E-001	-1.08792E+000	3.57660E+000	10	...........
	12	0.173333	2.94699E-001	-6.00882E-003	0.00000E+000	-1.77079E-003	-3.59960E-001	-1.09465E+000	3.57660E+000	10	...........
	13	0.186667	2.86869E-001	-6.01696E-003	0.00000E+000	-1.72608E-003	-3.59960E-001	-1.08422E+000	3.57660E+000	10	...........
	14	0.2	2.79139E-001	-6.01458E-003	0.00000E+000	-1.67890E-003	-3.59960E-001	-1.08780E+000	3.57660E+000	10	...........
	15	0.213333	2.71483E-001	-6.01540E-003	0.00000E+000	-1.63308E-003	-3.59960E-001	-1.09466E+000	3.57660E+000	10	...........
	16	0.226667	2.63906E-001	-6.01649E-003	0.00000E+000	-1.58779E-003	-3.59960E-001	-1.08435E+000	3.57660E+000	10	...........
	17	0.24	2.56470E-001	-6.01412E-003	0.00000E+000	-1.54244E-003	-3.59960E-001	-1.08826E+000	3.57660E+000	10	...........
	18	0.253333	2.49063E-001	-6.01559E-003	0.00000E+000	-1.49826E-003	-3.59960E-001	-1.09507E+000	3.57660E+000	10	...........
	19	0.266667	2.41802E-001	-6.01331E-003	0.00000E+000	-1.45403E-003	-3.59960E-001	-1.08461E+000	3.57660E+000	10	...........
	20	0.28	2.34567E-001	-6.01774E-003	0.00000E+000	-1.41156E-003	-3.59960E-001	-1.08821E+000	3.57660E+000	10	...........
	21	0.293333	2.27430E-001	-6.01337E-003	0.00000E+000	-1.36762E-003	-3.59960E-001	-1.09505E+000	3.57660E+000	10	...........
	22	0.306667	2.20371E-001	-6.01299E-003	0.00000E+000	-1.32509E-003	-3.59960E-001	-1.08489E+000	3.57660E+000	10	...........
	23	0.32	2.13355E-001	-6.01689E-003	0.00000E+000	-1.28374E-003	-3.59960E-001	-1.08862E+000	3.57660E+000	10	...........
	24	0.333333	2.06376E-001	-6.01574E-003	0.00000E+000	-1.24150E-003	-3.59960E-001	-1.09515E+000	3.57660E+000	10	...........
	25	0.346667	1.99564E-001	-6.01537E-003	0.00000E+000	-1.20045E-003	-3.59960E-001	-1.08478E+000	3.57660E+000	10	...........
	26	0.36	1.92782E-001	-6.01842E-003	0.00000E+000	-1.16024E-003	-3.59960E-001	-1.08861E+000	3.57660E+000	10	...........
	27	0.373333	1.86073E-001	-6.01467E-003	0.00000E+000	-1.11917E-003	-3.59960E-001	-1.09524E+000	3.57660E+000	10	...........
	28	0.386667	1.79408E-001	-6.01409E-003	0.00000E+000	-1.07898E-003	-3.59960E-001	-1.08528E+000	3.57660E+000	10	...........
	29	0.4	1.72815E-001	-6.01463E-003	0.00000E+000	-1.03942E-003	-3.59960E-001	-1.08894E+000	3.57660E+000	10	...........
	30	0.413333	1.66284E-001	-6.01884E-003	0.00000E+000	-1.00084E-003	-3.59960E-001	-1.09547E+000	3.57660E+000	10	...........
	31	0.426667	1.59878E-001	-6.01285E-003	0.00000E+000	-9.61322E-004	-3.59960E-001	-1.08522E+000	3.57660E+000	10	...........
	32	0.44	1.53444E-001	-6.01188E-003	0.00000E+000	-9.22486E-004	-3.59960E-001	-1.08915E+000	3.57660E+000	10	...........
	33	0.453333	1.47126E-001	-6.01047E-003	0.00000E+000	-8.84294E-004	-3.59960E-001	-1.09567E+000	3.57660E+000	10	...........
	34	0.466667	1.40821E-001	-6.01032E-003	0.00000E+000	-8.46380E-004	-3.59960E-001	-1.08535E+000	3.57660E+000	10	...........
	35	0.48	1.34589E-001	-6.01471E-003	0.00000E+000	-8.09517E-004	-3.59960E-001	-1.08917E+000	3.57660E+000	10	...........
	36	0.493333	1.28423E-001	-6.01825E-003	0.00000E+000	-7.72880E-004	-3.59960E-001	-1.09510E+000	3.57660E+000	10	...........
	37	0.506667	1.22324E-001	-6.01196E-003	0.00000E+000	-7.35408E-004	-3.59960E-001	-1.08511E+000	3.57660E+000	10	...........
	38	0.52	1.16247E-001	-6.01991E-003	0.00000E+000	-6.99796E-004	-3.59960E-001	-1.08892E+000	3.57660E+000	10	...........
	39	0.533333	1.10289E-001	-6.01847E-003	0.00000E+000	-6.63768E-004	-3.59960E-001	-1.09551E+000	3.57660E+000	10	...........
	40	0.546667	1.04351E-001	-6.01854E-003	0.00000E+000	-6.28041E-004	-3.59960E-001	-1.08497E+000	3.57660E+000	10	...........
	41	0.56	9.84426E-002	-6.01298E-003	0.00000E+000	-5.91933E-004	-3.59960E-001	-1.08888E+000	3.57660E+000	10	...........
	42	0.573333	9.26226E-002	-6.01269E-003	0.00000E+000	-5.56911E-004	-3.59960E-001	-1.09537E+000	3.57660E+000	10	...........
	43	0.586667	8.68478E-002	-6.01502E-003	0.00000E+000	-5.22391E-004	-3.59960E-001	-1.08513E+000	3.57660E+000	10	...........
	44	0.6	8.10745E-002	-6.01919E-003	0.00000E+000	-4.88003E-004	-3.59960E-001	-1.08893E+000	3.57660E+000	10	...........
	45	0.613333	7.53761E-002	-6.02003E-003	0.00000E+000	-4.53767E-004	-3.59960E-001	-1.09511E+000	3.57660E+000	10	...........
	46	0.626667	6.97393E-002	-6.01093E-003	0.00000E+000	-4.19198E-004	-3.59960E-001	-1.08491E+000	3.57660E+000	10	...........
	47	0.64	6.41442E-002	-6.01959E-003	0.00000E+000	-3.86122E-004	-3.59960E-001	-1.08915E+000	3.57660E+000	10	...........
	48	0.653333	5.86011E-002	-6.01459E-003	0.00000E+000	-3.52461E-004	-3.59960E-001	-1.09528E+000	3.57660E+000	10	...........
	49	0.666667	5.30904E-002	-6.01147E-003	0.00000E+000	-3.19151E-004	-3.59960E-001	-1.08520E+000	3.57660E+000	10	...........
	50	0.68	4.76095E-002	-6.01547E-003	0.00000E+000	-2.86394E-004	-3.59960E-001	-1.08915E+000	3.57660E+000	10	...........
	51	0.693333	4.22313E-002	-6.01485E-003	0.00000E+000	-2.54015E-004	-3.59960E-001	-1.09517E+000	3.57660E+000	10	...........
	52	0.706667	3.68614E-002	-6.01277E-003	0.00000E+000	-2.21639E-004	-3.59960E-001	-1.08550E+000	3.57660E+000	10	...........
	53	0.72	3.15420E-002	-6.01390E-003	0.00000E+000	-1.89691E-004	-3.59960E-001	-1.08978E+000	3.57660E+000	10	...........
	54	0.733333	2.62385E-002	-6.00988E-003	0.00000E+000	-1.57690E-004	-3.59960E-001	-1.09571E+000	3.57660E+000	10	...........
	55	0.746667	2.10538E-002	-6.01262E-003	0.00000E+000	-1.26589E-004	-3.59960E-001	-1.08575E+000	3.57660E+000	10	...........
	56	0.76	1.58540E-002	-6.01508E-003	0.00000E+000	-9.53630E-005	-3.59960E-001	-1.08973E+000	3.57660E+000	10	...........
	57	0.773333	1.06660E-002	-6.01556E-003	0.00000E+000	-6.41617E-005	-3.59960E-001	-1.09580E+000	3.57660E+000	10	...........
	58	0.786667	5.54737E-003	-6.01570E-003	0.00000E+000	-3.33713E-005	-3.59960E-001	-1.08583E+000	3.57660E+000	10	...........
	59	0.796667	1.07841E-003	-6.01484E-003	0.00000E+000	-6.48645E-006	-3.59960E-001	-1.09563E+000	3.57660E+000	10	...........
STARTTIMEOFFSET	QUANT	660.4431	Start Time Offset (s)
