EXPLAIN
TAG	PWR800_DISCHARGE
TITLE	LABEL	PWR Cyclic Charge Discharge (Cell) - Discharge Step	Test &Identifier
DATE	LABEL	22-6-2017	Date
TIME	LABEL	15:56:10	Time
NOTES	NOTES	3	&Notes...
	supercap test cell
	0.6mg
	6M KOH
PSTAT	PSTAT	IFC5000-01520	Potentiostat
CAPACITY	QUANT	1.00000E-003	Capacity (A-hr)
CELLTYPE	SELECTOR	1	&Cell Type
WORKINGCONNECTION	SELECTOR	0	&Working Lead
MAXDISCHARGETIME	VARIABLEANDUNITS	1.00000E+002	s	1.00000E+002	second(s)	Max &Discharge Time
DISCHARGEMODE	MULTIPARAM	0	6.00000E-003	&Discharge Mode	Constant Current	Amp(s)
SAMPLETIME	QUANT	1.00000E-002	Sa&mple Period (s)
DISCHARGESTOPAT1	MULTIPARAM	3	0.00000E+000	Discharge Stop At &1	Voltage < Limit	V
DISCHARGESTOPAT2	MULTIPARAM	0	0.00000E+000	Discharge Stop At &2	None	N/A
AESBHCSELECTOR	TOGGLE	F	Save Both Half Cells
IRCOMP	TOGGLE	F	IR &Measure
EOC	QUANT	0	Open Circuit (V)
SEQUENCER	TOGGLE	TRUE	Run as Sequence
PSTATMODEL	IQUANT	53	Pstat Model
PSTATSECTION	LABEL	IFC5000-01520	Pstat Section
PSTATSERIALNO	LABEL	01520	Pstat Serial Number
CTRLMODE	IQUANT	0	Control Mode
ELECTROMETER	IQUANT	1	RE=0 or CS=1
IESTAB	IQUANT	0	I/E Stability
CASPEED	IQUANT	4	Control Amp Speed
CONVENTION	IQUANT	1	Current Convention
ICHRANGE	IQUANT	2	Ich Range
ICHRANGEMODE	TOGGLE	T	Ich Auto Range
ICHOFFSETENABLE	TOGGLE	F	Ich Offset Enable
ICHOFFSET	QUANT	0	Ich Offset (V)
ICHFILTER	IQUANT	1	Ich Filter
VCHRANGE	IQUANT	2	Vch Range
VCHRANGEMODE	TOGGLE	T	Vch Auto Range
VCHOFFSETENABLE	TOGGLE	F	Vch Offset Enable
VCHOFFSET	QUANT	0	Vch Offset (V)
VCHFILTER	IQUANT	1	Vch Filter
IERANGELOWERLIMIT	IQUANT	9	I/E Range Lower Limit
IERANGEMODE	TOGGLE	F	I/E AutoRange
IERANGE	IQUANT	10	I/E Range
ACHSELECT	IQUANT	1	Ach Select
ACHRANGE	IQUANT	2	Ach Range
ACHOFFSETENABLE	TOGGLE	F	Ach Offset Enable
ACHOFFSET	QUANT	0	Ach Offset (V)
ACHFILTER	IQUANT	1	Ach Filter
CABLEID	IQUANT	14	Cable ID
DCCALDATE	LABEL	20-10-2016	DC Calibration Date
ACCALDATE	LABEL	12/3/2015	AC Calibration Date
FRAMEWORKVERSION	QUANT	7.01	Framework Version
INSTRUMENTVERSION	LABEL	4.00	Instrument Version
CURVE	TABLE	58
	Pt	T	Vf	Im	Vu	Pwr	Sig	Ach	Temp	IERange	Over
	#	s	V	A	V	W	V	V	deg C	#	bits
	0	0.013333	3.94432E-001	-6.01625E-003	0.00000E+000	-2.37300E-003	-3.59960E-001	-1.09117E+000	3.57820E+000	10	...........
	1	0.026667	3.83319E-001	-6.01506E-003	0.00000E+000	-2.30568E-003	-3.59960E-001	-1.08155E+000	3.57820E+000	10	...........
	2	0.04	3.73013E-001	-6.01736E-003	0.00000E+000	-2.24455E-003	-3.59960E-001	-1.08482E+000	3.57820E+000	10	...........
	3	0.053333	3.63231E-001	-6.01673E-003	0.00000E+000	-2.18546E-003	-3.59960E-001	-1.09138E+000	3.57820E+000	10	...........
	4	0.066667	3.53838E-001	-6.01698E-003	0.00000E+000	-2.12903E-003	-3.59960E-001	-1.08213E+000	3.57820E+000	10	...........
	5	0.08	3.44679E-001	-6.01103E-003	0.00000E+000	-2.07188E-003	-3.59960E-001	-1.08584E+000	3.57820E+000	10	...........
	6	0.093333	3.35762E-001	-6.01889E-003	0.00000E+000	-2.02092E-003	-3.59960E-001	-1.09219E+000	3.57820E+000	10	...........
	7	0.106667	3.27017E-001	-6.01470E-003	0.00000E+000	-1.96691E-003	-3.59960E-001	-1.08271E+000	3.57820E+000	10	...........
	8	0.12	3.18445E-001	-6.01161E-003	0.00000E+000	-1.91437E-003	-3.59960E-001	-1.08640E+000	3.57820E+000	10	...........
	9	0.133333	3.10024E-001	-6.01877E-003	0.00000E+000	-1.86596E-003	-3.59960E-001	-1.09260E+000	3.57820E+000	10	...........
	10	0.146667	3.01696E-001	-6.01362E-003	0.00000E+000	-1.81428E-003	-3.59960E-001	-1.08312E+000	3.57820E+000	10	...........
	11	0.16	2.93506E-001	-6.01204E-003	0.00000E+000	-1.76457E-003	-3.59960E-001	-1.08635E+000	3.57820E+000	10	...........
	12	0.173333	2.85424E-001	-6.01461E-003	0.00000E+000	-1.71671E-003	-3.59960E-001	-1.09203E+000	3.57820E+000	10	...........
	13	0.186667	2.77443E-001	-6.01311E-003	0.00000E+000	-1.66829E-003	-3.59960E-001	-1.08274E+000	3.57820E+000	10	...........
	14	0.2	2.69594E-001	-6.01405E-003	0.00000E+000	-1.62135E-003	-3.59960E-001	-1.08679E+000	3.57820E+000	10	...........
	15	0.213333	2.61803E-001	-6.01474E-003	0.00000E+000	-1.57468E-003	-3.59960E-001	-1.09227E+000	3.57820E+000	10	...........
	16	0.226667	2.54118E-001	-6.01796E-003	0.00000E+000	-1.52927E-003	-3.59960E-001	-1.08284E+000	3.57820E+000	10	...........
	17	0.24	2.46551E-001	-6.01467E-003	0.00000E+000	-1.48292E-003	-3.59960E-001	-1.08673E+000	3.57820E+000	10	...........
	18	0.253333	2.39038E-001	-6.01502E-003	0.00000E+000	-1.43781E-003	-3.59960E-001	-1.09196E+000	3.57820E+000	10	...........
	19	0.266667	2.31610E-001	-6.01173E-003	0.00000E+000	-1.39237E-003	-3.59960E-001	-1.08238E+000	3.57820E+000	10	...........
	20	0.28	2.24260E-001	-6.01811E-003	0.00000E+000	-1.34962E-003	-3.59960E-001	-1.08624E+000	3.57820E+000	10	...........
	21	0.293333	2.16996E-001	-6.01653E-003	0.00000E+000	-1.30556E-003	-3.59960E-001	-1.09128E+000	3.57820E+000	10	...........
	22	0.306667	2.09811E-001	-6.01305E-003	0.00000E+000	-1.26161E-003	-3.59960E-001	-1.08160E+000	3.57820E+000	10	...........
	23	0.32	2.02726E-001	-6.01442E-003	0.00000E+000	-1.21928E-003	-3.59960E-001	-1.08592E+000	3.57820E+000	10	...........
	24	0.333333	1.95722E-001	-6.01320E-003	0.00000E+000	-1.17692E-003	-3.59960E-001	-1.09109E+000	3.57820E+000	10	...........
	25	0.346667	1.88782E-001	-6.01541E-003	0.00000E+000	-1.13560E-003	-3.59960E-001	-1.08172E+000	3.57820E+000	10	...........
	26	0.36	1.81900E-001	-6.01593E-003	0.00000E+000	-1.09430E-003	-3.59960E-001	-1.08525E+000	3.57820E+000	10	...........
	27	0.373333	1.75072E-001	-6.01711E-003	0.00000E+000	-1.05343E-003	-3.59960E-001	-1.09012E+000	3.57820E+000	10	...........
	28	0.386667	1.68377E-001	-6.00978E-003	0.00000E+000	-1.01191E-003	-3.59960E-001	-1.08086E+000	3.57820E+000	10	...........
	29	0.4	1.61687E-001	-6.01648E-003	0.00000E+000	-9.72787E-004	-3.59960E-001	-1.08540E+000	3.57820E+000	10	...........
	30	0.413333	1.55093E-001	-6.02137E-003	0.00000E+000	-9.33869E-004	-3.59960E-001	-1.09034E+000	3.57820E+000	10	...........
	31	0.426667	1.48552E-001	-6.01702E-003	0.00000E+000	-8.93838E-004	-3.59960E-001	-1.08154E+000	3.57820E+000	10	...........
	32	0.44	1.42125E-001	-6.01003E-003	0.00000E+000	-8.54173E-004	-3.59960E-001	-1.08604E+000	3.57797E+000	10	...........
	33	0.453333	1.35701E-001	-6.01751E-003	0.00000E+000	-8.16583E-004	-3.59960E-001	-1.09069E+000	3.57640E+000	10	...........
	34	0.466667	1.29366E-001	-6.01252E-003	0.00000E+000	-7.77816E-004	-3.59960E-001	-1.08207E+000	3.57640E+000	10	...........
	35	0.48	1.23075E-001	-6.01720E-003	0.00000E+000	-7.40564E-004	-3.59960E-001	-1.08618E+000	3.57640E+000	10	...........
	36	0.493333	1.16853E-001	-6.01864E-003	0.00000E+000	-7.03296E-004	-3.59960E-001	-1.09028E+000	3.57640E+000	10	...........
	37	0.506667	1.10685E-001	-6.02146E-003	0.00000E+000	-6.66488E-004	-3.59960E-001	-1.08127E+000	3.57640E+000	10	...........
	38	0.52	1.04606E-001	-6.01387E-003	0.00000E+000	-6.29090E-004	-3.59960E-001	-1.08605E+000	3.57640E+000	10	...........
	39	0.533333	9.85708E-002	-6.01050E-003	0.00000E+000	-5.92460E-004	-3.59960E-001	-1.09040E+000	3.57640E+000	10	...........
	40	0.546667	9.25495E-002	-6.01602E-003	0.00000E+000	-5.56779E-004	-3.59960E-001	-1.08152E+000	3.57640E+000	10	...........
	41	0.56	8.66207E-002	-6.01395E-003	0.00000E+000	-5.20933E-004	-3.59960E-001	-1.08612E+000	3.57640E+000	10	...........
	42	0.573333	8.07665E-002	-6.01729E-003	0.00000E+000	-4.85996E-004	-3.59960E-001	-1.08994E+000	3.57640E+000	10	...........
	43	0.586667	7.49856E-002	-6.01242E-003	0.00000E+000	-4.50845E-004	-3.59960E-001	-1.08115E+000	3.57640E+000	10	...........
	44	0.6	6.91657E-002	-6.01774E-003	0.00000E+000	-4.16221E-004	-3.59960E-001	-1.08632E+000	3.57640E+000	10	...........
	45	0.613333	6.34555E-002	-6.01691E-003	0.00000E+000	-3.81806E-004	-3.59960E-001	-1.08943E+000	3.57640E+000	10	...........
	46	0.626667	5.77658E-002	-6.01380E-003	0.00000E+000	-3.47392E-004	-3.59960E-001	-1.08045E+000	3.57640E+000	10	...........
	47	0.64	5.21096E-002	-6.01522E-003	0.00000E+000	-3.13451E-004	-3.59960E-001	-1.08530E+000	3.57640E+000	10	...........
	48	0.653333	4.65750E-002	-6.01515E-003	0.00000E+000	-2.80156E-004	-3.59960E-001	-1.08889E+000	3.57640E+000	10	...........
	49	0.666667	4.10662E-002	-6.01189E-003	0.00000E+000	-2.46885E-004	-3.59960E-001	-1.08083E+000	3.57640E+000	10	...........
	50	0.68	3.55585E-002	-6.01988E-003	0.00000E+000	-2.14058E-004	-3.59960E-001	-1.08557E+000	3.57640E+000	10	...........
	51	0.693333	3.01603E-002	-6.01397E-003	0.00000E+000	-1.81383E-004	-3.59960E-001	-1.08879E+000	3.57640E+000	10	...........
	52	0.706667	2.48107E-002	-6.01611E-003	0.00000E+000	-1.49264E-004	-3.59960E-001	-1.08034E+000	3.57640E+000	10	...........
	53	0.72	1.94311E-002	-6.01399E-003	0.00000E+000	-1.16858E-004	-3.59960E-001	-1.08568E+000	3.57640E+000	10	...........
	54	0.733333	1.41643E-002	-6.01963E-003	0.00000E+000	-8.52637E-005	-3.59960E-001	-1.08917E+000	3.57640E+000	10	...........
	55	0.746667	8.90884E-003	-6.01498E-003	0.00000E+000	-5.35865E-005	-3.59960E-001	-1.08129E+000	3.57640E+000	10	...........
	56	0.76	3.68986E-003	-6.01425E-003	0.00000E+000	-2.21918E-005	-3.59960E-001	-1.08648E+000	3.57640E+000	10	...........
	57	0.765	1.13110E-004	-6.01462E-003	0.00000E+000	-6.80312E-007	-3.59960E-001	-1.08073E+000	3.57640E+000	10	...........
STARTTIMEOFFSET	QUANT	869.0336	Start Time Offset (s)
