EXPLAIN
TAG	PWR800_DISCHARGE
TITLE	LABEL	PWR Cyclic Charge Discharge (Cell) - Discharge Step	Test &Identifier
DATE	LABEL	22-6-2017	Date
TIME	LABEL	16:08:14	Time
NOTES	NOTES	3	&Notes...
	supercap test cell
	0.6mg
	6M KOH
PSTAT	PSTAT	IFC5000-01520	Potentiostat
CAPACITY	QUANT	1.00000E-003	Capacity (A-hr)
CELLTYPE	SELECTOR	1	&Cell Type
WORKINGCONNECTION	SELECTOR	0	&Working Lead
MAXDISCHARGETIME	VARIABLEANDUNITS	1.00000E+002	s	1.00000E+002	second(s)	Max &Discharge Time
DISCHARGEMODE	MULTIPARAM	0	6.00000E-003	&Discharge Mode	Constant Current	Amp(s)
SAMPLETIME	QUANT	1.00000E-002	Sa&mple Period (s)
DISCHARGESTOPAT1	MULTIPARAM	3	0.00000E+000	Discharge Stop At &1	Voltage < Limit	V
DISCHARGESTOPAT2	MULTIPARAM	0	0.00000E+000	Discharge Stop At &2	None	N/A
AESBHCSELECTOR	TOGGLE	F	Save Both Half Cells
IRCOMP	TOGGLE	F	IR &Measure
EOC	QUANT	0	Open Circuit (V)
SEQUENCER	TOGGLE	TRUE	Run as Sequence
PSTATMODEL	IQUANT	53	Pstat Model
PSTATSECTION	LABEL	IFC5000-01520	Pstat Section
PSTATSERIALNO	LABEL	01520	Pstat Serial Number
CTRLMODE	IQUANT	0	Control Mode
ELECTROMETER	IQUANT	1	RE=0 or CS=1
IESTAB	IQUANT	0	I/E Stability
CASPEED	IQUANT	4	Control Amp Speed
CONVENTION	IQUANT	1	Current Convention
ICHRANGE	IQUANT	2	Ich Range
ICHRANGEMODE	TOGGLE	T	Ich Auto Range
ICHOFFSETENABLE	TOGGLE	F	Ich Offset Enable
ICHOFFSET	QUANT	0	Ich Offset (V)
ICHFILTER	IQUANT	1	Ich Filter
VCHRANGE	IQUANT	2	Vch Range
VCHRANGEMODE	TOGGLE	T	Vch Auto Range
VCHOFFSETENABLE	TOGGLE	F	Vch Offset Enable
VCHOFFSET	QUANT	0	Vch Offset (V)
VCHFILTER	IQUANT	1	Vch Filter
IERANGELOWERLIMIT	IQUANT	9	I/E Range Lower Limit
IERANGEMODE	TOGGLE	F	I/E AutoRange
IERANGE	IQUANT	10	I/E Range
ACHSELECT	IQUANT	1	Ach Select
ACHRANGE	IQUANT	2	Ach Range
ACHOFFSETENABLE	TOGGLE	F	Ach Offset Enable
ACHOFFSET	QUANT	0	Ach Offset (V)
ACHFILTER	IQUANT	1	Ach Filter
CABLEID	IQUANT	14	Cable ID
DCCALDATE	LABEL	20-10-2016	DC Calibration Date
ACCALDATE	LABEL	12/3/2015	AC Calibration Date
FRAMEWORKVERSION	QUANT	7.01	Framework Version
INSTRUMENTVERSION	LABEL	4.00	Instrument Version
CURVE	TABLE	54
	Pt	T	Vf	Im	Vu	Pwr	Sig	Ach	Temp	IERange	Over
	#	s	V	A	V	W	V	V	deg C	#	bits
	0	0.013333	3.82042E-001	-6.01332E-003	0.00000E+000	-2.29734E-003	-3.59960E-001	-1.13696E+000	3.57730E+000	10	...........
	1	0.026667	3.70515E-001	-6.01543E-003	0.00000E+000	-2.22881E-003	-3.59960E-001	-1.12839E+000	3.57730E+000	10	...........
	2	0.04	3.59842E-001	-6.01959E-003	0.00000E+000	-2.16611E-003	-3.59960E-001	-1.13393E+000	3.57730E+000	10	...........
	3	0.053333	3.49737E-001	-6.01486E-003	0.00000E+000	-2.10362E-003	-3.59960E-001	-1.13693E+000	3.57730E+000	10	...........
	4	0.066667	3.40004E-001	-6.01239E-003	0.00000E+000	-2.04424E-003	-3.59960E-001	-1.12872E+000	3.57730E+000	10	...........
	5	0.08	3.30563E-001	-6.01253E-003	0.00000E+000	-1.98752E-003	-3.59960E-001	-1.13451E+000	3.57710E+000	10	...........
	6	0.093333	3.21353E-001	-6.01755E-003	0.00000E+000	-1.93376E-003	-3.59960E-001	-1.13704E+000	3.57690E+000	10	...........
	7	0.106667	3.12329E-001	-6.01767E-003	0.00000E+000	-1.87949E-003	-3.59960E-001	-1.12871E+000	3.57690E+000	10	...........
	8	0.12	3.03497E-001	-6.01258E-003	0.00000E+000	-1.82480E-003	-3.59960E-001	-1.13453E+000	3.57690E+000	10	...........
	9	0.133333	2.94719E-001	-6.01282E-003	0.00000E+000	-1.77209E-003	-3.59960E-001	-1.13732E+000	3.57690E+000	10	...........
	10	0.146667	2.86147E-001	-6.01861E-003	0.00000E+000	-1.72221E-003	-3.59960E-001	-1.12895E+000	3.57690E+000	10	...........
	11	0.16	2.77671E-001	-6.01990E-003	0.00000E+000	-1.67155E-003	-3.59960E-001	-1.13493E+000	3.57690E+000	10	...........
	12	0.173333	2.69311E-001	-6.01283E-003	0.00000E+000	-1.61932E-003	-3.59960E-001	-1.13732E+000	3.57690E+000	10	...........
	13	0.186667	2.61057E-001	-6.01539E-003	0.00000E+000	-1.57036E-003	-3.59960E-001	-1.12919E+000	3.57690E+000	10	...........
	14	0.2	2.52920E-001	-6.01872E-003	0.00000E+000	-1.52225E-003	-3.59960E-001	-1.13520E+000	3.57690E+000	10	...........
	15	0.213333	2.44870E-001	-6.01487E-003	0.00000E+000	-1.47286E-003	-3.59960E-001	-1.13738E+000	3.57690E+000	10	...........
	16	0.226667	2.36935E-001	-6.01327E-003	0.00000E+000	-1.42476E-003	-3.59960E-001	-1.12929E+000	3.57690E+000	10	...........
	17	0.24	2.29090E-001	-6.01457E-003	0.00000E+000	-1.37788E-003	-3.59960E-001	-1.13556E+000	3.57690E+000	10	...........
	18	0.253333	2.21350E-001	-6.01713E-003	0.00000E+000	-1.33189E-003	-3.59960E-001	-1.13735E+000	3.57690E+000	10	...........
	19	0.266667	2.13695E-001	-6.01379E-003	0.00000E+000	-1.28511E-003	-3.59960E-001	-1.12928E+000	3.57690E+000	10	...........
	20	0.28	2.06191E-001	-6.01673E-003	0.00000E+000	-1.24060E-003	-3.59960E-001	-1.13536E+000	3.57690E+000	10	...........
	21	0.293333	1.98714E-001	-6.01595E-003	0.00000E+000	-1.19546E-003	-3.59960E-001	-1.13702E+000	3.57690E+000	10	...........
	22	0.306667	1.91341E-001	-6.01367E-003	0.00000E+000	-1.15066E-003	-3.59960E-001	-1.12912E+000	3.57690E+000	10	...........
	23	0.32	1.84078E-001	-6.01677E-003	0.00000E+000	-1.10755E-003	-3.59960E-001	-1.13548E+000	3.57690E+000	10	...........
	24	0.333333	1.76889E-001	-6.01352E-003	0.00000E+000	-1.06372E-003	-3.59960E-001	-1.13755E+000	3.57690E+000	10	...........
	25	0.346667	1.69767E-001	-6.01550E-003	0.00000E+000	-1.02123E-003	-3.59960E-001	-1.12944E+000	3.57690E+000	10	...........
	26	0.36	1.62742E-001	-6.01251E-003	0.00000E+000	-9.78488E-004	-3.59960E-001	-1.13582E+000	3.57690E+000	10	...........
	27	0.373333	1.55799E-001	-6.02102E-003	0.00000E+000	-9.38069E-004	-3.59960E-001	-1.13743E+000	3.57690E+000	10	...........
	28	0.386667	1.48919E-001	-6.01730E-003	0.00000E+000	-8.96092E-004	-3.59960E-001	-1.12949E+000	3.57690E+000	10	...........
	29	0.4	1.42131E-001	-6.01709E-003	0.00000E+000	-8.55214E-004	-3.59960E-001	-1.13619E+000	3.57690E+000	10	...........
	30	0.413333	1.35377E-001	-6.01643E-003	0.00000E+000	-8.14486E-004	-3.59960E-001	-1.13769E+000	3.57690E+000	10	...........
	31	0.426667	1.28713E-001	-6.01505E-003	0.00000E+000	-7.74215E-004	-3.59960E-001	-1.12980E+000	3.57690E+000	10	...........
	32	0.44	1.22144E-001	-6.01000E-003	0.00000E+000	-7.34088E-004	-3.59960E-001	-1.13607E+000	3.57690E+000	10	...........
	33	0.453333	1.15604E-001	-6.01561E-003	0.00000E+000	-6.95426E-004	-3.59960E-001	-1.13781E+000	3.57690E+000	10	...........
	34	0.466667	1.09141E-001	-6.01407E-003	0.00000E+000	-6.56384E-004	-3.59960E-001	-1.13001E+000	3.57690E+000	10	...........
	35	0.48	1.02759E-001	-6.01541E-003	0.00000E+000	-6.18138E-004	-3.59960E-001	-1.13639E+000	3.57690E+000	10	...........
	36	0.493333	9.64737E-002	-6.01730E-003	0.00000E+000	-5.80511E-004	-3.59960E-001	-1.13777E+000	3.57690E+000	10	...........
	37	0.506667	9.02283E-002	-6.01660E-003	0.00000E+000	-5.42868E-004	-3.59960E-001	-1.12999E+000	3.57690E+000	10	...........
	38	0.52	8.40585E-002	-6.01933E-003	0.00000E+000	-5.05976E-004	-3.59960E-001	-1.13668E+000	3.57690E+000	10	...........
	39	0.533333	7.79166E-002	-6.02055E-003	0.00000E+000	-4.69101E-004	-3.59960E-001	-1.13800E+000	3.57690E+000	10	...........
	40	0.546667	7.18201E-002	-6.01353E-003	0.00000E+000	-4.31893E-004	-3.59960E-001	-1.13025E+000	3.57690E+000	10	...........
	41	0.56	6.58263E-002	-6.01595E-003	0.00000E+000	-3.96008E-004	-3.59960E-001	-1.13676E+000	3.57690E+000	10	...........
	42	0.573333	5.98731E-002	-6.01133E-003	0.00000E+000	-3.59917E-004	-3.59960E-001	-1.13786E+000	3.57690E+000	10	...........
	43	0.586667	5.39970E-002	-6.01316E-003	0.00000E+000	-3.24692E-004	-3.59960E-001	-1.13007E+000	3.57690E+000	10	...........
	44	0.6	4.81791E-002	-6.01676E-003	0.00000E+000	-2.89882E-004	-3.59960E-001	-1.13710E+000	3.57690E+000	10	...........
	45	0.613333	4.24414E-002	-6.01141E-003	0.00000E+000	-2.55132E-004	-3.59960E-001	-1.13776E+000	3.57690E+000	10	...........
	46	0.626667	3.67435E-002	-6.01674E-003	0.00000E+000	-2.21076E-004	-3.59960E-001	-1.13004E+000	3.57690E+000	10	...........
	47	0.64	3.10559E-002	-6.01477E-003	0.00000E+000	-1.86794E-004	-3.59960E-001	-1.13683E+000	3.57690E+000	10	...........
	48	0.653333	2.54410E-002	-6.01592E-003	0.00000E+000	-1.53051E-004	-3.59960E-001	-1.13773E+000	3.57690E+000	10	...........
	49	0.666667	1.99009E-002	-6.01589E-003	0.00000E+000	-1.19722E-004	-3.59960E-001	-1.13023E+000	3.57690E+000	10	...........
	50	0.68	1.44185E-002	-6.01227E-003	0.00000E+000	-8.66881E-005	-3.59960E-001	-1.13722E+000	3.57690E+000	10	...........
	51	0.693333	8.93024E-003	-6.01654E-003	0.00000E+000	-5.37291E-005	-3.59960E-001	-1.13779E+000	3.57690E+000	10	...........
	52	0.706667	3.53752E-003	-6.01707E-003	0.00000E+000	-2.12855E-005	-3.59960E-001	-1.13015E+000	3.57690E+000	10	...........
	53	0.71	1.78866E-004	-6.01800E-003	0.00000E+000	-1.07641E-006	-3.59960E-001	-1.14511E+000	3.57690E+000	10	...........
STARTTIMEOFFSET	QUANT	1340.589	Start Time Offset (s)
