EXPLAIN
TAG	PWR800_DISCHARGE
TITLE	LABEL	PWR Cyclic Charge Discharge (Cell) - Discharge Step	Test &Identifier
DATE	LABEL	22-6-2017	Date
TIME	LABEL	16:02:20	Time
NOTES	NOTES	3	&Notes...
	supercap test cell
	0.6mg
	6M KOH
PSTAT	PSTAT	IFC5000-01520	Potentiostat
CAPACITY	QUANT	1.00000E-003	Capacity (A-hr)
CELLTYPE	SELECTOR	1	&Cell Type
WORKINGCONNECTION	SELECTOR	0	&Working Lead
MAXDISCHARGETIME	VARIABLEANDUNITS	1.00000E+002	s	1.00000E+002	second(s)	Max &Discharge Time
DISCHARGEMODE	MULTIPARAM	0	6.00000E-003	&Discharge Mode	Constant Current	Amp(s)
SAMPLETIME	QUANT	1.00000E-002	Sa&mple Period (s)
DISCHARGESTOPAT1	MULTIPARAM	3	0.00000E+000	Discharge Stop At &1	Voltage < Limit	V
DISCHARGESTOPAT2	MULTIPARAM	0	0.00000E+000	Discharge Stop At &2	None	N/A
AESBHCSELECTOR	TOGGLE	F	Save Both Half Cells
IRCOMP	TOGGLE	F	IR &Measure
EOC	QUANT	0	Open Circuit (V)
SEQUENCER	TOGGLE	TRUE	Run as Sequence
PSTATMODEL	IQUANT	53	Pstat Model
PSTATSECTION	LABEL	IFC5000-01520	Pstat Section
PSTATSERIALNO	LABEL	01520	Pstat Serial Number
CTRLMODE	IQUANT	0	Control Mode
ELECTROMETER	IQUANT	1	RE=0 or CS=1
IESTAB	IQUANT	0	I/E Stability
CASPEED	IQUANT	4	Control Amp Speed
CONVENTION	IQUANT	1	Current Convention
ICHRANGE	IQUANT	2	Ich Range
ICHRANGEMODE	TOGGLE	T	Ich Auto Range
ICHOFFSETENABLE	TOGGLE	F	Ich Offset Enable
ICHOFFSET	QUANT	0	Ich Offset (V)
ICHFILTER	IQUANT	1	Ich Filter
VCHRANGE	IQUANT	2	Vch Range
VCHRANGEMODE	TOGGLE	T	Vch Auto Range
VCHOFFSETENABLE	TOGGLE	F	Vch Offset Enable
VCHOFFSET	QUANT	0	Vch Offset (V)
VCHFILTER	IQUANT	1	Vch Filter
IERANGELOWERLIMIT	IQUANT	9	I/E Range Lower Limit
IERANGEMODE	TOGGLE	F	I/E AutoRange
IERANGE	IQUANT	10	I/E Range
ACHSELECT	IQUANT	1	Ach Select
ACHRANGE	IQUANT	2	Ach Range
ACHOFFSETENABLE	TOGGLE	F	Ach Offset Enable
ACHOFFSET	QUANT	0	Ach Offset (V)
ACHFILTER	IQUANT	1	Ach Filter
CABLEID	IQUANT	14	Cable ID
DCCALDATE	LABEL	20-10-2016	DC Calibration Date
ACCALDATE	LABEL	12/3/2015	AC Calibration Date
FRAMEWORKVERSION	QUANT	7.01	Framework Version
INSTRUMENTVERSION	LABEL	4.00	Instrument Version
CURVE	TABLE	56
	Pt	T	Vf	Im	Vu	Pwr	Sig	Ach	Temp	IERange	Over
	#	s	V	A	V	W	V	V	deg C	#	bits
	0	0.013333	3.87763E-001	-6.01249E-003	0.00000E+000	-2.33142E-003	-3.59960E-001	-1.11554E+000	3.57660E+000	10	...........
	1	0.026667	3.76417E-001	-6.01366E-003	0.00000E+000	-2.26364E-003	-3.59960E-001	-1.11992E+000	3.57660E+000	10	...........
	2	0.04	3.65917E-001	-6.01415E-003	0.00000E+000	-2.20068E-003	-3.59960E-001	-1.12522E+000	3.57660E+000	10	...........
	3	0.053333	3.55929E-001	-6.01199E-003	0.00000E+000	-2.13984E-003	-3.59960E-001	-1.11573E+000	3.57660E+000	10	...........
	4	0.066667	3.46344E-001	-6.01520E-003	0.00000E+000	-2.08333E-003	-3.59960E-001	-1.12002E+000	3.57660E+000	10	...........
	5	0.08	3.36983E-001	-6.01417E-003	0.00000E+000	-2.02667E-003	-3.59960E-001	-1.12557E+000	3.57660E+000	10	...........
	6	0.093333	3.27894E-001	-6.01704E-003	0.00000E+000	-1.97295E-003	-3.59960E-001	-1.11623E+000	3.57660E+000	10	...........
	7	0.106667	3.18971E-001	-6.01588E-003	0.00000E+000	-1.91889E-003	-3.59960E-001	-1.12023E+000	3.57660E+000	10	...........
	8	0.12	3.10239E-001	-6.01324E-003	0.00000E+000	-1.86554E-003	-3.59960E-001	-1.12566E+000	3.57660E+000	10	...........
	9	0.133333	3.01644E-001	-6.01452E-003	0.00000E+000	-1.81424E-003	-3.59960E-001	-1.11608E+000	3.57660E+000	10	...........
	10	0.146667	2.93221E-001	-6.01847E-003	0.00000E+000	-1.76474E-003	-3.59960E-001	-1.11991E+000	3.57660E+000	10	...........
	11	0.16	2.84839E-001	-6.01980E-003	0.00000E+000	-1.71467E-003	-3.59960E-001	-1.12580E+000	3.57660E+000	10	...........
	12	0.173333	2.76611E-001	-6.01380E-003	0.00000E+000	-1.66348E-003	-3.59960E-001	-1.11622E+000	3.57660E+000	10	...........
	13	0.186667	2.68488E-001	-6.01395E-003	0.00000E+000	-1.61467E-003	-3.59960E-001	-1.12035E+000	3.57660E+000	10	...........
	14	0.2	2.60465E-001	-6.01794E-003	0.00000E+000	-1.56746E-003	-3.59960E-001	-1.12583E+000	3.57660E+000	10	...........
	15	0.213333	2.52543E-001	-6.01691E-003	0.00000E+000	-1.51953E-003	-3.59960E-001	-1.11650E+000	3.57660E+000	10	...........
	16	0.226667	2.44717E-001	-6.01755E-003	0.00000E+000	-1.47260E-003	-3.59960E-001	-1.12072E+000	3.57660E+000	10	...........
	17	0.24	2.36996E-001	-6.01273E-003	0.00000E+000	-1.42499E-003	-3.59960E-001	-1.12623E+000	3.57660E+000	10	...........
	18	0.253333	2.29394E-001	-6.01715E-003	0.00000E+000	-1.38030E-003	-3.59960E-001	-1.11646E+000	3.57660E+000	10	...........
	19	0.266667	2.21898E-001	-6.01071E-003	0.00000E+000	-1.33376E-003	-3.59960E-001	-1.12065E+000	3.57660E+000	10	...........
	20	0.28	2.14433E-001	-6.01679E-003	0.00000E+000	-1.29020E-003	-3.59960E-001	-1.12636E+000	3.57660E+000	10	...........
	21	0.293333	2.07059E-001	-6.01431E-003	0.00000E+000	-1.24532E-003	-3.59960E-001	-1.11677E+000	3.57660E+000	10	...........
	22	0.306667	1.99778E-001	-6.01774E-003	0.00000E+000	-1.20221E-003	-3.59960E-001	-1.12069E+000	3.57660E+000	10	...........
	23	0.32	1.92569E-001	-6.01261E-003	0.00000E+000	-1.15784E-003	-3.59960E-001	-1.12637E+000	3.57660E+000	10	...........
	24	0.333333	1.85439E-001	-6.01635E-003	0.00000E+000	-1.11567E-003	-3.59960E-001	-1.11662E+000	3.57660E+000	10	...........
	25	0.346667	1.78405E-001	-6.01567E-003	0.00000E+000	-1.07323E-003	-3.59960E-001	-1.12118E+000	3.57660E+000	10	...........
	26	0.36	1.71441E-001	-6.01729E-003	0.00000E+000	-1.03161E-003	-3.59960E-001	-1.12705E+000	3.57660E+000	10	...........
	27	0.373333	1.64575E-001	-6.01322E-003	0.00000E+000	-9.89625E-004	-3.59960E-001	-1.11735E+000	3.57660E+000	10	...........
	28	0.386667	1.57773E-001	-6.01643E-003	0.00000E+000	-9.49229E-004	-3.59960E-001	-1.12129E+000	3.57660E+000	10	...........
	29	0.4	1.51055E-001	-6.01469E-003	0.00000E+000	-9.08550E-004	-3.59960E-001	-1.12702E+000	3.57660E+000	10	...........
	30	0.413333	1.44404E-001	-6.01801E-003	0.00000E+000	-8.69026E-004	-3.59960E-001	-1.11751E+000	3.57660E+000	10	...........
	31	0.426667	1.37814E-001	-6.01312E-003	0.00000E+000	-8.28695E-004	-3.59960E-001	-1.12158E+000	3.57660E+000	10	...........
	32	0.44	1.31294E-001	-6.01614E-003	0.00000E+000	-7.89881E-004	-3.59960E-001	-1.12710E+000	3.57660E+000	10	...........
	33	0.453333	1.24802E-001	-6.01090E-003	0.00000E+000	-7.50174E-004	-3.59960E-001	-1.11747E+000	3.57660E+000	10	...........
	34	0.466667	1.18400E-001	-6.01504E-003	0.00000E+000	-7.12181E-004	-3.59960E-001	-1.12111E+000	3.57660E+000	10	...........
	35	0.48	1.12055E-001	-6.01608E-003	0.00000E+000	-6.74134E-004	-3.59960E-001	-1.12690E+000	3.57660E+000	10	...........
	36	0.493333	1.05789E-001	-6.00907E-003	0.00000E+000	-6.35696E-004	-3.59960E-001	-1.11749E+000	3.57660E+000	10	...........
	37	0.506667	9.95539E-002	-6.01803E-003	0.00000E+000	-5.99119E-004	-3.59960E-001	-1.12129E+000	3.57660E+000	10	...........
	38	0.52	9.34063E-002	-6.01684E-003	0.00000E+000	-5.62011E-004	-3.59960E-001	-1.12700E+000	3.57660E+000	10	...........
	39	0.533333	8.73514E-002	-6.01016E-003	0.00000E+000	-5.24995E-004	-3.59960E-001	-1.11751E+000	3.57660E+000	10	...........
	40	0.546667	8.13112E-002	-6.01542E-003	0.00000E+000	-4.89121E-004	-3.59960E-001	-1.12117E+000	3.57660E+000	10	...........
	41	0.56	7.53097E-002	-6.01915E-003	0.00000E+000	-4.53300E-004	-3.59960E-001	-1.12724E+000	3.57660E+000	10	...........
	42	0.573333	6.93734E-002	-6.01485E-003	0.00000E+000	-4.17270E-004	-3.59960E-001	-1.11754E+000	3.57660E+000	10	...........
	43	0.586667	6.34855E-002	-6.01357E-003	0.00000E+000	-3.81774E-004	-3.59960E-001	-1.12119E+000	3.57660E+000	10	...........
	44	0.6	5.76877E-002	-6.01672E-003	0.00000E+000	-3.47091E-004	-3.59960E-001	-1.12701E+000	3.57660E+000	10	...........
	45	0.613333	5.19147E-002	-6.01436E-003	0.00000E+000	-3.12234E-004	-3.59960E-001	-1.11745E+000	3.57660E+000	10	...........
	46	0.626667	4.62439E-002	-6.01229E-003	0.00000E+000	-2.78032E-004	-3.59960E-001	-1.12147E+000	3.57660E+000	10	...........
	47	0.64	4.05993E-002	-6.01416E-003	0.00000E+000	-2.44170E-004	-3.59960E-001	-1.12729E+000	3.57660E+000	10	...........
	48	0.653333	3.50113E-002	-6.01697E-003	0.00000E+000	-2.10662E-004	-3.59960E-001	-1.11755E+000	3.57660E+000	10	...........
	49	0.666667	2.94869E-002	-6.01599E-003	0.00000E+000	-1.77393E-004	-3.59960E-001	-1.12125E+000	3.57660E+000	10	...........
	50	0.68	2.39660E-002	-6.01544E-003	0.00000E+000	-1.44166E-004	-3.59960E-001	-1.12754E+000	3.57660E+000	10	...........
	51	0.693333	1.85200E-002	-6.01658E-003	0.00000E+000	-1.11427E-004	-3.59960E-001	-1.11798E+000	3.57660E+000	10	...........
	52	0.706667	1.31628E-002	-6.01256E-003	0.00000E+000	-7.91420E-005	-3.59960E-001	-1.12197E+000	3.57660E+000	10	...........
	53	0.72	7.78818E-003	-6.01662E-003	0.00000E+000	-4.68585E-005	-3.59960E-001	-1.12779E+000	3.57660E+000	10	...........
	54	0.733333	2.48351E-003	-6.01215E-003	0.00000E+000	-1.49312E-005	-3.59960E-001	-1.11790E+000	3.57660E+000	10	...........
	55	0.735	-4.84015E-004	-6.02221E-003	0.00000E+000	2.91484E-006	-3.59960E-001	-1.13292E+000	3.57660E+000	10	...........
STARTTIMEOFFSET	QUANT	1111.373	Start Time Offset (s)
