EXPLAIN
TAG	PWR800_DISCHARGE
TITLE	LABEL	PWR Cyclic Charge Discharge (Cell) - Discharge Step	Test &Identifier
DATE	LABEL	22-6-2017	Date
TIME	LABEL	15:53:20	Time
NOTES	NOTES	3	&Notes...
	supercap test cell
	0.6mg
	6M KOH
PSTAT	PSTAT	IFC5000-01520	Potentiostat
CAPACITY	QUANT	1.00000E-003	Capacity (A-hr)
CELLTYPE	SELECTOR	1	&Cell Type
WORKINGCONNECTION	SELECTOR	0	&Working Lead
MAXDISCHARGETIME	VARIABLEANDUNITS	1.00000E+002	s	1.00000E+002	second(s)	Max &Discharge Time
DISCHARGEMODE	MULTIPARAM	0	6.00000E-003	&Discharge Mode	Constant Current	Amp(s)
SAMPLETIME	QUANT	1.00000E-002	Sa&mple Period (s)
DISCHARGESTOPAT1	MULTIPARAM	3	0.00000E+000	Discharge Stop At &1	Voltage < Limit	V
DISCHARGESTOPAT2	MULTIPARAM	0	0.00000E+000	Discharge Stop At &2	None	N/A
AESBHCSELECTOR	TOGGLE	F	Save Both Half Cells
IRCOMP	TOGGLE	F	IR &Measure
EOC	QUANT	0	Open Circuit (V)
SEQUENCER	TOGGLE	TRUE	Run as Sequence
PSTATMODEL	IQUANT	53	Pstat Model
PSTATSECTION	LABEL	IFC5000-01520	Pstat Section
PSTATSERIALNO	LABEL	01520	Pstat Serial Number
CTRLMODE	IQUANT	0	Control Mode
ELECTROMETER	IQUANT	1	RE=0 or CS=1
IESTAB	IQUANT	0	I/E Stability
CASPEED	IQUANT	4	Control Amp Speed
CONVENTION	IQUANT	1	Current Convention
ICHRANGE	IQUANT	2	Ich Range
ICHRANGEMODE	TOGGLE	T	Ich Auto Range
ICHOFFSETENABLE	TOGGLE	F	Ich Offset Enable
ICHOFFSET	QUANT	0	Ich Offset (V)
ICHFILTER	IQUANT	1	Ich Filter
VCHRANGE	IQUANT	2	Vch Range
VCHRANGEMODE	TOGGLE	T	Vch Auto Range
VCHOFFSETENABLE	TOGGLE	F	Vch Offset Enable
VCHOFFSET	QUANT	0	Vch Offset (V)
VCHFILTER	IQUANT	1	Vch Filter
IERANGELOWERLIMIT	IQUANT	9	I/E Range Lower Limit
IERANGEMODE	TOGGLE	F	I/E AutoRange
IERANGE	IQUANT	10	I/E Range
ACHSELECT	IQUANT	1	Ach Select
ACHRANGE	IQUANT	2	Ach Range
ACHOFFSETENABLE	TOGGLE	F	Ach Offset Enable
ACHOFFSET	QUANT	0	Ach Offset (V)
ACHFILTER	IQUANT	1	Ach Filter
CABLEID	IQUANT	14	Cable ID
DCCALDATE	LABEL	20-10-2016	DC Calibration Date
ACCALDATE	LABEL	12/3/2015	AC Calibration Date
FRAMEWORKVERSION	QUANT	7.01	Framework Version
INSTRUMENTVERSION	LABEL	4.00	Instrument Version
CURVE	TABLE	59
	Pt	T	Vf	Im	Vu	Pwr	Sig	Ach	Temp	IERange	Over
	#	s	V	A	V	W	V	V	deg C	#	bits
	0	0.013333	3.98539E-001	-6.01399E-003	0.00000E+000	-2.39681E-003	-3.59960E-001	-1.10957E+000	3.57790E+000	10	...........
	1	0.026667	3.87557E-001	-6.01424E-003	0.00000E+000	-2.33086E-003	-3.59960E-001	-1.09940E+000	3.57790E+000	10	...........
	2	0.04	3.77356E-001	-6.01487E-003	0.00000E+000	-2.26975E-003	-3.59960E-001	-1.09855E+000	3.57790E+000	10	...........
	3	0.053333	3.67659E-001	-6.01444E-003	0.00000E+000	-2.21126E-003	-3.59960E-001	-1.10921E+000	3.57790E+000	10	...........
	4	0.066667	3.58360E-001	-6.01667E-003	0.00000E+000	-2.15614E-003	-3.59960E-001	-1.09929E+000	3.57790E+000	10	...........
	5	0.08	3.49295E-001	-6.01534E-003	0.00000E+000	-2.10113E-003	-3.59960E-001	-1.09913E+000	3.57790E+000	10	...........
	6	0.093333	3.40461E-001	-6.01231E-003	0.00000E+000	-2.04696E-003	-3.59960E-001	-1.10983E+000	3.57790E+000	10	...........
	7	0.106667	3.31799E-001	-6.01242E-003	0.00000E+000	-1.99491E-003	-3.59960E-001	-1.09945E+000	3.57790E+000	10	...........
	8	0.12	3.23337E-001	-6.01400E-003	0.00000E+000	-1.94455E-003	-3.59960E-001	-1.09897E+000	3.57790E+000	10	...........
	9	0.133333	3.14986E-001	-6.01303E-003	0.00000E+000	-1.89402E-003	-3.59960E-001	-1.10977E+000	3.57790E+000	10	...........
	10	0.146667	3.06771E-001	-6.01116E-003	0.00000E+000	-1.84405E-003	-3.59960E-001	-1.09976E+000	3.57790E+000	10	...........
	11	0.16	2.98668E-001	-6.01355E-003	0.00000E+000	-1.79605E-003	-3.59960E-001	-1.09954E+000	3.57790E+000	10	...........
	12	0.173333	2.90649E-001	-6.01456E-003	0.00000E+000	-1.74812E-003	-3.59960E-001	-1.10984E+000	3.57790E+000	10	...........
	13	0.186667	2.82714E-001	-6.01692E-003	0.00000E+000	-1.70107E-003	-3.59960E-001	-1.09964E+000	3.57790E+000	10	...........
	14	0.2	2.74892E-001	-6.01191E-003	0.00000E+000	-1.65263E-003	-3.59960E-001	-1.09941E+000	3.57790E+000	10	...........
	15	0.213333	2.67159E-001	-6.01714E-003	0.00000E+000	-1.60753E-003	-3.59960E-001	-1.11017E+000	3.57790E+000	10	...........
	16	0.226667	2.59572E-001	-6.01133E-003	0.00000E+000	-1.56037E-003	-3.59960E-001	-1.09996E+000	3.57790E+000	10	...........
	17	0.24	2.52071E-001	-6.01589E-003	0.00000E+000	-1.51643E-003	-3.59960E-001	-1.09964E+000	3.57790E+000	10	...........
	18	0.253333	2.44625E-001	-6.01327E-003	0.00000E+000	-1.47100E-003	-3.59960E-001	-1.11007E+000	3.57790E+000	10	...........
	19	0.266667	2.37282E-001	-6.01721E-003	0.00000E+000	-1.42777E-003	-3.59960E-001	-1.09970E+000	3.57790E+000	10	...........
	20	0.28	2.30009E-001	-6.01460E-003	0.00000E+000	-1.38341E-003	-3.59960E-001	-1.09973E+000	3.57790E+000	10	...........
	21	0.293333	2.22812E-001	-6.01250E-003	0.00000E+000	-1.33966E-003	-3.59960E-001	-1.11026E+000	3.57790E+000	10	...........
	22	0.306667	2.15709E-001	-6.01599E-003	0.00000E+000	-1.29771E-003	-3.59960E-001	-1.09941E+000	3.57790E+000	10	...........
	23	0.32	2.08658E-001	-6.01641E-003	0.00000E+000	-1.25537E-003	-3.59960E-001	-1.09990E+000	3.57790E+000	10	...........
	24	0.333333	2.01660E-001	-6.01287E-003	0.00000E+000	-1.21255E-003	-3.59960E-001	-1.11018E+000	3.57790E+000	10	...........
	25	0.346667	1.94770E-001	-6.01490E-003	0.00000E+000	-1.17153E-003	-3.59960E-001	-1.09951E+000	3.57790E+000	10	...........
	26	0.36	1.87952E-001	-6.01601E-003	0.00000E+000	-1.13072E-003	-3.59960E-001	-1.09973E+000	3.57790E+000	10	...........
	27	0.373333	1.81189E-001	-6.01295E-003	0.00000E+000	-1.08948E-003	-3.59960E-001	-1.10976E+000	3.57790E+000	10	...........
	28	0.386667	1.74485E-001	-6.01337E-003	0.00000E+000	-1.04924E-003	-3.59960E-001	-1.09928E+000	3.57790E+000	10	...........
	29	0.4	1.67854E-001	-6.02052E-003	0.00000E+000	-1.01057E-003	-3.59960E-001	-1.09975E+000	3.57790E+000	10	...........
	30	0.413333	1.61304E-001	-6.01503E-003	0.00000E+000	-9.70249E-004	-3.59960E-001	-1.11004E+000	3.57790E+000	10	...........
	31	0.426667	1.54810E-001	-6.01219E-003	0.00000E+000	-9.30745E-004	-3.59960E-001	-1.09951E+000	3.57790E+000	10	...........
	32	0.44	1.48334E-001	-6.01630E-003	0.00000E+000	-8.92419E-004	-3.59960E-001	-1.09975E+000	3.57790E+000	10	...........
	33	0.453333	1.41969E-001	-6.01576E-003	0.00000E+000	-8.54050E-004	-3.59960E-001	-1.10994E+000	3.57790E+000	10	...........
	34	0.466667	1.35674E-001	-6.01221E-003	0.00000E+000	-8.15698E-004	-3.59960E-001	-1.09944E+000	3.57790E+000	10	...........
	35	0.48	1.29437E-001	-6.01382E-003	0.00000E+000	-7.78412E-004	-3.59960E-001	-1.10048E+000	3.57790E+000	10	...........
	36	0.493333	1.23210E-001	-6.01566E-003	0.00000E+000	-7.41189E-004	-3.59960E-001	-1.11043E+000	3.57790E+000	10	...........
	37	0.506667	1.17079E-001	-6.01591E-003	0.00000E+000	-7.04334E-004	-3.59960E-001	-1.09941E+000	3.57790E+000	10	...........
	38	0.52	1.11046E-001	-6.01249E-003	0.00000E+000	-6.67666E-004	-3.59960E-001	-1.10026E+000	3.57790E+000	10	...........
	39	0.533333	1.05028E-001	-6.01676E-003	0.00000E+000	-6.31925E-004	-3.59960E-001	-1.11036E+000	3.57790E+000	10	...........
	40	0.546667	9.90795E-002	-6.01252E-003	0.00000E+000	-5.95718E-004	-3.59960E-001	-1.09981E+000	3.57790E+000	10	...........
	41	0.56	9.31610E-002	-6.01051E-003	0.00000E+000	-5.59945E-004	-3.59960E-001	-1.10065E+000	3.57790E+000	10	...........
	42	0.573333	8.73076E-002	-6.01854E-003	0.00000E+000	-5.25464E-004	-3.59960E-001	-1.11048E+000	3.57790E+000	10	...........
	43	0.586667	8.14624E-002	-6.01280E-003	0.00000E+000	-4.89817E-004	-3.59960E-001	-1.09966E+000	3.57790E+000	10	...........
	44	0.6	7.56782E-002	-6.01613E-003	0.00000E+000	-4.55290E-004	-3.59960E-001	-1.10088E+000	3.57790E+000	10	...........
	45	0.613333	6.99693E-002	-6.01332E-003	0.00000E+000	-4.20747E-004	-3.59960E-001	-1.11065E+000	3.57790E+000	10	...........
	46	0.626667	6.43486E-002	-6.01119E-003	0.00000E+000	-3.86812E-004	-3.59960E-001	-1.09995E+000	3.57790E+000	10	...........
	47	0.64	5.86974E-002	-6.01321E-003	0.00000E+000	-3.52960E-004	-3.59960E-001	-1.10087E+000	3.57790E+000	10	...........
	48	0.653333	5.31510E-002	-6.01390E-003	0.00000E+000	-3.19645E-004	-3.59960E-001	-1.11068E+000	3.57790E+000	10	...........
	49	0.666667	4.76709E-002	-6.01346E-003	0.00000E+000	-2.86667E-004	-3.59960E-001	-1.09975E+000	3.57790E+000	10	...........
	50	0.68	4.22008E-002	-6.01146E-003	0.00000E+000	-2.53688E-004	-3.59960E-001	-1.10081E+000	3.57790E+000	10	...........
	51	0.693333	3.67664E-002	-6.01508E-003	0.00000E+000	-2.21153E-004	-3.59960E-001	-1.11034E+000	3.57790E+000	10	...........
	52	0.706667	3.13869E-002	-6.01747E-003	0.00000E+000	-1.88869E-004	-3.59960E-001	-1.09955E+000	3.57790E+000	10	...........
	53	0.72	2.60834E-002	-6.01058E-003	0.00000E+000	-1.56777E-004	-3.59960E-001	-1.10082E+000	3.57790E+000	10	...........
	54	0.733333	2.07647E-002	-6.01571E-003	0.00000E+000	-1.24914E-004	-3.59960E-001	-1.11039E+000	3.57790E+000	10	...........
	55	0.746667	1.55161E-002	-6.01690E-003	0.00000E+000	-9.33590E-005	-3.59960E-001	-1.09977E+000	3.57790E+000	10	...........
	56	0.76	1.02827E-002	-6.01348E-003	0.00000E+000	-6.18348E-005	-3.59960E-001	-1.10104E+000	3.57790E+000	10	...........
	57	0.773333	5.14573E-003	-6.01599E-003	0.00000E+000	-3.09566E-005	-3.59960E-001	-1.11044E+000	3.57790E+000	10	...........
	58	0.781667	9.27240E-004	-6.01420E-003	0.00000E+000	-5.57661E-006	-3.59960E-001	-1.09212E+000	3.57790E+000	10	...........
STARTTIMEOFFSET	QUANT	757.1666	Start Time Offset (s)
