EXPLAIN
TAG	PWR800_DISCHARGE
TITLE	LABEL	PWR Cyclic Charge Discharge (Cell) - Discharge Step	Test &Identifier
DATE	LABEL	22-6-2017	Date
TIME	LABEL	16:08:25	Time
NOTES	NOTES	3	&Notes...
	supercap test cell
	0.6mg
	6M KOH
PSTAT	PSTAT	IFC5000-01520	Potentiostat
CAPACITY	QUANT	1.00000E-003	Capacity (A-hr)
CELLTYPE	SELECTOR	1	&Cell Type
WORKINGCONNECTION	SELECTOR	0	&Working Lead
MAXDISCHARGETIME	VARIABLEANDUNITS	1.00000E+002	s	1.00000E+002	second(s)	Max &Discharge Time
DISCHARGEMODE	MULTIPARAM	0	6.00000E-003	&Discharge Mode	Constant Current	Amp(s)
SAMPLETIME	QUANT	1.00000E-002	Sa&mple Period (s)
DISCHARGESTOPAT1	MULTIPARAM	3	0.00000E+000	Discharge Stop At &1	Voltage < Limit	V
DISCHARGESTOPAT2	MULTIPARAM	0	0.00000E+000	Discharge Stop At &2	None	N/A
AESBHCSELECTOR	TOGGLE	F	Save Both Half Cells
IRCOMP	TOGGLE	F	IR &Measure
EOC	QUANT	0	Open Circuit (V)
SEQUENCER	TOGGLE	TRUE	Run as Sequence
PSTATMODEL	IQUANT	53	Pstat Model
PSTATSECTION	LABEL	IFC5000-01520	Pstat Section
PSTATSERIALNO	LABEL	01520	Pstat Serial Number
CTRLMODE	IQUANT	0	Control Mode
ELECTROMETER	IQUANT	1	RE=0 or CS=1
IESTAB	IQUANT	0	I/E Stability
CASPEED	IQUANT	4	Control Amp Speed
CONVENTION	IQUANT	1	Current Convention
ICHRANGE	IQUANT	2	Ich Range
ICHRANGEMODE	TOGGLE	T	Ich Auto Range
ICHOFFSETENABLE	TOGGLE	F	Ich Offset Enable
ICHOFFSET	QUANT	0	Ich Offset (V)
ICHFILTER	IQUANT	1	Ich Filter
VCHRANGE	IQUANT	2	Vch Range
VCHRANGEMODE	TOGGLE	T	Vch Auto Range
VCHOFFSETENABLE	TOGGLE	F	Vch Offset Enable
VCHOFFSET	QUANT	0	Vch Offset (V)
VCHFILTER	IQUANT	1	Vch Filter
IERANGELOWERLIMIT	IQUANT	9	I/E Range Lower Limit
IERANGEMODE	TOGGLE	F	I/E AutoRange
IERANGE	IQUANT	10	I/E Range
ACHSELECT	IQUANT	1	Ach Select
ACHRANGE	IQUANT	2	Ach Range
ACHOFFSETENABLE	TOGGLE	F	Ach Offset Enable
ACHOFFSET	QUANT	0	Ach Offset (V)
ACHFILTER	IQUANT	1	Ach Filter
CABLEID	IQUANT	14	Cable ID
DCCALDATE	LABEL	20-10-2016	DC Calibration Date
ACCALDATE	LABEL	12/3/2015	AC Calibration Date
FRAMEWORKVERSION	QUANT	7.01	Framework Version
INSTRUMENTVERSION	LABEL	4.00	Instrument Version
CURVE	TABLE	54
	Pt	T	Vf	Im	Vu	Pwr	Sig	Ach	Temp	IERange	Over
	#	s	V	A	V	W	V	V	deg C	#	bits
	0	0.013333	3.82132E-001	-6.01564E-003	0.00000E+000	-2.29877E-003	-3.59960E-001	-1.13869E+000	3.57640E+000	10	...........
	1	0.026667	3.70598E-001	-6.01858E-003	0.00000E+000	-2.23047E-003	-3.59960E-001	-1.12864E+000	3.57640E+000	10	...........
	2	0.04	3.59937E-001	-6.01419E-003	0.00000E+000	-2.16473E-003	-3.59960E-001	-1.13202E+000	3.57640E+000	10	...........
	3	0.053333	3.49817E-001	-6.01494E-003	0.00000E+000	-2.10413E-003	-3.59960E-001	-1.13893E+000	3.57640E+000	10	...........
	4	0.066667	3.40072E-001	-6.01744E-003	0.00000E+000	-2.04636E-003	-3.59960E-001	-1.12901E+000	3.57640E+000	10	...........
	5	0.08	3.30633E-001	-6.01420E-003	0.00000E+000	-1.98849E-003	-3.59960E-001	-1.13199E+000	3.57640E+000	10	...........
	6	0.093333	3.21386E-001	-6.02167E-003	0.00000E+000	-1.93528E-003	-3.59960E-001	-1.13882E+000	3.57640E+000	10	...........
	7	0.106667	3.12353E-001	-6.01142E-003	0.00000E+000	-1.87768E-003	-3.59960E-001	-1.12849E+000	3.57640E+000	10	...........
	8	0.12	3.03527E-001	-6.01514E-003	0.00000E+000	-1.82576E-003	-3.59960E-001	-1.13184E+000	3.57640E+000	10	...........
	9	0.133333	2.94771E-001	-6.01560E-003	0.00000E+000	-1.77322E-003	-3.59960E-001	-1.13909E+000	3.57640E+000	10	...........
	10	0.146667	2.86182E-001	-6.01786E-003	0.00000E+000	-1.72220E-003	-3.59960E-001	-1.12898E+000	3.57640E+000	10	...........
	11	0.16	2.77752E-001	-6.00934E-003	0.00000E+000	-1.66911E-003	-3.59960E-001	-1.13176E+000	3.57640E+000	10	...........
	12	0.173333	2.69382E-001	-6.01331E-003	0.00000E+000	-1.61988E-003	-3.59960E-001	-1.13918E+000	3.57640E+000	10	...........
	13	0.186667	2.61089E-001	-6.01599E-003	0.00000E+000	-1.57071E-003	-3.59960E-001	-1.12895E+000	3.57640E+000	10	...........
	14	0.2	2.52950E-001	-6.01461E-003	0.00000E+000	-1.52140E-003	-3.59960E-001	-1.13218E+000	3.57640E+000	10	...........
	15	0.213333	2.44894E-001	-6.01263E-003	0.00000E+000	-1.47246E-003	-3.59960E-001	-1.13953E+000	3.57640E+000	10	...........
	16	0.226667	2.36995E-001	-6.01713E-003	0.00000E+000	-1.42603E-003	-3.59960E-001	-1.12919E+000	3.57640E+000	10	...........
	17	0.24	2.29178E-001	-6.01696E-003	0.00000E+000	-1.37895E-003	-3.59960E-001	-1.13214E+000	3.57640E+000	10	...........
	18	0.253333	2.21451E-001	-6.02070E-003	0.00000E+000	-1.33329E-003	-3.59960E-001	-1.13933E+000	3.57640E+000	10	...........
	19	0.266667	2.13807E-001	-6.01100E-003	0.00000E+000	-1.28519E-003	-3.59960E-001	-1.12930E+000	3.57640E+000	10	...........
	20	0.28	2.06266E-001	-6.01810E-003	0.00000E+000	-1.24133E-003	-3.59960E-001	-1.13253E+000	3.57640E+000	10	...........
	21	0.293333	1.98816E-001	-6.01043E-003	0.00000E+000	-1.19497E-003	-3.59960E-001	-1.13978E+000	3.57640E+000	10	...........
	22	0.306667	1.91394E-001	-6.01513E-003	0.00000E+000	-1.15126E-003	-3.59960E-001	-1.12942E+000	3.57640E+000	10	...........
	23	0.32	1.84088E-001	-6.01356E-003	0.00000E+000	-1.10702E-003	-3.59960E-001	-1.13269E+000	3.57640E+000	10	...........
	24	0.333333	1.76879E-001	-6.01721E-003	0.00000E+000	-1.06432E-003	-3.59960E-001	-1.14002E+000	3.57640E+000	10	...........
	25	0.346667	1.69765E-001	-6.01163E-003	0.00000E+000	-1.02057E-003	-3.59960E-001	-1.12975E+000	3.57640E+000	10	...........
	26	0.36	1.62736E-001	-6.01756E-003	0.00000E+000	-9.79274E-004	-3.59960E-001	-1.13272E+000	3.57640E+000	10	...........
	27	0.373333	1.55761E-001	-6.01490E-003	0.00000E+000	-9.36890E-004	-3.59960E-001	-1.14004E+000	3.57640E+000	10	...........
	28	0.386667	1.48849E-001	-6.01285E-003	0.00000E+000	-8.95003E-004	-3.59960E-001	-1.12980E+000	3.57640E+000	10	...........
	29	0.4	1.42055E-001	-6.01630E-003	0.00000E+000	-8.54646E-004	-3.59960E-001	-1.13283E+000	3.57640E+000	10	...........
	30	0.413333	1.35367E-001	-6.00949E-003	0.00000E+000	-8.13486E-004	-3.59960E-001	-1.14003E+000	3.57640E+000	10	...........
	31	0.426667	1.28696E-001	-6.01508E-003	0.00000E+000	-7.74117E-004	-3.59960E-001	-1.12947E+000	3.57640E+000	10	...........
	32	0.44	1.22110E-001	-6.01466E-003	0.00000E+000	-7.34450E-004	-3.59960E-001	-1.13249E+000	3.57640E+000	10	...........
	33	0.453333	1.15596E-001	-6.01377E-003	0.00000E+000	-6.95165E-004	-3.59960E-001	-1.13990E+000	3.57640E+000	10	...........
	34	0.466667	1.09136E-001	-6.02096E-003	0.00000E+000	-6.57102E-004	-3.59960E-001	-1.12972E+000	3.57640E+000	10	...........
	35	0.48	1.02769E-001	-6.01778E-003	0.00000E+000	-6.18443E-004	-3.59960E-001	-1.13267E+000	3.57640E+000	10	...........
	36	0.493333	9.64151E-002	-6.01431E-003	0.00000E+000	-5.79870E-004	-3.59960E-001	-1.14024E+000	3.57640E+000	10	...........
	37	0.506667	9.01411E-002	-6.01564E-003	0.00000E+000	-5.42257E-004	-3.59960E-001	-1.12966E+000	3.57640E+000	10	...........
	38	0.52	8.39418E-002	-6.01502E-003	0.00000E+000	-5.04911E-004	-3.59960E-001	-1.13278E+000	3.57640E+000	10	...........
	39	0.533333	7.78229E-002	-6.01433E-003	0.00000E+000	-4.68053E-004	-3.59960E-001	-1.14045E+000	3.57640E+000	10	...........
	40	0.546667	7.17650E-002	-6.01113E-003	0.00000E+000	-4.31388E-004	-3.59960E-001	-1.12995E+000	3.57640E+000	10	...........
	41	0.56	6.57512E-002	-6.00765E-003	0.00000E+000	-3.95010E-004	-3.59960E-001	-1.13261E+000	3.57640E+000	10	...........
	42	0.573333	5.97858E-002	-6.01204E-003	0.00000E+000	-3.59435E-004	-3.59960E-001	-1.14045E+000	3.57640E+000	10	...........
	43	0.586667	5.38964E-002	-6.01624E-003	0.00000E+000	-3.24254E-004	-3.59960E-001	-1.12989E+000	3.57640E+000	10	...........
	44	0.6	4.80519E-002	-6.01373E-003	0.00000E+000	-2.88972E-004	-3.59960E-001	-1.13278E+000	3.57640E+000	10	...........
	45	0.613333	4.23253E-002	-6.01592E-003	0.00000E+000	-2.54626E-004	-3.59960E-001	-1.14057E+000	3.57640E+000	10	...........
	46	0.626667	3.65920E-002	-6.02281E-003	0.00000E+000	-2.20386E-004	-3.59960E-001	-1.13012E+000	3.57640E+000	10	...........
	47	0.64	3.09180E-002	-6.01518E-003	0.00000E+000	-1.85977E-004	-3.59960E-001	-1.13289E+000	3.57640E+000	10	...........
	48	0.653333	2.52964E-002	-6.01283E-003	0.00000E+000	-1.52103E-004	-3.59960E-001	-1.14052E+000	3.57640E+000	10	...........
	49	0.666667	1.97405E-002	-6.01519E-003	0.00000E+000	-1.18743E-004	-3.59960E-001	-1.13033E+000	3.57640E+000	10	...........
	50	0.68	1.41961E-002	-6.01096E-003	0.00000E+000	-8.53323E-005	-3.59960E-001	-1.13295E+000	3.57640E+000	10	...........
	51	0.693333	8.73643E-003	-6.01685E-003	0.00000E+000	-5.25658E-005	-3.59960E-001	-1.14078E+000	3.57640E+000	10	...........
	52	0.706667	3.36007E-003	-6.01880E-003	0.00000E+000	-2.02236E-005	-3.59960E-001	-1.13000E+000	3.57640E+000	10	...........
	53	0.71	5.63805E-005	-6.01391E-003	0.00000E+000	-3.39067E-007	-3.59960E-001	-1.14452E+000	3.57640E+000	10	...........
STARTTIMEOFFSET	QUANT	1347.717	Start Time Offset (s)
