EXPLAIN
TAG	PWR800_DISCHARGE
TITLE	LABEL	PWR Cyclic Charge Discharge (Cell) - Discharge Step	Test &Identifier
DATE	LABEL	22-6-2017	Date
TIME	LABEL	15:35:56	Time
NOTES	NOTES	3	&Notes...
	supercap test cell
	0.6mg
	6M KOH
PSTAT	PSTAT	IFC5000-01520	Potentiostat
CAPACITY	QUANT	1.00000E-003	Capacity (A-hr)
CELLTYPE	SELECTOR	1	&Cell Type
WORKINGCONNECTION	SELECTOR	0	&Working Lead
MAXDISCHARGETIME	VARIABLEANDUNITS	1.00000E+002	s	1.00000E+002	second(s)	Max &Discharge Time
DISCHARGEMODE	MULTIPARAM	0	6.00000E-003	&Discharge Mode	Constant Current	Amp(s)
SAMPLETIME	QUANT	1.00000E-002	Sa&mple Period (s)
DISCHARGESTOPAT1	MULTIPARAM	3	0.00000E+000	Discharge Stop At &1	Voltage < Limit	V
DISCHARGESTOPAT2	MULTIPARAM	0	0.00000E+000	Discharge Stop At &2	None	N/A
AESBHCSELECTOR	TOGGLE	F	Save Both Half Cells
IRCOMP	TOGGLE	F	IR &Measure
EOC	QUANT	0	Open Circuit (V)
SEQUENCER	TOGGLE	TRUE	Run as Sequence
PSTATMODEL	IQUANT	53	Pstat Model
PSTATSECTION	LABEL	IFC5000-01520	Pstat Section
PSTATSERIALNO	LABEL	01520	Pstat Serial Number
CTRLMODE	IQUANT	0	Control Mode
ELECTROMETER	IQUANT	1	RE=0 or CS=1
IESTAB	IQUANT	0	I/E Stability
CASPEED	IQUANT	4	Control Amp Speed
CONVENTION	IQUANT	1	Current Convention
ICHRANGE	IQUANT	2	Ich Range
ICHRANGEMODE	TOGGLE	T	Ich Auto Range
ICHOFFSETENABLE	TOGGLE	F	Ich Offset Enable
ICHOFFSET	QUANT	0	Ich Offset (V)
ICHFILTER	IQUANT	1	Ich Filter
VCHRANGE	IQUANT	2	Vch Range
VCHRANGEMODE	TOGGLE	T	Vch Auto Range
VCHOFFSETENABLE	TOGGLE	F	Vch Offset Enable
VCHOFFSET	QUANT	0	Vch Offset (V)
VCHFILTER	IQUANT	1	Vch Filter
IERANGELOWERLIMIT	IQUANT	9	I/E Range Lower Limit
IERANGEMODE	TOGGLE	F	I/E AutoRange
IERANGE	IQUANT	10	I/E Range
ACHSELECT	IQUANT	1	Ach Select
ACHRANGE	IQUANT	2	Ach Range
ACHOFFSETENABLE	TOGGLE	F	Ach Offset Enable
ACHOFFSET	QUANT	0	Ach Offset (V)
ACHFILTER	IQUANT	1	Ach Filter
CABLEID	IQUANT	14	Cable ID
DCCALDATE	LABEL	20-10-2016	DC Calibration Date
ACCALDATE	LABEL	12/3/2015	AC Calibration Date
FRAMEWORKVERSION	QUANT	7.01	Framework Version
INSTRUMENTVERSION	LABEL	4.00	Instrument Version
CURVE	TABLE	77
	Pt	T	Vf	Im	Vu	Pwr	Sig	Ach	Temp	IERange	Over
	#	s	V	A	V	W	V	V	deg C	#	bits
	0	0.013333	4.48190E-001	-6.01753E-003	0.00000E+000	-2.69700E-003	-3.59960E-001	-9.84589E-001	3.57720E+000	10	...........
	1	0.026667	4.38453E-001	-6.01465E-003	0.00000E+000	-2.63714E-003	-3.59960E-001	-9.82539E-001	3.57720E+000	10	...........
	2	0.04	4.29420E-001	-6.01555E-003	0.00000E+000	-2.58320E-003	-3.59960E-001	-9.94824E-001	3.57720E+000	10	...........
	3	0.053333	4.20837E-001	-6.01840E-003	0.00000E+000	-2.53276E-003	-3.59960E-001	-9.84423E-001	3.57720E+000	10	...........
	4	0.066667	4.12630E-001	-6.01352E-003	0.00000E+000	-2.48136E-003	-3.59960E-001	-9.82487E-001	3.57720E+000	10	...........
	5	0.08	4.04666E-001	-6.01731E-003	0.00000E+000	-2.43500E-003	-3.59960E-001	-9.95098E-001	3.57720E+000	10	...........
	6	0.093333	3.96886E-001	-6.01687E-003	0.00000E+000	-2.38801E-003	-3.59960E-001	-9.84953E-001	3.57720E+000	10	...........
	7	0.106667	3.89241E-001	-6.01396E-003	0.00000E+000	-2.34088E-003	-3.59960E-001	-9.82828E-001	3.57720E+000	10	...........
	8	0.12	3.81734E-001	-6.01594E-003	0.00000E+000	-2.29649E-003	-3.59960E-001	-9.95203E-001	3.57720E+000	10	...........
	9	0.133333	3.74368E-001	-6.01606E-003	0.00000E+000	-2.25222E-003	-3.59960E-001	-9.84887E-001	3.57720E+000	10	...........
	10	0.146667	3.67084E-001	-6.01904E-003	0.00000E+000	-2.20950E-003	-3.59960E-001	-9.83227E-001	3.57720E+000	10	...........
	11	0.16	3.59945E-001	-6.01545E-003	0.00000E+000	-2.16523E-003	-3.59960E-001	-9.95429E-001	3.57720E+000	10	...........
	12	0.173333	3.52874E-001	-6.01447E-003	0.00000E+000	-2.12235E-003	-3.59960E-001	-9.84871E-001	3.57720E+000	10	...........
	13	0.186667	3.45927E-001	-6.01244E-003	0.00000E+000	-2.07987E-003	-3.59960E-001	-9.82912E-001	3.57720E+000	10	...........
	14	0.2	3.39004E-001	-6.01350E-003	0.00000E+000	-2.03860E-003	-3.59960E-001	-9.95298E-001	3.57720E+000	10	...........
	15	0.213333	3.32143E-001	-6.01616E-003	0.00000E+000	-1.99823E-003	-3.59960E-001	-9.84872E-001	3.57720E+000	10	...........
	16	0.226667	3.25378E-001	-6.01101E-003	0.00000E+000	-1.95585E-003	-3.59960E-001	-9.83051E-001	3.57720E+000	10	...........
	17	0.24	3.18705E-001	-6.01459E-003	0.00000E+000	-1.91688E-003	-3.59960E-001	-9.95069E-001	3.57720E+000	10	...........
	18	0.253333	3.12069E-001	-6.01310E-003	0.00000E+000	-1.87650E-003	-3.59960E-001	-9.84723E-001	3.57720E+000	10	...........
	19	0.266667	3.05528E-001	-6.01561E-003	0.00000E+000	-1.83794E-003	-3.59960E-001	-9.83071E-001	3.57720E+000	10	...........
	20	0.28	2.99032E-001	-6.01569E-003	0.00000E+000	-1.79889E-003	-3.59960E-001	-9.95663E-001	3.57720E+000	10	...........
	21	0.293333	2.92572E-001	-6.01480E-003	0.00000E+000	-1.75976E-003	-3.59960E-001	-9.85292E-001	3.57720E+000	10	...........
	22	0.306667	2.86211E-001	-6.01448E-003	0.00000E+000	-1.72141E-003	-3.59960E-001	-9.83363E-001	3.57720E+000	10	...........
	23	0.32	2.79845E-001	-6.01397E-003	0.00000E+000	-1.68298E-003	-3.59960E-001	-9.95344E-001	3.57720E+000	10	...........
	24	0.333333	2.73556E-001	-6.01757E-003	0.00000E+000	-1.64614E-003	-3.59960E-001	-9.85007E-001	3.57720E+000	10	...........
	25	0.346667	2.67337E-001	-6.01311E-003	0.00000E+000	-1.60753E-003	-3.59960E-001	-9.83726E-001	3.57720E+000	10	...........
	26	0.36	2.61175E-001	-6.01241E-003	0.00000E+000	-1.57029E-003	-3.59960E-001	-9.95967E-001	3.57720E+000	10	...........
	27	0.373333	2.55022E-001	-6.01348E-003	0.00000E+000	-1.53357E-003	-3.59960E-001	-9.85303E-001	3.57720E+000	10	...........
	28	0.386667	2.48954E-001	-6.01529E-003	0.00000E+000	-1.49753E-003	-3.59960E-001	-9.83627E-001	3.57720E+000	10	...........
	29	0.4	2.42932E-001	-6.01415E-003	0.00000E+000	-1.46103E-003	-3.59960E-001	-9.95921E-001	3.57720E+000	10	...........
	30	0.413333	2.36926E-001	-6.01655E-003	0.00000E+000	-1.42548E-003	-3.59960E-001	-9.85614E-001	3.57720E+000	10	...........
	31	0.426667	2.30985E-001	-6.01486E-003	0.00000E+000	-1.38934E-003	-3.59960E-001	-9.84146E-001	3.57720E+000	10	...........
	32	0.44	2.25100E-001	-6.01582E-003	0.00000E+000	-1.35416E-003	-3.59960E-001	-9.96323E-001	3.57720E+000	10	...........
	33	0.453333	2.19223E-001	-6.01410E-003	0.00000E+000	-1.31843E-003	-3.59960E-001	-9.85543E-001	3.57720E+000	10	...........
	34	0.466667	2.13394E-001	-6.01563E-003	0.00000E+000	-1.28370E-003	-3.59960E-001	-9.84171E-001	3.57720E+000	10	...........
	35	0.48	2.07630E-001	-6.01345E-003	0.00000E+000	-1.24857E-003	-3.59960E-001	-9.96568E-001	3.57720E+000	10	...........
	36	0.493333	2.01898E-001	-6.01464E-003	0.00000E+000	-1.21434E-003	-3.59960E-001	-9.86049E-001	3.57720E+000	10	...........
	37	0.506667	1.96183E-001	-6.01661E-003	0.00000E+000	-1.18036E-003	-3.59960E-001	-9.84367E-001	3.57720E+000	10	...........
	38	0.52	1.90554E-001	-6.01544E-003	0.00000E+000	-1.14626E-003	-3.59960E-001	-9.96404E-001	3.57720E+000	10	...........
	39	0.533333	1.84923E-001	-6.01802E-003	0.00000E+000	-1.11287E-003	-3.59960E-001	-9.85381E-001	3.57720E+000	10	...........
	40	0.546667	1.79333E-001	-6.02050E-003	0.00000E+000	-1.07967E-003	-3.59960E-001	-9.84069E-001	3.57720E+000	10	...........
	41	0.56	1.73803E-001	-6.01635E-003	0.00000E+000	-1.04566E-003	-3.59960E-001	-9.96309E-001	3.57720E+000	10	...........
	42	0.573333	1.68294E-001	-6.01226E-003	0.00000E+000	-1.01183E-003	-3.59960E-001	-9.85511E-001	3.57720E+000	10	...........
	43	0.586667	1.62769E-001	-6.01601E-003	0.00000E+000	-9.79220E-004	-3.59960E-001	-9.83908E-001	3.57720E+000	10	...........
	44	0.6	1.57334E-001	-6.01729E-003	0.00000E+000	-9.46724E-004	-3.59960E-001	-9.96259E-001	3.57720E+000	10	...........
	45	0.613333	1.51931E-001	-6.01299E-003	0.00000E+000	-9.13559E-004	-3.59960E-001	-9.85649E-001	3.57720E+000	10	...........
	46	0.626667	1.46554E-001	-6.01807E-003	0.00000E+000	-8.81975E-004	-3.59960E-001	-9.84274E-001	3.57720E+000	10	...........
	47	0.64	1.41190E-001	-6.01669E-003	0.00000E+000	-8.49500E-004	-3.59960E-001	-9.96421E-001	3.57720E+000	10	...........
	48	0.653333	1.35895E-001	-6.01505E-003	0.00000E+000	-8.17417E-004	-3.59960E-001	-9.85261E-001	3.57720E+000	10	...........
	49	0.666667	1.30630E-001	-6.01856E-003	0.00000E+000	-7.86202E-004	-3.59960E-001	-9.84182E-001	3.57720E+000	10	...........
	50	0.68	1.25393E-001	-6.01406E-003	0.00000E+000	-7.54121E-004	-3.59960E-001	-9.96466E-001	3.57720E+000	10	...........
	51	0.693333	1.20176E-001	-6.01364E-003	0.00000E+000	-7.22693E-004	-3.59960E-001	-9.85857E-001	3.57720E+000	10	...........
	52	0.706667	1.15001E-001	-6.01721E-003	0.00000E+000	-6.91988E-004	-3.59960E-001	-9.84291E-001	3.57720E+000	10	...........
	53	0.72	1.09816E-001	-6.01487E-003	0.00000E+000	-6.60527E-004	-3.59960E-001	-9.96511E-001	3.57720E+000	10	...........
	54	0.733333	1.04722E-001	-6.01940E-003	0.00000E+000	-6.30364E-004	-3.59960E-001	-9.85606E-001	3.57720E+000	10	...........
	55	0.746667	9.96161E-002	-6.01464E-003	0.00000E+000	-5.99155E-004	-3.59960E-001	-9.84748E-001	3.57720E+000	10	...........
	56	0.76	9.45623E-002	-6.01666E-003	0.00000E+000	-5.68950E-004	-3.59960E-001	-9.97031E-001	3.57720E+000	10	...........
	57	0.773333	8.95049E-002	-6.01685E-003	0.00000E+000	-5.38538E-004	-3.59960E-001	-9.85853E-001	3.57720E+000	10	...........
	58	0.786667	8.45258E-002	-6.01289E-003	0.00000E+000	-5.08244E-004	-3.59960E-001	-9.84793E-001	3.57720E+000	10	...........
	59	0.8	7.95392E-002	-6.01760E-003	0.00000E+000	-4.78635E-004	-3.59960E-001	-9.96966E-001	3.57720E+000	10	...........
	60	0.813333	7.45427E-002	-6.01344E-003	0.00000E+000	-4.48258E-004	-3.59960E-001	-9.86129E-001	3.57720E+000	10	...........
	61	0.826667	6.95994E-002	-6.01302E-003	0.00000E+000	-4.18503E-004	-3.59960E-001	-9.85004E-001	3.57720E+000	10	...........
	62	0.84	6.47171E-002	-6.01423E-003	0.00000E+000	-3.89224E-004	-3.59960E-001	-9.96929E-001	3.57720E+000	10	...........
	63	0.853333	5.98411E-002	-6.01521E-003	0.00000E+000	-3.59957E-004	-3.59960E-001	-9.85509E-001	3.57720E+000	10	...........
	64	0.866667	5.49699E-002	-6.01781E-003	0.00000E+000	-3.30798E-004	-3.59960E-001	-9.84498E-001	3.57720E+000	10	...........
	65	0.88	5.01525E-002	-6.01672E-003	0.00000E+000	-3.01753E-004	-3.59960E-001	-9.96632E-001	3.57720E+000	10	...........
	66	0.893333	4.54030E-002	-6.01333E-003	0.00000E+000	-2.73023E-004	-3.59960E-001	-9.85717E-001	3.57720E+000	10	...........
	67	0.906667	4.06486E-002	-6.01858E-003	0.00000E+000	-2.44647E-004	-3.59960E-001	-9.84673E-001	3.57720E+000	10	...........
	68	0.92	3.59295E-002	-6.01776E-003	0.00000E+000	-2.16215E-004	-3.59960E-001	-9.96584E-001	3.57720E+000	10	...........
	69	0.933333	3.12111E-002	-6.01473E-003	0.00000E+000	-1.87727E-004	-3.59960E-001	-9.85618E-001	3.57720E+000	10	...........
	70	0.946667	2.64942E-002	-6.01089E-003	0.00000E+000	-1.59254E-004	-3.59960E-001	-9.85021E-001	3.57806E+000	10	...........
	71	0.96	2.18050E-002	-6.01325E-003	0.00000E+000	-1.31119E-004	-3.59960E-001	-9.96778E-001	3.57870E+000	10	...........
	72	0.97333	1.71973E-002	-6.01348E-003	0.00000E+000	-1.03416E-004	-3.59960E-001	-9.85683E-001	3.57870E+000	10	...........
	73	0.98667	1.25545E-002	-6.01898E-003	0.00000E+000	-7.55652E-005	-3.59960E-001	-9.84733E-001	3.57870E+000	10	...........
	74	1	7.95083E-003	-6.01793E-003	0.00000E+000	-4.78475E-005	-3.59960E-001	-9.96623E-001	3.57870E+000	10	...........
	75	1.01333	3.37669E-003	-6.01577E-003	0.00000E+000	-2.03134E-005	-3.59960E-001	-9.85843E-001	3.57870E+000	10	...........
	76	1.01833	2.43921E-004	-6.01390E-003	0.00000E+000	-1.46691E-006	-3.59960E-001	-9.98387E-001	3.57870E+000	10	...........
STARTTIMEOFFSET	QUANT	43.60167	Start Time Offset (s)
