EXPLAIN
TAG	PWR800_DISCHARGE
TITLE	LABEL	PWR Cyclic Charge Discharge (Cell) - Discharge Step	Test &Identifier
DATE	LABEL	22-6-2017	Date
TIME	LABEL	16:11:22	Time
NOTES	NOTES	3	&Notes...
	supercap test cell
	0.6mg
	6M KOH
PSTAT	PSTAT	IFC5000-01520	Potentiostat
CAPACITY	QUANT	1.00000E-003	Capacity (A-hr)
CELLTYPE	SELECTOR	1	&Cell Type
WORKINGCONNECTION	SELECTOR	0	&Working Lead
MAXDISCHARGETIME	VARIABLEANDUNITS	1.00000E+002	s	1.00000E+002	second(s)	Max &Discharge Time
DISCHARGEMODE	MULTIPARAM	0	6.00000E-003	&Discharge Mode	Constant Current	Amp(s)
SAMPLETIME	QUANT	1.00000E-002	Sa&mple Period (s)
DISCHARGESTOPAT1	MULTIPARAM	3	0.00000E+000	Discharge Stop At &1	Voltage < Limit	V
DISCHARGESTOPAT2	MULTIPARAM	0	0.00000E+000	Discharge Stop At &2	None	N/A
AESBHCSELECTOR	TOGGLE	F	Save Both Half Cells
IRCOMP	TOGGLE	F	IR &Measure
EOC	QUANT	0	Open Circuit (V)
SEQUENCER	TOGGLE	TRUE	Run as Sequence
PSTATMODEL	IQUANT	53	Pstat Model
PSTATSECTION	LABEL	IFC5000-01520	Pstat Section
PSTATSERIALNO	LABEL	01520	Pstat Serial Number
CTRLMODE	IQUANT	0	Control Mode
ELECTROMETER	IQUANT	1	RE=0 or CS=1
IESTAB	IQUANT	0	I/E Stability
CASPEED	IQUANT	4	Control Amp Speed
CONVENTION	IQUANT	1	Current Convention
ICHRANGE	IQUANT	2	Ich Range
ICHRANGEMODE	TOGGLE	T	Ich Auto Range
ICHOFFSETENABLE	TOGGLE	F	Ich Offset Enable
ICHOFFSET	QUANT	0	Ich Offset (V)
ICHFILTER	IQUANT	1	Ich Filter
VCHRANGE	IQUANT	2	Vch Range
VCHRANGEMODE	TOGGLE	T	Vch Auto Range
VCHOFFSETENABLE	TOGGLE	F	Vch Offset Enable
VCHOFFSET	QUANT	0	Vch Offset (V)
VCHFILTER	IQUANT	1	Vch Filter
IERANGELOWERLIMIT	IQUANT	9	I/E Range Lower Limit
IERANGEMODE	TOGGLE	F	I/E AutoRange
IERANGE	IQUANT	10	I/E Range
ACHSELECT	IQUANT	1	Ach Select
ACHRANGE	IQUANT	2	Ach Range
ACHOFFSETENABLE	TOGGLE	F	Ach Offset Enable
ACHOFFSET	QUANT	0	Ach Offset (V)
ACHFILTER	IQUANT	1	Ach Filter
CABLEID	IQUANT	14	Cable ID
DCCALDATE	LABEL	20-10-2016	DC Calibration Date
ACCALDATE	LABEL	12/3/2015	AC Calibration Date
FRAMEWORKVERSION	QUANT	7.01	Framework Version
INSTRUMENTVERSION	LABEL	4.00	Instrument Version
CURVE	TABLE	53
	Pt	T	Vf	Im	Vu	Pwr	Sig	Ach	Temp	IERange	Over
	#	s	V	A	V	W	V	V	deg C	#	bits
	0	0.013333	3.79102E-001	-6.01170E-003	0.00000E+000	-2.27905E-003	-3.59960E-001	-1.13393E+000	3.57780E+000	10	...........
	1	0.026667	3.67529E-001	-6.01364E-003	0.00000E+000	-2.21019E-003	-3.59960E-001	-1.14123E+000	3.57780E+000	10	...........
	2	0.04	3.56791E-001	-6.01429E-003	0.00000E+000	-2.14584E-003	-3.59960E-001	-1.14160E+000	3.57780E+000	10	...........
	3	0.053333	3.46623E-001	-6.01778E-003	0.00000E+000	-2.08590E-003	-3.59960E-001	-1.13413E+000	3.57780E+000	10	...........
	4	0.066667	3.36818E-001	-6.01770E-003	0.00000E+000	-2.02687E-003	-3.59960E-001	-1.14129E+000	3.57780E+000	10	...........
	5	0.08	3.27284E-001	-6.01526E-003	0.00000E+000	-1.96870E-003	-3.59960E-001	-1.14192E+000	3.57780E+000	10	...........
	6	0.093333	3.17982E-001	-6.01398E-003	0.00000E+000	-1.91234E-003	-3.59960E-001	-1.13426E+000	3.57780E+000	10	...........
	7	0.106667	3.08884E-001	-6.01540E-003	0.00000E+000	-1.85806E-003	-3.59960E-001	-1.14147E+000	3.57780E+000	10	...........
	8	0.12	2.99902E-001	-6.01603E-003	0.00000E+000	-1.80422E-003	-3.59960E-001	-1.14193E+000	3.57780E+000	10	...........
	9	0.133333	2.91142E-001	-6.01599E-003	0.00000E+000	-1.75150E-003	-3.59960E-001	-1.13426E+000	3.57780E+000	10	...........
	10	0.146667	2.82491E-001	-6.01730E-003	0.00000E+000	-1.69983E-003	-3.59960E-001	-1.14153E+000	3.57780E+000	10	...........
	11	0.16	2.73987E-001	-6.01364E-003	0.00000E+000	-1.64766E-003	-3.59960E-001	-1.14204E+000	3.57780E+000	10	...........
	12	0.173333	2.65594E-001	-6.01129E-003	0.00000E+000	-1.59656E-003	-3.59960E-001	-1.13449E+000	3.57780E+000	10	...........
	13	0.186667	2.57294E-001	-6.01650E-003	0.00000E+000	-1.54801E-003	-3.59960E-001	-1.14145E+000	3.57780E+000	10	...........
	14	0.2	2.49070E-001	-6.01868E-003	0.00000E+000	-1.49907E-003	-3.59960E-001	-1.14235E+000	3.57780E+000	10	...........
	15	0.213333	2.41021E-001	-6.01612E-003	0.00000E+000	-1.45001E-003	-3.59960E-001	-1.13486E+000	3.57780E+000	10	...........
	16	0.226667	2.33034E-001	-6.01693E-003	0.00000E+000	-1.40215E-003	-3.59960E-001	-1.14172E+000	3.57780E+000	10	...........
	17	0.24	2.25161E-001	-6.01658E-003	0.00000E+000	-1.35470E-003	-3.59960E-001	-1.14233E+000	3.57780E+000	10	...........
	18	0.253333	2.17331E-001	-6.01138E-003	0.00000E+000	-1.30646E-003	-3.59960E-001	-1.13470E+000	3.57780E+000	10	...........
	19	0.266667	2.09647E-001	-6.01629E-003	0.00000E+000	-1.26129E-003	-3.59960E-001	-1.14198E+000	3.57780E+000	10	...........
	20	0.28	2.02060E-001	-6.01211E-003	0.00000E+000	-1.21480E-003	-3.59960E-001	-1.14305E+000	3.57780E+000	10	...........
	21	0.293333	1.94576E-001	-6.01230E-003	0.00000E+000	-1.16985E-003	-3.59960E-001	-1.13502E+000	3.57780E+000	10	...........
	22	0.306667	1.87140E-001	-6.01227E-003	0.00000E+000	-1.12513E-003	-3.59960E-001	-1.14180E+000	3.57780E+000	10	...........
	23	0.32	1.79832E-001	-6.01396E-003	0.00000E+000	-1.08150E-003	-3.59960E-001	-1.14286E+000	3.57780E+000	10	...........
	24	0.333333	1.72593E-001	-6.01387E-003	0.00000E+000	-1.03795E-003	-3.59960E-001	-1.13518E+000	3.57780E+000	10	...........
	25	0.346667	1.65425E-001	-6.01271E-003	0.00000E+000	-9.94652E-004	-3.59960E-001	-1.14209E+000	3.57780E+000	10	...........
	26	0.36	1.58345E-001	-6.02186E-003	0.00000E+000	-9.53531E-004	-3.59960E-001	-1.14307E+000	3.57780E+000	10	...........
	27	0.373333	1.51392E-001	-6.00887E-003	0.00000E+000	-9.09692E-004	-3.59960E-001	-1.13545E+000	3.57780E+000	10	...........
	28	0.386667	1.44469E-001	-6.01624E-003	0.00000E+000	-8.69160E-004	-3.59960E-001	-1.14223E+000	3.57780E+000	10	...........
	29	0.4	1.37631E-001	-6.01390E-003	0.00000E+000	-8.27697E-004	-3.59960E-001	-1.14337E+000	3.57780E+000	10	...........
	30	0.413333	1.30844E-001	-6.01886E-003	0.00000E+000	-7.87534E-004	-3.59960E-001	-1.13576E+000	3.57780E+000	10	...........
	31	0.426667	1.24179E-001	-6.01095E-003	0.00000E+000	-7.46434E-004	-3.59960E-001	-1.14240E+000	3.57780E+000	10	...........
	32	0.44	1.17577E-001	-6.01565E-003	0.00000E+000	-7.07304E-004	-3.59960E-001	-1.14323E+000	3.57780E+000	10	...........
	33	0.453333	1.11051E-001	-6.01373E-003	0.00000E+000	-6.67831E-004	-3.59960E-001	-1.13517E+000	3.57780E+000	10	...........
	34	0.466667	1.04579E-001	-6.01416E-003	0.00000E+000	-6.28957E-004	-3.59960E-001	-1.14204E+000	3.57780E+000	10	...........
	35	0.48	9.81942E-002	-6.01286E-003	0.00000E+000	-5.90427E-004	-3.59960E-001	-1.14355E+000	3.57780E+000	10	...........
	36	0.493333	9.18226E-002	-6.01478E-003	0.00000E+000	-5.52292E-004	-3.59960E-001	-1.13546E+000	3.57780E+000	10	...........
	37	0.506667	8.55815E-002	-6.01166E-003	0.00000E+000	-5.14487E-004	-3.59960E-001	-1.14204E+000	3.57780E+000	10	...........
	38	0.52	7.93412E-002	-6.01791E-003	0.00000E+000	-4.77468E-004	-3.59960E-001	-1.14326E+000	3.57780E+000	10	...........
	39	0.533333	7.31997E-002	-6.01461E-003	0.00000E+000	-4.40267E-004	-3.59960E-001	-1.13565E+000	3.57780E+000	10	...........
	40	0.546667	6.71113E-002	-6.01925E-003	0.00000E+000	-4.03960E-004	-3.59960E-001	-1.14212E+000	3.57780E+000	10	...........
	41	0.56	6.10799E-002	-6.01641E-003	0.00000E+000	-3.67482E-004	-3.59960E-001	-1.14369E+000	3.57780E+000	10	...........
	42	0.573333	5.51117E-002	-6.01456E-003	0.00000E+000	-3.31473E-004	-3.59960E-001	-1.13563E+000	3.57780E+000	10	...........
	43	0.586667	4.92049E-002	-6.01971E-003	0.00000E+000	-2.96200E-004	-3.59960E-001	-1.14200E+000	3.57780E+000	10	...........
	44	0.6	4.34364E-002	-6.01591E-003	0.00000E+000	-2.61309E-004	-3.59960E-001	-1.14376E+000	3.57780E+000	10	...........
	45	0.613333	3.76891E-002	-6.01683E-003	0.00000E+000	-2.26769E-004	-3.59960E-001	-1.13581E+000	3.57780E+000	10	...........
	46	0.626667	3.19588E-002	-6.01070E-003	0.00000E+000	-1.92095E-004	-3.59960E-001	-1.14222E+000	3.57780E+000	10	...........
	47	0.64	2.63008E-002	-6.02103E-003	0.00000E+000	-1.58358E-004	-3.59960E-001	-1.14366E+000	3.57780E+000	10	...........
	48	0.653333	2.06658E-002	-6.01035E-003	0.00000E+000	-1.24209E-004	-3.59960E-001	-1.13583E+000	3.57780E+000	10	...........
	49	0.666667	1.50715E-002	-6.01297E-003	0.00000E+000	-9.06247E-005	-3.59960E-001	-1.14241E+000	3.57780E+000	10	...........
	50	0.68	9.58758E-003	-6.01605E-003	0.00000E+000	-5.76794E-005	-3.59960E-001	-1.14410E+000	3.57780E+000	10	...........
	51	0.693333	4.12916E-003	-6.01267E-003	0.00000E+000	-2.48272E-005	-3.59960E-001	-1.13616E+000	3.57780E+000	10	...........
	52	0.698333	3.75365E-004	-6.01476E-003	0.00000E+000	-2.25773E-006	-3.59960E-001	-1.15091E+000	3.57780E+000	10	...........
STARTTIMEOFFSET	QUANT	1460.797	Start Time Offset (s)
