EXPLAIN
TAG	PWR800_DISCHARGE
TITLE	LABEL	PWR Cyclic Charge Discharge (Cell) - Discharge Step	Test &Identifier
DATE	LABEL	22-6-2017	Date
TIME	LABEL	15:51:59	Time
NOTES	NOTES	3	&Notes...
	supercap test cell
	0.6mg
	6M KOH
PSTAT	PSTAT	IFC5000-01520	Potentiostat
CAPACITY	QUANT	1.00000E-003	Capacity (A-hr)
CELLTYPE	SELECTOR	1	&Cell Type
WORKINGCONNECTION	SELECTOR	0	&Working Lead
MAXDISCHARGETIME	VARIABLEANDUNITS	1.00000E+002	s	1.00000E+002	second(s)	Max &Discharge Time
DISCHARGEMODE	MULTIPARAM	0	6.00000E-003	&Discharge Mode	Constant Current	Amp(s)
SAMPLETIME	QUANT	1.00000E-002	Sa&mple Period (s)
DISCHARGESTOPAT1	MULTIPARAM	3	0.00000E+000	Discharge Stop At &1	Voltage < Limit	V
DISCHARGESTOPAT2	MULTIPARAM	0	0.00000E+000	Discharge Stop At &2	None	N/A
AESBHCSELECTOR	TOGGLE	F	Save Both Half Cells
IRCOMP	TOGGLE	F	IR &Measure
EOC	QUANT	0	Open Circuit (V)
SEQUENCER	TOGGLE	TRUE	Run as Sequence
PSTATMODEL	IQUANT	53	Pstat Model
PSTATSECTION	LABEL	IFC5000-01520	Pstat Section
PSTATSERIALNO	LABEL	01520	Pstat Serial Number
CTRLMODE	IQUANT	0	Control Mode
ELECTROMETER	IQUANT	1	RE=0 or CS=1
IESTAB	IQUANT	0	I/E Stability
CASPEED	IQUANT	4	Control Amp Speed
CONVENTION	IQUANT	1	Current Convention
ICHRANGE	IQUANT	2	Ich Range
ICHRANGEMODE	TOGGLE	T	Ich Auto Range
ICHOFFSETENABLE	TOGGLE	F	Ich Offset Enable
ICHOFFSET	QUANT	0	Ich Offset (V)
ICHFILTER	IQUANT	1	Ich Filter
VCHRANGE	IQUANT	2	Vch Range
VCHRANGEMODE	TOGGLE	T	Vch Auto Range
VCHOFFSETENABLE	TOGGLE	F	Vch Offset Enable
VCHOFFSET	QUANT	0	Vch Offset (V)
VCHFILTER	IQUANT	1	Vch Filter
IERANGELOWERLIMIT	IQUANT	9	I/E Range Lower Limit
IERANGEMODE	TOGGLE	F	I/E AutoRange
IERANGE	IQUANT	10	I/E Range
ACHSELECT	IQUANT	1	Ach Select
ACHRANGE	IQUANT	2	Ach Range
ACHOFFSETENABLE	TOGGLE	F	Ach Offset Enable
ACHOFFSET	QUANT	0	Ach Offset (V)
ACHFILTER	IQUANT	1	Ach Filter
CABLEID	IQUANT	14	Cable ID
DCCALDATE	LABEL	20-10-2016	DC Calibration Date
ACCALDATE	LABEL	12/3/2015	AC Calibration Date
FRAMEWORKVERSION	QUANT	7.01	Framework Version
INSTRUMENTVERSION	LABEL	4.00	Instrument Version
CURVE	TABLE	60
	Pt	T	Vf	Im	Vu	Pwr	Sig	Ach	Temp	IERange	Over
	#	s	V	A	V	W	V	V	deg C	#	bits
	0	0.013333	4.00618E-001	-6.01135E-003	0.00000E+000	-2.40826E-003	-3.59960E-001	-1.08986E+000	3.57750E+000	10	...........
	1	0.026667	3.89674E-001	-6.01658E-003	0.00000E+000	-2.34450E-003	-3.59960E-001	-1.09787E+000	3.57750E+000	10	...........
	2	0.04	3.79512E-001	-6.01456E-003	0.00000E+000	-2.28260E-003	-3.59960E-001	-1.08826E+000	3.57750E+000	10	...........
	3	0.053333	3.69871E-001	-6.01316E-003	0.00000E+000	-2.22409E-003	-3.59960E-001	-1.09048E+000	3.57750E+000	10	...........
	4	0.066667	3.60560E-001	-6.01305E-003	0.00000E+000	-2.16807E-003	-3.59960E-001	-1.09877E+000	3.57750E+000	10	...........
	5	0.08	3.51516E-001	-6.01763E-003	0.00000E+000	-2.11529E-003	-3.59960E-001	-1.08845E+000	3.57750E+000	10	...........
	6	0.093333	3.42735E-001	-6.01394E-003	0.00000E+000	-2.06119E-003	-3.59960E-001	-1.09047E+000	3.57750E+000	10	...........
	7	0.106667	3.34126E-001	-6.01617E-003	0.00000E+000	-2.01016E-003	-3.59960E-001	-1.09868E+000	3.57750E+000	10	...........
	8	0.12	3.25634E-001	-6.01660E-003	0.00000E+000	-1.95921E-003	-3.59960E-001	-1.08861E+000	3.57750E+000	10	...........
	9	0.133333	3.17299E-001	-6.01477E-003	0.00000E+000	-1.90848E-003	-3.59960E-001	-1.09084E+000	3.57750E+000	10	...........
	10	0.146667	3.09093E-001	-6.01424E-003	0.00000E+000	-1.85896E-003	-3.59960E-001	-1.09849E+000	3.57750E+000	10	...........
	11	0.16	3.01043E-001	-6.01360E-003	0.00000E+000	-1.81035E-003	-3.59960E-001	-1.08812E+000	3.57750E+000	10	...........
	12	0.173333	2.93070E-001	-6.01804E-003	0.00000E+000	-1.76371E-003	-3.59960E-001	-1.09047E+000	3.57750E+000	10	...........
	13	0.186667	2.85233E-001	-6.01071E-003	0.00000E+000	-1.71445E-003	-3.59960E-001	-1.09881E+000	3.57750E+000	10	...........
	14	0.2	2.77488E-001	-6.01288E-003	0.00000E+000	-1.66850E-003	-3.59960E-001	-1.08871E+000	3.57750E+000	10	...........
	15	0.213333	2.69805E-001	-6.01660E-003	0.00000E+000	-1.62331E-003	-3.59960E-001	-1.09059E+000	3.57750E+000	10	...........
	16	0.226667	2.62196E-001	-6.01743E-003	0.00000E+000	-1.57774E-003	-3.59960E-001	-1.09871E+000	3.57750E+000	10	...........
	17	0.24	2.54719E-001	-6.01600E-003	0.00000E+000	-1.53239E-003	-3.59960E-001	-1.08890E+000	3.57750E+000	10	...........
	18	0.253333	2.47288E-001	-6.01214E-003	0.00000E+000	-1.48673E-003	-3.59960E-001	-1.09115E+000	3.57750E+000	10	...........
	19	0.266667	2.39993E-001	-6.01803E-003	0.00000E+000	-1.44429E-003	-3.59960E-001	-1.09925E+000	3.57750E+000	10	...........
	20	0.28	2.32769E-001	-6.01263E-003	0.00000E+000	-1.39955E-003	-3.59960E-001	-1.08900E+000	3.57750E+000	10	...........
	21	0.293333	2.25560E-001	-6.01674E-003	0.00000E+000	-1.35713E-003	-3.59960E-001	-1.09099E+000	3.57750E+000	10	...........
	22	0.306667	2.18445E-001	-6.01073E-003	0.00000E+000	-1.31301E-003	-3.59960E-001	-1.09931E+000	3.57750E+000	10	...........
	23	0.32	2.11416E-001	-6.01050E-003	0.00000E+000	-1.27072E-003	-3.59960E-001	-1.08920E+000	3.57750E+000	10	...........
	24	0.333333	2.04484E-001	-6.01576E-003	0.00000E+000	-1.23013E-003	-3.59960E-001	-1.09145E+000	3.57750E+000	10	...........
	25	0.346667	1.97622E-001	-6.01931E-003	0.00000E+000	-1.18955E-003	-3.59960E-001	-1.09953E+000	3.57750E+000	10	...........
	26	0.36	1.90849E-001	-6.01549E-003	0.00000E+000	-1.14805E-003	-3.59960E-001	-1.08946E+000	3.57737E+000	10	...........
	27	0.373333	1.84075E-001	-6.00807E-003	0.00000E+000	-1.10594E-003	-3.59960E-001	-1.09163E+000	3.57650E+000	10	...........
	28	0.386667	1.77402E-001	-6.01106E-003	0.00000E+000	-1.06637E-003	-3.59960E-001	-1.10007E+000	3.57650E+000	10	...........
	29	0.4	1.70801E-001	-6.01297E-003	0.00000E+000	-1.02702E-003	-3.59960E-001	-1.08965E+000	3.57650E+000	10	...........
	30	0.413333	1.64257E-001	-6.01567E-003	0.00000E+000	-9.88115E-004	-3.59960E-001	-1.09190E+000	3.57650E+000	10	...........
	31	0.426667	1.57784E-001	-6.01206E-003	0.00000E+000	-9.48606E-004	-3.59960E-001	-1.09987E+000	3.57650E+000	10	...........
	32	0.44	1.51396E-001	-6.01432E-003	0.00000E+000	-9.10543E-004	-3.59960E-001	-1.08957E+000	3.57650E+000	10	...........
	33	0.453333	1.45058E-001	-6.01643E-003	0.00000E+000	-8.72730E-004	-3.59960E-001	-1.09200E+000	3.57650E+000	10	...........
	34	0.466667	1.38749E-001	-6.01943E-003	0.00000E+000	-8.35189E-004	-3.59960E-001	-1.09987E+000	3.57650E+000	10	...........
	35	0.48	1.32477E-001	-6.01256E-003	0.00000E+000	-7.96524E-004	-3.59960E-001	-1.08947E+000	3.57650E+000	10	...........
	36	0.493333	1.26316E-001	-6.01332E-003	0.00000E+000	-7.59576E-004	-3.59960E-001	-1.09150E+000	3.57650E+000	10	...........
	37	0.506667	1.20187E-001	-6.01996E-003	0.00000E+000	-7.23521E-004	-3.59960E-001	-1.10015E+000	3.57650E+000	10	...........
	38	0.52	1.14133E-001	-6.01635E-003	0.00000E+000	-6.86663E-004	-3.59960E-001	-1.08971E+000	3.57650E+000	10	...........
	39	0.533333	1.08096E-001	-6.01578E-003	0.00000E+000	-6.50282E-004	-3.59960E-001	-1.09201E+000	3.57650E+000	10	...........
	40	0.546667	1.02136E-001	-6.01812E-003	0.00000E+000	-6.14669E-004	-3.59960E-001	-1.10008E+000	3.57650E+000	10	...........
	41	0.56	9.62198E-002	-6.01725E-003	0.00000E+000	-5.78979E-004	-3.59960E-001	-1.08982E+000	3.57650E+000	10	...........
	42	0.573333	9.03625E-002	-6.01464E-003	0.00000E+000	-5.43498E-004	-3.59960E-001	-1.09197E+000	3.57650E+000	10	...........
	43	0.586667	8.45892E-002	-6.01434E-003	0.00000E+000	-5.08748E-004	-3.59960E-001	-1.10033E+000	3.57650E+000	10	...........
	44	0.6	7.88495E-002	-6.01846E-003	0.00000E+000	-4.74552E-004	-3.59960E-001	-1.09002E+000	3.57650E+000	10	...........
	45	0.613333	7.31130E-002	-6.01601E-003	0.00000E+000	-4.39848E-004	-3.59960E-001	-1.09204E+000	3.57650E+000	10	...........
	46	0.626667	6.74757E-002	-6.01539E-003	0.00000E+000	-4.05893E-004	-3.59960E-001	-1.10038E+000	3.57650E+000	10	...........
	47	0.64	6.18774E-002	-6.01436E-003	0.00000E+000	-3.72153E-004	-3.59960E-001	-1.08993E+000	3.57650E+000	10	...........
	48	0.653333	5.63146E-002	-6.01735E-003	0.00000E+000	-3.38864E-004	-3.59960E-001	-1.09224E+000	3.57650E+000	10	...........
	49	0.666667	5.08210E-002	-6.01498E-003	0.00000E+000	-3.05687E-004	-3.59960E-001	-1.10071E+000	3.57650E+000	10	...........
	50	0.68	4.53952E-002	-6.01346E-003	0.00000E+000	-2.72982E-004	-3.59960E-001	-1.09018E+000	3.57650E+000	10	...........
	51	0.693333	3.99531E-002	-6.01472E-003	0.00000E+000	-2.40307E-004	-3.59960E-001	-1.09239E+000	3.57650E+000	10	...........
	52	0.706667	3.45584E-002	-6.01508E-003	0.00000E+000	-2.07871E-004	-3.59960E-001	-1.10083E+000	3.57650E+000	10	...........
	53	0.72	2.92149E-002	-6.01272E-003	0.00000E+000	-1.75661E-004	-3.59960E-001	-1.09053E+000	3.57650E+000	10	...........
	54	0.733333	2.39263E-002	-6.01350E-003	0.00000E+000	-1.43881E-004	-3.59960E-001	-1.09261E+000	3.57650E+000	10	...........
	55	0.746667	1.86980E-002	-6.01651E-003	0.00000E+000	-1.12497E-004	-3.59960E-001	-1.10088E+000	3.57650E+000	10	...........
	56	0.76	1.34644E-002	-6.01740E-003	0.00000E+000	-8.10209E-005	-3.59960E-001	-1.09074E+000	3.57650E+000	10	...........
	57	0.773333	8.28497E-003	-6.01789E-003	0.00000E+000	-4.98581E-005	-3.59960E-001	-1.09255E+000	3.57650E+000	10	...........
	58	0.786667	3.14960E-003	-6.01230E-003	0.00000E+000	-1.89364E-005	-3.59960E-001	-1.10075E+000	3.57650E+000	10	...........
	59	0.79	-2.03540E-005	-6.02025E-003	0.00000E+000	1.22536E-007	-3.59960E-001	-1.08607E+000	3.57650E+000	10	...........
STARTTIMEOFFSET	QUANT	703.4684	Start Time Offset (s)
