EXPLAIN
TAG	PWR800_DISCHARGE
TITLE	LABEL	PWR Cyclic Charge Discharge (Cell) - Discharge Step	Test &Identifier
DATE	LABEL	22-6-2017	Date
TIME	LABEL	15:47:35	Time
NOTES	NOTES	3	&Notes...
	supercap test cell
	0.6mg
	6M KOH
PSTAT	PSTAT	IFC5000-01520	Potentiostat
CAPACITY	QUANT	1.00000E-003	Capacity (A-hr)
CELLTYPE	SELECTOR	1	&Cell Type
WORKINGCONNECTION	SELECTOR	0	&Working Lead
MAXDISCHARGETIME	VARIABLEANDUNITS	1.00000E+002	s	1.00000E+002	second(s)	Max &Discharge Time
DISCHARGEMODE	MULTIPARAM	0	6.00000E-003	&Discharge Mode	Constant Current	Amp(s)
SAMPLETIME	QUANT	1.00000E-002	Sa&mple Period (s)
DISCHARGESTOPAT1	MULTIPARAM	3	0.00000E+000	Discharge Stop At &1	Voltage < Limit	V
DISCHARGESTOPAT2	MULTIPARAM	0	0.00000E+000	Discharge Stop At &2	None	N/A
AESBHCSELECTOR	TOGGLE	F	Save Both Half Cells
IRCOMP	TOGGLE	F	IR &Measure
EOC	QUANT	0	Open Circuit (V)
SEQUENCER	TOGGLE	TRUE	Run as Sequence
PSTATMODEL	IQUANT	53	Pstat Model
PSTATSECTION	LABEL	IFC5000-01520	Pstat Section
PSTATSERIALNO	LABEL	01520	Pstat Serial Number
CTRLMODE	IQUANT	0	Control Mode
ELECTROMETER	IQUANT	1	RE=0 or CS=1
IESTAB	IQUANT	0	I/E Stability
CASPEED	IQUANT	4	Control Amp Speed
CONVENTION	IQUANT	1	Current Convention
ICHRANGE	IQUANT	2	Ich Range
ICHRANGEMODE	TOGGLE	T	Ich Auto Range
ICHOFFSETENABLE	TOGGLE	F	Ich Offset Enable
ICHOFFSET	QUANT	0	Ich Offset (V)
ICHFILTER	IQUANT	1	Ich Filter
VCHRANGE	IQUANT	2	Vch Range
VCHRANGEMODE	TOGGLE	T	Vch Auto Range
VCHOFFSETENABLE	TOGGLE	F	Vch Offset Enable
VCHOFFSET	QUANT	0	Vch Offset (V)
VCHFILTER	IQUANT	1	Vch Filter
IERANGELOWERLIMIT	IQUANT	9	I/E Range Lower Limit
IERANGEMODE	TOGGLE	F	I/E AutoRange
IERANGE	IQUANT	10	I/E Range
ACHSELECT	IQUANT	1	Ach Select
ACHRANGE	IQUANT	2	Ach Range
ACHOFFSETENABLE	TOGGLE	F	Ach Offset Enable
ACHOFFSET	QUANT	0	Ach Offset (V)
ACHFILTER	IQUANT	1	Ach Filter
CABLEID	IQUANT	14	Cable ID
DCCALDATE	LABEL	20-10-2016	DC Calibration Date
ACCALDATE	LABEL	12/3/2015	AC Calibration Date
FRAMEWORKVERSION	QUANT	7.01	Framework Version
INSTRUMENTVERSION	LABEL	4.00	Instrument Version
CURVE	TABLE	62
	Pt	T	Vf	Im	Vu	Pwr	Sig	Ach	Temp	IERange	Over
	#	s	V	A	V	W	V	V	deg C	#	bits
	0	0.013333	4.07364E-001	-6.01807E-003	0.00000E+000	-2.45154E-003	-3.59960E-001	-1.07373E+000	3.57670E+000	10	...........
	1	0.026667	3.96627E-001	-6.01702E-003	0.00000E+000	-2.38651E-003	-3.59960E-001	-1.08155E+000	3.57670E+000	10	...........
	2	0.04	3.86663E-001	-6.01503E-003	0.00000E+000	-2.32579E-003	-3.59960E-001	-1.07177E+000	3.57670E+000	10	...........
	3	0.053333	3.77241E-001	-6.01276E-003	0.00000E+000	-2.26826E-003	-3.59960E-001	-1.07365E+000	3.57670E+000	10	...........
	4	0.066667	3.68141E-001	-6.01485E-003	0.00000E+000	-2.21431E-003	-3.59960E-001	-1.08154E+000	3.57670E+000	10	...........
	5	0.08	3.59306E-001	-6.01570E-003	0.00000E+000	-2.16148E-003	-3.59960E-001	-1.07191E+000	3.57670E+000	10	...........
	6	0.093333	3.50686E-001	-6.01684E-003	0.00000E+000	-2.11002E-003	-3.59960E-001	-1.07433E+000	3.57670E+000	10	...........
	7	0.106667	3.42174E-001	-6.01642E-003	0.00000E+000	-2.05866E-003	-3.59960E-001	-1.08211E+000	3.57670E+000	10	...........
	8	0.12	3.33886E-001	-6.01920E-003	0.00000E+000	-2.00973E-003	-3.59960E-001	-1.07230E+000	3.57670E+000	10	...........
	9	0.133333	3.25715E-001	-6.01388E-003	0.00000E+000	-1.95881E-003	-3.59960E-001	-1.07412E+000	3.57670E+000	10	...........
	10	0.146667	3.17679E-001	-6.01605E-003	0.00000E+000	-1.91117E-003	-3.59960E-001	-1.08219E+000	3.57670E+000	10	...........
	11	0.16	3.09709E-001	-6.01591E-003	0.00000E+000	-1.86318E-003	-3.59960E-001	-1.07260E+000	3.57670E+000	10	...........
	12	0.173333	3.01866E-001	-6.01533E-003	0.00000E+000	-1.81582E-003	-3.59960E-001	-1.07425E+000	3.57670E+000	10	...........
	13	0.186667	2.94199E-001	-6.01205E-003	0.00000E+000	-1.76874E-003	-3.59960E-001	-1.08217E+000	3.57670E+000	10	...........
	14	0.2	2.86578E-001	-6.01831E-003	0.00000E+000	-1.72472E-003	-3.59960E-001	-1.07208E+000	3.57670E+000	10	...........
	15	0.213333	2.79032E-001	-6.01479E-003	0.00000E+000	-1.67832E-003	-3.59960E-001	-1.07379E+000	3.57670E+000	10	...........
	16	0.226667	2.71581E-001	-6.01494E-003	0.00000E+000	-1.63354E-003	-3.59960E-001	-1.08261E+000	3.57670E+000	10	...........
	17	0.24	2.64175E-001	-6.01382E-003	0.00000E+000	-1.58870E-003	-3.59960E-001	-1.07246E+000	3.57670E+000	10	...........
	18	0.253333	2.56888E-001	-6.01363E-003	0.00000E+000	-1.54483E-003	-3.59960E-001	-1.07398E+000	3.57670E+000	10	...........
	19	0.266667	2.49668E-001	-6.01785E-003	0.00000E+000	-1.50247E-003	-3.59960E-001	-1.08233E+000	3.57670E+000	10	...........
	20	0.28	2.42552E-001	-6.01692E-003	0.00000E+000	-1.45942E-003	-3.59960E-001	-1.07268E+000	3.57670E+000	10	...........
	21	0.293333	2.35474E-001	-6.01444E-003	0.00000E+000	-1.41624E-003	-3.59960E-001	-1.07402E+000	3.57670E+000	10	...........
	22	0.306667	2.28476E-001	-6.01219E-003	0.00000E+000	-1.37364E-003	-3.59960E-001	-1.08270E+000	3.57670E+000	10	...........
	23	0.32	2.21570E-001	-6.01627E-003	0.00000E+000	-1.33302E-003	-3.59960E-001	-1.07277E+000	3.57670E+000	10	...........
	24	0.333333	2.14698E-001	-6.01536E-003	0.00000E+000	-1.29148E-003	-3.59960E-001	-1.07398E+000	3.57670E+000	10	...........
	25	0.346667	2.07948E-001	-6.01665E-003	0.00000E+000	-1.25115E-003	-3.59960E-001	-1.08290E+000	3.57670E+000	10	...........
	26	0.36	2.01233E-001	-6.01383E-003	0.00000E+000	-1.21018E-003	-3.59960E-001	-1.07312E+000	3.57670E+000	10	...........
	27	0.373333	1.94525E-001	-6.01908E-003	0.00000E+000	-1.17086E-003	-3.59960E-001	-1.07404E+000	3.57670E+000	10	...........
	28	0.386667	1.87942E-001	-6.01449E-003	0.00000E+000	-1.13037E-003	-3.59960E-001	-1.08290E+000	3.57670E+000	10	...........
	29	0.4	1.81391E-001	-6.01864E-003	0.00000E+000	-1.09173E-003	-3.59960E-001	-1.07313E+000	3.57670E+000	10	...........
	30	0.413333	1.74959E-001	-6.01736E-003	0.00000E+000	-1.05279E-003	-3.59960E-001	-1.07393E+000	3.57670E+000	10	...........
	31	0.426667	1.68541E-001	-6.01690E-003	0.00000E+000	-1.01409E-003	-3.59960E-001	-1.08344E+000	3.57670E+000	10	...........
	32	0.44	1.62193E-001	-6.01559E-003	0.00000E+000	-9.75686E-004	-3.59960E-001	-1.07315E+000	3.57670E+000	10	...........
	33	0.453333	1.55906E-001	-6.01562E-003	0.00000E+000	-9.37870E-004	-3.59960E-001	-1.07381E+000	3.57670E+000	10	...........
	34	0.466667	1.49662E-001	-6.01555E-003	0.00000E+000	-9.00300E-004	-3.59960E-001	-1.08322E+000	3.57670E+000	10	...........
	35	0.48	1.43503E-001	-6.01906E-003	0.00000E+000	-8.63756E-004	-3.59960E-001	-1.07332E+000	3.57670E+000	10	...........
	36	0.493333	1.37393E-001	-6.01816E-003	0.00000E+000	-8.26853E-004	-3.59960E-001	-1.07400E+000	3.57670E+000	10	...........
	37	0.506667	1.31338E-001	-6.00970E-003	0.00000E+000	-7.89301E-004	-3.59960E-001	-1.08319E+000	3.57670E+000	10	...........
	38	0.52	1.25303E-001	-6.01615E-003	0.00000E+000	-7.53841E-004	-3.59960E-001	-1.07275E+000	3.57670E+000	10	...........
	39	0.533333	1.19341E-001	-6.01433E-003	0.00000E+000	-7.17757E-004	-3.59960E-001	-1.07332E+000	3.57670E+000	10	...........
	40	0.546667	1.13428E-001	-6.01880E-003	0.00000E+000	-6.82702E-004	-3.59960E-001	-1.08309E+000	3.57670E+000	10	...........
	41	0.56	1.07591E-001	-6.01238E-003	0.00000E+000	-6.46876E-004	-3.59960E-001	-1.07315E+000	3.57670E+000	10	...........
	42	0.573333	1.01792E-001	-6.01527E-003	0.00000E+000	-6.12308E-004	-3.59960E-001	-1.07347E+000	3.57670E+000	10	...........
	43	0.586667	9.60048E-002	-6.01915E-003	0.00000E+000	-5.77867E-004	-3.59960E-001	-1.08288E+000	3.57670E+000	10	...........
	44	0.6	9.02687E-002	-6.01162E-003	0.00000E+000	-5.42661E-004	-3.59960E-001	-1.07295E+000	3.57670E+000	10	...........
	45	0.613333	8.45732E-002	-6.01483E-003	0.00000E+000	-5.08693E-004	-3.59960E-001	-1.07311E+000	3.57670E+000	10	...........
	46	0.626667	7.89444E-002	-6.01468E-003	0.00000E+000	-4.74826E-004	-3.59960E-001	-1.08306E+000	3.57670E+000	10	...........
	47	0.64	7.33637E-002	-6.01418E-003	0.00000E+000	-4.41222E-004	-3.59960E-001	-1.07316E+000	3.57670E+000	10	...........
	48	0.653333	6.78505E-002	-6.01768E-003	0.00000E+000	-4.08302E-004	-3.59960E-001	-1.07295E+000	3.57670E+000	10	...........
	49	0.666667	6.23844E-002	-6.01237E-003	0.00000E+000	-3.75078E-004	-3.59960E-001	-1.08293E+000	3.57670E+000	10	...........
	50	0.68	5.69471E-002	-6.01753E-003	0.00000E+000	-3.42681E-004	-3.59960E-001	-1.07326E+000	3.57670E+000	10	...........
	51	0.693333	5.15123E-002	-6.01673E-003	0.00000E+000	-3.09936E-004	-3.59960E-001	-1.07309E+000	3.57670E+000	10	...........
	52	0.706667	4.61878E-002	-6.01739E-003	0.00000E+000	-2.77930E-004	-3.59960E-001	-1.08306E+000	3.57670E+000	10	...........
	53	0.72	4.09043E-002	-6.01587E-003	0.00000E+000	-2.46075E-004	-3.59960E-001	-1.07315E+000	3.57670E+000	10	...........
	54	0.733333	3.56240E-002	-6.01067E-003	0.00000E+000	-2.14124E-004	-3.59960E-001	-1.07290E+000	3.57670E+000	10	...........
	55	0.746667	3.03738E-002	-6.01694E-003	0.00000E+000	-1.82757E-004	-3.59960E-001	-1.08310E+000	3.57670E+000	10	...........
	56	0.76	2.51527E-002	-6.01495E-003	0.00000E+000	-1.51292E-004	-3.59960E-001	-1.07356E+000	3.57670E+000	10	...........
	57	0.773333	1.99878E-002	-6.01204E-003	0.00000E+000	-1.20167E-004	-3.59960E-001	-1.07298E+000	3.57670E+000	10	...........
	58	0.786667	1.48785E-002	-6.01523E-003	0.00000E+000	-8.94975E-005	-3.59960E-001	-1.08289E+000	3.57670E+000	10	...........
	59	0.8	9.82644E-003	-6.01746E-003	0.00000E+000	-5.91302E-005	-3.59960E-001	-1.07308E+000	3.57670E+000	10	...........
	60	0.813333	4.75774E-003	-6.01686E-003	0.00000E+000	-2.86266E-005	-3.59960E-001	-1.07271E+000	3.57670E+000	10	...........
	61	0.821667	6.93343E-004	-6.01592E-003	0.00000E+000	-4.17109E-006	-3.59960E-001	-1.08397E+000	3.57670E+000	10	...........
STARTTIMEOFFSET	QUANT	527.1216	Start Time Offset (s)
