EXPLAIN
TAG	PWR800_DISCHARGE
TITLE	LABEL	PWR Cyclic Charge Discharge (Cell) - Discharge Step	Test &Identifier
DATE	LABEL	22-6-2017	Date
TIME	LABEL	16:14:26	Time
NOTES	NOTES	3	&Notes...
	supercap test cell
	0.6mg
	6M KOH
PSTAT	PSTAT	IFC5000-01520	Potentiostat
CAPACITY	QUANT	1.00000E-003	Capacity (A-hr)
CELLTYPE	SELECTOR	1	&Cell Type
WORKINGCONNECTION	SELECTOR	0	&Working Lead
MAXDISCHARGETIME	VARIABLEANDUNITS	1.00000E+002	s	1.00000E+002	second(s)	Max &Discharge Time
DISCHARGEMODE	MULTIPARAM	0	6.00000E-003	&Discharge Mode	Constant Current	Amp(s)
SAMPLETIME	QUANT	1.00000E-002	Sa&mple Period (s)
DISCHARGESTOPAT1	MULTIPARAM	3	0.00000E+000	Discharge Stop At &1	Voltage < Limit	V
DISCHARGESTOPAT2	MULTIPARAM	0	0.00000E+000	Discharge Stop At &2	None	N/A
AESBHCSELECTOR	TOGGLE	F	Save Both Half Cells
IRCOMP	TOGGLE	F	IR &Measure
EOC	QUANT	0	Open Circuit (V)
SEQUENCER	TOGGLE	TRUE	Run as Sequence
PSTATMODEL	IQUANT	53	Pstat Model
PSTATSECTION	LABEL	IFC5000-01520	Pstat Section
PSTATSERIALNO	LABEL	01520	Pstat Serial Number
CTRLMODE	IQUANT	0	Control Mode
ELECTROMETER	IQUANT	1	RE=0 or CS=1
IESTAB	IQUANT	0	I/E Stability
CASPEED	IQUANT	4	Control Amp Speed
CONVENTION	IQUANT	1	Current Convention
ICHRANGE	IQUANT	2	Ich Range
ICHRANGEMODE	TOGGLE	T	Ich Auto Range
ICHOFFSETENABLE	TOGGLE	F	Ich Offset Enable
ICHOFFSET	QUANT	0	Ich Offset (V)
ICHFILTER	IQUANT	1	Ich Filter
VCHRANGE	IQUANT	2	Vch Range
VCHRANGEMODE	TOGGLE	T	Vch Auto Range
VCHOFFSETENABLE	TOGGLE	F	Vch Offset Enable
VCHOFFSET	QUANT	0	Vch Offset (V)
VCHFILTER	IQUANT	1	Vch Filter
IERANGELOWERLIMIT	IQUANT	9	I/E Range Lower Limit
IERANGEMODE	TOGGLE	F	I/E AutoRange
IERANGE	IQUANT	10	I/E Range
ACHSELECT	IQUANT	1	Ach Select
ACHRANGE	IQUANT	2	Ach Range
ACHOFFSETENABLE	TOGGLE	F	Ach Offset Enable
ACHOFFSET	QUANT	0	Ach Offset (V)
ACHFILTER	IQUANT	1	Ach Filter
CABLEID	IQUANT	14	Cable ID
DCCALDATE	LABEL	20-10-2016	DC Calibration Date
ACCALDATE	LABEL	12/3/2015	AC Calibration Date
FRAMEWORKVERSION	QUANT	7.01	Framework Version
INSTRUMENTVERSION	LABEL	4.00	Instrument Version
CURVE	TABLE	52
	Pt	T	Vf	Im	Vu	Pwr	Sig	Ach	Temp	IERange	Over
	#	s	V	A	V	W	V	V	deg C	#	bits
	0	0.013333	3.76875E-001	-6.01549E-003	0.00000E+000	-2.26708E-003	-3.59960E-001	-1.14274E+000	3.57780E+000	10	...........
	1	0.026667	3.65225E-001	-6.01635E-003	0.00000E+000	-2.19732E-003	-3.59960E-001	-1.13991E+000	3.57780E+000	10	...........
	2	0.04	3.54394E-001	-6.01447E-003	0.00000E+000	-2.13149E-003	-3.59960E-001	-1.15094E+000	3.57780E+000	10	...........
	3	0.053333	3.44127E-001	-6.01367E-003	0.00000E+000	-2.06946E-003	-3.59960E-001	-1.14290E+000	3.57780E+000	10	...........
	4	0.066667	3.34187E-001	-6.01203E-003	0.00000E+000	-2.00915E-003	-3.59960E-001	-1.14039E+000	3.57780E+000	10	...........
	5	0.08	3.24609E-001	-6.01332E-003	0.00000E+000	-1.95197E-003	-3.59960E-001	-1.15130E+000	3.57780E+000	10	...........
	6	0.093333	3.15237E-001	-6.01565E-003	0.00000E+000	-1.89636E-003	-3.59960E-001	-1.14285E+000	3.57780E+000	10	...........
	7	0.106667	3.06053E-001	-6.01400E-003	0.00000E+000	-1.84060E-003	-3.59960E-001	-1.14029E+000	3.57780E+000	10	...........
	8	0.12	2.97030E-001	-6.01532E-003	0.00000E+000	-1.78673E-003	-3.59960E-001	-1.15165E+000	3.57780E+000	10	...........
	9	0.133333	2.88164E-001	-6.01147E-003	0.00000E+000	-1.73229E-003	-3.59960E-001	-1.14336E+000	3.57780E+000	10	...........
	10	0.146667	2.79452E-001	-6.01640E-003	0.00000E+000	-1.68129E-003	-3.59960E-001	-1.14075E+000	3.57780E+000	10	...........
	11	0.16	2.70849E-001	-6.01096E-003	0.00000E+000	-1.62806E-003	-3.59960E-001	-1.15166E+000	3.57780E+000	10	...........
	12	0.173333	2.62356E-001	-6.01778E-003	0.00000E+000	-1.57880E-003	-3.59960E-001	-1.14316E+000	3.57780E+000	10	...........
	13	0.186667	2.54009E-001	-6.01690E-003	0.00000E+000	-1.52835E-003	-3.59960E-001	-1.14101E+000	3.57780E+000	10	...........
	14	0.2	2.45738E-001	-6.01816E-003	0.00000E+000	-1.47889E-003	-3.59960E-001	-1.15221E+000	3.57780E+000	10	...........
	15	0.213333	2.37637E-001	-6.01852E-003	0.00000E+000	-1.43022E-003	-3.59960E-001	-1.14324E+000	3.57780E+000	10	...........
	16	0.226667	2.29602E-001	-6.01338E-003	0.00000E+000	-1.38068E-003	-3.59960E-001	-1.14069E+000	3.57780E+000	10	...........
	17	0.24	2.21665E-001	-6.01412E-003	0.00000E+000	-1.33312E-003	-3.59960E-001	-1.15167E+000	3.57780E+000	10	...........
	18	0.253333	2.13864E-001	-6.01798E-003	0.00000E+000	-1.28703E-003	-3.59960E-001	-1.14330E+000	3.57780E+000	10	...........
	19	0.266667	2.06137E-001	-6.01197E-003	0.00000E+000	-1.23929E-003	-3.59960E-001	-1.14097E+000	3.57780E+000	10	...........
	20	0.28	1.98491E-001	-6.01605E-003	0.00000E+000	-1.19413E-003	-3.59960E-001	-1.15212E+000	3.57780E+000	10	...........
	21	0.293333	1.90958E-001	-6.01509E-003	0.00000E+000	-1.14863E-003	-3.59960E-001	-1.14328E+000	3.57780E+000	10	...........
	22	0.306667	1.83475E-001	-6.01652E-003	0.00000E+000	-1.10388E-003	-3.59960E-001	-1.14111E+000	3.57780E+000	10	...........
	23	0.32	1.76103E-001	-6.01562E-003	0.00000E+000	-1.05937E-003	-3.59960E-001	-1.15224E+000	3.57780E+000	10	...........
	24	0.333333	1.68860E-001	-6.01473E-003	0.00000E+000	-1.01565E-003	-3.59960E-001	-1.14332E+000	3.57780E+000	10	...........
	25	0.346667	1.61691E-001	-6.01423E-003	0.00000E+000	-9.72446E-004	-3.59960E-001	-1.14119E+000	3.57780E+000	10	...........
	26	0.36	1.54608E-001	-6.01619E-003	0.00000E+000	-9.30153E-004	-3.59960E-001	-1.15245E+000	3.57780E+000	10	...........
	27	0.373333	1.47576E-001	-6.01803E-003	0.00000E+000	-8.88114E-004	-3.59960E-001	-1.14324E+000	3.57780E+000	10	...........
	28	0.386667	1.40619E-001	-6.01714E-003	0.00000E+000	-8.46124E-004	-3.59960E-001	-1.14142E+000	3.57780E+000	10	...........
	29	0.4	1.33749E-001	-6.01325E-003	0.00000E+000	-8.04266E-004	-3.59960E-001	-1.15271E+000	3.57780E+000	10	...........
	30	0.413333	1.26970E-001	-6.01302E-003	0.00000E+000	-7.63472E-004	-3.59960E-001	-1.14321E+000	3.57780E+000	10	...........
	31	0.426667	1.20270E-001	-6.01467E-003	0.00000E+000	-7.23382E-004	-3.59960E-001	-1.14131E+000	3.57780E+000	10	...........
	32	0.44	1.13650E-001	-6.01578E-003	0.00000E+000	-6.83693E-004	-3.59960E-001	-1.15272E+000	3.57780E+000	10	...........
	33	0.453333	1.07044E-001	-6.01375E-003	0.00000E+000	-6.43737E-004	-3.59960E-001	-1.14355E+000	3.57780E+000	10	...........
	34	0.466667	1.00542E-001	-6.01794E-003	0.00000E+000	-6.05055E-004	-3.59960E-001	-1.14196E+000	3.57780E+000	10	...........
	35	0.48	9.40964E-002	-6.01578E-003	0.00000E+000	-5.66063E-004	-3.59960E-001	-1.15303E+000	3.57780E+000	10	...........
	36	0.493333	8.77211E-002	-6.01182E-003	0.00000E+000	-5.27364E-004	-3.59960E-001	-1.14327E+000	3.57780E+000	10	...........
	37	0.506667	8.14080E-002	-6.01812E-003	0.00000E+000	-4.89923E-004	-3.59960E-001	-1.14181E+000	3.57780E+000	10	...........
	38	0.52	7.52193E-002	-6.01282E-003	0.00000E+000	-4.52280E-004	-3.59960E-001	-1.15324E+000	3.57780E+000	10	...........
	39	0.533333	6.90403E-002	-6.01327E-003	0.00000E+000	-4.15158E-004	-3.59960E-001	-1.14350E+000	3.57780E+000	10	...........
	40	0.546667	6.29213E-002	-6.01232E-003	0.00000E+000	-3.78303E-004	-3.59960E-001	-1.14208E+000	3.57780E+000	10	...........
	41	0.56	5.68973E-002	-6.01600E-003	0.00000E+000	-3.42294E-004	-3.59960E-001	-1.15273E+000	3.57780E+000	10	...........
	42	0.573333	5.09034E-002	-6.01332E-003	0.00000E+000	-3.06098E-004	-3.59960E-001	-1.14319E+000	3.57780E+000	10	...........
	43	0.586667	4.50533E-002	-6.01765E-003	0.00000E+000	-2.71115E-004	-3.59960E-001	-1.14188E+000	3.57780E+000	10	...........
	44	0.6	3.91963E-002	-6.01571E-003	0.00000E+000	-2.35794E-004	-3.59960E-001	-1.15301E+000	3.57780E+000	10	...........
	45	0.613333	3.34033E-002	-6.01214E-003	0.00000E+000	-2.00825E-004	-3.59960E-001	-1.14315E+000	3.57780E+000	10	...........
	46	0.626667	2.76798E-002	-6.01597E-003	0.00000E+000	-1.66521E-004	-3.59960E-001	-1.14196E+000	3.57780E+000	10	...........
	47	0.64	2.20014E-002	-6.01134E-003	0.00000E+000	-1.32258E-004	-3.59960E-001	-1.15320E+000	3.57780E+000	10	...........
	48	0.653333	1.63817E-002	-6.01713E-003	0.00000E+000	-9.85708E-005	-3.59960E-001	-1.14314E+000	3.57780E+000	10	...........
	49	0.666667	1.08035E-002	-6.01825E-003	0.00000E+000	-6.50183E-005	-3.59960E-001	-1.14251E+000	3.57780E+000	10	...........
	50	0.68	5.29214E-003	-6.01642E-003	0.00000E+000	-3.18398E-005	-3.59960E-001	-1.15320E+000	3.57780E+000	10	...........
	51	0.688333	8.44389E-004	-6.01545E-003	0.00000E+000	-5.07938E-006	-3.59960E-001	-1.13556E+000	3.57780E+000	10	...........
STARTTIMEOFFSET	QUANT	1577.671	Start Time Offset (s)
