EXPLAIN
TAG	PWR800_DISCHARGE
TITLE	LABEL	PWR Cyclic Charge Discharge (Cell) - Discharge Step	Test &Identifier
DATE	LABEL	22-6-2017	Date
TIME	LABEL	15:52:30	Time
NOTES	NOTES	3	&Notes...
	supercap test cell
	0.6mg
	6M KOH
PSTAT	PSTAT	IFC5000-01520	Potentiostat
CAPACITY	QUANT	1.00000E-003	Capacity (A-hr)
CELLTYPE	SELECTOR	1	&Cell Type
WORKINGCONNECTION	SELECTOR	0	&Working Lead
MAXDISCHARGETIME	VARIABLEANDUNITS	1.00000E+002	s	1.00000E+002	second(s)	Max &Discharge Time
DISCHARGEMODE	MULTIPARAM	0	6.00000E-003	&Discharge Mode	Constant Current	Amp(s)
SAMPLETIME	QUANT	1.00000E-002	Sa&mple Period (s)
DISCHARGESTOPAT1	MULTIPARAM	3	0.00000E+000	Discharge Stop At &1	Voltage < Limit	V
DISCHARGESTOPAT2	MULTIPARAM	0	0.00000E+000	Discharge Stop At &2	None	N/A
AESBHCSELECTOR	TOGGLE	F	Save Both Half Cells
IRCOMP	TOGGLE	F	IR &Measure
EOC	QUANT	0	Open Circuit (V)
SEQUENCER	TOGGLE	TRUE	Run as Sequence
PSTATMODEL	IQUANT	53	Pstat Model
PSTATSECTION	LABEL	IFC5000-01520	Pstat Section
PSTATSERIALNO	LABEL	01520	Pstat Serial Number
CTRLMODE	IQUANT	0	Control Mode
ELECTROMETER	IQUANT	1	RE=0 or CS=1
IESTAB	IQUANT	0	I/E Stability
CASPEED	IQUANT	4	Control Amp Speed
CONVENTION	IQUANT	1	Current Convention
ICHRANGE	IQUANT	2	Ich Range
ICHRANGEMODE	TOGGLE	T	Ich Auto Range
ICHOFFSETENABLE	TOGGLE	F	Ich Offset Enable
ICHOFFSET	QUANT	0	Ich Offset (V)
ICHFILTER	IQUANT	1	Ich Filter
VCHRANGE	IQUANT	2	Vch Range
VCHRANGEMODE	TOGGLE	T	Vch Auto Range
VCHOFFSETENABLE	TOGGLE	F	Vch Offset Enable
VCHOFFSET	QUANT	0	Vch Offset (V)
VCHFILTER	IQUANT	1	Vch Filter
IERANGELOWERLIMIT	IQUANT	9	I/E Range Lower Limit
IERANGEMODE	TOGGLE	F	I/E AutoRange
IERANGE	IQUANT	10	I/E Range
ACHSELECT	IQUANT	1	Ach Select
ACHRANGE	IQUANT	2	Ach Range
ACHOFFSETENABLE	TOGGLE	F	Ach Offset Enable
ACHOFFSET	QUANT	0	Ach Offset (V)
ACHFILTER	IQUANT	1	Ach Filter
CABLEID	IQUANT	14	Cable ID
DCCALDATE	LABEL	20-10-2016	DC Calibration Date
ACCALDATE	LABEL	12/3/2015	AC Calibration Date
FRAMEWORKVERSION	QUANT	7.01	Framework Version
INSTRUMENTVERSION	LABEL	4.00	Instrument Version
CURVE	TABLE	59
	Pt	T	Vf	Im	Vu	Pwr	Sig	Ach	Temp	IERange	Over
	#	s	V	A	V	W	V	V	deg C	#	bits
	0	0.013333	3.99862E-001	-6.01289E-003	0.00000E+000	-2.40433E-003	-3.59960E-001	-1.10020E+000	3.57790E+000	10	...........
	1	0.026667	3.88891E-001	-6.01483E-003	0.00000E+000	-2.33911E-003	-3.59960E-001	-1.09377E+000	3.57790E+000	10	...........
	2	0.04	3.78745E-001	-6.01111E-003	0.00000E+000	-2.27668E-003	-3.59960E-001	-1.10128E+000	3.57790E+000	10	...........
	3	0.053333	3.69037E-001	-6.01166E-003	0.00000E+000	-2.21853E-003	-3.59960E-001	-1.10048E+000	3.57790E+000	10	...........
	4	0.066667	3.59737E-001	-6.01108E-003	0.00000E+000	-2.16241E-003	-3.59960E-001	-1.09331E+000	3.57790E+000	10	...........
	5	0.08	3.50704E-001	-6.01853E-003	0.00000E+000	-2.11072E-003	-3.59960E-001	-1.10086E+000	3.57790E+000	10	...........
	6	0.093333	3.41865E-001	-6.01565E-003	0.00000E+000	-2.05654E-003	-3.59960E-001	-1.10035E+000	3.57790E+000	10	...........
	7	0.106667	3.33260E-001	-6.01309E-003	0.00000E+000	-2.00392E-003	-3.59960E-001	-1.09375E+000	3.57790E+000	10	...........
	8	0.12	3.24764E-001	-6.01456E-003	0.00000E+000	-1.95331E-003	-3.59960E-001	-1.10136E+000	3.57790E+000	10	...........
	9	0.133333	3.16435E-001	-6.01915E-003	0.00000E+000	-1.90467E-003	-3.59960E-001	-1.10039E+000	3.57790E+000	10	...........
	10	0.146667	3.08196E-001	-6.01237E-003	0.00000E+000	-1.85299E-003	-3.59960E-001	-1.09386E+000	3.57790E+000	10	...........
	11	0.16	3.00131E-001	-6.01423E-003	0.00000E+000	-1.80506E-003	-3.59960E-001	-1.10156E+000	3.57790E+000	10	...........
	12	0.173333	2.92153E-001	-6.01445E-003	0.00000E+000	-1.75714E-003	-3.59960E-001	-1.10075E+000	3.57790E+000	10	...........
	13	0.186667	2.84298E-001	-6.01215E-003	0.00000E+000	-1.70924E-003	-3.59960E-001	-1.09445E+000	3.57790E+000	10	...........
	14	0.2	2.76492E-001	-6.01464E-003	0.00000E+000	-1.66300E-003	-3.59960E-001	-1.10178E+000	3.57790E+000	10	...........
	15	0.213333	2.68785E-001	-6.01193E-003	0.00000E+000	-1.61592E-003	-3.59960E-001	-1.10075E+000	3.57790E+000	10	...........
	16	0.226667	2.61227E-001	-6.01242E-003	0.00000E+000	-1.57060E-003	-3.59960E-001	-1.09445E+000	3.57790E+000	10	...........
	17	0.24	2.53731E-001	-6.00983E-003	0.00000E+000	-1.52488E-003	-3.59960E-001	-1.10236E+000	3.57790E+000	10	...........
	18	0.253333	2.46275E-001	-6.01671E-003	0.00000E+000	-1.48176E-003	-3.59960E-001	-1.10090E+000	3.57790E+000	10	...........
	19	0.266667	2.38951E-001	-6.01757E-003	0.00000E+000	-1.43791E-003	-3.59960E-001	-1.09449E+000	3.57790E+000	10	...........
	20	0.28	2.31697E-001	-6.01846E-003	0.00000E+000	-1.39446E-003	-3.59960E-001	-1.10237E+000	3.57790E+000	10	...........
	21	0.293333	2.24512E-001	-6.01233E-003	0.00000E+000	-1.34984E-003	-3.59960E-001	-1.10137E+000	3.57790E+000	10	...........
	22	0.306667	2.17425E-001	-6.01021E-003	0.00000E+000	-1.30677E-003	-3.59960E-001	-1.09509E+000	3.57790E+000	10	...........
	23	0.32	2.10402E-001	-6.01269E-003	0.00000E+000	-1.26508E-003	-3.59960E-001	-1.10276E+000	3.57790E+000	10	...........
	24	0.333333	2.03456E-001	-6.01485E-003	0.00000E+000	-1.22376E-003	-3.59960E-001	-1.10123E+000	3.57790E+000	10	...........
	25	0.346667	1.96545E-001	-6.01406E-003	0.00000E+000	-1.18204E-003	-3.59960E-001	-1.09499E+000	3.57790E+000	10	...........
	26	0.36	1.89785E-001	-6.01570E-003	0.00000E+000	-1.14169E-003	-3.59960E-001	-1.10301E+000	3.57790E+000	10	...........
	27	0.373333	1.83043E-001	-6.00964E-003	0.00000E+000	-1.10002E-003	-3.59960E-001	-1.10160E+000	3.57790E+000	10	...........
	28	0.386667	1.76396E-001	-6.01342E-003	0.00000E+000	-1.06074E-003	-3.59960E-001	-1.09496E+000	3.57790E+000	10	...........
	29	0.4	1.69808E-001	-6.01490E-003	0.00000E+000	-1.02138E-003	-3.59960E-001	-1.10254E+000	3.57790E+000	10	...........
	30	0.413333	1.63273E-001	-6.01083E-003	0.00000E+000	-9.81407E-004	-3.59960E-001	-1.10107E+000	3.57790E+000	10	...........
	31	0.426667	1.56730E-001	-6.01570E-003	0.00000E+000	-9.42844E-004	-3.59960E-001	-1.09497E+000	3.57790E+000	10	...........
	32	0.44	1.50307E-001	-6.01570E-003	0.00000E+000	-9.04200E-004	-3.59960E-001	-1.10293E+000	3.57790E+000	10	...........
	33	0.453333	1.43921E-001	-6.01471E-003	0.00000E+000	-8.65643E-004	-3.59960E-001	-1.10134E+000	3.57790E+000	10	...........
	34	0.466667	1.37636E-001	-6.00982E-003	0.00000E+000	-8.27166E-004	-3.59960E-001	-1.09503E+000	3.57790E+000	10	...........
	35	0.48	1.31383E-001	-6.01751E-003	0.00000E+000	-7.90598E-004	-3.59960E-001	-1.10299E+000	3.57790E+000	10	...........
	36	0.493333	1.25231E-001	-6.01535E-003	0.00000E+000	-7.53305E-004	-3.59960E-001	-1.10149E+000	3.57779E+000	10	...........
	37	0.506667	1.19106E-001	-6.01625E-003	0.00000E+000	-7.16571E-004	-3.59960E-001	-1.09521E+000	3.57650E+000	10	...........
	38	0.52	1.13057E-001	-6.01523E-003	0.00000E+000	-6.80066E-004	-3.59960E-001	-1.10328E+000	3.57650E+000	10	...........
	39	0.533333	1.07008E-001	-6.01801E-003	0.00000E+000	-6.43978E-004	-3.59960E-001	-1.10135E+000	3.57650E+000	10	...........
	40	0.546667	1.01049E-001	-6.01819E-003	0.00000E+000	-6.08132E-004	-3.59960E-001	-1.09508E+000	3.57650E+000	10	...........
	41	0.56	9.51530E-002	-6.01713E-003	0.00000E+000	-5.72548E-004	-3.59960E-001	-1.10333E+000	3.57650E+000	10	...........
	42	0.573333	8.92872E-002	-6.01842E-003	0.00000E+000	-5.37367E-004	-3.59960E-001	-1.10163E+000	3.57650E+000	10	...........
	43	0.586667	8.34749E-002	-6.01493E-003	0.00000E+000	-5.02096E-004	-3.59960E-001	-1.09543E+000	3.57650E+000	10	...........
	44	0.6	7.77123E-002	-6.01465E-003	0.00000E+000	-4.67413E-004	-3.59960E-001	-1.10335E+000	3.57650E+000	10	...........
	45	0.613333	7.20016E-002	-6.01628E-003	0.00000E+000	-4.33182E-004	-3.59960E-001	-1.10153E+000	3.57650E+000	10	...........
	46	0.626667	6.63711E-002	-6.01128E-003	0.00000E+000	-3.98975E-004	-3.59960E-001	-1.09577E+000	3.57650E+000	10	...........
	47	0.64	6.07402E-002	-6.01606E-003	0.00000E+000	-3.65416E-004	-3.59960E-001	-1.10387E+000	3.57650E+000	10	...........
	48	0.653333	5.51863E-002	-6.01478E-003	0.00000E+000	-3.31933E-004	-3.59960E-001	-1.10177E+000	3.57650E+000	10	...........
	49	0.666667	4.96753E-002	-6.01430E-003	0.00000E+000	-2.98762E-004	-3.59960E-001	-1.09588E+000	3.57650E+000	10	...........
	50	0.68	4.42129E-002	-6.01215E-003	0.00000E+000	-2.65814E-004	-3.59960E-001	-1.10388E+000	3.57650E+000	10	...........
	51	0.693333	3.87732E-002	-6.01463E-003	0.00000E+000	-2.33207E-004	-3.59960E-001	-1.10180E+000	3.57650E+000	10	...........
	52	0.706667	3.33524E-002	-6.01386E-003	0.00000E+000	-2.00577E-004	-3.59960E-001	-1.09575E+000	3.57650E+000	10	...........
	53	0.72	2.80353E-002	-6.00936E-003	0.00000E+000	-1.68474E-004	-3.59960E-001	-1.10365E+000	3.57650E+000	10	...........
	54	0.733333	2.27661E-002	-6.01253E-003	0.00000E+000	-1.36882E-004	-3.59960E-001	-1.10140E+000	3.57650E+000	10	...........
	55	0.746667	1.75249E-002	-6.01312E-003	0.00000E+000	-1.05379E-004	-3.59960E-001	-1.09554E+000	3.57650E+000	10	...........
	56	0.76	1.23173E-002	-6.01610E-003	0.00000E+000	-7.41019E-005	-3.59960E-001	-1.10390E+000	3.57650E+000	10	...........
	57	0.773333	7.18001E-003	-6.01830E-003	0.00000E+000	-4.32114E-005	-3.59960E-001	-1.10146E+000	3.57650E+000	10	...........
	58	0.786667	2.05313E-003	-6.01506E-003	0.00000E+000	-1.23497E-005	-3.59960E-001	-1.09568E+000	3.57650E+000	10	...........
STARTTIMEOFFSET	QUANT	724.0601	Start Time Offset (s)
