EXPLAIN
TAG	PWR800_DISCHARGE
TITLE	LABEL	PWR Cyclic Charge Discharge (Cell) - Discharge Step	Test &Identifier
DATE	LABEL	22-6-2017	Date
TIME	LABEL	15:37:39	Time
NOTES	NOTES	3	&Notes...
	supercap test cell
	0.6mg
	6M KOH
PSTAT	PSTAT	IFC5000-01520	Potentiostat
CAPACITY	QUANT	1.00000E-003	Capacity (A-hr)
CELLTYPE	SELECTOR	1	&Cell Type
WORKINGCONNECTION	SELECTOR	0	&Working Lead
MAXDISCHARGETIME	VARIABLEANDUNITS	1.00000E+002	s	1.00000E+002	second(s)	Max &Discharge Time
DISCHARGEMODE	MULTIPARAM	0	6.00000E-003	&Discharge Mode	Constant Current	Amp(s)
SAMPLETIME	QUANT	1.00000E-002	Sa&mple Period (s)
DISCHARGESTOPAT1	MULTIPARAM	3	0.00000E+000	Discharge Stop At &1	Voltage < Limit	V
DISCHARGESTOPAT2	MULTIPARAM	0	0.00000E+000	Discharge Stop At &2	None	N/A
AESBHCSELECTOR	TOGGLE	F	Save Both Half Cells
IRCOMP	TOGGLE	F	IR &Measure
EOC	QUANT	0	Open Circuit (V)
SEQUENCER	TOGGLE	TRUE	Run as Sequence
PSTATMODEL	IQUANT	53	Pstat Model
PSTATSECTION	LABEL	IFC5000-01520	Pstat Section
PSTATSERIALNO	LABEL	01520	Pstat Serial Number
CTRLMODE	IQUANT	0	Control Mode
ELECTROMETER	IQUANT	1	RE=0 or CS=1
IESTAB	IQUANT	0	I/E Stability
CASPEED	IQUANT	4	Control Amp Speed
CONVENTION	IQUANT	1	Current Convention
ICHRANGE	IQUANT	2	Ich Range
ICHRANGEMODE	TOGGLE	T	Ich Auto Range
ICHOFFSETENABLE	TOGGLE	F	Ich Offset Enable
ICHOFFSET	QUANT	0	Ich Offset (V)
ICHFILTER	IQUANT	1	Ich Filter
VCHRANGE	IQUANT	2	Vch Range
VCHRANGEMODE	TOGGLE	T	Vch Auto Range
VCHOFFSETENABLE	TOGGLE	F	Vch Offset Enable
VCHOFFSET	QUANT	0	Vch Offset (V)
VCHFILTER	IQUANT	1	Vch Filter
IERANGELOWERLIMIT	IQUANT	9	I/E Range Lower Limit
IERANGEMODE	TOGGLE	F	I/E AutoRange
IERANGE	IQUANT	10	I/E Range
ACHSELECT	IQUANT	1	Ach Select
ACHRANGE	IQUANT	2	Ach Range
ACHOFFSETENABLE	TOGGLE	F	Ach Offset Enable
ACHOFFSET	QUANT	0	Ach Offset (V)
ACHFILTER	IQUANT	1	Ach Filter
CABLEID	IQUANT	14	Cable ID
DCCALDATE	LABEL	20-10-2016	DC Calibration Date
ACCALDATE	LABEL	12/3/2015	AC Calibration Date
FRAMEWORKVERSION	QUANT	7.01	Framework Version
INSTRUMENTVERSION	LABEL	4.00	Instrument Version
CURVE	TABLE	72
	Pt	T	Vf	Im	Vu	Pwr	Sig	Ach	Temp	IERange	Over
	#	s	V	A	V	W	V	V	deg C	#	bits
	0	0.013333	4.36665E-001	-6.01721E-003	0.00000E+000	-2.62751E-003	-3.59960E-001	-1.01641E+000	3.57850E+000	10	...........
	1	0.026667	4.26627E-001	-6.01240E-003	0.00000E+000	-2.56505E-003	-3.59960E-001	-1.00776E+000	3.57850E+000	10	...........
	2	0.04	4.17302E-001	-6.01520E-003	0.00000E+000	-2.51016E-003	-3.59960E-001	-1.01484E+000	3.57850E+000	10	...........
	3	0.053333	4.08454E-001	-6.01625E-003	0.00000E+000	-2.45736E-003	-3.59960E-001	-1.01652E+000	3.57850E+000	10	...........
	4	0.066667	3.99999E-001	-6.01671E-003	0.00000E+000	-2.40668E-003	-3.59960E-001	-1.00809E+000	3.57850E+000	10	...........
	5	0.08	3.91756E-001	-6.01591E-003	0.00000E+000	-2.35677E-003	-3.59960E-001	-1.01487E+000	3.57850E+000	10	...........
	6	0.093333	3.83749E-001	-6.01450E-003	0.00000E+000	-2.30806E-003	-3.59960E-001	-1.01663E+000	3.57850E+000	10	...........
	7	0.106667	3.75921E-001	-6.01305E-003	0.00000E+000	-2.26044E-003	-3.59960E-001	-1.00792E+000	3.57850E+000	10	...........
	8	0.12	3.68199E-001	-6.01560E-003	0.00000E+000	-2.21494E-003	-3.59960E-001	-1.01460E+000	3.57850E+000	10	...........
	9	0.133333	3.60567E-001	-6.01507E-003	0.00000E+000	-2.16883E-003	-3.59960E-001	-1.01699E+000	3.57850E+000	10	...........
	10	0.146667	3.53056E-001	-6.01429E-003	0.00000E+000	-2.12338E-003	-3.59960E-001	-1.00815E+000	3.57850E+000	10	...........
	11	0.16	3.45664E-001	-6.01652E-003	0.00000E+000	-2.07969E-003	-3.59960E-001	-1.01445E+000	3.57850E+000	10	...........
	12	0.173333	3.38352E-001	-6.01343E-003	0.00000E+000	-2.03465E-003	-3.59960E-001	-1.01735E+000	3.57850E+000	10	...........
	13	0.186667	3.31130E-001	-6.02060E-003	0.00000E+000	-1.99360E-003	-3.59960E-001	-1.00833E+000	3.57850E+000	10	...........
	14	0.2	3.24003E-001	-6.01689E-003	0.00000E+000	-1.94949E-003	-3.59960E-001	-1.01487E+000	3.57850E+000	10	...........
	15	0.213333	3.16967E-001	-6.01585E-003	0.00000E+000	-1.90683E-003	-3.59960E-001	-1.01761E+000	3.57850E+000	10	...........
	16	0.226667	3.10010E-001	-6.01385E-003	0.00000E+000	-1.86436E-003	-3.59960E-001	-1.00850E+000	3.57850E+000	10	...........
	17	0.24	3.03129E-001	-6.01503E-003	0.00000E+000	-1.82333E-003	-3.59960E-001	-1.01476E+000	3.57850E+000	10	...........
	18	0.253333	2.96321E-001	-6.01457E-003	0.00000E+000	-1.78224E-003	-3.59960E-001	-1.01773E+000	3.57850E+000	10	...........
	19	0.266667	2.89579E-001	-6.01255E-003	0.00000E+000	-1.74111E-003	-3.59960E-001	-1.00880E+000	3.57850E+000	10	...........
	20	0.28	2.82904E-001	-6.01392E-003	0.00000E+000	-1.70136E-003	-3.59960E-001	-1.01485E+000	3.57850E+000	10	...........
	21	0.293333	2.76263E-001	-6.01423E-003	0.00000E+000	-1.66151E-003	-3.59960E-001	-1.01804E+000	3.57850E+000	10	...........
	22	0.306667	2.69673E-001	-6.01401E-003	0.00000E+000	-1.62182E-003	-3.59960E-001	-1.00892E+000	3.57850E+000	10	...........
	23	0.32	2.63134E-001	-6.01761E-003	0.00000E+000	-1.58344E-003	-3.59960E-001	-1.01488E+000	3.57850E+000	10	...........
	24	0.333333	2.56705E-001	-6.01392E-003	0.00000E+000	-1.54380E-003	-3.59960E-001	-1.01845E+000	3.57850E+000	10	...........
	25	0.346667	2.50313E-001	-6.01630E-003	0.00000E+000	-1.50596E-003	-3.59960E-001	-1.00937E+000	3.57850E+000	10	...........
	26	0.36	2.43969E-001	-6.01406E-003	0.00000E+000	-1.46724E-003	-3.59960E-001	-1.01494E+000	3.57850E+000	10	...........
	27	0.373333	2.37694E-001	-6.01404E-003	0.00000E+000	-1.42950E-003	-3.59960E-001	-1.01873E+000	3.57850E+000	10	...........
	28	0.386667	2.31457E-001	-6.01410E-003	0.00000E+000	-1.39200E-003	-3.59960E-001	-1.00928E+000	3.57850E+000	10	...........
	29	0.4	2.25252E-001	-6.01377E-003	0.00000E+000	-1.35461E-003	-3.59960E-001	-1.01528E+000	3.57850E+000	10	...........
	30	0.413333	2.19079E-001	-6.01938E-003	0.00000E+000	-1.31872E-003	-3.59960E-001	-1.01858E+000	3.57850E+000	10	...........
	31	0.426667	2.12993E-001	-6.01337E-003	0.00000E+000	-1.28081E-003	-3.59960E-001	-1.00921E+000	3.57850E+000	10	...........
	32	0.44	2.06956E-001	-6.01637E-003	0.00000E+000	-1.24512E-003	-3.59960E-001	-1.01464E+000	3.57850E+000	10	...........
	33	0.453333	2.00962E-001	-6.01849E-003	0.00000E+000	-1.20949E-003	-3.59960E-001	-1.01879E+000	3.57850E+000	10	...........
	34	0.466667	1.94994E-001	-6.01395E-003	0.00000E+000	-1.17268E-003	-3.59960E-001	-1.00938E+000	3.57850E+000	10	...........
	35	0.48	1.89083E-001	-6.01602E-003	0.00000E+000	-1.13753E-003	-3.59960E-001	-1.01496E+000	3.57850E+000	10	...........
	36	0.493333	1.83210E-001	-6.01455E-003	0.00000E+000	-1.10193E-003	-3.59960E-001	-1.01915E+000	3.57850E+000	10	...........
	37	0.506667	1.77405E-001	-6.01656E-003	0.00000E+000	-1.06737E-003	-3.59960E-001	-1.00941E+000	3.57850E+000	10	...........
	38	0.52	1.71638E-001	-6.01962E-003	0.00000E+000	-1.03319E-003	-3.59960E-001	-1.01487E+000	3.57850E+000	10	...........
	39	0.533333	1.65863E-001	-6.01583E-003	0.00000E+000	-9.97800E-004	-3.59960E-001	-1.01934E+000	3.57850E+000	10	...........
	40	0.546667	1.60172E-001	-6.01575E-003	0.00000E+000	-9.63552E-004	-3.59960E-001	-1.00971E+000	3.57850E+000	10	...........
	41	0.56	1.54521E-001	-6.01552E-003	0.00000E+000	-9.29527E-004	-3.59960E-001	-1.01476E+000	3.57798E+000	10	...........
	42	0.573333	1.48919E-001	-6.01455E-003	0.00000E+000	-8.95680E-004	-3.59960E-001	-1.01942E+000	3.57710E+000	10	...........
	43	0.586667	1.43357E-001	-6.01678E-003	0.00000E+000	-8.62547E-004	-3.59960E-001	-1.00970E+000	3.57710E+000	10	...........
	44	0.6	1.37819E-001	-6.01507E-003	0.00000E+000	-8.28991E-004	-3.59960E-001	-1.01502E+000	3.57710E+000	10	...........
	45	0.613333	1.32310E-001	-6.01614E-003	0.00000E+000	-7.95995E-004	-3.59960E-001	-1.01955E+000	3.57710E+000	10	...........
	46	0.626667	1.26841E-001	-6.02013E-003	0.00000E+000	-7.63598E-004	-3.59960E-001	-1.00966E+000	3.57710E+000	10	...........
	47	0.64	1.21405E-001	-6.01663E-003	0.00000E+000	-7.30449E-004	-3.59960E-001	-1.01494E+000	3.57710E+000	10	...........
	48	0.653333	1.16030E-001	-6.01739E-003	0.00000E+000	-6.98199E-004	-3.59960E-001	-1.01991E+000	3.57710E+000	10	...........
	49	0.666667	1.10677E-001	-6.01667E-003	0.00000E+000	-6.65909E-004	-3.59960E-001	-1.01009E+000	3.57710E+000	10	...........
	50	0.68	1.05372E-001	-6.01297E-003	0.00000E+000	-6.33602E-004	-3.59960E-001	-1.01494E+000	3.57710E+000	10	...........
	51	0.693333	1.00074E-001	-6.01350E-003	0.00000E+000	-6.01798E-004	-3.59960E-001	-1.02020E+000	3.57710E+000	10	...........
	52	0.706667	9.48416E-002	-6.01491E-003	0.00000E+000	-5.70464E-004	-3.59960E-001	-1.00994E+000	3.57710E+000	10	...........
	53	0.72	8.96209E-002	-6.01908E-003	0.00000E+000	-5.39436E-004	-3.59960E-001	-1.01486E+000	3.57710E+000	10	...........
	54	0.733333	8.44395E-002	-6.01515E-003	0.00000E+000	-5.07916E-004	-3.59960E-001	-1.02004E+000	3.57710E+000	10	...........
	55	0.746667	7.92954E-002	-6.01565E-003	0.00000E+000	-4.77014E-004	-3.59960E-001	-1.00985E+000	3.57710E+000	10	...........
	56	0.76	7.41652E-002	-6.01757E-003	0.00000E+000	-4.46294E-004	-3.59960E-001	-1.01432E+000	3.57710E+000	10	...........
	57	0.773333	6.90601E-002	-6.01335E-003	0.00000E+000	-4.15283E-004	-3.59960E-001	-1.02003E+000	3.57710E+000	10	...........
	58	0.786667	6.40223E-002	-6.01437E-003	0.00000E+000	-3.85053E-004	-3.59960E-001	-1.00976E+000	3.57710E+000	10	...........
	59	0.8	5.89822E-002	-6.01659E-003	0.00000E+000	-3.54872E-004	-3.59960E-001	-1.01460E+000	3.57710E+000	10	...........
	60	0.813333	5.40076E-002	-6.01445E-003	0.00000E+000	-3.24826E-004	-3.59960E-001	-1.02035E+000	3.57710E+000	10	...........
	61	0.826667	4.90108E-002	-6.01669E-003	0.00000E+000	-2.94883E-004	-3.59960E-001	-1.00967E+000	3.57710E+000	10	...........
	62	0.84	4.40848E-002	-6.01893E-003	0.00000E+000	-2.65343E-004	-3.59960E-001	-1.01429E+000	3.57710E+000	10	...........
	63	0.853333	3.91911E-002	-6.01422E-003	0.00000E+000	-2.35704E-004	-3.59960E-001	-1.02046E+000	3.57710E+000	10	...........
	64	0.866667	3.43117E-002	-6.01484E-003	0.00000E+000	-2.06379E-004	-3.59960E-001	-1.01019E+000	3.57710E+000	10	...........
	65	0.88	2.94961E-002	-6.01654E-003	0.00000E+000	-1.77464E-004	-3.59960E-001	-1.01425E+000	3.57710E+000	10	...........
	66	0.893333	2.46789E-002	-6.01461E-003	0.00000E+000	-1.48434E-004	-3.59960E-001	-1.02042E+000	3.57710E+000	10	...........
	67	0.906667	1.99087E-002	-6.01434E-003	0.00000E+000	-1.19738E-004	-3.59960E-001	-1.00994E+000	3.57710E+000	10	...........
	68	0.92	1.51742E-002	-6.01513E-003	0.00000E+000	-9.12748E-005	-3.59960E-001	-1.01429E+000	3.57710E+000	10	...........
	69	0.933333	1.04428E-002	-6.01774E-003	0.00000E+000	-6.28420E-005	-3.59960E-001	-1.02063E+000	3.57710E+000	10	...........
	70	0.946667	5.70852E-003	-6.01141E-003	0.00000E+000	-3.43163E-005	-3.59960E-001	-1.01006E+000	3.57710E+000	10	...........
	71	0.95833	1.31786E-003	-6.01296E-003	0.00000E+000	-7.92422E-006	-3.59960E-001	-1.01675E+000	3.57710E+000	10	...........
STARTTIMEOFFSET	QUANT	117.045	Start Time Offset (s)
