EXPLAIN
TAG	PWR800_DISCHARGE
TITLE	LABEL	PWR Cyclic Charge Discharge (Cell) - Discharge Step	Test &Identifier
DATE	LABEL	22-6-2017	Date
TIME	LABEL	15:50:45	Time
NOTES	NOTES	3	&Notes...
	supercap test cell
	0.6mg
	6M KOH
PSTAT	PSTAT	IFC5000-01520	Potentiostat
CAPACITY	QUANT	1.00000E-003	Capacity (A-hr)
CELLTYPE	SELECTOR	1	&Cell Type
WORKINGCONNECTION	SELECTOR	0	&Working Lead
MAXDISCHARGETIME	VARIABLEANDUNITS	1.00000E+002	s	1.00000E+002	second(s)	Max &Discharge Time
DISCHARGEMODE	MULTIPARAM	0	6.00000E-003	&Discharge Mode	Constant Current	Amp(s)
SAMPLETIME	QUANT	1.00000E-002	Sa&mple Period (s)
DISCHARGESTOPAT1	MULTIPARAM	3	0.00000E+000	Discharge Stop At &1	Voltage < Limit	V
DISCHARGESTOPAT2	MULTIPARAM	0	0.00000E+000	Discharge Stop At &2	None	N/A
AESBHCSELECTOR	TOGGLE	F	Save Both Half Cells
IRCOMP	TOGGLE	F	IR &Measure
EOC	QUANT	0	Open Circuit (V)
SEQUENCER	TOGGLE	TRUE	Run as Sequence
PSTATMODEL	IQUANT	53	Pstat Model
PSTATSECTION	LABEL	IFC5000-01520	Pstat Section
PSTATSERIALNO	LABEL	01520	Pstat Serial Number
CTRLMODE	IQUANT	0	Control Mode
ELECTROMETER	IQUANT	1	RE=0 or CS=1
IESTAB	IQUANT	0	I/E Stability
CASPEED	IQUANT	4	Control Amp Speed
CONVENTION	IQUANT	1	Current Convention
ICHRANGE	IQUANT	2	Ich Range
ICHRANGEMODE	TOGGLE	T	Ich Auto Range
ICHOFFSETENABLE	TOGGLE	F	Ich Offset Enable
ICHOFFSET	QUANT	0	Ich Offset (V)
ICHFILTER	IQUANT	1	Ich Filter
VCHRANGE	IQUANT	2	Vch Range
VCHRANGEMODE	TOGGLE	T	Vch Auto Range
VCHOFFSETENABLE	TOGGLE	F	Vch Offset Enable
VCHOFFSET	QUANT	0	Vch Offset (V)
VCHFILTER	IQUANT	1	Vch Filter
IERANGELOWERLIMIT	IQUANT	9	I/E Range Lower Limit
IERANGEMODE	TOGGLE	F	I/E AutoRange
IERANGE	IQUANT	10	I/E Range
ACHSELECT	IQUANT	1	Ach Select
ACHRANGE	IQUANT	2	Ach Range
ACHOFFSETENABLE	TOGGLE	F	Ach Offset Enable
ACHOFFSET	QUANT	0	Ach Offset (V)
ACHFILTER	IQUANT	1	Ach Filter
CABLEID	IQUANT	14	Cable ID
DCCALDATE	LABEL	20-10-2016	DC Calibration Date
ACCALDATE	LABEL	12/3/2015	AC Calibration Date
FRAMEWORKVERSION	QUANT	7.01	Framework Version
INSTRUMENTVERSION	LABEL	4.00	Instrument Version
CURVE	TABLE	60
	Pt	T	Vf	Im	Vu	Pwr	Sig	Ach	Temp	IERange	Over
	#	s	V	A	V	W	V	V	deg C	#	bits
	0	0.013333	4.02121E-001	-6.01138E-003	0.00000E+000	-2.41730E-003	-3.59960E-001	-1.08453E+000	3.57990E+000	10	...........
	1	0.026667	3.91252E-001	-6.01572E-003	0.00000E+000	-2.35366E-003	-3.59960E-001	-1.08440E+000	3.57990E+000	10	...........
	2	0.04	3.81125E-001	-6.01827E-003	0.00000E+000	-2.29371E-003	-3.59960E-001	-1.09517E+000	3.57990E+000	10	...........
	3	0.053333	3.71511E-001	-6.01365E-003	0.00000E+000	-2.23414E-003	-3.59960E-001	-1.08450E+000	3.57990E+000	10	...........
	4	0.066667	3.62278E-001	-6.01824E-003	0.00000E+000	-2.18028E-003	-3.59960E-001	-1.08424E+000	3.57990E+000	10	...........
	5	0.08	3.53342E-001	-6.01669E-003	0.00000E+000	-2.12595E-003	-3.59960E-001	-1.09480E+000	3.57990E+000	10	...........
	6	0.093333	3.44563E-001	-6.01517E-003	0.00000E+000	-2.07260E-003	-3.59960E-001	-1.08439E+000	3.57990E+000	10	...........
	7	0.106667	3.35951E-001	-6.01440E-003	0.00000E+000	-2.02055E-003	-3.59960E-001	-1.08406E+000	3.57990E+000	10	...........
	8	0.12	3.27539E-001	-6.01766E-003	0.00000E+000	-1.97102E-003	-3.59960E-001	-1.09477E+000	3.57990E+000	10	...........
	9	0.133333	3.19280E-001	-6.01193E-003	0.00000E+000	-1.91949E-003	-3.59960E-001	-1.08386E+000	3.57990E+000	10	...........
	10	0.146667	3.11098E-001	-6.01058E-003	0.00000E+000	-1.86988E-003	-3.59960E-001	-1.08355E+000	3.57990E+000	10	...........
	11	0.16	3.03011E-001	-6.01789E-003	0.00000E+000	-1.82349E-003	-3.59960E-001	-1.09428E+000	3.57990E+000	10	...........
	12	0.173333	2.95162E-001	-6.01419E-003	0.00000E+000	-1.77516E-003	-3.59960E-001	-1.08368E+000	3.57990E+000	10	...........
	13	0.186667	2.87303E-001	-6.01239E-003	0.00000E+000	-1.72738E-003	-3.59960E-001	-1.08368E+000	3.57990E+000	10	...........
	14	0.2	2.79597E-001	-6.01513E-003	0.00000E+000	-1.68181E-003	-3.59960E-001	-1.09415E+000	3.57990E+000	10	...........
	15	0.213333	2.71953E-001	-6.01551E-003	0.00000E+000	-1.63593E-003	-3.59960E-001	-1.08370E+000	3.57990E+000	10	...........
	16	0.226667	2.64403E-001	-6.01646E-003	0.00000E+000	-1.59077E-003	-3.59960E-001	-1.08390E+000	3.57990E+000	10	...........
	17	0.24	2.56899E-001	-6.01357E-003	0.00000E+000	-1.54488E-003	-3.59960E-001	-1.09449E+000	3.57990E+000	10	...........
	18	0.253333	2.49541E-001	-6.01532E-003	0.00000E+000	-1.50107E-003	-3.59960E-001	-1.08384E+000	3.57990E+000	10	...........
	19	0.266667	2.42296E-001	-6.01106E-003	0.00000E+000	-1.45646E-003	-3.59960E-001	-1.08360E+000	3.57990E+000	10	...........
	20	0.28	2.35078E-001	-6.01872E-003	0.00000E+000	-1.41487E-003	-3.59960E-001	-1.09443E+000	3.57990E+000	10	...........
	21	0.293333	2.27939E-001	-6.01614E-003	0.00000E+000	-1.37131E-003	-3.59960E-001	-1.08423E+000	3.57990E+000	10	...........
	22	0.306667	2.20895E-001	-6.01358E-003	0.00000E+000	-1.32837E-003	-3.59960E-001	-1.08410E+000	3.57990E+000	10	...........
	23	0.32	2.13875E-001	-6.01420E-003	0.00000E+000	-1.28629E-003	-3.59960E-001	-1.09456E+000	3.57990E+000	10	...........
	24	0.333333	2.06960E-001	-6.01268E-003	0.00000E+000	-1.24438E-003	-3.59960E-001	-1.08398E+000	3.57990E+000	10	...........
	25	0.346667	2.00135E-001	-6.01762E-003	0.00000E+000	-1.20434E-003	-3.59960E-001	-1.08416E+000	3.57990E+000	10	...........
	26	0.36	1.93343E-001	-6.01327E-003	0.00000E+000	-1.16262E-003	-3.59960E-001	-1.09505E+000	3.57990E+000	10	...........
	27	0.373333	1.86631E-001	-6.01646E-003	0.00000E+000	-1.12285E-003	-3.59960E-001	-1.08476E+000	3.57990E+000	10	...........
	28	0.386667	1.79946E-001	-6.01706E-003	0.00000E+000	-1.08275E-003	-3.59960E-001	-1.08442E+000	3.57990E+000	10	...........
	29	0.4	1.73408E-001	-6.01381E-003	0.00000E+000	-1.04284E-003	-3.59960E-001	-1.09508E+000	3.57990E+000	10	...........
	30	0.413333	1.66867E-001	-6.01216E-003	0.00000E+000	-1.00323E-003	-3.59960E-001	-1.08460E+000	3.57990E+000	10	...........
	31	0.426667	1.60389E-001	-6.01459E-003	0.00000E+000	-9.64672E-004	-3.59960E-001	-1.08510E+000	3.57827E+000	10	...........
	32	0.44	1.53971E-001	-6.01671E-003	0.00000E+000	-9.26398E-004	-3.59960E-001	-1.09536E+000	3.57740E+000	10	...........
	33	0.453333	1.47632E-001	-6.01409E-003	0.00000E+000	-8.87872E-004	-3.59960E-001	-1.08454E+000	3.57740E+000	10	...........
	34	0.466667	1.41377E-001	-6.01756E-003	0.00000E+000	-8.50745E-004	-3.59960E-001	-1.08463E+000	3.57740E+000	10	...........
	35	0.48	1.35124E-001	-6.01295E-003	0.00000E+000	-8.12495E-004	-3.59960E-001	-1.09511E+000	3.57740E+000	10	...........
	36	0.493333	1.28997E-001	-6.01586E-003	0.00000E+000	-7.76031E-004	-3.59960E-001	-1.08459E+000	3.57740E+000	10	...........
	37	0.506667	1.22894E-001	-6.01678E-003	0.00000E+000	-7.39424E-004	-3.59960E-001	-1.08498E+000	3.57740E+000	10	...........
	38	0.52	1.16823E-001	-6.01547E-003	0.00000E+000	-7.02749E-004	-3.59960E-001	-1.09498E+000	3.57740E+000	10	...........
	39	0.533333	1.10888E-001	-6.01029E-003	0.00000E+000	-6.66472E-004	-3.59960E-001	-1.08434E+000	3.57740E+000	10	...........
	40	0.546667	1.04949E-001	-6.01657E-003	0.00000E+000	-6.31433E-004	-3.59960E-001	-1.08499E+000	3.57740E+000	10	...........
	41	0.56	9.90554E-002	-6.01576E-003	0.00000E+000	-5.95893E-004	-3.59960E-001	-1.09571E+000	3.57740E+000	10	...........
	42	0.573333	9.32063E-002	-6.01935E-003	0.00000E+000	-5.61042E-004	-3.59960E-001	-1.08463E+000	3.57740E+000	10	...........
	43	0.586667	8.74128E-002	-6.01122E-003	0.00000E+000	-5.25457E-004	-3.59960E-001	-1.08488E+000	3.57740E+000	10	...........
	44	0.6	8.16506E-002	-6.01495E-003	0.00000E+000	-4.91125E-004	-3.59960E-001	-1.09540E+000	3.57740E+000	10	...........
	45	0.613333	7.59828E-002	-6.01506E-003	0.00000E+000	-4.57041E-004	-3.59960E-001	-1.08457E+000	3.57740E+000	10	...........
	46	0.626667	7.03090E-002	-6.01296E-003	0.00000E+000	-4.22765E-004	-3.59960E-001	-1.08477E+000	3.57740E+000	10	...........
	47	0.64	6.47282E-002	-6.01547E-003	0.00000E+000	-3.89371E-004	-3.59960E-001	-1.09479E+000	3.57740E+000	10	...........
	48	0.653333	5.91376E-002	-6.01526E-003	0.00000E+000	-3.55728E-004	-3.59960E-001	-1.08366E+000	3.57740E+000	10	...........
	49	0.666667	5.36705E-002	-6.01618E-003	0.00000E+000	-3.22892E-004	-3.59960E-001	-1.08416E+000	3.57740E+000	10	...........
	50	0.68	4.82294E-002	-6.01088E-003	0.00000E+000	-2.89901E-004	-3.59960E-001	-1.09493E+000	3.57740E+000	10	...........
	51	0.693333	4.27925E-002	-6.01352E-003	0.00000E+000	-2.57334E-004	-3.59960E-001	-1.08416E+000	3.57740E+000	10	...........
	52	0.706667	3.73804E-002	-6.01571E-003	0.00000E+000	-2.24870E-004	-3.59960E-001	-1.08399E+000	3.57740E+000	10	...........
	53	0.72	3.20862E-002	-6.01060E-003	0.00000E+000	-1.92858E-004	-3.59960E-001	-1.09417E+000	3.57740E+000	10	...........
	54	0.733333	2.67967E-002	-6.01771E-003	0.00000E+000	-1.61255E-004	-3.59960E-001	-1.08403E+000	3.57740E+000	10	...........
	55	0.746667	2.15448E-002	-6.01731E-003	0.00000E+000	-1.29642E-004	-3.59960E-001	-1.08435E+000	3.57740E+000	10	...........
	56	0.76	1.63615E-002	-6.01589E-003	0.00000E+000	-9.84292E-005	-3.59960E-001	-1.09416E+000	3.57740E+000	10	...........
	57	0.773333	1.12095E-002	-6.01771E-003	0.00000E+000	-6.74554E-005	-3.59960E-001	-1.08292E+000	3.57740E+000	10	...........
	58	0.786667	6.06595E-003	-6.01768E-003	0.00000E+000	-3.65029E-005	-3.59960E-001	-1.08307E+000	3.57740E+000	10	...........
	59	0.798333	1.33426E-003	-6.01173E-003	0.00000E+000	-8.02122E-006	-3.59960E-001	-1.09414E+000	3.57740E+000	10	...........
STARTTIMEOFFSET	QUANT	654.0331	Start Time Offset (s)
