EXPLAIN
TAG	PWR800_DISCHARGE
TITLE	LABEL	PWR Cyclic Charge Discharge (Cell) - Discharge Step	Test &Identifier
DATE	LABEL	22-6-2017	Date
TIME	LABEL	16:13:38	Time
NOTES	NOTES	3	&Notes...
	supercap test cell
	0.6mg
	6M KOH
PSTAT	PSTAT	IFC5000-01520	Potentiostat
CAPACITY	QUANT	1.00000E-003	Capacity (A-hr)
CELLTYPE	SELECTOR	1	&Cell Type
WORKINGCONNECTION	SELECTOR	0	&Working Lead
MAXDISCHARGETIME	VARIABLEANDUNITS	1.00000E+002	s	1.00000E+002	second(s)	Max &Discharge Time
DISCHARGEMODE	MULTIPARAM	0	6.00000E-003	&Discharge Mode	Constant Current	Amp(s)
SAMPLETIME	QUANT	1.00000E-002	Sa&mple Period (s)
DISCHARGESTOPAT1	MULTIPARAM	3	0.00000E+000	Discharge Stop At &1	Voltage < Limit	V
DISCHARGESTOPAT2	MULTIPARAM	0	0.00000E+000	Discharge Stop At &2	None	N/A
AESBHCSELECTOR	TOGGLE	F	Save Both Half Cells
IRCOMP	TOGGLE	F	IR &Measure
EOC	QUANT	0	Open Circuit (V)
SEQUENCER	TOGGLE	TRUE	Run as Sequence
PSTATMODEL	IQUANT	53	Pstat Model
PSTATSECTION	LABEL	IFC5000-01520	Pstat Section
PSTATSERIALNO	LABEL	01520	Pstat Serial Number
CTRLMODE	IQUANT	0	Control Mode
ELECTROMETER	IQUANT	1	RE=0 or CS=1
IESTAB	IQUANT	0	I/E Stability
CASPEED	IQUANT	4	Control Amp Speed
CONVENTION	IQUANT	1	Current Convention
ICHRANGE	IQUANT	2	Ich Range
ICHRANGEMODE	TOGGLE	T	Ich Auto Range
ICHOFFSETENABLE	TOGGLE	F	Ich Offset Enable
ICHOFFSET	QUANT	0	Ich Offset (V)
ICHFILTER	IQUANT	1	Ich Filter
VCHRANGE	IQUANT	2	Vch Range
VCHRANGEMODE	TOGGLE	T	Vch Auto Range
VCHOFFSETENABLE	TOGGLE	F	Vch Offset Enable
VCHOFFSET	QUANT	0	Vch Offset (V)
VCHFILTER	IQUANT	1	Vch Filter
IERANGELOWERLIMIT	IQUANT	9	I/E Range Lower Limit
IERANGEMODE	TOGGLE	F	I/E AutoRange
IERANGE	IQUANT	10	I/E Range
ACHSELECT	IQUANT	1	Ach Select
ACHRANGE	IQUANT	2	Ach Range
ACHOFFSETENABLE	TOGGLE	F	Ach Offset Enable
ACHOFFSET	QUANT	0	Ach Offset (V)
ACHFILTER	IQUANT	1	Ach Filter
CABLEID	IQUANT	14	Cable ID
DCCALDATE	LABEL	20-10-2016	DC Calibration Date
ACCALDATE	LABEL	12/3/2015	AC Calibration Date
FRAMEWORKVERSION	QUANT	7.01	Framework Version
INSTRUMENTVERSION	LABEL	4.00	Instrument Version
CURVE	TABLE	52
	Pt	T	Vf	Im	Vu	Pwr	Sig	Ach	Temp	IERange	Over
	#	s	V	A	V	W	V	V	deg C	#	bits
	0	0.013333	3.77095E-001	-6.01271E-003	0.00000E+000	-2.26736E-003	-3.59960E-001	-1.13603E+000	3.57780E+000	10	...........
	1	0.026667	3.65454E-001	-6.01346E-003	0.00000E+000	-2.19765E-003	-3.59960E-001	-1.14547E+000	3.57780E+000	10	...........
	2	0.04	3.54667E-001	-6.01487E-003	0.00000E+000	-2.13327E-003	-3.59960E-001	-1.14148E+000	3.57780E+000	10	...........
	3	0.053333	3.44428E-001	-6.01462E-003	0.00000E+000	-2.07160E-003	-3.59960E-001	-1.13634E+000	3.57780E+000	10	...........
	4	0.066667	3.34564E-001	-6.01063E-003	0.00000E+000	-2.01094E-003	-3.59960E-001	-1.14559E+000	3.57780E+000	10	...........
	5	0.08	3.24992E-001	-6.01518E-003	0.00000E+000	-1.95489E-003	-3.59960E-001	-1.14142E+000	3.57780E+000	10	...........
	6	0.093333	3.15663E-001	-6.01595E-003	0.00000E+000	-1.89902E-003	-3.59960E-001	-1.13631E+000	3.57780E+000	10	...........
	7	0.106667	3.06463E-001	-6.01777E-003	0.00000E+000	-1.84422E-003	-3.59960E-001	-1.14576E+000	3.57780E+000	10	...........
	8	0.12	2.97472E-001	-6.01714E-003	0.00000E+000	-1.78993E-003	-3.59960E-001	-1.14202E+000	3.57780E+000	10	...........
	9	0.133333	2.88584E-001	-6.01293E-003	0.00000E+000	-1.73524E-003	-3.59960E-001	-1.13649E+000	3.57780E+000	10	...........
	10	0.146667	2.79880E-001	-6.01282E-003	0.00000E+000	-1.68286E-003	-3.59960E-001	-1.14579E+000	3.57780E+000	10	...........
	11	0.16	2.71313E-001	-6.01845E-003	0.00000E+000	-1.63288E-003	-3.59960E-001	-1.14186E+000	3.57780E+000	10	...........
	12	0.173333	2.62874E-001	-6.01178E-003	0.00000E+000	-1.58034E-003	-3.59960E-001	-1.13686E+000	3.57780E+000	10	...........
	13	0.186667	2.54554E-001	-6.01672E-003	0.00000E+000	-1.53158E-003	-3.59960E-001	-1.14603E+000	3.57780E+000	10	...........
	14	0.2	2.46318E-001	-6.01324E-003	0.00000E+000	-1.48117E-003	-3.59960E-001	-1.14202E+000	3.57780E+000	10	...........
	15	0.213333	2.38180E-001	-6.01582E-003	0.00000E+000	-1.43285E-003	-3.59960E-001	-1.13667E+000	3.57780E+000	10	...........
	16	0.226667	2.30112E-001	-6.01762E-003	0.00000E+000	-1.38473E-003	-3.59960E-001	-1.14617E+000	3.57780E+000	10	...........
	17	0.24	2.22212E-001	-6.01525E-003	0.00000E+000	-1.33666E-003	-3.59960E-001	-1.14236E+000	3.57780E+000	10	...........
	18	0.253333	2.14437E-001	-6.01380E-003	0.00000E+000	-1.28958E-003	-3.59960E-001	-1.13713E+000	3.57780E+000	10	...........
	19	0.266667	2.06735E-001	-6.01929E-003	0.00000E+000	-1.24440E-003	-3.59960E-001	-1.14633E+000	3.57780E+000	10	...........
	20	0.28	1.99129E-001	-6.01581E-003	0.00000E+000	-1.19792E-003	-3.59960E-001	-1.14244E+000	3.57780E+000	10	...........
	21	0.293333	1.91593E-001	-6.01436E-003	0.00000E+000	-1.15231E-003	-3.59960E-001	-1.13732E+000	3.57780E+000	10	...........
	22	0.306667	1.84152E-001	-6.01496E-003	0.00000E+000	-1.10767E-003	-3.59960E-001	-1.14664E+000	3.57780E+000	10	...........
	23	0.32	1.76794E-001	-6.01424E-003	0.00000E+000	-1.06328E-003	-3.59960E-001	-1.14245E+000	3.57780E+000	10	...........
	24	0.333333	1.69528E-001	-6.01265E-003	0.00000E+000	-1.01932E-003	-3.59960E-001	-1.13728E+000	3.57780E+000	10	...........
	25	0.346667	1.62351E-001	-6.01481E-003	0.00000E+000	-9.76507E-004	-3.59960E-001	-1.14640E+000	3.57780E+000	10	...........
	26	0.36	1.55275E-001	-6.01408E-003	0.00000E+000	-9.33835E-004	-3.59960E-001	-1.14252E+000	3.57780E+000	10	...........
	27	0.373333	1.48277E-001	-6.01598E-003	0.00000E+000	-8.92033E-004	-3.59960E-001	-1.13708E+000	3.57780E+000	10	...........
	28	0.386667	1.41364E-001	-6.01608E-003	0.00000E+000	-8.50456E-004	-3.59960E-001	-1.14660E+000	3.57780E+000	10	...........
	29	0.4	1.34502E-001	-6.01376E-003	0.00000E+000	-8.08863E-004	-3.59960E-001	-1.14252E+000	3.57780E+000	10	...........
	30	0.413333	1.27698E-001	-6.01576E-003	0.00000E+000	-7.68203E-004	-3.59960E-001	-1.13709E+000	3.57780E+000	10	...........
	31	0.426667	1.20991E-001	-6.01631E-003	0.00000E+000	-7.27921E-004	-3.59960E-001	-1.14653E+000	3.57780E+000	10	...........
	32	0.44	1.14401E-001	-6.01864E-003	0.00000E+000	-6.88539E-004	-3.59960E-001	-1.14285E+000	3.57780E+000	10	...........
	33	0.453333	1.07811E-001	-6.01339E-003	0.00000E+000	-6.48310E-004	-3.59960E-001	-1.13740E+000	3.57780E+000	10	...........
	34	0.466667	1.01303E-001	-6.01729E-003	0.00000E+000	-6.09571E-004	-3.59960E-001	-1.14665E+000	3.57780E+000	10	...........
	35	0.48	9.48991E-002	-6.01679E-003	0.00000E+000	-5.70988E-004	-3.59960E-001	-1.14261E+000	3.57780E+000	10	...........
	36	0.493333	8.85253E-002	-6.02108E-003	0.00000E+000	-5.33017E-004	-3.59960E-001	-1.13748E+000	3.57780E+000	10	...........
	37	0.506667	8.22768E-002	-6.01503E-003	0.00000E+000	-4.94897E-004	-3.59960E-001	-1.14682E+000	3.57780E+000	10	...........
	38	0.52	7.60495E-002	-6.01494E-003	0.00000E+000	-4.57433E-004	-3.59960E-001	-1.14283E+000	3.57780E+000	10	...........
	39	0.533333	6.98527E-002	-6.01543E-003	0.00000E+000	-4.20194E-004	-3.59960E-001	-1.13747E+000	3.57780E+000	10	...........
	40	0.546667	6.37663E-002	-6.01709E-003	0.00000E+000	-3.83688E-004	-3.59960E-001	-1.14652E+000	3.57780E+000	10	...........
	41	0.56	5.77521E-002	-6.01539E-003	0.00000E+000	-3.47402E-004	-3.59960E-001	-1.14308E+000	3.57780E+000	10	...........
	42	0.573333	5.18043E-002	-6.01098E-003	0.00000E+000	-3.11394E-004	-3.59960E-001	-1.13807E+000	3.57780E+000	10	...........
	43	0.586667	4.59097E-002	-6.01644E-003	0.00000E+000	-2.76213E-004	-3.59960E-001	-1.14708E+000	3.57780E+000	10	...........
	44	0.6	4.00717E-002	-6.01393E-003	0.00000E+000	-2.40988E-004	-3.59960E-001	-1.14308E+000	3.57780E+000	10	...........
	45	0.613333	3.42955E-002	-6.01412E-003	0.00000E+000	-2.06257E-004	-3.59960E-001	-1.13783E+000	3.57780E+000	10	...........
	46	0.626667	2.85695E-002	-6.01253E-003	0.00000E+000	-1.71775E-004	-3.59960E-001	-1.14720E+000	3.57780E+000	10	...........
	47	0.64	2.28996E-002	-6.01285E-003	0.00000E+000	-1.37692E-004	-3.59960E-001	-1.14361E+000	3.57780E+000	10	...........
	48	0.653333	1.72192E-002	-6.01323E-003	0.00000E+000	-1.03543E-004	-3.59960E-001	-1.13807E+000	3.57830E+000	10	...........
	49	0.666667	1.16585E-002	-6.01844E-003	0.00000E+000	-7.01657E-005	-3.59960E-001	-1.14697E+000	3.57860E+000	10	...........
	50	0.68	6.14663E-003	-6.01630E-003	0.00000E+000	-3.69800E-005	-3.59960E-001	-1.14313E+000	3.57860E+000	10	...........
	51	0.69	1.36481E-003	-6.01387E-003	0.00000E+000	-8.20776E-006	-3.59960E-001	-1.13638E+000	3.57860E+000	10	...........
STARTTIMEOFFSET	QUANT	1547.241	Start Time Offset (s)
