EXPLAIN
TAG	PWR800_DISCHARGE
TITLE	LABEL	PWR Cyclic Charge Discharge (Cell) - Discharge Step	Test &Identifier
DATE	LABEL	22-6-2017	Date
TIME	LABEL	16:04:35	Time
NOTES	NOTES	3	&Notes...
	supercap test cell
	0.6mg
	6M KOH
PSTAT	PSTAT	IFC5000-01520	Potentiostat
CAPACITY	QUANT	1.00000E-003	Capacity (A-hr)
CELLTYPE	SELECTOR	1	&Cell Type
WORKINGCONNECTION	SELECTOR	0	&Working Lead
MAXDISCHARGETIME	VARIABLEANDUNITS	1.00000E+002	s	1.00000E+002	second(s)	Max &Discharge Time
DISCHARGEMODE	MULTIPARAM	0	6.00000E-003	&Discharge Mode	Constant Current	Amp(s)
SAMPLETIME	QUANT	1.00000E-002	Sa&mple Period (s)
DISCHARGESTOPAT1	MULTIPARAM	3	0.00000E+000	Discharge Stop At &1	Voltage < Limit	V
DISCHARGESTOPAT2	MULTIPARAM	0	0.00000E+000	Discharge Stop At &2	None	N/A
AESBHCSELECTOR	TOGGLE	F	Save Both Half Cells
IRCOMP	TOGGLE	F	IR &Measure
EOC	QUANT	0	Open Circuit (V)
SEQUENCER	TOGGLE	TRUE	Run as Sequence
PSTATMODEL	IQUANT	53	Pstat Model
PSTATSECTION	LABEL	IFC5000-01520	Pstat Section
PSTATSERIALNO	LABEL	01520	Pstat Serial Number
CTRLMODE	IQUANT	0	Control Mode
ELECTROMETER	IQUANT	1	RE=0 or CS=1
IESTAB	IQUANT	0	I/E Stability
CASPEED	IQUANT	4	Control Amp Speed
CONVENTION	IQUANT	1	Current Convention
ICHRANGE	IQUANT	2	Ich Range
ICHRANGEMODE	TOGGLE	T	Ich Auto Range
ICHOFFSETENABLE	TOGGLE	F	Ich Offset Enable
ICHOFFSET	QUANT	0	Ich Offset (V)
ICHFILTER	IQUANT	1	Ich Filter
VCHRANGE	IQUANT	2	Vch Range
VCHRANGEMODE	TOGGLE	T	Vch Auto Range
VCHOFFSETENABLE	TOGGLE	F	Vch Offset Enable
VCHOFFSET	QUANT	0	Vch Offset (V)
VCHFILTER	IQUANT	1	Vch Filter
IERANGELOWERLIMIT	IQUANT	9	I/E Range Lower Limit
IERANGEMODE	TOGGLE	F	I/E AutoRange
IERANGE	IQUANT	10	I/E Range
ACHSELECT	IQUANT	1	Ach Select
ACHRANGE	IQUANT	2	Ach Range
ACHOFFSETENABLE	TOGGLE	F	Ach Offset Enable
ACHOFFSET	QUANT	0	Ach Offset (V)
ACHFILTER	IQUANT	1	Ach Filter
CABLEID	IQUANT	14	Cable ID
DCCALDATE	LABEL	20-10-2016	DC Calibration Date
ACCALDATE	LABEL	12/3/2015	AC Calibration Date
FRAMEWORKVERSION	QUANT	7.01	Framework Version
INSTRUMENTVERSION	LABEL	4.00	Instrument Version
CURVE	TABLE	55
	Pt	T	Vf	Im	Vu	Pwr	Sig	Ach	Temp	IERange	Over
	#	s	V	A	V	W	V	V	deg C	#	bits
	0	0.013333	3.86139E-001	-6.01174E-003	0.00000E+000	-2.32137E-003	-3.59960E-001	-1.13190E+000	3.57780E+000	10	...........
	1	0.026667	3.74734E-001	-6.01388E-003	0.00000E+000	-2.25361E-003	-3.59960E-001	-1.12117E+000	3.57780E+000	10	...........
	2	0.04	3.64131E-001	-6.01331E-003	0.00000E+000	-2.18963E-003	-3.59960E-001	-1.12184E+000	3.57780E+000	10	...........
	3	0.053333	3.54091E-001	-6.01661E-003	0.00000E+000	-2.13043E-003	-3.59960E-001	-1.13207E+000	3.57780E+000	10	...........
	4	0.066667	3.44422E-001	-6.01493E-003	0.00000E+000	-2.07168E-003	-3.59960E-001	-1.12150E+000	3.57780E+000	10	...........
	5	0.08	3.35005E-001	-6.01388E-003	0.00000E+000	-2.01468E-003	-3.59960E-001	-1.12253E+000	3.57780E+000	10	...........
	6	0.093333	3.25875E-001	-6.01662E-003	0.00000E+000	-1.96066E-003	-3.59960E-001	-1.13246E+000	3.57780E+000	10	...........
	7	0.106667	3.16888E-001	-6.01159E-003	0.00000E+000	-1.90500E-003	-3.59960E-001	-1.12177E+000	3.57780E+000	10	...........
	8	0.12	3.08065E-001	-6.01655E-003	0.00000E+000	-1.85349E-003	-3.59960E-001	-1.12249E+000	3.57780E+000	10	...........
	9	0.133333	2.99406E-001	-6.01721E-003	0.00000E+000	-1.80159E-003	-3.59960E-001	-1.13256E+000	3.57780E+000	10	...........
	10	0.146667	2.90861E-001	-6.01517E-003	0.00000E+000	-1.74958E-003	-3.59960E-001	-1.12189E+000	3.57780E+000	10	...........
	11	0.16	2.82444E-001	-6.01273E-003	0.00000E+000	-1.69826E-003	-3.59960E-001	-1.12294E+000	3.57780E+000	10	...........
	12	0.173333	2.74168E-001	-6.01170E-003	0.00000E+000	-1.64822E-003	-3.59960E-001	-1.13282E+000	3.57780E+000	10	...........
	13	0.186667	2.65996E-001	-6.01460E-003	0.00000E+000	-1.59986E-003	-3.59960E-001	-1.12201E+000	3.57780E+000	10	...........
	14	0.2	2.57920E-001	-6.01877E-003	0.00000E+000	-1.55236E-003	-3.59960E-001	-1.12305E+000	3.57780E+000	10	...........
	15	0.213333	2.49916E-001	-6.01847E-003	0.00000E+000	-1.50411E-003	-3.59960E-001	-1.13314E+000	3.57780E+000	10	...........
	16	0.226667	2.42044E-001	-6.01113E-003	0.00000E+000	-1.45496E-003	-3.59960E-001	-1.12274E+000	3.57780E+000	10	...........
	17	0.24	2.34278E-001	-6.01809E-003	0.00000E+000	-1.40991E-003	-3.59960E-001	-1.12347E+000	3.57780E+000	10	...........
	18	0.253333	2.26616E-001	-6.01008E-003	0.00000E+000	-1.36198E-003	-3.59960E-001	-1.13324E+000	3.57780E+000	10	...........
	19	0.266667	2.19007E-001	-6.01479E-003	0.00000E+000	-1.31728E-003	-3.59960E-001	-1.12264E+000	3.57780E+000	10	...........
	20	0.28	2.11530E-001	-6.01576E-003	0.00000E+000	-1.27251E-003	-3.59960E-001	-1.12360E+000	3.57780E+000	10	...........
	21	0.293333	2.04144E-001	-6.01522E-003	0.00000E+000	-1.22797E-003	-3.59960E-001	-1.13337E+000	3.57780E+000	10	...........
	22	0.306667	1.96837E-001	-6.01311E-003	0.00000E+000	-1.18360E-003	-3.59960E-001	-1.12269E+000	3.57780E+000	10	...........
	23	0.32	1.89571E-001	-6.01812E-003	0.00000E+000	-1.14086E-003	-3.59960E-001	-1.12348E+000	3.57780E+000	10	...........
	24	0.333333	1.82410E-001	-6.01505E-003	0.00000E+000	-1.09721E-003	-3.59960E-001	-1.13306E+000	3.57780E+000	10	...........
	25	0.346667	1.75349E-001	-6.01574E-003	0.00000E+000	-1.05486E-003	-3.59960E-001	-1.12237E+000	3.57780E+000	10	...........
	26	0.36	1.68346E-001	-6.01037E-003	0.00000E+000	-1.01182E-003	-3.59960E-001	-1.12390E+000	3.57780E+000	10	...........
	27	0.373333	1.61386E-001	-6.01460E-003	0.00000E+000	-9.70673E-004	-3.59960E-001	-1.13351E+000	3.57780E+000	10	...........
	28	0.386667	1.54576E-001	-6.02355E-003	0.00000E+000	-9.31098E-004	-3.59960E-001	-1.12270E+000	3.57780E+000	10	...........
	29	0.4	1.47822E-001	-6.01564E-003	0.00000E+000	-8.89243E-004	-3.59960E-001	-1.12376E+000	3.57780E+000	10	...........
	30	0.413333	1.41111E-001	-6.01437E-003	0.00000E+000	-8.48693E-004	-3.59960E-001	-1.13351E+000	3.57780E+000	10	...........
	31	0.426667	1.34435E-001	-6.01946E-003	0.00000E+000	-8.09228E-004	-3.59960E-001	-1.12275E+000	3.57780E+000	10	...........
	32	0.44	1.27857E-001	-6.01327E-003	0.00000E+000	-7.68842E-004	-3.59960E-001	-1.12400E+000	3.57780E+000	10	...........
	33	0.453333	1.21385E-001	-6.01614E-003	0.00000E+000	-7.30271E-004	-3.59960E-001	-1.13327E+000	3.57780E+000	10	...........
	34	0.466667	1.14981E-001	-6.01576E-003	0.00000E+000	-6.91700E-004	-3.59960E-001	-1.12269E+000	3.57780E+000	10	...........
	35	0.48	1.08619E-001	-6.01407E-003	0.00000E+000	-6.53244E-004	-3.59960E-001	-1.12424E+000	3.57780E+000	10	...........
	36	0.493333	1.02303E-001	-6.01147E-003	0.00000E+000	-6.14989E-004	-3.59960E-001	-1.13376E+000	3.57780E+000	10	...........
	37	0.506667	9.61025E-002	-6.01568E-003	0.00000E+000	-5.78122E-004	-3.59960E-001	-1.12285E+000	3.57780E+000	10	...........
	38	0.52	8.99370E-002	-6.01556E-003	0.00000E+000	-5.41021E-004	-3.59960E-001	-1.12439E+000	3.57780E+000	10	...........
	39	0.533333	8.38155E-002	-6.01206E-003	0.00000E+000	-5.03904E-004	-3.59960E-001	-1.13364E+000	3.57780E+000	10	...........
	40	0.546667	7.77898E-002	-6.00842E-003	0.00000E+000	-4.67394E-004	-3.59960E-001	-1.12317E+000	3.57780E+000	10	...........
	41	0.56	7.17831E-002	-6.01651E-003	0.00000E+000	-4.31884E-004	-3.59960E-001	-1.12474E+000	3.57780E+000	10	...........
	42	0.573333	6.58694E-002	-6.01493E-003	0.00000E+000	-3.96200E-004	-3.59960E-001	-1.13384E+000	3.57780E+000	10	...........
	43	0.586667	5.99746E-002	-6.01358E-003	0.00000E+000	-3.60662E-004	-3.59960E-001	-1.12312E+000	3.57780E+000	10	...........
	44	0.6	5.41624E-002	-6.01294E-003	0.00000E+000	-3.25675E-004	-3.59960E-001	-1.12454E+000	3.57780E+000	10	...........
	45	0.613333	4.83924E-002	-6.00998E-003	0.00000E+000	-2.90837E-004	-3.59960E-001	-1.13398E+000	3.57780E+000	10	...........
	46	0.626667	4.26907E-002	-6.01565E-003	0.00000E+000	-2.56812E-004	-3.59960E-001	-1.12337E+000	3.57780E+000	10	...........
	47	0.64	3.70392E-002	-6.01263E-003	0.00000E+000	-2.22703E-004	-3.59960E-001	-1.12461E+000	3.57780E+000	10	...........
	48	0.653333	3.14267E-002	-6.01706E-003	0.00000E+000	-1.89097E-004	-3.59960E-001	-1.13357E+000	3.57780E+000	10	...........
	49	0.666667	2.58724E-002	-6.01638E-003	0.00000E+000	-1.55658E-004	-3.59960E-001	-1.12289E+000	3.57780E+000	10	...........
	50	0.68	2.03930E-002	-6.01154E-003	0.00000E+000	-1.22593E-004	-3.59960E-001	-1.12454E+000	3.57780E+000	10	...........
	51	0.693333	1.49087E-002	-6.01522E-003	0.00000E+000	-8.96791E-005	-3.59960E-001	-1.13383E+000	3.57780E+000	10	...........
	52	0.706667	9.49484E-003	-6.01372E-003	0.00000E+000	-5.70994E-005	-3.59960E-001	-1.12299E+000	3.57780E+000	10	...........
	53	0.72	4.17523E-003	-6.01672E-003	0.00000E+000	-2.51212E-005	-3.59960E-001	-1.12451E+000	3.57780E+000	10	...........
	54	0.725	5.04875E-004	-6.01395E-003	0.00000E+000	-3.03629E-006	-3.59960E-001	-1.13035E+000	3.57780E+000	10	...........
STARTTIMEOFFSET	QUANT	1199.404	Start Time Offset (s)
