EXPLAIN
TAG	PWR800_DISCHARGE
TITLE	LABEL	PWR Cyclic Charge Discharge (Cell) - Discharge Step	Test &Identifier
DATE	LABEL	22-6-2017	Date
TIME	LABEL	16:01:20	Time
NOTES	NOTES	3	&Notes...
	supercap test cell
	0.6mg
	6M KOH
PSTAT	PSTAT	IFC5000-01520	Potentiostat
CAPACITY	QUANT	1.00000E-003	Capacity (A-hr)
CELLTYPE	SELECTOR	1	&Cell Type
WORKINGCONNECTION	SELECTOR	0	&Working Lead
MAXDISCHARGETIME	VARIABLEANDUNITS	1.00000E+002	s	1.00000E+002	second(s)	Max &Discharge Time
DISCHARGEMODE	MULTIPARAM	0	6.00000E-003	&Discharge Mode	Constant Current	Amp(s)
SAMPLETIME	QUANT	1.00000E-002	Sa&mple Period (s)
DISCHARGESTOPAT1	MULTIPARAM	3	0.00000E+000	Discharge Stop At &1	Voltage < Limit	V
DISCHARGESTOPAT2	MULTIPARAM	0	0.00000E+000	Discharge Stop At &2	None	N/A
AESBHCSELECTOR	TOGGLE	F	Save Both Half Cells
IRCOMP	TOGGLE	F	IR &Measure
EOC	QUANT	0	Open Circuit (V)
SEQUENCER	TOGGLE	TRUE	Run as Sequence
PSTATMODEL	IQUANT	53	Pstat Model
PSTATSECTION	LABEL	IFC5000-01520	Pstat Section
PSTATSERIALNO	LABEL	01520	Pstat Serial Number
CTRLMODE	IQUANT	0	Control Mode
ELECTROMETER	IQUANT	1	RE=0 or CS=1
IESTAB	IQUANT	0	I/E Stability
CASPEED	IQUANT	4	Control Amp Speed
CONVENTION	IQUANT	1	Current Convention
ICHRANGE	IQUANT	2	Ich Range
ICHRANGEMODE	TOGGLE	T	Ich Auto Range
ICHOFFSETENABLE	TOGGLE	F	Ich Offset Enable
ICHOFFSET	QUANT	0	Ich Offset (V)
ICHFILTER	IQUANT	1	Ich Filter
VCHRANGE	IQUANT	2	Vch Range
VCHRANGEMODE	TOGGLE	T	Vch Auto Range
VCHOFFSETENABLE	TOGGLE	F	Vch Offset Enable
VCHOFFSET	QUANT	0	Vch Offset (V)
VCHFILTER	IQUANT	1	Vch Filter
IERANGELOWERLIMIT	IQUANT	9	I/E Range Lower Limit
IERANGEMODE	TOGGLE	F	I/E AutoRange
IERANGE	IQUANT	10	I/E Range
ACHSELECT	IQUANT	1	Ach Select
ACHRANGE	IQUANT	2	Ach Range
ACHOFFSETENABLE	TOGGLE	F	Ach Offset Enable
ACHOFFSET	QUANT	0	Ach Offset (V)
ACHFILTER	IQUANT	1	Ach Filter
CABLEID	IQUANT	14	Cable ID
DCCALDATE	LABEL	20-10-2016	DC Calibration Date
ACCALDATE	LABEL	12/3/2015	AC Calibration Date
FRAMEWORKVERSION	QUANT	7.01	Framework Version
INSTRUMENTVERSION	LABEL	4.00	Instrument Version
CURVE	TABLE	56
	Pt	T	Vf	Im	Vu	Pwr	Sig	Ach	Temp	IERange	Over
	#	s	V	A	V	W	V	V	deg C	#	bits
	0	0.013333	3.88959E-001	-6.01279E-003	0.00000E+000	-2.33873E-003	-3.59960E-001	-1.11473E+000	3.57660E+000	10	...........
	1	0.026667	3.77645E-001	-6.01389E-003	0.00000E+000	-2.27111E-003	-3.59960E-001	-1.12596E+000	3.57660E+000	10	...........
	2	0.04	3.67173E-001	-6.01299E-003	0.00000E+000	-2.20781E-003	-3.59960E-001	-1.11806E+000	3.57660E+000	10	...........
	3	0.053333	3.57236E-001	-6.00997E-003	0.00000E+000	-2.14698E-003	-3.59960E-001	-1.11498E+000	3.57660E+000	10	...........
	4	0.066667	3.47667E-001	-6.01547E-003	0.00000E+000	-2.09138E-003	-3.59960E-001	-1.12590E+000	3.57660E+000	10	...........
	5	0.08	3.38355E-001	-6.01642E-003	0.00000E+000	-2.03569E-003	-3.59960E-001	-1.11838E+000	3.57660E+000	10	...........
	6	0.093333	3.29258E-001	-6.01933E-003	0.00000E+000	-1.98191E-003	-3.59960E-001	-1.11530E+000	3.57660E+000	10	...........
	7	0.106667	3.20372E-001	-6.01679E-003	0.00000E+000	-1.92761E-003	-3.59960E-001	-1.12618E+000	3.57660E+000	10	...........
	8	0.12	3.11666E-001	-6.01444E-003	0.00000E+000	-1.87450E-003	-3.59960E-001	-1.11811E+000	3.57660E+000	10	...........
	9	0.133333	3.03108E-001	-6.01571E-003	0.00000E+000	-1.82341E-003	-3.59960E-001	-1.11510E+000	3.57660E+000	10	...........
	10	0.146667	2.94649E-001	-6.01911E-003	0.00000E+000	-1.77353E-003	-3.59960E-001	-1.12592E+000	3.57660E+000	10	...........
	11	0.16	2.86331E-001	-6.01192E-003	0.00000E+000	-1.72140E-003	-3.59960E-001	-1.11838E+000	3.57660E+000	10	...........
	12	0.173333	2.78137E-001	-6.01026E-003	0.00000E+000	-1.67167E-003	-3.59960E-001	-1.11541E+000	3.57660E+000	10	...........
	13	0.186667	2.70033E-001	-6.01454E-003	0.00000E+000	-1.62413E-003	-3.59960E-001	-1.12617E+000	3.57660E+000	10	...........
	14	0.2	2.62043E-001	-6.01618E-003	0.00000E+000	-1.57650E-003	-3.59960E-001	-1.11827E+000	3.57660E+000	10	...........
	15	0.213333	2.54133E-001	-6.01830E-003	0.00000E+000	-1.52945E-003	-3.59960E-001	-1.11533E+000	3.57660E+000	10	...........
	16	0.226667	2.46351E-001	-6.01515E-003	0.00000E+000	-1.48184E-003	-3.59960E-001	-1.12638E+000	3.57670E+000	10	...........
	17	0.24	2.38670E-001	-6.01066E-003	0.00000E+000	-1.43456E-003	-3.59960E-001	-1.11871E+000	3.57670E+000	10	...........
	18	0.253333	2.31080E-001	-6.01624E-003	0.00000E+000	-1.39023E-003	-3.59960E-001	-1.11554E+000	3.57670E+000	10	...........
	19	0.266667	2.23566E-001	-6.01825E-003	0.00000E+000	-1.34547E-003	-3.59960E-001	-1.12632E+000	3.57670E+000	10	...........
	20	0.28	2.16145E-001	-6.01504E-003	0.00000E+000	-1.30012E-003	-3.59960E-001	-1.11872E+000	3.57670E+000	10	...........
	21	0.293333	2.08803E-001	-6.01710E-003	0.00000E+000	-1.25639E-003	-3.59960E-001	-1.11571E+000	3.57670E+000	10	...........
	22	0.306667	2.01580E-001	-6.01298E-003	0.00000E+000	-1.21210E-003	-3.59960E-001	-1.12637E+000	3.57670E+000	10	...........
	23	0.32	1.94421E-001	-6.01702E-003	0.00000E+000	-1.16983E-003	-3.59960E-001	-1.11896E+000	3.57670E+000	10	...........
	24	0.333333	1.87329E-001	-6.01626E-003	0.00000E+000	-1.12702E-003	-3.59960E-001	-1.11558E+000	3.57670E+000	10	...........
	25	0.346667	1.80305E-001	-6.01188E-003	0.00000E+000	-1.08397E-003	-3.59960E-001	-1.12655E+000	3.57670E+000	10	...........
	26	0.36	1.73365E-001	-6.01716E-003	0.00000E+000	-1.04317E-003	-3.59960E-001	-1.11938E+000	3.57670E+000	10	...........
	27	0.373333	1.66479E-001	-6.01329E-003	0.00000E+000	-1.00109E-003	-3.59960E-001	-1.11603E+000	3.57670E+000	10	...........
	28	0.386667	1.59653E-001	-6.01457E-003	0.00000E+000	-9.60243E-004	-3.59960E-001	-1.12677E+000	3.57670E+000	10	...........
	29	0.4	1.52908E-001	-6.01526E-003	0.00000E+000	-9.19779E-004	-3.59960E-001	-1.11909E+000	3.57670E+000	10	...........
	30	0.413333	1.46275E-001	-6.01406E-003	0.00000E+000	-8.79703E-004	-3.59960E-001	-1.11590E+000	3.57670E+000	10	...........
	31	0.426667	1.39707E-001	-6.01219E-003	0.00000E+000	-8.39945E-004	-3.59960E-001	-1.12664E+000	3.57670E+000	10	...........
	32	0.44	1.33199E-001	-6.01778E-003	0.00000E+000	-8.01564E-004	-3.59960E-001	-1.11895E+000	3.57670E+000	10	...........
	33	0.453333	1.26744E-001	-6.01218E-003	0.00000E+000	-7.62006E-004	-3.59960E-001	-1.11571E+000	3.57670E+000	10	...........
	34	0.466667	1.20332E-001	-6.01290E-003	0.00000E+000	-7.23543E-004	-3.59960E-001	-1.12633E+000	3.57670E+000	10	...........
	35	0.48	1.14027E-001	-6.01193E-003	0.00000E+000	-6.85521E-004	-3.59960E-001	-1.11904E+000	3.57670E+000	10	...........
	36	0.493333	1.07726E-001	-6.01625E-003	0.00000E+000	-6.48109E-004	-3.59960E-001	-1.11588E+000	3.57670E+000	10	...........
	37	0.506667	1.01497E-001	-6.01252E-003	0.00000E+000	-6.10252E-004	-3.59960E-001	-1.12657E+000	3.57670E+000	10	...........
	38	0.52	9.53679E-002	-6.01651E-003	0.00000E+000	-5.73781E-004	-3.59960E-001	-1.11925E+000	3.57670E+000	10	...........
	39	0.533333	8.92671E-002	-6.01720E-003	0.00000E+000	-5.37138E-004	-3.59960E-001	-1.11571E+000	3.57670E+000	10	...........
	40	0.546667	8.32254E-002	-6.01691E-003	0.00000E+000	-5.00760E-004	-3.59960E-001	-1.12663E+000	3.57670E+000	10	...........
	41	0.56	7.72813E-002	-6.00903E-003	0.00000E+000	-4.64386E-004	-3.59960E-001	-1.11942E+000	3.57670E+000	10	...........
	42	0.573333	7.13469E-002	-6.01641E-003	0.00000E+000	-4.29253E-004	-3.59960E-001	-1.11605E+000	3.57670E+000	10	...........
	43	0.586667	6.55254E-002	-6.01441E-003	0.00000E+000	-3.94097E-004	-3.59960E-001	-1.12653E+000	3.57670E+000	10	...........
	44	0.6	5.97126E-002	-6.01677E-003	0.00000E+000	-3.59277E-004	-3.59960E-001	-1.11914E+000	3.57670E+000	10	...........
	45	0.613333	5.39372E-002	-6.01640E-003	0.00000E+000	-3.24508E-004	-3.59960E-001	-1.11600E+000	3.57670E+000	10	...........
	46	0.626667	4.82720E-002	-6.01584E-003	0.00000E+000	-2.90397E-004	-3.59960E-001	-1.12679E+000	3.57670E+000	10	...........
	47	0.64	4.26835E-002	-6.01788E-003	0.00000E+000	-2.56864E-004	-3.59960E-001	-1.11959E+000	3.57670E+000	10	...........
	48	0.653333	3.70866E-002	-6.01243E-003	0.00000E+000	-2.22980E-004	-3.59960E-001	-1.11602E+000	3.57670E+000	10	...........
	49	0.666667	3.15522E-002	-6.01534E-003	0.00000E+000	-1.89797E-004	-3.59960E-001	-1.12668E+000	3.57670E+000	10	...........
	50	0.68	2.60429E-002	-6.01541E-003	0.00000E+000	-1.56659E-004	-3.59960E-001	-1.11962E+000	3.57670E+000	10	...........
	51	0.693333	2.06014E-002	-6.01433E-003	0.00000E+000	-1.23903E-004	-3.59960E-001	-1.11628E+000	3.57670E+000	10	...........
	52	0.706667	1.51963E-002	-6.01590E-003	0.00000E+000	-9.14195E-005	-3.59960E-001	-1.12702E+000	3.57670E+000	10	...........
	53	0.72	9.86806E-003	-6.01920E-003	0.00000E+000	-5.93978E-005	-3.59960E-001	-1.11977E+000	3.57670E+000	10	...........
	54	0.733333	4.57922E-003	-6.01319E-003	0.00000E+000	-2.75357E-005	-3.59960E-001	-1.11618E+000	3.57670E+000	10	...........
	55	0.74	6.01231E-004	-6.01406E-003	0.00000E+000	-3.61584E-006	-3.59960E-001	-1.13041E+000	3.57670E+000	10	...........
STARTTIMEOFFSET	QUANT	1072.863	Start Time Offset (s)
