EXPLAIN
TAG	PWR800_DISCHARGE
TITLE	LABEL	PWR Cyclic Charge Discharge (Cell) - Discharge Step	Test &Identifier
DATE	LABEL	22-6-2017	Date
TIME	LABEL	16:05:26	Time
NOTES	NOTES	3	&Notes...
	supercap test cell
	0.6mg
	6M KOH
PSTAT	PSTAT	IFC5000-01520	Potentiostat
CAPACITY	QUANT	1.00000E-003	Capacity (A-hr)
CELLTYPE	SELECTOR	1	&Cell Type
WORKINGCONNECTION	SELECTOR	0	&Working Lead
MAXDISCHARGETIME	VARIABLEANDUNITS	1.00000E+002	s	1.00000E+002	second(s)	Max &Discharge Time
DISCHARGEMODE	MULTIPARAM	0	6.00000E-003	&Discharge Mode	Constant Current	Amp(s)
SAMPLETIME	QUANT	1.00000E-002	Sa&mple Period (s)
DISCHARGESTOPAT1	MULTIPARAM	3	0.00000E+000	Discharge Stop At &1	Voltage < Limit	V
DISCHARGESTOPAT2	MULTIPARAM	0	0.00000E+000	Discharge Stop At &2	None	N/A
AESBHCSELECTOR	TOGGLE	F	Save Both Half Cells
IRCOMP	TOGGLE	F	IR &Measure
EOC	QUANT	0	Open Circuit (V)
SEQUENCER	TOGGLE	TRUE	Run as Sequence
PSTATMODEL	IQUANT	53	Pstat Model
PSTATSECTION	LABEL	IFC5000-01520	Pstat Section
PSTATSERIALNO	LABEL	01520	Pstat Serial Number
CTRLMODE	IQUANT	0	Control Mode
ELECTROMETER	IQUANT	1	RE=0 or CS=1
IESTAB	IQUANT	0	I/E Stability
CASPEED	IQUANT	4	Control Amp Speed
CONVENTION	IQUANT	1	Current Convention
ICHRANGE	IQUANT	2	Ich Range
ICHRANGEMODE	TOGGLE	T	Ich Auto Range
ICHOFFSETENABLE	TOGGLE	F	Ich Offset Enable
ICHOFFSET	QUANT	0	Ich Offset (V)
ICHFILTER	IQUANT	1	Ich Filter
VCHRANGE	IQUANT	2	Vch Range
VCHRANGEMODE	TOGGLE	T	Vch Auto Range
VCHOFFSETENABLE	TOGGLE	F	Vch Offset Enable
VCHOFFSET	QUANT	0	Vch Offset (V)
VCHFILTER	IQUANT	1	Vch Filter
IERANGELOWERLIMIT	IQUANT	9	I/E Range Lower Limit
IERANGEMODE	TOGGLE	F	I/E AutoRange
IERANGE	IQUANT	10	I/E Range
ACHSELECT	IQUANT	1	Ach Select
ACHRANGE	IQUANT	2	Ach Range
ACHOFFSETENABLE	TOGGLE	F	Ach Offset Enable
ACHOFFSET	QUANT	0	Ach Offset (V)
ACHFILTER	IQUANT	1	Ach Filter
CABLEID	IQUANT	14	Cable ID
DCCALDATE	LABEL	20-10-2016	DC Calibration Date
ACCALDATE	LABEL	12/3/2015	AC Calibration Date
FRAMEWORKVERSION	QUANT	7.01	Framework Version
INSTRUMENTVERSION	LABEL	4.00	Instrument Version
CURVE	TABLE	55
	Pt	T	Vf	Im	Vu	Pwr	Sig	Ach	Temp	IERange	Over
	#	s	V	A	V	W	V	V	deg C	#	bits
	0	0.013333	3.84865E-001	-6.01788E-003	0.00000E+000	-2.31608E-003	-3.59960E-001	-1.13554E+000	3.57750E+000	10	...........
	1	0.026667	3.73461E-001	-6.01484E-003	0.00000E+000	-2.24631E-003	-3.59960E-001	-1.12507E+000	3.57750E+000	10	...........
	2	0.04	3.62864E-001	-6.01678E-003	0.00000E+000	-2.18327E-003	-3.59960E-001	-1.12530E+000	3.57750E+000	10	...........
	3	0.053333	3.52818E-001	-6.01497E-003	0.00000E+000	-2.12219E-003	-3.59960E-001	-1.13598E+000	3.57750E+000	10	...........
	4	0.066667	3.43092E-001	-6.02029E-003	0.00000E+000	-2.06551E-003	-3.59960E-001	-1.12522E+000	3.57750E+000	10	...........
	5	0.08	3.33643E-001	-6.01532E-003	0.00000E+000	-2.00697E-003	-3.59960E-001	-1.12550E+000	3.57750E+000	10	...........
	6	0.093333	3.24495E-001	-6.01541E-003	0.00000E+000	-1.95197E-003	-3.59960E-001	-1.13602E+000	3.57750E+000	10	...........
	7	0.106667	3.15533E-001	-6.01156E-003	0.00000E+000	-1.89685E-003	-3.59960E-001	-1.12530E+000	3.57750E+000	10	...........
	8	0.12	3.06701E-001	-6.00540E-003	0.00000E+000	-1.84186E-003	-3.59960E-001	-1.12592E+000	3.57750E+000	10	...........
	9	0.133333	2.98067E-001	-6.01899E-003	0.00000E+000	-1.79406E-003	-3.59960E-001	-1.13598E+000	3.57750E+000	10	...........
	10	0.146667	2.89538E-001	-6.01104E-003	0.00000E+000	-1.74042E-003	-3.59960E-001	-1.12515E+000	3.57750E+000	10	...........
	11	0.16	2.81121E-001	-6.01719E-003	0.00000E+000	-1.69156E-003	-3.59960E-001	-1.12574E+000	3.57750E+000	10	...........
	12	0.173333	2.72827E-001	-6.01819E-003	0.00000E+000	-1.64193E-003	-3.59960E-001	-1.13628E+000	3.57750E+000	10	...........
	13	0.186667	2.64654E-001	-6.01266E-003	0.00000E+000	-1.59128E-003	-3.59960E-001	-1.12563E+000	3.57750E+000	10	...........
	14	0.2	2.56586E-001	-6.01944E-003	0.00000E+000	-1.54450E-003	-3.59960E-001	-1.12603E+000	3.57750E+000	10	...........
	15	0.213333	2.48596E-001	-6.01136E-003	0.00000E+000	-1.49440E-003	-3.59960E-001	-1.13621E+000	3.57750E+000	10	...........
	16	0.226667	2.40687E-001	-6.01669E-003	0.00000E+000	-1.44814E-003	-3.59960E-001	-1.12542E+000	3.57750E+000	10	...........
	17	0.24	2.32928E-001	-6.01297E-003	0.00000E+000	-1.40059E-003	-3.59960E-001	-1.12639E+000	3.57750E+000	10	...........
	18	0.253333	2.25223E-001	-6.01045E-003	0.00000E+000	-1.35369E-003	-3.59960E-001	-1.13653E+000	3.57750E+000	10	...........
	19	0.266667	2.17664E-001	-6.01265E-003	0.00000E+000	-1.30873E-003	-3.59960E-001	-1.12576E+000	3.57750E+000	10	...........
	20	0.28	2.10170E-001	-6.01506E-003	0.00000E+000	-1.26418E-003	-3.59960E-001	-1.12657E+000	3.57750E+000	10	...........
	21	0.293333	2.02709E-001	-6.01673E-003	0.00000E+000	-1.21965E-003	-3.59960E-001	-1.13654E+000	3.57750E+000	10	...........
	22	0.306667	1.95423E-001	-6.01526E-003	0.00000E+000	-1.17552E-003	-3.59960E-001	-1.12584E+000	3.57740E+000	10	...........
	23	0.32	1.88194E-001	-6.01765E-003	0.00000E+000	-1.13248E-003	-3.59960E-001	-1.12703E+000	3.57740E+000	10	...........
	24	0.333333	1.81057E-001	-6.01217E-003	0.00000E+000	-1.08854E-003	-3.59960E-001	-1.13674E+000	3.57740E+000	10	...........
	25	0.346667	1.73978E-001	-6.01722E-003	0.00000E+000	-1.04686E-003	-3.59960E-001	-1.12572E+000	3.57740E+000	10	...........
	26	0.36	1.66951E-001	-6.01298E-003	0.00000E+000	-1.00387E-003	-3.59960E-001	-1.12717E+000	3.57740E+000	10	...........
	27	0.373333	1.60008E-001	-6.01595E-003	0.00000E+000	-9.62604E-004	-3.59960E-001	-1.13679E+000	3.57740E+000	10	...........
	28	0.386667	1.53184E-001	-6.01782E-003	0.00000E+000	-9.21832E-004	-3.59960E-001	-1.12597E+000	3.57740E+000	10	...........
	29	0.4	1.46407E-001	-6.01429E-003	0.00000E+000	-8.80533E-004	-3.59960E-001	-1.12746E+000	3.57740E+000	10	...........
	30	0.413333	1.39702E-001	-6.01495E-003	0.00000E+000	-8.40300E-004	-3.59960E-001	-1.13689E+000	3.57740E+000	10	...........
	31	0.426667	1.33078E-001	-6.00753E-003	0.00000E+000	-7.99471E-004	-3.59960E-001	-1.12603E+000	3.57740E+000	10	...........
	32	0.44	1.26490E-001	-6.01579E-003	0.00000E+000	-7.60938E-004	-3.59960E-001	-1.12769E+000	3.57740E+000	10	...........
	33	0.453333	1.19987E-001	-6.01700E-003	0.00000E+000	-7.21960E-004	-3.59960E-001	-1.13666E+000	3.57740E+000	10	...........
	34	0.466667	1.13591E-001	-6.01698E-003	0.00000E+000	-6.83477E-004	-3.59960E-001	-1.12591E+000	3.57740E+000	10	...........
	35	0.48	1.07228E-001	-6.01162E-003	0.00000E+000	-6.44613E-004	-3.59960E-001	-1.12737E+000	3.57740E+000	10	...........
	36	0.493333	1.00927E-001	-6.01764E-003	0.00000E+000	-6.07343E-004	-3.59960E-001	-1.13669E+000	3.57740E+000	10	...........
	37	0.506667	9.47209E-002	-6.01659E-003	0.00000E+000	-5.69897E-004	-3.59960E-001	-1.12601E+000	3.57740E+000	10	...........
	38	0.52	8.85309E-002	-6.01665E-003	0.00000E+000	-5.32660E-004	-3.59960E-001	-1.12764E+000	3.57740E+000	10	...........
	39	0.533333	8.24459E-002	-6.01072E-003	0.00000E+000	-4.95559E-004	-3.59960E-001	-1.13679E+000	3.57740E+000	10	...........
	40	0.546667	7.64012E-002	-6.01647E-003	0.00000E+000	-4.59665E-004	-3.59960E-001	-1.12600E+000	3.57740E+000	10	...........
	41	0.56	7.04278E-002	-6.01459E-003	0.00000E+000	-4.23594E-004	-3.59960E-001	-1.12784E+000	3.57740E+000	10	...........
	42	0.573333	6.44957E-002	-6.01526E-003	0.00000E+000	-3.87958E-004	-3.59960E-001	-1.13682E+000	3.57740E+000	10	...........
	43	0.586667	5.86297E-002	-6.01779E-003	0.00000E+000	-3.52821E-004	-3.59960E-001	-1.12620E+000	3.57740E+000	10	...........
	44	0.6	5.27845E-002	-6.01289E-003	0.00000E+000	-3.17388E-004	-3.59960E-001	-1.12792E+000	3.57740E+000	10	...........
	45	0.613333	4.70758E-002	-6.01063E-003	0.00000E+000	-2.82955E-004	-3.59960E-001	-1.13668E+000	3.57740E+000	10	...........
	46	0.626667	4.13589E-002	-6.01930E-003	0.00000E+000	-2.48952E-004	-3.59960E-001	-1.12604E+000	3.57740E+000	10	...........
	47	0.64	3.57132E-002	-6.01206E-003	0.00000E+000	-2.14710E-004	-3.59960E-001	-1.12816E+000	3.57740E+000	10	...........
	48	0.653333	3.00859E-002	-6.01385E-003	0.00000E+000	-1.80932E-004	-3.59960E-001	-1.13683E+000	3.57740E+000	10	...........
	49	0.666667	2.45037E-002	-6.01479E-003	0.00000E+000	-1.47384E-004	-3.59960E-001	-1.12620E+000	3.57740E+000	10	...........
	50	0.68	1.90213E-002	-6.01127E-003	0.00000E+000	-1.14342E-004	-3.59960E-001	-1.12831E+000	3.57740E+000	10	...........
	51	0.693333	1.35880E-002	-6.01268E-003	0.00000E+000	-8.17003E-005	-3.59960E-001	-1.13676E+000	3.57740E+000	10	...........
	52	0.706667	8.18660E-003	-6.01563E-003	0.00000E+000	-4.92476E-005	-3.59960E-001	-1.12631E+000	3.57740E+000	10	...........
	53	0.72	2.82447E-003	-6.01730E-003	0.00000E+000	-1.69957E-005	-3.59960E-001	-1.12863E+000	3.57740E+000	10	...........
	54	0.721667	-1.83584E-004	-6.03515E-003	0.00000E+000	1.10796E-006	-3.59960E-001	-1.12243E+000	3.57740E+000	10	...........
STARTTIMEOFFSET	QUANT	1232.809	Start Time Offset (s)
