EXPLAIN
TAG	PWR800_DISCHARGE
TITLE	LABEL	PWR Cyclic Charge Discharge (Cell) - Discharge Step	Test &Identifier
DATE	LABEL	22-6-2017	Date
TIME	LABEL	15:37:26	Time
NOTES	NOTES	3	&Notes...
	supercap test cell
	0.6mg
	6M KOH
PSTAT	PSTAT	IFC5000-01520	Potentiostat
CAPACITY	QUANT	1.00000E-003	Capacity (A-hr)
CELLTYPE	SELECTOR	1	&Cell Type
WORKINGCONNECTION	SELECTOR	0	&Working Lead
MAXDISCHARGETIME	VARIABLEANDUNITS	1.00000E+002	s	1.00000E+002	second(s)	Max &Discharge Time
DISCHARGEMODE	MULTIPARAM	0	6.00000E-003	&Discharge Mode	Constant Current	Amp(s)
SAMPLETIME	QUANT	1.00000E-002	Sa&mple Period (s)
DISCHARGESTOPAT1	MULTIPARAM	3	0.00000E+000	Discharge Stop At &1	Voltage < Limit	V
DISCHARGESTOPAT2	MULTIPARAM	0	0.00000E+000	Discharge Stop At &2	None	N/A
AESBHCSELECTOR	TOGGLE	F	Save Both Half Cells
IRCOMP	TOGGLE	F	IR &Measure
EOC	QUANT	0	Open Circuit (V)
SEQUENCER	TOGGLE	TRUE	Run as Sequence
PSTATMODEL	IQUANT	53	Pstat Model
PSTATSECTION	LABEL	IFC5000-01520	Pstat Section
PSTATSERIALNO	LABEL	01520	Pstat Serial Number
CTRLMODE	IQUANT	0	Control Mode
ELECTROMETER	IQUANT	1	RE=0 or CS=1
IESTAB	IQUANT	0	I/E Stability
CASPEED	IQUANT	4	Control Amp Speed
CONVENTION	IQUANT	1	Current Convention
ICHRANGE	IQUANT	2	Ich Range
ICHRANGEMODE	TOGGLE	T	Ich Auto Range
ICHOFFSETENABLE	TOGGLE	F	Ich Offset Enable
ICHOFFSET	QUANT	0	Ich Offset (V)
ICHFILTER	IQUANT	1	Ich Filter
VCHRANGE	IQUANT	2	Vch Range
VCHRANGEMODE	TOGGLE	T	Vch Auto Range
VCHOFFSETENABLE	TOGGLE	F	Vch Offset Enable
VCHOFFSET	QUANT	0	Vch Offset (V)
VCHFILTER	IQUANT	1	Vch Filter
IERANGELOWERLIMIT	IQUANT	9	I/E Range Lower Limit
IERANGEMODE	TOGGLE	F	I/E AutoRange
IERANGE	IQUANT	10	I/E Range
ACHSELECT	IQUANT	1	Ach Select
ACHRANGE	IQUANT	2	Ach Range
ACHOFFSETENABLE	TOGGLE	F	Ach Offset Enable
ACHOFFSET	QUANT	0	Ach Offset (V)
ACHFILTER	IQUANT	1	Ach Filter
CABLEID	IQUANT	14	Cable ID
DCCALDATE	LABEL	20-10-2016	DC Calibration Date
ACCALDATE	LABEL	12/3/2015	AC Calibration Date
FRAMEWORKVERSION	QUANT	7.01	Framework Version
INSTRUMENTVERSION	LABEL	4.00	Instrument Version
CURVE	TABLE	73
	Pt	T	Vf	Im	Vu	Pwr	Sig	Ach	Temp	IERange	Over
	#	s	V	A	V	W	V	V	deg C	#	bits
	0	0.013333	4.37594E-001	-6.01775E-003	0.00000E+000	-2.63333E-003	-3.59960E-001	-1.00309E+000	3.57750E+000	10	...........
	1	0.026667	4.27615E-001	-6.01425E-003	0.00000E+000	-2.57178E-003	-3.59960E-001	-1.01086E+000	3.57750E+000	10	...........
	2	0.04	4.18337E-001	-6.01962E-003	0.00000E+000	-2.51823E-003	-3.59960E-001	-1.01217E+000	3.57750E+000	10	...........
	3	0.053333	4.09552E-001	-6.01793E-003	0.00000E+000	-2.46466E-003	-3.59960E-001	-1.00344E+000	3.57750E+000	10	...........
	4	0.066667	4.01066E-001	-6.01750E-003	0.00000E+000	-2.41342E-003	-3.59960E-001	-1.01084E+000	3.57750E+000	10	...........
	5	0.08	3.92832E-001	-6.01654E-003	0.00000E+000	-2.36349E-003	-3.59960E-001	-1.01217E+000	3.57750E+000	10	...........
	6	0.093333	3.84829E-001	-6.01759E-003	0.00000E+000	-2.31574E-003	-3.59960E-001	-1.00371E+000	3.57750E+000	10	...........
	7	0.106667	3.76991E-001	-6.01756E-003	0.00000E+000	-2.26857E-003	-3.59960E-001	-1.01103E+000	3.57750E+000	10	...........
	8	0.12	3.69313E-001	-6.01584E-003	0.00000E+000	-2.22173E-003	-3.59960E-001	-1.01259E+000	3.57750E+000	10	...........
	9	0.133333	3.61723E-001	-6.01489E-003	0.00000E+000	-2.17572E-003	-3.59960E-001	-1.00371E+000	3.57750E+000	10	...........
	10	0.146667	3.54272E-001	-6.01534E-003	0.00000E+000	-2.13107E-003	-3.59960E-001	-1.01114E+000	3.57750E+000	10	...........
	11	0.16	3.46892E-001	-6.01743E-003	0.00000E+000	-2.08740E-003	-3.59960E-001	-1.01281E+000	3.57750E+000	10	...........
	12	0.173333	3.39634E-001	-6.01854E-003	0.00000E+000	-2.04410E-003	-3.59960E-001	-1.00418E+000	3.57750E+000	10	...........
	13	0.186667	3.32416E-001	-6.01974E-003	0.00000E+000	-2.00106E-003	-3.59960E-001	-1.01149E+000	3.57740E+000	10	...........
	14	0.2	3.25318E-001	-6.01386E-003	0.00000E+000	-1.95642E-003	-3.59960E-001	-1.01308E+000	3.57710E+000	10	...........
	15	0.213333	3.18284E-001	-6.01509E-003	0.00000E+000	-1.91451E-003	-3.59960E-001	-1.00426E+000	3.57710E+000	10	...........
	16	0.226667	3.11375E-001	-6.01655E-003	0.00000E+000	-1.87340E-003	-3.59960E-001	-1.01156E+000	3.57710E+000	10	...........
	17	0.24	3.04506E-001	-6.01181E-003	0.00000E+000	-1.83063E-003	-3.59960E-001	-1.01364E+000	3.57710E+000	10	...........
	18	0.253333	2.97717E-001	-6.01020E-003	0.00000E+000	-1.78934E-003	-3.59960E-001	-1.00419E+000	3.57710E+000	10	...........
	19	0.266667	2.90962E-001	-6.01368E-003	0.00000E+000	-1.74975E-003	-3.59960E-001	-1.01126E+000	3.57710E+000	10	...........
	20	0.28	2.84274E-001	-6.00908E-003	0.00000E+000	-1.70822E-003	-3.59960E-001	-1.01316E+000	3.57710E+000	10	...........
	21	0.293333	2.77662E-001	-6.01705E-003	0.00000E+000	-1.67071E-003	-3.59960E-001	-1.00443E+000	3.57710E+000	10	...........
	22	0.306667	2.71110E-001	-6.01464E-003	0.00000E+000	-1.63063E-003	-3.59960E-001	-1.01144E+000	3.57710E+000	10	...........
	23	0.32	2.64627E-001	-6.01643E-003	0.00000E+000	-1.59211E-003	-3.59960E-001	-1.01353E+000	3.57710E+000	10	...........
	24	0.333333	2.58203E-001	-6.01339E-003	0.00000E+000	-1.55268E-003	-3.59960E-001	-1.00451E+000	3.57710E+000	10	...........
	25	0.346667	2.51863E-001	-6.01647E-003	0.00000E+000	-1.51532E-003	-3.59960E-001	-1.01139E+000	3.57710E+000	10	...........
	26	0.36	2.45556E-001	-6.01674E-003	0.00000E+000	-1.47745E-003	-3.59960E-001	-1.01397E+000	3.57710E+000	10	...........
	27	0.373333	2.39271E-001	-6.01528E-003	0.00000E+000	-1.43928E-003	-3.59960E-001	-1.00465E+000	3.57710E+000	10	...........
	28	0.386667	2.33051E-001	-6.01689E-003	0.00000E+000	-1.40224E-003	-3.59960E-001	-1.01163E+000	3.57710E+000	10	...........
	29	0.4	2.26885E-001	-6.01506E-003	0.00000E+000	-1.36473E-003	-3.59960E-001	-1.01393E+000	3.57710E+000	10	...........
	30	0.413333	2.20771E-001	-6.01627E-003	0.00000E+000	-1.32822E-003	-3.59960E-001	-1.00493E+000	3.57710E+000	10	...........
	31	0.426667	2.14688E-001	-6.01671E-003	0.00000E+000	-1.29171E-003	-3.59960E-001	-1.01149E+000	3.57710E+000	10	...........
	32	0.44	2.08667E-001	-6.01608E-003	0.00000E+000	-1.25536E-003	-3.59960E-001	-1.01444E+000	3.57710E+000	10	...........
	33	0.453333	2.02675E-001	-6.01531E-003	0.00000E+000	-1.21915E-003	-3.59960E-001	-1.00541E+000	3.57710E+000	10	...........
	34	0.466667	1.96743E-001	-6.01531E-003	0.00000E+000	-1.18347E-003	-3.59960E-001	-1.01165E+000	3.57710E+000	10	...........
	35	0.48	1.90867E-001	-6.01524E-003	0.00000E+000	-1.14811E-003	-3.59960E-001	-1.01439E+000	3.57710E+000	10	...........
	36	0.493333	1.85016E-001	-6.01295E-003	0.00000E+000	-1.11249E-003	-3.59960E-001	-1.00555E+000	3.57710E+000	10	...........
	37	0.506667	1.79216E-001	-6.01618E-003	0.00000E+000	-1.07820E-003	-3.59960E-001	-1.01198E+000	3.57710E+000	10	...........
	38	0.52	1.73427E-001	-6.01621E-003	0.00000E+000	-1.04337E-003	-3.59960E-001	-1.01499E+000	3.57710E+000	10	...........
	39	0.533333	1.67735E-001	-6.01468E-003	0.00000E+000	-1.00887E-003	-3.59960E-001	-1.00546E+000	3.57710E+000	10	...........
	40	0.546667	1.62087E-001	-6.01335E-003	0.00000E+000	-9.74683E-004	-3.59960E-001	-1.01180E+000	3.57710E+000	10	...........
	41	0.56	1.56410E-001	-6.01729E-003	0.00000E+000	-9.41164E-004	-3.59960E-001	-1.01490E+000	3.57710E+000	10	...........
	42	0.573333	1.50805E-001	-6.01487E-003	0.00000E+000	-9.07075E-004	-3.59960E-001	-1.00561E+000	3.57710E+000	10	...........
	43	0.586667	1.45257E-001	-6.01771E-003	0.00000E+000	-8.74116E-004	-3.59960E-001	-1.01132E+000	3.57710E+000	10	...........
	44	0.6	1.39739E-001	-6.01612E-003	0.00000E+000	-8.40687E-004	-3.59960E-001	-1.01454E+000	3.57710E+000	10	...........
	45	0.613333	1.34250E-001	-6.01319E-003	0.00000E+000	-8.07270E-004	-3.59960E-001	-1.00540E+000	3.57710E+000	10	...........
	46	0.626667	1.28813E-001	-6.01179E-003	0.00000E+000	-7.74395E-004	-3.59960E-001	-1.01170E+000	3.57710E+000	10	...........
	47	0.64	1.23378E-001	-6.01277E-003	0.00000E+000	-7.41842E-004	-3.59960E-001	-1.01488E+000	3.57710E+000	10	...........
	48	0.653333	1.18007E-001	-6.00976E-003	0.00000E+000	-7.09191E-004	-3.59960E-001	-1.00577E+000	3.57710E+000	10	...........
	49	0.666667	1.12677E-001	-6.01107E-003	0.00000E+000	-6.77312E-004	-3.59960E-001	-1.01141E+000	3.57710E+000	10	...........
	50	0.68	1.07372E-001	-6.01811E-003	0.00000E+000	-6.46180E-004	-3.59960E-001	-1.01492E+000	3.57710E+000	10	...........
	51	0.693333	1.02098E-001	-6.01091E-003	0.00000E+000	-6.13704E-004	-3.59960E-001	-1.00568E+000	3.57710E+000	10	...........
	52	0.706667	9.68548E-002	-6.01739E-003	0.00000E+000	-5.82813E-004	-3.59960E-001	-1.01182E+000	3.57710E+000	10	...........
	53	0.72	9.16456E-002	-6.01357E-003	0.00000E+000	-5.51117E-004	-3.59960E-001	-1.01539E+000	3.57710E+000	10	...........
	54	0.733333	8.64751E-002	-6.01366E-003	0.00000E+000	-5.20032E-004	-3.59960E-001	-1.00568E+000	3.57710E+000	10	...........
	55	0.746667	8.13128E-002	-6.01629E-003	0.00000E+000	-4.89201E-004	-3.59960E-001	-1.01130E+000	3.57710E+000	10	...........
	56	0.76	7.62085E-002	-6.01585E-003	0.00000E+000	-4.58459E-004	-3.59960E-001	-1.01557E+000	3.57710E+000	10	...........
	57	0.773333	7.11443E-002	-6.01962E-003	0.00000E+000	-4.28261E-004	-3.59960E-001	-1.00586E+000	3.57710E+000	10	...........
	58	0.786667	6.60648E-002	-6.01628E-003	0.00000E+000	-3.97464E-004	-3.59960E-001	-1.01156E+000	3.57710E+000	10	...........
	59	0.8	6.10708E-002	-6.01361E-003	0.00000E+000	-3.67256E-004	-3.59960E-001	-1.01558E+000	3.57710E+000	10	...........
	60	0.813333	5.60879E-002	-6.01399E-003	0.00000E+000	-3.37312E-004	-3.59960E-001	-1.00602E+000	3.57710E+000	10	...........
	61	0.826667	5.11029E-002	-6.00739E-003	0.00000E+000	-3.06995E-004	-3.59960E-001	-1.01168E+000	3.57710E+000	10	...........
	62	0.84	4.61938E-002	-6.01659E-003	0.00000E+000	-2.77929E-004	-3.59960E-001	-1.01601E+000	3.57710E+000	10	...........
	63	0.853333	4.13061E-002	-6.01507E-003	0.00000E+000	-2.48459E-004	-3.59960E-001	-1.00614E+000	3.57710E+000	10	...........
	64	0.866667	3.64207E-002	-6.01317E-003	0.00000E+000	-2.19004E-004	-3.59960E-001	-1.01151E+000	3.57710E+000	10	...........
	65	0.88	3.15984E-002	-6.01328E-003	0.00000E+000	-1.90010E-004	-3.59960E-001	-1.01579E+000	3.57710E+000	10	...........
	66	0.893333	2.67989E-002	-6.01542E-003	0.00000E+000	-1.61207E-004	-3.59960E-001	-1.00573E+000	3.57710E+000	10	...........
	67	0.906667	2.20188E-002	-6.01624E-003	0.00000E+000	-1.32470E-004	-3.59960E-001	-1.01141E+000	3.57710E+000	10	...........
	68	0.92	1.72222E-002	-6.01606E-003	0.00000E+000	-1.03610E-004	-3.59960E-001	-1.01576E+000	3.57710E+000	10	...........
	69	0.933333	1.24933E-002	-6.01702E-003	0.00000E+000	-7.51726E-005	-3.59960E-001	-1.00574E+000	3.57710E+000	10	...........
	70	0.946667	7.81655E-003	-6.01386E-003	0.00000E+000	-4.70076E-005	-3.59960E-001	-1.01109E+000	3.57710E+000	10	...........
	71	0.96	3.15341E-003	-6.01555E-003	0.00000E+000	-1.89695E-005	-3.59960E-001	-1.01587E+000	3.57710E+000	10	...........
	72	0.96333	2.14705E-004	-6.01892E-003	0.00000E+000	-1.29229E-006	-3.59960E-001	-1.01059E+000	3.57710E+000	10	...........
STARTTIMEOFFSET	QUANT	107.3683	Start Time Offset (s)
