EXPLAIN
TAG	PWR800_DISCHARGE
TITLE	LABEL	PWR Cyclic Charge Discharge (Cell) - Discharge Step	Test &Identifier
DATE	LABEL	22-6-2017	Date
TIME	LABEL	15:41:29	Time
NOTES	NOTES	3	&Notes...
	supercap test cell
	0.6mg
	6M KOH
PSTAT	PSTAT	IFC5000-01520	Potentiostat
CAPACITY	QUANT	1.00000E-003	Capacity (A-hr)
CELLTYPE	SELECTOR	1	&Cell Type
WORKINGCONNECTION	SELECTOR	0	&Working Lead
MAXDISCHARGETIME	VARIABLEANDUNITS	1.00000E+002	s	1.00000E+002	second(s)	Max &Discharge Time
DISCHARGEMODE	MULTIPARAM	0	6.00000E-003	&Discharge Mode	Constant Current	Amp(s)
SAMPLETIME	QUANT	1.00000E-002	Sa&mple Period (s)
DISCHARGESTOPAT1	MULTIPARAM	3	0.00000E+000	Discharge Stop At &1	Voltage < Limit	V
DISCHARGESTOPAT2	MULTIPARAM	0	0.00000E+000	Discharge Stop At &2	None	N/A
AESBHCSELECTOR	TOGGLE	F	Save Both Half Cells
IRCOMP	TOGGLE	F	IR &Measure
EOC	QUANT	0	Open Circuit (V)
SEQUENCER	TOGGLE	TRUE	Run as Sequence
PSTATMODEL	IQUANT	53	Pstat Model
PSTATSECTION	LABEL	IFC5000-01520	Pstat Section
PSTATSERIALNO	LABEL	01520	Pstat Serial Number
CTRLMODE	IQUANT	0	Control Mode
ELECTROMETER	IQUANT	1	RE=0 or CS=1
IESTAB	IQUANT	0	I/E Stability
CASPEED	IQUANT	4	Control Amp Speed
CONVENTION	IQUANT	1	Current Convention
ICHRANGE	IQUANT	2	Ich Range
ICHRANGEMODE	TOGGLE	T	Ich Auto Range
ICHOFFSETENABLE	TOGGLE	F	Ich Offset Enable
ICHOFFSET	QUANT	0	Ich Offset (V)
ICHFILTER	IQUANT	1	Ich Filter
VCHRANGE	IQUANT	2	Vch Range
VCHRANGEMODE	TOGGLE	T	Vch Auto Range
VCHOFFSETENABLE	TOGGLE	F	Vch Offset Enable
VCHOFFSET	QUANT	0	Vch Offset (V)
VCHFILTER	IQUANT	1	Vch Filter
IERANGELOWERLIMIT	IQUANT	9	I/E Range Lower Limit
IERANGEMODE	TOGGLE	F	I/E AutoRange
IERANGE	IQUANT	10	I/E Range
ACHSELECT	IQUANT	1	Ach Select
ACHRANGE	IQUANT	2	Ach Range
ACHOFFSETENABLE	TOGGLE	F	Ach Offset Enable
ACHOFFSET	QUANT	0	Ach Offset (V)
ACHFILTER	IQUANT	1	Ach Filter
CABLEID	IQUANT	14	Cable ID
DCCALDATE	LABEL	20-10-2016	DC Calibration Date
ACCALDATE	LABEL	12/3/2015	AC Calibration Date
FRAMEWORKVERSION	QUANT	7.01	Framework Version
INSTRUMENTVERSION	LABEL	4.00	Instrument Version
CURVE	TABLE	67
	Pt	T	Vf	Im	Vu	Pwr	Sig	Ach	Temp	IERange	Over
	#	s	V	A	V	W	V	V	deg C	#	bits
	0	0.013333	4.22035E-001	-6.01216E-003	0.00000E+000	-2.53734E-003	-3.59960E-001	-1.03809E+000	3.57730E+000	10	...........
	1	0.026667	4.11607E-001	-6.01120E-003	0.00000E+000	-2.47425E-003	-3.59960E-001	-1.04041E+000	3.57730E+000	10	...........
	2	0.04	4.01966E-001	-6.01258E-003	0.00000E+000	-2.41685E-003	-3.59960E-001	-1.04879E+000	3.57730E+000	10	...........
	3	0.053333	3.92779E-001	-6.01566E-003	0.00000E+000	-2.36282E-003	-3.59960E-001	-1.03798E+000	3.57730E+000	10	...........
	4	0.066667	3.83944E-001	-6.01598E-003	0.00000E+000	-2.30980E-003	-3.59960E-001	-1.04011E+000	3.57730E+000	10	...........
	5	0.08	3.75363E-001	-6.01655E-003	0.00000E+000	-2.25839E-003	-3.59960E-001	-1.04840E+000	3.57730E+000	10	...........
	6	0.093333	3.67011E-001	-6.01506E-003	0.00000E+000	-2.20759E-003	-3.59960E-001	-1.03788E+000	3.57730E+000	10	...........
	7	0.106667	3.58814E-001	-6.01638E-003	0.00000E+000	-2.15876E-003	-3.59960E-001	-1.04046E+000	3.57730E+000	10	...........
	8	0.12	3.50750E-001	-6.01464E-003	0.00000E+000	-2.10964E-003	-3.59960E-001	-1.04874E+000	3.57730E+000	10	...........
	9	0.133333	3.42837E-001	-6.01244E-003	0.00000E+000	-2.06129E-003	-3.59960E-001	-1.03793E+000	3.57730E+000	10	...........
	10	0.146667	3.35047E-001	-6.01577E-003	0.00000E+000	-2.01556E-003	-3.59960E-001	-1.04035E+000	3.57730E+000	10	...........
	11	0.16	3.27376E-001	-6.02050E-003	0.00000E+000	-1.97097E-003	-3.59960E-001	-1.04860E+000	3.57730E+000	10	...........
	12	0.173333	3.19783E-001	-6.01351E-003	0.00000E+000	-1.92302E-003	-3.59960E-001	-1.03847E+000	3.57730E+000	10	...........
	13	0.186667	3.12313E-001	-6.01491E-003	0.00000E+000	-1.87853E-003	-3.59960E-001	-1.04103E+000	3.57730E+000	10	...........
	14	0.2	3.04945E-001	-6.01397E-003	0.00000E+000	-1.83393E-003	-3.59960E-001	-1.04938E+000	3.57730E+000	10	...........
	15	0.213333	2.97638E-001	-6.01540E-003	0.00000E+000	-1.79041E-003	-3.59960E-001	-1.03878E+000	3.57730E+000	10	...........
	16	0.226667	2.90373E-001	-6.01567E-003	0.00000E+000	-1.74679E-003	-3.59960E-001	-1.04120E+000	3.57730E+000	10	...........
	17	0.24	2.83239E-001	-6.01340E-003	0.00000E+000	-1.70323E-003	-3.59960E-001	-1.04926E+000	3.57730E+000	10	...........
	18	0.253333	2.76180E-001	-6.01488E-003	0.00000E+000	-1.66119E-003	-3.59960E-001	-1.03863E+000	3.57730E+000	10	...........
	19	0.266667	2.69132E-001	-6.01822E-003	0.00000E+000	-1.61969E-003	-3.59960E-001	-1.04117E+000	3.57730E+000	10	...........
	20	0.28	2.62187E-001	-6.01713E-003	0.00000E+000	-1.57762E-003	-3.59960E-001	-1.04896E+000	3.57730E+000	10	...........
	21	0.293333	2.55335E-001	-6.01970E-003	0.00000E+000	-1.53704E-003	-3.59960E-001	-1.03825E+000	3.57700E+000	10	...........
	22	0.306667	2.48545E-001	-6.01636E-003	0.00000E+000	-1.49533E-003	-3.59960E-001	-1.04095E+000	3.57690E+000	10	...........
	23	0.32	2.41820E-001	-6.01772E-003	0.00000E+000	-1.45520E-003	-3.59960E-001	-1.04906E+000	3.57690E+000	10	...........
	24	0.333333	2.35134E-001	-6.01825E-003	0.00000E+000	-1.41509E-003	-3.59960E-001	-1.03814E+000	3.57690E+000	10	...........
	25	0.346667	2.28476E-001	-6.01582E-003	0.00000E+000	-1.37447E-003	-3.59960E-001	-1.04060E+000	3.57690E+000	10	...........
	26	0.36	2.21925E-001	-6.01468E-003	0.00000E+000	-1.33481E-003	-3.59960E-001	-1.04806E+000	3.57690E+000	10	...........
	27	0.373333	2.15438E-001	-6.01460E-003	0.00000E+000	-1.29577E-003	-3.59960E-001	-1.03674E+000	3.57690E+000	10	...........
	28	0.386667	2.09016E-001	-6.01046E-003	0.00000E+000	-1.25628E-003	-3.59960E-001	-1.03938E+000	3.57690E+000	10	...........
	29	0.4	2.02663E-001	-6.01276E-003	0.00000E+000	-1.21857E-003	-3.59960E-001	-1.04714E+000	3.57690E+000	10	...........
	30	0.413333	1.96356E-001	-6.01013E-003	0.00000E+000	-1.18013E-003	-3.59960E-001	-1.03617E+000	3.57690E+000	10	...........
	31	0.426667	1.90090E-001	-6.01436E-003	0.00000E+000	-1.14327E-003	-3.59960E-001	-1.03916E+000	3.57690E+000	10	...........
	32	0.44	1.83887E-001	-6.01575E-003	0.00000E+000	-1.10622E-003	-3.59960E-001	-1.04756E+000	3.57690E+000	10	...........
	33	0.453333	1.77703E-001	-6.01411E-003	0.00000E+000	-1.06873E-003	-3.59960E-001	-1.03760E+000	3.57690E+000	10	...........
	34	0.466667	1.71575E-001	-6.01554E-003	0.00000E+000	-1.03212E-003	-3.59960E-001	-1.04091E+000	3.57690E+000	10	...........
	35	0.48	1.65542E-001	-6.01393E-003	0.00000E+000	-9.95556E-004	-3.59960E-001	-1.04987E+000	3.57690E+000	10	...........
	36	0.493333	1.59526E-001	-6.01194E-003	0.00000E+000	-9.59059E-004	-3.59960E-001	-1.03998E+000	3.57690E+000	10	...........
	37	0.506667	1.53549E-001	-6.01526E-003	0.00000E+000	-9.23635E-004	-3.59960E-001	-1.04404E+000	3.57690E+000	10	...........
	38	0.52	1.47665E-001	-6.01374E-003	0.00000E+000	-8.88017E-004	-3.59960E-001	-1.05291E+000	3.57690E+000	10	...........
	39	0.533333	1.41806E-001	-6.01556E-003	0.00000E+000	-8.53044E-004	-3.59960E-001	-1.04267E+000	3.57690E+000	10	...........
	40	0.546667	1.35989E-001	-6.01376E-003	0.00000E+000	-8.17805E-004	-3.59960E-001	-1.04589E+000	3.57690E+000	10	...........
	41	0.56	1.30204E-001	-6.01342E-003	0.00000E+000	-7.82973E-004	-3.59960E-001	-1.05440E+000	3.57690E+000	10	...........
	42	0.573333	1.24491E-001	-6.01538E-003	0.00000E+000	-7.48858E-004	-3.59960E-001	-1.04451E+000	3.57690E+000	10	...........
	43	0.586667	1.18824E-001	-6.01052E-003	0.00000E+000	-7.14191E-004	-3.59960E-001	-1.04790E+000	3.57690E+000	10	...........
	44	0.6	1.13203E-001	-6.01433E-003	0.00000E+000	-6.80842E-004	-3.59960E-001	-1.05598E+000	3.57690E+000	10	...........
	45	0.613333	1.07609E-001	-6.01334E-003	0.00000E+000	-6.47092E-004	-3.59960E-001	-1.04565E+000	3.57690E+000	10	...........
	46	0.626667	1.02030E-001	-6.01463E-003	0.00000E+000	-6.13673E-004	-3.59960E-001	-1.04854E+000	3.57690E+000	10	...........
	47	0.64	9.65417E-002	-6.01654E-003	0.00000E+000	-5.80847E-004	-3.59960E-001	-1.05687E+000	3.57690E+000	10	...........
	48	0.653333	9.10648E-002	-6.01366E-003	0.00000E+000	-5.47633E-004	-3.59960E-001	-1.04663E+000	3.57690E+000	10	...........
	49	0.666667	8.56182E-002	-6.01218E-003	0.00000E+000	-5.14752E-004	-3.59960E-001	-1.04988E+000	3.57690E+000	10	...........
	50	0.68	8.02225E-002	-6.01519E-003	0.00000E+000	-4.82554E-004	-3.59960E-001	-1.05770E+000	3.57690E+000	10	...........
	51	0.693333	7.48718E-002	-6.01530E-003	0.00000E+000	-4.50376E-004	-3.59960E-001	-1.04735E+000	3.57690E+000	10	...........
	52	0.706667	6.95700E-002	-6.01736E-003	0.00000E+000	-4.18628E-004	-3.59960E-001	-1.05132E+000	3.57690E+000	10	...........
	53	0.72	6.42931E-002	-6.01126E-003	0.00000E+000	-3.86482E-004	-3.59960E-001	-1.05959E+000	3.57690E+000	10	...........
	54	0.733333	5.90205E-002	-6.01433E-003	0.00000E+000	-3.54969E-004	-3.59960E-001	-1.04962E+000	3.57690E+000	10	...........
	55	0.746667	5.38319E-002	-6.01896E-003	0.00000E+000	-3.24012E-004	-3.59960E-001	-1.05315E+000	3.57690E+000	10	...........
	56	0.76	4.86722E-002	-6.01672E-003	0.00000E+000	-2.92847E-004	-3.59960E-001	-1.06152E+000	3.57690E+000	10	...........
	57	0.773333	4.35584E-002	-6.01704E-003	0.00000E+000	-2.62093E-004	-3.59960E-001	-1.05161E+000	3.57690E+000	10	...........
	58	0.786667	3.84628E-002	-6.01346E-003	0.00000E+000	-2.31295E-004	-3.59960E-001	-1.05529E+000	3.57690E+000	10	...........
	59	0.8	3.34122E-002	-6.01609E-003	0.00000E+000	-2.01011E-004	-3.59960E-001	-1.06315E+000	3.57690E+000	10	...........
	60	0.813333	2.83720E-002	-6.01931E-003	0.00000E+000	-1.70780E-004	-3.59960E-001	-1.05252E+000	3.57690E+000	10	...........
	61	0.826667	2.34090E-002	-6.01332E-003	0.00000E+000	-1.40766E-004	-3.59960E-001	-1.05600E+000	3.57690E+000	10	...........
	62	0.84	1.84191E-002	-6.01603E-003	0.00000E+000	-1.10810E-004	-3.59960E-001	-1.06355E+000	3.57690E+000	10	...........
	63	0.853333	1.34661E-002	-6.01817E-003	0.00000E+000	-8.10415E-005	-3.59960E-001	-1.05318E+000	3.57690E+000	10	...........
	64	0.866667	8.57130E-003	-6.01079E-003	0.00000E+000	-5.15203E-005	-3.59960E-001	-1.05626E+000	3.57690E+000	10	...........
	65	0.88	3.71631E-003	-6.01538E-003	0.00000E+000	-2.23550E-005	-3.59960E-001	-1.06368E+000	3.57690E+000	10	...........
	66	0.885	3.92351E-004	-6.01735E-003	0.00000E+000	-2.36091E-006	-3.59960E-001	-1.04759E+000	3.57690E+000	10	...........
STARTTIMEOFFSET	QUANT	277.6101	Start Time Offset (s)
