EXPLAIN
TAG	PWR800_DISCHARGE
TITLE	LABEL	PWR Cyclic Charge Discharge (Cell) - Discharge Step	Test &Identifier
DATE	LABEL	22-6-2017	Date
TIME	LABEL	15:58:38	Time
NOTES	NOTES	3	&Notes...
	supercap test cell
	0.6mg
	6M KOH
PSTAT	PSTAT	IFC5000-01520	Potentiostat
CAPACITY	QUANT	1.00000E-003	Capacity (A-hr)
CELLTYPE	SELECTOR	1	&Cell Type
WORKINGCONNECTION	SELECTOR	0	&Working Lead
MAXDISCHARGETIME	VARIABLEANDUNITS	1.00000E+002	s	1.00000E+002	second(s)	Max &Discharge Time
DISCHARGEMODE	MULTIPARAM	0	6.00000E-003	&Discharge Mode	Constant Current	Amp(s)
SAMPLETIME	QUANT	1.00000E-002	Sa&mple Period (s)
DISCHARGESTOPAT1	MULTIPARAM	3	0.00000E+000	Discharge Stop At &1	Voltage < Limit	V
DISCHARGESTOPAT2	MULTIPARAM	0	0.00000E+000	Discharge Stop At &2	None	N/A
AESBHCSELECTOR	TOGGLE	F	Save Both Half Cells
IRCOMP	TOGGLE	F	IR &Measure
EOC	QUANT	0	Open Circuit (V)
SEQUENCER	TOGGLE	TRUE	Run as Sequence
PSTATMODEL	IQUANT	53	Pstat Model
PSTATSECTION	LABEL	IFC5000-01520	Pstat Section
PSTATSERIALNO	LABEL	01520	Pstat Serial Number
CTRLMODE	IQUANT	0	Control Mode
ELECTROMETER	IQUANT	1	RE=0 or CS=1
IESTAB	IQUANT	0	I/E Stability
CASPEED	IQUANT	4	Control Amp Speed
CONVENTION	IQUANT	1	Current Convention
ICHRANGE	IQUANT	2	Ich Range
ICHRANGEMODE	TOGGLE	T	Ich Auto Range
ICHOFFSETENABLE	TOGGLE	F	Ich Offset Enable
ICHOFFSET	QUANT	0	Ich Offset (V)
ICHFILTER	IQUANT	1	Ich Filter
VCHRANGE	IQUANT	2	Vch Range
VCHRANGEMODE	TOGGLE	T	Vch Auto Range
VCHOFFSETENABLE	TOGGLE	F	Vch Offset Enable
VCHOFFSET	QUANT	0	Vch Offset (V)
VCHFILTER	IQUANT	1	Vch Filter
IERANGELOWERLIMIT	IQUANT	9	I/E Range Lower Limit
IERANGEMODE	TOGGLE	F	I/E AutoRange
IERANGE	IQUANT	10	I/E Range
ACHSELECT	IQUANT	1	Ach Select
ACHRANGE	IQUANT	2	Ach Range
ACHOFFSETENABLE	TOGGLE	F	Ach Offset Enable
ACHOFFSET	QUANT	0	Ach Offset (V)
ACHFILTER	IQUANT	1	Ach Filter
CABLEID	IQUANT	14	Cable ID
DCCALDATE	LABEL	20-10-2016	DC Calibration Date
ACCALDATE	LABEL	12/3/2015	AC Calibration Date
FRAMEWORKVERSION	QUANT	7.01	Framework Version
INSTRUMENTVERSION	LABEL	4.00	Instrument Version
CURVE	TABLE	57
	Pt	T	Vf	Im	Vu	Pwr	Sig	Ach	Temp	IERange	Over
	#	s	V	A	V	W	V	V	deg C	#	bits
	0	0.013333	3.91475E-001	-6.01272E-003	0.00000E+000	-2.35383E-003	-3.59960E-001	-1.10796E+000	3.57790E+000	10	...........
	1	0.026667	3.80253E-001	-6.01603E-003	0.00000E+000	-2.28761E-003	-3.59960E-001	-1.11758E+000	3.57790E+000	10	...........
	2	0.04	3.69884E-001	-6.01593E-003	0.00000E+000	-2.22520E-003	-3.59960E-001	-1.11298E+000	3.57790E+000	10	...........
	3	0.053333	3.59997E-001	-6.01663E-003	0.00000E+000	-2.16597E-003	-3.59960E-001	-1.10835E+000	3.57790E+000	10	...........
	4	0.066667	3.50532E-001	-6.01531E-003	0.00000E+000	-2.10856E-003	-3.59960E-001	-1.11780E+000	3.57790E+000	10	...........
	5	0.08	3.41339E-001	-6.01522E-003	0.00000E+000	-2.05323E-003	-3.59960E-001	-1.11329E+000	3.57790E+000	10	...........
	6	0.093333	3.32292E-001	-6.01675E-003	0.00000E+000	-1.99932E-003	-3.59960E-001	-1.10838E+000	3.57790E+000	10	...........
	7	0.106667	3.23496E-001	-6.01608E-003	0.00000E+000	-1.94618E-003	-3.59960E-001	-1.11826E+000	3.57790E+000	10	...........
	8	0.12	3.14853E-001	-6.01520E-003	0.00000E+000	-1.89390E-003	-3.59960E-001	-1.11339E+000	3.57790E+000	10	...........
	9	0.133333	3.06387E-001	-6.01214E-003	0.00000E+000	-1.84204E-003	-3.59960E-001	-1.10871E+000	3.57790E+000	10	...........
	10	0.146667	2.98016E-001	-6.01536E-003	0.00000E+000	-1.79268E-003	-3.59960E-001	-1.11847E+000	3.57790E+000	10	...........
	11	0.16	2.89726E-001	-6.01350E-003	0.00000E+000	-1.74227E-003	-3.59960E-001	-1.11375E+000	3.57790E+000	10	...........
	12	0.173333	2.81592E-001	-6.01653E-003	0.00000E+000	-1.69421E-003	-3.59960E-001	-1.10894E+000	3.57790E+000	10	...........
	13	0.186667	2.73560E-001	-6.01218E-003	0.00000E+000	-1.64469E-003	-3.59960E-001	-1.11874E+000	3.57790E+000	10	...........
	14	0.2	2.65629E-001	-6.01071E-003	0.00000E+000	-1.59662E-003	-3.59960E-001	-1.11378E+000	3.57790E+000	10	...........
	15	0.213333	2.57776E-001	-6.01704E-003	0.00000E+000	-1.55105E-003	-3.59960E-001	-1.10882E+000	3.57790E+000	10	...........
	16	0.226667	2.50036E-001	-6.01565E-003	0.00000E+000	-1.50413E-003	-3.59960E-001	-1.11873E+000	3.57790E+000	10	...........
	17	0.24	2.42426E-001	-6.01714E-003	0.00000E+000	-1.45872E-003	-3.59960E-001	-1.11407E+000	3.57790E+000	10	...........
	18	0.253333	2.34856E-001	-6.01484E-003	0.00000E+000	-1.41262E-003	-3.59960E-001	-1.10962E+000	3.57790E+000	10	...........
	19	0.266667	2.27379E-001	-6.01551E-003	0.00000E+000	-1.36780E-003	-3.59960E-001	-1.11923E+000	3.57790E+000	10	...........
	20	0.28	2.20022E-001	-6.01655E-003	0.00000E+000	-1.32377E-003	-3.59960E-001	-1.11415E+000	3.57790E+000	10	...........
	21	0.293333	2.12728E-001	-6.01503E-003	0.00000E+000	-1.27956E-003	-3.59960E-001	-1.10930E+000	3.57790E+000	10	...........
	22	0.306667	2.05502E-001	-6.01341E-003	0.00000E+000	-1.23577E-003	-3.59960E-001	-1.11904E+000	3.57790E+000	10	...........
	23	0.32	1.98406E-001	-6.01492E-003	0.00000E+000	-1.19340E-003	-3.59960E-001	-1.11440E+000	3.57790E+000	10	...........
	24	0.333333	1.91333E-001	-6.01346E-003	0.00000E+000	-1.15057E-003	-3.59960E-001	-1.10932E+000	3.57790E+000	10	...........
	25	0.346667	1.84350E-001	-6.01535E-003	0.00000E+000	-1.10893E-003	-3.59960E-001	-1.11884E+000	3.57790E+000	10	...........
	26	0.36	1.77453E-001	-6.01676E-003	0.00000E+000	-1.06769E-003	-3.59960E-001	-1.11394E+000	3.57790E+000	10	...........
	27	0.373333	1.70615E-001	-6.01265E-003	0.00000E+000	-1.02585E-003	-3.59960E-001	-1.10937E+000	3.57790E+000	10	...........
	28	0.386667	1.63833E-001	-6.02103E-003	0.00000E+000	-9.86444E-004	-3.59960E-001	-1.11892E+000	3.57790E+000	10	...........
	29	0.4	1.57120E-001	-6.01312E-003	0.00000E+000	-9.44781E-004	-3.59960E-001	-1.11385E+000	3.57790E+000	10	...........
	30	0.413333	1.50489E-001	-6.01244E-003	0.00000E+000	-9.04803E-004	-3.59960E-001	-1.10924E+000	3.57790E+000	10	...........
	31	0.426667	1.43936E-001	-6.01499E-003	0.00000E+000	-8.65776E-004	-3.59960E-001	-1.11905E+000	3.57790E+000	10	...........
	32	0.44	1.37458E-001	-6.01487E-003	0.00000E+000	-8.26790E-004	-3.59960E-001	-1.11397E+000	3.57790E+000	10	...........
	33	0.453333	1.31068E-001	-6.01746E-003	0.00000E+000	-7.88693E-004	-3.59960E-001	-1.10941E+000	3.57790E+000	10	...........
	34	0.466667	1.24691E-001	-6.01454E-003	0.00000E+000	-7.49960E-004	-3.59960E-001	-1.11936E+000	3.57790E+000	10	...........
	35	0.48	1.18395E-001	-6.01537E-003	0.00000E+000	-7.12191E-004	-3.59960E-001	-1.11408E+000	3.57790E+000	10	...........
	36	0.493333	1.12171E-001	-6.01197E-003	0.00000E+000	-6.74371E-004	-3.59960E-001	-1.10959E+000	3.57790E+000	10	...........
	37	0.506667	1.05981E-001	-6.01352E-003	0.00000E+000	-6.37318E-004	-3.59960E-001	-1.11947E+000	3.57790E+000	10	...........
	38	0.52	9.98864E-002	-6.01295E-003	0.00000E+000	-6.00612E-004	-3.59960E-001	-1.11422E+000	3.57790E+000	10	...........
	39	0.533333	9.38180E-002	-6.01431E-003	0.00000E+000	-5.64250E-004	-3.59960E-001	-1.10947E+000	3.57790E+000	10	...........
	40	0.546667	8.77903E-002	-6.01441E-003	0.00000E+000	-5.28007E-004	-3.59960E-001	-1.11929E+000	3.57790E+000	10	...........
	41	0.56	8.18750E-002	-6.01853E-003	0.00000E+000	-4.92767E-004	-3.59960E-001	-1.11410E+000	3.57790E+000	10	...........
	42	0.573333	7.59782E-002	-6.01480E-003	0.00000E+000	-4.56993E-004	-3.59960E-001	-1.10970E+000	3.57790E+000	10	...........
	43	0.586667	7.01489E-002	-6.01356E-003	0.00000E+000	-4.21844E-004	-3.59960E-001	-1.11978E+000	3.57790E+000	10	...........
	44	0.6	6.43719E-002	-6.00905E-003	0.00000E+000	-3.86814E-004	-3.59960E-001	-1.11435E+000	3.57790E+000	10	...........
	45	0.613333	5.86317E-002	-6.01452E-003	0.00000E+000	-3.52641E-004	-3.59960E-001	-1.10966E+000	3.57790E+000	10	...........
	46	0.626667	5.29482E-002	-6.01707E-003	0.00000E+000	-3.18593E-004	-3.59960E-001	-1.11979E+000	3.57790E+000	10	...........
	47	0.64	4.73620E-002	-6.01647E-003	0.00000E+000	-2.84952E-004	-3.59960E-001	-1.11441E+000	3.57790E+000	10	...........
	48	0.653333	4.17921E-002	-6.01644E-003	0.00000E+000	-2.51440E-004	-3.59960E-001	-1.10980E+000	3.57790E+000	10	...........
	49	0.666667	3.62725E-002	-6.01986E-003	0.00000E+000	-2.18355E-004	-3.59960E-001	-1.11968E+000	3.57790E+000	10	...........
	50	0.68	3.07893E-002	-6.01557E-003	0.00000E+000	-1.85215E-004	-3.59960E-001	-1.11391E+000	3.57790E+000	10	...........
	51	0.693333	2.53307E-002	-6.01552E-003	0.00000E+000	-1.52377E-004	-3.59960E-001	-1.10969E+000	3.57790E+000	10	...........
	52	0.706667	1.99220E-002	-6.01623E-003	0.00000E+000	-1.19855E-004	-3.59960E-001	-1.11983E+000	3.57790E+000	10	...........
	53	0.72	1.46023E-002	-6.01001E-003	0.00000E+000	-8.77601E-005	-3.59960E-001	-1.11428E+000	3.57790E+000	10	...........
	54	0.733333	9.29644E-003	-6.01358E-003	0.00000E+000	-5.59048E-005	-3.59960E-001	-1.10978E+000	3.57790E+000	10	...........
	55	0.746667	4.06905E-003	-6.01393E-003	0.00000E+000	-2.44710E-005	-3.59960E-001	-1.11975E+000	3.57790E+000	10	...........
	56	0.751667	4.88023E-004	-6.01334E-003	0.00000E+000	-2.93465E-006	-3.59960E-001	-1.09976E+000	3.57790E+000	10	...........
STARTTIMEOFFSET	QUANT	966.549	Start Time Offset (s)
