EXPLAIN
TAG	PWR800_DISCHARGE
TITLE	LABEL	PWR Cyclic Charge Discharge (Cell) - Discharge Step	Test &Identifier
DATE	LABEL	22-6-2017	Date
TIME	LABEL	16:08:36	Time
NOTES	NOTES	3	&Notes...
	supercap test cell
	0.6mg
	6M KOH
PSTAT	PSTAT	IFC5000-01520	Potentiostat
CAPACITY	QUANT	1.00000E-003	Capacity (A-hr)
CELLTYPE	SELECTOR	1	&Cell Type
WORKINGCONNECTION	SELECTOR	0	&Working Lead
MAXDISCHARGETIME	VARIABLEANDUNITS	1.00000E+002	s	1.00000E+002	second(s)	Max &Discharge Time
DISCHARGEMODE	MULTIPARAM	0	6.00000E-003	&Discharge Mode	Constant Current	Amp(s)
SAMPLETIME	QUANT	1.00000E-002	Sa&mple Period (s)
DISCHARGESTOPAT1	MULTIPARAM	3	0.00000E+000	Discharge Stop At &1	Voltage < Limit	V
DISCHARGESTOPAT2	MULTIPARAM	0	0.00000E+000	Discharge Stop At &2	None	N/A
AESBHCSELECTOR	TOGGLE	F	Save Both Half Cells
IRCOMP	TOGGLE	F	IR &Measure
EOC	QUANT	0	Open Circuit (V)
SEQUENCER	TOGGLE	TRUE	Run as Sequence
PSTATMODEL	IQUANT	53	Pstat Model
PSTATSECTION	LABEL	IFC5000-01520	Pstat Section
PSTATSERIALNO	LABEL	01520	Pstat Serial Number
CTRLMODE	IQUANT	0	Control Mode
ELECTROMETER	IQUANT	1	RE=0 or CS=1
IESTAB	IQUANT	0	I/E Stability
CASPEED	IQUANT	4	Control Amp Speed
CONVENTION	IQUANT	1	Current Convention
ICHRANGE	IQUANT	2	Ich Range
ICHRANGEMODE	TOGGLE	T	Ich Auto Range
ICHOFFSETENABLE	TOGGLE	F	Ich Offset Enable
ICHOFFSET	QUANT	0	Ich Offset (V)
ICHFILTER	IQUANT	1	Ich Filter
VCHRANGE	IQUANT	2	Vch Range
VCHRANGEMODE	TOGGLE	T	Vch Auto Range
VCHOFFSETENABLE	TOGGLE	F	Vch Offset Enable
VCHOFFSET	QUANT	0	Vch Offset (V)
VCHFILTER	IQUANT	1	Vch Filter
IERANGELOWERLIMIT	IQUANT	9	I/E Range Lower Limit
IERANGEMODE	TOGGLE	F	I/E AutoRange
IERANGE	IQUANT	10	I/E Range
ACHSELECT	IQUANT	1	Ach Select
ACHRANGE	IQUANT	2	Ach Range
ACHOFFSETENABLE	TOGGLE	F	Ach Offset Enable
ACHOFFSET	QUANT	0	Ach Offset (V)
ACHFILTER	IQUANT	1	Ach Filter
CABLEID	IQUANT	14	Cable ID
DCCALDATE	LABEL	20-10-2016	DC Calibration Date
ACCALDATE	LABEL	12/3/2015	AC Calibration Date
FRAMEWORKVERSION	QUANT	7.01	Framework Version
INSTRUMENTVERSION	LABEL	4.00	Instrument Version
CURVE	TABLE	54
	Pt	T	Vf	Im	Vu	Pwr	Sig	Ach	Temp	IERange	Over
	#	s	V	A	V	W	V	V	deg C	#	bits
	0	0.013333	3.81061E-001	-6.01318E-003	0.00000E+000	-2.29139E-003	-3.59960E-001	-1.12119E+000	3.57680E+000	10	...........
	1	0.026667	3.69532E-001	-6.01329E-003	0.00000E+000	-2.22210E-003	-3.59960E-001	-1.13013E+000	3.57680E+000	10	...........
	2	0.04	3.58836E-001	-6.01511E-003	0.00000E+000	-2.15844E-003	-3.59960E-001	-1.12662E+000	3.57680E+000	10	...........
	3	0.053333	3.48701E-001	-6.01707E-003	0.00000E+000	-2.09816E-003	-3.59960E-001	-1.12121E+000	3.57680E+000	10	...........
	4	0.066667	3.38948E-001	-6.01459E-003	0.00000E+000	-2.03863E-003	-3.59960E-001	-1.13022E+000	3.57680E+000	10	...........
	5	0.08	3.29508E-001	-6.02043E-003	0.00000E+000	-1.98378E-003	-3.59960E-001	-1.12715E+000	3.57680E+000	10	...........
	6	0.093333	3.20261E-001	-6.01388E-003	0.00000E+000	-1.92601E-003	-3.59960E-001	-1.12187E+000	3.57680E+000	10	...........
	7	0.106667	3.11223E-001	-6.01489E-003	0.00000E+000	-1.87197E-003	-3.59960E-001	-1.13091E+000	3.57680E+000	10	...........
	8	0.12	3.02321E-001	-6.01649E-003	0.00000E+000	-1.81891E-003	-3.59960E-001	-1.12715E+000	3.57680E+000	10	...........
	9	0.133333	2.93553E-001	-6.01362E-003	0.00000E+000	-1.76532E-003	-3.59960E-001	-1.12197E+000	3.57680E+000	10	...........
	10	0.146667	2.84948E-001	-6.01652E-003	0.00000E+000	-1.71440E-003	-3.59960E-001	-1.13125E+000	3.57680E+000	10	...........
	11	0.16	2.76486E-001	-6.01578E-003	0.00000E+000	-1.66328E-003	-3.59960E-001	-1.12784E+000	3.57680E+000	10	...........
	12	0.173333	2.68123E-001	-6.01317E-003	0.00000E+000	-1.61227E-003	-3.59960E-001	-1.12239E+000	3.57680E+000	10	...........
	13	0.186667	2.59895E-001	-6.01344E-003	0.00000E+000	-1.56286E-003	-3.59960E-001	-1.13142E+000	3.57680E+000	10	...........
	14	0.2	2.51762E-001	-6.01363E-003	0.00000E+000	-1.51400E-003	-3.59960E-001	-1.12760E+000	3.57680E+000	10	...........
	15	0.213333	2.43736E-001	-6.01177E-003	0.00000E+000	-1.46528E-003	-3.59960E-001	-1.12277E+000	3.57680E+000	10	...........
	16	0.226667	2.35807E-001	-6.01649E-003	0.00000E+000	-1.41873E-003	-3.59960E-001	-1.13213E+000	3.57680E+000	10	...........
	17	0.24	2.28000E-001	-6.01429E-003	0.00000E+000	-1.37126E-003	-3.59960E-001	-1.12772E+000	3.57680E+000	10	...........
	18	0.253333	2.20298E-001	-6.01624E-003	0.00000E+000	-1.32537E-003	-3.59960E-001	-1.12235E+000	3.57680E+000	10	...........
	19	0.266667	2.12659E-001	-6.01385E-003	0.00000E+000	-1.27890E-003	-3.59960E-001	-1.13161E+000	3.57680E+000	10	...........
	20	0.28	2.05083E-001	-6.01521E-003	0.00000E+000	-1.23362E-003	-3.59960E-001	-1.12776E+000	3.57680E+000	10	...........
	21	0.293333	1.97629E-001	-6.01268E-003	0.00000E+000	-1.18828E-003	-3.59960E-001	-1.12272E+000	3.57680E+000	10	...........
	22	0.306667	1.90249E-001	-6.01322E-003	0.00000E+000	-1.14401E-003	-3.59960E-001	-1.13169E+000	3.57680E+000	10	...........
	23	0.32	1.82987E-001	-6.01531E-003	0.00000E+000	-1.10072E-003	-3.59960E-001	-1.12726E+000	3.57680E+000	10	...........
	24	0.333333	1.75796E-001	-6.01745E-003	0.00000E+000	-1.05784E-003	-3.59960E-001	-1.12238E+000	3.57680E+000	10	...........
	25	0.346667	1.68703E-001	-6.01190E-003	0.00000E+000	-1.01423E-003	-3.59960E-001	-1.13195E+000	3.57680E+000	10	...........
	26	0.36	1.61642E-001	-6.01551E-003	0.00000E+000	-9.72361E-004	-3.59960E-001	-1.12793E+000	3.57680E+000	10	...........
	27	0.373333	1.54697E-001	-6.01158E-003	0.00000E+000	-9.29973E-004	-3.59960E-001	-1.12270E+000	3.57680E+000	10	...........
	28	0.386667	1.47809E-001	-6.01279E-003	0.00000E+000	-8.88744E-004	-3.59960E-001	-1.13177E+000	3.57680E+000	10	...........
	29	0.4	1.41030E-001	-6.01550E-003	0.00000E+000	-8.48362E-004	-3.59960E-001	-1.12742E+000	3.57680E+000	10	...........
	30	0.413333	1.34331E-001	-6.01333E-003	0.00000E+000	-8.07778E-004	-3.59960E-001	-1.12282E+000	3.57680E+000	10	...........
	31	0.426667	1.27701E-001	-6.01163E-003	0.00000E+000	-7.67692E-004	-3.59960E-001	-1.13219E+000	3.57680E+000	10	...........
	32	0.44	1.21049E-001	-6.01700E-003	0.00000E+000	-7.28350E-004	-3.59960E-001	-1.12767E+000	3.57680E+000	10	...........
	33	0.453333	1.14572E-001	-6.01418E-003	0.00000E+000	-6.89059E-004	-3.59960E-001	-1.12280E+000	3.57680E+000	10	...........
	34	0.466667	1.08132E-001	-6.01883E-003	0.00000E+000	-6.50828E-004	-3.59960E-001	-1.13246E+000	3.57680E+000	10	...........
	35	0.48	1.01714E-001	-6.01809E-003	0.00000E+000	-6.12122E-004	-3.59960E-001	-1.12782E+000	3.57680E+000	10	...........
	36	0.493333	9.53532E-002	-6.01831E-003	0.00000E+000	-5.73865E-004	-3.59960E-001	-1.12309E+000	3.57680E+000	10	...........
	37	0.506667	8.90854E-002	-6.01764E-003	0.00000E+000	-5.36084E-004	-3.59960E-001	-1.13265E+000	3.57680E+000	10	...........
	38	0.52	8.29230E-002	-6.01528E-003	0.00000E+000	-4.98805E-004	-3.59960E-001	-1.12793E+000	3.57680E+000	10	...........
	39	0.533333	7.67994E-002	-6.02090E-003	0.00000E+000	-4.62401E-004	-3.59960E-001	-1.12283E+000	3.57680E+000	10	...........
	40	0.546667	7.07435E-002	-6.01150E-003	0.00000E+000	-4.25275E-004	-3.59960E-001	-1.13296E+000	3.57680E+000	10	...........
	41	0.56	6.47268E-002	-6.01350E-003	0.00000E+000	-3.89235E-004	-3.59960E-001	-1.12790E+000	3.57680E+000	10	...........
	42	0.573333	5.87850E-002	-6.01353E-003	0.00000E+000	-3.53505E-004	-3.59960E-001	-1.12254E+000	3.57680E+000	10	...........
	43	0.586667	5.29045E-002	-6.01090E-003	0.00000E+000	-3.18003E-004	-3.59960E-001	-1.13245E+000	3.57680E+000	10	...........
	44	0.6	4.70829E-002	-6.01700E-003	0.00000E+000	-2.83298E-004	-3.59960E-001	-1.12767E+000	3.57680E+000	10	...........
	45	0.613333	4.13456E-002	-6.01487E-003	0.00000E+000	-2.48688E-004	-3.59960E-001	-1.12280E+000	3.57680E+000	10	...........
	46	0.626667	3.56157E-002	-6.01596E-003	0.00000E+000	-2.14263E-004	-3.59960E-001	-1.13256E+000	3.57680E+000	10	...........
	47	0.64	2.99651E-002	-6.01789E-003	0.00000E+000	-1.80327E-004	-3.59960E-001	-1.12734E+000	3.57680E+000	10	...........
	48	0.653333	2.43798E-002	-6.01123E-003	0.00000E+000	-1.46553E-004	-3.59960E-001	-1.12265E+000	3.57680E+000	10	...........
	49	0.666667	1.88102E-002	-6.01825E-003	0.00000E+000	-1.13204E-004	-3.59960E-001	-1.13267E+000	3.57680E+000	10	...........
	50	0.68	1.32993E-002	-6.01448E-003	0.00000E+000	-7.99886E-005	-3.59960E-001	-1.12744E+000	3.57680E+000	10	...........
	51	0.693333	7.85401E-003	-6.01016E-003	0.00000E+000	-4.72038E-005	-3.59960E-001	-1.12282E+000	3.57680E+000	10	...........
	52	0.706667	2.43550E-003	-6.01474E-003	0.00000E+000	-1.46489E-005	-3.59960E-001	-1.13243E+000	3.57680E+000	10	...........
	53	0.708333	-5.92835E-004	-6.01312E-003	0.00000E+000	3.56479E-006	-3.59960E-001	-1.10982E+000	3.57680E+000	10	...........
STARTTIMEOFFSET	QUANT	1354.835	Start Time Offset (s)
