EXPLAIN
TAG	PWR800_DISCHARGE
TITLE	LABEL	PWR Cyclic Charge Discharge (Cell) - Discharge Step	Test &Identifier
DATE	LABEL	22-6-2017	Date
TIME	LABEL	15:38:06	Time
NOTES	NOTES	3	&Notes...
	supercap test cell
	0.6mg
	6M KOH
PSTAT	PSTAT	IFC5000-01520	Potentiostat
CAPACITY	QUANT	1.00000E-003	Capacity (A-hr)
CELLTYPE	SELECTOR	1	&Cell Type
WORKINGCONNECTION	SELECTOR	0	&Working Lead
MAXDISCHARGETIME	VARIABLEANDUNITS	1.00000E+002	s	1.00000E+002	second(s)	Max &Discharge Time
DISCHARGEMODE	MULTIPARAM	0	6.00000E-003	&Discharge Mode	Constant Current	Amp(s)
SAMPLETIME	QUANT	1.00000E-002	Sa&mple Period (s)
DISCHARGESTOPAT1	MULTIPARAM	3	0.00000E+000	Discharge Stop At &1	Voltage < Limit	V
DISCHARGESTOPAT2	MULTIPARAM	0	0.00000E+000	Discharge Stop At &2	None	N/A
AESBHCSELECTOR	TOGGLE	F	Save Both Half Cells
IRCOMP	TOGGLE	F	IR &Measure
EOC	QUANT	0	Open Circuit (V)
SEQUENCER	TOGGLE	TRUE	Run as Sequence
PSTATMODEL	IQUANT	53	Pstat Model
PSTATSECTION	LABEL	IFC5000-01520	Pstat Section
PSTATSERIALNO	LABEL	01520	Pstat Serial Number
CTRLMODE	IQUANT	0	Control Mode
ELECTROMETER	IQUANT	1	RE=0 or CS=1
IESTAB	IQUANT	0	I/E Stability
CASPEED	IQUANT	4	Control Amp Speed
CONVENTION	IQUANT	1	Current Convention
ICHRANGE	IQUANT	2	Ich Range
ICHRANGEMODE	TOGGLE	T	Ich Auto Range
ICHOFFSETENABLE	TOGGLE	F	Ich Offset Enable
ICHOFFSET	QUANT	0	Ich Offset (V)
ICHFILTER	IQUANT	1	Ich Filter
VCHRANGE	IQUANT	2	Vch Range
VCHRANGEMODE	TOGGLE	T	Vch Auto Range
VCHOFFSETENABLE	TOGGLE	F	Vch Offset Enable
VCHOFFSET	QUANT	0	Vch Offset (V)
VCHFILTER	IQUANT	1	Vch Filter
IERANGELOWERLIMIT	IQUANT	9	I/E Range Lower Limit
IERANGEMODE	TOGGLE	F	I/E AutoRange
IERANGE	IQUANT	10	I/E Range
ACHSELECT	IQUANT	1	Ach Select
ACHRANGE	IQUANT	2	Ach Range
ACHOFFSETENABLE	TOGGLE	F	Ach Offset Enable
ACHOFFSET	QUANT	0	Ach Offset (V)
ACHFILTER	IQUANT	1	Ach Filter
CABLEID	IQUANT	14	Cable ID
DCCALDATE	LABEL	20-10-2016	DC Calibration Date
ACCALDATE	LABEL	12/3/2015	AC Calibration Date
FRAMEWORKVERSION	QUANT	7.01	Framework Version
INSTRUMENTVERSION	LABEL	4.00	Instrument Version
CURVE	TABLE	71
	Pt	T	Vf	Im	Vu	Pwr	Sig	Ach	Temp	IERange	Over
	#	s	V	A	V	W	V	V	deg C	#	bits
	0	0.013333	4.34197E-001	-6.00970E-003	0.00000E+000	-2.60939E-003	-3.59960E-001	-1.02520E+000	3.57850E+000	10	...........
	1	0.026667	4.24127E-001	-6.01242E-003	0.00000E+000	-2.55003E-003	-3.59960E-001	-1.01377E+000	3.57850E+000	10	...........
	2	0.04	4.14794E-001	-6.01140E-003	0.00000E+000	-2.49349E-003	-3.59960E-001	-1.01286E+000	3.57850E+000	10	...........
	3	0.053333	4.05922E-001	-6.01627E-003	0.00000E+000	-2.44213E-003	-3.59960E-001	-1.02507E+000	3.57850E+000	10	...........
	4	0.066667	3.97464E-001	-6.01359E-003	0.00000E+000	-2.39019E-003	-3.59960E-001	-1.01395E+000	3.57850E+000	10	...........
	5	0.08	3.89147E-001	-6.01618E-003	0.00000E+000	-2.34118E-003	-3.59960E-001	-1.01319E+000	3.57850E+000	10	...........
	6	0.093333	3.80984E-001	-6.01274E-003	0.00000E+000	-2.29076E-003	-3.59960E-001	-1.02562E+000	3.57850E+000	10	...........
	7	0.106667	3.73077E-001	-6.01763E-003	0.00000E+000	-2.24504E-003	-3.59960E-001	-1.01417E+000	3.57850E+000	10	...........
	8	0.12	3.65327E-001	-6.01370E-003	0.00000E+000	-2.19697E-003	-3.59960E-001	-1.01326E+000	3.57850E+000	10	...........
	9	0.133333	3.57714E-001	-6.01299E-003	0.00000E+000	-2.15093E-003	-3.59960E-001	-1.02551E+000	3.57850E+000	10	...........
	10	0.146667	3.50185E-001	-6.01431E-003	0.00000E+000	-2.10612E-003	-3.59960E-001	-1.01471E+000	3.57850E+000	10	...........
	11	0.16	3.42751E-001	-6.01360E-003	0.00000E+000	-2.06117E-003	-3.59960E-001	-1.01366E+000	3.57850E+000	10	...........
	12	0.173333	3.35424E-001	-6.01189E-003	0.00000E+000	-2.01653E-003	-3.59960E-001	-1.02596E+000	3.57850E+000	10	...........
	13	0.186667	3.28188E-001	-6.01417E-003	0.00000E+000	-1.97378E-003	-3.59960E-001	-1.01474E+000	3.57850E+000	10	...........
	14	0.2	3.21036E-001	-6.01724E-003	0.00000E+000	-1.93175E-003	-3.59960E-001	-1.01381E+000	3.57850E+000	10	...........
	15	0.213333	3.13935E-001	-6.01163E-003	0.00000E+000	-1.88726E-003	-3.59960E-001	-1.02635E+000	3.57850E+000	10	...........
	16	0.226667	3.06949E-001	-6.01739E-003	0.00000E+000	-1.84703E-003	-3.59960E-001	-1.01517E+000	3.57850E+000	10	...........
	17	0.24	3.00056E-001	-6.01787E-003	0.00000E+000	-1.80570E-003	-3.59960E-001	-1.01369E+000	3.57850E+000	10	...........
	18	0.253333	2.93224E-001	-6.01668E-003	0.00000E+000	-1.76424E-003	-3.59960E-001	-1.02601E+000	3.57850E+000	10	...........
	19	0.266667	2.86388E-001	-6.01460E-003	0.00000E+000	-1.72251E-003	-3.59960E-001	-1.01494E+000	3.57850E+000	10	...........
	20	0.28	2.79643E-001	-6.01931E-003	0.00000E+000	-1.68326E-003	-3.59960E-001	-1.01366E+000	3.57850E+000	10	...........
	21	0.293333	2.72942E-001	-6.01727E-003	0.00000E+000	-1.64236E-003	-3.59960E-001	-1.02599E+000	3.57850E+000	10	...........
	22	0.306667	2.66350E-001	-6.01303E-003	0.00000E+000	-1.60157E-003	-3.59960E-001	-1.01509E+000	3.57850E+000	10	...........
	23	0.32	2.59803E-001	-6.01828E-003	0.00000E+000	-1.56357E-003	-3.59960E-001	-1.01367E+000	3.57850E+000	10	...........
	24	0.333333	2.53316E-001	-6.01751E-003	0.00000E+000	-1.52433E-003	-3.59960E-001	-1.02608E+000	3.57850E+000	10	...........
	25	0.346667	2.46952E-001	-6.01579E-003	0.00000E+000	-1.48561E-003	-3.59960E-001	-1.01541E+000	3.57850E+000	10	...........
	26	0.36	2.40575E-001	-6.01618E-003	0.00000E+000	-1.44735E-003	-3.59960E-001	-1.01378E+000	3.57850E+000	10	...........
	27	0.373333	2.34253E-001	-6.01538E-003	0.00000E+000	-1.40912E-003	-3.59960E-001	-1.02603E+000	3.57850E+000	10	...........
	28	0.386667	2.27958E-001	-6.01669E-003	0.00000E+000	-1.37155E-003	-3.59960E-001	-1.01539E+000	3.57850E+000	10	...........
	29	0.4	2.21735E-001	-6.01586E-003	0.00000E+000	-1.33393E-003	-3.59960E-001	-1.01394E+000	3.57850E+000	10	...........
	30	0.413333	2.15561E-001	-6.01664E-003	0.00000E+000	-1.29695E-003	-3.59960E-001	-1.02623E+000	3.57850E+000	10	...........
	31	0.426667	2.09445E-001	-6.01578E-003	0.00000E+000	-1.25997E-003	-3.59960E-001	-1.01611E+000	3.57850E+000	10	...........
	32	0.44	2.03364E-001	-6.01513E-003	0.00000E+000	-1.22326E-003	-3.59960E-001	-1.01396E+000	3.57850E+000	10	...........
	33	0.453333	1.97362E-001	-6.01427E-003	0.00000E+000	-1.18699E-003	-3.59960E-001	-1.02622E+000	3.57850E+000	10	...........
	34	0.466667	1.91382E-001	-6.01560E-003	0.00000E+000	-1.15128E-003	-3.59960E-001	-1.01625E+000	3.57850E+000	10	...........
	35	0.48	1.85462E-001	-6.01576E-003	0.00000E+000	-1.11570E-003	-3.59960E-001	-1.01436E+000	3.57769E+000	10	...........
	36	0.493333	1.79598E-001	-6.01516E-003	0.00000E+000	-1.08031E-003	-3.59960E-001	-1.02672E+000	3.57720E+000	10	...........
	37	0.506667	1.73799E-001	-6.01380E-003	0.00000E+000	-1.04519E-003	-3.59960E-001	-1.01642E+000	3.57720E+000	10	...........
	38	0.52	1.68002E-001	-6.01454E-003	0.00000E+000	-1.01045E-003	-3.59960E-001	-1.01427E+000	3.57720E+000	10	...........
	39	0.533333	1.62257E-001	-6.01269E-003	0.00000E+000	-9.75599E-004	-3.59960E-001	-1.02684E+000	3.57720E+000	10	...........
	40	0.546667	1.56577E-001	-6.01656E-003	0.00000E+000	-9.42057E-004	-3.59960E-001	-1.01686E+000	3.57720E+000	10	...........
	41	0.56	1.50892E-001	-6.01647E-003	0.00000E+000	-9.07834E-004	-3.59960E-001	-1.01454E+000	3.57720E+000	10	...........
	42	0.573333	1.45255E-001	-6.01428E-003	0.00000E+000	-8.73605E-004	-3.59960E-001	-1.02651E+000	3.57720E+000	10	...........
	43	0.586667	1.39631E-001	-6.01586E-003	0.00000E+000	-8.40003E-004	-3.59960E-001	-1.01628E+000	3.57720E+000	10	...........
	44	0.6	1.34084E-001	-6.01501E-003	0.00000E+000	-8.06517E-004	-3.59960E-001	-1.01408E+000	3.57720E+000	10	...........
	45	0.613333	1.28561E-001	-6.01407E-003	0.00000E+000	-7.73174E-004	-3.59960E-001	-1.02639E+000	3.57720E+000	10	...........
	46	0.626667	1.23068E-001	-6.01550E-003	0.00000E+000	-7.40314E-004	-3.59960E-001	-1.01649E+000	3.57720E+000	10	...........
	47	0.64	1.17635E-001	-6.01629E-003	0.00000E+000	-7.07728E-004	-3.59960E-001	-1.01396E+000	3.57720E+000	10	...........
	48	0.653333	1.12224E-001	-6.01659E-003	0.00000E+000	-6.75206E-004	-3.59960E-001	-1.02631E+000	3.57720E+000	10	...........
	49	0.666667	1.06813E-001	-6.01672E-003	0.00000E+000	-6.42665E-004	-3.59960E-001	-1.01677E+000	3.57720E+000	10	...........
	50	0.68	1.01475E-001	-6.01723E-003	0.00000E+000	-6.10600E-004	-3.59960E-001	-1.01424E+000	3.57720E+000	10	...........
	51	0.693333	9.61714E-002	-6.01618E-003	0.00000E+000	-5.78585E-004	-3.59960E-001	-1.02642E+000	3.57720E+000	10	...........
	52	0.706667	9.09102E-002	-6.01235E-003	0.00000E+000	-5.46584E-004	-3.59960E-001	-1.01663E+000	3.57720E+000	10	...........
	53	0.72	8.56725E-002	-6.01190E-003	0.00000E+000	-5.15054E-004	-3.59960E-001	-1.01383E+000	3.57720E+000	10	...........
	54	0.733333	8.04913E-002	-6.01515E-003	0.00000E+000	-4.84168E-004	-3.59960E-001	-1.02646E+000	3.57720E+000	10	...........
	55	0.746667	7.53360E-002	-6.01546E-003	0.00000E+000	-4.53181E-004	-3.59960E-001	-1.01684E+000	3.57720E+000	10	...........
	56	0.76	7.02038E-002	-6.01666E-003	0.00000E+000	-4.22393E-004	-3.59960E-001	-1.01395E+000	3.57720E+000	10	...........
	57	0.773333	6.51272E-002	-6.01659E-003	0.00000E+000	-3.91844E-004	-3.59960E-001	-1.02628E+000	3.57720E+000	10	...........
	58	0.786667	6.00572E-002	-6.01424E-003	0.00000E+000	-3.61199E-004	-3.59960E-001	-1.01701E+000	3.57720E+000	10	...........
	59	0.8	5.50278E-002	-6.01806E-003	0.00000E+000	-3.31161E-004	-3.59960E-001	-1.01406E+000	3.57720E+000	10	...........
	60	0.813333	5.00163E-002	-6.01369E-003	0.00000E+000	-3.00782E-004	-3.59960E-001	-1.02646E+000	3.57720E+000	10	...........
	61	0.826667	4.50721E-002	-6.01511E-003	0.00000E+000	-2.71114E-004	-3.59960E-001	-1.01715E+000	3.57720E+000	10	...........
	62	0.84	4.01259E-002	-6.01746E-003	0.00000E+000	-2.41456E-004	-3.59960E-001	-1.01408E+000	3.57720E+000	10	...........
	63	0.853333	3.52452E-002	-6.01539E-003	0.00000E+000	-2.12014E-004	-3.59960E-001	-1.02636E+000	3.57720E+000	10	...........
	64	0.866667	3.03606E-002	-6.01826E-003	0.00000E+000	-1.82718E-004	-3.59960E-001	-1.01738E+000	3.57720E+000	10	...........
	65	0.88	2.55194E-002	-6.01252E-003	0.00000E+000	-1.53436E-004	-3.59960E-001	-1.01435E+000	3.57720E+000	10	...........
	66	0.893333	2.07014E-002	-6.01257E-003	0.00000E+000	-1.24469E-004	-3.59960E-001	-1.02622E+000	3.57720E+000	10	...........
	67	0.906667	1.59047E-002	-6.01678E-003	0.00000E+000	-9.56953E-005	-3.59960E-001	-1.01715E+000	3.57720E+000	10	...........
	68	0.92	1.11368E-002	-6.01741E-003	0.00000E+000	-6.70149E-005	-3.59960E-001	-1.01377E+000	3.57720E+000	10	...........
	69	0.933333	6.36654E-003	-6.01385E-003	0.00000E+000	-3.82874E-005	-3.59960E-001	-1.02610E+000	3.57720E+000	10	...........
	70	0.946667	1.67419E-003	-6.01713E-003	0.00000E+000	-1.00738E-005	-3.59960E-001	-1.01751E+000	3.57720E+000	10	...........
STARTTIMEOFFSET	QUANT	136.21	Start Time Offset (s)
