EXPLAIN
TAG	PWR800_DISCHARGE
TITLE	LABEL	PWR Cyclic Charge Discharge (Cell) - Discharge Step	Test &Identifier
DATE	LABEL	22-6-2017	Date
TIME	LABEL	15:55:11	Time
NOTES	NOTES	3	&Notes...
	supercap test cell
	0.6mg
	6M KOH
PSTAT	PSTAT	IFC5000-01520	Potentiostat
CAPACITY	QUANT	1.00000E-003	Capacity (A-hr)
CELLTYPE	SELECTOR	1	&Cell Type
WORKINGCONNECTION	SELECTOR	0	&Working Lead
MAXDISCHARGETIME	VARIABLEANDUNITS	1.00000E+002	s	1.00000E+002	second(s)	Max &Discharge Time
DISCHARGEMODE	MULTIPARAM	0	6.00000E-003	&Discharge Mode	Constant Current	Amp(s)
SAMPLETIME	QUANT	1.00000E-002	Sa&mple Period (s)
DISCHARGESTOPAT1	MULTIPARAM	3	0.00000E+000	Discharge Stop At &1	Voltage < Limit	V
DISCHARGESTOPAT2	MULTIPARAM	0	0.00000E+000	Discharge Stop At &2	None	N/A
AESBHCSELECTOR	TOGGLE	F	Save Both Half Cells
IRCOMP	TOGGLE	F	IR &Measure
EOC	QUANT	0	Open Circuit (V)
SEQUENCER	TOGGLE	TRUE	Run as Sequence
PSTATMODEL	IQUANT	53	Pstat Model
PSTATSECTION	LABEL	IFC5000-01520	Pstat Section
PSTATSERIALNO	LABEL	01520	Pstat Serial Number
CTRLMODE	IQUANT	0	Control Mode
ELECTROMETER	IQUANT	1	RE=0 or CS=1
IESTAB	IQUANT	0	I/E Stability
CASPEED	IQUANT	4	Control Amp Speed
CONVENTION	IQUANT	1	Current Convention
ICHRANGE	IQUANT	2	Ich Range
ICHRANGEMODE	TOGGLE	T	Ich Auto Range
ICHOFFSETENABLE	TOGGLE	F	Ich Offset Enable
ICHOFFSET	QUANT	0	Ich Offset (V)
ICHFILTER	IQUANT	1	Ich Filter
VCHRANGE	IQUANT	2	Vch Range
VCHRANGEMODE	TOGGLE	T	Vch Auto Range
VCHOFFSETENABLE	TOGGLE	F	Vch Offset Enable
VCHOFFSET	QUANT	0	Vch Offset (V)
VCHFILTER	IQUANT	1	Vch Filter
IERANGELOWERLIMIT	IQUANT	9	I/E Range Lower Limit
IERANGEMODE	TOGGLE	F	I/E AutoRange
IERANGE	IQUANT	10	I/E Range
ACHSELECT	IQUANT	1	Ach Select
ACHRANGE	IQUANT	2	Ach Range
ACHOFFSETENABLE	TOGGLE	F	Ach Offset Enable
ACHOFFSET	QUANT	0	Ach Offset (V)
ACHFILTER	IQUANT	1	Ach Filter
CABLEID	IQUANT	14	Cable ID
DCCALDATE	LABEL	20-10-2016	DC Calibration Date
ACCALDATE	LABEL	12/3/2015	AC Calibration Date
FRAMEWORKVERSION	QUANT	7.01	Framework Version
INSTRUMENTVERSION	LABEL	4.00	Instrument Version
CURVE	TABLE	58
	Pt	T	Vf	Im	Vu	Pwr	Sig	Ach	Temp	IERange	Over
	#	s	V	A	V	W	V	V	deg C	#	bits
	0	0.013333	3.96121E-001	-6.01591E-003	0.00000E+000	-2.38303E-003	-3.59960E-001	-1.10667E+000	3.57850E+000	10	...........
	1	0.026667	3.85056E-001	-6.01100E-003	0.00000E+000	-2.31457E-003	-3.59960E-001	-1.11236E+000	3.57850E+000	10	...........
	2	0.04	3.74773E-001	-6.00970E-003	0.00000E+000	-2.25227E-003	-3.59960E-001	-1.10348E+000	3.57850E+000	10	...........
	3	0.053333	3.64972E-001	-6.01534E-003	0.00000E+000	-2.19543E-003	-3.59960E-001	-1.10735E+000	3.57850E+000	10	...........
	4	0.066667	3.55588E-001	-6.01424E-003	0.00000E+000	-2.13859E-003	-3.59960E-001	-1.11265E+000	3.57850E+000	10	...........
	5	0.08	3.46464E-001	-6.01554E-003	0.00000E+000	-2.08417E-003	-3.59960E-001	-1.10359E+000	3.57850E+000	10	...........
	6	0.093333	3.37579E-001	-6.01445E-003	0.00000E+000	-2.03035E-003	-3.59960E-001	-1.10783E+000	3.57850E+000	10	...........
	7	0.106667	3.28861E-001	-6.01429E-003	0.00000E+000	-1.97786E-003	-3.59960E-001	-1.11284E+000	3.57850E+000	10	...........
	8	0.12	3.20293E-001	-6.01677E-003	0.00000E+000	-1.92713E-003	-3.59960E-001	-1.10389E+000	3.57850E+000	10	...........
	9	0.133333	3.11860E-001	-6.01784E-003	0.00000E+000	-1.87672E-003	-3.59960E-001	-1.10810E+000	3.57850E+000	10	...........
	10	0.146667	3.03568E-001	-6.01441E-003	0.00000E+000	-1.82578E-003	-3.59960E-001	-1.11286E+000	3.57850E+000	10	...........
	11	0.16	2.95383E-001	-6.01574E-003	0.00000E+000	-1.77695E-003	-3.59960E-001	-1.10429E+000	3.57850E+000	10	...........
	12	0.173333	2.87287E-001	-6.01061E-003	0.00000E+000	-1.72677E-003	-3.59960E-001	-1.10892E+000	3.57850E+000	10	...........
	13	0.186667	2.79335E-001	-6.01010E-003	0.00000E+000	-1.67883E-003	-3.59960E-001	-1.11312E+000	3.57850E+000	10	...........
	14	0.2	2.71527E-001	-6.01370E-003	0.00000E+000	-1.63289E-003	-3.59960E-001	-1.10457E+000	3.57850E+000	10	...........
	15	0.213333	2.63760E-001	-6.01303E-003	0.00000E+000	-1.58600E-003	-3.59960E-001	-1.10919E+000	3.57850E+000	10	...........
	16	0.226667	2.56091E-001	-6.01691E-003	0.00000E+000	-1.54088E-003	-3.59960E-001	-1.11355E+000	3.57850E+000	10	...........
	17	0.24	2.48530E-001	-6.01542E-003	0.00000E+000	-1.49501E-003	-3.59960E-001	-1.10506E+000	3.57850E+000	10	...........
	18	0.253333	2.41052E-001	-6.01545E-003	0.00000E+000	-1.45004E-003	-3.59960E-001	-1.10986E+000	3.57850E+000	10	...........
	19	0.266667	2.33682E-001	-6.01072E-003	0.00000E+000	-1.40460E-003	-3.59960E-001	-1.11373E+000	3.57850E+000	10	...........
	20	0.28	2.26366E-001	-6.01152E-003	0.00000E+000	-1.36080E-003	-3.59960E-001	-1.10545E+000	3.57850E+000	10	...........
	21	0.293333	2.19158E-001	-6.01076E-003	0.00000E+000	-1.31731E-003	-3.59960E-001	-1.11026E+000	3.57850E+000	10	...........
	22	0.306667	2.11982E-001	-6.01171E-003	0.00000E+000	-1.27438E-003	-3.59960E-001	-1.11385E+000	3.57850E+000	10	...........
	23	0.32	2.04917E-001	-6.01338E-003	0.00000E+000	-1.23224E-003	-3.59960E-001	-1.10536E+000	3.57850E+000	10	...........
	24	0.333333	1.97907E-001	-6.01518E-003	0.00000E+000	-1.19045E-003	-3.59960E-001	-1.11003E+000	3.57850E+000	10	...........
	25	0.346667	1.90991E-001	-6.01477E-003	0.00000E+000	-1.14877E-003	-3.59960E-001	-1.11395E+000	3.57850E+000	10	...........
	26	0.36	1.84138E-001	-6.01697E-003	0.00000E+000	-1.10795E-003	-3.59960E-001	-1.10554E+000	3.57850E+000	10	...........
	27	0.373333	1.77342E-001	-6.01809E-003	0.00000E+000	-1.06726E-003	-3.59960E-001	-1.11045E+000	3.57850E+000	10	...........
	28	0.386667	1.70614E-001	-6.02219E-003	0.00000E+000	-1.02747E-003	-3.59960E-001	-1.11394E+000	3.57850E+000	10	...........
	29	0.4	1.63971E-001	-6.00782E-003	0.00000E+000	-9.85111E-004	-3.59960E-001	-1.10564E+000	3.57850E+000	10	...........
	30	0.413333	1.57387E-001	-6.01442E-003	0.00000E+000	-9.46591E-004	-3.59960E-001	-1.11086E+000	3.57850E+000	10	...........
	31	0.426667	1.50879E-001	-6.01514E-003	0.00000E+000	-9.07561E-004	-3.59960E-001	-1.11398E+000	3.57850E+000	10	...........
	32	0.44	1.44425E-001	-6.01249E-003	0.00000E+000	-8.68354E-004	-3.59960E-001	-1.10600E+000	3.57850E+000	10	...........
	33	0.453333	1.38030E-001	-6.01524E-003	0.00000E+000	-8.30284E-004	-3.59960E-001	-1.11125E+000	3.57771E+000	10	...........
	34	0.466667	1.31691E-001	-6.01590E-003	0.00000E+000	-7.92239E-004	-3.59960E-001	-1.11411E+000	3.57640E+000	10	...........
	35	0.48	1.25451E-001	-6.01437E-003	0.00000E+000	-7.54510E-004	-3.59960E-001	-1.10616E+000	3.57640E+000	10	...........
	36	0.493333	1.19228E-001	-6.01151E-003	0.00000E+000	-7.16742E-004	-3.59960E-001	-1.11126E+000	3.57640E+000	10	...........
	37	0.506667	1.13086E-001	-6.01806E-003	0.00000E+000	-6.80559E-004	-3.59960E-001	-1.11415E+000	3.57640E+000	10	...........
	38	0.52	1.06978E-001	-6.01412E-003	0.00000E+000	-6.43381E-004	-3.59960E-001	-1.10618E+000	3.57640E+000	10	...........
	39	0.533333	1.00945E-001	-6.01121E-003	0.00000E+000	-6.06802E-004	-3.59960E-001	-1.11159E+000	3.57640E+000	10	...........
	40	0.546667	9.49634E-002	-6.01140E-003	0.00000E+000	-5.70862E-004	-3.59960E-001	-1.11437E+000	3.57640E+000	10	...........
	41	0.56	8.90098E-002	-6.02182E-003	0.00000E+000	-5.36001E-004	-3.59960E-001	-1.10622E+000	3.57640E+000	10	...........
	42	0.573333	8.31506E-002	-6.01436E-003	0.00000E+000	-5.00098E-004	-3.59960E-001	-1.11226E+000	3.57640E+000	10	...........
	43	0.586667	7.73506E-002	-6.01489E-003	0.00000E+000	-4.65255E-004	-3.59960E-001	-1.11458E+000	3.57640E+000	10	...........
	44	0.6	7.15553E-002	-6.01858E-003	0.00000E+000	-4.30662E-004	-3.59960E-001	-1.10648E+000	3.57640E+000	10	...........
	45	0.613333	6.58298E-002	-6.00926E-003	0.00000E+000	-3.95589E-004	-3.59960E-001	-1.11215E+000	3.57640E+000	10	...........
	46	0.626667	6.01475E-002	-6.01414E-003	0.00000E+000	-3.61736E-004	-3.59960E-001	-1.11427E+000	3.57640E+000	10	...........
	47	0.64	5.45447E-002	-6.00886E-003	0.00000E+000	-3.27752E-004	-3.59960E-001	-1.10618E+000	3.57640E+000	10	...........
	48	0.653333	4.89788E-002	-6.01421E-003	0.00000E+000	-2.94569E-004	-3.59960E-001	-1.11205E+000	3.57640E+000	10	...........
	49	0.666667	4.34767E-002	-6.00920E-003	0.00000E+000	-2.61260E-004	-3.59960E-001	-1.11391E+000	3.57640E+000	10	...........
	50	0.68	3.80119E-002	-6.01441E-003	0.00000E+000	-2.28619E-004	-3.59960E-001	-1.10598E+000	3.57640E+000	10	...........
	51	0.693333	3.26222E-002	-6.01721E-003	0.00000E+000	-1.96294E-004	-3.59960E-001	-1.11205E+000	3.57640E+000	10	...........
	52	0.706667	2.72305E-002	-6.01192E-003	0.00000E+000	-1.63708E-004	-3.59960E-001	-1.11380E+000	3.57640E+000	10	...........
	53	0.72	2.18778E-002	-6.01163E-003	0.00000E+000	-1.31521E-004	-3.59960E-001	-1.10615E+000	3.57640E+000	10	...........
	54	0.733333	1.65769E-002	-6.01289E-003	0.00000E+000	-9.96753E-005	-3.59960E-001	-1.11219E+000	3.57640E+000	10	...........
	55	0.746667	1.13492E-002	-6.01366E-003	0.00000E+000	-6.82503E-005	-3.59960E-001	-1.11348E+000	3.57640E+000	10	...........
	56	0.76	6.13684E-003	-6.01316E-003	0.00000E+000	-3.69018E-005	-3.59960E-001	-1.10618E+000	3.57640E+000	10	...........
	57	0.771667	1.30029E-003	-6.01324E-003	0.00000E+000	-7.81898E-006	-3.59960E-001	-1.11520E+000	3.57640E+000	10	...........
STARTTIMEOFFSET	QUANT	830.4686	Start Time Offset (s)
