EXPLAIN
TAG	PWR800_DISCHARGE
TITLE	LABEL	PWR Cyclic Charge Discharge (Cell) - Discharge Step	Test &Identifier
DATE	LABEL	22-6-2017	Date
TIME	LABEL	15:52:07	Time
NOTES	NOTES	3	&Notes...
	supercap test cell
	0.6mg
	6M KOH
PSTAT	PSTAT	IFC5000-01520	Potentiostat
CAPACITY	QUANT	1.00000E-003	Capacity (A-hr)
CELLTYPE	SELECTOR	1	&Cell Type
WORKINGCONNECTION	SELECTOR	0	&Working Lead
MAXDISCHARGETIME	VARIABLEANDUNITS	1.00000E+002	s	1.00000E+002	second(s)	Max &Discharge Time
DISCHARGEMODE	MULTIPARAM	0	6.00000E-003	&Discharge Mode	Constant Current	Amp(s)
SAMPLETIME	QUANT	1.00000E-002	Sa&mple Period (s)
DISCHARGESTOPAT1	MULTIPARAM	3	0.00000E+000	Discharge Stop At &1	Voltage < Limit	V
DISCHARGESTOPAT2	MULTIPARAM	0	0.00000E+000	Discharge Stop At &2	None	N/A
AESBHCSELECTOR	TOGGLE	F	Save Both Half Cells
IRCOMP	TOGGLE	F	IR &Measure
EOC	QUANT	0	Open Circuit (V)
SEQUENCER	TOGGLE	TRUE	Run as Sequence
PSTATMODEL	IQUANT	53	Pstat Model
PSTATSECTION	LABEL	IFC5000-01520	Pstat Section
PSTATSERIALNO	LABEL	01520	Pstat Serial Number
CTRLMODE	IQUANT	0	Control Mode
ELECTROMETER	IQUANT	1	RE=0 or CS=1
IESTAB	IQUANT	0	I/E Stability
CASPEED	IQUANT	4	Control Amp Speed
CONVENTION	IQUANT	1	Current Convention
ICHRANGE	IQUANT	2	Ich Range
ICHRANGEMODE	TOGGLE	T	Ich Auto Range
ICHOFFSETENABLE	TOGGLE	F	Ich Offset Enable
ICHOFFSET	QUANT	0	Ich Offset (V)
ICHFILTER	IQUANT	1	Ich Filter
VCHRANGE	IQUANT	2	Vch Range
VCHRANGEMODE	TOGGLE	T	Vch Auto Range
VCHOFFSETENABLE	TOGGLE	F	Vch Offset Enable
VCHOFFSET	QUANT	0	Vch Offset (V)
VCHFILTER	IQUANT	1	Vch Filter
IERANGELOWERLIMIT	IQUANT	9	I/E Range Lower Limit
IERANGEMODE	TOGGLE	F	I/E AutoRange
IERANGE	IQUANT	10	I/E Range
ACHSELECT	IQUANT	1	Ach Select
ACHRANGE	IQUANT	2	Ach Range
ACHOFFSETENABLE	TOGGLE	F	Ach Offset Enable
ACHOFFSET	QUANT	0	Ach Offset (V)
ACHFILTER	IQUANT	1	Ach Filter
CABLEID	IQUANT	14	Cable ID
DCCALDATE	LABEL	20-10-2016	DC Calibration Date
ACCALDATE	LABEL	12/3/2015	AC Calibration Date
FRAMEWORKVERSION	QUANT	7.01	Framework Version
INSTRUMENTVERSION	LABEL	4.00	Instrument Version
CURVE	TABLE	60
	Pt	T	Vf	Im	Vu	Pwr	Sig	Ach	Temp	IERange	Over
	#	s	V	A	V	W	V	V	deg C	#	bits
	0	0.013333	3.99900E-001	-6.01522E-003	0.00000E+000	-2.40549E-003	-3.59960E-001	-1.09012E+000	3.57670E+000	10	...........
	1	0.026667	3.88935E-001	-6.01563E-003	0.00000E+000	-2.33969E-003	-3.59960E-001	-1.09930E+000	3.57670E+000	10	...........
	2	0.04	3.78795E-001	-6.01618E-003	0.00000E+000	-2.27890E-003	-3.59960E-001	-1.08904E+000	3.57670E+000	10	...........
	3	0.053333	3.69133E-001	-6.01856E-003	0.00000E+000	-2.22165E-003	-3.59960E-001	-1.09030E+000	3.57670E+000	10	...........
	4	0.066667	3.59809E-001	-6.01870E-003	0.00000E+000	-2.16558E-003	-3.59960E-001	-1.09956E+000	3.57670E+000	10	...........
	5	0.08	3.50818E-001	-6.01572E-003	0.00000E+000	-2.11043E-003	-3.59960E-001	-1.08887E+000	3.57670E+000	10	...........
	6	0.093333	3.42013E-001	-6.01287E-003	0.00000E+000	-2.05648E-003	-3.59960E-001	-1.08996E+000	3.57670E+000	10	...........
	7	0.106667	3.33407E-001	-6.01429E-003	0.00000E+000	-2.00520E-003	-3.59960E-001	-1.09937E+000	3.57670E+000	10	...........
	8	0.12	3.24915E-001	-6.01973E-003	0.00000E+000	-1.95590E-003	-3.59960E-001	-1.08929E+000	3.57670E+000	10	...........
	9	0.133333	3.16612E-001	-6.01521E-003	0.00000E+000	-1.90449E-003	-3.59960E-001	-1.09052E+000	3.57670E+000	10	...........
	10	0.146667	3.08375E-001	-6.01159E-003	0.00000E+000	-1.85383E-003	-3.59960E-001	-1.09988E+000	3.57670E+000	10	...........
	11	0.16	3.00273E-001	-6.01273E-003	0.00000E+000	-1.80546E-003	-3.59960E-001	-1.08922E+000	3.57670E+000	10	...........
	12	0.173333	2.92310E-001	-6.01342E-003	0.00000E+000	-1.75778E-003	-3.59960E-001	-1.09058E+000	3.57670E+000	10	...........
	13	0.186667	2.84460E-001	-6.01342E-003	0.00000E+000	-1.71058E-003	-3.59960E-001	-1.10017E+000	3.57670E+000	10	...........
	14	0.2	2.76757E-001	-6.00858E-003	0.00000E+000	-1.66292E-003	-3.59960E-001	-1.08983E+000	3.57670E+000	10	...........
	15	0.213333	2.69071E-001	-6.01538E-003	0.00000E+000	-1.61857E-003	-3.59960E-001	-1.09094E+000	3.57670E+000	10	...........
	16	0.226667	2.61431E-001	-6.01728E-003	0.00000E+000	-1.57310E-003	-3.59960E-001	-1.10021E+000	3.57655E+000	10	...........
	17	0.24	2.53944E-001	-6.01269E-003	0.00000E+000	-1.52689E-003	-3.59960E-001	-1.08987E+000	3.57650E+000	10	...........
	18	0.253333	2.46534E-001	-6.01610E-003	0.00000E+000	-1.48317E-003	-3.59960E-001	-1.09144E+000	3.57650E+000	10	...........
	19	0.266667	2.39202E-001	-6.01317E-003	0.00000E+000	-1.43836E-003	-3.59960E-001	-1.10078E+000	3.57650E+000	10	...........
	20	0.28	2.31914E-001	-6.01463E-003	0.00000E+000	-1.39488E-003	-3.59960E-001	-1.09064E+000	3.57650E+000	10	...........
	21	0.293333	2.24772E-001	-6.01617E-003	0.00000E+000	-1.35227E-003	-3.59960E-001	-1.09183E+000	3.57650E+000	10	...........
	22	0.306667	2.17679E-001	-6.00964E-003	0.00000E+000	-1.30817E-003	-3.59960E-001	-1.10131E+000	3.57650E+000	10	...........
	23	0.32	2.10684E-001	-6.01689E-003	0.00000E+000	-1.26766E-003	-3.59960E-001	-1.09094E+000	3.57650E+000	10	...........
	24	0.333333	2.03757E-001	-6.01520E-003	0.00000E+000	-1.22564E-003	-3.59960E-001	-1.09250E+000	3.57650E+000	10	...........
	25	0.346667	1.96884E-001	-6.01647E-003	0.00000E+000	-1.18455E-003	-3.59960E-001	-1.10164E+000	3.57650E+000	10	...........
	26	0.36	1.90098E-001	-6.01277E-003	0.00000E+000	-1.14301E-003	-3.59960E-001	-1.09107E+000	3.57650E+000	10	...........
	27	0.373333	1.83334E-001	-6.01781E-003	0.00000E+000	-1.10327E-003	-3.59960E-001	-1.09266E+000	3.57650E+000	10	...........
	28	0.386667	1.76649E-001	-6.01347E-003	0.00000E+000	-1.06227E-003	-3.59960E-001	-1.10160E+000	3.57650E+000	10	...........
	29	0.4	1.70066E-001	-6.01410E-003	0.00000E+000	-1.02279E-003	-3.59960E-001	-1.09154E+000	3.57650E+000	10	...........
	30	0.413333	1.63506E-001	-6.01373E-003	0.00000E+000	-9.83279E-004	-3.59960E-001	-1.09270E+000	3.57650E+000	10	...........
	31	0.426667	1.57020E-001	-6.01544E-003	0.00000E+000	-9.44547E-004	-3.59960E-001	-1.10166E+000	3.57650E+000	10	...........
	32	0.44	1.50625E-001	-6.01308E-003	0.00000E+000	-9.05721E-004	-3.59960E-001	-1.09129E+000	3.57650E+000	10	...........
	33	0.453333	1.44283E-001	-6.01424E-003	0.00000E+000	-8.67756E-004	-3.59960E-001	-1.09300E+000	3.57650E+000	10	...........
	34	0.466667	1.38031E-001	-6.01182E-003	0.00000E+000	-8.29818E-004	-3.59960E-001	-1.10204E+000	3.57650E+000	10	...........
	35	0.48	1.31762E-001	-6.01202E-003	0.00000E+000	-7.92156E-004	-3.59960E-001	-1.09118E+000	3.57650E+000	10	...........
	36	0.493333	1.25635E-001	-6.01291E-003	0.00000E+000	-7.55433E-004	-3.59960E-001	-1.09276E+000	3.57650E+000	10	...........
	37	0.506667	1.19493E-001	-6.01515E-003	0.00000E+000	-7.18770E-004	-3.59960E-001	-1.10199E+000	3.57650E+000	10	...........
	38	0.52	1.13394E-001	-6.01339E-003	0.00000E+000	-6.81879E-004	-3.59960E-001	-1.09141E+000	3.57650E+000	10	...........
	39	0.533333	1.07336E-001	-6.01722E-003	0.00000E+000	-6.45861E-004	-3.59960E-001	-1.09318E+000	3.57650E+000	10	...........
	40	0.546667	1.01396E-001	-6.01285E-003	0.00000E+000	-6.09677E-004	-3.59960E-001	-1.10192E+000	3.57650E+000	10	...........
	41	0.56	9.54759E-002	-6.01258E-003	0.00000E+000	-5.74056E-004	-3.59960E-001	-1.09156E+000	3.57650E+000	10	...........
	42	0.573333	8.96279E-002	-6.01636E-003	0.00000E+000	-5.39234E-004	-3.59960E-001	-1.09317E+000	3.57650E+000	10	...........
	43	0.586667	8.38579E-002	-6.01062E-003	0.00000E+000	-5.04038E-004	-3.59960E-001	-1.10228E+000	3.57650E+000	10	...........
	44	0.6	7.81255E-002	-6.01633E-003	0.00000E+000	-4.70029E-004	-3.59960E-001	-1.09184E+000	3.57650E+000	10	...........
	45	0.613333	7.23746E-002	-6.01284E-003	0.00000E+000	-4.35177E-004	-3.59960E-001	-1.09346E+000	3.57650E+000	10	...........
	46	0.626667	6.67198E-002	-6.01217E-003	0.00000E+000	-4.01131E-004	-3.59960E-001	-1.10229E+000	3.57650E+000	10	...........
	47	0.64	6.11140E-002	-6.01569E-003	0.00000E+000	-3.67643E-004	-3.59960E-001	-1.09175E+000	3.57650E+000	10	...........
	48	0.653333	5.55225E-002	-6.01256E-003	0.00000E+000	-3.33833E-004	-3.59960E-001	-1.09355E+000	3.57650E+000	10	...........
	49	0.666667	5.00344E-002	-6.01380E-003	0.00000E+000	-3.00896E-004	-3.59960E-001	-1.10247E+000	3.57650E+000	10	...........
	50	0.68	4.45878E-002	-6.01622E-003	0.00000E+000	-2.68250E-004	-3.59960E-001	-1.09174E+000	3.57650E+000	10	...........
	51	0.693333	3.91524E-002	-6.02037E-003	0.00000E+000	-2.35712E-004	-3.59960E-001	-1.09356E+000	3.57650E+000	10	...........
	52	0.706667	3.37961E-002	-6.01376E-003	0.00000E+000	-2.03242E-004	-3.59960E-001	-1.10189E+000	3.57650E+000	10	...........
	53	0.72	2.84812E-002	-6.01534E-003	0.00000E+000	-1.71324E-004	-3.59960E-001	-1.09145E+000	3.57650E+000	10	...........
	54	0.733333	2.31521E-002	-6.01275E-003	0.00000E+000	-1.39208E-004	-3.59960E-001	-1.09342E+000	3.57650E+000	10	...........
	55	0.746667	1.79353E-002	-6.01593E-003	0.00000E+000	-1.07897E-004	-3.59960E-001	-1.10187E+000	3.57650E+000	10	...........
	56	0.76	1.27404E-002	-6.01471E-003	0.00000E+000	-7.66301E-005	-3.59960E-001	-1.09127E+000	3.57650E+000	10	...........
	57	0.773333	7.58233E-003	-6.01188E-003	0.00000E+000	-4.55840E-005	-3.59960E-001	-1.09352E+000	3.57650E+000	10	...........
	58	0.786667	2.45391E-003	-6.01448E-003	0.00000E+000	-1.47590E-005	-3.59960E-001	-1.10206E+000	3.57650E+000	10	...........
	59	0.788333	-4.10234E-004	-6.00352E-003	0.00000E+000	2.46285E-006	-3.59960E-001	-1.09227E+000	3.57650E+000	10	...........
STARTTIMEOFFSET	QUANT	708.2284	Start Time Offset (s)
