EXPLAIN
TAG	PWR800_DISCHARGE
TITLE	LABEL	PWR Cyclic Charge Discharge (Cell) - Discharge Step	Test &Identifier
DATE	LABEL	22-6-2017	Date
TIME	LABEL	15:51:31	Time
NOTES	NOTES	3	&Notes...
	supercap test cell
	0.6mg
	6M KOH
PSTAT	PSTAT	IFC5000-01520	Potentiostat
CAPACITY	QUANT	1.00000E-003	Capacity (A-hr)
CELLTYPE	SELECTOR	1	&Cell Type
WORKINGCONNECTION	SELECTOR	0	&Working Lead
MAXDISCHARGETIME	VARIABLEANDUNITS	1.00000E+002	s	1.00000E+002	second(s)	Max &Discharge Time
DISCHARGEMODE	MULTIPARAM	0	6.00000E-003	&Discharge Mode	Constant Current	Amp(s)
SAMPLETIME	QUANT	1.00000E-002	Sa&mple Period (s)
DISCHARGESTOPAT1	MULTIPARAM	3	0.00000E+000	Discharge Stop At &1	Voltage < Limit	V
DISCHARGESTOPAT2	MULTIPARAM	0	0.00000E+000	Discharge Stop At &2	None	N/A
AESBHCSELECTOR	TOGGLE	F	Save Both Half Cells
IRCOMP	TOGGLE	F	IR &Measure
EOC	QUANT	0	Open Circuit (V)
SEQUENCER	TOGGLE	TRUE	Run as Sequence
PSTATMODEL	IQUANT	53	Pstat Model
PSTATSECTION	LABEL	IFC5000-01520	Pstat Section
PSTATSERIALNO	LABEL	01520	Pstat Serial Number
CTRLMODE	IQUANT	0	Control Mode
ELECTROMETER	IQUANT	1	RE=0 or CS=1
IESTAB	IQUANT	0	I/E Stability
CASPEED	IQUANT	4	Control Amp Speed
CONVENTION	IQUANT	1	Current Convention
ICHRANGE	IQUANT	2	Ich Range
ICHRANGEMODE	TOGGLE	T	Ich Auto Range
ICHOFFSETENABLE	TOGGLE	F	Ich Offset Enable
ICHOFFSET	QUANT	0	Ich Offset (V)
ICHFILTER	IQUANT	1	Ich Filter
VCHRANGE	IQUANT	2	Vch Range
VCHRANGEMODE	TOGGLE	T	Vch Auto Range
VCHOFFSETENABLE	TOGGLE	F	Vch Offset Enable
VCHOFFSET	QUANT	0	Vch Offset (V)
VCHFILTER	IQUANT	1	Vch Filter
IERANGELOWERLIMIT	IQUANT	9	I/E Range Lower Limit
IERANGEMODE	TOGGLE	F	I/E AutoRange
IERANGE	IQUANT	10	I/E Range
ACHSELECT	IQUANT	1	Ach Select
ACHRANGE	IQUANT	2	Ach Range
ACHOFFSETENABLE	TOGGLE	F	Ach Offset Enable
ACHOFFSET	QUANT	0	Ach Offset (V)
ACHFILTER	IQUANT	1	Ach Filter
CABLEID	IQUANT	14	Cable ID
DCCALDATE	LABEL	20-10-2016	DC Calibration Date
ACCALDATE	LABEL	12/3/2015	AC Calibration Date
FRAMEWORKVERSION	QUANT	7.01	Framework Version
INSTRUMENTVERSION	LABEL	4.00	Instrument Version
CURVE	TABLE	60
	Pt	T	Vf	Im	Vu	Pwr	Sig	Ach	Temp	IERange	Over
	#	s	V	A	V	W	V	V	deg C	#	bits
	0	0.013333	4.00644E-001	-6.01538E-003	0.00000E+000	-2.41003E-003	-3.59960E-001	-1.08658E+000	3.57710E+000	10	...........
	1	0.026667	3.89719E-001	-6.01044E-003	0.00000E+000	-2.34238E-003	-3.59960E-001	-1.09739E+000	3.57710E+000	10	...........
	2	0.04	3.79571E-001	-6.01371E-003	0.00000E+000	-2.28263E-003	-3.59960E-001	-1.08728E+000	3.57710E+000	10	...........
	3	0.053333	3.69943E-001	-6.01468E-003	0.00000E+000	-2.22509E-003	-3.59960E-001	-1.08708E+000	3.57710E+000	10	...........
	4	0.066667	3.60632E-001	-6.01610E-003	0.00000E+000	-2.16960E-003	-3.59960E-001	-1.09770E+000	3.57710E+000	10	...........
	5	0.08	3.51636E-001	-6.01440E-003	0.00000E+000	-2.11488E-003	-3.59960E-001	-1.08745E+000	3.57710E+000	10	...........
	6	0.093333	3.42856E-001	-6.01338E-003	0.00000E+000	-2.06172E-003	-3.59960E-001	-1.08708E+000	3.57710E+000	10	...........
	7	0.106667	3.34269E-001	-6.01651E-003	0.00000E+000	-2.01113E-003	-3.59960E-001	-1.09787E+000	3.57710E+000	10	...........
	8	0.12	3.25832E-001	-6.01526E-003	0.00000E+000	-1.95996E-003	-3.59960E-001	-1.08816E+000	3.57710E+000	10	...........
	9	0.133333	3.17557E-001	-6.01110E-003	0.00000E+000	-1.90887E-003	-3.59960E-001	-1.08755E+000	3.57710E+000	10	...........
	10	0.146667	3.09398E-001	-6.01530E-003	0.00000E+000	-1.86112E-003	-3.59960E-001	-1.09836E+000	3.57710E+000	10	...........
	11	0.16	3.01344E-001	-6.01406E-003	0.00000E+000	-1.81230E-003	-3.59960E-001	-1.08802E+000	3.57710E+000	10	...........
	12	0.173333	2.93391E-001	-6.01439E-003	0.00000E+000	-1.76457E-003	-3.59960E-001	-1.08770E+000	3.57710E+000	10	...........
	13	0.186667	2.85567E-001	-6.01280E-003	0.00000E+000	-1.71706E-003	-3.59960E-001	-1.09872E+000	3.57710E+000	10	...........
	14	0.2	2.77807E-001	-6.01653E-003	0.00000E+000	-1.67143E-003	-3.59960E-001	-1.08836E+000	3.57710E+000	10	...........
	15	0.213333	2.70144E-001	-6.01422E-003	0.00000E+000	-1.62470E-003	-3.59960E-001	-1.08750E+000	3.57710E+000	10	...........
	16	0.226667	2.62532E-001	-6.01232E-003	0.00000E+000	-1.57842E-003	-3.59960E-001	-1.09825E+000	3.57710E+000	10	...........
	17	0.24	2.55039E-001	-6.01675E-003	0.00000E+000	-1.53451E-003	-3.59960E-001	-1.08821E+000	3.57710E+000	10	...........
	18	0.253333	2.47645E-001	-6.01535E-003	0.00000E+000	-1.48967E-003	-3.59960E-001	-1.08769E+000	3.57710E+000	10	...........
	19	0.266667	2.40367E-001	-6.01385E-003	0.00000E+000	-1.44553E-003	-3.59960E-001	-1.09868E+000	3.57710E+000	10	...........
	20	0.28	2.33156E-001	-6.01362E-003	0.00000E+000	-1.40211E-003	-3.59960E-001	-1.08842E+000	3.57710E+000	10	...........
	21	0.293333	2.26009E-001	-6.01809E-003	0.00000E+000	-1.36015E-003	-3.59960E-001	-1.08776E+000	3.57710E+000	10	...........
	22	0.306667	2.18935E-001	-6.01347E-003	0.00000E+000	-1.31656E-003	-3.59960E-001	-1.09865E+000	3.57710E+000	10	...........
	23	0.32	2.11885E-001	-6.02070E-003	0.00000E+000	-1.27570E-003	-3.59960E-001	-1.08850E+000	3.57710E+000	10	...........
	24	0.333333	2.04971E-001	-6.01573E-003	0.00000E+000	-1.23305E-003	-3.59960E-001	-1.08833E+000	3.57710E+000	10	...........
	25	0.346667	1.98099E-001	-6.01421E-003	0.00000E+000	-1.19141E-003	-3.59960E-001	-1.09905E+000	3.57710E+000	10	...........
	26	0.36	1.91310E-001	-6.01438E-003	0.00000E+000	-1.15061E-003	-3.59960E-001	-1.08850E+000	3.57710E+000	10	...........
	27	0.373333	1.84579E-001	-6.01559E-003	0.00000E+000	-1.11035E-003	-3.59960E-001	-1.08834E+000	3.57710E+000	10	...........
	28	0.386667	1.77934E-001	-6.01601E-003	0.00000E+000	-1.07045E-003	-3.59960E-001	-1.09904E+000	3.57710E+000	10	...........
	29	0.4	1.71317E-001	-6.01484E-003	0.00000E+000	-1.03044E-003	-3.59960E-001	-1.08868E+000	3.57710E+000	10	...........
	30	0.413333	1.64782E-001	-6.01755E-003	0.00000E+000	-9.91583E-004	-3.59960E-001	-1.08851E+000	3.57710E+000	10	...........
	31	0.426667	1.58306E-001	-6.01755E-003	0.00000E+000	-9.52612E-004	-3.59960E-001	-1.09909E+000	3.57710E+000	10	...........
	32	0.44	1.51913E-001	-6.01331E-003	0.00000E+000	-9.13501E-004	-3.59960E-001	-1.08907E+000	3.57710E+000	10	...........
	33	0.453333	1.45592E-001	-6.01856E-003	0.00000E+000	-8.76257E-004	-3.59960E-001	-1.08889E+000	3.57710E+000	10	...........
	34	0.466667	1.39307E-001	-6.01562E-003	0.00000E+000	-8.38017E-004	-3.59960E-001	-1.09952E+000	3.57710E+000	10	...........
	35	0.48	1.33068E-001	-6.01594E-003	0.00000E+000	-8.00530E-004	-3.59960E-001	-1.08900E+000	3.57710E+000	10	...........
	36	0.493333	1.26828E-001	-6.02120E-003	0.00000E+000	-7.63655E-004	-3.59960E-001	-1.08884E+000	3.57710E+000	10	...........
	37	0.506667	1.20736E-001	-6.01466E-003	0.00000E+000	-7.26187E-004	-3.59960E-001	-1.09933E+000	3.57710E+000	10	...........
	38	0.52	1.14716E-001	-6.00858E-003	0.00000E+000	-6.89281E-004	-3.59960E-001	-1.08915E+000	3.57710E+000	10	...........
	39	0.533333	1.08751E-001	-6.01553E-003	0.00000E+000	-6.54192E-004	-3.59960E-001	-1.08874E+000	3.57710E+000	10	...........
	40	0.546667	1.02786E-001	-6.01800E-003	0.00000E+000	-6.18564E-004	-3.59960E-001	-1.09916E+000	3.57710E+000	10	...........
	41	0.56	9.68910E-002	-6.01910E-003	0.00000E+000	-5.83197E-004	-3.59960E-001	-1.08851E+000	3.57710E+000	10	...........
	42	0.573333	9.10357E-002	-6.01657E-003	0.00000E+000	-5.47723E-004	-3.59960E-001	-1.08875E+000	3.57710E+000	10	...........
	43	0.586667	8.52453E-002	-6.01347E-003	0.00000E+000	-5.12620E-004	-3.59960E-001	-1.09945E+000	3.57710E+000	10	...........
	44	0.6	7.95081E-002	-6.01794E-003	0.00000E+000	-4.78474E-004	-3.59960E-001	-1.08913E+000	3.57710E+000	10	...........
	45	0.613333	7.38096E-002	-6.01459E-003	0.00000E+000	-4.43934E-004	-3.59960E-001	-1.08901E+000	3.57710E+000	10	...........
	46	0.626667	6.81690E-002	-6.01893E-003	0.00000E+000	-4.10305E-004	-3.59960E-001	-1.09949E+000	3.57710E+000	10	...........
	47	0.64	6.25706E-002	-6.01719E-003	0.00000E+000	-3.76499E-004	-3.59960E-001	-1.08889E+000	3.57710E+000	10	...........
	48	0.653333	5.70409E-002	-6.01295E-003	0.00000E+000	-3.42984E-004	-3.59960E-001	-1.08917E+000	3.57710E+000	10	...........
	49	0.666667	5.15375E-002	-6.01130E-003	0.00000E+000	-3.09807E-004	-3.59960E-001	-1.09958E+000	3.57710E+000	10	...........
	50	0.68	4.61231E-002	-6.01302E-003	0.00000E+000	-2.77339E-004	-3.59960E-001	-1.08913E+000	3.57710E+000	10	...........
	51	0.693333	4.07017E-002	-6.01499E-003	0.00000E+000	-2.44821E-004	-3.59960E-001	-1.08908E+000	3.57710E+000	10	...........
	52	0.706667	3.53244E-002	-6.01191E-003	0.00000E+000	-2.12367E-004	-3.59960E-001	-1.09955E+000	3.57710E+000	10	...........
	53	0.72	2.99244E-002	-6.01910E-003	0.00000E+000	-1.80118E-004	-3.59960E-001	-1.08922E+000	3.57710E+000	10	...........
	54	0.733333	2.46438E-002	-6.01405E-003	0.00000E+000	-1.48209E-004	-3.59960E-001	-1.08923E+000	3.57710E+000	10	...........
	55	0.746667	1.94071E-002	-6.01540E-003	0.00000E+000	-1.16741E-004	-3.59960E-001	-1.09957E+000	3.57710E+000	10	...........
	56	0.76	1.42094E-002	-6.01341E-003	0.00000E+000	-8.54470E-005	-3.59960E-001	-1.08936E+000	3.57710E+000	10	...........
	57	0.773333	9.04108E-003	-6.01710E-003	0.00000E+000	-5.44011E-005	-3.59960E-001	-1.08944E+000	3.57710E+000	10	...........
	58	0.786667	3.90616E-003	-6.01408E-003	0.00000E+000	-2.34919E-005	-3.59960E-001	-1.09992E+000	3.57710E+000	10	...........
	59	0.791667	3.90749E-004	-6.01353E-003	0.00000E+000	-2.34978E-006	-3.59960E-001	-1.07877E+000	3.57710E+000	10	...........
STARTTIMEOFFSET	QUANT	684.385	Start Time Offset (s)
