EXPLAIN
TAG	PWR800_DISCHARGE
TITLE	LABEL	PWR Cyclic Charge Discharge (Cell) - Discharge Step	Test &Identifier
DATE	LABEL	22-6-2017	Date
TIME	LABEL	15:56:36	Time
NOTES	NOTES	3	&Notes...
	supercap test cell
	0.6mg
	6M KOH
PSTAT	PSTAT	IFC5000-01520	Potentiostat
CAPACITY	QUANT	1.00000E-003	Capacity (A-hr)
CELLTYPE	SELECTOR	1	&Cell Type
WORKINGCONNECTION	SELECTOR	0	&Working Lead
MAXDISCHARGETIME	VARIABLEANDUNITS	1.00000E+002	s	1.00000E+002	second(s)	Max &Discharge Time
DISCHARGEMODE	MULTIPARAM	0	6.00000E-003	&Discharge Mode	Constant Current	Amp(s)
SAMPLETIME	QUANT	1.00000E-002	Sa&mple Period (s)
DISCHARGESTOPAT1	MULTIPARAM	3	0.00000E+000	Discharge Stop At &1	Voltage < Limit	V
DISCHARGESTOPAT2	MULTIPARAM	0	0.00000E+000	Discharge Stop At &2	None	N/A
AESBHCSELECTOR	TOGGLE	F	Save Both Half Cells
IRCOMP	TOGGLE	F	IR &Measure
EOC	QUANT	0	Open Circuit (V)
SEQUENCER	TOGGLE	TRUE	Run as Sequence
PSTATMODEL	IQUANT	53	Pstat Model
PSTATSECTION	LABEL	IFC5000-01520	Pstat Section
PSTATSERIALNO	LABEL	01520	Pstat Serial Number
CTRLMODE	IQUANT	0	Control Mode
ELECTROMETER	IQUANT	1	RE=0 or CS=1
IESTAB	IQUANT	0	I/E Stability
CASPEED	IQUANT	4	Control Amp Speed
CONVENTION	IQUANT	1	Current Convention
ICHRANGE	IQUANT	2	Ich Range
ICHRANGEMODE	TOGGLE	T	Ich Auto Range
ICHOFFSETENABLE	TOGGLE	F	Ich Offset Enable
ICHOFFSET	QUANT	0	Ich Offset (V)
ICHFILTER	IQUANT	1	Ich Filter
VCHRANGE	IQUANT	2	Vch Range
VCHRANGEMODE	TOGGLE	T	Vch Auto Range
VCHOFFSETENABLE	TOGGLE	F	Vch Offset Enable
VCHOFFSET	QUANT	0	Vch Offset (V)
VCHFILTER	IQUANT	1	Vch Filter
IERANGELOWERLIMIT	IQUANT	9	I/E Range Lower Limit
IERANGEMODE	TOGGLE	F	I/E AutoRange
IERANGE	IQUANT	10	I/E Range
ACHSELECT	IQUANT	1	Ach Select
ACHRANGE	IQUANT	2	Ach Range
ACHOFFSETENABLE	TOGGLE	F	Ach Offset Enable
ACHOFFSET	QUANT	0	Ach Offset (V)
ACHFILTER	IQUANT	1	Ach Filter
CABLEID	IQUANT	14	Cable ID
DCCALDATE	LABEL	20-10-2016	DC Calibration Date
ACCALDATE	LABEL	12/3/2015	AC Calibration Date
FRAMEWORKVERSION	QUANT	7.01	Framework Version
INSTRUMENTVERSION	LABEL	4.00	Instrument Version
CURVE	TABLE	58
	Pt	T	Vf	Im	Vu	Pwr	Sig	Ach	Temp	IERange	Over
	#	s	V	A	V	W	V	V	deg C	#	bits
	0	0.013333	3.94566E-001	-6.01412E-003	0.00000E+000	-2.37297E-003	-3.59960E-001	-1.07919E+000	3.57730E+000	10	...........
	1	0.026667	3.83411E-001	-6.01757E-003	0.00000E+000	-2.30720E-003	-3.59960E-001	-1.07234E+000	3.57730E+000	10	...........
	2	0.04	3.73073E-001	-6.01446E-003	0.00000E+000	-2.24383E-003	-3.59960E-001	-1.07949E+000	3.57730E+000	10	...........
	3	0.053333	3.63279E-001	-6.01107E-003	0.00000E+000	-2.18370E-003	-3.59960E-001	-1.07897E+000	3.57730E+000	10	...........
	4	0.066667	3.53864E-001	-6.00939E-003	0.00000E+000	-2.12651E-003	-3.59960E-001	-1.07157E+000	3.57730E+000	10	...........
	5	0.08	3.44690E-001	-6.01703E-003	0.00000E+000	-2.07401E-003	-3.59960E-001	-1.07890E+000	3.57730E+000	10	...........
	6	0.093333	3.35762E-001	-6.01372E-003	0.00000E+000	-2.01918E-003	-3.59960E-001	-1.07882E+000	3.57730E+000	10	...........
	7	0.106667	3.26974E-001	-6.01311E-003	0.00000E+000	-1.96613E-003	-3.59960E-001	-1.07196E+000	3.57730E+000	10	...........
	8	0.12	3.18339E-001	-6.01722E-003	0.00000E+000	-1.91552E-003	-3.59960E-001	-1.07921E+000	3.57730E+000	10	...........
	9	0.133333	3.09902E-001	-6.01798E-003	0.00000E+000	-1.86498E-003	-3.59960E-001	-1.07868E+000	3.57730E+000	10	...........
	10	0.146667	3.01586E-001	-6.01796E-003	0.00000E+000	-1.81493E-003	-3.59960E-001	-1.07166E+000	3.57730E+000	10	...........
	11	0.16	2.93369E-001	-6.01233E-003	0.00000E+000	-1.76383E-003	-3.59960E-001	-1.07915E+000	3.57730E+000	10	...........
	12	0.173333	2.85285E-001	-6.01783E-003	0.00000E+000	-1.71680E-003	-3.59960E-001	-1.07910E+000	3.57730E+000	10	...........
	13	0.186667	2.77285E-001	-6.01077E-003	0.00000E+000	-1.66669E-003	-3.59960E-001	-1.07183E+000	3.57730E+000	10	...........
	14	0.2	2.69379E-001	-6.01589E-003	0.00000E+000	-1.62055E-003	-3.59960E-001	-1.07921E+000	3.57730E+000	10	...........
	15	0.213333	2.61580E-001	-6.01104E-003	0.00000E+000	-1.57237E-003	-3.59960E-001	-1.07926E+000	3.57730E+000	10	...........
	16	0.226667	2.53908E-001	-6.01650E-003	0.00000E+000	-1.52763E-003	-3.59960E-001	-1.07283E+000	3.57730E+000	10	...........
	17	0.24	2.46257E-001	-6.01638E-003	0.00000E+000	-1.48158E-003	-3.59960E-001	-1.08086E+000	3.57730E+000	10	...........
	18	0.253333	2.38715E-001	-6.01525E-003	0.00000E+000	-1.43593E-003	-3.59960E-001	-1.08047E+000	3.57730E+000	10	...........
	19	0.266667	2.31275E-001	-6.01665E-003	0.00000E+000	-1.39150E-003	-3.59960E-001	-1.07382E+000	3.57730E+000	10	...........
	20	0.28	2.23911E-001	-6.01513E-003	0.00000E+000	-1.34686E-003	-3.59960E-001	-1.08145E+000	3.57730E+000	10	...........
	21	0.293333	2.16629E-001	-6.01624E-003	0.00000E+000	-1.30329E-003	-3.59960E-001	-1.08148E+000	3.57730E+000	10	...........
	22	0.306667	2.09458E-001	-6.01426E-003	0.00000E+000	-1.25974E-003	-3.59960E-001	-1.07505E+000	3.57730E+000	10	...........
	23	0.32	2.02330E-001	-6.01616E-003	0.00000E+000	-1.21725E-003	-3.59960E-001	-1.08253E+000	3.57730E+000	10	...........
	24	0.333333	1.95339E-001	-6.01453E-003	0.00000E+000	-1.17487E-003	-3.59960E-001	-1.08200E+000	3.57730E+000	10	...........
	25	0.346667	1.88409E-001	-6.01557E-003	0.00000E+000	-1.13339E-003	-3.59960E-001	-1.07557E+000	3.57730E+000	10	...........
	26	0.36	1.81509E-001	-6.01562E-003	0.00000E+000	-1.09189E-003	-3.59960E-001	-1.08333E+000	3.57730E+000	10	...........
	27	0.373333	1.74709E-001	-6.01593E-003	0.00000E+000	-1.05104E-003	-3.59960E-001	-1.08312E+000	3.57730E+000	10	...........
	28	0.386667	1.67992E-001	-6.01624E-003	0.00000E+000	-1.01068E-003	-3.59960E-001	-1.07680E+000	3.57730E+000	10	...........
	29	0.4	1.61288E-001	-6.01699E-003	0.00000E+000	-9.70467E-004	-3.59960E-001	-1.08448E+000	3.57730E+000	10	...........
	30	0.413333	1.54696E-001	-6.01631E-003	0.00000E+000	-9.30697E-004	-3.59960E-001	-1.08381E+000	3.57730E+000	10	...........
	31	0.426667	1.48168E-001	-6.01469E-003	0.00000E+000	-8.91185E-004	-3.59960E-001	-1.07689E+000	3.57730E+000	10	...........
	32	0.44	1.41700E-001	-6.01873E-003	0.00000E+000	-8.52856E-004	-3.59960E-001	-1.08496E+000	3.57730E+000	10	...........
	33	0.453333	1.35290E-001	-6.01481E-003	0.00000E+000	-8.13745E-004	-3.59960E-001	-1.08449E+000	3.57730E+000	10	...........
	34	0.466667	1.28919E-001	-6.01935E-003	0.00000E+000	-7.76011E-004	-3.59960E-001	-1.07802E+000	3.57730E+000	10	...........
	35	0.48	1.22652E-001	-6.01765E-003	0.00000E+000	-7.38077E-004	-3.59960E-001	-1.08592E+000	3.57730E+000	10	...........
	36	0.493333	1.16423E-001	-6.01771E-003	0.00000E+000	-7.00601E-004	-3.59960E-001	-1.08539E+000	3.57730E+000	10	...........
	37	0.506667	1.10277E-001	-6.01387E-003	0.00000E+000	-6.63189E-004	-3.59960E-001	-1.07888E+000	3.57730E+000	10	...........
	38	0.52	1.04175E-001	-6.01547E-003	0.00000E+000	-6.26662E-004	-3.59960E-001	-1.08687E+000	3.57730E+000	10	...........
	39	0.533333	9.80782E-002	-6.01343E-003	0.00000E+000	-5.89786E-004	-3.59960E-001	-1.08617E+000	3.57730E+000	10	...........
	40	0.546667	9.20892E-002	-6.01317E-003	0.00000E+000	-5.53748E-004	-3.59960E-001	-1.07989E+000	3.57730E+000	10	...........
	41	0.56	8.61871E-002	-6.01249E-003	0.00000E+000	-5.18199E-004	-3.59960E-001	-1.08811E+000	3.57730E+000	10	...........
	42	0.573333	8.03018E-002	-6.01647E-003	0.00000E+000	-4.83133E-004	-3.59960E-001	-1.08722E+000	3.57730E+000	10	...........
	43	0.586667	7.44815E-002	-6.01708E-003	0.00000E+000	-4.48162E-004	-3.59960E-001	-1.08083E+000	3.57730E+000	10	...........
	44	0.6	6.87114E-002	-6.01340E-003	0.00000E+000	-4.13189E-004	-3.59960E-001	-1.08901E+000	3.57730E+000	10	...........
	45	0.613333	6.29912E-002	-6.01311E-003	0.00000E+000	-3.78773E-004	-3.59960E-001	-1.08824E+000	3.57730E+000	10	...........
	46	0.626667	5.73127E-002	-6.01788E-003	0.00000E+000	-3.44901E-004	-3.59960E-001	-1.08210E+000	3.57730E+000	10	...........
	47	0.64	5.16731E-002	-6.01373E-003	0.00000E+000	-3.10748E-004	-3.59960E-001	-1.09028E+000	3.57730E+000	10	...........
	48	0.653333	4.61019E-002	-6.01357E-003	0.00000E+000	-2.77237E-004	-3.59960E-001	-1.08932E+000	3.57730E+000	10	...........
	49	0.666667	4.05815E-002	-6.01571E-003	0.00000E+000	-2.44127E-004	-3.59960E-001	-1.08310E+000	3.57730E+000	10	...........
	50	0.68	3.51133E-002	-6.01525E-003	0.00000E+000	-2.11215E-004	-3.59960E-001	-1.09115E+000	3.57730E+000	10	...........
	51	0.693333	2.97037E-002	-6.01386E-003	0.00000E+000	-1.78634E-004	-3.59960E-001	-1.09008E+000	3.57730E+000	10	...........
	52	0.706667	2.43276E-002	-6.01733E-003	0.00000E+000	-1.46387E-004	-3.59960E-001	-1.08405E+000	3.57730E+000	10	...........
	53	0.72	1.89720E-002	-6.01321E-003	0.00000E+000	-1.14083E-004	-3.59960E-001	-1.09200E+000	3.57730E+000	10	...........
	54	0.733333	1.36565E-002	-6.01681E-003	0.00000E+000	-8.21685E-005	-3.59960E-001	-1.09104E+000	3.57730E+000	10	...........
	55	0.746667	8.41563E-003	-6.00900E-003	0.00000E+000	-5.05695E-005	-3.59960E-001	-1.08467E+000	3.57730E+000	10	...........
	56	0.76	3.19690E-003	-6.01753E-003	0.00000E+000	-1.92375E-005	-3.59960E-001	-1.09276E+000	3.57730E+000	10	...........
	57	0.763333	7.47666E-006	-6.00636E-003	0.00000E+000	-4.49075E-008	-3.59960E-001	-1.07475E+000	3.57730E+000	10	...........
STARTTIMEOFFSET	QUANT	885.9135	Start Time Offset (s)
