EXPLAIN
TAG	PWR800_DISCHARGE
TITLE	LABEL	PWR Cyclic Charge Discharge (Cell) - Discharge Step	Test &Identifier
DATE	LABEL	22-6-2017	Date
TIME	LABEL	15:51:09	Time
NOTES	NOTES	3	&Notes...
	supercap test cell
	0.6mg
	6M KOH
PSTAT	PSTAT	IFC5000-01520	Potentiostat
CAPACITY	QUANT	1.00000E-003	Capacity (A-hr)
CELLTYPE	SELECTOR	1	&Cell Type
WORKINGCONNECTION	SELECTOR	0	&Working Lead
MAXDISCHARGETIME	VARIABLEANDUNITS	1.00000E+002	s	1.00000E+002	second(s)	Max &Discharge Time
DISCHARGEMODE	MULTIPARAM	0	6.00000E-003	&Discharge Mode	Constant Current	Amp(s)
SAMPLETIME	QUANT	1.00000E-002	Sa&mple Period (s)
DISCHARGESTOPAT1	MULTIPARAM	3	0.00000E+000	Discharge Stop At &1	Voltage < Limit	V
DISCHARGESTOPAT2	MULTIPARAM	0	0.00000E+000	Discharge Stop At &2	None	N/A
AESBHCSELECTOR	TOGGLE	F	Save Both Half Cells
IRCOMP	TOGGLE	F	IR &Measure
EOC	QUANT	0	Open Circuit (V)
SEQUENCER	TOGGLE	TRUE	Run as Sequence
PSTATMODEL	IQUANT	53	Pstat Model
PSTATSECTION	LABEL	IFC5000-01520	Pstat Section
PSTATSERIALNO	LABEL	01520	Pstat Serial Number
CTRLMODE	IQUANT	0	Control Mode
ELECTROMETER	IQUANT	1	RE=0 or CS=1
IESTAB	IQUANT	0	I/E Stability
CASPEED	IQUANT	4	Control Amp Speed
CONVENTION	IQUANT	1	Current Convention
ICHRANGE	IQUANT	2	Ich Range
ICHRANGEMODE	TOGGLE	T	Ich Auto Range
ICHOFFSETENABLE	TOGGLE	F	Ich Offset Enable
ICHOFFSET	QUANT	0	Ich Offset (V)
ICHFILTER	IQUANT	1	Ich Filter
VCHRANGE	IQUANT	2	Vch Range
VCHRANGEMODE	TOGGLE	T	Vch Auto Range
VCHOFFSETENABLE	TOGGLE	F	Vch Offset Enable
VCHOFFSET	QUANT	0	Vch Offset (V)
VCHFILTER	IQUANT	1	Vch Filter
IERANGELOWERLIMIT	IQUANT	9	I/E Range Lower Limit
IERANGEMODE	TOGGLE	F	I/E AutoRange
IERANGE	IQUANT	10	I/E Range
ACHSELECT	IQUANT	1	Ach Select
ACHRANGE	IQUANT	2	Ach Range
ACHOFFSETENABLE	TOGGLE	F	Ach Offset Enable
ACHOFFSET	QUANT	0	Ach Offset (V)
ACHFILTER	IQUANT	1	Ach Filter
CABLEID	IQUANT	14	Cable ID
DCCALDATE	LABEL	20-10-2016	DC Calibration Date
ACCALDATE	LABEL	12/3/2015	AC Calibration Date
FRAMEWORKVERSION	QUANT	7.01	Framework Version
INSTRUMENTVERSION	LABEL	4.00	Instrument Version
CURVE	TABLE	60
	Pt	T	Vf	Im	Vu	Pwr	Sig	Ach	Temp	IERange	Over
	#	s	V	A	V	W	V	V	deg C	#	bits
	0	0.013333	4.01315E-001	-6.01259E-003	0.00000E+000	-2.41294E-003	-3.59960E-001	-1.09439E+000	3.57800E+000	10	...........
	1	0.026667	3.90413E-001	-6.01501E-003	0.00000E+000	-2.34834E-003	-3.59960E-001	-1.08817E+000	3.57800E+000	10	...........
	2	0.04	3.80279E-001	-6.01099E-003	0.00000E+000	-2.28585E-003	-3.59960E-001	-1.08390E+000	3.57800E+000	10	...........
	3	0.053333	3.70685E-001	-6.01506E-003	0.00000E+000	-2.22969E-003	-3.59960E-001	-1.09468E+000	3.57800E+000	10	...........
	4	0.066667	3.61392E-001	-6.02082E-003	0.00000E+000	-2.17588E-003	-3.59960E-001	-1.08837E+000	3.57800E+000	10	...........
	5	0.08	3.52412E-001	-6.01484E-003	0.00000E+000	-2.11970E-003	-3.59960E-001	-1.08414E+000	3.57800E+000	10	...........
	6	0.093333	3.43638E-001	-6.01788E-003	0.00000E+000	-2.06797E-003	-3.59960E-001	-1.09482E+000	3.57800E+000	10	...........
	7	0.106667	3.35063E-001	-6.01487E-003	0.00000E+000	-2.01536E-003	-3.59960E-001	-1.08861E+000	3.57800E+000	10	...........
	8	0.12	3.26663E-001	-6.01462E-003	0.00000E+000	-1.96476E-003	-3.59960E-001	-1.08441E+000	3.57800E+000	10	...........
	9	0.133333	3.18402E-001	-6.01709E-003	0.00000E+000	-1.91586E-003	-3.59960E-001	-1.09503E+000	3.57800E+000	10	...........
	10	0.146667	3.10246E-001	-6.01422E-003	0.00000E+000	-1.86589E-003	-3.59960E-001	-1.08884E+000	3.57800E+000	10	...........
	11	0.16	3.02187E-001	-6.01488E-003	0.00000E+000	-1.81762E-003	-3.59960E-001	-1.08444E+000	3.57800E+000	10	...........
	12	0.173333	2.94208E-001	-6.01171E-003	0.00000E+000	-1.76869E-003	-3.59960E-001	-1.09518E+000	3.57800E+000	10	...........
	13	0.186667	2.86404E-001	-6.01299E-003	0.00000E+000	-1.72215E-003	-3.59960E-001	-1.08942E+000	3.57800E+000	10	...........
	14	0.2	2.78644E-001	-6.01323E-003	0.00000E+000	-1.67555E-003	-3.59960E-001	-1.08493E+000	3.57800E+000	10	...........
	15	0.213333	2.70933E-001	-6.01321E-003	0.00000E+000	-1.62917E-003	-3.59960E-001	-1.09530E+000	3.57800E+000	10	...........
	16	0.226667	2.63376E-001	-6.01446E-003	0.00000E+000	-1.58406E-003	-3.59960E-001	-1.08949E+000	3.57800E+000	10	...........
	17	0.24	2.55941E-001	-6.01469E-003	0.00000E+000	-1.53941E-003	-3.59960E-001	-1.08511E+000	3.57800E+000	10	...........
	18	0.253333	2.48569E-001	-6.01613E-003	0.00000E+000	-1.49542E-003	-3.59960E-001	-1.09531E+000	3.57800E+000	10	...........
	19	0.266667	2.41264E-001	-6.01065E-003	0.00000E+000	-1.45015E-003	-3.59960E-001	-1.08947E+000	3.57800E+000	10	...........
	20	0.28	2.34026E-001	-6.01516E-003	0.00000E+000	-1.40770E-003	-3.59960E-001	-1.08485E+000	3.57800E+000	10	...........
	21	0.293333	2.26913E-001	-6.01572E-003	0.00000E+000	-1.36505E-003	-3.59960E-001	-1.09546E+000	3.57800E+000	10	...........
	22	0.306667	2.19835E-001	-6.00959E-003	0.00000E+000	-1.32112E-003	-3.59960E-001	-1.08977E+000	3.57800E+000	10	...........
	23	0.32	2.12818E-001	-6.01649E-003	0.00000E+000	-1.28042E-003	-3.59960E-001	-1.08507E+000	3.57800E+000	10	...........
	24	0.333333	2.05925E-001	-6.01444E-003	0.00000E+000	-1.23852E-003	-3.59960E-001	-1.09572E+000	3.57800E+000	10	...........
	25	0.346667	1.99047E-001	-6.01301E-003	0.00000E+000	-1.19687E-003	-3.59960E-001	-1.08991E+000	3.57800E+000	10	...........
	26	0.36	1.92265E-001	-6.01364E-003	0.00000E+000	-1.15621E-003	-3.59960E-001	-1.08523E+000	3.57800E+000	10	...........
	27	0.373333	1.85523E-001	-6.01386E-003	0.00000E+000	-1.11571E-003	-3.59960E-001	-1.09583E+000	3.57800E+000	10	...........
	28	0.386667	1.78876E-001	-6.01683E-003	0.00000E+000	-1.07627E-003	-3.59960E-001	-1.09041E+000	3.57800E+000	10	...........
	29	0.4	1.72288E-001	-6.01618E-003	0.00000E+000	-1.03652E-003	-3.59960E-001	-1.08557E+000	3.57800E+000	10	...........
	30	0.413333	1.65765E-001	-6.01528E-003	0.00000E+000	-9.97125E-004	-3.59960E-001	-1.09583E+000	3.57800E+000	10	...........
	31	0.426667	1.59299E-001	-6.01277E-003	0.00000E+000	-9.57830E-004	-3.59960E-001	-1.09018E+000	3.57800E+000	10	...........
	32	0.44	1.52908E-001	-6.01641E-003	0.00000E+000	-9.19959E-004	-3.59960E-001	-1.08559E+000	3.57800E+000	10	...........
	33	0.453333	1.46563E-001	-6.01351E-003	0.00000E+000	-8.81357E-004	-3.59960E-001	-1.09612E+000	3.57800E+000	10	...........
	34	0.466667	1.40271E-001	-6.01418E-003	0.00000E+000	-8.43618E-004	-3.59960E-001	-1.09049E+000	3.57800E+000	10	...........
	35	0.48	1.34017E-001	-6.01479E-003	0.00000E+000	-8.06085E-004	-3.59960E-001	-1.08568E+000	3.57800E+000	10	...........
	36	0.493333	1.27793E-001	-6.01337E-003	0.00000E+000	-7.68467E-004	-3.59960E-001	-1.09620E+000	3.57687E+000	10	...........
	37	0.506667	1.21710E-001	-6.01333E-003	0.00000E+000	-7.31879E-004	-3.59960E-001	-1.09096E+000	3.57650E+000	10	...........
	38	0.52	1.15669E-001	-6.01377E-003	0.00000E+000	-6.95608E-004	-3.59960E-001	-1.08609E+000	3.57650E+000	10	...........
	39	0.533333	1.09696E-001	-6.01738E-003	0.00000E+000	-6.60085E-004	-3.59960E-001	-1.09631E+000	3.57650E+000	10	...........
	40	0.546667	1.03741E-001	-6.01491E-003	0.00000E+000	-6.23991E-004	-3.59960E-001	-1.09086E+000	3.57650E+000	10	...........
	41	0.56	9.78573E-002	-6.01141E-003	0.00000E+000	-5.88260E-004	-3.59960E-001	-1.08617E+000	3.57650E+000	10	...........
	42	0.573333	9.19700E-002	-6.01062E-003	0.00000E+000	-5.52797E-004	-3.59960E-001	-1.09627E+000	3.57650E+000	10	...........
	43	0.586667	8.61846E-002	-6.01878E-003	0.00000E+000	-5.18726E-004	-3.59960E-001	-1.09107E+000	3.57650E+000	10	...........
	44	0.6	8.04504E-002	-6.01471E-003	0.00000E+000	-4.83886E-004	-3.59960E-001	-1.08592E+000	3.57650E+000	10	...........
	45	0.613333	7.47954E-002	-6.01053E-003	0.00000E+000	-4.49560E-004	-3.59960E-001	-1.09586E+000	3.57650E+000	10	...........
	46	0.626667	6.91557E-002	-6.01227E-003	0.00000E+000	-4.15783E-004	-3.59960E-001	-1.09095E+000	3.57650E+000	10	...........
	47	0.64	6.35737E-002	-6.01086E-003	0.00000E+000	-3.82133E-004	-3.59960E-001	-1.08592E+000	3.57650E+000	10	...........
	48	0.653333	5.79958E-002	-6.01168E-003	0.00000E+000	-3.48652E-004	-3.59960E-001	-1.09626E+000	3.57650E+000	10	...........
	49	0.666667	5.24926E-002	-6.01683E-003	0.00000E+000	-3.15839E-004	-3.59960E-001	-1.09098E+000	3.57650E+000	10	...........
	50	0.68	4.70575E-002	-6.01733E-003	0.00000E+000	-2.83161E-004	-3.59960E-001	-1.08563E+000	3.57650E+000	10	...........
	51	0.693333	4.16743E-002	-6.01415E-003	0.00000E+000	-2.50635E-004	-3.59960E-001	-1.09588E+000	3.57650E+000	10	...........
	52	0.706667	3.63108E-002	-6.01097E-003	0.00000E+000	-2.18263E-004	-3.59960E-001	-1.09113E+000	3.57650E+000	10	...........
	53	0.72	3.09354E-002	-6.01706E-003	0.00000E+000	-1.86140E-004	-3.59960E-001	-1.08625E+000	3.57650E+000	10	...........
	54	0.733333	2.56929E-002	-6.01988E-003	0.00000E+000	-1.54668E-004	-3.59960E-001	-1.09602E+000	3.57650E+000	10	...........
	55	0.746667	2.04488E-002	-6.01111E-003	0.00000E+000	-1.22920E-004	-3.59960E-001	-1.09099E+000	3.57650E+000	10	...........
	56	0.76	1.52134E-002	-6.01564E-003	0.00000E+000	-9.15185E-005	-3.59960E-001	-1.08592E+000	3.57650E+000	10	...........
	57	0.773333	1.00746E-002	-6.01462E-003	0.00000E+000	-6.05948E-005	-3.59960E-001	-1.09602E+000	3.57650E+000	10	...........
	58	0.786667	4.96039E-003	-6.01428E-003	0.00000E+000	-2.98331E-005	-3.59960E-001	-1.09131E+000	3.57650E+000	10	...........
	59	0.795	8.16078E-004	-6.01787E-003	0.00000E+000	-4.91105E-006	-3.59960E-001	-1.08749E+000	3.57650E+000	10	...........
STARTTIMEOFFSET	QUANT	670.0415	Start Time Offset (s)
