EXPLAIN
TAG	PWR800_DISCHARGE
TITLE	LABEL	PWR Cyclic Charge Discharge (Cell) - Discharge Step	Test &Identifier
DATE	LABEL	22-6-2017	Date
TIME	LABEL	16:01:09	Time
NOTES	NOTES	3	&Notes...
	supercap test cell
	0.6mg
	6M KOH
PSTAT	PSTAT	IFC5000-01520	Potentiostat
CAPACITY	QUANT	1.00000E-003	Capacity (A-hr)
CELLTYPE	SELECTOR	1	&Cell Type
WORKINGCONNECTION	SELECTOR	0	&Working Lead
MAXDISCHARGETIME	VARIABLEANDUNITS	1.00000E+002	s	1.00000E+002	second(s)	Max &Discharge Time
DISCHARGEMODE	MULTIPARAM	0	6.00000E-003	&Discharge Mode	Constant Current	Amp(s)
SAMPLETIME	QUANT	1.00000E-002	Sa&mple Period (s)
DISCHARGESTOPAT1	MULTIPARAM	3	0.00000E+000	Discharge Stop At &1	Voltage < Limit	V
DISCHARGESTOPAT2	MULTIPARAM	0	0.00000E+000	Discharge Stop At &2	None	N/A
AESBHCSELECTOR	TOGGLE	F	Save Both Half Cells
IRCOMP	TOGGLE	F	IR &Measure
EOC	QUANT	0	Open Circuit (V)
SEQUENCER	TOGGLE	TRUE	Run as Sequence
PSTATMODEL	IQUANT	53	Pstat Model
PSTATSECTION	LABEL	IFC5000-01520	Pstat Section
PSTATSERIALNO	LABEL	01520	Pstat Serial Number
CTRLMODE	IQUANT	0	Control Mode
ELECTROMETER	IQUANT	1	RE=0 or CS=1
IESTAB	IQUANT	0	I/E Stability
CASPEED	IQUANT	4	Control Amp Speed
CONVENTION	IQUANT	1	Current Convention
ICHRANGE	IQUANT	2	Ich Range
ICHRANGEMODE	TOGGLE	T	Ich Auto Range
ICHOFFSETENABLE	TOGGLE	F	Ich Offset Enable
ICHOFFSET	QUANT	0	Ich Offset (V)
ICHFILTER	IQUANT	1	Ich Filter
VCHRANGE	IQUANT	2	Vch Range
VCHRANGEMODE	TOGGLE	T	Vch Auto Range
VCHOFFSETENABLE	TOGGLE	F	Vch Offset Enable
VCHOFFSET	QUANT	0	Vch Offset (V)
VCHFILTER	IQUANT	1	Vch Filter
IERANGELOWERLIMIT	IQUANT	9	I/E Range Lower Limit
IERANGEMODE	TOGGLE	F	I/E AutoRange
IERANGE	IQUANT	10	I/E Range
ACHSELECT	IQUANT	1	Ach Select
ACHRANGE	IQUANT	2	Ach Range
ACHOFFSETENABLE	TOGGLE	F	Ach Offset Enable
ACHOFFSET	QUANT	0	Ach Offset (V)
ACHFILTER	IQUANT	1	Ach Filter
CABLEID	IQUANT	14	Cable ID
DCCALDATE	LABEL	20-10-2016	DC Calibration Date
ACCALDATE	LABEL	12/3/2015	AC Calibration Date
FRAMEWORKVERSION	QUANT	7.01	Framework Version
INSTRUMENTVERSION	LABEL	4.00	Instrument Version
CURVE	TABLE	56
	Pt	T	Vf	Im	Vu	Pwr	Sig	Ach	Temp	IERange	Over
	#	s	V	A	V	W	V	V	deg C	#	bits
	0	0.013333	3.88431E-001	-6.01525E-003	0.00000E+000	-2.33651E-003	-3.59960E-001	-1.11316E+000	3.57780E+000	10	...........
	1	0.026667	3.77163E-001	-6.01107E-003	0.00000E+000	-2.26715E-003	-3.59960E-001	-1.11715E+000	3.57780E+000	10	...........
	2	0.04	3.66709E-001	-6.01561E-003	0.00000E+000	-2.20598E-003	-3.59960E-001	-1.12243E+000	3.57780E+000	10	...........
	3	0.053333	3.56801E-001	-6.01436E-003	0.00000E+000	-2.14593E-003	-3.59960E-001	-1.11318E+000	3.57780E+000	10	...........
	4	0.066667	3.47246E-001	-6.01470E-003	0.00000E+000	-2.08858E-003	-3.59960E-001	-1.11751E+000	3.57780E+000	10	...........
	5	0.08	3.37960E-001	-6.01536E-003	0.00000E+000	-2.03295E-003	-3.59960E-001	-1.12298E+000	3.57780E+000	10	...........
	6	0.093333	3.28876E-001	-6.01367E-003	0.00000E+000	-1.97775E-003	-3.59960E-001	-1.11352E+000	3.57780E+000	10	...........
	7	0.106667	3.20015E-001	-6.01726E-003	0.00000E+000	-1.92561E-003	-3.59960E-001	-1.11756E+000	3.57780E+000	10	...........
	8	0.12	3.11303E-001	-6.01664E-003	0.00000E+000	-1.87300E-003	-3.59960E-001	-1.12299E+000	3.57780E+000	10	...........
	9	0.133333	3.02724E-001	-6.01194E-003	0.00000E+000	-1.81996E-003	-3.59960E-001	-1.11388E+000	3.57780E+000	10	...........
	10	0.146667	2.94272E-001	-6.01649E-003	0.00000E+000	-1.77048E-003	-3.59960E-001	-1.11810E+000	3.57780E+000	10	...........
	11	0.16	2.85962E-001	-6.01759E-003	0.00000E+000	-1.72080E-003	-3.59960E-001	-1.12317E+000	3.57780E+000	10	...........
	12	0.173333	2.77792E-001	-6.01323E-003	0.00000E+000	-1.67043E-003	-3.59960E-001	-1.11371E+000	3.57780E+000	10	...........
	13	0.186667	2.69702E-001	-6.01254E-003	0.00000E+000	-1.62160E-003	-3.59960E-001	-1.11814E+000	3.57780E+000	10	...........
	14	0.2	2.61733E-001	-6.02018E-003	0.00000E+000	-1.57568E-003	-3.59960E-001	-1.12344E+000	3.57780E+000	10	...........
	15	0.213333	2.53863E-001	-6.01346E-003	0.00000E+000	-1.52659E-003	-3.59960E-001	-1.11432E+000	3.57780E+000	10	...........
	16	0.226667	2.46094E-001	-6.02085E-003	0.00000E+000	-1.48169E-003	-3.59960E-001	-1.11846E+000	3.57780E+000	10	...........
	17	0.24	2.38419E-001	-6.01110E-003	0.00000E+000	-1.43316E-003	-3.59960E-001	-1.12361E+000	3.57780E+000	10	...........
	18	0.253333	2.30832E-001	-6.01501E-003	0.00000E+000	-1.38845E-003	-3.59960E-001	-1.11423E+000	3.57780E+000	10	...........
	19	0.266667	2.23334E-001	-6.01292E-003	0.00000E+000	-1.34289E-003	-3.59960E-001	-1.11871E+000	3.57780E+000	10	...........
	20	0.28	2.15916E-001	-6.01445E-003	0.00000E+000	-1.29862E-003	-3.59960E-001	-1.12392E+000	3.57780E+000	10	...........
	21	0.293333	2.08593E-001	-6.01306E-003	0.00000E+000	-1.25428E-003	-3.59960E-001	-1.11442E+000	3.57780E+000	10	...........
	22	0.306667	2.01310E-001	-6.01828E-003	0.00000E+000	-1.21154E-003	-3.59960E-001	-1.11820E+000	3.57780E+000	10	...........
	23	0.32	1.94129E-001	-6.01820E-003	0.00000E+000	-1.16831E-003	-3.59960E-001	-1.12369E+000	3.57780E+000	10	...........
	24	0.333333	1.87056E-001	-6.01004E-003	0.00000E+000	-1.12421E-003	-3.59960E-001	-1.11459E+000	3.57780E+000	10	...........
	25	0.346667	1.80030E-001	-6.00661E-003	0.00000E+000	-1.08137E-003	-3.59960E-001	-1.11849E+000	3.57780E+000	10	...........
	26	0.36	1.73082E-001	-6.01337E-003	0.00000E+000	-1.04081E-003	-3.59960E-001	-1.12376E+000	3.57780E+000	10	...........
	27	0.373333	1.66231E-001	-6.02212E-003	0.00000E+000	-1.00106E-003	-3.59960E-001	-1.11444E+000	3.57780E+000	10	...........
	28	0.386667	1.59420E-001	-6.01527E-003	0.00000E+000	-9.58956E-004	-3.59960E-001	-1.11862E+000	3.57780E+000	10	...........
	29	0.4	1.52713E-001	-6.01755E-003	0.00000E+000	-9.18955E-004	-3.59960E-001	-1.12404E+000	3.57780E+000	10	...........
	30	0.413333	1.46057E-001	-6.01282E-003	0.00000E+000	-8.78215E-004	-3.59960E-001	-1.11463E+000	3.57780E+000	10	...........
	31	0.426667	1.39446E-001	-6.01878E-003	0.00000E+000	-8.39293E-004	-3.59960E-001	-1.11874E+000	3.57780E+000	10	...........
	32	0.44	1.32955E-001	-6.01357E-003	0.00000E+000	-7.99532E-004	-3.59960E-001	-1.12386E+000	3.57780E+000	10	...........
	33	0.453333	1.26518E-001	-6.02095E-003	0.00000E+000	-7.61762E-004	-3.59960E-001	-1.11459E+000	3.57780E+000	10	...........
	34	0.466667	1.20146E-001	-6.01582E-003	0.00000E+000	-7.22777E-004	-3.59960E-001	-1.11897E+000	3.57780E+000	10	...........
	35	0.48	1.13811E-001	-6.00726E-003	0.00000E+000	-6.83692E-004	-3.59960E-001	-1.12443E+000	3.57780E+000	10	...........
	36	0.493333	1.07532E-001	-6.01885E-003	0.00000E+000	-6.47219E-004	-3.59960E-001	-1.11480E+000	3.57780E+000	10	...........
	37	0.506667	1.01344E-001	-6.00746E-003	0.00000E+000	-6.08822E-004	-3.59960E-001	-1.11906E+000	3.57780E+000	10	...........
	38	0.52	9.51804E-002	-6.01536E-003	0.00000E+000	-5.72544E-004	-3.59960E-001	-1.12444E+000	3.57780E+000	10	...........
	39	0.533333	8.91238E-002	-6.01188E-003	0.00000E+000	-5.35801E-004	-3.59960E-001	-1.11503E+000	3.57780E+000	10	...........
	40	0.546667	8.30891E-002	-6.01584E-003	0.00000E+000	-4.99851E-004	-3.59960E-001	-1.11939E+000	3.57780E+000	10	...........
	41	0.56	7.71428E-002	-6.01314E-003	0.00000E+000	-4.63871E-004	-3.59960E-001	-1.12447E+000	3.57780E+000	10	...........
	42	0.573333	7.12449E-002	-6.01546E-003	0.00000E+000	-4.28571E-004	-3.59960E-001	-1.11516E+000	3.57780E+000	10	...........
	43	0.586667	6.53513E-002	-6.02027E-003	0.00000E+000	-3.93433E-004	-3.59960E-001	-1.11915E+000	3.57780E+000	10	...........
	44	0.6	5.95659E-002	-6.00873E-003	0.00000E+000	-3.57915E-004	-3.59960E-001	-1.12453E+000	3.57780E+000	10	...........
	45	0.613333	5.38169E-002	-6.01475E-003	0.00000E+000	-3.23695E-004	-3.59960E-001	-1.11493E+000	3.57773E+000	10	...........
	46	0.626667	4.81497E-002	-6.01594E-003	0.00000E+000	-2.89666E-004	-3.59960E-001	-1.11911E+000	3.57760E+000	10	...........
	47	0.64	4.25119E-002	-6.01584E-003	0.00000E+000	-2.55745E-004	-3.59960E-001	-1.12423E+000	3.57760E+000	10	...........
	48	0.653333	3.69108E-002	-6.01857E-003	0.00000E+000	-2.22150E-004	-3.59960E-001	-1.11506E+000	3.57760E+000	10	...........
	49	0.666667	3.13868E-002	-6.01825E-003	0.00000E+000	-1.88894E-004	-3.59960E-001	-1.11931E+000	3.57760E+000	10	...........
	50	0.68	2.58897E-002	-6.01296E-003	0.00000E+000	-1.55674E-004	-3.59960E-001	-1.12451E+000	3.57760E+000	10	...........
	51	0.693333	2.04598E-002	-6.01072E-003	0.00000E+000	-1.22978E-004	-3.59960E-001	-1.11517E+000	3.57760E+000	10	...........
	52	0.706667	1.50888E-002	-6.01725E-003	0.00000E+000	-9.07930E-005	-3.59960E-001	-1.11912E+000	3.57760E+000	10	...........
	53	0.72	9.76353E-003	-6.01277E-003	0.00000E+000	-5.87059E-005	-3.59960E-001	-1.12454E+000	3.57760E+000	10	...........
	54	0.733333	4.45151E-003	-6.01510E-003	0.00000E+000	-2.67763E-005	-3.59960E-001	-1.11531E+000	3.57760E+000	10	...........
	55	0.74	4.78846E-004	-6.01821E-003	0.00000E+000	-2.88180E-006	-3.59960E-001	-1.12866E+000	3.57760E+000	10	...........
STARTTIMEOFFSET	QUANT	1065.425	Start Time Offset (s)
