EXPLAIN
TAG	PWR800_DISCHARGE
TITLE	LABEL	PWR Cyclic Charge Discharge (Cell) - Discharge Step	Test &Identifier
DATE	LABEL	22-6-2017	Date
TIME	LABEL	16:10:45	Time
NOTES	NOTES	3	&Notes...
	supercap test cell
	0.6mg
	6M KOH
PSTAT	PSTAT	IFC5000-01520	Potentiostat
CAPACITY	QUANT	1.00000E-003	Capacity (A-hr)
CELLTYPE	SELECTOR	1	&Cell Type
WORKINGCONNECTION	SELECTOR	0	&Working Lead
MAXDISCHARGETIME	VARIABLEANDUNITS	1.00000E+002	s	1.00000E+002	second(s)	Max &Discharge Time
DISCHARGEMODE	MULTIPARAM	0	6.00000E-003	&Discharge Mode	Constant Current	Amp(s)
SAMPLETIME	QUANT	1.00000E-002	Sa&mple Period (s)
DISCHARGESTOPAT1	MULTIPARAM	3	0.00000E+000	Discharge Stop At &1	Voltage < Limit	V
DISCHARGESTOPAT2	MULTIPARAM	0	0.00000E+000	Discharge Stop At &2	None	N/A
AESBHCSELECTOR	TOGGLE	F	Save Both Half Cells
IRCOMP	TOGGLE	F	IR &Measure
EOC	QUANT	0	Open Circuit (V)
SEQUENCER	TOGGLE	TRUE	Run as Sequence
PSTATMODEL	IQUANT	53	Pstat Model
PSTATSECTION	LABEL	IFC5000-01520	Pstat Section
PSTATSERIALNO	LABEL	01520	Pstat Serial Number
CTRLMODE	IQUANT	0	Control Mode
ELECTROMETER	IQUANT	1	RE=0 or CS=1
IESTAB	IQUANT	0	I/E Stability
CASPEED	IQUANT	4	Control Amp Speed
CONVENTION	IQUANT	1	Current Convention
ICHRANGE	IQUANT	2	Ich Range
ICHRANGEMODE	TOGGLE	T	Ich Auto Range
ICHOFFSETENABLE	TOGGLE	F	Ich Offset Enable
ICHOFFSET	QUANT	0	Ich Offset (V)
ICHFILTER	IQUANT	1	Ich Filter
VCHRANGE	IQUANT	2	Vch Range
VCHRANGEMODE	TOGGLE	T	Vch Auto Range
VCHOFFSETENABLE	TOGGLE	F	Vch Offset Enable
VCHOFFSET	QUANT	0	Vch Offset (V)
VCHFILTER	IQUANT	1	Vch Filter
IERANGELOWERLIMIT	IQUANT	9	I/E Range Lower Limit
IERANGEMODE	TOGGLE	F	I/E AutoRange
IERANGE	IQUANT	10	I/E Range
ACHSELECT	IQUANT	1	Ach Select
ACHRANGE	IQUANT	2	Ach Range
ACHOFFSETENABLE	TOGGLE	F	Ach Offset Enable
ACHOFFSET	QUANT	0	Ach Offset (V)
ACHFILTER	IQUANT	1	Ach Filter
CABLEID	IQUANT	14	Cable ID
DCCALDATE	LABEL	20-10-2016	DC Calibration Date
ACCALDATE	LABEL	12/3/2015	AC Calibration Date
FRAMEWORKVERSION	QUANT	7.01	Framework Version
INSTRUMENTVERSION	LABEL	4.00	Instrument Version
CURVE	TABLE	53
	Pt	T	Vf	Im	Vu	Pwr	Sig	Ach	Temp	IERange	Over
	#	s	V	A	V	W	V	V	deg C	#	bits
	0	0.013333	3.79502E-001	-6.01747E-003	0.00000E+000	-2.28364E-003	-3.59960E-001	-1.13630E+000	3.57660E+000	10	...........
	1	0.026667	3.67923E-001	-6.01635E-003	0.00000E+000	-2.21355E-003	-3.59960E-001	-1.13371E+000	3.57660E+000	10	...........
	2	0.04	3.57230E-001	-6.01506E-003	0.00000E+000	-2.14876E-003	-3.59960E-001	-1.14470E+000	3.57648E+000	10	...........
	3	0.053333	3.47082E-001	-6.01033E-003	0.00000E+000	-2.08608E-003	-3.59960E-001	-1.13643E+000	3.57640E+000	10	...........
	4	0.066667	3.37260E-001	-6.01998E-003	0.00000E+000	-2.03030E-003	-3.59960E-001	-1.13377E+000	3.57640E+000	10	...........
	5	0.08	3.27771E-001	-6.01361E-003	0.00000E+000	-1.97109E-003	-3.59960E-001	-1.14498E+000	3.57640E+000	10	...........
	6	0.093333	3.18529E-001	-6.01113E-003	0.00000E+000	-1.91472E-003	-3.59960E-001	-1.13672E+000	3.57640E+000	10	...........
	7	0.106667	3.09390E-001	-6.01646E-003	0.00000E+000	-1.86143E-003	-3.59960E-001	-1.13416E+000	3.57640E+000	10	...........
	8	0.12	3.00493E-001	-6.01256E-003	0.00000E+000	-1.80673E-003	-3.59960E-001	-1.14529E+000	3.57640E+000	10	...........
	9	0.133333	2.91690E-001	-6.01520E-003	0.00000E+000	-1.75458E-003	-3.59960E-001	-1.13713E+000	3.57640E+000	10	...........
	10	0.146667	2.83042E-001	-6.00974E-003	0.00000E+000	-1.70101E-003	-3.59960E-001	-1.13447E+000	3.57640E+000	10	...........
	11	0.16	2.74533E-001	-6.01755E-003	0.00000E+000	-1.65202E-003	-3.59960E-001	-1.14566E+000	3.57640E+000	10	...........
	12	0.173333	2.66150E-001	-6.01455E-003	0.00000E+000	-1.60077E-003	-3.59960E-001	-1.13734E+000	3.57640E+000	10	...........
	13	0.186667	2.57863E-001	-6.01345E-003	0.00000E+000	-1.55065E-003	-3.59960E-001	-1.13470E+000	3.57640E+000	10	...........
	14	0.2	2.49639E-001	-6.02132E-003	0.00000E+000	-1.50315E-003	-3.59960E-001	-1.14594E+000	3.57640E+000	10	...........
	15	0.213333	2.41567E-001	-6.01274E-003	0.00000E+000	-1.45248E-003	-3.59960E-001	-1.13800E+000	3.57640E+000	10	...........
	16	0.226667	2.33618E-001	-6.01454E-003	0.00000E+000	-1.40511E-003	-3.59960E-001	-1.13487E+000	3.57640E+000	10	...........
	17	0.24	2.25763E-001	-6.01400E-003	0.00000E+000	-1.35774E-003	-3.59960E-001	-1.14610E+000	3.57640E+000	10	...........
	18	0.253333	2.17976E-001	-6.01648E-003	0.00000E+000	-1.31145E-003	-3.59960E-001	-1.13791E+000	3.57640E+000	10	...........
	19	0.266667	2.10274E-001	-6.01352E-003	0.00000E+000	-1.26449E-003	-3.59960E-001	-1.13509E+000	3.57640E+000	10	...........
	20	0.28	2.02689E-001	-6.01083E-003	0.00000E+000	-1.21833E-003	-3.59960E-001	-1.14593E+000	3.57640E+000	10	...........
	21	0.293333	1.95245E-001	-6.01393E-003	0.00000E+000	-1.17419E-003	-3.59960E-001	-1.13774E+000	3.57640E+000	10	...........
	22	0.306667	1.87853E-001	-6.01841E-003	0.00000E+000	-1.13058E-003	-3.59960E-001	-1.13503E+000	3.57640E+000	10	...........
	23	0.32	1.80513E-001	-6.01484E-003	0.00000E+000	-1.08576E-003	-3.59960E-001	-1.14591E+000	3.57640E+000	10	...........
	24	0.333333	1.73283E-001	-6.01046E-003	0.00000E+000	-1.04151E-003	-3.59960E-001	-1.13772E+000	3.57640E+000	10	...........
	25	0.346667	1.66132E-001	-6.01556E-003	0.00000E+000	-9.99379E-004	-3.59960E-001	-1.13518E+000	3.57640E+000	10	...........
	26	0.36	1.59067E-001	-6.01145E-003	0.00000E+000	-9.56223E-004	-3.59960E-001	-1.14626E+000	3.57640E+000	10	...........
	27	0.373333	1.52063E-001	-6.01761E-003	0.00000E+000	-9.15055E-004	-3.59960E-001	-1.13772E+000	3.57640E+000	10	...........
	28	0.386667	1.45168E-001	-6.01268E-003	0.00000E+000	-8.72848E-004	-3.59960E-001	-1.13514E+000	3.57640E+000	10	...........
	29	0.4	1.38345E-001	-6.01429E-003	0.00000E+000	-8.32048E-004	-3.59960E-001	-1.14638E+000	3.57640E+000	10	...........
	30	0.413333	1.31603E-001	-6.01035E-003	0.00000E+000	-7.90980E-004	-3.59960E-001	-1.13817E+000	3.57640E+000	10	...........
	31	0.426667	1.24900E-001	-6.01644E-003	0.00000E+000	-7.51454E-004	-3.59960E-001	-1.13542E+000	3.57640E+000	10	...........
	32	0.44	1.18272E-001	-6.01763E-003	0.00000E+000	-7.11719E-004	-3.59960E-001	-1.14629E+000	3.57640E+000	10	...........
	33	0.453333	1.11757E-001	-6.01441E-003	0.00000E+000	-6.72154E-004	-3.59960E-001	-1.13812E+000	3.57640E+000	10	...........
	34	0.466667	1.05249E-001	-6.01706E-003	0.00000E+000	-6.33292E-004	-3.59960E-001	-1.13561E+000	3.57640E+000	10	...........
	35	0.48	9.88463E-002	-6.01781E-003	0.00000E+000	-5.94839E-004	-3.59960E-001	-1.14669E+000	3.57640E+000	10	...........
	36	0.493333	9.25215E-002	-6.01563E-003	0.00000E+000	-5.56575E-004	-3.59960E-001	-1.13829E+000	3.57640E+000	10	...........
	37	0.506667	8.62579E-002	-6.01623E-003	0.00000E+000	-5.18947E-004	-3.59960E-001	-1.13561E+000	3.57640E+000	10	...........
	38	0.52	8.01020E-002	-6.01489E-003	0.00000E+000	-4.81805E-004	-3.59960E-001	-1.14682E+000	3.57640E+000	10	...........
	39	0.533333	7.39606E-002	-6.01680E-003	0.00000E+000	-4.45006E-004	-3.59960E-001	-1.13850E+000	3.57640E+000	10	...........
	40	0.546667	6.78436E-002	-6.01342E-003	0.00000E+000	-4.07972E-004	-3.59960E-001	-1.13595E+000	3.57640E+000	10	...........
	41	0.56	6.17741E-002	-6.01214E-003	0.00000E+000	-3.71394E-004	-3.59960E-001	-1.14691E+000	3.57640E+000	10	...........
	42	0.573333	5.58596E-002	-6.01441E-003	0.00000E+000	-3.35963E-004	-3.59960E-001	-1.13851E+000	3.57640E+000	10	...........
	43	0.586667	4.99652E-002	-6.01315E-003	0.00000E+000	-3.00448E-004	-3.59960E-001	-1.13574E+000	3.57640E+000	10	...........
	44	0.6	4.41612E-002	-6.01397E-003	0.00000E+000	-2.65584E-004	-3.59960E-001	-1.14684E+000	3.57640E+000	10	...........
	45	0.613333	3.83635E-002	-6.01468E-003	0.00000E+000	-2.30744E-004	-3.59960E-001	-1.13829E+000	3.57640E+000	10	...........
	46	0.626667	3.26713E-002	-6.01973E-003	0.00000E+000	-1.96672E-004	-3.59960E-001	-1.13576E+000	3.57640E+000	10	...........
	47	0.64	2.69784E-002	-6.01853E-003	0.00000E+000	-1.62370E-004	-3.59960E-001	-1.14679E+000	3.57640E+000	10	...........
	48	0.653333	2.13845E-002	-6.01575E-003	0.00000E+000	-1.28644E-004	-3.59960E-001	-1.13813E+000	3.57640E+000	10	...........
	49	0.666667	1.58166E-002	-6.00959E-003	0.00000E+000	-9.50511E-005	-3.59960E-001	-1.13585E+000	3.57640E+000	10	...........
	50	0.68	1.02917E-002	-6.01608E-003	0.00000E+000	-6.19158E-005	-3.59960E-001	-1.14693E+000	3.57640E+000	10	...........
	51	0.693333	4.85173E-003	-6.01131E-003	0.00000E+000	-2.91653E-005	-3.59960E-001	-1.13866E+000	3.57640E+000	10	...........
	52	0.7	7.52473E-004	-6.01105E-003	0.00000E+000	-4.52315E-006	-3.59960E-001	-1.14421E+000	3.57640E+000	10	...........
STARTTIMEOFFSET	QUANT	1436.923	Start Time Offset (s)
