EXPLAIN
TAG	PWR800_DISCHARGE
TITLE	LABEL	PWR Cyclic Charge Discharge (Cell) - Discharge Step	Test &Identifier
DATE	LABEL	22-6-2017	Date
TIME	LABEL	15:50:48	Time
NOTES	NOTES	3	&Notes...
	supercap test cell
	0.6mg
	6M KOH
PSTAT	PSTAT	IFC5000-01520	Potentiostat
CAPACITY	QUANT	1.00000E-003	Capacity (A-hr)
CELLTYPE	SELECTOR	1	&Cell Type
WORKINGCONNECTION	SELECTOR	0	&Working Lead
MAXDISCHARGETIME	VARIABLEANDUNITS	1.00000E+002	s	1.00000E+002	second(s)	Max &Discharge Time
DISCHARGEMODE	MULTIPARAM	0	6.00000E-003	&Discharge Mode	Constant Current	Amp(s)
SAMPLETIME	QUANT	1.00000E-002	Sa&mple Period (s)
DISCHARGESTOPAT1	MULTIPARAM	3	0.00000E+000	Discharge Stop At &1	Voltage < Limit	V
DISCHARGESTOPAT2	MULTIPARAM	0	0.00000E+000	Discharge Stop At &2	None	N/A
AESBHCSELECTOR	TOGGLE	F	Save Both Half Cells
IRCOMP	TOGGLE	F	IR &Measure
EOC	QUANT	0	Open Circuit (V)
SEQUENCER	TOGGLE	TRUE	Run as Sequence
PSTATMODEL	IQUANT	53	Pstat Model
PSTATSECTION	LABEL	IFC5000-01520	Pstat Section
PSTATSERIALNO	LABEL	01520	Pstat Serial Number
CTRLMODE	IQUANT	0	Control Mode
ELECTROMETER	IQUANT	1	RE=0 or CS=1
IESTAB	IQUANT	0	I/E Stability
CASPEED	IQUANT	4	Control Amp Speed
CONVENTION	IQUANT	1	Current Convention
ICHRANGE	IQUANT	2	Ich Range
ICHRANGEMODE	TOGGLE	T	Ich Auto Range
ICHOFFSETENABLE	TOGGLE	F	Ich Offset Enable
ICHOFFSET	QUANT	0	Ich Offset (V)
ICHFILTER	IQUANT	1	Ich Filter
VCHRANGE	IQUANT	2	Vch Range
VCHRANGEMODE	TOGGLE	T	Vch Auto Range
VCHOFFSETENABLE	TOGGLE	F	Vch Offset Enable
VCHOFFSET	QUANT	0	Vch Offset (V)
VCHFILTER	IQUANT	1	Vch Filter
IERANGELOWERLIMIT	IQUANT	9	I/E Range Lower Limit
IERANGEMODE	TOGGLE	F	I/E AutoRange
IERANGE	IQUANT	10	I/E Range
ACHSELECT	IQUANT	1	Ach Select
ACHRANGE	IQUANT	2	Ach Range
ACHOFFSETENABLE	TOGGLE	F	Ach Offset Enable
ACHOFFSET	QUANT	0	Ach Offset (V)
ACHFILTER	IQUANT	1	Ach Filter
CABLEID	IQUANT	14	Cable ID
DCCALDATE	LABEL	20-10-2016	DC Calibration Date
ACCALDATE	LABEL	12/3/2015	AC Calibration Date
FRAMEWORKVERSION	QUANT	7.01	Framework Version
INSTRUMENTVERSION	LABEL	4.00	Instrument Version
CURVE	TABLE	60
	Pt	T	Vf	Im	Vu	Pwr	Sig	Ach	Temp	IERange	Over
	#	s	V	A	V	W	V	V	deg C	#	bits
	0	0.013333	4.02200E-001	-6.01325E-003	0.00000E+000	-2.41853E-003	-3.59960E-001	-1.08002E+000	3.57670E+000	10	...........
	1	0.026667	3.91306E-001	-6.01264E-003	0.00000E+000	-2.35278E-003	-3.59960E-001	-1.08727E+000	3.57665E+000	10	...........
	2	0.04	3.81171E-001	-6.01657E-003	0.00000E+000	-2.29334E-003	-3.59960E-001	-1.08812E+000	3.57660E+000	10	...........
	3	0.053333	3.71588E-001	-6.01395E-003	0.00000E+000	-2.23471E-003	-3.59960E-001	-1.08043E+000	3.57660E+000	10	...........
	4	0.066667	3.62312E-001	-6.01600E-003	0.00000E+000	-2.17967E-003	-3.59960E-001	-1.08742E+000	3.57660E+000	10	...........
	5	0.08	3.53347E-001	-6.01676E-003	0.00000E+000	-2.12600E-003	-3.59960E-001	-1.08840E+000	3.57660E+000	10	...........
	6	0.093333	3.44645E-001	-6.01387E-003	0.00000E+000	-2.07265E-003	-3.59960E-001	-1.08081E+000	3.57660E+000	10	...........
	7	0.106667	3.36082E-001	-6.01062E-003	0.00000E+000	-2.02006E-003	-3.59960E-001	-1.08804E+000	3.57660E+000	10	...........
	8	0.12	3.27693E-001	-6.01269E-003	0.00000E+000	-1.97032E-003	-3.59960E-001	-1.08842E+000	3.57660E+000	10	...........
	9	0.133333	3.19418E-001	-6.01248E-003	0.00000E+000	-1.92050E-003	-3.59960E-001	-1.08069E+000	3.57660E+000	10	...........
	10	0.146667	3.11227E-001	-6.01893E-003	0.00000E+000	-1.87325E-003	-3.59960E-001	-1.08820E+000	3.57660E+000	10	...........
	11	0.16	3.03182E-001	-6.01632E-003	0.00000E+000	-1.82404E-003	-3.59960E-001	-1.08904E+000	3.57660E+000	10	...........
	12	0.173333	2.95246E-001	-6.01060E-003	0.00000E+000	-1.77461E-003	-3.59960E-001	-1.08136E+000	3.57660E+000	10	...........
	13	0.186667	2.87431E-001	-6.00630E-003	0.00000E+000	-1.72639E-003	-3.59960E-001	-1.08855E+000	3.57660E+000	10	...........
	14	0.2	2.79690E-001	-6.01168E-003	0.00000E+000	-1.68141E-003	-3.59960E-001	-1.08927E+000	3.57660E+000	10	...........
	15	0.213333	2.72052E-001	-6.01703E-003	0.00000E+000	-1.63694E-003	-3.59960E-001	-1.08160E+000	3.57660E+000	10	...........
	16	0.226667	2.64486E-001	-6.00957E-003	0.00000E+000	-1.58945E-003	-3.59960E-001	-1.08910E+000	3.57660E+000	10	...........
	17	0.24	2.57027E-001	-6.01492E-003	0.00000E+000	-1.54600E-003	-3.59960E-001	-1.08966E+000	3.57660E+000	10	...........
	18	0.253333	2.49654E-001	-6.01062E-003	0.00000E+000	-1.50058E-003	-3.59960E-001	-1.08180E+000	3.57660E+000	10	...........
	19	0.266667	2.42362E-001	-6.01355E-003	0.00000E+000	-1.45745E-003	-3.59960E-001	-1.08902E+000	3.57660E+000	10	...........
	20	0.28	2.35169E-001	-6.01439E-003	0.00000E+000	-1.41440E-003	-3.59960E-001	-1.08974E+000	3.57660E+000	10	...........
	21	0.293333	2.28044E-001	-6.01218E-003	0.00000E+000	-1.37104E-003	-3.59960E-001	-1.08218E+000	3.57660E+000	10	...........
	22	0.306667	2.20961E-001	-6.01404E-003	0.00000E+000	-1.32887E-003	-3.59960E-001	-1.08913E+000	3.57660E+000	10	...........
	23	0.32	2.14002E-001	-6.01782E-003	0.00000E+000	-1.28783E-003	-3.59960E-001	-1.08930E+000	3.57660E+000	10	...........
	24	0.333333	2.07048E-001	-6.01881E-003	0.00000E+000	-1.24618E-003	-3.59960E-001	-1.08183E+000	3.57660E+000	10	...........
	25	0.346667	2.00228E-001	-6.01368E-003	0.00000E+000	-1.20410E-003	-3.59960E-001	-1.08920E+000	3.57660E+000	10	...........
	26	0.36	1.93473E-001	-6.01777E-003	0.00000E+000	-1.16428E-003	-3.59960E-001	-1.08973E+000	3.57660E+000	10	...........
	27	0.373333	1.86736E-001	-6.00814E-003	0.00000E+000	-1.12193E-003	-3.59960E-001	-1.08214E+000	3.57660E+000	10	...........
	28	0.386667	1.80014E-001	-6.01544E-003	0.00000E+000	-1.08286E-003	-3.59960E-001	-1.08947E+000	3.57660E+000	10	...........
	29	0.4	1.73436E-001	-6.01747E-003	0.00000E+000	-1.04365E-003	-3.59960E-001	-1.08975E+000	3.57660E+000	10	...........
	30	0.413333	1.66932E-001	-6.01930E-003	0.00000E+000	-1.00482E-003	-3.59960E-001	-1.08240E+000	3.57660E+000	10	...........
	31	0.426667	1.60502E-001	-6.01691E-003	0.00000E+000	-9.65725E-004	-3.59960E-001	-1.08978E+000	3.57660E+000	10	...........
	32	0.44	1.54110E-001	-6.01520E-003	0.00000E+000	-9.27004E-004	-3.59960E-001	-1.09017E+000	3.57660E+000	10	...........
	33	0.453333	1.47785E-001	-6.01384E-003	0.00000E+000	-8.88755E-004	-3.59960E-001	-1.08259E+000	3.57660E+000	10	...........
	34	0.466667	1.41489E-001	-6.01134E-003	0.00000E+000	-8.50540E-004	-3.59960E-001	-1.08978E+000	3.57660E+000	10	...........
	35	0.48	1.35251E-001	-6.01861E-003	0.00000E+000	-8.14022E-004	-3.59960E-001	-1.09000E+000	3.57660E+000	10	...........
	36	0.493333	1.29075E-001	-6.01793E-003	0.00000E+000	-7.76763E-004	-3.59960E-001	-1.08249E+000	3.57660E+000	10	...........
	37	0.506667	1.22973E-001	-6.01479E-003	0.00000E+000	-7.39655E-004	-3.59960E-001	-1.09019E+000	3.57660E+000	10	...........
	38	0.52	1.16937E-001	-6.01417E-003	0.00000E+000	-7.03279E-004	-3.59960E-001	-1.09041E+000	3.57660E+000	10	...........
	39	0.533333	1.10931E-001	-6.01518E-003	0.00000E+000	-6.67269E-004	-3.59960E-001	-1.08288E+000	3.57660E+000	10	...........
	40	0.546667	1.05000E-001	-6.01062E-003	0.00000E+000	-6.31116E-004	-3.59960E-001	-1.09034E+000	3.57660E+000	10	...........
	41	0.56	9.90835E-002	-6.01608E-003	0.00000E+000	-5.96094E-004	-3.59960E-001	-1.09049E+000	3.57660E+000	10	...........
	42	0.573333	9.32164E-002	-6.01199E-003	0.00000E+000	-5.60416E-004	-3.59960E-001	-1.08305E+000	3.57660E+000	10	...........
	43	0.586667	8.74791E-002	-6.01477E-003	0.00000E+000	-5.26166E-004	-3.59960E-001	-1.09053E+000	3.57660E+000	10	...........
	44	0.6	8.17497E-002	-6.01397E-003	0.00000E+000	-4.91640E-004	-3.59960E-001	-1.09037E+000	3.57660E+000	10	...........
	45	0.613333	7.60233E-002	-6.01322E-003	0.00000E+000	-4.57145E-004	-3.59960E-001	-1.08315E+000	3.57660E+000	10	...........
	46	0.626667	7.03259E-002	-6.01552E-003	0.00000E+000	-4.23046E-004	-3.59960E-001	-1.09039E+000	3.57660E+000	10	...........
	47	0.64	6.47400E-002	-6.01482E-003	0.00000E+000	-3.89399E-004	-3.59960E-001	-1.09028E+000	3.57660E+000	10	...........
	48	0.653333	5.91661E-002	-6.01684E-003	0.00000E+000	-3.55993E-004	-3.59960E-001	-1.08300E+000	3.57660E+000	10	...........
	49	0.666667	5.36691E-002	-6.01347E-003	0.00000E+000	-3.22738E-004	-3.59960E-001	-1.09056E+000	3.57660E+000	10	...........
	50	0.68	4.82279E-002	-6.01633E-003	0.00000E+000	-2.90155E-004	-3.59960E-001	-1.09032E+000	3.57660E+000	10	...........
	51	0.693333	4.28569E-002	-6.01397E-003	0.00000E+000	-2.57740E-004	-3.59960E-001	-1.08322E+000	3.57660E+000	10	...........
	52	0.706667	3.74861E-002	-6.01177E-003	0.00000E+000	-2.25358E-004	-3.59960E-001	-1.09080E+000	3.57660E+000	10	...........
	53	0.72	3.21626E-002	-6.01848E-003	0.00000E+000	-1.93570E-004	-3.59960E-001	-1.09048E+000	3.57660E+000	10	...........
	54	0.733333	2.68502E-002	-6.01687E-003	0.00000E+000	-1.61554E-004	-3.59960E-001	-1.08320E+000	3.57660E+000	10	...........
	55	0.746667	2.16016E-002	-6.01575E-003	0.00000E+000	-1.29950E-004	-3.59960E-001	-1.09060E+000	3.57660E+000	10	...........
	56	0.76	1.64146E-002	-6.01475E-003	0.00000E+000	-9.87296E-005	-3.59960E-001	-1.09037E+000	3.57660E+000	10	...........
	57	0.773333	1.12743E-002	-6.01242E-003	0.00000E+000	-6.77857E-005	-3.59960E-001	-1.08326E+000	3.57660E+000	10	...........
	58	0.786667	6.10669E-003	-6.01247E-003	0.00000E+000	-3.67163E-005	-3.59960E-001	-1.09074E+000	3.57660E+000	10	...........
	59	0.798333	1.35987E-003	-6.01034E-003	0.00000E+000	-8.17331E-006	-3.59960E-001	-1.08939E+000	3.57660E+000	10	...........
STARTTIMEOFFSET	QUANT	655.6381	Start Time Offset (s)
