EXPLAIN
TAG	PWR800_DISCHARGE
TITLE	LABEL	PWR Cyclic Charge Discharge (Cell) - Discharge Step	Test &Identifier
DATE	LABEL	22-6-2017	Date
TIME	LABEL	15:40:32	Time
NOTES	NOTES	3	&Notes...
	supercap test cell
	0.6mg
	6M KOH
PSTAT	PSTAT	IFC5000-01520	Potentiostat
CAPACITY	QUANT	1.00000E-003	Capacity (A-hr)
CELLTYPE	SELECTOR	1	&Cell Type
WORKINGCONNECTION	SELECTOR	0	&Working Lead
MAXDISCHARGETIME	VARIABLEANDUNITS	1.00000E+002	s	1.00000E+002	second(s)	Max &Discharge Time
DISCHARGEMODE	MULTIPARAM	0	6.00000E-003	&Discharge Mode	Constant Current	Amp(s)
SAMPLETIME	QUANT	1.00000E-002	Sa&mple Period (s)
DISCHARGESTOPAT1	MULTIPARAM	3	0.00000E+000	Discharge Stop At &1	Voltage < Limit	V
DISCHARGESTOPAT2	MULTIPARAM	0	0.00000E+000	Discharge Stop At &2	None	N/A
AESBHCSELECTOR	TOGGLE	F	Save Both Half Cells
IRCOMP	TOGGLE	F	IR &Measure
EOC	QUANT	0	Open Circuit (V)
SEQUENCER	TOGGLE	TRUE	Run as Sequence
PSTATMODEL	IQUANT	53	Pstat Model
PSTATSECTION	LABEL	IFC5000-01520	Pstat Section
PSTATSERIALNO	LABEL	01520	Pstat Serial Number
CTRLMODE	IQUANT	0	Control Mode
ELECTROMETER	IQUANT	1	RE=0 or CS=1
IESTAB	IQUANT	0	I/E Stability
CASPEED	IQUANT	4	Control Amp Speed
CONVENTION	IQUANT	1	Current Convention
ICHRANGE	IQUANT	2	Ich Range
ICHRANGEMODE	TOGGLE	T	Ich Auto Range
ICHOFFSETENABLE	TOGGLE	F	Ich Offset Enable
ICHOFFSET	QUANT	0	Ich Offset (V)
ICHFILTER	IQUANT	1	Ich Filter
VCHRANGE	IQUANT	2	Vch Range
VCHRANGEMODE	TOGGLE	T	Vch Auto Range
VCHOFFSETENABLE	TOGGLE	F	Vch Offset Enable
VCHOFFSET	QUANT	0	Vch Offset (V)
VCHFILTER	IQUANT	1	Vch Filter
IERANGELOWERLIMIT	IQUANT	9	I/E Range Lower Limit
IERANGEMODE	TOGGLE	F	I/E AutoRange
IERANGE	IQUANT	10	I/E Range
ACHSELECT	IQUANT	1	Ach Select
ACHRANGE	IQUANT	2	Ach Range
ACHOFFSETENABLE	TOGGLE	F	Ach Offset Enable
ACHOFFSET	QUANT	0	Ach Offset (V)
ACHFILTER	IQUANT	1	Ach Filter
CABLEID	IQUANT	14	Cable ID
DCCALDATE	LABEL	20-10-2016	DC Calibration Date
ACCALDATE	LABEL	12/3/2015	AC Calibration Date
FRAMEWORKVERSION	QUANT	7.01	Framework Version
INSTRUMENTVERSION	LABEL	4.00	Instrument Version
CURVE	TABLE	68
	Pt	T	Vf	Im	Vu	Pwr	Sig	Ach	Temp	IERange	Over
	#	s	V	A	V	W	V	V	deg C	#	bits
	0	0.013333	4.24154E-001	-6.00974E-003	0.00000E+000	-2.54905E-003	-3.59960E-001	-1.04389E+000	3.57840E+000	10	...........
	1	0.026667	4.13842E-001	-6.01583E-003	0.00000E+000	-2.48960E-003	-3.59960E-001	-1.03450E+000	3.57840E+000	10	...........
	2	0.04	4.04271E-001	-6.01615E-003	0.00000E+000	-2.43215E-003	-3.59960E-001	-1.03941E+000	3.57840E+000	10	...........
	3	0.053333	3.95181E-001	-6.01513E-003	0.00000E+000	-2.37707E-003	-3.59960E-001	-1.04388E+000	3.57840E+000	10	...........
	4	0.066667	3.86428E-001	-6.01375E-003	0.00000E+000	-2.32388E-003	-3.59960E-001	-1.03396E+000	3.57840E+000	10	...........
	5	0.08	3.77972E-001	-6.01263E-003	0.00000E+000	-2.27261E-003	-3.59960E-001	-1.03901E+000	3.57840E+000	10	...........
	6	0.093333	3.69700E-001	-6.01031E-003	0.00000E+000	-2.22201E-003	-3.59960E-001	-1.04411E+000	3.57840E+000	10	...........
	7	0.106667	3.61572E-001	-6.01479E-003	0.00000E+000	-2.17478E-003	-3.59960E-001	-1.03461E+000	3.57840E+000	10	...........
	8	0.12	3.53613E-001	-6.01349E-003	0.00000E+000	-2.12645E-003	-3.59960E-001	-1.03945E+000	3.57840E+000	10	...........
	9	0.133333	3.45798E-001	-6.01611E-003	0.00000E+000	-2.08036E-003	-3.59960E-001	-1.04397E+000	3.57840E+000	10	...........
	10	0.146667	3.38094E-001	-6.01455E-003	0.00000E+000	-2.03348E-003	-3.59960E-001	-1.03422E+000	3.57840E+000	10	...........
	11	0.16	3.30482E-001	-6.01128E-003	0.00000E+000	-1.98662E-003	-3.59960E-001	-1.03969E+000	3.57840E+000	10	...........
	12	0.173333	3.22932E-001	-6.01274E-003	0.00000E+000	-1.94171E-003	-3.59960E-001	-1.04421E+000	3.57840E+000	10	...........
	13	0.186667	3.15479E-001	-6.01763E-003	0.00000E+000	-1.89844E-003	-3.59960E-001	-1.03463E+000	3.57840E+000	10	...........
	14	0.2	3.08155E-001	-6.01761E-003	0.00000E+000	-1.85436E-003	-3.59960E-001	-1.03949E+000	3.57840E+000	10	...........
	15	0.213333	3.00936E-001	-6.01416E-003	0.00000E+000	-1.80988E-003	-3.59960E-001	-1.04415E+000	3.57840E+000	10	...........
	16	0.226667	2.93759E-001	-6.01002E-003	0.00000E+000	-1.76550E-003	-3.59960E-001	-1.03483E+000	3.57840E+000	10	...........
	17	0.24	2.86673E-001	-6.01005E-003	0.00000E+000	-1.72292E-003	-3.59960E-001	-1.03994E+000	3.57840E+000	10	...........
	18	0.253333	2.79651E-001	-6.01380E-003	0.00000E+000	-1.68176E-003	-3.59960E-001	-1.04423E+000	3.57840E+000	10	...........
	19	0.266667	2.72675E-001	-6.01225E-003	0.00000E+000	-1.63939E-003	-3.59960E-001	-1.03465E+000	3.57840E+000	10	...........
	20	0.28	2.65810E-001	-6.01350E-003	0.00000E+000	-1.59845E-003	-3.59960E-001	-1.03999E+000	3.57840E+000	10	...........
	21	0.293333	2.58984E-001	-6.01885E-003	0.00000E+000	-1.55879E-003	-3.59960E-001	-1.04449E+000	3.57840E+000	10	...........
	22	0.306667	2.52226E-001	-6.01557E-003	0.00000E+000	-1.51728E-003	-3.59960E-001	-1.03544E+000	3.57840E+000	10	...........
	23	0.32	2.45542E-001	-6.01361E-003	0.00000E+000	-1.47660E-003	-3.59960E-001	-1.04042E+000	3.57840E+000	10	...........
	24	0.333333	2.38933E-001	-6.01128E-003	0.00000E+000	-1.43629E-003	-3.59960E-001	-1.04446E+000	3.57840E+000	10	...........
	25	0.346667	2.32388E-001	-6.01552E-003	0.00000E+000	-1.39794E-003	-3.59960E-001	-1.03519E+000	3.57840E+000	10	...........
	26	0.36	2.25863E-001	-6.01603E-003	0.00000E+000	-1.35880E-003	-3.59960E-001	-1.04064E+000	3.57840E+000	10	...........
	27	0.373333	2.19436E-001	-6.01470E-003	0.00000E+000	-1.31985E-003	-3.59960E-001	-1.04484E+000	3.57822E+000	10	...........
	28	0.386667	2.13051E-001	-6.01816E-003	0.00000E+000	-1.28218E-003	-3.59960E-001	-1.03492E+000	3.57700E+000	10	...........
	29	0.4	2.06735E-001	-6.01129E-003	0.00000E+000	-1.24275E-003	-3.59960E-001	-1.03978E+000	3.57700E+000	10	...........
	30	0.413333	2.00424E-001	-6.01339E-003	0.00000E+000	-1.20523E-003	-3.59960E-001	-1.04432E+000	3.57700E+000	10	...........
	31	0.426667	1.94197E-001	-6.01364E-003	0.00000E+000	-1.16783E-003	-3.59960E-001	-1.03523E+000	3.57700E+000	10	...........
	32	0.44	1.88008E-001	-6.01304E-003	0.00000E+000	-1.13050E-003	-3.59960E-001	-1.04051E+000	3.57700E+000	10	...........
	33	0.453333	1.81911E-001	-6.01231E-003	0.00000E+000	-1.09371E-003	-3.59960E-001	-1.04459E+000	3.57700E+000	10	...........
	34	0.466667	1.75844E-001	-6.01000E-003	0.00000E+000	-1.05682E-003	-3.59960E-001	-1.03497E+000	3.57700E+000	10	...........
	35	0.48	1.69836E-001	-6.01305E-003	0.00000E+000	-1.02124E-003	-3.59960E-001	-1.04018E+000	3.57700E+000	10	...........
	36	0.493333	1.63870E-001	-6.01834E-003	0.00000E+000	-9.86223E-004	-3.59960E-001	-1.04441E+000	3.57700E+000	10	...........
	37	0.506667	1.57947E-001	-6.01705E-003	0.00000E+000	-9.50375E-004	-3.59960E-001	-1.03537E+000	3.57700E+000	10	...........
	38	0.52	1.52060E-001	-6.01414E-003	0.00000E+000	-9.14512E-004	-3.59960E-001	-1.04041E+000	3.57700E+000	10	...........
	39	0.533333	1.46259E-001	-6.01340E-003	0.00000E+000	-8.79513E-004	-3.59960E-001	-1.04426E+000	3.57700E+000	10	...........
	40	0.546667	1.40441E-001	-6.01236E-003	0.00000E+000	-8.44382E-004	-3.59960E-001	-1.03532E+000	3.57700E+000	10	...........
	41	0.56	1.34720E-001	-6.01712E-003	0.00000E+000	-8.10625E-004	-3.59960E-001	-1.04060E+000	3.57700E+000	10	...........
	42	0.573333	1.29036E-001	-6.01563E-003	0.00000E+000	-7.76234E-004	-3.59960E-001	-1.04493E+000	3.57700E+000	10	...........
	43	0.586667	1.23386E-001	-6.01979E-003	0.00000E+000	-7.42757E-004	-3.59960E-001	-1.03540E+000	3.57700E+000	10	...........
	44	0.6	1.17785E-001	-6.01495E-003	0.00000E+000	-7.08469E-004	-3.59960E-001	-1.04048E+000	3.57700E+000	10	...........
	45	0.613333	1.12221E-001	-6.01418E-003	0.00000E+000	-6.74917E-004	-3.59960E-001	-1.04456E+000	3.57700E+000	10	...........
	46	0.626667	1.06651E-001	-6.01275E-003	0.00000E+000	-6.41265E-004	-3.59960E-001	-1.03554E+000	3.57700E+000	10	...........
	47	0.64	1.01141E-001	-6.01511E-003	0.00000E+000	-6.08377E-004	-3.59960E-001	-1.04092E+000	3.57700E+000	10	...........
	48	0.653333	9.56566E-002	-6.01420E-003	0.00000E+000	-5.75298E-004	-3.59960E-001	-1.04488E+000	3.57700E+000	10	...........
	49	0.666667	9.02869E-002	-6.01229E-003	0.00000E+000	-5.42832E-004	-3.59960E-001	-1.03538E+000	3.57700E+000	10	...........
	50	0.68	8.48854E-002	-6.01389E-003	0.00000E+000	-5.10492E-004	-3.59960E-001	-1.04044E+000	3.57700E+000	10	...........
	51	0.693333	7.95578E-002	-6.01530E-003	0.00000E+000	-4.78564E-004	-3.59960E-001	-1.04447E+000	3.57700E+000	10	...........
	52	0.706667	7.42500E-002	-6.01288E-003	0.00000E+000	-4.46456E-004	-3.59960E-001	-1.03523E+000	3.57700E+000	10	...........
	53	0.72	6.89930E-002	-6.01525E-003	0.00000E+000	-4.15010E-004	-3.59960E-001	-1.04026E+000	3.57700E+000	10	...........
	54	0.733333	6.37604E-002	-6.01417E-003	0.00000E+000	-3.83466E-004	-3.59960E-001	-1.04398E+000	3.57700E+000	10	...........
	55	0.746667	5.85568E-002	-6.01737E-003	0.00000E+000	-3.52358E-004	-3.59960E-001	-1.03495E+000	3.57700E+000	10	...........
	56	0.76	5.34047E-002	-6.01604E-003	0.00000E+000	-3.21285E-004	-3.59960E-001	-1.04018E+000	3.57700E+000	10	...........
	57	0.773333	4.82872E-002	-6.01671E-003	0.00000E+000	-2.90530E-004	-3.59960E-001	-1.04436E+000	3.57700E+000	10	...........
	58	0.786667	4.32387E-002	-6.01522E-003	0.00000E+000	-2.60090E-004	-3.59960E-001	-1.03495E+000	3.57700E+000	10	...........
	59	0.8	3.82313E-002	-6.01541E-003	0.00000E+000	-2.29977E-004	-3.59960E-001	-1.04020E+000	3.57700E+000	10	...........
	60	0.813333	3.31868E-002	-6.01377E-003	0.00000E+000	-1.99578E-004	-3.59960E-001	-1.04406E+000	3.57700E+000	10	...........
	61	0.826667	2.81839E-002	-6.01288E-003	0.00000E+000	-1.69467E-004	-3.59960E-001	-1.03494E+000	3.57700E+000	10	...........
	62	0.84	2.32380E-002	-6.01634E-003	0.00000E+000	-1.39808E-004	-3.59960E-001	-1.04054E+000	3.57700E+000	10	...........
	63	0.853333	1.82691E-002	-6.01527E-003	0.00000E+000	-1.09894E-004	-3.59960E-001	-1.04420E+000	3.57700E+000	10	...........
	64	0.866667	1.33482E-002	-6.01554E-003	0.00000E+000	-8.02963E-005	-3.59960E-001	-1.03513E+000	3.57700E+000	10	...........
	65	0.88	8.46243E-003	-6.01314E-003	0.00000E+000	-5.08858E-005	-3.59960E-001	-1.04048E+000	3.57700E+000	10	...........
	66	0.893333	3.67484E-003	-6.01109E-003	0.00000E+000	-2.20898E-005	-3.59960E-001	-1.04419E+000	3.57700E+000	10	...........
	67	0.898333	3.97757E-004	-6.01445E-003	0.00000E+000	-2.39229E-006	-3.59960E-001	-1.03504E+000	3.57700E+000	10	...........
STARTTIMEOFFSET	QUANT	238.1383	Start Time Offset (s)
