EXPLAIN
TAG	PWR800_DISCHARGE
TITLE	LABEL	PWR Cyclic Charge Discharge (Cell) - Discharge Step	Test &Identifier
DATE	LABEL	22-6-2017	Date
TIME	LABEL	16:04:39	Time
NOTES	NOTES	3	&Notes...
	supercap test cell
	0.6mg
	6M KOH
PSTAT	PSTAT	IFC5000-01520	Potentiostat
CAPACITY	QUANT	1.00000E-003	Capacity (A-hr)
CELLTYPE	SELECTOR	1	&Cell Type
WORKINGCONNECTION	SELECTOR	0	&Working Lead
MAXDISCHARGETIME	VARIABLEANDUNITS	1.00000E+002	s	1.00000E+002	second(s)	Max &Discharge Time
DISCHARGEMODE	MULTIPARAM	0	6.00000E-003	&Discharge Mode	Constant Current	Amp(s)
SAMPLETIME	QUANT	1.00000E-002	Sa&mple Period (s)
DISCHARGESTOPAT1	MULTIPARAM	3	0.00000E+000	Discharge Stop At &1	Voltage < Limit	V
DISCHARGESTOPAT2	MULTIPARAM	0	0.00000E+000	Discharge Stop At &2	None	N/A
AESBHCSELECTOR	TOGGLE	F	Save Both Half Cells
IRCOMP	TOGGLE	F	IR &Measure
EOC	QUANT	0	Open Circuit (V)
SEQUENCER	TOGGLE	TRUE	Run as Sequence
PSTATMODEL	IQUANT	53	Pstat Model
PSTATSECTION	LABEL	IFC5000-01520	Pstat Section
PSTATSERIALNO	LABEL	01520	Pstat Serial Number
CTRLMODE	IQUANT	0	Control Mode
ELECTROMETER	IQUANT	1	RE=0 or CS=1
IESTAB	IQUANT	0	I/E Stability
CASPEED	IQUANT	4	Control Amp Speed
CONVENTION	IQUANT	1	Current Convention
ICHRANGE	IQUANT	2	Ich Range
ICHRANGEMODE	TOGGLE	T	Ich Auto Range
ICHOFFSETENABLE	TOGGLE	F	Ich Offset Enable
ICHOFFSET	QUANT	0	Ich Offset (V)
ICHFILTER	IQUANT	1	Ich Filter
VCHRANGE	IQUANT	2	Vch Range
VCHRANGEMODE	TOGGLE	T	Vch Auto Range
VCHOFFSETENABLE	TOGGLE	F	Vch Offset Enable
VCHOFFSET	QUANT	0	Vch Offset (V)
VCHFILTER	IQUANT	1	Vch Filter
IERANGELOWERLIMIT	IQUANT	9	I/E Range Lower Limit
IERANGEMODE	TOGGLE	F	I/E AutoRange
IERANGE	IQUANT	10	I/E Range
ACHSELECT	IQUANT	1	Ach Select
ACHRANGE	IQUANT	2	Ach Range
ACHOFFSETENABLE	TOGGLE	F	Ach Offset Enable
ACHOFFSET	QUANT	0	Ach Offset (V)
ACHFILTER	IQUANT	1	Ach Filter
CABLEID	IQUANT	14	Cable ID
DCCALDATE	LABEL	20-10-2016	DC Calibration Date
ACCALDATE	LABEL	12/3/2015	AC Calibration Date
FRAMEWORKVERSION	QUANT	7.01	Framework Version
INSTRUMENTVERSION	LABEL	4.00	Instrument Version
CURVE	TABLE	55
	Pt	T	Vf	Im	Vu	Pwr	Sig	Ach	Temp	IERange	Over
	#	s	V	A	V	W	V	V	deg C	#	bits
	0	0.013333	3.85864E-001	-6.01487E-003	0.00000E+000	-2.32092E-003	-3.59960E-001	-1.12130E+000	3.57660E+000	10	...........
	1	0.026667	3.74447E-001	-6.01617E-003	0.00000E+000	-2.25274E-003	-3.59960E-001	-1.12850E+000	3.57660E+000	10	...........
	2	0.04	3.63826E-001	-6.01228E-003	0.00000E+000	-2.18743E-003	-3.59960E-001	-1.12882E+000	3.57660E+000	10	...........
	3	0.053333	3.53776E-001	-6.01469E-003	0.00000E+000	-2.12785E-003	-3.59960E-001	-1.12134E+000	3.57660E+000	10	...........
	4	0.066667	3.44101E-001	-6.01343E-003	0.00000E+000	-2.06923E-003	-3.59960E-001	-1.12846E+000	3.57660E+000	10	...........
	5	0.08	3.34724E-001	-6.00753E-003	0.00000E+000	-2.01086E-003	-3.59960E-001	-1.12874E+000	3.57660E+000	10	...........
	6	0.093333	3.25569E-001	-6.01630E-003	0.00000E+000	-1.95872E-003	-3.59960E-001	-1.12120E+000	3.57660E+000	10	...........
	7	0.106667	3.16553E-001	-6.01435E-003	0.00000E+000	-1.90386E-003	-3.59960E-001	-1.12871E+000	3.57660E+000	10	...........
	8	0.12	3.07764E-001	-6.01761E-003	0.00000E+000	-1.85200E-003	-3.59960E-001	-1.12889E+000	3.57660E+000	10	...........
	9	0.133333	2.99104E-001	-6.01292E-003	0.00000E+000	-1.79849E-003	-3.59960E-001	-1.12169E+000	3.57660E+000	10	...........
	10	0.146667	2.90590E-001	-6.01254E-003	0.00000E+000	-1.74719E-003	-3.59960E-001	-1.12875E+000	3.57660E+000	10	...........
	11	0.16	2.82136E-001	-6.01869E-003	0.00000E+000	-1.69809E-003	-3.59960E-001	-1.12909E+000	3.57660E+000	10	...........
	12	0.173333	2.73856E-001	-6.01588E-003	0.00000E+000	-1.64749E-003	-3.59960E-001	-1.12163E+000	3.57660E+000	10	...........
	13	0.186667	2.65690E-001	-6.01692E-003	0.00000E+000	-1.59864E-003	-3.59960E-001	-1.12893E+000	3.57660E+000	10	...........
	14	0.2	2.57646E-001	-6.01669E-003	0.00000E+000	-1.55018E-003	-3.59960E-001	-1.12924E+000	3.57660E+000	10	...........
	15	0.213333	2.49647E-001	-6.01256E-003	0.00000E+000	-1.50102E-003	-3.59960E-001	-1.12211E+000	3.57660E+000	10	...........
	16	0.226667	2.41755E-001	-6.01514E-003	0.00000E+000	-1.45419E-003	-3.59960E-001	-1.12904E+000	3.57660E+000	10	...........
	17	0.24	2.33970E-001	-6.01792E-003	0.00000E+000	-1.40801E-003	-3.59960E-001	-1.12941E+000	3.57660E+000	10	...........
	18	0.253333	2.26301E-001	-6.01755E-003	0.00000E+000	-1.36178E-003	-3.59960E-001	-1.12218E+000	3.57660E+000	10	...........
	19	0.266667	2.18693E-001	-6.02041E-003	0.00000E+000	-1.31662E-003	-3.59960E-001	-1.12939E+000	3.57660E+000	10	...........
	20	0.28	2.11220E-001	-6.01280E-003	0.00000E+000	-1.27002E-003	-3.59960E-001	-1.12977E+000	3.57660E+000	10	...........
	21	0.293333	2.03852E-001	-6.01785E-003	0.00000E+000	-1.22675E-003	-3.59960E-001	-1.12226E+000	3.57660E+000	10	...........
	22	0.306667	1.96526E-001	-6.01467E-003	0.00000E+000	-1.18204E-003	-3.59960E-001	-1.12982E+000	3.57660E+000	10	...........
	23	0.32	1.89298E-001	-6.01707E-003	0.00000E+000	-1.13902E-003	-3.59960E-001	-1.12977E+000	3.57660E+000	10	...........
	24	0.333333	1.82138E-001	-6.01934E-003	0.00000E+000	-1.09635E-003	-3.59960E-001	-1.12251E+000	3.57660E+000	10	...........
	25	0.346667	1.75076E-001	-6.01109E-003	0.00000E+000	-1.05240E-003	-3.59960E-001	-1.12990E+000	3.57660E+000	10	...........
	26	0.36	1.68053E-001	-6.01434E-003	0.00000E+000	-1.01073E-003	-3.59960E-001	-1.13000E+000	3.57655E+000	10	...........
	27	0.373333	1.61127E-001	-6.01661E-003	0.00000E+000	-9.69440E-004	-3.59960E-001	-1.12242E+000	3.57640E+000	10	...........
	28	0.386667	1.54312E-001	-6.01385E-003	0.00000E+000	-9.28012E-004	-3.59960E-001	-1.12978E+000	3.57640E+000	10	...........
	29	0.4	1.47500E-001	-6.01724E-003	0.00000E+000	-8.87541E-004	-3.59960E-001	-1.12991E+000	3.57640E+000	10	...........
	30	0.413333	1.40779E-001	-6.01931E-003	0.00000E+000	-8.47393E-004	-3.59960E-001	-1.12251E+000	3.57640E+000	10	...........
	31	0.426667	1.34182E-001	-6.01878E-003	0.00000E+000	-8.07613E-004	-3.59960E-001	-1.12972E+000	3.57640E+000	10	...........
	32	0.44	1.27624E-001	-6.01741E-003	0.00000E+000	-7.67969E-004	-3.59960E-001	-1.12979E+000	3.57640E+000	10	...........
	33	0.453333	1.21138E-001	-6.01420E-003	0.00000E+000	-7.28550E-004	-3.59960E-001	-1.12257E+000	3.57640E+000	10	...........
	34	0.466667	1.14698E-001	-6.01623E-003	0.00000E+000	-6.90051E-004	-3.59960E-001	-1.13004E+000	3.57640E+000	10	...........
	35	0.48	1.08349E-001	-6.00925E-003	0.00000E+000	-6.51097E-004	-3.59960E-001	-1.12993E+000	3.57640E+000	10	...........
	36	0.493333	1.02082E-001	-6.01089E-003	0.00000E+000	-6.13603E-004	-3.59960E-001	-1.12264E+000	3.57640E+000	10	...........
	37	0.506667	9.58018E-002	-6.01855E-003	0.00000E+000	-5.76588E-004	-3.59960E-001	-1.12995E+000	3.57640E+000	10	...........
	38	0.52	8.96214E-002	-6.01752E-003	0.00000E+000	-5.39298E-004	-3.59960E-001	-1.12990E+000	3.57640E+000	10	...........
	39	0.533333	8.35080E-002	-6.01456E-003	0.00000E+000	-5.02264E-004	-3.59960E-001	-1.12288E+000	3.57640E+000	10	...........
	40	0.546667	7.74697E-002	-6.01164E-003	0.00000E+000	-4.65720E-004	-3.59960E-001	-1.13013E+000	3.57640E+000	10	...........
	41	0.56	7.14914E-002	-6.01961E-003	0.00000E+000	-4.30350E-004	-3.59960E-001	-1.12986E+000	3.57640E+000	10	...........
	42	0.573333	6.55608E-002	-6.02007E-003	0.00000E+000	-3.94681E-004	-3.59960E-001	-1.12272E+000	3.57640E+000	10	...........
	43	0.586667	5.97025E-002	-6.01324E-003	0.00000E+000	-3.59005E-004	-3.59960E-001	-1.13014E+000	3.57640E+000	10	...........
	44	0.6	5.38724E-002	-6.01525E-003	0.00000E+000	-3.24056E-004	-3.59960E-001	-1.13023E+000	3.57640E+000	10	...........
	45	0.613333	4.81198E-002	-6.01639E-003	0.00000E+000	-2.89508E-004	-3.59960E-001	-1.12291E+000	3.57640E+000	10	...........
	46	0.626667	4.24471E-002	-6.01532E-003	0.00000E+000	-2.55333E-004	-3.59960E-001	-1.13045E+000	3.57640E+000	10	...........
	47	0.64	3.68048E-002	-6.00641E-003	0.00000E+000	-2.21065E-004	-3.59960E-001	-1.13036E+000	3.57640E+000	10	...........
	48	0.653333	3.11984E-002	-6.01291E-003	0.00000E+000	-1.87593E-004	-3.59960E-001	-1.12322E+000	3.57640E+000	10	...........
	49	0.666667	2.56632E-002	-6.01728E-003	0.00000E+000	-1.54423E-004	-3.59960E-001	-1.13073E+000	3.57640E+000	10	...........
	50	0.68	2.01571E-002	-6.02007E-003	0.00000E+000	-1.21347E-004	-3.59960E-001	-1.13052E+000	3.57640E+000	10	...........
	51	0.693333	1.46619E-002	-6.01669E-003	0.00000E+000	-8.82160E-005	-3.59960E-001	-1.12301E+000	3.57640E+000	10	...........
	52	0.706667	9.24912E-003	-6.01580E-003	0.00000E+000	-5.56409E-005	-3.59960E-001	-1.13049E+000	3.57640E+000	10	...........
	53	0.72	3.93679E-003	-6.01085E-003	0.00000E+000	-2.36635E-005	-3.59960E-001	-1.13030E+000	3.57640E+000	10	...........
	54	0.725	2.74521E-004	-6.01328E-003	0.00000E+000	-1.65077E-006	-3.59960E-001	-1.12744E+000	3.57640E+000	10	...........
STARTTIMEOFFSET	QUANT	1202.315	Start Time Offset (s)
