EXPLAIN
TAG	PWR800_DISCHARGE
TITLE	LABEL	PWR Cyclic Charge Discharge (Cell) - Discharge Step	Test &Identifier
DATE	LABEL	22-6-2017	Date
TIME	LABEL	16:06:00	Time
NOTES	NOTES	3	&Notes...
	supercap test cell
	0.6mg
	6M KOH
PSTAT	PSTAT	IFC5000-01520	Potentiostat
CAPACITY	QUANT	1.00000E-003	Capacity (A-hr)
CELLTYPE	SELECTOR	1	&Cell Type
WORKINGCONNECTION	SELECTOR	0	&Working Lead
MAXDISCHARGETIME	VARIABLEANDUNITS	1.00000E+002	s	1.00000E+002	second(s)	Max &Discharge Time
DISCHARGEMODE	MULTIPARAM	0	6.00000E-003	&Discharge Mode	Constant Current	Amp(s)
SAMPLETIME	QUANT	1.00000E-002	Sa&mple Period (s)
DISCHARGESTOPAT1	MULTIPARAM	3	0.00000E+000	Discharge Stop At &1	Voltage < Limit	V
DISCHARGESTOPAT2	MULTIPARAM	0	0.00000E+000	Discharge Stop At &2	None	N/A
AESBHCSELECTOR	TOGGLE	F	Save Both Half Cells
IRCOMP	TOGGLE	F	IR &Measure
EOC	QUANT	0	Open Circuit (V)
SEQUENCER	TOGGLE	TRUE	Run as Sequence
PSTATMODEL	IQUANT	53	Pstat Model
PSTATSECTION	LABEL	IFC5000-01520	Pstat Section
PSTATSERIALNO	LABEL	01520	Pstat Serial Number
CTRLMODE	IQUANT	0	Control Mode
ELECTROMETER	IQUANT	1	RE=0 or CS=1
IESTAB	IQUANT	0	I/E Stability
CASPEED	IQUANT	4	Control Amp Speed
CONVENTION	IQUANT	1	Current Convention
ICHRANGE	IQUANT	2	Ich Range
ICHRANGEMODE	TOGGLE	T	Ich Auto Range
ICHOFFSETENABLE	TOGGLE	F	Ich Offset Enable
ICHOFFSET	QUANT	0	Ich Offset (V)
ICHFILTER	IQUANT	1	Ich Filter
VCHRANGE	IQUANT	2	Vch Range
VCHRANGEMODE	TOGGLE	T	Vch Auto Range
VCHOFFSETENABLE	TOGGLE	F	Vch Offset Enable
VCHOFFSET	QUANT	0	Vch Offset (V)
VCHFILTER	IQUANT	1	Vch Filter
IERANGELOWERLIMIT	IQUANT	9	I/E Range Lower Limit
IERANGEMODE	TOGGLE	F	I/E AutoRange
IERANGE	IQUANT	10	I/E Range
ACHSELECT	IQUANT	1	Ach Select
ACHRANGE	IQUANT	2	Ach Range
ACHOFFSETENABLE	TOGGLE	F	Ach Offset Enable
ACHOFFSET	QUANT	0	Ach Offset (V)
ACHFILTER	IQUANT	1	Ach Filter
CABLEID	IQUANT	14	Cable ID
DCCALDATE	LABEL	20-10-2016	DC Calibration Date
ACCALDATE	LABEL	12/3/2015	AC Calibration Date
FRAMEWORKVERSION	QUANT	7.01	Framework Version
INSTRUMENTVERSION	LABEL	4.00	Instrument Version
CURVE	TABLE	54
	Pt	T	Vf	Im	Vu	Pwr	Sig	Ach	Temp	IERange	Over
	#	s	V	A	V	W	V	V	deg C	#	bits
	0	0.013333	3.84017E-001	-6.01792E-003	0.00000E+000	-2.31098E-003	-3.59960E-001	-1.13230E+000	3.57710E+000	10	...........
	1	0.026667	3.72588E-001	-6.01469E-003	0.00000E+000	-2.24100E-003	-3.59960E-001	-1.13826E+000	3.57710E+000	10	...........
	2	0.04	3.61938E-001	-6.01865E-003	0.00000E+000	-2.17837E-003	-3.59960E-001	-1.12866E+000	3.57710E+000	10	...........
	3	0.053333	3.51899E-001	-6.01696E-003	0.00000E+000	-2.11736E-003	-3.59960E-001	-1.13262E+000	3.57710E+000	10	...........
	4	0.066667	3.42184E-001	-6.01722E-003	0.00000E+000	-2.05899E-003	-3.59960E-001	-1.13878E+000	3.57710E+000	10	...........
	5	0.08	3.32762E-001	-6.02062E-003	0.00000E+000	-2.00343E-003	-3.59960E-001	-1.12895E+000	3.57710E+000	10	...........
	6	0.093333	3.23612E-001	-6.01749E-003	0.00000E+000	-1.94733E-003	-3.59960E-001	-1.13313E+000	3.57710E+000	10	...........
	7	0.106667	3.14596E-001	-6.01986E-003	0.00000E+000	-1.89383E-003	-3.59960E-001	-1.13892E+000	3.57710E+000	10	...........
	8	0.12	3.05744E-001	-6.01445E-003	0.00000E+000	-1.83888E-003	-3.59960E-001	-1.12912E+000	3.57710E+000	10	...........
	9	0.133333	2.97077E-001	-6.01457E-003	0.00000E+000	-1.78679E-003	-3.59960E-001	-1.13306E+000	3.57710E+000	10	...........
	10	0.146667	2.88556E-001	-6.01409E-003	0.00000E+000	-1.73540E-003	-3.59960E-001	-1.13885E+000	3.57710E+000	10	...........
	11	0.16	2.80123E-001	-6.01398E-003	0.00000E+000	-1.68465E-003	-3.59960E-001	-1.12907E+000	3.57710E+000	10	...........
	12	0.173333	2.71799E-001	-6.01461E-003	0.00000E+000	-1.63476E-003	-3.59960E-001	-1.13337E+000	3.57710E+000	10	...........
	13	0.186667	2.63585E-001	-6.01303E-003	0.00000E+000	-1.58494E-003	-3.59960E-001	-1.13885E+000	3.57710E+000	10	...........
	14	0.2	2.55488E-001	-6.01157E-003	0.00000E+000	-1.53588E-003	-3.59960E-001	-1.12925E+000	3.57710E+000	10	...........
	15	0.213333	2.47504E-001	-6.01468E-003	0.00000E+000	-1.48866E-003	-3.59960E-001	-1.13338E+000	3.57710E+000	10	...........
	16	0.226667	2.39609E-001	-6.01420E-003	0.00000E+000	-1.44106E-003	-3.59960E-001	-1.13907E+000	3.57710E+000	10	...........
	17	0.24	2.31827E-001	-6.01728E-003	0.00000E+000	-1.39497E-003	-3.59960E-001	-1.12948E+000	3.57710E+000	10	...........
	18	0.253333	2.24153E-001	-6.01252E-003	0.00000E+000	-1.34773E-003	-3.59960E-001	-1.13364E+000	3.57710E+000	10	...........
	19	0.266667	2.16560E-001	-6.01660E-003	0.00000E+000	-1.30296E-003	-3.59960E-001	-1.13901E+000	3.57710E+000	10	...........
	20	0.28	2.09033E-001	-6.01211E-003	0.00000E+000	-1.25673E-003	-3.59960E-001	-1.12963E+000	3.57710E+000	10	...........
	21	0.293333	2.01650E-001	-6.01263E-003	0.00000E+000	-1.21244E-003	-3.59960E-001	-1.13382E+000	3.57710E+000	10	...........
	22	0.306667	1.94297E-001	-6.01552E-003	0.00000E+000	-1.16880E-003	-3.59960E-001	-1.13946E+000	3.57710E+000	10	...........
	23	0.32	1.87024E-001	-6.01651E-003	0.00000E+000	-1.12523E-003	-3.59960E-001	-1.12956E+000	3.57710E+000	10	...........
	24	0.333333	1.79844E-001	-6.01175E-003	0.00000E+000	-1.08117E-003	-3.59960E-001	-1.13387E+000	3.57710E+000	10	...........
	25	0.346667	1.72742E-001	-6.01578E-003	0.00000E+000	-1.03918E-003	-3.59960E-001	-1.13942E+000	3.57710E+000	10	...........
	26	0.36	1.65719E-001	-6.01216E-003	0.00000E+000	-9.96331E-004	-3.59960E-001	-1.13009E+000	3.57710E+000	10	...........
	27	0.373333	1.58796E-001	-6.01692E-003	0.00000E+000	-9.55463E-004	-3.59960E-001	-1.13445E+000	3.57710E+000	10	...........
	28	0.386667	1.51927E-001	-6.01667E-003	0.00000E+000	-9.14098E-004	-3.59960E-001	-1.13982E+000	3.57710E+000	10	...........
	29	0.4	1.45150E-001	-6.01283E-003	0.00000E+000	-8.72763E-004	-3.59960E-001	-1.13025E+000	3.57710E+000	10	...........
	30	0.413333	1.38453E-001	-6.01415E-003	0.00000E+000	-8.32680E-004	-3.59960E-001	-1.13448E+000	3.57710E+000	10	...........
	31	0.426667	1.31807E-001	-6.01393E-003	0.00000E+000	-7.92681E-004	-3.59960E-001	-1.13973E+000	3.57710E+000	10	...........
	32	0.44	1.25240E-001	-6.01827E-003	0.00000E+000	-7.53730E-004	-3.59960E-001	-1.13039E+000	3.57710E+000	10	...........
	33	0.453333	1.18771E-001	-6.01382E-003	0.00000E+000	-7.14265E-004	-3.59960E-001	-1.13479E+000	3.57710E+000	10	...........
	34	0.466667	1.12344E-001	-6.01847E-003	0.00000E+000	-6.76140E-004	-3.59960E-001	-1.13946E+000	3.57710E+000	10	...........
	35	0.48	1.05982E-001	-6.01309E-003	0.00000E+000	-6.37278E-004	-3.59960E-001	-1.13004E+000	3.57710E+000	10	...........
	36	0.493333	9.96859E-002	-6.01307E-003	0.00000E+000	-5.99418E-004	-3.59960E-001	-1.13451E+000	3.57710E+000	10	...........
	37	0.506667	9.34337E-002	-6.01273E-003	0.00000E+000	-5.61792E-004	-3.59960E-001	-1.13976E+000	3.57710E+000	10	...........
	38	0.52	8.72403E-002	-6.01647E-003	0.00000E+000	-5.24878E-004	-3.59960E-001	-1.13030E+000	3.57710E+000	10	...........
	39	0.533333	8.11538E-002	-6.01345E-003	0.00000E+000	-4.88014E-004	-3.59960E-001	-1.13451E+000	3.57710E+000	10	...........
	40	0.546667	7.50838E-002	-6.01527E-003	0.00000E+000	-4.51649E-004	-3.59960E-001	-1.13973E+000	3.57710E+000	10	...........
	41	0.56	6.91124E-002	-6.01534E-003	0.00000E+000	-4.15735E-004	-3.59960E-001	-1.13040E+000	3.57710E+000	10	...........
	42	0.573333	6.31554E-002	-6.01446E-003	0.00000E+000	-3.79846E-004	-3.59960E-001	-1.13489E+000	3.57710E+000	10	...........
	43	0.586667	5.73050E-002	-6.00935E-003	0.00000E+000	-3.44366E-004	-3.59960E-001	-1.13989E+000	3.57710E+000	10	...........
	44	0.6	5.14907E-002	-6.01448E-003	0.00000E+000	-3.09690E-004	-3.59960E-001	-1.13037E+000	3.57710E+000	10	...........
	45	0.613333	4.57436E-002	-6.01432E-003	0.00000E+000	-2.75116E-004	-3.59960E-001	-1.13515E+000	3.57710E+000	10	...........
	46	0.626667	4.00525E-002	-6.01254E-003	0.00000E+000	-2.40818E-004	-3.59960E-001	-1.13993E+000	3.57710E+000	10	...........
	47	0.64	3.44085E-002	-6.01297E-003	0.00000E+000	-2.06897E-004	-3.59960E-001	-1.13068E+000	3.57710E+000	10	...........
	48	0.653333	2.88107E-002	-6.01026E-003	0.00000E+000	-1.73160E-004	-3.59960E-001	-1.13505E+000	3.57710E+000	10	...........
	49	0.666667	2.32618E-002	-6.01366E-003	0.00000E+000	-1.39889E-004	-3.59960E-001	-1.13985E+000	3.57710E+000	10	...........
	50	0.68	1.78019E-002	-6.01696E-003	0.00000E+000	-1.07113E-004	-3.59960E-001	-1.13069E+000	3.57710E+000	10	...........
	51	0.693333	1.22983E-002	-6.01596E-003	0.00000E+000	-7.39861E-005	-3.59960E-001	-1.13536E+000	3.57710E+000	10	...........
	52	0.706667	6.89082E-003	-6.01251E-003	0.00000E+000	-4.14312E-005	-3.59960E-001	-1.14020E+000	3.57710E+000	10	...........
	53	0.718333	1.85041E-003	-6.01393E-003	0.00000E+000	-1.11283E-005	-3.59960E-001	-1.12909E+000	3.57710E+000	10	...........
STARTTIMEOFFSET	QUANT	1254.493	Start Time Offset (s)
