EXPLAIN
TAG	PWR800_DISCHARGE
TITLE	LABEL	PWR Cyclic Charge Discharge (Cell) - Discharge Step	Test &Identifier
DATE	LABEL	22-6-2017	Date
TIME	LABEL	16:08:20	Time
NOTES	NOTES	3	&Notes...
	supercap test cell
	0.6mg
	6M KOH
PSTAT	PSTAT	IFC5000-01520	Potentiostat
CAPACITY	QUANT	1.00000E-003	Capacity (A-hr)
CELLTYPE	SELECTOR	1	&Cell Type
WORKINGCONNECTION	SELECTOR	0	&Working Lead
MAXDISCHARGETIME	VARIABLEANDUNITS	1.00000E+002	s	1.00000E+002	second(s)	Max &Discharge Time
DISCHARGEMODE	MULTIPARAM	0	6.00000E-003	&Discharge Mode	Constant Current	Amp(s)
SAMPLETIME	QUANT	1.00000E-002	Sa&mple Period (s)
DISCHARGESTOPAT1	MULTIPARAM	3	0.00000E+000	Discharge Stop At &1	Voltage < Limit	V
DISCHARGESTOPAT2	MULTIPARAM	0	0.00000E+000	Discharge Stop At &2	None	N/A
AESBHCSELECTOR	TOGGLE	F	Save Both Half Cells
IRCOMP	TOGGLE	F	IR &Measure
EOC	QUANT	0	Open Circuit (V)
SEQUENCER	TOGGLE	TRUE	Run as Sequence
PSTATMODEL	IQUANT	53	Pstat Model
PSTATSECTION	LABEL	IFC5000-01520	Pstat Section
PSTATSERIALNO	LABEL	01520	Pstat Serial Number
CTRLMODE	IQUANT	0	Control Mode
ELECTROMETER	IQUANT	1	RE=0 or CS=1
IESTAB	IQUANT	0	I/E Stability
CASPEED	IQUANT	4	Control Amp Speed
CONVENTION	IQUANT	1	Current Convention
ICHRANGE	IQUANT	2	Ich Range
ICHRANGEMODE	TOGGLE	T	Ich Auto Range
ICHOFFSETENABLE	TOGGLE	F	Ich Offset Enable
ICHOFFSET	QUANT	0	Ich Offset (V)
ICHFILTER	IQUANT	1	Ich Filter
VCHRANGE	IQUANT	2	Vch Range
VCHRANGEMODE	TOGGLE	T	Vch Auto Range
VCHOFFSETENABLE	TOGGLE	F	Vch Offset Enable
VCHOFFSET	QUANT	0	Vch Offset (V)
VCHFILTER	IQUANT	1	Vch Filter
IERANGELOWERLIMIT	IQUANT	9	I/E Range Lower Limit
IERANGEMODE	TOGGLE	F	I/E AutoRange
IERANGE	IQUANT	10	I/E Range
ACHSELECT	IQUANT	1	Ach Select
ACHRANGE	IQUANT	2	Ach Range
ACHOFFSETENABLE	TOGGLE	F	Ach Offset Enable
ACHOFFSET	QUANT	0	Ach Offset (V)
ACHFILTER	IQUANT	1	Ach Filter
CABLEID	IQUANT	14	Cable ID
DCCALDATE	LABEL	20-10-2016	DC Calibration Date
ACCALDATE	LABEL	12/3/2015	AC Calibration Date
FRAMEWORKVERSION	QUANT	7.01	Framework Version
INSTRUMENTVERSION	LABEL	4.00	Instrument Version
CURVE	TABLE	54
	Pt	T	Vf	Im	Vu	Pwr	Sig	Ach	Temp	IERange	Over
	#	s	V	A	V	W	V	V	deg C	#	bits
	0	0.013333	3.81591E-001	-6.01221E-003	0.00000E+000	-2.29421E-003	-3.59960E-001	-1.13229E+000	3.57750E+000	10	...........
	1	0.026667	3.70064E-001	-6.01834E-003	0.00000E+000	-2.22717E-003	-3.59960E-001	-1.12873E+000	3.57750E+000	10	...........
	2	0.04	3.59426E-001	-6.01150E-003	0.00000E+000	-2.16069E-003	-3.59960E-001	-1.13936E+000	3.57750E+000	10	...........
	3	0.053333	3.49324E-001	-6.01200E-003	0.00000E+000	-2.10014E-003	-3.59960E-001	-1.13217E+000	3.57750E+000	10	...........
	4	0.066667	3.39557E-001	-6.01365E-003	0.00000E+000	-2.04198E-003	-3.59960E-001	-1.12846E+000	3.57750E+000	10	...........
	5	0.08	3.30085E-001	-6.01520E-003	0.00000E+000	-1.98553E-003	-3.59960E-001	-1.13923E+000	3.57750E+000	10	...........
	6	0.093333	3.20865E-001	-6.01767E-003	0.00000E+000	-1.93086E-003	-3.59960E-001	-1.13260E+000	3.57750E+000	10	...........
	7	0.106667	3.11819E-001	-6.01362E-003	0.00000E+000	-1.87516E-003	-3.59960E-001	-1.12882E+000	3.57750E+000	10	...........
	8	0.12	3.02947E-001	-6.01324E-003	0.00000E+000	-1.82169E-003	-3.59960E-001	-1.13945E+000	3.57750E+000	10	...........
	9	0.133333	2.94205E-001	-6.01148E-003	0.00000E+000	-1.76861E-003	-3.59960E-001	-1.13264E+000	3.57750E+000	10	...........
	10	0.146667	2.85622E-001	-6.01687E-003	0.00000E+000	-1.71855E-003	-3.59960E-001	-1.12902E+000	3.57750E+000	10	...........
	11	0.16	2.77145E-001	-6.01449E-003	0.00000E+000	-1.66689E-003	-3.59960E-001	-1.13968E+000	3.57750E+000	10	...........
	12	0.173333	2.68809E-001	-6.01633E-003	0.00000E+000	-1.61725E-003	-3.59960E-001	-1.13299E+000	3.57750E+000	10	...........
	13	0.186667	2.60585E-001	-6.01542E-003	0.00000E+000	-1.56753E-003	-3.59960E-001	-1.12918E+000	3.57750E+000	10	...........
	14	0.2	2.52458E-001	-6.00837E-003	0.00000E+000	-1.51686E-003	-3.59960E-001	-1.13988E+000	3.57750E+000	10	...........
	15	0.213333	2.44429E-001	-6.01590E-003	0.00000E+000	-1.47046E-003	-3.59960E-001	-1.13329E+000	3.57750E+000	10	...........
	16	0.226667	2.36485E-001	-6.01521E-003	0.00000E+000	-1.42251E-003	-3.59960E-001	-1.12938E+000	3.57750E+000	10	...........
	17	0.24	2.28655E-001	-6.01736E-003	0.00000E+000	-1.37590E-003	-3.59960E-001	-1.14021E+000	3.57750E+000	10	...........
	18	0.253333	2.20951E-001	-6.01459E-003	0.00000E+000	-1.32893E-003	-3.59960E-001	-1.13334E+000	3.57750E+000	10	...........
	19	0.266667	2.13300E-001	-6.01355E-003	0.00000E+000	-1.28269E-003	-3.59960E-001	-1.12972E+000	3.57750E+000	10	...........
	20	0.28	2.05795E-001	-6.01449E-003	0.00000E+000	-1.23775E-003	-3.59960E-001	-1.14017E+000	3.57750E+000	10	...........
	21	0.293333	1.98360E-001	-6.01321E-003	0.00000E+000	-1.19278E-003	-3.59960E-001	-1.13372E+000	3.57750E+000	10	...........
	22	0.306667	1.90991E-001	-6.01721E-003	0.00000E+000	-1.14923E-003	-3.59960E-001	-1.12989E+000	3.57750E+000	10	...........
	23	0.32	1.83718E-001	-6.01498E-003	0.00000E+000	-1.10506E-003	-3.59960E-001	-1.14061E+000	3.57750E+000	10	...........
	24	0.333333	1.76541E-001	-6.01373E-003	0.00000E+000	-1.06167E-003	-3.59960E-001	-1.13368E+000	3.57750E+000	10	...........
	25	0.346667	1.69415E-001	-6.01141E-003	0.00000E+000	-1.01842E-003	-3.59960E-001	-1.12986E+000	3.57750E+000	10	...........
	26	0.36	1.62393E-001	-6.01689E-003	0.00000E+000	-9.77101E-004	-3.59960E-001	-1.14033E+000	3.57750E+000	10	...........
	27	0.373333	1.55435E-001	-6.01225E-003	0.00000E+000	-9.34516E-004	-3.59960E-001	-1.13388E+000	3.57750E+000	10	...........
	28	0.386667	1.48542E-001	-6.01234E-003	0.00000E+000	-8.93082E-004	-3.59960E-001	-1.12976E+000	3.57750E+000	10	...........
	29	0.4	1.41733E-001	-6.01460E-003	0.00000E+000	-8.52468E-004	-3.59960E-001	-1.14034E+000	3.57750E+000	10	...........
	30	0.413333	1.35001E-001	-6.01097E-003	0.00000E+000	-8.11485E-004	-3.59960E-001	-1.13381E+000	3.57750E+000	10	...........
	31	0.426667	1.28351E-001	-6.01315E-003	0.00000E+000	-7.71792E-004	-3.59960E-001	-1.12984E+000	3.57661E+000	10	...........
	32	0.44	1.21752E-001	-6.01846E-003	0.00000E+000	-7.32759E-004	-3.59960E-001	-1.14044E+000	3.57660E+000	10	...........
	33	0.453333	1.15240E-001	-6.01460E-003	0.00000E+000	-6.93122E-004	-3.59960E-001	-1.13392E+000	3.57660E+000	10	...........
	34	0.466667	1.08822E-001	-6.01812E-003	0.00000E+000	-6.54905E-004	-3.59960E-001	-1.12994E+000	3.57660E+000	10	...........
	35	0.48	1.02422E-001	-6.01415E-003	0.00000E+000	-6.15979E-004	-3.59960E-001	-1.14047E+000	3.57660E+000	10	...........
	36	0.493333	9.61091E-002	-6.01410E-003	0.00000E+000	-5.78010E-004	-3.59960E-001	-1.13402E+000	3.57660E+000	10	...........
	37	0.506667	8.98180E-002	-6.01279E-003	0.00000E+000	-5.40057E-004	-3.59960E-001	-1.13024E+000	3.57660E+000	10	...........
	38	0.52	8.36017E-002	-6.01711E-003	0.00000E+000	-5.03041E-004	-3.59960E-001	-1.14069E+000	3.57660E+000	10	...........
	39	0.533333	7.74541E-002	-6.01511E-003	0.00000E+000	-4.65895E-004	-3.59960E-001	-1.13402E+000	3.57660E+000	10	...........
	40	0.546667	7.13920E-002	-6.00996E-003	0.00000E+000	-4.29063E-004	-3.59960E-001	-1.12999E+000	3.57660E+000	10	...........
	41	0.56	6.53774E-002	-6.01089E-003	0.00000E+000	-3.92976E-004	-3.59960E-001	-1.14071E+000	3.57660E+000	10	...........
	42	0.573333	5.94061E-002	-6.01399E-003	0.00000E+000	-3.57268E-004	-3.59960E-001	-1.13445E+000	3.57660E+000	10	...........
	43	0.586667	5.35503E-002	-6.01862E-003	0.00000E+000	-3.22299E-004	-3.59960E-001	-1.13018E+000	3.57660E+000	10	...........
	44	0.6	4.77620E-002	-6.01678E-003	0.00000E+000	-2.87373E-004	-3.59960E-001	-1.14052E+000	3.57660E+000	10	...........
	45	0.613333	4.19907E-002	-6.01127E-003	0.00000E+000	-2.52417E-004	-3.59960E-001	-1.13423E+000	3.57660E+000	10	...........
	46	0.626667	3.62776E-002	-6.01764E-003	0.00000E+000	-2.18306E-004	-3.59960E-001	-1.13026E+000	3.57660E+000	10	...........
	47	0.64	3.06150E-002	-6.00982E-003	0.00000E+000	-1.83991E-004	-3.59960E-001	-1.14064E+000	3.57660E+000	10	...........
	48	0.653333	2.50278E-002	-6.01321E-003	0.00000E+000	-1.50497E-004	-3.59960E-001	-1.13435E+000	3.57660E+000	10	...........
	49	0.666667	1.94741E-002	-6.01558E-003	0.00000E+000	-1.17148E-004	-3.59960E-001	-1.13019E+000	3.57660E+000	10	...........
	50	0.68	1.38858E-002	-6.01480E-003	0.00000E+000	-8.35205E-005	-3.59960E-001	-1.14034E+000	3.57660E+000	10	...........
	51	0.693333	8.43903E-003	-6.01370E-003	0.00000E+000	-5.07498E-005	-3.59960E-001	-1.13414E+000	3.57660E+000	10	...........
	52	0.706667	3.06565E-003	-6.01150E-003	0.00000E+000	-1.84291E-005	-3.59960E-001	-1.13005E+000	3.57660E+000	10	...........
	53	0.71	-2.87048E-004	-6.02196E-003	0.00000E+000	1.72859E-006	-3.59960E-001	-1.14415E+000	3.57660E+000	10	...........
STARTTIMEOFFSET	QUANT	1344.864	Start Time Offset (s)
