EXPLAIN
TAG	PWR800_DISCHARGE
TITLE	LABEL	PWR Cyclic Charge Discharge (Cell) - Discharge Step	Test &Identifier
DATE	LABEL	22-6-2017	Date
TIME	LABEL	16:09:40	Time
NOTES	NOTES	3	&Notes...
	supercap test cell
	0.6mg
	6M KOH
PSTAT	PSTAT	IFC5000-01520	Potentiostat
CAPACITY	QUANT	1.00000E-003	Capacity (A-hr)
CELLTYPE	SELECTOR	1	&Cell Type
WORKINGCONNECTION	SELECTOR	0	&Working Lead
MAXDISCHARGETIME	VARIABLEANDUNITS	1.00000E+002	s	1.00000E+002	second(s)	Max &Discharge Time
DISCHARGEMODE	MULTIPARAM	0	6.00000E-003	&Discharge Mode	Constant Current	Amp(s)
SAMPLETIME	QUANT	1.00000E-002	Sa&mple Period (s)
DISCHARGESTOPAT1	MULTIPARAM	3	0.00000E+000	Discharge Stop At &1	Voltage < Limit	V
DISCHARGESTOPAT2	MULTIPARAM	0	0.00000E+000	Discharge Stop At &2	None	N/A
AESBHCSELECTOR	TOGGLE	F	Save Both Half Cells
IRCOMP	TOGGLE	F	IR &Measure
EOC	QUANT	0	Open Circuit (V)
SEQUENCER	TOGGLE	TRUE	Run as Sequence
PSTATMODEL	IQUANT	53	Pstat Model
PSTATSECTION	LABEL	IFC5000-01520	Pstat Section
PSTATSERIALNO	LABEL	01520	Pstat Serial Number
CTRLMODE	IQUANT	0	Control Mode
ELECTROMETER	IQUANT	1	RE=0 or CS=1
IESTAB	IQUANT	0	I/E Stability
CASPEED	IQUANT	4	Control Amp Speed
CONVENTION	IQUANT	1	Current Convention
ICHRANGE	IQUANT	2	Ich Range
ICHRANGEMODE	TOGGLE	T	Ich Auto Range
ICHOFFSETENABLE	TOGGLE	F	Ich Offset Enable
ICHOFFSET	QUANT	0	Ich Offset (V)
ICHFILTER	IQUANT	1	Ich Filter
VCHRANGE	IQUANT	2	Vch Range
VCHRANGEMODE	TOGGLE	T	Vch Auto Range
VCHOFFSETENABLE	TOGGLE	F	Vch Offset Enable
VCHOFFSET	QUANT	0	Vch Offset (V)
VCHFILTER	IQUANT	1	Vch Filter
IERANGELOWERLIMIT	IQUANT	9	I/E Range Lower Limit
IERANGEMODE	TOGGLE	F	I/E AutoRange
IERANGE	IQUANT	10	I/E Range
ACHSELECT	IQUANT	1	Ach Select
ACHRANGE	IQUANT	2	Ach Range
ACHOFFSETENABLE	TOGGLE	F	Ach Offset Enable
ACHOFFSET	QUANT	0	Ach Offset (V)
ACHFILTER	IQUANT	1	Ach Filter
CABLEID	IQUANT	14	Cable ID
DCCALDATE	LABEL	20-10-2016	DC Calibration Date
ACCALDATE	LABEL	12/3/2015	AC Calibration Date
FRAMEWORKVERSION	QUANT	7.01	Framework Version
INSTRUMENTVERSION	LABEL	4.00	Instrument Version
CURVE	TABLE	53
	Pt	T	Vf	Im	Vu	Pwr	Sig	Ach	Temp	IERange	Over
	#	s	V	A	V	W	V	V	deg C	#	bits
	0	0.013333	3.80162E-001	-6.01504E-003	0.00000E+000	-2.28669E-003	-3.59960E-001	-1.12758E+000	3.57780E+000	10	...........
	1	0.026667	3.68611E-001	-6.01652E-003	0.00000E+000	-2.21775E-003	-3.59960E-001	-1.13329E+000	3.57780E+000	10	...........
	2	0.04	3.57861E-001	-6.01648E-003	0.00000E+000	-2.15306E-003	-3.59960E-001	-1.13649E+000	3.57780E+000	10	...........
	3	0.053333	3.47712E-001	-6.01089E-003	0.00000E+000	-2.09006E-003	-3.59960E-001	-1.12804E+000	3.57780E+000	10	...........
	4	0.066667	3.37950E-001	-6.01197E-003	0.00000E+000	-2.03175E-003	-3.59960E-001	-1.13357E+000	3.57780E+000	10	...........
	5	0.08	3.28439E-001	-6.02108E-003	0.00000E+000	-1.97756E-003	-3.59960E-001	-1.13648E+000	3.57780E+000	10	...........
	6	0.093333	3.19193E-001	-6.01410E-003	0.00000E+000	-1.91966E-003	-3.59960E-001	-1.12814E+000	3.57780E+000	10	...........
	7	0.106667	3.10131E-001	-6.01365E-003	0.00000E+000	-1.86502E-003	-3.59960E-001	-1.13394E+000	3.57780E+000	10	...........
	8	0.12	3.01228E-001	-6.01309E-003	0.00000E+000	-1.81131E-003	-3.59960E-001	-1.13694E+000	3.57780E+000	10	...........
	9	0.133333	2.92475E-001	-6.01232E-003	0.00000E+000	-1.75846E-003	-3.59960E-001	-1.12870E+000	3.57780E+000	10	...........
	10	0.146667	2.83811E-001	-6.01533E-003	0.00000E+000	-1.70722E-003	-3.59960E-001	-1.13403E+000	3.57780E+000	10	...........
	11	0.16	2.75272E-001	-6.01210E-003	0.00000E+000	-1.65496E-003	-3.59960E-001	-1.13719E+000	3.57780E+000	10	...........
	12	0.173333	2.66874E-001	-6.01144E-003	0.00000E+000	-1.60430E-003	-3.59960E-001	-1.12897E+000	3.57780E+000	10	...........
	13	0.186667	2.58637E-001	-6.01503E-003	0.00000E+000	-1.55571E-003	-3.59960E-001	-1.13475E+000	3.57780E+000	10	...........
	14	0.2	2.50488E-001	-6.01154E-003	0.00000E+000	-1.50582E-003	-3.59960E-001	-1.13755E+000	3.57780E+000	10	...........
	15	0.213333	2.42422E-001	-6.01515E-003	0.00000E+000	-1.45821E-003	-3.59960E-001	-1.12879E+000	3.57780E+000	10	...........
	16	0.226667	2.34470E-001	-6.01990E-003	0.00000E+000	-1.41148E-003	-3.59960E-001	-1.13445E+000	3.57780E+000	10	...........
	17	0.24	2.26637E-001	-6.01368E-003	0.00000E+000	-1.36292E-003	-3.59960E-001	-1.13742E+000	3.57780E+000	10	...........
	18	0.253333	2.18888E-001	-6.01784E-003	0.00000E+000	-1.31723E-003	-3.59960E-001	-1.12925E+000	3.57780E+000	10	...........
	19	0.266667	2.11255E-001	-6.01565E-003	0.00000E+000	-1.27084E-003	-3.59960E-001	-1.13494E+000	3.57780E+000	10	...........
	20	0.28	2.03709E-001	-6.01390E-003	0.00000E+000	-1.22508E-003	-3.59960E-001	-1.13743E+000	3.57780E+000	10	...........
	21	0.293333	1.96235E-001	-6.01765E-003	0.00000E+000	-1.18088E-003	-3.59960E-001	-1.12917E+000	3.57780E+000	10	...........
	22	0.306667	1.88877E-001	-6.01778E-003	0.00000E+000	-1.13662E-003	-3.59960E-001	-1.13505E+000	3.57780E+000	10	...........
	23	0.32	1.81583E-001	-6.01533E-003	0.00000E+000	-1.09228E-003	-3.59960E-001	-1.13788E+000	3.57780E+000	10	...........
	24	0.333333	1.74322E-001	-6.01163E-003	0.00000E+000	-1.04796E-003	-3.59960E-001	-1.12930E+000	3.57780E+000	10	...........
	25	0.346667	1.67166E-001	-6.01741E-003	0.00000E+000	-1.00591E-003	-3.59960E-001	-1.13490E+000	3.57780E+000	10	...........
	26	0.36	1.60140E-001	-6.01696E-003	0.00000E+000	-9.63556E-004	-3.59960E-001	-1.13741E+000	3.57780E+000	10	...........
	27	0.373333	1.53160E-001	-6.01716E-003	0.00000E+000	-9.21589E-004	-3.59960E-001	-1.12945E+000	3.57780E+000	10	...........
	28	0.386667	1.46266E-001	-6.01294E-003	0.00000E+000	-8.79490E-004	-3.59960E-001	-1.13535E+000	3.57780E+000	10	...........
	29	0.4	1.39459E-001	-6.01917E-003	0.00000E+000	-8.39425E-004	-3.59960E-001	-1.13759E+000	3.57780E+000	10	...........
	30	0.413333	1.32689E-001	-6.01643E-003	0.00000E+000	-7.98312E-004	-3.59960E-001	-1.12947E+000	3.57780E+000	10	...........
	31	0.426667	1.26005E-001	-6.01321E-003	0.00000E+000	-7.57696E-004	-3.59960E-001	-1.13559E+000	3.57780E+000	10	...........
	32	0.44	1.19391E-001	-6.01516E-003	0.00000E+000	-7.18159E-004	-3.59960E-001	-1.13818E+000	3.57780E+000	10	...........
	33	0.453333	1.12881E-001	-6.01489E-003	0.00000E+000	-6.78965E-004	-3.59960E-001	-1.12992E+000	3.57780E+000	10	...........
	34	0.466667	1.06465E-001	-6.01171E-003	0.00000E+000	-6.40035E-004	-3.59960E-001	-1.13603E+000	3.57780E+000	10	...........
	35	0.48	1.00062E-001	-6.01317E-003	0.00000E+000	-6.01690E-004	-3.59960E-001	-1.13801E+000	3.57780E+000	10	...........
	36	0.493333	9.37220E-002	-6.01647E-003	0.00000E+000	-5.63875E-004	-3.59960E-001	-1.13000E+000	3.57780E+000	10	...........
	37	0.506667	8.74823E-002	-6.01815E-003	0.00000E+000	-5.26481E-004	-3.59960E-001	-1.13626E+000	3.57780E+000	10	...........
	38	0.52	8.12850E-002	-6.01214E-003	0.00000E+000	-4.88697E-004	-3.59960E-001	-1.13843E+000	3.57780E+000	10	...........
	39	0.533333	7.51367E-002	-6.01942E-003	0.00000E+000	-4.52279E-004	-3.59960E-001	-1.12995E+000	3.57780E+000	10	...........
	40	0.546667	6.90849E-002	-6.01667E-003	0.00000E+000	-4.15661E-004	-3.59960E-001	-1.13598E+000	3.57780E+000	10	...........
	41	0.56	6.30886E-002	-6.01761E-003	0.00000E+000	-3.79643E-004	-3.59960E-001	-1.13808E+000	3.57780E+000	10	...........
	42	0.573333	5.71561E-002	-6.01761E-003	0.00000E+000	-3.43943E-004	-3.59960E-001	-1.12999E+000	3.57780E+000	10	...........
	43	0.586667	5.12511E-002	-6.01110E-003	0.00000E+000	-3.08076E-004	-3.59960E-001	-1.13619E+000	3.57780E+000	10	...........
	44	0.6	4.54654E-002	-6.01658E-003	0.00000E+000	-2.73546E-004	-3.59960E-001	-1.13844E+000	3.57780E+000	10	...........
	45	0.613333	3.96807E-002	-6.01491E-003	0.00000E+000	-2.38676E-004	-3.59960E-001	-1.13011E+000	3.57780E+000	10	...........
	46	0.626667	3.39654E-002	-6.01187E-003	0.00000E+000	-2.04196E-004	-3.59960E-001	-1.13647E+000	3.57780E+000	10	...........
	47	0.64	2.82852E-002	-6.01363E-003	0.00000E+000	-1.70097E-004	-3.59960E-001	-1.13839E+000	3.57780E+000	10	...........
	48	0.653333	2.26968E-002	-6.01430E-003	0.00000E+000	-1.36505E-004	-3.59960E-001	-1.13054E+000	3.57780E+000	10	...........
	49	0.666667	1.71402E-002	-6.01019E-003	0.00000E+000	-1.03016E-004	-3.59960E-001	-1.13675E+000	3.57780E+000	10	...........
	50	0.68	1.16239E-002	-6.01415E-003	0.00000E+000	-6.99078E-005	-3.59960E-001	-1.13852E+000	3.57780E+000	10	...........
	51	0.693333	6.16558E-003	-6.01532E-003	0.00000E+000	-3.70879E-005	-3.59960E-001	-1.13039E+000	3.57780E+000	10	...........
	52	0.703333	1.42299E-003	-6.01678E-003	0.00000E+000	-8.56179E-006	-3.59960E-001	-1.14246E+000	3.57780E+000	10	...........
STARTTIMEOFFSET	QUANT	1395.997	Start Time Offset (s)
