EXPLAIN
TAG	PWR800_DISCHARGE
TITLE	LABEL	PWR Cyclic Charge Discharge (Cell) - Discharge Step	Test &Identifier
DATE	LABEL	22-6-2017	Date
TIME	LABEL	15:54:20	Time
NOTES	NOTES	3	&Notes...
	supercap test cell
	0.6mg
	6M KOH
PSTAT	PSTAT	IFC5000-01520	Potentiostat
CAPACITY	QUANT	1.00000E-003	Capacity (A-hr)
CELLTYPE	SELECTOR	1	&Cell Type
WORKINGCONNECTION	SELECTOR	0	&Working Lead
MAXDISCHARGETIME	VARIABLEANDUNITS	1.00000E+002	s	1.00000E+002	second(s)	Max &Discharge Time
DISCHARGEMODE	MULTIPARAM	0	6.00000E-003	&Discharge Mode	Constant Current	Amp(s)
SAMPLETIME	QUANT	1.00000E-002	Sa&mple Period (s)
DISCHARGESTOPAT1	MULTIPARAM	3	0.00000E+000	Discharge Stop At &1	Voltage < Limit	V
DISCHARGESTOPAT2	MULTIPARAM	0	0.00000E+000	Discharge Stop At &2	None	N/A
AESBHCSELECTOR	TOGGLE	F	Save Both Half Cells
IRCOMP	TOGGLE	F	IR &Measure
EOC	QUANT	0	Open Circuit (V)
SEQUENCER	TOGGLE	TRUE	Run as Sequence
PSTATMODEL	IQUANT	53	Pstat Model
PSTATSECTION	LABEL	IFC5000-01520	Pstat Section
PSTATSERIALNO	LABEL	01520	Pstat Serial Number
CTRLMODE	IQUANT	0	Control Mode
ELECTROMETER	IQUANT	1	RE=0 or CS=1
IESTAB	IQUANT	0	I/E Stability
CASPEED	IQUANT	4	Control Amp Speed
CONVENTION	IQUANT	1	Current Convention
ICHRANGE	IQUANT	2	Ich Range
ICHRANGEMODE	TOGGLE	T	Ich Auto Range
ICHOFFSETENABLE	TOGGLE	F	Ich Offset Enable
ICHOFFSET	QUANT	0	Ich Offset (V)
ICHFILTER	IQUANT	1	Ich Filter
VCHRANGE	IQUANT	2	Vch Range
VCHRANGEMODE	TOGGLE	T	Vch Auto Range
VCHOFFSETENABLE	TOGGLE	F	Vch Offset Enable
VCHOFFSET	QUANT	0	Vch Offset (V)
VCHFILTER	IQUANT	1	Vch Filter
IERANGELOWERLIMIT	IQUANT	9	I/E Range Lower Limit
IERANGEMODE	TOGGLE	F	I/E AutoRange
IERANGE	IQUANT	10	I/E Range
ACHSELECT	IQUANT	1	Ach Select
ACHRANGE	IQUANT	2	Ach Range
ACHOFFSETENABLE	TOGGLE	F	Ach Offset Enable
ACHOFFSET	QUANT	0	Ach Offset (V)
ACHFILTER	IQUANT	1	Ach Filter
CABLEID	IQUANT	14	Cable ID
DCCALDATE	LABEL	20-10-2016	DC Calibration Date
ACCALDATE	LABEL	12/3/2015	AC Calibration Date
FRAMEWORKVERSION	QUANT	7.01	Framework Version
INSTRUMENTVERSION	LABEL	4.00	Instrument Version
CURVE	TABLE	59
	Pt	T	Vf	Im	Vu	Pwr	Sig	Ach	Temp	IERange	Over
	#	s	V	A	V	W	V	V	deg C	#	bits
	0	0.013333	3.97926E-001	-6.01297E-003	0.00000E+000	-2.39272E-003	-3.59960E-001	-1.10990E+000	3.57670E+000	10	...........
	1	0.026667	3.86856E-001	-6.01173E-003	0.00000E+000	-2.32567E-003	-3.59960E-001	-1.09471E+000	3.57670E+000	10	...........
	2	0.04	3.76575E-001	-6.01342E-003	0.00000E+000	-2.26450E-003	-3.59960E-001	-1.09088E+000	3.57670E+000	10	...........
	3	0.053333	3.66849E-001	-6.01502E-003	0.00000E+000	-2.20660E-003	-3.59960E-001	-1.09979E+000	3.57670E+000	10	...........
	4	0.066667	3.57480E-001	-6.01178E-003	0.00000E+000	-2.14909E-003	-3.59960E-001	-1.08713E+000	3.57670E+000	10	...........
	5	0.08	3.48399E-001	-6.01453E-003	0.00000E+000	-2.09545E-003	-3.59960E-001	-1.08454E+000	3.57662E+000	10	...........
	6	0.093333	3.39532E-001	-6.01409E-003	0.00000E+000	-2.04197E-003	-3.59960E-001	-1.09195E+000	3.57650E+000	10	...........
	7	0.106667	3.30853E-001	-6.01607E-003	0.00000E+000	-1.99044E-003	-3.59960E-001	-1.08069E+000	3.57650E+000	10	...........
	8	0.12	3.22348E-001	-6.01662E-003	0.00000E+000	-1.93944E-003	-3.59960E-001	-1.07998E+000	3.57650E+000	10	...........
	9	0.133333	3.13941E-001	-6.01707E-003	0.00000E+000	-1.88901E-003	-3.59960E-001	-1.08844E+000	3.57650E+000	10	...........
	10	0.146667	3.05644E-001	-6.01121E-003	0.00000E+000	-1.83729E-003	-3.59960E-001	-1.07868E+000	3.57650E+000	10	...........
	11	0.16	2.97468E-001	-6.01765E-003	0.00000E+000	-1.79006E-003	-3.59960E-001	-1.07759E+000	3.57650E+000	10	...........
	12	0.173333	2.89431E-001	-6.00939E-003	0.00000E+000	-1.73931E-003	-3.59960E-001	-1.08323E+000	3.57650E+000	10	...........
	13	0.186667	2.81529E-001	-6.01694E-003	0.00000E+000	-1.69394E-003	-3.59960E-001	-1.07170E+000	3.57650E+000	10	...........
	14	0.2	2.73719E-001	-6.01671E-003	0.00000E+000	-1.64689E-003	-3.59960E-001	-1.07152E+000	3.57650E+000	10	...........
	15	0.213333	2.65958E-001	-6.01465E-003	0.00000E+000	-1.59965E-003	-3.59960E-001	-1.08010E+000	3.57650E+000	10	...........
	16	0.226667	2.58333E-001	-6.01441E-003	0.00000E+000	-1.55372E-003	-3.59960E-001	-1.06704E+000	3.57650E+000	10	...........
	17	0.24	2.50761E-001	-6.01776E-003	0.00000E+000	-1.50902E-003	-3.59960E-001	-1.06552E+000	3.57650E+000	10	...........
	18	0.253333	2.43289E-001	-6.01432E-003	0.00000E+000	-1.46322E-003	-3.59960E-001	-1.07431E+000	3.57650E+000	10	...........
	19	0.266667	2.35887E-001	-6.01387E-003	0.00000E+000	-1.41860E-003	-3.59960E-001	-1.06314E+000	3.57650E+000	10	...........
	20	0.28	2.28592E-001	-6.01083E-003	0.00000E+000	-1.37403E-003	-3.59960E-001	-1.06388E+000	3.57650E+000	10	...........
	21	0.293333	2.21382E-001	-6.01538E-003	0.00000E+000	-1.33170E-003	-3.59960E-001	-1.07394E+000	3.57650E+000	10	...........
	22	0.306667	2.14262E-001	-6.01410E-003	0.00000E+000	-1.28859E-003	-3.59960E-001	-1.06081E+000	3.57650E+000	10	...........
	23	0.32	2.07195E-001	-6.01355E-003	0.00000E+000	-1.24597E-003	-3.59960E-001	-1.05940E+000	3.57650E+000	10	...........
	24	0.333333	2.00193E-001	-6.01301E-003	0.00000E+000	-1.20376E-003	-3.59960E-001	-1.06874E+000	3.57650E+000	10	...........
	25	0.346667	1.93275E-001	-6.01243E-003	0.00000E+000	-1.16205E-003	-3.59960E-001	-1.05793E+000	3.57650E+000	10	...........
	26	0.36	1.86416E-001	-6.01283E-003	0.00000E+000	-1.12089E-003	-3.59960E-001	-1.05714E+000	3.57650E+000	10	...........
	27	0.373333	1.79624E-001	-6.01902E-003	0.00000E+000	-1.08116E-003	-3.59960E-001	-1.06546E+000	3.57650E+000	10	...........
	28	0.386667	1.72932E-001	-6.01303E-003	0.00000E+000	-1.03985E-003	-3.59960E-001	-1.05422E+000	3.57650E+000	10	...........
	29	0.4	1.66266E-001	-6.01117E-003	0.00000E+000	-9.99451E-004	-3.59960E-001	-1.05398E+000	3.57650E+000	10	...........
	30	0.413333	1.59691E-001	-6.01760E-003	0.00000E+000	-9.60958E-004	-3.59960E-001	-1.06413E+000	3.57650E+000	10	...........
	31	0.426667	1.53199E-001	-6.01391E-003	0.00000E+000	-9.21326E-004	-3.59960E-001	-1.05453E+000	3.57650E+000	10	...........
	32	0.44	1.46762E-001	-6.01514E-003	0.00000E+000	-8.82796E-004	-3.59960E-001	-1.05447E+000	3.57650E+000	10	...........
	33	0.453333	1.40351E-001	-6.01377E-003	0.00000E+000	-8.44041E-004	-3.59960E-001	-1.06348E+000	3.57650E+000	10	...........
	34	0.466667	1.34036E-001	-6.01761E-003	0.00000E+000	-8.06577E-004	-3.59960E-001	-1.05270E+000	3.57650E+000	10	...........
	35	0.48	1.27744E-001	-6.01759E-003	0.00000E+000	-7.68714E-004	-3.59960E-001	-1.05350E+000	3.57650E+000	10	...........
	36	0.493333	1.21532E-001	-6.01387E-003	0.00000E+000	-7.30876E-004	-3.59960E-001	-1.06365E+000	3.57650E+000	10	...........
	37	0.506667	1.15370E-001	-6.01389E-003	0.00000E+000	-6.93825E-004	-3.59960E-001	-1.05297E+000	3.57650E+000	10	...........
	38	0.52	1.09274E-001	-6.01186E-003	0.00000E+000	-6.56940E-004	-3.59960E-001	-1.05333E+000	3.57650E+000	10	...........
	39	0.533333	1.03216E-001	-6.01625E-003	0.00000E+000	-6.20975E-004	-3.59960E-001	-1.06309E+000	3.57650E+000	10	...........
	40	0.546667	9.72214E-002	-6.01398E-003	0.00000E+000	-5.84688E-004	-3.59960E-001	-1.05321E+000	3.57650E+000	10	...........
	41	0.56	9.12616E-002	-6.01455E-003	0.00000E+000	-5.48897E-004	-3.59960E-001	-1.05414E+000	3.57650E+000	10	...........
	42	0.573333	8.53972E-002	-6.01399E-003	0.00000E+000	-5.13578E-004	-3.59960E-001	-1.06440E+000	3.57650E+000	10	...........
	43	0.586667	7.95834E-002	-6.01712E-003	0.00000E+000	-4.78863E-004	-3.59960E-001	-1.05413E+000	3.57650E+000	10	...........
	44	0.6	7.38192E-002	-6.01242E-003	0.00000E+000	-4.43832E-004	-3.59960E-001	-1.05456E+000	3.57650E+000	10	...........
	45	0.613333	6.81413E-002	-6.01845E-003	0.00000E+000	-4.10105E-004	-3.59960E-001	-1.06514E+000	3.57650E+000	10	...........
	46	0.626667	6.24472E-002	-6.01146E-003	0.00000E+000	-3.75399E-004	-3.59960E-001	-1.05549E+000	3.57650E+000	10	...........
	47	0.64	5.68360E-002	-6.01231E-003	0.00000E+000	-3.41716E-004	-3.59960E-001	-1.05543E+000	3.57650E+000	10	...........
	48	0.653333	5.12773E-002	-6.01771E-003	0.00000E+000	-3.08572E-004	-3.59960E-001	-1.06566E+000	3.57650E+000	10	...........
	49	0.666667	4.58151E-002	-6.01222E-003	0.00000E+000	-2.75450E-004	-3.59960E-001	-1.05556E+000	3.57650E+000	10	...........
	50	0.68	4.03153E-002	-6.01263E-003	0.00000E+000	-2.42401E-004	-3.59960E-001	-1.05628E+000	3.57650E+000	10	...........
	51	0.693333	3.48169E-002	-6.01343E-003	0.00000E+000	-2.09369E-004	-3.59960E-001	-1.06702E+000	3.57650E+000	10	...........
	52	0.706667	2.94401E-002	-6.01657E-003	0.00000E+000	-1.77128E-004	-3.59960E-001	-1.05678E+000	3.57650E+000	10	...........
	53	0.72	2.41156E-002	-6.01453E-003	0.00000E+000	-1.45044E-004	-3.59960E-001	-1.05741E+000	3.57650E+000	10	...........
	54	0.733333	1.88268E-002	-6.01447E-003	0.00000E+000	-1.13233E-004	-3.59960E-001	-1.06761E+000	3.57650E+000	10	...........
	55	0.746667	1.35764E-002	-6.01723E-003	0.00000E+000	-8.16925E-005	-3.59960E-001	-1.05786E+000	3.57650E+000	10	...........
	56	0.76	8.34872E-003	-6.01369E-003	0.00000E+000	-5.02066E-005	-3.59960E-001	-1.05884E+000	3.57650E+000	10	...........
	57	0.773333	3.19488E-003	-6.01494E-003	0.00000E+000	-1.92170E-005	-3.59960E-001	-1.06923E+000	3.57650E+000	10	...........
	58	0.776667	-5.17887E-005	-6.01316E-003	0.00000E+000	3.11413E-007	-3.59960E-001	-1.05015E+000	3.57650E+000	10	...........
STARTTIMEOFFSET	QUANT	796.2834	Start Time Offset (s)
