EXPLAIN
TAG	PWR800_DISCHARGE
TITLE	LABEL	PWR Cyclic Charge Discharge (Cell) - Discharge Step	Test &Identifier
DATE	LABEL	22-6-2017	Date
TIME	LABEL	16:08:27	Time
NOTES	NOTES	3	&Notes...
	supercap test cell
	0.6mg
	6M KOH
PSTAT	PSTAT	IFC5000-01520	Potentiostat
CAPACITY	QUANT	1.00000E-003	Capacity (A-hr)
CELLTYPE	SELECTOR	1	&Cell Type
WORKINGCONNECTION	SELECTOR	0	&Working Lead
MAXDISCHARGETIME	VARIABLEANDUNITS	1.00000E+002	s	1.00000E+002	second(s)	Max &Discharge Time
DISCHARGEMODE	MULTIPARAM	0	6.00000E-003	&Discharge Mode	Constant Current	Amp(s)
SAMPLETIME	QUANT	1.00000E-002	Sa&mple Period (s)
DISCHARGESTOPAT1	MULTIPARAM	3	0.00000E+000	Discharge Stop At &1	Voltage < Limit	V
DISCHARGESTOPAT2	MULTIPARAM	0	0.00000E+000	Discharge Stop At &2	None	N/A
AESBHCSELECTOR	TOGGLE	F	Save Both Half Cells
IRCOMP	TOGGLE	F	IR &Measure
EOC	QUANT	0	Open Circuit (V)
SEQUENCER	TOGGLE	TRUE	Run as Sequence
PSTATMODEL	IQUANT	53	Pstat Model
PSTATSECTION	LABEL	IFC5000-01520	Pstat Section
PSTATSERIALNO	LABEL	01520	Pstat Serial Number
CTRLMODE	IQUANT	0	Control Mode
ELECTROMETER	IQUANT	1	RE=0 or CS=1
IESTAB	IQUANT	0	I/E Stability
CASPEED	IQUANT	4	Control Amp Speed
CONVENTION	IQUANT	1	Current Convention
ICHRANGE	IQUANT	2	Ich Range
ICHRANGEMODE	TOGGLE	T	Ich Auto Range
ICHOFFSETENABLE	TOGGLE	F	Ich Offset Enable
ICHOFFSET	QUANT	0	Ich Offset (V)
ICHFILTER	IQUANT	1	Ich Filter
VCHRANGE	IQUANT	2	Vch Range
VCHRANGEMODE	TOGGLE	T	Vch Auto Range
VCHOFFSETENABLE	TOGGLE	F	Vch Offset Enable
VCHOFFSET	QUANT	0	Vch Offset (V)
VCHFILTER	IQUANT	1	Vch Filter
IERANGELOWERLIMIT	IQUANT	9	I/E Range Lower Limit
IERANGEMODE	TOGGLE	F	I/E AutoRange
IERANGE	IQUANT	10	I/E Range
ACHSELECT	IQUANT	1	Ach Select
ACHRANGE	IQUANT	2	Ach Range
ACHOFFSETENABLE	TOGGLE	F	Ach Offset Enable
ACHOFFSET	QUANT	0	Ach Offset (V)
ACHFILTER	IQUANT	1	Ach Filter
CABLEID	IQUANT	14	Cable ID
DCCALDATE	LABEL	20-10-2016	DC Calibration Date
ACCALDATE	LABEL	12/3/2015	AC Calibration Date
FRAMEWORKVERSION	QUANT	7.01	Framework Version
INSTRUMENTVERSION	LABEL	4.00	Instrument Version
CURVE	TABLE	54
	Pt	T	Vf	Im	Vu	Pwr	Sig	Ach	Temp	IERange	Over
	#	s	V	A	V	W	V	V	deg C	#	bits
	0	0.013333	3.81579E-001	-6.01594E-003	0.00000E+000	-2.29556E-003	-3.59960E-001	-1.12824E+000	3.57780E+000	10	...........
	1	0.026667	3.70038E-001	-6.01506E-003	0.00000E+000	-2.22580E-003	-3.59960E-001	-1.13917E+000	3.57780E+000	10	...........
	2	0.04	3.59385E-001	-6.01499E-003	0.00000E+000	-2.16170E-003	-3.59960E-001	-1.13164E+000	3.57780E+000	10	...........
	3	0.053333	3.49224E-001	-6.01485E-003	0.00000E+000	-2.10053E-003	-3.59960E-001	-1.12834E+000	3.57780E+000	10	...........
	4	0.066667	3.39482E-001	-6.01026E-003	0.00000E+000	-2.04037E-003	-3.59960E-001	-1.13941E+000	3.57780E+000	10	...........
	5	0.08	3.29980E-001	-6.01581E-003	0.00000E+000	-1.98510E-003	-3.59960E-001	-1.13202E+000	3.57780E+000	10	...........
	6	0.093333	3.20742E-001	-6.01847E-003	0.00000E+000	-1.93038E-003	-3.59960E-001	-1.12845E+000	3.57780E+000	10	...........
	7	0.106667	3.11682E-001	-6.00937E-003	0.00000E+000	-1.87301E-003	-3.59960E-001	-1.13939E+000	3.57780E+000	10	...........
	8	0.12	3.02794E-001	-6.01341E-003	0.00000E+000	-1.82082E-003	-3.59960E-001	-1.13185E+000	3.57780E+000	10	...........
	9	0.133333	2.94042E-001	-6.01689E-003	0.00000E+000	-1.76922E-003	-3.59960E-001	-1.12857E+000	3.57780E+000	10	...........
	10	0.146667	2.85457E-001	-6.01421E-003	0.00000E+000	-1.71680E-003	-3.59960E-001	-1.13931E+000	3.57780E+000	10	...........
	11	0.16	2.77010E-001	-6.01925E-003	0.00000E+000	-1.66739E-003	-3.59960E-001	-1.13178E+000	3.57780E+000	10	...........
	12	0.173333	2.68699E-001	-6.01681E-003	0.00000E+000	-1.61671E-003	-3.59960E-001	-1.12850E+000	3.57780E+000	10	...........
	13	0.186667	2.60443E-001	-6.01313E-003	0.00000E+000	-1.56608E-003	-3.59960E-001	-1.13946E+000	3.57780E+000	10	...........
	14	0.2	2.52334E-001	-6.01426E-003	0.00000E+000	-1.51760E-003	-3.59960E-001	-1.13234E+000	3.57780E+000	10	...........
	15	0.213333	2.44289E-001	-6.01387E-003	0.00000E+000	-1.46912E-003	-3.59960E-001	-1.12888E+000	3.57780E+000	10	...........
	16	0.226667	2.36325E-001	-6.01681E-003	0.00000E+000	-1.42192E-003	-3.59960E-001	-1.13960E+000	3.57780E+000	10	...........
	17	0.24	2.28469E-001	-6.01423E-003	0.00000E+000	-1.37406E-003	-3.59960E-001	-1.13232E+000	3.57780E+000	10	...........
	18	0.253333	2.20726E-001	-6.01289E-003	0.00000E+000	-1.32720E-003	-3.59960E-001	-1.12894E+000	3.57780E+000	10	...........
	19	0.266667	2.13102E-001	-6.02008E-003	0.00000E+000	-1.28289E-003	-3.59960E-001	-1.13978E+000	3.57780E+000	10	...........
	20	0.28	2.05545E-001	-6.01294E-003	0.00000E+000	-1.23593E-003	-3.59960E-001	-1.13267E+000	3.57780E+000	10	...........
	21	0.293333	1.98110E-001	-6.00961E-003	0.00000E+000	-1.19056E-003	-3.59960E-001	-1.12901E+000	3.57780E+000	10	...........
	22	0.306667	1.90726E-001	-6.01560E-003	0.00000E+000	-1.14733E-003	-3.59960E-001	-1.13971E+000	3.57780E+000	10	...........
	23	0.32	1.83402E-001	-6.01282E-003	0.00000E+000	-1.10276E-003	-3.59960E-001	-1.13281E+000	3.57780E+000	10	...........
	24	0.333333	1.76184E-001	-6.01042E-003	0.00000E+000	-1.05894E-003	-3.59960E-001	-1.12934E+000	3.57780E+000	10	...........
	25	0.346667	1.69056E-001	-6.01498E-003	0.00000E+000	-1.01687E-003	-3.59960E-001	-1.14017E+000	3.57780E+000	10	...........
	26	0.36	1.62040E-001	-6.01571E-003	0.00000E+000	-9.74788E-004	-3.59960E-001	-1.13295E+000	3.57780E+000	10	...........
	27	0.373333	1.55102E-001	-6.02119E-003	0.00000E+000	-9.33899E-004	-3.59960E-001	-1.12934E+000	3.57780E+000	10	...........
	28	0.386667	1.48226E-001	-6.01546E-003	0.00000E+000	-8.91647E-004	-3.59960E-001	-1.14035E+000	3.57780E+000	10	...........
	29	0.4	1.41401E-001	-6.01544E-003	0.00000E+000	-8.50588E-004	-3.59960E-001	-1.13329E+000	3.57780E+000	10	...........
	30	0.413333	1.34666E-001	-6.01287E-003	0.00000E+000	-8.09728E-004	-3.59960E-001	-1.12945E+000	3.57780E+000	10	...........
	31	0.426667	1.28008E-001	-6.01648E-003	0.00000E+000	-7.70159E-004	-3.59960E-001	-1.14026E+000	3.57780E+000	10	...........
	32	0.44	1.21370E-001	-6.01840E-003	0.00000E+000	-7.30455E-004	-3.59960E-001	-1.13276E+000	3.57780E+000	10	...........
	33	0.453333	1.14860E-001	-6.01640E-003	0.00000E+000	-6.91041E-004	-3.59960E-001	-1.12923E+000	3.57780E+000	10	...........
	34	0.466667	1.08414E-001	-6.01590E-003	0.00000E+000	-6.52210E-004	-3.59960E-001	-1.14019E+000	3.57780E+000	10	...........
	35	0.48	1.02026E-001	-6.01667E-003	0.00000E+000	-6.13858E-004	-3.59960E-001	-1.13304E+000	3.57780E+000	10	...........
	36	0.493333	9.57026E-002	-6.01701E-003	0.00000E+000	-5.75843E-004	-3.59960E-001	-1.12919E+000	3.57780E+000	10	...........
	37	0.506667	8.94456E-002	-6.01574E-003	0.00000E+000	-5.38081E-004	-3.59960E-001	-1.13997E+000	3.57780E+000	10	...........
	38	0.52	8.32322E-002	-6.01639E-003	0.00000E+000	-5.00758E-004	-3.59960E-001	-1.13301E+000	3.57780E+000	10	...........
	39	0.533333	7.71500E-002	-6.01294E-003	0.00000E+000	-4.63898E-004	-3.59960E-001	-1.12940E+000	3.57780E+000	10	...........
	40	0.546667	7.10838E-002	-6.01711E-003	0.00000E+000	-4.27719E-004	-3.59960E-001	-1.14013E+000	3.57780E+000	10	...........
	41	0.56	6.50672E-002	-6.01056E-003	0.00000E+000	-3.91090E-004	-3.59960E-001	-1.13304E+000	3.57780E+000	10	...........
	42	0.573333	5.91311E-002	-6.01321E-003	0.00000E+000	-3.55568E-004	-3.59960E-001	-1.12913E+000	3.57780E+000	10	...........
	43	0.586667	5.32391E-002	-6.01357E-003	0.00000E+000	-3.20157E-004	-3.59960E-001	-1.14002E+000	3.57780E+000	10	...........
	44	0.6	4.73800E-002	-6.01344E-003	0.00000E+000	-2.84917E-004	-3.59960E-001	-1.13330E+000	3.57780E+000	10	...........
	45	0.613333	4.16606E-002	-6.00800E-003	0.00000E+000	-2.50297E-004	-3.59960E-001	-1.12957E+000	3.57780E+000	10	...........
	46	0.626667	3.59518E-002	-6.01302E-003	0.00000E+000	-2.16179E-004	-3.59960E-001	-1.14004E+000	3.57780E+000	10	...........
	47	0.64	3.02830E-002	-6.01136E-003	0.00000E+000	-1.82042E-004	-3.59960E-001	-1.13318E+000	3.57780E+000	10	...........
	48	0.653333	2.46499E-002	-6.01490E-003	0.00000E+000	-1.48267E-004	-3.59960E-001	-1.12947E+000	3.57780E+000	10	...........
	49	0.666667	1.90905E-002	-6.01272E-003	0.00000E+000	-1.14786E-004	-3.59960E-001	-1.14058E+000	3.57780E+000	10	...........
	50	0.68	1.36083E-002	-6.01437E-003	0.00000E+000	-8.18453E-005	-3.59960E-001	-1.13365E+000	3.57780E+000	10	...........
	51	0.693333	8.17326E-003	-6.01399E-003	0.00000E+000	-4.91540E-005	-3.59960E-001	-1.12957E+000	3.57780E+000	10	...........
	52	0.706667	2.77226E-003	-6.01668E-003	0.00000E+000	-1.66798E-005	-3.59960E-001	-1.14024E+000	3.57780E+000	10	...........
	53	0.708333	-2.75385E-004	-6.01554E-003	0.00000E+000	1.65659E-006	-3.59960E-001	-1.11734E+000	3.57780E+000	10	...........
STARTTIMEOFFSET	QUANT	1349.142	Start Time Offset (s)
