EXPLAIN
TAG	PWR800_DISCHARGE
TITLE	LABEL	PWR Cyclic Charge Discharge (Cell) - Discharge Step	Test &Identifier
DATE	LABEL	22-6-2017	Date
TIME	LABEL	15:40:40	Time
NOTES	NOTES	3	&Notes...
	supercap test cell
	0.6mg
	6M KOH
PSTAT	PSTAT	IFC5000-01520	Potentiostat
CAPACITY	QUANT	1.00000E-003	Capacity (A-hr)
CELLTYPE	SELECTOR	1	&Cell Type
WORKINGCONNECTION	SELECTOR	0	&Working Lead
MAXDISCHARGETIME	VARIABLEANDUNITS	1.00000E+002	s	1.00000E+002	second(s)	Max &Discharge Time
DISCHARGEMODE	MULTIPARAM	0	6.00000E-003	&Discharge Mode	Constant Current	Amp(s)
SAMPLETIME	QUANT	1.00000E-002	Sa&mple Period (s)
DISCHARGESTOPAT1	MULTIPARAM	3	0.00000E+000	Discharge Stop At &1	Voltage < Limit	V
DISCHARGESTOPAT2	MULTIPARAM	0	0.00000E+000	Discharge Stop At &2	None	N/A
AESBHCSELECTOR	TOGGLE	F	Save Both Half Cells
IRCOMP	TOGGLE	F	IR &Measure
EOC	QUANT	0	Open Circuit (V)
SEQUENCER	TOGGLE	TRUE	Run as Sequence
PSTATMODEL	IQUANT	53	Pstat Model
PSTATSECTION	LABEL	IFC5000-01520	Pstat Section
PSTATSERIALNO	LABEL	01520	Pstat Serial Number
CTRLMODE	IQUANT	0	Control Mode
ELECTROMETER	IQUANT	1	RE=0 or CS=1
IESTAB	IQUANT	0	I/E Stability
CASPEED	IQUANT	4	Control Amp Speed
CONVENTION	IQUANT	1	Current Convention
ICHRANGE	IQUANT	2	Ich Range
ICHRANGEMODE	TOGGLE	T	Ich Auto Range
ICHOFFSETENABLE	TOGGLE	F	Ich Offset Enable
ICHOFFSET	QUANT	0	Ich Offset (V)
ICHFILTER	IQUANT	1	Ich Filter
VCHRANGE	IQUANT	2	Vch Range
VCHRANGEMODE	TOGGLE	T	Vch Auto Range
VCHOFFSETENABLE	TOGGLE	F	Vch Offset Enable
VCHOFFSET	QUANT	0	Vch Offset (V)
VCHFILTER	IQUANT	1	Vch Filter
IERANGELOWERLIMIT	IQUANT	9	I/E Range Lower Limit
IERANGEMODE	TOGGLE	F	I/E AutoRange
IERANGE	IQUANT	10	I/E Range
ACHSELECT	IQUANT	1	Ach Select
ACHRANGE	IQUANT	2	Ach Range
ACHOFFSETENABLE	TOGGLE	F	Ach Offset Enable
ACHOFFSET	QUANT	0	Ach Offset (V)
ACHFILTER	IQUANT	1	Ach Filter
CABLEID	IQUANT	14	Cable ID
DCCALDATE	LABEL	20-10-2016	DC Calibration Date
ACCALDATE	LABEL	12/3/2015	AC Calibration Date
FRAMEWORKVERSION	QUANT	7.01	Framework Version
INSTRUMENTVERSION	LABEL	4.00	Instrument Version
CURVE	TABLE	67
	Pt	T	Vf	Im	Vu	Pwr	Sig	Ach	Temp	IERange	Over
	#	s	V	A	V	W	V	V	deg C	#	bits
	0	0.013333	4.17212E-001	-6.01786E-003	0.00000E+000	-2.51072E-003	-3.59960E-001	-1.03638E+000	3.57840E+000	10	...........
	1	0.026667	4.07091E-001	-6.01679E-003	0.00000E+000	-2.44938E-003	-3.59960E-001	-1.03635E+000	3.57840E+000	10	...........
	2	0.04	3.97664E-001	-6.01975E-003	0.00000E+000	-2.39384E-003	-3.59960E-001	-1.04630E+000	3.57840E+000	10	...........
	3	0.053333	3.88716E-001	-6.01449E-003	0.00000E+000	-2.33793E-003	-3.59960E-001	-1.03639E+000	3.57840E+000	10	...........
	4	0.066667	3.80153E-001	-6.01318E-003	0.00000E+000	-2.28593E-003	-3.59960E-001	-1.03668E+000	3.57840E+000	10	...........
	5	0.08	3.71825E-001	-6.01692E-003	0.00000E+000	-2.23725E-003	-3.59960E-001	-1.04685E+000	3.57840E+000	10	...........
	6	0.093333	3.63659E-001	-6.01071E-003	0.00000E+000	-2.18585E-003	-3.59960E-001	-1.03680E+000	3.57840E+000	10	...........
	7	0.106667	3.55671E-001	-6.01418E-003	0.00000E+000	-2.13907E-003	-3.59960E-001	-1.03689E+000	3.57840E+000	10	...........
	8	0.12	3.47843E-001	-6.01534E-003	0.00000E+000	-2.09239E-003	-3.59960E-001	-1.04700E+000	3.57840E+000	10	...........
	9	0.133333	3.40099E-001	-6.01499E-003	0.00000E+000	-2.04569E-003	-3.59960E-001	-1.03705E+000	3.57840E+000	10	...........
	10	0.146667	3.32475E-001	-6.01676E-003	0.00000E+000	-2.00042E-003	-3.59960E-001	-1.03725E+000	3.57840E+000	10	...........
	11	0.16	3.24944E-001	-6.01332E-003	0.00000E+000	-1.95399E-003	-3.59960E-001	-1.04716E+000	3.57840E+000	10	...........
	12	0.173333	3.17570E-001	-6.01105E-003	0.00000E+000	-1.90893E-003	-3.59960E-001	-1.03713E+000	3.57840E+000	10	...........
	13	0.186667	3.10266E-001	-6.01175E-003	0.00000E+000	-1.86524E-003	-3.59960E-001	-1.03707E+000	3.57840E+000	10	...........
	14	0.2	3.03017E-001	-6.01659E-003	0.00000E+000	-1.82313E-003	-3.59960E-001	-1.04755E+000	3.57840E+000	10	...........
	15	0.213333	2.95843E-001	-6.01794E-003	0.00000E+000	-1.78037E-003	-3.59960E-001	-1.03768E+000	3.57840E+000	10	...........
	16	0.226667	2.88783E-001	-6.01325E-003	0.00000E+000	-1.73653E-003	-3.59960E-001	-1.03754E+000	3.57840E+000	10	...........
	17	0.24	2.81782E-001	-6.01504E-003	0.00000E+000	-1.69493E-003	-3.59960E-001	-1.04752E+000	3.57840E+000	10	...........
	18	0.253333	2.74822E-001	-6.01414E-003	0.00000E+000	-1.65282E-003	-3.59960E-001	-1.03777E+000	3.57840E+000	10	...........
	19	0.266667	2.68003E-001	-6.01664E-003	0.00000E+000	-1.61248E-003	-3.59960E-001	-1.03756E+000	3.57840E+000	10	...........
	20	0.28	2.61174E-001	-6.01533E-003	0.00000E+000	-1.57105E-003	-3.59960E-001	-1.04793E+000	3.57784E+000	10	...........
	21	0.293333	2.54460E-001	-6.01414E-003	0.00000E+000	-1.53036E-003	-3.59960E-001	-1.03807E+000	3.57690E+000	10	...........
	22	0.306667	2.47806E-001	-6.01319E-003	0.00000E+000	-1.49010E-003	-3.59960E-001	-1.03736E+000	3.57690E+000	10	...........
	23	0.32	2.41227E-001	-6.01663E-003	0.00000E+000	-1.45138E-003	-3.59960E-001	-1.04747E+000	3.57690E+000	10	...........
	24	0.333333	2.34669E-001	-6.01748E-003	0.00000E+000	-1.41212E-003	-3.59960E-001	-1.03759E+000	3.57690E+000	10	...........
	25	0.346667	2.28149E-001	-6.01641E-003	0.00000E+000	-1.37264E-003	-3.59960E-001	-1.03763E+000	3.57690E+000	10	...........
	26	0.36	2.21740E-001	-6.01290E-003	0.00000E+000	-1.33330E-003	-3.59960E-001	-1.04784E+000	3.57690E+000	10	...........
	27	0.373333	2.15395E-001	-6.01697E-003	0.00000E+000	-1.29603E-003	-3.59960E-001	-1.03790E+000	3.57690E+000	10	...........
	28	0.386667	2.09095E-001	-6.01617E-003	0.00000E+000	-1.25795E-003	-3.59960E-001	-1.03780E+000	3.57690E+000	10	...........
	29	0.4	2.02796E-001	-6.01547E-003	0.00000E+000	-1.21991E-003	-3.59960E-001	-1.04814E+000	3.57690E+000	10	...........
	30	0.413333	1.96568E-001	-6.01460E-003	0.00000E+000	-1.18228E-003	-3.59960E-001	-1.03845E+000	3.57690E+000	10	...........
	31	0.426667	1.90434E-001	-6.01294E-003	0.00000E+000	-1.14507E-003	-3.59960E-001	-1.03818E+000	3.57690E+000	10	...........
	32	0.44	1.84348E-001	-6.01260E-003	0.00000E+000	-1.10841E-003	-3.59960E-001	-1.04820E+000	3.57690E+000	10	...........
	33	0.453333	1.78261E-001	-6.00801E-003	0.00000E+000	-1.07099E-003	-3.59960E-001	-1.03806E+000	3.57690E+000	10	...........
	34	0.466667	1.72238E-001	-6.01723E-003	0.00000E+000	-1.03640E-003	-3.59960E-001	-1.03790E+000	3.57690E+000	10	...........
	35	0.48	1.66255E-001	-6.01333E-003	0.00000E+000	-9.99744E-004	-3.59960E-001	-1.04816E+000	3.57690E+000	10	...........
	36	0.493333	1.60327E-001	-6.01472E-003	0.00000E+000	-9.64324E-004	-3.59960E-001	-1.03826E+000	3.57690E+000	10	...........
	37	0.506667	1.54515E-001	-6.01586E-003	0.00000E+000	-9.29544E-004	-3.59960E-001	-1.03800E+000	3.57690E+000	10	...........
	38	0.52	1.48688E-001	-6.01470E-003	0.00000E+000	-8.94312E-004	-3.59960E-001	-1.04816E+000	3.57690E+000	10	...........
	39	0.533333	1.42905E-001	-6.01538E-003	0.00000E+000	-8.59630E-004	-3.59960E-001	-1.03857E+000	3.57690E+000	10	...........
	40	0.546667	1.37170E-001	-6.01283E-003	0.00000E+000	-8.24782E-004	-3.59960E-001	-1.03847E+000	3.57690E+000	10	...........
	41	0.56	1.31459E-001	-6.01347E-003	0.00000E+000	-7.90524E-004	-3.59960E-001	-1.04849E+000	3.57690E+000	10	...........
	42	0.573333	1.25786E-001	-6.01761E-003	0.00000E+000	-7.56934E-004	-3.59960E-001	-1.03859E+000	3.57690E+000	10	...........
	43	0.586667	1.20195E-001	-6.01461E-003	0.00000E+000	-7.22927E-004	-3.59960E-001	-1.03845E+000	3.57690E+000	10	...........
	44	0.6	1.14633E-001	-6.01182E-003	0.00000E+000	-6.89154E-004	-3.59960E-001	-1.04858E+000	3.57690E+000	10	...........
	45	0.613333	1.09091E-001	-6.01347E-003	0.00000E+000	-6.56017E-004	-3.59960E-001	-1.03904E+000	3.57690E+000	10	...........
	46	0.626667	1.03626E-001	-6.00939E-003	0.00000E+000	-6.22731E-004	-3.59960E-001	-1.03830E+000	3.57690E+000	10	...........
	47	0.64	9.81721E-002	-6.01743E-003	0.00000E+000	-5.90743E-004	-3.59960E-001	-1.04812E+000	3.57690E+000	10	...........
	48	0.653333	9.27771E-002	-6.01520E-003	0.00000E+000	-5.58073E-004	-3.59960E-001	-1.03846E+000	3.57690E+000	10	...........
	49	0.666667	8.73510E-002	-6.01178E-003	0.00000E+000	-5.25135E-004	-3.59960E-001	-1.03844E+000	3.57690E+000	10	...........
	50	0.68	8.19855E-002	-6.01327E-003	0.00000E+000	-4.93001E-004	-3.59960E-001	-1.04872E+000	3.57690E+000	10	...........
	51	0.693333	7.66853E-002	-6.01653E-003	0.00000E+000	-4.61379E-004	-3.59960E-001	-1.03887E+000	3.57690E+000	10	...........
	52	0.706667	7.14521E-002	-6.01604E-003	0.00000E+000	-4.29859E-004	-3.59960E-001	-1.03832E+000	3.57690E+000	10	...........
	53	0.72	6.62097E-002	-6.01332E-003	0.00000E+000	-3.98140E-004	-3.59960E-001	-1.04837E+000	3.57690E+000	10	...........
	54	0.733333	6.10223E-002	-6.01150E-003	0.00000E+000	-3.66836E-004	-3.59960E-001	-1.03872E+000	3.57690E+000	10	...........
	55	0.746667	5.58666E-002	-6.01652E-003	0.00000E+000	-3.36123E-004	-3.59960E-001	-1.03848E+000	3.57690E+000	10	...........
	56	0.76	5.07300E-002	-6.01817E-003	0.00000E+000	-3.05302E-004	-3.59960E-001	-1.04867E+000	3.57690E+000	10	...........
	57	0.773333	4.56936E-002	-6.01653E-003	0.00000E+000	-2.74917E-004	-3.59960E-001	-1.03873E+000	3.57690E+000	10	...........
	58	0.786667	4.06341E-002	-6.01255E-003	0.00000E+000	-2.44315E-004	-3.59960E-001	-1.03832E+000	3.57690E+000	10	...........
	59	0.8	3.56072E-002	-6.01460E-003	0.00000E+000	-2.14163E-004	-3.59960E-001	-1.04839E+000	3.57690E+000	10	...........
	60	0.813333	3.06153E-002	-6.01634E-003	0.00000E+000	-1.84192E-004	-3.59960E-001	-1.03875E+000	3.57690E+000	10	...........
	61	0.826667	2.56695E-002	-6.01736E-003	0.00000E+000	-1.54463E-004	-3.59960E-001	-1.03853E+000	3.57690E+000	10	...........
	62	0.84	2.07282E-002	-6.01654E-003	0.00000E+000	-1.24712E-004	-3.59960E-001	-1.04834E+000	3.57690E+000	10	...........
	63	0.853333	1.58025E-002	-6.02035E-003	0.00000E+000	-9.51365E-005	-3.59960E-001	-1.03893E+000	3.57690E+000	10	...........
	64	0.866667	1.09585E-002	-6.01827E-003	0.00000E+000	-6.59510E-005	-3.59960E-001	-1.03842E+000	3.57690E+000	10	...........
	65	0.88	6.08829E-003	-6.01705E-003	0.00000E+000	-3.66335E-005	-3.59960E-001	-1.04853E+000	3.57690E+000	10	...........
	66	0.891667	1.61697E-003	-6.01467E-003	0.00000E+000	-9.72555E-006	-3.59960E-001	-1.03696E+000	3.57690E+000	10	...........
STARTTIMEOFFSET	QUANT	243.5567	Start Time Offset (s)
