EXPLAIN
TAG	PWR800_DISCHARGE
TITLE	LABEL	PWR Cyclic Charge Discharge (Cell) - Discharge Step	Test &Identifier
DATE	LABEL	22-6-2017	Date
TIME	LABEL	16:09:00	Time
NOTES	NOTES	3	&Notes...
	supercap test cell
	0.6mg
	6M KOH
PSTAT	PSTAT	IFC5000-01520	Potentiostat
CAPACITY	QUANT	1.00000E-003	Capacity (A-hr)
CELLTYPE	SELECTOR	1	&Cell Type
WORKINGCONNECTION	SELECTOR	0	&Working Lead
MAXDISCHARGETIME	VARIABLEANDUNITS	1.00000E+002	s	1.00000E+002	second(s)	Max &Discharge Time
DISCHARGEMODE	MULTIPARAM	0	6.00000E-003	&Discharge Mode	Constant Current	Amp(s)
SAMPLETIME	QUANT	1.00000E-002	Sa&mple Period (s)
DISCHARGESTOPAT1	MULTIPARAM	3	0.00000E+000	Discharge Stop At &1	Voltage < Limit	V
DISCHARGESTOPAT2	MULTIPARAM	0	0.00000E+000	Discharge Stop At &2	None	N/A
AESBHCSELECTOR	TOGGLE	F	Save Both Half Cells
IRCOMP	TOGGLE	F	IR &Measure
EOC	QUANT	0	Open Circuit (V)
SEQUENCER	TOGGLE	TRUE	Run as Sequence
PSTATMODEL	IQUANT	53	Pstat Model
PSTATSECTION	LABEL	IFC5000-01520	Pstat Section
PSTATSERIALNO	LABEL	01520	Pstat Serial Number
CTRLMODE	IQUANT	0	Control Mode
ELECTROMETER	IQUANT	1	RE=0 or CS=1
IESTAB	IQUANT	0	I/E Stability
CASPEED	IQUANT	4	Control Amp Speed
CONVENTION	IQUANT	1	Current Convention
ICHRANGE	IQUANT	2	Ich Range
ICHRANGEMODE	TOGGLE	T	Ich Auto Range
ICHOFFSETENABLE	TOGGLE	F	Ich Offset Enable
ICHOFFSET	QUANT	0	Ich Offset (V)
ICHFILTER	IQUANT	1	Ich Filter
VCHRANGE	IQUANT	2	Vch Range
VCHRANGEMODE	TOGGLE	T	Vch Auto Range
VCHOFFSETENABLE	TOGGLE	F	Vch Offset Enable
VCHOFFSET	QUANT	0	Vch Offset (V)
VCHFILTER	IQUANT	1	Vch Filter
IERANGELOWERLIMIT	IQUANT	9	I/E Range Lower Limit
IERANGEMODE	TOGGLE	F	I/E AutoRange
IERANGE	IQUANT	10	I/E Range
ACHSELECT	IQUANT	1	Ach Select
ACHRANGE	IQUANT	2	Ach Range
ACHOFFSETENABLE	TOGGLE	F	Ach Offset Enable
ACHOFFSET	QUANT	0	Ach Offset (V)
ACHFILTER	IQUANT	1	Ach Filter
CABLEID	IQUANT	14	Cable ID
DCCALDATE	LABEL	20-10-2016	DC Calibration Date
ACCALDATE	LABEL	12/3/2015	AC Calibration Date
FRAMEWORKVERSION	QUANT	7.01	Framework Version
INSTRUMENTVERSION	LABEL	4.00	Instrument Version
CURVE	TABLE	54
	Pt	T	Vf	Im	Vu	Pwr	Sig	Ach	Temp	IERange	Over
	#	s	V	A	V	W	V	V	deg C	#	bits
	0	0.013333	3.81634E-001	-6.01260E-003	0.00000E+000	-2.29461E-003	-3.59960E-001	-1.14026E+000	3.57780E+000	10	...........
	1	0.026667	3.70080E-001	-6.01723E-003	0.00000E+000	-2.22685E-003	-3.59960E-001	-1.13062E+000	3.57780E+000	10	...........
	2	0.04	3.59343E-001	-6.01425E-003	0.00000E+000	-2.16118E-003	-3.59960E-001	-1.13433E+000	3.57780E+000	10	...........
	3	0.053333	3.49200E-001	-6.01566E-003	0.00000E+000	-2.10067E-003	-3.59960E-001	-1.14040E+000	3.57780E+000	10	...........
	4	0.066667	3.39445E-001	-6.01447E-003	0.00000E+000	-2.04158E-003	-3.59960E-001	-1.13088E+000	3.57780E+000	10	...........
	5	0.08	3.29994E-001	-6.01460E-003	0.00000E+000	-1.98478E-003	-3.59960E-001	-1.13476E+000	3.57780E+000	10	...........
	6	0.093333	3.20755E-001	-6.01525E-003	0.00000E+000	-1.92942E-003	-3.59960E-001	-1.14065E+000	3.57780E+000	10	...........
	7	0.106667	3.11658E-001	-6.01519E-003	0.00000E+000	-1.87468E-003	-3.59960E-001	-1.13082E+000	3.57780E+000	10	...........
	8	0.12	3.02747E-001	-6.01204E-003	0.00000E+000	-1.82013E-003	-3.59960E-001	-1.13467E+000	3.57780E+000	10	...........
	9	0.133333	2.94004E-001	-6.01240E-003	0.00000E+000	-1.76767E-003	-3.59960E-001	-1.14085E+000	3.57780E+000	10	...........
	10	0.146667	2.85416E-001	-6.01485E-003	0.00000E+000	-1.71673E-003	-3.59960E-001	-1.13127E+000	3.57780E+000	10	...........
	11	0.16	2.76912E-001	-6.01714E-003	0.00000E+000	-1.66622E-003	-3.59960E-001	-1.13497E+000	3.57780E+000	10	...........
	12	0.173333	2.68563E-001	-6.01500E-003	0.00000E+000	-1.61540E-003	-3.59960E-001	-1.14117E+000	3.57780E+000	10	...........
	13	0.186667	2.60355E-001	-6.00825E-003	0.00000E+000	-1.56428E-003	-3.59960E-001	-1.13154E+000	3.57780E+000	10	...........
	14	0.2	2.52153E-001	-6.01660E-003	0.00000E+000	-1.51711E-003	-3.59960E-001	-1.13512E+000	3.57780E+000	10	...........
	15	0.213333	2.44086E-001	-6.02121E-003	0.00000E+000	-1.46969E-003	-3.59960E-001	-1.14160E+000	3.57780E+000	10	...........
	16	0.226667	2.36179E-001	-6.01625E-003	0.00000E+000	-1.42091E-003	-3.59960E-001	-1.13168E+000	3.57780E+000	10	...........
	17	0.24	2.28307E-001	-6.01553E-003	0.00000E+000	-1.37339E-003	-3.59960E-001	-1.13507E+000	3.57780E+000	10	...........
	18	0.253333	2.20509E-001	-6.01399E-003	0.00000E+000	-1.32614E-003	-3.59960E-001	-1.14167E+000	3.57780E+000	10	...........
	19	0.266667	2.12866E-001	-6.01188E-003	0.00000E+000	-1.27972E-003	-3.59960E-001	-1.13170E+000	3.57780E+000	10	...........
	20	0.28	2.05316E-001	-6.01746E-003	0.00000E+000	-1.23548E-003	-3.59960E-001	-1.13505E+000	3.57780E+000	10	...........
	21	0.293333	1.97852E-001	-6.01345E-003	0.00000E+000	-1.18977E-003	-3.59960E-001	-1.14145E+000	3.57780E+000	10	...........
	22	0.306667	1.90492E-001	-6.01464E-003	0.00000E+000	-1.14574E-003	-3.59960E-001	-1.13156E+000	3.57780E+000	10	...........
	23	0.32	1.83147E-001	-6.01684E-003	0.00000E+000	-1.10197E-003	-3.59960E-001	-1.13496E+000	3.57780E+000	10	...........
	24	0.333333	1.75951E-001	-6.01063E-003	0.00000E+000	-1.05758E-003	-3.59960E-001	-1.14189E+000	3.57780E+000	10	...........
	25	0.346667	1.68823E-001	-6.01123E-003	0.00000E+000	-1.01483E-003	-3.59960E-001	-1.13194E+000	3.57780E+000	10	...........
	26	0.36	1.61770E-001	-6.01553E-003	0.00000E+000	-9.73133E-004	-3.59960E-001	-1.13514E+000	3.57780E+000	10	...........
	27	0.373333	1.54840E-001	-6.01194E-003	0.00000E+000	-9.30889E-004	-3.59960E-001	-1.14201E+000	3.57780E+000	10	...........
	28	0.386667	1.47976E-001	-6.01468E-003	0.00000E+000	-8.90030E-004	-3.59960E-001	-1.13199E+000	3.57780E+000	10	...........
	29	0.4	1.41131E-001	-6.01360E-003	0.00000E+000	-8.48703E-004	-3.59960E-001	-1.13530E+000	3.57780E+000	10	...........
	30	0.413333	1.34365E-001	-6.01377E-003	0.00000E+000	-8.08043E-004	-3.59960E-001	-1.14227E+000	3.57780E+000	10	...........
	31	0.426667	1.27674E-001	-6.02005E-003	0.00000E+000	-7.68606E-004	-3.59960E-001	-1.13225E+000	3.57780E+000	10	...........
	32	0.44	1.21094E-001	-6.02023E-003	0.00000E+000	-7.29017E-004	-3.59960E-001	-1.13510E+000	3.57780E+000	10	...........
	33	0.453333	1.14543E-001	-6.01365E-003	0.00000E+000	-6.88820E-004	-3.59960E-001	-1.14240E+000	3.57780E+000	10	...........
	34	0.466667	1.08098E-001	-6.01606E-003	0.00000E+000	-6.50326E-004	-3.59960E-001	-1.13289E+000	3.57780E+000	10	...........
	35	0.48	1.01697E-001	-6.01741E-003	0.00000E+000	-6.11950E-004	-3.59960E-001	-1.13560E+000	3.57780E+000	10	...........
	36	0.493333	9.53576E-002	-6.01849E-003	0.00000E+000	-5.73909E-004	-3.59960E-001	-1.14309E+000	3.57780E+000	10	...........
	37	0.506667	8.90936E-002	-6.01655E-003	0.00000E+000	-5.36036E-004	-3.59960E-001	-1.13292E+000	3.57780E+000	10	...........
	38	0.52	8.29426E-002	-6.01446E-003	0.00000E+000	-4.98855E-004	-3.59960E-001	-1.13584E+000	3.57780E+000	10	...........
	39	0.533333	7.67813E-002	-6.01660E-003	0.00000E+000	-4.61963E-004	-3.59960E-001	-1.14355E+000	3.57780E+000	10	...........
	40	0.546667	7.07140E-002	-6.01291E-003	0.00000E+000	-4.25197E-004	-3.59960E-001	-1.13347E+000	3.57780E+000	10	...........
	41	0.56	6.47036E-002	-6.01276E-003	0.00000E+000	-3.89047E-004	-3.59960E-001	-1.13580E+000	3.57715E+000	10	...........
	42	0.573333	5.87617E-002	-6.01483E-003	0.00000E+000	-3.53442E-004	-3.59960E-001	-1.14323E+000	3.57630E+000	10	...........
	43	0.586667	5.28749E-002	-6.01797E-003	0.00000E+000	-3.18199E-004	-3.59960E-001	-1.13277E+000	3.57630E+000	10	...........
	44	0.6	4.70589E-002	-6.01800E-003	0.00000E+000	-2.83200E-004	-3.59960E-001	-1.13539E+000	3.57630E+000	10	...........
	45	0.613333	4.12948E-002	-6.01225E-003	0.00000E+000	-2.48275E-004	-3.59960E-001	-1.14315E+000	3.57630E+000	10	...........
	46	0.626667	3.56064E-002	-6.01302E-003	0.00000E+000	-2.14102E-004	-3.59960E-001	-1.13258E+000	3.57630E+000	10	...........
	47	0.64	2.99209E-002	-6.01382E-003	0.00000E+000	-1.79939E-004	-3.59960E-001	-1.13486E+000	3.57630E+000	10	...........
	48	0.653333	2.43251E-002	-6.01139E-003	0.00000E+000	-1.46227E-004	-3.59960E-001	-1.14286E+000	3.57630E+000	10	...........
	49	0.666667	1.87169E-002	-6.01484E-003	0.00000E+000	-1.12579E-004	-3.59960E-001	-1.13250E+000	3.57630E+000	10	...........
	50	0.68	1.32154E-002	-6.01197E-003	0.00000E+000	-7.94508E-005	-3.59960E-001	-1.13463E+000	3.57630E+000	10	...........
	51	0.693333	7.76819E-003	-6.01973E-003	0.00000E+000	-4.67624E-005	-3.59960E-001	-1.14175E+000	3.57630E+000	10	...........
	52	0.706667	2.39682E-003	-6.01621E-003	0.00000E+000	-1.44198E-005	-3.59960E-001	-1.13087E+000	3.57630E+000	10	...........
	53	0.708333	-6.25671E-004	-6.00978E-003	0.00000E+000	3.76015E-006	-3.59960E-001	-1.14563E+000	3.57630E+000	10	...........
STARTTIMEOFFSET	QUANT	1370.474	Start Time Offset (s)
