EXPLAIN
TAG	PWR800_DISCHARGE
TITLE	LABEL	PWR Cyclic Charge Discharge (Cell) - Discharge Step	Test &Identifier
DATE	LABEL	22-6-2017	Date
TIME	LABEL	15:49:03	Time
NOTES	NOTES	3	&Notes...
	supercap test cell
	0.6mg
	6M KOH
PSTAT	PSTAT	IFC5000-01520	Potentiostat
CAPACITY	QUANT	1.00000E-003	Capacity (A-hr)
CELLTYPE	SELECTOR	1	&Cell Type
WORKINGCONNECTION	SELECTOR	0	&Working Lead
MAXDISCHARGETIME	VARIABLEANDUNITS	1.00000E+002	s	1.00000E+002	second(s)	Max &Discharge Time
DISCHARGEMODE	MULTIPARAM	0	6.00000E-003	&Discharge Mode	Constant Current	Amp(s)
SAMPLETIME	QUANT	1.00000E-002	Sa&mple Period (s)
DISCHARGESTOPAT1	MULTIPARAM	3	0.00000E+000	Discharge Stop At &1	Voltage < Limit	V
DISCHARGESTOPAT2	MULTIPARAM	0	0.00000E+000	Discharge Stop At &2	None	N/A
AESBHCSELECTOR	TOGGLE	F	Save Both Half Cells
IRCOMP	TOGGLE	F	IR &Measure
EOC	QUANT	0	Open Circuit (V)
SEQUENCER	TOGGLE	TRUE	Run as Sequence
PSTATMODEL	IQUANT	53	Pstat Model
PSTATSECTION	LABEL	IFC5000-01520	Pstat Section
PSTATSERIALNO	LABEL	01520	Pstat Serial Number
CTRLMODE	IQUANT	0	Control Mode
ELECTROMETER	IQUANT	1	RE=0 or CS=1
IESTAB	IQUANT	0	I/E Stability
CASPEED	IQUANT	4	Control Amp Speed
CONVENTION	IQUANT	1	Current Convention
ICHRANGE	IQUANT	2	Ich Range
ICHRANGEMODE	TOGGLE	T	Ich Auto Range
ICHOFFSETENABLE	TOGGLE	F	Ich Offset Enable
ICHOFFSET	QUANT	0	Ich Offset (V)
ICHFILTER	IQUANT	1	Ich Filter
VCHRANGE	IQUANT	2	Vch Range
VCHRANGEMODE	TOGGLE	T	Vch Auto Range
VCHOFFSETENABLE	TOGGLE	F	Vch Offset Enable
VCHOFFSET	QUANT	0	Vch Offset (V)
VCHFILTER	IQUANT	1	Vch Filter
IERANGELOWERLIMIT	IQUANT	9	I/E Range Lower Limit
IERANGEMODE	TOGGLE	F	I/E AutoRange
IERANGE	IQUANT	10	I/E Range
ACHSELECT	IQUANT	1	Ach Select
ACHRANGE	IQUANT	2	Ach Range
ACHOFFSETENABLE	TOGGLE	F	Ach Offset Enable
ACHOFFSET	QUANT	0	Ach Offset (V)
ACHFILTER	IQUANT	1	Ach Filter
CABLEID	IQUANT	14	Cable ID
DCCALDATE	LABEL	20-10-2016	DC Calibration Date
ACCALDATE	LABEL	12/3/2015	AC Calibration Date
FRAMEWORKVERSION	QUANT	7.01	Framework Version
INSTRUMENTVERSION	LABEL	4.00	Instrument Version
CURVE	TABLE	61
	Pt	T	Vf	Im	Vu	Pwr	Sig	Ach	Temp	IERange	Over
	#	s	V	A	V	W	V	V	deg C	#	bits
	0	0.013333	4.04652E-001	-6.01442E-003	0.00000E+000	-2.43375E-003	-3.59960E-001	-1.08166E+000	3.57680E+000	10	...........
	1	0.026667	3.93885E-001	-6.01492E-003	0.00000E+000	-2.36918E-003	-3.59960E-001	-1.07820E+000	3.57680E+000	10	...........
	2	0.04	3.83850E-001	-6.01945E-003	0.00000E+000	-2.31056E-003	-3.59960E-001	-1.08821E+000	3.57680E+000	10	...........
	3	0.053333	3.74357E-001	-6.01794E-003	0.00000E+000	-2.25286E-003	-3.59960E-001	-1.08154E+000	3.57680E+000	10	...........
	4	0.066667	3.65159E-001	-6.01673E-003	0.00000E+000	-2.19706E-003	-3.59960E-001	-1.07836E+000	3.57680E+000	10	...........
	5	0.08	3.56237E-001	-6.01716E-003	0.00000E+000	-2.14354E-003	-3.59960E-001	-1.08852E+000	3.57680E+000	10	...........
	6	0.093333	3.47562E-001	-6.01539E-003	0.00000E+000	-2.09072E-003	-3.59960E-001	-1.08177E+000	3.57680E+000	10	...........
	7	0.106667	3.39069E-001	-6.01130E-003	0.00000E+000	-2.03824E-003	-3.59960E-001	-1.07825E+000	3.57680E+000	10	...........
	8	0.12	3.30711E-001	-6.01267E-003	0.00000E+000	-1.98845E-003	-3.59960E-001	-1.08827E+000	3.57680E+000	10	...........
	9	0.133333	3.22521E-001	-6.01182E-003	0.00000E+000	-1.93894E-003	-3.59960E-001	-1.08204E+000	3.57665E+000	10	...........
	10	0.146667	3.14412E-001	-6.01334E-003	0.00000E+000	-1.89067E-003	-3.59960E-001	-1.07857E+000	3.57660E+000	10	...........
	11	0.16	3.06418E-001	-6.01831E-003	0.00000E+000	-1.84412E-003	-3.59960E-001	-1.08847E+000	3.57660E+000	10	...........
	12	0.173333	2.98532E-001	-6.01679E-003	0.00000E+000	-1.79620E-003	-3.59960E-001	-1.08213E+000	3.57660E+000	10	...........
	13	0.186667	2.90793E-001	-6.01830E-003	0.00000E+000	-1.75008E-003	-3.59960E-001	-1.07851E+000	3.57660E+000	10	...........
	14	0.2	2.83101E-001	-6.01357E-003	0.00000E+000	-1.70245E-003	-3.59960E-001	-1.08865E+000	3.57660E+000	10	...........
	15	0.213333	2.75509E-001	-6.01521E-003	0.00000E+000	-1.65724E-003	-3.59960E-001	-1.08226E+000	3.57660E+000	10	...........
	16	0.226667	2.67975E-001	-6.01637E-003	0.00000E+000	-1.61224E-003	-3.59960E-001	-1.07840E+000	3.57660E+000	10	...........
	17	0.24	2.60557E-001	-6.01475E-003	0.00000E+000	-1.56718E-003	-3.59960E-001	-1.08831E+000	3.57660E+000	10	...........
	18	0.253333	2.53206E-001	-6.01471E-003	0.00000E+000	-1.52296E-003	-3.59960E-001	-1.08206E+000	3.57660E+000	10	...........
	19	0.266667	2.45965E-001	-6.01450E-003	0.00000E+000	-1.47936E-003	-3.59960E-001	-1.07835E+000	3.57660E+000	10	...........
	20	0.28	2.38769E-001	-6.00907E-003	0.00000E+000	-1.43478E-003	-3.59960E-001	-1.08837E+000	3.57660E+000	10	...........
	21	0.293333	2.31683E-001	-6.01331E-003	0.00000E+000	-1.39318E-003	-3.59960E-001	-1.08204E+000	3.57660E+000	10	...........
	22	0.306667	2.24666E-001	-6.01067E-003	0.00000E+000	-1.35039E-003	-3.59960E-001	-1.07832E+000	3.57660E+000	10	...........
	23	0.32	2.17708E-001	-6.01757E-003	0.00000E+000	-1.31007E-003	-3.59960E-001	-1.08853E+000	3.57660E+000	10	...........
	24	0.333333	2.10779E-001	-6.01681E-003	0.00000E+000	-1.26822E-003	-3.59960E-001	-1.08268E+000	3.57660E+000	10	...........
	25	0.346667	2.03984E-001	-6.01895E-003	0.00000E+000	-1.22777E-003	-3.59960E-001	-1.07865E+000	3.57660E+000	10	...........
	26	0.36	1.97228E-001	-6.01412E-003	0.00000E+000	-1.18615E-003	-3.59960E-001	-1.08842E+000	3.57660E+000	10	...........
	27	0.373333	1.90538E-001	-6.01662E-003	0.00000E+000	-1.14639E-003	-3.59960E-001	-1.08248E+000	3.57660E+000	10	...........
	28	0.386667	1.83911E-001	-6.01298E-003	0.00000E+000	-1.10585E-003	-3.59960E-001	-1.07881E+000	3.57660E+000	10	...........
	29	0.4	1.77372E-001	-6.01250E-003	0.00000E+000	-1.06645E-003	-3.59960E-001	-1.08878E+000	3.57660E+000	10	...........
	30	0.413333	1.70873E-001	-6.01624E-003	0.00000E+000	-1.02801E-003	-3.59960E-001	-1.08276E+000	3.57660E+000	10	...........
	31	0.426667	1.64451E-001	-6.01446E-003	0.00000E+000	-9.89084E-004	-3.59960E-001	-1.07871E+000	3.57660E+000	10	...........
	32	0.44	1.58098E-001	-6.01375E-003	0.00000E+000	-9.50761E-004	-3.59960E-001	-1.08875E+000	3.57660E+000	10	...........
	33	0.453333	1.51756E-001	-6.01562E-003	0.00000E+000	-9.12906E-004	-3.59960E-001	-1.08315E+000	3.57660E+000	10	...........
	34	0.466667	1.45514E-001	-6.01657E-003	0.00000E+000	-8.75494E-004	-3.59960E-001	-1.07911E+000	3.57660E+000	10	...........
	35	0.48	1.39333E-001	-6.01369E-003	0.00000E+000	-8.37907E-004	-3.59960E-001	-1.08891E+000	3.57660E+000	10	...........
	36	0.493333	1.33195E-001	-6.01795E-003	0.00000E+000	-8.01563E-004	-3.59960E-001	-1.08336E+000	3.57660E+000	10	...........
	37	0.506667	1.27135E-001	-6.01494E-003	0.00000E+000	-7.64709E-004	-3.59960E-001	-1.07905E+000	3.57660E+000	10	...........
	38	0.52	1.21076E-001	-6.01395E-003	0.00000E+000	-7.28146E-004	-3.59960E-001	-1.08897E+000	3.57660E+000	10	...........
	39	0.533333	1.15090E-001	-6.01454E-003	0.00000E+000	-6.92212E-004	-3.59960E-001	-1.08354E+000	3.57660E+000	10	...........
	40	0.546667	1.09144E-001	-6.01514E-003	0.00000E+000	-6.56518E-004	-3.59960E-001	-1.07921E+000	3.57660E+000	10	...........
	41	0.56	1.03267E-001	-6.01714E-003	0.00000E+000	-6.21371E-004	-3.59960E-001	-1.08853E+000	3.57660E+000	10	...........
	42	0.573333	9.74359E-002	-6.01629E-003	0.00000E+000	-5.86202E-004	-3.59960E-001	-1.08301E+000	3.57660E+000	10	...........
	43	0.586667	9.16739E-002	-6.01222E-003	0.00000E+000	-5.51164E-004	-3.59960E-001	-1.07900E+000	3.57660E+000	10	...........
	44	0.6	8.59465E-002	-6.01391E-003	0.00000E+000	-5.16875E-004	-3.59960E-001	-1.08870E+000	3.57660E+000	10	...........
	45	0.613333	8.02787E-002	-6.01310E-003	0.00000E+000	-4.82724E-004	-3.59960E-001	-1.08329E+000	3.57660E+000	10	...........
	46	0.626667	7.46291E-002	-6.01813E-003	0.00000E+000	-4.49128E-004	-3.59960E-001	-1.07880E+000	3.57660E+000	10	...........
	47	0.64	6.90346E-002	-6.01562E-003	0.00000E+000	-4.15286E-004	-3.59960E-001	-1.08851E+000	3.57660E+000	10	...........
	48	0.653333	6.35110E-002	-6.01536E-003	0.00000E+000	-3.82042E-004	-3.59960E-001	-1.08349E+000	3.57660E+000	10	...........
	49	0.666667	5.79683E-002	-6.01301E-003	0.00000E+000	-3.48564E-004	-3.59960E-001	-1.07908E+000	3.57660E+000	10	...........
	50	0.68	5.25117E-002	-6.01776E-003	0.00000E+000	-3.16003E-004	-3.59960E-001	-1.08853E+000	3.57660E+000	10	...........
	51	0.693333	4.71648E-002	-6.01345E-003	0.00000E+000	-2.83623E-004	-3.59960E-001	-1.08316E+000	3.57660E+000	10	...........
	52	0.706667	4.18305E-002	-6.01522E-003	0.00000E+000	-2.51620E-004	-3.59960E-001	-1.07908E+000	3.57660E+000	10	...........
	53	0.72	3.65170E-002	-6.01421E-003	0.00000E+000	-2.19621E-004	-3.59960E-001	-1.08877E+000	3.57660E+000	10	...........
	54	0.733333	3.12012E-002	-6.01472E-003	0.00000E+000	-1.87667E-004	-3.59960E-001	-1.08358E+000	3.57660E+000	10	...........
	55	0.746667	2.59817E-002	-6.01865E-003	0.00000E+000	-1.56375E-004	-3.59960E-001	-1.07914E+000	3.57660E+000	10	...........
	56	0.76	2.07563E-002	-6.01593E-003	0.00000E+000	-1.24869E-004	-3.59960E-001	-1.08857E+000	3.57660E+000	10	...........
	57	0.773333	1.55845E-002	-6.01399E-003	0.00000E+000	-9.37252E-005	-3.59960E-001	-1.08391E+000	3.57660E+000	10	...........
	58	0.786667	1.04558E-002	-6.01775E-003	0.00000E+000	-6.29206E-005	-3.59960E-001	-1.07952E+000	3.57660E+000	10	...........
	59	0.8	5.40913E-003	-6.01861E-003	0.00000E+000	-3.25555E-005	-3.59960E-001	-1.08869E+000	3.57660E+000	10	...........
	60	0.81	1.01886E-003	-6.01538E-003	0.00000E+000	-6.12882E-006	-3.59960E-001	-1.08084E+000	3.57660E+000	10	...........
STARTTIMEOFFSET	QUANT	586.1781	Start Time Offset (s)
