EXPLAIN
TAG	PWR800_DISCHARGE
TITLE	LABEL	PWR Cyclic Charge Discharge (Cell) - Discharge Step	Test &Identifier
DATE	LABEL	22-6-2017	Date
TIME	LABEL	16:00:21	Time
NOTES	NOTES	3	&Notes...
	supercap test cell
	0.6mg
	6M KOH
PSTAT	PSTAT	IFC5000-01520	Potentiostat
CAPACITY	QUANT	1.00000E-003	Capacity (A-hr)
CELLTYPE	SELECTOR	1	&Cell Type
WORKINGCONNECTION	SELECTOR	0	&Working Lead
MAXDISCHARGETIME	VARIABLEANDUNITS	1.00000E+002	s	1.00000E+002	second(s)	Max &Discharge Time
DISCHARGEMODE	MULTIPARAM	0	6.00000E-003	&Discharge Mode	Constant Current	Amp(s)
SAMPLETIME	QUANT	1.00000E-002	Sa&mple Period (s)
DISCHARGESTOPAT1	MULTIPARAM	3	0.00000E+000	Discharge Stop At &1	Voltage < Limit	V
DISCHARGESTOPAT2	MULTIPARAM	0	0.00000E+000	Discharge Stop At &2	None	N/A
AESBHCSELECTOR	TOGGLE	F	Save Both Half Cells
IRCOMP	TOGGLE	F	IR &Measure
EOC	QUANT	0	Open Circuit (V)
SEQUENCER	TOGGLE	TRUE	Run as Sequence
PSTATMODEL	IQUANT	53	Pstat Model
PSTATSECTION	LABEL	IFC5000-01520	Pstat Section
PSTATSERIALNO	LABEL	01520	Pstat Serial Number
CTRLMODE	IQUANT	0	Control Mode
ELECTROMETER	IQUANT	1	RE=0 or CS=1
IESTAB	IQUANT	0	I/E Stability
CASPEED	IQUANT	4	Control Amp Speed
CONVENTION	IQUANT	1	Current Convention
ICHRANGE	IQUANT	2	Ich Range
ICHRANGEMODE	TOGGLE	T	Ich Auto Range
ICHOFFSETENABLE	TOGGLE	F	Ich Offset Enable
ICHOFFSET	QUANT	0	Ich Offset (V)
ICHFILTER	IQUANT	1	Ich Filter
VCHRANGE	IQUANT	2	Vch Range
VCHRANGEMODE	TOGGLE	T	Vch Auto Range
VCHOFFSETENABLE	TOGGLE	F	Vch Offset Enable
VCHOFFSET	QUANT	0	Vch Offset (V)
VCHFILTER	IQUANT	1	Vch Filter
IERANGELOWERLIMIT	IQUANT	9	I/E Range Lower Limit
IERANGEMODE	TOGGLE	F	I/E AutoRange
IERANGE	IQUANT	10	I/E Range
ACHSELECT	IQUANT	1	Ach Select
ACHRANGE	IQUANT	2	Ach Range
ACHOFFSETENABLE	TOGGLE	F	Ach Offset Enable
ACHOFFSET	QUANT	0	Ach Offset (V)
ACHFILTER	IQUANT	1	Ach Filter
CABLEID	IQUANT	14	Cable ID
DCCALDATE	LABEL	20-10-2016	DC Calibration Date
ACCALDATE	LABEL	12/3/2015	AC Calibration Date
FRAMEWORKVERSION	QUANT	7.01	Framework Version
INSTRUMENTVERSION	LABEL	4.00	Instrument Version
CURVE	TABLE	56
	Pt	T	Vf	Im	Vu	Pwr	Sig	Ach	Temp	IERange	Over
	#	s	V	A	V	W	V	V	deg C	#	bits
	0	0.013333	3.90076E-001	-6.01599E-003	0.00000E+000	-2.34669E-003	-3.59960E-001	-1.11646E+000	3.57980E+000	10	...........
	1	0.026667	3.78832E-001	-6.01470E-003	0.00000E+000	-2.27856E-003	-3.59960E-001	-1.11444E+000	3.57980E+000	10	...........
	2	0.04	3.68346E-001	-6.01808E-003	0.00000E+000	-2.21673E-003	-3.59960E-001	-1.12516E+000	3.57980E+000	10	...........
	3	0.053333	3.58444E-001	-6.01284E-003	0.00000E+000	-2.15526E-003	-3.59960E-001	-1.11635E+000	3.57980E+000	10	...........
	4	0.066667	3.48924E-001	-6.01624E-003	0.00000E+000	-2.09921E-003	-3.59960E-001	-1.11437E+000	3.57980E+000	10	...........
	5	0.08	3.39666E-001	-6.01575E-003	0.00000E+000	-2.04334E-003	-3.59960E-001	-1.12540E+000	3.57980E+000	10	...........
	6	0.093333	3.30622E-001	-6.01350E-003	0.00000E+000	-1.98820E-003	-3.59960E-001	-1.11642E+000	3.57980E+000	10	...........
	7	0.106667	3.21765E-001	-6.01783E-003	0.00000E+000	-1.93633E-003	-3.59960E-001	-1.11445E+000	3.57980E+000	10	...........
	8	0.12	3.13103E-001	-6.00988E-003	0.00000E+000	-1.88171E-003	-3.59960E-001	-1.12566E+000	3.57980E+000	10	...........
	9	0.133333	3.04525E-001	-6.01292E-003	0.00000E+000	-1.83108E-003	-3.59960E-001	-1.11681E+000	3.57980E+000	10	...........
	10	0.146667	2.96133E-001	-6.01236E-003	0.00000E+000	-1.78046E-003	-3.59960E-001	-1.11506E+000	3.57980E+000	10	...........
	11	0.16	2.87829E-001	-6.01617E-003	0.00000E+000	-1.73163E-003	-3.59960E-001	-1.12602E+000	3.57980E+000	10	...........
	12	0.173333	2.79621E-001	-6.01158E-003	0.00000E+000	-1.68097E-003	-3.59960E-001	-1.11704E+000	3.57980E+000	10	...........
	13	0.186667	2.71546E-001	-6.01614E-003	0.00000E+000	-1.63366E-003	-3.59960E-001	-1.11507E+000	3.57980E+000	10	...........
	14	0.2	2.63573E-001	-6.01879E-003	0.00000E+000	-1.58639E-003	-3.59960E-001	-1.12633E+000	3.57980E+000	10	...........
	15	0.213333	2.55690E-001	-6.01533E-003	0.00000E+000	-1.53806E-003	-3.59960E-001	-1.11710E+000	3.57980E+000	10	...........
	16	0.226667	2.47913E-001	-6.01133E-003	0.00000E+000	-1.49029E-003	-3.59960E-001	-1.11533E+000	3.57980E+000	10	...........
	17	0.24	2.40262E-001	-6.01228E-003	0.00000E+000	-1.44452E-003	-3.59960E-001	-1.12630E+000	3.57980E+000	10	...........
	18	0.253333	2.32701E-001	-6.01585E-003	0.00000E+000	-1.39989E-003	-3.59960E-001	-1.11736E+000	3.57980E+000	10	...........
	19	0.266667	2.25197E-001	-6.01285E-003	0.00000E+000	-1.35408E-003	-3.59960E-001	-1.11575E+000	3.57980E+000	10	...........
	20	0.28	2.17761E-001	-6.00865E-003	0.00000E+000	-1.30845E-003	-3.59960E-001	-1.12675E+000	3.57980E+000	10	...........
	21	0.293333	2.10436E-001	-6.01389E-003	0.00000E+000	-1.26554E-003	-3.59960E-001	-1.11729E+000	3.57980E+000	10	...........
	22	0.306667	2.03208E-001	-6.01819E-003	0.00000E+000	-1.22294E-003	-3.59960E-001	-1.11562E+000	3.57980E+000	10	...........
	23	0.32	1.96008E-001	-6.00957E-003	0.00000E+000	-1.17792E-003	-3.59960E-001	-1.12680E+000	3.57980E+000	10	...........
	24	0.333333	1.88917E-001	-6.01818E-003	0.00000E+000	-1.13693E-003	-3.59960E-001	-1.11776E+000	3.57980E+000	10	...........
	25	0.346667	1.81950E-001	-6.01784E-003	0.00000E+000	-1.09495E-003	-3.59960E-001	-1.11576E+000	3.57980E+000	10	...........
	26	0.36	1.75018E-001	-6.01427E-003	0.00000E+000	-1.05261E-003	-3.59960E-001	-1.12660E+000	3.57980E+000	10	...........
	27	0.373333	1.68133E-001	-6.01423E-003	0.00000E+000	-1.01119E-003	-3.59960E-001	-1.11747E+000	3.57980E+000	10	...........
	28	0.386667	1.61377E-001	-6.01519E-003	0.00000E+000	-9.70716E-004	-3.59960E-001	-1.11567E+000	3.57980E+000	10	...........
	29	0.4	1.54685E-001	-6.02084E-003	0.00000E+000	-9.31334E-004	-3.59960E-001	-1.12690E+000	3.57980E+000	10	...........
	30	0.413333	1.48030E-001	-6.01443E-003	0.00000E+000	-8.90319E-004	-3.59960E-001	-1.11746E+000	3.57980E+000	10	...........
	31	0.426667	1.41450E-001	-6.01720E-003	0.00000E+000	-8.51134E-004	-3.59960E-001	-1.11578E+000	3.57980E+000	10	...........
	32	0.44	1.34939E-001	-6.01607E-003	0.00000E+000	-8.11801E-004	-3.59960E-001	-1.12678E+000	3.57980E+000	10	...........
	33	0.453333	1.28504E-001	-6.01089E-003	0.00000E+000	-7.72426E-004	-3.59960E-001	-1.11744E+000	3.57980E+000	10	...........
	34	0.466667	1.22092E-001	-6.01638E-003	0.00000E+000	-7.34550E-004	-3.59960E-001	-1.11606E+000	3.57725E+000	10	...........
	35	0.48	1.15728E-001	-6.01787E-003	0.00000E+000	-6.96434E-004	-3.59960E-001	-1.12706E+000	3.57640E+000	10	...........
	36	0.493333	1.09446E-001	-6.01507E-003	0.00000E+000	-6.58328E-004	-3.59960E-001	-1.11749E+000	3.57640E+000	10	...........
	37	0.506667	1.03257E-001	-6.01713E-003	0.00000E+000	-6.21310E-004	-3.59960E-001	-1.11598E+000	3.57640E+000	10	...........
	38	0.52	9.71174E-002	-6.01717E-003	0.00000E+000	-5.84372E-004	-3.59960E-001	-1.12716E+000	3.57640E+000	10	...........
	39	0.533333	9.10551E-002	-6.01647E-003	0.00000E+000	-5.47830E-004	-3.59960E-001	-1.11771E+000	3.57640E+000	10	...........
	40	0.546667	8.50188E-002	-6.01801E-003	0.00000E+000	-5.11644E-004	-3.59960E-001	-1.11615E+000	3.57640E+000	10	...........
	41	0.56	7.90591E-002	-6.01590E-003	0.00000E+000	-4.75612E-004	-3.59960E-001	-1.12699E+000	3.57640E+000	10	...........
	42	0.573333	7.31628E-002	-6.01037E-003	0.00000E+000	-4.39736E-004	-3.59960E-001	-1.11768E+000	3.57640E+000	10	...........
	43	0.586667	6.72975E-002	-6.01156E-003	0.00000E+000	-4.04563E-004	-3.59960E-001	-1.11650E+000	3.57640E+000	10	...........
	44	0.6	6.14745E-002	-6.01529E-003	0.00000E+000	-3.69787E-004	-3.59960E-001	-1.12762E+000	3.57640E+000	10	...........
	45	0.613333	5.57430E-002	-6.01275E-003	0.00000E+000	-3.35169E-004	-3.59960E-001	-1.11777E+000	3.57640E+000	10	...........
	46	0.626667	5.00204E-002	-6.01746E-003	0.00000E+000	-3.00996E-004	-3.59960E-001	-1.11628E+000	3.57640E+000	10	...........
	47	0.64	4.44459E-002	-6.01795E-003	0.00000E+000	-2.67473E-004	-3.59960E-001	-1.12740E+000	3.57640E+000	10	...........
	48	0.653333	3.88601E-002	-6.01273E-003	0.00000E+000	-2.33655E-004	-3.59960E-001	-1.11799E+000	3.57640E+000	10	...........
	49	0.666667	3.33475E-002	-6.01643E-003	0.00000E+000	-2.00633E-004	-3.59960E-001	-1.11648E+000	3.57640E+000	10	...........
	50	0.68	2.78177E-002	-6.01409E-003	0.00000E+000	-1.67298E-004	-3.59960E-001	-1.12718E+000	3.57640E+000	10	...........
	51	0.693333	2.23795E-002	-6.01990E-003	0.00000E+000	-1.34722E-004	-3.59960E-001	-1.11733E+000	3.57640E+000	10	...........
	52	0.706667	1.70178E-002	-6.01373E-003	0.00000E+000	-1.02341E-004	-3.59960E-001	-1.11614E+000	3.57640E+000	10	...........
	53	0.72	1.16801E-002	-6.02016E-003	0.00000E+000	-7.03161E-005	-3.59960E-001	-1.12730E+000	3.57640E+000	10	...........
	54	0.733333	6.36426E-003	-6.01819E-003	0.00000E+000	-3.83013E-005	-3.59960E-001	-1.11763E+000	3.57640E+000	10	...........
	55	0.745	1.39569E-003	-6.01337E-003	0.00000E+000	-8.39277E-006	-3.59960E-001	-1.11712E+000	3.57640E+000	10	...........
STARTTIMEOFFSET	QUANT	1034.135	Start Time Offset (s)
