EXPLAIN
TAG	PWR800_DISCHARGE
TITLE	LABEL	PWR Cyclic Charge Discharge (Cell) - Discharge Step	Test &Identifier
DATE	LABEL	22-6-2017	Date
TIME	LABEL	15:55:23	Time
NOTES	NOTES	3	&Notes...
	supercap test cell
	0.6mg
	6M KOH
PSTAT	PSTAT	IFC5000-01520	Potentiostat
CAPACITY	QUANT	1.00000E-003	Capacity (A-hr)
CELLTYPE	SELECTOR	1	&Cell Type
WORKINGCONNECTION	SELECTOR	0	&Working Lead
MAXDISCHARGETIME	VARIABLEANDUNITS	1.00000E+002	s	1.00000E+002	second(s)	Max &Discharge Time
DISCHARGEMODE	MULTIPARAM	0	6.00000E-003	&Discharge Mode	Constant Current	Amp(s)
SAMPLETIME	QUANT	1.00000E-002	Sa&mple Period (s)
DISCHARGESTOPAT1	MULTIPARAM	3	0.00000E+000	Discharge Stop At &1	Voltage < Limit	V
DISCHARGESTOPAT2	MULTIPARAM	0	0.00000E+000	Discharge Stop At &2	None	N/A
AESBHCSELECTOR	TOGGLE	F	Save Both Half Cells
IRCOMP	TOGGLE	F	IR &Measure
EOC	QUANT	0	Open Circuit (V)
SEQUENCER	TOGGLE	TRUE	Run as Sequence
PSTATMODEL	IQUANT	53	Pstat Model
PSTATSECTION	LABEL	IFC5000-01520	Pstat Section
PSTATSERIALNO	LABEL	01520	Pstat Serial Number
CTRLMODE	IQUANT	0	Control Mode
ELECTROMETER	IQUANT	1	RE=0 or CS=1
IESTAB	IQUANT	0	I/E Stability
CASPEED	IQUANT	4	Control Amp Speed
CONVENTION	IQUANT	1	Current Convention
ICHRANGE	IQUANT	2	Ich Range
ICHRANGEMODE	TOGGLE	T	Ich Auto Range
ICHOFFSETENABLE	TOGGLE	F	Ich Offset Enable
ICHOFFSET	QUANT	0	Ich Offset (V)
ICHFILTER	IQUANT	1	Ich Filter
VCHRANGE	IQUANT	2	Vch Range
VCHRANGEMODE	TOGGLE	T	Vch Auto Range
VCHOFFSETENABLE	TOGGLE	F	Vch Offset Enable
VCHOFFSET	QUANT	0	Vch Offset (V)
VCHFILTER	IQUANT	1	Vch Filter
IERANGELOWERLIMIT	IQUANT	9	I/E Range Lower Limit
IERANGEMODE	TOGGLE	F	I/E AutoRange
IERANGE	IQUANT	10	I/E Range
ACHSELECT	IQUANT	1	Ach Select
ACHRANGE	IQUANT	2	Ach Range
ACHOFFSETENABLE	TOGGLE	F	Ach Offset Enable
ACHOFFSET	QUANT	0	Ach Offset (V)
ACHFILTER	IQUANT	1	Ach Filter
CABLEID	IQUANT	14	Cable ID
DCCALDATE	LABEL	20-10-2016	DC Calibration Date
ACCALDATE	LABEL	12/3/2015	AC Calibration Date
FRAMEWORKVERSION	QUANT	7.01	Framework Version
INSTRUMENTVERSION	LABEL	4.00	Instrument Version
CURVE	TABLE	58
	Pt	T	Vf	Im	Vu	Pwr	Sig	Ach	Temp	IERange	Over
	#	s	V	A	V	W	V	V	deg C	#	bits
	0	0.013333	3.95680E-001	-6.02022E-003	0.00000E+000	-2.38208E-003	-3.59960E-001	-1.09360E+000	3.57790E+000	10	...........
	1	0.026667	3.84602E-001	-6.01312E-003	0.00000E+000	-2.31266E-003	-3.59960E-001	-1.10322E+000	3.57790E+000	10	...........
	2	0.04	3.74308E-001	-6.01525E-003	0.00000E+000	-2.25156E-003	-3.59960E-001	-1.09292E+000	3.57790E+000	10	...........
	3	0.053333	3.64543E-001	-6.01303E-003	0.00000E+000	-2.19201E-003	-3.59960E-001	-1.09396E+000	3.57790E+000	10	...........
	4	0.066667	3.55132E-001	-6.02017E-003	0.00000E+000	-2.13796E-003	-3.59960E-001	-1.10351E+000	3.57790E+000	10	...........
	5	0.08	3.46012E-001	-6.01356E-003	0.00000E+000	-2.08076E-003	-3.59960E-001	-1.09338E+000	3.57790E+000	10	...........
	6	0.093333	3.37151E-001	-6.01541E-003	0.00000E+000	-2.02810E-003	-3.59960E-001	-1.09415E+000	3.57790E+000	10	...........
	7	0.106667	3.28416E-001	-6.01595E-003	0.00000E+000	-1.97574E-003	-3.59960E-001	-1.10348E+000	3.57790E+000	10	...........
	8	0.12	3.19841E-001	-6.01314E-003	0.00000E+000	-1.92325E-003	-3.59960E-001	-1.09351E+000	3.57790E+000	10	...........
	9	0.133333	3.11389E-001	-6.01680E-003	0.00000E+000	-1.87356E-003	-3.59960E-001	-1.09484E+000	3.57790E+000	10	...........
	10	0.146667	3.03100E-001	-6.01829E-003	0.00000E+000	-1.82415E-003	-3.59960E-001	-1.10374E+000	3.57790E+000	10	...........
	11	0.16	2.94949E-001	-6.01284E-003	0.00000E+000	-1.77348E-003	-3.59960E-001	-1.09322E+000	3.57790E+000	10	...........
	12	0.173333	2.86846E-001	-6.01571E-003	0.00000E+000	-1.72558E-003	-3.59960E-001	-1.09451E+000	3.57790E+000	10	...........
	13	0.186667	2.78877E-001	-6.01088E-003	0.00000E+000	-1.67630E-003	-3.59960E-001	-1.10399E+000	3.57790E+000	10	...........
	14	0.2	2.70989E-001	-6.01773E-003	0.00000E+000	-1.63074E-003	-3.59960E-001	-1.09370E+000	3.57790E+000	10	...........
	15	0.213333	2.63250E-001	-6.01841E-003	0.00000E+000	-1.58435E-003	-3.59960E-001	-1.09486E+000	3.57790E+000	10	...........
	16	0.226667	2.55615E-001	-6.02047E-003	0.00000E+000	-1.53892E-003	-3.59960E-001	-1.10437E+000	3.57790E+000	10	...........
	17	0.24	2.48054E-001	-6.01322E-003	0.00000E+000	-1.49161E-003	-3.59960E-001	-1.09387E+000	3.57790E+000	10	...........
	18	0.253333	2.40565E-001	-6.01277E-003	0.00000E+000	-1.44647E-003	-3.59960E-001	-1.09517E+000	3.57790E+000	10	...........
	19	0.266667	2.33152E-001	-6.01571E-003	0.00000E+000	-1.40258E-003	-3.59960E-001	-1.10424E+000	3.57790E+000	10	...........
	20	0.28	2.25841E-001	-6.01819E-003	0.00000E+000	-1.35915E-003	-3.59960E-001	-1.09425E+000	3.57790E+000	10	...........
	21	0.293333	2.18635E-001	-6.01187E-003	0.00000E+000	-1.31440E-003	-3.59960E-001	-1.09523E+000	3.57790E+000	10	...........
	22	0.306667	2.11446E-001	-6.01515E-003	0.00000E+000	-1.27188E-003	-3.59960E-001	-1.10476E+000	3.57790E+000	10	...........
	23	0.32	2.04420E-001	-6.01231E-003	0.00000E+000	-1.22904E-003	-3.59960E-001	-1.09444E+000	3.57790E+000	10	...........
	24	0.333333	1.97393E-001	-6.01667E-003	0.00000E+000	-1.18765E-003	-3.59960E-001	-1.09570E+000	3.57790E+000	10	...........
	25	0.346667	1.90445E-001	-6.01247E-003	0.00000E+000	-1.14505E-003	-3.59960E-001	-1.10476E+000	3.57790E+000	10	...........
	26	0.36	1.83564E-001	-6.01626E-003	0.00000E+000	-1.10437E-003	-3.59960E-001	-1.09465E+000	3.57790E+000	10	...........
	27	0.373333	1.76781E-001	-6.01498E-003	0.00000E+000	-1.06333E-003	-3.59960E-001	-1.09621E+000	3.57790E+000	10	...........
	28	0.386667	1.70029E-001	-6.01513E-003	0.00000E+000	-1.02275E-003	-3.59960E-001	-1.10539E+000	3.57790E+000	10	...........
	29	0.4	1.63421E-001	-6.01048E-003	0.00000E+000	-9.82239E-004	-3.59960E-001	-1.09492E+000	3.57790E+000	10	...........
	30	0.413333	1.56837E-001	-6.00913E-003	0.00000E+000	-9.42457E-004	-3.59960E-001	-1.09641E+000	3.57790E+000	10	...........
	31	0.426667	1.50312E-001	-6.01811E-003	0.00000E+000	-9.04593E-004	-3.59960E-001	-1.10574E+000	3.57790E+000	10	...........
	32	0.44	1.43856E-001	-6.01225E-003	0.00000E+000	-8.64900E-004	-3.59960E-001	-1.09533E+000	3.57790E+000	10	...........
	33	0.453333	1.37473E-001	-6.01594E-003	0.00000E+000	-8.27028E-004	-3.59960E-001	-1.09692E+000	3.57790E+000	10	...........
	34	0.466667	1.31123E-001	-6.01506E-003	0.00000E+000	-7.88711E-004	-3.59960E-001	-1.10577E+000	3.57790E+000	10	...........
	35	0.48	1.24869E-001	-6.01288E-003	0.00000E+000	-7.50822E-004	-3.59960E-001	-1.09537E+000	3.57790E+000	10	...........
	36	0.493333	1.18650E-001	-6.01233E-003	0.00000E+000	-7.13365E-004	-3.59960E-001	-1.09679E+000	3.57790E+000	10	...........
	37	0.506667	1.12550E-001	-6.01011E-003	0.00000E+000	-6.76436E-004	-3.59960E-001	-1.10591E+000	3.57790E+000	10	...........
	38	0.52	1.06437E-001	-6.01001E-003	0.00000E+000	-6.39690E-004	-3.59960E-001	-1.09573E+000	3.57790E+000	10	...........
	39	0.533333	1.00393E-001	-6.01372E-003	0.00000E+000	-6.03736E-004	-3.59960E-001	-1.09743E+000	3.57790E+000	10	...........
	40	0.546667	9.44131E-002	-6.01565E-003	0.00000E+000	-5.67956E-004	-3.59960E-001	-1.10619E+000	3.57790E+000	10	...........
	41	0.56	8.84692E-002	-6.01309E-003	0.00000E+000	-5.31973E-004	-3.59960E-001	-1.09635E+000	3.57790E+000	10	...........
	42	0.573333	8.26119E-002	-6.01705E-003	0.00000E+000	-4.97080E-004	-3.59960E-001	-1.09791E+000	3.57790E+000	10	...........
	43	0.586667	7.68035E-002	-6.01179E-003	0.00000E+000	-4.61727E-004	-3.59960E-001	-1.10648E+000	3.57790E+000	10	...........
	44	0.6	7.10452E-002	-6.01230E-003	0.00000E+000	-4.27146E-004	-3.59960E-001	-1.09627E+000	3.57790E+000	10	...........
	45	0.613333	6.53259E-002	-6.01588E-003	0.00000E+000	-3.92993E-004	-3.59960E-001	-1.09786E+000	3.57790E+000	10	...........
	46	0.626667	5.96260E-002	-6.01350E-003	0.00000E+000	-3.58561E-004	-3.59960E-001	-1.10677E+000	3.57790E+000	10	...........
	47	0.64	5.39991E-002	-6.01860E-003	0.00000E+000	-3.24999E-004	-3.59960E-001	-1.09668E+000	3.57790E+000	10	...........
	48	0.653333	4.84331E-002	-6.01539E-003	0.00000E+000	-2.91344E-004	-3.59960E-001	-1.09870E+000	3.57790E+000	10	...........
	49	0.666667	4.29399E-002	-6.01857E-003	0.00000E+000	-2.58437E-004	-3.59960E-001	-1.10732E+000	3.57790E+000	10	...........
	50	0.68	3.74798E-002	-6.01467E-003	0.00000E+000	-2.25429E-004	-3.59960E-001	-1.09720E+000	3.57790E+000	10	...........
	51	0.693333	3.20589E-002	-6.01518E-003	0.00000E+000	-1.92840E-004	-3.59960E-001	-1.09900E+000	3.57790E+000	10	...........
	52	0.706667	2.67297E-002	-6.01781E-003	0.00000E+000	-1.60855E-004	-3.59960E-001	-1.10789E+000	3.57790E+000	10	...........
	53	0.72	2.13784E-002	-6.01488E-003	0.00000E+000	-1.28588E-004	-3.59960E-001	-1.09762E+000	3.57790E+000	10	...........
	54	0.733333	1.60420E-002	-6.01683E-003	0.00000E+000	-9.65223E-005	-3.59960E-001	-1.09960E+000	3.57790E+000	10	...........
	55	0.746667	1.08320E-002	-6.01356E-003	0.00000E+000	-6.51388E-005	-3.59960E-001	-1.10794E+000	3.57790E+000	10	...........
	56	0.76	5.62005E-003	-6.01168E-003	0.00000E+000	-3.37859E-005	-3.59960E-001	-1.09780E+000	3.57786E+000	10	...........
	57	0.77	1.08673E-003	-6.01189E-003	0.00000E+000	-6.53332E-006	-3.59960E-001	-1.10440E+000	3.57780E+000	10	...........
STARTTIMEOFFSET	QUANT	838.2086	Start Time Offset (s)
