EXPLAIN
TAG	PWR800_DISCHARGE
TITLE	LABEL	PWR Cyclic Charge Discharge (Cell) - Discharge Step	Test &Identifier
DATE	LABEL	22-6-2017	Date
TIME	LABEL	16:09:38	Time
NOTES	NOTES	3	&Notes...
	supercap test cell
	0.6mg
	6M KOH
PSTAT	PSTAT	IFC5000-01520	Potentiostat
CAPACITY	QUANT	1.00000E-003	Capacity (A-hr)
CELLTYPE	SELECTOR	1	&Cell Type
WORKINGCONNECTION	SELECTOR	0	&Working Lead
MAXDISCHARGETIME	VARIABLEANDUNITS	1.00000E+002	s	1.00000E+002	second(s)	Max &Discharge Time
DISCHARGEMODE	MULTIPARAM	0	6.00000E-003	&Discharge Mode	Constant Current	Amp(s)
SAMPLETIME	QUANT	1.00000E-002	Sa&mple Period (s)
DISCHARGESTOPAT1	MULTIPARAM	3	0.00000E+000	Discharge Stop At &1	Voltage < Limit	V
DISCHARGESTOPAT2	MULTIPARAM	0	0.00000E+000	Discharge Stop At &2	None	N/A
AESBHCSELECTOR	TOGGLE	F	Save Both Half Cells
IRCOMP	TOGGLE	F	IR &Measure
EOC	QUANT	0	Open Circuit (V)
SEQUENCER	TOGGLE	TRUE	Run as Sequence
PSTATMODEL	IQUANT	53	Pstat Model
PSTATSECTION	LABEL	IFC5000-01520	Pstat Section
PSTATSERIALNO	LABEL	01520	Pstat Serial Number
CTRLMODE	IQUANT	0	Control Mode
ELECTROMETER	IQUANT	1	RE=0 or CS=1
IESTAB	IQUANT	0	I/E Stability
CASPEED	IQUANT	4	Control Amp Speed
CONVENTION	IQUANT	1	Current Convention
ICHRANGE	IQUANT	2	Ich Range
ICHRANGEMODE	TOGGLE	T	Ich Auto Range
ICHOFFSETENABLE	TOGGLE	F	Ich Offset Enable
ICHOFFSET	QUANT	0	Ich Offset (V)
ICHFILTER	IQUANT	1	Ich Filter
VCHRANGE	IQUANT	2	Vch Range
VCHRANGEMODE	TOGGLE	T	Vch Auto Range
VCHOFFSETENABLE	TOGGLE	F	Vch Offset Enable
VCHOFFSET	QUANT	0	Vch Offset (V)
VCHFILTER	IQUANT	1	Vch Filter
IERANGELOWERLIMIT	IQUANT	9	I/E Range Lower Limit
IERANGEMODE	TOGGLE	F	I/E AutoRange
IERANGE	IQUANT	10	I/E Range
ACHSELECT	IQUANT	1	Ach Select
ACHRANGE	IQUANT	2	Ach Range
ACHOFFSETENABLE	TOGGLE	F	Ach Offset Enable
ACHOFFSET	QUANT	0	Ach Offset (V)
ACHFILTER	IQUANT	1	Ach Filter
CABLEID	IQUANT	14	Cable ID
DCCALDATE	LABEL	20-10-2016	DC Calibration Date
ACCALDATE	LABEL	12/3/2015	AC Calibration Date
FRAMEWORKVERSION	QUANT	7.01	Framework Version
INSTRUMENTVERSION	LABEL	4.00	Instrument Version
CURVE	TABLE	53
	Pt	T	Vf	Im	Vu	Pwr	Sig	Ach	Temp	IERange	Over
	#	s	V	A	V	W	V	V	deg C	#	bits
	0	0.013333	3.80711E-001	-6.01269E-003	0.00000E+000	-2.28910E-003	-3.59960E-001	-1.12783E+000	3.57660E+000	10	...........
	1	0.026667	3.69210E-001	-6.01468E-003	0.00000E+000	-2.22068E-003	-3.59960E-001	-1.13439E+000	3.57660E+000	10	...........
	2	0.04	3.58516E-001	-6.01230E-003	0.00000E+000	-2.15551E-003	-3.59960E-001	-1.12462E+000	3.57660E+000	10	...........
	3	0.053333	3.48331E-001	-6.01071E-003	0.00000E+000	-2.09371E-003	-3.59960E-001	-1.12832E+000	3.57660E+000	10	...........
	4	0.066667	3.38546E-001	-6.01637E-003	0.00000E+000	-2.03682E-003	-3.59960E-001	-1.13520E+000	3.57660E+000	10	...........
	5	0.08	3.29074E-001	-6.01565E-003	0.00000E+000	-1.97960E-003	-3.59960E-001	-1.12516E+000	3.57660E+000	10	...........
	6	0.093333	3.19793E-001	-6.01653E-003	0.00000E+000	-1.92404E-003	-3.59960E-001	-1.12841E+000	3.57660E+000	10	...........
	7	0.106667	3.10728E-001	-6.01591E-003	0.00000E+000	-1.86931E-003	-3.59960E-001	-1.13508E+000	3.57660E+000	10	...........
	8	0.12	3.01834E-001	-6.01605E-003	0.00000E+000	-1.81585E-003	-3.59960E-001	-1.12561E+000	3.57660E+000	10	...........
	9	0.133333	2.93056E-001	-6.01501E-003	0.00000E+000	-1.76273E-003	-3.59960E-001	-1.12907E+000	3.57660E+000	10	...........
	10	0.146667	2.84443E-001	-6.00749E-003	0.00000E+000	-1.70879E-003	-3.59960E-001	-1.13541E+000	3.57660E+000	10	...........
	11	0.16	2.75909E-001	-6.01438E-003	0.00000E+000	-1.65942E-003	-3.59960E-001	-1.12551E+000	3.57660E+000	10	...........
	12	0.173333	2.67560E-001	-6.00951E-003	0.00000E+000	-1.60790E-003	-3.59960E-001	-1.12884E+000	3.57660E+000	10	...........
	13	0.186667	2.59275E-001	-6.01565E-003	0.00000E+000	-1.55971E-003	-3.59960E-001	-1.13520E+000	3.57660E+000	10	...........
	14	0.2	2.51076E-001	-6.01348E-003	0.00000E+000	-1.50984E-003	-3.59960E-001	-1.12581E+000	3.57660E+000	10	...........
	15	0.213333	2.43055E-001	-6.01379E-003	0.00000E+000	-1.46168E-003	-3.59960E-001	-1.12914E+000	3.57660E+000	10	...........
	16	0.226667	2.35069E-001	-6.01214E-003	0.00000E+000	-1.41327E-003	-3.59960E-001	-1.13518E+000	3.57660E+000	10	...........
	17	0.24	2.27218E-001	-6.01643E-003	0.00000E+000	-1.36704E-003	-3.59960E-001	-1.12547E+000	3.57660E+000	10	...........
	18	0.253333	2.19516E-001	-6.01175E-003	0.00000E+000	-1.31967E-003	-3.59960E-001	-1.12951E+000	3.57660E+000	10	...........
	19	0.266667	2.11819E-001	-6.01739E-003	0.00000E+000	-1.27460E-003	-3.59960E-001	-1.13557E+000	3.57660E+000	10	...........
	20	0.28	2.04248E-001	-6.01393E-003	0.00000E+000	-1.22833E-003	-3.59960E-001	-1.12581E+000	3.57660E+000	10	...........
	21	0.293333	1.96747E-001	-6.01196E-003	0.00000E+000	-1.18283E-003	-3.59960E-001	-1.12943E+000	3.57660E+000	10	...........
	22	0.306667	1.89381E-001	-6.01487E-003	0.00000E+000	-1.13910E-003	-3.59960E-001	-1.13550E+000	3.57660E+000	10	...........
	23	0.32	1.82061E-001	-6.01054E-003	0.00000E+000	-1.09429E-003	-3.59960E-001	-1.12613E+000	3.57660E+000	10	...........
	24	0.333333	1.74841E-001	-6.01632E-003	0.00000E+000	-1.05190E-003	-3.59960E-001	-1.12978E+000	3.57660E+000	10	...........
	25	0.346667	1.67734E-001	-6.01581E-003	0.00000E+000	-1.00906E-003	-3.59960E-001	-1.13572E+000	3.57660E+000	10	...........
	26	0.36	1.60709E-001	-6.01718E-003	0.00000E+000	-9.67011E-004	-3.59960E-001	-1.12601E+000	3.57660E+000	10	...........
	27	0.373333	1.53737E-001	-6.01412E-003	0.00000E+000	-9.24591E-004	-3.59960E-001	-1.12988E+000	3.57660E+000	10	...........
	28	0.386667	1.46873E-001	-6.01133E-003	0.00000E+000	-8.82901E-004	-3.59960E-001	-1.13645E+000	3.57660E+000	10	...........
	29	0.4	1.40038E-001	-6.01601E-003	0.00000E+000	-8.42472E-004	-3.59960E-001	-1.12668E+000	3.57660E+000	10	...........
	30	0.413333	1.33283E-001	-6.02278E-003	0.00000E+000	-8.02736E-004	-3.59960E-001	-1.13034E+000	3.57660E+000	10	...........
	31	0.426667	1.26598E-001	-6.01615E-003	0.00000E+000	-7.61634E-004	-3.59960E-001	-1.13600E+000	3.57660E+000	10	...........
	32	0.44	1.20008E-001	-6.01285E-003	0.00000E+000	-7.21592E-004	-3.59960E-001	-1.12673E+000	3.57660E+000	10	...........
	33	0.453333	1.13470E-001	-6.01917E-003	0.00000E+000	-6.82998E-004	-3.59960E-001	-1.13064E+000	3.57660E+000	10	...........
	34	0.466667	1.07040E-001	-6.00989E-003	0.00000E+000	-6.43298E-004	-3.59960E-001	-1.13660E+000	3.57660E+000	10	...........
	35	0.48	1.00597E-001	-6.02010E-003	0.00000E+000	-6.05605E-004	-3.59960E-001	-1.12671E+000	3.57660E+000	10	...........
	36	0.493333	9.42909E-002	-6.01858E-003	0.00000E+000	-5.67498E-004	-3.59960E-001	-1.13047E+000	3.57660E+000	10	...........
	37	0.506667	8.80258E-002	-6.01386E-003	0.00000E+000	-5.29375E-004	-3.59960E-001	-1.13621E+000	3.57660E+000	10	...........
	38	0.52	8.18001E-002	-6.01436E-003	0.00000E+000	-4.91975E-004	-3.59960E-001	-1.12705E+000	3.57660E+000	10	...........
	39	0.533333	7.56435E-002	-6.01258E-003	0.00000E+000	-4.54812E-004	-3.59960E-001	-1.13086E+000	3.57660E+000	10	...........
	40	0.546667	6.95866E-002	-6.01543E-003	0.00000E+000	-4.18594E-004	-3.59960E-001	-1.13657E+000	3.57660E+000	10	...........
	41	0.56	6.35828E-002	-6.01840E-003	0.00000E+000	-3.82667E-004	-3.59960E-001	-1.12689E+000	3.57660E+000	10	...........
	42	0.573333	5.76478E-002	-6.01701E-003	0.00000E+000	-3.46867E-004	-3.59960E-001	-1.13106E+000	3.57660E+000	10	...........
	43	0.586667	5.17544E-002	-6.01468E-003	0.00000E+000	-3.11286E-004	-3.59960E-001	-1.13684E+000	3.57660E+000	10	...........
	44	0.6	4.59309E-002	-6.01073E-003	0.00000E+000	-2.76078E-004	-3.59960E-001	-1.12739E+000	3.57660E+000	10	...........
	45	0.613333	4.01947E-002	-6.01511E-003	0.00000E+000	-2.41776E-004	-3.59960E-001	-1.13131E+000	3.57660E+000	10	...........
	46	0.626667	3.44655E-002	-6.01257E-003	0.00000E+000	-2.07226E-004	-3.59960E-001	-1.13668E+000	3.57660E+000	10	...........
	47	0.64	2.88237E-002	-6.01276E-003	0.00000E+000	-1.73310E-004	-3.59960E-001	-1.12740E+000	3.57660E+000	10	...........
	48	0.653333	2.32013E-002	-6.01246E-003	0.00000E+000	-1.39497E-004	-3.59960E-001	-1.13156E+000	3.57660E+000	10	...........
	49	0.666667	1.76179E-002	-6.01278E-003	0.00000E+000	-1.05933E-004	-3.59960E-001	-1.13701E+000	3.57660E+000	10	...........
	50	0.68	1.21126E-002	-6.01231E-003	0.00000E+000	-7.28248E-005	-3.59960E-001	-1.12743E+000	3.57660E+000	10	...........
	51	0.693333	6.67506E-003	-6.01301E-003	0.00000E+000	-4.01372E-005	-3.59960E-001	-1.13154E+000	3.57660E+000	10	...........
	52	0.705	1.61671E-003	-6.01284E-003	0.00000E+000	-9.72105E-006	-3.59960E-001	-1.13663E+000	3.57660E+000	10	...........
STARTTIMEOFFSET	QUANT	1394.583	Start Time Offset (s)
