EXPLAIN
TAG	PWR800_DISCHARGE
TITLE	LABEL	PWR Cyclic Charge Discharge (Cell) - Discharge Step	Test &Identifier
DATE	LABEL	22-6-2017	Date
TIME	LABEL	15:42:56	Time
NOTES	NOTES	3	&Notes...
	supercap test cell
	0.6mg
	6M KOH
PSTAT	PSTAT	IFC5000-01520	Potentiostat
CAPACITY	QUANT	1.00000E-003	Capacity (A-hr)
CELLTYPE	SELECTOR	1	&Cell Type
WORKINGCONNECTION	SELECTOR	0	&Working Lead
MAXDISCHARGETIME	VARIABLEANDUNITS	1.00000E+002	s	1.00000E+002	second(s)	Max &Discharge Time
DISCHARGEMODE	MULTIPARAM	0	6.00000E-003	&Discharge Mode	Constant Current	Amp(s)
SAMPLETIME	QUANT	1.00000E-002	Sa&mple Period (s)
DISCHARGESTOPAT1	MULTIPARAM	3	0.00000E+000	Discharge Stop At &1	Voltage < Limit	V
DISCHARGESTOPAT2	MULTIPARAM	0	0.00000E+000	Discharge Stop At &2	None	N/A
AESBHCSELECTOR	TOGGLE	F	Save Both Half Cells
IRCOMP	TOGGLE	F	IR &Measure
EOC	QUANT	0	Open Circuit (V)
SEQUENCER	TOGGLE	TRUE	Run as Sequence
PSTATMODEL	IQUANT	53	Pstat Model
PSTATSECTION	LABEL	IFC5000-01520	Pstat Section
PSTATSERIALNO	LABEL	01520	Pstat Serial Number
CTRLMODE	IQUANT	0	Control Mode
ELECTROMETER	IQUANT	1	RE=0 or CS=1
IESTAB	IQUANT	0	I/E Stability
CASPEED	IQUANT	4	Control Amp Speed
CONVENTION	IQUANT	1	Current Convention
ICHRANGE	IQUANT	2	Ich Range
ICHRANGEMODE	TOGGLE	T	Ich Auto Range
ICHOFFSETENABLE	TOGGLE	F	Ich Offset Enable
ICHOFFSET	QUANT	0	Ich Offset (V)
ICHFILTER	IQUANT	1	Ich Filter
VCHRANGE	IQUANT	2	Vch Range
VCHRANGEMODE	TOGGLE	T	Vch Auto Range
VCHOFFSETENABLE	TOGGLE	F	Vch Offset Enable
VCHOFFSET	QUANT	0	Vch Offset (V)
VCHFILTER	IQUANT	1	Vch Filter
IERANGELOWERLIMIT	IQUANT	9	I/E Range Lower Limit
IERANGEMODE	TOGGLE	F	I/E AutoRange
IERANGE	IQUANT	10	I/E Range
ACHSELECT	IQUANT	1	Ach Select
ACHRANGE	IQUANT	2	Ach Range
ACHOFFSETENABLE	TOGGLE	F	Ach Offset Enable
ACHOFFSET	QUANT	0	Ach Offset (V)
ACHFILTER	IQUANT	1	Ach Filter
CABLEID	IQUANT	14	Cable ID
DCCALDATE	LABEL	20-10-2016	DC Calibration Date
ACCALDATE	LABEL	12/3/2015	AC Calibration Date
FRAMEWORKVERSION	QUANT	7.01	Framework Version
INSTRUMENTVERSION	LABEL	4.00	Instrument Version
CURVE	TABLE	65
	Pt	T	Vf	Im	Vu	Pwr	Sig	Ach	Temp	IERange	Over
	#	s	V	A	V	W	V	V	deg C	#	bits
	0	0.013333	4.17815E-001	-6.01435E-003	0.00000E+000	-2.51289E-003	-3.59960E-001	-1.04928E+000	3.57820E+000	10	...........
	1	0.026667	4.07333E-001	-6.01665E-003	0.00000E+000	-2.45078E-003	-3.59960E-001	-1.05815E+000	3.57820E+000	10	...........
	2	0.04	3.97598E-001	-6.01781E-003	0.00000E+000	-2.39267E-003	-3.59960E-001	-1.04779E+000	3.57820E+000	10	...........
	3	0.053333	3.88339E-001	-6.01713E-003	0.00000E+000	-2.33668E-003	-3.59960E-001	-1.04965E+000	3.57820E+000	10	...........
	4	0.066667	3.79429E-001	-6.02078E-003	0.00000E+000	-2.28446E-003	-3.59960E-001	-1.05810E+000	3.57820E+000	10	...........
	5	0.08	3.70784E-001	-6.01731E-003	0.00000E+000	-2.23112E-003	-3.59960E-001	-1.04799E+000	3.57820E+000	10	...........
	6	0.093333	3.62312E-001	-6.01376E-003	0.00000E+000	-2.17886E-003	-3.59960E-001	-1.04938E+000	3.57820E+000	10	...........
	7	0.106667	3.54079E-001	-6.02134E-003	0.00000E+000	-2.13203E-003	-3.59960E-001	-1.05825E+000	3.57820E+000	10	...........
	8	0.12	3.45975E-001	-6.01495E-003	0.00000E+000	-2.08102E-003	-3.59960E-001	-1.04818E+000	3.57820E+000	10	...........
	9	0.133333	3.38028E-001	-6.00955E-003	0.00000E+000	-2.03140E-003	-3.59960E-001	-1.04975E+000	3.57820E+000	10	...........
	10	0.146667	3.30149E-001	-6.01473E-003	0.00000E+000	-1.98576E-003	-3.59960E-001	-1.05841E+000	3.57820E+000	10	...........
	11	0.16	3.22402E-001	-6.01577E-003	0.00000E+000	-1.93949E-003	-3.59960E-001	-1.04843E+000	3.57820E+000	10	...........
	12	0.173333	3.14768E-001	-6.01229E-003	0.00000E+000	-1.89248E-003	-3.59960E-001	-1.04984E+000	3.57820E+000	10	...........
	13	0.186667	3.07156E-001	-6.01488E-003	0.00000E+000	-1.84751E-003	-3.59960E-001	-1.05851E+000	3.57820E+000	10	...........
	14	0.2	2.99707E-001	-6.01024E-003	0.00000E+000	-1.80131E-003	-3.59960E-001	-1.04851E+000	3.57820E+000	10	...........
	15	0.213333	2.92326E-001	-6.01394E-003	0.00000E+000	-1.75803E-003	-3.59960E-001	-1.04999E+000	3.57820E+000	10	...........
	16	0.226667	2.85026E-001	-6.01745E-003	0.00000E+000	-1.71513E-003	-3.59960E-001	-1.05875E+000	3.57820E+000	10	...........
	17	0.24	2.77800E-001	-6.01525E-003	0.00000E+000	-1.67103E-003	-3.59960E-001	-1.04874E+000	3.57820E+000	10	...........
	18	0.253333	2.70637E-001	-6.01823E-003	0.00000E+000	-1.62876E-003	-3.59960E-001	-1.05002E+000	3.57820E+000	10	...........
	19	0.266667	2.63549E-001	-6.01429E-003	0.00000E+000	-1.58506E-003	-3.59960E-001	-1.05884E+000	3.57820E+000	10	...........
	20	0.28	2.56538E-001	-6.01596E-003	0.00000E+000	-1.54332E-003	-3.59960E-001	-1.04874E+000	3.57820E+000	10	...........
	21	0.293333	2.49623E-001	-6.01952E-003	0.00000E+000	-1.50261E-003	-3.59960E-001	-1.05031E+000	3.57820E+000	10	...........
	22	0.306667	2.42818E-001	-6.01696E-003	0.00000E+000	-1.46102E-003	-3.59960E-001	-1.05925E+000	3.57820E+000	10	...........
	23	0.32	2.36025E-001	-6.01169E-003	0.00000E+000	-1.41891E-003	-3.59960E-001	-1.04921E+000	3.57820E+000	10	...........
	24	0.333333	2.29286E-001	-6.01397E-003	0.00000E+000	-1.37892E-003	-3.59960E-001	-1.05040E+000	3.57820E+000	10	...........
	25	0.346667	2.22620E-001	-6.01778E-003	0.00000E+000	-1.33968E-003	-3.59960E-001	-1.05931E+000	3.57820E+000	10	...........
	26	0.36	2.16027E-001	-6.01085E-003	0.00000E+000	-1.29850E-003	-3.59960E-001	-1.04931E+000	3.57820E+000	10	...........
	27	0.373333	2.09508E-001	-6.02138E-003	0.00000E+000	-1.26153E-003	-3.59960E-001	-1.05056E+000	3.57820E+000	10	...........
	28	0.386667	2.03048E-001	-6.01139E-003	0.00000E+000	-1.22060E-003	-3.59960E-001	-1.05957E+000	3.57820E+000	10	...........
	29	0.4	1.96599E-001	-6.01562E-003	0.00000E+000	-1.18266E-003	-3.59960E-001	-1.04911E+000	3.57820E+000	10	...........
	30	0.413333	1.90247E-001	-6.01266E-003	0.00000E+000	-1.14389E-003	-3.59960E-001	-1.05044E+000	3.57820E+000	10	...........
	31	0.426667	1.83941E-001	-6.01045E-003	0.00000E+000	-1.10556E-003	-3.59960E-001	-1.05917E+000	3.57771E+000	10	...........
	32	0.44	1.77681E-001	-6.01334E-003	0.00000E+000	-1.06846E-003	-3.59960E-001	-1.04929E+000	3.57690E+000	10	...........
	33	0.453333	1.71451E-001	-6.01388E-003	0.00000E+000	-1.03109E-003	-3.59960E-001	-1.05074E+000	3.57690E+000	10	...........
	34	0.466667	1.65272E-001	-6.01626E-003	0.00000E+000	-9.94320E-004	-3.59960E-001	-1.05936E+000	3.57690E+000	10	...........
	35	0.48	1.59203E-001	-6.01472E-003	0.00000E+000	-9.57563E-004	-3.59960E-001	-1.04914E+000	3.57690E+000	10	...........
	36	0.493333	1.53184E-001	-6.01788E-003	0.00000E+000	-9.21846E-004	-3.59960E-001	-1.05040E+000	3.57690E+000	10	...........
	37	0.506667	1.47176E-001	-6.01691E-003	0.00000E+000	-8.85546E-004	-3.59960E-001	-1.05943E+000	3.57690E+000	10	...........
	38	0.52	1.41208E-001	-6.01909E-003	0.00000E+000	-8.49941E-004	-3.59960E-001	-1.04924E+000	3.57690E+000	10	...........
	39	0.533333	1.35356E-001	-6.01223E-003	0.00000E+000	-8.13790E-004	-3.59960E-001	-1.05068E+000	3.57690E+000	10	...........
	40	0.546667	1.29527E-001	-6.02007E-003	0.00000E+000	-7.79764E-004	-3.59960E-001	-1.05959E+000	3.57690E+000	10	...........
	41	0.56	1.23729E-001	-6.01047E-003	0.00000E+000	-7.43670E-004	-3.59960E-001	-1.04927E+000	3.57690E+000	10	...........
	42	0.573333	1.17978E-001	-6.01772E-003	0.00000E+000	-7.09960E-004	-3.59960E-001	-1.05092E+000	3.57690E+000	10	...........
	43	0.586667	1.12251E-001	-6.01719E-003	0.00000E+000	-6.75434E-004	-3.59960E-001	-1.05964E+000	3.57690E+000	10	...........
	44	0.6	1.06582E-001	-6.01563E-003	0.00000E+000	-6.41161E-004	-3.59960E-001	-1.04950E+000	3.57690E+000	10	...........
	45	0.613333	1.00963E-001	-6.01538E-003	0.00000E+000	-6.07332E-004	-3.59960E-001	-1.05082E+000	3.57690E+000	10	...........
	46	0.626667	9.54006E-002	-6.01196E-003	0.00000E+000	-5.73545E-004	-3.59960E-001	-1.05982E+000	3.57690E+000	10	...........
	47	0.64	8.98760E-002	-6.01411E-003	0.00000E+000	-5.40524E-004	-3.59960E-001	-1.04977E+000	3.57690E+000	10	...........
	48	0.653333	8.44283E-002	-6.01846E-003	0.00000E+000	-5.08128E-004	-3.59960E-001	-1.05126E+000	3.57690E+000	10	...........
	49	0.666667	7.90132E-002	-6.01364E-003	0.00000E+000	-4.75157E-004	-3.59960E-001	-1.06008E+000	3.57690E+000	10	...........
	50	0.68	7.35812E-002	-6.01469E-003	0.00000E+000	-4.42568E-004	-3.59960E-001	-1.04975E+000	3.57690E+000	10	...........
	51	0.693333	6.82362E-002	-6.01340E-003	0.00000E+000	-4.10332E-004	-3.59960E-001	-1.05111E+000	3.57690E+000	10	...........
	52	0.706667	6.28775E-002	-6.01469E-003	0.00000E+000	-3.78189E-004	-3.59960E-001	-1.05995E+000	3.57690E+000	10	...........
	53	0.72	5.75915E-002	-6.01730E-003	0.00000E+000	-3.46546E-004	-3.59960E-001	-1.04954E+000	3.57690E+000	10	...........
	54	0.733333	5.23237E-002	-6.01575E-003	0.00000E+000	-3.14766E-004	-3.59960E-001	-1.05090E+000	3.57690E+000	10	...........
	55	0.746667	4.71405E-002	-6.01315E-003	0.00000E+000	-2.83463E-004	-3.59960E-001	-1.05934E+000	3.57690E+000	10	...........
	56	0.76	4.19693E-002	-6.01516E-003	0.00000E+000	-2.52452E-004	-3.59960E-001	-1.04945E+000	3.57690E+000	10	...........
	57	0.773333	3.68138E-002	-6.01387E-003	0.00000E+000	-2.21393E-004	-3.59960E-001	-1.05090E+000	3.57690E+000	10	...........
	58	0.786667	3.17234E-002	-6.01703E-003	0.00000E+000	-1.90881E-004	-3.59960E-001	-1.05977E+000	3.57690E+000	10	...........
	59	0.8	2.66515E-002	-6.01263E-003	0.00000E+000	-1.60246E-004	-3.59960E-001	-1.04941E+000	3.57690E+000	10	...........
	60	0.813333	2.16119E-002	-6.01301E-003	0.00000E+000	-1.29953E-004	-3.59960E-001	-1.05066E+000	3.57690E+000	10	...........
	61	0.826667	1.66284E-002	-6.01456E-003	0.00000E+000	-1.00012E-004	-3.59960E-001	-1.05962E+000	3.57690E+000	10	...........
	62	0.84	1.16367E-002	-6.01534E-003	0.00000E+000	-6.99984E-005	-3.59960E-001	-1.04951E+000	3.57690E+000	10	...........
	63	0.853333	6.70145E-003	-6.02023E-003	0.00000E+000	-4.03443E-005	-3.59960E-001	-1.05093E+000	3.57690E+000	10	...........
	64	0.866667	1.79393E-003	-6.01637E-003	0.00000E+000	-1.07930E-005	-3.59960E-001	-1.05953E+000	3.57690E+000	10	...........
STARTTIMEOFFSET	QUANT	337.4668	Start Time Offset (s)
