EXPLAIN
TAG	PWR800_DISCHARGE
TITLE	LABEL	PWR Cyclic Charge Discharge (Cell) - Discharge Step	Test &Identifier
DATE	LABEL	22-6-2017	Date
TIME	LABEL	15:48:55	Time
NOTES	NOTES	3	&Notes...
	supercap test cell
	0.6mg
	6M KOH
PSTAT	PSTAT	IFC5000-01520	Potentiostat
CAPACITY	QUANT	1.00000E-003	Capacity (A-hr)
CELLTYPE	SELECTOR	1	&Cell Type
WORKINGCONNECTION	SELECTOR	0	&Working Lead
MAXDISCHARGETIME	VARIABLEANDUNITS	1.00000E+002	s	1.00000E+002	second(s)	Max &Discharge Time
DISCHARGEMODE	MULTIPARAM	0	6.00000E-003	&Discharge Mode	Constant Current	Amp(s)
SAMPLETIME	QUANT	1.00000E-002	Sa&mple Period (s)
DISCHARGESTOPAT1	MULTIPARAM	3	0.00000E+000	Discharge Stop At &1	Voltage < Limit	V
DISCHARGESTOPAT2	MULTIPARAM	0	0.00000E+000	Discharge Stop At &2	None	N/A
AESBHCSELECTOR	TOGGLE	F	Save Both Half Cells
IRCOMP	TOGGLE	F	IR &Measure
EOC	QUANT	0	Open Circuit (V)
SEQUENCER	TOGGLE	TRUE	Run as Sequence
PSTATMODEL	IQUANT	53	Pstat Model
PSTATSECTION	LABEL	IFC5000-01520	Pstat Section
PSTATSERIALNO	LABEL	01520	Pstat Serial Number
CTRLMODE	IQUANT	0	Control Mode
ELECTROMETER	IQUANT	1	RE=0 or CS=1
IESTAB	IQUANT	0	I/E Stability
CASPEED	IQUANT	4	Control Amp Speed
CONVENTION	IQUANT	1	Current Convention
ICHRANGE	IQUANT	2	Ich Range
ICHRANGEMODE	TOGGLE	T	Ich Auto Range
ICHOFFSETENABLE	TOGGLE	F	Ich Offset Enable
ICHOFFSET	QUANT	0	Ich Offset (V)
ICHFILTER	IQUANT	1	Ich Filter
VCHRANGE	IQUANT	2	Vch Range
VCHRANGEMODE	TOGGLE	T	Vch Auto Range
VCHOFFSETENABLE	TOGGLE	F	Vch Offset Enable
VCHOFFSET	QUANT	0	Vch Offset (V)
VCHFILTER	IQUANT	1	Vch Filter
IERANGELOWERLIMIT	IQUANT	9	I/E Range Lower Limit
IERANGEMODE	TOGGLE	F	I/E AutoRange
IERANGE	IQUANT	10	I/E Range
ACHSELECT	IQUANT	1	Ach Select
ACHRANGE	IQUANT	2	Ach Range
ACHOFFSETENABLE	TOGGLE	F	Ach Offset Enable
ACHOFFSET	QUANT	0	Ach Offset (V)
ACHFILTER	IQUANT	1	Ach Filter
CABLEID	IQUANT	14	Cable ID
DCCALDATE	LABEL	20-10-2016	DC Calibration Date
ACCALDATE	LABEL	12/3/2015	AC Calibration Date
FRAMEWORKVERSION	QUANT	7.01	Framework Version
INSTRUMENTVERSION	LABEL	4.00	Instrument Version
CURVE	TABLE	61
	Pt	T	Vf	Im	Vu	Pwr	Sig	Ach	Temp	IERange	Over
	#	s	V	A	V	W	V	V	deg C	#	bits
	0	0.013333	4.05723E-001	-6.01387E-003	0.00000E+000	-2.43996E-003	-3.59960E-001	-1.07854E+000	3.58020E+000	10	...........
	1	0.026667	3.94902E-001	-6.01089E-003	0.00000E+000	-2.37371E-003	-3.59960E-001	-1.07958E+000	3.58020E+000	10	...........
	2	0.04	3.84872E-001	-6.01474E-003	0.00000E+000	-2.31490E-003	-3.59960E-001	-1.08917E+000	3.58020E+000	10	...........
	3	0.053333	3.75388E-001	-6.01363E-003	0.00000E+000	-2.25745E-003	-3.59960E-001	-1.07919E+000	3.58020E+000	10	...........
	4	0.066667	3.66180E-001	-6.01634E-003	0.00000E+000	-2.20307E-003	-3.59960E-001	-1.07960E+000	3.58020E+000	10	...........
	5	0.08	3.57301E-001	-6.01592E-003	0.00000E+000	-2.14950E-003	-3.59960E-001	-1.08949E+000	3.58020E+000	10	...........
	6	0.093333	3.48625E-001	-6.01202E-003	0.00000E+000	-2.09594E-003	-3.59960E-001	-1.07952E+000	3.58020E+000	10	...........
	7	0.106667	3.40077E-001	-6.01861E-003	0.00000E+000	-2.04679E-003	-3.59960E-001	-1.08000E+000	3.58020E+000	10	...........
	8	0.12	3.31690E-001	-6.01591E-003	0.00000E+000	-1.99542E-003	-3.59960E-001	-1.08955E+000	3.58020E+000	10	...........
	9	0.133333	3.23459E-001	-6.01538E-003	0.00000E+000	-1.94573E-003	-3.59960E-001	-1.07956E+000	3.58020E+000	10	...........
	10	0.146667	3.15333E-001	-6.01862E-003	0.00000E+000	-1.89787E-003	-3.59960E-001	-1.07961E+000	3.58020E+000	10	...........
	11	0.16	3.07336E-001	-6.02220E-003	0.00000E+000	-1.85084E-003	-3.59960E-001	-1.08974E+000	3.58020E+000	10	...........
	12	0.173333	2.99433E-001	-6.01840E-003	0.00000E+000	-1.80210E-003	-3.59960E-001	-1.07952E+000	3.58020E+000	10	...........
	13	0.186667	2.91651E-001	-6.01164E-003	0.00000E+000	-1.75330E-003	-3.59960E-001	-1.07933E+000	3.58020E+000	10	...........
	14	0.2	2.83958E-001	-6.01468E-003	0.00000E+000	-1.70792E-003	-3.59960E-001	-1.08962E+000	3.58020E+000	10	...........
	15	0.213333	2.76382E-001	-6.01401E-003	0.00000E+000	-1.66217E-003	-3.59960E-001	-1.07970E+000	3.58020E+000	10	...........
	16	0.226667	2.68881E-001	-6.01329E-003	0.00000E+000	-1.61686E-003	-3.59960E-001	-1.07982E+000	3.58020E+000	10	...........
	17	0.24	2.61404E-001	-6.01982E-003	0.00000E+000	-1.57361E-003	-3.59960E-001	-1.08984E+000	3.58020E+000	10	...........
	18	0.253333	2.54077E-001	-6.01966E-003	0.00000E+000	-1.52946E-003	-3.59960E-001	-1.07989E+000	3.58020E+000	10	...........
	19	0.266667	2.46872E-001	-6.01509E-003	0.00000E+000	-1.48496E-003	-3.59960E-001	-1.07980E+000	3.58020E+000	10	...........
	20	0.28	2.39683E-001	-6.01595E-003	0.00000E+000	-1.44192E-003	-3.59960E-001	-1.09017E+000	3.58020E+000	10	...........
	21	0.293333	2.32555E-001	-6.01196E-003	0.00000E+000	-1.39811E-003	-3.59960E-001	-1.08045E+000	3.58020E+000	10	...........
	22	0.306667	2.25530E-001	-6.01558E-003	0.00000E+000	-1.35669E-003	-3.59960E-001	-1.08013E+000	3.58020E+000	10	...........
	23	0.32	2.18611E-001	-6.01506E-003	0.00000E+000	-1.31496E-003	-3.59960E-001	-1.09020E+000	3.58020E+000	10	...........
	24	0.333333	2.11728E-001	-6.01357E-003	0.00000E+000	-1.27324E-003	-3.59960E-001	-1.08040E+000	3.58020E+000	10	...........
	25	0.346667	2.04870E-001	-6.01225E-003	0.00000E+000	-1.23173E-003	-3.59960E-001	-1.08009E+000	3.58020E+000	10	...........
	26	0.36	1.98098E-001	-6.01676E-003	0.00000E+000	-1.19191E-003	-3.59960E-001	-1.09032E+000	3.58020E+000	10	...........
	27	0.373333	1.91415E-001	-6.01338E-003	0.00000E+000	-1.15105E-003	-3.59960E-001	-1.08059E+000	3.58020E+000	10	...........
	28	0.386667	1.84840E-001	-6.01420E-003	0.00000E+000	-1.11167E-003	-3.59960E-001	-1.08008E+000	3.58020E+000	10	...........
	29	0.4	1.78288E-001	-6.01084E-003	0.00000E+000	-1.07166E-003	-3.59960E-001	-1.09055E+000	3.58020E+000	10	...........
	30	0.413333	1.71773E-001	-6.01688E-003	0.00000E+000	-1.03354E-003	-3.59960E-001	-1.08085E+000	3.58020E+000	10	...........
	31	0.426667	1.65341E-001	-6.01009E-003	0.00000E+000	-9.93713E-004	-3.59960E-001	-1.08028E+000	3.57826E+000	10	...........
	32	0.44	1.58982E-001	-6.01404E-003	0.00000E+000	-9.56121E-004	-3.59960E-001	-1.09074E+000	3.57740E+000	10	...........
	33	0.453333	1.52665E-001	-6.01460E-003	0.00000E+000	-9.18220E-004	-3.59960E-001	-1.08063E+000	3.57740E+000	10	...........
	34	0.466667	1.46394E-001	-6.01293E-003	0.00000E+000	-8.80257E-004	-3.59960E-001	-1.08006E+000	3.57740E+000	10	...........
	35	0.48	1.40168E-001	-6.01883E-003	0.00000E+000	-8.43645E-004	-3.59960E-001	-1.09044E+000	3.57740E+000	10	...........
	36	0.493333	1.34046E-001	-6.01362E-003	0.00000E+000	-8.06104E-004	-3.59960E-001	-1.08060E+000	3.57740E+000	10	...........
	37	0.506667	1.27962E-001	-6.01517E-003	0.00000E+000	-7.69715E-004	-3.59960E-001	-1.07986E+000	3.57740E+000	10	...........
	38	0.52	1.21949E-001	-6.01192E-003	0.00000E+000	-7.33147E-004	-3.59960E-001	-1.09012E+000	3.57740E+000	10	...........
	39	0.533333	1.15949E-001	-6.01654E-003	0.00000E+000	-6.97611E-004	-3.59960E-001	-1.08043E+000	3.57740E+000	10	...........
	40	0.546667	1.10023E-001	-6.01672E-003	0.00000E+000	-6.61977E-004	-3.59960E-001	-1.07958E+000	3.57740E+000	10	...........
	41	0.56	1.04153E-001	-6.01651E-003	0.00000E+000	-6.26637E-004	-3.59960E-001	-1.09042E+000	3.57740E+000	10	...........
	42	0.573333	9.83271E-002	-6.01355E-003	0.00000E+000	-5.91295E-004	-3.59960E-001	-1.08055E+000	3.57740E+000	10	...........
	43	0.586667	9.25431E-002	-6.01223E-003	0.00000E+000	-5.56390E-004	-3.59960E-001	-1.07962E+000	3.57740E+000	10	...........
	44	0.6	8.67892E-002	-6.01474E-003	0.00000E+000	-5.22015E-004	-3.59960E-001	-1.09008E+000	3.57740E+000	10	...........
	45	0.613333	8.11123E-002	-6.01302E-003	0.00000E+000	-4.87730E-004	-3.59960E-001	-1.08087E+000	3.57740E+000	10	...........
	46	0.626667	7.54481E-002	-6.01753E-003	0.00000E+000	-4.54011E-004	-3.59960E-001	-1.07949E+000	3.57740E+000	10	...........
	47	0.64	6.99083E-002	-6.01236E-003	0.00000E+000	-4.20314E-004	-3.59960E-001	-1.09029E+000	3.57740E+000	10	...........
	48	0.653333	6.43515E-002	-6.01584E-003	0.00000E+000	-3.87128E-004	-3.59960E-001	-1.08074E+000	3.57740E+000	10	...........
	49	0.666667	5.88389E-002	-6.01201E-003	0.00000E+000	-3.53740E-004	-3.59960E-001	-1.07945E+000	3.57740E+000	10	...........
	50	0.68	5.33801E-002	-6.01569E-003	0.00000E+000	-3.21118E-004	-3.59960E-001	-1.09049E+000	3.57740E+000	10	...........
	51	0.693333	4.80246E-002	-6.01528E-003	0.00000E+000	-2.88882E-004	-3.59960E-001	-1.08130E+000	3.57740E+000	10	...........
	52	0.706667	4.26374E-002	-6.01631E-003	0.00000E+000	-2.56520E-004	-3.59960E-001	-1.07995E+000	3.57740E+000	10	...........
	53	0.72	3.73320E-002	-6.01931E-003	0.00000E+000	-2.24713E-004	-3.59960E-001	-1.09080E+000	3.57740E+000	10	...........
	54	0.733333	3.20705E-002	-6.01430E-003	0.00000E+000	-1.92881E-004	-3.59960E-001	-1.08156E+000	3.57740E+000	10	...........
	55	0.746667	2.68190E-002	-6.01917E-003	0.00000E+000	-1.61428E-004	-3.59960E-001	-1.08010E+000	3.57740E+000	10	...........
	56	0.76	2.15726E-002	-6.01262E-003	0.00000E+000	-1.29708E-004	-3.59960E-001	-1.09082E+000	3.57740E+000	10	...........
	57	0.773333	1.63912E-002	-6.01708E-003	0.00000E+000	-9.86270E-005	-3.59960E-001	-1.08180E+000	3.57740E+000	10	...........
	58	0.786667	1.12791E-002	-6.01503E-003	0.00000E+000	-6.78442E-005	-3.59960E-001	-1.08012E+000	3.57740E+000	10	...........
	59	0.8	6.22505E-003	-6.00998E-003	0.00000E+000	-3.74124E-005	-3.59960E-001	-1.09077E+000	3.57740E+000	10	...........
	60	0.811667	1.53143E-003	-6.01207E-003	0.00000E+000	-9.20709E-006	-3.59960E-001	-1.08002E+000	3.57740E+000	10	...........
STARTTIMEOFFSET	QUANT	581.2864	Start Time Offset (s)
