EXPLAIN
TAG	PWR800_DISCHARGE
TITLE	LABEL	PWR Cyclic Charge Discharge (Cell) - Discharge Step	Test &Identifier
DATE	LABEL	22-6-2017	Date
TIME	LABEL	15:51:07	Time
NOTES	NOTES	3	&Notes...
	supercap test cell
	0.6mg
	6M KOH
PSTAT	PSTAT	IFC5000-01520	Potentiostat
CAPACITY	QUANT	1.00000E-003	Capacity (A-hr)
CELLTYPE	SELECTOR	1	&Cell Type
WORKINGCONNECTION	SELECTOR	0	&Working Lead
MAXDISCHARGETIME	VARIABLEANDUNITS	1.00000E+002	s	1.00000E+002	second(s)	Max &Discharge Time
DISCHARGEMODE	MULTIPARAM	0	6.00000E-003	&Discharge Mode	Constant Current	Amp(s)
SAMPLETIME	QUANT	1.00000E-002	Sa&mple Period (s)
DISCHARGESTOPAT1	MULTIPARAM	3	0.00000E+000	Discharge Stop At &1	Voltage < Limit	V
DISCHARGESTOPAT2	MULTIPARAM	0	0.00000E+000	Discharge Stop At &2	None	N/A
AESBHCSELECTOR	TOGGLE	F	Save Both Half Cells
IRCOMP	TOGGLE	F	IR &Measure
EOC	QUANT	0	Open Circuit (V)
SEQUENCER	TOGGLE	TRUE	Run as Sequence
PSTATMODEL	IQUANT	53	Pstat Model
PSTATSECTION	LABEL	IFC5000-01520	Pstat Section
PSTATSERIALNO	LABEL	01520	Pstat Serial Number
CTRLMODE	IQUANT	0	Control Mode
ELECTROMETER	IQUANT	1	RE=0 or CS=1
IESTAB	IQUANT	0	I/E Stability
CASPEED	IQUANT	4	Control Amp Speed
CONVENTION	IQUANT	1	Current Convention
ICHRANGE	IQUANT	2	Ich Range
ICHRANGEMODE	TOGGLE	T	Ich Auto Range
ICHOFFSETENABLE	TOGGLE	F	Ich Offset Enable
ICHOFFSET	QUANT	0	Ich Offset (V)
ICHFILTER	IQUANT	1	Ich Filter
VCHRANGE	IQUANT	2	Vch Range
VCHRANGEMODE	TOGGLE	T	Vch Auto Range
VCHOFFSETENABLE	TOGGLE	F	Vch Offset Enable
VCHOFFSET	QUANT	0	Vch Offset (V)
VCHFILTER	IQUANT	1	Vch Filter
IERANGELOWERLIMIT	IQUANT	9	I/E Range Lower Limit
IERANGEMODE	TOGGLE	F	I/E AutoRange
IERANGE	IQUANT	10	I/E Range
ACHSELECT	IQUANT	1	Ach Select
ACHRANGE	IQUANT	2	Ach Range
ACHOFFSETENABLE	TOGGLE	F	Ach Offset Enable
ACHOFFSET	QUANT	0	Ach Offset (V)
ACHFILTER	IQUANT	1	Ach Filter
CABLEID	IQUANT	14	Cable ID
DCCALDATE	LABEL	20-10-2016	DC Calibration Date
ACCALDATE	LABEL	12/3/2015	AC Calibration Date
FRAMEWORKVERSION	QUANT	7.01	Framework Version
INSTRUMENTVERSION	LABEL	4.00	Instrument Version
CURVE	TABLE	60
	Pt	T	Vf	Im	Vu	Pwr	Sig	Ach	Temp	IERange	Over
	#	s	V	A	V	W	V	V	deg C	#	bits
	0	0.013333	4.01138E-001	-6.01410E-003	0.00000E+000	-2.41248E-003	-3.59960E-001	-1.08977E+000	3.57660E+000	10	...........
	1	0.026667	3.90215E-001	-6.01514E-003	0.00000E+000	-2.34720E-003	-3.59960E-001	-1.09228E+000	3.57660E+000	10	...........
	2	0.04	3.80080E-001	-6.01423E-003	0.00000E+000	-2.28589E-003	-3.59960E-001	-1.08396E+000	3.57660E+000	10	...........
	3	0.053333	3.70466E-001	-6.01211E-003	0.00000E+000	-2.22728E-003	-3.59960E-001	-1.09048E+000	3.57660E+000	10	...........
	4	0.066667	3.61223E-001	-6.01653E-003	0.00000E+000	-2.17331E-003	-3.59960E-001	-1.09300E+000	3.57660E+000	10	...........
	5	0.08	3.52253E-001	-6.01810E-003	0.00000E+000	-2.11990E-003	-3.59960E-001	-1.08442E+000	3.57660E+000	10	...........
	6	0.093333	3.43487E-001	-6.01182E-003	0.00000E+000	-2.06499E-003	-3.59960E-001	-1.09041E+000	3.57660E+000	10	...........
	7	0.106667	3.34920E-001	-6.01228E-003	0.00000E+000	-2.01363E-003	-3.59960E-001	-1.09317E+000	3.57660E+000	10	...........
	8	0.12	3.26520E-001	-6.01754E-003	0.00000E+000	-1.96485E-003	-3.59960E-001	-1.08467E+000	3.57660E+000	10	...........
	9	0.133333	3.18249E-001	-6.01372E-003	0.00000E+000	-1.91386E-003	-3.59960E-001	-1.09064E+000	3.57660E+000	10	...........
	10	0.146667	3.10096E-001	-6.01302E-003	0.00000E+000	-1.86461E-003	-3.59960E-001	-1.09315E+000	3.57660E+000	10	...........
	11	0.16	3.02024E-001	-6.01473E-003	0.00000E+000	-1.81659E-003	-3.59960E-001	-1.08433E+000	3.57660E+000	10	...........
	12	0.173333	2.94038E-001	-6.01792E-003	0.00000E+000	-1.76950E-003	-3.59960E-001	-1.09064E+000	3.57660E+000	10	...........
	13	0.186667	2.86210E-001	-6.01213E-003	0.00000E+000	-1.72073E-003	-3.59960E-001	-1.09354E+000	3.57660E+000	10	...........
	14	0.2	2.78429E-001	-6.01802E-003	0.00000E+000	-1.67559E-003	-3.59960E-001	-1.08457E+000	3.57660E+000	10	...........
	15	0.213333	2.70803E-001	-6.01186E-003	0.00000E+000	-1.62803E-003	-3.59960E-001	-1.09053E+000	3.57660E+000	10	...........
	16	0.226667	2.63259E-001	-6.01170E-003	0.00000E+000	-1.58264E-003	-3.59960E-001	-1.09342E+000	3.57660E+000	10	...........
	17	0.24	2.55771E-001	-6.01738E-003	0.00000E+000	-1.53908E-003	-3.59960E-001	-1.08491E+000	3.57660E+000	10	...........
	18	0.253333	2.48332E-001	-6.01429E-003	0.00000E+000	-1.49354E-003	-3.59960E-001	-1.09094E+000	3.57660E+000	10	...........
	19	0.266667	2.41032E-001	-6.01278E-003	0.00000E+000	-1.44928E-003	-3.59960E-001	-1.09341E+000	3.57660E+000	10	...........
	20	0.28	2.33832E-001	-6.01236E-003	0.00000E+000	-1.40588E-003	-3.59960E-001	-1.08475E+000	3.57660E+000	10	...........
	21	0.293333	2.26731E-001	-6.01551E-003	0.00000E+000	-1.36390E-003	-3.59960E-001	-1.09108E+000	3.57660E+000	10	...........
	22	0.306667	2.19617E-001	-6.01565E-003	0.00000E+000	-1.32114E-003	-3.59960E-001	-1.09412E+000	3.57660E+000	10	...........
	23	0.32	2.12620E-001	-6.01504E-003	0.00000E+000	-1.27892E-003	-3.59960E-001	-1.08536E+000	3.57660E+000	10	...........
	24	0.333333	2.05690E-001	-6.01686E-003	0.00000E+000	-1.23761E-003	-3.59960E-001	-1.09124E+000	3.57660E+000	10	...........
	25	0.346667	1.98851E-001	-6.01155E-003	0.00000E+000	-1.19540E-003	-3.59960E-001	-1.09414E+000	3.57660E+000	10	...........
	26	0.36	1.92066E-001	-6.01552E-003	0.00000E+000	-1.15538E-003	-3.59960E-001	-1.08561E+000	3.57660E+000	10	...........
	27	0.373333	1.85356E-001	-6.01238E-003	0.00000E+000	-1.11443E-003	-3.59960E-001	-1.09162E+000	3.57660E+000	10	...........
	28	0.386667	1.78705E-001	-6.01652E-003	0.00000E+000	-1.07518E-003	-3.59960E-001	-1.09447E+000	3.57660E+000	10	...........
	29	0.4	1.72143E-001	-6.01302E-003	0.00000E+000	-1.03510E-003	-3.59960E-001	-1.08546E+000	3.57660E+000	10	...........
	30	0.413333	1.65630E-001	-6.00964E-003	0.00000E+000	-9.95380E-004	-3.59960E-001	-1.09114E+000	3.57660E+000	10	...........
	31	0.426667	1.59170E-001	-6.01760E-003	0.00000E+000	-9.57821E-004	-3.59960E-001	-1.09416E+000	3.57660E+000	10	...........
	32	0.44	1.52788E-001	-6.01431E-003	0.00000E+000	-9.18915E-004	-3.59960E-001	-1.08557E+000	3.57660E+000	10	...........
	33	0.453333	1.46435E-001	-6.01690E-003	0.00000E+000	-8.81083E-004	-3.59960E-001	-1.09149E+000	3.57660E+000	10	...........
	34	0.466667	1.40109E-001	-6.01585E-003	0.00000E+000	-8.42876E-004	-3.59960E-001	-1.09447E+000	3.57660E+000	10	...........
	35	0.48	1.33860E-001	-6.01644E-003	0.00000E+000	-8.05361E-004	-3.59960E-001	-1.08569E+000	3.57660E+000	10	...........
	36	0.493333	1.27680E-001	-6.01177E-003	0.00000E+000	-7.67585E-004	-3.59960E-001	-1.09158E+000	3.57660E+000	10	...........
	37	0.506667	1.21613E-001	-6.00978E-003	0.00000E+000	-7.30869E-004	-3.59960E-001	-1.09504E+000	3.57660E+000	10	...........
	38	0.52	1.15607E-001	-6.01279E-003	0.00000E+000	-6.95121E-004	-3.59960E-001	-1.08603E+000	3.57660E+000	10	...........
	39	0.533333	1.09589E-001	-6.00746E-003	0.00000E+000	-6.58355E-004	-3.59960E-001	-1.09162E+000	3.57660E+000	10	...........
	40	0.546667	1.03638E-001	-6.01272E-003	0.00000E+000	-6.23145E-004	-3.59960E-001	-1.09467E+000	3.57660E+000	10	...........
	41	0.56	9.77690E-002	-6.00992E-003	0.00000E+000	-5.87583E-004	-3.59960E-001	-1.08607E+000	3.57660E+000	10	...........
	42	0.573333	9.18980E-002	-6.01557E-003	0.00000E+000	-5.52819E-004	-3.59960E-001	-1.09187E+000	3.57660E+000	10	...........
	43	0.586667	8.60807E-002	-6.01363E-003	0.00000E+000	-5.17658E-004	-3.59960E-001	-1.09503E+000	3.57660E+000	10	...........
	44	0.6	8.03668E-002	-6.01463E-003	0.00000E+000	-4.83376E-004	-3.59960E-001	-1.08632E+000	3.57660E+000	10	...........
	45	0.613333	7.46872E-002	-6.01737E-003	0.00000E+000	-4.49421E-004	-3.59960E-001	-1.09209E+000	3.57660E+000	10	...........
	46	0.626667	6.90267E-002	-6.01121E-003	0.00000E+000	-4.14934E-004	-3.59960E-001	-1.09540E+000	3.57660E+000	10	...........
	47	0.64	6.34091E-002	-6.01531E-003	0.00000E+000	-3.81425E-004	-3.59960E-001	-1.08653E+000	3.57660E+000	10	...........
	48	0.653333	5.78413E-002	-6.01237E-003	0.00000E+000	-3.47763E-004	-3.59960E-001	-1.09234E+000	3.57660E+000	10	...........
	49	0.666667	5.23426E-002	-6.01456E-003	0.00000E+000	-3.14818E-004	-3.59960E-001	-1.09541E+000	3.57660E+000	10	...........
	50	0.68	4.69302E-002	-6.01416E-003	0.00000E+000	-2.82246E-004	-3.59960E-001	-1.08647E+000	3.57660E+000	10	...........
	51	0.693333	4.14810E-002	-6.01462E-003	0.00000E+000	-2.49492E-004	-3.59960E-001	-1.09236E+000	3.57660E+000	10	...........
	52	0.706667	3.61424E-002	-6.01196E-003	0.00000E+000	-2.17286E-004	-3.59960E-001	-1.09564E+000	3.57660E+000	10	...........
	53	0.72	3.08064E-002	-6.01623E-003	0.00000E+000	-1.85338E-004	-3.59960E-001	-1.08675E+000	3.57660E+000	10	...........
	54	0.733333	2.55366E-002	-6.01812E-003	0.00000E+000	-1.53683E-004	-3.59960E-001	-1.09182E+000	3.57660E+000	10	...........
	55	0.746667	2.02928E-002	-6.01419E-003	0.00000E+000	-1.22045E-004	-3.59960E-001	-1.09513E+000	3.57660E+000	10	...........
	56	0.76	1.50979E-002	-6.01316E-003	0.00000E+000	-9.07863E-005	-3.59960E-001	-1.08620E+000	3.57660E+000	10	...........
	57	0.773333	9.94532E-003	-6.01339E-003	0.00000E+000	-5.98051E-005	-3.59960E-001	-1.09200E+000	3.57660E+000	10	...........
	58	0.786667	4.79980E-003	-6.01780E-003	0.00000E+000	-2.88842E-005	-3.59960E-001	-1.09541E+000	3.57660E+000	10	...........
	59	0.795	7.08960E-004	-6.01332E-003	0.00000E+000	-4.26320E-006	-3.59960E-001	-1.08162E+000	3.57660E+000	10	...........
STARTTIMEOFFSET	QUANT	668.4432	Start Time Offset (s)
