EXPLAIN
TAG	PWR800_DISCHARGE
TITLE	LABEL	PWR Cyclic Charge Discharge (Cell) - Discharge Step	Test &Identifier
DATE	LABEL	22-6-2017	Date
TIME	LABEL	15:43:54	Time
NOTES	NOTES	3	&Notes...
	supercap test cell
	0.6mg
	6M KOH
PSTAT	PSTAT	IFC5000-01520	Potentiostat
CAPACITY	QUANT	1.00000E-003	Capacity (A-hr)
CELLTYPE	SELECTOR	1	&Cell Type
WORKINGCONNECTION	SELECTOR	0	&Working Lead
MAXDISCHARGETIME	VARIABLEANDUNITS	1.00000E+002	s	1.00000E+002	second(s)	Max &Discharge Time
DISCHARGEMODE	MULTIPARAM	0	6.00000E-003	&Discharge Mode	Constant Current	Amp(s)
SAMPLETIME	QUANT	1.00000E-002	Sa&mple Period (s)
DISCHARGESTOPAT1	MULTIPARAM	3	0.00000E+000	Discharge Stop At &1	Voltage < Limit	V
DISCHARGESTOPAT2	MULTIPARAM	0	0.00000E+000	Discharge Stop At &2	None	N/A
AESBHCSELECTOR	TOGGLE	F	Save Both Half Cells
IRCOMP	TOGGLE	F	IR &Measure
EOC	QUANT	0	Open Circuit (V)
SEQUENCER	TOGGLE	TRUE	Run as Sequence
PSTATMODEL	IQUANT	53	Pstat Model
PSTATSECTION	LABEL	IFC5000-01520	Pstat Section
PSTATSERIALNO	LABEL	01520	Pstat Serial Number
CTRLMODE	IQUANT	0	Control Mode
ELECTROMETER	IQUANT	1	RE=0 or CS=1
IESTAB	IQUANT	0	I/E Stability
CASPEED	IQUANT	4	Control Amp Speed
CONVENTION	IQUANT	1	Current Convention
ICHRANGE	IQUANT	2	Ich Range
ICHRANGEMODE	TOGGLE	T	Ich Auto Range
ICHOFFSETENABLE	TOGGLE	F	Ich Offset Enable
ICHOFFSET	QUANT	0	Ich Offset (V)
ICHFILTER	IQUANT	1	Ich Filter
VCHRANGE	IQUANT	2	Vch Range
VCHRANGEMODE	TOGGLE	T	Vch Auto Range
VCHOFFSETENABLE	TOGGLE	F	Vch Offset Enable
VCHOFFSET	QUANT	0	Vch Offset (V)
VCHFILTER	IQUANT	1	Vch Filter
IERANGELOWERLIMIT	IQUANT	9	I/E Range Lower Limit
IERANGEMODE	TOGGLE	F	I/E AutoRange
IERANGE	IQUANT	10	I/E Range
ACHSELECT	IQUANT	1	Ach Select
ACHRANGE	IQUANT	2	Ach Range
ACHOFFSETENABLE	TOGGLE	F	Ach Offset Enable
ACHOFFSET	QUANT	0	Ach Offset (V)
ACHFILTER	IQUANT	1	Ach Filter
CABLEID	IQUANT	14	Cable ID
DCCALDATE	LABEL	20-10-2016	DC Calibration Date
ACCALDATE	LABEL	12/3/2015	AC Calibration Date
FRAMEWORKVERSION	QUANT	7.01	Framework Version
INSTRUMENTVERSION	LABEL	4.00	Instrument Version
CURVE	TABLE	65
	Pt	T	Vf	Im	Vu	Pwr	Sig	Ach	Temp	IERange	Over
	#	s	V	A	V	W	V	V	deg C	#	bits
	0	0.013333	4.15241E-001	-6.01502E-003	0.00000E+000	-2.49768E-003	-3.59960E-001	-1.05311E+000	3.58010E+000	10	...........
	1	0.026667	4.04651E-001	-6.01707E-003	0.00000E+000	-2.43481E-003	-3.59960E-001	-1.05914E+000	3.58010E+000	10	...........
	2	0.04	3.94852E-001	-6.01276E-003	0.00000E+000	-2.37415E-003	-3.59960E-001	-1.04967E+000	3.58010E+000	10	...........
	3	0.053333	3.85543E-001	-6.01340E-003	0.00000E+000	-2.31842E-003	-3.59960E-001	-1.05194E+000	3.58010E+000	10	...........
	4	0.066667	3.76549E-001	-6.01639E-003	0.00000E+000	-2.26547E-003	-3.59960E-001	-1.05861E+000	3.58010E+000	10	...........
	5	0.08	3.67850E-001	-6.01485E-003	0.00000E+000	-2.21256E-003	-3.59960E-001	-1.04907E+000	3.58010E+000	10	...........
	6	0.093333	3.59324E-001	-6.01562E-003	0.00000E+000	-2.16156E-003	-3.59960E-001	-1.05169E+000	3.58010E+000	10	...........
	7	0.106667	3.51039E-001	-6.01696E-003	0.00000E+000	-2.11219E-003	-3.59960E-001	-1.05845E+000	3.58010E+000	10	...........
	8	0.12	3.42909E-001	-6.01223E-003	0.00000E+000	-2.06165E-003	-3.59960E-001	-1.04944E+000	3.58010E+000	10	...........
	9	0.133333	3.34891E-001	-6.01239E-003	0.00000E+000	-2.01350E-003	-3.59960E-001	-1.05179E+000	3.58010E+000	10	...........
	10	0.146667	3.27001E-001	-6.01428E-003	0.00000E+000	-1.96668E-003	-3.59960E-001	-1.05875E+000	3.58010E+000	10	...........
	11	0.16	3.19189E-001	-6.01549E-003	0.00000E+000	-1.92007E-003	-3.59960E-001	-1.04933E+000	3.58010E+000	10	...........
	12	0.173333	3.11506E-001	-6.01605E-003	0.00000E+000	-1.87404E-003	-3.59960E-001	-1.05196E+000	3.58010E+000	10	...........
	13	0.186667	3.03884E-001	-6.01534E-003	0.00000E+000	-1.82796E-003	-3.59960E-001	-1.05869E+000	3.58010E+000	10	...........
	14	0.2	2.96396E-001	-6.01547E-003	0.00000E+000	-1.78296E-003	-3.59960E-001	-1.04954E+000	3.58010E+000	10	...........
	15	0.213333	2.88962E-001	-6.01431E-003	0.00000E+000	-1.73791E-003	-3.59960E-001	-1.05198E+000	3.58010E+000	10	...........
	16	0.226667	2.81616E-001	-6.01290E-003	0.00000E+000	-1.69333E-003	-3.59960E-001	-1.05843E+000	3.58010E+000	10	...........
	17	0.24	2.74366E-001	-6.01768E-003	0.00000E+000	-1.65105E-003	-3.59960E-001	-1.04955E+000	3.58010E+000	10	...........
	18	0.253333	2.67199E-001	-6.01652E-003	0.00000E+000	-1.60761E-003	-3.59960E-001	-1.05235E+000	3.58010E+000	10	...........
	19	0.266667	2.60105E-001	-6.01350E-003	0.00000E+000	-1.56414E-003	-3.59960E-001	-1.05883E+000	3.58010E+000	10	...........
	20	0.28	2.53067E-001	-6.01507E-003	0.00000E+000	-1.52222E-003	-3.59960E-001	-1.04973E+000	3.58010E+000	10	...........
	21	0.293333	2.46114E-001	-6.01401E-003	0.00000E+000	-1.48013E-003	-3.59960E-001	-1.05273E+000	3.58010E+000	10	...........
	22	0.306667	2.39235E-001	-6.01385E-003	0.00000E+000	-1.43872E-003	-3.59960E-001	-1.05913E+000	3.58010E+000	10	...........
	23	0.32	2.32396E-001	-6.01736E-003	0.00000E+000	-1.39841E-003	-3.59960E-001	-1.05036E+000	3.58010E+000	10	...........
	24	0.333333	2.25654E-001	-6.01585E-003	0.00000E+000	-1.35750E-003	-3.59960E-001	-1.05326E+000	3.58010E+000	10	...........
	25	0.346667	2.18952E-001	-6.01669E-003	0.00000E+000	-1.31737E-003	-3.59960E-001	-1.05938E+000	3.57915E+000	10	...........
	26	0.36	2.12299E-001	-6.01399E-003	0.00000E+000	-1.27676E-003	-3.59960E-001	-1.05029E+000	3.57680E+000	10	...........
	27	0.373333	2.05751E-001	-6.01251E-003	0.00000E+000	-1.23708E-003	-3.59960E-001	-1.05336E+000	3.57680E+000	10	...........
	28	0.386667	1.99236E-001	-6.01836E-003	0.00000E+000	-1.19908E-003	-3.59960E-001	-1.05962E+000	3.57680E+000	10	...........
	29	0.4	1.92784E-001	-6.01429E-003	0.00000E+000	-1.15946E-003	-3.59960E-001	-1.05055E+000	3.57680E+000	10	...........
	30	0.413333	1.86395E-001	-6.01689E-003	0.00000E+000	-1.12152E-003	-3.59960E-001	-1.05332E+000	3.57680E+000	10	...........
	31	0.426667	1.80068E-001	-6.01212E-003	0.00000E+000	-1.08259E-003	-3.59960E-001	-1.05932E+000	3.57680E+000	10	...........
	32	0.44	1.73805E-001	-6.01477E-003	0.00000E+000	-1.04540E-003	-3.59960E-001	-1.05011E+000	3.57680E+000	10	...........
	33	0.453333	1.67578E-001	-6.01762E-003	0.00000E+000	-1.00842E-003	-3.59960E-001	-1.05285E+000	3.57680E+000	10	...........
	34	0.466667	1.61427E-001	-6.01798E-003	0.00000E+000	-9.71464E-004	-3.59960E-001	-1.05877E+000	3.57680E+000	10	...........
	35	0.48	1.55328E-001	-6.01417E-003	0.00000E+000	-9.34171E-004	-3.59960E-001	-1.04942E+000	3.57680E+000	10	...........
	36	0.493333	1.49277E-001	-6.01534E-003	0.00000E+000	-8.97952E-004	-3.59960E-001	-1.05206E+000	3.57680E+000	10	...........
	37	0.506667	1.43318E-001	-6.01191E-003	0.00000E+000	-8.61613E-004	-3.59960E-001	-1.05792E+000	3.57680E+000	10	...........
	38	0.52	1.37365E-001	-6.01517E-003	0.00000E+000	-8.26275E-004	-3.59960E-001	-1.04868E+000	3.57680E+000	10	...........
	39	0.533333	1.31482E-001	-6.01665E-003	0.00000E+000	-7.91082E-004	-3.59960E-001	-1.05152E+000	3.57680E+000	10	...........
	40	0.546667	1.25604E-001	-6.01505E-003	0.00000E+000	-7.55517E-004	-3.59960E-001	-1.05717E+000	3.57680E+000	10	...........
	41	0.56	1.19788E-001	-6.01441E-003	0.00000E+000	-7.20454E-004	-3.59960E-001	-1.04808E+000	3.57680E+000	10	...........
	42	0.573333	1.13999E-001	-6.01531E-003	0.00000E+000	-6.85739E-004	-3.59960E-001	-1.05079E+000	3.57680E+000	10	...........
	43	0.586667	1.08298E-001	-6.01204E-003	0.00000E+000	-6.51094E-004	-3.59960E-001	-1.05640E+000	3.57680E+000	10	...........
	44	0.6	1.02630E-001	-6.01379E-003	0.00000E+000	-6.17192E-004	-3.59960E-001	-1.04729E+000	3.57680E+000	10	...........
	45	0.613333	9.69666E-002	-6.01756E-003	0.00000E+000	-5.83502E-004	-3.59960E-001	-1.04989E+000	3.57680E+000	10	...........
	46	0.626667	9.14097E-002	-6.01916E-003	0.00000E+000	-5.50209E-004	-3.59960E-001	-1.05518E+000	3.57680E+000	10	...........
	47	0.64	8.58635E-002	-6.01651E-003	0.00000E+000	-5.16598E-004	-3.59960E-001	-1.04556E+000	3.57680E+000	10	...........
	48	0.653333	8.03277E-002	-6.01902E-003	0.00000E+000	-4.83494E-004	-3.59960E-001	-1.04837E+000	3.57680E+000	10	...........
	49	0.666667	7.48688E-002	-6.01799E-003	0.00000E+000	-4.50560E-004	-3.59960E-001	-1.05334E+000	3.57680E+000	10	...........
	50	0.68	6.94454E-002	-6.01547E-003	0.00000E+000	-4.17747E-004	-3.59960E-001	-1.04353E+000	3.57680E+000	10	...........
	51	0.693333	6.40235E-002	-6.01416E-003	0.00000E+000	-3.85048E-004	-3.59960E-001	-1.04601E+000	3.57680E+000	10	...........
	52	0.706667	5.86744E-002	-6.01453E-003	0.00000E+000	-3.52899E-004	-3.59960E-001	-1.05126E+000	3.57680E+000	10	...........
	53	0.72	5.33816E-002	-6.01199E-003	0.00000E+000	-3.20930E-004	-3.59960E-001	-1.04167E+000	3.57680E+000	10	...........
	54	0.733333	4.81804E-002	-6.01427E-003	0.00000E+000	-2.89770E-004	-3.59960E-001	-1.04445E+000	3.57680E+000	10	...........
	55	0.746667	4.30064E-002	-6.01444E-003	0.00000E+000	-2.58659E-004	-3.59960E-001	-1.04954E+000	3.57680E+000	10	...........
	56	0.76	3.78011E-002	-6.01520E-003	0.00000E+000	-2.27381E-004	-3.59960E-001	-1.04036E+000	3.57680E+000	10	...........
	57	0.773333	3.26349E-002	-6.01767E-003	0.00000E+000	-1.96386E-004	-3.59960E-001	-1.04340E+000	3.57680E+000	10	...........
	58	0.786667	2.75399E-002	-6.01300E-003	0.00000E+000	-1.65598E-004	-3.59960E-001	-1.04903E+000	3.57680E+000	10	...........
	59	0.8	2.24452E-002	-6.01041E-003	0.00000E+000	-1.34905E-004	-3.59960E-001	-1.04033E+000	3.57680E+000	10	...........
	60	0.813333	1.74125E-002	-6.01530E-003	0.00000E+000	-1.04741E-004	-3.59960E-001	-1.04364E+000	3.57680E+000	10	...........
	61	0.826667	1.24075E-002	-6.01787E-003	0.00000E+000	-7.46666E-005	-3.59960E-001	-1.04910E+000	3.57680E+000	10	...........
	62	0.84	7.47033E-003	-6.01512E-003	0.00000E+000	-4.49349E-005	-3.59960E-001	-1.04032E+000	3.57680E+000	10	...........
	63	0.853333	2.54383E-003	-6.01147E-003	0.00000E+000	-1.52922E-005	-3.59960E-001	-1.04400E+000	3.57680E+000	10	...........
	64	0.855	-2.13617E-004	-6.01270E-003	0.00000E+000	1.28442E-006	-3.59960E-001	-1.03428E+000	3.57680E+000	10	...........
STARTTIMEOFFSET	QUANT	377.2717	Start Time Offset (s)
