EXPLAIN
TAG	PWR800_DISCHARGE
TITLE	LABEL	PWR Cyclic Charge Discharge (Cell) - Discharge Step	Test &Identifier
DATE	LABEL	22-6-2017	Date
TIME	LABEL	15:53:46	Time
NOTES	NOTES	3	&Notes...
	supercap test cell
	0.6mg
	6M KOH
PSTAT	PSTAT	IFC5000-01520	Potentiostat
CAPACITY	QUANT	1.00000E-003	Capacity (A-hr)
CELLTYPE	SELECTOR	1	&Cell Type
WORKINGCONNECTION	SELECTOR	0	&Working Lead
MAXDISCHARGETIME	VARIABLEANDUNITS	1.00000E+002	s	1.00000E+002	second(s)	Max &Discharge Time
DISCHARGEMODE	MULTIPARAM	0	6.00000E-003	&Discharge Mode	Constant Current	Amp(s)
SAMPLETIME	QUANT	1.00000E-002	Sa&mple Period (s)
DISCHARGESTOPAT1	MULTIPARAM	3	0.00000E+000	Discharge Stop At &1	Voltage < Limit	V
DISCHARGESTOPAT2	MULTIPARAM	0	0.00000E+000	Discharge Stop At &2	None	N/A
AESBHCSELECTOR	TOGGLE	F	Save Both Half Cells
IRCOMP	TOGGLE	F	IR &Measure
EOC	QUANT	0	Open Circuit (V)
SEQUENCER	TOGGLE	TRUE	Run as Sequence
PSTATMODEL	IQUANT	53	Pstat Model
PSTATSECTION	LABEL	IFC5000-01520	Pstat Section
PSTATSERIALNO	LABEL	01520	Pstat Serial Number
CTRLMODE	IQUANT	0	Control Mode
ELECTROMETER	IQUANT	1	RE=0 or CS=1
IESTAB	IQUANT	0	I/E Stability
CASPEED	IQUANT	4	Control Amp Speed
CONVENTION	IQUANT	1	Current Convention
ICHRANGE	IQUANT	2	Ich Range
ICHRANGEMODE	TOGGLE	T	Ich Auto Range
ICHOFFSETENABLE	TOGGLE	F	Ich Offset Enable
ICHOFFSET	QUANT	0	Ich Offset (V)
ICHFILTER	IQUANT	1	Ich Filter
VCHRANGE	IQUANT	2	Vch Range
VCHRANGEMODE	TOGGLE	T	Vch Auto Range
VCHOFFSETENABLE	TOGGLE	F	Vch Offset Enable
VCHOFFSET	QUANT	0	Vch Offset (V)
VCHFILTER	IQUANT	1	Vch Filter
IERANGELOWERLIMIT	IQUANT	9	I/E Range Lower Limit
IERANGEMODE	TOGGLE	F	I/E AutoRange
IERANGE	IQUANT	10	I/E Range
ACHSELECT	IQUANT	1	Ach Select
ACHRANGE	IQUANT	2	Ach Range
ACHOFFSETENABLE	TOGGLE	F	Ach Offset Enable
ACHOFFSET	QUANT	0	Ach Offset (V)
ACHFILTER	IQUANT	1	Ach Filter
CABLEID	IQUANT	14	Cable ID
DCCALDATE	LABEL	20-10-2016	DC Calibration Date
ACCALDATE	LABEL	12/3/2015	AC Calibration Date
FRAMEWORKVERSION	QUANT	7.01	Framework Version
INSTRUMENTVERSION	LABEL	4.00	Instrument Version
CURVE	TABLE	59
	Pt	T	Vf	Im	Vu	Pwr	Sig	Ach	Temp	IERange	Over
	#	s	V	A	V	W	V	V	deg C	#	bits
	0	0.013333	3.97692E-001	-6.01585E-003	0.00000E+000	-2.39246E-003	-3.59960E-001	-1.09943E+000	3.57790E+000	10	...........
	1	0.026667	3.86695E-001	-6.01506E-003	0.00000E+000	-2.32599E-003	-3.59960E-001	-1.11040E+000	3.57790E+000	10	...........
	2	0.04	3.76466E-001	-6.01284E-003	0.00000E+000	-2.26363E-003	-3.59960E-001	-1.10064E+000	3.57790E+000	10	...........
	3	0.053333	3.66763E-001	-6.01368E-003	0.00000E+000	-2.20559E-003	-3.59960E-001	-1.10018E+000	3.57790E+000	10	...........
	4	0.066667	3.57468E-001	-6.01543E-003	0.00000E+000	-2.15032E-003	-3.59960E-001	-1.11100E+000	3.57790E+000	10	...........
	5	0.08	3.48358E-001	-6.01299E-003	0.00000E+000	-2.09467E-003	-3.59960E-001	-1.10074E+000	3.57790E+000	10	...........
	6	0.093333	3.39547E-001	-6.01572E-003	0.00000E+000	-2.04262E-003	-3.59960E-001	-1.10050E+000	3.57790E+000	10	...........
	7	0.106667	3.30886E-001	-6.01907E-003	0.00000E+000	-1.99163E-003	-3.59960E-001	-1.11121E+000	3.57790E+000	10	...........
	8	0.12	3.22381E-001	-6.01152E-003	0.00000E+000	-1.93800E-003	-3.59960E-001	-1.10102E+000	3.57790E+000	10	...........
	9	0.133333	3.14039E-001	-6.01297E-003	0.00000E+000	-1.88831E-003	-3.59960E-001	-1.10069E+000	3.57790E+000	10	...........
	10	0.146667	3.05836E-001	-6.01248E-003	0.00000E+000	-1.83883E-003	-3.59960E-001	-1.11149E+000	3.57790E+000	10	...........
	11	0.16	2.97691E-001	-6.01161E-003	0.00000E+000	-1.78960E-003	-3.59960E-001	-1.10097E+000	3.57790E+000	10	...........
	12	0.173333	2.89646E-001	-6.01402E-003	0.00000E+000	-1.74194E-003	-3.59960E-001	-1.10108E+000	3.57790E+000	10	...........
	13	0.186667	2.81744E-001	-6.01625E-003	0.00000E+000	-1.69504E-003	-3.59960E-001	-1.11161E+000	3.57790E+000	10	...........
	14	0.2	2.73942E-001	-6.01374E-003	0.00000E+000	-1.64742E-003	-3.59960E-001	-1.10109E+000	3.57790E+000	10	...........
	15	0.213333	2.66235E-001	-6.01677E-003	0.00000E+000	-1.60187E-003	-3.59960E-001	-1.10138E+000	3.57790E+000	10	...........
	16	0.226667	2.58623E-001	-6.01098E-003	0.00000E+000	-1.55458E-003	-3.59960E-001	-1.11198E+000	3.57790E+000	10	...........
	17	0.24	2.51077E-001	-6.01226E-003	0.00000E+000	-1.50954E-003	-3.59960E-001	-1.10153E+000	3.57790E+000	10	...........
	18	0.253333	2.43605E-001	-6.01504E-003	0.00000E+000	-1.46529E-003	-3.59960E-001	-1.10175E+000	3.57790E+000	10	...........
	19	0.266667	2.36275E-001	-6.01547E-003	0.00000E+000	-1.42131E-003	-3.59960E-001	-1.11192E+000	3.57790E+000	10	...........
	20	0.28	2.29014E-001	-6.01309E-003	0.00000E+000	-1.37708E-003	-3.59960E-001	-1.10135E+000	3.57790E+000	10	...........
	21	0.293333	2.21832E-001	-6.01156E-003	0.00000E+000	-1.33356E-003	-3.59960E-001	-1.10181E+000	3.57790E+000	10	...........
	22	0.306667	2.14695E-001	-6.01272E-003	0.00000E+000	-1.29090E-003	-3.59960E-001	-1.11206E+000	3.57790E+000	10	...........
	23	0.32	2.07654E-001	-6.01361E-003	0.00000E+000	-1.24875E-003	-3.59960E-001	-1.10141E+000	3.57790E+000	10	...........
	24	0.333333	2.00643E-001	-6.01415E-003	0.00000E+000	-1.20670E-003	-3.59960E-001	-1.10178E+000	3.57790E+000	10	...........
	25	0.346667	1.93742E-001	-6.01364E-003	0.00000E+000	-1.16509E-003	-3.59960E-001	-1.11171E+000	3.57790E+000	10	...........
	26	0.36	1.86913E-001	-6.00911E-003	0.00000E+000	-1.12318E-003	-3.59960E-001	-1.10108E+000	3.57790E+000	10	...........
	27	0.373333	1.80141E-001	-6.01442E-003	0.00000E+000	-1.08345E-003	-3.59960E-001	-1.10214E+000	3.57790E+000	10	...........
	28	0.386667	1.73418E-001	-6.01567E-003	0.00000E+000	-1.04322E-003	-3.59960E-001	-1.11221E+000	3.57790E+000	10	...........
	29	0.4	1.66814E-001	-6.01729E-003	0.00000E+000	-1.00377E-003	-3.59960E-001	-1.10110E+000	3.57790E+000	10	...........
	30	0.413333	1.60278E-001	-6.01169E-003	0.00000E+000	-9.63541E-004	-3.59960E-001	-1.10220E+000	3.57790E+000	10	...........
	31	0.426667	1.53755E-001	-6.01689E-003	0.00000E+000	-9.25126E-004	-3.59960E-001	-1.11191E+000	3.57790E+000	10	...........
	32	0.44	1.47347E-001	-6.01276E-003	0.00000E+000	-8.85962E-004	-3.59960E-001	-1.10133E+000	3.57790E+000	10	...........
	33	0.453333	1.40954E-001	-6.01691E-003	0.00000E+000	-8.48109E-004	-3.59960E-001	-1.10268E+000	3.57790E+000	10	...........
	34	0.466667	1.34660E-001	-6.01405E-003	0.00000E+000	-8.09851E-004	-3.59960E-001	-1.11214E+000	3.57790E+000	10	...........
	35	0.48	1.28376E-001	-6.01265E-003	0.00000E+000	-7.71879E-004	-3.59960E-001	-1.10122E+000	3.57790E+000	10	...........
	36	0.493333	1.22187E-001	-6.01077E-003	0.00000E+000	-7.34438E-004	-3.59960E-001	-1.10263E+000	3.57790E+000	10	...........
	37	0.506667	1.16046E-001	-6.02003E-003	0.00000E+000	-6.98603E-004	-3.59960E-001	-1.11210E+000	3.57790E+000	10	...........
	38	0.52	1.09954E-001	-6.01598E-003	0.00000E+000	-6.61483E-004	-3.59960E-001	-1.10144E+000	3.57790E+000	10	...........
	39	0.533333	1.03944E-001	-6.01334E-003	0.00000E+000	-6.25049E-004	-3.59960E-001	-1.10305E+000	3.57790E+000	10	...........
	40	0.546667	9.79435E-002	-6.02046E-003	0.00000E+000	-5.89665E-004	-3.59960E-001	-1.11226E+000	3.57790E+000	10	...........
	41	0.56	9.20338E-002	-6.00889E-003	0.00000E+000	-5.53021E-004	-3.59960E-001	-1.10154E+000	3.57790E+000	10	...........
	42	0.573333	8.61732E-002	-6.01576E-003	0.00000E+000	-5.18397E-004	-3.59960E-001	-1.10336E+000	3.57790E+000	10	...........
	43	0.586667	8.03490E-002	-6.01590E-003	0.00000E+000	-4.83372E-004	-3.59960E-001	-1.11225E+000	3.57790E+000	10	...........
	44	0.6	7.45591E-002	-6.01227E-003	0.00000E+000	-4.48270E-004	-3.59960E-001	-1.10149E+000	3.57790E+000	10	...........
	45	0.613333	6.88583E-002	-6.01981E-003	0.00000E+000	-4.14514E-004	-3.59960E-001	-1.10316E+000	3.57790E+000	10	...........
	46	0.626667	6.32053E-002	-6.01298E-003	0.00000E+000	-3.80052E-004	-3.59960E-001	-1.11211E+000	3.57790E+000	10	...........
	47	0.64	5.75887E-002	-6.01576E-003	0.00000E+000	-3.46439E-004	-3.59960E-001	-1.10122E+000	3.57790E+000	10	...........
	48	0.653333	5.20290E-002	-6.01917E-003	0.00000E+000	-3.13171E-004	-3.59960E-001	-1.10331E+000	3.57790E+000	10	...........
	49	0.666667	4.65253E-002	-6.01117E-003	0.00000E+000	-2.79671E-004	-3.59960E-001	-1.11172E+000	3.57790E+000	10	...........
	50	0.68	4.10596E-002	-6.01392E-003	0.00000E+000	-2.46929E-004	-3.59960E-001	-1.10122E+000	3.57790E+000	10	...........
	51	0.693333	3.56678E-002	-6.01131E-003	0.00000E+000	-2.14410E-004	-3.59960E-001	-1.10334E+000	3.57790E+000	10	...........
	52	0.706667	3.02683E-002	-6.01395E-003	0.00000E+000	-1.82032E-004	-3.59960E-001	-1.11181E+000	3.57790E+000	10	...........
	53	0.72	2.49137E-002	-6.01852E-003	0.00000E+000	-1.49943E-004	-3.59960E-001	-1.10132E+000	3.57790E+000	10	...........
	54	0.733333	1.96325E-002	-6.01599E-003	0.00000E+000	-1.18109E-004	-3.59960E-001	-1.10347E+000	3.57790E+000	10	...........
	55	0.746667	1.43795E-002	-6.01224E-003	0.00000E+000	-8.64533E-005	-3.59960E-001	-1.11164E+000	3.57790E+000	10	...........
	56	0.76	9.16188E-003	-6.01023E-003	0.00000E+000	-5.50650E-005	-3.59960E-001	-1.10113E+000	3.57790E+000	10	...........
	57	0.773333	4.02054E-003	-6.01377E-003	0.00000E+000	-2.41786E-005	-3.59960E-001	-1.10400E+000	3.57790E+000	10	...........
	58	0.778333	4.95932E-004	-6.01632E-003	0.00000E+000	-2.98368E-006	-3.59960E-001	-1.10699E+000	3.57790E+000	10	...........
STARTTIMEOFFSET	QUANT	774.4102	Start Time Offset (s)
