EXPLAIN
TAG	PWR800_DISCHARGE
TITLE	LABEL	PWR Cyclic Charge Discharge (Cell) - Discharge Step	Test &Identifier
DATE	LABEL	22-6-2017	Date
TIME	LABEL	15:40:51	Time
NOTES	NOTES	3	&Notes...
	supercap test cell
	0.6mg
	6M KOH
PSTAT	PSTAT	IFC5000-01520	Potentiostat
CAPACITY	QUANT	1.00000E-003	Capacity (A-hr)
CELLTYPE	SELECTOR	1	&Cell Type
WORKINGCONNECTION	SELECTOR	0	&Working Lead
MAXDISCHARGETIME	VARIABLEANDUNITS	1.00000E+002	s	1.00000E+002	second(s)	Max &Discharge Time
DISCHARGEMODE	MULTIPARAM	0	6.00000E-003	&Discharge Mode	Constant Current	Amp(s)
SAMPLETIME	QUANT	1.00000E-002	Sa&mple Period (s)
DISCHARGESTOPAT1	MULTIPARAM	3	0.00000E+000	Discharge Stop At &1	Voltage < Limit	V
DISCHARGESTOPAT2	MULTIPARAM	0	0.00000E+000	Discharge Stop At &2	None	N/A
AESBHCSELECTOR	TOGGLE	F	Save Both Half Cells
IRCOMP	TOGGLE	F	IR &Measure
EOC	QUANT	0	Open Circuit (V)
SEQUENCER	TOGGLE	TRUE	Run as Sequence
PSTATMODEL	IQUANT	53	Pstat Model
PSTATSECTION	LABEL	IFC5000-01520	Pstat Section
PSTATSERIALNO	LABEL	01520	Pstat Serial Number
CTRLMODE	IQUANT	0	Control Mode
ELECTROMETER	IQUANT	1	RE=0 or CS=1
IESTAB	IQUANT	0	I/E Stability
CASPEED	IQUANT	4	Control Amp Speed
CONVENTION	IQUANT	1	Current Convention
ICHRANGE	IQUANT	2	Ich Range
ICHRANGEMODE	TOGGLE	T	Ich Auto Range
ICHOFFSETENABLE	TOGGLE	F	Ich Offset Enable
ICHOFFSET	QUANT	0	Ich Offset (V)
ICHFILTER	IQUANT	1	Ich Filter
VCHRANGE	IQUANT	2	Vch Range
VCHRANGEMODE	TOGGLE	T	Vch Auto Range
VCHOFFSETENABLE	TOGGLE	F	Vch Offset Enable
VCHOFFSET	QUANT	0	Vch Offset (V)
VCHFILTER	IQUANT	1	Vch Filter
IERANGELOWERLIMIT	IQUANT	9	I/E Range Lower Limit
IERANGEMODE	TOGGLE	F	I/E AutoRange
IERANGE	IQUANT	10	I/E Range
ACHSELECT	IQUANT	1	Ach Select
ACHRANGE	IQUANT	2	Ach Range
ACHOFFSETENABLE	TOGGLE	F	Ach Offset Enable
ACHOFFSET	QUANT	0	Ach Offset (V)
ACHFILTER	IQUANT	1	Ach Filter
CABLEID	IQUANT	14	Cable ID
DCCALDATE	LABEL	20-10-2016	DC Calibration Date
ACCALDATE	LABEL	12/3/2015	AC Calibration Date
FRAMEWORKVERSION	QUANT	7.01	Framework Version
INSTRUMENTVERSION	LABEL	4.00	Instrument Version
CURVE	TABLE	67
	Pt	T	Vf	Im	Vu	Pwr	Sig	Ach	Temp	IERange	Over
	#	s	V	A	V	W	V	V	deg C	#	bits
	0	0.013333	4.23155E-001	-6.01382E-003	0.00000E+000	-2.54478E-003	-3.59960E-001	-1.03751E+000	3.57710E+000	10	...........
	1	0.026667	4.12807E-001	-6.01985E-003	0.00000E+000	-2.48503E-003	-3.59960E-001	-1.04842E+000	3.57710E+000	10	...........
	2	0.04	4.03235E-001	-6.01346E-003	0.00000E+000	-2.42484E-003	-3.59960E-001	-1.03962E+000	3.57710E+000	10	...........
	3	0.053333	3.94101E-001	-6.01253E-003	0.00000E+000	-2.36955E-003	-3.59960E-001	-1.03807E+000	3.57710E+000	10	...........
	4	0.066667	3.85308E-001	-6.01269E-003	0.00000E+000	-2.31673E-003	-3.59960E-001	-1.04869E+000	3.57710E+000	10	...........
	5	0.08	3.76792E-001	-6.00971E-003	0.00000E+000	-2.26441E-003	-3.59960E-001	-1.03974E+000	3.57710E+000	10	...........
	6	0.093333	3.68504E-001	-6.01210E-003	0.00000E+000	-2.21548E-003	-3.59960E-001	-1.03809E+000	3.57710E+000	10	...........
	7	0.106667	3.60394E-001	-6.01737E-003	0.00000E+000	-2.16863E-003	-3.59960E-001	-1.04912E+000	3.57710E+000	10	...........
	8	0.12	3.52447E-001	-6.01000E-003	0.00000E+000	-2.11821E-003	-3.59960E-001	-1.04034E+000	3.57710E+000	10	...........
	9	0.133333	3.44573E-001	-6.00849E-003	0.00000E+000	-2.07036E-003	-3.59960E-001	-1.03844E+000	3.57710E+000	10	...........
	10	0.146667	3.36802E-001	-6.00717E-003	0.00000E+000	-2.02323E-003	-3.59960E-001	-1.04903E+000	3.57710E+000	10	...........
	11	0.16	3.29154E-001	-6.01689E-003	0.00000E+000	-1.98049E-003	-3.59960E-001	-1.04023E+000	3.57710E+000	10	...........
	12	0.173333	3.21647E-001	-6.01735E-003	0.00000E+000	-1.93547E-003	-3.59960E-001	-1.03883E+000	3.57710E+000	10	...........
	13	0.186667	3.14197E-001	-6.01457E-003	0.00000E+000	-1.88976E-003	-3.59960E-001	-1.04939E+000	3.57710E+000	10	...........
	14	0.2	3.06821E-001	-6.01312E-003	0.00000E+000	-1.84495E-003	-3.59960E-001	-1.04033E+000	3.57710E+000	10	...........
	15	0.213333	2.99568E-001	-6.01435E-003	0.00000E+000	-1.80171E-003	-3.59960E-001	-1.03852E+000	3.57710E+000	10	...........
	16	0.226667	2.92382E-001	-6.01092E-003	0.00000E+000	-1.75748E-003	-3.59960E-001	-1.04898E+000	3.57710E+000	10	...........
	17	0.24	2.85285E-001	-6.01105E-003	0.00000E+000	-1.71486E-003	-3.59960E-001	-1.04057E+000	3.57710E+000	10	...........
	18	0.253333	2.78285E-001	-6.01646E-003	0.00000E+000	-1.67429E-003	-3.59960E-001	-1.03887E+000	3.57710E+000	10	...........
	19	0.266667	2.71306E-001	-6.01587E-003	0.00000E+000	-1.63214E-003	-3.59960E-001	-1.04937E+000	3.57710E+000	10	...........
	20	0.28	2.64404E-001	-6.01585E-003	0.00000E+000	-1.59061E-003	-3.59960E-001	-1.04051E+000	3.57710E+000	10	...........
	21	0.293333	2.57576E-001	-6.01535E-003	0.00000E+000	-1.54941E-003	-3.59960E-001	-1.03873E+000	3.57710E+000	10	...........
	22	0.306667	2.50746E-001	-6.01545E-003	0.00000E+000	-1.50835E-003	-3.59960E-001	-1.04950E+000	3.57710E+000	10	...........
	23	0.32	2.44078E-001	-6.01393E-003	0.00000E+000	-1.46787E-003	-3.59960E-001	-1.04094E+000	3.57710E+000	10	...........
	24	0.333333	2.37466E-001	-6.01321E-003	0.00000E+000	-1.42793E-003	-3.59960E-001	-1.03883E+000	3.57710E+000	10	...........
	25	0.346667	2.30881E-001	-6.01243E-003	0.00000E+000	-1.38816E-003	-3.59960E-001	-1.04969E+000	3.57710E+000	10	...........
	26	0.36	2.24395E-001	-6.01683E-003	0.00000E+000	-1.35015E-003	-3.59960E-001	-1.04082E+000	3.57710E+000	10	...........
	27	0.373333	2.17956E-001	-6.01355E-003	0.00000E+000	-1.31069E-003	-3.59960E-001	-1.03919E+000	3.57710E+000	10	...........
	28	0.386667	2.11543E-001	-6.01714E-003	0.00000E+000	-1.27289E-003	-3.59960E-001	-1.04998E+000	3.57710E+000	10	...........
	29	0.4	2.05191E-001	-6.01329E-003	0.00000E+000	-1.23387E-003	-3.59960E-001	-1.04131E+000	3.57710E+000	10	...........
	30	0.413333	1.98895E-001	-6.01422E-003	0.00000E+000	-1.19620E-003	-3.59960E-001	-1.03909E+000	3.57710E+000	10	...........
	31	0.426667	1.92648E-001	-6.01895E-003	0.00000E+000	-1.15954E-003	-3.59960E-001	-1.04993E+000	3.57710E+000	10	...........
	32	0.44	1.86477E-001	-6.01559E-003	0.00000E+000	-1.12177E-003	-3.59960E-001	-1.04157E+000	3.57710E+000	10	...........
	33	0.453333	1.80329E-001	-6.01213E-003	0.00000E+000	-1.08416E-003	-3.59960E-001	-1.03922E+000	3.57710E+000	10	...........
	34	0.466667	1.74255E-001	-6.01720E-003	0.00000E+000	-1.04853E-003	-3.59960E-001	-1.04985E+000	3.57710E+000	10	...........
	35	0.48	1.68211E-001	-6.01637E-003	0.00000E+000	-1.01202E-003	-3.59960E-001	-1.04117E+000	3.57710E+000	10	...........
	36	0.493333	1.62192E-001	-6.01840E-003	0.00000E+000	-9.76135E-004	-3.59960E-001	-1.03887E+000	3.57710E+000	10	...........
	37	0.506667	1.56264E-001	-6.01976E-003	0.00000E+000	-9.40671E-004	-3.59960E-001	-1.04948E+000	3.57710E+000	10	...........
	38	0.52	1.50376E-001	-6.01665E-003	0.00000E+000	-9.04760E-004	-3.59960E-001	-1.04105E+000	3.57710E+000	10	...........
	39	0.533333	1.44559E-001	-6.01560E-003	0.00000E+000	-8.69611E-004	-3.59960E-001	-1.03863E+000	3.57710E+000	10	...........
	40	0.546667	1.38793E-001	-6.01816E-003	0.00000E+000	-8.35276E-004	-3.59960E-001	-1.04933E+000	3.57710E+000	10	...........
	41	0.56	1.33015E-001	-6.01331E-003	0.00000E+000	-7.99858E-004	-3.59960E-001	-1.04090E+000	3.57710E+000	10	...........
	42	0.573333	1.27293E-001	-6.01610E-003	0.00000E+000	-7.65806E-004	-3.59960E-001	-1.03896E+000	3.57710E+000	10	...........
	43	0.586667	1.21660E-001	-6.01422E-003	0.00000E+000	-7.31692E-004	-3.59960E-001	-1.04965E+000	3.57710E+000	10	...........
	44	0.6	1.16006E-001	-6.01705E-003	0.00000E+000	-6.98016E-004	-3.59960E-001	-1.04119E+000	3.57710E+000	10	...........
	45	0.613333	1.10482E-001	-6.01474E-003	0.00000E+000	-6.64518E-004	-3.59960E-001	-1.03884E+000	3.57710E+000	10	...........
	46	0.626667	1.04946E-001	-6.01734E-003	0.00000E+000	-6.31494E-004	-3.59960E-001	-1.04951E+000	3.57710E+000	10	...........
	47	0.64	9.94090E-002	-6.01188E-003	0.00000E+000	-5.97634E-004	-3.59960E-001	-1.04126E+000	3.57710E+000	10	...........
	48	0.653333	9.39350E-002	-6.01692E-003	0.00000E+000	-5.65200E-004	-3.59960E-001	-1.03916E+000	3.57710E+000	10	...........
	49	0.666667	8.85595E-002	-6.01224E-003	0.00000E+000	-5.32441E-004	-3.59960E-001	-1.04978E+000	3.57710E+000	10	...........
	50	0.68	8.31722E-002	-6.01364E-003	0.00000E+000	-5.00167E-004	-3.59960E-001	-1.04132E+000	3.57710E+000	10	...........
	51	0.693333	7.78118E-002	-6.01316E-003	0.00000E+000	-4.67895E-004	-3.59960E-001	-1.03887E+000	3.57710E+000	10	...........
	52	0.706667	7.24778E-002	-6.01519E-003	0.00000E+000	-4.35968E-004	-3.59960E-001	-1.04959E+000	3.57710E+000	10	...........
	53	0.72	6.72300E-002	-6.01849E-003	0.00000E+000	-4.04623E-004	-3.59960E-001	-1.04154E+000	3.57710E+000	10	...........
	54	0.733333	6.19442E-002	-6.01815E-003	0.00000E+000	-3.72789E-004	-3.59960E-001	-1.03950E+000	3.57710E+000	10	...........
	55	0.746667	5.67625E-002	-6.01576E-003	0.00000E+000	-3.41469E-004	-3.59960E-001	-1.04979E+000	3.57710E+000	10	...........
	56	0.76	5.15849E-002	-6.01756E-003	0.00000E+000	-3.10415E-004	-3.59960E-001	-1.04163E+000	3.57710E+000	10	...........
	57	0.773333	4.65077E-002	-6.01081E-003	0.00000E+000	-2.79549E-004	-3.59960E-001	-1.03926E+000	3.57710E+000	10	...........
	58	0.786667	4.14073E-002	-6.01608E-003	0.00000E+000	-2.49109E-004	-3.59960E-001	-1.05037E+000	3.57710E+000	10	...........
	59	0.8	3.63543E-002	-6.01687E-003	0.00000E+000	-2.18739E-004	-3.59960E-001	-1.04187E+000	3.57710E+000	10	...........
	60	0.813333	3.13179E-002	-6.01644E-003	0.00000E+000	-1.88423E-004	-3.59960E-001	-1.03928E+000	3.57710E+000	10	...........
	61	0.826667	2.63714E-002	-6.01197E-003	0.00000E+000	-1.58544E-004	-3.59960E-001	-1.04984E+000	3.57710E+000	10	...........
	62	0.84	2.13969E-002	-6.01267E-003	0.00000E+000	-1.28652E-004	-3.59960E-001	-1.04182E+000	3.57710E+000	10	...........
	63	0.853333	1.64725E-002	-6.01447E-003	0.00000E+000	-9.90736E-005	-3.59960E-001	-1.03925E+000	3.57710E+000	10	...........
	64	0.866667	1.15929E-002	-6.01801E-003	0.00000E+000	-6.97663E-005	-3.59960E-001	-1.04976E+000	3.57710E+000	10	...........
	65	0.88	6.71288E-003	-6.01152E-003	0.00000E+000	-4.03546E-005	-3.59960E-001	-1.04162E+000	3.57710E+000	10	...........
	66	0.893333	1.90091E-003	-6.01591E-003	0.00000E+000	-1.14357E-005	-3.59960E-001	-1.03916E+000	3.57710E+000	10	...........
STARTTIMEOFFSET	QUANT	250.7533	Start Time Offset (s)
