EXPLAIN
TAG	PWR800_DISCHARGE
TITLE	LABEL	PWR Cyclic Charge Discharge (Cell) - Discharge Step	Test &Identifier
DATE	LABEL	22-6-2017	Date
TIME	LABEL	16:08:49	Time
NOTES	NOTES	3	&Notes...
	supercap test cell
	0.6mg
	6M KOH
PSTAT	PSTAT	IFC5000-01520	Potentiostat
CAPACITY	QUANT	1.00000E-003	Capacity (A-hr)
CELLTYPE	SELECTOR	1	&Cell Type
WORKINGCONNECTION	SELECTOR	0	&Working Lead
MAXDISCHARGETIME	VARIABLEANDUNITS	1.00000E+002	s	1.00000E+002	second(s)	Max &Discharge Time
DISCHARGEMODE	MULTIPARAM	0	6.00000E-003	&Discharge Mode	Constant Current	Amp(s)
SAMPLETIME	QUANT	1.00000E-002	Sa&mple Period (s)
DISCHARGESTOPAT1	MULTIPARAM	3	0.00000E+000	Discharge Stop At &1	Voltage < Limit	V
DISCHARGESTOPAT2	MULTIPARAM	0	0.00000E+000	Discharge Stop At &2	None	N/A
AESBHCSELECTOR	TOGGLE	F	Save Both Half Cells
IRCOMP	TOGGLE	F	IR &Measure
EOC	QUANT	0	Open Circuit (V)
SEQUENCER	TOGGLE	TRUE	Run as Sequence
PSTATMODEL	IQUANT	53	Pstat Model
PSTATSECTION	LABEL	IFC5000-01520	Pstat Section
PSTATSERIALNO	LABEL	01520	Pstat Serial Number
CTRLMODE	IQUANT	0	Control Mode
ELECTROMETER	IQUANT	1	RE=0 or CS=1
IESTAB	IQUANT	0	I/E Stability
CASPEED	IQUANT	4	Control Amp Speed
CONVENTION	IQUANT	1	Current Convention
ICHRANGE	IQUANT	2	Ich Range
ICHRANGEMODE	TOGGLE	T	Ich Auto Range
ICHOFFSETENABLE	TOGGLE	F	Ich Offset Enable
ICHOFFSET	QUANT	0	Ich Offset (V)
ICHFILTER	IQUANT	1	Ich Filter
VCHRANGE	IQUANT	2	Vch Range
VCHRANGEMODE	TOGGLE	T	Vch Auto Range
VCHOFFSETENABLE	TOGGLE	F	Vch Offset Enable
VCHOFFSET	QUANT	0	Vch Offset (V)
VCHFILTER	IQUANT	1	Vch Filter
IERANGELOWERLIMIT	IQUANT	9	I/E Range Lower Limit
IERANGEMODE	TOGGLE	F	I/E AutoRange
IERANGE	IQUANT	10	I/E Range
ACHSELECT	IQUANT	1	Ach Select
ACHRANGE	IQUANT	2	Ach Range
ACHOFFSETENABLE	TOGGLE	F	Ach Offset Enable
ACHOFFSET	QUANT	0	Ach Offset (V)
ACHFILTER	IQUANT	1	Ach Filter
CABLEID	IQUANT	14	Cable ID
DCCALDATE	LABEL	20-10-2016	DC Calibration Date
ACCALDATE	LABEL	12/3/2015	AC Calibration Date
FRAMEWORKVERSION	QUANT	7.01	Framework Version
INSTRUMENTVERSION	LABEL	4.00	Instrument Version
CURVE	TABLE	53
	Pt	T	Vf	Im	Vu	Pwr	Sig	Ach	Temp	IERange	Over
	#	s	V	A	V	W	V	V	deg C	#	bits
	0	0.013333	3.81133E-001	-6.01303E-003	0.00000E+000	-2.29176E-003	-3.59960E-001	-1.12826E+000	3.57780E+000	10	...........
	1	0.026667	3.69598E-001	-6.01486E-003	0.00000E+000	-2.22308E-003	-3.59960E-001	-1.12629E+000	3.57780E+000	10	...........
	2	0.04	3.58925E-001	-6.01283E-003	0.00000E+000	-2.15815E-003	-3.59960E-001	-1.13777E+000	3.57780E+000	10	...........
	3	0.053333	3.48799E-001	-6.01443E-003	0.00000E+000	-2.09783E-003	-3.59960E-001	-1.12838E+000	3.57780E+000	10	...........
	4	0.066667	3.39009E-001	-6.01532E-003	0.00000E+000	-2.03925E-003	-3.59960E-001	-1.12681E+000	3.57780E+000	10	...........
	5	0.08	3.29565E-001	-6.01232E-003	0.00000E+000	-1.98145E-003	-3.59960E-001	-1.13796E+000	3.57780E+000	10	...........
	6	0.093333	3.20313E-001	-6.01395E-003	0.00000E+000	-1.92634E-003	-3.59960E-001	-1.12836E+000	3.57780E+000	10	...........
	7	0.106667	3.11263E-001	-6.01841E-003	0.00000E+000	-1.87331E-003	-3.59960E-001	-1.12662E+000	3.57780E+000	10	...........
	8	0.12	3.02350E-001	-6.01981E-003	0.00000E+000	-1.82009E-003	-3.59960E-001	-1.13802E+000	3.57780E+000	10	...........
	9	0.133333	2.93639E-001	-6.01389E-003	0.00000E+000	-1.76591E-003	-3.59960E-001	-1.12851E+000	3.57780E+000	10	...........
	10	0.146667	2.85048E-001	-6.01398E-003	0.00000E+000	-1.71427E-003	-3.59960E-001	-1.12695E+000	3.57780E+000	10	...........
	11	0.16	2.76528E-001	-6.00911E-003	0.00000E+000	-1.66169E-003	-3.59960E-001	-1.13803E+000	3.57780E+000	10	...........
	12	0.173333	2.68115E-001	-6.01069E-003	0.00000E+000	-1.61156E-003	-3.59960E-001	-1.12847E+000	3.57780E+000	10	...........
	13	0.186667	2.59862E-001	-6.01188E-003	0.00000E+000	-1.56226E-003	-3.59960E-001	-1.12738E+000	3.57780E+000	10	...........
	14	0.2	2.51719E-001	-6.02090E-003	0.00000E+000	-1.51557E-003	-3.59960E-001	-1.13854E+000	3.57780E+000	10	...........
	15	0.213333	2.43725E-001	-6.01713E-003	0.00000E+000	-1.46653E-003	-3.59960E-001	-1.12858E+000	3.57780E+000	10	...........
	16	0.226667	2.35843E-001	-6.01567E-003	0.00000E+000	-1.41875E-003	-3.59960E-001	-1.12753E+000	3.57780E+000	10	...........
	17	0.24	2.28026E-001	-6.01422E-003	0.00000E+000	-1.37140E-003	-3.59960E-001	-1.13879E+000	3.57780E+000	10	...........
	18	0.253333	2.20277E-001	-6.01311E-003	0.00000E+000	-1.32455E-003	-3.59960E-001	-1.12909E+000	3.57780E+000	10	...........
	19	0.266667	2.12642E-001	-6.01599E-003	0.00000E+000	-1.27925E-003	-3.59960E-001	-1.12803E+000	3.57780E+000	10	...........
	20	0.28	2.05100E-001	-6.01325E-003	0.00000E+000	-1.23332E-003	-3.59960E-001	-1.13891E+000	3.57780E+000	10	...........
	21	0.293333	1.97676E-001	-6.01722E-003	0.00000E+000	-1.18946E-003	-3.59960E-001	-1.12888E+000	3.57780E+000	10	...........
	22	0.306667	1.90312E-001	-6.01400E-003	0.00000E+000	-1.14454E-003	-3.59960E-001	-1.12822E+000	3.57780E+000	10	...........
	23	0.32	1.83007E-001	-6.01113E-003	0.00000E+000	-1.10008E-003	-3.59960E-001	-1.13960E+000	3.57780E+000	10	...........
	24	0.333333	1.75801E-001	-6.01999E-003	0.00000E+000	-1.05832E-003	-3.59960E-001	-1.12952E+000	3.57780E+000	10	...........
	25	0.346667	1.68655E-001	-6.01272E-003	0.00000E+000	-1.01407E-003	-3.59960E-001	-1.12873E+000	3.57780E+000	10	...........
	26	0.36	1.61607E-001	-6.01590E-003	0.00000E+000	-9.72214E-004	-3.59960E-001	-1.13971E+000	3.57780E+000	10	...........
	27	0.373333	1.54654E-001	-6.01380E-003	0.00000E+000	-9.30058E-004	-3.59960E-001	-1.12968E+000	3.57780E+000	10	...........
	28	0.386667	1.47752E-001	-6.01610E-003	0.00000E+000	-8.88893E-004	-3.59960E-001	-1.12924E+000	3.57780E+000	10	...........
	29	0.4	1.40922E-001	-6.02058E-003	0.00000E+000	-8.48434E-004	-3.59960E-001	-1.14001E+000	3.57780E+000	10	...........
	30	0.413333	1.34190E-001	-6.01174E-003	0.00000E+000	-8.06714E-004	-3.59960E-001	-1.12961E+000	3.57780E+000	10	...........
	31	0.426667	1.27509E-001	-6.01512E-003	0.00000E+000	-7.66982E-004	-3.59960E-001	-1.12916E+000	3.57780E+000	10	...........
	32	0.44	1.20909E-001	-6.01624E-003	0.00000E+000	-7.27419E-004	-3.59960E-001	-1.13984E+000	3.57780E+000	10	...........
	33	0.453333	1.14415E-001	-6.01913E-003	0.00000E+000	-6.88681E-004	-3.59960E-001	-1.12976E+000	3.57780E+000	10	...........
	34	0.466667	1.07950E-001	-6.01584E-003	0.00000E+000	-6.49410E-004	-3.59960E-001	-1.12966E+000	3.57780E+000	10	...........
	35	0.48	1.01603E-001	-6.01514E-003	0.00000E+000	-6.11159E-004	-3.59960E-001	-1.14023E+000	3.57780E+000	10	...........
	36	0.493333	9.52653E-002	-6.01541E-003	0.00000E+000	-5.73060E-004	-3.59960E-001	-1.12984E+000	3.57780E+000	10	...........
	37	0.506667	8.89871E-002	-6.01491E-003	0.00000E+000	-5.35249E-004	-3.59960E-001	-1.12997E+000	3.57780E+000	10	...........
	38	0.52	8.27987E-002	-6.01325E-003	0.00000E+000	-4.97889E-004	-3.59960E-001	-1.14099E+000	3.57780E+000	10	...........
	39	0.533333	7.66490E-002	-6.01192E-003	0.00000E+000	-4.60808E-004	-3.59960E-001	-1.13088E+000	3.57780E+000	10	...........
	40	0.546667	7.05714E-002	-6.01250E-003	0.00000E+000	-4.24311E-004	-3.59960E-001	-1.13086E+000	3.57780E+000	10	...........
	41	0.56	6.45497E-002	-6.01030E-003	0.00000E+000	-3.87963E-004	-3.59960E-001	-1.14122E+000	3.57780E+000	10	...........
	42	0.573333	5.86149E-002	-6.01482E-003	0.00000E+000	-3.52558E-004	-3.59960E-001	-1.13090E+000	3.57780E+000	10	...........
	43	0.586667	5.27218E-002	-6.01542E-003	0.00000E+000	-3.17144E-004	-3.59960E-001	-1.13096E+000	3.57780E+000	10	...........
	44	0.6	4.69054E-002	-6.01089E-003	0.00000E+000	-2.81943E-004	-3.59960E-001	-1.14125E+000	3.57780E+000	10	...........
	45	0.613333	4.11424E-002	-6.01826E-003	0.00000E+000	-2.47606E-004	-3.59960E-001	-1.13059E+000	3.57780E+000	10	...........
	46	0.626667	3.54344E-002	-6.01673E-003	0.00000E+000	-2.13199E-004	-3.59960E-001	-1.13078E+000	3.57776E+000	10	...........
	47	0.64	2.97739E-002	-6.01598E-003	0.00000E+000	-1.79119E-004	-3.59960E-001	-1.14131E+000	3.57770E+000	10	...........
	48	0.653333	2.41546E-002	-6.01442E-003	0.00000E+000	-1.45276E-004	-3.59960E-001	-1.13092E+000	3.57770E+000	10	...........
	49	0.666667	1.86128E-002	-6.01610E-003	0.00000E+000	-1.11976E-004	-3.59960E-001	-1.13140E+000	3.57770E+000	10	...........
	50	0.68	1.30894E-002	-6.01498E-003	0.00000E+000	-7.87324E-005	-3.59960E-001	-1.14120E+000	3.57770E+000	10	...........
	51	0.693333	7.62440E-003	-6.01461E-003	0.00000E+000	-4.58578E-005	-3.59960E-001	-1.13067E+000	3.57770E+000	10	...........
	52	0.706667	2.19888E-003	-6.01412E-003	0.00000E+000	-1.32243E-005	-3.59960E-001	-1.13141E+000	3.57770E+000	10	...........
STARTTIMEOFFSET	QUANT	1363.372	Start Time Offset (s)
