EXPLAIN
TAG	PWR800_DISCHARGE
TITLE	LABEL	PWR Cyclic Charge Discharge (Cell) - Discharge Step	Test &Identifier
DATE	LABEL	22-6-2017	Date
TIME	LABEL	15:38:52	Time
NOTES	NOTES	3	&Notes...
	supercap test cell
	0.6mg
	6M KOH
PSTAT	PSTAT	IFC5000-01520	Potentiostat
CAPACITY	QUANT	1.00000E-003	Capacity (A-hr)
CELLTYPE	SELECTOR	1	&Cell Type
WORKINGCONNECTION	SELECTOR	0	&Working Lead
MAXDISCHARGETIME	VARIABLEANDUNITS	1.00000E+002	s	1.00000E+002	second(s)	Max &Discharge Time
DISCHARGEMODE	MULTIPARAM	0	6.00000E-003	&Discharge Mode	Constant Current	Amp(s)
SAMPLETIME	QUANT	1.00000E-002	Sa&mple Period (s)
DISCHARGESTOPAT1	MULTIPARAM	3	0.00000E+000	Discharge Stop At &1	Voltage < Limit	V
DISCHARGESTOPAT2	MULTIPARAM	0	0.00000E+000	Discharge Stop At &2	None	N/A
AESBHCSELECTOR	TOGGLE	F	Save Both Half Cells
IRCOMP	TOGGLE	F	IR &Measure
EOC	QUANT	0	Open Circuit (V)
SEQUENCER	TOGGLE	TRUE	Run as Sequence
PSTATMODEL	IQUANT	53	Pstat Model
PSTATSECTION	LABEL	IFC5000-01520	Pstat Section
PSTATSERIALNO	LABEL	01520	Pstat Serial Number
CTRLMODE	IQUANT	0	Control Mode
ELECTROMETER	IQUANT	1	RE=0 or CS=1
IESTAB	IQUANT	0	I/E Stability
CASPEED	IQUANT	4	Control Amp Speed
CONVENTION	IQUANT	1	Current Convention
ICHRANGE	IQUANT	2	Ich Range
ICHRANGEMODE	TOGGLE	T	Ich Auto Range
ICHOFFSETENABLE	TOGGLE	F	Ich Offset Enable
ICHOFFSET	QUANT	0	Ich Offset (V)
ICHFILTER	IQUANT	1	Ich Filter
VCHRANGE	IQUANT	2	Vch Range
VCHRANGEMODE	TOGGLE	T	Vch Auto Range
VCHOFFSETENABLE	TOGGLE	F	Vch Offset Enable
VCHOFFSET	QUANT	0	Vch Offset (V)
VCHFILTER	IQUANT	1	Vch Filter
IERANGELOWERLIMIT	IQUANT	9	I/E Range Lower Limit
IERANGEMODE	TOGGLE	F	I/E AutoRange
IERANGE	IQUANT	10	I/E Range
ACHSELECT	IQUANT	1	Ach Select
ACHRANGE	IQUANT	2	Ach Range
ACHOFFSETENABLE	TOGGLE	F	Ach Offset Enable
ACHOFFSET	QUANT	0	Ach Offset (V)
ACHFILTER	IQUANT	1	Ach Filter
CABLEID	IQUANT	14	Cable ID
DCCALDATE	LABEL	20-10-2016	DC Calibration Date
ACCALDATE	LABEL	12/3/2015	AC Calibration Date
FRAMEWORKVERSION	QUANT	7.01	Framework Version
INSTRUMENTVERSION	LABEL	4.00	Instrument Version
CURVE	TABLE	70
	Pt	T	Vf	Im	Vu	Pwr	Sig	Ach	Temp	IERange	Over
	#	s	V	A	V	W	V	V	deg C	#	bits
	0	0.013333	4.30703E-001	-6.01880E-003	0.00000E+000	-2.59232E-003	-3.59960E-001	-1.02687E+000	3.57830E+000	10	...........
	1	0.026667	4.20547E-001	-6.01711E-003	0.00000E+000	-2.53048E-003	-3.59960E-001	-1.02843E+000	3.57803E+000	10	...........
	2	0.04	4.11109E-001	-6.01381E-003	0.00000E+000	-2.47233E-003	-3.59960E-001	-1.01968E+000	3.57720E+000	10	...........
	3	0.053333	4.02147E-001	-6.01706E-003	0.00000E+000	-2.41974E-003	-3.59960E-001	-1.02677E+000	3.57720E+000	10	...........
	4	0.066667	3.93533E-001	-6.01540E-003	0.00000E+000	-2.36726E-003	-3.59960E-001	-1.02835E+000	3.57720E+000	10	...........
	5	0.08	3.85194E-001	-6.01228E-003	0.00000E+000	-2.31589E-003	-3.59960E-001	-1.01968E+000	3.57720E+000	10	...........
	6	0.093333	3.76966E-001	-6.01658E-003	0.00000E+000	-2.26805E-003	-3.59960E-001	-1.02710E+000	3.57720E+000	10	...........
	7	0.106667	3.68992E-001	-6.01625E-003	0.00000E+000	-2.21994E-003	-3.59960E-001	-1.02887E+000	3.57720E+000	10	...........
	8	0.12	3.61158E-001	-6.01536E-003	0.00000E+000	-2.17250E-003	-3.59960E-001	-1.01994E+000	3.57720E+000	10	...........
	9	0.133333	3.53426E-001	-6.01432E-003	0.00000E+000	-2.12561E-003	-3.59960E-001	-1.02708E+000	3.57720E+000	10	...........
	10	0.146667	3.45851E-001	-6.01898E-003	0.00000E+000	-2.08167E-003	-3.59960E-001	-1.02885E+000	3.57720E+000	10	...........
	11	0.16	3.38356E-001	-6.01297E-003	0.00000E+000	-2.03453E-003	-3.59960E-001	-1.02016E+000	3.57720E+000	10	...........
	12	0.173333	3.30984E-001	-6.01346E-003	0.00000E+000	-1.99036E-003	-3.59960E-001	-1.02759E+000	3.57720E+000	10	...........
	13	0.186667	3.23644E-001	-6.01682E-003	0.00000E+000	-1.94731E-003	-3.59960E-001	-1.02902E+000	3.57720E+000	10	...........
	14	0.2	3.16443E-001	-6.01652E-003	0.00000E+000	-1.90389E-003	-3.59960E-001	-1.02019E+000	3.57720E+000	10	...........
	15	0.213333	3.09324E-001	-6.01453E-003	0.00000E+000	-1.86044E-003	-3.59960E-001	-1.02761E+000	3.57720E+000	10	...........
	16	0.226667	3.02290E-001	-6.01801E-003	0.00000E+000	-1.81919E-003	-3.59960E-001	-1.02923E+000	3.57720E+000	10	...........
	17	0.24	2.95255E-001	-6.01747E-003	0.00000E+000	-1.77669E-003	-3.59960E-001	-1.02066E+000	3.57720E+000	10	...........
	18	0.253333	2.88293E-001	-6.01353E-003	0.00000E+000	-1.73366E-003	-3.59960E-001	-1.02793E+000	3.57720E+000	10	...........
	19	0.266667	2.81441E-001	-6.01410E-003	0.00000E+000	-1.69261E-003	-3.59960E-001	-1.02944E+000	3.57720E+000	10	...........
	20	0.28	2.74643E-001	-6.01239E-003	0.00000E+000	-1.65126E-003	-3.59960E-001	-1.02076E+000	3.57720E+000	10	...........
	21	0.293333	2.67947E-001	-6.01564E-003	0.00000E+000	-1.61187E-003	-3.59960E-001	-1.02829E+000	3.57720E+000	10	...........
	22	0.306667	2.61272E-001	-6.01968E-003	0.00000E+000	-1.57277E-003	-3.59960E-001	-1.02961E+000	3.57720E+000	10	...........
	23	0.32	2.54687E-001	-6.01517E-003	0.00000E+000	-1.53199E-003	-3.59960E-001	-1.02091E+000	3.57720E+000	10	...........
	24	0.333333	2.48175E-001	-6.01360E-003	0.00000E+000	-1.49242E-003	-3.59960E-001	-1.02823E+000	3.57720E+000	10	...........
	25	0.346667	2.41685E-001	-6.01959E-003	0.00000E+000	-1.45484E-003	-3.59960E-001	-1.02942E+000	3.57720E+000	10	...........
	26	0.36	2.35288E-001	-6.01696E-003	0.00000E+000	-1.41572E-003	-3.59960E-001	-1.02071E+000	3.57720E+000	10	...........
	27	0.373333	2.28933E-001	-6.01466E-003	0.00000E+000	-1.37695E-003	-3.59960E-001	-1.02805E+000	3.57720E+000	10	...........
	28	0.386667	2.22643E-001	-6.02011E-003	0.00000E+000	-1.34033E-003	-3.59960E-001	-1.02944E+000	3.57720E+000	10	...........
	29	0.4	2.16347E-001	-6.02027E-003	0.00000E+000	-1.30247E-003	-3.59960E-001	-1.02073E+000	3.57720E+000	10	...........
	30	0.413333	2.10170E-001	-6.01542E-003	0.00000E+000	-1.26426E-003	-3.59960E-001	-1.02812E+000	3.57720E+000	10	...........
	31	0.426667	2.03981E-001	-6.01263E-003	0.00000E+000	-1.22646E-003	-3.59960E-001	-1.02958E+000	3.57720E+000	10	...........
	32	0.44	1.97902E-001	-6.01603E-003	0.00000E+000	-1.19058E-003	-3.59960E-001	-1.02113E+000	3.57720E+000	10	...........
	33	0.453333	1.91851E-001	-6.01498E-003	0.00000E+000	-1.15398E-003	-3.59960E-001	-1.02846E+000	3.57720E+000	10	...........
	34	0.466667	1.85805E-001	-6.01077E-003	0.00000E+000	-1.11683E-003	-3.59960E-001	-1.02963E+000	3.57720E+000	10	...........
	35	0.48	1.79819E-001	-6.01711E-003	0.00000E+000	-1.08199E-003	-3.59960E-001	-1.02112E+000	3.57720E+000	10	...........
	36	0.493333	1.73879E-001	-6.01464E-003	0.00000E+000	-1.04582E-003	-3.59960E-001	-1.02860E+000	3.57720E+000	10	...........
	37	0.506667	1.68015E-001	-6.01341E-003	0.00000E+000	-1.01034E-003	-3.59960E-001	-1.03010E+000	3.57720E+000	10	...........
	38	0.52	1.62187E-001	-6.01553E-003	0.00000E+000	-9.75640E-004	-3.59960E-001	-1.02122E+000	3.57720E+000	10	...........
	39	0.533333	1.56383E-001	-6.01670E-003	0.00000E+000	-9.40910E-004	-3.59960E-001	-1.02859E+000	3.57720E+000	10	...........
	40	0.546667	1.50654E-001	-6.01251E-003	0.00000E+000	-9.05806E-004	-3.59960E-001	-1.02992E+000	3.57720E+000	10	...........
	41	0.56	1.44972E-001	-6.01316E-003	0.00000E+000	-8.71738E-004	-3.59960E-001	-1.02155E+000	3.57720E+000	10	...........
	42	0.573333	1.39321E-001	-6.01468E-003	0.00000E+000	-8.37972E-004	-3.59960E-001	-1.02897E+000	3.57720E+000	10	...........
	43	0.586667	1.33682E-001	-6.01494E-003	0.00000E+000	-8.04087E-004	-3.59960E-001	-1.03025E+000	3.57720E+000	10	...........
	44	0.6	1.28112E-001	-6.01461E-003	0.00000E+000	-7.70545E-004	-3.59960E-001	-1.02154E+000	3.57720E+000	10	...........
	45	0.613333	1.22599E-001	-6.01399E-003	0.00000E+000	-7.37311E-004	-3.59960E-001	-1.02914E+000	3.57720E+000	10	...........
	46	0.626667	1.17111E-001	-6.01460E-003	0.00000E+000	-7.04378E-004	-3.59960E-001	-1.03041E+000	3.57720E+000	10	...........
	47	0.64	1.11649E-001	-6.01658E-003	0.00000E+000	-6.71744E-004	-3.59960E-001	-1.02164E+000	3.57720E+000	10	...........
	48	0.653333	1.06213E-001	-6.01456E-003	0.00000E+000	-6.38824E-004	-3.59960E-001	-1.02900E+000	3.57720E+000	10	...........
	49	0.666667	1.00810E-001	-6.01662E-003	0.00000E+000	-6.06536E-004	-3.59960E-001	-1.02981E+000	3.57720E+000	10	...........
	50	0.68	9.54662E-002	-6.01555E-003	0.00000E+000	-5.74281E-004	-3.59960E-001	-1.02117E+000	3.57720E+000	10	...........
	51	0.693333	9.01399E-002	-6.01609E-003	0.00000E+000	-5.42289E-004	-3.59960E-001	-1.02893E+000	3.57720E+000	10	...........
	52	0.706667	8.48435E-002	-6.01388E-003	0.00000E+000	-5.10239E-004	-3.59960E-001	-1.02999E+000	3.57720E+000	10	...........
	53	0.72	7.95794E-002	-6.01719E-003	0.00000E+000	-4.78844E-004	-3.59960E-001	-1.02145E+000	3.57720E+000	10	...........
	54	0.733333	7.43915E-002	-6.01561E-003	0.00000E+000	-4.47510E-004	-3.59960E-001	-1.02881E+000	3.57720E+000	10	...........
	55	0.746667	6.92140E-002	-6.01288E-003	0.00000E+000	-4.16175E-004	-3.59960E-001	-1.03002E+000	3.57720E+000	10	...........
	56	0.76	6.40987E-002	-6.01802E-003	0.00000E+000	-3.85747E-004	-3.59960E-001	-1.02165E+000	3.57720E+000	10	...........
	57	0.773333	5.89936E-002	-6.01610E-003	0.00000E+000	-3.54911E-004	-3.59960E-001	-1.02905E+000	3.57720E+000	10	...........
	58	0.786667	5.39197E-002	-6.01965E-003	0.00000E+000	-3.24577E-004	-3.59960E-001	-1.02988E+000	3.57720E+000	10	...........
	59	0.8	4.88849E-002	-6.01757E-003	0.00000E+000	-2.94168E-004	-3.59960E-001	-1.02143E+000	3.57720E+000	10	...........
	60	0.813333	4.39268E-002	-6.01592E-003	0.00000E+000	-2.64260E-004	-3.59960E-001	-1.02906E+000	3.57720E+000	10	...........
	61	0.826667	3.89809E-002	-6.01722E-003	0.00000E+000	-2.34556E-004	-3.59960E-001	-1.03009E+000	3.57720E+000	10	...........
	62	0.84	3.40180E-002	-6.01413E-003	0.00000E+000	-2.04589E-004	-3.59960E-001	-1.02181E+000	3.57720E+000	10	...........
	63	0.853333	2.90821E-002	-6.01563E-003	0.00000E+000	-1.74947E-004	-3.59960E-001	-1.02917E+000	3.57720E+000	10	...........
	64	0.866667	2.41948E-002	-6.01357E-003	0.00000E+000	-1.45497E-004	-3.59960E-001	-1.03015E+000	3.57720E+000	10	...........
	65	0.88	1.93295E-002	-6.01045E-003	0.00000E+000	-1.16179E-004	-3.59960E-001	-1.02171E+000	3.57720E+000	10	...........
	66	0.893333	1.45101E-002	-6.01301E-003	0.00000E+000	-8.72495E-005	-3.59960E-001	-1.02943E+000	3.57720E+000	10	...........
	67	0.906667	9.68110E-003	-6.01493E-003	0.00000E+000	-5.82312E-005	-3.59960E-001	-1.03043E+000	3.57720E+000	10	...........
	68	0.92	4.92038E-003	-6.01589E-003	0.00000E+000	-2.96005E-005	-3.59960E-001	-1.02226E+000	3.57720E+000	10	...........
	69	0.928333	1.05778E-003	-6.01552E-003	0.00000E+000	-6.36312E-006	-3.59960E-001	-1.03727E+000	3.57720E+000	10	...........
STARTTIMEOFFSET	QUANT	168.2833	Start Time Offset (s)
