EXPLAIN
TAG	PWR800_DISCHARGE
TITLE	LABEL	PWR Cyclic Charge Discharge (Cell) - Discharge Step	Test &Identifier
DATE	LABEL	22-6-2017	Date
TIME	LABEL	15:58:26	Time
NOTES	NOTES	3	&Notes...
	supercap test cell
	0.6mg
	6M KOH
PSTAT	PSTAT	IFC5000-01520	Potentiostat
CAPACITY	QUANT	1.00000E-003	Capacity (A-hr)
CELLTYPE	SELECTOR	1	&Cell Type
WORKINGCONNECTION	SELECTOR	0	&Working Lead
MAXDISCHARGETIME	VARIABLEANDUNITS	1.00000E+002	s	1.00000E+002	second(s)	Max &Discharge Time
DISCHARGEMODE	MULTIPARAM	0	6.00000E-003	&Discharge Mode	Constant Current	Amp(s)
SAMPLETIME	QUANT	1.00000E-002	Sa&mple Period (s)
DISCHARGESTOPAT1	MULTIPARAM	3	0.00000E+000	Discharge Stop At &1	Voltage < Limit	V
DISCHARGESTOPAT2	MULTIPARAM	0	0.00000E+000	Discharge Stop At &2	None	N/A
AESBHCSELECTOR	TOGGLE	F	Save Both Half Cells
IRCOMP	TOGGLE	F	IR &Measure
EOC	QUANT	0	Open Circuit (V)
SEQUENCER	TOGGLE	TRUE	Run as Sequence
PSTATMODEL	IQUANT	53	Pstat Model
PSTATSECTION	LABEL	IFC5000-01520	Pstat Section
PSTATSERIALNO	LABEL	01520	Pstat Serial Number
CTRLMODE	IQUANT	0	Control Mode
ELECTROMETER	IQUANT	1	RE=0 or CS=1
IESTAB	IQUANT	0	I/E Stability
CASPEED	IQUANT	4	Control Amp Speed
CONVENTION	IQUANT	1	Current Convention
ICHRANGE	IQUANT	2	Ich Range
ICHRANGEMODE	TOGGLE	T	Ich Auto Range
ICHOFFSETENABLE	TOGGLE	F	Ich Offset Enable
ICHOFFSET	QUANT	0	Ich Offset (V)
ICHFILTER	IQUANT	1	Ich Filter
VCHRANGE	IQUANT	2	Vch Range
VCHRANGEMODE	TOGGLE	T	Vch Auto Range
VCHOFFSETENABLE	TOGGLE	F	Vch Offset Enable
VCHOFFSET	QUANT	0	Vch Offset (V)
VCHFILTER	IQUANT	1	Vch Filter
IERANGELOWERLIMIT	IQUANT	9	I/E Range Lower Limit
IERANGEMODE	TOGGLE	F	I/E AutoRange
IERANGE	IQUANT	10	I/E Range
ACHSELECT	IQUANT	1	Ach Select
ACHRANGE	IQUANT	2	Ach Range
ACHOFFSETENABLE	TOGGLE	F	Ach Offset Enable
ACHOFFSET	QUANT	0	Ach Offset (V)
ACHFILTER	IQUANT	1	Ach Filter
CABLEID	IQUANT	14	Cable ID
DCCALDATE	LABEL	20-10-2016	DC Calibration Date
ACCALDATE	LABEL	12/3/2015	AC Calibration Date
FRAMEWORKVERSION	QUANT	7.01	Framework Version
INSTRUMENTVERSION	LABEL	4.00	Instrument Version
CURVE	TABLE	57
	Pt	T	Vf	Im	Vu	Pwr	Sig	Ach	Temp	IERange	Over
	#	s	V	A	V	W	V	V	deg C	#	bits
	0	0.013333	3.91074E-001	-6.01789E-003	0.00000E+000	-2.35344E-003	-3.59960E-001	-1.11048E+000	3.57720E+000	10	...........
	1	0.026667	3.79893E-001	-6.01878E-003	0.00000E+000	-2.28649E-003	-3.59960E-001	-1.11942E+000	3.57720E+000	10	...........
	2	0.04	3.69497E-001	-6.01080E-003	0.00000E+000	-2.22097E-003	-3.59960E-001	-1.10901E+000	3.57720E+000	10	...........
	3	0.053333	3.59691E-001	-6.00761E-003	0.00000E+000	-2.16088E-003	-3.59960E-001	-1.11058E+000	3.57720E+000	10	...........
	4	0.066667	3.50223E-001	-6.01103E-003	0.00000E+000	-2.10520E-003	-3.59960E-001	-1.11938E+000	3.57720E+000	10	...........
	5	0.08	3.40999E-001	-6.01371E-003	0.00000E+000	-2.05067E-003	-3.59960E-001	-1.10885E+000	3.57720E+000	10	...........
	6	0.093333	3.32033E-001	-6.01414E-003	0.00000E+000	-1.99690E-003	-3.59960E-001	-1.11058E+000	3.57720E+000	10	...........
	7	0.106667	3.23231E-001	-6.01563E-003	0.00000E+000	-1.94444E-003	-3.59960E-001	-1.11970E+000	3.57720E+000	10	...........
	8	0.12	3.14603E-001	-6.01772E-003	0.00000E+000	-1.89319E-003	-3.59960E-001	-1.10921E+000	3.57720E+000	10	...........
	9	0.133333	3.06136E-001	-6.01467E-003	0.00000E+000	-1.84131E-003	-3.59960E-001	-1.11077E+000	3.57720E+000	10	...........
	10	0.146667	2.97717E-001	-6.01464E-003	0.00000E+000	-1.79066E-003	-3.59960E-001	-1.11953E+000	3.57720E+000	10	...........
	11	0.16	2.89463E-001	-6.01483E-003	0.00000E+000	-1.74107E-003	-3.59960E-001	-1.10918E+000	3.57720E+000	10	...........
	12	0.173333	2.81347E-001	-6.01699E-003	0.00000E+000	-1.69286E-003	-3.59960E-001	-1.11129E+000	3.57720E+000	10	...........
	13	0.186667	2.73306E-001	-6.01615E-003	0.00000E+000	-1.64425E-003	-3.59960E-001	-1.11997E+000	3.57720E+000	10	...........
	14	0.2	2.65403E-001	-6.01428E-003	0.00000E+000	-1.59621E-003	-3.59960E-001	-1.10936E+000	3.57720E+000	10	...........
	15	0.213333	2.57589E-001	-6.01319E-003	0.00000E+000	-1.54893E-003	-3.59960E-001	-1.11112E+000	3.57720E+000	10	...........
	16	0.226667	2.49826E-001	-6.01900E-003	0.00000E+000	-1.50370E-003	-3.59960E-001	-1.11992E+000	3.57720E+000	10	...........
	17	0.24	2.42188E-001	-6.01625E-003	0.00000E+000	-1.45707E-003	-3.59960E-001	-1.10957E+000	3.57715E+000	10	...........
	18	0.253333	2.34668E-001	-6.00591E-003	0.00000E+000	-1.40940E-003	-3.59960E-001	-1.11149E+000	3.57700E+000	10	...........
	19	0.266667	2.27205E-001	-6.01813E-003	0.00000E+000	-1.36735E-003	-3.59960E-001	-1.12002E+000	3.57700E+000	10	...........
	20	0.28	2.19848E-001	-6.01653E-003	0.00000E+000	-1.32272E-003	-3.59960E-001	-1.10942E+000	3.57700E+000	10	...........
	21	0.293333	2.12570E-001	-6.01375E-003	0.00000E+000	-1.27835E-003	-3.59960E-001	-1.11161E+000	3.57700E+000	10	...........
	22	0.306667	2.05350E-001	-6.01346E-003	0.00000E+000	-1.23486E-003	-3.59960E-001	-1.12026E+000	3.57700E+000	10	...........
	23	0.32	1.98215E-001	-6.01631E-003	0.00000E+000	-1.19252E-003	-3.59960E-001	-1.10951E+000	3.57700E+000	10	...........
	24	0.333333	1.91162E-001	-6.01646E-003	0.00000E+000	-1.15012E-003	-3.59960E-001	-1.11150E+000	3.57700E+000	10	...........
	25	0.346667	1.84201E-001	-6.01595E-003	0.00000E+000	-1.10814E-003	-3.59960E-001	-1.11993E+000	3.57700E+000	10	...........
	26	0.36	1.77278E-001	-6.01840E-003	0.00000E+000	-1.06693E-003	-3.59960E-001	-1.10902E+000	3.57700E+000	10	...........
	27	0.373333	1.70482E-001	-6.01954E-003	0.00000E+000	-1.02622E-003	-3.59960E-001	-1.11147E+000	3.57700E+000	10	...........
	28	0.386667	1.63756E-001	-6.01654E-003	0.00000E+000	-9.85246E-004	-3.59960E-001	-1.11983E+000	3.57700E+000	10	...........
	29	0.4	1.57061E-001	-6.01364E-003	0.00000E+000	-9.44509E-004	-3.59960E-001	-1.10927E+000	3.57700E+000	10	...........
	30	0.413333	1.50450E-001	-6.01653E-003	0.00000E+000	-9.05189E-004	-3.59960E-001	-1.11116E+000	3.57700E+000	10	...........
	31	0.426667	1.43919E-001	-6.01705E-003	0.00000E+000	-8.65965E-004	-3.59960E-001	-1.11983E+000	3.57700E+000	10	...........
	32	0.44	1.37423E-001	-6.01143E-003	0.00000E+000	-8.26108E-004	-3.59960E-001	-1.10950E+000	3.57700E+000	10	...........
	33	0.453333	1.30991E-001	-6.01123E-003	0.00000E+000	-7.87416E-004	-3.59960E-001	-1.11150E+000	3.57700E+000	10	...........
	34	0.466667	1.24596E-001	-6.01747E-003	0.00000E+000	-7.49750E-004	-3.59960E-001	-1.11969E+000	3.57700E+000	10	...........
	35	0.48	1.18329E-001	-6.01501E-003	0.00000E+000	-7.11747E-004	-3.59960E-001	-1.10909E+000	3.57700E+000	10	...........
	36	0.493333	1.12075E-001	-6.01644E-003	0.00000E+000	-6.74290E-004	-3.59960E-001	-1.11134E+000	3.57700E+000	10	...........
	37	0.506667	1.05889E-001	-6.01498E-003	0.00000E+000	-6.36923E-004	-3.59960E-001	-1.12024E+000	3.57700E+000	10	...........
	38	0.52	9.98125E-002	-6.01607E-003	0.00000E+000	-6.00479E-004	-3.59960E-001	-1.10949E+000	3.57700E+000	10	...........
	39	0.533333	9.37690E-002	-6.01468E-003	0.00000E+000	-5.63991E-004	-3.59960E-001	-1.11151E+000	3.57700E+000	10	...........
	40	0.546667	8.77896E-002	-6.01765E-003	0.00000E+000	-5.28288E-004	-3.59960E-001	-1.11986E+000	3.57700E+000	10	...........
	41	0.56	8.18184E-002	-6.01489E-003	0.00000E+000	-4.92128E-004	-3.59960E-001	-1.10940E+000	3.57700E+000	10	...........
	42	0.573333	7.59389E-002	-6.01355E-003	0.00000E+000	-4.56662E-004	-3.59960E-001	-1.11175E+000	3.57700E+000	10	...........
	43	0.586667	7.00880E-002	-6.01247E-003	0.00000E+000	-4.21402E-004	-3.59960E-001	-1.12008E+000	3.57700E+000	10	...........
	44	0.6	6.43239E-002	-6.01491E-003	0.00000E+000	-3.86903E-004	-3.59960E-001	-1.10946E+000	3.57700E+000	10	...........
	45	0.613333	5.85843E-002	-6.02138E-003	0.00000E+000	-3.52758E-004	-3.59960E-001	-1.11177E+000	3.57700E+000	10	...........
	46	0.626667	5.29392E-002	-6.01629E-003	0.00000E+000	-3.18497E-004	-3.59960E-001	-1.11995E+000	3.57700E+000	10	...........
	47	0.64	4.73128E-002	-6.01692E-003	0.00000E+000	-2.84677E-004	-3.59960E-001	-1.10972E+000	3.57700E+000	10	...........
	48	0.653333	4.17281E-002	-6.01703E-003	0.00000E+000	-2.51079E-004	-3.59960E-001	-1.11190E+000	3.57700E+000	10	...........
	49	0.666667	3.61986E-002	-6.01518E-003	0.00000E+000	-2.17741E-004	-3.59960E-001	-1.11981E+000	3.57700E+000	10	...........
	50	0.68	3.07178E-002	-6.01326E-003	0.00000E+000	-1.84714E-004	-3.59960E-001	-1.10910E+000	3.57700E+000	10	...........
	51	0.693333	2.52653E-002	-6.01597E-003	0.00000E+000	-1.51995E-004	-3.59960E-001	-1.11157E+000	3.57700E+000	10	...........
	52	0.706667	1.99087E-002	-6.01265E-003	0.00000E+000	-1.19704E-004	-3.59960E-001	-1.11976E+000	3.57700E+000	10	...........
	53	0.72	1.45408E-002	-6.01811E-003	0.00000E+000	-8.75079E-005	-3.59960E-001	-1.10914E+000	3.57700E+000	10	...........
	54	0.733333	9.23528E-003	-6.01410E-003	0.00000E+000	-5.55419E-005	-3.59960E-001	-1.11161E+000	3.57700E+000	10	...........
	55	0.746667	4.00517E-003	-6.01926E-003	0.00000E+000	-2.41082E-005	-3.59960E-001	-1.11927E+000	3.57700E+000	10	...........
	56	0.751667	4.17478E-004	-6.01879E-003	0.00000E+000	-2.51272E-006	-3.59960E-001	-1.10238E+000	3.57700E+000	10	...........
STARTTIMEOFFSET	QUANT	958.985	Start Time Offset (s)
