EXPLAIN
TAG	PWR800_DISCHARGE
TITLE	LABEL	PWR Cyclic Charge Discharge (Cell) - Discharge Step	Test &Identifier
DATE	LABEL	22-6-2017	Date
TIME	LABEL	15:55:07	Time
NOTES	NOTES	3	&Notes...
	supercap test cell
	0.6mg
	6M KOH
PSTAT	PSTAT	IFC5000-01520	Potentiostat
CAPACITY	QUANT	1.00000E-003	Capacity (A-hr)
CELLTYPE	SELECTOR	1	&Cell Type
WORKINGCONNECTION	SELECTOR	0	&Working Lead
MAXDISCHARGETIME	VARIABLEANDUNITS	1.00000E+002	s	1.00000E+002	second(s)	Max &Discharge Time
DISCHARGEMODE	MULTIPARAM	0	6.00000E-003	&Discharge Mode	Constant Current	Amp(s)
SAMPLETIME	QUANT	1.00000E-002	Sa&mple Period (s)
DISCHARGESTOPAT1	MULTIPARAM	3	0.00000E+000	Discharge Stop At &1	Voltage < Limit	V
DISCHARGESTOPAT2	MULTIPARAM	0	0.00000E+000	Discharge Stop At &2	None	N/A
AESBHCSELECTOR	TOGGLE	F	Save Both Half Cells
IRCOMP	TOGGLE	F	IR &Measure
EOC	QUANT	0	Open Circuit (V)
SEQUENCER	TOGGLE	TRUE	Run as Sequence
PSTATMODEL	IQUANT	53	Pstat Model
PSTATSECTION	LABEL	IFC5000-01520	Pstat Section
PSTATSERIALNO	LABEL	01520	Pstat Serial Number
CTRLMODE	IQUANT	0	Control Mode
ELECTROMETER	IQUANT	1	RE=0 or CS=1
IESTAB	IQUANT	0	I/E Stability
CASPEED	IQUANT	4	Control Amp Speed
CONVENTION	IQUANT	1	Current Convention
ICHRANGE	IQUANT	2	Ich Range
ICHRANGEMODE	TOGGLE	T	Ich Auto Range
ICHOFFSETENABLE	TOGGLE	F	Ich Offset Enable
ICHOFFSET	QUANT	0	Ich Offset (V)
ICHFILTER	IQUANT	1	Ich Filter
VCHRANGE	IQUANT	2	Vch Range
VCHRANGEMODE	TOGGLE	T	Vch Auto Range
VCHOFFSETENABLE	TOGGLE	F	Vch Offset Enable
VCHOFFSET	QUANT	0	Vch Offset (V)
VCHFILTER	IQUANT	1	Vch Filter
IERANGELOWERLIMIT	IQUANT	9	I/E Range Lower Limit
IERANGEMODE	TOGGLE	F	I/E AutoRange
IERANGE	IQUANT	10	I/E Range
ACHSELECT	IQUANT	1	Ach Select
ACHRANGE	IQUANT	2	Ach Range
ACHOFFSETENABLE	TOGGLE	F	Ach Offset Enable
ACHOFFSET	QUANT	0	Ach Offset (V)
ACHFILTER	IQUANT	1	Ach Filter
CABLEID	IQUANT	14	Cable ID
DCCALDATE	LABEL	20-10-2016	DC Calibration Date
ACCALDATE	LABEL	12/3/2015	AC Calibration Date
FRAMEWORKVERSION	QUANT	7.01	Framework Version
INSTRUMENTVERSION	LABEL	4.00	Instrument Version
CURVE	TABLE	58
	Pt	T	Vf	Im	Vu	Pwr	Sig	Ach	Temp	IERange	Over
	#	s	V	A	V	W	V	V	deg C	#	bits
	0	0.013333	3.96081E-001	-6.01181E-003	0.00000E+000	-2.38116E-003	-3.59960E-001	-1.11190E+000	3.57660E+000	10	...........
	1	0.026667	3.84976E-001	-6.02184E-003	0.00000E+000	-2.31826E-003	-3.59960E-001	-1.10659E+000	3.57660E+000	10	...........
	2	0.04	3.74684E-001	-6.01456E-003	0.00000E+000	-2.25356E-003	-3.59960E-001	-1.11507E+000	3.57660E+000	10	...........
	3	0.053333	3.64897E-001	-6.01416E-003	0.00000E+000	-2.19455E-003	-3.59960E-001	-1.11231E+000	3.57660E+000	10	...........
	4	0.066667	3.55493E-001	-6.01034E-003	0.00000E+000	-2.13664E-003	-3.59960E-001	-1.10689E+000	3.57660E+000	10	...........
	5	0.08	3.46369E-001	-6.01539E-003	0.00000E+000	-2.08354E-003	-3.59960E-001	-1.11559E+000	3.57660E+000	10	...........
	6	0.093333	3.37486E-001	-6.01811E-003	0.00000E+000	-2.03103E-003	-3.59960E-001	-1.11257E+000	3.57660E+000	10	...........
	7	0.106667	3.28764E-001	-6.01696E-003	0.00000E+000	-1.97816E-003	-3.59960E-001	-1.10715E+000	3.57660E+000	10	...........
	8	0.12	3.20214E-001	-6.01509E-003	0.00000E+000	-1.92612E-003	-3.59960E-001	-1.11606E+000	3.57660E+000	10	...........
	9	0.133333	3.11818E-001	-6.01466E-003	0.00000E+000	-1.87548E-003	-3.59960E-001	-1.11250E+000	3.57645E+000	10	...........
	10	0.146667	3.03510E-001	-6.01122E-003	0.00000E+000	-1.82447E-003	-3.59960E-001	-1.10700E+000	3.57640E+000	10	...........
	11	0.16	2.95345E-001	-6.01434E-003	0.00000E+000	-1.77630E-003	-3.59960E-001	-1.11617E+000	3.57640E+000	10	...........
	12	0.173333	2.87256E-001	-6.01752E-003	0.00000E+000	-1.72857E-003	-3.59960E-001	-1.11223E+000	3.57640E+000	10	...........
	13	0.186667	2.79315E-001	-6.00976E-003	0.00000E+000	-1.67862E-003	-3.59960E-001	-1.10690E+000	3.57640E+000	10	...........
	14	0.2	2.71487E-001	-6.01240E-003	0.00000E+000	-1.63229E-003	-3.59960E-001	-1.11587E+000	3.57640E+000	10	...........
	15	0.213333	2.63725E-001	-6.01334E-003	0.00000E+000	-1.58586E-003	-3.59960E-001	-1.11214E+000	3.57640E+000	10	...........
	16	0.226667	2.56067E-001	-6.01700E-003	0.00000E+000	-1.54076E-003	-3.59960E-001	-1.10711E+000	3.57640E+000	10	...........
	17	0.24	2.48503E-001	-6.01666E-003	0.00000E+000	-1.49516E-003	-3.59960E-001	-1.11631E+000	3.57640E+000	10	...........
	18	0.253333	2.41009E-001	-6.01634E-003	0.00000E+000	-1.44999E-003	-3.59960E-001	-1.11216E+000	3.57640E+000	10	...........
	19	0.266667	2.33636E-001	-6.01366E-003	0.00000E+000	-1.40501E-003	-3.59960E-001	-1.10705E+000	3.57640E+000	10	...........
	20	0.28	2.26351E-001	-6.01335E-003	0.00000E+000	-1.36112E-003	-3.59960E-001	-1.11644E+000	3.57640E+000	10	...........
	21	0.293333	2.19103E-001	-6.01323E-003	0.00000E+000	-1.31752E-003	-3.59960E-001	-1.11206E+000	3.57640E+000	10	...........
	22	0.306667	2.11921E-001	-6.01601E-003	0.00000E+000	-1.27492E-003	-3.59960E-001	-1.10703E+000	3.57640E+000	10	...........
	23	0.32	2.04870E-001	-6.01313E-003	0.00000E+000	-1.23191E-003	-3.59960E-001	-1.11658E+000	3.57640E+000	10	...........
	24	0.333333	1.97880E-001	-6.01040E-003	0.00000E+000	-1.18934E-003	-3.59960E-001	-1.11191E+000	3.57640E+000	10	...........
	25	0.346667	1.90947E-001	-6.01508E-003	0.00000E+000	-1.14856E-003	-3.59960E-001	-1.10723E+000	3.57640E+000	10	...........
	26	0.36	1.84100E-001	-6.01415E-003	0.00000E+000	-1.10720E-003	-3.59960E-001	-1.11682E+000	3.57640E+000	10	...........
	27	0.373333	1.77286E-001	-6.01518E-003	0.00000E+000	-1.06641E-003	-3.59960E-001	-1.11199E+000	3.57640E+000	10	...........
	28	0.386667	1.70610E-001	-6.01764E-003	0.00000E+000	-1.02667E-003	-3.59960E-001	-1.10740E+000	3.57640E+000	10	...........
	29	0.4	1.63976E-001	-6.01363E-003	0.00000E+000	-9.86088E-004	-3.59960E-001	-1.11708E+000	3.57640E+000	10	...........
	30	0.413333	1.57361E-001	-6.01365E-003	0.00000E+000	-9.46316E-004	-3.59960E-001	-1.11190E+000	3.57640E+000	10	...........
	31	0.426667	1.50872E-001	-6.01684E-003	0.00000E+000	-9.07775E-004	-3.59960E-001	-1.10751E+000	3.57640E+000	10	...........
	32	0.44	1.44423E-001	-6.01506E-003	0.00000E+000	-8.68715E-004	-3.59960E-001	-1.11738E+000	3.57640E+000	10	...........
	33	0.453333	1.38029E-001	-6.01541E-003	0.00000E+000	-8.30298E-004	-3.59960E-001	-1.11194E+000	3.57640E+000	10	...........
	34	0.466667	1.31687E-001	-6.01995E-003	0.00000E+000	-7.92748E-004	-3.59960E-001	-1.10713E+000	3.57640E+000	10	...........
	35	0.48	1.25425E-001	-6.01171E-003	0.00000E+000	-7.54019E-004	-3.59960E-001	-1.11732E+000	3.57640E+000	10	...........
	36	0.493333	1.19223E-001	-6.01384E-003	0.00000E+000	-7.16985E-004	-3.59960E-001	-1.11154E+000	3.57640E+000	10	...........
	37	0.506667	1.13113E-001	-6.01564E-003	0.00000E+000	-6.80449E-004	-3.59960E-001	-1.10706E+000	3.57640E+000	10	...........
	38	0.52	1.07028E-001	-6.01733E-003	0.00000E+000	-6.44022E-004	-3.59960E-001	-1.11695E+000	3.57640E+000	10	...........
	39	0.533333	1.00999E-001	-6.01719E-003	0.00000E+000	-6.07731E-004	-3.59960E-001	-1.11129E+000	3.57640E+000	10	...........
	40	0.546667	9.50056E-002	-6.01405E-003	0.00000E+000	-5.71368E-004	-3.59960E-001	-1.10680E+000	3.57640E+000	10	...........
	41	0.56	8.90785E-002	-6.01401E-003	0.00000E+000	-5.35719E-004	-3.59960E-001	-1.11696E+000	3.57640E+000	10	...........
	42	0.573333	8.31478E-002	-6.01293E-003	0.00000E+000	-4.99962E-004	-3.59960E-001	-1.11108E+000	3.57640E+000	10	...........
	43	0.586667	7.73772E-002	-6.01387E-003	0.00000E+000	-4.65337E-004	-3.59960E-001	-1.10693E+000	3.57640E+000	10	...........
	44	0.6	7.16363E-002	-6.01054E-003	0.00000E+000	-4.30573E-004	-3.59960E-001	-1.11679E+000	3.57640E+000	10	...........
	45	0.613333	6.58970E-002	-6.01680E-003	0.00000E+000	-3.96489E-004	-3.59960E-001	-1.11059E+000	3.57640E+000	10	...........
	46	0.626667	6.02137E-002	-6.01317E-003	0.00000E+000	-3.62075E-004	-3.59960E-001	-1.10678E+000	3.57640E+000	10	...........
	47	0.64	5.46432E-002	-6.01328E-003	0.00000E+000	-3.28585E-004	-3.59960E-001	-1.11706E+000	3.57640E+000	10	...........
	48	0.653333	4.90839E-002	-6.01691E-003	0.00000E+000	-2.95333E-004	-3.59960E-001	-1.11061E+000	3.57640E+000	10	...........
	49	0.666667	4.35580E-002	-6.01580E-003	0.00000E+000	-2.62036E-004	-3.59960E-001	-1.10654E+000	3.57640E+000	10	...........
	50	0.68	3.80727E-002	-6.01471E-003	0.00000E+000	-2.28996E-004	-3.59960E-001	-1.11673E+000	3.57640E+000	10	...........
	51	0.693333	3.26691E-002	-6.01588E-003	0.00000E+000	-1.96533E-004	-3.59960E-001	-1.11047E+000	3.57640E+000	10	...........
	52	0.706667	2.73202E-002	-6.01779E-003	0.00000E+000	-1.64407E-004	-3.59960E-001	-1.10656E+000	3.57640E+000	10	...........
	53	0.72	2.19692E-002	-6.01513E-003	0.00000E+000	-1.32148E-004	-3.59960E-001	-1.11689E+000	3.57640E+000	10	...........
	54	0.733333	1.66747E-002	-6.01377E-003	0.00000E+000	-1.00278E-004	-3.59960E-001	-1.11014E+000	3.57640E+000	10	...........
	55	0.746667	1.14086E-002	-6.01598E-003	0.00000E+000	-6.86337E-005	-3.59960E-001	-1.10620E+000	3.57640E+000	10	...........
	56	0.76	6.21786E-003	-6.01579E-003	0.00000E+000	-3.74053E-005	-3.59960E-001	-1.11698E+000	3.57640E+000	10	...........
	57	0.771667	1.34695E-003	-6.01485E-003	0.00000E+000	-8.10167E-006	-3.59960E-001	-1.10827E+000	3.57640E+000	10	...........
STARTTIMEOFFSET	QUANT	827.3702	Start Time Offset (s)
