EXPLAIN
TAG	PWR800_DISCHARGE
TITLE	LABEL	PWR Cyclic Charge Discharge (Cell) - Discharge Step	Test &Identifier
DATE	LABEL	22-6-2017	Date
TIME	LABEL	15:46:38	Time
NOTES	NOTES	3	&Notes...
	supercap test cell
	0.6mg
	6M KOH
PSTAT	PSTAT	IFC5000-01520	Potentiostat
CAPACITY	QUANT	1.00000E-003	Capacity (A-hr)
CELLTYPE	SELECTOR	1	&Cell Type
WORKINGCONNECTION	SELECTOR	0	&Working Lead
MAXDISCHARGETIME	VARIABLEANDUNITS	1.00000E+002	s	1.00000E+002	second(s)	Max &Discharge Time
DISCHARGEMODE	MULTIPARAM	0	6.00000E-003	&Discharge Mode	Constant Current	Amp(s)
SAMPLETIME	QUANT	1.00000E-002	Sa&mple Period (s)
DISCHARGESTOPAT1	MULTIPARAM	3	0.00000E+000	Discharge Stop At &1	Voltage < Limit	V
DISCHARGESTOPAT2	MULTIPARAM	0	0.00000E+000	Discharge Stop At &2	None	N/A
AESBHCSELECTOR	TOGGLE	F	Save Both Half Cells
IRCOMP	TOGGLE	F	IR &Measure
EOC	QUANT	0	Open Circuit (V)
SEQUENCER	TOGGLE	TRUE	Run as Sequence
PSTATMODEL	IQUANT	53	Pstat Model
PSTATSECTION	LABEL	IFC5000-01520	Pstat Section
PSTATSERIALNO	LABEL	01520	Pstat Serial Number
CTRLMODE	IQUANT	0	Control Mode
ELECTROMETER	IQUANT	1	RE=0 or CS=1
IESTAB	IQUANT	0	I/E Stability
CASPEED	IQUANT	4	Control Amp Speed
CONVENTION	IQUANT	1	Current Convention
ICHRANGE	IQUANT	2	Ich Range
ICHRANGEMODE	TOGGLE	T	Ich Auto Range
ICHOFFSETENABLE	TOGGLE	F	Ich Offset Enable
ICHOFFSET	QUANT	0	Ich Offset (V)
ICHFILTER	IQUANT	1	Ich Filter
VCHRANGE	IQUANT	2	Vch Range
VCHRANGEMODE	TOGGLE	T	Vch Auto Range
VCHOFFSETENABLE	TOGGLE	F	Vch Offset Enable
VCHOFFSET	QUANT	0	Vch Offset (V)
VCHFILTER	IQUANT	1	Vch Filter
IERANGELOWERLIMIT	IQUANT	9	I/E Range Lower Limit
IERANGEMODE	TOGGLE	F	I/E AutoRange
IERANGE	IQUANT	10	I/E Range
ACHSELECT	IQUANT	1	Ach Select
ACHRANGE	IQUANT	2	Ach Range
ACHOFFSETENABLE	TOGGLE	F	Ach Offset Enable
ACHOFFSET	QUANT	0	Ach Offset (V)
ACHFILTER	IQUANT	1	Ach Filter
CABLEID	IQUANT	14	Cable ID
DCCALDATE	LABEL	20-10-2016	DC Calibration Date
ACCALDATE	LABEL	12/3/2015	AC Calibration Date
FRAMEWORKVERSION	QUANT	7.01	Framework Version
INSTRUMENTVERSION	LABEL	4.00	Instrument Version
CURVE	TABLE	63
	Pt	T	Vf	Im	Vu	Pwr	Sig	Ach	Temp	IERange	Over
	#	s	V	A	V	W	V	V	deg C	#	bits
	0	0.013333	4.09298E-001	-6.01560E-003	0.00000E+000	-2.46217E-003	-3.59960E-001	-1.06716E+000	3.57810E+000	10	...........
	1	0.026667	3.98610E-001	-6.02092E-003	0.00000E+000	-2.40000E-003	-3.59960E-001	-1.07622E+000	3.57810E+000	10	...........
	2	0.04	3.88714E-001	-6.01298E-003	0.00000E+000	-2.33733E-003	-3.59960E-001	-1.07132E+000	3.57810E+000	10	...........
	3	0.053333	3.79300E-001	-6.01734E-003	0.00000E+000	-2.28238E-003	-3.59960E-001	-1.06715E+000	3.57810E+000	10	...........
	4	0.066667	3.70246E-001	-6.00995E-003	0.00000E+000	-2.22516E-003	-3.59960E-001	-1.07645E+000	3.57810E+000	10	...........
	5	0.08	3.61448E-001	-6.01510E-003	0.00000E+000	-2.17414E-003	-3.59960E-001	-1.07147E+000	3.57810E+000	10	...........
	6	0.093333	3.52838E-001	-6.01315E-003	0.00000E+000	-2.12167E-003	-3.59960E-001	-1.06740E+000	3.57810E+000	10	...........
	7	0.106667	3.44399E-001	-6.01892E-003	0.00000E+000	-2.07291E-003	-3.59960E-001	-1.07658E+000	3.57810E+000	10	...........
	8	0.12	3.36136E-001	-6.01438E-003	0.00000E+000	-2.02165E-003	-3.59960E-001	-1.07178E+000	3.57810E+000	10	...........
	9	0.133333	3.27993E-001	-6.01221E-003	0.00000E+000	-1.97197E-003	-3.59960E-001	-1.06776E+000	3.57810E+000	10	...........
	10	0.146667	3.19966E-001	-6.01325E-003	0.00000E+000	-1.92404E-003	-3.59960E-001	-1.07688E+000	3.57810E+000	10	...........
	11	0.16	3.12021E-001	-6.01458E-003	0.00000E+000	-1.87667E-003	-3.59960E-001	-1.07189E+000	3.57810E+000	10	...........
	12	0.173333	3.04234E-001	-6.01666E-003	0.00000E+000	-1.83048E-003	-3.59960E-001	-1.06768E+000	3.57810E+000	10	...........
	13	0.186667	2.96573E-001	-6.01270E-003	0.00000E+000	-1.78320E-003	-3.59960E-001	-1.07696E+000	3.57810E+000	10	...........
	14	0.2	2.88977E-001	-6.01518E-003	0.00000E+000	-1.73825E-003	-3.59960E-001	-1.07219E+000	3.57810E+000	10	...........
	15	0.213333	2.81459E-001	-6.01896E-003	0.00000E+000	-1.69409E-003	-3.59960E-001	-1.06800E+000	3.57810E+000	10	...........
	16	0.226667	2.74032E-001	-6.01542E-003	0.00000E+000	-1.64842E-003	-3.59960E-001	-1.07706E+000	3.57810E+000	10	...........
	17	0.24	2.66717E-001	-6.01640E-003	0.00000E+000	-1.60468E-003	-3.59960E-001	-1.07242E+000	3.57810E+000	10	...........
	18	0.253333	2.59416E-001	-6.01669E-003	0.00000E+000	-1.56083E-003	-3.59960E-001	-1.06834E+000	3.57810E+000	10	...........
	19	0.266667	2.52232E-001	-6.01817E-003	0.00000E+000	-1.51797E-003	-3.59960E-001	-1.07731E+000	3.57810E+000	10	...........
	20	0.28	2.45140E-001	-6.01256E-003	0.00000E+000	-1.47392E-003	-3.59960E-001	-1.07284E+000	3.57810E+000	10	...........
	21	0.293333	2.38104E-001	-6.01481E-003	0.00000E+000	-1.43215E-003	-3.59960E-001	-1.06842E+000	3.57810E+000	10	...........
	22	0.306667	2.31132E-001	-6.01721E-003	0.00000E+000	-1.39077E-003	-3.59960E-001	-1.07705E+000	3.57810E+000	10	...........
	23	0.32	2.24272E-001	-6.01791E-003	0.00000E+000	-1.34965E-003	-3.59960E-001	-1.07230E+000	3.57810E+000	10	...........
	24	0.333333	2.17433E-001	-6.01883E-003	0.00000E+000	-1.30869E-003	-3.59960E-001	-1.06820E+000	3.57810E+000	10	...........
	25	0.346667	2.10645E-001	-6.01030E-003	0.00000E+000	-1.26604E-003	-3.59960E-001	-1.07702E+000	3.57810E+000	10	...........
	26	0.36	2.03948E-001	-6.01105E-003	0.00000E+000	-1.22594E-003	-3.59960E-001	-1.07255E+000	3.57810E+000	10	...........
	27	0.373333	1.97311E-001	-6.00778E-003	0.00000E+000	-1.18540E-003	-3.59960E-001	-1.06807E+000	3.57810E+000	10	...........
	28	0.386667	1.90751E-001	-6.01616E-003	0.00000E+000	-1.14759E-003	-3.59960E-001	-1.07710E+000	3.57810E+000	10	...........
	29	0.4	1.84234E-001	-6.01643E-003	0.00000E+000	-1.10843E-003	-3.59960E-001	-1.07266E+000	3.57810E+000	10	...........
	30	0.413333	1.77797E-001	-6.01274E-003	0.00000E+000	-1.06905E-003	-3.59960E-001	-1.06834E+000	3.57810E+000	10	...........
	31	0.426667	1.71402E-001	-6.01234E-003	0.00000E+000	-1.03053E-003	-3.59960E-001	-1.07721E+000	3.57810E+000	10	...........
	32	0.44	1.65058E-001	-6.01517E-003	0.00000E+000	-9.92854E-004	-3.59960E-001	-1.07266E+000	3.57810E+000	10	...........
	33	0.453333	1.58820E-001	-6.01232E-003	0.00000E+000	-9.54876E-004	-3.59960E-001	-1.06849E+000	3.57810E+000	10	...........
	34	0.466667	1.52587E-001	-6.01388E-003	0.00000E+000	-9.17641E-004	-3.59960E-001	-1.07734E+000	3.57792E+000	10	...........
	35	0.48	1.46419E-001	-6.01368E-003	0.00000E+000	-8.80516E-004	-3.59960E-001	-1.07309E+000	3.57670E+000	10	...........
	36	0.493333	1.40316E-001	-6.01009E-003	0.00000E+000	-8.43309E-004	-3.59960E-001	-1.06859E+000	3.57670E+000	10	...........
	37	0.506667	1.34284E-001	-6.01417E-003	0.00000E+000	-8.07607E-004	-3.59960E-001	-1.07720E+000	3.57670E+000	10	...........
	38	0.52	1.28287E-001	-6.01308E-003	0.00000E+000	-7.71400E-004	-3.59960E-001	-1.07317E+000	3.57670E+000	10	...........
	39	0.533333	1.22345E-001	-6.01172E-003	0.00000E+000	-7.35505E-004	-3.59960E-001	-1.06880E+000	3.57670E+000	10	...........
	40	0.546667	1.16461E-001	-6.01443E-003	0.00000E+000	-7.00447E-004	-3.59960E-001	-1.07745E+000	3.57670E+000	10	...........
	41	0.56	1.10601E-001	-6.01271E-003	0.00000E+000	-6.65010E-004	-3.59960E-001	-1.07333E+000	3.57670E+000	10	...........
	42	0.573333	1.04806E-001	-6.01449E-003	0.00000E+000	-6.30353E-004	-3.59960E-001	-1.06862E+000	3.57670E+000	10	...........
	43	0.586667	9.90386E-002	-6.01252E-003	0.00000E+000	-5.95472E-004	-3.59960E-001	-1.07737E+000	3.57670E+000	10	...........
	44	0.6	9.33111E-002	-6.02091E-003	0.00000E+000	-5.61818E-004	-3.59960E-001	-1.07344E+000	3.57670E+000	10	...........
	45	0.613333	8.76573E-002	-6.01725E-003	0.00000E+000	-5.27456E-004	-3.59960E-001	-1.06896E+000	3.57670E+000	10	...........
	46	0.626667	8.20278E-002	-6.01345E-003	0.00000E+000	-4.93270E-004	-3.59960E-001	-1.07732E+000	3.57670E+000	10	...........
	47	0.64	7.64949E-002	-6.01444E-003	0.00000E+000	-4.60074E-004	-3.59960E-001	-1.07307E+000	3.57670E+000	10	...........
	48	0.653333	7.09443E-002	-6.01801E-003	0.00000E+000	-4.26943E-004	-3.59960E-001	-1.06867E+000	3.57670E+000	10	...........
	49	0.666667	6.54730E-002	-6.01401E-003	0.00000E+000	-3.93755E-004	-3.59960E-001	-1.07709E+000	3.57670E+000	10	...........
	50	0.68	6.00263E-002	-6.01120E-003	0.00000E+000	-3.60830E-004	-3.59960E-001	-1.07319E+000	3.57670E+000	10	...........
	51	0.693333	5.45860E-002	-6.01741E-003	0.00000E+000	-3.28467E-004	-3.59960E-001	-1.06853E+000	3.57670E+000	10	...........
	52	0.706667	4.92189E-002	-6.01462E-003	0.00000E+000	-2.96033E-004	-3.59960E-001	-1.07715E+000	3.57670E+000	10	...........
	53	0.72	4.39543E-002	-6.02040E-003	0.00000E+000	-2.64622E-004	-3.59960E-001	-1.07346E+000	3.57670E+000	10	...........
	54	0.733333	3.87450E-002	-6.01612E-003	0.00000E+000	-2.33095E-004	-3.59960E-001	-1.06879E+000	3.57670E+000	10	...........
	55	0.746667	3.35364E-002	-6.01520E-003	0.00000E+000	-2.01729E-004	-3.59960E-001	-1.07735E+000	3.57670E+000	10	...........
	56	0.76	2.83414E-002	-6.01509E-003	0.00000E+000	-1.70476E-004	-3.59960E-001	-1.07337E+000	3.57670E+000	10	...........
	57	0.773333	2.31678E-002	-6.01720E-003	0.00000E+000	-1.39405E-004	-3.59960E-001	-1.06861E+000	3.57670E+000	10	...........
	58	0.786667	1.80433E-002	-6.01358E-003	0.00000E+000	-1.08505E-004	-3.59960E-001	-1.07717E+000	3.57670E+000	10	...........
	59	0.8	1.29613E-002	-6.01351E-003	0.00000E+000	-7.79430E-005	-3.59960E-001	-1.07354E+000	3.57670E+000	10	...........
	60	0.813333	7.90289E-003	-6.01625E-003	0.00000E+000	-4.75457E-005	-3.59960E-001	-1.06881E+000	3.57670E+000	10	...........
	61	0.826667	2.89755E-003	-6.01719E-003	0.00000E+000	-1.74351E-005	-3.59960E-001	-1.07713E+000	3.57670E+000	10	...........
	62	0.83	-2.02955E-004	-6.01879E-003	0.00000E+000	1.22155E-006	-3.59960E-001	-1.05787E+000	3.57670E+000	10	...........
STARTTIMEOFFSET	QUANT	488.94	Start Time Offset (s)
