EXPLAIN
TAG	PWR800_DISCHARGE
TITLE	LABEL	PWR Cyclic Charge Discharge (Cell) - Discharge Step	Test &Identifier
DATE	LABEL	22-6-2017	Date
TIME	LABEL	16:12:15	Time
NOTES	NOTES	3	&Notes...
	supercap test cell
	0.6mg
	6M KOH
PSTAT	PSTAT	IFC5000-01520	Potentiostat
CAPACITY	QUANT	1.00000E-003	Capacity (A-hr)
CELLTYPE	SELECTOR	1	&Cell Type
WORKINGCONNECTION	SELECTOR	0	&Working Lead
MAXDISCHARGETIME	VARIABLEANDUNITS	1.00000E+002	s	1.00000E+002	second(s)	Max &Discharge Time
DISCHARGEMODE	MULTIPARAM	0	6.00000E-003	&Discharge Mode	Constant Current	Amp(s)
SAMPLETIME	QUANT	1.00000E-002	Sa&mple Period (s)
DISCHARGESTOPAT1	MULTIPARAM	3	0.00000E+000	Discharge Stop At &1	Voltage < Limit	V
DISCHARGESTOPAT2	MULTIPARAM	0	0.00000E+000	Discharge Stop At &2	None	N/A
AESBHCSELECTOR	TOGGLE	F	Save Both Half Cells
IRCOMP	TOGGLE	F	IR &Measure
EOC	QUANT	0	Open Circuit (V)
SEQUENCER	TOGGLE	TRUE	Run as Sequence
PSTATMODEL	IQUANT	53	Pstat Model
PSTATSECTION	LABEL	IFC5000-01520	Pstat Section
PSTATSERIALNO	LABEL	01520	Pstat Serial Number
CTRLMODE	IQUANT	0	Control Mode
ELECTROMETER	IQUANT	1	RE=0 or CS=1
IESTAB	IQUANT	0	I/E Stability
CASPEED	IQUANT	4	Control Amp Speed
CONVENTION	IQUANT	1	Current Convention
ICHRANGE	IQUANT	2	Ich Range
ICHRANGEMODE	TOGGLE	T	Ich Auto Range
ICHOFFSETENABLE	TOGGLE	F	Ich Offset Enable
ICHOFFSET	QUANT	0	Ich Offset (V)
ICHFILTER	IQUANT	1	Ich Filter
VCHRANGE	IQUANT	2	Vch Range
VCHRANGEMODE	TOGGLE	T	Vch Auto Range
VCHOFFSETENABLE	TOGGLE	F	Vch Offset Enable
VCHOFFSET	QUANT	0	Vch Offset (V)
VCHFILTER	IQUANT	1	Vch Filter
IERANGELOWERLIMIT	IQUANT	9	I/E Range Lower Limit
IERANGEMODE	TOGGLE	F	I/E AutoRange
IERANGE	IQUANT	10	I/E Range
ACHSELECT	IQUANT	1	Ach Select
ACHRANGE	IQUANT	2	Ach Range
ACHOFFSETENABLE	TOGGLE	F	Ach Offset Enable
ACHOFFSET	QUANT	0	Ach Offset (V)
ACHFILTER	IQUANT	1	Ach Filter
CABLEID	IQUANT	14	Cable ID
DCCALDATE	LABEL	20-10-2016	DC Calibration Date
ACCALDATE	LABEL	12/3/2015	AC Calibration Date
FRAMEWORKVERSION	QUANT	7.01	Framework Version
INSTRUMENTVERSION	LABEL	4.00	Instrument Version
CURVE	TABLE	53
	Pt	T	Vf	Im	Vu	Pwr	Sig	Ach	Temp	IERange	Over
	#	s	V	A	V	W	V	V	deg C	#	bits
	0	0.013333	3.78566E-001	-6.01218E-003	0.00000E+000	-2.27601E-003	-3.59960E-001	-1.14998E+000	3.57990E+000	10	...........
	1	0.026667	3.66929E-001	-6.01242E-003	0.00000E+000	-2.20613E-003	-3.59960E-001	-1.13918E+000	3.57990E+000	10	...........
	2	0.04	3.56088E-001	-6.01265E-003	0.00000E+000	-2.14103E-003	-3.59960E-001	-1.13998E+000	3.57990E+000	10	...........
	3	0.053333	3.45924E-001	-6.01397E-003	0.00000E+000	-2.08038E-003	-3.59960E-001	-1.15011E+000	3.57990E+000	10	...........
	4	0.066667	3.36065E-001	-6.01289E-003	0.00000E+000	-2.02072E-003	-3.59960E-001	-1.13938E+000	3.57990E+000	10	...........
	5	0.08	3.26495E-001	-6.01763E-003	0.00000E+000	-1.96473E-003	-3.59960E-001	-1.14035E+000	3.57990E+000	10	...........
	6	0.093333	3.17191E-001	-6.01540E-003	0.00000E+000	-1.90803E-003	-3.59960E-001	-1.15041E+000	3.57990E+000	10	...........
	7	0.106667	3.08064E-001	-6.01529E-003	0.00000E+000	-1.85309E-003	-3.59960E-001	-1.13965E+000	3.57990E+000	10	...........
	8	0.12	2.99101E-001	-6.01642E-003	0.00000E+000	-1.79952E-003	-3.59960E-001	-1.14068E+000	3.57990E+000	10	...........
	9	0.133333	2.90292E-001	-6.01775E-003	0.00000E+000	-1.74690E-003	-3.59960E-001	-1.15073E+000	3.57990E+000	10	...........
	10	0.146667	2.81603E-001	-6.01309E-003	0.00000E+000	-1.69330E-003	-3.59960E-001	-1.14017E+000	3.57990E+000	10	...........
	11	0.16	2.73046E-001	-6.01372E-003	0.00000E+000	-1.64202E-003	-3.59960E-001	-1.14072E+000	3.57990E+000	10	...........
	12	0.173333	2.64646E-001	-6.01747E-003	0.00000E+000	-1.59250E-003	-3.59960E-001	-1.15059E+000	3.57990E+000	10	...........
	13	0.186667	2.56347E-001	-6.01128E-003	0.00000E+000	-1.54097E-003	-3.59960E-001	-1.13992E+000	3.57990E+000	10	...........
	14	0.2	2.48159E-001	-6.01436E-003	0.00000E+000	-1.49252E-003	-3.59960E-001	-1.14087E+000	3.57990E+000	10	...........
	15	0.213333	2.40083E-001	-6.01370E-003	0.00000E+000	-1.44379E-003	-3.59960E-001	-1.15075E+000	3.57990E+000	10	...........
	16	0.226667	2.32077E-001	-6.01719E-003	0.00000E+000	-1.39645E-003	-3.59960E-001	-1.14006E+000	3.57990E+000	10	...........
	17	0.24	2.24142E-001	-6.01498E-003	0.00000E+000	-1.34821E-003	-3.59960E-001	-1.14074E+000	3.57990E+000	10	...........
	18	0.253333	2.16330E-001	-6.01460E-003	0.00000E+000	-1.30114E-003	-3.59960E-001	-1.15061E+000	3.57990E+000	10	...........
	19	0.266667	2.08658E-001	-6.01218E-003	0.00000E+000	-1.25449E-003	-3.59960E-001	-1.14023E+000	3.57990E+000	10	...........
	20	0.28	2.01069E-001	-6.01849E-003	0.00000E+000	-1.21013E-003	-3.59960E-001	-1.14108E+000	3.57990E+000	10	...........
	21	0.293333	1.93531E-001	-6.01489E-003	0.00000E+000	-1.16407E-003	-3.59960E-001	-1.15094E+000	3.57990E+000	10	...........
	22	0.306667	1.86112E-001	-6.01868E-003	0.00000E+000	-1.12015E-003	-3.59960E-001	-1.14019E+000	3.57990E+000	10	...........
	23	0.32	1.78797E-001	-6.01595E-003	0.00000E+000	-1.07564E-003	-3.59960E-001	-1.14125E+000	3.57990E+000	10	...........
	24	0.333333	1.71586E-001	-6.01473E-003	0.00000E+000	-1.03205E-003	-3.59960E-001	-1.15116E+000	3.57990E+000	10	...........
	25	0.346667	1.64418E-001	-6.01423E-003	0.00000E+000	-9.88848E-004	-3.59960E-001	-1.14068E+000	3.57990E+000	10	...........
	26	0.36	1.57305E-001	-6.01386E-003	0.00000E+000	-9.46008E-004	-3.59960E-001	-1.14143E+000	3.57990E+000	10	...........
	27	0.373333	1.50254E-001	-6.01978E-003	0.00000E+000	-9.04495E-004	-3.59960E-001	-1.15106E+000	3.57990E+000	10	...........
	28	0.386667	1.43313E-001	-6.01741E-003	0.00000E+000	-8.62371E-004	-3.59960E-001	-1.14060E+000	3.57990E+000	10	...........
	29	0.4	1.36453E-001	-6.01626E-003	0.00000E+000	-8.20936E-004	-3.59960E-001	-1.14170E+000	3.57990E+000	10	...........
	30	0.413333	1.29679E-001	-6.01380E-003	0.00000E+000	-7.79865E-004	-3.59960E-001	-1.15140E+000	3.57990E+000	10	...........
	31	0.426667	1.23001E-001	-6.01593E-003	0.00000E+000	-7.39968E-004	-3.59960E-001	-1.14079E+000	3.57990E+000	10	...........
	32	0.44	1.16392E-001	-6.01262E-003	0.00000E+000	-6.99819E-004	-3.59960E-001	-1.14161E+000	3.57990E+000	10	...........
	33	0.453333	1.09875E-001	-6.01343E-003	0.00000E+000	-6.60726E-004	-3.59960E-001	-1.15134E+000	3.57990E+000	10	...........
	34	0.466667	1.03393E-001	-6.01216E-003	0.00000E+000	-6.21617E-004	-3.59960E-001	-1.14105E+000	3.57990E+000	10	...........
	35	0.48	9.69927E-002	-6.01940E-003	0.00000E+000	-5.83838E-004	-3.59960E-001	-1.14223E+000	3.57990E+000	10	...........
	36	0.493333	9.06572E-002	-6.01412E-003	0.00000E+000	-5.45223E-004	-3.59960E-001	-1.15176E+000	3.57990E+000	10	...........
	37	0.506667	8.43937E-002	-6.01885E-003	0.00000E+000	-5.07954E-004	-3.59960E-001	-1.14074E+000	3.57990E+000	10	...........
	38	0.52	7.81777E-002	-6.01911E-003	0.00000E+000	-4.70560E-004	-3.59960E-001	-1.14185E+000	3.57990E+000	10	...........
	39	0.533333	7.20625E-002	-6.01069E-003	0.00000E+000	-4.33145E-004	-3.59960E-001	-1.15143E+000	3.57815E+000	10	...........
	40	0.546667	6.59223E-002	-6.01740E-003	0.00000E+000	-3.96681E-004	-3.59960E-001	-1.14099E+000	3.57640E+000	10	...........
	41	0.56	5.98983E-002	-6.01530E-003	0.00000E+000	-3.60306E-004	-3.59960E-001	-1.14183E+000	3.57640E+000	10	...........
	42	0.573333	5.39244E-002	-6.01370E-003	0.00000E+000	-3.24286E-004	-3.59960E-001	-1.15149E+000	3.57640E+000	10	...........
	43	0.586667	4.80202E-002	-6.01816E-003	0.00000E+000	-2.88993E-004	-3.59960E-001	-1.14076E+000	3.57640E+000	10	...........
	44	0.6	4.22058E-002	-6.01256E-003	0.00000E+000	-2.53765E-004	-3.59960E-001	-1.14206E+000	3.57640E+000	10	...........
	45	0.613333	3.63732E-002	-6.01570E-003	0.00000E+000	-2.18810E-004	-3.59960E-001	-1.15168E+000	3.57640E+000	10	...........
	46	0.626667	3.06576E-002	-6.01355E-003	0.00000E+000	-1.84361E-004	-3.59960E-001	-1.14103E+000	3.57640E+000	10	...........
	47	0.64	2.50029E-002	-6.01539E-003	0.00000E+000	-1.50402E-004	-3.59960E-001	-1.14193E+000	3.57640E+000	10	...........
	48	0.653333	1.93566E-002	-6.01389E-003	0.00000E+000	-1.16408E-004	-3.59960E-001	-1.15158E+000	3.57640E+000	10	...........
	49	0.666667	1.37781E-002	-6.01590E-003	0.00000E+000	-8.28876E-005	-3.59960E-001	-1.14109E+000	3.57640E+000	10	...........
	50	0.68	8.28017E-003	-6.01501E-003	0.00000E+000	-4.98053E-005	-3.59960E-001	-1.14225E+000	3.57640E+000	10	...........
	51	0.693333	2.83537E-003	-6.01515E-003	0.00000E+000	-1.70552E-005	-3.59960E-001	-1.15176E+000	3.57640E+000	10	...........
	52	0.695	-2.24729E-004	-6.01178E-003	0.00000E+000	1.35102E-006	-3.59960E-001	-1.13850E+000	3.57640E+000	10	...........
STARTTIMEOFFSET	QUANT	1494.36	Start Time Offset (s)
