EXPLAIN
TAG	PWR800_DISCHARGE
TITLE	LABEL	PWR Cyclic Charge Discharge (Cell) - Discharge Step	Test &Identifier
DATE	LABEL	22-6-2017	Date
TIME	LABEL	16:04:08	Time
NOTES	NOTES	3	&Notes...
	supercap test cell
	0.6mg
	6M KOH
PSTAT	PSTAT	IFC5000-01520	Potentiostat
CAPACITY	QUANT	1.00000E-003	Capacity (A-hr)
CELLTYPE	SELECTOR	1	&Cell Type
WORKINGCONNECTION	SELECTOR	0	&Working Lead
MAXDISCHARGETIME	VARIABLEANDUNITS	1.00000E+002	s	1.00000E+002	second(s)	Max &Discharge Time
DISCHARGEMODE	MULTIPARAM	0	6.00000E-003	&Discharge Mode	Constant Current	Amp(s)
SAMPLETIME	QUANT	1.00000E-002	Sa&mple Period (s)
DISCHARGESTOPAT1	MULTIPARAM	3	0.00000E+000	Discharge Stop At &1	Voltage < Limit	V
DISCHARGESTOPAT2	MULTIPARAM	0	0.00000E+000	Discharge Stop At &2	None	N/A
AESBHCSELECTOR	TOGGLE	F	Save Both Half Cells
IRCOMP	TOGGLE	F	IR &Measure
EOC	QUANT	0	Open Circuit (V)
SEQUENCER	TOGGLE	TRUE	Run as Sequence
PSTATMODEL	IQUANT	53	Pstat Model
PSTATSECTION	LABEL	IFC5000-01520	Pstat Section
PSTATSERIALNO	LABEL	01520	Pstat Serial Number
CTRLMODE	IQUANT	0	Control Mode
ELECTROMETER	IQUANT	1	RE=0 or CS=1
IESTAB	IQUANT	0	I/E Stability
CASPEED	IQUANT	4	Control Amp Speed
CONVENTION	IQUANT	1	Current Convention
ICHRANGE	IQUANT	2	Ich Range
ICHRANGEMODE	TOGGLE	T	Ich Auto Range
ICHOFFSETENABLE	TOGGLE	F	Ich Offset Enable
ICHOFFSET	QUANT	0	Ich Offset (V)
ICHFILTER	IQUANT	1	Ich Filter
VCHRANGE	IQUANT	2	Vch Range
VCHRANGEMODE	TOGGLE	T	Vch Auto Range
VCHOFFSETENABLE	TOGGLE	F	Vch Offset Enable
VCHOFFSET	QUANT	0	Vch Offset (V)
VCHFILTER	IQUANT	1	Vch Filter
IERANGELOWERLIMIT	IQUANT	9	I/E Range Lower Limit
IERANGEMODE	TOGGLE	F	I/E AutoRange
IERANGE	IQUANT	10	I/E Range
ACHSELECT	IQUANT	1	Ach Select
ACHRANGE	IQUANT	2	Ach Range
ACHOFFSETENABLE	TOGGLE	F	Ach Offset Enable
ACHOFFSET	QUANT	0	Ach Offset (V)
ACHFILTER	IQUANT	1	Ach Filter
CABLEID	IQUANT	14	Cable ID
DCCALDATE	LABEL	20-10-2016	DC Calibration Date
ACCALDATE	LABEL	12/3/2015	AC Calibration Date
FRAMEWORKVERSION	QUANT	7.01	Framework Version
INSTRUMENTVERSION	LABEL	4.00	Instrument Version
CURVE	TABLE	55
	Pt	T	Vf	Im	Vu	Pwr	Sig	Ach	Temp	IERange	Over
	#	s	V	A	V	W	V	V	deg C	#	bits
	0	0.013333	3.85302E-001	-6.01395E-003	0.00000E+000	-2.31719E-003	-3.59960E-001	-1.11746E+000	3.57780E+000	10	...........
	1	0.026667	3.73939E-001	-6.01465E-003	0.00000E+000	-2.24911E-003	-3.59960E-001	-1.12536E+000	3.57780E+000	10	...........
	2	0.04	3.63392E-001	-6.01777E-003	0.00000E+000	-2.18681E-003	-3.59960E-001	-1.12454E+000	3.57780E+000	10	...........
	3	0.053333	3.53374E-001	-6.01477E-003	0.00000E+000	-2.12546E-003	-3.59960E-001	-1.11779E+000	3.57780E+000	10	...........
	4	0.066667	3.43696E-001	-6.01156E-003	0.00000E+000	-2.06615E-003	-3.59960E-001	-1.12556E+000	3.57780E+000	10	...........
	5	0.08	3.34329E-001	-6.01535E-003	0.00000E+000	-2.01110E-003	-3.59960E-001	-1.12488E+000	3.57780E+000	10	...........
	6	0.093333	3.25205E-001	-6.01494E-003	0.00000E+000	-1.95609E-003	-3.59960E-001	-1.11800E+000	3.57780E+000	10	...........
	7	0.106667	3.16311E-001	-6.01287E-003	0.00000E+000	-1.90194E-003	-3.59960E-001	-1.12617E+000	3.57780E+000	10	...........
	8	0.12	3.07515E-001	-6.01414E-003	0.00000E+000	-1.84944E-003	-3.59960E-001	-1.12501E+000	3.57780E+000	10	...........
	9	0.133333	2.98862E-001	-6.02037E-003	0.00000E+000	-1.79926E-003	-3.59960E-001	-1.11865E+000	3.57780E+000	10	...........
	10	0.146667	2.90337E-001	-6.01481E-003	0.00000E+000	-1.74632E-003	-3.59960E-001	-1.12673E+000	3.57780E+000	10	...........
	11	0.16	2.81992E-001	-6.01205E-003	0.00000E+000	-1.69535E-003	-3.59960E-001	-1.12515E+000	3.57780E+000	10	...........
	12	0.173333	2.73707E-001	-6.01762E-003	0.00000E+000	-1.64706E-003	-3.59960E-001	-1.11869E+000	3.57780E+000	10	...........
	13	0.186667	2.65551E-001	-6.01523E-003	0.00000E+000	-1.59735E-003	-3.59960E-001	-1.12696E+000	3.57780E+000	10	...........
	14	0.2	2.57524E-001	-6.01265E-003	0.00000E+000	-1.54840E-003	-3.59960E-001	-1.12541E+000	3.57780E+000	10	...........
	15	0.213333	2.49580E-001	-6.01312E-003	0.00000E+000	-1.50076E-003	-3.59960E-001	-1.11888E+000	3.57780E+000	10	...........
	16	0.226667	2.41720E-001	-6.01586E-003	0.00000E+000	-1.45415E-003	-3.59960E-001	-1.12694E+000	3.57780E+000	10	...........
	17	0.24	2.33961E-001	-6.01224E-003	0.00000E+000	-1.40663E-003	-3.59960E-001	-1.12495E+000	3.57780E+000	10	...........
	18	0.253333	2.26331E-001	-6.01287E-003	0.00000E+000	-1.36090E-003	-3.59960E-001	-1.11881E+000	3.57780E+000	10	...........
	19	0.266667	2.18740E-001	-6.01516E-003	0.00000E+000	-1.31576E-003	-3.59960E-001	-1.12739E+000	3.57780E+000	10	...........
	20	0.28	2.11290E-001	-6.01297E-003	0.00000E+000	-1.27048E-003	-3.59960E-001	-1.12523E+000	3.57780E+000	10	...........
	21	0.293333	2.03895E-001	-6.01578E-003	0.00000E+000	-1.22659E-003	-3.59960E-001	-1.11899E+000	3.57780E+000	10	...........
	22	0.306667	1.96590E-001	-6.01437E-003	0.00000E+000	-1.18237E-003	-3.59960E-001	-1.12751E+000	3.57780E+000	10	...........
	23	0.32	1.89353E-001	-6.01310E-003	0.00000E+000	-1.13860E-003	-3.59960E-001	-1.12517E+000	3.57780E+000	10	...........
	24	0.333333	1.82236E-001	-6.01229E-003	0.00000E+000	-1.09566E-003	-3.59960E-001	-1.11940E+000	3.57780E+000	10	...........
	25	0.346667	1.75168E-001	-6.01353E-003	0.00000E+000	-1.05338E-003	-3.59960E-001	-1.12812E+000	3.57780E+000	10	...........
	26	0.36	1.68199E-001	-6.01381E-003	0.00000E+000	-1.01152E-003	-3.59960E-001	-1.12520E+000	3.57780E+000	10	...........
	27	0.373333	1.61298E-001	-6.01590E-003	0.00000E+000	-9.70351E-004	-3.59960E-001	-1.11947E+000	3.57780E+000	10	...........
	28	0.386667	1.54462E-001	-6.01462E-003	0.00000E+000	-9.29028E-004	-3.59960E-001	-1.12817E+000	3.57780E+000	10	...........
	29	0.4	1.47714E-001	-6.01320E-003	0.00000E+000	-8.88236E-004	-3.59960E-001	-1.12537E+000	3.57780E+000	10	...........
	30	0.413333	1.41006E-001	-6.02001E-003	0.00000E+000	-8.48858E-004	-3.59960E-001	-1.11958E+000	3.57780E+000	10	...........
	31	0.426667	1.34375E-001	-6.01482E-003	0.00000E+000	-8.08238E-004	-3.59960E-001	-1.12847E+000	3.57780E+000	10	...........
	32	0.44	1.27815E-001	-6.01406E-003	0.00000E+000	-7.68689E-004	-3.59960E-001	-1.12527E+000	3.57780E+000	10	...........
	33	0.453333	1.21332E-001	-6.01206E-003	0.00000E+000	-7.29457E-004	-3.59960E-001	-1.11986E+000	3.57780E+000	10	...........
	34	0.466667	1.14909E-001	-6.01438E-003	0.00000E+000	-6.91104E-004	-3.59960E-001	-1.12901E+000	3.57780E+000	10	...........
	35	0.48	1.08585E-001	-6.01601E-003	0.00000E+000	-6.53248E-004	-3.59960E-001	-1.12537E+000	3.57780E+000	10	...........
	36	0.493333	1.02336E-001	-6.01549E-003	0.00000E+000	-6.15602E-004	-3.59960E-001	-1.11993E+000	3.57780E+000	10	...........
	37	0.506667	9.61120E-002	-6.01341E-003	0.00000E+000	-5.77961E-004	-3.59960E-001	-1.12912E+000	3.57780E+000	10	...........
	38	0.52	8.99261E-002	-6.01202E-003	0.00000E+000	-5.40638E-004	-3.59960E-001	-1.12542E+000	3.57780E+000	10	...........
	39	0.533333	8.38364E-002	-6.01262E-003	0.00000E+000	-5.04076E-004	-3.59960E-001	-1.11990E+000	3.57780E+000	10	...........
	40	0.546667	7.77780E-002	-6.01374E-003	0.00000E+000	-4.67737E-004	-3.59960E-001	-1.12925E+000	3.57780E+000	10	...........
	41	0.56	7.17730E-002	-6.01579E-003	0.00000E+000	-4.31771E-004	-3.59960E-001	-1.12509E+000	3.57780E+000	10	...........
	42	0.573333	6.58771E-002	-6.01011E-003	0.00000E+000	-3.95929E-004	-3.59960E-001	-1.11964E+000	3.57780E+000	10	...........
	43	0.586667	5.99889E-002	-6.01831E-003	0.00000E+000	-3.61032E-004	-3.59960E-001	-1.12913E+000	3.57780E+000	10	...........
	44	0.6	5.41595E-002	-6.01641E-003	0.00000E+000	-3.25846E-004	-3.59960E-001	-1.12493E+000	3.57780E+000	10	...........
	45	0.613333	4.84266E-002	-6.01459E-003	0.00000E+000	-2.91266E-004	-3.59960E-001	-1.11992E+000	3.57780E+000	10	...........
	46	0.626667	4.27599E-002	-6.01625E-003	0.00000E+000	-2.57254E-004	-3.59960E-001	-1.12953E+000	3.57780E+000	10	...........
	47	0.64	3.71070E-002	-6.01852E-003	0.00000E+000	-2.23329E-004	-3.59960E-001	-1.12496E+000	3.57780E+000	10	...........
	48	0.653333	3.15334E-002	-6.01555E-003	0.00000E+000	-1.89691E-004	-3.59960E-001	-1.11980E+000	3.57780E+000	10	...........
	49	0.666667	2.59681E-002	-6.01078E-003	0.00000E+000	-1.56088E-004	-3.59960E-001	-1.12976E+000	3.57780E+000	10	...........
	50	0.68	2.04518E-002	-6.01552E-003	0.00000E+000	-1.23028E-004	-3.59960E-001	-1.12495E+000	3.57780E+000	10	...........
	51	0.693333	1.50428E-002	-6.01333E-003	0.00000E+000	-9.04575E-005	-3.59960E-001	-1.11983E+000	3.57780E+000	10	...........
	52	0.706667	9.59285E-003	-6.01473E-003	0.00000E+000	-5.76985E-005	-3.59960E-001	-1.12967E+000	3.57780E+000	10	...........
	53	0.72	4.24229E-003	-6.01467E-003	0.00000E+000	-2.55160E-005	-3.59960E-001	-1.12476E+000	3.57780E+000	10	...........
	54	0.725	5.81192E-004	-6.01187E-003	0.00000E+000	-3.49405E-006	-3.59960E-001	-1.12934E+000	3.57780E+000	10	...........
STARTTIMEOFFSET	QUANT	1181.909	Start Time Offset (s)
