EXPLAIN
TAG	PWR800_DISCHARGE
TITLE	LABEL	PWR Cyclic Charge Discharge (Cell) - Discharge Step	Test &Identifier
DATE	LABEL	22-6-2017	Date
TIME	LABEL	15:57:38	Time
NOTES	NOTES	3	&Notes...
	supercap test cell
	0.6mg
	6M KOH
PSTAT	PSTAT	IFC5000-01520	Potentiostat
CAPACITY	QUANT	1.00000E-003	Capacity (A-hr)
CELLTYPE	SELECTOR	1	&Cell Type
WORKINGCONNECTION	SELECTOR	0	&Working Lead
MAXDISCHARGETIME	VARIABLEANDUNITS	1.00000E+002	s	1.00000E+002	second(s)	Max &Discharge Time
DISCHARGEMODE	MULTIPARAM	0	6.00000E-003	&Discharge Mode	Constant Current	Amp(s)
SAMPLETIME	QUANT	1.00000E-002	Sa&mple Period (s)
DISCHARGESTOPAT1	MULTIPARAM	3	0.00000E+000	Discharge Stop At &1	Voltage < Limit	V
DISCHARGESTOPAT2	MULTIPARAM	0	0.00000E+000	Discharge Stop At &2	None	N/A
AESBHCSELECTOR	TOGGLE	F	Save Both Half Cells
IRCOMP	TOGGLE	F	IR &Measure
EOC	QUANT	0	Open Circuit (V)
SEQUENCER	TOGGLE	TRUE	Run as Sequence
PSTATMODEL	IQUANT	53	Pstat Model
PSTATSECTION	LABEL	IFC5000-01520	Pstat Section
PSTATSERIALNO	LABEL	01520	Pstat Serial Number
CTRLMODE	IQUANT	0	Control Mode
ELECTROMETER	IQUANT	1	RE=0 or CS=1
IESTAB	IQUANT	0	I/E Stability
CASPEED	IQUANT	4	Control Amp Speed
CONVENTION	IQUANT	1	Current Convention
ICHRANGE	IQUANT	2	Ich Range
ICHRANGEMODE	TOGGLE	T	Ich Auto Range
ICHOFFSETENABLE	TOGGLE	F	Ich Offset Enable
ICHOFFSET	QUANT	0	Ich Offset (V)
ICHFILTER	IQUANT	1	Ich Filter
VCHRANGE	IQUANT	2	Vch Range
VCHRANGEMODE	TOGGLE	T	Vch Auto Range
VCHOFFSETENABLE	TOGGLE	F	Vch Offset Enable
VCHOFFSET	QUANT	0	Vch Offset (V)
VCHFILTER	IQUANT	1	Vch Filter
IERANGELOWERLIMIT	IQUANT	9	I/E Range Lower Limit
IERANGEMODE	TOGGLE	F	I/E AutoRange
IERANGE	IQUANT	10	I/E Range
ACHSELECT	IQUANT	1	Ach Select
ACHRANGE	IQUANT	2	Ach Range
ACHOFFSETENABLE	TOGGLE	F	Ach Offset Enable
ACHOFFSET	QUANT	0	Ach Offset (V)
ACHFILTER	IQUANT	1	Ach Filter
CABLEID	IQUANT	14	Cable ID
DCCALDATE	LABEL	20-10-2016	DC Calibration Date
ACCALDATE	LABEL	12/3/2015	AC Calibration Date
FRAMEWORKVERSION	QUANT	7.01	Framework Version
INSTRUMENTVERSION	LABEL	4.00	Instrument Version
CURVE	TABLE	57
	Pt	T	Vf	Im	Vu	Pwr	Sig	Ach	Temp	IERange	Over
	#	s	V	A	V	W	V	V	deg C	#	bits
	0	0.013333	3.93110E-001	-6.01867E-003	0.00000E+000	-2.36600E-003	-3.59960E-001	-1.10189E+000	3.57790E+000	10	...........
	1	0.026667	3.81958E-001	-6.00975E-003	0.00000E+000	-2.29547E-003	-3.59960E-001	-1.11056E+000	3.57790E+000	10	...........
	2	0.04	3.71607E-001	-6.01735E-003	0.00000E+000	-2.23609E-003	-3.59960E-001	-1.10777E+000	3.57790E+000	10	...........
	3	0.053333	3.61724E-001	-6.02136E-003	0.00000E+000	-2.17807E-003	-3.59960E-001	-1.10226E+000	3.57790E+000	10	...........
	4	0.066667	3.52259E-001	-6.01438E-003	0.00000E+000	-2.11862E-003	-3.59960E-001	-1.11090E+000	3.57790E+000	10	...........
	5	0.08	3.43080E-001	-6.01251E-003	0.00000E+000	-2.06277E-003	-3.59960E-001	-1.10807E+000	3.57790E+000	10	...........
	6	0.093333	3.34089E-001	-6.01879E-003	0.00000E+000	-2.01081E-003	-3.59960E-001	-1.10249E+000	3.57790E+000	10	...........
	7	0.106667	3.25260E-001	-6.01592E-003	0.00000E+000	-1.95674E-003	-3.59960E-001	-1.11102E+000	3.57790E+000	10	...........
	8	0.12	3.16620E-001	-6.01395E-003	0.00000E+000	-1.90414E-003	-3.59960E-001	-1.10801E+000	3.57790E+000	10	...........
	9	0.133333	3.08132E-001	-6.01350E-003	0.00000E+000	-1.85295E-003	-3.59960E-001	-1.10255E+000	3.57790E+000	10	...........
	10	0.146667	2.99786E-001	-6.01538E-003	0.00000E+000	-1.80333E-003	-3.59960E-001	-1.11116E+000	3.57790E+000	10	...........
	11	0.16	2.91548E-001	-6.01241E-003	0.00000E+000	-1.75291E-003	-3.59960E-001	-1.10865E+000	3.57790E+000	10	...........
	12	0.173333	2.83404E-001	-6.01809E-003	0.00000E+000	-1.70555E-003	-3.59960E-001	-1.10273E+000	3.57790E+000	10	...........
	13	0.186667	2.75407E-001	-6.01153E-003	0.00000E+000	-1.65562E-003	-3.59960E-001	-1.11124E+000	3.57790E+000	10	...........
	14	0.2	2.67493E-001	-6.01436E-003	0.00000E+000	-1.60880E-003	-3.59960E-001	-1.10873E+000	3.57790E+000	10	...........
	15	0.213333	2.59693E-001	-6.01666E-003	0.00000E+000	-1.56248E-003	-3.59960E-001	-1.10313E+000	3.57790E+000	10	...........
	16	0.226667	2.51996E-001	-6.01235E-003	0.00000E+000	-1.51509E-003	-3.59960E-001	-1.11144E+000	3.57790E+000	10	...........
	17	0.24	2.44369E-001	-6.02123E-003	0.00000E+000	-1.47140E-003	-3.59960E-001	-1.10910E+000	3.57790E+000	10	...........
	18	0.253333	2.36820E-001	-6.01577E-003	0.00000E+000	-1.42465E-003	-3.59960E-001	-1.10345E+000	3.57790E+000	10	...........
	19	0.266667	2.29397E-001	-6.01189E-003	0.00000E+000	-1.37911E-003	-3.59960E-001	-1.11180E+000	3.57790E+000	10	...........
	20	0.28	2.22008E-001	-6.01707E-003	0.00000E+000	-1.33584E-003	-3.59960E-001	-1.10948E+000	3.57790E+000	10	...........
	21	0.293333	2.14728E-001	-6.01685E-003	0.00000E+000	-1.29199E-003	-3.59960E-001	-1.10341E+000	3.57790E+000	10	...........
	22	0.306667	2.07509E-001	-6.00972E-003	0.00000E+000	-1.24707E-003	-3.59960E-001	-1.11140E+000	3.57790E+000	10	...........
	23	0.32	2.00379E-001	-6.01542E-003	0.00000E+000	-1.20536E-003	-3.59960E-001	-1.10895E+000	3.57790E+000	10	...........
	24	0.333333	1.93346E-001	-6.01808E-003	0.00000E+000	-1.16357E-003	-3.59960E-001	-1.10310E+000	3.57790E+000	10	...........
	25	0.346667	1.86341E-001	-6.01348E-003	0.00000E+000	-1.12056E-003	-3.59960E-001	-1.11164E+000	3.57790E+000	10	...........
	26	0.36	1.79425E-001	-6.01634E-003	0.00000E+000	-1.07948E-003	-3.59960E-001	-1.10946E+000	3.57790E+000	10	...........
	27	0.373333	1.72625E-001	-6.01238E-003	0.00000E+000	-1.03788E-003	-3.59960E-001	-1.10347E+000	3.57790E+000	10	...........
	28	0.386667	1.65866E-001	-6.01389E-003	0.00000E+000	-9.97502E-004	-3.59960E-001	-1.11162E+000	3.57790E+000	10	...........
	29	0.4	1.59191E-001	-6.01379E-003	0.00000E+000	-9.57338E-004	-3.59960E-001	-1.10936E+000	3.57790E+000	10	...........
	30	0.413333	1.52603E-001	-6.01559E-003	0.00000E+000	-9.17995E-004	-3.59960E-001	-1.10366E+000	3.57790E+000	10	...........
	31	0.426667	1.46045E-001	-6.01549E-003	0.00000E+000	-8.78529E-004	-3.59960E-001	-1.11172E+000	3.57790E+000	10	...........
	32	0.44	1.39544E-001	-6.01294E-003	0.00000E+000	-8.39068E-004	-3.59960E-001	-1.10969E+000	3.57790E+000	10	...........
	33	0.453333	1.33127E-001	-6.01220E-003	0.00000E+000	-8.00387E-004	-3.59960E-001	-1.10348E+000	3.57790E+000	10	...........
	34	0.466667	1.26778E-001	-6.01309E-003	0.00000E+000	-7.62325E-004	-3.59960E-001	-1.11184E+000	3.57790E+000	10	...........
	35	0.48	1.20450E-001	-6.01796E-003	0.00000E+000	-7.24865E-004	-3.59960E-001	-1.10992E+000	3.57790E+000	10	...........
	36	0.493333	1.14220E-001	-6.01881E-003	0.00000E+000	-6.87469E-004	-3.59960E-001	-1.10376E+000	3.57790E+000	10	...........
	37	0.506667	1.08028E-001	-6.01273E-003	0.00000E+000	-6.49543E-004	-3.59960E-001	-1.11173E+000	3.57790E+000	10	...........
	38	0.52	1.01893E-001	-6.01710E-003	0.00000E+000	-6.13099E-004	-3.59960E-001	-1.11014E+000	3.57790E+000	10	...........
	39	0.533333	9.58154E-002	-6.01587E-003	0.00000E+000	-5.76413E-004	-3.59960E-001	-1.10412E+000	3.57790E+000	10	...........
	40	0.546667	8.98326E-002	-6.01349E-003	0.00000E+000	-5.40208E-004	-3.59960E-001	-1.11221E+000	3.57790E+000	10	...........
	41	0.56	8.38859E-002	-6.01586E-003	0.00000E+000	-5.04646E-004	-3.59960E-001	-1.11037E+000	3.57790E+000	10	...........
	42	0.573333	7.80029E-002	-6.01709E-003	0.00000E+000	-4.69351E-004	-3.59960E-001	-1.10381E+000	3.57790E+000	10	...........
	43	0.586667	7.22086E-002	-6.01641E-003	0.00000E+000	-4.34437E-004	-3.59960E-001	-1.11218E+000	3.57790E+000	10	...........
	44	0.6	6.64051E-002	-6.01604E-003	0.00000E+000	-3.99496E-004	-3.59960E-001	-1.11063E+000	3.57733E+000	10	...........
	45	0.613333	6.06923E-002	-6.01685E-003	0.00000E+000	-3.65176E-004	-3.59960E-001	-1.10401E+000	3.57690E+000	10	...........
	46	0.626667	5.50087E-002	-6.01139E-003	0.00000E+000	-3.30678E-004	-3.59960E-001	-1.11185E+000	3.57690E+000	10	...........
	47	0.64	4.93647E-002	-6.01415E-003	0.00000E+000	-2.96887E-004	-3.59960E-001	-1.11032E+000	3.57690E+000	10	...........
	48	0.653333	4.38122E-002	-6.01120E-003	0.00000E+000	-2.63364E-004	-3.59960E-001	-1.10401E+000	3.57690E+000	10	...........
	49	0.666667	3.82609E-002	-6.01527E-003	0.00000E+000	-2.30149E-004	-3.59960E-001	-1.11191E+000	3.57690E+000	10	...........
	50	0.68	3.27880E-002	-6.02192E-003	0.00000E+000	-1.97447E-004	-3.59960E-001	-1.11053E+000	3.57690E+000	10	...........
	51	0.693333	2.73584E-002	-6.01421E-003	0.00000E+000	-1.64539E-004	-3.59960E-001	-1.10406E+000	3.57690E+000	10	...........
	52	0.706667	2.19728E-002	-6.01703E-003	0.00000E+000	-1.32211E-004	-3.59960E-001	-1.11204E+000	3.57690E+000	10	...........
	53	0.72	1.66510E-002	-6.01660E-003	0.00000E+000	-1.00183E-004	-3.59960E-001	-1.11055E+000	3.57690E+000	10	...........
	54	0.733333	1.13137E-002	-6.01586E-003	0.00000E+000	-6.80618E-005	-3.59960E-001	-1.10421E+000	3.57690E+000	10	...........
	55	0.746667	6.08579E-003	-6.01478E-003	0.00000E+000	-3.66047E-005	-3.59960E-001	-1.11209E+000	3.57690E+000	10	...........
	56	0.756667	1.50379E-003	-6.01224E-003	0.00000E+000	-9.04116E-006	-3.59960E-001	-1.10817E+000	3.57690E+000	10	...........
STARTTIMEOFFSET	QUANT	927.1519	Start Time Offset (s)
