EXPLAIN
TAG	PWR800_DISCHARGE
TITLE	LABEL	PWR Cyclic Charge Discharge (Cell) - Discharge Step	Test &Identifier
DATE	LABEL	22-6-2017	Date
TIME	LABEL	15:43:12	Time
NOTES	NOTES	3	&Notes...
	supercap test cell
	0.6mg
	6M KOH
PSTAT	PSTAT	IFC5000-01520	Potentiostat
CAPACITY	QUANT	1.00000E-003	Capacity (A-hr)
CELLTYPE	SELECTOR	1	&Cell Type
WORKINGCONNECTION	SELECTOR	0	&Working Lead
MAXDISCHARGETIME	VARIABLEANDUNITS	1.00000E+002	s	1.00000E+002	second(s)	Max &Discharge Time
DISCHARGEMODE	MULTIPARAM	0	6.00000E-003	&Discharge Mode	Constant Current	Amp(s)
SAMPLETIME	QUANT	1.00000E-002	Sa&mple Period (s)
DISCHARGESTOPAT1	MULTIPARAM	3	0.00000E+000	Discharge Stop At &1	Voltage < Limit	V
DISCHARGESTOPAT2	MULTIPARAM	0	0.00000E+000	Discharge Stop At &2	None	N/A
AESBHCSELECTOR	TOGGLE	F	Save Both Half Cells
IRCOMP	TOGGLE	F	IR &Measure
EOC	QUANT	0	Open Circuit (V)
SEQUENCER	TOGGLE	TRUE	Run as Sequence
PSTATMODEL	IQUANT	53	Pstat Model
PSTATSECTION	LABEL	IFC5000-01520	Pstat Section
PSTATSERIALNO	LABEL	01520	Pstat Serial Number
CTRLMODE	IQUANT	0	Control Mode
ELECTROMETER	IQUANT	1	RE=0 or CS=1
IESTAB	IQUANT	0	I/E Stability
CASPEED	IQUANT	4	Control Amp Speed
CONVENTION	IQUANT	1	Current Convention
ICHRANGE	IQUANT	2	Ich Range
ICHRANGEMODE	TOGGLE	T	Ich Auto Range
ICHOFFSETENABLE	TOGGLE	F	Ich Offset Enable
ICHOFFSET	QUANT	0	Ich Offset (V)
ICHFILTER	IQUANT	1	Ich Filter
VCHRANGE	IQUANT	2	Vch Range
VCHRANGEMODE	TOGGLE	T	Vch Auto Range
VCHOFFSETENABLE	TOGGLE	F	Vch Offset Enable
VCHOFFSET	QUANT	0	Vch Offset (V)
VCHFILTER	IQUANT	1	Vch Filter
IERANGELOWERLIMIT	IQUANT	9	I/E Range Lower Limit
IERANGEMODE	TOGGLE	F	I/E AutoRange
IERANGE	IQUANT	10	I/E Range
ACHSELECT	IQUANT	1	Ach Select
ACHRANGE	IQUANT	2	Ach Range
ACHOFFSETENABLE	TOGGLE	F	Ach Offset Enable
ACHOFFSET	QUANT	0	Ach Offset (V)
ACHFILTER	IQUANT	1	Ach Filter
CABLEID	IQUANT	14	Cable ID
DCCALDATE	LABEL	20-10-2016	DC Calibration Date
ACCALDATE	LABEL	12/3/2015	AC Calibration Date
FRAMEWORKVERSION	QUANT	7.01	Framework Version
INSTRUMENTVERSION	LABEL	4.00	Instrument Version
CURVE	TABLE	65
	Pt	T	Vf	Im	Vu	Pwr	Sig	Ach	Temp	IERange	Over
	#	s	V	A	V	W	V	V	deg C	#	bits
	0	0.013333	4.16493E-001	-6.01661E-003	0.00000E+000	-2.50587E-003	-3.59960E-001	-1.04773E+000	3.57820E+000	10	...........
	1	0.026667	4.06009E-001	-6.01407E-003	0.00000E+000	-2.44177E-003	-3.59960E-001	-1.05015E+000	3.57820E+000	10	...........
	2	0.04	3.96249E-001	-6.01319E-003	0.00000E+000	-2.38272E-003	-3.59960E-001	-1.05806E+000	3.57820E+000	10	...........
	3	0.053333	3.86965E-001	-6.01113E-003	0.00000E+000	-2.32609E-003	-3.59960E-001	-1.04819E+000	3.57820E+000	10	...........
	4	0.066667	3.78050E-001	-6.01426E-003	0.00000E+000	-2.27369E-003	-3.59960E-001	-1.05020E+000	3.57820E+000	10	...........
	5	0.08	3.69420E-001	-6.01506E-003	0.00000E+000	-2.22208E-003	-3.59960E-001	-1.05826E+000	3.57820E+000	10	...........
	6	0.093333	3.60968E-001	-6.01675E-003	0.00000E+000	-2.17185E-003	-3.59960E-001	-1.04825E+000	3.57820E+000	10	...........
	7	0.106667	3.52722E-001	-6.01264E-003	0.00000E+000	-2.12079E-003	-3.59960E-001	-1.05043E+000	3.57820E+000	10	...........
	8	0.12	3.44578E-001	-6.01927E-003	0.00000E+000	-2.07411E-003	-3.59960E-001	-1.05839E+000	3.57820E+000	10	...........
	9	0.133333	3.36599E-001	-6.01787E-003	0.00000E+000	-2.02561E-003	-3.59960E-001	-1.04855E+000	3.57820E+000	10	...........
	10	0.146667	3.28743E-001	-6.01773E-003	0.00000E+000	-1.97828E-003	-3.59960E-001	-1.05062E+000	3.57820E+000	10	...........
	11	0.16	3.20982E-001	-6.01720E-003	0.00000E+000	-1.93141E-003	-3.59960E-001	-1.05897E+000	3.57820E+000	10	...........
	12	0.173333	3.13326E-001	-6.01894E-003	0.00000E+000	-1.88589E-003	-3.59960E-001	-1.04896E+000	3.57820E+000	10	...........
	13	0.186667	3.05739E-001	-6.01507E-003	0.00000E+000	-1.83904E-003	-3.59960E-001	-1.05108E+000	3.57820E+000	10	...........
	14	0.2	2.98256E-001	-6.01422E-003	0.00000E+000	-1.79378E-003	-3.59960E-001	-1.05899E+000	3.57811E+000	10	...........
	15	0.213333	2.90849E-001	-6.00759E-003	0.00000E+000	-1.74730E-003	-3.59960E-001	-1.04905E+000	3.57750E+000	10	...........
	16	0.226667	2.83566E-001	-6.01415E-003	0.00000E+000	-1.70541E-003	-3.59960E-001	-1.05117E+000	3.57750E+000	10	...........
	17	0.24	2.76367E-001	-6.01588E-003	0.00000E+000	-1.66259E-003	-3.59960E-001	-1.05923E+000	3.57750E+000	10	...........
	18	0.253333	2.69222E-001	-6.01776E-003	0.00000E+000	-1.62011E-003	-3.59960E-001	-1.04918E+000	3.57750E+000	10	...........
	19	0.266667	2.62176E-001	-6.01610E-003	0.00000E+000	-1.57728E-003	-3.59960E-001	-1.05083E+000	3.57750E+000	10	...........
	20	0.28	2.55160E-001	-6.01400E-003	0.00000E+000	-1.53453E-003	-3.59960E-001	-1.05922E+000	3.57750E+000	10	...........
	21	0.293333	2.48207E-001	-6.01813E-003	0.00000E+000	-1.49375E-003	-3.59960E-001	-1.04935E+000	3.57750E+000	10	...........
	22	0.306667	2.41348E-001	-6.01904E-003	0.00000E+000	-1.45269E-003	-3.59960E-001	-1.05104E+000	3.57750E+000	10	...........
	23	0.32	2.34553E-001	-6.01643E-003	0.00000E+000	-1.41117E-003	-3.59960E-001	-1.05926E+000	3.57750E+000	10	...........
	24	0.333333	2.27853E-001	-6.01629E-003	0.00000E+000	-1.37083E-003	-3.59960E-001	-1.04917E+000	3.57750E+000	10	...........
	25	0.346667	2.21188E-001	-6.01537E-003	0.00000E+000	-1.33053E-003	-3.59960E-001	-1.05112E+000	3.57750E+000	10	...........
	26	0.36	2.14576E-001	-6.01643E-003	0.00000E+000	-1.29098E-003	-3.59960E-001	-1.05949E+000	3.57750E+000	10	...........
	27	0.373333	2.08078E-001	-6.01492E-003	0.00000E+000	-1.25158E-003	-3.59960E-001	-1.04946E+000	3.57750E+000	10	...........
	28	0.386667	2.01594E-001	-6.01371E-003	0.00000E+000	-1.21233E-003	-3.59960E-001	-1.05110E+000	3.57750E+000	10	...........
	29	0.4	1.95163E-001	-6.01148E-003	0.00000E+000	-1.17322E-003	-3.59960E-001	-1.05950E+000	3.57750E+000	10	...........
	30	0.413333	1.88815E-001	-6.01192E-003	0.00000E+000	-1.13514E-003	-3.59960E-001	-1.04976E+000	3.57750E+000	10	...........
	31	0.426667	1.82491E-001	-6.01394E-003	0.00000E+000	-1.09749E-003	-3.59960E-001	-1.05128E+000	3.57750E+000	10	...........
	32	0.44	1.76245E-001	-6.01512E-003	0.00000E+000	-1.06014E-003	-3.59960E-001	-1.05991E+000	3.57750E+000	10	...........
	33	0.453333	1.70069E-001	-6.01562E-003	0.00000E+000	-1.02307E-003	-3.59960E-001	-1.04973E+000	3.57750E+000	10	...........
	34	0.466667	1.63930E-001	-6.01497E-003	0.00000E+000	-9.86037E-004	-3.59960E-001	-1.05142E+000	3.57750E+000	10	...........
	35	0.48	1.57860E-001	-6.01221E-003	0.00000E+000	-9.49090E-004	-3.59960E-001	-1.06018E+000	3.57750E+000	10	...........
	36	0.493333	1.51796E-001	-6.01652E-003	0.00000E+000	-9.13285E-004	-3.59960E-001	-1.05015E+000	3.57750E+000	10	...........
	37	0.506667	1.45795E-001	-6.01604E-003	0.00000E+000	-8.77111E-004	-3.59960E-001	-1.05179E+000	3.57750E+000	10	...........
	38	0.52	1.39848E-001	-6.01335E-003	0.00000E+000	-8.40957E-004	-3.59960E-001	-1.06016E+000	3.57750E+000	10	...........
	39	0.533333	1.33984E-001	-6.01480E-003	0.00000E+000	-8.05884E-004	-3.59960E-001	-1.05022E+000	3.57750E+000	10	...........
	40	0.546667	1.28115E-001	-6.01461E-003	0.00000E+000	-7.70559E-004	-3.59960E-001	-1.05154E+000	3.57750E+000	10	...........
	41	0.56	1.22334E-001	-6.01898E-003	0.00000E+000	-7.36325E-004	-3.59960E-001	-1.06012E+000	3.57750E+000	10	...........
	42	0.573333	1.16598E-001	-6.01652E-003	0.00000E+000	-7.01514E-004	-3.59960E-001	-1.04984E+000	3.57750E+000	10	...........
	43	0.586667	1.10918E-001	-6.01662E-003	0.00000E+000	-6.67352E-004	-3.59960E-001	-1.05121E+000	3.57750E+000	10	...........
	44	0.6	1.05251E-001	-6.01203E-003	0.00000E+000	-6.32773E-004	-3.59960E-001	-1.06021E+000	3.57750E+000	10	...........
	45	0.613333	9.96155E-002	-6.01640E-003	0.00000E+000	-5.99327E-004	-3.59960E-001	-1.05009E+000	3.57750E+000	10	...........
	46	0.626667	9.40350E-002	-6.01491E-003	0.00000E+000	-5.65612E-004	-3.59960E-001	-1.05160E+000	3.57750E+000	10	...........
	47	0.64	8.84866E-002	-6.01723E-003	0.00000E+000	-5.32444E-004	-3.59960E-001	-1.06024E+000	3.57750E+000	10	...........
	48	0.653333	8.29801E-002	-6.01385E-003	0.00000E+000	-4.99030E-004	-3.59960E-001	-1.04991E+000	3.57750E+000	10	...........
	49	0.666667	7.75527E-002	-6.01560E-003	0.00000E+000	-4.66526E-004	-3.59960E-001	-1.05131E+000	3.57750E+000	10	...........
	50	0.68	7.21375E-002	-6.01817E-003	0.00000E+000	-4.34135E-004	-3.59960E-001	-1.06022E+000	3.57750E+000	10	...........
	51	0.693333	6.67618E-002	-6.01549E-003	0.00000E+000	-4.01605E-004	-3.59960E-001	-1.05020E+000	3.57750E+000	10	...........
	52	0.706667	6.14490E-002	-6.01435E-003	0.00000E+000	-3.69576E-004	-3.59960E-001	-1.05132E+000	3.57750E+000	10	...........
	53	0.72	5.61134E-002	-6.01652E-003	0.00000E+000	-3.37607E-004	-3.59960E-001	-1.06014E+000	3.57750E+000	10	...........
	54	0.733333	5.08809E-002	-6.01391E-003	0.00000E+000	-3.05993E-004	-3.59960E-001	-1.05012E+000	3.57750E+000	10	...........
	55	0.746667	4.57085E-002	-6.01477E-003	0.00000E+000	-2.74926E-004	-3.59960E-001	-1.05148E+000	3.57750E+000	10	...........
	56	0.76	4.05252E-002	-6.01962E-003	0.00000E+000	-2.43946E-004	-3.59960E-001	-1.06050E+000	3.57750E+000	10	...........
	57	0.773333	3.53942E-002	-6.01594E-003	0.00000E+000	-2.12930E-004	-3.59960E-001	-1.05029E+000	3.57750E+000	10	...........
	58	0.786667	3.02710E-002	-6.01191E-003	0.00000E+000	-1.81987E-004	-3.59960E-001	-1.05154E+000	3.57750E+000	10	...........
	59	0.8	2.51913E-002	-6.01629E-003	0.00000E+000	-1.51558E-004	-3.59960E-001	-1.06062E+000	3.57750E+000	10	...........
	60	0.813333	2.01577E-002	-6.01384E-003	0.00000E+000	-1.21225E-004	-3.59960E-001	-1.05053E+000	3.57750E+000	10	...........
	61	0.826667	1.51501E-002	-6.01463E-003	0.00000E+000	-9.11223E-005	-3.59960E-001	-1.05172E+000	3.57750E+000	10	...........
	62	0.84	1.01935E-002	-6.01389E-003	0.00000E+000	-6.13024E-005	-3.59960E-001	-1.06072E+000	3.57750E+000	10	...........
	63	0.853333	5.26020E-003	-6.01256E-003	0.00000E+000	-3.16273E-005	-3.59960E-001	-1.05038E+000	3.57750E+000	10	...........
	64	0.863333	9.68119E-004	-6.01050E-003	0.00000E+000	-5.81888E-006	-3.59960E-001	-1.05570E+000	3.57750E+000	10	...........
STARTTIMEOFFSET	QUANT	347.9018	Start Time Offset (s)
