EXPLAIN
TAG	PWR800_DISCHARGE
TITLE	LABEL	PWR Cyclic Charge Discharge (Cell) - Discharge Step	Test &Identifier
DATE	LABEL	22-6-2017	Date
TIME	LABEL	15:46:04	Time
NOTES	NOTES	3	&Notes...
	supercap test cell
	0.6mg
	6M KOH
PSTAT	PSTAT	IFC5000-01520	Potentiostat
CAPACITY	QUANT	1.00000E-003	Capacity (A-hr)
CELLTYPE	SELECTOR	1	&Cell Type
WORKINGCONNECTION	SELECTOR	0	&Working Lead
MAXDISCHARGETIME	VARIABLEANDUNITS	1.00000E+002	s	1.00000E+002	second(s)	Max &Discharge Time
DISCHARGEMODE	MULTIPARAM	0	6.00000E-003	&Discharge Mode	Constant Current	Amp(s)
SAMPLETIME	QUANT	1.00000E-002	Sa&mple Period (s)
DISCHARGESTOPAT1	MULTIPARAM	3	0.00000E+000	Discharge Stop At &1	Voltage < Limit	V
DISCHARGESTOPAT2	MULTIPARAM	0	0.00000E+000	Discharge Stop At &2	None	N/A
AESBHCSELECTOR	TOGGLE	F	Save Both Half Cells
IRCOMP	TOGGLE	F	IR &Measure
EOC	QUANT	0	Open Circuit (V)
SEQUENCER	TOGGLE	TRUE	Run as Sequence
PSTATMODEL	IQUANT	53	Pstat Model
PSTATSECTION	LABEL	IFC5000-01520	Pstat Section
PSTATSERIALNO	LABEL	01520	Pstat Serial Number
CTRLMODE	IQUANT	0	Control Mode
ELECTROMETER	IQUANT	1	RE=0 or CS=1
IESTAB	IQUANT	0	I/E Stability
CASPEED	IQUANT	4	Control Amp Speed
CONVENTION	IQUANT	1	Current Convention
ICHRANGE	IQUANT	2	Ich Range
ICHRANGEMODE	TOGGLE	T	Ich Auto Range
ICHOFFSETENABLE	TOGGLE	F	Ich Offset Enable
ICHOFFSET	QUANT	0	Ich Offset (V)
ICHFILTER	IQUANT	1	Ich Filter
VCHRANGE	IQUANT	2	Vch Range
VCHRANGEMODE	TOGGLE	T	Vch Auto Range
VCHOFFSETENABLE	TOGGLE	F	Vch Offset Enable
VCHOFFSET	QUANT	0	Vch Offset (V)
VCHFILTER	IQUANT	1	Vch Filter
IERANGELOWERLIMIT	IQUANT	9	I/E Range Lower Limit
IERANGEMODE	TOGGLE	F	I/E AutoRange
IERANGE	IQUANT	10	I/E Range
ACHSELECT	IQUANT	1	Ach Select
ACHRANGE	IQUANT	2	Ach Range
ACHOFFSETENABLE	TOGGLE	F	Ach Offset Enable
ACHOFFSET	QUANT	0	Ach Offset (V)
ACHFILTER	IQUANT	1	Ach Filter
CABLEID	IQUANT	14	Cable ID
DCCALDATE	LABEL	20-10-2016	DC Calibration Date
ACCALDATE	LABEL	12/3/2015	AC Calibration Date
FRAMEWORKVERSION	QUANT	7.01	Framework Version
INSTRUMENTVERSION	LABEL	4.00	Instrument Version
CURVE	TABLE	63
	Pt	T	Vf	Im	Vu	Pwr	Sig	Ach	Temp	IERange	Over
	#	s	V	A	V	W	V	V	deg C	#	bits
	0	0.013333	4.11373E-001	-6.01643E-003	0.00000E+000	-2.47500E-003	-3.59960E-001	-1.07148E+000	3.57670E+000	10	...........
	1	0.026667	4.00681E-001	-6.01447E-003	0.00000E+000	-2.40989E-003	-3.59960E-001	-1.06271E+000	3.57670E+000	10	...........
	2	0.04	3.90748E-001	-6.01242E-003	0.00000E+000	-2.34934E-003	-3.59960E-001	-1.06614E+000	3.57670E+000	10	...........
	3	0.053333	3.81367E-001	-6.01459E-003	0.00000E+000	-2.29377E-003	-3.59960E-001	-1.07202E+000	3.57670E+000	10	...........
	4	0.066667	3.72324E-001	-6.01450E-003	0.00000E+000	-2.23934E-003	-3.59960E-001	-1.06303E+000	3.57670E+000	10	...........
	5	0.08	3.63539E-001	-6.01481E-003	0.00000E+000	-2.18661E-003	-3.59960E-001	-1.06627E+000	3.57670E+000	10	...........
	6	0.093333	3.54951E-001	-6.01832E-003	0.00000E+000	-2.13621E-003	-3.59960E-001	-1.07231E+000	3.57670E+000	10	...........
	7	0.106667	3.46540E-001	-6.01251E-003	0.00000E+000	-2.08358E-003	-3.59960E-001	-1.06334E+000	3.57670E+000	10	...........
	8	0.12	3.38296E-001	-6.01803E-003	0.00000E+000	-2.03588E-003	-3.59960E-001	-1.06665E+000	3.57670E+000	10	...........
	9	0.133333	3.30206E-001	-6.01681E-003	0.00000E+000	-1.98678E-003	-3.59960E-001	-1.07263E+000	3.57670E+000	10	...........
	10	0.146667	3.22200E-001	-6.01591E-003	0.00000E+000	-1.93833E-003	-3.59960E-001	-1.06352E+000	3.57670E+000	10	...........
	11	0.16	3.14330E-001	-6.01320E-003	0.00000E+000	-1.89013E-003	-3.59960E-001	-1.06663E+000	3.57670E+000	10	...........
	12	0.173333	3.06530E-001	-6.01502E-003	0.00000E+000	-1.84378E-003	-3.59960E-001	-1.07249E+000	3.57670E+000	10	...........
	13	0.186667	2.98834E-001	-6.01121E-003	0.00000E+000	-1.79635E-003	-3.59960E-001	-1.06389E+000	3.57670E+000	10	...........
	14	0.2	2.91235E-001	-6.01366E-003	0.00000E+000	-1.75139E-003	-3.59960E-001	-1.06655E+000	3.57670E+000	10	...........
	15	0.213333	2.83722E-001	-6.01559E-003	0.00000E+000	-1.70675E-003	-3.59960E-001	-1.07270E+000	3.57670E+000	10	...........
	16	0.226667	2.76305E-001	-6.01750E-003	0.00000E+000	-1.66267E-003	-3.59960E-001	-1.06327E+000	3.57670E+000	10	...........
	17	0.24	2.68981E-001	-6.01475E-003	0.00000E+000	-1.61785E-003	-3.59960E-001	-1.06626E+000	3.57670E+000	10	...........
	18	0.253333	2.61727E-001	-6.01203E-003	0.00000E+000	-1.57351E-003	-3.59960E-001	-1.07263E+000	3.57670E+000	10	...........
	19	0.266667	2.54530E-001	-6.01757E-003	0.00000E+000	-1.53165E-003	-3.59960E-001	-1.06381E+000	3.57670E+000	10	...........
	20	0.28	2.47409E-001	-6.01356E-003	0.00000E+000	-1.48781E-003	-3.59960E-001	-1.06643E+000	3.57670E+000	10	...........
	21	0.293333	2.40385E-001	-6.01394E-003	0.00000E+000	-1.44566E-003	-3.59960E-001	-1.07272E+000	3.57670E+000	10	...........
	22	0.306667	2.33448E-001	-6.02065E-003	0.00000E+000	-1.40551E-003	-3.59960E-001	-1.06392E+000	3.57670E+000	10	...........
	23	0.32	2.26577E-001	-6.01804E-003	0.00000E+000	-1.36355E-003	-3.59960E-001	-1.06678E+000	3.57670E+000	10	...........
	24	0.333333	2.19758E-001	-6.01308E-003	0.00000E+000	-1.32142E-003	-3.59960E-001	-1.07331E+000	3.57670E+000	10	...........
	25	0.346667	2.12985E-001	-6.01445E-003	0.00000E+000	-1.28099E-003	-3.59960E-001	-1.06394E+000	3.57670E+000	10	...........
	26	0.36	2.06257E-001	-6.01628E-003	0.00000E+000	-1.24090E-003	-3.59960E-001	-1.06655E+000	3.57670E+000	10	...........
	27	0.373333	1.99599E-001	-6.01146E-003	0.00000E+000	-1.19988E-003	-3.59960E-001	-1.07332E+000	3.57670E+000	10	...........
	28	0.386667	1.93051E-001	-6.01855E-003	0.00000E+000	-1.16189E-003	-3.59960E-001	-1.06417E+000	3.57670E+000	10	...........
	29	0.4	1.86552E-001	-6.01614E-003	0.00000E+000	-1.12232E-003	-3.59960E-001	-1.06690E+000	3.57670E+000	10	...........
	30	0.413333	1.80103E-001	-6.01352E-003	0.00000E+000	-1.08306E-003	-3.59960E-001	-1.07362E+000	3.57670E+000	10	...........
	31	0.426667	1.73706E-001	-6.01641E-003	0.00000E+000	-1.04509E-003	-3.59960E-001	-1.06420E+000	3.57670E+000	10	...........
	32	0.44	1.67385E-001	-6.01432E-003	0.00000E+000	-1.00670E-003	-3.59960E-001	-1.06704E+000	3.57670E+000	10	...........
	33	0.453333	1.61081E-001	-6.01293E-003	0.00000E+000	-9.68567E-004	-3.59960E-001	-1.07382E+000	3.57670E+000	10	...........
	34	0.466667	1.54869E-001	-6.01986E-003	0.00000E+000	-9.32287E-004	-3.59960E-001	-1.06459E+000	3.57670E+000	10	...........
	35	0.48	1.48747E-001	-6.01301E-003	0.00000E+000	-8.94417E-004	-3.59960E-001	-1.06720E+000	3.57670E+000	10	...........
	36	0.493333	1.42652E-001	-6.01813E-003	0.00000E+000	-8.58502E-004	-3.59960E-001	-1.07380E+000	3.57670E+000	10	...........
	37	0.506667	1.36597E-001	-6.01389E-003	0.00000E+000	-8.21482E-004	-3.59960E-001	-1.06455E+000	3.57670E+000	10	...........
	38	0.52	1.30581E-001	-6.01486E-003	0.00000E+000	-7.85429E-004	-3.59960E-001	-1.06700E+000	3.57670E+000	10	...........
	39	0.533333	1.24634E-001	-6.01530E-003	0.00000E+000	-7.49713E-004	-3.59960E-001	-1.07390E+000	3.57670E+000	10	...........
	40	0.546667	1.18793E-001	-6.01058E-003	0.00000E+000	-7.14012E-004	-3.59960E-001	-1.06458E+000	3.57670E+000	10	...........
	41	0.56	1.12889E-001	-6.01771E-003	0.00000E+000	-6.79330E-004	-3.59960E-001	-1.06693E+000	3.57670E+000	10	...........
	42	0.573333	1.07087E-001	-6.01250E-003	0.00000E+000	-6.43862E-004	-3.59960E-001	-1.07387E+000	3.57670E+000	10	...........
	43	0.586667	1.01340E-001	-6.01240E-003	0.00000E+000	-6.09296E-004	-3.59960E-001	-1.06470E+000	3.57670E+000	10	...........
	44	0.6	9.56308E-002	-6.01266E-003	0.00000E+000	-5.74995E-004	-3.59960E-001	-1.06731E+000	3.57670E+000	10	...........
	45	0.613333	8.99762E-002	-6.01389E-003	0.00000E+000	-5.41107E-004	-3.59960E-001	-1.07402E+000	3.57670E+000	10	...........
	46	0.626667	8.43718E-002	-6.01723E-003	0.00000E+000	-5.07684E-004	-3.59960E-001	-1.06463E+000	3.57670E+000	10	...........
	47	0.64	7.87937E-002	-6.01664E-003	0.00000E+000	-4.74074E-004	-3.59960E-001	-1.06702E+000	3.57670E+000	10	...........
	48	0.653333	7.32757E-002	-6.01401E-003	0.00000E+000	-4.40681E-004	-3.59960E-001	-1.07425E+000	3.57670E+000	10	...........
	49	0.666667	6.77541E-002	-6.01267E-003	0.00000E+000	-4.07383E-004	-3.59960E-001	-1.06492E+000	3.57670E+000	10	...........
	50	0.68	6.23051E-002	-6.01532E-003	0.00000E+000	-3.74785E-004	-3.59960E-001	-1.06705E+000	3.57670E+000	10	...........
	51	0.693333	5.69242E-002	-6.01635E-003	0.00000E+000	-3.42476E-004	-3.59960E-001	-1.07441E+000	3.57670E+000	10	...........
	52	0.706667	5.15535E-002	-6.01653E-003	0.00000E+000	-3.10173E-004	-3.59960E-001	-1.06514E+000	3.57670E+000	10	...........
	53	0.72	4.63203E-002	-6.01329E-003	0.00000E+000	-2.78538E-004	-3.59960E-001	-1.06730E+000	3.57670E+000	10	...........
	54	0.733333	4.10371E-002	-6.01335E-003	0.00000E+000	-2.46770E-004	-3.59960E-001	-1.07481E+000	3.57670E+000	10	...........
	55	0.746667	3.57847E-002	-6.01567E-003	0.00000E+000	-2.15269E-004	-3.59960E-001	-1.06533E+000	3.57670E+000	10	...........
	56	0.76	3.06233E-002	-6.01494E-003	0.00000E+000	-1.84197E-004	-3.59960E-001	-1.06738E+000	3.57670E+000	10	...........
	57	0.773333	2.54693E-002	-6.01255E-003	0.00000E+000	-1.53135E-004	-3.59960E-001	-1.07487E+000	3.57670E+000	10	...........
	58	0.786667	2.03426E-002	-6.01521E-003	0.00000E+000	-1.22365E-004	-3.59960E-001	-1.06554E+000	3.57670E+000	10	...........
	59	0.8	1.52366E-002	-6.01633E-003	0.00000E+000	-9.16687E-005	-3.59960E-001	-1.06759E+000	3.57670E+000	10	...........
	60	0.813333	1.01954E-002	-6.01576E-003	0.00000E+000	-6.13333E-005	-3.59960E-001	-1.07508E+000	3.57670E+000	10	...........
	61	0.826667	5.16734E-003	-6.01330E-003	0.00000E+000	-3.10728E-005	-3.59960E-001	-1.06561E+000	3.57670E+000	10	...........
	62	0.835	1.10454E-003	-6.01222E-003	0.00000E+000	-6.64071E-006	-3.59960E-001	-1.07498E+000	3.57670E+000	10	...........
STARTTIMEOFFSET	QUANT	465.5268	Start Time Offset (s)
