EXPLAIN
TAG	PWR800_DISCHARGE
TITLE	LABEL	PWR Cyclic Charge Discharge (Cell) - Discharge Step	Test &Identifier
DATE	LABEL	22-6-2017	Date
TIME	LABEL	16:13:36	Time
NOTES	NOTES	3	&Notes...
	supercap test cell
	0.6mg
	6M KOH
PSTAT	PSTAT	IFC5000-01520	Potentiostat
CAPACITY	QUANT	1.00000E-003	Capacity (A-hr)
CELLTYPE	SELECTOR	1	&Cell Type
WORKINGCONNECTION	SELECTOR	0	&Working Lead
MAXDISCHARGETIME	VARIABLEANDUNITS	1.00000E+002	s	1.00000E+002	second(s)	Max &Discharge Time
DISCHARGEMODE	MULTIPARAM	0	6.00000E-003	&Discharge Mode	Constant Current	Amp(s)
SAMPLETIME	QUANT	1.00000E-002	Sa&mple Period (s)
DISCHARGESTOPAT1	MULTIPARAM	3	0.00000E+000	Discharge Stop At &1	Voltage < Limit	V
DISCHARGESTOPAT2	MULTIPARAM	0	0.00000E+000	Discharge Stop At &2	None	N/A
AESBHCSELECTOR	TOGGLE	F	Save Both Half Cells
IRCOMP	TOGGLE	F	IR &Measure
EOC	QUANT	0	Open Circuit (V)
SEQUENCER	TOGGLE	TRUE	Run as Sequence
PSTATMODEL	IQUANT	53	Pstat Model
PSTATSECTION	LABEL	IFC5000-01520	Pstat Section
PSTATSERIALNO	LABEL	01520	Pstat Serial Number
CTRLMODE	IQUANT	0	Control Mode
ELECTROMETER	IQUANT	1	RE=0 or CS=1
IESTAB	IQUANT	0	I/E Stability
CASPEED	IQUANT	4	Control Amp Speed
CONVENTION	IQUANT	1	Current Convention
ICHRANGE	IQUANT	2	Ich Range
ICHRANGEMODE	TOGGLE	T	Ich Auto Range
ICHOFFSETENABLE	TOGGLE	F	Ich Offset Enable
ICHOFFSET	QUANT	0	Ich Offset (V)
ICHFILTER	IQUANT	1	Ich Filter
VCHRANGE	IQUANT	2	Vch Range
VCHRANGEMODE	TOGGLE	T	Vch Auto Range
VCHOFFSETENABLE	TOGGLE	F	Vch Offset Enable
VCHOFFSET	QUANT	0	Vch Offset (V)
VCHFILTER	IQUANT	1	Vch Filter
IERANGELOWERLIMIT	IQUANT	9	I/E Range Lower Limit
IERANGEMODE	TOGGLE	F	I/E AutoRange
IERANGE	IQUANT	10	I/E Range
ACHSELECT	IQUANT	1	Ach Select
ACHRANGE	IQUANT	2	Ach Range
ACHOFFSETENABLE	TOGGLE	F	Ach Offset Enable
ACHOFFSET	QUANT	0	Ach Offset (V)
ACHFILTER	IQUANT	1	Ach Filter
CABLEID	IQUANT	14	Cable ID
DCCALDATE	LABEL	20-10-2016	DC Calibration Date
ACCALDATE	LABEL	12/3/2015	AC Calibration Date
FRAMEWORKVERSION	QUANT	7.01	Framework Version
INSTRUMENTVERSION	LABEL	4.00	Instrument Version
CURVE	TABLE	52
	Pt	T	Vf	Im	Vu	Pwr	Sig	Ach	Temp	IERange	Over
	#	s	V	A	V	W	V	V	deg C	#	bits
	0	0.013333	3.77360E-001	-6.01797E-003	0.00000E+000	-2.27094E-003	-3.59960E-001	-1.13837E+000	3.57780E+000	10	...........
	1	0.026667	3.65739E-001	-6.01220E-003	0.00000E+000	-2.19889E-003	-3.59960E-001	-1.14814E+000	3.57780E+000	10	...........
	2	0.04	3.54942E-001	-6.01282E-003	0.00000E+000	-2.13420E-003	-3.59960E-001	-1.13760E+000	3.57780E+000	10	...........
	3	0.053333	3.44688E-001	-6.01506E-003	0.00000E+000	-2.07332E-003	-3.59960E-001	-1.13833E+000	3.57780E+000	10	...........
	4	0.066667	3.34861E-001	-6.01619E-003	0.00000E+000	-2.01459E-003	-3.59960E-001	-1.14870E+000	3.57780E+000	10	...........
	5	0.08	3.25321E-001	-6.01961E-003	0.00000E+000	-1.95830E-003	-3.59960E-001	-1.13804E+000	3.57780E+000	10	...........
	6	0.093333	3.15940E-001	-6.01965E-003	0.00000E+000	-1.90185E-003	-3.59960E-001	-1.13856E+000	3.57780E+000	10	...........
	7	0.106667	3.06816E-001	-6.01458E-003	0.00000E+000	-1.84537E-003	-3.59960E-001	-1.14858E+000	3.57780E+000	10	...........
	8	0.12	2.97815E-001	-6.01761E-003	0.00000E+000	-1.79214E-003	-3.59960E-001	-1.13819E+000	3.57780E+000	10	...........
	9	0.133333	2.88989E-001	-6.01264E-003	0.00000E+000	-1.73759E-003	-3.59960E-001	-1.13915E+000	3.57780E+000	10	...........
	10	0.146667	2.80285E-001	-6.01307E-003	0.00000E+000	-1.68537E-003	-3.59960E-001	-1.14903E+000	3.57780E+000	10	...........
	11	0.16	2.71739E-001	-6.01266E-003	0.00000E+000	-1.63388E-003	-3.59960E-001	-1.13844E+000	3.57780E+000	10	...........
	12	0.173333	2.63303E-001	-6.01192E-003	0.00000E+000	-1.58295E-003	-3.59960E-001	-1.13914E+000	3.57780E+000	10	...........
	13	0.186667	2.54968E-001	-6.01632E-003	0.00000E+000	-1.53397E-003	-3.59960E-001	-1.14932E+000	3.57780E+000	10	...........
	14	0.2	2.46757E-001	-6.01581E-003	0.00000E+000	-1.48445E-003	-3.59960E-001	-1.13888E+000	3.57780E+000	10	...........
	15	0.213333	2.38631E-001	-6.01361E-003	0.00000E+000	-1.43504E-003	-3.59960E-001	-1.13959E+000	3.57780E+000	10	...........
	16	0.226667	2.30598E-001	-6.00971E-003	0.00000E+000	-1.38583E-003	-3.59960E-001	-1.14964E+000	3.57780E+000	10	...........
	17	0.24	2.22691E-001	-6.01457E-003	0.00000E+000	-1.33939E-003	-3.59960E-001	-1.13888E+000	3.57780E+000	10	...........
	18	0.253333	2.14874E-001	-6.01095E-003	0.00000E+000	-1.29160E-003	-3.59960E-001	-1.13958E+000	3.57780E+000	10	...........
	19	0.266667	2.07152E-001	-6.01946E-003	0.00000E+000	-1.24694E-003	-3.59960E-001	-1.14980E+000	3.57780E+000	10	...........
	20	0.28	1.99534E-001	-6.01107E-003	0.00000E+000	-1.19941E-003	-3.59960E-001	-1.13881E+000	3.57780E+000	10	...........
	21	0.293333	1.92025E-001	-6.01230E-003	0.00000E+000	-1.15451E-003	-3.59960E-001	-1.13942E+000	3.57780E+000	10	...........
	22	0.306667	1.84570E-001	-6.01852E-003	0.00000E+000	-1.11084E-003	-3.59960E-001	-1.14960E+000	3.57780E+000	10	...........
	23	0.32	1.77214E-001	-6.01487E-003	0.00000E+000	-1.06592E-003	-3.59960E-001	-1.13892E+000	3.57780E+000	10	...........
	24	0.333333	1.69936E-001	-6.01971E-003	0.00000E+000	-1.02296E-003	-3.59960E-001	-1.13966E+000	3.57780E+000	10	...........
	25	0.346667	1.62760E-001	-6.01093E-003	0.00000E+000	-9.78336E-004	-3.59960E-001	-1.14978E+000	3.57780E+000	10	...........
	26	0.36	1.55664E-001	-6.01540E-003	0.00000E+000	-9.36381E-004	-3.59960E-001	-1.13929E+000	3.57780E+000	10	...........
	27	0.373333	1.48665E-001	-6.01556E-003	0.00000E+000	-8.94303E-004	-3.59960E-001	-1.13971E+000	3.57780E+000	10	...........
	28	0.386667	1.41724E-001	-6.00742E-003	0.00000E+000	-8.51397E-004	-3.59960E-001	-1.14974E+000	3.57780E+000	10	...........
	29	0.4	1.34876E-001	-6.01460E-003	0.00000E+000	-8.11222E-004	-3.59960E-001	-1.13930E+000	3.57780E+000	10	...........
	30	0.413333	1.28079E-001	-6.01239E-003	0.00000E+000	-7.70059E-004	-3.59960E-001	-1.13996E+000	3.57780E+000	10	...........
	31	0.426667	1.21350E-001	-6.01034E-003	0.00000E+000	-7.29357E-004	-3.59960E-001	-1.14996E+000	3.57780E+000	10	...........
	32	0.44	1.14753E-001	-6.01427E-003	0.00000E+000	-6.90154E-004	-3.59960E-001	-1.13919E+000	3.57780E+000	10	...........
	33	0.453333	1.08210E-001	-6.01519E-003	0.00000E+000	-6.50901E-004	-3.59960E-001	-1.13967E+000	3.57780E+000	10	...........
	34	0.466667	1.01704E-001	-6.01208E-003	0.00000E+000	-6.11455E-004	-3.59960E-001	-1.14998E+000	3.57780E+000	10	...........
	35	0.48	9.53131E-002	-6.01465E-003	0.00000E+000	-5.73275E-004	-3.59960E-001	-1.13969E+000	3.57780E+000	10	...........
	36	0.493333	8.89732E-002	-6.01546E-003	0.00000E+000	-5.35215E-004	-3.59960E-001	-1.13999E+000	3.57780E+000	10	...........
	37	0.506667	8.26616E-002	-6.00841E-003	0.00000E+000	-4.96665E-004	-3.59960E-001	-1.15013E+000	3.57780E+000	10	...........
	38	0.52	7.64314E-002	-6.01299E-003	0.00000E+000	-4.59581E-004	-3.59960E-001	-1.13965E+000	3.57780E+000	10	...........
	39	0.533333	7.02702E-002	-6.01402E-003	0.00000E+000	-4.22607E-004	-3.59960E-001	-1.14030E+000	3.57780E+000	10	...........
	40	0.546667	6.41733E-002	-6.01959E-003	0.00000E+000	-3.86298E-004	-3.59960E-001	-1.15069E+000	3.57780E+000	10	...........
	41	0.56	5.81128E-002	-6.01462E-003	0.00000E+000	-3.49526E-004	-3.59960E-001	-1.13982E+000	3.57780E+000	10	...........
	42	0.573333	5.21534E-002	-6.01677E-003	0.00000E+000	-3.13795E-004	-3.59960E-001	-1.14020E+000	3.57780E+000	10	...........
	43	0.586667	4.62903E-002	-6.01292E-003	0.00000E+000	-2.78340E-004	-3.59960E-001	-1.15027E+000	3.57780E+000	10	...........
	44	0.6	4.04168E-002	-6.01650E-003	0.00000E+000	-2.43167E-004	-3.59960E-001	-1.13971E+000	3.57780E+000	10	...........
	45	0.613333	3.46734E-002	-6.01808E-003	0.00000E+000	-2.08667E-004	-3.59960E-001	-1.14001E+000	3.57780E+000	10	...........
	46	0.626667	2.89496E-002	-6.01408E-003	0.00000E+000	-1.74105E-004	-3.59960E-001	-1.15022E+000	3.57780E+000	10	...........
	47	0.64	2.32703E-002	-6.01191E-003	0.00000E+000	-1.39899E-004	-3.59960E-001	-1.13955E+000	3.57780E+000	10	...........
	48	0.653333	1.76336E-002	-6.01278E-003	0.00000E+000	-1.06027E-004	-3.59960E-001	-1.13995E+000	3.57780E+000	10	...........
	49	0.666667	1.20643E-002	-6.01663E-003	0.00000E+000	-7.25865E-005	-3.59960E-001	-1.15040E+000	3.57780E+000	10	...........
	50	0.68	6.54118E-003	-6.01434E-003	0.00000E+000	-3.93409E-005	-3.59960E-001	-1.13992E+000	3.57780E+000	10	...........
	51	0.691667	1.42957E-003	-6.01612E-003	0.00000E+000	-8.60044E-006	-3.59960E-001	-1.14147E+000	3.57780E+000	10	...........
STARTTIMEOFFSET	QUANT	1545.853	Start Time Offset (s)
