EXPLAIN
TAG	PWR800_DISCHARGE
TITLE	LABEL	PWR Cyclic Charge Discharge (Cell) - Discharge Step	Test &Identifier
DATE	LABEL	22-6-2017	Date
TIME	LABEL	16:07:04	Time
NOTES	NOTES	3	&Notes...
	supercap test cell
	0.6mg
	6M KOH
PSTAT	PSTAT	IFC5000-01520	Potentiostat
CAPACITY	QUANT	1.00000E-003	Capacity (A-hr)
CELLTYPE	SELECTOR	1	&Cell Type
WORKINGCONNECTION	SELECTOR	0	&Working Lead
MAXDISCHARGETIME	VARIABLEANDUNITS	1.00000E+002	s	1.00000E+002	second(s)	Max &Discharge Time
DISCHARGEMODE	MULTIPARAM	0	6.00000E-003	&Discharge Mode	Constant Current	Amp(s)
SAMPLETIME	QUANT	1.00000E-002	Sa&mple Period (s)
DISCHARGESTOPAT1	MULTIPARAM	3	0.00000E+000	Discharge Stop At &1	Voltage < Limit	V
DISCHARGESTOPAT2	MULTIPARAM	0	0.00000E+000	Discharge Stop At &2	None	N/A
AESBHCSELECTOR	TOGGLE	F	Save Both Half Cells
IRCOMP	TOGGLE	F	IR &Measure
EOC	QUANT	0	Open Circuit (V)
SEQUENCER	TOGGLE	TRUE	Run as Sequence
PSTATMODEL	IQUANT	53	Pstat Model
PSTATSECTION	LABEL	IFC5000-01520	Pstat Section
PSTATSERIALNO	LABEL	01520	Pstat Serial Number
CTRLMODE	IQUANT	0	Control Mode
ELECTROMETER	IQUANT	1	RE=0 or CS=1
IESTAB	IQUANT	0	I/E Stability
CASPEED	IQUANT	4	Control Amp Speed
CONVENTION	IQUANT	1	Current Convention
ICHRANGE	IQUANT	2	Ich Range
ICHRANGEMODE	TOGGLE	T	Ich Auto Range
ICHOFFSETENABLE	TOGGLE	F	Ich Offset Enable
ICHOFFSET	QUANT	0	Ich Offset (V)
ICHFILTER	IQUANT	1	Ich Filter
VCHRANGE	IQUANT	2	Vch Range
VCHRANGEMODE	TOGGLE	T	Vch Auto Range
VCHOFFSETENABLE	TOGGLE	F	Vch Offset Enable
VCHOFFSET	QUANT	0	Vch Offset (V)
VCHFILTER	IQUANT	1	Vch Filter
IERANGELOWERLIMIT	IQUANT	9	I/E Range Lower Limit
IERANGEMODE	TOGGLE	F	I/E AutoRange
IERANGE	IQUANT	10	I/E Range
ACHSELECT	IQUANT	1	Ach Select
ACHRANGE	IQUANT	2	Ach Range
ACHOFFSETENABLE	TOGGLE	F	Ach Offset Enable
ACHOFFSET	QUANT	0	Ach Offset (V)
ACHFILTER	IQUANT	1	Ach Filter
CABLEID	IQUANT	14	Cable ID
DCCALDATE	LABEL	20-10-2016	DC Calibration Date
ACCALDATE	LABEL	12/3/2015	AC Calibration Date
FRAMEWORKVERSION	QUANT	7.01	Framework Version
INSTRUMENTVERSION	LABEL	4.00	Instrument Version
CURVE	TABLE	54
	Pt	T	Vf	Im	Vu	Pwr	Sig	Ach	Temp	IERange	Over
	#	s	V	A	V	W	V	V	deg C	#	bits
	0	0.013333	3.82913E-001	-6.01102E-003	0.00000E+000	-2.30170E-003	-3.59960E-001	-1.13618E+000	3.57850E+000	10	...........
	1	0.026667	3.71408E-001	-6.01457E-003	0.00000E+000	-2.23386E-003	-3.59960E-001	-1.13845E+000	3.57850E+000	10	...........
	2	0.04	3.60803E-001	-6.01777E-003	0.00000E+000	-2.17123E-003	-3.59960E-001	-1.13037E+000	3.57850E+000	10	...........
	3	0.053333	3.50725E-001	-6.01735E-003	0.00000E+000	-2.11043E-003	-3.59960E-001	-1.13661E+000	3.57850E+000	10	...........
	4	0.066667	3.40996E-001	-6.01786E-003	0.00000E+000	-2.05207E-003	-3.59960E-001	-1.13908E+000	3.57850E+000	10	...........
	5	0.08	3.31576E-001	-6.01836E-003	0.00000E+000	-1.99554E-003	-3.59960E-001	-1.13100E+000	3.57850E+000	10	...........
	6	0.093333	3.22379E-001	-6.01014E-003	0.00000E+000	-1.93754E-003	-3.59960E-001	-1.13686E+000	3.57850E+000	10	...........
	7	0.106667	3.13404E-001	-6.01511E-003	0.00000E+000	-1.88516E-003	-3.59960E-001	-1.13937E+000	3.57850E+000	10	...........
	8	0.12	3.04516E-001	-6.01414E-003	0.00000E+000	-1.83140E-003	-3.59960E-001	-1.13126E+000	3.57850E+000	10	...........
	9	0.133333	2.95785E-001	-6.01667E-003	0.00000E+000	-1.77964E-003	-3.59960E-001	-1.13728E+000	3.57850E+000	10	...........
	10	0.146667	2.87209E-001	-6.01586E-003	0.00000E+000	-1.72781E-003	-3.59960E-001	-1.13941E+000	3.57850E+000	10	...........
	11	0.16	2.78752E-001	-6.01727E-003	0.00000E+000	-1.67733E-003	-3.59960E-001	-1.13085E+000	3.57850E+000	10	...........
	12	0.173333	2.70421E-001	-6.00896E-003	0.00000E+000	-1.62495E-003	-3.59960E-001	-1.13704E+000	3.57850E+000	10	...........
	13	0.186667	2.62212E-001	-6.01519E-003	0.00000E+000	-1.57725E-003	-3.59960E-001	-1.13932E+000	3.57850E+000	10	...........
	14	0.2	2.54129E-001	-6.01291E-003	0.00000E+000	-1.52805E-003	-3.59960E-001	-1.13120E+000	3.57850E+000	10	...........
	15	0.213333	2.46122E-001	-6.01427E-003	0.00000E+000	-1.48024E-003	-3.59960E-001	-1.13712E+000	3.57850E+000	10	...........
	16	0.226667	2.38223E-001	-6.01324E-003	0.00000E+000	-1.43250E-003	-3.59960E-001	-1.13945E+000	3.57850E+000	10	...........
	17	0.24	2.30451E-001	-6.01492E-003	0.00000E+000	-1.38615E-003	-3.59960E-001	-1.13112E+000	3.57850E+000	10	...........
	18	0.253333	2.22708E-001	-6.01546E-003	0.00000E+000	-1.33969E-003	-3.59960E-001	-1.13747E+000	3.57850E+000	10	...........
	19	0.266667	2.15120E-001	-6.01366E-003	0.00000E+000	-1.29366E-003	-3.59960E-001	-1.13998E+000	3.57850E+000	10	...........
	20	0.28	2.07616E-001	-6.01612E-003	0.00000E+000	-1.24904E-003	-3.59960E-001	-1.13172E+000	3.57850E+000	10	...........
	21	0.293333	2.00153E-001	-6.01300E-003	0.00000E+000	-1.20352E-003	-3.59960E-001	-1.13767E+000	3.57850E+000	10	...........
	22	0.306667	1.92781E-001	-6.01590E-003	0.00000E+000	-1.15975E-003	-3.59960E-001	-1.13995E+000	3.57850E+000	10	...........
	23	0.32	1.85532E-001	-6.01445E-003	0.00000E+000	-1.11587E-003	-3.59960E-001	-1.13168E+000	3.57850E+000	10	...........
	24	0.333333	1.78375E-001	-6.01700E-003	0.00000E+000	-1.07328E-003	-3.59960E-001	-1.13787E+000	3.57850E+000	10	...........
	25	0.346667	1.71252E-001	-6.01192E-003	0.00000E+000	-1.02955E-003	-3.59960E-001	-1.14007E+000	3.57850E+000	10	...........
	26	0.36	1.64249E-001	-6.01129E-003	0.00000E+000	-9.87348E-004	-3.59960E-001	-1.13189E+000	3.57850E+000	10	...........
	27	0.373333	1.57315E-001	-6.01809E-003	0.00000E+000	-9.46736E-004	-3.59960E-001	-1.13792E+000	3.57850E+000	10	...........
	28	0.386667	1.50429E-001	-6.01393E-003	0.00000E+000	-9.04671E-004	-3.59960E-001	-1.14009E+000	3.57850E+000	10	...........
	29	0.4	1.43653E-001	-6.01585E-003	0.00000E+000	-8.64195E-004	-3.59960E-001	-1.13220E+000	3.57850E+000	10	...........
	30	0.413333	1.36936E-001	-6.01178E-003	0.00000E+000	-8.23228E-004	-3.59960E-001	-1.13812E+000	3.57850E+000	10	...........
	31	0.426667	1.30287E-001	-6.01636E-003	0.00000E+000	-7.83855E-004	-3.59960E-001	-1.14009E+000	3.57850E+000	10	...........
	32	0.44	1.23733E-001	-6.01528E-003	0.00000E+000	-7.44291E-004	-3.59960E-001	-1.13189E+000	3.57850E+000	10	...........
	33	0.453333	1.17195E-001	-6.01404E-003	0.00000E+000	-7.04816E-004	-3.59960E-001	-1.13816E+000	3.57850E+000	10	...........
	34	0.466667	1.10730E-001	-6.01769E-003	0.00000E+000	-6.66336E-004	-3.59960E-001	-1.14044E+000	3.57850E+000	10	...........
	35	0.48	1.04351E-001	-6.01643E-003	0.00000E+000	-6.27820E-004	-3.59960E-001	-1.13185E+000	3.57850E+000	10	...........
	36	0.493333	9.80477E-002	-6.01425E-003	0.00000E+000	-5.89684E-004	-3.59960E-001	-1.13766E+000	3.57850E+000	10	...........
	37	0.506667	9.18484E-002	-6.01675E-003	0.00000E+000	-5.52628E-004	-3.59960E-001	-1.13985E+000	3.57850E+000	10	...........
	38	0.52	8.56750E-002	-6.01409E-003	0.00000E+000	-5.15257E-004	-3.59960E-001	-1.13184E+000	3.57823E+000	10	...........
	39	0.533333	7.95366E-002	-6.01454E-003	0.00000E+000	-4.78376E-004	-3.59960E-001	-1.13792E+000	3.57630E+000	10	...........
	40	0.546667	7.35195E-002	-6.01422E-003	0.00000E+000	-4.42163E-004	-3.59960E-001	-1.13984E+000	3.57630E+000	10	...........
	41	0.56	6.75110E-002	-6.00873E-003	0.00000E+000	-4.05655E-004	-3.59960E-001	-1.13175E+000	3.57630E+000	10	...........
	42	0.573333	6.15456E-002	-6.01892E-003	0.00000E+000	-3.70438E-004	-3.59960E-001	-1.13760E+000	3.57630E+000	10	...........
	43	0.586667	5.56550E-002	-6.01713E-003	0.00000E+000	-3.34883E-004	-3.59960E-001	-1.14001E+000	3.57630E+000	10	...........
	44	0.6	4.98097E-002	-6.01684E-003	0.00000E+000	-2.99697E-004	-3.59960E-001	-1.13199E+000	3.57630E+000	10	...........
	45	0.613333	4.41091E-002	-6.01441E-003	0.00000E+000	-2.65290E-004	-3.59960E-001	-1.13781E+000	3.57630E+000	10	...........
	46	0.626667	3.84463E-002	-6.01263E-003	0.00000E+000	-2.31163E-004	-3.59960E-001	-1.13979E+000	3.57630E+000	10	...........
	47	0.64	3.27557E-002	-6.01382E-003	0.00000E+000	-1.96987E-004	-3.59960E-001	-1.13185E+000	3.57630E+000	10	...........
	48	0.653333	2.71158E-002	-6.01801E-003	0.00000E+000	-1.63183E-004	-3.59960E-001	-1.13809E+000	3.57630E+000	10	...........
	49	0.666667	2.15521E-002	-6.01733E-003	0.00000E+000	-1.29686E-004	-3.59960E-001	-1.14016E+000	3.57630E+000	10	...........
	50	0.68	1.60736E-002	-6.01461E-003	0.00000E+000	-9.66765E-005	-3.59960E-001	-1.13204E+000	3.57630E+000	10	...........
	51	0.693333	1.06167E-002	-6.01288E-003	0.00000E+000	-6.38367E-005	-3.59960E-001	-1.13808E+000	3.57630E+000	10	...........
	52	0.706667	5.22276E-003	-6.01099E-003	0.00000E+000	-3.13940E-005	-3.59960E-001	-1.14023E+000	3.57630E+000	10	...........
	53	0.715	8.85054E-004	-6.02126E-003	0.00000E+000	-5.32914E-006	-3.59960E-001	-1.12819E+000	3.57630E+000	10	...........
STARTTIMEOFFSET	QUANT	1296.233	Start Time Offset (s)
