EXPLAIN
TAG	PWR800_DISCHARGE
TITLE	LABEL	PWR Cyclic Charge Discharge (Cell) - Discharge Step	Test &Identifier
DATE	LABEL	22-6-2017	Date
TIME	LABEL	15:41:40	Time
NOTES	NOTES	3	&Notes...
	supercap test cell
	0.6mg
	6M KOH
PSTAT	PSTAT	IFC5000-01520	Potentiostat
CAPACITY	QUANT	1.00000E-003	Capacity (A-hr)
CELLTYPE	SELECTOR	1	&Cell Type
WORKINGCONNECTION	SELECTOR	0	&Working Lead
MAXDISCHARGETIME	VARIABLEANDUNITS	1.00000E+002	s	1.00000E+002	second(s)	Max &Discharge Time
DISCHARGEMODE	MULTIPARAM	0	6.00000E-003	&Discharge Mode	Constant Current	Amp(s)
SAMPLETIME	QUANT	1.00000E-002	Sa&mple Period (s)
DISCHARGESTOPAT1	MULTIPARAM	3	0.00000E+000	Discharge Stop At &1	Voltage < Limit	V
DISCHARGESTOPAT2	MULTIPARAM	0	0.00000E+000	Discharge Stop At &2	None	N/A
AESBHCSELECTOR	TOGGLE	F	Save Both Half Cells
IRCOMP	TOGGLE	F	IR &Measure
EOC	QUANT	0	Open Circuit (V)
SEQUENCER	TOGGLE	TRUE	Run as Sequence
PSTATMODEL	IQUANT	53	Pstat Model
PSTATSECTION	LABEL	IFC5000-01520	Pstat Section
PSTATSERIALNO	LABEL	01520	Pstat Serial Number
CTRLMODE	IQUANT	0	Control Mode
ELECTROMETER	IQUANT	1	RE=0 or CS=1
IESTAB	IQUANT	0	I/E Stability
CASPEED	IQUANT	4	Control Amp Speed
CONVENTION	IQUANT	1	Current Convention
ICHRANGE	IQUANT	2	Ich Range
ICHRANGEMODE	TOGGLE	T	Ich Auto Range
ICHOFFSETENABLE	TOGGLE	F	Ich Offset Enable
ICHOFFSET	QUANT	0	Ich Offset (V)
ICHFILTER	IQUANT	1	Ich Filter
VCHRANGE	IQUANT	2	Vch Range
VCHRANGEMODE	TOGGLE	T	Vch Auto Range
VCHOFFSETENABLE	TOGGLE	F	Vch Offset Enable
VCHOFFSET	QUANT	0	Vch Offset (V)
VCHFILTER	IQUANT	1	Vch Filter
IERANGELOWERLIMIT	IQUANT	9	I/E Range Lower Limit
IERANGEMODE	TOGGLE	F	I/E AutoRange
IERANGE	IQUANT	10	I/E Range
ACHSELECT	IQUANT	1	Ach Select
ACHRANGE	IQUANT	2	Ach Range
ACHOFFSETENABLE	TOGGLE	F	Ach Offset Enable
ACHOFFSET	QUANT	0	Ach Offset (V)
ACHFILTER	IQUANT	1	Ach Filter
CABLEID	IQUANT	14	Cable ID
DCCALDATE	LABEL	20-10-2016	DC Calibration Date
ACCALDATE	LABEL	12/3/2015	AC Calibration Date
FRAMEWORKVERSION	QUANT	7.01	Framework Version
INSTRUMENTVERSION	LABEL	4.00	Instrument Version
CURVE	TABLE	67
	Pt	T	Vf	Im	Vu	Pwr	Sig	Ach	Temp	IERange	Over
	#	s	V	A	V	W	V	V	deg C	#	bits
	0	0.013333	4.21593E-001	-6.01764E-003	0.00000E+000	-2.53700E-003	-3.59960E-001	-1.03162E+000	3.57710E+000	10	...........
	1	0.026667	4.11181E-001	-6.01473E-003	0.00000E+000	-2.47314E-003	-3.59960E-001	-1.04271E+000	3.57710E+000	10	...........
	2	0.04	4.01505E-001	-6.01481E-003	0.00000E+000	-2.41497E-003	-3.59960E-001	-1.03532E+000	3.57710E+000	10	...........
	3	0.053333	3.92335E-001	-6.01453E-003	0.00000E+000	-2.35971E-003	-3.59960E-001	-1.03152E+000	3.57693E+000	10	...........
	4	0.066667	3.83513E-001	-6.01357E-003	0.00000E+000	-2.30628E-003	-3.59960E-001	-1.04256E+000	3.57690E+000	10	...........
	5	0.08	3.74915E-001	-6.01355E-003	0.00000E+000	-2.25457E-003	-3.59960E-001	-1.03529E+000	3.57690E+000	10	...........
	6	0.093333	3.66543E-001	-6.01521E-003	0.00000E+000	-2.20483E-003	-3.59960E-001	-1.03182E+000	3.57690E+000	10	...........
	7	0.106667	3.58320E-001	-6.01031E-003	0.00000E+000	-2.15362E-003	-3.59960E-001	-1.04277E+000	3.57690E+000	10	...........
	8	0.12	3.50284E-001	-6.01462E-003	0.00000E+000	-2.10683E-003	-3.59960E-001	-1.03535E+000	3.57690E+000	10	...........
	9	0.133333	3.42337E-001	-6.01150E-003	0.00000E+000	-2.05796E-003	-3.59960E-001	-1.03200E+000	3.57690E+000	10	...........
	10	0.146667	3.34553E-001	-6.01345E-003	0.00000E+000	-2.01182E-003	-3.59960E-001	-1.04319E+000	3.57690E+000	10	...........
	11	0.16	3.26853E-001	-6.01568E-003	0.00000E+000	-1.96625E-003	-3.59960E-001	-1.03580E+000	3.57690E+000	10	...........
	12	0.173333	3.19284E-001	-6.01581E-003	0.00000E+000	-1.92075E-003	-3.59960E-001	-1.03203E+000	3.57690E+000	10	...........
	13	0.186667	3.11791E-001	-6.01844E-003	0.00000E+000	-1.87650E-003	-3.59960E-001	-1.04297E+000	3.57690E+000	10	...........
	14	0.2	3.04367E-001	-6.01256E-003	0.00000E+000	-1.83003E-003	-3.59960E-001	-1.03600E+000	3.57690E+000	10	...........
	15	0.213333	2.97059E-001	-6.01411E-003	0.00000E+000	-1.78655E-003	-3.59960E-001	-1.03217E+000	3.57690E+000	10	...........
	16	0.226667	2.89811E-001	-6.01453E-003	0.00000E+000	-1.74308E-003	-3.59960E-001	-1.04338E+000	3.57690E+000	10	...........
	17	0.24	2.82693E-001	-6.01186E-003	0.00000E+000	-1.69951E-003	-3.59960E-001	-1.03590E+000	3.57690E+000	10	...........
	18	0.253333	2.75620E-001	-6.01512E-003	0.00000E+000	-1.65789E-003	-3.59960E-001	-1.03225E+000	3.57690E+000	10	...........
	19	0.266667	2.68586E-001	-6.01461E-003	0.00000E+000	-1.61544E-003	-3.59960E-001	-1.04362E+000	3.57690E+000	10	...........
	20	0.28	2.61621E-001	-6.01585E-003	0.00000E+000	-1.57387E-003	-3.59960E-001	-1.03661E+000	3.57690E+000	10	...........
	21	0.293333	2.54726E-001	-6.01888E-003	0.00000E+000	-1.53317E-003	-3.59960E-001	-1.03310E+000	3.57690E+000	10	...........
	22	0.306667	2.47926E-001	-6.01506E-003	0.00000E+000	-1.49129E-003	-3.59960E-001	-1.04394E+000	3.57690E+000	10	...........
	23	0.32	2.41162E-001	-6.01011E-003	0.00000E+000	-1.44941E-003	-3.59960E-001	-1.03666E+000	3.57690E+000	10	...........
	24	0.333333	2.34496E-001	-6.01904E-003	0.00000E+000	-1.41144E-003	-3.59960E-001	-1.03310E+000	3.57690E+000	10	...........
	25	0.346667	2.27910E-001	-6.01487E-003	0.00000E+000	-1.37085E-003	-3.59960E-001	-1.04445E+000	3.57690E+000	10	...........
	26	0.36	2.21337E-001	-6.01466E-003	0.00000E+000	-1.33127E-003	-3.59960E-001	-1.03686E+000	3.57690E+000	10	...........
	27	0.373333	2.14868E-001	-6.01765E-003	0.00000E+000	-1.29300E-003	-3.59960E-001	-1.03306E+000	3.57690E+000	10	...........
	28	0.386667	2.08436E-001	-6.01536E-003	0.00000E+000	-1.25382E-003	-3.59960E-001	-1.04398E+000	3.57690E+000	10	...........
	29	0.4	2.02056E-001	-6.01762E-003	0.00000E+000	-1.21589E-003	-3.59960E-001	-1.03658E+000	3.57690E+000	10	...........
	30	0.413333	1.95726E-001	-6.01806E-003	0.00000E+000	-1.17789E-003	-3.59960E-001	-1.03304E+000	3.57690E+000	10	...........
	31	0.426667	1.89409E-001	-6.01477E-003	0.00000E+000	-1.13925E-003	-3.59960E-001	-1.04443E+000	3.57690E+000	10	...........
	32	0.44	1.83176E-001	-6.01503E-003	0.00000E+000	-1.10181E-003	-3.59960E-001	-1.03669E+000	3.57690E+000	10	...........
	33	0.453333	1.77014E-001	-6.01581E-003	0.00000E+000	-1.06488E-003	-3.59960E-001	-1.03315E+000	3.57690E+000	10	...........
	34	0.466667	1.70941E-001	-6.01124E-003	0.00000E+000	-1.02757E-003	-3.59960E-001	-1.04432E+000	3.57690E+000	10	...........
	35	0.48	1.64909E-001	-6.01118E-003	0.00000E+000	-9.91299E-004	-3.59960E-001	-1.03691E+000	3.57690E+000	10	...........
	36	0.493333	1.58905E-001	-6.01564E-003	0.00000E+000	-9.55917E-004	-3.59960E-001	-1.03350E+000	3.57690E+000	10	...........
	37	0.506667	1.52932E-001	-6.01370E-003	0.00000E+000	-9.19685E-004	-3.59960E-001	-1.04431E+000	3.57690E+000	10	...........
	38	0.52	1.47028E-001	-6.01165E-003	0.00000E+000	-8.83883E-004	-3.59960E-001	-1.03676E+000	3.57690E+000	10	...........
	39	0.533333	1.41161E-001	-6.01481E-003	0.00000E+000	-8.49059E-004	-3.59960E-001	-1.03346E+000	3.57690E+000	10	...........
	40	0.546667	1.35284E-001	-6.01240E-003	0.00000E+000	-8.13384E-004	-3.59960E-001	-1.04470E+000	3.57690E+000	10	...........
	41	0.56	1.29510E-001	-6.01499E-003	0.00000E+000	-7.79001E-004	-3.59960E-001	-1.03716E+000	3.57690E+000	10	...........
	42	0.573333	1.23794E-001	-6.01274E-003	0.00000E+000	-7.44343E-004	-3.59960E-001	-1.03349E+000	3.57690E+000	10	...........
	43	0.586667	1.18103E-001	-6.01456E-003	0.00000E+000	-7.10340E-004	-3.59960E-001	-1.04469E+000	3.57690E+000	10	...........
	44	0.6	1.12455E-001	-6.01818E-003	0.00000E+000	-6.76776E-004	-3.59960E-001	-1.03743E+000	3.57690E+000	10	...........
	45	0.613333	1.06866E-001	-6.01258E-003	0.00000E+000	-6.42538E-004	-3.59960E-001	-1.03403E+000	3.57690E+000	10	...........
	46	0.626667	1.01285E-001	-6.01339E-003	0.00000E+000	-6.09068E-004	-3.59960E-001	-1.04481E+000	3.57690E+000	10	...........
	47	0.64	9.57416E-002	-6.01974E-003	0.00000E+000	-5.76340E-004	-3.59960E-001	-1.03742E+000	3.57690E+000	10	...........
	48	0.653333	9.02582E-002	-6.01578E-003	0.00000E+000	-5.42973E-004	-3.59960E-001	-1.03376E+000	3.57690E+000	10	...........
	49	0.666667	8.48443E-002	-6.01542E-003	0.00000E+000	-5.10374E-004	-3.59960E-001	-1.04479E+000	3.57690E+000	10	...........
	50	0.68	7.94278E-002	-6.01564E-003	0.00000E+000	-4.77809E-004	-3.59960E-001	-1.03775E+000	3.57690E+000	10	...........
	51	0.693333	7.40803E-002	-6.01520E-003	0.00000E+000	-4.45608E-004	-3.59960E-001	-1.03379E+000	3.57690E+000	10	...........
	52	0.706667	6.87767E-002	-6.01513E-003	0.00000E+000	-4.13701E-004	-3.59960E-001	-1.04472E+000	3.57690E+000	10	...........
	53	0.72	6.34735E-002	-6.01100E-003	0.00000E+000	-3.81539E-004	-3.59960E-001	-1.03755E+000	3.57690E+000	10	...........
	54	0.733333	5.82173E-002	-6.01621E-003	0.00000E+000	-3.50247E-004	-3.59960E-001	-1.03395E+000	3.57690E+000	10	...........
	55	0.746667	5.30321E-002	-6.01360E-003	0.00000E+000	-3.18914E-004	-3.59960E-001	-1.04474E+000	3.57690E+000	10	...........
	56	0.76	4.78832E-002	-6.01442E-003	0.00000E+000	-2.87990E-004	-3.59960E-001	-1.03751E+000	3.57690E+000	10	...........
	57	0.773333	4.27466E-002	-6.01674E-003	0.00000E+000	-2.57195E-004	-3.59960E-001	-1.03362E+000	3.57690E+000	10	...........
	58	0.786667	3.76415E-002	-6.01222E-003	0.00000E+000	-2.26309E-004	-3.59960E-001	-1.04480E+000	3.57690E+000	10	...........
	59	0.8	3.25600E-002	-6.01632E-003	0.00000E+000	-1.95892E-004	-3.59960E-001	-1.03751E+000	3.57690E+000	10	...........
	60	0.813333	2.75384E-002	-6.01322E-003	0.00000E+000	-1.65594E-004	-3.59960E-001	-1.03392E+000	3.57690E+000	10	...........
	61	0.826667	2.25770E-002	-6.01817E-003	0.00000E+000	-1.35872E-004	-3.59960E-001	-1.04477E+000	3.57690E+000	10	...........
	62	0.84	1.75895E-002	-6.01695E-003	0.00000E+000	-1.05835E-004	-3.59960E-001	-1.03721E+000	3.57690E+000	10	...........
	63	0.853333	1.26787E-002	-6.00973E-003	0.00000E+000	-7.61954E-005	-3.59960E-001	-1.03383E+000	3.57690E+000	10	...........
	64	0.866667	7.79791E-003	-6.01623E-003	0.00000E+000	-4.69140E-005	-3.59960E-001	-1.04517E+000	3.57690E+000	10	...........
	65	0.88	2.94931E-003	-6.01287E-003	0.00000E+000	-1.77338E-005	-3.59960E-001	-1.03722E+000	3.57690E+000	10	...........
	66	0.883333	-6.26507E-005	-6.01128E-003	0.00000E+000	3.76611E-007	-3.59960E-001	-1.04687E+000	3.57690E+000	10	...........
STARTTIMEOFFSET	QUANT	284.7251	Start Time Offset (s)
