EXPLAIN
TAG	PWR800_DISCHARGE
TITLE	LABEL	PWR Cyclic Charge Discharge (Cell) - Discharge Step	Test &Identifier
DATE	LABEL	22-6-2017	Date
TIME	LABEL	15:44:09	Time
NOTES	NOTES	3	&Notes...
	supercap test cell
	0.6mg
	6M KOH
PSTAT	PSTAT	IFC5000-01520	Potentiostat
CAPACITY	QUANT	1.00000E-003	Capacity (A-hr)
CELLTYPE	SELECTOR	1	&Cell Type
WORKINGCONNECTION	SELECTOR	0	&Working Lead
MAXDISCHARGETIME	VARIABLEANDUNITS	1.00000E+002	s	1.00000E+002	second(s)	Max &Discharge Time
DISCHARGEMODE	MULTIPARAM	0	6.00000E-003	&Discharge Mode	Constant Current	Amp(s)
SAMPLETIME	QUANT	1.00000E-002	Sa&mple Period (s)
DISCHARGESTOPAT1	MULTIPARAM	3	0.00000E+000	Discharge Stop At &1	Voltage < Limit	V
DISCHARGESTOPAT2	MULTIPARAM	0	0.00000E+000	Discharge Stop At &2	None	N/A
AESBHCSELECTOR	TOGGLE	F	Save Both Half Cells
IRCOMP	TOGGLE	F	IR &Measure
EOC	QUANT	0	Open Circuit (V)
SEQUENCER	TOGGLE	TRUE	Run as Sequence
PSTATMODEL	IQUANT	53	Pstat Model
PSTATSECTION	LABEL	IFC5000-01520	Pstat Section
PSTATSERIALNO	LABEL	01520	Pstat Serial Number
CTRLMODE	IQUANT	0	Control Mode
ELECTROMETER	IQUANT	1	RE=0 or CS=1
IESTAB	IQUANT	0	I/E Stability
CASPEED	IQUANT	4	Control Amp Speed
CONVENTION	IQUANT	1	Current Convention
ICHRANGE	IQUANT	2	Ich Range
ICHRANGEMODE	TOGGLE	T	Ich Auto Range
ICHOFFSETENABLE	TOGGLE	F	Ich Offset Enable
ICHOFFSET	QUANT	0	Ich Offset (V)
ICHFILTER	IQUANT	1	Ich Filter
VCHRANGE	IQUANT	2	Vch Range
VCHRANGEMODE	TOGGLE	T	Vch Auto Range
VCHOFFSETENABLE	TOGGLE	F	Vch Offset Enable
VCHOFFSET	QUANT	0	Vch Offset (V)
VCHFILTER	IQUANT	1	Vch Filter
IERANGELOWERLIMIT	IQUANT	9	I/E Range Lower Limit
IERANGEMODE	TOGGLE	F	I/E AutoRange
IERANGE	IQUANT	10	I/E Range
ACHSELECT	IQUANT	1	Ach Select
ACHRANGE	IQUANT	2	Ach Range
ACHOFFSETENABLE	TOGGLE	F	Ach Offset Enable
ACHOFFSET	QUANT	0	Ach Offset (V)
ACHFILTER	IQUANT	1	Ach Filter
CABLEID	IQUANT	14	Cable ID
DCCALDATE	LABEL	20-10-2016	DC Calibration Date
ACCALDATE	LABEL	12/3/2015	AC Calibration Date
FRAMEWORKVERSION	QUANT	7.01	Framework Version
INSTRUMENTVERSION	LABEL	4.00	Instrument Version
CURVE	TABLE	64
	Pt	T	Vf	Im	Vu	Pwr	Sig	Ach	Temp	IERange	Over
	#	s	V	A	V	W	V	V	deg C	#	bits
	0	0.013333	4.14122E-001	-6.01558E-003	0.00000E+000	-2.49118E-003	-3.59960E-001	-1.05033E+000	3.57740E+000	10	...........
	1	0.026667	4.03531E-001	-6.01178E-003	0.00000E+000	-2.42594E-003	-3.59960E-001	-1.05799E+000	3.57740E+000	10	...........
	2	0.04	3.93738E-001	-6.01803E-003	0.00000E+000	-2.36953E-003	-3.59960E-001	-1.05523E+000	3.57740E+000	10	...........
	3	0.053333	3.84441E-001	-6.01482E-003	0.00000E+000	-2.31234E-003	-3.59960E-001	-1.05036E+000	3.57740E+000	10	...........
	4	0.066667	3.75488E-001	-6.01389E-003	0.00000E+000	-2.25815E-003	-3.59960E-001	-1.05791E+000	3.57740E+000	10	...........
	5	0.08	3.66803E-001	-6.01379E-003	0.00000E+000	-2.20587E-003	-3.59960E-001	-1.05548E+000	3.57740E+000	10	...........
	6	0.093333	3.58303E-001	-6.01296E-003	0.00000E+000	-2.15446E-003	-3.59960E-001	-1.05033E+000	3.57740E+000	10	...........
	7	0.106667	3.49979E-001	-6.01630E-003	0.00000E+000	-2.10558E-003	-3.59960E-001	-1.05814E+000	3.57740E+000	10	...........
	8	0.12	3.41812E-001	-6.01555E-003	0.00000E+000	-2.05619E-003	-3.59960E-001	-1.05574E+000	3.57740E+000	10	...........
	9	0.133333	3.33786E-001	-6.01131E-003	0.00000E+000	-2.00649E-003	-3.59960E-001	-1.05066E+000	3.57740E+000	10	...........
	10	0.146667	3.25868E-001	-6.01310E-003	0.00000E+000	-1.95948E-003	-3.59960E-001	-1.05826E+000	3.57740E+000	10	...........
	11	0.16	3.18035E-001	-6.01533E-003	0.00000E+000	-1.91308E-003	-3.59960E-001	-1.05598E+000	3.57740E+000	10	...........
	12	0.173333	3.10306E-001	-6.01344E-003	0.00000E+000	-1.86601E-003	-3.59960E-001	-1.05092E+000	3.57740E+000	10	...........
	13	0.186667	3.02714E-001	-6.01605E-003	0.00000E+000	-1.82114E-003	-3.59960E-001	-1.05826E+000	3.57740E+000	10	...........
	14	0.2	2.95164E-001	-6.01660E-003	0.00000E+000	-1.77588E-003	-3.59960E-001	-1.05660E+000	3.57740E+000	10	...........
	15	0.213333	2.87764E-001	-6.01593E-003	0.00000E+000	-1.73117E-003	-3.59960E-001	-1.05105E+000	3.57740E+000	10	...........
	16	0.226667	2.80451E-001	-6.01952E-003	0.00000E+000	-1.68818E-003	-3.59960E-001	-1.05832E+000	3.57740E+000	10	...........
	17	0.24	2.73207E-001	-6.01446E-003	0.00000E+000	-1.64319E-003	-3.59960E-001	-1.05667E+000	3.57740E+000	10	...........
	18	0.253333	2.65979E-001	-6.01154E-003	0.00000E+000	-1.59894E-003	-3.59960E-001	-1.05131E+000	3.57740E+000	10	...........
	19	0.266667	2.58886E-001	-6.01410E-003	0.00000E+000	-1.55696E-003	-3.59960E-001	-1.05868E+000	3.57740E+000	10	...........
	20	0.28	2.51870E-001	-6.01105E-003	0.00000E+000	-1.51400E-003	-3.59960E-001	-1.05726E+000	3.57740E+000	10	...........
	21	0.293333	2.44920E-001	-6.01352E-003	0.00000E+000	-1.47283E-003	-3.59960E-001	-1.05147E+000	3.57670E+000	10	...........
	22	0.306667	2.38019E-001	-6.01675E-003	0.00000E+000	-1.43210E-003	-3.59960E-001	-1.05861E+000	3.57670E+000	10	...........
	23	0.32	2.31199E-001	-6.01607E-003	0.00000E+000	-1.39091E-003	-3.59960E-001	-1.05765E+000	3.57670E+000	10	...........
	24	0.333333	2.24429E-001	-6.01632E-003	0.00000E+000	-1.35024E-003	-3.59960E-001	-1.05178E+000	3.57670E+000	10	...........
	25	0.346667	2.17716E-001	-6.01602E-003	0.00000E+000	-1.30978E-003	-3.59960E-001	-1.05883E+000	3.57670E+000	10	...........
	26	0.36	2.11067E-001	-6.01886E-003	0.00000E+000	-1.27039E-003	-3.59960E-001	-1.05745E+000	3.57670E+000	10	...........
	27	0.373333	2.04503E-001	-6.01380E-003	0.00000E+000	-1.22984E-003	-3.59960E-001	-1.05155E+000	3.57670E+000	10	...........
	28	0.386667	1.97997E-001	-6.01536E-003	0.00000E+000	-1.19102E-003	-3.59960E-001	-1.05874E+000	3.57670E+000	10	...........
	29	0.4	1.91540E-001	-6.01443E-003	0.00000E+000	-1.15200E-003	-3.59960E-001	-1.05794E+000	3.57670E+000	10	...........
	30	0.413333	1.85167E-001	-6.00960E-003	0.00000E+000	-1.11278E-003	-3.59960E-001	-1.05178E+000	3.57670E+000	10	...........
	31	0.426667	1.78842E-001	-6.01480E-003	0.00000E+000	-1.07570E-003	-3.59960E-001	-1.05868E+000	3.57670E+000	10	...........
	32	0.44	1.72553E-001	-6.01440E-003	0.00000E+000	-1.03780E-003	-3.59960E-001	-1.05781E+000	3.57670E+000	10	...........
	33	0.453333	1.66354E-001	-6.01290E-003	0.00000E+000	-1.00027E-003	-3.59960E-001	-1.05170E+000	3.57670E+000	10	...........
	34	0.466667	1.60218E-001	-6.01540E-003	0.00000E+000	-9.63778E-004	-3.59960E-001	-1.05883E+000	3.57670E+000	10	...........
	35	0.48	1.54115E-001	-6.01404E-003	0.00000E+000	-9.26851E-004	-3.59960E-001	-1.05842E+000	3.57670E+000	10	...........
	36	0.493333	1.48030E-001	-6.01654E-003	0.00000E+000	-8.90630E-004	-3.59960E-001	-1.05177E+000	3.57670E+000	10	...........
	37	0.506667	1.41996E-001	-6.01659E-003	0.00000E+000	-8.54334E-004	-3.59960E-001	-1.05852E+000	3.57670E+000	10	...........
	38	0.52	1.36054E-001	-6.01812E-003	0.00000E+000	-8.18792E-004	-3.59960E-001	-1.05848E+000	3.57670E+000	10	...........
	39	0.533333	1.30145E-001	-6.01635E-003	0.00000E+000	-7.83001E-004	-3.59960E-001	-1.05206E+000	3.57670E+000	10	...........
	40	0.546667	1.24275E-001	-6.01327E-003	0.00000E+000	-7.47298E-004	-3.59960E-001	-1.05889E+000	3.57670E+000	10	...........
	41	0.56	1.18441E-001	-6.01572E-003	0.00000E+000	-7.12507E-004	-3.59960E-001	-1.05850E+000	3.57670E+000	10	...........
	42	0.573333	1.12704E-001	-6.01263E-003	0.00000E+000	-6.77650E-004	-3.59960E-001	-1.05212E+000	3.57670E+000	10	...........
	43	0.586667	1.06966E-001	-6.01172E-003	0.00000E+000	-6.43052E-004	-3.59960E-001	-1.05875E+000	3.57670E+000	10	...........
	44	0.6	1.01325E-001	-6.01067E-003	0.00000E+000	-6.09033E-004	-3.59960E-001	-1.05901E+000	3.57670E+000	10	...........
	45	0.613333	9.57125E-002	-6.01671E-003	0.00000E+000	-5.75874E-004	-3.59960E-001	-1.05252E+000	3.57670E+000	10	...........
	46	0.626667	9.01012E-002	-6.01097E-003	0.00000E+000	-5.41595E-004	-3.59960E-001	-1.05875E+000	3.57670E+000	10	...........
	47	0.64	8.45435E-002	-6.01897E-003	0.00000E+000	-5.08864E-004	-3.59960E-001	-1.05911E+000	3.57670E+000	10	...........
	48	0.653333	7.90507E-002	-6.01457E-003	0.00000E+000	-4.75456E-004	-3.59960E-001	-1.05248E+000	3.57670E+000	10	...........
	49	0.666667	7.35619E-002	-6.01541E-003	0.00000E+000	-4.42505E-004	-3.59960E-001	-1.05887E+000	3.57670E+000	10	...........
	50	0.68	6.81630E-002	-6.01452E-003	0.00000E+000	-4.09968E-004	-3.59960E-001	-1.05902E+000	3.57670E+000	10	...........
	51	0.693333	6.28071E-002	-6.00984E-003	0.00000E+000	-3.77460E-004	-3.59960E-001	-1.05201E+000	3.57670E+000	10	...........
	52	0.706667	5.74661E-002	-6.01677E-003	0.00000E+000	-3.45760E-004	-3.59960E-001	-1.05848E+000	3.57670E+000	10	...........
	53	0.72	5.21934E-002	-6.01592E-003	0.00000E+000	-3.13991E-004	-3.59960E-001	-1.05927E+000	3.57670E+000	10	...........
	54	0.733333	4.69622E-002	-6.01361E-003	0.00000E+000	-2.82412E-004	-3.59960E-001	-1.05239E+000	3.57670E+000	10	...........
	55	0.746667	4.17440E-002	-6.01280E-003	0.00000E+000	-2.50998E-004	-3.59960E-001	-1.05851E+000	3.57670E+000	10	...........
	56	0.76	3.65233E-002	-6.01575E-003	0.00000E+000	-2.19715E-004	-3.59960E-001	-1.05917E+000	3.57670E+000	10	...........
	57	0.773333	3.13719E-002	-6.01516E-003	0.00000E+000	-1.88707E-004	-3.59960E-001	-1.05230E+000	3.57670E+000	10	...........
	58	0.786667	2.62447E-002	-6.01822E-003	0.00000E+000	-1.57946E-004	-3.59960E-001	-1.05832E+000	3.57670E+000	10	...........
	59	0.8	2.12055E-002	-6.01310E-003	0.00000E+000	-1.27511E-004	-3.59960E-001	-1.05965E+000	3.57670E+000	10	...........
	60	0.813333	1.61477E-002	-6.01701E-003	0.00000E+000	-9.71609E-005	-3.59960E-001	-1.05255E+000	3.57670E+000	10	...........
	61	0.826667	1.11644E-002	-6.01085E-003	0.00000E+000	-6.71079E-005	-3.59960E-001	-1.05833E+000	3.57670E+000	10	...........
	62	0.84	6.20036E-003	-6.01730E-003	0.00000E+000	-3.73095E-005	-3.59960E-001	-1.05967E+000	3.57670E+000	10	...........
	63	0.851667	1.53062E-003	-6.01524E-003	0.00000E+000	-9.20704E-006	-3.59960E-001	-1.05081E+000	3.57670E+000	10	...........
STARTTIMEOFFSET	QUANT	387.5667	Start Time Offset (s)
