EXPLAIN
TAG	PWR800_DISCHARGE
TITLE	LABEL	PWR Cyclic Charge Discharge (Cell) - Discharge Step	Test &Identifier
DATE	LABEL	22-6-2017	Date
TIME	LABEL	16:01:50	Time
NOTES	NOTES	3	&Notes...
	supercap test cell
	0.6mg
	6M KOH
PSTAT	PSTAT	IFC5000-01520	Potentiostat
CAPACITY	QUANT	1.00000E-003	Capacity (A-hr)
CELLTYPE	SELECTOR	1	&Cell Type
WORKINGCONNECTION	SELECTOR	0	&Working Lead
MAXDISCHARGETIME	VARIABLEANDUNITS	1.00000E+002	s	1.00000E+002	second(s)	Max &Discharge Time
DISCHARGEMODE	MULTIPARAM	0	6.00000E-003	&Discharge Mode	Constant Current	Amp(s)
SAMPLETIME	QUANT	1.00000E-002	Sa&mple Period (s)
DISCHARGESTOPAT1	MULTIPARAM	3	0.00000E+000	Discharge Stop At &1	Voltage < Limit	V
DISCHARGESTOPAT2	MULTIPARAM	0	0.00000E+000	Discharge Stop At &2	None	N/A
AESBHCSELECTOR	TOGGLE	F	Save Both Half Cells
IRCOMP	TOGGLE	F	IR &Measure
EOC	QUANT	0	Open Circuit (V)
SEQUENCER	TOGGLE	TRUE	Run as Sequence
PSTATMODEL	IQUANT	53	Pstat Model
PSTATSECTION	LABEL	IFC5000-01520	Pstat Section
PSTATSERIALNO	LABEL	01520	Pstat Serial Number
CTRLMODE	IQUANT	0	Control Mode
ELECTROMETER	IQUANT	1	RE=0 or CS=1
IESTAB	IQUANT	0	I/E Stability
CASPEED	IQUANT	4	Control Amp Speed
CONVENTION	IQUANT	1	Current Convention
ICHRANGE	IQUANT	2	Ich Range
ICHRANGEMODE	TOGGLE	T	Ich Auto Range
ICHOFFSETENABLE	TOGGLE	F	Ich Offset Enable
ICHOFFSET	QUANT	0	Ich Offset (V)
ICHFILTER	IQUANT	1	Ich Filter
VCHRANGE	IQUANT	2	Vch Range
VCHRANGEMODE	TOGGLE	T	Vch Auto Range
VCHOFFSETENABLE	TOGGLE	F	Vch Offset Enable
VCHOFFSET	QUANT	0	Vch Offset (V)
VCHFILTER	IQUANT	1	Vch Filter
IERANGELOWERLIMIT	IQUANT	9	I/E Range Lower Limit
IERANGEMODE	TOGGLE	F	I/E AutoRange
IERANGE	IQUANT	10	I/E Range
ACHSELECT	IQUANT	1	Ach Select
ACHRANGE	IQUANT	2	Ach Range
ACHOFFSETENABLE	TOGGLE	F	Ach Offset Enable
ACHOFFSET	QUANT	0	Ach Offset (V)
ACHFILTER	IQUANT	1	Ach Filter
CABLEID	IQUANT	14	Cable ID
DCCALDATE	LABEL	20-10-2016	DC Calibration Date
ACCALDATE	LABEL	12/3/2015	AC Calibration Date
FRAMEWORKVERSION	QUANT	7.01	Framework Version
INSTRUMENTVERSION	LABEL	4.00	Instrument Version
CURVE	TABLE	56
	Pt	T	Vf	Im	Vu	Pwr	Sig	Ach	Temp	IERange	Over
	#	s	V	A	V	W	V	V	deg C	#	bits
	0	0.013333	3.88138E-001	-6.01267E-003	0.00000E+000	-2.33374E-003	-3.59960E-001	-1.11901E+000	3.57690E+000	10	...........
	1	0.026667	3.76809E-001	-6.00991E-003	0.00000E+000	-2.26459E-003	-3.59960E-001	-1.11733E+000	3.57690E+000	10	...........
	2	0.04	3.66274E-001	-6.01439E-003	0.00000E+000	-2.20291E-003	-3.59960E-001	-1.12866E+000	3.57690E+000	10	...........
	3	0.053333	3.56312E-001	-6.01321E-003	0.00000E+000	-2.14258E-003	-3.59960E-001	-1.11930E+000	3.57690E+000	10	...........
	4	0.066667	3.46734E-001	-6.01235E-003	0.00000E+000	-2.08469E-003	-3.59960E-001	-1.11762E+000	3.57690E+000	10	...........
	5	0.08	3.37493E-001	-6.01196E-003	0.00000E+000	-2.02899E-003	-3.59960E-001	-1.12882E+000	3.57690E+000	10	...........
	6	0.093333	3.28402E-001	-6.01308E-003	0.00000E+000	-1.97471E-003	-3.59960E-001	-1.11929E+000	3.57690E+000	10	...........
	7	0.106667	3.19506E-001	-6.01796E-003	0.00000E+000	-1.92278E-003	-3.59960E-001	-1.11755E+000	3.57690E+000	10	...........
	8	0.12	3.10762E-001	-6.01297E-003	0.00000E+000	-1.86860E-003	-3.59960E-001	-1.12896E+000	3.57690E+000	10	...........
	9	0.133333	3.02181E-001	-6.01498E-003	0.00000E+000	-1.81762E-003	-3.59960E-001	-1.11941E+000	3.57690E+000	10	...........
	10	0.146667	2.93710E-001	-6.01574E-003	0.00000E+000	-1.76688E-003	-3.59960E-001	-1.11723E+000	3.57690E+000	10	...........
	11	0.16	2.85368E-001	-6.01373E-003	0.00000E+000	-1.71613E-003	-3.59960E-001	-1.12856E+000	3.57690E+000	10	...........
	12	0.173333	2.77125E-001	-6.01412E-003	0.00000E+000	-1.66666E-003	-3.59960E-001	-1.11926E+000	3.57690E+000	10	...........
	13	0.186667	2.69051E-001	-6.01681E-003	0.00000E+000	-1.61883E-003	-3.59960E-001	-1.11782E+000	3.57690E+000	10	...........
	14	0.2	2.61070E-001	-6.01453E-003	0.00000E+000	-1.57021E-003	-3.59960E-001	-1.12899E+000	3.57690E+000	10	...........
	15	0.213333	2.53150E-001	-6.01322E-003	0.00000E+000	-1.52225E-003	-3.59960E-001	-1.11942E+000	3.57690E+000	10	...........
	16	0.226667	2.45363E-001	-6.01888E-003	0.00000E+000	-1.47681E-003	-3.59960E-001	-1.11780E+000	3.57690E+000	10	...........
	17	0.24	2.37731E-001	-6.01359E-003	0.00000E+000	-1.42961E-003	-3.59960E-001	-1.12899E+000	3.57690E+000	10	...........
	18	0.253333	2.30116E-001	-6.01134E-003	0.00000E+000	-1.38331E-003	-3.59960E-001	-1.11963E+000	3.57690E+000	10	...........
	19	0.266667	2.22578E-001	-6.01481E-003	0.00000E+000	-1.33877E-003	-3.59960E-001	-1.11815E+000	3.57690E+000	10	...........
	20	0.28	2.15141E-001	-6.01577E-003	0.00000E+000	-1.29424E-003	-3.59960E-001	-1.12906E+000	3.57690E+000	10	...........
	21	0.293333	2.07776E-001	-6.01506E-003	0.00000E+000	-1.24979E-003	-3.59960E-001	-1.11939E+000	3.57690E+000	10	...........
	22	0.306667	2.00489E-001	-6.01399E-003	0.00000E+000	-1.20574E-003	-3.59960E-001	-1.11814E+000	3.57690E+000	10	...........
	23	0.32	1.93299E-001	-6.01527E-003	0.00000E+000	-1.16275E-003	-3.59960E-001	-1.12942E+000	3.57690E+000	10	...........
	24	0.333333	1.86179E-001	-6.01437E-003	0.00000E+000	-1.11975E-003	-3.59960E-001	-1.11995E+000	3.57690E+000	10	...........
	25	0.346667	1.79141E-001	-6.01483E-003	0.00000E+000	-1.07750E-003	-3.59960E-001	-1.11831E+000	3.57690E+000	10	...........
	26	0.36	1.72184E-001	-6.01415E-003	0.00000E+000	-1.03554E-003	-3.59960E-001	-1.12948E+000	3.57690E+000	10	...........
	27	0.373333	1.65297E-001	-6.01886E-003	0.00000E+000	-9.94902E-004	-3.59960E-001	-1.12010E+000	3.57690E+000	10	...........
	28	0.386667	1.58450E-001	-6.02191E-003	0.00000E+000	-9.54172E-004	-3.59960E-001	-1.11854E+000	3.57690E+000	10	...........
	29	0.4	1.51755E-001	-6.01780E-003	0.00000E+000	-9.13229E-004	-3.59960E-001	-1.12957E+000	3.57690E+000	10	...........
	30	0.413333	1.45137E-001	-6.01603E-003	0.00000E+000	-8.73145E-004	-3.59960E-001	-1.12002E+000	3.57670E+000	10	...........
	31	0.426667	1.38528E-001	-6.01610E-003	0.00000E+000	-8.33401E-004	-3.59960E-001	-1.11826E+000	3.57650E+000	10	...........
	32	0.44	1.31995E-001	-6.01210E-003	0.00000E+000	-7.93569E-004	-3.59960E-001	-1.12973E+000	3.57650E+000	10	...........
	33	0.453333	1.25519E-001	-6.01559E-003	0.00000E+000	-7.55070E-004	-3.59960E-001	-1.11988E+000	3.57650E+000	10	...........
	34	0.466667	1.19081E-001	-6.01823E-003	0.00000E+000	-7.16656E-004	-3.59960E-001	-1.11837E+000	3.57650E+000	10	...........
	35	0.48	1.12767E-001	-6.01510E-003	0.00000E+000	-6.78305E-004	-3.59960E-001	-1.12944E+000	3.57650E+000	10	...........
	36	0.493333	1.06487E-001	-6.02109E-003	0.00000E+000	-6.41168E-004	-3.59960E-001	-1.11977E+000	3.57650E+000	10	...........
	37	0.506667	1.00283E-001	-6.01394E-003	0.00000E+000	-6.03099E-004	-3.59960E-001	-1.11841E+000	3.57650E+000	10	...........
	38	0.52	9.41697E-002	-6.01379E-003	0.00000E+000	-5.66316E-004	-3.59960E-001	-1.12964E+000	3.57650E+000	10	...........
	39	0.533333	8.80880E-002	-6.01764E-003	0.00000E+000	-5.30082E-004	-3.59960E-001	-1.12005E+000	3.57650E+000	10	...........
	40	0.546667	8.20451E-002	-6.01599E-003	0.00000E+000	-4.93582E-004	-3.59960E-001	-1.11831E+000	3.57650E+000	10	...........
	41	0.56	7.60774E-002	-6.01091E-003	0.00000E+000	-4.57294E-004	-3.59960E-001	-1.12954E+000	3.57650E+000	10	...........
	42	0.573333	7.01513E-002	-6.01469E-003	0.00000E+000	-4.21938E-004	-3.59960E-001	-1.11999E+000	3.57650E+000	10	...........
	43	0.586667	6.43213E-002	-6.01516E-003	0.00000E+000	-3.86903E-004	-3.59960E-001	-1.11856E+000	3.57650E+000	10	...........
	44	0.6	5.84978E-002	-6.01632E-003	0.00000E+000	-3.51941E-004	-3.59960E-001	-1.12969E+000	3.57650E+000	10	...........
	45	0.613333	5.27425E-002	-6.01457E-003	0.00000E+000	-3.17223E-004	-3.59960E-001	-1.11989E+000	3.57650E+000	10	...........
	46	0.626667	4.70831E-002	-6.01269E-003	0.00000E+000	-2.83096E-004	-3.59960E-001	-1.11846E+000	3.57650E+000	10	...........
	47	0.64	4.14738E-002	-6.01220E-003	0.00000E+000	-2.49349E-004	-3.59960E-001	-1.12989E+000	3.57650E+000	10	...........
	48	0.653333	3.58788E-002	-6.01572E-003	0.00000E+000	-2.15837E-004	-3.59960E-001	-1.12012E+000	3.57650E+000	10	...........
	49	0.666667	3.03120E-002	-6.01479E-003	0.00000E+000	-1.82320E-004	-3.59960E-001	-1.11892E+000	3.57650E+000	10	...........
	50	0.68	2.48569E-002	-6.01365E-003	0.00000E+000	-1.49481E-004	-3.59960E-001	-1.12995E+000	3.57650E+000	10	...........
	51	0.693333	1.93722E-002	-6.01950E-003	0.00000E+000	-1.16611E-004	-3.59960E-001	-1.12016E+000	3.57650E+000	10	...........
	52	0.706667	1.39759E-002	-6.01515E-003	0.00000E+000	-8.40671E-005	-3.59960E-001	-1.11890E+000	3.57650E+000	10	...........
	53	0.72	8.63719E-003	-6.01657E-003	0.00000E+000	-5.19662E-005	-3.59960E-001	-1.13024E+000	3.57650E+000	10	...........
	54	0.733333	3.33987E-003	-6.01689E-003	0.00000E+000	-2.00957E-005	-3.59960E-001	-1.12028E+000	3.57650E+000	10	...........
	55	0.736667	6.83938E-005	-6.01337E-003	0.00000E+000	-4.11277E-007	-3.59960E-001	-1.13197E+000	3.57650E+000	10	...........
STARTTIMEOFFSET	QUANT	1092.158	Start Time Offset (s)
