EXPLAIN
TAG	PWR800_DISCHARGE
TITLE	LABEL	PWR Cyclic Charge Discharge (Cell) - Discharge Step	Test &Identifier
DATE	LABEL	22-6-2017	Date
TIME	LABEL	15:47:52	Time
NOTES	NOTES	3	&Notes...
	supercap test cell
	0.6mg
	6M KOH
PSTAT	PSTAT	IFC5000-01520	Potentiostat
CAPACITY	QUANT	1.00000E-003	Capacity (A-hr)
CELLTYPE	SELECTOR	1	&Cell Type
WORKINGCONNECTION	SELECTOR	0	&Working Lead
MAXDISCHARGETIME	VARIABLEANDUNITS	1.00000E+002	s	1.00000E+002	second(s)	Max &Discharge Time
DISCHARGEMODE	MULTIPARAM	0	6.00000E-003	&Discharge Mode	Constant Current	Amp(s)
SAMPLETIME	QUANT	1.00000E-002	Sa&mple Period (s)
DISCHARGESTOPAT1	MULTIPARAM	3	0.00000E+000	Discharge Stop At &1	Voltage < Limit	V
DISCHARGESTOPAT2	MULTIPARAM	0	0.00000E+000	Discharge Stop At &2	None	N/A
AESBHCSELECTOR	TOGGLE	F	Save Both Half Cells
IRCOMP	TOGGLE	F	IR &Measure
EOC	QUANT	0	Open Circuit (V)
SEQUENCER	TOGGLE	TRUE	Run as Sequence
PSTATMODEL	IQUANT	53	Pstat Model
PSTATSECTION	LABEL	IFC5000-01520	Pstat Section
PSTATSERIALNO	LABEL	01520	Pstat Serial Number
CTRLMODE	IQUANT	0	Control Mode
ELECTROMETER	IQUANT	1	RE=0 or CS=1
IESTAB	IQUANT	0	I/E Stability
CASPEED	IQUANT	4	Control Amp Speed
CONVENTION	IQUANT	1	Current Convention
ICHRANGE	IQUANT	2	Ich Range
ICHRANGEMODE	TOGGLE	T	Ich Auto Range
ICHOFFSETENABLE	TOGGLE	F	Ich Offset Enable
ICHOFFSET	QUANT	0	Ich Offset (V)
ICHFILTER	IQUANT	1	Ich Filter
VCHRANGE	IQUANT	2	Vch Range
VCHRANGEMODE	TOGGLE	T	Vch Auto Range
VCHOFFSETENABLE	TOGGLE	F	Vch Offset Enable
VCHOFFSET	QUANT	0	Vch Offset (V)
VCHFILTER	IQUANT	1	Vch Filter
IERANGELOWERLIMIT	IQUANT	9	I/E Range Lower Limit
IERANGEMODE	TOGGLE	F	I/E AutoRange
IERANGE	IQUANT	10	I/E Range
ACHSELECT	IQUANT	1	Ach Select
ACHRANGE	IQUANT	2	Ach Range
ACHOFFSETENABLE	TOGGLE	F	Ach Offset Enable
ACHOFFSET	QUANT	0	Ach Offset (V)
ACHFILTER	IQUANT	1	Ach Filter
CABLEID	IQUANT	14	Cable ID
DCCALDATE	LABEL	20-10-2016	DC Calibration Date
ACCALDATE	LABEL	12/3/2015	AC Calibration Date
FRAMEWORKVERSION	QUANT	7.01	Framework Version
INSTRUMENTVERSION	LABEL	4.00	Instrument Version
CURVE	TABLE	62
	Pt	T	Vf	Im	Vu	Pwr	Sig	Ach	Temp	IERange	Over
	#	s	V	A	V	W	V	V	deg C	#	bits
	0	0.013333	4.07261E-001	-6.01208E-003	0.00000E+000	-2.44849E-003	-3.59960E-001	-1.07516E+000	3.57670E+000	10	...........
	1	0.026667	3.96536E-001	-6.01414E-003	0.00000E+000	-2.38482E-003	-3.59960E-001	-1.07053E+000	3.57670E+000	10	...........
	2	0.04	3.86554E-001	-6.00993E-003	0.00000E+000	-2.32316E-003	-3.59960E-001	-1.07935E+000	3.57670E+000	10	...........
	3	0.053333	3.77102E-001	-6.01574E-003	0.00000E+000	-2.26854E-003	-3.59960E-001	-1.07527E+000	3.57670E+000	10	...........
	4	0.066667	3.67960E-001	-6.01694E-003	0.00000E+000	-2.21399E-003	-3.59960E-001	-1.07024E+000	3.57670E+000	10	...........
	5	0.08	3.59073E-001	-6.01439E-003	0.00000E+000	-2.15961E-003	-3.59960E-001	-1.07931E+000	3.57670E+000	10	...........
	6	0.093333	3.50442E-001	-6.01483E-003	0.00000E+000	-2.10785E-003	-3.59960E-001	-1.07552E+000	3.57670E+000	10	...........
	7	0.106667	3.41986E-001	-6.01583E-003	0.00000E+000	-2.05733E-003	-3.59960E-001	-1.07073E+000	3.57670E+000	10	...........
	8	0.12	3.33696E-001	-6.01170E-003	0.00000E+000	-2.00608E-003	-3.59960E-001	-1.07954E+000	3.57670E+000	10	...........
	9	0.133333	3.25471E-001	-6.01245E-003	0.00000E+000	-1.95688E-003	-3.59960E-001	-1.07564E+000	3.57670E+000	10	...........
	10	0.146667	3.17390E-001	-6.01210E-003	0.00000E+000	-1.90818E-003	-3.59960E-001	-1.07089E+000	3.57670E+000	10	...........
	11	0.16	3.09436E-001	-6.01371E-003	0.00000E+000	-1.86086E-003	-3.59960E-001	-1.07996E+000	3.57670E+000	10	...........
	12	0.173333	3.01619E-001	-6.00800E-003	0.00000E+000	-1.81213E-003	-3.59960E-001	-1.07622E+000	3.57670E+000	10	...........
	13	0.186667	2.93898E-001	-6.01022E-003	0.00000E+000	-1.76639E-003	-3.59960E-001	-1.07105E+000	3.57670E+000	10	...........
	14	0.2	2.86231E-001	-6.00930E-003	0.00000E+000	-1.72005E-003	-3.59960E-001	-1.07981E+000	3.57670E+000	10	...........
	15	0.213333	2.78710E-001	-6.01553E-003	0.00000E+000	-1.67659E-003	-3.59960E-001	-1.07624E+000	3.57670E+000	10	...........
	16	0.226667	2.71267E-001	-6.01683E-003	0.00000E+000	-1.63217E-003	-3.59960E-001	-1.07141E+000	3.57670E+000	10	...........
	17	0.24	2.63901E-001	-6.01729E-003	0.00000E+000	-1.58797E-003	-3.59960E-001	-1.08025E+000	3.57670E+000	10	...........
	18	0.253333	2.56595E-001	-6.01444E-003	0.00000E+000	-1.54328E-003	-3.59960E-001	-1.07646E+000	3.57670E+000	10	...........
	19	0.266667	2.49335E-001	-6.01553E-003	0.00000E+000	-1.49988E-003	-3.59960E-001	-1.07159E+000	3.57670E+000	10	...........
	20	0.28	2.42147E-001	-6.01288E-003	0.00000E+000	-1.45600E-003	-3.59960E-001	-1.08043E+000	3.57670E+000	10	...........
	21	0.293333	2.35028E-001	-6.01485E-003	0.00000E+000	-1.41366E-003	-3.59960E-001	-1.07717E+000	3.57670E+000	10	...........
	22	0.306667	2.28070E-001	-6.01300E-003	0.00000E+000	-1.37138E-003	-3.59960E-001	-1.07208E+000	3.57670E+000	10	...........
	23	0.32	2.21175E-001	-6.01940E-003	0.00000E+000	-1.33134E-003	-3.59960E-001	-1.08056E+000	3.57670E+000	10	...........
	24	0.333333	2.14325E-001	-6.01336E-003	0.00000E+000	-1.28882E-003	-3.59960E-001	-1.07721E+000	3.57670E+000	10	...........
	25	0.346667	2.07531E-001	-6.01529E-003	0.00000E+000	-1.24836E-003	-3.59960E-001	-1.07205E+000	3.57670E+000	10	...........
	26	0.36	2.00770E-001	-6.01630E-003	0.00000E+000	-1.20789E-003	-3.59960E-001	-1.08072E+000	3.57670E+000	10	...........
	27	0.373333	1.94096E-001	-6.01556E-003	0.00000E+000	-1.16759E-003	-3.59960E-001	-1.07714E+000	3.57670E+000	10	...........
	28	0.386667	1.87532E-001	-6.01539E-003	0.00000E+000	-1.12808E-003	-3.59960E-001	-1.07188E+000	3.57670E+000	10	...........
	29	0.4	1.80972E-001	-6.01919E-003	0.00000E+000	-1.08930E-003	-3.59960E-001	-1.08045E+000	3.57670E+000	10	...........
	30	0.413333	1.74487E-001	-6.01365E-003	0.00000E+000	-1.04930E-003	-3.59960E-001	-1.07711E+000	3.57670E+000	10	...........
	31	0.426667	1.68063E-001	-6.01729E-003	0.00000E+000	-1.01129E-003	-3.59960E-001	-1.07202E+000	3.57670E+000	10	...........
	32	0.44	1.61735E-001	-6.01533E-003	0.00000E+000	-9.72888E-004	-3.59960E-001	-1.08081E+000	3.57670E+000	10	...........
	33	0.453333	1.55428E-001	-6.01785E-003	0.00000E+000	-9.35344E-004	-3.59960E-001	-1.07739E+000	3.57670E+000	10	...........
	34	0.466667	1.49186E-001	-6.01845E-003	0.00000E+000	-8.97867E-004	-3.59960E-001	-1.07216E+000	3.57670E+000	10	...........
	35	0.48	1.43000E-001	-6.00695E-003	0.00000E+000	-8.58993E-004	-3.59960E-001	-1.08064E+000	3.57670E+000	10	...........
	36	0.493333	1.36857E-001	-6.01714E-003	0.00000E+000	-8.23490E-004	-3.59960E-001	-1.07730E+000	3.57670E+000	10	...........
	37	0.506667	1.30832E-001	-6.01005E-003	0.00000E+000	-7.86307E-004	-3.59960E-001	-1.07239E+000	3.57670E+000	10	...........
	38	0.52	1.24797E-001	-6.01201E-003	0.00000E+000	-7.50281E-004	-3.59960E-001	-1.08073E+000	3.57670E+000	10	...........
	39	0.533333	1.18800E-001	-6.01474E-003	0.00000E+000	-7.14550E-004	-3.59960E-001	-1.07717E+000	3.57670E+000	10	...........
	40	0.546667	1.12930E-001	-6.01546E-003	0.00000E+000	-6.79325E-004	-3.59960E-001	-1.07209E+000	3.57670E+000	10	...........
	41	0.56	1.07063E-001	-6.01521E-003	0.00000E+000	-6.44009E-004	-3.59960E-001	-1.08078E+000	3.57670E+000	10	...........
	42	0.573333	1.01231E-001	-6.01612E-003	0.00000E+000	-6.09020E-004	-3.59960E-001	-1.07739E+000	3.57670E+000	10	...........
	43	0.586667	9.54873E-002	-6.01410E-003	0.00000E+000	-5.74270E-004	-3.59960E-001	-1.07236E+000	3.57670E+000	10	...........
	44	0.6	8.97586E-002	-6.01752E-003	0.00000E+000	-5.40124E-004	-3.59960E-001	-1.08086E+000	3.57670E+000	10	...........
	45	0.613333	8.40813E-002	-6.01283E-003	0.00000E+000	-5.05566E-004	-3.59960E-001	-1.07772E+000	3.57670E+000	10	...........
	46	0.626667	7.84587E-002	-6.01581E-003	0.00000E+000	-4.71993E-004	-3.59960E-001	-1.07253E+000	3.57670E+000	10	...........
	47	0.64	7.28601E-002	-6.01817E-003	0.00000E+000	-4.38484E-004	-3.59960E-001	-1.08115E+000	3.57670E+000	10	...........
	48	0.653333	6.73107E-002	-6.01248E-003	0.00000E+000	-4.04704E-004	-3.59960E-001	-1.07794E+000	3.57670E+000	10	...........
	49	0.666667	6.18049E-002	-6.01468E-003	0.00000E+000	-3.71737E-004	-3.59960E-001	-1.07253E+000	3.57670E+000	10	...........
	50	0.68	5.64025E-002	-6.01573E-003	0.00000E+000	-3.39302E-004	-3.59960E-001	-1.08085E+000	3.57670E+000	10	...........
	51	0.693333	5.10216E-002	-6.01915E-003	0.00000E+000	-3.07107E-004	-3.59960E-001	-1.07783E+000	3.57670E+000	10	...........
	52	0.706667	4.57236E-002	-6.01178E-003	0.00000E+000	-2.74880E-004	-3.59960E-001	-1.07249E+000	3.57670E+000	10	...........
	53	0.72	4.04188E-002	-6.01368E-003	0.00000E+000	-2.43066E-004	-3.59960E-001	-1.08081E+000	3.57670E+000	10	...........
	54	0.733333	3.51407E-002	-6.01450E-003	0.00000E+000	-2.11354E-004	-3.59960E-001	-1.07766E+000	3.57670E+000	10	...........
	55	0.746667	2.99008E-002	-6.01405E-003	0.00000E+000	-1.79825E-004	-3.59960E-001	-1.07226E+000	3.57670E+000	10	...........
	56	0.76	2.47055E-002	-6.01872E-003	0.00000E+000	-1.48695E-004	-3.59960E-001	-1.08077E+000	3.57670E+000	10	...........
	57	0.773333	1.95052E-002	-6.01583E-003	0.00000E+000	-1.17340E-004	-3.59960E-001	-1.07793E+000	3.57670E+000	10	...........
	58	0.786667	1.43711E-002	-6.01878E-003	0.00000E+000	-8.64966E-005	-3.59960E-001	-1.07254E+000	3.57670E+000	10	...........
	59	0.8	9.28342E-003	-6.01408E-003	0.00000E+000	-5.58312E-005	-3.59960E-001	-1.08076E+000	3.57775E+000	10	...........
	60	0.813333	4.26894E-003	-6.01679E-003	0.00000E+000	-2.56853E-005	-3.59960E-001	-1.07783E+000	3.57810E+000	10	...........
	61	0.82	5.33631E-004	-6.01126E-003	0.00000E+000	-3.20780E-006	-3.59960E-001	-1.07574E+000	3.57810E+000	10	...........
STARTTIMEOFFSET	QUANT	538.6699	Start Time Offset (s)
