EXPLAIN
TAG	PWR800_DISCHARGE
TITLE	LABEL	PWR Cyclic Charge Discharge (Cell) - Discharge Step	Test &Identifier
DATE	LABEL	22-6-2017	Date
TIME	LABEL	16:11:37	Time
NOTES	NOTES	3	&Notes...
	supercap test cell
	0.6mg
	6M KOH
PSTAT	PSTAT	IFC5000-01520	Potentiostat
CAPACITY	QUANT	1.00000E-003	Capacity (A-hr)
CELLTYPE	SELECTOR	1	&Cell Type
WORKINGCONNECTION	SELECTOR	0	&Working Lead
MAXDISCHARGETIME	VARIABLEANDUNITS	1.00000E+002	s	1.00000E+002	second(s)	Max &Discharge Time
DISCHARGEMODE	MULTIPARAM	0	6.00000E-003	&Discharge Mode	Constant Current	Amp(s)
SAMPLETIME	QUANT	1.00000E-002	Sa&mple Period (s)
DISCHARGESTOPAT1	MULTIPARAM	3	0.00000E+000	Discharge Stop At &1	Voltage < Limit	V
DISCHARGESTOPAT2	MULTIPARAM	0	0.00000E+000	Discharge Stop At &2	None	N/A
AESBHCSELECTOR	TOGGLE	F	Save Both Half Cells
IRCOMP	TOGGLE	F	IR &Measure
EOC	QUANT	0	Open Circuit (V)
SEQUENCER	TOGGLE	TRUE	Run as Sequence
PSTATMODEL	IQUANT	53	Pstat Model
PSTATSECTION	LABEL	IFC5000-01520	Pstat Section
PSTATSERIALNO	LABEL	01520	Pstat Serial Number
CTRLMODE	IQUANT	0	Control Mode
ELECTROMETER	IQUANT	1	RE=0 or CS=1
IESTAB	IQUANT	0	I/E Stability
CASPEED	IQUANT	4	Control Amp Speed
CONVENTION	IQUANT	1	Current Convention
ICHRANGE	IQUANT	2	Ich Range
ICHRANGEMODE	TOGGLE	T	Ich Auto Range
ICHOFFSETENABLE	TOGGLE	F	Ich Offset Enable
ICHOFFSET	QUANT	0	Ich Offset (V)
ICHFILTER	IQUANT	1	Ich Filter
VCHRANGE	IQUANT	2	Vch Range
VCHRANGEMODE	TOGGLE	T	Vch Auto Range
VCHOFFSETENABLE	TOGGLE	F	Vch Offset Enable
VCHOFFSET	QUANT	0	Vch Offset (V)
VCHFILTER	IQUANT	1	Vch Filter
IERANGELOWERLIMIT	IQUANT	9	I/E Range Lower Limit
IERANGEMODE	TOGGLE	F	I/E AutoRange
IERANGE	IQUANT	10	I/E Range
ACHSELECT	IQUANT	1	Ach Select
ACHRANGE	IQUANT	2	Ach Range
ACHOFFSETENABLE	TOGGLE	F	Ach Offset Enable
ACHOFFSET	QUANT	0	Ach Offset (V)
ACHFILTER	IQUANT	1	Ach Filter
CABLEID	IQUANT	14	Cable ID
DCCALDATE	LABEL	20-10-2016	DC Calibration Date
ACCALDATE	LABEL	12/3/2015	AC Calibration Date
FRAMEWORKVERSION	QUANT	7.01	Framework Version
INSTRUMENTVERSION	LABEL	4.00	Instrument Version
CURVE	TABLE	53
	Pt	T	Vf	Im	Vu	Pwr	Sig	Ach	Temp	IERange	Over
	#	s	V	A	V	W	V	V	deg C	#	bits
	0	0.013333	3.78588E-001	-6.01049E-003	0.00000E+000	-2.27550E-003	-3.59960E-001	-1.13550E+000	3.57650E+000	10	...........
	1	0.026667	3.66994E-001	-6.01684E-003	0.00000E+000	-2.20815E-003	-3.59960E-001	-1.14327E+000	3.57650E+000	10	...........
	2	0.04	3.56246E-001	-6.01323E-003	0.00000E+000	-2.14219E-003	-3.59960E-001	-1.14353E+000	3.57650E+000	10	...........
	3	0.053333	3.46004E-001	-6.01850E-003	0.00000E+000	-2.08243E-003	-3.59960E-001	-1.13589E+000	3.57650E+000	10	...........
	4	0.066667	3.36194E-001	-6.01914E-003	0.00000E+000	-2.02360E-003	-3.59960E-001	-1.14308E+000	3.57650E+000	10	...........
	5	0.08	3.26653E-001	-6.01418E-003	0.00000E+000	-1.96455E-003	-3.59960E-001	-1.14367E+000	3.57650E+000	10	...........
	6	0.093333	3.17318E-001	-6.01196E-003	0.00000E+000	-1.90770E-003	-3.59960E-001	-1.13637E+000	3.57650E+000	10	...........
	7	0.106667	3.08219E-001	-6.02019E-003	0.00000E+000	-1.85554E-003	-3.59960E-001	-1.14365E+000	3.57650E+000	10	...........
	8	0.12	2.99272E-001	-6.01759E-003	0.00000E+000	-1.80089E-003	-3.59960E-001	-1.14403E+000	3.57650E+000	10	...........
	9	0.133333	2.90445E-001	-6.01555E-003	0.00000E+000	-1.74719E-003	-3.59960E-001	-1.13643E+000	3.57650E+000	10	...........
	10	0.146667	2.81787E-001	-6.01335E-003	0.00000E+000	-1.69448E-003	-3.59960E-001	-1.14371E+000	3.57650E+000	10	...........
	11	0.16	2.73260E-001	-6.01911E-003	0.00000E+000	-1.64478E-003	-3.59960E-001	-1.14442E+000	3.57650E+000	10	...........
	12	0.173333	2.64873E-001	-6.01713E-003	0.00000E+000	-1.59378E-003	-3.59960E-001	-1.13683E+000	3.57650E+000	10	...........
	13	0.186667	2.56538E-001	-6.01479E-003	0.00000E+000	-1.54302E-003	-3.59960E-001	-1.14379E+000	3.57650E+000	10	...........
	14	0.2	2.48326E-001	-6.01127E-003	0.00000E+000	-1.49275E-003	-3.59960E-001	-1.14408E+000	3.57650E+000	10	...........
	15	0.213333	2.40257E-001	-6.01370E-003	0.00000E+000	-1.44483E-003	-3.59960E-001	-1.13644E+000	3.57650E+000	10	...........
	16	0.226667	2.32245E-001	-6.01186E-003	0.00000E+000	-1.39622E-003	-3.59960E-001	-1.14360E+000	3.57650E+000	10	...........
	17	0.24	2.24372E-001	-6.01369E-003	0.00000E+000	-1.34931E-003	-3.59960E-001	-1.14441E+000	3.57650E+000	10	...........
	18	0.253333	2.16581E-001	-6.01589E-003	0.00000E+000	-1.30293E-003	-3.59960E-001	-1.13653E+000	3.57650E+000	10	...........
	19	0.266667	2.08908E-001	-6.01558E-003	0.00000E+000	-1.25670E-003	-3.59960E-001	-1.14344E+000	3.57650E+000	10	...........
	20	0.28	2.01322E-001	-6.01245E-003	0.00000E+000	-1.21044E-003	-3.59960E-001	-1.14450E+000	3.57650E+000	10	...........
	21	0.293333	1.93790E-001	-6.01578E-003	0.00000E+000	-1.16580E-003	-3.59960E-001	-1.13663E+000	3.57650E+000	10	...........
	22	0.306667	1.86391E-001	-6.01430E-003	0.00000E+000	-1.12101E-003	-3.59960E-001	-1.14370E+000	3.57650E+000	10	...........
	23	0.32	1.79095E-001	-6.01769E-003	0.00000E+000	-1.07774E-003	-3.59960E-001	-1.14471E+000	3.57650E+000	10	...........
	24	0.333333	1.71812E-001	-6.01273E-003	0.00000E+000	-1.03306E-003	-3.59960E-001	-1.13692E+000	3.57650E+000	10	...........
	25	0.346667	1.64687E-001	-6.02033E-003	0.00000E+000	-9.91471E-004	-3.59960E-001	-1.14373E+000	3.57650E+000	10	...........
	26	0.36	1.57595E-001	-6.01560E-003	0.00000E+000	-9.48027E-004	-3.59960E-001	-1.14518E+000	3.57650E+000	10	...........
	27	0.373333	1.50630E-001	-6.01668E-003	0.00000E+000	-9.06294E-004	-3.59960E-001	-1.13737E+000	3.57637E+000	10	...........
	28	0.386667	1.43742E-001	-6.01286E-003	0.00000E+000	-8.64298E-004	-3.59960E-001	-1.14378E+000	3.57630E+000	10	...........
	29	0.4	1.36855E-001	-6.01774E-003	0.00000E+000	-8.23558E-004	-3.59960E-001	-1.14529E+000	3.57630E+000	10	...........
	30	0.413333	1.30106E-001	-6.01271E-003	0.00000E+000	-7.82288E-004	-3.59960E-001	-1.13742E+000	3.57630E+000	10	...........
	31	0.426667	1.23424E-001	-6.01405E-003	0.00000E+000	-7.42276E-004	-3.59960E-001	-1.14394E+000	3.57630E+000	10	...........
	32	0.44	1.16803E-001	-6.01294E-003	0.00000E+000	-7.02328E-004	-3.59960E-001	-1.14574E+000	3.57630E+000	10	...........
	33	0.453333	1.10262E-001	-6.01122E-003	0.00000E+000	-6.62812E-004	-3.59960E-001	-1.13754E+000	3.57630E+000	10	...........
	34	0.466667	1.03791E-001	-6.01475E-003	0.00000E+000	-6.24280E-004	-3.59960E-001	-1.14382E+000	3.57630E+000	10	...........
	35	0.48	9.74229E-002	-6.01527E-003	0.00000E+000	-5.86025E-004	-3.59960E-001	-1.14562E+000	3.57630E+000	10	...........
	36	0.493333	9.10931E-002	-6.01572E-003	0.00000E+000	-5.47991E-004	-3.59960E-001	-1.13764E+000	3.57630E+000	10	...........
	37	0.506667	8.48017E-002	-6.01780E-003	0.00000E+000	-5.10320E-004	-3.59960E-001	-1.14399E+000	3.57630E+000	10	...........
	38	0.52	7.85898E-002	-6.01576E-003	0.00000E+000	-4.72777E-004	-3.59960E-001	-1.14562E+000	3.57630E+000	10	...........
	39	0.533333	7.24110E-002	-6.01574E-003	0.00000E+000	-4.35606E-004	-3.59960E-001	-1.13700E+000	3.57630E+000	10	...........
	40	0.546667	6.63574E-002	-6.01593E-003	0.00000E+000	-3.99202E-004	-3.59960E-001	-1.14312E+000	3.57630E+000	10	...........
	41	0.56	6.03604E-002	-6.01212E-003	0.00000E+000	-3.62894E-004	-3.59960E-001	-1.14558E+000	3.57630E+000	10	...........
	42	0.573333	5.43536E-002	-6.01310E-003	0.00000E+000	-3.26833E-004	-3.59960E-001	-1.13747E+000	3.57630E+000	10	...........
	43	0.586667	4.84777E-002	-6.02138E-003	0.00000E+000	-2.91903E-004	-3.59960E-001	-1.14329E+000	3.57630E+000	10	...........
	44	0.6	4.26388E-002	-6.01377E-003	0.00000E+000	-2.56420E-004	-3.59960E-001	-1.14558E+000	3.57630E+000	10	...........
	45	0.613333	3.68736E-002	-6.01610E-003	0.00000E+000	-2.21835E-004	-3.59960E-001	-1.13744E+000	3.57630E+000	10	...........
	46	0.626667	3.11003E-002	-6.01359E-003	0.00000E+000	-1.87024E-004	-3.59960E-001	-1.14331E+000	3.57630E+000	10	...........
	47	0.64	2.54640E-002	-6.00976E-003	0.00000E+000	-1.53032E-004	-3.59960E-001	-1.14606E+000	3.57630E+000	10	...........
	48	0.653333	1.98898E-002	-6.00846E-003	0.00000E+000	-1.19507E-004	-3.59960E-001	-1.13757E+000	3.57630E+000	10	...........
	49	0.666667	1.42769E-002	-6.01304E-003	0.00000E+000	-8.58474E-005	-3.59960E-001	-1.14327E+000	3.57630E+000	10	...........
	50	0.68	8.78011E-003	-6.01239E-003	0.00000E+000	-5.27894E-005	-3.59960E-001	-1.14599E+000	3.57630E+000	10	...........
	51	0.693333	3.34706E-003	-6.01534E-003	0.00000E+000	-2.01337E-005	-3.59960E-001	-1.13770E+000	3.57630E+000	10	...........
	52	0.696667	-3.92749E-005	-6.02063E-003	0.00000E+000	2.36459E-007	-3.59960E-001	-1.15289E+000	3.57630E+000	10	...........
STARTTIMEOFFSET	QUANT	1470.606	Start Time Offset (s)
