EXPLAIN
TAG	PWR800_DISCHARGE
TITLE	LABEL	PWR Cyclic Charge Discharge (Cell) - Discharge Step	Test &Identifier
DATE	LABEL	22-6-2017	Date
TIME	LABEL	16:00:01	Time
NOTES	NOTES	3	&Notes...
	supercap test cell
	0.6mg
	6M KOH
PSTAT	PSTAT	IFC5000-01520	Potentiostat
CAPACITY	QUANT	1.00000E-003	Capacity (A-hr)
CELLTYPE	SELECTOR	1	&Cell Type
WORKINGCONNECTION	SELECTOR	0	&Working Lead
MAXDISCHARGETIME	VARIABLEANDUNITS	1.00000E+002	s	1.00000E+002	second(s)	Max &Discharge Time
DISCHARGEMODE	MULTIPARAM	0	6.00000E-003	&Discharge Mode	Constant Current	Amp(s)
SAMPLETIME	QUANT	1.00000E-002	Sa&mple Period (s)
DISCHARGESTOPAT1	MULTIPARAM	3	0.00000E+000	Discharge Stop At &1	Voltage < Limit	V
DISCHARGESTOPAT2	MULTIPARAM	0	0.00000E+000	Discharge Stop At &2	None	N/A
AESBHCSELECTOR	TOGGLE	F	Save Both Half Cells
IRCOMP	TOGGLE	F	IR &Measure
EOC	QUANT	0	Open Circuit (V)
SEQUENCER	TOGGLE	TRUE	Run as Sequence
PSTATMODEL	IQUANT	53	Pstat Model
PSTATSECTION	LABEL	IFC5000-01520	Pstat Section
PSTATSERIALNO	LABEL	01520	Pstat Serial Number
CTRLMODE	IQUANT	0	Control Mode
ELECTROMETER	IQUANT	1	RE=0 or CS=1
IESTAB	IQUANT	0	I/E Stability
CASPEED	IQUANT	4	Control Amp Speed
CONVENTION	IQUANT	1	Current Convention
ICHRANGE	IQUANT	2	Ich Range
ICHRANGEMODE	TOGGLE	T	Ich Auto Range
ICHOFFSETENABLE	TOGGLE	F	Ich Offset Enable
ICHOFFSET	QUANT	0	Ich Offset (V)
ICHFILTER	IQUANT	1	Ich Filter
VCHRANGE	IQUANT	2	Vch Range
VCHRANGEMODE	TOGGLE	T	Vch Auto Range
VCHOFFSETENABLE	TOGGLE	F	Vch Offset Enable
VCHOFFSET	QUANT	0	Vch Offset (V)
VCHFILTER	IQUANT	1	Vch Filter
IERANGELOWERLIMIT	IQUANT	9	I/E Range Lower Limit
IERANGEMODE	TOGGLE	F	I/E AutoRange
IERANGE	IQUANT	10	I/E Range
ACHSELECT	IQUANT	1	Ach Select
ACHRANGE	IQUANT	2	Ach Range
ACHOFFSETENABLE	TOGGLE	F	Ach Offset Enable
ACHOFFSET	QUANT	0	Ach Offset (V)
ACHFILTER	IQUANT	1	Ach Filter
CABLEID	IQUANT	14	Cable ID
DCCALDATE	LABEL	20-10-2016	DC Calibration Date
ACCALDATE	LABEL	12/3/2015	AC Calibration Date
FRAMEWORKVERSION	QUANT	7.01	Framework Version
INSTRUMENTVERSION	LABEL	4.00	Instrument Version
CURVE	TABLE	56
	Pt	T	Vf	Im	Vu	Pwr	Sig	Ach	Temp	IERange	Over
	#	s	V	A	V	W	V	V	deg C	#	bits
	0	0.013333	3.89922E-001	-6.01288E-003	0.00000E+000	-2.34455E-003	-3.59960E-001	-1.11565E+000	3.57653E+000	10	...........
	1	0.026667	3.78661E-001	-6.01374E-003	0.00000E+000	-2.27717E-003	-3.59960E-001	-1.11277E+000	3.57640E+000	10	...........
	2	0.04	3.68248E-001	-6.01494E-003	0.00000E+000	-2.21499E-003	-3.59960E-001	-1.12368E+000	3.57640E+000	10	...........
	3	0.053333	3.58390E-001	-6.01139E-003	0.00000E+000	-2.15442E-003	-3.59960E-001	-1.11593E+000	3.57640E+000	10	...........
	4	0.066667	3.48819E-001	-6.01659E-003	0.00000E+000	-2.09870E-003	-3.59960E-001	-1.11298E+000	3.57640E+000	10	...........
	5	0.08	3.39585E-001	-6.01468E-003	0.00000E+000	-2.04249E-003	-3.59960E-001	-1.12357E+000	3.57640E+000	10	...........
	6	0.093333	3.30593E-001	-6.01304E-003	0.00000E+000	-1.98787E-003	-3.59960E-001	-1.11576E+000	3.57640E+000	10	...........
	7	0.106667	3.21752E-001	-6.01727E-003	0.00000E+000	-1.93607E-003	-3.59960E-001	-1.11283E+000	3.57640E+000	10	...........
	8	0.12	3.13089E-001	-6.01260E-003	0.00000E+000	-1.88248E-003	-3.59960E-001	-1.12360E+000	3.57640E+000	10	...........
	9	0.133333	3.04587E-001	-6.01679E-003	0.00000E+000	-1.83263E-003	-3.59960E-001	-1.11625E+000	3.57640E+000	10	...........
	10	0.146667	2.96177E-001	-6.01454E-003	0.00000E+000	-1.78136E-003	-3.59960E-001	-1.11298E+000	3.57640E+000	10	...........
	11	0.16	2.87889E-001	-6.01362E-003	0.00000E+000	-1.73126E-003	-3.59960E-001	-1.12363E+000	3.57640E+000	10	...........
	12	0.173333	2.79745E-001	-6.00970E-003	0.00000E+000	-1.68118E-003	-3.59960E-001	-1.11651E+000	3.57640E+000	10	...........
	13	0.186667	2.71657E-001	-6.01377E-003	0.00000E+000	-1.63368E-003	-3.59960E-001	-1.11316E+000	3.57640E+000	10	...........
	14	0.2	2.63715E-001	-6.01331E-003	0.00000E+000	-1.58580E-003	-3.59960E-001	-1.12371E+000	3.57640E+000	10	...........
	15	0.213333	2.55818E-001	-6.01557E-003	0.00000E+000	-1.53889E-003	-3.59960E-001	-1.11669E+000	3.57640E+000	10	...........
	16	0.226667	2.48084E-001	-6.01744E-003	0.00000E+000	-1.49283E-003	-3.59960E-001	-1.11297E+000	3.57640E+000	10	...........
	17	0.24	2.40416E-001	-6.01075E-003	0.00000E+000	-1.44508E-003	-3.59960E-001	-1.12364E+000	3.57640E+000	10	...........
	18	0.253333	2.32797E-001	-6.01666E-003	0.00000E+000	-1.40066E-003	-3.59960E-001	-1.11704E+000	3.57640E+000	10	...........
	19	0.266667	2.25330E-001	-6.01158E-003	0.00000E+000	-1.35459E-003	-3.59960E-001	-1.11334E+000	3.57640E+000	10	...........
	20	0.28	2.17915E-001	-6.02031E-003	0.00000E+000	-1.31192E-003	-3.59960E-001	-1.12383E+000	3.57640E+000	10	...........
	21	0.293333	2.10615E-001	-6.01197E-003	0.00000E+000	-1.26621E-003	-3.59960E-001	-1.11750E+000	3.57640E+000	10	...........
	22	0.306667	2.03370E-001	-6.01401E-003	0.00000E+000	-1.22307E-003	-3.59960E-001	-1.11339E+000	3.57640E+000	10	...........
	23	0.32	1.96189E-001	-6.01654E-003	0.00000E+000	-1.18038E-003	-3.59960E-001	-1.12397E+000	3.57640E+000	10	...........
	24	0.333333	1.89104E-001	-6.01956E-003	0.00000E+000	-1.13833E-003	-3.59960E-001	-1.11789E+000	3.57640E+000	10	...........
	25	0.346667	1.82109E-001	-6.01709E-003	0.00000E+000	-1.09577E-003	-3.59960E-001	-1.11376E+000	3.57640E+000	10	...........
	26	0.36	1.75200E-001	-6.02048E-003	0.00000E+000	-1.05479E-003	-3.59960E-001	-1.12408E+000	3.57640E+000	10	...........
	27	0.373333	1.68307E-001	-6.01955E-003	0.00000E+000	-1.01314E-003	-3.59960E-001	-1.11785E+000	3.57640E+000	10	...........
	28	0.386667	1.61494E-001	-6.01399E-003	0.00000E+000	-9.71222E-004	-3.59960E-001	-1.11355E+000	3.57640E+000	10	...........
	29	0.4	1.54801E-001	-6.01152E-003	0.00000E+000	-9.30590E-004	-3.59960E-001	-1.12372E+000	3.57640E+000	10	...........
	30	0.413333	1.48168E-001	-6.01564E-003	0.00000E+000	-8.91328E-004	-3.59960E-001	-1.11800E+000	3.57640E+000	10	...........
	31	0.426667	1.41596E-001	-6.01411E-003	0.00000E+000	-8.51572E-004	-3.59960E-001	-1.11324E+000	3.57640E+000	10	...........
	32	0.44	1.35060E-001	-6.01968E-003	0.00000E+000	-8.13015E-004	-3.59960E-001	-1.12357E+000	3.57640E+000	10	...........
	33	0.453333	1.28653E-001	-6.01346E-003	0.00000E+000	-7.73652E-004	-3.59960E-001	-1.11783E+000	3.57640E+000	10	...........
	34	0.466667	1.22279E-001	-6.01755E-003	0.00000E+000	-7.35820E-004	-3.59960E-001	-1.11367E+000	3.57640E+000	10	...........
	35	0.48	1.16007E-001	-6.02316E-003	0.00000E+000	-6.98728E-004	-3.59960E-001	-1.12357E+000	3.57640E+000	10	...........
	36	0.493333	1.09728E-001	-6.00876E-003	0.00000E+000	-6.59327E-004	-3.59960E-001	-1.11793E+000	3.57640E+000	10	...........
	37	0.506667	1.03513E-001	-6.01993E-003	0.00000E+000	-6.23142E-004	-3.59960E-001	-1.11337E+000	3.57640E+000	10	...........
	38	0.52	9.73876E-002	-6.01510E-003	0.00000E+000	-5.85796E-004	-3.59960E-001	-1.12349E+000	3.57640E+000	10	...........
	39	0.533333	9.13155E-002	-6.01461E-003	0.00000E+000	-5.49227E-004	-3.59960E-001	-1.11838E+000	3.57640E+000	10	...........
	40	0.546667	8.53174E-002	-6.01549E-003	0.00000E+000	-5.13225E-004	-3.59960E-001	-1.11349E+000	3.57640E+000	10	...........
	41	0.56	7.93535E-002	-6.01675E-003	0.00000E+000	-4.77450E-004	-3.59960E-001	-1.12295E+000	3.57640E+000	10	...........
	42	0.573333	7.34755E-002	-6.01483E-003	0.00000E+000	-4.41942E-004	-3.59960E-001	-1.11825E+000	3.57640E+000	10	...........
	43	0.586667	6.76446E-002	-6.01591E-003	0.00000E+000	-4.06944E-004	-3.59960E-001	-1.11350E+000	3.57640E+000	10	...........
	44	0.6	6.18290E-002	-6.01824E-003	0.00000E+000	-3.72102E-004	-3.59960E-001	-1.12332E+000	3.57640E+000	10	...........
	45	0.613333	5.60898E-002	-6.01931E-003	0.00000E+000	-3.37622E-004	-3.59960E-001	-1.11873E+000	3.57640E+000	10	...........
	46	0.626667	5.03886E-002	-6.01552E-003	0.00000E+000	-3.03113E-004	-3.59960E-001	-1.11354E+000	3.57640E+000	10	...........
	47	0.64	4.48016E-002	-6.01247E-003	0.00000E+000	-2.69368E-004	-3.59960E-001	-1.12293E+000	3.57640E+000	10	...........
	48	0.653333	3.92529E-002	-6.01819E-003	0.00000E+000	-2.36231E-004	-3.59960E-001	-1.11891E+000	3.57640E+000	10	...........
	49	0.666667	3.37052E-002	-6.01759E-003	0.00000E+000	-2.02824E-004	-3.59960E-001	-1.11383E+000	3.57640E+000	10	...........
	50	0.68	2.82074E-002	-6.01478E-003	0.00000E+000	-1.69661E-004	-3.59960E-001	-1.12294E+000	3.57640E+000	10	...........
	51	0.693333	2.27665E-002	-6.01471E-003	0.00000E+000	-1.36934E-004	-3.59960E-001	-1.11890E+000	3.57640E+000	10	...........
	52	0.706667	1.73635E-002	-6.01610E-003	0.00000E+000	-1.04461E-004	-3.59960E-001	-1.11333E+000	3.57640E+000	10	...........
	53	0.72	1.20341E-002	-6.02080E-003	0.00000E+000	-7.24552E-005	-3.59960E-001	-1.12235E+000	3.57640E+000	10	...........
	54	0.733333	6.73594E-003	-6.01676E-003	0.00000E+000	-4.05285E-005	-3.59960E-001	-1.11905E+000	3.57640E+000	10	...........
	55	0.745	1.78338E-003	-6.01553E-003	0.00000E+000	-1.07280E-005	-3.59960E-001	-1.11228E+000	3.57640E+000	10	...........
STARTTIMEOFFSET	QUANT	1020.68	Start Time Offset (s)
