EXPLAIN
TAG	PWR800_DISCHARGE
TITLE	LABEL	PWR Cyclic Charge Discharge (Cell) - Discharge Step	Test &Identifier
DATE	LABEL	22-6-2017	Date
TIME	LABEL	16:00:10	Time
NOTES	NOTES	3	&Notes...
	supercap test cell
	0.6mg
	6M KOH
PSTAT	PSTAT	IFC5000-01520	Potentiostat
CAPACITY	QUANT	1.00000E-003	Capacity (A-hr)
CELLTYPE	SELECTOR	1	&Cell Type
WORKINGCONNECTION	SELECTOR	0	&Working Lead
MAXDISCHARGETIME	VARIABLEANDUNITS	1.00000E+002	s	1.00000E+002	second(s)	Max &Discharge Time
DISCHARGEMODE	MULTIPARAM	0	6.00000E-003	&Discharge Mode	Constant Current	Amp(s)
SAMPLETIME	QUANT	1.00000E-002	Sa&mple Period (s)
DISCHARGESTOPAT1	MULTIPARAM	3	0.00000E+000	Discharge Stop At &1	Voltage < Limit	V
DISCHARGESTOPAT2	MULTIPARAM	0	0.00000E+000	Discharge Stop At &2	None	N/A
AESBHCSELECTOR	TOGGLE	F	Save Both Half Cells
IRCOMP	TOGGLE	F	IR &Measure
EOC	QUANT	0	Open Circuit (V)
SEQUENCER	TOGGLE	TRUE	Run as Sequence
PSTATMODEL	IQUANT	53	Pstat Model
PSTATSECTION	LABEL	IFC5000-01520	Pstat Section
PSTATSERIALNO	LABEL	01520	Pstat Serial Number
CTRLMODE	IQUANT	0	Control Mode
ELECTROMETER	IQUANT	1	RE=0 or CS=1
IESTAB	IQUANT	0	I/E Stability
CASPEED	IQUANT	4	Control Amp Speed
CONVENTION	IQUANT	1	Current Convention
ICHRANGE	IQUANT	2	Ich Range
ICHRANGEMODE	TOGGLE	T	Ich Auto Range
ICHOFFSETENABLE	TOGGLE	F	Ich Offset Enable
ICHOFFSET	QUANT	0	Ich Offset (V)
ICHFILTER	IQUANT	1	Ich Filter
VCHRANGE	IQUANT	2	Vch Range
VCHRANGEMODE	TOGGLE	T	Vch Auto Range
VCHOFFSETENABLE	TOGGLE	F	Vch Offset Enable
VCHOFFSET	QUANT	0	Vch Offset (V)
VCHFILTER	IQUANT	1	Vch Filter
IERANGELOWERLIMIT	IQUANT	9	I/E Range Lower Limit
IERANGEMODE	TOGGLE	F	I/E AutoRange
IERANGE	IQUANT	10	I/E Range
ACHSELECT	IQUANT	1	Ach Select
ACHRANGE	IQUANT	2	Ach Range
ACHOFFSETENABLE	TOGGLE	F	Ach Offset Enable
ACHOFFSET	QUANT	0	Ach Offset (V)
ACHFILTER	IQUANT	1	Ach Filter
CABLEID	IQUANT	14	Cable ID
DCCALDATE	LABEL	20-10-2016	DC Calibration Date
ACCALDATE	LABEL	12/3/2015	AC Calibration Date
FRAMEWORKVERSION	QUANT	7.01	Framework Version
INSTRUMENTVERSION	LABEL	4.00	Instrument Version
CURVE	TABLE	56
	Pt	T	Vf	Im	Vu	Pwr	Sig	Ach	Temp	IERange	Over
	#	s	V	A	V	W	V	V	deg C	#	bits
	0	0.013333	3.88859E-001	-6.01493E-003	0.00000E+000	-2.33896E-003	-3.59960E-001	-1.11404E+000	3.57710E+000	10	...........
	1	0.026667	3.77715E-001	-6.01390E-003	0.00000E+000	-2.27154E-003	-3.59960E-001	-1.11496E+000	3.57710E+000	10	...........
	2	0.04	3.67310E-001	-6.01073E-003	0.00000E+000	-2.20780E-003	-3.59960E-001	-1.12461E+000	3.57710E+000	10	...........
	3	0.053333	3.57426E-001	-6.01458E-003	0.00000E+000	-2.14976E-003	-3.59960E-001	-1.11410E+000	3.57710E+000	10	...........
	4	0.066667	3.47897E-001	-6.01869E-003	0.00000E+000	-2.09389E-003	-3.59960E-001	-1.11515E+000	3.57710E+000	10	...........
	5	0.08	3.38658E-001	-6.01388E-003	0.00000E+000	-2.03665E-003	-3.59960E-001	-1.12502E+000	3.57710E+000	10	...........
	6	0.093333	3.29625E-001	-6.01479E-003	0.00000E+000	-1.98262E-003	-3.59960E-001	-1.11453E+000	3.57710E+000	10	...........
	7	0.106667	3.20772E-001	-6.01782E-003	0.00000E+000	-1.93035E-003	-3.59960E-001	-1.11530E+000	3.57710E+000	10	...........
	8	0.12	3.12101E-001	-6.01695E-003	0.00000E+000	-1.87789E-003	-3.59960E-001	-1.12524E+000	3.57710E+000	10	...........
	9	0.133333	3.03575E-001	-6.01200E-003	0.00000E+000	-1.82509E-003	-3.59960E-001	-1.11479E+000	3.57710E+000	10	...........
	10	0.146667	2.95150E-001	-6.01595E-003	0.00000E+000	-1.77561E-003	-3.59960E-001	-1.11575E+000	3.57710E+000	10	...........
	11	0.16	2.86886E-001	-6.01768E-003	0.00000E+000	-1.72639E-003	-3.59960E-001	-1.12578E+000	3.57710E+000	10	...........
	12	0.173333	2.78705E-001	-6.01472E-003	0.00000E+000	-1.67633E-003	-3.59960E-001	-1.11522E+000	3.57710E+000	10	...........
	13	0.186667	2.70605E-001	-6.01428E-003	0.00000E+000	-1.62749E-003	-3.59960E-001	-1.11594E+000	3.57710E+000	10	...........
	14	0.2	2.62687E-001	-6.01093E-003	0.00000E+000	-1.57899E-003	-3.59960E-001	-1.12611E+000	3.57710E+000	10	...........
	15	0.213333	2.54829E-001	-6.01588E-003	0.00000E+000	-1.53302E-003	-3.59960E-001	-1.11537E+000	3.57710E+000	10	...........
	16	0.226667	2.47064E-001	-6.01530E-003	0.00000E+000	-1.48617E-003	-3.59960E-001	-1.11602E+000	3.57710E+000	10	...........
	17	0.24	2.39394E-001	-6.01448E-003	0.00000E+000	-1.43983E-003	-3.59960E-001	-1.12605E+000	3.57710E+000	10	...........
	18	0.253333	2.31813E-001	-6.01583E-003	0.00000E+000	-1.39455E-003	-3.59960E-001	-1.11519E+000	3.57710E+000	10	...........
	19	0.266667	2.24296E-001	-6.01421E-003	0.00000E+000	-1.34896E-003	-3.59960E-001	-1.11549E+000	3.57710E+000	10	...........
	20	0.28	2.16874E-001	-6.01185E-003	0.00000E+000	-1.30381E-003	-3.59960E-001	-1.12584E+000	3.57710E+000	10	...........
	21	0.293333	2.09529E-001	-6.01151E-003	0.00000E+000	-1.25958E-003	-3.59960E-001	-1.11560E+000	3.57710E+000	10	...........
	22	0.306667	2.02296E-001	-6.00860E-003	0.00000E+000	-1.21551E-003	-3.59960E-001	-1.11606E+000	3.57710E+000	10	...........
	23	0.32	1.95134E-001	-6.01706E-003	0.00000E+000	-1.17414E-003	-3.59960E-001	-1.12606E+000	3.57710E+000	10	...........
	24	0.333333	1.88064E-001	-6.01668E-003	0.00000E+000	-1.13152E-003	-3.59960E-001	-1.11538E+000	3.57710E+000	10	...........
	25	0.346667	1.81072E-001	-6.01485E-003	0.00000E+000	-1.08912E-003	-3.59960E-001	-1.11621E+000	3.57710E+000	10	...........
	26	0.36	1.74157E-001	-6.01981E-003	0.00000E+000	-1.04839E-003	-3.59960E-001	-1.12620E+000	3.57710E+000	10	...........
	27	0.373333	1.67280E-001	-6.01794E-003	0.00000E+000	-1.00668E-003	-3.59960E-001	-1.11559E+000	3.57710E+000	10	...........
	28	0.386667	1.60485E-001	-6.01770E-003	0.00000E+000	-9.65752E-004	-3.59960E-001	-1.11611E+000	3.57710E+000	10	...........
	29	0.4	1.53803E-001	-6.01372E-003	0.00000E+000	-9.24927E-004	-3.59960E-001	-1.12629E+000	3.57710E+000	10	...........
	30	0.413333	1.47203E-001	-6.01105E-003	0.00000E+000	-8.84845E-004	-3.59960E-001	-1.11595E+000	3.57710E+000	10	...........
	31	0.426667	1.40584E-001	-6.02016E-003	0.00000E+000	-8.46340E-004	-3.59960E-001	-1.11633E+000	3.57710E+000	10	...........
	32	0.44	1.34127E-001	-6.01282E-003	0.00000E+000	-8.06479E-004	-3.59960E-001	-1.12619E+000	3.57710E+000	10	...........
	33	0.453333	1.27654E-001	-6.01977E-003	0.00000E+000	-7.68446E-004	-3.59960E-001	-1.11575E+000	3.57710E+000	10	...........
	34	0.466667	1.21281E-001	-6.01979E-003	0.00000E+000	-7.30086E-004	-3.59960E-001	-1.11641E+000	3.57710E+000	10	...........
	35	0.48	1.14983E-001	-6.01940E-003	0.00000E+000	-6.92131E-004	-3.59960E-001	-1.12664E+000	3.57710E+000	10	...........
	36	0.493333	1.08724E-001	-6.01826E-003	0.00000E+000	-6.54330E-004	-3.59960E-001	-1.11634E+000	3.57710E+000	10	...........
	37	0.506667	1.02530E-001	-6.02000E-003	0.00000E+000	-6.17233E-004	-3.59960E-001	-1.11660E+000	3.57710E+000	10	...........
	38	0.52	9.64131E-002	-6.01189E-003	0.00000E+000	-5.79624E-004	-3.59960E-001	-1.12679E+000	3.57710E+000	10	...........
	39	0.533333	9.03654E-002	-6.01231E-003	0.00000E+000	-5.43305E-004	-3.59960E-001	-1.11626E+000	3.57710E+000	10	...........
	40	0.546667	8.43590E-002	-6.01571E-003	0.00000E+000	-5.07479E-004	-3.59960E-001	-1.11673E+000	3.57710E+000	10	...........
	41	0.56	7.84202E-002	-6.01696E-003	0.00000E+000	-4.71851E-004	-3.59960E-001	-1.12698E+000	3.57710E+000	10	...........
	42	0.573333	7.25061E-002	-6.01349E-003	0.00000E+000	-4.36015E-004	-3.59960E-001	-1.11635E+000	3.57710E+000	10	...........
	43	0.586667	6.66514E-002	-6.01665E-003	0.00000E+000	-4.01018E-004	-3.59960E-001	-1.11621E+000	3.57710E+000	10	...........
	44	0.6	6.08509E-002	-6.01502E-003	0.00000E+000	-3.66019E-004	-3.59960E-001	-1.12639E+000	3.57710E+000	10	...........
	45	0.613333	5.50695E-002	-6.01217E-003	0.00000E+000	-3.31087E-004	-3.59960E-001	-1.11616E+000	3.57710E+000	10	...........
	46	0.626667	4.94159E-002	-6.01217E-003	0.00000E+000	-2.97097E-004	-3.59960E-001	-1.11649E+000	3.57710E+000	10	...........
	47	0.64	4.38216E-002	-6.01404E-003	0.00000E+000	-2.63544E-004	-3.59960E-001	-1.12667E+000	3.57710E+000	10	...........
	48	0.653333	3.82081E-002	-6.01469E-003	0.00000E+000	-2.29810E-004	-3.59960E-001	-1.11599E+000	3.57710E+000	10	...........
	49	0.666667	3.26573E-002	-6.01479E-003	0.00000E+000	-1.96426E-004	-3.59960E-001	-1.11646E+000	3.57710E+000	10	...........
	50	0.68	2.72089E-002	-6.01042E-003	0.00000E+000	-1.63537E-004	-3.59960E-001	-1.12689E+000	3.57710E+000	10	...........
	51	0.693333	2.17907E-002	-6.01530E-003	0.00000E+000	-1.31078E-004	-3.59960E-001	-1.11610E+000	3.57710E+000	10	...........
	52	0.706667	1.64066E-002	-6.01639E-003	0.00000E+000	-9.87084E-005	-3.59960E-001	-1.11634E+000	3.57710E+000	10	...........
	53	0.72	1.10501E-002	-6.01419E-003	0.00000E+000	-6.64575E-005	-3.59960E-001	-1.12660E+000	3.57710E+000	10	...........
	54	0.733333	5.74013E-003	-6.01634E-003	0.00000E+000	-3.45346E-005	-3.59960E-001	-1.11623E+000	3.57710E+000	10	...........
	55	0.743333	1.15217E-003	-6.01024E-003	0.00000E+000	-6.92483E-006	-3.59960E-001	-1.12042E+000	3.57710E+000	10	...........
STARTTIMEOFFSET	QUANT	1026.664	Start Time Offset (s)
