EXPLAIN
TAG	PWR800_DISCHARGE
TITLE	LABEL	PWR Cyclic Charge Discharge (Cell) - Discharge Step	Test &Identifier
DATE	LABEL	22-6-2017	Date
TIME	LABEL	16:03:25	Time
NOTES	NOTES	3	&Notes...
	supercap test cell
	0.6mg
	6M KOH
PSTAT	PSTAT	IFC5000-01520	Potentiostat
CAPACITY	QUANT	1.00000E-003	Capacity (A-hr)
CELLTYPE	SELECTOR	1	&Cell Type
WORKINGCONNECTION	SELECTOR	0	&Working Lead
MAXDISCHARGETIME	VARIABLEANDUNITS	1.00000E+002	s	1.00000E+002	second(s)	Max &Discharge Time
DISCHARGEMODE	MULTIPARAM	0	6.00000E-003	&Discharge Mode	Constant Current	Amp(s)
SAMPLETIME	QUANT	1.00000E-002	Sa&mple Period (s)
DISCHARGESTOPAT1	MULTIPARAM	3	0.00000E+000	Discharge Stop At &1	Voltage < Limit	V
DISCHARGESTOPAT2	MULTIPARAM	0	0.00000E+000	Discharge Stop At &2	None	N/A
AESBHCSELECTOR	TOGGLE	F	Save Both Half Cells
IRCOMP	TOGGLE	F	IR &Measure
EOC	QUANT	0	Open Circuit (V)
SEQUENCER	TOGGLE	TRUE	Run as Sequence
PSTATMODEL	IQUANT	53	Pstat Model
PSTATSECTION	LABEL	IFC5000-01520	Pstat Section
PSTATSERIALNO	LABEL	01520	Pstat Serial Number
CTRLMODE	IQUANT	0	Control Mode
ELECTROMETER	IQUANT	1	RE=0 or CS=1
IESTAB	IQUANT	0	I/E Stability
CASPEED	IQUANT	4	Control Amp Speed
CONVENTION	IQUANT	1	Current Convention
ICHRANGE	IQUANT	2	Ich Range
ICHRANGEMODE	TOGGLE	T	Ich Auto Range
ICHOFFSETENABLE	TOGGLE	F	Ich Offset Enable
ICHOFFSET	QUANT	0	Ich Offset (V)
ICHFILTER	IQUANT	1	Ich Filter
VCHRANGE	IQUANT	2	Vch Range
VCHRANGEMODE	TOGGLE	T	Vch Auto Range
VCHOFFSETENABLE	TOGGLE	F	Vch Offset Enable
VCHOFFSET	QUANT	0	Vch Offset (V)
VCHFILTER	IQUANT	1	Vch Filter
IERANGELOWERLIMIT	IQUANT	9	I/E Range Lower Limit
IERANGEMODE	TOGGLE	F	I/E AutoRange
IERANGE	IQUANT	10	I/E Range
ACHSELECT	IQUANT	1	Ach Select
ACHRANGE	IQUANT	2	Ach Range
ACHOFFSETENABLE	TOGGLE	F	Ach Offset Enable
ACHOFFSET	QUANT	0	Ach Offset (V)
ACHFILTER	IQUANT	1	Ach Filter
CABLEID	IQUANT	14	Cable ID
DCCALDATE	LABEL	20-10-2016	DC Calibration Date
ACCALDATE	LABEL	12/3/2015	AC Calibration Date
FRAMEWORKVERSION	QUANT	7.01	Framework Version
INSTRUMENTVERSION	LABEL	4.00	Instrument Version
CURVE	TABLE	55
	Pt	T	Vf	Im	Vu	Pwr	Sig	Ach	Temp	IERange	Over
	#	s	V	A	V	W	V	V	deg C	#	bits
	0	0.013333	3.87055E-001	-6.01687E-003	0.00000E+000	-2.32886E-003	-3.59960E-001	-1.12675E+000	3.57790E+000	10	...........
	1	0.026667	3.75741E-001	-6.01271E-003	0.00000E+000	-2.25922E-003	-3.59960E-001	-1.11870E+000	3.57790E+000	10	...........
	2	0.04	3.65172E-001	-6.01169E-003	0.00000E+000	-2.19530E-003	-3.59960E-001	-1.12511E+000	3.57790E+000	10	...........
	3	0.053333	3.55174E-001	-6.01387E-003	0.00000E+000	-2.13597E-003	-3.59960E-001	-1.12694E+000	3.57790E+000	10	...........
	4	0.066667	3.45599E-001	-6.01781E-003	0.00000E+000	-2.07975E-003	-3.59960E-001	-1.11902E+000	3.57790E+000	10	...........
	5	0.08	3.36266E-001	-6.01589E-003	0.00000E+000	-2.02294E-003	-3.59960E-001	-1.12537E+000	3.57790E+000	10	...........
	6	0.093333	3.27141E-001	-6.01311E-003	0.00000E+000	-1.96713E-003	-3.59960E-001	-1.12723E+000	3.57790E+000	10	...........
	7	0.106667	3.18228E-001	-6.01525E-003	0.00000E+000	-1.91422E-003	-3.59960E-001	-1.11919E+000	3.57790E+000	10	...........
	8	0.12	3.09475E-001	-6.01776E-003	0.00000E+000	-1.86235E-003	-3.59960E-001	-1.12569E+000	3.57790E+000	10	...........
	9	0.133333	3.00845E-001	-6.01518E-003	0.00000E+000	-1.80964E-003	-3.59960E-001	-1.12730E+000	3.57790E+000	10	...........
	10	0.146667	2.92292E-001	-6.01537E-003	0.00000E+000	-1.75825E-003	-3.59960E-001	-1.11953E+000	3.57790E+000	10	...........
	11	0.16	2.83928E-001	-6.01392E-003	0.00000E+000	-1.70752E-003	-3.59960E-001	-1.12514E+000	3.57790E+000	10	...........
	12	0.173333	2.75715E-001	-6.00976E-003	0.00000E+000	-1.65698E-003	-3.59960E-001	-1.12716E+000	3.57790E+000	10	...........
	13	0.186667	2.67550E-001	-6.01722E-003	0.00000E+000	-1.60990E-003	-3.59960E-001	-1.11931E+000	3.57790E+000	10	...........
	14	0.2	2.59523E-001	-6.01638E-003	0.00000E+000	-1.56139E-003	-3.59960E-001	-1.12547E+000	3.57790E+000	10	...........
	15	0.213333	2.51578E-001	-6.01623E-003	0.00000E+000	-1.51355E-003	-3.59960E-001	-1.12741E+000	3.57790E+000	10	...........
	16	0.226667	2.43745E-001	-6.01056E-003	0.00000E+000	-1.46504E-003	-3.59960E-001	-1.11921E+000	3.57790E+000	10	...........
	17	0.24	2.36020E-001	-6.01040E-003	0.00000E+000	-1.41858E-003	-3.59960E-001	-1.12563E+000	3.57790E+000	10	...........
	18	0.253333	2.28332E-001	-6.01190E-003	0.00000E+000	-1.37271E-003	-3.59960E-001	-1.12759E+000	3.57790E+000	10	...........
	19	0.266667	2.20775E-001	-6.01748E-003	0.00000E+000	-1.32851E-003	-3.59960E-001	-1.11952E+000	3.57790E+000	10	...........
	20	0.28	2.13311E-001	-6.01765E-003	0.00000E+000	-1.28363E-003	-3.59960E-001	-1.12578E+000	3.57790E+000	10	...........
	21	0.293333	2.05932E-001	-6.01419E-003	0.00000E+000	-1.23852E-003	-3.59960E-001	-1.12738E+000	3.57790E+000	10	...........
	22	0.306667	1.98632E-001	-6.01213E-003	0.00000E+000	-1.19420E-003	-3.59960E-001	-1.11960E+000	3.57790E+000	10	...........
	23	0.32	1.91385E-001	-6.01631E-003	0.00000E+000	-1.15143E-003	-3.59960E-001	-1.12598E+000	3.57790E+000	10	...........
	24	0.333333	1.84275E-001	-6.01635E-003	0.00000E+000	-1.10866E-003	-3.59960E-001	-1.12791E+000	3.57790E+000	10	...........
	25	0.346667	1.77232E-001	-6.02067E-003	0.00000E+000	-1.06706E-003	-3.59960E-001	-1.11955E+000	3.57790E+000	10	...........
	26	0.36	1.70258E-001	-6.01623E-003	0.00000E+000	-1.02431E-003	-3.59960E-001	-1.12602E+000	3.57790E+000	10	...........
	27	0.373333	1.63368E-001	-6.01752E-003	0.00000E+000	-9.83069E-004	-3.59960E-001	-1.12796E+000	3.57790E+000	10	...........
	28	0.386667	1.56565E-001	-6.01752E-003	0.00000E+000	-9.42131E-004	-3.59960E-001	-1.12009E+000	3.57790E+000	10	...........
	29	0.4	1.49823E-001	-6.01208E-003	0.00000E+000	-9.00747E-004	-3.59960E-001	-1.12650E+000	3.57790E+000	10	...........
	30	0.413333	1.43127E-001	-6.01211E-003	0.00000E+000	-8.60492E-004	-3.59960E-001	-1.12811E+000	3.57790E+000	10	...........
	31	0.426667	1.36538E-001	-6.01162E-003	0.00000E+000	-8.20816E-004	-3.59960E-001	-1.11987E+000	3.57790E+000	10	...........
	32	0.44	1.29996E-001	-6.01214E-003	0.00000E+000	-7.81557E-004	-3.59960E-001	-1.12647E+000	3.57790E+000	10	...........
	33	0.453333	1.23525E-001	-6.01716E-003	0.00000E+000	-7.43273E-004	-3.59960E-001	-1.12810E+000	3.57790E+000	10	...........
	34	0.466667	1.17110E-001	-6.01830E-003	0.00000E+000	-7.04805E-004	-3.59960E-001	-1.11989E+000	3.57790E+000	10	...........
	35	0.48	1.10728E-001	-6.01245E-003	0.00000E+000	-6.65748E-004	-3.59960E-001	-1.12622E+000	3.57790E+000	10	...........
	36	0.493333	1.04464E-001	-6.01905E-003	0.00000E+000	-6.28774E-004	-3.59960E-001	-1.12768E+000	3.57790E+000	10	...........
	37	0.506667	9.82788E-002	-6.01381E-003	0.00000E+000	-5.91030E-004	-3.59960E-001	-1.11975E+000	3.57790E+000	10	...........
	38	0.52	9.21178E-002	-6.01523E-003	0.00000E+000	-5.54110E-004	-3.59960E-001	-1.12624E+000	3.57790E+000	10	...........
	39	0.533333	8.59924E-002	-6.01467E-003	0.00000E+000	-5.17216E-004	-3.59960E-001	-1.12798E+000	3.57715E+000	10	...........
	40	0.546667	7.99685E-002	-6.01182E-003	0.00000E+000	-4.80757E-004	-3.59960E-001	-1.11977E+000	3.57640E+000	10	...........
	41	0.56	7.40132E-002	-6.01758E-003	0.00000E+000	-4.45381E-004	-3.59960E-001	-1.12621E+000	3.57640E+000	10	...........
	42	0.573333	6.80792E-002	-6.01251E-003	0.00000E+000	-4.09327E-004	-3.59960E-001	-1.12799E+000	3.57640E+000	10	...........
	43	0.586667	6.21948E-002	-6.01848E-003	0.00000E+000	-3.74318E-004	-3.59960E-001	-1.12014E+000	3.57640E+000	10	...........
	44	0.6	5.64019E-002	-6.01194E-003	0.00000E+000	-3.39085E-004	-3.59960E-001	-1.12670E+000	3.57640E+000	10	...........
	45	0.613333	5.06509E-002	-6.01130E-003	0.00000E+000	-3.04478E-004	-3.59960E-001	-1.12809E+000	3.57640E+000	10	...........
	46	0.626667	4.49629E-002	-6.01465E-003	0.00000E+000	-2.70436E-004	-3.59960E-001	-1.12004E+000	3.57640E+000	10	...........
	47	0.64	3.92982E-002	-6.01308E-003	0.00000E+000	-2.36303E-004	-3.59960E-001	-1.12648E+000	3.57640E+000	10	...........
	48	0.653333	3.37220E-002	-6.01445E-003	0.00000E+000	-2.02819E-004	-3.59960E-001	-1.12812E+000	3.57640E+000	10	...........
	49	0.666667	2.81896E-002	-6.01463E-003	0.00000E+000	-1.69550E-004	-3.59960E-001	-1.12018E+000	3.57640E+000	10	...........
	50	0.68	2.26795E-002	-6.01648E-003	0.00000E+000	-1.36451E-004	-3.59960E-001	-1.12651E+000	3.57640E+000	10	...........
	51	0.693333	1.72344E-002	-6.01447E-003	0.00000E+000	-1.03656E-004	-3.59960E-001	-1.12810E+000	3.57640E+000	10	...........
	52	0.706667	1.18442E-002	-6.01304E-003	0.00000E+000	-7.12196E-005	-3.59960E-001	-1.12013E+000	3.57640E+000	10	...........
	53	0.72	6.46359E-003	-6.01779E-003	0.00000E+000	-3.88965E-005	-3.59960E-001	-1.12667E+000	3.57640E+000	10	...........
	54	0.731667	1.49213E-003	-6.01288E-003	0.00000E+000	-8.97202E-006	-3.59960E-001	-1.12743E+000	3.57640E+000	10	...........
STARTTIMEOFFSET	QUANT	1154.086	Start Time Offset (s)
