EXPLAIN
TAG	PWR800_DISCHARGE
TITLE	LABEL	PWR Cyclic Charge Discharge (Cell) - Discharge Step	Test &Identifier
DATE	LABEL	22-6-2017	Date
TIME	LABEL	15:37:15	Time
NOTES	NOTES	3	&Notes...
	supercap test cell
	0.6mg
	6M KOH
PSTAT	PSTAT	IFC5000-01520	Potentiostat
CAPACITY	QUANT	1.00000E-003	Capacity (A-hr)
CELLTYPE	SELECTOR	1	&Cell Type
WORKINGCONNECTION	SELECTOR	0	&Working Lead
MAXDISCHARGETIME	VARIABLEANDUNITS	1.00000E+002	s	1.00000E+002	second(s)	Max &Discharge Time
DISCHARGEMODE	MULTIPARAM	0	6.00000E-003	&Discharge Mode	Constant Current	Amp(s)
SAMPLETIME	QUANT	1.00000E-002	Sa&mple Period (s)
DISCHARGESTOPAT1	MULTIPARAM	3	0.00000E+000	Discharge Stop At &1	Voltage < Limit	V
DISCHARGESTOPAT2	MULTIPARAM	0	0.00000E+000	Discharge Stop At &2	None	N/A
AESBHCSELECTOR	TOGGLE	F	Save Both Half Cells
IRCOMP	TOGGLE	F	IR &Measure
EOC	QUANT	0	Open Circuit (V)
SEQUENCER	TOGGLE	TRUE	Run as Sequence
PSTATMODEL	IQUANT	53	Pstat Model
PSTATSECTION	LABEL	IFC5000-01520	Pstat Section
PSTATSERIALNO	LABEL	01520	Pstat Serial Number
CTRLMODE	IQUANT	0	Control Mode
ELECTROMETER	IQUANT	1	RE=0 or CS=1
IESTAB	IQUANT	0	I/E Stability
CASPEED	IQUANT	4	Control Amp Speed
CONVENTION	IQUANT	1	Current Convention
ICHRANGE	IQUANT	2	Ich Range
ICHRANGEMODE	TOGGLE	T	Ich Auto Range
ICHOFFSETENABLE	TOGGLE	F	Ich Offset Enable
ICHOFFSET	QUANT	0	Ich Offset (V)
ICHFILTER	IQUANT	1	Ich Filter
VCHRANGE	IQUANT	2	Vch Range
VCHRANGEMODE	TOGGLE	T	Vch Auto Range
VCHOFFSETENABLE	TOGGLE	F	Vch Offset Enable
VCHOFFSET	QUANT	0	Vch Offset (V)
VCHFILTER	IQUANT	1	Vch Filter
IERANGELOWERLIMIT	IQUANT	9	I/E Range Lower Limit
IERANGEMODE	TOGGLE	F	I/E AutoRange
IERANGE	IQUANT	10	I/E Range
ACHSELECT	IQUANT	1	Ach Select
ACHRANGE	IQUANT	2	Ach Range
ACHOFFSETENABLE	TOGGLE	F	Ach Offset Enable
ACHOFFSET	QUANT	0	Ach Offset (V)
ACHFILTER	IQUANT	1	Ach Filter
CABLEID	IQUANT	14	Cable ID
DCCALDATE	LABEL	20-10-2016	DC Calibration Date
ACCALDATE	LABEL	12/3/2015	AC Calibration Date
FRAMEWORKVERSION	QUANT	7.01	Framework Version
INSTRUMENTVERSION	LABEL	4.00	Instrument Version
CURVE	TABLE	73
	Pt	T	Vf	Im	Vu	Pwr	Sig	Ach	Temp	IERange	Over
	#	s	V	A	V	W	V	V	deg C	#	bits
	0	0.013333	4.38660E-001	-6.01419E-003	0.00000E+000	-2.63818E-003	-3.59960E-001	-1.00143E+000	3.57800E+000	10	...........
	1	0.026667	4.28691E-001	-6.01768E-003	0.00000E+000	-2.57972E-003	-3.59960E-001	-1.00062E+000	3.57800E+000	10	...........
	2	0.04	4.19474E-001	-6.01477E-003	0.00000E+000	-2.52304E-003	-3.59960E-001	-1.01276E+000	3.57800E+000	10	...........
	3	0.053333	4.10719E-001	-6.01199E-003	0.00000E+000	-2.46924E-003	-3.59960E-001	-1.00153E+000	3.57800E+000	10	...........
	4	0.066667	4.02299E-001	-6.01846E-003	0.00000E+000	-2.42122E-003	-3.59960E-001	-1.00098E+000	3.57800E+000	10	...........
	5	0.08	3.94132E-001	-6.01570E-003	0.00000E+000	-2.37098E-003	-3.59960E-001	-1.01323E+000	3.57800E+000	10	...........
	6	0.093333	3.86105E-001	-6.01487E-003	0.00000E+000	-2.32237E-003	-3.59960E-001	-1.00185E+000	3.57800E+000	10	...........
	7	0.106667	3.78276E-001	-6.01683E-003	0.00000E+000	-2.27602E-003	-3.59960E-001	-1.00114E+000	3.57770E+000	10	...........
	8	0.12	3.70608E-001	-6.01297E-003	0.00000E+000	-2.22845E-003	-3.59960E-001	-1.01318E+000	3.57740E+000	10	...........
	9	0.133333	3.63047E-001	-6.01399E-003	0.00000E+000	-2.18336E-003	-3.59960E-001	-1.00205E+000	3.57740E+000	10	...........
	10	0.146667	3.55628E-001	-6.01502E-003	0.00000E+000	-2.13911E-003	-3.59960E-001	-1.00156E+000	3.57740E+000	10	...........
	11	0.16	3.48254E-001	-6.01353E-003	0.00000E+000	-2.09424E-003	-3.59960E-001	-1.01384E+000	3.57740E+000	10	...........
	12	0.173333	3.41011E-001	-6.01124E-003	0.00000E+000	-2.04990E-003	-3.59960E-001	-1.00237E+000	3.57740E+000	10	...........
	13	0.186667	3.33854E-001	-6.01511E-003	0.00000E+000	-2.00817E-003	-3.59960E-001	-1.00150E+000	3.57740E+000	10	...........
	14	0.2	3.26778E-001	-6.01612E-003	0.00000E+000	-1.96594E-003	-3.59960E-001	-1.01398E+000	3.57740E+000	10	...........
	15	0.213333	3.19807E-001	-6.01379E-003	0.00000E+000	-1.92325E-003	-3.59960E-001	-1.00254E+000	3.57740E+000	10	...........
	16	0.226667	3.12903E-001	-6.01831E-003	0.00000E+000	-1.88315E-003	-3.59960E-001	-1.00173E+000	3.57740E+000	10	...........
	17	0.24	3.06031E-001	-6.01501E-003	0.00000E+000	-1.84078E-003	-3.59960E-001	-1.01396E+000	3.57740E+000	10	...........
	18	0.253333	2.99242E-001	-6.01253E-003	0.00000E+000	-1.79920E-003	-3.59960E-001	-1.00221E+000	3.57740E+000	10	...........
	19	0.266667	2.92558E-001	-6.01710E-003	0.00000E+000	-1.76035E-003	-3.59960E-001	-1.00145E+000	3.57740E+000	10	...........
	20	0.28	2.85897E-001	-6.01612E-003	0.00000E+000	-1.71999E-003	-3.59960E-001	-1.01380E+000	3.57740E+000	10	...........
	21	0.293333	2.79303E-001	-6.01522E-003	0.00000E+000	-1.68007E-003	-3.59960E-001	-1.00220E+000	3.57740E+000	10	...........
	22	0.306667	2.72783E-001	-6.01529E-003	0.00000E+000	-1.64087E-003	-3.59960E-001	-1.00156E+000	3.57740E+000	10	...........
	23	0.32	2.66310E-001	-6.01410E-003	0.00000E+000	-1.60161E-003	-3.59960E-001	-1.01368E+000	3.57740E+000	10	...........
	24	0.333333	2.59863E-001	-6.01556E-003	0.00000E+000	-1.56322E-003	-3.59960E-001	-1.00243E+000	3.57740E+000	10	...........
	25	0.346667	2.53499E-001	-6.01406E-003	0.00000E+000	-1.52456E-003	-3.59960E-001	-1.00201E+000	3.57740E+000	10	...........
	26	0.36	2.47181E-001	-6.01529E-003	0.00000E+000	-1.48686E-003	-3.59960E-001	-1.01390E+000	3.57740E+000	10	...........
	27	0.373333	2.40929E-001	-6.01587E-003	0.00000E+000	-1.44940E-003	-3.59960E-001	-1.00239E+000	3.57740E+000	10	...........
	28	0.386667	2.34690E-001	-6.01636E-003	0.00000E+000	-1.41198E-003	-3.59960E-001	-1.00199E+000	3.57740E+000	10	...........
	29	0.4	2.28536E-001	-6.01392E-003	0.00000E+000	-1.37440E-003	-3.59960E-001	-1.01384E+000	3.57740E+000	10	...........
	30	0.413333	2.22458E-001	-6.01400E-003	0.00000E+000	-1.33786E-003	-3.59960E-001	-1.00256E+000	3.57740E+000	10	...........
	31	0.426667	2.16383E-001	-6.01795E-003	0.00000E+000	-1.30218E-003	-3.59960E-001	-1.00215E+000	3.57740E+000	10	...........
	32	0.44	2.10374E-001	-6.01369E-003	0.00000E+000	-1.26512E-003	-3.59960E-001	-1.01404E+000	3.57740E+000	10	...........
	33	0.453333	2.04428E-001	-6.01385E-003	0.00000E+000	-1.22940E-003	-3.59960E-001	-1.00252E+000	3.57740E+000	10	...........
	34	0.466667	1.98510E-001	-6.01747E-003	0.00000E+000	-1.19452E-003	-3.59960E-001	-1.00224E+000	3.57740E+000	10	...........
	35	0.48	1.92633E-001	-6.01229E-003	0.00000E+000	-1.15817E-003	-3.59960E-001	-1.01468E+000	3.57740E+000	10	...........
	36	0.493333	1.86800E-001	-6.01367E-003	0.00000E+000	-1.12335E-003	-3.59960E-001	-1.00306E+000	3.57740E+000	10	...........
	37	0.506667	1.81005E-001	-6.01351E-003	0.00000E+000	-1.08847E-003	-3.59960E-001	-1.00275E+000	3.57740E+000	10	...........
	38	0.52	1.75298E-001	-6.01073E-003	0.00000E+000	-1.05367E-003	-3.59960E-001	-1.01467E+000	3.57740E+000	10	...........
	39	0.533333	1.69562E-001	-6.01262E-003	0.00000E+000	-1.01951E-003	-3.59960E-001	-1.00347E+000	3.57740E+000	10	...........
	40	0.546667	1.63917E-001	-6.01562E-003	0.00000E+000	-9.86061E-004	-3.59960E-001	-1.00301E+000	3.57740E+000	10	...........
	41	0.56	1.58281E-001	-6.01314E-003	0.00000E+000	-9.51766E-004	-3.59960E-001	-1.01496E+000	3.57740E+000	10	...........
	42	0.573333	1.52701E-001	-6.01152E-003	0.00000E+000	-9.17964E-004	-3.59960E-001	-1.00307E+000	3.57740E+000	10	...........
	43	0.586667	1.47166E-001	-6.01533E-003	0.00000E+000	-8.85254E-004	-3.59960E-001	-1.00254E+000	3.57740E+000	10	...........
	44	0.6	1.41645E-001	-6.01569E-003	0.00000E+000	-8.52093E-004	-3.59960E-001	-1.01470E+000	3.57740E+000	10	...........
	45	0.613333	1.36141E-001	-6.01187E-003	0.00000E+000	-8.18464E-004	-3.59960E-001	-1.00319E+000	3.57740E+000	10	...........
	46	0.626667	1.30694E-001	-6.01570E-003	0.00000E+000	-7.86215E-004	-3.59960E-001	-1.00288E+000	3.57740E+000	10	...........
	47	0.64	1.25299E-001	-6.01229E-003	0.00000E+000	-7.53335E-004	-3.59960E-001	-1.01457E+000	3.57740E+000	10	...........
	48	0.653333	1.19922E-001	-6.01584E-003	0.00000E+000	-7.21430E-004	-3.59960E-001	-1.00291E+000	3.57740E+000	10	...........
	49	0.666667	1.14588E-001	-6.01624E-003	0.00000E+000	-6.89388E-004	-3.59960E-001	-1.00292E+000	3.57740E+000	10	...........
	50	0.68	1.09304E-001	-6.01248E-003	0.00000E+000	-6.57185E-004	-3.59960E-001	-1.01487E+000	3.57740E+000	10	...........
	51	0.693333	1.04016E-001	-6.01821E-003	0.00000E+000	-6.25988E-004	-3.59960E-001	-1.00311E+000	3.57740E+000	10	...........
	52	0.706667	9.87969E-002	-6.01605E-003	0.00000E+000	-5.94367E-004	-3.59960E-001	-1.00292E+000	3.57740E+000	10	...........
	53	0.72	9.36302E-002	-6.01465E-003	0.00000E+000	-5.63153E-004	-3.59960E-001	-1.01462E+000	3.57740E+000	10	...........
	54	0.733333	8.84416E-002	-6.01871E-003	0.00000E+000	-5.32304E-004	-3.59960E-001	-1.00311E+000	3.57740E+000	10	...........
	55	0.746667	8.33080E-002	-6.01564E-003	0.00000E+000	-5.01151E-004	-3.59960E-001	-1.00319E+000	3.57740E+000	10	...........
	56	0.76	7.81755E-002	-6.01360E-003	0.00000E+000	-4.70116E-004	-3.59960E-001	-1.01490E+000	3.57740E+000	10	...........
	57	0.773333	7.31251E-002	-6.01291E-003	0.00000E+000	-4.39695E-004	-3.59960E-001	-1.00307E+000	3.57740E+000	10	...........
	58	0.786667	6.80612E-002	-6.01650E-003	0.00000E+000	-4.09490E-004	-3.59960E-001	-1.00305E+000	3.57740E+000	10	...........
	59	0.8	6.30482E-002	-6.01446E-003	0.00000E+000	-3.79201E-004	-3.59960E-001	-1.01509E+000	3.57740E+000	10	...........
	60	0.813333	5.80361E-002	-6.01010E-003	0.00000E+000	-3.48803E-004	-3.59960E-001	-1.00356E+000	3.57740E+000	10	...........
	61	0.826667	5.30661E-002	-6.01785E-003	0.00000E+000	-3.19344E-004	-3.59960E-001	-1.00344E+000	3.57740E+000	10	...........
	62	0.84	4.81767E-002	-6.01393E-003	0.00000E+000	-2.89731E-004	-3.59960E-001	-1.01508E+000	3.57740E+000	10	...........
	63	0.853333	4.32937E-002	-6.01585E-003	0.00000E+000	-2.60448E-004	-3.59960E-001	-1.00356E+000	3.57740E+000	10	...........
	64	0.866667	3.84282E-002	-6.01583E-003	0.00000E+000	-2.31177E-004	-3.59960E-001	-1.00349E+000	3.57740E+000	10	...........
	65	0.88	3.35770E-002	-6.01499E-003	0.00000E+000	-2.01966E-004	-3.59960E-001	-1.01539E+000	3.57740E+000	10	...........
	66	0.893333	2.87495E-002	-6.01694E-003	0.00000E+000	-1.72984E-004	-3.59960E-001	-1.00354E+000	3.57740E+000	10	...........
	67	0.906667	2.39400E-002	-6.01762E-003	0.00000E+000	-1.44062E-004	-3.59960E-001	-1.00303E+000	3.57740E+000	10	...........
	68	0.92	1.91743E-002	-6.01294E-003	0.00000E+000	-1.15294E-004	-3.59960E-001	-1.01477E+000	3.57740E+000	10	...........
	69	0.933333	1.44389E-002	-6.01647E-003	0.00000E+000	-8.68711E-005	-3.59960E-001	-1.00320E+000	3.57740E+000	10	...........
	70	0.946667	9.75753E-003	-6.01417E-003	0.00000E+000	-5.86835E-005	-3.59960E-001	-1.00347E+000	3.57740E+000	10	...........
	71	0.96	5.07987E-003	-6.01501E-003	0.00000E+000	-3.05554E-005	-3.59960E-001	-1.01521E+000	3.57740E+000	10	...........
	72	0.97	1.00231E-003	-6.01598E-003	0.00000E+000	-6.02986E-006	-3.59960E-001	-9.98104E-001	3.57740E+000	10	...........
STARTTIMEOFFSET	QUANT	99.5783	Start Time Offset (s)
