EXPLAIN
TAG	PWR800_DISCHARGE
TITLE	LABEL	PWR Cyclic Charge Discharge (Cell) - Discharge Step	Test &Identifier
DATE	LABEL	22-6-2017	Date
TIME	LABEL	15:44:17	Time
NOTES	NOTES	3	&Notes...
	supercap test cell
	0.6mg
	6M KOH
PSTAT	PSTAT	IFC5000-01520	Potentiostat
CAPACITY	QUANT	1.00000E-003	Capacity (A-hr)
CELLTYPE	SELECTOR	1	&Cell Type
WORKINGCONNECTION	SELECTOR	0	&Working Lead
MAXDISCHARGETIME	VARIABLEANDUNITS	1.00000E+002	s	1.00000E+002	second(s)	Max &Discharge Time
DISCHARGEMODE	MULTIPARAM	0	6.00000E-003	&Discharge Mode	Constant Current	Amp(s)
SAMPLETIME	QUANT	1.00000E-002	Sa&mple Period (s)
DISCHARGESTOPAT1	MULTIPARAM	3	0.00000E+000	Discharge Stop At &1	Voltage < Limit	V
DISCHARGESTOPAT2	MULTIPARAM	0	0.00000E+000	Discharge Stop At &2	None	N/A
AESBHCSELECTOR	TOGGLE	F	Save Both Half Cells
IRCOMP	TOGGLE	F	IR &Measure
EOC	QUANT	0	Open Circuit (V)
SEQUENCER	TOGGLE	TRUE	Run as Sequence
PSTATMODEL	IQUANT	53	Pstat Model
PSTATSECTION	LABEL	IFC5000-01520	Pstat Section
PSTATSERIALNO	LABEL	01520	Pstat Serial Number
CTRLMODE	IQUANT	0	Control Mode
ELECTROMETER	IQUANT	1	RE=0 or CS=1
IESTAB	IQUANT	0	I/E Stability
CASPEED	IQUANT	4	Control Amp Speed
CONVENTION	IQUANT	1	Current Convention
ICHRANGE	IQUANT	2	Ich Range
ICHRANGEMODE	TOGGLE	T	Ich Auto Range
ICHOFFSETENABLE	TOGGLE	F	Ich Offset Enable
ICHOFFSET	QUANT	0	Ich Offset (V)
ICHFILTER	IQUANT	1	Ich Filter
VCHRANGE	IQUANT	2	Vch Range
VCHRANGEMODE	TOGGLE	T	Vch Auto Range
VCHOFFSETENABLE	TOGGLE	F	Vch Offset Enable
VCHOFFSET	QUANT	0	Vch Offset (V)
VCHFILTER	IQUANT	1	Vch Filter
IERANGELOWERLIMIT	IQUANT	9	I/E Range Lower Limit
IERANGEMODE	TOGGLE	F	I/E AutoRange
IERANGE	IQUANT	10	I/E Range
ACHSELECT	IQUANT	1	Ach Select
ACHRANGE	IQUANT	2	Ach Range
ACHOFFSETENABLE	TOGGLE	F	Ach Offset Enable
ACHOFFSET	QUANT	0	Ach Offset (V)
ACHFILTER	IQUANT	1	Ach Filter
CABLEID	IQUANT	14	Cable ID
DCCALDATE	LABEL	20-10-2016	DC Calibration Date
ACCALDATE	LABEL	12/3/2015	AC Calibration Date
FRAMEWORKVERSION	QUANT	7.01	Framework Version
INSTRUMENTVERSION	LABEL	4.00	Instrument Version
CURVE	TABLE	64
	Pt	T	Vf	Im	Vu	Pwr	Sig	Ach	Temp	IERange	Over
	#	s	V	A	V	W	V	V	deg C	#	bits
	0	0.013333	4.14107E-001	-6.01398E-003	0.00000E+000	-2.49043E-003	-3.59960E-001	-1.05387E+000	3.57680E+000	10	...........
	1	0.026667	4.03548E-001	-6.01243E-003	0.00000E+000	-2.42630E-003	-3.59960E-001	-1.06371E+000	3.57680E+000	10	...........
	2	0.04	3.93732E-001	-6.01555E-003	0.00000E+000	-2.36851E-003	-3.59960E-001	-1.05460E+000	3.57680E+000	10	...........
	3	0.053333	3.84436E-001	-6.00781E-003	0.00000E+000	-2.30962E-003	-3.59960E-001	-1.05394E+000	3.57680E+000	10	...........
	4	0.066667	3.75432E-001	-6.01545E-003	0.00000E+000	-2.25839E-003	-3.59960E-001	-1.06387E+000	3.57680E+000	10	...........
	5	0.08	3.66700E-001	-6.01268E-003	0.00000E+000	-2.20485E-003	-3.59960E-001	-1.05505E+000	3.57680E+000	10	...........
	6	0.093333	3.58238E-001	-6.01327E-003	0.00000E+000	-2.15418E-003	-3.59960E-001	-1.05426E+000	3.57680E+000	10	...........
	7	0.106667	3.49889E-001	-6.01747E-003	0.00000E+000	-2.10544E-003	-3.59960E-001	-1.06405E+000	3.57680E+000	10	...........
	8	0.12	3.41671E-001	-6.01415E-003	0.00000E+000	-2.05486E-003	-3.59960E-001	-1.05527E+000	3.57680E+000	10	...........
	9	0.133333	3.33667E-001	-6.01694E-003	0.00000E+000	-2.00765E-003	-3.59960E-001	-1.05434E+000	3.57680E+000	10	...........
	10	0.146667	3.25763E-001	-6.01472E-003	0.00000E+000	-1.95937E-003	-3.59960E-001	-1.06437E+000	3.57680E+000	10	...........
	11	0.16	3.17947E-001	-6.01240E-003	0.00000E+000	-1.91163E-003	-3.59960E-001	-1.05586E+000	3.57680E+000	10	...........
	12	0.173333	3.10221E-001	-6.01273E-003	0.00000E+000	-1.86528E-003	-3.59960E-001	-1.05455E+000	3.57680E+000	10	...........
	13	0.186667	3.02623E-001	-6.01772E-003	0.00000E+000	-1.82110E-003	-3.59960E-001	-1.06452E+000	3.57680E+000	10	...........
	14	0.2	2.95141E-001	-6.01764E-003	0.00000E+000	-1.77605E-003	-3.59960E-001	-1.05597E+000	3.57680E+000	10	...........
	15	0.213333	2.87705E-001	-6.01806E-003	0.00000E+000	-1.73142E-003	-3.59960E-001	-1.05465E+000	3.57680E+000	10	...........
	16	0.226667	2.80370E-001	-6.01412E-003	0.00000E+000	-1.68618E-003	-3.59960E-001	-1.06427E+000	3.57680E+000	10	...........
	17	0.24	2.73090E-001	-6.00839E-003	0.00000E+000	-1.64083E-003	-3.59960E-001	-1.05583E+000	3.57680E+000	10	...........
	18	0.253333	2.65893E-001	-6.01320E-003	0.00000E+000	-1.59887E-003	-3.59960E-001	-1.05449E+000	3.57680E+000	10	...........
	19	0.266667	2.58770E-001	-6.01813E-003	0.00000E+000	-1.55731E-003	-3.59960E-001	-1.06427E+000	3.57680E+000	10	...........
	20	0.28	2.51711E-001	-6.01566E-003	0.00000E+000	-1.51421E-003	-3.59960E-001	-1.05602E+000	3.57680E+000	10	...........
	21	0.293333	2.44789E-001	-6.01400E-003	0.00000E+000	-1.47216E-003	-3.59960E-001	-1.05460E+000	3.57680E+000	10	...........
	22	0.306667	2.37869E-001	-6.01386E-003	0.00000E+000	-1.43051E-003	-3.59960E-001	-1.06464E+000	3.57680E+000	10	...........
	23	0.32	2.31016E-001	-6.01355E-003	0.00000E+000	-1.38923E-003	-3.59960E-001	-1.05645E+000	3.57680E+000	10	...........
	24	0.333333	2.24284E-001	-6.01290E-003	0.00000E+000	-1.34859E-003	-3.59960E-001	-1.05486E+000	3.57680E+000	10	...........
	25	0.346667	2.17592E-001	-6.01796E-003	0.00000E+000	-1.30946E-003	-3.59960E-001	-1.06472E+000	3.57680E+000	10	...........
	26	0.36	2.10951E-001	-6.01376E-003	0.00000E+000	-1.26861E-003	-3.59960E-001	-1.05669E+000	3.57680E+000	10	...........
	27	0.373333	2.04358E-001	-6.01847E-003	0.00000E+000	-1.22992E-003	-3.59960E-001	-1.05480E+000	3.57680E+000	10	...........
	28	0.386667	1.97841E-001	-6.01797E-003	0.00000E+000	-1.19060E-003	-3.59960E-001	-1.06479E+000	3.57680E+000	10	...........
	29	0.4	1.91423E-001	-6.01346E-003	0.00000E+000	-1.15112E-003	-3.59960E-001	-1.05696E+000	3.57680E+000	10	...........
	30	0.413333	1.84982E-001	-6.01311E-003	0.00000E+000	-1.11231E-003	-3.59960E-001	-1.05497E+000	3.57680E+000	10	...........
	31	0.426667	1.78659E-001	-6.01621E-003	0.00000E+000	-1.07485E-003	-3.59960E-001	-1.06496E+000	3.57680E+000	10	...........
	32	0.44	1.72362E-001	-6.01339E-003	0.00000E+000	-1.03648E-003	-3.59960E-001	-1.05734E+000	3.57680E+000	10	...........
	33	0.453333	1.66123E-001	-6.00842E-003	0.00000E+000	-9.98136E-004	-3.59960E-001	-1.05534E+000	3.57680E+000	10	...........
	34	0.466667	1.59958E-001	-6.01837E-003	0.00000E+000	-9.62688E-004	-3.59960E-001	-1.06513E+000	3.57680E+000	10	...........
	35	0.48	1.53831E-001	-6.01859E-003	0.00000E+000	-9.25846E-004	-3.59960E-001	-1.05749E+000	3.57680E+000	10	...........
	36	0.493333	1.47758E-001	-6.01485E-003	0.00000E+000	-8.88741E-004	-3.59960E-001	-1.05538E+000	3.57680E+000	10	...........
	37	0.506667	1.41760E-001	-6.01307E-003	0.00000E+000	-8.52411E-004	-3.59960E-001	-1.06520E+000	3.57680E+000	10	...........
	38	0.52	1.35799E-001	-6.01543E-003	0.00000E+000	-8.16891E-004	-3.59960E-001	-1.05782E+000	3.57680E+000	10	...........
	39	0.533333	1.29885E-001	-6.01897E-003	0.00000E+000	-7.81773E-004	-3.59960E-001	-1.05537E+000	3.57680E+000	10	...........
	40	0.546667	1.24007E-001	-6.01635E-003	0.00000E+000	-7.46067E-004	-3.59960E-001	-1.06490E+000	3.57680E+000	10	...........
	41	0.56	1.18192E-001	-6.01376E-003	0.00000E+000	-7.10776E-004	-3.59960E-001	-1.05757E+000	3.57680E+000	10	...........
	42	0.573333	1.12418E-001	-6.01132E-003	0.00000E+000	-6.75780E-004	-3.59960E-001	-1.05518E+000	3.57680E+000	10	...........
	43	0.586667	1.06710E-001	-6.01287E-003	0.00000E+000	-6.41634E-004	-3.59960E-001	-1.06520E+000	3.57680E+000	10	...........
	44	0.6	1.01051E-001	-6.01603E-003	0.00000E+000	-6.07928E-004	-3.59960E-001	-1.05778E+000	3.57680E+000	10	...........
	45	0.613333	9.53824E-002	-6.01602E-003	0.00000E+000	-5.73822E-004	-3.59960E-001	-1.05534E+000	3.57680E+000	10	...........
	46	0.626667	8.97522E-002	-6.01011E-003	0.00000E+000	-5.39421E-004	-3.59960E-001	-1.06497E+000	3.57680E+000	10	...........
	47	0.64	8.42023E-002	-6.01248E-003	0.00000E+000	-5.06265E-004	-3.59960E-001	-1.05795E+000	3.57680E+000	10	...........
	48	0.653333	7.86959E-002	-6.01538E-003	0.00000E+000	-4.73386E-004	-3.59960E-001	-1.05527E+000	3.57680E+000	10	...........
	49	0.666667	7.32365E-002	-6.01613E-003	0.00000E+000	-4.40600E-004	-3.59960E-001	-1.06503E+000	3.57680E+000	10	...........
	50	0.68	6.78088E-002	-6.01026E-003	0.00000E+000	-4.07548E-004	-3.59960E-001	-1.05822E+000	3.57680E+000	10	...........
	51	0.693333	6.24010E-002	-6.01106E-003	0.00000E+000	-3.75097E-004	-3.59960E-001	-1.05532E+000	3.57680E+000	10	...........
	52	0.706667	5.70563E-002	-6.01288E-003	0.00000E+000	-3.43073E-004	-3.59960E-001	-1.06505E+000	3.57680E+000	10	...........
	53	0.72	5.17661E-002	-6.01727E-003	0.00000E+000	-3.11491E-004	-3.59960E-001	-1.05834E+000	3.57680E+000	10	...........
	54	0.733333	4.65465E-002	-6.01823E-003	0.00000E+000	-2.80127E-004	-3.59960E-001	-1.05535E+000	3.57680E+000	10	...........
	55	0.746667	4.13397E-002	-6.01569E-003	0.00000E+000	-2.48687E-004	-3.59960E-001	-1.06517E+000	3.57680E+000	10	...........
	56	0.76	3.61542E-002	-6.01150E-003	0.00000E+000	-2.17341E-004	-3.59960E-001	-1.05870E+000	3.57680E+000	10	...........
	57	0.773333	3.10161E-002	-6.01368E-003	0.00000E+000	-1.86521E-004	-3.59960E-001	-1.05556E+000	3.57680E+000	10	...........
	58	0.786667	2.59364E-002	-6.01160E-003	0.00000E+000	-1.55919E-004	-3.59960E-001	-1.06530E+000	3.57816E+000	10	...........
	59	0.8	2.08351E-002	-6.01737E-003	0.00000E+000	-1.25373E-004	-3.59960E-001	-1.05885E+000	3.57820E+000	10	...........
	60	0.813333	1.57665E-002	-6.01732E-003	0.00000E+000	-9.48723E-005	-3.59960E-001	-1.05585E+000	3.57820E+000	10	...........
	61	0.826667	1.07615E-002	-6.01388E-003	0.00000E+000	-6.47182E-005	-3.59960E-001	-1.06525E+000	3.57820E+000	10	...........
	62	0.84	5.80336E-003	-6.01295E-003	0.00000E+000	-3.48953E-005	-3.59960E-001	-1.05898E+000	3.57820E+000	10	...........
	63	0.85	1.47207E-003	-6.01512E-003	0.00000E+000	-8.85470E-006	-3.59960E-001	-1.05611E+000	3.57820E+000	10	...........
STARTTIMEOFFSET	QUANT	392.6983	Start Time Offset (s)
