EXPLAIN
TAG	PWR800_DISCHARGE
TITLE	LABEL	PWR Cyclic Charge Discharge (Cell) - Discharge Step	Test &Identifier
DATE	LABEL	22-6-2017	Date
TIME	LABEL	15:58:20	Time
NOTES	NOTES	3	&Notes...
	supercap test cell
	0.6mg
	6M KOH
PSTAT	PSTAT	IFC5000-01520	Potentiostat
CAPACITY	QUANT	1.00000E-003	Capacity (A-hr)
CELLTYPE	SELECTOR	1	&Cell Type
WORKINGCONNECTION	SELECTOR	0	&Working Lead
MAXDISCHARGETIME	VARIABLEANDUNITS	1.00000E+002	s	1.00000E+002	second(s)	Max &Discharge Time
DISCHARGEMODE	MULTIPARAM	0	6.00000E-003	&Discharge Mode	Constant Current	Amp(s)
SAMPLETIME	QUANT	1.00000E-002	Sa&mple Period (s)
DISCHARGESTOPAT1	MULTIPARAM	3	0.00000E+000	Discharge Stop At &1	Voltage < Limit	V
DISCHARGESTOPAT2	MULTIPARAM	0	0.00000E+000	Discharge Stop At &2	None	N/A
AESBHCSELECTOR	TOGGLE	F	Save Both Half Cells
IRCOMP	TOGGLE	F	IR &Measure
EOC	QUANT	0	Open Circuit (V)
SEQUENCER	TOGGLE	TRUE	Run as Sequence
PSTATMODEL	IQUANT	53	Pstat Model
PSTATSECTION	LABEL	IFC5000-01520	Pstat Section
PSTATSERIALNO	LABEL	01520	Pstat Serial Number
CTRLMODE	IQUANT	0	Control Mode
ELECTROMETER	IQUANT	1	RE=0 or CS=1
IESTAB	IQUANT	0	I/E Stability
CASPEED	IQUANT	4	Control Amp Speed
CONVENTION	IQUANT	1	Current Convention
ICHRANGE	IQUANT	2	Ich Range
ICHRANGEMODE	TOGGLE	T	Ich Auto Range
ICHOFFSETENABLE	TOGGLE	F	Ich Offset Enable
ICHOFFSET	QUANT	0	Ich Offset (V)
ICHFILTER	IQUANT	1	Ich Filter
VCHRANGE	IQUANT	2	Vch Range
VCHRANGEMODE	TOGGLE	T	Vch Auto Range
VCHOFFSETENABLE	TOGGLE	F	Vch Offset Enable
VCHOFFSET	QUANT	0	Vch Offset (V)
VCHFILTER	IQUANT	1	Vch Filter
IERANGELOWERLIMIT	IQUANT	9	I/E Range Lower Limit
IERANGEMODE	TOGGLE	F	I/E AutoRange
IERANGE	IQUANT	10	I/E Range
ACHSELECT	IQUANT	1	Ach Select
ACHRANGE	IQUANT	2	Ach Range
ACHOFFSETENABLE	TOGGLE	F	Ach Offset Enable
ACHOFFSET	QUANT	0	Ach Offset (V)
ACHFILTER	IQUANT	1	Ach Filter
CABLEID	IQUANT	14	Cable ID
DCCALDATE	LABEL	20-10-2016	DC Calibration Date
ACCALDATE	LABEL	12/3/2015	AC Calibration Date
FRAMEWORKVERSION	QUANT	7.01	Framework Version
INSTRUMENTVERSION	LABEL	4.00	Instrument Version
CURVE	TABLE	57
	Pt	T	Vf	Im	Vu	Pwr	Sig	Ach	Temp	IERange	Over
	#	s	V	A	V	W	V	V	deg C	#	bits
	0	0.013333	3.91841E-001	-6.01779E-003	0.00000E+000	-2.35801E-003	-3.59960E-001	-1.11660E+000	3.57720E+000	10	...........
	1	0.026667	3.80664E-001	-6.01111E-003	0.00000E+000	-2.28821E-003	-3.59960E-001	-1.10766E+000	3.57720E+000	10	...........
	2	0.04	3.70241E-001	-6.01572E-003	0.00000E+000	-2.22727E-003	-3.59960E-001	-1.10583E+000	3.57720E+000	10	...........
	3	0.053333	3.60338E-001	-6.01731E-003	0.00000E+000	-2.16826E-003	-3.59960E-001	-1.11718E+000	3.57720E+000	10	...........
	4	0.066667	3.50906E-001	-6.01255E-003	0.00000E+000	-2.10984E-003	-3.59960E-001	-1.10795E+000	3.57720E+000	10	...........
	5	0.08	3.41729E-001	-6.01661E-003	0.00000E+000	-2.05605E-003	-3.59960E-001	-1.10606E+000	3.57720E+000	10	...........
	6	0.093333	3.32747E-001	-6.01569E-003	0.00000E+000	-2.00171E-003	-3.59960E-001	-1.11728E+000	3.57720E+000	10	...........
	7	0.106667	3.23944E-001	-6.01729E-003	0.00000E+000	-1.94926E-003	-3.59960E-001	-1.10809E+000	3.57720E+000	10	...........
	8	0.12	3.15270E-001	-6.01609E-003	0.00000E+000	-1.89669E-003	-3.59960E-001	-1.10656E+000	3.57720E+000	10	...........
	9	0.133333	3.06760E-001	-6.01450E-003	0.00000E+000	-1.84501E-003	-3.59960E-001	-1.11776E+000	3.57725E+000	10	...........
	10	0.146667	2.98389E-001	-6.01241E-003	0.00000E+000	-1.79404E-003	-3.59960E-001	-1.10811E+000	3.57730E+000	10	...........
	11	0.16	2.90118E-001	-6.01593E-003	0.00000E+000	-1.74533E-003	-3.59960E-001	-1.10647E+000	3.57730E+000	10	...........
	12	0.173333	2.82004E-001	-6.01136E-003	0.00000E+000	-1.69523E-003	-3.59960E-001	-1.11769E+000	3.57730E+000	10	...........
	13	0.186667	2.73982E-001	-6.01434E-003	0.00000E+000	-1.64782E-003	-3.59960E-001	-1.10841E+000	3.57730E+000	10	...........
	14	0.2	2.66079E-001	-6.01376E-003	0.00000E+000	-1.60014E-003	-3.59960E-001	-1.10647E+000	3.57730E+000	10	...........
	15	0.213333	2.58260E-001	-6.01348E-003	0.00000E+000	-1.55304E-003	-3.59960E-001	-1.11756E+000	3.57730E+000	10	...........
	16	0.226667	2.50519E-001	-6.01628E-003	0.00000E+000	-1.50719E-003	-3.59960E-001	-1.10804E+000	3.57730E+000	10	...........
	17	0.24	2.42928E-001	-6.01638E-003	0.00000E+000	-1.46155E-003	-3.59960E-001	-1.10670E+000	3.57730E+000	10	...........
	18	0.253333	2.35379E-001	-6.01074E-003	0.00000E+000	-1.41480E-003	-3.59960E-001	-1.11772E+000	3.57730E+000	10	...........
	19	0.266667	2.27878E-001	-6.01697E-003	0.00000E+000	-1.37113E-003	-3.59960E-001	-1.10830E+000	3.57730E+000	10	...........
	20	0.28	2.20495E-001	-6.01437E-003	0.00000E+000	-1.32614E-003	-3.59960E-001	-1.10648E+000	3.57730E+000	10	...........
	21	0.293333	2.13264E-001	-6.01051E-003	0.00000E+000	-1.28183E-003	-3.59960E-001	-1.11788E+000	3.57730E+000	10	...........
	22	0.306667	2.06030E-001	-6.01395E-003	0.00000E+000	-1.23905E-003	-3.59960E-001	-1.10838E+000	3.57730E+000	10	...........
	23	0.32	1.98896E-001	-6.01411E-003	0.00000E+000	-1.19618E-003	-3.59960E-001	-1.10695E+000	3.57730E+000	10	...........
	24	0.333333	1.91861E-001	-6.01119E-003	0.00000E+000	-1.15331E-003	-3.59960E-001	-1.11802E+000	3.57730E+000	10	...........
	25	0.346667	1.84910E-001	-6.01876E-003	0.00000E+000	-1.11293E-003	-3.59960E-001	-1.10818E+000	3.57730E+000	10	...........
	26	0.36	1.77975E-001	-6.01528E-003	0.00000E+000	-1.07057E-003	-3.59960E-001	-1.10671E+000	3.57730E+000	10	...........
	27	0.373333	1.71149E-001	-6.01835E-003	0.00000E+000	-1.03003E-003	-3.59960E-001	-1.11823E+000	3.57730E+000	10	...........
	28	0.386667	1.64381E-001	-6.01298E-003	0.00000E+000	-9.88421E-004	-3.59960E-001	-1.10851E+000	3.57730E+000	10	...........
	29	0.4	1.57716E-001	-6.01270E-003	0.00000E+000	-9.48298E-004	-3.59960E-001	-1.10721E+000	3.57730E+000	10	...........
	30	0.413333	1.51069E-001	-6.01517E-003	0.00000E+000	-9.08703E-004	-3.59960E-001	-1.11821E+000	3.57730E+000	10	...........
	31	0.426667	1.44515E-001	-6.01643E-003	0.00000E+000	-8.69466E-004	-3.59960E-001	-1.10849E+000	3.57730E+000	10	...........
	32	0.44	1.38032E-001	-6.01273E-003	0.00000E+000	-8.29949E-004	-3.59960E-001	-1.10729E+000	3.57730E+000	10	...........
	33	0.453333	1.31627E-001	-6.01643E-003	0.00000E+000	-7.91923E-004	-3.59960E-001	-1.11842E+000	3.57730E+000	10	...........
	34	0.466667	1.25256E-001	-6.01395E-003	0.00000E+000	-7.53284E-004	-3.59960E-001	-1.10874E+000	3.57730E+000	10	...........
	35	0.48	1.18956E-001	-6.01571E-003	0.00000E+000	-7.15606E-004	-3.59960E-001	-1.10726E+000	3.57730E+000	10	...........
	36	0.493333	1.12714E-001	-6.01624E-003	0.00000E+000	-6.78111E-004	-3.59960E-001	-1.11850E+000	3.57730E+000	10	...........
	37	0.506667	1.06524E-001	-6.01580E-003	0.00000E+000	-6.40826E-004	-3.59960E-001	-1.10854E+000	3.57730E+000	10	...........
	38	0.52	1.00395E-001	-6.01768E-003	0.00000E+000	-6.04143E-004	-3.59960E-001	-1.10729E+000	3.57730E+000	10	...........
	39	0.533333	9.43667E-002	-6.01563E-003	0.00000E+000	-5.67675E-004	-3.59960E-001	-1.11828E+000	3.57730E+000	10	...........
	40	0.546667	8.83323E-002	-6.01023E-003	0.00000E+000	-5.30897E-004	-3.59960E-001	-1.10809E+000	3.57730E+000	10	...........
	41	0.56	8.24053E-002	-6.02084E-003	0.00000E+000	-4.96149E-004	-3.59960E-001	-1.10710E+000	3.57730E+000	10	...........
	42	0.573333	7.65119E-002	-6.01175E-003	0.00000E+000	-4.59971E-004	-3.59960E-001	-1.11840E+000	3.57730E+000	10	...........
	43	0.586667	7.07003E-002	-6.01200E-003	0.00000E+000	-4.25050E-004	-3.59960E-001	-1.10844E+000	3.57730E+000	10	...........
	44	0.6	6.48996E-002	-6.01320E-003	0.00000E+000	-3.90254E-004	-3.59960E-001	-1.10730E+000	3.57730E+000	10	...........
	45	0.613333	5.90982E-002	-6.01421E-003	0.00000E+000	-3.55429E-004	-3.59960E-001	-1.11813E+000	3.57730E+000	10	...........
	46	0.626667	5.34823E-002	-6.01429E-003	0.00000E+000	-3.21658E-004	-3.59960E-001	-1.10817E+000	3.57730E+000	10	...........
	47	0.64	4.78833E-002	-6.02126E-003	0.00000E+000	-2.88318E-004	-3.59960E-001	-1.10731E+000	3.57730E+000	10	...........
	48	0.653333	4.23299E-002	-6.01473E-003	0.00000E+000	-2.54603E-004	-3.59960E-001	-1.11842E+000	3.57730E+000	10	...........
	49	0.666667	3.67833E-002	-6.01584E-003	0.00000E+000	-2.21282E-004	-3.59960E-001	-1.10828E+000	3.57730E+000	10	...........
	50	0.68	3.13168E-002	-6.01400E-003	0.00000E+000	-1.88339E-004	-3.59960E-001	-1.10743E+000	3.57730E+000	10	...........
	51	0.693333	2.58799E-002	-6.01916E-003	0.00000E+000	-1.55775E-004	-3.59960E-001	-1.11823E+000	3.57730E+000	10	...........
	52	0.706667	2.05097E-002	-6.01239E-003	0.00000E+000	-1.23312E-004	-3.59960E-001	-1.10840E+000	3.57730E+000	10	...........
	53	0.72	1.51588E-002	-6.01336E-003	0.00000E+000	-9.11551E-005	-3.59960E-001	-1.10761E+000	3.57730E+000	10	...........
	54	0.733333	9.85180E-003	-6.01384E-003	0.00000E+000	-5.92471E-005	-3.59960E-001	-1.11865E+000	3.57730E+000	10	...........
	55	0.746667	4.62892E-003	-6.01409E-003	0.00000E+000	-2.78387E-005	-3.59960E-001	-1.10860E+000	3.57730E+000	10	...........
	56	0.753333	7.68190E-004	-6.01172E-003	0.00000E+000	-4.61814E-006	-3.59960E-001	-1.11763E+000	3.57730E+000	10	...........
STARTTIMEOFFSET	QUANT	954.448	Start Time Offset (s)
