EXPLAIN
TAG	PWR800_DISCHARGE
TITLE	LABEL	PWR Cyclic Charge Discharge (Cell) - Discharge Step	Test &Identifier
DATE	LABEL	22-6-2017	Date
TIME	LABEL	16:02:08	Time
NOTES	NOTES	3	&Notes...
	supercap test cell
	0.6mg
	6M KOH
PSTAT	PSTAT	IFC5000-01520	Potentiostat
CAPACITY	QUANT	1.00000E-003	Capacity (A-hr)
CELLTYPE	SELECTOR	1	&Cell Type
WORKINGCONNECTION	SELECTOR	0	&Working Lead
MAXDISCHARGETIME	VARIABLEANDUNITS	1.00000E+002	s	1.00000E+002	second(s)	Max &Discharge Time
DISCHARGEMODE	MULTIPARAM	0	6.00000E-003	&Discharge Mode	Constant Current	Amp(s)
SAMPLETIME	QUANT	1.00000E-002	Sa&mple Period (s)
DISCHARGESTOPAT1	MULTIPARAM	3	0.00000E+000	Discharge Stop At &1	Voltage < Limit	V
DISCHARGESTOPAT2	MULTIPARAM	0	0.00000E+000	Discharge Stop At &2	None	N/A
AESBHCSELECTOR	TOGGLE	F	Save Both Half Cells
IRCOMP	TOGGLE	F	IR &Measure
EOC	QUANT	0	Open Circuit (V)
SEQUENCER	TOGGLE	TRUE	Run as Sequence
PSTATMODEL	IQUANT	53	Pstat Model
PSTATSECTION	LABEL	IFC5000-01520	Pstat Section
PSTATSERIALNO	LABEL	01520	Pstat Serial Number
CTRLMODE	IQUANT	0	Control Mode
ELECTROMETER	IQUANT	1	RE=0 or CS=1
IESTAB	IQUANT	0	I/E Stability
CASPEED	IQUANT	4	Control Amp Speed
CONVENTION	IQUANT	1	Current Convention
ICHRANGE	IQUANT	2	Ich Range
ICHRANGEMODE	TOGGLE	T	Ich Auto Range
ICHOFFSETENABLE	TOGGLE	F	Ich Offset Enable
ICHOFFSET	QUANT	0	Ich Offset (V)
ICHFILTER	IQUANT	1	Ich Filter
VCHRANGE	IQUANT	2	Vch Range
VCHRANGEMODE	TOGGLE	T	Vch Auto Range
VCHOFFSETENABLE	TOGGLE	F	Vch Offset Enable
VCHOFFSET	QUANT	0	Vch Offset (V)
VCHFILTER	IQUANT	1	Vch Filter
IERANGELOWERLIMIT	IQUANT	9	I/E Range Lower Limit
IERANGEMODE	TOGGLE	F	I/E AutoRange
IERANGE	IQUANT	10	I/E Range
ACHSELECT	IQUANT	1	Ach Select
ACHRANGE	IQUANT	2	Ach Range
ACHOFFSETENABLE	TOGGLE	F	Ach Offset Enable
ACHOFFSET	QUANT	0	Ach Offset (V)
ACHFILTER	IQUANT	1	Ach Filter
CABLEID	IQUANT	14	Cable ID
DCCALDATE	LABEL	20-10-2016	DC Calibration Date
ACCALDATE	LABEL	12/3/2015	AC Calibration Date
FRAMEWORKVERSION	QUANT	7.01	Framework Version
INSTRUMENTVERSION	LABEL	4.00	Instrument Version
CURVE	TABLE	56
	Pt	T	Vf	Im	Vu	Pwr	Sig	Ach	Temp	IERange	Over
	#	s	V	A	V	W	V	V	deg C	#	bits
	0	0.013333	3.87500E-001	-6.01442E-003	0.00000E+000	-2.33059E-003	-3.59960E-001	-1.11101E+000	3.57670E+000	10	...........
	1	0.026667	3.76224E-001	-6.01531E-003	0.00000E+000	-2.26310E-003	-3.59960E-001	-1.11914E+000	3.57670E+000	10	...........
	2	0.04	3.65721E-001	-6.01686E-003	0.00000E+000	-2.20050E-003	-3.59960E-001	-1.11782E+000	3.57670E+000	10	...........
	3	0.053333	3.55771E-001	-6.01529E-003	0.00000E+000	-2.14006E-003	-3.59960E-001	-1.11099E+000	3.57670E+000	10	...........
	4	0.066667	3.46210E-001	-6.01550E-003	0.00000E+000	-2.08263E-003	-3.59960E-001	-1.11926E+000	3.57670E+000	10	...........
	5	0.08	3.36935E-001	-6.01139E-003	0.00000E+000	-2.02544E-003	-3.59960E-001	-1.11804E+000	3.57670E+000	10	...........
	6	0.093333	3.27863E-001	-6.01408E-003	0.00000E+000	-1.97180E-003	-3.59960E-001	-1.11161E+000	3.57670E+000	10	...........
	7	0.106667	3.19019E-001	-6.01364E-003	0.00000E+000	-1.91847E-003	-3.59960E-001	-1.11969E+000	3.57670E+000	10	...........
	8	0.12	3.10268E-001	-6.01720E-003	0.00000E+000	-1.86694E-003	-3.59960E-001	-1.11781E+000	3.57670E+000	10	...........
	9	0.133333	3.01628E-001	-6.01059E-003	0.00000E+000	-1.81296E-003	-3.59960E-001	-1.11179E+000	3.57670E+000	10	...........
	10	0.146667	2.93120E-001	-6.01289E-003	0.00000E+000	-1.76250E-003	-3.59960E-001	-1.12016E+000	3.57670E+000	10	...........
	11	0.16	2.84745E-001	-6.01652E-003	0.00000E+000	-1.71317E-003	-3.59960E-001	-1.11817E+000	3.57670E+000	10	...........
	12	0.173333	2.76490E-001	-6.01680E-003	0.00000E+000	-1.66358E-003	-3.59960E-001	-1.11226E+000	3.57670E+000	10	...........
	13	0.186667	2.68410E-001	-6.02350E-003	0.00000E+000	-1.61677E-003	-3.59960E-001	-1.12055E+000	3.57670E+000	10	...........
	14	0.2	2.60407E-001	-6.01846E-003	0.00000E+000	-1.56725E-003	-3.59960E-001	-1.11847E+000	3.57670E+000	10	...........
	15	0.213333	2.52510E-001	-6.01564E-003	0.00000E+000	-1.51901E-003	-3.59960E-001	-1.11241E+000	3.57670E+000	10	...........
	16	0.226667	2.44696E-001	-6.01611E-003	0.00000E+000	-1.47212E-003	-3.59960E-001	-1.12106E+000	3.57670E+000	10	...........
	17	0.24	2.37005E-001	-6.01211E-003	0.00000E+000	-1.42490E-003	-3.59960E-001	-1.11845E+000	3.57670E+000	10	...........
	18	0.253333	2.29344E-001	-6.02073E-003	0.00000E+000	-1.38082E-003	-3.59960E-001	-1.11255E+000	3.57670E+000	10	...........
	19	0.266667	2.21787E-001	-6.01961E-003	0.00000E+000	-1.33507E-003	-3.59960E-001	-1.12080E+000	3.57670E+000	10	...........
	20	0.28	2.14370E-001	-6.01293E-003	0.00000E+000	-1.28899E-003	-3.59960E-001	-1.11805E+000	3.57640E+000	10	...........
	21	0.293333	2.07050E-001	-6.01490E-003	0.00000E+000	-1.24538E-003	-3.59960E-001	-1.11242E+000	3.57640E+000	10	...........
	22	0.306667	1.99745E-001	-6.01714E-003	0.00000E+000	-1.20189E-003	-3.59960E-001	-1.12116E+000	3.57640E+000	10	...........
	23	0.32	1.92578E-001	-6.01299E-003	0.00000E+000	-1.15797E-003	-3.59960E-001	-1.11790E+000	3.57640E+000	10	...........
	24	0.333333	1.85454E-001	-6.01712E-003	0.00000E+000	-1.11590E-003	-3.59960E-001	-1.11252E+000	3.57640E+000	10	...........
	25	0.346667	1.78415E-001	-6.01675E-003	0.00000E+000	-1.07348E-003	-3.59960E-001	-1.12158E+000	3.57640E+000	10	...........
	26	0.36	1.71497E-001	-6.01353E-003	0.00000E+000	-1.03131E-003	-3.59960E-001	-1.11838E+000	3.57640E+000	10	...........
	27	0.373333	1.64651E-001	-6.01194E-003	0.00000E+000	-9.89869E-004	-3.59960E-001	-1.11284E+000	3.57640E+000	10	...........
	28	0.386667	1.57851E-001	-6.01261E-003	0.00000E+000	-9.49094E-004	-3.59960E-001	-1.12166E+000	3.57640E+000	10	...........
	29	0.4	1.51087E-001	-6.01158E-003	0.00000E+000	-9.08273E-004	-3.59960E-001	-1.11819E+000	3.57640E+000	10	...........
	30	0.413333	1.44416E-001	-6.01622E-003	0.00000E+000	-8.68837E-004	-3.59960E-001	-1.11290E+000	3.57640E+000	10	...........
	31	0.426667	1.37871E-001	-6.01374E-003	0.00000E+000	-8.29122E-004	-3.59960E-001	-1.12215E+000	3.57640E+000	10	...........
	32	0.44	1.31349E-001	-6.01613E-003	0.00000E+000	-7.90215E-004	-3.59960E-001	-1.11812E+000	3.57640E+000	10	...........
	33	0.453333	1.24885E-001	-6.01618E-003	0.00000E+000	-7.51332E-004	-3.59960E-001	-1.11263E+000	3.57640E+000	10	...........
	34	0.466667	1.18488E-001	-6.01580E-003	0.00000E+000	-7.12798E-004	-3.59960E-001	-1.12194E+000	3.57640E+000	10	...........
	35	0.48	1.12137E-001	-6.01697E-003	0.00000E+000	-6.74726E-004	-3.59960E-001	-1.11819E+000	3.57640E+000	10	...........
	36	0.493333	1.05856E-001	-6.01375E-003	0.00000E+000	-6.36593E-004	-3.59960E-001	-1.11302E+000	3.57640E+000	10	...........
	37	0.506667	9.96549E-002	-6.01610E-003	0.00000E+000	-5.99534E-004	-3.59960E-001	-1.12255E+000	3.57640E+000	10	...........
	38	0.52	9.35225E-002	-6.01798E-003	0.00000E+000	-5.62816E-004	-3.59960E-001	-1.11818E+000	3.57640E+000	10	...........
	39	0.533333	8.74315E-002	-6.01848E-003	0.00000E+000	-5.26205E-004	-3.59960E-001	-1.11299E+000	3.57640E+000	10	...........
	40	0.546667	8.14090E-002	-6.01449E-003	0.00000E+000	-4.89634E-004	-3.59960E-001	-1.12266E+000	3.57640E+000	10	...........
	41	0.56	7.54622E-002	-6.01788E-003	0.00000E+000	-4.54123E-004	-3.59960E-001	-1.11820E+000	3.57640E+000	10	...........
	42	0.573333	6.95447E-002	-6.01361E-003	0.00000E+000	-4.18215E-004	-3.59960E-001	-1.11304E+000	3.57640E+000	10	...........
	43	0.586667	6.36887E-002	-6.01975E-003	0.00000E+000	-3.83390E-004	-3.59960E-001	-1.12231E+000	3.57640E+000	10	...........
	44	0.6	5.78706E-002	-6.01491E-003	0.00000E+000	-3.48087E-004	-3.59960E-001	-1.11754E+000	3.57640E+000	10	...........
	45	0.613333	5.21205E-002	-6.01521E-003	0.00000E+000	-3.13516E-004	-3.59960E-001	-1.11285E+000	3.57640E+000	10	...........
	46	0.626667	4.64571E-002	-6.01682E-003	0.00000E+000	-2.79524E-004	-3.59960E-001	-1.12273E+000	3.57640E+000	10	...........
	47	0.64	4.08488E-002	-6.01151E-003	0.00000E+000	-2.45563E-004	-3.59960E-001	-1.11755E+000	3.57640E+000	10	...........
	48	0.653333	3.52456E-002	-6.01454E-003	0.00000E+000	-2.11986E-004	-3.59960E-001	-1.11269E+000	3.57640E+000	10	...........
	49	0.666667	2.96651E-002	-6.01111E-003	0.00000E+000	-1.78320E-004	-3.59960E-001	-1.12261E+000	3.57640E+000	10	...........
	50	0.68	2.41986E-002	-6.01878E-003	0.00000E+000	-1.45646E-004	-3.59960E-001	-1.11761E+000	3.57640E+000	10	...........
	51	0.693333	1.87565E-002	-6.01740E-003	0.00000E+000	-1.12866E-004	-3.59960E-001	-1.11306E+000	3.57640E+000	10	...........
	52	0.706667	1.33416E-002	-6.01564E-003	0.00000E+000	-8.02586E-005	-3.59960E-001	-1.12308E+000	3.57640E+000	10	...........
	53	0.72	7.99918E-003	-6.01005E-003	0.00000E+000	-4.80755E-005	-3.59960E-001	-1.11739E+000	3.57640E+000	10	...........
	54	0.733333	2.71257E-003	-6.01414E-003	0.00000E+000	-1.63138E-005	-3.59960E-001	-1.11270E+000	3.57640E+000	10	...........
	55	0.735	-2.71381E-004	-6.01220E-003	0.00000E+000	1.63159E-006	-3.59960E-001	-1.12654E+000	3.57640E+000	10	...........
STARTTIMEOFFSET	QUANT	1103.99	Start Time Offset (s)
