EXPLAIN
TAG	PWR800_DISCHARGE
TITLE	LABEL	PWR Cyclic Charge Discharge (Cell) - Discharge Step	Test &Identifier
DATE	LABEL	22-6-2017	Date
TIME	LABEL	15:47:32	Time
NOTES	NOTES	3	&Notes...
	supercap test cell
	0.6mg
	6M KOH
PSTAT	PSTAT	IFC5000-01520	Potentiostat
CAPACITY	QUANT	1.00000E-003	Capacity (A-hr)
CELLTYPE	SELECTOR	1	&Cell Type
WORKINGCONNECTION	SELECTOR	0	&Working Lead
MAXDISCHARGETIME	VARIABLEANDUNITS	1.00000E+002	s	1.00000E+002	second(s)	Max &Discharge Time
DISCHARGEMODE	MULTIPARAM	0	6.00000E-003	&Discharge Mode	Constant Current	Amp(s)
SAMPLETIME	QUANT	1.00000E-002	Sa&mple Period (s)
DISCHARGESTOPAT1	MULTIPARAM	3	0.00000E+000	Discharge Stop At &1	Voltage < Limit	V
DISCHARGESTOPAT2	MULTIPARAM	0	0.00000E+000	Discharge Stop At &2	None	N/A
AESBHCSELECTOR	TOGGLE	F	Save Both Half Cells
IRCOMP	TOGGLE	F	IR &Measure
EOC	QUANT	0	Open Circuit (V)
SEQUENCER	TOGGLE	TRUE	Run as Sequence
PSTATMODEL	IQUANT	53	Pstat Model
PSTATSECTION	LABEL	IFC5000-01520	Pstat Section
PSTATSERIALNO	LABEL	01520	Pstat Serial Number
CTRLMODE	IQUANT	0	Control Mode
ELECTROMETER	IQUANT	1	RE=0 or CS=1
IESTAB	IQUANT	0	I/E Stability
CASPEED	IQUANT	4	Control Amp Speed
CONVENTION	IQUANT	1	Current Convention
ICHRANGE	IQUANT	2	Ich Range
ICHRANGEMODE	TOGGLE	T	Ich Auto Range
ICHOFFSETENABLE	TOGGLE	F	Ich Offset Enable
ICHOFFSET	QUANT	0	Ich Offset (V)
ICHFILTER	IQUANT	1	Ich Filter
VCHRANGE	IQUANT	2	Vch Range
VCHRANGEMODE	TOGGLE	T	Vch Auto Range
VCHOFFSETENABLE	TOGGLE	F	Vch Offset Enable
VCHOFFSET	QUANT	0	Vch Offset (V)
VCHFILTER	IQUANT	1	Vch Filter
IERANGELOWERLIMIT	IQUANT	9	I/E Range Lower Limit
IERANGEMODE	TOGGLE	F	I/E AutoRange
IERANGE	IQUANT	10	I/E Range
ACHSELECT	IQUANT	1	Ach Select
ACHRANGE	IQUANT	2	Ach Range
ACHOFFSETENABLE	TOGGLE	F	Ach Offset Enable
ACHOFFSET	QUANT	0	Ach Offset (V)
ACHFILTER	IQUANT	1	Ach Filter
CABLEID	IQUANT	14	Cable ID
DCCALDATE	LABEL	20-10-2016	DC Calibration Date
ACCALDATE	LABEL	12/3/2015	AC Calibration Date
FRAMEWORKVERSION	QUANT	7.01	Framework Version
INSTRUMENTVERSION	LABEL	4.00	Instrument Version
CURVE	TABLE	62
	Pt	T	Vf	Im	Vu	Pwr	Sig	Ach	Temp	IERange	Over
	#	s	V	A	V	W	V	V	deg C	#	bits
	0	0.013333	4.07947E-001	-6.01658E-003	0.00000E+000	-2.45445E-003	-3.59960E-001	-1.07394E+000	3.57720E+000	10	...........
	1	0.026667	3.97186E-001	-6.01231E-003	0.00000E+000	-2.38801E-003	-3.59960E-001	-1.06967E+000	3.57720E+000	10	...........
	2	0.04	3.87198E-001	-6.01359E-003	0.00000E+000	-2.32845E-003	-3.59960E-001	-1.07920E+000	3.57720E+000	10	...........
	3	0.053333	3.77723E-001	-6.01191E-003	0.00000E+000	-2.27083E-003	-3.59960E-001	-1.07392E+000	3.57720E+000	10	...........
	4	0.066667	3.68593E-001	-6.01236E-003	0.00000E+000	-2.21611E-003	-3.59960E-001	-1.06945E+000	3.57720E+000	10	...........
	5	0.08	3.59766E-001	-6.01386E-003	0.00000E+000	-2.16358E-003	-3.59960E-001	-1.07913E+000	3.57720E+000	10	...........
	6	0.093333	3.51139E-001	-6.01363E-003	0.00000E+000	-2.11162E-003	-3.59960E-001	-1.07384E+000	3.57720E+000	10	...........
	7	0.106667	3.42681E-001	-6.01421E-003	0.00000E+000	-2.06096E-003	-3.59960E-001	-1.06961E+000	3.57720E+000	10	...........
	8	0.12	3.34360E-001	-6.01866E-003	0.00000E+000	-2.01240E-003	-3.59960E-001	-1.07907E+000	3.57720E+000	10	...........
	9	0.133333	3.26172E-001	-6.01308E-003	0.00000E+000	-1.96130E-003	-3.59960E-001	-1.07449E+000	3.57720E+000	10	...........
	10	0.146667	3.18121E-001	-6.01771E-003	0.00000E+000	-1.91436E-003	-3.59960E-001	-1.07012E+000	3.57720E+000	10	...........
	11	0.16	3.10191E-001	-6.01319E-003	0.00000E+000	-1.86523E-003	-3.59960E-001	-1.07910E+000	3.57720E+000	10	...........
	12	0.173333	3.02352E-001	-6.01662E-003	0.00000E+000	-1.81914E-003	-3.59960E-001	-1.07463E+000	3.57720E+000	10	...........
	13	0.186667	2.94629E-001	-6.01617E-003	0.00000E+000	-1.77254E-003	-3.59960E-001	-1.06989E+000	3.57720E+000	10	...........
	14	0.2	2.86984E-001	-6.01571E-003	0.00000E+000	-1.72641E-003	-3.59960E-001	-1.07930E+000	3.57720E+000	10	...........
	15	0.213333	2.79435E-001	-6.01564E-003	0.00000E+000	-1.68098E-003	-3.59960E-001	-1.07527E+000	3.57720E+000	10	...........
	16	0.226667	2.71959E-001	-6.01339E-003	0.00000E+000	-1.63540E-003	-3.59960E-001	-1.07046E+000	3.57720E+000	10	...........
	17	0.24	2.64600E-001	-6.01360E-003	0.00000E+000	-1.59120E-003	-3.59960E-001	-1.07934E+000	3.57720E+000	10	...........
	18	0.253333	2.57265E-001	-6.01507E-003	0.00000E+000	-1.54746E-003	-3.59960E-001	-1.07551E+000	3.57720E+000	10	...........
	19	0.266667	2.50041E-001	-6.01765E-003	0.00000E+000	-1.50466E-003	-3.59960E-001	-1.07092E+000	3.57720E+000	10	...........
	20	0.28	2.42926E-001	-6.01269E-003	0.00000E+000	-1.46064E-003	-3.59960E-001	-1.07977E+000	3.57720E+000	10	...........
	21	0.293333	2.35851E-001	-6.00769E-003	0.00000E+000	-1.41692E-003	-3.59960E-001	-1.07619E+000	3.57720E+000	10	...........
	22	0.306667	2.28866E-001	-6.01389E-003	0.00000E+000	-1.37638E-003	-3.59960E-001	-1.07115E+000	3.57720E+000	10	...........
	23	0.32	2.21950E-001	-6.01572E-003	0.00000E+000	-1.33519E-003	-3.59960E-001	-1.07990E+000	3.57720E+000	10	...........
	24	0.333333	2.15115E-001	-6.01753E-003	0.00000E+000	-1.29446E-003	-3.59960E-001	-1.07682E+000	3.57720E+000	10	...........
	25	0.346667	2.08311E-001	-6.01493E-003	0.00000E+000	-1.25298E-003	-3.59960E-001	-1.07158E+000	3.57720E+000	10	...........
	26	0.36	2.01557E-001	-6.01565E-003	0.00000E+000	-1.21250E-003	-3.59960E-001	-1.08001E+000	3.57720E+000	10	...........
	27	0.373333	1.94890E-001	-6.00962E-003	0.00000E+000	-1.17122E-003	-3.59960E-001	-1.07702E+000	3.57720E+000	10	...........
	28	0.386667	1.88318E-001	-6.01399E-003	0.00000E+000	-1.13254E-003	-3.59960E-001	-1.07162E+000	3.57720E+000	10	...........
	29	0.4	1.81780E-001	-6.01309E-003	0.00000E+000	-1.09306E-003	-3.59960E-001	-1.08000E+000	3.57720E+000	10	...........
	30	0.413333	1.75309E-001	-6.01574E-003	0.00000E+000	-1.05461E-003	-3.59960E-001	-1.07739E+000	3.57720E+000	10	...........
	31	0.426667	1.68896E-001	-6.01473E-003	0.00000E+000	-1.01587E-003	-3.59960E-001	-1.07183E+000	3.57720E+000	10	...........
	32	0.44	1.62541E-001	-6.01359E-003	0.00000E+000	-9.77453E-004	-3.59960E-001	-1.08007E+000	3.57720E+000	10	...........
	33	0.453333	1.56245E-001	-6.01413E-003	0.00000E+000	-9.39678E-004	-3.59960E-001	-1.07775E+000	3.57720E+000	10	...........
	34	0.466667	1.50000E-001	-6.01330E-003	0.00000E+000	-9.01995E-004	-3.59960E-001	-1.07230E+000	3.57720E+000	10	...........
	35	0.48	1.43829E-001	-6.01505E-003	0.00000E+000	-8.65140E-004	-3.59960E-001	-1.08032E+000	3.57720E+000	10	...........
	36	0.493333	1.37706E-001	-6.01144E-003	0.00000E+000	-8.27814E-004	-3.59960E-001	-1.07817E+000	3.57720E+000	10	...........
	37	0.506667	1.31630E-001	-6.01339E-003	0.00000E+000	-7.91545E-004	-3.59960E-001	-1.07234E+000	3.57720E+000	10	...........
	38	0.52	1.25605E-001	-6.01415E-003	0.00000E+000	-7.55408E-004	-3.59960E-001	-1.08047E+000	3.57720E+000	10	...........
	39	0.533333	1.19634E-001	-6.01674E-003	0.00000E+000	-7.19805E-004	-3.59960E-001	-1.07856E+000	3.57720E+000	10	...........
	40	0.546667	1.13720E-001	-6.00846E-003	0.00000E+000	-6.83284E-004	-3.59960E-001	-1.07265E+000	3.57720E+000	10	...........
	41	0.56	1.07883E-001	-6.01720E-003	0.00000E+000	-6.49154E-004	-3.59960E-001	-1.08010E+000	3.57720E+000	10	...........
	42	0.573333	1.02074E-001	-6.01634E-003	0.00000E+000	-6.14114E-004	-3.59960E-001	-1.07857E+000	3.57720E+000	10	...........
	43	0.586667	9.63105E-002	-6.01612E-003	0.00000E+000	-5.79416E-004	-3.59960E-001	-1.07268E+000	3.57720E+000	10	...........
	44	0.6	9.05745E-002	-6.01249E-003	0.00000E+000	-5.44579E-004	-3.59960E-001	-1.08062E+000	3.57720E+000	10	...........
	45	0.613333	8.48864E-002	-6.01882E-003	0.00000E+000	-5.10916E-004	-3.59960E-001	-1.07914E+000	3.57720E+000	10	...........
	46	0.626667	7.92773E-002	-6.01428E-003	0.00000E+000	-4.76795E-004	-3.59960E-001	-1.07278E+000	3.57720E+000	10	...........
	47	0.64	7.37304E-002	-6.01394E-003	0.00000E+000	-4.43410E-004	-3.59960E-001	-1.08013E+000	3.57720E+000	10	...........
	48	0.653333	6.81997E-002	-6.00789E-003	0.00000E+000	-4.09736E-004	-3.59960E-001	-1.07929E+000	3.57720E+000	10	...........
	49	0.666667	6.26791E-002	-6.01590E-003	0.00000E+000	-3.77071E-004	-3.59960E-001	-1.07278E+000	3.57720E+000	10	...........
	50	0.68	5.72698E-002	-6.01204E-003	0.00000E+000	-3.44309E-004	-3.59960E-001	-1.08013E+000	3.57720E+000	10	...........
	51	0.693333	5.18583E-002	-6.01693E-003	0.00000E+000	-3.12028E-004	-3.59960E-001	-1.07926E+000	3.57720E+000	10	...........
	52	0.706667	4.65564E-002	-6.01295E-003	0.00000E+000	-2.79941E-004	-3.59960E-001	-1.07245E+000	3.57720E+000	10	...........
	53	0.72	4.12424E-002	-6.01533E-003	0.00000E+000	-2.48087E-004	-3.59960E-001	-1.07951E+000	3.57720E+000	10	...........
	54	0.733333	3.59649E-002	-6.01546E-003	0.00000E+000	-2.16346E-004	-3.59960E-001	-1.07932E+000	3.57720E+000	10	...........
	55	0.746667	3.07153E-002	-6.01287E-003	0.00000E+000	-1.84687E-004	-3.59960E-001	-1.07282E+000	3.57720E+000	10	...........
	56	0.76	2.55194E-002	-6.01561E-003	0.00000E+000	-1.53515E-004	-3.59960E-001	-1.07952E+000	3.57720E+000	10	...........
	57	0.773333	2.03297E-002	-6.01577E-003	0.00000E+000	-1.22299E-004	-3.59960E-001	-1.07929E+000	3.57720E+000	10	...........
	58	0.786667	1.52589E-002	-6.01025E-003	0.00000E+000	-9.17098E-005	-3.59960E-001	-1.07252E+000	3.57720E+000	10	...........
	59	0.8	1.01542E-002	-6.01369E-003	0.00000E+000	-6.10643E-005	-3.59960E-001	-1.07961E+000	3.57720E+000	10	...........
	60	0.813333	5.11208E-003	-6.01341E-003	0.00000E+000	-3.07410E-005	-3.59960E-001	-1.07967E+000	3.57720E+000	10	...........
	61	0.821667	9.96316E-004	-6.01597E-003	0.00000E+000	-5.99381E-006	-3.59960E-001	-1.07014E+000	3.57720E+000	10	...........
STARTTIMEOFFSET	QUANT	525.4699	Start Time Offset (s)
