EXPLAIN
TAG	PWR800_DISCHARGE
TITLE	LABEL	PWR Cyclic Charge Discharge (Cell) - Discharge Step	Test &Identifier
DATE	LABEL	22-6-2017	Date
TIME	LABEL	15:56:59	Time
NOTES	NOTES	3	&Notes...
	supercap test cell
	0.6mg
	6M KOH
PSTAT	PSTAT	IFC5000-01520	Potentiostat
CAPACITY	QUANT	1.00000E-003	Capacity (A-hr)
CELLTYPE	SELECTOR	1	&Cell Type
WORKINGCONNECTION	SELECTOR	0	&Working Lead
MAXDISCHARGETIME	VARIABLEANDUNITS	1.00000E+002	s	1.00000E+002	second(s)	Max &Discharge Time
DISCHARGEMODE	MULTIPARAM	0	6.00000E-003	&Discharge Mode	Constant Current	Amp(s)
SAMPLETIME	QUANT	1.00000E-002	Sa&mple Period (s)
DISCHARGESTOPAT1	MULTIPARAM	3	0.00000E+000	Discharge Stop At &1	Voltage < Limit	V
DISCHARGESTOPAT2	MULTIPARAM	0	0.00000E+000	Discharge Stop At &2	None	N/A
AESBHCSELECTOR	TOGGLE	F	Save Both Half Cells
IRCOMP	TOGGLE	F	IR &Measure
EOC	QUANT	0	Open Circuit (V)
SEQUENCER	TOGGLE	TRUE	Run as Sequence
PSTATMODEL	IQUANT	53	Pstat Model
PSTATSECTION	LABEL	IFC5000-01520	Pstat Section
PSTATSERIALNO	LABEL	01520	Pstat Serial Number
CTRLMODE	IQUANT	0	Control Mode
ELECTROMETER	IQUANT	1	RE=0 or CS=1
IESTAB	IQUANT	0	I/E Stability
CASPEED	IQUANT	4	Control Amp Speed
CONVENTION	IQUANT	1	Current Convention
ICHRANGE	IQUANT	2	Ich Range
ICHRANGEMODE	TOGGLE	T	Ich Auto Range
ICHOFFSETENABLE	TOGGLE	F	Ich Offset Enable
ICHOFFSET	QUANT	0	Ich Offset (V)
ICHFILTER	IQUANT	1	Ich Filter
VCHRANGE	IQUANT	2	Vch Range
VCHRANGEMODE	TOGGLE	T	Vch Auto Range
VCHOFFSETENABLE	TOGGLE	F	Vch Offset Enable
VCHOFFSET	QUANT	0	Vch Offset (V)
VCHFILTER	IQUANT	1	Vch Filter
IERANGELOWERLIMIT	IQUANT	9	I/E Range Lower Limit
IERANGEMODE	TOGGLE	F	I/E AutoRange
IERANGE	IQUANT	10	I/E Range
ACHSELECT	IQUANT	1	Ach Select
ACHRANGE	IQUANT	2	Ach Range
ACHOFFSETENABLE	TOGGLE	F	Ach Offset Enable
ACHOFFSET	QUANT	0	Ach Offset (V)
ACHFILTER	IQUANT	1	Ach Filter
CABLEID	IQUANT	14	Cable ID
DCCALDATE	LABEL	20-10-2016	DC Calibration Date
ACCALDATE	LABEL	12/3/2015	AC Calibration Date
FRAMEWORKVERSION	QUANT	7.01	Framework Version
INSTRUMENTVERSION	LABEL	4.00	Instrument Version
CURVE	TABLE	57
	Pt	T	Vf	Im	Vu	Pwr	Sig	Ach	Temp	IERange	Over
	#	s	V	A	V	W	V	V	deg C	#	bits
	0	0.013333	3.93611E-001	-6.01522E-003	0.00000E+000	-2.36766E-003	-3.59960E-001	-1.09869E+000	3.57650E+000	10	...........
	1	0.026667	3.82477E-001	-6.01673E-003	0.00000E+000	-2.30126E-003	-3.59960E-001	-1.10999E+000	3.57650E+000	10	...........
	2	0.04	3.72164E-001	-6.01644E-003	0.00000E+000	-2.23910E-003	-3.59960E-001	-1.10177E+000	3.57650E+000	10	...........
	3	0.053333	3.62375E-001	-6.01883E-003	0.00000E+000	-2.18108E-003	-3.59960E-001	-1.09907E+000	3.57650E+000	10	...........
	4	0.066667	3.52937E-001	-6.01719E-003	0.00000E+000	-2.12369E-003	-3.59960E-001	-1.11010E+000	3.57650E+000	10	...........
	5	0.08	3.43765E-001	-6.01365E-003	0.00000E+000	-2.06728E-003	-3.59960E-001	-1.10169E+000	3.57650E+000	10	...........
	6	0.093333	3.34846E-001	-6.01629E-003	0.00000E+000	-2.01453E-003	-3.59960E-001	-1.09911E+000	3.57650E+000	10	...........
	7	0.106667	3.26084E-001	-6.01722E-003	0.00000E+000	-1.96212E-003	-3.59960E-001	-1.11022E+000	3.57650E+000	10	...........
	8	0.12	3.17495E-001	-6.02011E-003	0.00000E+000	-1.91135E-003	-3.59960E-001	-1.10226E+000	3.57650E+000	10	...........
	9	0.133333	3.08997E-001	-6.01680E-003	0.00000E+000	-1.85917E-003	-3.59960E-001	-1.09927E+000	3.57650E+000	10	...........
	10	0.146667	3.00714E-001	-6.01140E-003	0.00000E+000	-1.80771E-003	-3.59960E-001	-1.11022E+000	3.57650E+000	10	...........
	11	0.16	2.92503E-001	-6.01298E-003	0.00000E+000	-1.75882E-003	-3.59960E-001	-1.10265E+000	3.57650E+000	10	...........
	12	0.173333	2.84375E-001	-6.01619E-003	0.00000E+000	-1.71085E-003	-3.59960E-001	-1.09963E+000	3.57650E+000	10	...........
	13	0.186667	2.76348E-001	-6.01498E-003	0.00000E+000	-1.66223E-003	-3.59960E-001	-1.11075E+000	3.57650E+000	10	...........
	14	0.2	2.68460E-001	-6.01546E-003	0.00000E+000	-1.61491E-003	-3.59960E-001	-1.10301E+000	3.57650E+000	10	...........
	15	0.213333	2.60706E-001	-6.01561E-003	0.00000E+000	-1.56830E-003	-3.59960E-001	-1.09956E+000	3.57650E+000	10	...........
	16	0.226667	2.52983E-001	-6.01196E-003	0.00000E+000	-1.52092E-003	-3.59960E-001	-1.11087E+000	3.57650E+000	10	...........
	17	0.24	2.45377E-001	-6.01428E-003	0.00000E+000	-1.47577E-003	-3.59960E-001	-1.10322E+000	3.57650E+000	10	...........
	18	0.253333	2.37849E-001	-6.01610E-003	0.00000E+000	-1.43093E-003	-3.59960E-001	-1.09992E+000	3.57650E+000	10	...........
	19	0.266667	2.30417E-001	-6.01909E-003	0.00000E+000	-1.38690E-003	-3.59960E-001	-1.11085E+000	3.57650E+000	10	...........
	20	0.28	2.23046E-001	-6.01330E-003	0.00000E+000	-1.34125E-003	-3.59960E-001	-1.10354E+000	3.57650E+000	10	...........
	21	0.293333	2.15748E-001	-6.01786E-003	0.00000E+000	-1.29834E-003	-3.59960E-001	-1.10034E+000	3.57650E+000	10	...........
	22	0.306667	2.08555E-001	-6.01584E-003	0.00000E+000	-1.25463E-003	-3.59960E-001	-1.11132E+000	3.57650E+000	10	...........
	23	0.32	2.01431E-001	-6.01322E-003	0.00000E+000	-1.21125E-003	-3.59960E-001	-1.10433E+000	3.57650E+000	10	...........
	24	0.333333	1.94420E-001	-6.01559E-003	0.00000E+000	-1.16955E-003	-3.59960E-001	-1.10042E+000	3.57650E+000	10	...........
	25	0.346667	1.87499E-001	-6.01178E-003	0.00000E+000	-1.12721E-003	-3.59960E-001	-1.11148E+000	3.57650E+000	10	...........
	26	0.36	1.80619E-001	-6.01211E-003	0.00000E+000	-1.08590E-003	-3.59960E-001	-1.10471E+000	3.57650E+000	10	...........
	27	0.373333	1.73778E-001	-6.01687E-003	0.00000E+000	-1.04560E-003	-3.59960E-001	-1.10072E+000	3.57650E+000	10	...........
	28	0.386667	1.67033E-001	-6.01702E-003	0.00000E+000	-1.00504E-003	-3.59960E-001	-1.11154E+000	3.57650E+000	10	...........
	29	0.4	1.60401E-001	-6.01606E-003	0.00000E+000	-9.64984E-004	-3.59960E-001	-1.10437E+000	3.57650E+000	10	...........
	30	0.413333	1.53758E-001	-6.01540E-003	0.00000E+000	-9.24918E-004	-3.59960E-001	-1.10033E+000	3.57650E+000	10	...........
	31	0.426667	1.47243E-001	-6.01667E-003	0.00000E+000	-8.85914E-004	-3.59960E-001	-1.11115E+000	3.57650E+000	10	...........
	32	0.44	1.40761E-001	-6.01615E-003	0.00000E+000	-8.46838E-004	-3.59960E-001	-1.10460E+000	3.57650E+000	10	...........
	33	0.453333	1.34337E-001	-6.01239E-003	0.00000E+000	-8.07688E-004	-3.59960E-001	-1.10081E+000	3.57650E+000	10	...........
	34	0.466667	1.28027E-001	-6.01289E-003	0.00000E+000	-7.69809E-004	-3.59960E-001	-1.11124E+000	3.57650E+000	10	...........
	35	0.48	1.21721E-001	-6.01606E-003	0.00000E+000	-7.32281E-004	-3.59960E-001	-1.10496E+000	3.57650E+000	10	...........
	36	0.493333	1.15479E-001	-6.01299E-003	0.00000E+000	-6.94375E-004	-3.59960E-001	-1.10080E+000	3.57650E+000	10	...........
	37	0.506667	1.09323E-001	-6.01357E-003	0.00000E+000	-6.57423E-004	-3.59960E-001	-1.11128E+000	3.57650E+000	10	...........
	38	0.52	1.03225E-001	-6.01781E-003	0.00000E+000	-6.21191E-004	-3.59960E-001	-1.10499E+000	3.57650E+000	10	...........
	39	0.533333	9.71249E-002	-6.01508E-003	0.00000E+000	-5.84214E-004	-3.59960E-001	-1.10069E+000	3.57650E+000	10	...........
	40	0.546667	9.11482E-002	-6.01624E-003	0.00000E+000	-5.48369E-004	-3.59960E-001	-1.11109E+000	3.57650E+000	10	...........
	41	0.56	8.52253E-002	-6.01783E-003	0.00000E+000	-5.12871E-004	-3.59960E-001	-1.10524E+000	3.57650E+000	10	...........
	42	0.573333	7.93166E-002	-6.01664E-003	0.00000E+000	-4.77219E-004	-3.59960E-001	-1.10087E+000	3.57650E+000	10	...........
	43	0.586667	7.35238E-002	-6.01689E-003	0.00000E+000	-4.42385E-004	-3.59960E-001	-1.11133E+000	3.57650E+000	10	...........
	44	0.6	6.77416E-002	-6.01542E-003	0.00000E+000	-4.07495E-004	-3.59960E-001	-1.10525E+000	3.57650E+000	10	...........
	45	0.613333	6.19905E-002	-6.01499E-003	0.00000E+000	-3.72873E-004	-3.59960E-001	-1.10100E+000	3.57650E+000	10	...........
	46	0.626667	5.63620E-002	-6.01754E-003	0.00000E+000	-3.39160E-004	-3.59960E-001	-1.11123E+000	3.57650E+000	10	...........
	47	0.64	5.07298E-002	-6.01394E-003	0.00000E+000	-3.05086E-004	-3.59960E-001	-1.10578E+000	3.57650E+000	10	...........
	48	0.653333	4.51912E-002	-6.01417E-003	0.00000E+000	-2.71788E-004	-3.59960E-001	-1.10121E+000	3.57650E+000	10	...........
	49	0.666667	3.96546E-002	-6.01529E-003	0.00000E+000	-2.38534E-004	-3.59960E-001	-1.11122E+000	3.57650E+000	10	...........
	50	0.68	3.41591E-002	-6.01861E-003	0.00000E+000	-2.05591E-004	-3.59960E-001	-1.10567E+000	3.57650E+000	10	...........
	51	0.693333	2.87490E-002	-6.01841E-003	0.00000E+000	-1.73023E-004	-3.59960E-001	-1.10126E+000	3.57650E+000	10	...........
	52	0.706667	2.33876E-002	-6.01519E-003	0.00000E+000	-1.40681E-004	-3.59960E-001	-1.11128E+000	3.57650E+000	10	...........
	53	0.72	1.80042E-002	-6.01501E-003	0.00000E+000	-1.08296E-004	-3.59960E-001	-1.10583E+000	3.57650E+000	10	...........
	54	0.733333	1.27165E-002	-6.01100E-003	0.00000E+000	-7.64390E-005	-3.59960E-001	-1.10075E+000	3.57650E+000	10	...........
	55	0.746667	7.49057E-003	-6.01320E-003	0.00000E+000	-4.50423E-005	-3.59960E-001	-1.11073E+000	3.57650E+000	10	...........
	56	0.76	2.27063E-003	-6.01145E-003	0.00000E+000	-1.36498E-005	-3.59960E-001	-1.10605E+000	3.57650E+000	10	...........
STARTTIMEOFFSET	QUANT	901.2267	Start Time Offset (s)
