EXPLAIN
TAG	PWR800_DISCHARGE
TITLE	LABEL	PWR Cyclic Charge Discharge (Cell) - Discharge Step	Test &Identifier
DATE	LABEL	22-6-2017	Date
TIME	LABEL	16:10:54	Time
NOTES	NOTES	3	&Notes...
	supercap test cell
	0.6mg
	6M KOH
PSTAT	PSTAT	IFC5000-01520	Potentiostat
CAPACITY	QUANT	1.00000E-003	Capacity (A-hr)
CELLTYPE	SELECTOR	1	&Cell Type
WORKINGCONNECTION	SELECTOR	0	&Working Lead
MAXDISCHARGETIME	VARIABLEANDUNITS	1.00000E+002	s	1.00000E+002	second(s)	Max &Discharge Time
DISCHARGEMODE	MULTIPARAM	0	6.00000E-003	&Discharge Mode	Constant Current	Amp(s)
SAMPLETIME	QUANT	1.00000E-002	Sa&mple Period (s)
DISCHARGESTOPAT1	MULTIPARAM	3	0.00000E+000	Discharge Stop At &1	Voltage < Limit	V
DISCHARGESTOPAT2	MULTIPARAM	0	0.00000E+000	Discharge Stop At &2	None	N/A
AESBHCSELECTOR	TOGGLE	F	Save Both Half Cells
IRCOMP	TOGGLE	F	IR &Measure
EOC	QUANT	0	Open Circuit (V)
SEQUENCER	TOGGLE	TRUE	Run as Sequence
PSTATMODEL	IQUANT	53	Pstat Model
PSTATSECTION	LABEL	IFC5000-01520	Pstat Section
PSTATSERIALNO	LABEL	01520	Pstat Serial Number
CTRLMODE	IQUANT	0	Control Mode
ELECTROMETER	IQUANT	1	RE=0 or CS=1
IESTAB	IQUANT	0	I/E Stability
CASPEED	IQUANT	4	Control Amp Speed
CONVENTION	IQUANT	1	Current Convention
ICHRANGE	IQUANT	2	Ich Range
ICHRANGEMODE	TOGGLE	T	Ich Auto Range
ICHOFFSETENABLE	TOGGLE	F	Ich Offset Enable
ICHOFFSET	QUANT	0	Ich Offset (V)
ICHFILTER	IQUANT	1	Ich Filter
VCHRANGE	IQUANT	2	Vch Range
VCHRANGEMODE	TOGGLE	T	Vch Auto Range
VCHOFFSETENABLE	TOGGLE	F	Vch Offset Enable
VCHOFFSET	QUANT	0	Vch Offset (V)
VCHFILTER	IQUANT	1	Vch Filter
IERANGELOWERLIMIT	IQUANT	9	I/E Range Lower Limit
IERANGEMODE	TOGGLE	F	I/E AutoRange
IERANGE	IQUANT	10	I/E Range
ACHSELECT	IQUANT	1	Ach Select
ACHRANGE	IQUANT	2	Ach Range
ACHOFFSETENABLE	TOGGLE	F	Ach Offset Enable
ACHOFFSET	QUANT	0	Ach Offset (V)
ACHFILTER	IQUANT	1	Ach Filter
CABLEID	IQUANT	14	Cable ID
DCCALDATE	LABEL	20-10-2016	DC Calibration Date
ACCALDATE	LABEL	12/3/2015	AC Calibration Date
FRAMEWORKVERSION	QUANT	7.01	Framework Version
INSTRUMENTVERSION	LABEL	4.00	Instrument Version
CURVE	TABLE	53
	Pt	T	Vf	Im	Vu	Pwr	Sig	Ach	Temp	IERange	Over
	#	s	V	A	V	W	V	V	deg C	#	bits
	0	0.013333	3.79774E-001	-6.01683E-003	0.00000E+000	-2.28504E-003	-3.59960E-001	-1.13287E+000	3.57660E+000	10	...........
	1	0.026667	3.68160E-001	-6.01236E-003	0.00000E+000	-2.21351E-003	-3.59960E-001	-1.13579E+000	3.57660E+000	10	...........
	2	0.04	3.57457E-001	-6.01592E-003	0.00000E+000	-2.15043E-003	-3.59960E-001	-1.14314E+000	3.57660E+000	10	...........
	3	0.053333	3.47265E-001	-6.01929E-003	0.00000E+000	-2.09029E-003	-3.59960E-001	-1.13283E+000	3.57660E+000	10	...........
	4	0.066667	3.37471E-001	-6.01445E-003	0.00000E+000	-2.02970E-003	-3.59960E-001	-1.13601E+000	3.57660E+000	10	...........
	5	0.08	3.27914E-001	-6.01729E-003	0.00000E+000	-1.97315E-003	-3.59960E-001	-1.14348E+000	3.57660E+000	10	...........
	6	0.093333	3.18665E-001	-6.01786E-003	0.00000E+000	-1.91769E-003	-3.59960E-001	-1.13311E+000	3.57660E+000	10	...........
	7	0.106667	3.09603E-001	-6.01939E-003	0.00000E+000	-1.86362E-003	-3.59960E-001	-1.13594E+000	3.57660E+000	10	...........
	8	0.12	3.00637E-001	-6.01956E-003	0.00000E+000	-1.80971E-003	-3.59960E-001	-1.14317E+000	3.57660E+000	10	...........
	9	0.133333	2.91831E-001	-6.01121E-003	0.00000E+000	-1.75426E-003	-3.59960E-001	-1.13306E+000	3.57660E+000	10	...........
	10	0.146667	2.83190E-001	-6.01432E-003	0.00000E+000	-1.70320E-003	-3.59960E-001	-1.13607E+000	3.57660E+000	10	...........
	11	0.16	2.74665E-001	-6.01750E-003	0.00000E+000	-1.65280E-003	-3.59960E-001	-1.14336E+000	3.57660E+000	10	...........
	12	0.173333	2.66270E-001	-6.01563E-003	0.00000E+000	-1.60178E-003	-3.59960E-001	-1.13301E+000	3.57660E+000	10	...........
	13	0.186667	2.57989E-001	-6.01907E-003	0.00000E+000	-1.55285E-003	-3.59960E-001	-1.13600E+000	3.57660E+000	10	...........
	14	0.2	2.49811E-001	-6.01365E-003	0.00000E+000	-1.50227E-003	-3.59960E-001	-1.14374E+000	3.57660E+000	10	...........
	15	0.213333	2.41674E-001	-6.01341E-003	0.00000E+000	-1.45328E-003	-3.59960E-001	-1.13340E+000	3.57660E+000	10	...........
	16	0.226667	2.33706E-001	-6.01848E-003	0.00000E+000	-1.40655E-003	-3.59960E-001	-1.13635E+000	3.57660E+000	10	...........
	17	0.24	2.25823E-001	-6.01586E-003	0.00000E+000	-1.35852E-003	-3.59960E-001	-1.14382E+000	3.57660E+000	10	...........
	18	0.253333	2.18059E-001	-6.01410E-003	0.00000E+000	-1.31143E-003	-3.59960E-001	-1.13356E+000	3.57660E+000	10	...........
	19	0.266667	2.10360E-001	-6.01654E-003	0.00000E+000	-1.26564E-003	-3.59960E-001	-1.13665E+000	3.57660E+000	10	...........
	20	0.28	2.02779E-001	-6.01822E-003	0.00000E+000	-1.22037E-003	-3.59960E-001	-1.14389E+000	3.57660E+000	10	...........
	21	0.293333	1.95312E-001	-6.01512E-003	0.00000E+000	-1.17483E-003	-3.59960E-001	-1.13378E+000	3.57660E+000	10	...........
	22	0.306667	1.87909E-001	-6.01629E-003	0.00000E+000	-1.13051E-003	-3.59960E-001	-1.13665E+000	3.57660E+000	10	...........
	23	0.32	1.80561E-001	-6.01308E-003	0.00000E+000	-1.08572E-003	-3.59960E-001	-1.14408E+000	3.57660E+000	10	...........
	24	0.333333	1.73316E-001	-6.01950E-003	0.00000E+000	-1.04327E-003	-3.59960E-001	-1.13407E+000	3.57660E+000	10	...........
	25	0.346667	1.66207E-001	-6.01497E-003	0.00000E+000	-9.99734E-004	-3.59960E-001	-1.13723E+000	3.57660E+000	10	...........
	26	0.36	1.59084E-001	-6.01360E-003	0.00000E+000	-9.56665E-004	-3.59960E-001	-1.14416E+000	3.57660E+000	10	...........
	27	0.373333	1.52102E-001	-6.01618E-003	0.00000E+000	-9.15073E-004	-3.59960E-001	-1.13410E+000	3.57660E+000	10	...........
	28	0.386667	1.45189E-001	-6.01529E-003	0.00000E+000	-8.73352E-004	-3.59960E-001	-1.13724E+000	3.57660E+000	10	...........
	29	0.4	1.38352E-001	-6.02135E-003	0.00000E+000	-8.33067E-004	-3.59960E-001	-1.14462E+000	3.57660E+000	10	...........
	30	0.413333	1.31605E-001	-6.01449E-003	0.00000E+000	-7.91539E-004	-3.59960E-001	-1.13418E+000	3.57660E+000	10	...........
	31	0.426667	1.24920E-001	-6.01183E-003	0.00000E+000	-7.50996E-004	-3.59960E-001	-1.13736E+000	3.57660E+000	10	...........
	32	0.44	1.18323E-001	-6.01309E-003	0.00000E+000	-7.11486E-004	-3.59960E-001	-1.14390E+000	3.57660E+000	10	...........
	33	0.453333	1.11751E-001	-6.01628E-003	0.00000E+000	-6.72327E-004	-3.59960E-001	-1.13390E+000	3.57660E+000	10	...........
	34	0.466667	1.05304E-001	-6.01681E-003	0.00000E+000	-6.33597E-004	-3.59960E-001	-1.13715E+000	3.57660E+000	10	...........
	35	0.48	9.89260E-002	-6.01217E-003	0.00000E+000	-5.94760E-004	-3.59960E-001	-1.14436E+000	3.57660E+000	10	...........
	36	0.493333	9.25525E-002	-6.01419E-003	0.00000E+000	-5.56628E-004	-3.59960E-001	-1.13414E+000	3.57660E+000	10	...........
	37	0.506667	8.62371E-002	-6.01392E-003	0.00000E+000	-5.18623E-004	-3.59960E-001	-1.13711E+000	3.57660E+000	10	...........
	38	0.52	8.00364E-002	-6.01483E-003	0.00000E+000	-4.81405E-004	-3.59960E-001	-1.14420E+000	3.57660E+000	10	...........
	39	0.533333	7.38934E-002	-6.01266E-003	0.00000E+000	-4.44296E-004	-3.59960E-001	-1.13418E+000	3.57660E+000	10	...........
	40	0.546667	6.78307E-002	-6.01455E-003	0.00000E+000	-4.07971E-004	-3.59960E-001	-1.13760E+000	3.57660E+000	10	...........
	41	0.56	6.18115E-002	-6.01051E-003	0.00000E+000	-3.71519E-004	-3.59960E-001	-1.14447E+000	3.57660E+000	10	...........
	42	0.573333	5.58444E-002	-6.01437E-003	0.00000E+000	-3.35869E-004	-3.59960E-001	-1.13417E+000	3.57660E+000	10	...........
	43	0.586667	4.99772E-002	-6.01498E-003	0.00000E+000	-3.00612E-004	-3.59960E-001	-1.13748E+000	3.57660E+000	10	...........
	44	0.6	4.41420E-002	-6.01375E-003	0.00000E+000	-2.65459E-004	-3.59960E-001	-1.14452E+000	3.57660E+000	10	...........
	45	0.613333	3.83793E-002	-6.01153E-003	0.00000E+000	-2.30718E-004	-3.59960E-001	-1.13446E+000	3.57660E+000	10	...........
	46	0.626667	3.26817E-002	-6.01595E-003	0.00000E+000	-1.96612E-004	-3.59960E-001	-1.13768E+000	3.57660E+000	10	...........
	47	0.64	2.69981E-002	-6.01504E-003	0.00000E+000	-1.62395E-004	-3.59960E-001	-1.14473E+000	3.57660E+000	10	...........
	48	0.653333	2.13411E-002	-6.01343E-003	0.00000E+000	-1.28333E-004	-3.59960E-001	-1.13445E+000	3.57660E+000	10	...........
	49	0.666667	1.57524E-002	-6.01784E-003	0.00000E+000	-9.47954E-005	-3.59960E-001	-1.13793E+000	3.57660E+000	10	...........
	50	0.68	1.02617E-002	-6.01734E-003	0.00000E+000	-6.17479E-005	-3.59960E-001	-1.14485E+000	3.57660E+000	10	...........
	51	0.693333	4.84491E-003	-6.01559E-003	0.00000E+000	-2.91450E-005	-3.59960E-001	-1.13464E+000	3.57660E+000	10	...........
	52	0.7	7.87511E-004	-6.01858E-003	0.00000E+000	-4.73970E-006	-3.59960E-001	-1.14790E+000	3.57660E+000	10	...........
STARTTIMEOFFSET	QUANT	1442.551	Start Time Offset (s)
