EXPLAIN
TAG	CV
TITLE	LABEL	Cyclic Voltammetry	Test Identifier
DATE	LABEL	12-7-2017	Date
TIME	LABEL	13:58:04	Time
NOTES	NOTES	1	Notes...
	0.4mg

PSTAT	PSTAT	IFC5000-01520	Potentiostat
VINIT	POTEN	0.00000E+000	F	Initial E (V)
VLIMIT1	POTEN	-8.00000E-001	F	Scan Limit 1 (V)
VLIMIT2	POTEN	8.00000E-001	F	Scan Limit 2 (V)
VFINAL	POTEN	0.00000E+000	F	Final E (V)
SCANRATE	QUANT	2.00000E+002	A Real Number
STEPSIZE	QUANT	1.00000E+001	Step Size (mV)
CYCLES	IQUANT	3	Cycles (#)
IMODE	SELECTOR	0	I/E Range Mode
IRANGE	QUANT	2.50000E+002	Max Current (mA)
AREA	QUANT	3.84800E-001	A Real Number
EQDELAY	QUANT	1.00000E+000	Equil. Time (s)
IRCOMP	SELECTOR	0	IRComp
PFCOR	QUANT	2.50000E+002	PF Corr. (ohm)
SAMPLINGMODE	SELECTOR	0	Sampling Mode
EOC	QUANT	0	Open Circuit (V)
SEQUENCER	TOGGLE	TRUE	Run as Sequence
PSTATMODEL	IQUANT	53	Pstat Model
PSTATSECTION	LABEL	IFC5000-01520	Pstat Section
PSTATSERIALNO	LABEL	01520	Pstat Serial Number
CTRLMODE	IQUANT	1	Control Mode
ELECTROMETER	IQUANT	0	RE=0 or CS=1
IESTAB	IQUANT	2	I/E Stability
CASPEED	IQUANT	4	Control Amp Speed
CONVENTION	IQUANT	1	Current Convention
ICHRANGE	IQUANT	2	Ich Range
ICHRANGEMODE	TOGGLE	F	Ich Auto Range
ICHOFFSETENABLE	TOGGLE	F	Ich Offset Enable
ICHOFFSET	QUANT	0	Ich Offset (V)
ICHFILTER	IQUANT	3	Ich Filter
VCHRANGE	IQUANT	2	Vch Range
VCHRANGEMODE	TOGGLE	F	Vch Auto Range
VCHOFFSETENABLE	TOGGLE	F	Vch Offset Enable
VCHOFFSET	QUANT	0	Vch Offset (V)
VCHFILTER	IQUANT	3	Vch Filter
IERANGELOWERLIMIT	IQUANT	7	I/E Range Lower Limit
IERANGEMODE	TOGGLE	T	I/E AutoRange
IERANGE	IQUANT	11	I/E Range
ACHSELECT	IQUANT	1	Ach Select
ACHRANGE	IQUANT	2	Ach Range
ACHOFFSETENABLE	TOGGLE	F	Ach Offset Enable
ACHOFFSET	QUANT	0	Ach Offset (V)
ACHFILTER	IQUANT	1	Ach Filter
CABLEID	IQUANT	14	Cable ID
DCCALDATE	LABEL	5-7-2017	DC Calibration Date
ACCALDATE	LABEL	12/3/2015	AC Calibration Date
FRAMEWORKVERSION	QUANT	7.01	Framework Version
INSTRUMENTVERSION	LABEL	4.00	Instrument Version
CURVE1	TABLE
	Pt	T	Vf	Im	Vu	Sig	Ach	IERange	Over
	#	s	V vs. Ref.	A	V	V	V	#	bits
	0	0.05	-1.65120E-004	-5.53302E-005	0.00000E+000	0.00000E+000	6.64245E-005	11	...........
	1	0.1	-1.01651E-002	-7.56348E-005	0.00000E+000	-9.99874E-003	-1.01373E-002	10	...........
	2	0.15	-2.01651E-002	-8.44045E-005	0.00000E+000	-1.99975E-002	-2.01410E-002	9	...........
	3	0.2	-3.03651E-002	-9.52818E-005	0.00000E+000	-2.99962E-002	-3.01447E-002	8	...........
	4	0.25	-4.01651E-002	-1.05365E-004	0.00000E+000	-3.99949E-002	-4.01484E-002	8	...........
	5	0.3	-4.99651E-002	-1.14631E-004	0.00000E+000	-4.99937E-002	-5.01521E-002	8	...........
	6	0.35	-5.99651E-002	-1.23412E-004	0.00000E+000	-5.99924E-002	-6.01558E-002	8	...........
	7	0.4	-7.01651E-002	-1.31910E-004	0.00000E+000	-6.99912E-002	-7.01595E-002	8	...........
	8	0.45	-8.01651E-002	-1.39289E-004	0.00000E+000	-7.99899E-002	-8.03633E-002	8	...........
	9	0.5	-9.01651E-002	-1.46835E-004	0.00000E+000	-8.99886E-002	-9.01669E-002	8	...........
	10	0.55	-1.00165E-001	-1.53697E-004	0.00000E+000	-9.99874E-002	-1.00171E-001	8	...........
	11	0.6	-1.10165E-001	-1.60575E-004	0.00000E+000	-1.09986E-001	-1.10174E-001	8	...........
	12	0.65	-1.19965E-001	-1.66602E-004	0.00000E+000	-1.19985E-001	-1.19978E-001	8	...........
	13	0.7	-1.29965E-001	-1.72545E-004	0.00000E+000	-1.29984E-001	-1.30182E-001	8	...........
	14	0.75	-1.40165E-001	-1.78071E-004	0.00000E+000	-1.39982E-001	-1.39985E-001	8	...........
	15	0.8	-1.50165E-001	-1.83880E-004	0.00000E+000	-1.49981E-001	-1.49989E-001	8	...........
	16	0.85	-1.59965E-001	-1.88789E-004	0.00000E+000	-1.59980E-001	-1.59993E-001	8	...........
	17	0.9	-1.69965E-001	-1.93914E-004	0.00000E+000	-1.69979E-001	-1.69996E-001	8	...........
	18	0.95	-1.80165E-001	-1.99139E-004	0.00000E+000	-1.79977E-001	-1.80000E-001	8	...........
	19	1	-1.89965E-001	-2.03330E-004	0.00000E+000	-1.89976E-001	-1.90004E-001	8	...........
	20	1.05	-1.99965E-001	-2.07420E-004	0.00000E+000	-1.99975E-001	-2.00008E-001	8	...........
	21	1.1	-2.09965E-001	-2.11660E-004	0.00000E+000	-2.10023E-001	-2.10211E-001	8	...........
	22	1.15	-2.19965E-001	-2.15901E-004	0.00000E+000	-2.20022E-001	-2.20215E-001	8	...........
	23	1.2	-2.29965E-001	-2.20024E-004	0.00000E+000	-2.30021E-001	-2.30019E-001	8	...........
	24	1.25	-2.40165E-001	-2.23797E-004	0.00000E+000	-2.40020E-001	-2.40222E-001	8	...........
	25	1.3	-2.50165E-001	-2.26853E-004	0.00000E+000	-2.50018E-001	-2.50026E-001	8	...........
	26	1.35	-2.59965E-001	-2.30759E-004	0.00000E+000	-2.60017E-001	-2.60030E-001	8	...........
	27	1.4	-2.70165E-001	-2.33747E-004	0.00000E+000	-2.70016E-001	-2.69833E-001	8	...........
	28	1.45	-2.80165E-001	-2.37003E-004	0.00000E+000	-2.80015E-001	-2.79837E-001	8	...........
	29	1.5	-2.89965E-001	-2.40776E-004	0.00000E+000	-2.90013E-001	-2.90041E-001	8	...........
	30	1.55	-2.99765E-001	-2.43314E-004	0.00000E+000	-3.00012E-001	-3.00045E-001	8	...........
	31	1.6	-3.09965E-001	-2.46152E-004	0.00000E+000	-3.10011E-001	-3.10048E-001	8	...........
	32	1.65	-3.19765E-001	-2.48522E-004	0.00000E+000	-3.20010E-001	-3.20252E-001	8	...........
	33	1.7	-3.29965E-001	-2.51327E-004	0.00000E+000	-3.30008E-001	-3.30056E-001	8	...........
	34	1.75	-3.39965E-001	-2.53865E-004	0.00000E+000	-3.40007E-001	-3.40059E-001	8	...........
	35	1.8	-3.49965E-001	-2.56285E-004	0.00000E+000	-3.50006E-001	-3.49863E-001	8	...........
	36	1.85	-3.59965E-001	-2.58389E-004	0.00000E+000	-3.60005E-001	-3.59867E-001	8	...........
	37	1.9	-3.69965E-001	-2.60359E-004	0.00000E+000	-3.70003E-001	-3.69870E-001	8	...........
	38	1.95	-3.79965E-001	-2.63230E-004	0.00000E+000	-3.80002E-001	-3.79874E-001	8	...........
	39	2	-3.89965E-001	-2.65100E-004	0.00000E+000	-3.90001E-001	-3.89878E-001	8	...........
	40	2.05	-3.99765E-001	-2.66519E-004	0.00000E+000	-3.99999E-001	-3.99681E-001	8	...........
	41	2.1	-4.09765E-001	-2.68606E-004	0.00000E+000	-4.09998E-001	-4.09885E-001	8	...........
	42	2.15	-4.19765E-001	-2.70743E-004	0.00000E+000	-4.19997E-001	-4.19889E-001	8	...........
	43	2.2	-4.29765E-001	-2.72496E-004	0.00000E+000	-4.29996E-001	-4.30093E-001	8	...........
	44	2.25	-4.39765E-001	-2.74032E-004	0.00000E+000	-4.39994E-001	-4.40096E-001	8	...........
	45	2.3	-4.49965E-001	-2.76452E-004	0.00000E+000	-4.49993E-001	-4.49900E-001	8	...........
	46	2.35	-4.59765E-001	-2.78139E-004	0.00000E+000	-4.59992E-001	-4.59704E-001	8	...........
	47	2.4	-4.69765E-001	-2.79841E-004	0.00000E+000	-4.69991E-001	-4.69907E-001	8	...........
	48	2.45	-4.79565E-001	-2.81327E-004	0.00000E+000	-4.79989E-001	-4.79911E-001	8	...........
	49	2.5	-4.89765E-001	-2.82847E-004	0.00000E+000	-4.89988E-001	-4.89715E-001	8	...........
	50	2.55	-4.99765E-001	-2.84165E-004	0.00000E+000	-4.99987E-001	-4.99718E-001	8	...........
	51	2.6	-5.09765E-001	-2.86636E-004	0.00000E+000	-5.09986E-001	-5.09922E-001	8	...........
	52	2.65	-5.19565E-001	-2.87788E-004	0.00000E+000	-5.19984E-001	-5.19726E-001	8	...........
	53	2.7	-5.29765E-001	-2.90059E-004	0.00000E+000	-5.29983E-001	-5.29729E-001	8	...........
	54	2.75	-5.39765E-001	-2.91227E-004	0.00000E+000	-5.39982E-001	-5.39733E-001	8	...........
	55	2.8	-5.49765E-001	-2.93231E-004	0.00000E+000	-5.49981E-001	-5.49737E-001	8	...........
	56	2.85	-5.59765E-001	-2.94600E-004	0.00000E+000	-5.59979E-001	-5.59741E-001	8	...........
	57	2.9	-5.69565E-001	-2.96202E-004	0.00000E+000	-5.69978E-001	-5.69744E-001	8	...........
	58	2.95	-5.79565E-001	-2.97521E-004	0.00000E+000	-5.79977E-001	-5.79748E-001	8	...........
	59	3	-5.89765E-001	-3.00543E-004	0.00000E+000	-5.89975E-001	-5.89752E-001	8	...........
	60	3.05	-5.99565E-001	-3.01912E-004	0.00000E+000	-5.99974E-001	-5.99755E-001	8	...........
	61	3.1	-6.09565E-001	-3.03965E-004	0.00000E+000	-6.10023E-001	-6.09559E-001	8	...........
	62	3.15	-6.19765E-001	-3.06052E-004	0.00000E+000	-6.20022E-001	-6.19763E-001	8	...........
	63	3.2	-6.29765E-001	-3.08924E-004	0.00000E+000	-6.30020E-001	-6.29766E-001	8	...........
	64	3.25	-6.39565E-001	-3.11144E-004	0.00000E+000	-6.40019E-001	-6.39770E-001	8	...........
	65	3.3	-6.49765E-001	-3.13899E-004	0.00000E+000	-6.50018E-001	-6.49774E-001	8	...........
	66	3.35	-6.59765E-001	-3.16336E-004	0.00000E+000	-6.60017E-001	-6.59577E-001	8	...........
	67	3.4	-6.69765E-001	-3.19425E-004	0.00000E+000	-6.70015E-001	-6.69581E-001	8	...........
	68	3.45	-6.79765E-001	-3.21945E-004	0.00000E+000	-6.80014E-001	-6.79585E-001	8	...........
	69	3.5	-6.89565E-001	-3.24934E-004	0.00000E+000	-6.90013E-001	-6.89789E-001	8	...........
	70	3.55	-6.99565E-001	-3.28440E-004	0.00000E+000	-7.00012E-001	-6.99592E-001	8	...........
	71	3.6	-7.09565E-001	-3.31645E-004	0.00000E+000	-7.10010E-001	-7.09596E-001	8	...........
	72	3.65	-7.19565E-001	-3.36019E-004	0.00000E+000	-7.20009E-001	-7.19600E-001	8	...........
	73	3.7	-7.29565E-001	-3.39709E-004	0.00000E+000	-7.30008E-001	-7.29603E-001	8	...........
	74	3.75	-7.39565E-001	-3.44183E-004	0.00000E+000	-7.40007E-001	-7.39407E-001	8	...........
	75	3.8	-7.49565E-001	-3.48256E-004	0.00000E+000	-7.50005E-001	-7.49411E-001	8	...........
	76	3.85	-7.59565E-001	-3.53432E-004	0.00000E+000	-7.60004E-001	-7.59414E-001	8	...........
	77	3.9	-7.69565E-001	-3.58624E-004	0.00000E+000	-7.70003E-001	-7.69618E-001	8	...........
	78	3.95	-7.79565E-001	-3.63866E-004	0.00000E+000	-7.80001E-001	-7.79622E-001	8	...........
	79	4	-7.89365E-001	-3.70026E-004	0.00000E+000	-7.90000E-001	-7.89625E-001	8	...........
	80	4.05	-7.99565E-001	-3.76120E-004	0.00000E+000	-7.99999E-001	-7.99629E-001	8	...........
	81	4.1	-7.89565E-001	-3.21177E-004	0.00000E+000	-7.90000E-001	-7.89625E-001	8	...........
	82	4.15	-7.79765E-001	-2.75067E-004	0.00000E+000	-7.80001E-001	-7.79822E-001	8	...........
	83	4.2	-7.69565E-001	-2.35133E-004	0.00000E+000	-7.70003E-001	-7.69418E-001	8	...........
	84	4.25	-7.59765E-001	-2.00475E-004	0.00000E+000	-7.60004E-001	-7.59614E-001	8	...........
	85	4.3	-7.49565E-001	-1.69490E-004	0.00000E+000	-7.50005E-001	-7.49611E-001	8	...........
	86	4.35	-7.39565E-001	-1.42077E-004	0.00000E+000	-7.40007E-001	-7.39407E-001	8	...........
	87	4.4	-7.29765E-001	-1.17452E-004	0.00000E+000	-7.30008E-001	-7.29603E-001	8	...........
	88	4.45	-7.19765E-001	-9.51316E-005	0.00000E+000	-7.20009E-001	-7.19600E-001	8	...........
	89	4.5	-7.09765E-001	-7.45638E-005	0.00000E+000	-7.10010E-001	-7.09396E-001	8	...........
	90	4.55	-6.99765E-001	-5.60160E-005	0.00000E+000	-7.00012E-001	-6.99592E-001	8	...........
	91	4.6	-6.89765E-001	-3.94048E-005	0.00000E+000	-6.90013E-001	-6.89588E-001	8	...........
	92	4.65	-6.79765E-001	-2.38307E-005	0.00000E+000	-6.80014E-001	-6.79785E-001	7	...........
	93	4.7	-6.69765E-001	-9.64919E-006	0.00000E+000	-6.70015E-001	-6.69581E-001	7	...........
	94	4.75	-6.59565E-001	3.67888E-006	0.00000E+000	-6.60017E-001	-6.59577E-001	7	...........
	95	4.8	-6.49565E-001	1.56090E-005	0.00000E+000	-6.50018E-001	-6.49774E-001	7	...........
	96	4.85	-6.39765E-001	2.67208E-005	0.00000E+000	-6.40019E-001	-6.39770E-001	7	...........
	97	4.9	-6.29765E-001	3.70709E-005	0.00000E+000	-6.30020E-001	-6.29766E-001	7	...........
	98	4.95	-6.19765E-001	4.64807E-005	0.00000E+000	-6.20022E-001	-6.19963E-001	7	...........
	99	5	-6.09765E-001	5.52373E-005	0.00000E+000	-6.10023E-001	-6.09759E-001	8	...........
	100	5.05	-5.99765E-001	6.39019E-005	0.00000E+000	-5.99974E-001	-5.99955E-001	8	...........
	101	5.1	-5.89965E-001	7.14646E-005	0.00000E+000	-5.89975E-001	-5.89752E-001	8	...........
	102	5.15	-5.79565E-001	7.87434E-005	0.00000E+000	-5.79977E-001	-5.79748E-001	8	...........
	103	5.2	-5.69565E-001	8.52377E-005	0.00000E+000	-5.69978E-001	-5.69544E-001	8	...........
	104	5.25	-5.59765E-001	9.12978E-005	0.00000E+000	-5.59979E-001	-5.59741E-001	8	...........
	105	5.3	-5.49765E-001	9.70909E-005	0.00000E+000	-5.49981E-001	-5.49737E-001	8	...........
	106	5.35	-5.39765E-001	1.02066E-004	0.00000E+000	-5.39982E-001	-5.39733E-001	8	...........
	107	5.4	-5.29565E-001	1.07492E-004	0.00000E+000	-5.29983E-001	-5.29729E-001	8	...........
	108	5.45	-5.19765E-001	1.12300E-004	0.00000E+000	-5.19984E-001	-5.19726E-001	8	...........
	109	5.5	-5.09965E-001	1.16707E-004	0.00000E+000	-5.09986E-001	-5.09722E-001	8	...........
	110	5.55	-4.99965E-001	1.21031E-004	0.00000E+000	-4.99987E-001	-4.99718E-001	8	...........
	111	5.6	-4.89765E-001	1.25422E-004	0.00000E+000	-4.89988E-001	-4.89715E-001	8	...........
	112	5.65	-4.79765E-001	1.28994E-004	0.00000E+000	-4.79989E-001	-4.79911E-001	8	...........
	113	5.7	-4.69765E-001	1.33068E-004	0.00000E+000	-4.69991E-001	-4.69707E-001	8	...........
	114	5.75	-4.59765E-001	1.36557E-004	0.00000E+000	-4.59992E-001	-4.59904E-001	8	...........
	115	5.8	-4.49765E-001	1.39345E-004	0.00000E+000	-4.49993E-001	-4.49700E-001	8	...........
	116	5.85	-4.39965E-001	1.42500E-004	0.00000E+000	-4.39994E-001	-4.39896E-001	8	...........
	117	5.9	-4.29765E-001	1.45556E-004	0.00000E+000	-4.29996E-001	-4.30093E-001	8	...........
	118	5.95	-4.19765E-001	1.48527E-004	0.00000E+000	-4.19997E-001	-4.19689E-001	8	...........
	119	6	-4.09965E-001	1.51282E-004	0.00000E+000	-4.09998E-001	-4.09885E-001	8	...........
	120	6.05	-3.99765E-001	1.54487E-004	0.00000E+000	-3.99999E-001	-3.99881E-001	8	...........
	121	6.1	-3.89965E-001	1.56908E-004	0.00000E+000	-3.90001E-001	-3.90078E-001	8	...........
	122	6.15	-3.79765E-001	1.59245E-004	0.00000E+000	-3.80002E-001	-3.79874E-001	8	...........
	123	6.2	-3.69965E-001	1.62033E-004	0.00000E+000	-3.70003E-001	-3.69870E-001	8	...........
	124	6.25	-3.59965E-001	1.64587E-004	0.00000E+000	-3.60005E-001	-3.60067E-001	8	...........
	125	6.3	-3.49765E-001	1.66825E-004	0.00000E+000	-3.50006E-001	-3.50063E-001	8	...........
	126	6.35	-3.39765E-001	1.69279E-004	0.00000E+000	-3.40007E-001	-3.40059E-001	8	...........
	127	6.4	-3.30165E-001	1.71482E-004	0.00000E+000	-3.30008E-001	-3.30056E-001	8	...........
	128	6.45	-3.19965E-001	1.73736E-004	0.00000E+000	-3.20010E-001	-3.19852E-001	8	...........
	129	6.5	-3.09965E-001	1.76107E-004	0.00000E+000	-3.10011E-001	-3.10048E-001	8	...........
	130	6.55	-2.99965E-001	1.77826E-004	0.00000E+000	-3.00012E-001	-3.00045E-001	8	...........
	131	6.6	-2.89965E-001	1.80314E-004	0.00000E+000	-2.90013E-001	-2.90041E-001	8	...........
	132	6.65	-2.79965E-001	1.82401E-004	0.00000E+000	-2.80015E-001	-2.80037E-001	8	...........
	133	6.7	-2.69965E-001	1.84905E-004	0.00000E+000	-2.70016E-001	-2.69833E-001	8	...........
	134	6.75	-2.60165E-001	1.86725E-004	0.00000E+000	-2.60017E-001	-2.60030E-001	8	...........
	135	6.8	-2.49965E-001	1.89362E-004	0.00000E+000	-2.50018E-001	-2.50026E-001	8	...........
	136	6.85	-2.40165E-001	1.90882E-004	0.00000E+000	-2.40020E-001	-2.40022E-001	8	...........
	137	6.9	-2.30165E-001	1.93336E-004	0.00000E+000	-2.30021E-001	-2.30019E-001	8	...........
	138	6.95	-2.19965E-001	1.95423E-004	0.00000E+000	-2.20022E-001	-2.20215E-001	8	...........
	139	7	-2.10165E-001	1.97827E-004	0.00000E+000	-2.10023E-001	-2.10211E-001	8	...........
	140	7.05	-1.99765E-001	1.99529E-004	0.00000E+000	-1.99975E-001	-2.00008E-001	8	...........
	141	7.1	-1.89965E-001	2.01716E-004	0.00000E+000	-1.89976E-001	-1.90004E-001	8	...........
	142	7.15	-1.80165E-001	2.03803E-004	0.00000E+000	-1.79977E-001	-1.80200E-001	8	...........
	143	7.2	-1.70165E-001	2.05940E-004	0.00000E+000	-1.69979E-001	-1.69996E-001	8	...........
	144	7.25	-1.60165E-001	2.08161E-004	0.00000E+000	-1.59980E-001	-1.59993E-001	8	...........
	145	7.3	-1.49965E-001	2.09613E-004	0.00000E+000	-1.49981E-001	-1.49989E-001	8	...........
	146	7.35	-1.40165E-001	2.12234E-004	0.00000E+000	-1.39982E-001	-1.39985E-001	8	...........
	147	7.4	-1.29965E-001	2.14221E-004	0.00000E+000	-1.29984E-001	-1.29982E-001	8	...........
	148	7.45	-1.19965E-001	2.16358E-004	0.00000E+000	-1.19985E-001	-1.20178E-001	8	...........
	149	7.5	-1.10165E-001	2.18044E-004	0.00000E+000	-1.09986E-001	-1.10174E-001	8	...........
	150	7.55	-1.00165E-001	2.20231E-004	0.00000E+000	-9.99874E-002	-1.00171E-001	8	...........
	151	7.6	-8.99651E-002	2.22668E-004	0.00000E+000	-8.99886E-002	-9.03670E-002	8	...........
	152	7.65	-8.01651E-002	2.24488E-004	0.00000E+000	-7.99899E-002	-8.01632E-002	8	...........
	153	7.7	-7.01651E-002	2.26441E-004	0.00000E+000	-6.99912E-002	-7.01595E-002	8	...........
	154	7.75	-5.99651E-002	2.28628E-004	0.00000E+000	-5.99924E-002	-6.03559E-002	8	...........
	155	7.8	-5.01651E-002	2.31199E-004	0.00000E+000	-4.99937E-002	-5.01521E-002	8	...........
	156	7.85	-4.01651E-002	2.33269E-004	0.00000E+000	-3.99949E-002	-4.01484E-002	8	...........
	157	7.9	-3.03651E-002	2.35039E-004	0.00000E+000	-2.99962E-002	-3.01447E-002	8	...........
	158	7.95	-1.99651E-002	2.37142E-004	0.00000E+000	-1.99975E-002	-2.03411E-002	8	...........
	159	8	-1.01651E-002	2.39079E-004	0.00000E+000	-9.99874E-003	-1.01373E-002	8	...........
	160	8.05	-1.65120E-004	2.41116E-004	0.00000E+000	0.00000E+000	-1.33649E-004	8	...........
	161	8.1	9.63488E-003	2.42869E-004	0.00000E+000	9.99874E-003	9.66997E-003	8	...........
	162	8.15	1.98349E-002	2.44855E-004	0.00000E+000	1.99975E-002	1.98737E-002	8	...........
	163	8.2	2.96349E-002	2.46608E-004	0.00000E+000	2.99962E-002	2.96774E-002	8	...........
	164	8.25	3.98349E-002	2.48478E-004	0.00000E+000	3.99949E-002	3.96811E-002	8	...........
	165	8.3	5.00349E-002	2.50565E-004	0.00000E+000	4.99937E-002	4.96848E-002	8	...........
	166	8.35	5.98349E-002	2.52451E-004	0.00000E+000	5.99924E-002	5.96885E-002	8	...........
	167	8.4	6.98349E-002	2.54154E-004	0.00000E+000	6.99912E-002	6.96922E-002	8	...........
	168	8.45	7.98349E-002	2.56174E-004	0.00000E+000	7.99899E-002	7.96959E-002	8	...........
	169	8.5	8.98349E-002	2.57410E-004	0.00000E+000	8.99886E-002	8.94995E-002	8	...........
	170	8.55	9.98349E-002	2.59129E-004	0.00000E+000	9.99874E-002	9.97033E-002	8	...........
	171	8.6	1.09835E-001	2.61350E-004	0.00000E+000	1.09986E-001	1.09707E-001	8	...........
	172	8.65	1.19835E-001	2.62802E-004	0.00000E+000	1.19985E-001	1.19711E-001	8	...........
	173	8.7	1.29835E-001	2.64605E-004	0.00000E+000	1.29984E-001	1.29514E-001	8	...........
	174	8.75	1.40035E-001	2.66792E-004	0.00000E+000	1.39982E-001	1.39518E-001	8	...........
	175	8.8	1.49835E-001	2.67577E-004	0.00000E+000	1.49981E-001	1.49522E-001	8	...........
	176	8.85	1.59635E-001	2.69447E-004	0.00000E+000	1.59980E-001	1.59725E-001	8	...........
	177	8.9	1.69635E-001	2.71083E-004	0.00000E+000	1.69979E-001	1.69729E-001	8	...........
	178	8.95	1.79835E-001	2.72953E-004	0.00000E+000	1.79977E-001	1.79733E-001	8	...........
	179	9	1.89635E-001	2.74756E-004	0.00000E+000	1.89976E-001	1.89536E-001	8	...........
	180	9.05	1.99635E-001	2.76125E-004	0.00000E+000	1.99975E-001	1.99540E-001	8	...........
	181	9.1	2.09635E-001	2.77243E-004	0.00000E+000	2.10023E-001	2.09744E-001	8	...........
	182	9.15	2.19635E-001	2.78963E-004	0.00000E+000	2.20022E-001	2.19748E-001	8	...........
	183	9.2	2.29635E-001	2.80282E-004	0.00000E+000	2.30021E-001	2.29551E-001	8	...........
	184	9.25	2.39635E-001	2.81417E-004	0.00000E+000	2.40020E-001	2.39555E-001	8	...........
	185	9.3	2.49835E-001	2.81667E-004	0.00000E+000	2.50018E-001	2.49759E-001	8	...........
	186	9.35	2.59635E-001	2.83654E-004	0.00000E+000	2.60017E-001	2.59362E-001	8	...........
	187	9.4	2.69635E-001	2.84572E-004	0.00000E+000	2.70016E-001	2.69566E-001	8	...........
	188	9.45	2.79635E-001	2.86358E-004	0.00000E+000	2.80015E-001	2.79370E-001	8	...........
	189	9.5	2.89635E-001	2.87410E-004	0.00000E+000	2.90013E-001	2.89573E-001	8	...........
	190	9.55	2.99635E-001	2.88996E-004	0.00000E+000	3.00012E-001	2.99377E-001	8	...........
	191	9.6	3.09635E-001	2.89631E-004	0.00000E+000	3.10011E-001	3.09381E-001	8	...........
	192	9.65	3.19635E-001	2.90465E-004	0.00000E+000	3.20010E-001	3.19585E-001	8	...........
	193	9.7	3.29635E-001	2.91450E-004	0.00000E+000	3.30008E-001	3.29588E-001	8	...........
	194	9.75	3.39435E-001	2.92252E-004	0.00000E+000	3.40007E-001	3.39792E-001	8	...........
	195	9.8	3.49635E-001	2.93487E-004	0.00000E+000	3.50006E-001	3.49596E-001	8	...........
	196	9.85	3.59435E-001	2.94121E-004	0.00000E+000	3.60005E-001	3.59599E-001	8	...........
	197	9.9	3.69435E-001	2.94656E-004	0.00000E+000	3.70003E-001	3.69603E-001	8	...........
	198	9.95	3.79635E-001	2.95958E-004	0.00000E+000	3.80002E-001	3.79407E-001	8	...........
	199	10	3.89435E-001	2.96425E-004	0.00000E+000	3.90001E-001	3.89210E-001	8	...........
	200	10.05	3.99435E-001	2.96926E-004	0.00000E+000	3.99999E-001	3.99414E-001	8	...........
	201	10.1	4.09435E-001	2.97243E-004	0.00000E+000	4.09998E-001	4.09418E-001	8	...........
	202	10.15	4.19635E-001	2.98128E-004	0.00000E+000	4.19997E-001	4.19421E-001	8	...........
	203	10.2	4.29435E-001	2.98746E-004	0.00000E+000	4.29996E-001	4.29425E-001	8	...........
	204	10.25	4.39635E-001	2.98879E-004	0.00000E+000	4.39994E-001	4.39429E-001	8	...........
	205	10.3	4.49435E-001	2.99497E-004	0.00000E+000	4.49993E-001	4.49232E-001	8	...........
	206	10.35	4.59635E-001	3.00282E-004	0.00000E+000	4.59992E-001	4.59436E-001	8	...........
	207	10.4	4.69435E-001	2.99981E-004	0.00000E+000	4.69991E-001	4.69440E-001	8	...........
	208	10.45	4.79635E-001	3.00766E-004	0.00000E+000	4.79989E-001	4.79444E-001	8	...........
	209	10.5	4.89435E-001	3.01467E-004	0.00000E+000	4.89988E-001	4.89447E-001	8	...........
	210	10.55	4.99435E-001	3.02252E-004	0.00000E+000	4.99987E-001	4.99251E-001	8	...........
	211	10.6	5.09435E-001	3.02669E-004	0.00000E+000	5.09986E-001	5.09255E-001	8	...........
	212	10.65	5.19435E-001	3.02652E-004	0.00000E+000	5.19984E-001	5.19458E-001	8	...........
	213	10.7	5.29435E-001	3.04055E-004	0.00000E+000	5.29983E-001	5.29262E-001	8	...........
	214	10.75	5.39435E-001	3.03788E-004	0.00000E+000	5.39982E-001	5.39466E-001	8	...........
	215	10.8	5.49635E-001	3.04455E-004	0.00000E+000	5.49981E-001	5.49269E-001	8	...........
	216	10.85	5.59435E-001	3.05106E-004	0.00000E+000	5.59979E-001	5.59273E-001	8	...........
	217	10.9	5.69435E-001	3.05257E-004	0.00000E+000	5.69978E-001	5.69277E-001	8	...........
	218	10.95	5.79235E-001	3.05541E-004	0.00000E+000	5.79977E-001	5.79080E-001	8	...........
	219	11	5.89435E-001	3.06692E-004	0.00000E+000	5.89975E-001	5.89284E-001	8	...........
	220	11.05	5.99235E-001	3.06859E-004	0.00000E+000	5.99974E-001	5.99288E-001	8	...........
	221	11.1	6.09635E-001	3.07527E-004	0.00000E+000	6.10023E-001	6.09292E-001	8	...........
	222	11.15	6.19435E-001	3.08128E-004	0.00000E+000	6.20022E-001	6.19295E-001	8	...........
	223	11.2	6.29235E-001	3.09631E-004	0.00000E+000	6.30020E-001	6.29299E-001	8	...........
	224	11.25	6.39435E-001	3.10082E-004	0.00000E+000	6.40019E-001	6.39103E-001	8	...........
	225	11.3	6.49435E-001	3.10816E-004	0.00000E+000	6.50018E-001	6.49306E-001	8	...........
	226	11.35	6.59235E-001	3.12218E-004	0.00000E+000	6.60017E-001	6.59310E-001	8	...........
	227	11.4	6.69435E-001	3.13253E-004	0.00000E+000	6.70015E-001	6.69314E-001	8	...........
	228	11.45	6.79435E-001	3.14923E-004	0.00000E+000	6.80014E-001	6.79318E-001	8	...........
	229	11.5	6.89435E-001	3.16709E-004	0.00000E+000	6.90013E-001	6.89321E-001	8	...........
	230	11.55	6.99435E-001	3.18713E-004	0.00000E+000	7.00012E-001	6.99325E-001	8	...........
	231	11.6	7.09235E-001	3.20065E-004	0.00000E+000	7.10010E-001	7.09129E-001	8	...........
	232	11.65	7.19435E-001	3.22920E-004	0.00000E+000	7.20009E-001	7.19332E-001	8	...........
	233	11.7	7.29435E-001	3.25825E-004	0.00000E+000	7.30008E-001	7.29136E-001	8	...........
	234	11.75	7.39235E-001	3.27711E-004	0.00000E+000	7.40007E-001	7.39340E-001	8	...........
	235	11.8	7.49435E-001	3.30232E-004	0.00000E+000	7.50005E-001	7.49143E-001	8	...........
	236	11.85	7.59435E-001	3.34289E-004	0.00000E+000	7.60004E-001	7.59147E-001	8	...........
	237	11.9	7.69435E-001	3.37327E-004	0.00000E+000	7.70003E-001	7.69151E-001	8	...........
	238	11.95	7.79235E-001	3.41250E-004	0.00000E+000	7.80001E-001	7.79154E-001	8	...........
	239	12	7.89435E-001	3.45357E-004	0.00000E+000	7.90000E-001	7.89158E-001	8	...........
	240	12.05	7.99235E-001	3.49798E-004	0.00000E+000	7.99999E-001	7.99162E-001	8	...........
CURVE2	TABLE
	Pt	T	Vf	Im	Vu	Sig	Ach	IERange	Over
	#	s	V vs. Ref.	A	V	V	V	#	bits
	241	12.1	7.89235E-001	2.99197E-004	0.00000E+000	7.90000E-001	7.89158E-001	8	...........
	242	12.15	7.79435E-001	2.56007E-004	0.00000E+000	7.80001E-001	7.78954E-001	8	...........
	243	12.2	7.69435E-001	2.19964E-004	0.00000E+000	7.70003E-001	7.69151E-001	8	...........
	244	12.25	7.59435E-001	1.87943E-004	0.00000E+000	7.60004E-001	7.59347E-001	8	...........
	245	12.3	7.49435E-001	1.59696E-004	0.00000E+000	7.50005E-001	7.49143E-001	8	...........
	246	12.35	7.39435E-001	1.33953E-004	0.00000E+000	7.40007E-001	7.39140E-001	8	...........
	247	12.4	7.29435E-001	1.11181E-004	0.00000E+000	7.30008E-001	7.29136E-001	8	...........
	248	12.45	7.19435E-001	8.96951E-005	0.00000E+000	7.20009E-001	7.19332E-001	8	...........
	249	12.5	7.09435E-001	7.08969E-005	0.00000E+000	7.10010E-001	7.09329E-001	8	...........
	250	12.55	6.99435E-001	5.33675E-005	0.00000E+000	7.00012E-001	6.99125E-001	8	...........
	251	12.6	6.89235E-001	3.71069E-005	0.00000E+000	6.90013E-001	6.89321E-001	8	...........
	252	12.65	6.79435E-001	2.23866E-005	0.00000E+000	6.80014E-001	6.79117E-001	7	...........
	253	12.7	6.69235E-001	8.76794E-006	0.00000E+000	6.70015E-001	6.69314E-001	7	...........
	254	12.75	6.59435E-001	-3.77682E-006	0.00000E+000	6.60017E-001	6.59510E-001	7	...........
	255	12.8	6.49435E-001	-1.53763E-005	0.00000E+000	6.50018E-001	6.49106E-001	7	...........
	256	12.85	6.39635E-001	-2.59034E-005	0.00000E+000	6.40019E-001	6.39303E-001	7	...........
	257	12.9	6.29435E-001	-3.58394E-005	0.00000E+000	6.30020E-001	6.29499E-001	7	...........
	258	12.95	6.19435E-001	-4.53978E-005	0.00000E+000	6.20022E-001	6.19495E-001	7	...........
	259	13	6.09435E-001	-5.39291E-005	0.00000E+000	6.10023E-001	6.09292E-001	8	...........
	260	13.05	5.99635E-001	-6.17756E-005	0.00000E+000	6.00024E-001	5.99288E-001	8	...........
	261	13.1	5.89435E-001	-6.91714E-005	0.00000E+000	5.89975E-001	5.89284E-001	8	...........
	262	13.15	5.79435E-001	-7.61164E-005	0.00000E+000	5.79977E-001	5.79280E-001	8	...........
	263	13.2	5.69435E-001	-8.27942E-005	0.00000E+000	5.69978E-001	5.69277E-001	8	...........
	264	13.25	5.59435E-001	-8.88377E-005	0.00000E+000	5.59979E-001	5.59273E-001	8	...........
	265	13.3	5.49435E-001	-9.47476E-005	0.00000E+000	5.49981E-001	5.49269E-001	8	...........
	266	13.35	5.39635E-001	-9.97560E-005	0.00000E+000	5.39982E-001	5.39266E-001	8	...........
	267	13.4	5.29635E-001	-1.04731E-004	0.00000E+000	5.29983E-001	5.29462E-001	8	...........
	268	13.45	5.19435E-001	-1.09189E-004	0.00000E+000	5.19984E-001	5.19458E-001	8	...........
	269	13.5	5.09435E-001	-1.14147E-004	0.00000E+000	5.09986E-001	5.09255E-001	8	...........
	270	13.55	4.99435E-001	-1.18120E-004	0.00000E+000	4.99987E-001	4.99451E-001	8	...........
	271	13.6	4.89435E-001	-1.21943E-004	0.00000E+000	4.89988E-001	4.89447E-001	8	...........
	272	13.65	4.79435E-001	-1.25533E-004	0.00000E+000	4.79989E-001	4.79444E-001	8	...........
	273	13.7	4.69635E-001	-1.29189E-004	0.00000E+000	4.69991E-001	4.69440E-001	8	...........
	274	13.75	4.59435E-001	-1.32544E-004	0.00000E+000	4.59992E-001	4.59636E-001	8	...........
	275	13.8	4.49635E-001	-1.35750E-004	0.00000E+000	4.49993E-001	4.49433E-001	8	...........
	276	13.85	4.39435E-001	-1.38955E-004	0.00000E+000	4.39994E-001	4.39429E-001	8	...........
	277	13.9	4.29435E-001	-1.41760E-004	0.00000E+000	4.29996E-001	4.29425E-001	8	...........
	278	13.95	4.19435E-001	-1.44565E-004	0.00000E+000	4.19997E-001	4.19421E-001	8	...........
	279	14	4.09635E-001	-1.47169E-004	0.00000E+000	4.09998E-001	4.09418E-001	8	...........
	280	14.05	3.99835E-001	-1.49773E-004	0.00000E+000	3.99999E-001	3.99414E-001	8	...........
	281	14.1	3.89635E-001	-1.52244E-004	0.00000E+000	3.90001E-001	3.89610E-001	8	...........
	282	14.15	3.79435E-001	-1.55316E-004	0.00000E+000	3.80002E-001	3.79607E-001	8	...........
	283	14.2	3.69835E-001	-1.57620E-004	0.00000E+000	3.70003E-001	3.69603E-001	8	...........
	284	14.25	3.59835E-001	-1.60074E-004	0.00000E+000	3.60005E-001	3.59599E-001	8	...........
	285	14.3	3.49635E-001	-1.62261E-004	0.00000E+000	3.50006E-001	3.49396E-001	8	...........
	286	14.35	3.39835E-001	-1.64865E-004	0.00000E+000	3.40007E-001	3.39592E-001	8	...........
	287	14.4	3.29635E-001	-1.66735E-004	0.00000E+000	3.30008E-001	3.29388E-001	8	...........
	288	14.45	3.19635E-001	-1.68855E-004	0.00000E+000	3.20010E-001	3.19585E-001	8	...........
	289	14.5	3.09835E-001	-1.71359E-004	0.00000E+000	3.10011E-001	3.09581E-001	8	...........
	290	14.55	2.99635E-001	-1.73764E-004	0.00000E+000	3.00012E-001	2.99377E-001	8	...........
	291	14.6	2.89635E-001	-1.75800E-004	0.00000E+000	2.90013E-001	2.89573E-001	8	...........
	292	14.65	2.79835E-001	-1.77570E-004	0.00000E+000	2.80015E-001	2.79370E-001	8	...........
	293	14.7	2.69835E-001	-1.79924E-004	0.00000E+000	2.70016E-001	2.69366E-001	8	...........
	294	14.75	2.59635E-001	-1.82111E-004	0.00000E+000	2.60017E-001	2.59562E-001	8	...........
	295	14.8	2.49835E-001	-1.84148E-004	0.00000E+000	2.50018E-001	2.49559E-001	8	...........
	296	14.85	2.39635E-001	-1.85884E-004	0.00000E+000	2.40020E-001	2.39555E-001	8	...........
	297	14.9	2.29835E-001	-1.88371E-004	0.00000E+000	2.30021E-001	2.29551E-001	8	...........
	298	14.95	2.19835E-001	-1.90375E-004	0.00000E+000	2.20022E-001	2.19748E-001	8	...........
	299	15	2.09635E-001	-1.92361E-004	0.00000E+000	2.10023E-001	2.09744E-001	8	...........
	300	15.05	1.99835E-001	-1.94432E-004	0.00000E+000	2.00025E-001	1.99740E-001	8	...........
	301	15.1	1.89835E-001	-1.95967E-004	0.00000E+000	1.90026E-001	1.89737E-001	8	...........
	302	15.15	1.80035E-001	-1.98221E-004	0.00000E+000	1.79977E-001	1.79533E-001	8	...........
	303	15.2	1.69635E-001	-2.00291E-004	0.00000E+000	1.69979E-001	1.69529E-001	8	...........
	304	15.25	1.59635E-001	-2.01861E-004	0.00000E+000	1.59980E-001	1.59725E-001	8	...........
	305	15.3	1.49635E-001	-2.04281E-004	0.00000E+000	1.49981E-001	1.49722E-001	8	...........
	306	15.35	1.39635E-001	-2.06435E-004	0.00000E+000	1.39982E-001	1.39918E-001	8	...........
	307	15.4	1.29635E-001	-2.08355E-004	0.00000E+000	1.29984E-001	1.29514E-001	8	...........
	308	15.45	1.19835E-001	-2.09891E-004	0.00000E+000	1.19985E-001	1.19711E-001	8	...........
	309	15.5	1.09635E-001	-2.12495E-004	0.00000E+000	1.09986E-001	1.09707E-001	8	...........
	310	15.55	9.98349E-002	-2.14014E-004	0.00000E+000	9.99874E-002	9.97033E-002	8	...........
	311	15.6	8.98349E-002	-2.16318E-004	0.00000E+000	8.99886E-002	8.96996E-002	8	...........
	312	15.65	7.98349E-002	-2.18472E-004	0.00000E+000	7.99899E-002	7.94958E-002	8	...........
	313	15.7	7.00349E-002	-2.20625E-004	0.00000E+000	6.99912E-002	6.96922E-002	8	...........
	314	15.75	6.00349E-002	-2.22495E-004	0.00000E+000	5.99924E-002	5.96885E-002	8	...........
	315	15.8	4.98349E-002	-2.24131E-004	0.00000E+000	4.99937E-002	4.96848E-002	8	...........
	316	15.85	3.98349E-002	-2.26101E-004	0.00000E+000	3.99949E-002	3.96811E-002	8	...........
	317	15.9	2.98349E-002	-2.28522E-004	0.00000E+000	2.99962E-002	2.96774E-002	8	...........
	318	15.95	1.98349E-002	-2.29991E-004	0.00000E+000	1.99975E-002	1.96737E-002	8	...........
	319	16	1.00349E-002	-2.32762E-004	0.00000E+000	9.99874E-003	9.66997E-003	8	...........
	320	16.05	3.48799E-005	-2.34065E-004	0.00000E+000	0.00000E+000	-1.33649E-004	8	...........
	321	16.1	-1.01651E-002	-2.36369E-004	0.00000E+000	-9.99874E-003	-1.01373E-002	8	...........
	322	16.15	-2.03651E-002	-2.38138E-004	0.00000E+000	-1.99975E-002	-2.01410E-002	8	...........
	323	16.2	-3.01651E-002	-2.39824E-004	0.00000E+000	-2.99962E-002	-3.03448E-002	8	...........
	324	16.25	-4.01651E-002	-2.41494E-004	0.00000E+000	-3.99949E-002	-4.03485E-002	8	...........
	325	16.3	-5.01651E-002	-2.43163E-004	0.00000E+000	-4.99937E-002	-5.01521E-002	8	...........
	326	16.35	-6.01651E-002	-2.44549E-004	0.00000E+000	-5.99924E-002	-6.01558E-002	8	...........
	327	16.4	-6.99651E-002	-2.46636E-004	0.00000E+000	-6.99912E-002	-7.01595E-002	8	...........
	328	16.45	-8.01651E-002	-2.48289E-004	0.00000E+000	-7.99899E-002	-8.01632E-002	8	...........
	329	16.5	-8.99651E-002	-2.50125E-004	0.00000E+000	-8.99886E-002	-8.99668E-002	8	...........
	330	16.55	-9.99651E-002	-2.51861E-004	0.00000E+000	-9.99874E-002	-1.00171E-001	8	...........
	331	16.6	-1.09965E-001	-2.53297E-004	0.00000E+000	-1.09986E-001	-1.10174E-001	8	...........
	332	16.65	-1.20165E-001	-2.54900E-004	0.00000E+000	-1.19985E-001	-1.20178E-001	8	...........
	333	16.7	-1.30165E-001	-2.57053E-004	0.00000E+000	-1.29984E-001	-1.30182E-001	8	...........
	334	16.75	-1.40165E-001	-2.58205E-004	0.00000E+000	-1.39982E-001	-1.39985E-001	8	...........
	335	16.8	-1.49965E-001	-2.59925E-004	0.00000E+000	-1.49981E-001	-1.49989E-001	8	...........
	336	16.85	-1.60165E-001	-2.61477E-004	0.00000E+000	-1.59980E-001	-1.59993E-001	8	...........
	337	16.9	-1.69965E-001	-2.62729E-004	0.00000E+000	-1.69979E-001	-1.70197E-001	8	...........
	338	16.95	-1.79965E-001	-2.64816E-004	0.00000E+000	-1.79977E-001	-1.80200E-001	8	...........
	339	17	-1.89965E-001	-2.65918E-004	0.00000E+000	-1.89976E-001	-1.90004E-001	8	...........
	340	17.05	-2.00165E-001	-2.67521E-004	0.00000E+000	-1.99975E-001	-2.00208E-001	8	...........
	341	17.1	-2.10165E-001	-2.69174E-004	0.00000E+000	-2.09973E-001	-2.10011E-001	8	...........
	342	17.15	-2.20165E-001	-2.70760E-004	0.00000E+000	-2.20022E-001	-2.20215E-001	8	...........
	343	17.2	-2.29965E-001	-2.71077E-004	0.00000E+000	-2.30021E-001	-2.30019E-001	8	...........
	344	17.25	-2.40165E-001	-2.72329E-004	0.00000E+000	-2.40020E-001	-2.40022E-001	8	...........
	345	17.3	-2.49965E-001	-2.74265E-004	0.00000E+000	-2.50018E-001	-2.50026E-001	8	...........
	346	17.35	-2.59965E-001	-2.74967E-004	0.00000E+000	-2.60017E-001	-2.60030E-001	8	...........
	347	17.4	-2.70165E-001	-2.76569E-004	0.00000E+000	-2.70016E-001	-2.70033E-001	8	...........
	348	17.45	-2.80165E-001	-2.77488E-004	0.00000E+000	-2.80015E-001	-2.79837E-001	8	...........
	349	17.5	-2.90165E-001	-2.77788E-004	0.00000E+000	-2.90013E-001	-2.90041E-001	8	...........
	350	17.55	-2.99965E-001	-2.79207E-004	0.00000E+000	-3.00012E-001	-2.99844E-001	8	...........
	351	17.6	-3.09965E-001	-2.79858E-004	0.00000E+000	-3.10011E-001	-3.10048E-001	8	...........
	352	17.65	-3.19965E-001	-2.81628E-004	0.00000E+000	-3.20010E-001	-3.19852E-001	8	...........
	353	17.7	-3.29965E-001	-2.82396E-004	0.00000E+000	-3.30008E-001	-3.30056E-001	8	...........
	354	17.75	-3.39965E-001	-2.82930E-004	0.00000E+000	-3.40007E-001	-3.39859E-001	8	...........
	355	17.8	-3.49965E-001	-2.83498E-004	0.00000E+000	-3.50006E-001	-3.50063E-001	8	...........
	356	17.85	-3.59965E-001	-2.84633E-004	0.00000E+000	-3.60005E-001	-3.59867E-001	8	...........
	357	17.9	-3.69965E-001	-2.85167E-004	0.00000E+000	-3.70003E-001	-3.70070E-001	8	...........
	358	17.95	-3.79765E-001	-2.86085E-004	0.00000E+000	-3.80002E-001	-3.79874E-001	8	...........
	359	18	-3.89965E-001	-2.86369E-004	0.00000E+000	-3.90001E-001	-3.89878E-001	8	...........
	360	18.05	-3.99765E-001	-2.87755E-004	0.00000E+000	-3.99999E-001	-3.99881E-001	8	...........
	361	18.1	-4.09765E-001	-2.87872E-004	0.00000E+000	-4.09998E-001	-4.09885E-001	8	...........
	362	18.15	-4.19765E-001	-2.89040E-004	0.00000E+000	-4.19997E-001	-4.19689E-001	8	...........
	363	18.2	-4.29965E-001	-2.89858E-004	0.00000E+000	-4.29996E-001	-4.30093E-001	8	...........
	364	18.25	-4.39565E-001	-2.90660E-004	0.00000E+000	-4.39994E-001	-4.39696E-001	8	...........
	365	18.3	-4.49965E-001	-2.90342E-004	0.00000E+000	-4.49993E-001	-4.49900E-001	8	...........
	366	18.35	-4.59765E-001	-2.91611E-004	0.00000E+000	-4.59992E-001	-4.59904E-001	8	...........
	367	18.4	-4.69765E-001	-2.92529E-004	0.00000E+000	-4.69991E-001	-4.69907E-001	8	...........
	368	18.45	-4.79765E-001	-2.93164E-004	0.00000E+000	-4.79989E-001	-4.79711E-001	8	...........
	369	18.5	-4.89765E-001	-2.94182E-004	0.00000E+000	-4.89988E-001	-4.89715E-001	8	...........
	370	18.55	-4.99565E-001	-2.94366E-004	0.00000E+000	-4.99987E-001	-4.99918E-001	8	...........
	371	18.6	-5.09765E-001	-2.94967E-004	0.00000E+000	-5.09986E-001	-5.09722E-001	8	...........
	372	18.65	-5.19965E-001	-2.96636E-004	0.00000E+000	-5.19984E-001	-5.19926E-001	8	...........
	373	18.7	-5.29765E-001	-2.97388E-004	0.00000E+000	-5.29983E-001	-5.29729E-001	8	...........
	374	18.75	-5.39765E-001	-2.98740E-004	0.00000E+000	-5.39982E-001	-5.39933E-001	8	...........
	375	18.8	-5.49765E-001	-2.98823E-004	0.00000E+000	-5.49981E-001	-5.49737E-001	8	...........
	376	18.85	-5.59965E-001	-3.00760E-004	0.00000E+000	-5.59979E-001	-5.59741E-001	8	...........
	377	18.9	-5.69765E-001	-3.01895E-004	0.00000E+000	-5.69978E-001	-5.69744E-001	8	...........
	378	18.95	-5.79565E-001	-3.02980E-004	0.00000E+000	-5.79977E-001	-5.79548E-001	8	...........
	379	19	-5.89765E-001	-3.04065E-004	0.00000E+000	-5.89975E-001	-5.89752E-001	8	...........
	380	19.05	-5.99765E-001	-3.05685E-004	0.00000E+000	-5.99974E-001	-5.99755E-001	8	...........
	381	19.1	-6.09565E-001	-3.07004E-004	0.00000E+000	-6.09973E-001	-6.09559E-001	8	...........
	382	19.15	-6.19765E-001	-3.08690E-004	0.00000E+000	-6.20022E-001	-6.19763E-001	8	...........
	383	19.2	-6.29765E-001	-3.10510E-004	0.00000E+000	-6.30020E-001	-6.29566E-001	8	...........
	384	19.25	-6.39765E-001	-3.11879E-004	0.00000E+000	-6.40019E-001	-6.39770E-001	8	...........
	385	19.3	-6.49765E-001	-3.13314E-004	0.00000E+000	-6.50018E-001	-6.49774E-001	8	...........
	386	19.35	-6.59765E-001	-3.15301E-004	0.00000E+000	-6.60017E-001	-6.59777E-001	8	...........
	387	19.4	-6.69765E-001	-3.17588E-004	0.00000E+000	-6.70015E-001	-6.69781E-001	8	...........
	388	19.45	-6.79765E-001	-3.19992E-004	0.00000E+000	-6.80014E-001	-6.79585E-001	8	...........
	389	19.5	-6.89565E-001	-3.22630E-004	0.00000E+000	-6.90013E-001	-6.89588E-001	8	...........
	390	19.55	-6.99565E-001	-3.25284E-004	0.00000E+000	-7.00012E-001	-6.99792E-001	8	...........
	391	19.6	-7.09565E-001	-3.28506E-004	0.00000E+000	-7.10010E-001	-7.09596E-001	8	...........
	392	19.65	-7.19565E-001	-3.31962E-004	0.00000E+000	-7.20009E-001	-7.19800E-001	8	...........
	393	19.7	-7.29765E-001	-3.35919E-004	0.00000E+000	-7.30008E-001	-7.29603E-001	8	...........
	394	19.75	-7.39565E-001	-3.40343E-004	0.00000E+000	-7.40007E-001	-7.39607E-001	8	...........
	395	19.8	-7.49765E-001	-3.44300E-004	0.00000E+000	-7.50005E-001	-7.49611E-001	8	...........
	396	19.85	-7.59565E-001	-3.48841E-004	0.00000E+000	-7.60004E-001	-7.59614E-001	8	...........
	397	19.9	-7.69565E-001	-3.53699E-004	0.00000E+000	-7.70003E-001	-7.69418E-001	8	...........
	398	19.95	-7.79565E-001	-3.59609E-004	0.00000E+000	-7.80001E-001	-7.79622E-001	8	...........
	399	20	-7.89565E-001	-3.65402E-004	0.00000E+000	-7.90000E-001	-7.89625E-001	8	...........
	400	20.05	-7.99565E-001	-3.70994E-004	0.00000E+000	-7.99999E-001	-7.99429E-001	8	...........
	401	20.1	-7.89565E-001	-3.15451E-004	0.00000E+000	-7.90000E-001	-7.89425E-001	8	...........
	402	20.15	-7.79565E-001	-2.69591E-004	0.00000E+000	-7.80001E-001	-7.79622E-001	8	...........
	403	20.2	-7.69565E-001	-2.29791E-004	0.00000E+000	-7.70003E-001	-7.69618E-001	8	...........
	404	20.25	-7.59565E-001	-1.95316E-004	0.00000E+000	-7.60004E-001	-7.59414E-001	8	...........
	405	20.3	-7.49365E-001	-1.64531E-004	0.00000E+000	-7.50005E-001	-7.49811E-001	8	...........
	406	20.35	-7.39565E-001	-1.37202E-004	0.00000E+000	-7.40007E-001	-7.39807E-001	8	...........
	407	20.4	-7.29565E-001	-1.12494E-004	0.00000E+000	-7.30008E-001	-7.29603E-001	8	...........
	408	20.45	-7.19565E-001	-9.04905E-005	0.00000E+000	-7.20009E-001	-7.19800E-001	8	...........
	409	20.5	-7.09765E-001	-7.00729E-005	0.00000E+000	-7.10010E-001	-7.09796E-001	8	...........
	410	20.55	-6.99565E-001	-5.16587E-005	0.00000E+000	-7.00012E-001	-6.99792E-001	8	...........
	411	20.6	-6.89565E-001	-3.51643E-005	0.00000E+000	-6.90013E-001	-6.89588E-001	8	...........
	412	20.65	-6.79765E-001	-1.98273E-005	0.00000E+000	-6.80014E-001	-6.79785E-001	7	...........
	413	20.7	-6.69565E-001	-5.52718E-006	0.00000E+000	-6.70015E-001	-6.69781E-001	7	...........
	414	20.75	-6.59765E-001	7.29650E-006	0.00000E+000	-6.60017E-001	-6.59577E-001	7	...........
	415	20.8	-6.49565E-001	1.91481E-005	0.00000E+000	-6.50018E-001	-6.49774E-001	7	...........
	416	20.85	-6.39565E-001	3.02549E-005	0.00000E+000	-6.40019E-001	-6.39570E-001	7	...........
	417	20.9	-6.29765E-001	4.04864E-005	0.00000E+000	-6.30020E-001	-6.29966E-001	7	...........
	418	20.95	-6.19765E-001	4.97092E-005	0.00000E+000	-6.20022E-001	-6.19963E-001	7	.....h.....
	419	21	-6.09765E-001	5.85262E-005	0.00000E+000	-6.09973E-001	-6.09559E-001	8	...........
	420	21.05	-5.99565E-001	6.68735E-005	0.00000E+000	-5.99974E-001	-5.99755E-001	8	...........
	421	21.1	-5.89765E-001	7.42025E-005	0.00000E+000	-5.89975E-001	-5.89752E-001	8	...........
	422	21.15	-5.79765E-001	8.12643E-005	0.00000E+000	-5.79977E-001	-5.79748E-001	8	...........
	423	21.2	-5.69565E-001	8.77252E-005	0.00000E+000	-5.69978E-001	-5.69544E-001	8	...........
	424	21.25	-5.59765E-001	9.37185E-005	0.00000E+000	-5.59979E-001	-5.59741E-001	8	...........
	425	21.3	-5.49965E-001	9.92779E-005	0.00000E+000	-5.49981E-001	-5.49737E-001	8	...........
	426	21.35	-5.39965E-001	1.04720E-004	0.00000E+000	-5.39982E-001	-5.39933E-001	8	...........
	427	21.4	-5.29765E-001	1.09512E-004	0.00000E+000	-5.29983E-001	-5.29930E-001	8	...........
	428	21.45	-5.19965E-001	1.14654E-004	0.00000E+000	-5.19984E-001	-5.19726E-001	8	...........
	429	21.5	-5.09765E-001	1.18627E-004	0.00000E+000	-5.09986E-001	-5.09722E-001	8	...........
	430	21.55	-4.99765E-001	1.23168E-004	0.00000E+000	-4.99987E-001	-4.99918E-001	8	...........
	431	21.6	-4.89765E-001	1.26807E-004	0.00000E+000	-4.89988E-001	-4.89915E-001	8	...........
	432	21.65	-4.79765E-001	1.30664E-004	0.00000E+000	-4.79989E-001	-4.79711E-001	8	...........
	433	21.7	-4.69765E-001	1.33986E-004	0.00000E+000	-4.69991E-001	-4.69907E-001	8	...........
	434	21.75	-4.59765E-001	1.37275E-004	0.00000E+000	-4.59992E-001	-4.59704E-001	8	...........
	435	21.8	-4.49965E-001	1.40948E-004	0.00000E+000	-4.49993E-001	-4.49900E-001	8	...........
	436	21.85	-4.39965E-001	1.43886E-004	0.00000E+000	-4.39994E-001	-4.39896E-001	8	...........
	437	21.9	-4.29765E-001	1.47025E-004	0.00000E+000	-4.29996E-001	-4.29893E-001	8	...........
	438	21.95	-4.19965E-001	1.49779E-004	0.00000E+000	-4.19997E-001	-4.20089E-001	8	...........
	439	22	-4.09965E-001	1.52634E-004	0.00000E+000	-4.09998E-001	-4.10085E-001	8	...........
	440	22.05	-3.99965E-001	1.54788E-004	0.00000E+000	-3.99999E-001	-3.99881E-001	8	...........
	441	22.1	-3.89765E-001	1.57425E-004	0.00000E+000	-3.90001E-001	-3.89878E-001	8	...........
	442	22.15	-3.79965E-001	1.59863E-004	0.00000E+000	-3.80002E-001	-3.79874E-001	8	...........
	443	22.2	-3.69965E-001	1.62617E-004	0.00000E+000	-3.70003E-001	-3.69870E-001	8	...........
	444	22.25	-3.59965E-001	1.65038E-004	0.00000E+000	-3.60005E-001	-3.59867E-001	8	...........
	445	22.3	-3.49765E-001	1.67225E-004	0.00000E+000	-3.50006E-001	-3.49863E-001	8	...........
	446	22.35	-3.39965E-001	1.69529E-004	0.00000E+000	-3.40007E-001	-3.40059E-001	8	...........
	447	22.4	-3.29965E-001	1.71850E-004	0.00000E+000	-3.30008E-001	-3.29856E-001	8	...........
	448	22.45	-3.19965E-001	1.74287E-004	0.00000E+000	-3.20010E-001	-3.20052E-001	8	...........
	449	22.5	-3.09965E-001	1.76457E-004	0.00000E+000	-3.10011E-001	-3.09848E-001	8	...........
	450	22.55	-3.00165E-001	1.78110E-004	0.00000E+000	-3.00012E-001	-3.00045E-001	8	...........
	451	22.6	-2.89965E-001	1.80915E-004	0.00000E+000	-2.90013E-001	-2.90041E-001	8	...........
	452	22.65	-2.79965E-001	1.83269E-004	0.00000E+000	-2.80015E-001	-2.80037E-001	8	...........
	453	22.7	-2.70165E-001	1.85088E-004	0.00000E+000	-2.70016E-001	-2.70033E-001	8	...........
	454	22.75	-2.60165E-001	1.87109E-004	0.00000E+000	-2.60017E-001	-2.60030E-001	8	...........
	455	22.8	-2.49965E-001	1.89379E-004	0.00000E+000	-2.50018E-001	-2.49826E-001	8	...........
	456	22.85	-2.40165E-001	1.91466E-004	0.00000E+000	-2.40020E-001	-2.40022E-001	8	...........
	457	22.9	-2.29965E-001	1.93619E-004	0.00000E+000	-2.30021E-001	-2.29819E-001	8	...........
	458	22.95	-2.19965E-001	1.95656E-004	0.00000E+000	-2.20022E-001	-2.19815E-001	8	...........
	459	23	-2.10165E-001	1.97660E-004	0.00000E+000	-2.09973E-001	-2.09811E-001	8	...........
	460	23.05	-2.00165E-001	2.00364E-004	0.00000E+000	-1.99975E-001	-2.00008E-001	8	...........
	461	23.1	-1.89965E-001	2.02284E-004	0.00000E+000	-1.89976E-001	-1.90004E-001	8	...........
	462	23.15	-1.79965E-001	2.04154E-004	0.00000E+000	-1.79977E-001	-1.80200E-001	8	...........
	463	23.2	-1.69965E-001	2.06625E-004	0.00000E+000	-1.69979E-001	-1.70197E-001	8	...........
	464	23.25	-1.60165E-001	2.08511E-004	0.00000E+000	-1.59980E-001	-1.59993E-001	8	...........
	465	23.3	-1.49965E-001	2.10030E-004	0.00000E+000	-1.49981E-001	-1.49989E-001	8	...........
	466	23.35	-1.39965E-001	2.12451E-004	0.00000E+000	-1.39982E-001	-1.39985E-001	8	...........
	467	23.4	-1.30165E-001	2.14421E-004	0.00000E+000	-1.29984E-001	-1.29982E-001	8	...........
	468	23.45	-1.19965E-001	2.16091E-004	0.00000E+000	-1.19985E-001	-1.20178E-001	8	...........
	469	23.5	-1.09965E-001	2.18378E-004	0.00000E+000	-1.09986E-001	-1.10174E-001	8	...........
	470	23.55	-1.00165E-001	2.20264E-004	0.00000E+000	-9.99874E-002	-1.00171E-001	8	...........
	471	23.6	-9.01651E-002	2.21917E-004	0.00000E+000	-8.99886E-002	-8.99668E-002	8	...........
	472	23.65	-8.01651E-002	2.24421E-004	0.00000E+000	-7.99899E-002	-7.99632E-002	8	...........
	473	23.7	-7.03651E-002	2.26692E-004	0.00000E+000	-6.99912E-002	-6.99595E-002	8	...........
	474	23.75	-5.99651E-002	2.28879E-004	0.00000E+000	-5.99924E-002	-6.03559E-002	8	...........
	475	23.8	-4.99651E-002	2.30314E-004	0.00000E+000	-4.99937E-002	-5.01521E-002	8	...........
	476	23.85	-4.01651E-002	2.32418E-004	0.00000E+000	-3.99949E-002	-4.01484E-002	8	...........
	477	23.9	-3.01651E-002	2.34572E-004	0.00000E+000	-2.99962E-002	-3.03448E-002	8	...........
	478	23.95	-1.99651E-002	2.36642E-004	0.00000E+000	-1.99975E-002	-2.01410E-002	8	...........
	479	24	-1.01651E-002	2.38728E-004	0.00000E+000	-9.99874E-003	-1.03374E-002	8	...........
	480	24.05	3.48799E-005	2.40598E-004	0.00000E+000	0.00000E+000	-1.33649E-004	8	...........
	481	24.1	1.00349E-002	2.42652E-004	0.00000E+000	9.99874E-003	9.66997E-003	8	...........
	482	24.15	1.98349E-002	2.44121E-004	0.00000E+000	1.99975E-002	1.96737E-002	8	...........
	483	24.2	2.98349E-002	2.46074E-004	0.00000E+000	2.99962E-002	2.96774E-002	8	...........
	484	24.25	3.98349E-002	2.48244E-004	0.00000E+000	3.99949E-002	3.98811E-002	8	...........
	485	24.3	4.96349E-002	2.50148E-004	0.00000E+000	4.99937E-002	4.96848E-002	8	...........
	486	24.35	5.98349E-002	2.51784E-004	0.00000E+000	5.99924E-002	5.96885E-002	8	...........
	487	24.4	6.98349E-002	2.53620E-004	0.00000E+000	6.99912E-002	6.96922E-002	8	...........
	488	24.45	7.98349E-002	2.55557E-004	0.00000E+000	7.99899E-002	7.96959E-002	8	...........
	489	24.5	8.96349E-002	2.57109E-004	0.00000E+000	8.99886E-002	8.96996E-002	8	...........
	490	24.55	9.96349E-002	2.59697E-004	0.00000E+000	9.99874E-002	9.97033E-002	8	...........
	491	24.6	1.09835E-001	2.60765E-004	0.00000E+000	1.09986E-001	1.09707E-001	8	...........
	492	24.65	1.19835E-001	2.63069E-004	0.00000E+000	1.19985E-001	1.19511E-001	8	...........
	493	24.7	1.29835E-001	2.64555E-004	0.00000E+000	1.29984E-001	1.29714E-001	8	...........
	494	24.75	1.39835E-001	2.66341E-004	0.00000E+000	1.39982E-001	1.39518E-001	8	...........
	495	24.8	1.49835E-001	2.67293E-004	0.00000E+000	1.49981E-001	1.49722E-001	8	...........
	496	24.85	1.59635E-001	2.69430E-004	0.00000E+000	1.59980E-001	1.59725E-001	8	...........
	497	24.9	1.69835E-001	2.70949E-004	0.00000E+000	1.69979E-001	1.69729E-001	8	...........
	498	24.95	1.79835E-001	2.72268E-004	0.00000E+000	1.79977E-001	1.79733E-001	8	...........
	499	25	1.89635E-001	2.74121E-004	0.00000E+000	1.90026E-001	1.89737E-001	8	...........
	500	25.05	1.99835E-001	2.76008E-004	0.00000E+000	2.00025E-001	1.99540E-001	8	...........
	501	25.1	2.09635E-001	2.77110E-004	0.00000E+000	2.10023E-001	2.09544E-001	8	...........
	502	25.15	2.19835E-001	2.77677E-004	0.00000E+000	2.20022E-001	2.19548E-001	8	...........
	503	25.2	2.29835E-001	2.79146E-004	0.00000E+000	2.30021E-001	2.29351E-001	8	...........
	504	25.25	2.39635E-001	2.80448E-004	0.00000E+000	2.40020E-001	2.39355E-001	8	...........
	505	25.3	2.49635E-001	2.81534E-004	0.00000E+000	2.50018E-001	2.49559E-001	8	...........
	506	25.35	2.59635E-001	2.83003E-004	0.00000E+000	2.60017E-001	2.59762E-001	8	...........
	507	25.4	2.69835E-001	2.84238E-004	0.00000E+000	2.70016E-001	2.69566E-001	8	...........
	508	25.45	2.79635E-001	2.85073E-004	0.00000E+000	2.80015E-001	2.79570E-001	8	...........
	509	25.5	2.89835E-001	2.86459E-004	0.00000E+000	2.90013E-001	2.89573E-001	8	...........
	510	25.55	2.99635E-001	2.87243E-004	0.00000E+000	3.00012E-001	2.99777E-001	8	...........
	511	25.6	3.09635E-001	2.88262E-004	0.00000E+000	3.10011E-001	3.09581E-001	8	...........
	512	25.65	3.19435E-001	2.90081E-004	0.00000E+000	3.20010E-001	3.19585E-001	8	...........
	513	25.7	3.29635E-001	2.90415E-004	0.00000E+000	3.30008E-001	3.29388E-001	8	...........
	514	25.75	3.39635E-001	2.92636E-004	0.00000E+000	3.40007E-001	3.39592E-001	8	...........
	515	25.8	3.49835E-001	2.92636E-004	0.00000E+000	3.50006E-001	3.49396E-001	8	...........
	516	25.85	3.59635E-001	2.94105E-004	0.00000E+000	3.60005E-001	3.59599E-001	8	...........
	517	25.9	3.69435E-001	2.94589E-004	0.00000E+000	3.70003E-001	3.69603E-001	8	...........
	518	25.95	3.79635E-001	2.94389E-004	0.00000E+000	3.80002E-001	3.79207E-001	8	...........
	519	26	3.89635E-001	2.95624E-004	0.00000E+000	3.90001E-001	3.89410E-001	8	...........
	520	26.05	3.99635E-001	2.96342E-004	0.00000E+000	3.99999E-001	3.99414E-001	8	...........
	521	26.1	4.09635E-001	2.97561E-004	0.00000E+000	4.09998E-001	4.09618E-001	8	...........
	522	26.15	4.19435E-001	2.97460E-004	0.00000E+000	4.19997E-001	4.19421E-001	8	...........
	523	26.2	4.29635E-001	2.97577E-004	0.00000E+000	4.29996E-001	4.29425E-001	8	...........
	524	26.25	4.39435E-001	2.98178E-004	0.00000E+000	4.39994E-001	4.39429E-001	8	...........
	525	26.3	4.49435E-001	2.98763E-004	0.00000E+000	4.49993E-001	4.49633E-001	8	...........
	526	26.35	4.59635E-001	2.99364E-004	0.00000E+000	4.59992E-001	4.59436E-001	8	...........
	527	26.4	4.69435E-001	2.99881E-004	0.00000E+000	4.69991E-001	4.69440E-001	8	...........
	528	26.45	4.79635E-001	3.00749E-004	0.00000E+000	4.79989E-001	4.79444E-001	8	...........
	529	26.5	4.89435E-001	3.00899E-004	0.00000E+000	4.89988E-001	4.89247E-001	8	...........
	530	26.55	4.99435E-001	3.01016E-004	0.00000E+000	4.99987E-001	4.99251E-001	8	...........
	531	26.6	5.09435E-001	3.01567E-004	0.00000E+000	5.09986E-001	5.09255E-001	8	...........
	532	26.65	5.19435E-001	3.01901E-004	0.00000E+000	5.19984E-001	5.19458E-001	8	...........
	533	26.7	5.29435E-001	3.02869E-004	0.00000E+000	5.29983E-001	5.29262E-001	8	...........
	534	26.75	5.39435E-001	3.02803E-004	0.00000E+000	5.39982E-001	5.39466E-001	8	...........
	535	26.8	5.49435E-001	3.02936E-004	0.00000E+000	5.49981E-001	5.49469E-001	8	...........
	536	26.85	5.59435E-001	3.03704E-004	0.00000E+000	5.59979E-001	5.59273E-001	8	...........
	537	26.9	5.69435E-001	3.03738E-004	0.00000E+000	5.69978E-001	5.69477E-001	8	...........
	538	26.95	5.79435E-001	3.04923E-004	0.00000E+000	5.79977E-001	5.79280E-001	8	...........
	539	27	5.89435E-001	3.04622E-004	0.00000E+000	5.89975E-001	5.89284E-001	8	...........
	540	27.05	5.99635E-001	3.05774E-004	0.00000E+000	6.00024E-001	5.99288E-001	8	...........
	541	27.1	6.09235E-001	3.06425E-004	0.00000E+000	6.10023E-001	6.09292E-001	8	...........
	542	27.15	6.19435E-001	3.07177E-004	0.00000E+000	6.20022E-001	6.19495E-001	8	...........
	543	27.2	6.29635E-001	3.07728E-004	0.00000E+000	6.30020E-001	6.29499E-001	8	...........
	544	27.25	6.39435E-001	3.08913E-004	0.00000E+000	6.40019E-001	6.39103E-001	8	...........
	545	27.3	6.49435E-001	3.10198E-004	0.00000E+000	6.50018E-001	6.49306E-001	8	...........
	546	27.35	6.59635E-001	3.10816E-004	0.00000E+000	6.60017E-001	6.59310E-001	8	...........
	547	27.4	6.69435E-001	3.12536E-004	0.00000E+000	6.70015E-001	6.69314E-001	8	...........
	548	27.45	6.79435E-001	3.13370E-004	0.00000E+000	6.80014E-001	6.79117E-001	8	...........
	549	27.5	6.89435E-001	3.15090E-004	0.00000E+000	6.90013E-001	6.89321E-001	8	...........
	550	27.55	6.99235E-001	3.16476E-004	0.00000E+000	7.00012E-001	6.99125E-001	8	...........
	551	27.6	7.09435E-001	3.19013E-004	0.00000E+000	7.10010E-001	7.09129E-001	8	...........
	552	27.65	7.19235E-001	3.21200E-004	0.00000E+000	7.20009E-001	7.19532E-001	8	...........
	553	27.7	7.29435E-001	3.22970E-004	0.00000E+000	7.30008E-001	7.29136E-001	8	...........
	554	27.75	7.39235E-001	3.25724E-004	0.00000E+000	7.40007E-001	7.39340E-001	8	...........
	555	27.8	7.49435E-001	3.28913E-004	0.00000E+000	7.50005E-001	7.49143E-001	8	...........
	556	27.85	7.59435E-001	3.32452E-004	0.00000E+000	7.60004E-001	7.59147E-001	8	...........
	557	27.9	7.69435E-001	3.35257E-004	0.00000E+000	7.70003E-001	7.69151E-001	8	...........
	558	27.95	7.79435E-001	3.38913E-004	0.00000E+000	7.80001E-001	7.79154E-001	8	...........
	559	28	7.89435E-001	3.44072E-004	0.00000E+000	7.90000E-001	7.89158E-001	8	...........
	560	28.05	7.99235E-001	3.48162E-004	0.00000E+000	7.99999E-001	7.99162E-001	8	...........
CURVE3	TABLE
	Pt	T	Vf	Im	Vu	Sig	Ach	IERange	Over
	#	s	V vs. Ref.	A	V	V	V	#	bits
	561	28.1	7.89235E-001	2.97510E-004	0.00000E+000	7.90000E-001	7.89358E-001	8	...........
	562	28.15	7.79235E-001	2.55623E-004	0.00000E+000	7.80001E-001	7.79154E-001	8	...........
	563	28.2	7.69435E-001	2.18578E-004	0.00000E+000	7.70003E-001	7.69151E-001	8	...........
	564	28.25	7.59235E-001	1.86274E-004	0.00000E+000	7.60004E-001	7.59347E-001	8	...........
	565	28.3	7.49435E-001	1.57676E-004	0.00000E+000	7.50005E-001	7.49143E-001	8	...........
	566	28.35	7.39235E-001	1.32667E-004	0.00000E+000	7.40007E-001	7.39140E-001	8	...........
	567	28.4	7.29635E-001	1.08944E-004	0.00000E+000	7.30008E-001	7.29136E-001	8	...........
	568	28.45	7.19435E-001	8.81592E-005	0.00000E+000	7.20009E-001	7.19332E-001	8	...........
	569	28.5	7.09235E-001	6.89270E-005	0.00000E+000	7.10010E-001	7.09129E-001	8	...........
	570	28.55	6.99435E-001	5.14643E-005	0.00000E+000	7.00012E-001	6.99125E-001	8	...........
	571	28.6	6.89235E-001	3.54041E-005	0.00000E+000	6.90013E-001	6.89121E-001	8	...........
	572	28.65	6.79435E-001	2.08083E-005	0.00000E+000	6.80014E-001	6.79318E-001	7	...........
	573	28.7	6.69435E-001	7.40005E-006	0.00000E+000	6.70015E-001	6.69114E-001	7	...........
	574	28.75	6.59435E-001	-5.37352E-006	0.00000E+000	6.60017E-001	6.59310E-001	7	...........
	575	28.8	6.49435E-001	-1.70130E-005	0.00000E+000	6.50018E-001	6.49306E-001	7	...........
	576	28.85	6.39435E-001	-2.76371E-005	0.00000E+000	6.40019E-001	6.39303E-001	7	...........
	577	28.9	6.29435E-001	-3.75597E-005	0.00000E+000	6.30020E-001	6.29299E-001	7	...........
	578	28.95	6.19435E-001	-4.65720E-005	0.00000E+000	6.20022E-001	6.19095E-001	7	...........
	579	29	6.09435E-001	-5.52146E-005	0.00000E+000	6.10023E-001	6.09092E-001	8	...........
	580	29.05	5.99435E-001	-6.29610E-005	0.00000E+000	6.00024E-001	5.99288E-001	8	...........
	581	29.1	5.89435E-001	-7.09243E-005	0.00000E+000	5.89975E-001	5.89284E-001	8	...........
	582	29.15	5.79235E-001	-7.76356E-005	0.00000E+000	5.79977E-001	5.79280E-001	8	...........
	583	29.2	5.69435E-001	-8.37291E-005	0.00000E+000	5.69978E-001	5.69477E-001	8	...........
	584	29.25	5.59435E-001	-8.96224E-005	0.00000E+000	5.59979E-001	5.59273E-001	8	...........
	585	29.3	5.49435E-001	-9.53820E-005	0.00000E+000	5.49981E-001	5.49269E-001	8	...........
	586	29.35	5.39435E-001	-1.00941E-004	0.00000E+000	5.39982E-001	5.39266E-001	8	...........
	587	29.4	5.29435E-001	-1.05933E-004	0.00000E+000	5.29983E-001	5.29262E-001	8	...........
	588	29.45	5.19435E-001	-1.10891E-004	0.00000E+000	5.19984E-001	5.19458E-001	8	...........
	589	29.5	5.09435E-001	-1.14514E-004	0.00000E+000	5.09986E-001	5.09255E-001	8	...........
	590	29.55	4.99435E-001	-1.19022E-004	0.00000E+000	4.99987E-001	4.99251E-001	8	...........
	591	29.6	4.89635E-001	-1.22544E-004	0.00000E+000	4.89988E-001	4.89447E-001	8	...........
	592	29.65	4.79435E-001	-1.26467E-004	0.00000E+000	4.79989E-001	4.79444E-001	8	...........
	593	29.7	4.69435E-001	-1.30207E-004	0.00000E+000	4.69991E-001	4.69440E-001	8	...........
	594	29.75	4.59635E-001	-1.33429E-004	0.00000E+000	4.59992E-001	4.59236E-001	8	...........
	595	29.8	4.49635E-001	-1.36551E-004	0.00000E+000	4.49993E-001	4.49433E-001	8	...........
	596	29.85	4.39435E-001	-1.39489E-004	0.00000E+000	4.39994E-001	4.39429E-001	8	...........
	597	29.9	4.29435E-001	-1.42277E-004	0.00000E+000	4.29996E-001	4.29425E-001	8	...........
	598	29.95	4.19635E-001	-1.45099E-004	0.00000E+000	4.19997E-001	4.19421E-001	8	...........
	599	30	4.09635E-001	-1.48104E-004	0.00000E+000	4.09998E-001	4.09618E-001	8	...........
	600	30.05	3.99435E-001	-1.50458E-004	0.00000E+000	3.99999E-001	3.99414E-001	8	...........
	601	30.1	3.89635E-001	-1.52862E-004	0.00000E+000	3.90001E-001	3.89410E-001	8	...........
	602	30.15	3.79635E-001	-1.55449E-004	0.00000E+000	3.80002E-001	3.79407E-001	8	...........
	603	30.2	3.69635E-001	-1.57520E-004	0.00000E+000	3.70003E-001	3.69603E-001	8	...........
	604	30.25	3.59635E-001	-1.60308E-004	0.00000E+000	3.60005E-001	3.59399E-001	8	...........
	605	30.3	3.49635E-001	-1.62845E-004	0.00000E+000	3.50006E-001	3.49396E-001	8	...........
	606	30.35	3.39635E-001	-1.65032E-004	0.00000E+000	3.40007E-001	3.39592E-001	8	...........
	607	30.4	3.29635E-001	-1.66952E-004	0.00000E+000	3.30008E-001	3.29588E-001	8	...........
	608	30.45	3.19635E-001	-1.69206E-004	0.00000E+000	3.20010E-001	3.19585E-001	8	...........
	609	30.5	3.09635E-001	-1.71560E-004	0.00000E+000	3.10011E-001	3.09781E-001	8	...........
	610	30.55	2.99435E-001	-1.73530E-004	0.00000E+000	3.00012E-001	2.99577E-001	8	...........
	611	30.6	2.89635E-001	-1.75884E-004	0.00000E+000	2.90013E-001	2.89573E-001	8	...........
	612	30.65	2.79635E-001	-1.77987E-004	0.00000E+000	2.80015E-001	2.79570E-001	8	...........
	613	30.7	2.69835E-001	-1.80124E-004	0.00000E+000	2.70016E-001	2.69766E-001	8	...........
	614	30.75	2.59835E-001	-1.81710E-004	0.00000E+000	2.60017E-001	2.59562E-001	8	...........
	615	30.8	2.49835E-001	-1.84264E-004	0.00000E+000	2.50018E-001	2.49559E-001	8	...........
	616	30.85	2.39635E-001	-1.85951E-004	0.00000E+000	2.40020E-001	2.39555E-001	8	...........
	617	30.9	2.29835E-001	-1.88004E-004	0.00000E+000	2.30021E-001	2.29751E-001	8	...........
	618	30.95	2.19635E-001	-1.89490E-004	0.00000E+000	2.20022E-001	2.19548E-001	8	...........
	619	31	2.09635E-001	-1.91827E-004	0.00000E+000	2.10023E-001	2.09544E-001	8	...........
	620	31.05	1.99635E-001	-1.93831E-004	0.00000E+000	2.00025E-001	1.99540E-001	8	...........
	621	31.1	1.89835E-001	-1.96201E-004	0.00000E+000	1.90026E-001	1.89536E-001	8	...........
	622	31.15	1.79635E-001	-1.98288E-004	0.00000E+000	1.79977E-001	1.79733E-001	8	...........
	623	31.2	1.69835E-001	-2.00158E-004	0.00000E+000	1.69979E-001	1.69729E-001	8	...........
	624	31.25	1.59835E-001	-2.01944E-004	0.00000E+000	1.59980E-001	1.59525E-001	8	...........
	625	31.3	1.49835E-001	-2.03981E-004	0.00000E+000	1.49981E-001	1.49522E-001	8	...........
	626	31.35	1.39635E-001	-2.05333E-004	0.00000E+000	1.39982E-001	1.39718E-001	8	...........
	627	31.4	1.29835E-001	-2.08238E-004	0.00000E+000	1.29984E-001	1.29514E-001	8	...........
	628	31.45	1.19635E-001	-2.10275E-004	0.00000E+000	1.19985E-001	1.19711E-001	8	...........
	629	31.5	1.09835E-001	-2.12278E-004	0.00000E+000	1.09986E-001	1.09707E-001	8	...........
	630	31.55	9.98349E-002	-2.13881E-004	0.00000E+000	9.99874E-002	9.95032E-002	8	...........
	631	31.6	8.98349E-002	-2.15701E-004	0.00000E+000	8.99886E-002	8.94995E-002	8	...........
	632	31.65	8.00349E-002	-2.17837E-004	0.00000E+000	7.99899E-002	7.94958E-002	8	...........
	633	31.7	6.96349E-002	-2.20024E-004	0.00000E+000	6.99912E-002	6.96922E-002	8	...........
	634	31.75	5.96349E-002	-2.22161E-004	0.00000E+000	5.99924E-002	5.96885E-002	8	...........
	635	31.8	4.98349E-002	-2.24315E-004	0.00000E+000	4.99937E-002	4.98848E-002	8	...........
	636	31.85	3.98349E-002	-2.26118E-004	0.00000E+000	3.99949E-002	3.96811E-002	8	...........
	637	31.9	2.96349E-002	-2.27804E-004	0.00000E+000	2.99962E-002	2.96774E-002	8	...........
	638	31.95	1.98349E-002	-2.29924E-004	0.00000E+000	1.99975E-002	1.98737E-002	8	...........
	639	32	9.83488E-003	-2.31961E-004	0.00000E+000	9.99874E-003	9.87005E-003	8	...........
	640	32.05	-1.65120E-004	-2.34031E-004	0.00000E+000	0.00000E+000	-3.33723E-004	8	...........
	641	32.1	-1.01651E-002	-2.35584E-004	0.00000E+000	-9.99874E-003	-1.01373E-002	8	...........
	642	32.15	-2.01651E-002	-2.37053E-004	0.00000E+000	-1.99975E-002	-2.01410E-002	8	...........
	643	32.2	-3.01651E-002	-2.39340E-004	0.00000E+000	-2.99962E-002	-3.01447E-002	8	...........
	644	32.25	-4.01651E-002	-2.41460E-004	0.00000E+000	-3.99949E-002	-4.03485E-002	8	...........
	645	32.3	-4.99651E-002	-2.43180E-004	0.00000E+000	-4.99937E-002	-5.01521E-002	8	...........
	646	32.35	-6.01651E-002	-2.44900E-004	0.00000E+000	-5.99924E-002	-6.01558E-002	8	...........
	647	32.4	-7.01651E-002	-2.46118E-004	0.00000E+000	-6.99912E-002	-7.01595E-002	8	...........
	648	32.45	-7.99651E-002	-2.48289E-004	0.00000E+000	-7.99899E-002	-8.01632E-002	8	...........
	649	32.5	-8.99651E-002	-2.50325E-004	0.00000E+000	-8.99886E-002	-9.01669E-002	8	...........
	650	32.55	-1.00165E-001	-2.52112E-004	0.00000E+000	-9.99874E-002	-1.00171E-001	8	...........
	651	32.6	-1.09965E-001	-2.52663E-004	0.00000E+000	-1.09986E-001	-1.10174E-001	8	...........
	652	32.65	-1.20165E-001	-2.55400E-004	0.00000E+000	-1.19985E-001	-1.20178E-001	8	...........
	653	32.7	-1.29965E-001	-2.56335E-004	0.00000E+000	-1.29984E-001	-1.30182E-001	8	...........
	654	32.75	-1.40165E-001	-2.58355E-004	0.00000E+000	-1.39982E-001	-1.40185E-001	8	...........
	655	32.8	-1.50165E-001	-2.59941E-004	0.00000E+000	-1.49981E-001	-1.49989E-001	8	...........
	656	32.85	-1.60165E-001	-2.61394E-004	0.00000E+000	-1.59980E-001	-1.59993E-001	8	...........
	657	32.9	-1.70165E-001	-2.62696E-004	0.00000E+000	-1.69979E-001	-1.69996E-001	8	...........
	658	32.95	-1.80165E-001	-2.63848E-004	0.00000E+000	-1.79977E-001	-1.80000E-001	8	...........
	659	33	-1.89965E-001	-2.64716E-004	0.00000E+000	-1.89976E-001	-1.90004E-001	8	...........
	660	33.05	-1.99765E-001	-2.66502E-004	0.00000E+000	-1.99975E-001	-2.00008E-001	8	...........
	661	33.1	-2.09965E-001	-2.67087E-004	0.00000E+000	-2.09973E-001	-2.10011E-001	8	...........
	662	33.15	-2.19965E-001	-2.69357E-004	0.00000E+000	-2.20022E-001	-2.20215E-001	8	...........
	663	33.2	-2.30165E-001	-2.69758E-004	0.00000E+000	-2.30021E-001	-2.30019E-001	8	...........
	664	33.25	-2.39965E-001	-2.72012E-004	0.00000E+000	-2.40020E-001	-2.40022E-001	8	...........
	665	33.3	-2.49965E-001	-2.72245E-004	0.00000E+000	-2.50018E-001	-2.50026E-001	8	...........
	666	33.35	-2.59765E-001	-2.73331E-004	0.00000E+000	-2.60017E-001	-2.60030E-001	8	...........
	667	33.4	-2.69965E-001	-2.74032E-004	0.00000E+000	-2.70016E-001	-2.69833E-001	8	...........
	668	33.45	-2.80165E-001	-2.75768E-004	0.00000E+000	-2.80015E-001	-2.80037E-001	8	...........
	669	33.5	-2.89965E-001	-2.76686E-004	0.00000E+000	-2.90013E-001	-2.90041E-001	8	...........
	670	33.55	-2.99765E-001	-2.77771E-004	0.00000E+000	-3.00012E-001	-3.00045E-001	8	...........
	671	33.6	-3.09965E-001	-2.78539E-004	0.00000E+000	-3.10011E-001	-3.10048E-001	8	...........
	672	33.65	-3.19965E-001	-2.79708E-004	0.00000E+000	-3.20010E-001	-3.19852E-001	8	...........
	673	33.7	-3.29765E-001	-2.80459E-004	0.00000E+000	-3.30008E-001	-3.29856E-001	8	...........
	674	33.75	-3.39965E-001	-2.81160E-004	0.00000E+000	-3.40007E-001	-3.39859E-001	8	...........
	675	33.8	-3.49965E-001	-2.82312E-004	0.00000E+000	-3.50006E-001	-3.50063E-001	8	...........
	676	33.85	-3.59965E-001	-2.83815E-004	0.00000E+000	-3.60005E-001	-3.59867E-001	8	...........
	677	33.9	-3.69965E-001	-2.84316E-004	0.00000E+000	-3.70003E-001	-3.70070E-001	8	...........
	678	33.95	-3.79965E-001	-2.84583E-004	0.00000E+000	-3.80002E-001	-3.79874E-001	8	...........
	679	34	-3.89965E-001	-2.85351E-004	0.00000E+000	-3.90001E-001	-3.89878E-001	8	...........
	680	34.05	-3.99965E-001	-2.86536E-004	0.00000E+000	-3.99999E-001	-3.99881E-001	8	...........
	681	34.1	-4.09765E-001	-2.87154E-004	0.00000E+000	-4.09998E-001	-4.09885E-001	8	...........
	682	34.15	-4.19765E-001	-2.87988E-004	0.00000E+000	-4.19997E-001	-4.19889E-001	8	...........
	683	34.2	-4.29965E-001	-2.88306E-004	0.00000E+000	-4.29996E-001	-4.29893E-001	8	...........
	684	34.25	-4.39965E-001	-2.89257E-004	0.00000E+000	-4.39994E-001	-4.39896E-001	8	...........
	685	34.3	-4.49765E-001	-2.89675E-004	0.00000E+000	-4.49993E-001	-4.49900E-001	8	...........
	686	34.35	-4.59765E-001	-2.90509E-004	0.00000E+000	-4.59992E-001	-4.59704E-001	8	...........
	687	34.4	-4.69565E-001	-2.91227E-004	0.00000E+000	-4.69991E-001	-4.69907E-001	8	...........
	688	34.45	-4.79765E-001	-2.91294E-004	0.00000E+000	-4.79989E-001	-4.79511E-001	8	...........
	689	34.5	-4.89765E-001	-2.92997E-004	0.00000E+000	-4.89988E-001	-4.89915E-001	8	...........
	690	34.55	-4.99765E-001	-2.93047E-004	0.00000E+000	-4.99987E-001	-4.99918E-001	8	...........
	691	34.6	-5.09565E-001	-2.94399E-004	0.00000E+000	-5.09986E-001	-5.09922E-001	8	...........
	692	34.65	-5.19765E-001	-2.95184E-004	0.00000E+000	-5.19984E-001	-5.19726E-001	8	...........
	693	34.7	-5.29565E-001	-2.95852E-004	0.00000E+000	-5.29983E-001	-5.29930E-001	8	...........
	694	34.75	-5.39765E-001	-2.96436E-004	0.00000E+000	-5.39982E-001	-5.39733E-001	8	...........
	695	34.8	-5.49765E-001	-2.97772E-004	0.00000E+000	-5.49981E-001	-5.49937E-001	8	...........
	696	34.85	-5.59765E-001	-2.98706E-004	0.00000E+000	-5.59979E-001	-5.59741E-001	8	...........
	697	34.9	-5.69565E-001	-3.00309E-004	0.00000E+000	-5.69978E-001	-5.69744E-001	8	...........
	698	34.95	-5.79565E-001	-3.01711E-004	0.00000E+000	-5.79977E-001	-5.79548E-001	8	...........
	699	35	-5.89765E-001	-3.02346E-004	0.00000E+000	-5.89975E-001	-5.89752E-001	8	...........
	700	35.05	-5.99565E-001	-3.03865E-004	0.00000E+000	-5.99974E-001	-5.99755E-001	8	...........
	701	35.1	-6.09565E-001	-3.05585E-004	0.00000E+000	-6.09973E-001	-6.09759E-001	8	...........
	702	35.15	-6.19765E-001	-3.07121E-004	0.00000E+000	-6.20022E-001	-6.19763E-001	8	...........
	703	35.2	-6.29565E-001	-3.08890E-004	0.00000E+000	-6.30020E-001	-6.29766E-001	8	...........
	704	35.25	-6.39965E-001	-3.10276E-004	0.00000E+000	-6.40019E-001	-6.39570E-001	8	...........
	705	35.3	-6.49765E-001	-3.12613E-004	0.00000E+000	-6.50018E-001	-6.49774E-001	8	...........
	706	35.35	-6.59765E-001	-3.14516E-004	0.00000E+000	-6.60017E-001	-6.59577E-001	8	...........
	707	35.4	-6.69765E-001	-3.16920E-004	0.00000E+000	-6.70015E-001	-6.69781E-001	8	...........
	708	35.45	-6.79565E-001	-3.19625E-004	0.00000E+000	-6.80014E-001	-6.79785E-001	8	...........
	709	35.5	-6.89565E-001	-3.21812E-004	0.00000E+000	-6.90013E-001	-6.89588E-001	8	...........
	710	35.55	-6.99765E-001	-3.24199E-004	0.00000E+000	-7.00012E-001	-6.99792E-001	8	...........
	711	35.6	-7.09565E-001	-3.27238E-004	0.00000E+000	-7.10010E-001	-7.09596E-001	8	...........
	712	35.65	-7.19765E-001	-3.30577E-004	0.00000E+000	-7.20009E-001	-7.19600E-001	8	...........
	713	35.7	-7.29765E-001	-3.34650E-004	0.00000E+000	-7.30008E-001	-7.29603E-001	8	...........
	714	35.75	-7.39565E-001	-3.38941E-004	0.00000E+000	-7.40007E-001	-7.39807E-001	8	...........
	715	35.8	-7.49765E-001	-3.42964E-004	0.00000E+000	-7.50005E-001	-7.49611E-001	8	...........
	716	35.85	-7.59565E-001	-3.47605E-004	0.00000E+000	-7.60004E-001	-7.59814E-001	8	...........
	717	35.9	-7.69565E-001	-3.52914E-004	0.00000E+000	-7.70003E-001	-7.69618E-001	8	...........
	718	35.95	-7.79565E-001	-3.58089E-004	0.00000E+000	-7.80001E-001	-7.79622E-001	8	...........
	719	36	-7.89765E-001	-3.63248E-004	0.00000E+000	-7.90000E-001	-7.89425E-001	8	...........
	720	36.05	-7.99565E-001	-3.69475E-004	0.00000E+000	-7.99999E-001	-7.99429E-001	8	...........
	721	36.1	-7.89365E-001	-3.13465E-004	0.00000E+000	-7.90000E-001	-7.89625E-001	8	...........
	722	36.15	-7.79565E-001	-2.67204E-004	0.00000E+000	-7.80001E-001	-7.79422E-001	8	...........
	723	36.2	-7.69765E-001	-2.28572E-004	0.00000E+000	-7.70003E-001	-7.69618E-001	8	...........
	724	36.25	-7.59565E-001	-1.93597E-004	0.00000E+000	-7.60004E-001	-7.59414E-001	8	...........
	725	36.3	-7.49565E-001	-1.63212E-004	0.00000E+000	-7.50005E-001	-7.49811E-001	8	...........
	726	36.35	-7.39765E-001	-1.35683E-004	0.00000E+000	-7.40007E-001	-7.39607E-001	8	...........
	727	36.4	-7.29765E-001	-1.11125E-004	0.00000E+000	-7.30008E-001	-7.29603E-001	8	...........
	728	36.45	-7.19965E-001	-8.87876E-005	0.00000E+000	-7.20009E-001	-7.19600E-001	8	...........
	729	36.5	-7.09765E-001	-6.85036E-005	0.00000E+000	-7.10010E-001	-7.09596E-001	8	...........
	730	36.55	-6.99765E-001	-5.03064E-005	0.00000E+000	-7.00012E-001	-6.99792E-001	8	...........
	731	36.6	-6.89765E-001	-3.36618E-005	0.00000E+000	-6.90013E-001	-6.89588E-001	8	...........
	732	36.65	-6.79565E-001	-1.82206E-005	0.00000E+000	-6.80014E-001	-6.79785E-001	7	...........
	733	36.7	-6.69765E-001	-4.32297E-006	0.00000E+000	-6.70015E-001	-6.69781E-001	7	...........
	734	36.75	-6.59965E-001	8.66271E-006	0.00000E+000	-6.60017E-001	-6.59577E-001	7	...........
	735	36.8	-6.49765E-001	2.06196E-005	0.00000E+000	-6.50018E-001	-6.49774E-001	7	...........
	736	36.85	-6.39565E-001	3.16060E-005	0.00000E+000	-6.40019E-001	-6.39770E-001	7	...........
	737	36.9	-6.29765E-001	4.17424E-005	0.00000E+000	-6.30020E-001	-6.29566E-001	7	...........
	738	36.95	-6.19765E-001	5.10236E-005	0.00000E+000	-6.20022E-001	-6.19963E-001	7	.....h.....
	739	37	-6.09765E-001	5.99452E-005	0.00000E+000	-6.09973E-001	-6.09759E-001	8	...........
	740	37.05	-5.99765E-001	6.79253E-005	0.00000E+000	-5.99974E-001	-5.99755E-001	8	...........
	741	37.1	-5.89965E-001	7.53711E-005	0.00000E+000	-5.89975E-001	-5.89552E-001	8	...........
	742	37.15	-5.79765E-001	8.22994E-005	0.00000E+000	-5.79977E-001	-5.79748E-001	8	...........
	743	37.2	-5.69565E-001	8.88103E-005	0.00000E+000	-5.69978E-001	-5.69744E-001	8	...........
	744	37.25	-5.59565E-001	9.47703E-005	0.00000E+000	-5.59979E-001	-5.59741E-001	8	...........
	745	37.3	-5.49765E-001	1.00146E-004	0.00000E+000	-5.49981E-001	-5.49737E-001	8	...........
	746	37.35	-5.39965E-001	1.05371E-004	0.00000E+000	-5.39982E-001	-5.39933E-001	8	...........
	747	37.4	-5.29765E-001	1.10313E-004	0.00000E+000	-5.29983E-001	-5.29729E-001	8	...........
	748	37.45	-5.19765E-001	1.15288E-004	0.00000E+000	-5.19984E-001	-5.19926E-001	8	...........
	749	37.5	-5.09765E-001	1.19195E-004	0.00000E+000	-5.09986E-001	-5.09522E-001	8	...........
	750	37.55	-4.99765E-001	1.23569E-004	0.00000E+000	-4.99987E-001	-4.99918E-001	8	...........
	751	37.6	-4.89765E-001	1.27525E-004	0.00000E+000	-4.89988E-001	-4.89715E-001	8	...........
	752	37.65	-4.79765E-001	1.31482E-004	0.00000E+000	-4.79989E-001	-4.79711E-001	8	...........
	753	37.7	-4.69765E-001	1.34821E-004	0.00000E+000	-4.69991E-001	-4.69907E-001	8	...........
	754	37.75	-4.59765E-001	1.37926E-004	0.00000E+000	-4.59992E-001	-4.59904E-001	8	...........
	755	37.8	-4.49765E-001	1.40914E-004	0.00000E+000	-4.49993E-001	-4.49900E-001	8	...........
	756	37.85	-4.39965E-001	1.44370E-004	0.00000E+000	-4.39994E-001	-4.39896E-001	8	...........
	757	37.9	-4.29765E-001	1.47258E-004	0.00000E+000	-4.29996E-001	-4.29893E-001	8	...........
	758	37.95	-4.19965E-001	1.50046E-004	0.00000E+000	-4.19997E-001	-4.19889E-001	8	...........
	759	38	-4.09965E-001	1.52768E-004	0.00000E+000	-4.09998E-001	-4.09685E-001	8	...........
	760	38.05	-3.99965E-001	1.55339E-004	0.00000E+000	-3.99999E-001	-4.00081E-001	8	...........
	761	38.1	-3.89965E-001	1.57859E-004	0.00000E+000	-3.90001E-001	-3.90078E-001	8	...........
	762	38.15	-3.79765E-001	1.60664E-004	0.00000E+000	-3.80002E-001	-3.80074E-001	8	...........
	763	38.2	-3.69965E-001	1.62951E-004	0.00000E+000	-3.70003E-001	-3.69870E-001	8	...........
	764	38.25	-3.59765E-001	1.65072E-004	0.00000E+000	-3.60005E-001	-3.59867E-001	8	...........
	765	38.3	-3.49965E-001	1.67359E-004	0.00000E+000	-3.50006E-001	-3.50063E-001	8	...........
	766	38.35	-3.39965E-001	1.69629E-004	0.00000E+000	-3.40007E-001	-3.39859E-001	8	...........
	767	38.4	-3.29965E-001	1.72017E-004	0.00000E+000	-3.30008E-001	-3.30056E-001	8	...........
	768	38.45	-3.19765E-001	1.73753E-004	0.00000E+000	-3.20010E-001	-3.20052E-001	8	...........
	769	38.5	-3.10165E-001	1.76290E-004	0.00000E+000	-3.10011E-001	-3.09848E-001	8	...........
	770	38.55	-2.99965E-001	1.78628E-004	0.00000E+000	-3.00012E-001	-2.99844E-001	8	...........
	771	38.6	-2.89965E-001	1.80798E-004	0.00000E+000	-2.90013E-001	-2.89841E-001	8	...........
	772	38.65	-2.79965E-001	1.82651E-004	0.00000E+000	-2.80015E-001	-2.79837E-001	8	...........
	773	38.7	-2.70165E-001	1.85022E-004	0.00000E+000	-2.70016E-001	-2.70033E-001	8	...........
	774	38.75	-2.59965E-001	1.87092E-004	0.00000E+000	-2.60017E-001	-2.60030E-001	8	...........
	775	38.8	-2.49965E-001	1.89162E-004	0.00000E+000	-2.50018E-001	-2.50026E-001	8	...........
	776	38.85	-2.39965E-001	1.91165E-004	0.00000E+000	-2.40020E-001	-2.40022E-001	8	...........
	777	38.9	-2.29965E-001	1.92751E-004	0.00000E+000	-2.30021E-001	-2.30019E-001	8	...........
	778	38.95	-2.20165E-001	1.95239E-004	0.00000E+000	-2.20022E-001	-2.20415E-001	8	...........
	779	39	-2.09965E-001	1.97643E-004	0.00000E+000	-2.09973E-001	-2.10011E-001	8	...........
	780	39.05	-1.99965E-001	1.99696E-004	0.00000E+000	-1.99975E-001	-2.00008E-001	8	...........
	781	39.1	-1.89965E-001	2.01883E-004	0.00000E+000	-1.89976E-001	-1.90004E-001	8	...........
	782	39.15	-1.80165E-001	2.03736E-004	0.00000E+000	-1.79977E-001	-1.80000E-001	8	...........
	783	39.2	-1.69965E-001	2.06040E-004	0.00000E+000	-1.69979E-001	-1.69996E-001	8	...........
	784	39.25	-1.60165E-001	2.08044E-004	0.00000E+000	-1.59980E-001	-1.60193E-001	8	...........
	785	39.3	-1.49965E-001	2.09630E-004	0.00000E+000	-1.49981E-001	-1.50189E-001	8	...........
	786	39.35	-1.39965E-001	2.11683E-004	0.00000E+000	-1.39982E-001	-1.39985E-001	8	...........
	787	39.4	-1.30165E-001	2.13536E-004	0.00000E+000	-1.29984E-001	-1.30182E-001	8	...........
	788	39.45	-1.19965E-001	2.15306E-004	0.00000E+000	-1.19985E-001	-1.20178E-001	8	...........
	789	39.5	-1.10165E-001	2.18060E-004	0.00000E+000	-1.09986E-001	-1.10174E-001	8	...........
	790	39.55	-9.99651E-002	2.19980E-004	0.00000E+000	-9.99874E-002	-1.00171E-001	8	...........
	791	39.6	-9.01651E-002	2.22034E-004	0.00000E+000	-8.99886E-002	-9.01669E-002	8	...........
	792	39.65	-7.99651E-002	2.24187E-004	0.00000E+000	-7.99899E-002	-8.01632E-002	8	...........
	793	39.7	-7.01651E-002	2.25657E-004	0.00000E+000	-6.99912E-002	-7.01595E-002	8	...........
	794	39.75	-5.99651E-002	2.27877E-004	0.00000E+000	-5.99924E-002	-6.03559E-002	8	...........
	795	39.8	-5.01651E-002	2.30281E-004	0.00000E+000	-4.99937E-002	-5.01521E-002	8	...........
	796	39.85	-4.01651E-002	2.32301E-004	0.00000E+000	-3.99949E-002	-4.01484E-002	8	...........
	797	39.9	-3.01651E-002	2.34087E-004	0.00000E+000	-2.99962E-002	-3.01447E-002	8	...........
	798	39.95	-2.01651E-002	2.35924E-004	0.00000E+000	-1.99975E-002	-2.01410E-002	8	...........
	799	40	-1.01651E-002	2.37710E-004	0.00000E+000	-9.99874E-003	-1.01373E-002	8	...........
	800	40.05	3.48799E-005	2.39463E-004	0.00000E+000	0.00000E+000	-1.33649E-004	8	...........
	801	40.1	9.83488E-003	2.41951E-004	0.00000E+000	9.99874E-003	9.87005E-003	8	...........
	802	40.15	1.96349E-002	2.43436E-004	0.00000E+000	1.99975E-002	1.96737E-002	8	...........
	803	40.2	2.96349E-002	2.45507E-004	0.00000E+000	2.99962E-002	2.96774E-002	8	...........
	804	40.25	3.98349E-002	2.46976E-004	0.00000E+000	3.99949E-002	3.96811E-002	8	...........
	805	40.3	4.98349E-002	2.49446E-004	0.00000E+000	4.99937E-002	4.96848E-002	8	...........
	806	40.35	5.96349E-002	2.50749E-004	0.00000E+000	5.99924E-002	5.96885E-002	8	...........
	807	40.4	6.98349E-002	2.53403E-004	0.00000E+000	6.99912E-002	6.96922E-002	8	...........
	808	40.45	7.98349E-002	2.54989E-004	0.00000E+000	7.99899E-002	7.96959E-002	8	...........
	809	40.5	8.98349E-002	2.57209E-004	0.00000E+000	8.99886E-002	8.96996E-002	8	...........
	810	40.55	9.98349E-002	2.58562E-004	0.00000E+000	9.99874E-002	9.97033E-002	8	...........
	811	40.6	1.09835E-001	2.59614E-004	0.00000E+000	1.09986E-001	1.09707E-001	8	...........
	812	40.65	1.19835E-001	2.61617E-004	0.00000E+000	1.19985E-001	1.19711E-001	8	...........
	813	40.7	1.29635E-001	2.63370E-004	0.00000E+000	1.29984E-001	1.29714E-001	8	...........
	814	40.75	1.39635E-001	2.65390E-004	0.00000E+000	1.39982E-001	1.39718E-001	8	...........
	815	40.8	1.49635E-001	2.67226E-004	0.00000E+000	1.49981E-001	1.49522E-001	8	...........
	816	40.85	1.59635E-001	2.69013E-004	0.00000E+000	1.59980E-001	1.59725E-001	8	...........
	817	40.9	1.69635E-001	2.70649E-004	0.00000E+000	1.69979E-001	1.69729E-001	8	...........
	818	40.95	1.79835E-001	2.71984E-004	0.00000E+000	1.79977E-001	1.79533E-001	8	...........
	819	41	1.90035E-001	2.73587E-004	0.00000E+000	1.90026E-001	1.89536E-001	8	...........
	820	41.05	1.99835E-001	2.74739E-004	0.00000E+000	2.00025E-001	1.99540E-001	8	...........
	821	41.1	2.09835E-001	2.76308E-004	0.00000E+000	2.10023E-001	2.09744E-001	8	...........
	822	41.15	2.19435E-001	2.77076E-004	0.00000E+000	2.20022E-001	2.19548E-001	8	...........
	823	41.2	2.29835E-001	2.78879E-004	0.00000E+000	2.30021E-001	2.29551E-001	8	...........
	824	41.25	2.39835E-001	2.80532E-004	0.00000E+000	2.40020E-001	2.39555E-001	8	...........
	825	41.3	2.49435E-001	2.81367E-004	0.00000E+000	2.50018E-001	2.49559E-001	8	...........
	826	41.35	2.59835E-001	2.82903E-004	0.00000E+000	2.60017E-001	2.59562E-001	8	...........
	827	41.4	2.69635E-001	2.84038E-004	0.00000E+000	2.70016E-001	2.69566E-001	8	...........
	828	41.45	2.79635E-001	2.84939E-004	0.00000E+000	2.80015E-001	2.79570E-001	8	...........
	829	41.5	2.89635E-001	2.85757E-004	0.00000E+000	2.90013E-001	2.89573E-001	8	...........
	830	41.55	2.99635E-001	2.86926E-004	0.00000E+000	3.00012E-001	2.99377E-001	8	...........
	831	41.6	3.09635E-001	2.88262E-004	0.00000E+000	3.10011E-001	3.09381E-001	8	...........
	832	41.65	3.19435E-001	2.89130E-004	0.00000E+000	3.20010E-001	3.19384E-001	8	...........
	833	41.7	3.29635E-001	2.90015E-004	0.00000E+000	3.30008E-001	3.29588E-001	8	...........
	834	41.75	3.39635E-001	2.91083E-004	0.00000E+000	3.40007E-001	3.39592E-001	8	...........
	835	41.8	3.49635E-001	2.91667E-004	0.00000E+000	3.50006E-001	3.49396E-001	8	...........
	836	41.85	3.59635E-001	2.92686E-004	0.00000E+000	3.60005E-001	3.59399E-001	8	...........
	837	41.9	3.69635E-001	2.93487E-004	0.00000E+000	3.70003E-001	3.69603E-001	8	...........
	838	41.95	3.79635E-001	2.94238E-004	0.00000E+000	3.80002E-001	3.79407E-001	8	...........
	839	42	3.89435E-001	2.94405E-004	0.00000E+000	3.90001E-001	3.89410E-001	8	...........
	840	42.05	3.99435E-001	2.95707E-004	0.00000E+000	3.99999E-001	3.99414E-001	8	...........
	841	42.1	4.09635E-001	2.96342E-004	0.00000E+000	4.09998E-001	4.09618E-001	8	...........
	842	42.15	4.19435E-001	2.97761E-004	0.00000E+000	4.19997E-001	4.19421E-001	8	...........
	843	42.2	4.29835E-001	2.97394E-004	0.00000E+000	4.29996E-001	4.29425E-001	8	...........
	844	42.25	4.39635E-001	2.98479E-004	0.00000E+000	4.39994E-001	4.39429E-001	8	...........
	845	42.3	4.49635E-001	2.98462E-004	0.00000E+000	4.49993E-001	4.49433E-001	8	...........
	846	42.35	4.59635E-001	2.99030E-004	0.00000E+000	4.59992E-001	4.59236E-001	8	...........
	847	42.4	4.69635E-001	2.99347E-004	0.00000E+000	4.69991E-001	4.69440E-001	8	...........
	848	42.45	4.79435E-001	3.00048E-004	0.00000E+000	4.79989E-001	4.79444E-001	8	...........
	849	42.5	4.89435E-001	3.00282E-004	0.00000E+000	4.89988E-001	4.89447E-001	8	...........
	850	42.55	4.99635E-001	3.00532E-004	0.00000E+000	4.99987E-001	4.99251E-001	8	...........
	851	42.6	5.09635E-001	3.00332E-004	0.00000E+000	5.09986E-001	5.09455E-001	8	...........
	852	42.65	5.19435E-001	3.01200E-004	0.00000E+000	5.19984E-001	5.19258E-001	8	...........
	853	42.7	5.29435E-001	3.01484E-004	0.00000E+000	5.29983E-001	5.29262E-001	8	...........
	854	42.75	5.39435E-001	3.01851E-004	0.00000E+000	5.39982E-001	5.39266E-001	8	...........
	855	42.8	5.49435E-001	3.02051E-004	0.00000E+000	5.49981E-001	5.49469E-001	8	...........
	856	42.85	5.59435E-001	3.02619E-004	0.00000E+000	5.59979E-001	5.59073E-001	8	...........
	857	42.9	5.69435E-001	3.03437E-004	0.00000E+000	5.69978E-001	5.69277E-001	8	...........
	858	42.95	5.79235E-001	3.03187E-004	0.00000E+000	5.79977E-001	5.79481E-001	8	...........
	859	43	5.89635E-001	3.03838E-004	0.00000E+000	5.89975E-001	5.89484E-001	8	...........
	860	43.05	5.99435E-001	3.04940E-004	0.00000E+000	6.00024E-001	5.99088E-001	8	...........
	861	43.1	6.09435E-001	3.05457E-004	0.00000E+000	6.10023E-001	6.09292E-001	8	...........
	862	43.15	6.19635E-001	3.06793E-004	0.00000E+000	6.20022E-001	6.19295E-001	8	...........
	863	43.2	6.29635E-001	3.06960E-004	0.00000E+000	6.30020E-001	6.29299E-001	8	...........
	864	43.25	6.39435E-001	3.07928E-004	0.00000E+000	6.40019E-001	6.39303E-001	8	...........
	865	43.3	6.49435E-001	3.08429E-004	0.00000E+000	6.50018E-001	6.49106E-001	8	...........
	866	43.35	6.59435E-001	3.09497E-004	0.00000E+000	6.60017E-001	6.59310E-001	8	...........
	867	43.4	6.69435E-001	3.11000E-004	0.00000E+000	6.70015E-001	6.69314E-001	8	...........
	868	43.45	6.79435E-001	3.12435E-004	0.00000E+000	6.80014E-001	6.79318E-001	8	...........
	869	43.5	6.89435E-001	3.14372E-004	0.00000E+000	6.90013E-001	6.89121E-001	8	...........
	870	43.55	6.99235E-001	3.15791E-004	0.00000E+000	7.00012E-001	6.99125E-001	8	...........
	871	43.6	7.09235E-001	3.17494E-004	0.00000E+000	7.10010E-001	7.09129E-001	8	...........
	872	43.65	7.19435E-001	3.19314E-004	0.00000E+000	7.20009E-001	7.19132E-001	8	...........
	873	43.7	7.29235E-001	3.21801E-004	0.00000E+000	7.30008E-001	7.29136E-001	8	...........
	874	43.75	7.39435E-001	3.24372E-004	0.00000E+000	7.40007E-001	7.39140E-001	8	...........
	875	43.8	7.49435E-001	3.27194E-004	0.00000E+000	7.50005E-001	7.49343E-001	8	...........
	876	43.85	7.59235E-001	3.30883E-004	0.00000E+000	7.60004E-001	7.59147E-001	8	...........
	877	43.9	7.69235E-001	3.35107E-004	0.00000E+000	7.70003E-001	7.69151E-001	8	...........
	878	43.95	7.79035E-001	3.38529E-004	0.00000E+000	7.80001E-001	7.79354E-001	8	...........
	879	44	7.89235E-001	3.43220E-004	0.00000E+000	7.90000E-001	7.89158E-001	8	...........
	880	44.05	7.99035E-001	3.48412E-004	0.00000E+000	7.99999E-001	7.99162E-001	8	...........
CURVE4	TABLE
	Pt	T	Vf	Im	Vu	Sig	Ach	IERange	Over
	#	s	V vs. Ref.	A	V	V	V	#	bits
	881	44.1	7.89435E-001	2.97160E-004	0.00000E+000	7.90000E-001	7.89358E-001	8	...........
	882	44.15	7.79235E-001	2.54522E-004	0.00000E+000	7.80001E-001	7.79154E-001	8	...........
	883	44.2	7.69435E-001	2.18094E-004	0.00000E+000	7.70003E-001	7.69151E-001	8	...........
	884	44.25	7.59235E-001	1.85589E-004	0.00000E+000	7.60004E-001	7.59147E-001	8	...........
	885	44.3	7.49235E-001	1.57325E-004	0.00000E+000	7.50005E-001	7.49143E-001	8	...........
	886	44.35	7.39435E-001	1.31582E-004	0.00000E+000	7.40007E-001	7.39140E-001	8	...........
	887	44.4	7.29435E-001	1.08760E-004	0.00000E+000	7.30008E-001	7.29336E-001	8	...........
	888	44.45	7.19635E-001	8.78420E-005	0.00000E+000	7.20009E-001	7.19332E-001	8	...........
	889	44.5	7.09435E-001	6.83593E-005	0.00000E+000	7.10010E-001	7.09129E-001	8	...........
	890	44.55	6.99235E-001	5.10970E-005	0.00000E+000	7.00012E-001	6.99125E-001	8	...........
	891	44.6	6.89435E-001	3.49533E-005	0.00000E+000	6.90013E-001	6.89121E-001	8	...........
	892	44.65	6.79635E-001	2.01786E-005	0.00000E+000	6.80014E-001	6.79318E-001	7	...........
	893	44.7	6.69435E-001	6.76872E-006	0.00000E+000	6.70015E-001	6.69114E-001	7	...........
	894	44.75	6.59235E-001	-5.70923E-006	0.00000E+000	6.60017E-001	6.59310E-001	7	...........
	895	44.8	6.49635E-001	-1.72569E-005	0.00000E+000	6.50018E-001	6.49306E-001	7	...........
	896	44.85	6.39435E-001	-2.78125E-005	0.00000E+000	6.40019E-001	6.39303E-001	7	...........
	897	44.9	6.29635E-001	-3.79121E-005	0.00000E+000	6.30020E-001	6.29499E-001	7	...........
	898	44.95	6.19435E-001	-4.67958E-005	0.00000E+000	6.20022E-001	6.19095E-001	7	...........
	899	45	6.09435E-001	-5.57989E-005	0.00000E+000	6.10023E-001	6.09492E-001	8	...........
	900	45.05	5.99235E-001	-6.32114E-005	0.00000E+000	6.00024E-001	5.99288E-001	8	...........
	901	45.1	5.89435E-001	-7.08742E-005	0.00000E+000	5.89975E-001	5.89084E-001	8	...........
	902	45.15	5.79635E-001	-7.77024E-005	0.00000E+000	5.79977E-001	5.79280E-001	8	...........
	903	45.2	5.69635E-001	-8.40129E-005	0.00000E+000	5.69978E-001	5.69077E-001	8	...........
	904	45.25	5.59435E-001	-9.00230E-005	0.00000E+000	5.59979E-001	5.59273E-001	8	...........
	905	45.3	5.49435E-001	-9.58161E-005	0.00000E+000	5.49981E-001	5.49469E-001	8	...........
	906	45.35	5.39435E-001	-1.01058E-004	0.00000E+000	5.39982E-001	5.39266E-001	8	...........
	907	45.4	5.29435E-001	-1.05966E-004	0.00000E+000	5.29983E-001	5.29262E-001	8	...........
	908	45.45	5.19435E-001	-1.10658E-004	0.00000E+000	5.19984E-001	5.19258E-001	8	...........
	909	45.5	5.09235E-001	-1.14982E-004	0.00000E+000	5.09986E-001	5.09255E-001	8	...........
	910	45.55	4.99635E-001	-1.18888E-004	0.00000E+000	4.99987E-001	4.99251E-001	8	...........
	911	45.6	4.89635E-001	-1.23062E-004	0.00000E+000	4.89988E-001	4.89447E-001	8	...........
	912	45.65	4.79635E-001	-1.26618E-004	0.00000E+000	4.79989E-001	4.79644E-001	8	...........
	913	45.7	4.69635E-001	-1.30007E-004	0.00000E+000	4.69991E-001	4.69440E-001	8	...........
	914	45.75	4.59435E-001	-1.33396E-004	0.00000E+000	4.59992E-001	4.59436E-001	8	...........
	915	45.8	4.49635E-001	-1.36668E-004	0.00000E+000	4.49993E-001	4.49433E-001	8	...........
	916	45.85	4.39635E-001	-1.39473E-004	0.00000E+000	4.39994E-001	4.39429E-001	8	...........
	917	45.9	4.29435E-001	-1.42378E-004	0.00000E+000	4.29996E-001	4.29425E-001	8	...........
	918	45.95	4.19635E-001	-1.45182E-004	0.00000E+000	4.19997E-001	4.19621E-001	8	...........
	919	46	4.09635E-001	-1.47970E-004	0.00000E+000	4.09998E-001	4.09418E-001	8	...........
	920	46.05	3.99635E-001	-1.50374E-004	0.00000E+000	3.99999E-001	3.99414E-001	8	...........
	921	46.1	3.89435E-001	-1.53045E-004	0.00000E+000	3.90001E-001	3.89410E-001	8	...........
	922	46.15	3.79635E-001	-1.55633E-004	0.00000E+000	3.80002E-001	3.79407E-001	8	...........
	923	46.2	3.69635E-001	-1.57720E-004	0.00000E+000	3.70003E-001	3.69403E-001	8	...........
	924	46.25	3.59635E-001	-1.60124E-004	0.00000E+000	3.60005E-001	3.59599E-001	8	...........
	925	46.3	3.49435E-001	-1.62278E-004	0.00000E+000	3.50006E-001	3.49396E-001	8	...........
	926	46.35	3.39635E-001	-1.64565E-004	0.00000E+000	3.40007E-001	3.39392E-001	8	...........
	927	46.4	3.29635E-001	-1.67036E-004	0.00000E+000	3.30008E-001	3.29388E-001	8	...........
	928	46.45	3.19635E-001	-1.69323E-004	0.00000E+000	3.20010E-001	3.19585E-001	8	...........
	929	46.5	3.09635E-001	-1.71476E-004	0.00000E+000	3.10011E-001	3.09581E-001	8	...........
	930	46.55	2.99635E-001	-1.73162E-004	0.00000E+000	3.00012E-001	2.99577E-001	8	...........
	931	46.6	2.89635E-001	-1.75166E-004	0.00000E+000	2.90013E-001	2.89573E-001	8	...........
	932	46.65	2.79435E-001	-1.77787E-004	0.00000E+000	2.80015E-001	2.79370E-001	8	...........
	933	46.7	2.69635E-001	-1.79640E-004	0.00000E+000	2.70016E-001	2.69566E-001	8	...........
	934	46.75	2.59635E-001	-1.81827E-004	0.00000E+000	2.60017E-001	2.59562E-001	8	...........
	935	46.8	2.49635E-001	-1.83263E-004	0.00000E+000	2.50018E-001	2.49559E-001	8	...........
	936	46.85	2.39635E-001	-1.85300E-004	0.00000E+000	2.40020E-001	2.39555E-001	8	...........
	937	46.9	2.29835E-001	-1.87704E-004	0.00000E+000	2.30021E-001	2.29551E-001	8	...........
	938	46.95	2.19835E-001	-1.89824E-004	0.00000E+000	2.20022E-001	2.19548E-001	8	...........
	939	47	2.09835E-001	-1.91927E-004	0.00000E+000	2.10023E-001	2.09544E-001	8	...........
	940	47.05	1.99635E-001	-1.93597E-004	0.00000E+000	2.00025E-001	1.99740E-001	8	...........
	941	47.1	1.89635E-001	-1.96068E-004	0.00000E+000	1.90026E-001	1.89737E-001	8	...........
	942	47.15	1.79835E-001	-1.98154E-004	0.00000E+000	1.79977E-001	1.79533E-001	8	...........
	943	47.2	1.69635E-001	-2.00091E-004	0.00000E+000	1.69979E-001	1.69529E-001	8	...........
	944	47.25	1.59835E-001	-2.02028E-004	0.00000E+000	1.59980E-001	1.59525E-001	8	...........
	945	47.3	1.49635E-001	-2.04148E-004	0.00000E+000	1.49981E-001	1.49522E-001	8	...........
	946	47.35	1.39635E-001	-2.05984E-004	0.00000E+000	1.39982E-001	1.39718E-001	8	...........
	947	47.4	1.29835E-001	-2.08004E-004	0.00000E+000	1.29984E-001	1.29714E-001	8	...........
	948	47.45	1.19835E-001	-2.10225E-004	0.00000E+000	1.19985E-001	1.19711E-001	8	...........
	949	47.5	1.09835E-001	-2.11711E-004	0.00000E+000	1.09986E-001	1.09907E-001	8	...........
	950	47.55	9.98349E-002	-2.14281E-004	0.00000E+000	9.99874E-002	9.95032E-002	8	...........
	951	47.6	8.98349E-002	-2.16151E-004	0.00000E+000	8.99886E-002	8.96996E-002	8	...........
	952	47.65	7.96349E-002	-2.18238E-004	0.00000E+000	7.99899E-002	7.94958E-002	8	...........
	953	47.7	6.98349E-002	-2.20175E-004	0.00000E+000	6.99912E-002	6.96922E-002	8	...........
	954	47.75	5.98349E-002	-2.21811E-004	0.00000E+000	5.99924E-002	5.96885E-002	8	...........
	955	47.8	4.96349E-002	-2.23681E-004	0.00000E+000	4.99937E-002	4.96848E-002	8	...........
	956	47.85	3.98349E-002	-2.25651E-004	0.00000E+000	3.99949E-002	3.98811E-002	8	...........
	957	47.9	2.98349E-002	-2.27787E-004	0.00000E+000	2.99962E-002	2.96774E-002	8	...........
	958	47.95	1.98349E-002	-2.29373E-004	0.00000E+000	1.99975E-002	1.98737E-002	8	...........
	959	48	9.83488E-003	-2.31677E-004	0.00000E+000	9.99874E-003	9.87005E-003	8	...........
	960	48.05	-1.65120E-004	-2.33013E-004	0.00000E+000	0.00000E+000	-3.33723E-004	8	...........
