EXPLAIN
TAG	CV
TITLE	LABEL	Cyclic Voltammetry	Test Identifier
DATE	LABEL	12-7-2017	Date
TIME	LABEL	13:56:25	Time
NOTES	NOTES	1	Notes...
	0.4mg

PSTAT	PSTAT	IFC5000-01520	Potentiostat
VINIT	POTEN	0.00000E+000	F	Initial E (V)
VLIMIT1	POTEN	-8.00000E-001	F	Scan Limit 1 (V)
VLIMIT2	POTEN	8.00000E-001	F	Scan Limit 2 (V)
VFINAL	POTEN	0.00000E+000	F	Final E (V)
SCANRATE	QUANT	9.99998E+001	A Real Number
STEPSIZE	QUANT	1.00000E+001	Step Size (mV)
CYCLES	IQUANT	3	Cycles (#)
IMODE	SELECTOR	0	I/E Range Mode
IRANGE	QUANT	2.50000E+002	Max Current (mA)
AREA	QUANT	3.84800E-001	A Real Number
EQDELAY	QUANT	1.00000E+000	Equil. Time (s)
IRCOMP	SELECTOR	0	IRComp
PFCOR	QUANT	2.50000E+002	PF Corr. (ohm)
SAMPLINGMODE	SELECTOR	0	Sampling Mode
EOC	QUANT	0	Open Circuit (V)
SEQUENCER	TOGGLE	TRUE	Run as Sequence
PSTATMODEL	IQUANT	53	Pstat Model
PSTATSECTION	LABEL	IFC5000-01520	Pstat Section
PSTATSERIALNO	LABEL	01520	Pstat Serial Number
CTRLMODE	IQUANT	1	Control Mode
ELECTROMETER	IQUANT	0	RE=0 or CS=1
IESTAB	IQUANT	2	I/E Stability
CASPEED	IQUANT	4	Control Amp Speed
CONVENTION	IQUANT	1	Current Convention
ICHRANGE	IQUANT	2	Ich Range
ICHRANGEMODE	TOGGLE	F	Ich Auto Range
ICHOFFSETENABLE	TOGGLE	F	Ich Offset Enable
ICHOFFSET	QUANT	0	Ich Offset (V)
ICHFILTER	IQUANT	4	Ich Filter
VCHRANGE	IQUANT	2	Vch Range
VCHRANGEMODE	TOGGLE	F	Vch Auto Range
VCHOFFSETENABLE	TOGGLE	F	Vch Offset Enable
VCHOFFSET	QUANT	0	Vch Offset (V)
VCHFILTER	IQUANT	4	Vch Filter
IERANGELOWERLIMIT	IQUANT	7	I/E Range Lower Limit
IERANGEMODE	TOGGLE	T	I/E AutoRange
IERANGE	IQUANT	11	I/E Range
ACHSELECT	IQUANT	1	Ach Select
ACHRANGE	IQUANT	2	Ach Range
ACHOFFSETENABLE	TOGGLE	F	Ach Offset Enable
ACHOFFSET	QUANT	0	Ach Offset (V)
ACHFILTER	IQUANT	1	Ach Filter
CABLEID	IQUANT	14	Cable ID
DCCALDATE	LABEL	5-7-2017	DC Calibration Date
ACCALDATE	LABEL	12/3/2015	AC Calibration Date
FRAMEWORKVERSION	QUANT	7.01	Framework Version
INSTRUMENTVERSION	LABEL	4.00	Instrument Version
CURVE1	TABLE
	Pt	T	Vf	Im	Vu	Sig	Ach	IERange	Over
	#	s	V vs. Ref.	A	V	V	V	#	bits
	0	0.1	-2.06485E-004	-2.80533E-005	0.00000E+000	0.00000E+000	-1.33649E-004	11	...........
	1	0.2	-9.80670E-003	-4.95394E-005	0.00000E+000	-9.99874E-003	-1.03374E-002	10	...........
	2	0.3	-2.00069E-002	-5.77937E-005	0.00000E+000	-1.99975E-002	-2.01410E-002	9	...........
	3	0.4	-2.98072E-002	-6.60901E-005	0.00000E+000	-2.99962E-002	-3.03448E-002	8	...........
	4	0.5	-3.98074E-002	-7.62406E-005	0.00000E+000	-3.99949E-002	-4.01484E-002	8	...........
	5	0.6	-4.98076E-002	-8.20004E-005	0.00000E+000	-4.99937E-002	-5.01521E-002	8	...........
	6	0.7	-6.00078E-002	-8.80773E-005	0.00000E+000	-5.99924E-002	-5.99558E-002	8	...........
	7	0.8	-6.98081E-002	-9.33863E-005	0.00000E+000	-6.99912E-002	-6.97594E-002	8	...........
	8	0.9	-7.98083E-002	-9.83781E-005	0.00000E+000	-7.99899E-002	-8.01632E-002	8	...........
	9	1	-8.98085E-002	-1.02919E-004	0.00000E+000	-8.99886E-002	-8.99668E-002	8	...........
	10	1.1	-9.98088E-002	-1.07110E-004	0.00000E+000	-9.99874E-002	-1.00171E-001	8	...........
	11	1.2	-1.09809E-001	-1.10933E-004	0.00000E+000	-1.09986E-001	-1.10174E-001	8	...........
	12	1.3	-1.20009E-001	-1.14405E-004	0.00000E+000	-1.19985E-001	-1.19978E-001	8	...........
	13	1.4	-1.29809E-001	-1.17744E-004	0.00000E+000	-1.29984E-001	-1.30182E-001	8	...........
	14	1.5	-1.39810E-001	-1.20916E-004	0.00000E+000	-1.39982E-001	-1.39785E-001	8	...........
	15	1.6	-1.49810E-001	-1.23921E-004	0.00000E+000	-1.49981E-001	-1.50189E-001	8	...........
	16	1.7	-1.59810E-001	-1.26459E-004	0.00000E+000	-1.59980E-001	-1.59993E-001	8	...........
	17	1.8	-1.69610E-001	-1.28947E-004	0.00000E+000	-1.69979E-001	-1.69996E-001	8	...........
	18	1.9	-1.79811E-001	-1.31384E-004	0.00000E+000	-1.79977E-001	-1.80000E-001	8	...........
	19	2	-1.89811E-001	-1.33371E-004	0.00000E+000	-1.89976E-001	-1.90004E-001	8	...........
	20	2.1	-1.99811E-001	-1.35758E-004	0.00000E+000	-1.99975E-001	-1.99807E-001	8	...........
	21	2.2	-2.09811E-001	-1.37611E-004	0.00000E+000	-2.10023E-001	-2.10211E-001	8	...........
	22	2.3	-2.19611E-001	-1.39231E-004	0.00000E+000	-2.20022E-001	-2.20215E-001	8	...........
	23	2.4	-2.29612E-001	-1.41151E-004	0.00000E+000	-2.30021E-001	-2.30219E-001	8	...........
	24	2.5	-2.39612E-001	-1.42837E-004	0.00000E+000	-2.40020E-001	-2.39822E-001	8	...........
	25	2.6	-2.49812E-001	-1.44306E-004	0.00000E+000	-2.50018E-001	-2.50026E-001	8	...........
	26	2.7	-2.59612E-001	-1.45775E-004	0.00000E+000	-2.60017E-001	-2.60030E-001	8	...........
	27	2.8	-2.69613E-001	-1.46977E-004	0.00000E+000	-2.70016E-001	-2.70033E-001	8	...........
	28	2.9	-2.79613E-001	-1.48446E-004	0.00000E+000	-2.80015E-001	-2.80037E-001	8	...........
	29	3	-2.89613E-001	-1.49248E-004	0.00000E+000	-2.90013E-001	-2.89841E-001	8	...........
	30	3.1	-2.99613E-001	-1.50433E-004	0.00000E+000	-3.00012E-001	-3.00045E-001	8	...........
	31	3.2	-3.09814E-001	-1.51501E-004	0.00000E+000	-3.10011E-001	-3.09848E-001	8	...........
	32	3.3	-3.19814E-001	-1.52503E-004	0.00000E+000	-3.20010E-001	-3.19852E-001	8	...........
	33	3.4	-3.29614E-001	-1.53555E-004	0.00000E+000	-3.30008E-001	-3.30056E-001	8	...........
	34	3.5	-3.39614E-001	-1.54490E-004	0.00000E+000	-3.40007E-001	-3.40059E-001	8	...........
	35	3.6	-3.49814E-001	-1.55208E-004	0.00000E+000	-3.50006E-001	-3.50063E-001	8	...........
	36	3.7	-3.59815E-001	-1.56026E-004	0.00000E+000	-3.60005E-001	-3.59867E-001	8	...........
	37	3.8	-3.69815E-001	-1.56977E-004	0.00000E+000	-3.70003E-001	-3.70070E-001	8	...........
	38	3.9	-3.79615E-001	-1.57762E-004	0.00000E+000	-3.80002E-001	-3.79874E-001	8	...........
	39	4	-3.89815E-001	-1.58447E-004	0.00000E+000	-3.90001E-001	-3.89678E-001	8	...........
	40	4.1	-3.99616E-001	-1.58881E-004	0.00000E+000	-3.99999E-001	-4.00081E-001	8	...........
	41	4.2	-4.09416E-001	-1.59582E-004	0.00000E+000	-4.09998E-001	-4.09685E-001	8	...........
	42	4.3	-4.19616E-001	-1.60383E-004	0.00000E+000	-4.19997E-001	-4.19689E-001	8	...........
	43	4.4	-4.29416E-001	-1.60934E-004	0.00000E+000	-4.29996E-001	-4.29692E-001	8	...........
	44	4.5	-4.39617E-001	-1.61702E-004	0.00000E+000	-4.39994E-001	-4.39696E-001	8	...........
	45	4.6	-4.49417E-001	-1.62286E-004	0.00000E+000	-4.49993E-001	-4.49900E-001	8	...........
	46	4.7	-4.59617E-001	-1.63104E-004	0.00000E+000	-4.59992E-001	-4.59904E-001	8	...........
	47	4.8	-4.69417E-001	-1.63956E-004	0.00000E+000	-4.69991E-001	-4.69707E-001	8	...........
	48	4.9	-4.79617E-001	-1.64640E-004	0.00000E+000	-4.79989E-001	-4.79711E-001	8	...........
	49	5	-4.89418E-001	-1.65342E-004	0.00000E+000	-4.89988E-001	-4.89715E-001	8	...........
	50	5.1	-4.99618E-001	-1.65959E-004	0.00000E+000	-4.99987E-001	-4.99718E-001	8	...........
	51	5.2	-5.09618E-001	-1.66744E-004	0.00000E+000	-5.09986E-001	-5.09722E-001	8	...........
	52	5.3	-5.19418E-001	-1.67462E-004	0.00000E+000	-5.19984E-001	-5.19726E-001	8	...........
	53	5.4	-5.29419E-001	-1.68413E-004	0.00000E+000	-5.29983E-001	-5.29729E-001	8	...........
	54	5.5	-5.39619E-001	-1.69499E-004	0.00000E+000	-5.39982E-001	-5.39933E-001	8	...........
	55	5.6	-5.49419E-001	-1.70434E-004	0.00000E+000	-5.49981E-001	-5.49737E-001	8	...........
	56	5.7	-5.59419E-001	-1.71652E-004	0.00000E+000	-5.59979E-001	-5.59741E-001	8	...........
	57	5.8	-5.69419E-001	-1.72838E-004	0.00000E+000	-5.69978E-001	-5.69544E-001	8	...........
	58	5.9	-5.79420E-001	-1.73990E-004	0.00000E+000	-5.79977E-001	-5.79748E-001	8	...........
	59	6	-5.89420E-001	-1.75325E-004	0.00000E+000	-5.89975E-001	-5.89752E-001	8	...........
	60	6.1	-5.99420E-001	-1.76744E-004	0.00000E+000	-5.99974E-001	-5.99755E-001	8	...........
	61	6.2	-6.09420E-001	-1.78197E-004	0.00000E+000	-6.10023E-001	-6.09759E-001	8	...........
	62	6.3	-6.19621E-001	-1.79850E-004	0.00000E+000	-6.20022E-001	-6.19763E-001	8	...........
	63	6.4	-6.29621E-001	-1.81820E-004	0.00000E+000	-6.30020E-001	-6.29766E-001	8	...........
	64	6.5	-6.39421E-001	-1.83389E-004	0.00000E+000	-6.40019E-001	-6.39570E-001	8	...........
	65	6.6	-6.49421E-001	-1.85342E-004	0.00000E+000	-6.50018E-001	-6.49774E-001	8	...........
	66	6.7	-6.59221E-001	-1.87546E-004	0.00000E+000	-6.60017E-001	-6.59577E-001	8	...........
	67	6.8	-6.69622E-001	-1.89700E-004	0.00000E+000	-6.70015E-001	-6.69581E-001	8	...........
	68	6.9	-6.79422E-001	-1.91887E-004	0.00000E+000	-6.80014E-001	-6.79585E-001	8	...........
	69	7	-6.89222E-001	-1.94458E-004	0.00000E+000	-6.90013E-001	-6.89789E-001	8	...........
	70	7.1	-6.99422E-001	-1.97095E-004	0.00000E+000	-7.00012E-001	-6.99792E-001	8	...........
	71	7.2	-7.09423E-001	-2.00084E-004	0.00000E+000	-7.10010E-001	-7.09796E-001	8	...........
	72	7.3	-7.19423E-001	-2.03306E-004	0.00000E+000	-7.20009E-001	-7.19600E-001	8	...........
	73	7.4	-7.29223E-001	-2.06612E-004	0.00000E+000	-7.30008E-001	-7.29603E-001	8	...........
	74	7.5	-7.39623E-001	-2.10234E-004	0.00000E+000	-7.40007E-001	-7.39607E-001	8	...........
	75	7.6	-7.49424E-001	-2.13991E-004	0.00000E+000	-7.50005E-001	-7.49611E-001	8	...........
	76	7.7	-7.59224E-001	-2.17931E-004	0.00000E+000	-7.60004E-001	-7.59614E-001	8	...........
	77	7.8	-7.69224E-001	-2.22438E-004	0.00000E+000	-7.70003E-001	-7.69618E-001	8	...........
	78	7.9	-7.79224E-001	-2.27380E-004	0.00000E+000	-7.80001E-001	-7.79622E-001	8	...........
	79	8	-7.89224E-001	-2.32489E-004	0.00000E+000	-7.90000E-001	-7.89425E-001	8	...........
	80	8.1	-7.99425E-001	-2.37848E-004	0.00000E+000	-7.99999E-001	-7.99629E-001	8	...........
	81	8.2	-7.90024E-001	-1.85442E-004	0.00000E+000	-7.90000E-001	-7.89625E-001	8	...........
	82	8.3	-7.79624E-001	-1.46777E-004	0.00000E+000	-7.80001E-001	-7.79622E-001	8	...........
	83	8.4	-7.69824E-001	-1.16442E-004	0.00000E+000	-7.70003E-001	-7.69618E-001	8	...........
	84	8.5	-7.59824E-001	-9.12327E-005	0.00000E+000	-7.60004E-001	-7.59614E-001	8	...........
	85	8.6	-7.49824E-001	-6.96962E-005	0.00000E+000	-7.50005E-001	-7.49611E-001	8	...........
	86	8.7	-7.39823E-001	-5.10479E-005	0.00000E+000	-7.40007E-001	-7.39607E-001	8	...........
	87	8.8	-7.29823E-001	-3.49540E-005	0.00000E+000	-7.30008E-001	-7.29803E-001	8	...........
	88	8.9	-7.19823E-001	-1.97665E-005	0.00000E+000	-7.20009E-001	-7.19600E-001	7	...........
	89	9	-7.09823E-001	-9.20402E-006	0.00000E+000	-7.10010E-001	-7.09596E-001	7	...........
	90	9.1	-6.99822E-001	2.29206E-006	0.00000E+000	-7.00012E-001	-6.99592E-001	7	...........
	91	9.2	-6.89822E-001	1.19041E-005	0.00000E+000	-6.90013E-001	-6.89789E-001	7	...........
	92	9.3	-6.79822E-001	2.05291E-005	0.00000E+000	-6.80014E-001	-6.79785E-001	7	...........
	93	9.4	-6.69822E-001	2.81453E-005	0.00000E+000	-6.70015E-001	-6.69581E-001	7	...........
	94	9.5	-6.59822E-001	3.49915E-005	0.00000E+000	-6.60017E-001	-6.59577E-001	7	...........
	95	9.6	-6.49621E-001	4.11763E-005	0.00000E+000	-6.50018E-001	-6.49774E-001	7	...........
	96	9.7	-6.39821E-001	4.67030E-005	0.00000E+000	-6.40019E-001	-6.39570E-001	7	...........
	97	9.8	-6.29821E-001	6.05913E-005	0.00000E+000	-6.30020E-001	-6.29766E-001	8	...........
	98	9.9	-6.20021E-001	5.03406E-005	0.00000E+000	-6.20022E-001	-6.19763E-001	8	...........
	99	10	-6.10020E-001	6.13259E-005	0.00000E+000	-6.10023E-001	-6.09559E-001	8	...........
	100	10.1	-5.99820E-001	6.43477E-005	0.00000E+000	-5.99974E-001	-5.99555E-001	8	...........
	101	10.2	-5.90020E-001	6.76032E-005	0.00000E+000	-5.89975E-001	-5.89752E-001	8	...........
	102	10.3	-5.80020E-001	7.06751E-005	0.00000E+000	-5.79977E-001	-5.79748E-001	8	...........
	103	10.4	-5.69819E-001	7.33296E-005	0.00000E+000	-5.69978E-001	-5.69544E-001	8	...........
	104	10.5	-5.59819E-001	7.58672E-005	0.00000E+000	-5.59979E-001	-5.59741E-001	8	...........
	105	10.6	-5.50019E-001	7.81377E-005	0.00000E+000	-5.49981E-001	-5.49737E-001	8	...........
	106	10.7	-5.40019E-001	8.03581E-005	0.00000E+000	-5.39982E-001	-5.39733E-001	8	...........
	107	10.8	-5.30019E-001	8.24116E-005	0.00000E+000	-5.29983E-001	-5.29729E-001	8	...........
	108	10.9	-5.19818E-001	8.40978E-005	0.00000E+000	-5.19984E-001	-5.19726E-001	8	...........
	109	11	-5.10018E-001	8.59009E-005	0.00000E+000	-5.09986E-001	-5.09722E-001	8	...........
	110	11.1	-5.00018E-001	8.76037E-005	0.00000E+000	-4.99987E-001	-4.99718E-001	8	...........
	111	11.2	-4.90018E-001	8.90395E-005	0.00000E+000	-4.89988E-001	-4.89915E-001	8	...........
	112	11.3	-4.79817E-001	9.05421E-005	0.00000E+000	-4.79989E-001	-4.79911E-001	8	...........
	113	11.4	-4.70017E-001	9.20279E-005	0.00000E+000	-4.69991E-001	-4.69907E-001	8	...........
	114	11.5	-4.60017E-001	9.32633E-005	0.00000E+000	-4.59992E-001	-4.59904E-001	8	...........
	115	11.6	-4.50017E-001	9.47158E-005	0.00000E+000	-4.49993E-001	-4.49900E-001	8	...........
	116	11.7	-4.40016E-001	9.59178E-005	0.00000E+000	-4.39994E-001	-4.39896E-001	8	...........
	117	11.8	-4.30016E-001	9.72701E-005	0.00000E+000	-4.29996E-001	-4.29692E-001	8	...........
	118	11.9	-4.20016E-001	9.83887E-005	0.00000E+000	-4.19997E-001	-4.19689E-001	8	...........
	119	12	-4.10016E-001	9.96074E-005	0.00000E+000	-4.09998E-001	-4.10085E-001	8	...........
	120	12.1	-4.00016E-001	1.00793E-004	0.00000E+000	-3.99999E-001	-3.99881E-001	8	...........
	121	12.2	-3.90015E-001	1.01928E-004	0.00000E+000	-3.90001E-001	-3.89878E-001	8	...........
	122	12.3	-3.80015E-001	1.03163E-004	0.00000E+000	-3.80002E-001	-3.80074E-001	8	...........
	123	12.4	-3.70015E-001	1.04249E-004	0.00000E+000	-3.70003E-001	-3.70070E-001	8	...........
	124	12.5	-3.60215E-001	1.05451E-004	0.00000E+000	-3.60005E-001	-3.59867E-001	8	...........
	125	12.6	-3.50014E-001	1.06502E-004	0.00000E+000	-3.50006E-001	-3.49863E-001	8	...........
	126	12.7	-3.40214E-001	1.07588E-004	0.00000E+000	-3.40007E-001	-3.39859E-001	8	...........
	127	12.8	-3.30214E-001	1.08706E-004	0.00000E+000	-3.30008E-001	-3.29856E-001	8	...........
	128	12.9	-3.20214E-001	1.09791E-004	0.00000E+000	-3.20010E-001	-3.19852E-001	8	...........
	129	13	-3.10214E-001	1.10877E-004	0.00000E+000	-3.10011E-001	-3.10048E-001	8	...........
	130	13.1	-3.00213E-001	1.12045E-004	0.00000E+000	-3.00012E-001	-2.99844E-001	8	...........
	131	13.2	-2.90013E-001	1.13064E-004	0.00000E+000	-2.90013E-001	-2.89841E-001	8	...........
	132	13.3	-2.80213E-001	1.14282E-004	0.00000E+000	-2.80015E-001	-2.80037E-001	8	...........
	133	13.4	-2.70213E-001	1.15434E-004	0.00000E+000	-2.70016E-001	-2.70233E-001	8	...........
	134	13.5	-2.60212E-001	1.16686E-004	0.00000E+000	-2.60017E-001	-2.60230E-001	8	...........
	135	13.6	-2.50012E-001	1.17838E-004	0.00000E+000	-2.50018E-001	-2.49826E-001	8	...........
	136	13.7	-2.40412E-001	1.18924E-004	0.00000E+000	-2.40020E-001	-2.40022E-001	8	...........
	137	13.8	-2.30212E-001	1.20142E-004	0.00000E+000	-2.30021E-001	-2.30019E-001	8	...........
	138	13.9	-2.20211E-001	1.21394E-004	0.00000E+000	-2.20022E-001	-2.20015E-001	8	...........
	139	14	-2.10211E-001	1.22596E-004	0.00000E+000	-2.10023E-001	-2.10011E-001	8	...........
	140	14.1	-2.00211E-001	1.23832E-004	0.00000E+000	-1.99975E-001	-2.00008E-001	8	...........
	141	14.2	-1.90211E-001	1.25000E-004	0.00000E+000	-1.89976E-001	-1.90004E-001	8	...........
	142	14.3	-1.80211E-001	1.25952E-004	0.00000E+000	-1.79977E-001	-1.80000E-001	8	...........
	143	14.4	-1.70010E-001	1.27271E-004	0.00000E+000	-1.69979E-001	-1.69996E-001	8	...........
	144	14.5	-1.60010E-001	1.28440E-004	0.00000E+000	-1.59980E-001	-1.59993E-001	8	...........
	145	14.6	-1.50210E-001	1.29475E-004	0.00000E+000	-1.49981E-001	-1.49989E-001	8	...........
	146	14.7	-1.40410E-001	1.30627E-004	0.00000E+000	-1.39982E-001	-1.40185E-001	8	...........
	147	14.8	-1.30209E-001	1.31779E-004	0.00000E+000	-1.29984E-001	-1.30182E-001	8	...........
	148	14.9	-1.20209E-001	1.32697E-004	0.00000E+000	-1.19985E-001	-1.20178E-001	8	...........
	149	15	-1.10209E-001	1.33982E-004	0.00000E+000	-1.09986E-001	-1.10174E-001	8	...........
	150	15.1	-1.00209E-001	1.34817E-004	0.00000E+000	-9.99874E-002	-1.00171E-001	8	...........
	151	15.2	-9.04085E-002	1.36236E-004	0.00000E+000	-8.99886E-002	-9.01669E-002	8	...........
	152	15.3	-8.02083E-002	1.37488E-004	0.00000E+000	-7.99899E-002	-8.01632E-002	8	...........
	153	15.4	-7.02081E-002	1.38490E-004	0.00000E+000	-6.99912E-002	-7.01595E-002	8	...........
	154	15.5	-6.02079E-002	1.39625E-004	0.00000E+000	-5.99924E-002	-6.03559E-002	8	...........
	155	15.6	-5.02076E-002	1.40844E-004	0.00000E+000	-4.99937E-002	-5.01521E-002	8	...........
	156	15.7	-4.02074E-002	1.41912E-004	0.00000E+000	-3.99949E-002	-4.01484E-002	8	...........
	157	15.8	-3.02072E-002	1.42948E-004	0.00000E+000	-2.99962E-002	-3.01447E-002	8	...........
	158	15.9	-2.02069E-002	1.44049E-004	0.00000E+000	-1.99975E-002	-2.01410E-002	8	...........
	159	16	-1.04067E-002	1.45101E-004	0.00000E+000	-9.99874E-003	-1.03374E-002	8	...........
	160	16.1	-2.06485E-004	1.45986E-004	0.00000E+000	0.00000E+000	-1.33649E-004	8	...........
	161	16.2	9.79374E-003	1.47071E-004	0.00000E+000	9.99874E-003	9.66997E-003	8	...........
	162	16.3	1.97940E-002	1.47856E-004	0.00000E+000	1.99975E-002	1.96737E-002	8	...........
	163	16.4	2.97942E-002	1.48941E-004	0.00000E+000	2.99962E-002	2.96774E-002	8	...........
	164	16.5	3.97944E-002	1.49959E-004	0.00000E+000	3.99949E-002	3.96811E-002	8	...........
	165	16.6	4.95946E-002	1.50911E-004	0.00000E+000	4.99937E-002	4.94847E-002	8	...........
	166	16.7	5.97949E-002	1.51629E-004	0.00000E+000	5.99924E-002	5.94884E-002	8	...........
	167	16.8	6.95951E-002	1.52597E-004	0.00000E+000	6.99912E-002	6.96922E-002	8	...........
	168	16.9	7.95953E-002	1.53682E-004	0.00000E+000	7.99899E-002	7.96959E-002	8	...........
	169	17	8.93956E-002	1.54384E-004	0.00000E+000	8.99886E-002	8.96996E-002	8	...........
	170	17.1	9.95958E-002	1.55268E-004	0.00000E+000	9.99874E-002	9.97033E-002	8	...........
	171	17.2	1.09596E-001	1.56086E-004	0.00000E+000	1.09986E-001	1.09707E-001	8	...........
	172	17.3	1.19596E-001	1.56888E-004	0.00000E+000	1.19985E-001	1.19511E-001	8	...........
	173	17.4	1.29396E-001	1.57656E-004	0.00000E+000	1.29984E-001	1.29714E-001	8	...........
	174	17.5	1.39597E-001	1.58507E-004	0.00000E+000	1.39982E-001	1.39518E-001	8	...........
	175	17.6	1.49597E-001	1.59125E-004	0.00000E+000	1.49981E-001	1.49522E-001	8	...........
	176	17.7	1.59597E-001	1.59876E-004	0.00000E+000	1.59980E-001	1.59525E-001	8	...........
	177	17.8	1.69397E-001	1.60477E-004	0.00000E+000	1.69979E-001	1.69529E-001	8	...........
	178	17.9	1.79398E-001	1.61028E-004	0.00000E+000	1.79977E-001	1.79733E-001	8	...........
	179	18	1.89598E-001	1.61596E-004	0.00000E+000	1.89976E-001	1.89737E-001	8	...........
	180	18.1	1.99398E-001	1.62314E-004	0.00000E+000	1.99975E-001	1.99540E-001	8	...........
	181	18.2	2.09598E-001	1.62982E-004	0.00000E+000	2.10023E-001	2.09744E-001	8	...........
	182	18.3	2.19399E-001	1.63516E-004	0.00000E+000	2.20022E-001	2.19548E-001	8	...........
	183	18.4	2.29599E-001	1.64067E-004	0.00000E+000	2.30021E-001	2.29551E-001	8	...........
	184	18.5	2.39399E-001	1.64701E-004	0.00000E+000	2.40020E-001	2.39555E-001	8	...........
	185	18.6	2.49599E-001	1.65035E-004	0.00000E+000	2.50018E-001	2.49559E-001	8	...........
	186	18.7	2.59599E-001	1.65436E-004	0.00000E+000	2.60017E-001	2.59562E-001	8	...........
	187	18.8	2.69600E-001	1.65953E-004	0.00000E+000	2.70016E-001	2.69566E-001	8	...........
	188	18.9	2.79400E-001	1.66421E-004	0.00000E+000	2.80015E-001	2.79570E-001	8	...........
	189	19	2.89400E-001	1.66805E-004	0.00000E+000	2.90013E-001	2.89573E-001	8	...........
	190	19.1	2.99600E-001	1.66855E-004	0.00000E+000	3.00012E-001	2.99577E-001	8	...........
	191	19.2	3.09401E-001	1.67055E-004	0.00000E+000	3.10011E-001	3.09581E-001	8	...........
	192	19.3	3.19401E-001	1.67105E-004	0.00000E+000	3.20010E-001	3.19785E-001	8	...........
	193	19.4	3.29401E-001	1.67456E-004	0.00000E+000	3.30008E-001	3.29588E-001	8	...........
	194	19.5	3.39401E-001	1.67740E-004	0.00000E+000	3.40007E-001	3.39392E-001	8	...........
	195	19.6	3.49401E-001	1.68040E-004	0.00000E+000	3.50006E-001	3.49396E-001	8	...........
	196	19.7	3.59202E-001	1.68341E-004	0.00000E+000	3.60005E-001	3.59599E-001	8	...........
	197	19.8	3.69602E-001	1.68407E-004	0.00000E+000	3.70003E-001	3.69403E-001	8	...........
	198	19.9	3.79402E-001	1.68424E-004	0.00000E+000	3.80002E-001	3.79407E-001	8	...........
	199	20	3.89602E-001	1.68658E-004	0.00000E+000	3.90001E-001	3.89410E-001	8	...........
	200	20.1	3.99403E-001	1.68841E-004	0.00000E+000	3.99999E-001	3.99414E-001	8	...........
	201	20.2	4.09203E-001	1.68658E-004	0.00000E+000	4.09998E-001	4.09418E-001	8	...........
	202	20.3	4.19403E-001	1.68591E-004	0.00000E+000	4.19997E-001	4.19421E-001	8	...........
	203	20.4	4.29403E-001	1.68691E-004	0.00000E+000	4.29996E-001	4.29225E-001	8	...........
	204	20.5	4.39404E-001	1.68791E-004	0.00000E+000	4.39994E-001	4.39429E-001	8	...........
	205	20.6	4.49404E-001	1.69008E-004	0.00000E+000	4.49993E-001	4.49433E-001	8	...........
	206	20.7	4.59404E-001	1.69075E-004	0.00000E+000	4.59992E-001	4.59236E-001	8	...........
	207	20.8	4.69204E-001	1.68925E-004	0.00000E+000	4.69991E-001	4.69440E-001	8	...........
	208	20.9	4.79204E-001	1.69092E-004	0.00000E+000	4.79989E-001	4.79244E-001	8	...........
	209	21	4.89205E-001	1.69359E-004	0.00000E+000	4.89988E-001	4.89447E-001	8	...........
	210	21.1	4.99205E-001	1.69576E-004	0.00000E+000	4.99987E-001	4.99251E-001	8	...........
	211	21.2	5.09405E-001	1.69843E-004	0.00000E+000	5.09986E-001	5.09255E-001	8	...........
	212	21.3	5.19205E-001	1.69977E-004	0.00000E+000	5.19984E-001	5.19258E-001	8	...........
	213	21.4	5.29406E-001	1.70261E-004	0.00000E+000	5.29983E-001	5.29462E-001	8	...........
	214	21.5	5.39406E-001	1.70611E-004	0.00000E+000	5.39982E-001	5.39266E-001	8	...........
	215	21.6	5.49206E-001	1.71045E-004	0.00000E+000	5.49981E-001	5.49469E-001	8	...........
	216	21.7	5.59206E-001	1.71379E-004	0.00000E+000	5.59979E-001	5.59273E-001	8	...........
	217	21.8	5.69406E-001	1.71913E-004	0.00000E+000	5.69978E-001	5.69277E-001	8	...........
	218	21.9	5.79207E-001	1.72548E-004	0.00000E+000	5.79977E-001	5.79280E-001	8	...........
	219	22	5.89407E-001	1.73249E-004	0.00000E+000	5.89975E-001	5.89084E-001	8	...........
	220	22.1	5.99207E-001	1.73867E-004	0.00000E+000	5.99974E-001	5.99288E-001	8	...........
	221	22.2	6.09407E-001	1.74735E-004	0.00000E+000	6.10023E-001	6.09292E-001	8	...........
	222	22.3	6.19208E-001	1.75586E-004	0.00000E+000	6.20022E-001	6.19295E-001	8	...........
	223	22.4	6.29408E-001	1.76471E-004	0.00000E+000	6.30020E-001	6.29299E-001	8	...........
	224	22.5	6.39408E-001	1.77523E-004	0.00000E+000	6.40019E-001	6.39303E-001	8	...........
	225	22.6	6.49208E-001	1.78691E-004	0.00000E+000	6.50018E-001	6.49507E-001	8	...........
	226	22.7	6.59208E-001	1.80211E-004	0.00000E+000	6.60017E-001	6.59310E-001	8	...........
	227	22.8	6.69409E-001	1.81379E-004	0.00000E+000	6.70015E-001	6.69314E-001	8	...........
	228	22.9	6.79209E-001	1.82899E-004	0.00000E+000	6.80014E-001	6.79318E-001	8	...........
	229	23	6.89209E-001	1.84568E-004	0.00000E+000	6.90013E-001	6.89321E-001	8	...........
	230	23.1	6.99209E-001	1.86505E-004	0.00000E+000	7.00012E-001	6.99325E-001	8	...........
	231	23.2	7.09210E-001	1.88458E-004	0.00000E+000	7.10010E-001	7.09129E-001	8	...........
	232	23.3	7.19210E-001	1.90678E-004	0.00000E+000	7.20009E-001	7.19332E-001	8	...........
	233	23.4	7.29210E-001	1.93099E-004	0.00000E+000	7.30008E-001	7.29336E-001	8	...........
	234	23.5	7.39210E-001	1.95871E-004	0.00000E+000	7.40007E-001	7.39340E-001	8	...........
	235	23.6	7.49211E-001	1.99076E-004	0.00000E+000	7.50005E-001	7.49343E-001	8	...........
	236	23.7	7.59011E-001	2.02181E-004	0.00000E+000	7.60004E-001	7.59147E-001	8	...........
	237	23.8	7.69211E-001	2.05721E-004	0.00000E+000	7.70003E-001	7.69151E-001	8	...........
	238	23.9	7.79211E-001	2.09744E-004	0.00000E+000	7.80001E-001	7.79354E-001	8	...........
	239	24	7.89011E-001	2.14068E-004	0.00000E+000	7.90000E-001	7.89158E-001	8	...........
	240	24.1	7.99212E-001	2.18709E-004	0.00000E+000	7.99999E-001	7.99162E-001	8	...........
CURVE2	TABLE
	Pt	T	Vf	Im	Vu	Sig	Ach	IERange	Over
	#	s	V vs. Ref.	A	V	V	V	#	bits
	241	24.2	7.89811E-001	1.72231E-004	0.00000E+000	7.90000E-001	7.89158E-001	8	...........
	242	24.3	7.79411E-001	1.37538E-004	0.00000E+000	7.80001E-001	7.79154E-001	8	...........
	243	24.4	7.69411E-001	1.09942E-004	0.00000E+000	7.70003E-001	7.69151E-001	8	...........
	244	24.5	7.59811E-001	8.70528E-005	0.00000E+000	7.60004E-001	7.59347E-001	8	...........
	245	24.6	7.49611E-001	6.74696E-005	0.00000E+000	7.50005E-001	7.49143E-001	8	...........
	246	24.7	7.39610E-001	5.04074E-005	0.00000E+000	7.40007E-001	7.39340E-001	8	...........
	247	24.8	7.29610E-001	3.55155E-005	0.00000E+000	7.30008E-001	7.29336E-001	8	...........
	248	24.9	7.19610E-001	2.13726E-005	0.00000E+000	7.20009E-001	7.19532E-001	7	...........
	249	25	7.09410E-001	1.16202E-005	0.00000E+000	7.10010E-001	7.09529E-001	7	...........
	250	25.1	6.99609E-001	7.48784E-007	0.00000E+000	7.00012E-001	6.99125E-001	7	...........
	251	25.2	6.89609E-001	-8.34052E-006	0.00000E+000	6.90013E-001	6.89321E-001	7	...........
	252	25.3	6.79609E-001	-1.64644E-005	0.00000E+000	6.80014E-001	6.79318E-001	7	...........
	253	25.4	6.69809E-001	-2.37633E-005	0.00000E+000	6.70015E-001	6.69314E-001	7	...........
	254	25.5	6.59608E-001	-3.02821E-005	0.00000E+000	6.60017E-001	6.59310E-001	7	...........
	255	25.6	6.49608E-001	-3.61596E-005	0.00000E+000	6.50018E-001	6.49306E-001	7	...........
	256	25.7	6.39808E-001	-4.14258E-005	0.00000E+000	6.40019E-001	6.39303E-001	7	...........
	257	25.8	6.29808E-001	-4.61976E-005	0.00000E+000	6.30020E-001	6.29299E-001	7	...........
	258	25.9	6.19608E-001	-6.01300E-005	0.00000E+000	6.20022E-001	6.19295E-001	8	...........
	259	26	6.09607E-001	-4.85604E-005	0.00000E+000	6.10023E-001	6.09292E-001	8	...........
	260	26.1	5.99807E-001	-5.90114E-005	0.00000E+000	6.00024E-001	5.99488E-001	8	...........
	261	26.2	5.89607E-001	-6.16659E-005	0.00000E+000	5.89975E-001	5.89084E-001	8	...........
	262	26.3	5.79607E-001	-6.45374E-005	0.00000E+000	5.79977E-001	5.79280E-001	8	...........
	263	26.4	5.69606E-001	-6.71419E-005	0.00000E+000	5.69978E-001	5.69477E-001	8	...........
	264	26.5	5.59606E-001	-6.95292E-005	0.00000E+000	5.59979E-001	5.59473E-001	8	...........
	265	26.6	5.49606E-001	-7.18665E-005	0.00000E+000	5.49981E-001	5.49469E-001	8	...........
	266	26.7	5.39806E-001	-7.40035E-005	0.00000E+000	5.39982E-001	5.39266E-001	8	...........
	267	26.8	5.29606E-001	-7.59902E-005	0.00000E+000	5.29983E-001	5.29262E-001	8	...........
	268	26.9	5.19605E-001	-7.77598E-005	0.00000E+000	5.19984E-001	5.19458E-001	8	...........
	269	27	5.09405E-001	-7.95128E-005	0.00000E+000	5.09986E-001	5.09255E-001	8	...........
	270	27.1	4.99605E-001	-8.11322E-005	0.00000E+000	4.99987E-001	4.99251E-001	8	...........
	271	27.2	4.89405E-001	-8.26181E-005	0.00000E+000	4.89988E-001	4.89447E-001	8	...........
	272	27.3	4.79804E-001	-8.42041E-005	0.00000E+000	4.79989E-001	4.79244E-001	8	...........
	273	27.4	4.69804E-001	-8.55230E-005	0.00000E+000	4.69991E-001	4.69640E-001	8	...........
	274	27.5	4.59604E-001	-8.68586E-005	0.00000E+000	4.59992E-001	4.59436E-001	8	...........
	275	27.6	4.49804E-001	-8.80940E-005	0.00000E+000	4.49993E-001	4.49433E-001	8	...........
	276	27.7	4.39804E-001	-8.92794E-005	0.00000E+000	4.39994E-001	4.39429E-001	8	...........
	277	27.8	4.29803E-001	-9.04480E-005	0.00000E+000	4.29996E-001	4.29625E-001	8	...........
	278	27.9	4.19803E-001	-9.16334E-005	0.00000E+000	4.19997E-001	4.19421E-001	8	...........
	279	28	4.09803E-001	-9.29022E-005	0.00000E+000	4.09998E-001	4.09418E-001	8	...........
	280	28.1	3.99803E-001	-9.39206E-005	0.00000E+000	3.99999E-001	3.99614E-001	8	...........
	281	28.2	3.89802E-001	-9.51059E-005	0.00000E+000	3.90001E-001	3.89410E-001	8	...........
	282	28.3	3.79802E-001	-9.61410E-005	0.00000E+000	3.80002E-001	3.79607E-001	8	...........
	283	28.4	3.70002E-001	-9.72596E-005	0.00000E+000	3.70003E-001	3.69603E-001	8	...........
	284	28.5	3.59602E-001	-9.84115E-005	0.00000E+000	3.60005E-001	3.59599E-001	8	...........
	285	28.6	3.49801E-001	-9.95635E-005	0.00000E+000	3.50006E-001	3.49596E-001	8	...........
	286	28.7	3.39801E-001	-1.00749E-004	0.00000E+000	3.40007E-001	3.39592E-001	8	...........
	287	28.8	3.29601E-001	-1.01851E-004	0.00000E+000	3.30008E-001	3.29588E-001	8	...........
	288	28.9	3.20001E-001	-1.02852E-004	0.00000E+000	3.20010E-001	3.19585E-001	8	...........
	289	29	3.09801E-001	-1.04021E-004	0.00000E+000	3.10011E-001	3.09581E-001	8	...........
	290	29.1	3.00200E-001	-1.05106E-004	0.00000E+000	3.00012E-001	2.99577E-001	8	...........
	291	29.2	2.89800E-001	-1.06208E-004	0.00000E+000	2.90013E-001	2.89573E-001	8	...........
	292	29.3	2.79800E-001	-1.07343E-004	0.00000E+000	2.80015E-001	2.79570E-001	8	...........
	293	29.4	2.70000E-001	-1.08495E-004	0.00000E+000	2.70016E-001	2.69566E-001	8	...........
	294	29.5	2.59799E-001	-1.09747E-004	0.00000E+000	2.60017E-001	2.59562E-001	8	...........
	295	29.6	2.49999E-001	-1.10933E-004	0.00000E+000	2.50018E-001	2.49559E-001	8	...........
	296	29.7	2.39999E-001	-1.11901E-004	0.00000E+000	2.40020E-001	2.39555E-001	8	...........
	297	29.8	2.29999E-001	-1.13086E-004	0.00000E+000	2.30021E-001	2.29351E-001	8	...........
	298	29.9	2.19999E-001	-1.14272E-004	0.00000E+000	2.20022E-001	2.19548E-001	8	...........
	299	30	2.09998E-001	-1.15457E-004	0.00000E+000	2.10023E-001	2.09544E-001	8	...........
	300	30.1	1.99998E-001	-1.16726E-004	0.00000E+000	2.00025E-001	1.99540E-001	8	...........
	301	30.2	1.89998E-001	-1.17861E-004	0.00000E+000	1.90026E-001	1.89536E-001	8	...........
	302	30.3	1.80198E-001	-1.19030E-004	0.00000E+000	1.79977E-001	1.79733E-001	8	...........
	303	30.4	1.69997E-001	-1.20198E-004	0.00000E+000	1.69979E-001	1.69529E-001	8	...........
	304	30.5	1.59797E-001	-1.21400E-004	0.00000E+000	1.59980E-001	1.59525E-001	8	...........
	305	30.6	1.49997E-001	-1.22736E-004	0.00000E+000	1.49981E-001	1.49522E-001	8	...........
	306	30.7	1.39997E-001	-1.23788E-004	0.00000E+000	1.39982E-001	1.39518E-001	8	...........
	307	30.8	1.29996E-001	-1.24940E-004	0.00000E+000	1.29984E-001	1.29714E-001	8	...........
	308	30.9	1.19796E-001	-1.26275E-004	0.00000E+000	1.19985E-001	1.19511E-001	8	...........
	309	31	1.09996E-001	-1.27427E-004	0.00000E+000	1.09986E-001	1.09707E-001	8	...........
	310	31.1	1.00196E-001	-1.28546E-004	0.00000E+000	9.99874E-002	9.97033E-002	8	...........
	311	31.2	8.97956E-002	-1.29598E-004	0.00000E+000	8.99886E-002	8.96996E-002	8	...........
	312	31.3	7.99953E-002	-1.30683E-004	0.00000E+000	7.99899E-002	7.96959E-002	8	...........
	313	31.4	6.99951E-002	-1.32018E-004	0.00000E+000	6.99912E-002	6.98922E-002	8	...........
	314	31.5	5.99949E-002	-1.33003E-004	0.00000E+000	5.99924E-002	5.96885E-002	8	...........
	315	31.6	5.01947E-002	-1.34105E-004	0.00000E+000	4.99937E-002	4.96848E-002	8	...........
	316	31.7	4.01944E-002	-1.35291E-004	0.00000E+000	3.99949E-002	3.96811E-002	8	...........
	317	31.8	2.99942E-002	-1.36376E-004	0.00000E+000	2.99962E-002	2.94773E-002	8	...........
	318	31.9	2.01940E-002	-1.37428E-004	0.00000E+000	1.99975E-002	1.96737E-002	8	...........
	319	32	1.01938E-002	-1.38479E-004	0.00000E+000	9.99874E-003	9.87005E-003	8	...........
	320	32.1	1.93524E-004	-1.39531E-004	0.00000E+000	0.00000E+000	-3.33723E-004	8	...........
	321	32.2	-9.80670E-003	-1.40516E-004	0.00000E+000	-9.99874E-003	-1.01373E-002	8	...........
	322	32.3	-2.02069E-002	-1.41401E-004	0.00000E+000	-1.99975E-002	-2.03411E-002	8	...........
	323	32.4	-2.98072E-002	-1.42286E-004	0.00000E+000	-2.99962E-002	-3.01447E-002	8	...........
	324	32.5	-4.00074E-002	-1.43371E-004	0.00000E+000	-3.99949E-002	-4.03485E-002	8	...........
	325	32.6	-4.98076E-002	-1.44356E-004	0.00000E+000	-4.99937E-002	-4.99521E-002	8	...........
	326	32.7	-6.00078E-002	-1.45124E-004	0.00000E+000	-5.99924E-002	-5.99558E-002	8	...........
	327	32.8	-6.96081E-002	-1.45875E-004	0.00000E+000	-6.99912E-002	-7.01595E-002	8	...........
	328	32.9	-7.98083E-002	-1.46810E-004	0.00000E+000	-7.99899E-002	-8.01632E-002	8	...........
	329	33	-8.98085E-002	-1.47612E-004	0.00000E+000	-8.99886E-002	-9.01669E-002	8	...........
	330	33.1	-1.00009E-001	-1.48380E-004	0.00000E+000	-9.99874E-002	-9.99706E-002	8	...........
	331	33.2	-1.09809E-001	-1.48947E-004	0.00000E+000	-1.09986E-001	-1.09974E-001	8	...........
	332	33.3	-1.19609E-001	-1.49882E-004	0.00000E+000	-1.19985E-001	-1.20178E-001	8	...........
	333	33.4	-1.29809E-001	-1.50650E-004	0.00000E+000	-1.29984E-001	-1.30182E-001	8	...........
	334	33.5	-1.39810E-001	-1.51435E-004	0.00000E+000	-1.39982E-001	-1.40185E-001	8	...........
	335	33.6	-1.49610E-001	-1.51936E-004	0.00000E+000	-1.49981E-001	-1.49989E-001	8	...........
	336	33.7	-1.59810E-001	-1.52620E-004	0.00000E+000	-1.59980E-001	-1.59993E-001	8	...........
	337	33.8	-1.69810E-001	-1.53338E-004	0.00000E+000	-1.69979E-001	-1.70197E-001	8	...........
	338	33.9	-1.79811E-001	-1.54239E-004	0.00000E+000	-1.79977E-001	-1.80000E-001	8	...........
	339	34	-1.89811E-001	-1.54840E-004	0.00000E+000	-1.89976E-001	-1.90004E-001	8	...........
	340	34.1	-1.99811E-001	-1.55508E-004	0.00000E+000	-1.99975E-001	-2.00008E-001	8	...........
	341	34.2	-2.09811E-001	-1.56043E-004	0.00000E+000	-2.09973E-001	-2.10211E-001	8	...........
	342	34.3	-2.19811E-001	-1.56694E-004	0.00000E+000	-2.20022E-001	-2.20015E-001	8	...........
	343	34.4	-2.29812E-001	-1.57044E-004	0.00000E+000	-2.30021E-001	-2.30019E-001	8	...........
	344	34.5	-2.39612E-001	-1.57395E-004	0.00000E+000	-2.40020E-001	-2.40022E-001	8	...........
	345	34.6	-2.49812E-001	-1.58096E-004	0.00000E+000	-2.50018E-001	-2.50026E-001	8	...........
	346	34.7	-2.59812E-001	-1.58397E-004	0.00000E+000	-2.60017E-001	-2.60030E-001	8	...........
	347	34.8	-2.69613E-001	-1.58580E-004	0.00000E+000	-2.70016E-001	-2.69833E-001	8	...........
	348	34.9	-2.79613E-001	-1.58897E-004	0.00000E+000	-2.80015E-001	-2.79837E-001	8	...........
	349	35	-2.89613E-001	-1.58981E-004	0.00000E+000	-2.90013E-001	-2.89841E-001	8	...........
	350	35.1	-2.99613E-001	-1.59231E-004	0.00000E+000	-3.00012E-001	-2.99844E-001	8	...........
	351	35.2	-3.09614E-001	-1.59615E-004	0.00000E+000	-3.10011E-001	-3.10048E-001	8	...........
	352	35.3	-3.19614E-001	-1.59799E-004	0.00000E+000	-3.20010E-001	-3.20052E-001	8	...........
	353	35.4	-3.29414E-001	-1.60116E-004	0.00000E+000	-3.30008E-001	-3.29856E-001	8	...........
	354	35.5	-3.39614E-001	-1.60183E-004	0.00000E+000	-3.40007E-001	-3.40059E-001	8	...........
	355	35.6	-3.49614E-001	-1.60467E-004	0.00000E+000	-3.50006E-001	-3.50063E-001	8	...........
	356	35.7	-3.59615E-001	-1.60734E-004	0.00000E+000	-3.60005E-001	-3.59867E-001	8	...........
	357	35.8	-3.69615E-001	-1.60851E-004	0.00000E+000	-3.70003E-001	-3.69870E-001	8	...........
	358	35.9	-3.79415E-001	-1.60867E-004	0.00000E+000	-3.80002E-001	-3.79874E-001	8	...........
	359	36	-3.89615E-001	-1.61201E-004	0.00000E+000	-3.90001E-001	-3.89878E-001	8	...........
	360	36.1	-3.99616E-001	-1.61335E-004	0.00000E+000	-3.99999E-001	-3.99881E-001	8	...........
	361	36.2	-4.09816E-001	-1.61352E-004	0.00000E+000	-4.09998E-001	-4.09885E-001	8	...........
	362	36.3	-4.19616E-001	-1.61569E-004	0.00000E+000	-4.19997E-001	-4.19889E-001	8	...........
	363	36.4	-4.29616E-001	-1.61902E-004	0.00000E+000	-4.29996E-001	-4.30093E-001	8	...........
	364	36.5	-4.39617E-001	-1.62086E-004	0.00000E+000	-4.39994E-001	-4.39696E-001	8	...........
	365	36.6	-4.49617E-001	-1.62387E-004	0.00000E+000	-4.49993E-001	-4.49700E-001	8	...........
	366	36.7	-4.59417E-001	-1.62787E-004	0.00000E+000	-4.59992E-001	-4.59904E-001	8	...........
	367	36.8	-4.69617E-001	-1.62954E-004	0.00000E+000	-4.69991E-001	-4.69907E-001	8	...........
	368	36.9	-4.79617E-001	-1.63405E-004	0.00000E+000	-4.79989E-001	-4.79711E-001	8	...........
	369	37	-4.89418E-001	-1.63856E-004	0.00000E+000	-4.89988E-001	-4.89715E-001	8	...........
	370	37.1	-4.99618E-001	-1.64056E-004	0.00000E+000	-4.99987E-001	-4.99718E-001	8	...........
	371	37.2	-5.09418E-001	-1.64657E-004	0.00000E+000	-5.09986E-001	-5.09722E-001	8	...........
	372	37.3	-5.19418E-001	-1.65108E-004	0.00000E+000	-5.19984E-001	-5.19926E-001	8	...........
	373	37.4	-5.29419E-001	-1.65943E-004	0.00000E+000	-5.29983E-001	-5.29729E-001	8	...........
	374	37.5	-5.39619E-001	-1.66661E-004	0.00000E+000	-5.39982E-001	-5.39733E-001	8	...........
	375	37.6	-5.49419E-001	-1.67512E-004	0.00000E+000	-5.49981E-001	-5.49737E-001	8	...........
	376	37.7	-5.59619E-001	-1.68196E-004	0.00000E+000	-5.59979E-001	-5.59741E-001	8	...........
	377	37.8	-5.69419E-001	-1.69115E-004	0.00000E+000	-5.69978E-001	-5.69744E-001	8	...........
	378	37.9	-5.79420E-001	-1.70083E-004	0.00000E+000	-5.79977E-001	-5.79748E-001	8	...........
	379	38	-5.89620E-001	-1.71001E-004	0.00000E+000	-5.89975E-001	-5.89752E-001	8	...........
	380	38.1	-5.99620E-001	-1.72220E-004	0.00000E+000	-5.99974E-001	-5.99555E-001	8	...........
	381	38.2	-6.09620E-001	-1.73339E-004	0.00000E+000	-6.09973E-001	-6.09759E-001	8	...........
	382	38.3	-6.19621E-001	-1.74724E-004	0.00000E+000	-6.20022E-001	-6.19963E-001	8	...........
	383	38.4	-6.29621E-001	-1.76060E-004	0.00000E+000	-6.30020E-001	-6.29766E-001	8	...........
	384	38.5	-6.39421E-001	-1.77779E-004	0.00000E+000	-6.40019E-001	-6.39770E-001	8	...........
	385	38.6	-6.49421E-001	-1.79566E-004	0.00000E+000	-6.50018E-001	-6.49774E-001	8	...........
	386	38.7	-6.59421E-001	-1.81519E-004	0.00000E+000	-6.60017E-001	-6.59577E-001	8	...........
	387	38.8	-6.69622E-001	-1.83656E-004	0.00000E+000	-6.70015E-001	-6.69781E-001	8	...........
	388	38.9	-6.79622E-001	-1.85726E-004	0.00000E+000	-6.80014E-001	-6.79785E-001	8	...........
	389	39	-6.89422E-001	-1.88147E-004	0.00000E+000	-6.90013E-001	-6.89588E-001	8	...........
	390	39.1	-6.99422E-001	-1.90852E-004	0.00000E+000	-7.00012E-001	-6.99792E-001	8	...........
	391	39.2	-7.09423E-001	-1.93423E-004	0.00000E+000	-7.10010E-001	-7.09596E-001	8	...........
	392	39.3	-7.19423E-001	-1.96544E-004	0.00000E+000	-7.20009E-001	-7.19800E-001	8	...........
	393	39.4	-7.29423E-001	-1.99700E-004	0.00000E+000	-7.30008E-001	-7.29603E-001	8	...........
	394	39.5	-7.39423E-001	-2.03189E-004	0.00000E+000	-7.40007E-001	-7.39607E-001	8	...........
	395	39.6	-7.49424E-001	-2.06912E-004	0.00000E+000	-7.50005E-001	-7.49611E-001	8	...........
	396	39.7	-7.59424E-001	-2.11036E-004	0.00000E+000	-7.60004E-001	-7.59814E-001	8	...........
	397	39.8	-7.69424E-001	-2.15527E-004	0.00000E+000	-7.70003E-001	-7.69618E-001	8	...........
	398	39.9	-7.79424E-001	-2.20268E-004	0.00000E+000	-7.80001E-001	-7.79622E-001	8	...........
	399	40	-7.89424E-001	-2.25193E-004	0.00000E+000	-7.90000E-001	-7.89425E-001	8	...........
	400	40.1	-7.99425E-001	-2.30853E-004	0.00000E+000	-7.99999E-001	-7.99629E-001	8	...........
	401	40.2	-7.90024E-001	-1.78347E-004	0.00000E+000	-7.90000E-001	-7.89625E-001	8	...........
	402	40.3	-7.79824E-001	-1.39798E-004	0.00000E+000	-7.80001E-001	-7.79622E-001	8	...........
	403	40.4	-7.69824E-001	-1.09864E-004	0.00000E+000	-7.70003E-001	-7.69618E-001	8	...........
	404	40.5	-7.59824E-001	-8.47550E-005	0.00000E+000	-7.60004E-001	-7.59614E-001	8	...........
	405	40.6	-7.49824E-001	-6.35524E-005	0.00000E+000	-7.50005E-001	-7.49611E-001	8	...........
	406	40.7	-7.39823E-001	-4.53382E-005	0.00000E+000	-7.40007E-001	-7.39607E-001	8	...........
	407	40.8	-7.29823E-001	-2.96116E-005	0.00000E+000	-7.30008E-001	-7.29403E-001	8	...........
	408	40.9	-7.20023E-001	-1.49913E-005	0.00000E+000	-7.20009E-001	-7.19600E-001	7	...........
	409	41	-7.09823E-001	-4.58588E-006	0.00000E+000	-7.10010E-001	-7.09596E-001	7	...........
	410	41.1	-6.99822E-001	6.52271E-006	0.00000E+000	-7.00012E-001	-6.99592E-001	7	...........
	411	41.2	-6.89822E-001	1.57924E-005	0.00000E+000	-6.90013E-001	-6.89588E-001	7	...........
	412	41.3	-6.80022E-001	2.41218E-005	0.00000E+000	-6.80014E-001	-6.79785E-001	7	...........
	413	41.4	-6.69822E-001	3.15124E-005	0.00000E+000	-6.70015E-001	-6.69581E-001	7	...........
	414	41.5	-6.59622E-001	3.80246E-005	0.00000E+000	-6.60017E-001	-6.59777E-001	7	...........
	415	41.6	-6.50021E-001	4.39188E-005	0.00000E+000	-6.50018E-001	-6.49774E-001	7	...........
	416	41.7	-6.40021E-001	4.91649E-005	0.00000E+000	-6.40019E-001	-6.39770E-001	7	...........
	417	41.8	-6.30021E-001	6.34128E-005	0.00000E+000	-6.30020E-001	-6.29766E-001	8	...........
	418	41.9	-6.20221E-001	5.20268E-005	0.00000E+000	-6.20022E-001	-6.19763E-001	8	...........
	419	42	-6.09820E-001	6.32291E-005	0.00000E+000	-6.09973E-001	-6.09759E-001	8	...........
	420	42.1	-6.00020E-001	6.59838E-005	0.00000E+000	-5.99974E-001	-5.99755E-001	8	...........
	421	42.2	-5.89820E-001	6.90890E-005	0.00000E+000	-5.89975E-001	-5.89752E-001	8	...........
	422	42.3	-5.80020E-001	7.19105E-005	0.00000E+000	-5.79977E-001	-5.79548E-001	8	...........
	423	42.4	-5.70019E-001	7.45149E-005	0.00000E+000	-5.69978E-001	-5.69744E-001	8	...........
	424	42.5	-5.59819E-001	7.70024E-005	0.00000E+000	-5.59979E-001	-5.59741E-001	8	...........
	425	42.6	-5.50019E-001	7.92730E-005	0.00000E+000	-5.49981E-001	-5.49937E-001	8	...........
	426	42.7	-5.40019E-001	8.13098E-005	0.00000E+000	-5.39982E-001	-5.39933E-001	8	...........
	427	42.8	-5.29819E-001	8.31462E-005	0.00000E+000	-5.29983E-001	-5.29729E-001	8	...........
	428	42.9	-5.19818E-001	8.49659E-005	0.00000E+000	-5.19984E-001	-5.19726E-001	8	...........
	429	43	-5.10018E-001	8.64685E-005	0.00000E+000	-5.09986E-001	-5.09922E-001	8	...........
	430	43.1	-5.00018E-001	8.81213E-005	0.00000E+000	-4.99987E-001	-4.99718E-001	8	...........
	431	43.2	-4.90018E-001	8.95571E-005	0.00000E+000	-4.89988E-001	-4.89915E-001	8	...........
	432	43.3	-4.80017E-001	9.09761E-005	0.00000E+000	-4.79989E-001	-4.79911E-001	8	...........
	433	43.4	-4.69817E-001	9.22783E-005	0.00000E+000	-4.69991E-001	-4.69707E-001	8	...........
	434	43.5	-4.60217E-001	9.36473E-005	0.00000E+000	-4.59992E-001	-4.59704E-001	8	...........
	435	43.6	-4.50017E-001	9.48494E-005	0.00000E+000	-4.49993E-001	-4.49900E-001	8	...........
	436	43.7	-4.40016E-001	9.61015E-005	0.00000E+000	-4.39994E-001	-4.39896E-001	8	...........
	437	43.8	-4.30016E-001	9.74037E-005	0.00000E+000	-4.29996E-001	-4.29893E-001	8	...........
	438	43.9	-4.20216E-001	9.86558E-005	0.00000E+000	-4.19997E-001	-4.19689E-001	8	...........
	439	44	-4.10016E-001	9.97076E-005	0.00000E+000	-4.09998E-001	-4.09685E-001	8	...........
	440	44.1	-4.00216E-001	1.00876E-004	0.00000E+000	-3.99999E-001	-3.99881E-001	8	...........
	441	44.2	-3.90015E-001	1.02012E-004	0.00000E+000	-3.90001E-001	-3.89878E-001	8	...........
	442	44.3	-3.80015E-001	1.03197E-004	0.00000E+000	-3.80002E-001	-3.80074E-001	8	...........
	443	44.4	-3.69815E-001	1.04332E-004	0.00000E+000	-3.70003E-001	-3.70070E-001	8	...........
	444	44.5	-3.60215E-001	1.05467E-004	0.00000E+000	-3.60005E-001	-3.59867E-001	8	...........
	445	44.6	-3.50214E-001	1.06603E-004	0.00000E+000	-3.50006E-001	-3.49863E-001	8	...........
	446	44.7	-3.40014E-001	1.07504E-004	0.00000E+000	-3.40007E-001	-3.39859E-001	8	...........
	447	44.8	-3.30014E-001	1.08556E-004	0.00000E+000	-3.30008E-001	-3.29856E-001	8	...........
	448	44.9	-3.20214E-001	1.09791E-004	0.00000E+000	-3.20010E-001	-3.20052E-001	8	...........
	449	45	-3.10214E-001	1.10910E-004	0.00000E+000	-3.10011E-001	-3.10048E-001	8	...........
	450	45.1	-3.00013E-001	1.12162E-004	0.00000E+000	-3.00012E-001	-3.00045E-001	8	...........
	451	45.2	-2.90213E-001	1.13231E-004	0.00000E+000	-2.90013E-001	-2.90041E-001	8	...........
	452	45.3	-2.80213E-001	1.14216E-004	0.00000E+000	-2.80015E-001	-2.80037E-001	8	...........
	453	45.4	-2.70213E-001	1.15501E-004	0.00000E+000	-2.70016E-001	-2.70033E-001	8	...........
	454	45.5	-2.60412E-001	1.16570E-004	0.00000E+000	-2.60017E-001	-2.60030E-001	8	...........
	455	45.6	-2.50212E-001	1.17772E-004	0.00000E+000	-2.50018E-001	-2.50026E-001	8	...........
	456	45.7	-2.40012E-001	1.18957E-004	0.00000E+000	-2.40020E-001	-2.39822E-001	8	...........
	457	45.8	-2.30212E-001	1.20042E-004	0.00000E+000	-2.30021E-001	-2.30019E-001	8	...........
	458	45.9	-2.20011E-001	1.21044E-004	0.00000E+000	-2.20022E-001	-2.20215E-001	8	...........
	459	46	-2.10211E-001	1.22296E-004	0.00000E+000	-2.09973E-001	-2.10211E-001	8	...........
	460	46.1	-2.00211E-001	1.23448E-004	0.00000E+000	-1.99975E-001	-2.00008E-001	8	...........
	461	46.2	-1.90011E-001	1.24600E-004	0.00000E+000	-1.89976E-001	-1.90204E-001	8	...........
	462	46.3	-1.80211E-001	1.25652E-004	0.00000E+000	-1.79977E-001	-1.80000E-001	8	...........
	463	46.4	-1.70010E-001	1.26854E-004	0.00000E+000	-1.69979E-001	-1.69996E-001	8	...........
	464	46.5	-1.60210E-001	1.28039E-004	0.00000E+000	-1.59980E-001	-1.59993E-001	8	...........
	465	46.6	-1.50210E-001	1.29291E-004	0.00000E+000	-1.49981E-001	-1.50189E-001	8	...........
	466	46.7	-1.40210E-001	1.30577E-004	0.00000E+000	-1.39982E-001	-1.39985E-001	8	...........
	467	46.8	-1.30409E-001	1.31662E-004	0.00000E+000	-1.29984E-001	-1.29982E-001	8	...........
	468	46.9	-1.20409E-001	1.32847E-004	0.00000E+000	-1.19985E-001	-1.20178E-001	8	...........
	469	47	-1.10209E-001	1.33899E-004	0.00000E+000	-1.09986E-001	-1.09974E-001	8	...........
	470	47.1	-1.00209E-001	1.35118E-004	0.00000E+000	-9.99874E-002	-1.00171E-001	8	...........
	471	47.2	-9.02085E-002	1.36320E-004	0.00000E+000	-8.99886E-002	-9.01669E-002	8	...........
	472	47.3	-8.04083E-002	1.37355E-004	0.00000E+000	-7.99899E-002	-8.03633E-002	8	...........
	473	47.4	-7.02081E-002	1.38540E-004	0.00000E+000	-6.99912E-002	-6.99595E-002	8	...........
	474	47.5	-6.04079E-002	1.39508E-004	0.00000E+000	-5.99924E-002	-6.01558E-002	8	...........
	475	47.6	-5.02076E-002	1.40493E-004	0.00000E+000	-4.99937E-002	-5.01521E-002	8	...........
	476	47.7	-4.02074E-002	1.41695E-004	0.00000E+000	-3.99949E-002	-4.03485E-002	8	...........
	477	47.8	-3.06072E-002	1.42680E-004	0.00000E+000	-2.99962E-002	-3.01447E-002	8	...........
	478	47.9	-2.04069E-002	1.43766E-004	0.00000E+000	-1.99975E-002	-1.99410E-002	8	...........
	479	48	-1.06067E-002	1.44767E-004	0.00000E+000	-9.99874E-003	-1.01373E-002	8	...........
	480	48.1	-2.06485E-004	1.45736E-004	0.00000E+000	0.00000E+000	-3.33723E-004	8	...........
	481	48.2	9.79374E-003	1.46604E-004	0.00000E+000	9.99874E-003	9.66997E-003	8	...........
	482	48.3	1.95940E-002	1.47656E-004	0.00000E+000	1.99975E-002	1.96737E-002	8	...........
	483	48.4	2.95942E-002	1.48657E-004	0.00000E+000	2.99962E-002	2.96774E-002	8	...........
	484	48.5	3.97944E-002	1.49843E-004	0.00000E+000	3.99949E-002	3.94810E-002	8	...........
	485	48.6	4.97947E-002	1.50777E-004	0.00000E+000	4.99937E-002	4.96848E-002	8	...........
	486	48.7	5.95949E-002	1.51913E-004	0.00000E+000	5.99924E-002	5.96885E-002	8	...........
	487	48.8	6.95951E-002	1.52564E-004	0.00000E+000	6.99912E-002	6.96922E-002	8	...........
	488	48.9	7.95953E-002	1.53432E-004	0.00000E+000	7.99899E-002	7.94958E-002	8	...........
	489	49	8.95955E-002	1.54551E-004	0.00000E+000	8.99886E-002	8.94995E-002	8	...........
	490	49.1	9.95958E-002	1.55235E-004	0.00000E+000	9.99874E-002	9.97033E-002	8	...........
	491	49.2	1.09396E-001	1.56137E-004	0.00000E+000	1.09986E-001	1.09507E-001	8	...........
	492	49.3	1.19596E-001	1.57005E-004	0.00000E+000	1.19985E-001	1.19711E-001	8	...........
	493	49.4	1.29596E-001	1.57506E-004	0.00000E+000	1.29984E-001	1.29514E-001	8	...........
	494	49.5	1.39597E-001	1.58374E-004	0.00000E+000	1.39982E-001	1.39518E-001	8	...........
	495	49.6	1.49397E-001	1.59025E-004	0.00000E+000	1.49981E-001	1.49522E-001	8	...........
	496	49.7	1.59597E-001	1.59676E-004	0.00000E+000	1.59980E-001	1.59525E-001	8	...........
	497	49.8	1.69597E-001	1.60444E-004	0.00000E+000	1.69979E-001	1.69529E-001	8	...........
	498	49.9	1.79598E-001	1.61162E-004	0.00000E+000	1.79977E-001	1.79733E-001	8	...........
	499	50	1.89598E-001	1.61713E-004	0.00000E+000	1.90026E-001	1.89536E-001	8	...........
	500	50.1	1.99398E-001	1.62264E-004	0.00000E+000	2.00025E-001	1.99740E-001	8	...........
	501	50.2	2.09398E-001	1.62664E-004	0.00000E+000	2.10023E-001	2.09744E-001	8	...........
	502	50.3	2.19399E-001	1.63299E-004	0.00000E+000	2.20022E-001	2.19548E-001	8	...........
	503	50.4	2.29599E-001	1.63933E-004	0.00000E+000	2.30021E-001	2.29551E-001	8	...........
	504	50.5	2.39599E-001	1.64334E-004	0.00000E+000	2.40020E-001	2.39555E-001	8	...........
	505	50.6	2.49399E-001	1.64701E-004	0.00000E+000	2.50018E-001	2.49559E-001	8	...........
	506	50.7	2.59399E-001	1.65436E-004	0.00000E+000	2.60017E-001	2.59562E-001	8	...........
	507	50.8	2.69400E-001	1.65870E-004	0.00000E+000	2.70016E-001	2.69766E-001	8	...........
	508	50.9	2.79600E-001	1.66154E-004	0.00000E+000	2.80015E-001	2.79570E-001	8	...........
	509	51	2.89600E-001	1.66354E-004	0.00000E+000	2.90013E-001	2.89573E-001	8	...........
	510	51.1	2.99400E-001	1.66755E-004	0.00000E+000	3.00012E-001	2.99777E-001	8	...........
	511	51.2	3.09201E-001	1.66922E-004	0.00000E+000	3.10011E-001	3.09581E-001	8	...........
	512	51.3	3.19601E-001	1.67139E-004	0.00000E+000	3.20010E-001	3.19384E-001	8	...........
	513	51.4	3.29401E-001	1.67439E-004	0.00000E+000	3.30008E-001	3.29388E-001	8	...........
	514	51.5	3.39601E-001	1.67773E-004	0.00000E+000	3.40007E-001	3.39392E-001	8	...........
	515	51.6	3.49401E-001	1.67806E-004	0.00000E+000	3.50006E-001	3.49396E-001	8	...........
	516	51.7	3.59402E-001	1.67990E-004	0.00000E+000	3.60005E-001	3.59599E-001	8	...........
	517	51.8	3.69402E-001	1.68140E-004	0.00000E+000	3.70003E-001	3.69203E-001	8	...........
	518	51.9	3.79402E-001	1.68207E-004	0.00000E+000	3.80002E-001	3.79207E-001	8	...........
	519	52	3.89402E-001	1.68157E-004	0.00000E+000	3.90001E-001	3.89410E-001	8	...........
	520	52.1	3.99203E-001	1.68290E-004	0.00000E+000	3.99999E-001	3.99614E-001	8	...........
	521	52.2	4.09403E-001	1.68190E-004	0.00000E+000	4.09998E-001	4.09218E-001	8	...........
	522	52.3	4.19603E-001	1.68207E-004	0.00000E+000	4.19997E-001	4.19421E-001	8	...........
	523	52.4	4.29403E-001	1.68224E-004	0.00000E+000	4.29996E-001	4.29225E-001	8	...........
	524	52.5	4.39404E-001	1.68224E-004	0.00000E+000	4.39994E-001	4.39429E-001	8	...........
	525	52.6	4.49404E-001	1.68391E-004	0.00000E+000	4.49993E-001	4.49433E-001	8	...........
	526	52.7	4.59404E-001	1.68391E-004	0.00000E+000	4.59992E-001	4.59436E-001	8	...........
	527	52.8	4.69404E-001	1.68407E-004	0.00000E+000	4.69991E-001	4.69440E-001	8	...........
	528	52.9	4.79204E-001	1.68524E-004	0.00000E+000	4.79989E-001	4.79444E-001	8	...........
	529	53	4.89405E-001	1.68541E-004	0.00000E+000	4.89988E-001	4.89247E-001	8	...........
	530	53.1	4.99405E-001	1.68691E-004	0.00000E+000	4.99987E-001	4.99251E-001	8	...........
	531	53.2	5.09605E-001	1.69109E-004	0.00000E+000	5.09986E-001	5.09255E-001	8	...........
	532	53.3	5.19405E-001	1.69326E-004	0.00000E+000	5.19984E-001	5.19458E-001	8	...........
	533	53.4	5.29406E-001	1.69476E-004	0.00000E+000	5.29983E-001	5.29462E-001	8	...........
	534	53.5	5.39206E-001	1.69743E-004	0.00000E+000	5.39982E-001	5.39266E-001	8	...........
	535	53.6	5.49206E-001	1.70277E-004	0.00000E+000	5.49981E-001	5.49269E-001	8	...........
	536	53.7	5.59206E-001	1.70745E-004	0.00000E+000	5.59979E-001	5.59073E-001	8	...........
	537	53.8	5.69206E-001	1.70962E-004	0.00000E+000	5.69978E-001	5.69277E-001	8	...........
	538	53.9	5.79207E-001	1.71312E-004	0.00000E+000	5.79977E-001	5.79280E-001	8	...........
	539	54	5.89207E-001	1.71897E-004	0.00000E+000	5.89975E-001	5.89284E-001	8	...........
	540	54.1	5.99207E-001	1.72364E-004	0.00000E+000	6.00024E-001	5.99288E-001	8	...........
	541	54.2	6.09407E-001	1.72915E-004	0.00000E+000	6.10023E-001	6.09492E-001	8	...........
	542	54.3	6.19408E-001	1.73967E-004	0.00000E+000	6.20022E-001	6.19295E-001	8	...........
	543	54.4	6.29408E-001	1.74902E-004	0.00000E+000	6.30020E-001	6.29299E-001	8	...........
	544	54.5	6.39208E-001	1.75920E-004	0.00000E+000	6.40019E-001	6.39303E-001	8	...........
	545	54.6	6.49408E-001	1.77122E-004	0.00000E+000	6.50018E-001	6.49306E-001	8	...........
	546	54.7	6.59208E-001	1.78207E-004	0.00000E+000	6.60017E-001	6.59310E-001	8	...........
	547	54.8	6.69209E-001	1.79543E-004	0.00000E+000	6.70015E-001	6.69314E-001	8	...........
	548	54.9	6.79209E-001	1.81029E-004	0.00000E+000	6.80014E-001	6.79117E-001	8	...........
	549	55	6.89209E-001	1.82915E-004	0.00000E+000	6.90013E-001	6.89321E-001	8	...........
	550	55.1	6.99409E-001	1.84685E-004	0.00000E+000	7.00012E-001	6.99125E-001	8	...........
	551	55.2	7.09010E-001	1.86688E-004	0.00000E+000	7.10010E-001	7.09329E-001	8	...........
	552	55.3	7.19210E-001	1.89059E-004	0.00000E+000	7.20009E-001	7.19332E-001	8	...........
	553	55.4	7.29210E-001	1.91396E-004	0.00000E+000	7.30008E-001	7.29136E-001	8	...........
	554	55.5	7.39210E-001	1.94201E-004	0.00000E+000	7.40007E-001	7.39140E-001	8	...........
	555	55.6	7.49211E-001	1.97039E-004	0.00000E+000	7.50005E-001	7.49343E-001	8	...........
	556	55.7	7.59011E-001	2.00128E-004	0.00000E+000	7.60004E-001	7.59147E-001	8	...........
	557	55.8	7.69211E-001	2.03717E-004	0.00000E+000	7.70003E-001	7.69351E-001	8	...........
	558	55.9	7.79011E-001	2.07807E-004	0.00000E+000	7.80001E-001	7.79354E-001	8	...........
	559	56	7.89011E-001	2.12198E-004	0.00000E+000	7.90000E-001	7.89158E-001	8	...........
	560	56.1	7.99212E-001	2.17107E-004	0.00000E+000	7.99999E-001	7.99162E-001	8	...........
CURVE3	TABLE
	Pt	T	Vf	Im	Vu	Sig	Ach	IERange	Over
	#	s	V vs. Ref.	A	V	V	V	#	bits
	561	56.2	7.89811E-001	1.70845E-004	0.00000E+000	7.90000E-001	7.89158E-001	8	...........
	562	56.3	7.79411E-001	1.36036E-004	0.00000E+000	7.80001E-001	7.79354E-001	8	...........
	563	56.4	7.69611E-001	1.08506E-004	0.00000E+000	7.70003E-001	7.69351E-001	8	...........
	564	56.5	7.59611E-001	8.54668E-005	0.00000E+000	7.60004E-001	7.59147E-001	8	...........
	565	56.6	7.49611E-001	6.58168E-005	0.00000E+000	7.50005E-001	7.49143E-001	8	...........
	566	56.7	7.39410E-001	4.88547E-005	0.00000E+000	7.40007E-001	7.39340E-001	8	...........
	567	56.8	7.29610E-001	3.40630E-005	0.00000E+000	7.30008E-001	7.29336E-001	8	...........
	568	56.9	7.19810E-001	2.00398E-005	0.00000E+000	7.20009E-001	7.19132E-001	7	...........
	569	57	7.09610E-001	1.03074E-005	0.00000E+000	7.10010E-001	7.09329E-001	7	...........
	570	57.1	6.99609E-001	-4.37067E-007	0.00000E+000	7.00012E-001	6.99325E-001	7	...........
	571	57.2	6.89609E-001	-9.45789E-006	0.00000E+000	6.90013E-001	6.89321E-001	7	...........
	572	57.3	6.79809E-001	-1.75350E-005	0.00000E+000	6.80014E-001	6.79117E-001	7	...........
	573	57.4	6.69609E-001	-2.47621E-005	0.00000E+000	6.70015E-001	6.69314E-001	7	...........
	574	57.5	6.59809E-001	-3.11757E-005	0.00000E+000	6.60017E-001	6.59310E-001	7	...........
	575	57.6	6.49808E-001	-3.68978E-005	0.00000E+000	6.50018E-001	6.49306E-001	7	...........
	576	57.7	6.39808E-001	-4.21824E-005	0.00000E+000	6.40019E-001	6.39303E-001	7	...........
	577	57.8	6.29808E-001	-4.69442E-005	0.00000E+000	6.30020E-001	6.29499E-001	7	...........
	578	57.9	6.19608E-001	-6.08979E-005	0.00000E+000	6.20022E-001	6.19295E-001	8	...........
	579	58	6.09607E-001	-4.90278E-005	0.00000E+000	6.10023E-001	6.09492E-001	8	...........
	580	58.1	5.99607E-001	-5.95790E-005	0.00000E+000	6.00024E-001	5.99488E-001	8	...........
	581	58.2	5.89807E-001	-6.20332E-005	0.00000E+000	5.89975E-001	5.89484E-001	8	...........
	582	58.3	5.79607E-001	-6.49047E-005	0.00000E+000	5.79977E-001	5.79280E-001	8	...........
	583	58.4	5.69606E-001	-6.75592E-005	0.00000E+000	5.69978E-001	5.69277E-001	8	...........
	584	58.5	5.59606E-001	-6.99967E-005	0.00000E+000	5.59979E-001	5.59273E-001	8	...........
	585	58.6	5.49806E-001	-7.21837E-005	0.00000E+000	5.49981E-001	5.49269E-001	8	...........
	586	58.7	5.39806E-001	-7.41871E-005	0.00000E+000	5.39982E-001	5.39266E-001	8	...........
	587	58.8	5.29806E-001	-7.61905E-005	0.00000E+000	5.29983E-001	5.29462E-001	8	...........
	588	58.9	5.19605E-001	-7.79936E-005	0.00000E+000	5.19984E-001	5.19258E-001	8	...........
	589	59	5.09805E-001	-7.96798E-005	0.00000E+000	5.09986E-001	5.09255E-001	8	...........
	590	59.1	4.99805E-001	-8.12157E-005	0.00000E+000	4.99987E-001	4.99251E-001	8	...........
	591	59.2	4.89605E-001	-8.27016E-005	0.00000E+000	4.89988E-001	4.89247E-001	8	...........
	592	59.3	4.79804E-001	-8.41707E-005	0.00000E+000	4.79989E-001	4.79444E-001	8	...........
	593	59.4	4.69604E-001	-8.54228E-005	0.00000E+000	4.69991E-001	4.69440E-001	8	...........
	594	59.5	4.60004E-001	-8.67417E-005	0.00000E+000	4.59992E-001	4.59436E-001	8	...........
	595	59.6	4.49804E-001	-8.80773E-005	0.00000E+000	4.49993E-001	4.49433E-001	8	...........
	596	59.7	4.39804E-001	-8.93128E-005	0.00000E+000	4.39994E-001	4.39429E-001	8	...........
	597	59.8	4.29603E-001	-9.05315E-005	0.00000E+000	4.29996E-001	4.29425E-001	8	...........
	598	59.9	4.19603E-001	-9.16167E-005	0.00000E+000	4.19997E-001	4.19421E-001	8	...........
	599	60	4.09603E-001	-9.28688E-005	0.00000E+000	4.09998E-001	4.09418E-001	8	...........
	600	60.1	3.99803E-001	-9.40207E-005	0.00000E+000	3.99999E-001	3.99414E-001	8	...........
	601	60.2	3.89602E-001	-9.52061E-005	0.00000E+000	3.90001E-001	3.89610E-001	8	...........
	602	60.3	3.79802E-001	-9.62746E-005	0.00000E+000	3.80002E-001	3.79407E-001	8	...........
	603	60.4	3.70002E-001	-9.73764E-005	0.00000E+000	3.70003E-001	3.69603E-001	8	...........
	604	60.5	3.59602E-001	-9.85117E-005	0.00000E+000	3.60005E-001	3.59399E-001	8	...........
	605	60.6	3.49801E-001	-9.95134E-005	0.00000E+000	3.50006E-001	3.49596E-001	8	...........
	606	60.7	3.40001E-001	-1.00699E-004	0.00000E+000	3.40007E-001	3.39792E-001	8	...........
	607	60.8	3.30001E-001	-1.01951E-004	0.00000E+000	3.30008E-001	3.29588E-001	8	...........
	608	60.9	3.19801E-001	-1.03019E-004	0.00000E+000	3.20010E-001	3.19585E-001	8	...........
	609	61	3.09801E-001	-1.04188E-004	0.00000E+000	3.10011E-001	3.09581E-001	8	...........
	610	61.1	3.00000E-001	-1.05206E-004	0.00000E+000	3.00012E-001	2.99577E-001	8	...........
	611	61.2	2.89800E-001	-1.06442E-004	0.00000E+000	2.90013E-001	2.89573E-001	8	...........
	612	61.3	2.79800E-001	-1.07427E-004	0.00000E+000	2.80015E-001	2.79370E-001	8	...........
	613	61.4	2.69800E-001	-1.08579E-004	0.00000E+000	2.70016E-001	2.69566E-001	8	...........
	614	61.5	2.59999E-001	-1.09764E-004	0.00000E+000	2.60017E-001	2.59562E-001	8	...........
	615	61.6	2.49999E-001	-1.10949E-004	0.00000E+000	2.50018E-001	2.49759E-001	8	...........
	616	61.7	2.39799E-001	-1.12051E-004	0.00000E+000	2.40020E-001	2.39755E-001	8	...........
	617	61.8	2.29999E-001	-1.13270E-004	0.00000E+000	2.30021E-001	2.29751E-001	8	...........
	618	61.9	2.19999E-001	-1.14405E-004	0.00000E+000	2.20022E-001	2.19548E-001	8	...........
	619	62	2.09998E-001	-1.15490E-004	0.00000E+000	2.10023E-001	2.09544E-001	8	...........
	620	62.1	1.99998E-001	-1.16592E-004	0.00000E+000	2.00025E-001	1.99740E-001	8	...........
	621	62.2	1.89998E-001	-1.17761E-004	0.00000E+000	1.90026E-001	1.89737E-001	8	...........
	622	62.3	1.79998E-001	-1.19197E-004	0.00000E+000	1.79977E-001	1.79533E-001	8	...........
	623	62.4	1.69797E-001	-1.20299E-004	0.00000E+000	1.69979E-001	1.69329E-001	8	...........
	624	62.5	1.59997E-001	-1.21651E-004	0.00000E+000	1.59980E-001	1.59725E-001	8	...........
	625	62.6	1.49997E-001	-1.22853E-004	0.00000E+000	1.49981E-001	1.49722E-001	8	...........
	626	62.7	1.40197E-001	-1.24005E-004	0.00000E+000	1.39982E-001	1.39518E-001	8	...........
	627	62.8	1.29996E-001	-1.25224E-004	0.00000E+000	1.29984E-001	1.29514E-001	8	...........
	628	62.9	1.19996E-001	-1.26192E-004	0.00000E+000	1.19985E-001	1.19711E-001	8	...........
	629	63	1.09996E-001	-1.27310E-004	0.00000E+000	1.09986E-001	1.09707E-001	8	...........
	630	63.1	9.99958E-002	-1.28346E-004	0.00000E+000	9.99874E-002	9.97033E-002	8	...........
	631	63.2	8.99956E-002	-1.29514E-004	0.00000E+000	8.99886E-002	8.94995E-002	8	...........
	632	63.3	7.99953E-002	-1.30700E-004	0.00000E+000	7.99899E-002	7.94958E-002	8	...........
	633	63.4	7.01951E-002	-1.32052E-004	0.00000E+000	6.99912E-002	6.96922E-002	8	...........
	634	63.5	6.01949E-002	-1.32887E-004	0.00000E+000	5.99924E-002	5.96885E-002	8	...........
	635	63.6	4.99947E-002	-1.34105E-004	0.00000E+000	4.99937E-002	4.96848E-002	8	...........
	636	63.7	3.99944E-002	-1.35140E-004	0.00000E+000	3.99949E-002	3.96811E-002	8	...........
	637	63.8	2.99942E-002	-1.36242E-004	0.00000E+000	2.99962E-002	2.98774E-002	8	...........
	638	63.9	2.01940E-002	-1.37244E-004	0.00000E+000	1.99975E-002	1.98737E-002	8	...........
	639	64	1.01938E-002	-1.38162E-004	0.00000E+000	9.99874E-003	9.66997E-003	8	...........
	640	64.1	-6.48014E-006	-1.39114E-004	0.00000E+000	0.00000E+000	-1.33649E-004	8	...........
	641	64.2	-9.80670E-003	-1.40116E-004	0.00000E+000	-9.99874E-003	-1.01373E-002	8	...........
	642	64.3	-1.98069E-002	-1.41050E-004	0.00000E+000	-1.99975E-002	-2.01410E-002	8	...........
	643	64.4	-2.96072E-002	-1.41919E-004	0.00000E+000	-2.99962E-002	-3.03448E-002	8	...........
	644	64.5	-3.98074E-002	-1.42937E-004	0.00000E+000	-3.99949E-002	-4.01484E-002	8	...........
	645	64.6	-4.98076E-002	-1.43972E-004	0.00000E+000	-4.99937E-002	-5.01521E-002	8	...........
	646	64.7	-6.00078E-002	-1.44740E-004	0.00000E+000	-5.99924E-002	-6.01558E-002	8	...........
	647	64.8	-6.98081E-002	-1.45742E-004	0.00000E+000	-6.99912E-002	-6.99595E-002	8	...........
	648	64.9	-7.98083E-002	-1.46526E-004	0.00000E+000	-7.99899E-002	-8.01632E-002	8	...........
	649	65	-8.98085E-002	-1.47294E-004	0.00000E+000	-8.99886E-002	-8.99668E-002	8	...........
	650	65.1	-9.98088E-002	-1.48179E-004	0.00000E+000	-9.99874E-002	-1.00171E-001	8	...........
	651	65.2	-1.09809E-001	-1.48897E-004	0.00000E+000	-1.09986E-001	-1.10174E-001	8	...........
	652	65.3	-1.19809E-001	-1.49498E-004	0.00000E+000	-1.19985E-001	-1.20178E-001	8	...........
	653	65.4	-1.29809E-001	-1.50249E-004	0.00000E+000	-1.29984E-001	-1.30182E-001	8	...........
	654	65.5	-1.39810E-001	-1.51134E-004	0.00000E+000	-1.39982E-001	-1.39985E-001	8	...........
	655	65.6	-1.49810E-001	-1.51568E-004	0.00000E+000	-1.49981E-001	-1.49989E-001	8	...........
	656	65.7	-1.59610E-001	-1.52219E-004	0.00000E+000	-1.59980E-001	-1.59993E-001	8	...........
	657	65.8	-1.69810E-001	-1.52971E-004	0.00000E+000	-1.69979E-001	-1.69996E-001	8	...........
	658	65.9	-1.79811E-001	-1.53638E-004	0.00000E+000	-1.79977E-001	-1.80000E-001	8	...........
	659	66	-1.89811E-001	-1.54206E-004	0.00000E+000	-1.89976E-001	-1.90004E-001	8	...........
	660	66.1	-1.99811E-001	-1.54707E-004	0.00000E+000	-1.99975E-001	-2.00008E-001	8	...........
	661	66.2	-2.09811E-001	-1.55191E-004	0.00000E+000	-2.09973E-001	-2.10011E-001	8	...........
	662	66.3	-2.19811E-001	-1.55792E-004	0.00000E+000	-2.20022E-001	-2.20015E-001	8	...........
	663	66.4	-2.29812E-001	-1.56260E-004	0.00000E+000	-2.30021E-001	-2.30019E-001	8	...........
	664	66.5	-2.40012E-001	-1.56727E-004	0.00000E+000	-2.40020E-001	-2.39822E-001	8	...........
	665	66.6	-2.49812E-001	-1.57211E-004	0.00000E+000	-2.50018E-001	-2.49826E-001	8	...........
	666	66.7	-2.60012E-001	-1.57428E-004	0.00000E+000	-2.60017E-001	-2.60030E-001	8	...........
	667	66.8	-2.69813E-001	-1.57862E-004	0.00000E+000	-2.70016E-001	-2.70033E-001	8	...........
	668	66.9	-2.79613E-001	-1.58196E-004	0.00000E+000	-2.80015E-001	-2.79837E-001	8	...........
	669	67	-2.89813E-001	-1.58430E-004	0.00000E+000	-2.90013E-001	-2.90041E-001	8	...........
	670	67.1	-2.99813E-001	-1.58864E-004	0.00000E+000	-3.00012E-001	-3.00045E-001	8	...........
	671	67.2	-3.09814E-001	-1.59198E-004	0.00000E+000	-3.10011E-001	-3.10048E-001	8	...........
	672	67.3	-3.19614E-001	-1.59315E-004	0.00000E+000	-3.20010E-001	-3.19652E-001	8	...........
	673	67.4	-3.29814E-001	-1.59331E-004	0.00000E+000	-3.30008E-001	-3.29856E-001	8	...........
	674	67.5	-3.39614E-001	-1.59465E-004	0.00000E+000	-3.40007E-001	-3.39859E-001	8	...........
	675	67.6	-3.49614E-001	-1.59682E-004	0.00000E+000	-3.50006E-001	-3.49863E-001	8	...........
	676	67.7	-3.59615E-001	-1.59866E-004	0.00000E+000	-3.60005E-001	-3.59867E-001	8	...........
	677	67.8	-3.69815E-001	-1.60116E-004	0.00000E+000	-3.70003E-001	-3.69870E-001	8	...........
	678	67.9	-3.79615E-001	-1.60300E-004	0.00000E+000	-3.80002E-001	-3.80074E-001	8	...........
	679	68	-3.89415E-001	-1.60417E-004	0.00000E+000	-3.90001E-001	-3.89878E-001	8	...........
	680	68.1	-3.99816E-001	-1.60634E-004	0.00000E+000	-3.99999E-001	-3.99881E-001	8	...........
	681	68.2	-4.09616E-001	-1.60700E-004	0.00000E+000	-4.09998E-001	-4.09885E-001	8	...........
	682	68.3	-4.19616E-001	-1.60984E-004	0.00000E+000	-4.19997E-001	-4.19889E-001	8	...........
	683	68.4	-4.29416E-001	-1.61185E-004	0.00000E+000	-4.29996E-001	-4.29692E-001	8	...........
	684	68.5	-4.39617E-001	-1.61301E-004	0.00000E+000	-4.39994E-001	-4.39896E-001	8	...........
	685	68.6	-4.49617E-001	-1.61685E-004	0.00000E+000	-4.49993E-001	-4.49700E-001	8	...........
	686	68.7	-4.59617E-001	-1.61902E-004	0.00000E+000	-4.59992E-001	-4.59904E-001	8	...........
	687	68.8	-4.69417E-001	-1.62337E-004	0.00000E+000	-4.69991E-001	-4.69707E-001	8	...........
	688	68.9	-4.79417E-001	-1.62704E-004	0.00000E+000	-4.79989E-001	-4.79911E-001	8	...........
	689	69	-4.89618E-001	-1.62971E-004	0.00000E+000	-4.89988E-001	-4.89715E-001	8	...........
	690	69.1	-4.99418E-001	-1.63472E-004	0.00000E+000	-4.99987E-001	-4.99718E-001	8	...........
	691	69.2	-5.09618E-001	-1.64089E-004	0.00000E+000	-5.09986E-001	-5.09722E-001	8	...........
	692	69.3	-5.19418E-001	-1.64440E-004	0.00000E+000	-5.19984E-001	-5.19726E-001	8	...........
	693	69.4	-5.29619E-001	-1.65191E-004	0.00000E+000	-5.29983E-001	-5.29729E-001	8	...........
	694	69.5	-5.39619E-001	-1.65776E-004	0.00000E+000	-5.39982E-001	-5.39733E-001	8	...........
	695	69.6	-5.49619E-001	-1.66226E-004	0.00000E+000	-5.49981E-001	-5.49537E-001	8	...........
	696	69.7	-5.59419E-001	-1.67412E-004	0.00000E+000	-5.59979E-001	-5.59741E-001	8	...........
	697	69.8	-5.69619E-001	-1.68196E-004	0.00000E+000	-5.69978E-001	-5.69744E-001	8	...........
	698	69.9	-5.79620E-001	-1.69181E-004	0.00000E+000	-5.79977E-001	-5.79748E-001	8	...........
	699	70	-5.89420E-001	-1.70100E-004	0.00000E+000	-5.89975E-001	-5.89752E-001	8	...........
	700	70.1	-5.99620E-001	-1.71202E-004	0.00000E+000	-5.99974E-001	-5.99755E-001	8	...........
	701	70.2	-6.09420E-001	-1.72237E-004	0.00000E+000	-6.09973E-001	-6.09559E-001	8	...........
	702	70.3	-6.19621E-001	-1.73622E-004	0.00000E+000	-6.20022E-001	-6.19763E-001	8	...........
	703	70.4	-6.29421E-001	-1.75258E-004	0.00000E+000	-6.30020E-001	-6.29766E-001	8	...........
	704	70.5	-6.39621E-001	-1.76811E-004	0.00000E+000	-6.40019E-001	-6.39570E-001	8	...........
	705	70.6	-6.49421E-001	-1.78464E-004	0.00000E+000	-6.50018E-001	-6.49774E-001	8	...........
	706	70.7	-6.59421E-001	-1.80417E-004	0.00000E+000	-6.60017E-001	-6.59577E-001	8	...........
	707	70.8	-6.69422E-001	-1.82404E-004	0.00000E+000	-6.70015E-001	-6.69781E-001	8	...........
	708	70.9	-6.79622E-001	-1.84541E-004	0.00000E+000	-6.80014E-001	-6.79785E-001	8	...........
	709	71	-6.89422E-001	-1.87028E-004	0.00000E+000	-6.90013E-001	-6.89588E-001	8	...........
	710	71.1	-6.99422E-001	-1.89466E-004	0.00000E+000	-7.00012E-001	-6.99792E-001	8	...........
	711	71.2	-7.09423E-001	-1.92204E-004	0.00000E+000	-7.10010E-001	-7.09596E-001	8	...........
	712	71.3	-7.19423E-001	-1.95226E-004	0.00000E+000	-7.20009E-001	-7.19600E-001	8	...........
	713	71.4	-7.29623E-001	-1.98414E-004	0.00000E+000	-7.30008E-001	-7.29603E-001	8	...........
	714	71.5	-7.39423E-001	-2.01987E-004	0.00000E+000	-7.40007E-001	-7.39407E-001	8	...........
	715	71.6	-7.49424E-001	-2.05727E-004	0.00000E+000	-7.50005E-001	-7.49611E-001	8	...........
	716	71.7	-7.59424E-001	-2.09617E-004	0.00000E+000	-7.60004E-001	-7.59614E-001	8	...........
	717	71.8	-7.69024E-001	-2.14024E-004	0.00000E+000	-7.70003E-001	-7.69618E-001	8	...........
	718	71.9	-7.79624E-001	-2.18448E-004	0.00000E+000	-7.80001E-001	-7.79622E-001	8	...........
	719	72	-7.89424E-001	-2.23741E-004	0.00000E+000	-7.90000E-001	-7.89625E-001	8	...........
	720	72.1	-7.99225E-001	-2.29350E-004	0.00000E+000	-7.99999E-001	-7.99429E-001	8	...........
	721	72.2	-7.90024E-001	-1.76544E-004	0.00000E+000	-7.90000E-001	-7.89625E-001	8	...........
	722	72.3	-7.79624E-001	-1.38045E-004	0.00000E+000	-7.80001E-001	-7.79622E-001	8	...........
	723	72.4	-7.69624E-001	-1.07911E-004	0.00000E+000	-7.70003E-001	-7.69418E-001	8	...........
	724	72.5	-7.59824E-001	-8.28852E-005	0.00000E+000	-7.60004E-001	-7.59614E-001	8	...........
	725	72.6	-7.49824E-001	-6.17160E-005	0.00000E+000	-7.50005E-001	-7.49811E-001	8	...........
	726	72.7	-7.39823E-001	-4.35853E-005	0.00000E+000	-7.40007E-001	-7.39607E-001	8	...........
	727	72.8	-7.30023E-001	-2.78252E-005	0.00000E+000	-7.30008E-001	-7.29603E-001	8	...........
	728	72.9	-7.20023E-001	-1.32693E-005	0.00000E+000	-7.20009E-001	-7.19800E-001	7	...........
	729	73	-7.09823E-001	-2.85721E-006	0.00000E+000	-7.10010E-001	-7.09596E-001	7	...........
	730	73.1	-6.99822E-001	8.14783E-006	0.00000E+000	-7.00012E-001	-6.99592E-001	7	...........
	731	73.2	-6.89822E-001	1.73540E-005	0.00000E+000	-6.90013E-001	-6.89789E-001	7	...........
	732	73.3	-6.80022E-001	2.55732E-005	0.00000E+000	-6.80014E-001	-6.79785E-001	7	...........
	733	73.4	-6.70022E-001	3.28403E-005	0.00000E+000	-6.70015E-001	-6.69781E-001	7	...........
	734	73.5	-6.59822E-001	3.93307E-005	0.00000E+000	-6.60017E-001	-6.59777E-001	7	...........
	735	73.6	-6.49821E-001	4.51163E-005	0.00000E+000	-6.50018E-001	-6.49574E-001	7	...........
	736	73.7	-6.39821E-001	5.87048E-005	0.00000E+000	-6.40019E-001	-6.39570E-001	8	...........
	737	73.8	-6.29821E-001	4.94391E-005	0.00000E+000	-6.30020E-001	-6.29766E-001	8	...........
	738	73.9	-6.19821E-001	6.02574E-005	0.00000E+000	-6.20022E-001	-6.19963E-001	8	...........
	739	74	-6.09820E-001	6.33794E-005	0.00000E+000	-6.09973E-001	-6.09759E-001	8	...........
	740	74.1	-5.99820E-001	6.68018E-005	0.00000E+000	-5.99974E-001	-5.99755E-001	8	...........
	741	74.2	-5.90220E-001	6.98236E-005	0.00000E+000	-5.89975E-001	-5.89552E-001	8	...........
	742	74.3	-5.80020E-001	7.26784E-005	0.00000E+000	-5.79977E-001	-5.79548E-001	8	...........
	743	74.4	-5.69819E-001	7.51493E-005	0.00000E+000	-5.69978E-001	-5.69744E-001	8	...........
	744	74.5	-5.60019E-001	7.75033E-005	0.00000E+000	-5.59979E-001	-5.59540E-001	8	...........
	745	74.6	-5.49819E-001	7.96903E-005	0.00000E+000	-5.49981E-001	-5.49737E-001	8	...........
	746	74.7	-5.40019E-001	8.15769E-005	0.00000E+000	-5.39982E-001	-5.39533E-001	8	...........
	747	74.8	-5.29819E-001	8.34634E-005	0.00000E+000	-5.29983E-001	-5.29930E-001	8	...........
	748	74.9	-5.20018E-001	8.52665E-005	0.00000E+000	-5.19984E-001	-5.19926E-001	8	...........
	749	75	-5.10018E-001	8.68358E-005	0.00000E+000	-5.09986E-001	-5.09722E-001	8	...........
	750	75.1	-5.00018E-001	8.83884E-005	0.00000E+000	-4.99987E-001	-4.99718E-001	8	...........
	751	75.2	-4.90018E-001	8.98242E-005	0.00000E+000	-4.89988E-001	-4.89715E-001	8	...........
	752	75.3	-4.80017E-001	9.13267E-005	0.00000E+000	-4.79989E-001	-4.79711E-001	8	...........
	753	75.4	-4.70017E-001	9.26289E-005	0.00000E+000	-4.69991E-001	-4.69707E-001	8	...........
	754	75.5	-4.59817E-001	9.38978E-005	0.00000E+000	-4.59992E-001	-4.59704E-001	8	...........
	755	75.6	-4.50017E-001	9.51833E-005	0.00000E+000	-4.49993E-001	-4.49900E-001	8	...........
	756	75.7	-4.40016E-001	9.63853E-005	0.00000E+000	-4.39994E-001	-4.39896E-001	8	...........
	757	75.8	-4.30016E-001	9.75539E-005	0.00000E+000	-4.29996E-001	-4.29893E-001	8	...........
	758	75.9	-4.19816E-001	9.87059E-005	0.00000E+000	-4.19997E-001	-4.19889E-001	8	...........
	759	76	-4.10016E-001	9.97243E-005	0.00000E+000	-4.09998E-001	-4.09885E-001	8	...........
	760	76.1	-4.00216E-001	1.00809E-004	0.00000E+000	-3.99999E-001	-3.99881E-001	8	...........
	761	76.2	-3.89815E-001	1.02062E-004	0.00000E+000	-3.90001E-001	-3.89878E-001	8	...........
	762	76.3	-3.80215E-001	1.03147E-004	0.00000E+000	-3.80002E-001	-3.79874E-001	8	...........
	763	76.4	-3.70215E-001	1.04299E-004	0.00000E+000	-3.70003E-001	-3.70070E-001	8	...........
	764	76.5	-3.60215E-001	1.05401E-004	0.00000E+000	-3.60005E-001	-3.60067E-001	8	...........
	765	76.6	-3.50014E-001	1.06452E-004	0.00000E+000	-3.50006E-001	-3.50063E-001	8	...........
	766	76.7	-3.40214E-001	1.07588E-004	0.00000E+000	-3.40007E-001	-3.40059E-001	8	...........
	767	76.8	-3.30014E-001	1.08723E-004	0.00000E+000	-3.30008E-001	-3.29856E-001	8	...........
	768	76.9	-3.20214E-001	1.09725E-004	0.00000E+000	-3.20010E-001	-3.20052E-001	8	...........
	769	77	-3.10214E-001	1.10877E-004	0.00000E+000	-3.10011E-001	-3.10048E-001	8	...........
	770	77.1	-3.00213E-001	1.12028E-004	0.00000E+000	-3.00012E-001	-3.00045E-001	8	...........
	771	77.2	-2.90213E-001	1.13097E-004	0.00000E+000	-2.90013E-001	-2.89841E-001	8	...........
	772	77.3	-2.80013E-001	1.14165E-004	0.00000E+000	-2.80015E-001	-2.80037E-001	8	...........
	773	77.4	-2.70213E-001	1.15434E-004	0.00000E+000	-2.70016E-001	-2.70033E-001	8	...........
	774	77.5	-2.60212E-001	1.16570E-004	0.00000E+000	-2.60017E-001	-2.60230E-001	8	...........
	775	77.6	-2.50212E-001	1.17638E-004	0.00000E+000	-2.50018E-001	-2.50026E-001	8	...........
	776	77.7	-2.40212E-001	1.18790E-004	0.00000E+000	-2.40020E-001	-2.40022E-001	8	...........
	777	77.8	-2.30212E-001	1.19775E-004	0.00000E+000	-2.30021E-001	-2.30019E-001	8	...........
	778	77.9	-2.20211E-001	1.20994E-004	0.00000E+000	-2.20022E-001	-2.20015E-001	8	...........
	779	78	-2.10411E-001	1.22246E-004	0.00000E+000	-2.09973E-001	-2.10211E-001	8	...........
	780	78.1	-2.00011E-001	1.23515E-004	0.00000E+000	-1.99975E-001	-2.00208E-001	8	...........
	781	78.2	-1.90011E-001	1.24466E-004	0.00000E+000	-1.89976E-001	-1.90004E-001	8	...........
	782	78.3	-1.80411E-001	1.25635E-004	0.00000E+000	-1.79977E-001	-1.80200E-001	8	...........
	783	78.4	-1.70210E-001	1.26804E-004	0.00000E+000	-1.69979E-001	-1.70197E-001	8	...........
	784	78.5	-1.60210E-001	1.27872E-004	0.00000E+000	-1.59980E-001	-1.60193E-001	8	...........
	785	78.6	-1.50410E-001	1.28907E-004	0.00000E+000	-1.49981E-001	-1.50189E-001	8	...........
	786	78.7	-1.40210E-001	1.30293E-004	0.00000E+000	-1.39982E-001	-1.40185E-001	8	...........
	787	78.8	-1.30209E-001	1.31395E-004	0.00000E+000	-1.29984E-001	-1.29982E-001	8	...........
	788	78.9	-1.20409E-001	1.32547E-004	0.00000E+000	-1.19985E-001	-1.20178E-001	8	...........
	789	79	-1.10409E-001	1.33665E-004	0.00000E+000	-1.09986E-001	-1.10174E-001	8	...........
	790	79.1	-1.00209E-001	1.34884E-004	0.00000E+000	-9.99874E-002	-1.00171E-001	8	...........
	791	79.2	-9.04085E-002	1.35919E-004	0.00000E+000	-8.99886E-002	-9.01669E-002	8	...........
	792	79.3	-8.02083E-002	1.36837E-004	0.00000E+000	-7.99899E-002	-8.01632E-002	8	...........
	793	79.4	-7.04081E-002	1.37806E-004	0.00000E+000	-6.99912E-002	-6.99595E-002	8	...........
	794	79.5	-6.02079E-002	1.39024E-004	0.00000E+000	-5.99924E-002	-5.99558E-002	8	...........
	795	79.6	-5.04076E-002	1.40159E-004	0.00000E+000	-4.99937E-002	-5.01521E-002	8	...........
	796	79.7	-4.04074E-002	1.41328E-004	0.00000E+000	-3.99949E-002	-4.01484E-002	8	...........
	797	79.8	-3.02072E-002	1.42246E-004	0.00000E+000	-2.99962E-002	-3.01447E-002	8	...........
	798	79.9	-2.04069E-002	1.43365E-004	0.00000E+000	-1.99975E-002	-2.01410E-002	8	...........
	799	80	-1.04067E-002	1.44617E-004	0.00000E+000	-9.99874E-003	-1.01373E-002	8	...........
	800	80.1	-2.06485E-004	1.45468E-004	0.00000E+000	0.00000E+000	-1.33649E-004	8	...........
	801	80.2	9.59374E-003	1.46470E-004	0.00000E+000	9.99874E-003	9.87005E-003	8	...........
	802	80.3	1.95940E-002	1.47372E-004	0.00000E+000	1.99975E-002	1.96737E-002	8	...........
	803	80.4	2.95942E-002	1.48290E-004	0.00000E+000	2.99962E-002	2.98774E-002	8	...........
	804	80.5	3.95944E-002	1.49392E-004	0.00000E+000	3.99949E-002	3.96811E-002	8	...........
	805	80.6	4.95946E-002	1.50210E-004	0.00000E+000	4.99937E-002	4.96848E-002	8	...........
	806	80.7	5.95949E-002	1.51195E-004	0.00000E+000	5.99924E-002	5.96885E-002	8	...........
	807	80.8	6.95951E-002	1.51980E-004	0.00000E+000	6.99912E-002	6.96922E-002	8	...........
	808	80.9	7.95953E-002	1.52965E-004	0.00000E+000	7.99899E-002	7.96959E-002	8	...........
	809	81	8.95955E-002	1.53599E-004	0.00000E+000	8.99886E-002	8.96996E-002	8	...........
	810	81.1	9.97958E-002	1.54601E-004	0.00000E+000	9.99874E-002	9.97033E-002	8	...........
	811	81.2	1.09796E-001	1.55319E-004	0.00000E+000	1.09986E-001	1.09707E-001	8	...........
	812	81.3	1.19596E-001	1.56137E-004	0.00000E+000	1.19985E-001	1.19711E-001	8	...........
	813	81.4	1.29596E-001	1.56905E-004	0.00000E+000	1.29984E-001	1.29514E-001	8	...........
	814	81.5	1.39597E-001	1.57572E-004	0.00000E+000	1.39982E-001	1.39718E-001	8	...........
	815	81.6	1.49597E-001	1.58424E-004	0.00000E+000	1.49981E-001	1.49722E-001	8	...........
	816	81.7	1.59397E-001	1.59092E-004	0.00000E+000	1.59980E-001	1.59525E-001	8	...........
	817	81.8	1.69597E-001	1.59726E-004	0.00000E+000	1.69979E-001	1.69529E-001	8	...........
	818	81.9	1.79398E-001	1.60511E-004	0.00000E+000	1.79977E-001	1.79733E-001	8	...........
	819	82	1.89398E-001	1.61229E-004	0.00000E+000	1.90026E-001	1.89536E-001	8	...........
	820	82.1	1.99598E-001	1.61863E-004	0.00000E+000	2.00025E-001	1.99540E-001	8	...........
	821	82.2	2.09598E-001	1.62531E-004	0.00000E+000	2.10023E-001	2.09544E-001	8	...........
	822	82.3	2.19399E-001	1.62931E-004	0.00000E+000	2.20022E-001	2.19548E-001	8	...........
	823	82.4	2.29399E-001	1.63365E-004	0.00000E+000	2.30021E-001	2.29751E-001	8	...........
	824	82.5	2.39399E-001	1.63666E-004	0.00000E+000	2.40020E-001	2.39755E-001	8	...........
	825	82.6	2.49599E-001	1.64117E-004	0.00000E+000	2.50018E-001	2.49759E-001	8	...........
	826	82.7	2.59599E-001	1.64534E-004	0.00000E+000	2.60017E-001	2.59562E-001	8	...........
	827	82.8	2.69400E-001	1.64768E-004	0.00000E+000	2.70016E-001	2.69766E-001	8	...........
	828	82.9	2.79400E-001	1.65269E-004	0.00000E+000	2.80015E-001	2.79570E-001	8	...........
	829	83	2.89600E-001	1.65553E-004	0.00000E+000	2.90013E-001	2.89573E-001	8	...........
	830	83.1	2.99600E-001	1.66103E-004	0.00000E+000	3.00012E-001	2.99577E-001	8	...........
	831	83.2	3.09601E-001	1.66287E-004	0.00000E+000	3.10011E-001	3.09581E-001	8	...........
	832	83.3	3.19401E-001	1.66588E-004	0.00000E+000	3.20010E-001	3.19384E-001	8	...........
	833	83.4	3.29401E-001	1.66855E-004	0.00000E+000	3.30008E-001	3.29388E-001	8	...........
	834	83.5	3.39401E-001	1.66938E-004	0.00000E+000	3.40007E-001	3.39592E-001	8	...........
	835	83.6	3.49601E-001	1.67172E-004	0.00000E+000	3.50006E-001	3.49195E-001	8	...........
	836	83.7	3.59402E-001	1.67222E-004	0.00000E+000	3.60005E-001	3.59399E-001	8	...........
	837	83.8	3.69402E-001	1.67222E-004	0.00000E+000	3.70003E-001	3.69403E-001	8	...........
	838	83.9	3.79402E-001	1.67406E-004	0.00000E+000	3.80002E-001	3.79407E-001	8	...........
	839	84	3.89402E-001	1.67239E-004	0.00000E+000	3.90001E-001	3.89410E-001	8	...........
	840	84.1	3.99203E-001	1.67439E-004	0.00000E+000	3.99999E-001	3.99414E-001	8	...........
	841	84.2	4.09403E-001	1.67523E-004	0.00000E+000	4.09998E-001	4.09618E-001	8	...........
	842	84.3	4.19403E-001	1.67472E-004	0.00000E+000	4.19997E-001	4.19421E-001	8	...........
	843	84.4	4.29203E-001	1.67556E-004	0.00000E+000	4.29996E-001	4.29425E-001	8	...........
	844	84.5	4.39404E-001	1.67523E-004	0.00000E+000	4.39994E-001	4.39229E-001	8	...........
	845	84.6	4.49404E-001	1.67723E-004	0.00000E+000	4.49993E-001	4.49433E-001	8	...........
	846	84.7	4.59604E-001	1.67556E-004	0.00000E+000	4.59992E-001	4.59436E-001	8	...........
	847	84.8	4.69404E-001	1.67656E-004	0.00000E+000	4.69991E-001	4.69440E-001	8	...........
	848	84.9	4.79404E-001	1.67806E-004	0.00000E+000	4.79989E-001	4.79444E-001	8	...........
	849	85	4.89205E-001	1.68057E-004	0.00000E+000	4.89988E-001	4.89247E-001	8	...........
	850	85.1	4.99205E-001	1.68190E-004	0.00000E+000	4.99987E-001	4.99251E-001	8	...........
	851	85.2	5.09205E-001	1.68374E-004	0.00000E+000	5.09986E-001	5.09255E-001	8	...........
	852	85.3	5.19205E-001	1.68658E-004	0.00000E+000	5.19984E-001	5.19458E-001	8	...........
	853	85.4	5.29406E-001	1.68658E-004	0.00000E+000	5.29983E-001	5.29262E-001	8	...........
	854	85.5	5.39406E-001	1.68808E-004	0.00000E+000	5.39982E-001	5.39066E-001	8	...........
	855	85.6	5.49206E-001	1.69242E-004	0.00000E+000	5.49981E-001	5.49469E-001	8	...........
	856	85.7	5.59406E-001	1.69593E-004	0.00000E+000	5.59979E-001	5.59273E-001	8	...........
	857	85.8	5.69206E-001	1.69760E-004	0.00000E+000	5.69978E-001	5.69477E-001	8	...........
	858	85.9	5.79207E-001	1.70327E-004	0.00000E+000	5.79977E-001	5.79280E-001	8	...........
	859	86	5.89207E-001	1.70895E-004	0.00000E+000	5.89975E-001	5.89484E-001	8	...........
	860	86.1	5.99207E-001	1.71663E-004	0.00000E+000	6.00024E-001	5.99288E-001	8	...........
	861	86.2	6.09407E-001	1.72214E-004	0.00000E+000	6.10023E-001	6.09292E-001	8	...........
	862	86.3	6.19208E-001	1.73165E-004	0.00000E+000	6.20022E-001	6.19295E-001	8	...........
	863	86.4	6.29208E-001	1.74000E-004	0.00000E+000	6.30020E-001	6.29699E-001	8	...........
	864	86.5	6.39208E-001	1.75202E-004	0.00000E+000	6.40019E-001	6.39303E-001	8	...........
	865	86.6	6.49208E-001	1.76171E-004	0.00000E+000	6.50018E-001	6.49306E-001	8	...........
	866	86.7	6.59208E-001	1.77239E-004	0.00000E+000	6.60017E-001	6.59310E-001	8	...........
	867	86.8	6.69209E-001	1.78725E-004	0.00000E+000	6.70015E-001	6.69314E-001	8	...........
	868	86.9	6.79209E-001	1.80344E-004	0.00000E+000	6.80014E-001	6.79318E-001	8	...........
	869	87	6.89409E-001	1.81730E-004	0.00000E+000	6.90013E-001	6.89321E-001	8	...........
	870	87.1	6.99009E-001	1.83683E-004	0.00000E+000	7.00012E-001	6.99325E-001	8	...........
	871	87.2	7.09210E-001	1.85486E-004	0.00000E+000	7.10010E-001	7.09129E-001	8	...........
	872	87.3	7.19010E-001	1.87807E-004	0.00000E+000	7.20009E-001	7.19332E-001	8	...........
	873	87.4	7.29210E-001	1.90378E-004	0.00000E+000	7.30008E-001	7.29136E-001	8	...........
	874	87.5	7.39010E-001	1.93016E-004	0.00000E+000	7.40007E-001	7.39340E-001	8	...........
	875	87.6	7.49211E-001	1.95904E-004	0.00000E+000	7.50005E-001	7.48943E-001	8	...........
	876	87.7	7.59011E-001	1.99176E-004	0.00000E+000	7.60004E-001	7.59147E-001	8	...........
	877	87.8	7.69211E-001	2.02949E-004	0.00000E+000	7.70003E-001	7.69151E-001	8	...........
	878	87.9	7.79011E-001	2.06706E-004	0.00000E+000	7.80001E-001	7.79154E-001	8	...........
	879	88	7.89011E-001	2.11213E-004	0.00000E+000	7.90000E-001	7.89158E-001	8	...........
	880	88.1	7.99212E-001	2.16222E-004	0.00000E+000	7.99999E-001	7.99162E-001	8	...........
CURVE4	TABLE
	Pt	T	Vf	Im	Vu	Sig	Ach	IERange	Over
	#	s	V vs. Ref.	A	V	V	V	#	bits
	881	88.2	7.89811E-001	1.69476E-004	0.00000E+000	7.90000E-001	7.89158E-001	8	...........
	882	88.3	7.79411E-001	1.34800E-004	0.00000E+000	7.80001E-001	7.79154E-001	8	...........
	883	88.4	7.69611E-001	1.07471E-004	0.00000E+000	7.70003E-001	7.69151E-001	8	...........
	884	88.5	7.59611E-001	8.44651E-005	0.00000E+000	7.60004E-001	7.59147E-001	8	...........
	885	88.6	7.49611E-001	6.48151E-005	0.00000E+000	7.50005E-001	7.49143E-001	8	...........
	886	88.7	7.39810E-001	4.78364E-005	0.00000E+000	7.40007E-001	7.39140E-001	8	...........
	887	88.8	7.29610E-001	3.30780E-005	0.00000E+000	7.30008E-001	7.29336E-001	8	...........
	888	88.9	7.19610E-001	1.91061E-005	0.00000E+000	7.20009E-001	7.19332E-001	7	...........
	889	89	7.09610E-001	9.34872E-006	0.00000E+000	7.10010E-001	7.09129E-001	7	...........
	890	89.1	6.99609E-001	-1.35568E-006	0.00000E+000	7.00012E-001	6.99325E-001	7	...........
	891	89.2	6.89609E-001	-1.03348E-005	0.00000E+000	6.90013E-001	6.89321E-001	7	...........
	892	89.3	6.79609E-001	-1.83367E-005	0.00000E+000	6.80014E-001	6.79318E-001	7	...........
	893	89.4	6.69609E-001	-2.55253E-005	0.00000E+000	6.70015E-001	6.69514E-001	7	...........
	894	89.5	6.59809E-001	-3.19223E-005	0.00000E+000	6.60017E-001	6.59510E-001	7	...........
	895	89.6	6.49608E-001	-3.77129E-005	0.00000E+000	6.50018E-001	6.49306E-001	7	...........
	896	89.7	6.39808E-001	-4.29791E-005	0.00000E+000	6.40019E-001	6.39303E-001	7	...........
	897	89.8	6.29608E-001	-4.75755E-005	0.00000E+000	6.30020E-001	6.29499E-001	7	...........
	898	89.9	6.19608E-001	-6.15657E-005	0.00000E+000	6.20022E-001	6.19295E-001	8	...........
	899	90	6.09407E-001	-4.94285E-005	0.00000E+000	6.10023E-001	6.09292E-001	8	...........
	900	90.1	5.99607E-001	-6.00298E-005	0.00000E+000	6.00024E-001	5.99488E-001	8	...........
	901	90.2	5.89807E-001	-6.25674E-005	0.00000E+000	5.89975E-001	5.89484E-001	8	...........
	902	90.3	5.79807E-001	-6.54390E-005	0.00000E+000	5.79977E-001	5.79280E-001	8	...........
	903	90.4	5.69806E-001	-6.79599E-005	0.00000E+000	5.69978E-001	5.69477E-001	8	...........
	904	90.5	5.59406E-001	-7.03640E-005	0.00000E+000	5.59979E-001	5.59073E-001	8	...........
	905	90.6	5.49606E-001	-7.24342E-005	0.00000E+000	5.49981E-001	5.49269E-001	8	...........
	906	90.7	5.39806E-001	-7.45711E-005	0.00000E+000	5.39982E-001	5.39466E-001	8	...........
	907	90.8	5.29606E-001	-7.64576E-005	0.00000E+000	5.29983E-001	5.29462E-001	8	...........
	908	90.9	5.19605E-001	-7.82440E-005	0.00000E+000	5.19984E-001	5.19258E-001	8	...........
	909	91	5.09605E-001	-7.97632E-005	0.00000E+000	5.09986E-001	5.09255E-001	8	...........
	910	91.1	4.99605E-001	-8.13326E-005	0.00000E+000	4.99987E-001	4.99451E-001	8	...........
	911	91.2	4.89605E-001	-8.28685E-005	0.00000E+000	4.89988E-001	4.89447E-001	8	...........
	912	91.3	4.80004E-001	-8.42208E-005	0.00000E+000	4.79989E-001	4.79444E-001	8	...........
	913	91.4	4.69804E-001	-8.55564E-005	0.00000E+000	4.69991E-001	4.69440E-001	8	...........
	914	91.5	4.59804E-001	-8.67918E-005	0.00000E+000	4.59992E-001	4.59236E-001	8	...........
	915	91.6	4.49804E-001	-8.80773E-005	0.00000E+000	4.49993E-001	4.49433E-001	8	...........
	916	91.7	4.39604E-001	-8.93795E-005	0.00000E+000	4.39994E-001	4.39429E-001	8	...........
	917	91.8	4.29603E-001	-9.06150E-005	0.00000E+000	4.29996E-001	4.29225E-001	8	...........
	918	91.9	4.19803E-001	-9.17669E-005	0.00000E+000	4.19997E-001	4.19421E-001	8	...........
	919	92	4.09803E-001	-9.28020E-005	0.00000E+000	4.09998E-001	4.09618E-001	8	...........
	920	92.1	3.99803E-001	-9.40207E-005	0.00000E+000	3.99999E-001	3.99414E-001	8	...........
	921	92.2	3.90002E-001	-9.51226E-005	0.00000E+000	3.90001E-001	3.89410E-001	8	...........
	922	92.3	3.79802E-001	-9.61410E-005	0.00000E+000	3.80002E-001	3.79407E-001	8	...........
	923	92.4	3.70002E-001	-9.73096E-005	0.00000E+000	3.70003E-001	3.69403E-001	8	...........
	924	92.5	3.59802E-001	-9.83948E-005	0.00000E+000	3.60005E-001	3.59599E-001	8	...........
	925	92.6	3.49601E-001	-9.94132E-005	0.00000E+000	3.50006E-001	3.49596E-001	8	...........
	926	92.7	3.40001E-001	-1.00565E-004	0.00000E+000	3.40007E-001	3.39392E-001	8	...........
	927	92.8	3.29801E-001	-1.01717E-004	0.00000E+000	3.30008E-001	3.29388E-001	8	...........
	928	92.9	3.19801E-001	-1.02836E-004	0.00000E+000	3.20010E-001	3.19585E-001	8	...........
	929	93	3.10001E-001	-1.04054E-004	0.00000E+000	3.10011E-001	3.09781E-001	8	...........
	930	93.1	2.99800E-001	-1.05106E-004	0.00000E+000	3.00012E-001	2.99577E-001	8	...........
	931	93.2	2.90000E-001	-1.06358E-004	0.00000E+000	2.90013E-001	2.89573E-001	8	...........
	932	93.3	2.79800E-001	-1.07410E-004	0.00000E+000	2.80015E-001	2.79570E-001	8	...........
	933	93.4	2.70000E-001	-1.08445E-004	0.00000E+000	2.70016E-001	2.69566E-001	8	...........
	934	93.5	2.59599E-001	-1.09714E-004	0.00000E+000	2.60017E-001	2.59562E-001	8	...........
	935	93.6	2.49999E-001	-1.10866E-004	0.00000E+000	2.50018E-001	2.49359E-001	8	...........
	936	93.7	2.39999E-001	-1.12018E-004	0.00000E+000	2.40020E-001	2.39555E-001	8	...........
	937	93.8	2.29799E-001	-1.13287E-004	0.00000E+000	2.30021E-001	2.29751E-001	8	...........
	938	93.9	2.19799E-001	-1.14505E-004	0.00000E+000	2.20022E-001	2.19548E-001	8	...........
	939	94	2.09998E-001	-1.15440E-004	0.00000E+000	2.10023E-001	2.09544E-001	8	...........
	940	94.1	1.99998E-001	-1.16676E-004	0.00000E+000	2.00025E-001	1.99340E-001	8	...........
	941	94.2	1.89798E-001	-1.17728E-004	0.00000E+000	1.90026E-001	1.89536E-001	8	...........
	942	94.3	1.79798E-001	-1.18946E-004	0.00000E+000	1.79977E-001	1.79733E-001	8	...........
	943	94.4	1.69997E-001	-1.20065E-004	0.00000E+000	1.69979E-001	1.69529E-001	8	...........
	944	94.5	1.59797E-001	-1.21367E-004	0.00000E+000	1.59980E-001	1.59725E-001	8	...........
	945	94.6	1.49997E-001	-1.22452E-004	0.00000E+000	1.49981E-001	1.49722E-001	8	...........
	946	94.7	1.39997E-001	-1.23738E-004	0.00000E+000	1.39982E-001	1.39518E-001	8	...........
	947	94.8	1.29996E-001	-1.24873E-004	0.00000E+000	1.29984E-001	1.29714E-001	8	...........
	948	94.9	1.19796E-001	-1.25925E-004	0.00000E+000	1.19985E-001	1.19711E-001	8	...........
	949	95	1.10196E-001	-1.27244E-004	0.00000E+000	1.09986E-001	1.09707E-001	8	...........
	950	95.1	9.99958E-002	-1.28346E-004	0.00000E+000	9.99874E-002	9.97033E-002	8	...........
	951	95.2	8.97956E-002	-1.29447E-004	0.00000E+000	8.99886E-002	8.94995E-002	8	...........
	952	95.3	7.99953E-002	-1.30499E-004	0.00000E+000	7.99899E-002	7.96959E-002	8	...........
	953	95.4	7.01951E-002	-1.31518E-004	0.00000E+000	6.99912E-002	6.96922E-002	8	...........
	954	95.5	6.01949E-002	-1.32770E-004	0.00000E+000	5.99924E-002	5.96885E-002	8	...........
	955	95.6	5.01947E-002	-1.33905E-004	0.00000E+000	4.99937E-002	4.96848E-002	8	...........
	956	95.7	3.99944E-002	-1.34907E-004	0.00000E+000	3.99949E-002	3.98811E-002	8	...........
	957	95.8	3.01942E-002	-1.36142E-004	0.00000E+000	2.99962E-002	2.94773E-002	8	...........
	958	95.9	2.01940E-002	-1.36927E-004	0.00000E+000	1.99975E-002	1.98737E-002	8	...........
	959	96	9.99375E-003	-1.38045E-004	0.00000E+000	9.99874E-003	9.66997E-003	8	...........
	960	96.1	1.93524E-004	-1.39047E-004	0.00000E+000	0.00000E+000	-1.33649E-004	8	...........
