EXPLAIN
TAG	CV
TITLE	LABEL	Cyclic Voltammetry	Test Identifier
DATE	LABEL	13-7-2017	Date
TIME	LABEL	14:08:25	Time
NOTES	NOTES	1	Notes...
	
PSTAT	PSTAT	IFC5000-01520	Potentiostat
VINIT	POTEN	0.00000E+000	F	Initial E (V)
VLIMIT1	POTEN	-8.00000E-001	F	Scan Limit 1 (V)
VLIMIT2	POTEN	8.00000E-001	F	Scan Limit 2 (V)
VFINAL	POTEN	0.00000E+000	F	Final E (V)
SCANRATE	QUANT	9.99998E+001	A Real Number
STEPSIZE	QUANT	1.00000E+001	Step Size (mV)
CYCLES	IQUANT	3	Cycles (#)
IMODE	SELECTOR	0	I/E Range Mode
IRANGE	QUANT	2.50000E+002	Max Current (mA)
AREA	QUANT	3.84800E-001	A Real Number
EQDELAY	QUANT	1.00000E+000	Equil. Time (s)
IRCOMP	SELECTOR	0	IRComp
PFCOR	QUANT	2.50000E+002	PF Corr. (ohm)
SAMPLINGMODE	SELECTOR	0	Sampling Mode
EOC	QUANT	0	Open Circuit (V)
SEQUENCER	TOGGLE	TRUE	Run as Sequence
PSTATMODEL	IQUANT	53	Pstat Model
PSTATSECTION	LABEL	IFC5000-01520	Pstat Section
PSTATSERIALNO	LABEL	01520	Pstat Serial Number
CTRLMODE	IQUANT	1	Control Mode
ELECTROMETER	IQUANT	0	RE=0 or CS=1
IESTAB	IQUANT	2	I/E Stability
CASPEED	IQUANT	4	Control Amp Speed
CONVENTION	IQUANT	1	Current Convention
ICHRANGE	IQUANT	2	Ich Range
ICHRANGEMODE	TOGGLE	F	Ich Auto Range
ICHOFFSETENABLE	TOGGLE	F	Ich Offset Enable
ICHOFFSET	QUANT	0	Ich Offset (V)
ICHFILTER	IQUANT	4	Ich Filter
VCHRANGE	IQUANT	2	Vch Range
VCHRANGEMODE	TOGGLE	F	Vch Auto Range
VCHOFFSETENABLE	TOGGLE	F	Vch Offset Enable
VCHOFFSET	QUANT	0	Vch Offset (V)
VCHFILTER	IQUANT	4	Vch Filter
IERANGELOWERLIMIT	IQUANT	7	I/E Range Lower Limit
IERANGEMODE	TOGGLE	T	I/E AutoRange
IERANGE	IQUANT	11	I/E Range
ACHSELECT	IQUANT	1	Ach Select
ACHRANGE	IQUANT	2	Ach Range
ACHOFFSETENABLE	TOGGLE	F	Ach Offset Enable
ACHOFFSET	QUANT	0	Ach Offset (V)
ACHFILTER	IQUANT	1	Ach Filter
CABLEID	IQUANT	14	Cable ID
DCCALDATE	LABEL	5-7-2017	DC Calibration Date
ACCALDATE	LABEL	12/3/2015	AC Calibration Date
FRAMEWORKVERSION	QUANT	7.01	Framework Version
INSTRUMENTVERSION	LABEL	4.00	Instrument Version
CURVE1	TABLE
	Pt	T	Vf	Im	Vu	Sig	Ach	IERange	Over
	#	s	V vs. Ref.	A	V	V	V	#	bits
	0	0.1	-4.06489E-004	-2.80533E-005	0.00000E+000	0.00000E+000	-5.33797E-004	11	...........
	1	0.2	-1.00067E-002	-4.47849E-006	0.00000E+000	-9.99874E-003	-1.03374E-002	10	...........
	2	0.3	-2.00069E-002	-5.78189E-006	0.00000E+000	-1.99975E-002	-2.05412E-002	9	...........
	3	0.4	-3.00072E-002	-5.87134E-006	0.00000E+000	-2.99962E-002	-3.05449E-002	8	...........
	4	0.5	-4.00074E-002	-5.11534E-006	0.00000E+000	-3.99949E-002	-4.05486E-002	7	...........
	5	0.6	-5.00076E-002	-5.48278E-006	0.00000E+000	-4.99937E-002	-5.03522E-002	7	...........
	6	0.7	-6.00078E-002	-5.67987E-006	0.00000E+000	-5.99924E-002	-6.05560E-002	7	...........
	7	0.8	-7.00081E-002	-5.94543E-006	0.00000E+000	-6.99912E-002	-7.03596E-002	7	...........
	8	0.9	-8.00083E-002	-6.19596E-006	0.00000E+000	-7.99899E-002	-8.03633E-002	7	...........
	9	1	-9.02085E-002	-6.44984E-006	0.00000E+000	-8.99886E-002	-9.05671E-002	7	...........
	10	1.1	-1.00009E-001	-6.71206E-006	0.00000E+000	-9.99874E-002	-1.00571E-001	7	...........
	11	1.2	-1.09809E-001	-6.97929E-006	0.00000E+000	-1.09986E-001	-1.10574E-001	7	...........
	12	1.3	-1.20009E-001	-7.25989E-006	0.00000E+000	-1.19985E-001	-1.20378E-001	7	...........
	13	1.4	-1.30209E-001	-7.55051E-006	0.00000E+000	-1.29984E-001	-1.30382E-001	7	...........
	14	1.5	-1.39810E-001	-7.85616E-006	0.00000E+000	-1.39982E-001	-1.40385E-001	7	...........
	15	1.6	-1.50210E-001	-8.18352E-006	0.00000E+000	-1.49981E-001	-1.50389E-001	7	...........
	16	1.7	-1.60010E-001	-8.52925E-006	0.00000E+000	-1.59980E-001	-1.60193E-001	7	...........
	17	1.8	-1.69810E-001	-8.89837E-006	0.00000E+000	-1.69979E-001	-1.70197E-001	7	...........
	18	1.9	-1.79811E-001	-9.29922E-006	0.00000E+000	-1.79977E-001	-1.80200E-001	7	...........
	19	2	-1.90011E-001	-9.71510E-006	0.00000E+000	-1.89976E-001	-1.90404E-001	7	...........
	20	2.1	-2.00211E-001	-1.01677E-005	0.00000E+000	-1.99975E-001	-2.00408E-001	7	...........
	21	2.2	-2.10011E-001	-1.06571E-005	0.00000E+000	-2.10023E-001	-2.10411E-001	7	...........
	22	2.3	-2.20211E-001	-1.11565E-005	0.00000E+000	-2.20022E-001	-2.20415E-001	7	...........
	23	2.4	-2.30012E-001	-1.16976E-005	0.00000E+000	-2.30021E-001	-2.30419E-001	7	...........
	24	2.5	-2.40012E-001	-1.22538E-005	0.00000E+000	-2.40020E-001	-2.40222E-001	7	...........
	25	2.6	-2.50012E-001	-1.28518E-005	0.00000E+000	-2.50018E-001	-2.50226E-001	7	...........
	26	2.7	-2.60012E-001	-1.34664E-005	0.00000E+000	-2.60017E-001	-2.60430E-001	7	...........
	27	2.8	-2.70013E-001	-1.41078E-005	0.00000E+000	-2.70016E-001	-2.70033E-001	7	...........
	28	2.9	-2.80013E-001	-1.47742E-005	0.00000E+000	-2.80015E-001	-2.80437E-001	7	...........
	29	3	-2.90013E-001	-1.54506E-005	0.00000E+000	-2.90013E-001	-2.90241E-001	7	...........
	30	3.1	-3.00013E-001	-1.61488E-005	0.00000E+000	-3.00012E-001	-3.00245E-001	7	...........
	31	3.2	-3.09814E-001	-1.68553E-005	0.00000E+000	-3.10011E-001	-3.10448E-001	7	...........
	32	3.3	-3.20014E-001	-1.75718E-005	0.00000E+000	-3.20010E-001	-3.20252E-001	7	...........
	33	3.4	-3.29814E-001	-1.82967E-005	0.00000E+000	-3.30008E-001	-3.30256E-001	7	...........
	34	3.5	-3.39814E-001	-1.90165E-005	0.00000E+000	-3.40007E-001	-3.40259E-001	7	...........
	35	3.6	-3.49814E-001	-1.97431E-005	0.00000E+000	-3.50006E-001	-3.50263E-001	7	...........
	36	3.7	-3.60015E-001	-2.04696E-005	0.00000E+000	-3.60005E-001	-3.60267E-001	7	...........
	37	3.8	-3.69815E-001	-2.11845E-005	0.00000E+000	-3.70003E-001	-3.70270E-001	7	...........
	38	3.9	-3.80015E-001	-2.18976E-005	0.00000E+000	-3.80002E-001	-3.80074E-001	7	...........
	39	4	-3.89815E-001	-2.26041E-005	0.00000E+000	-3.90001E-001	-3.90278E-001	7	...........
	40	4.1	-4.00016E-001	-2.32973E-005	0.00000E+000	-3.99999E-001	-4.00282E-001	7	...........
	41	4.2	-4.09816E-001	-2.39821E-005	0.00000E+000	-4.09998E-001	-4.10085E-001	7	...........
	42	4.3	-4.19816E-001	-2.46552E-005	0.00000E+000	-4.19997E-001	-4.20489E-001	7	...........
	43	4.4	-4.30016E-001	-2.53233E-005	0.00000E+000	-4.29996E-001	-4.29893E-001	7	...........
	44	4.5	-4.39817E-001	-2.59796E-005	0.00000E+000	-4.39994E-001	-4.39896E-001	7	...........
	45	4.6	-4.49817E-001	-2.66310E-005	0.00000E+000	-4.49993E-001	-4.50100E-001	7	...........
	46	4.7	-4.60017E-001	-2.72774E-005	0.00000E+000	-4.59992E-001	-4.60104E-001	7	...........
	47	4.8	-4.69817E-001	-2.79154E-005	0.00000E+000	-4.69991E-001	-4.69907E-001	7	...........
	48	4.9	-4.79817E-001	-2.85568E-005	0.00000E+000	-4.79989E-001	-4.80111E-001	7	...........
	49	5	-4.89818E-001	-2.91931E-005	0.00000E+000	-4.89988E-001	-4.90315E-001	7	...........
	50	5.1	-4.99618E-001	-2.98328E-005	0.00000E+000	-4.99987E-001	-5.00118E-001	7	...........
	51	5.2	-5.09818E-001	-3.04775E-005	0.00000E+000	-5.09986E-001	-5.10122E-001	7	...........
	52	5.3	-5.19618E-001	-3.11222E-005	0.00000E+000	-5.19984E-001	-5.20126E-001	7	...........
	53	5.4	-5.29619E-001	-3.17820E-005	0.00000E+000	-5.29983E-001	-5.30130E-001	7	...........
	54	5.5	-5.39819E-001	-3.24517E-005	0.00000E+000	-5.39982E-001	-5.40133E-001	7	...........
	55	5.6	-5.49619E-001	-3.31265E-005	0.00000E+000	-5.49981E-001	-5.50137E-001	7	...........
	56	5.7	-5.59819E-001	-3.38246E-005	0.00000E+000	-5.59979E-001	-5.59941E-001	7	...........
	57	5.8	-5.69819E-001	-3.45245E-005	0.00000E+000	-5.69978E-001	-5.70144E-001	7	...........
	58	5.9	-5.79820E-001	-3.52510E-005	0.00000E+000	-5.79977E-001	-5.79948E-001	7	...........
	59	6	-5.89820E-001	-3.59976E-005	0.00000E+000	-5.89975E-001	-5.90152E-001	7	...........
	60	6.1	-5.99820E-001	-3.67559E-005	0.00000E+000	-5.99974E-001	-5.99955E-001	7	...........
	61	6.2	-6.09820E-001	-3.75743E-005	0.00000E+000	-6.10023E-001	-6.09959E-001	7	...........
	62	6.3	-6.19821E-001	-3.83609E-005	0.00000E+000	-6.20022E-001	-6.20163E-001	7	...........
	63	6.4	-6.29821E-001	-3.91927E-005	0.00000E+000	-6.30020E-001	-6.29966E-001	7	...........
	64	6.5	-6.39621E-001	-4.00545E-005	0.00000E+000	-6.40019E-001	-6.40170E-001	7	...........
	65	6.6	-6.49821E-001	-4.09364E-005	0.00000E+000	-6.50018E-001	-6.49974E-001	7	...........
	66	6.7	-6.59622E-001	-4.18600E-005	0.00000E+000	-6.60017E-001	-6.59978E-001	7	...........
	67	6.8	-6.69822E-001	-4.28104E-005	0.00000E+000	-6.70015E-001	-6.69981E-001	7	...........
	68	6.9	-6.79622E-001	-4.37941E-005	0.00000E+000	-6.80014E-001	-6.79985E-001	7	...........
	69	7	-6.89822E-001	-4.48230E-005	0.00000E+000	-6.90013E-001	-6.89989E-001	7	...........
	70	7.1	-6.99822E-001	-5.71082E-005	0.00000E+000	-7.00012E-001	-6.99992E-001	8	...........
	71	7.2	-7.09623E-001	-4.22163E-005	0.00000E+000	-7.10010E-001	-7.09996E-001	8	...........
	72	7.3	-7.19823E-001	-5.02799E-005	0.00000E+000	-7.20009E-001	-7.20200E-001	8	...........
	73	7.4	-7.29823E-001	-5.07975E-005	0.00000E+000	-7.30008E-001	-7.30003E-001	8	...........
	74	7.5	-7.39623E-001	-5.20997E-005	0.00000E+000	-7.40007E-001	-7.40007E-001	8	...........
	75	7.6	-7.49824E-001	-5.34353E-005	0.00000E+000	-7.50005E-001	-7.50011E-001	8	...........
	76	7.7	-7.59624E-001	-5.48377E-005	0.00000E+000	-7.60004E-001	-7.59814E-001	8	...........
	77	7.8	-7.69824E-001	-5.63068E-005	0.00000E+000	-7.70003E-001	-7.70018E-001	8	...........
	78	7.9	-7.79424E-001	-5.78094E-005	0.00000E+000	-7.80001E-001	-7.79822E-001	8	...........
	79	8	-7.89624E-001	-5.93954E-005	0.00000E+000	-7.90000E-001	-7.89825E-001	8	...........
	80	8.1	-7.99625E-001	-6.10649E-005	0.00000E+000	-7.99999E-001	-7.99829E-001	8	...........
	81	8.2	-7.90224E-001	-3.94115E-005	0.00000E+000	-7.90000E-001	-7.89825E-001	8	...........
	82	8.3	-7.80024E-001	-3.28843E-005	0.00000E+000	-7.80001E-001	-7.80022E-001	7	...........
	83	8.4	-7.70224E-001	-2.99915E-005	0.00000E+000	-7.70003E-001	-7.70018E-001	7	...........
	84	8.5	-7.60224E-001	-2.54485E-005	0.00000E+000	-7.60004E-001	-7.59814E-001	7	...........
	85	8.6	-7.50224E-001	-2.24004E-005	0.00000E+000	-7.50005E-001	-7.50011E-001	7	...........
	86	8.7	-7.40223E-001	-1.98099E-005	0.00000E+000	-7.40007E-001	-7.39807E-001	7	...........
	87	8.8	-7.30023E-001	-1.75885E-005	0.00000E+000	-7.30008E-001	-7.30003E-001	7	...........
	88	8.9	-7.20223E-001	-1.56895E-005	0.00000E+000	-7.20009E-001	-7.20000E-001	7	...........
	89	9	-7.10023E-001	-1.40142E-005	0.00000E+000	-7.10010E-001	-7.09796E-001	7	...........
	90	9.1	-7.00022E-001	-1.25495E-005	0.00000E+000	-7.00012E-001	-6.99792E-001	7	...........
	91	9.2	-6.90222E-001	-1.12500E-005	0.00000E+000	-6.90013E-001	-6.89989E-001	7	...........
	92	9.3	-6.80222E-001	-1.00692E-005	0.00000E+000	-6.80014E-001	-6.80185E-001	7	...........
	93	9.4	-6.70222E-001	-9.02029E-006	0.00000E+000	-6.70015E-001	-6.69981E-001	7	...........
	94	9.5	-6.60222E-001	-8.06994E-006	0.00000E+000	-6.60017E-001	-6.60178E-001	7	...........
	95	9.6	-6.50221E-001	-7.19308E-006	0.00000E+000	-6.50018E-001	-6.49774E-001	7	...........
	96	9.7	-6.40021E-001	-6.40307E-006	0.00000E+000	-6.40019E-001	-6.40170E-001	7	...........
	97	9.8	-6.30221E-001	-5.66651E-006	0.00000E+000	-6.30020E-001	-6.30167E-001	7	...........
	98	9.9	-6.20421E-001	-4.98840E-006	0.00000E+000	-6.20022E-001	-6.20163E-001	7	...........
	99	10	-6.10220E-001	-4.36708E-006	0.00000E+000	-6.10023E-001	-6.09959E-001	7	...........
	100	10.1	-6.00220E-001	-3.75912E-006	0.00000E+000	-5.99974E-001	-5.99955E-001	7	...........
	101	10.2	-5.90220E-001	-3.22632E-006	0.00000E+000	-5.89975E-001	-5.89952E-001	7	...........
	102	10.3	-5.80220E-001	-2.71524E-006	0.00000E+000	-5.79977E-001	-5.79748E-001	7	...........
	103	10.4	-5.70219E-001	-2.23923E-006	0.00000E+000	-5.69978E-001	-5.69944E-001	7	...........
	104	10.5	-5.60019E-001	-1.78994E-006	0.00000E+000	-5.59979E-001	-5.59941E-001	7	...........
	105	10.6	-5.50219E-001	-1.35903E-006	0.00000E+000	-5.49981E-001	-5.49937E-001	7	...........
	106	10.7	-5.40419E-001	-9.58174E-007	0.00000E+000	-5.39982E-001	-5.40133E-001	7	...........
	107	10.8	-5.30219E-001	-5.70684E-007	0.00000E+000	-5.29983E-001	-5.30130E-001	7	...........
	108	10.9	-5.20018E-001	-2.06578E-007	0.00000E+000	-5.19984E-001	-5.20126E-001	7	...........
	109	11	-5.10418E-001	1.40827E-007	0.00000E+000	-5.09986E-001	-5.10122E-001	7	...........
	110	11.1	-5.00418E-001	4.78210E-007	0.00000E+000	-4.99987E-001	-5.00118E-001	7	...........
	111	11.2	-4.90218E-001	7.97221E-007	0.00000E+000	-4.89988E-001	-4.90115E-001	7	...........
	112	11.3	-4.80217E-001	1.10621E-006	0.00000E+000	-4.79989E-001	-4.79911E-001	7	...........
	113	11.4	-4.70217E-001	1.40852E-006	0.00000E+000	-4.69991E-001	-4.70107E-001	7	...........
	114	11.5	-4.60217E-001	1.69078E-006	0.00000E+000	-4.59992E-001	-4.60104E-001	7	...........
	115	11.6	-4.50417E-001	1.97138E-006	0.00000E+000	-4.49993E-001	-4.50300E-001	7	...........
	116	11.7	-4.40417E-001	2.23862E-006	0.00000E+000	-4.39994E-001	-4.40296E-001	7	...........
	117	11.8	-4.30216E-001	2.50251E-006	0.00000E+000	-4.29996E-001	-4.30093E-001	7	...........
	118	11.9	-4.20416E-001	2.75972E-006	0.00000E+000	-4.19997E-001	-4.20089E-001	7	...........
	119	12	-4.10216E-001	3.00524E-006	0.00000E+000	-4.09998E-001	-4.10285E-001	7	...........
	120	12.1	-4.00216E-001	3.24909E-006	0.00000E+000	-3.99999E-001	-4.00282E-001	7	...........
	121	12.2	-3.90215E-001	3.48459E-006	0.00000E+000	-3.90001E-001	-3.90078E-001	7	...........
	122	12.3	-3.80215E-001	3.71675E-006	0.00000E+000	-3.80002E-001	-3.80274E-001	7	...........
	123	12.4	-3.70415E-001	3.94557E-006	0.00000E+000	-3.70003E-001	-3.70070E-001	7	...........
	124	12.5	-3.60615E-001	4.16437E-006	0.00000E+000	-3.60005E-001	-3.60267E-001	7	...........
	125	12.6	-3.50414E-001	4.38150E-006	0.00000E+000	-3.50006E-001	-3.50263E-001	7	...........
	126	12.7	-3.40414E-001	4.59362E-006	0.00000E+000	-3.40007E-001	-3.40059E-001	7	...........
	127	12.8	-3.30214E-001	4.79571E-006	0.00000E+000	-3.30008E-001	-3.30256E-001	7	...........
	128	12.9	-3.20414E-001	5.00115E-006	0.00000E+000	-3.20010E-001	-3.20252E-001	7	...........
	129	13	-3.10214E-001	5.18821E-006	0.00000E+000	-3.10011E-001	-3.10448E-001	7	...........
	130	13.1	-3.00413E-001	5.38029E-006	0.00000E+000	-3.00012E-001	-3.00245E-001	7	...........
	131	13.2	-2.90413E-001	5.56067E-006	0.00000E+000	-2.90013E-001	-2.90241E-001	7	...........
	132	13.3	-2.80413E-001	5.73103E-006	0.00000E+000	-2.80015E-001	-2.80237E-001	7	...........
	133	13.4	-2.70413E-001	5.89805E-006	0.00000E+000	-2.70016E-001	-2.70233E-001	7	...........
	134	13.5	-2.60612E-001	6.05338E-006	0.00000E+000	-2.60017E-001	-2.60630E-001	7	...........
	135	13.6	-2.50412E-001	6.20537E-006	0.00000E+000	-2.50018E-001	-2.50426E-001	7	...........
	136	13.7	-2.40412E-001	6.34567E-006	0.00000E+000	-2.40020E-001	-2.40222E-001	7	...........
	137	13.8	-2.30412E-001	6.47261E-006	0.00000E+000	-2.30021E-001	-2.30419E-001	7	...........
	138	13.9	-2.20411E-001	6.59787E-006	0.00000E+000	-2.20022E-001	-2.20415E-001	7	...........
	139	14	-2.10611E-001	6.70978E-006	0.00000E+000	-2.10023E-001	-2.10611E-001	7	...........
	140	14.1	-2.00411E-001	6.82669E-006	0.00000E+000	-1.99975E-001	-2.00408E-001	7	...........
	141	14.2	-1.90211E-001	6.91855E-006	0.00000E+000	-1.89976E-001	-1.90404E-001	7	...........
	142	14.3	-1.80411E-001	7.00541E-006	0.00000E+000	-1.79977E-001	-1.80400E-001	7	...........
	143	14.4	-1.70410E-001	7.09059E-006	0.00000E+000	-1.69979E-001	-1.70397E-001	7	...........
	144	14.5	-1.60410E-001	7.16241E-006	0.00000E+000	-1.59980E-001	-1.60393E-001	7	...........
	145	14.6	-1.50410E-001	7.23088E-006	0.00000E+000	-1.49981E-001	-1.50389E-001	7	...........
	146	14.7	-1.40410E-001	7.29769E-006	0.00000E+000	-1.39982E-001	-1.40385E-001	7	...........
	147	14.8	-1.30409E-001	7.35448E-006	0.00000E+000	-1.29984E-001	-1.30382E-001	7	...........
	148	14.9	-1.20609E-001	7.41127E-006	0.00000E+000	-1.19985E-001	-1.20378E-001	7	...........
	149	15	-1.10409E-001	7.45803E-006	0.00000E+000	-1.09986E-001	-1.10574E-001	7	...........
	150	15.1	-1.00609E-001	7.51315E-006	0.00000E+000	-9.99874E-002	-1.00371E-001	7	...........
	151	15.2	-9.06085E-002	7.55992E-006	0.00000E+000	-8.99886E-002	-9.03670E-002	7	...........
	152	15.3	-8.04083E-002	7.60167E-006	0.00000E+000	-7.99899E-002	-8.05634E-002	7	...........
	153	15.4	-7.04081E-002	7.64677E-006	0.00000E+000	-6.99912E-002	-7.03596E-002	7	...........
	154	15.5	-6.06079E-002	7.68852E-006	0.00000E+000	-5.99924E-002	-6.03559E-002	7	...........
	155	15.6	-5.06076E-002	7.73028E-006	0.00000E+000	-4.99937E-002	-5.05523E-002	7	...........
	156	15.7	-4.06074E-002	7.77537E-006	0.00000E+000	-3.99949E-002	-4.05486E-002	7	...........
	157	15.8	-3.06072E-002	7.81880E-006	0.00000E+000	-2.99962E-002	-3.03448E-002	7	...........
	158	15.9	-2.06069E-002	7.86390E-006	0.00000E+000	-1.99975E-002	-2.05412E-002	7	...........
	159	16	-1.06067E-002	7.91734E-006	0.00000E+000	-9.99874E-003	-1.05375E-002	7	...........
	160	16.1	-4.06489E-004	7.96244E-006	0.00000E+000	0.00000E+000	-7.33871E-004	7	...........
	161	16.2	9.39373E-003	8.02257E-006	0.00000E+000	9.99874E-003	9.46990E-003	7	...........
	162	16.3	1.93940E-002	8.08102E-006	0.00000E+000	1.99975E-002	1.94736E-002	7	...........
	163	16.4	2.93942E-002	8.14783E-006	0.00000E+000	2.99962E-002	2.92772E-002	7	...........
	164	16.5	3.93944E-002	8.22132E-006	0.00000E+000	3.99949E-002	3.94810E-002	7	...........
	165	16.6	4.95946E-002	8.30149E-006	0.00000E+000	4.99937E-002	4.96848E-002	7	...........
	166	16.7	5.93949E-002	8.39335E-006	0.00000E+000	5.99924E-002	5.94884E-002	7	...........
	167	16.8	6.93951E-002	8.49356E-006	0.00000E+000	6.99912E-002	6.92920E-002	7	...........
	168	16.9	7.93953E-002	8.60380E-006	0.00000E+000	7.99899E-002	7.94958E-002	7	...........
	169	17	8.93956E-002	8.73241E-006	0.00000E+000	8.99886E-002	8.92994E-002	7	...........
	170	17.1	9.93958E-002	8.87270E-006	0.00000E+000	9.99874E-002	9.93031E-002	7	...........
	171	17.2	1.09196E-001	9.03471E-006	0.00000E+000	1.09986E-001	1.09507E-001	7	...........
	172	17.3	1.19596E-001	9.21677E-006	0.00000E+000	1.19985E-001	1.19310E-001	7	...........
	173	17.4	1.29196E-001	9.42220E-006	0.00000E+000	1.29984E-001	1.29314E-001	7	...........
	174	17.5	1.39197E-001	9.65603E-006	0.00000E+000	1.39982E-001	1.39318E-001	7	...........
	175	17.6	1.49397E-001	9.91659E-006	0.00000E+000	1.49981E-001	1.49322E-001	7	...........
	176	17.7	1.59597E-001	1.02072E-005	0.00000E+000	1.59980E-001	1.59325E-001	7	...........
	177	17.8	1.69197E-001	1.05279E-005	0.00000E+000	1.69979E-001	1.69329E-001	7	...........
	178	17.9	1.79198E-001	1.08753E-005	0.00000E+000	1.79977E-001	1.79333E-001	7	...........
	179	18	1.89198E-001	1.12578E-005	0.00000E+000	1.89976E-001	1.89336E-001	7	...........
	180	18.1	1.99398E-001	1.16620E-005	0.00000E+000	1.99975E-001	1.99340E-001	7	...........
	181	18.2	2.09198E-001	1.21029E-005	0.00000E+000	2.10023E-001	2.09344E-001	7	...........
	182	18.3	2.19399E-001	1.25505E-005	0.00000E+000	2.20022E-001	2.19347E-001	7	...........
	183	18.4	2.29399E-001	1.30148E-005	0.00000E+000	2.30021E-001	2.29351E-001	7	...........
	184	18.5	2.39199E-001	1.35059E-005	0.00000E+000	2.40020E-001	2.39355E-001	7	...........
	185	18.6	2.49399E-001	1.40053E-005	0.00000E+000	2.50018E-001	2.49159E-001	7	...........
	186	18.7	2.59399E-001	1.45113E-005	0.00000E+000	2.60017E-001	2.59362E-001	7	...........
	187	18.8	2.69200E-001	1.50341E-005	0.00000E+000	2.70016E-001	2.69166E-001	7	...........
	188	18.9	2.79200E-001	1.55536E-005	0.00000E+000	2.80015E-001	2.79170E-001	7	...........
	189	19	2.89200E-001	1.60830E-005	0.00000E+000	2.90013E-001	2.89173E-001	7	...........
	190	19.1	2.99400E-001	1.66075E-005	0.00000E+000	3.00012E-001	2.99177E-001	7	...........
	191	19.2	3.09401E-001	1.71219E-005	0.00000E+000	3.10011E-001	3.09181E-001	7	...........
	192	19.3	3.19201E-001	1.76397E-005	0.00000E+000	3.20010E-001	3.19384E-001	7	...........
	193	19.4	3.29201E-001	1.81390E-005	0.00000E+000	3.30008E-001	3.29188E-001	7	...........
	194	19.5	3.39401E-001	1.86368E-005	0.00000E+000	3.40007E-001	3.39192E-001	7	...........
	195	19.6	3.49201E-001	1.91195E-005	0.00000E+000	3.50006E-001	3.49195E-001	7	...........
	196	19.7	3.59002E-001	1.95855E-005	0.00000E+000	3.60005E-001	3.59199E-001	7	...........
	197	19.8	3.69202E-001	2.00414E-005	0.00000E+000	3.70003E-001	3.69203E-001	7	...........
	198	19.9	3.79002E-001	2.04790E-005	0.00000E+000	3.80002E-001	3.79207E-001	7	...........
	199	20	3.89202E-001	2.09033E-005	0.00000E+000	3.90001E-001	3.89210E-001	7	...........
	200	20.1	3.99203E-001	2.13191E-005	0.00000E+000	3.99999E-001	3.99014E-001	7	...........
	201	20.2	4.09203E-001	2.17183E-005	0.00000E+000	4.09998E-001	4.09218E-001	7	...........
	202	20.3	4.19203E-001	2.21108E-005	0.00000E+000	4.19997E-001	4.19221E-001	7	...........
	203	20.4	4.29003E-001	2.24950E-005	0.00000E+000	4.29996E-001	4.29025E-001	7	...........
	204	20.5	4.39203E-001	2.28708E-005	0.00000E+000	4.39994E-001	4.39229E-001	7	...........
	205	20.6	4.49204E-001	2.32432E-005	0.00000E+000	4.49993E-001	4.49232E-001	7	...........
	206	20.7	4.59204E-001	2.36040E-005	0.00000E+000	4.59992E-001	4.59036E-001	7	...........
	207	20.8	4.69204E-001	2.39714E-005	0.00000E+000	4.69991E-001	4.69040E-001	7	...........
	208	20.9	4.79204E-001	2.43355E-005	0.00000E+000	4.79989E-001	4.78843E-001	7	...........
	209	21	4.89205E-001	2.47030E-005	0.00000E+000	4.89988E-001	4.89247E-001	7	...........
	210	21.1	4.99205E-001	2.50754E-005	0.00000E+000	4.99987E-001	4.99251E-001	7	...........
	211	21.2	5.09205E-001	2.54412E-005	0.00000E+000	5.09986E-001	5.09055E-001	7	...........
	212	21.3	5.19205E-001	2.58237E-005	0.00000E+000	5.19984E-001	5.19058E-001	7	...........
	213	21.4	5.28805E-001	2.62095E-005	0.00000E+000	5.29983E-001	5.29062E-001	7	...........
	214	21.5	5.39006E-001	2.66004E-005	0.00000E+000	5.39982E-001	5.39066E-001	7	...........
	215	21.6	5.49006E-001	2.70045E-005	0.00000E+000	5.49981E-001	5.49069E-001	7	...........
	216	21.7	5.59006E-001	2.74054E-005	0.00000E+000	5.59979E-001	5.59073E-001	7	...........
	217	21.8	5.69006E-001	2.78330E-005	0.00000E+000	5.69978E-001	5.69077E-001	7	...........
	218	21.9	5.78807E-001	2.82622E-005	0.00000E+000	5.79977E-001	5.79080E-001	7	...........
	219	22	5.89207E-001	2.86965E-005	0.00000E+000	5.89975E-001	5.89084E-001	7	...........
	220	22.1	5.98807E-001	2.91608E-005	0.00000E+000	5.99974E-001	5.99088E-001	7	...........
	221	22.2	6.09007E-001	2.96518E-005	0.00000E+000	6.10023E-001	6.08891E-001	7	...........
	222	22.3	6.19008E-001	3.01212E-005	0.00000E+000	6.20022E-001	6.19095E-001	7	...........
	223	22.4	6.29008E-001	3.06222E-005	0.00000E+000	6.30020E-001	6.29099E-001	7	...........
	224	22.5	6.39008E-001	3.11333E-005	0.00000E+000	6.40019E-001	6.38903E-001	7	...........
	225	22.6	6.48808E-001	3.16661E-005	0.00000E+000	6.50018E-001	6.49106E-001	7	...........
	226	22.7	6.59009E-001	3.22139E-005	0.00000E+000	6.60017E-001	6.58910E-001	7	...........
	227	22.8	6.69009E-001	3.27818E-005	0.00000E+000	6.70015E-001	6.68914E-001	7	...........
	228	22.9	6.79009E-001	3.33697E-005	0.00000E+000	6.80014E-001	6.78917E-001	7	...........
	229	23	6.89009E-001	3.39727E-005	0.00000E+000	6.90013E-001	6.88921E-001	7	...........
	230	23.1	6.99009E-001	3.46057E-005	0.00000E+000	7.00012E-001	6.98925E-001	7	...........
	231	23.2	7.09010E-001	3.52504E-005	0.00000E+000	7.10010E-001	7.08928E-001	7	...........
	232	23.3	7.18810E-001	3.59201E-005	0.00000E+000	7.20009E-001	7.18732E-001	7	...........
	233	23.4	7.29010E-001	3.66216E-005	0.00000E+000	7.30008E-001	7.28936E-001	7	...........
	234	23.5	7.39010E-001	3.73398E-005	0.00000E+000	7.40007E-001	7.38940E-001	7	...........
	235	23.6	7.48811E-001	3.80931E-005	0.00000E+000	7.50005E-001	7.48943E-001	7	...........
	236	23.7	7.58811E-001	3.88748E-005	0.00000E+000	7.60004E-001	7.58947E-001	7	...........
	237	23.8	7.69011E-001	3.96798E-005	0.00000E+000	7.70003E-001	7.68951E-001	7	...........
	238	23.9	7.79011E-001	4.05333E-005	0.00000E+000	7.80001E-001	7.78954E-001	7	...........
	239	24	7.89011E-001	4.14101E-005	0.00000E+000	7.90000E-001	7.88958E-001	7	...........
	240	24.1	7.99012E-001	4.23288E-005	0.00000E+000	7.99999E-001	7.98762E-001	7	...........
CURVE2	TABLE
	Pt	T	Vf	Im	Vu	Sig	Ach	IERange	Over
	#	s	V vs. Ref.	A	V	V	V	#	bits
	241	24.2	7.89611E-001	2.85194E-005	0.00000E+000	7.90000E-001	7.88758E-001	7	...........
	242	24.3	7.79611E-001	2.30896E-005	0.00000E+000	7.80001E-001	7.78954E-001	7	...........
	243	24.4	7.69411E-001	1.95003E-005	0.00000E+000	7.70003E-001	7.68951E-001	7	...........
	244	24.5	7.59411E-001	1.67528E-005	0.00000E+000	7.60004E-001	7.58947E-001	7	...........
	245	24.6	7.49411E-001	1.45681E-005	0.00000E+000	7.50005E-001	7.48943E-001	7	...........
	246	24.7	7.39410E-001	1.27710E-005	0.00000E+000	7.40007E-001	7.38940E-001	7	...........
	247	24.8	7.29410E-001	1.12611E-005	0.00000E+000	7.30008E-001	7.28936E-001	7	...........
	248	24.9	7.19410E-001	9.95667E-006	0.00000E+000	7.20009E-001	7.18932E-001	7	...........
	249	25	7.09410E-001	8.83262E-006	0.00000E+000	7.10010E-001	7.08928E-001	7	...........
	250	25.1	6.99409E-001	7.84051E-006	0.00000E+000	7.00012E-001	6.98925E-001	7	...........
	251	25.2	6.89409E-001	6.96031E-006	0.00000E+000	6.90013E-001	6.88721E-001	7	...........
	252	25.3	6.79409E-001	6.18366E-006	0.00000E+000	6.80014E-001	6.78917E-001	7	...........
	253	25.4	6.69409E-001	5.47382E-006	0.00000E+000	6.70015E-001	6.69114E-001	7	...........
	254	25.5	6.59409E-001	4.83747E-006	0.00000E+000	6.60017E-001	6.58910E-001	7	...........
	255	25.6	6.49408E-001	4.25456E-006	0.00000E+000	6.50018E-001	6.49106E-001	7	...........
	256	25.7	6.39408E-001	3.72009E-006	0.00000E+000	6.40019E-001	6.39103E-001	7	...........
	257	25.8	6.29408E-001	3.23239E-006	0.00000E+000	6.30020E-001	6.29099E-001	7	...........
	258	25.9	6.19408E-001	2.77809E-006	0.00000E+000	6.20022E-001	6.19095E-001	7	...........
	259	26	6.09607E-001	2.36054E-006	0.00000E+000	6.10023E-001	6.09092E-001	7	...........
	260	26.1	5.99607E-001	1.97138E-006	0.00000E+000	6.00024E-001	5.98888E-001	7	...........
	261	26.2	5.89607E-001	1.58222E-006	0.00000E+000	5.89975E-001	5.89084E-001	7	...........
	262	26.3	5.79407E-001	1.26154E-006	0.00000E+000	5.79977E-001	5.78880E-001	7	...........
	263	26.4	5.69606E-001	9.39189E-007	0.00000E+000	5.69978E-001	5.69077E-001	7	...........
	264	26.5	5.59406E-001	6.36880E-007	0.00000E+000	5.59979E-001	5.58873E-001	7	...........
	265	26.6	5.49606E-001	3.49603E-007	0.00000E+000	5.49981E-001	5.49069E-001	7	...........
	266	26.7	5.39606E-001	7.23479E-008	0.00000E+000	5.39982E-001	5.38866E-001	7	...........
	267	26.8	5.29406E-001	-1.83195E-007	0.00000E+000	5.29983E-001	5.29062E-001	7	...........
	268	26.9	5.19405E-001	-4.40408E-007	0.00000E+000	5.19984E-001	5.19058E-001	7	...........
	269	27	5.09805E-001	-6.72567E-007	0.00000E+000	5.09986E-001	5.09055E-001	7	...........
	270	27.1	4.99405E-001	-9.01387E-007	0.00000E+000	4.99987E-001	4.99051E-001	7	...........
	271	27.2	4.89605E-001	-1.12018E-006	0.00000E+000	4.89988E-001	4.89247E-001	7	...........
	272	27.3	4.79604E-001	-1.33397E-006	0.00000E+000	4.79989E-001	4.79244E-001	7	...........
	273	27.4	4.69604E-001	-1.53607E-006	0.00000E+000	4.69991E-001	4.69240E-001	7	...........
	274	27.5	4.59604E-001	-1.73649E-006	0.00000E+000	4.59992E-001	4.59036E-001	7	...........
	275	27.6	4.49404E-001	-1.92857E-006	0.00000E+000	4.49993E-001	4.49032E-001	7	...........
	276	27.7	4.39604E-001	-2.11730E-006	0.00000E+000	4.39994E-001	4.39229E-001	7	...........
	277	27.8	4.29603E-001	-2.29936E-006	0.00000E+000	4.29996E-001	4.29225E-001	7	...........
	278	27.9	4.19403E-001	-2.47974E-006	0.00000E+000	4.19997E-001	4.19221E-001	7	...........
	279	28	4.09603E-001	-2.66012E-006	0.00000E+000	4.09998E-001	4.09218E-001	7	...........
	280	28.1	3.99803E-001	-2.82714E-006	0.00000E+000	3.99999E-001	3.99214E-001	7	...........
	281	28.2	3.89602E-001	-3.00085E-006	0.00000E+000	3.90001E-001	3.89410E-001	7	...........
	282	28.3	3.79602E-001	-3.16620E-006	0.00000E+000	3.80002E-001	3.79207E-001	7	...........
	283	28.4	3.69602E-001	-3.33656E-006	0.00000E+000	3.70003E-001	3.69203E-001	7	...........
	284	28.5	3.59802E-001	-3.50191E-006	0.00000E+000	3.60005E-001	3.59199E-001	7	...........
	285	28.6	3.49801E-001	-3.66392E-006	0.00000E+000	3.50006E-001	3.48995E-001	7	...........
	286	28.7	3.39801E-001	-3.82593E-006	0.00000E+000	3.40007E-001	3.39392E-001	7	...........
	287	28.8	3.29801E-001	-3.99128E-006	0.00000E+000	3.30008E-001	3.29188E-001	7	...........
	288	28.9	3.19801E-001	-4.15162E-006	0.00000E+000	3.20010E-001	3.18984E-001	7	...........
	289	29	3.09801E-001	-4.31363E-006	0.00000E+000	3.10011E-001	3.09381E-001	7	...........
	290	29.1	2.99800E-001	-4.47063E-006	0.00000E+000	3.00012E-001	2.99377E-001	7	...........
	291	29.2	2.89600E-001	-4.62930E-006	0.00000E+000	2.90013E-001	2.89173E-001	7	...........
	292	29.3	2.79600E-001	-4.78630E-006	0.00000E+000	2.80015E-001	2.79170E-001	7	...........
	293	29.4	2.69600E-001	-4.93829E-006	0.00000E+000	2.70016E-001	2.69366E-001	7	...........
	294	29.5	2.59599E-001	-5.09028E-006	0.00000E+000	2.60017E-001	2.59362E-001	7	...........
	295	29.6	2.49599E-001	-5.23392E-006	0.00000E+000	2.50018E-001	2.49159E-001	7	...........
	296	29.7	2.39799E-001	-5.37756E-006	0.00000E+000	2.40020E-001	2.39355E-001	7	...........
	297	29.8	2.29599E-001	-5.51786E-006	0.00000E+000	2.30021E-001	2.29351E-001	7	...........
	298	29.9	2.19599E-001	-5.64646E-006	0.00000E+000	2.20022E-001	2.19347E-001	7	...........
	299	30	2.09798E-001	-5.77507E-006	0.00000E+000	2.10023E-001	2.09344E-001	7	...........
	300	30.1	1.99598E-001	-5.89031E-006	0.00000E+000	2.00025E-001	1.99340E-001	7	...........
	301	30.2	1.89798E-001	-6.00556E-006	0.00000E+000	1.90026E-001	1.89336E-001	7	...........
	302	30.3	1.79998E-001	-6.12582E-006	0.00000E+000	1.79977E-001	1.79333E-001	7	...........
	303	30.4	1.69597E-001	-6.21267E-006	0.00000E+000	1.69979E-001	1.69329E-001	7	...........
	304	30.5	1.59797E-001	-6.30954E-006	0.00000E+000	1.59980E-001	1.59325E-001	7	...........
	305	30.6	1.49597E-001	-6.39973E-006	0.00000E+000	1.49981E-001	1.49322E-001	7	...........
	306	30.7	1.39797E-001	-6.48324E-006	0.00000E+000	1.39982E-001	1.39118E-001	7	...........
	307	30.8	1.29796E-001	-6.56007E-006	0.00000E+000	1.29984E-001	1.29314E-001	7	...........
	308	30.9	1.19996E-001	-6.63022E-006	0.00000E+000	1.19985E-001	1.19310E-001	7	...........
	309	31	1.09796E-001	-6.70371E-006	0.00000E+000	1.09986E-001	1.09307E-001	7	...........
	310	31.1	9.97958E-002	-6.77052E-006	0.00000E+000	9.99874E-002	9.93031E-002	7	...........
	311	31.2	8.97956E-002	-6.83232E-006	0.00000E+000	8.99886E-002	8.92994E-002	7	...........
	312	31.3	7.97953E-002	-6.89745E-006	0.00000E+000	7.99899E-002	7.94958E-002	7	...........
	313	31.4	6.97951E-002	-6.95424E-006	0.00000E+000	6.99912E-002	6.94921E-002	7	...........
	314	31.5	5.99949E-002	-7.01604E-006	0.00000E+000	5.99924E-002	5.94884E-002	7	...........
	315	31.6	4.95946E-002	-7.07617E-006	0.00000E+000	4.99937E-002	4.94847E-002	7	...........
	316	31.7	3.99944E-002	-7.13462E-006	0.00000E+000	3.99949E-002	3.94810E-002	7	...........
	317	31.8	2.97942E-002	-7.19475E-006	0.00000E+000	2.99962E-002	2.94773E-002	7	...........
	318	31.9	1.99940E-002	-7.25822E-006	0.00000E+000	1.99975E-002	1.94736E-002	7	...........
	319	32	9.99375E-003	-7.32002E-006	0.00000E+000	9.99874E-003	9.46990E-003	7	...........
	320	32.1	-6.48014E-006	-7.39017E-006	0.00000E+000	0.00000E+000	-5.33797E-004	7	...........
	321	32.2	-1.02067E-002	-7.45531E-006	0.00000E+000	-9.99874E-003	-1.05375E-002	7	...........
	322	32.3	-2.00069E-002	-7.53046E-006	0.00000E+000	-1.99975E-002	-2.05412E-002	7	...........
	323	32.4	-3.02072E-002	-7.61063E-006	0.00000E+000	-2.99962E-002	-3.07450E-002	7	...........
	324	32.5	-4.02074E-002	-7.68580E-006	0.00000E+000	-3.99949E-002	-4.03485E-002	7	...........
	325	32.6	-5.02076E-002	-7.78267E-006	0.00000E+000	-4.99937E-002	-5.03522E-002	7	...........
	326	32.7	-6.00078E-002	-7.87453E-006	0.00000E+000	-5.99924E-002	-6.05560E-002	7	...........
	327	32.8	-7.02081E-002	-7.97975E-006	0.00000E+000	-6.99912E-002	-7.05597E-002	7	...........
	328	32.9	-8.02083E-002	-8.09834E-006	0.00000E+000	-7.99899E-002	-8.03633E-002	7	...........
	329	33	-9.00085E-002	-8.22360E-006	0.00000E+000	-8.99886E-002	-9.05671E-002	7	...........
	330	33.1	-1.00009E-001	-8.36223E-006	0.00000E+000	-9.99874E-002	-1.00371E-001	7	...........
	331	33.2	-1.10209E-001	-8.51255E-006	0.00000E+000	-1.09986E-001	-1.10374E-001	7	...........
	332	33.3	-1.20009E-001	-8.68291E-006	0.00000E+000	-1.19985E-001	-1.20378E-001	7	...........
	333	33.4	-1.30209E-001	-8.87499E-006	0.00000E+000	-1.29984E-001	-1.30382E-001	7	...........
	334	33.5	-1.40210E-001	-9.07207E-006	0.00000E+000	-1.39982E-001	-1.40385E-001	7	...........
	335	33.6	-1.49810E-001	-9.30590E-006	0.00000E+000	-1.49981E-001	-1.50389E-001	7	...........
	336	33.7	-1.60010E-001	-9.55476E-006	0.00000E+000	-1.59980E-001	-1.60393E-001	7	...........
	337	33.8	-1.70010E-001	-9.82701E-006	0.00000E+000	-1.69979E-001	-1.70397E-001	7	...........
	338	33.9	-1.80011E-001	-1.01327E-005	0.00000E+000	-1.79977E-001	-1.80600E-001	7	...........
	339	34	-1.89811E-001	-1.04617E-005	0.00000E+000	-1.89976E-001	-1.90404E-001	7	...........
	340	34.1	-2.00211E-001	-1.08258E-005	0.00000E+000	-1.99975E-001	-2.00208E-001	7	...........
	341	34.2	-2.10211E-001	-1.12116E-005	0.00000E+000	-2.09973E-001	-2.10411E-001	7	...........
	342	34.3	-2.20211E-001	-1.16475E-005	0.00000E+000	-2.20022E-001	-2.20415E-001	7	...........
	343	34.4	-2.30012E-001	-1.20935E-005	0.00000E+000	-2.30021E-001	-2.30419E-001	7	...........
	344	34.5	-2.40012E-001	-1.25745E-005	0.00000E+000	-2.40020E-001	-2.40422E-001	7	...........
	345	34.6	-2.50012E-001	-1.30839E-005	0.00000E+000	-2.50018E-001	-2.50226E-001	7	...........
	346	34.7	-2.60212E-001	-1.36217E-005	0.00000E+000	-2.60017E-001	-2.60430E-001	7	...........
	347	34.8	-2.70013E-001	-1.41846E-005	0.00000E+000	-2.70016E-001	-2.70233E-001	7	...........
	348	34.9	-2.79813E-001	-1.47742E-005	0.00000E+000	-2.80015E-001	-2.80237E-001	7	...........
	349	35	-2.90013E-001	-1.53805E-005	0.00000E+000	-2.90013E-001	-2.90241E-001	7	...........
	350	35.1	-2.99813E-001	-1.60068E-005	0.00000E+000	-3.00012E-001	-3.00245E-001	7	...........
	351	35.2	-3.10014E-001	-1.66448E-005	0.00000E+000	-3.10011E-001	-3.10248E-001	7	...........
	352	35.3	-3.19814E-001	-1.72929E-005	0.00000E+000	-3.20010E-001	-3.20252E-001	7	...........
	353	35.4	-3.30014E-001	-1.79526E-005	0.00000E+000	-3.30008E-001	-3.30256E-001	7	...........
	354	35.5	-3.40014E-001	-1.86157E-005	0.00000E+000	-3.40007E-001	-3.40259E-001	7	...........
	355	35.6	-3.49814E-001	-1.92821E-005	0.00000E+000	-3.50006E-001	-3.50263E-001	7	...........
	356	35.7	-3.60015E-001	-1.99485E-005	0.00000E+000	-3.60005E-001	-3.60267E-001	7	...........
	357	35.8	-3.70015E-001	-2.06066E-005	0.00000E+000	-3.70003E-001	-3.70070E-001	7	...........
	358	35.9	-3.79815E-001	-2.12663E-005	0.00000E+000	-3.80002E-001	-3.80074E-001	7	...........
	359	36	-3.89815E-001	-2.19143E-005	0.00000E+000	-3.90001E-001	-3.90078E-001	7	...........
	360	36.1	-3.99816E-001	-2.25574E-005	0.00000E+000	-3.99999E-001	-4.00081E-001	7	...........
	361	36.2	-4.09816E-001	-2.31954E-005	0.00000E+000	-4.09998E-001	-4.10285E-001	7	...........
	362	36.3	-4.19816E-001	-2.38201E-005	0.00000E+000	-4.19997E-001	-4.20089E-001	7	...........
	363	36.4	-4.29816E-001	-2.44414E-005	0.00000E+000	-4.29996E-001	-4.30293E-001	7	...........
	364	36.5	-4.39817E-001	-2.50493E-005	0.00000E+000	-4.39994E-001	-4.40096E-001	7	...........
	365	36.6	-4.49817E-001	-2.56540E-005	0.00000E+000	-4.49993E-001	-4.50300E-001	7	...........
	366	36.7	-4.59817E-001	-2.62586E-005	0.00000E+000	-4.59992E-001	-4.59904E-001	7	...........
	367	36.8	-4.70017E-001	-2.68482E-005	0.00000E+000	-4.69991E-001	-4.70107E-001	7	...........
	368	36.9	-4.79817E-001	-2.74428E-005	0.00000E+000	-4.79989E-001	-4.80111E-001	7	...........
	369	37	-4.89818E-001	-2.80390E-005	0.00000E+000	-4.89988E-001	-4.90115E-001	7	...........
	370	37.1	-4.99818E-001	-2.86303E-005	0.00000E+000	-4.99987E-001	-5.00118E-001	7	...........
	371	37.2	-5.09618E-001	-2.92349E-005	0.00000E+000	-5.09986E-001	-5.09922E-001	7	...........
	372	37.3	-5.19818E-001	-2.98345E-005	0.00000E+000	-5.19984E-001	-5.20126E-001	7	...........
	373	37.4	-5.29619E-001	-3.04525E-005	0.00000E+000	-5.29983E-001	-5.30130E-001	7	...........
	374	37.5	-5.39819E-001	-3.10771E-005	0.00000E+000	-5.39982E-001	-5.40133E-001	7	...........
	375	37.6	-5.49819E-001	-3.17101E-005	0.00000E+000	-5.49981E-001	-5.49937E-001	7	...........
	376	37.7	-5.59819E-001	-3.23632E-005	0.00000E+000	-5.59979E-001	-5.59941E-001	7	...........
	377	37.8	-5.69619E-001	-3.30196E-005	0.00000E+000	-5.69978E-001	-5.69944E-001	7	...........
	378	37.9	-5.79620E-001	-3.37061E-005	0.00000E+000	-5.79977E-001	-5.80148E-001	7	...........
	379	38	-5.89620E-001	-3.44075E-005	0.00000E+000	-5.89975E-001	-5.90152E-001	7	...........
	380	38.1	-5.99620E-001	-3.51224E-005	0.00000E+000	-5.99974E-001	-5.99955E-001	7	...........
	381	38.2	-6.09620E-001	-3.58706E-005	0.00000E+000	-6.09973E-001	-6.09959E-001	7	...........
	382	38.3	-6.19621E-001	-3.66590E-005	0.00000E+000	-6.20022E-001	-6.20163E-001	7	...........
	383	38.4	-6.29821E-001	-3.74356E-005	0.00000E+000	-6.30020E-001	-6.29966E-001	7	...........
	384	38.5	-6.39821E-001	-3.82490E-005	0.00000E+000	-6.40019E-001	-6.39970E-001	7	...........
	385	38.6	-6.49821E-001	-3.90892E-005	0.00000E+000	-6.50018E-001	-6.49974E-001	7	...........
	386	38.7	-6.59622E-001	-3.99760E-005	0.00000E+000	-6.60017E-001	-6.59978E-001	7	...........
	387	38.8	-6.69622E-001	-4.08763E-005	0.00000E+000	-6.70015E-001	-6.70181E-001	7	...........
	388	38.9	-6.79822E-001	-4.18233E-005	0.00000E+000	-6.80014E-001	-6.79985E-001	7	...........
	389	39	-6.89822E-001	-4.28070E-005	0.00000E+000	-6.90013E-001	-6.89789E-001	7	...........
	390	39.1	-6.99622E-001	-4.38209E-005	0.00000E+000	-7.00012E-001	-6.99792E-001	7	...........
	391	39.2	-7.09823E-001	-4.48881E-005	0.00000E+000	-7.10010E-001	-7.09996E-001	7	...........
	392	39.3	-7.19623E-001	-5.70414E-005	0.00000E+000	-7.20009E-001	-7.20000E-001	8	...........
	393	39.4	-7.29623E-001	-4.24333E-005	0.00000E+000	-7.30008E-001	-7.29803E-001	8	...........
	394	39.5	-7.39623E-001	-5.05638E-005	0.00000E+000	-7.40007E-001	-7.39807E-001	8	...........
	395	39.6	-7.49624E-001	-5.11815E-005	0.00000E+000	-7.50005E-001	-7.50011E-001	8	...........
	396	39.7	-7.59624E-001	-5.25338E-005	0.00000E+000	-7.60004E-001	-7.59814E-001	8	...........
	397	39.8	-7.69424E-001	-5.39862E-005	0.00000E+000	-7.70003E-001	-7.70018E-001	8	...........
	398	39.9	-7.79424E-001	-5.54721E-005	0.00000E+000	-7.80001E-001	-7.79822E-001	8	...........
	399	40	-7.89624E-001	-5.70247E-005	0.00000E+000	-7.90000E-001	-7.89825E-001	8	...........
	400	40.1	-7.99625E-001	-5.86775E-005	0.00000E+000	-7.99999E-001	-7.99829E-001	8	...........
	401	40.2	-7.90424E-001	-3.71243E-005	0.00000E+000	-7.90000E-001	-7.89825E-001	8	...........
	402	40.3	-7.80024E-001	-3.08483E-005	0.00000E+000	-7.80001E-001	-7.79822E-001	7	...........
	403	40.4	-7.69824E-001	-2.80257E-005	0.00000E+000	-7.70003E-001	-7.70018E-001	7	...........
	404	40.5	-7.60024E-001	-2.36547E-005	0.00000E+000	-7.60004E-001	-7.59814E-001	7	...........
	405	40.6	-7.49824E-001	-2.07218E-005	0.00000E+000	-7.50005E-001	-7.50011E-001	7	...........
	406	40.7	-7.40023E-001	-1.82365E-005	0.00000E+000	-7.40007E-001	-7.40007E-001	7	...........
	407	40.8	-7.30223E-001	-1.61087E-005	0.00000E+000	-7.30008E-001	-7.30003E-001	7	...........
	408	40.9	-7.20023E-001	-1.42948E-005	0.00000E+000	-7.20009E-001	-7.20000E-001	7	...........
	409	41	-7.10023E-001	-1.27014E-005	0.00000E+000	-7.10010E-001	-7.09996E-001	7	...........
	410	41.1	-7.00022E-001	-1.13018E-005	0.00000E+000	-7.00012E-001	-6.99992E-001	7	...........
	411	41.2	-6.90022E-001	-1.00658E-005	0.00000E+000	-6.90013E-001	-6.89989E-001	7	...........
	412	41.3	-6.80022E-001	-8.94347E-006	0.00000E+000	-6.80014E-001	-6.79985E-001	7	...........
	413	41.4	-6.70222E-001	-7.94301E-006	0.00000E+000	-6.70015E-001	-6.69981E-001	7	...........
	414	41.5	-6.60022E-001	-7.04109E-006	0.00000E+000	-6.60017E-001	-6.59978E-001	7	...........
	415	41.6	-6.50021E-001	-6.20766E-006	0.00000E+000	-6.50018E-001	-6.50174E-001	7	...........
	416	41.7	-6.40221E-001	-5.46107E-006	0.00000E+000	-6.40019E-001	-6.39970E-001	7	...........
	417	41.8	-6.30221E-001	-4.76292E-006	0.00000E+000	-6.30020E-001	-6.29966E-001	7	...........
	418	41.9	-6.20221E-001	-4.12657E-006	0.00000E+000	-6.20022E-001	-6.20163E-001	7	...........
	419	42	-6.10220E-001	-3.51694E-006	0.00000E+000	-6.09973E-001	-6.09959E-001	7	...........
	420	42.1	-5.99820E-001	-2.97245E-006	0.00000E+000	-5.99974E-001	-5.99955E-001	7	...........
	421	42.2	-5.90220E-001	-2.46805E-006	0.00000E+000	-5.89975E-001	-5.89952E-001	7	...........
	422	42.3	-5.80220E-001	-1.98201E-006	0.00000E+000	-5.79977E-001	-5.79948E-001	7	...........
	423	42.4	-5.70019E-001	-1.53273E-006	0.00000E+000	-5.69978E-001	-5.69944E-001	7	...........
	424	42.5	-5.60219E-001	-1.11183E-006	0.00000E+000	-5.59979E-001	-5.60141E-001	7	...........
	425	42.6	-5.50019E-001	-7.04301E-007	0.00000E+000	-5.49981E-001	-5.49937E-001	7	...........
	426	42.7	-5.40219E-001	-3.28503E-007	0.00000E+000	-5.39982E-001	-5.39933E-001	7	...........
	427	42.8	-5.30219E-001	3.39330E-008	0.00000E+000	-5.29983E-001	-5.30130E-001	7	...........
	428	42.9	-5.20218E-001	3.79667E-007	0.00000E+000	-5.19984E-001	-5.19926E-001	7	...........
	429	43	-5.10418E-001	7.02018E-007	0.00000E+000	-5.09986E-001	-5.09922E-001	7	...........
	430	43.1	-5.00218E-001	1.02103E-006	0.00000E+000	-4.99987E-001	-5.00118E-001	7	...........
	431	43.2	-4.90418E-001	1.31833E-006	0.00000E+000	-4.89988E-001	-4.90115E-001	7	...........
	432	43.3	-4.80217E-001	1.60894E-006	0.00000E+000	-4.79989E-001	-4.80111E-001	7	...........
	433	43.4	-4.70217E-001	1.88954E-006	0.00000E+000	-4.69991E-001	-4.70107E-001	7	...........
	434	43.5	-4.60017E-001	2.15510E-006	0.00000E+000	-4.59992E-001	-4.60104E-001	7	...........
	435	43.6	-4.50017E-001	2.41900E-006	0.00000E+000	-4.49993E-001	-4.50100E-001	7	...........
	436	43.7	-4.40417E-001	2.67120E-006	0.00000E+000	-4.39994E-001	-4.40296E-001	7	...........
	437	43.8	-4.30216E-001	2.91505E-006	0.00000E+000	-4.29996E-001	-4.30293E-001	7	...........
	438	43.9	-4.20216E-001	3.15723E-006	0.00000E+000	-4.19997E-001	-4.20089E-001	7	...........
	439	44	-4.10416E-001	3.38772E-006	0.00000E+000	-4.09998E-001	-4.10285E-001	7	...........
	440	44.1	-4.00216E-001	3.61487E-006	0.00000E+000	-3.99999E-001	-4.00081E-001	7	...........
	441	44.2	-3.90415E-001	3.83701E-006	0.00000E+000	-3.90001E-001	-3.90078E-001	7	...........
	442	44.3	-3.80415E-001	4.05414E-006	0.00000E+000	-3.80002E-001	-3.80074E-001	7	...........
	443	44.4	-3.70215E-001	4.26792E-006	0.00000E+000	-3.70003E-001	-3.70270E-001	7	...........
	444	44.5	-3.60415E-001	4.47002E-006	0.00000E+000	-3.60005E-001	-3.60267E-001	7	...........
	445	44.6	-3.50414E-001	4.67546E-006	0.00000E+000	-3.50006E-001	-3.50463E-001	7	...........
	446	44.7	-3.40414E-001	4.87087E-006	0.00000E+000	-3.40007E-001	-3.40259E-001	7	...........
	447	44.8	-3.30414E-001	5.06128E-006	0.00000E+000	-3.30008E-001	-3.30256E-001	7	...........
	448	44.9	-3.20214E-001	5.24834E-006	0.00000E+000	-3.20010E-001	-3.20452E-001	7	...........
	449	45	-3.10614E-001	5.42705E-006	0.00000E+000	-3.10011E-001	-3.10448E-001	7	...........
	450	45.1	-3.00413E-001	5.60243E-006	0.00000E+000	-3.00012E-001	-3.00245E-001	7	...........
	451	45.2	-2.90413E-001	5.76778E-006	0.00000E+000	-2.90013E-001	-2.90441E-001	7	...........
	452	45.3	-2.80413E-001	5.92478E-006	0.00000E+000	-2.80015E-001	-2.80237E-001	7	...........
	453	45.4	-2.70413E-001	6.08011E-006	0.00000E+000	-2.70016E-001	-2.70233E-001	7	...........
	454	45.5	-2.60612E-001	6.22375E-006	0.00000E+000	-2.60017E-001	-2.60430E-001	7	...........
	455	45.6	-2.50412E-001	6.36070E-006	0.00000E+000	-2.50018E-001	-2.50226E-001	7	...........
	456	45.7	-2.40212E-001	6.48931E-006	0.00000E+000	-2.40020E-001	-2.40422E-001	7	...........
	457	45.8	-2.30612E-001	6.60455E-006	0.00000E+000	-2.30021E-001	-2.30219E-001	7	...........
	458	45.9	-2.20611E-001	6.71646E-006	0.00000E+000	-2.20022E-001	-2.20415E-001	7	...........
	459	46	-2.10411E-001	6.83003E-006	0.00000E+000	-2.09973E-001	-2.10211E-001	7	...........
	460	46.1	-2.00411E-001	6.91855E-006	0.00000E+000	-1.99975E-001	-2.00408E-001	7	...........
	461	46.2	-1.90411E-001	7.00541E-006	0.00000E+000	-1.89976E-001	-1.90204E-001	7	...........
	462	46.3	-1.80411E-001	7.08223E-006	0.00000E+000	-1.79977E-001	-1.80400E-001	7	...........
	463	46.4	-1.70410E-001	7.15739E-006	0.00000E+000	-1.69979E-001	-1.70397E-001	7	...........
	464	46.5	-1.60410E-001	7.22420E-006	0.00000E+000	-1.59980E-001	-1.60193E-001	7	...........
	465	46.6	-1.50410E-001	7.28433E-006	0.00000E+000	-1.49981E-001	-1.50389E-001	7	...........
	466	46.7	-1.40210E-001	7.34279E-006	0.00000E+000	-1.39982E-001	-1.40385E-001	7	...........
	467	46.8	-1.30609E-001	7.39456E-006	0.00000E+000	-1.29984E-001	-1.30382E-001	7	...........
	468	46.9	-1.20609E-001	7.44300E-006	0.00000E+000	-1.19985E-001	-1.20578E-001	7	...........
	469	47	-1.10609E-001	7.48977E-006	0.00000E+000	-1.09986E-001	-1.10174E-001	7	...........
	470	47.1	-1.00409E-001	7.52985E-006	0.00000E+000	-9.99874E-002	-1.00171E-001	7	...........
	471	47.2	-9.04085E-002	7.57328E-006	0.00000E+000	-8.99886E-002	-9.03670E-002	7	...........
	472	47.3	-8.06083E-002	7.61336E-006	0.00000E+000	-7.99899E-002	-8.03633E-002	7	...........
	473	47.4	-7.06081E-002	7.65345E-006	0.00000E+000	-6.99912E-002	-7.03596E-002	7	...........
	474	47.5	-6.06079E-002	7.69353E-006	0.00000E+000	-5.99924E-002	-6.03559E-002	7	...........
	475	47.6	-5.06076E-002	7.73028E-006	0.00000E+000	-4.99937E-002	-5.03522E-002	7	...........
	476	47.7	-4.04074E-002	7.77036E-006	0.00000E+000	-3.99949E-002	-4.05486E-002	7	...........
	477	47.8	-3.06072E-002	7.81212E-006	0.00000E+000	-2.99962E-002	-3.03448E-002	7	...........
	478	47.9	-2.06069E-002	7.85220E-006	0.00000E+000	-1.99975E-002	-2.03411E-002	7	...........
	479	48	-1.04067E-002	7.90398E-006	0.00000E+000	-9.99874E-003	-1.07376E-002	7	...........
	480	48.1	-8.06498E-004	7.94741E-006	0.00000E+000	0.00000E+000	-5.33797E-004	7	...........
	481	48.2	9.39373E-003	8.00419E-006	0.00000E+000	9.99874E-003	9.46990E-003	7	...........
	482	48.3	1.93940E-002	8.06098E-006	0.00000E+000	1.99975E-002	1.94736E-002	7	...........
	483	48.4	2.91942E-002	8.12111E-006	0.00000E+000	2.99962E-002	2.94773E-002	7	...........
	484	48.5	3.91944E-002	8.18959E-006	0.00000E+000	3.99949E-002	3.94810E-002	7	...........
	485	48.6	4.93946E-002	8.26141E-006	0.00000E+000	4.99937E-002	4.92846E-002	7	...........
	486	48.7	5.93949E-002	8.34993E-006	0.00000E+000	5.99924E-002	5.92883E-002	7	...........
	487	48.8	6.93951E-002	8.44513E-006	0.00000E+000	6.99912E-002	6.92920E-002	7	...........
	488	48.9	7.93953E-002	8.54701E-006	0.00000E+000	7.99899E-002	7.94958E-002	7	...........
	489	49	8.93956E-002	8.66727E-006	0.00000E+000	8.99886E-002	8.92994E-002	7	...........
	490	49.1	9.93958E-002	8.79754E-006	0.00000E+000	9.99874E-002	9.93031E-002	7	...........
	491	49.2	1.09396E-001	8.94619E-006	0.00000E+000	1.09986E-001	1.09507E-001	7	...........
	492	49.3	1.19196E-001	9.11823E-006	0.00000E+000	1.19985E-001	1.19310E-001	7	...........
	493	49.4	1.29396E-001	9.30529E-006	0.00000E+000	1.29984E-001	1.29314E-001	7	...........
	494	49.5	1.39397E-001	9.52576E-006	0.00000E+000	1.39982E-001	1.39318E-001	7	...........
	495	49.6	1.49197E-001	9.76961E-006	0.00000E+000	1.49981E-001	1.49522E-001	7	...........
	496	49.7	1.59397E-001	1.00435E-005	0.00000E+000	1.59980E-001	1.59525E-001	7	...........
	497	49.8	1.69197E-001	1.03475E-005	0.00000E+000	1.69979E-001	1.69329E-001	7	...........
	498	49.9	1.79198E-001	1.06815E-005	0.00000E+000	1.79977E-001	1.79333E-001	7	...........
	499	50	1.89398E-001	1.10640E-005	0.00000E+000	1.90026E-001	1.89336E-001	7	...........
	500	50.1	1.99598E-001	1.14482E-005	0.00000E+000	2.00025E-001	1.99340E-001	7	...........
	501	50.2	2.09398E-001	1.18691E-005	0.00000E+000	2.10023E-001	2.09344E-001	7	...........
	502	50.3	2.19399E-001	1.23217E-005	0.00000E+000	2.20022E-001	2.19147E-001	7	...........
	503	50.4	2.29399E-001	1.27877E-005	0.00000E+000	2.30021E-001	2.29151E-001	7	...........
	504	50.5	2.39599E-001	1.32871E-005	0.00000E+000	2.40020E-001	2.39355E-001	7	...........
	505	50.6	2.49399E-001	1.37915E-005	0.00000E+000	2.50018E-001	2.49159E-001	7	...........
	506	50.7	2.59199E-001	1.43109E-005	0.00000E+000	2.60017E-001	2.59162E-001	7	...........
	507	50.8	2.69200E-001	1.48454E-005	0.00000E+000	2.70016E-001	2.69366E-001	7	...........
	508	50.9	2.79200E-001	1.53832E-005	0.00000E+000	2.80015E-001	2.79170E-001	7	...........
	509	51	2.89200E-001	1.59260E-005	0.00000E+000	2.90013E-001	2.89373E-001	7	...........
	510	51.1	2.99200E-001	1.64688E-005	0.00000E+000	3.00012E-001	2.99177E-001	7	...........
	511	51.2	3.09201E-001	1.70050E-005	0.00000E+000	3.10011E-001	3.09381E-001	7	...........
	512	51.3	3.19201E-001	1.75394E-005	0.00000E+000	3.20010E-001	3.19184E-001	7	...........
	513	51.4	3.29201E-001	1.80605E-005	0.00000E+000	3.30008E-001	3.29188E-001	7	...........
	514	51.5	3.39201E-001	1.85766E-005	0.00000E+000	3.40007E-001	3.39392E-001	7	...........
	515	51.6	3.49201E-001	1.90777E-005	0.00000E+000	3.50006E-001	3.49396E-001	7	...........
	516	51.7	3.59202E-001	1.95621E-005	0.00000E+000	3.60005E-001	3.59199E-001	7	...........
	517	51.8	3.69002E-001	2.00364E-005	0.00000E+000	3.70003E-001	3.69203E-001	7	...........
	518	51.9	3.79202E-001	2.04924E-005	0.00000E+000	3.80002E-001	3.79207E-001	7	...........
	519	52	3.89202E-001	2.09300E-005	0.00000E+000	3.90001E-001	3.89210E-001	7	...........
	520	52.1	3.99403E-001	2.13642E-005	0.00000E+000	3.99999E-001	3.99014E-001	7	...........
	521	52.2	4.09203E-001	2.17751E-005	0.00000E+000	4.09998E-001	4.09218E-001	7	...........
	522	52.3	4.19203E-001	2.21810E-005	0.00000E+000	4.19997E-001	4.19221E-001	7	...........
	523	52.4	4.29003E-001	2.25735E-005	0.00000E+000	4.29996E-001	4.29025E-001	7	...........
	524	52.5	4.39203E-001	2.29593E-005	0.00000E+000	4.39994E-001	4.39029E-001	7	...........
	525	52.6	4.49204E-001	2.33368E-005	0.00000E+000	4.49993E-001	4.49032E-001	7	...........
	526	52.7	4.59204E-001	2.37092E-005	0.00000E+000	4.59992E-001	4.59036E-001	7	...........
	527	52.8	4.69204E-001	2.40850E-005	0.00000E+000	4.69991E-001	4.69040E-001	7	...........
	528	52.9	4.79204E-001	2.44508E-005	0.00000E+000	4.79989E-001	4.79043E-001	7	...........
	529	53	4.89205E-001	2.48232E-005	0.00000E+000	4.89988E-001	4.89047E-001	7	...........
	530	53.1	4.99205E-001	2.51974E-005	0.00000E+000	4.99987E-001	4.99051E-001	7	...........
	531	53.2	5.09205E-001	2.55698E-005	0.00000E+000	5.09986E-001	5.08855E-001	7	...........
	532	53.3	5.19205E-001	2.59540E-005	0.00000E+000	5.19984E-001	5.18858E-001	7	...........
	533	53.4	5.29206E-001	2.63381E-005	0.00000E+000	5.29983E-001	5.29062E-001	7	...........
	534	53.5	5.39006E-001	2.67323E-005	0.00000E+000	5.39982E-001	5.38866E-001	7	...........
	535	53.6	5.49006E-001	2.71365E-005	0.00000E+000	5.49981E-001	5.49069E-001	7	...........
	536	53.7	5.59006E-001	2.75457E-005	0.00000E+000	5.59979E-001	5.58873E-001	7	...........
	537	53.8	5.69206E-001	2.79683E-005	0.00000E+000	5.69978E-001	5.68877E-001	7	...........
	538	53.9	5.79007E-001	2.83992E-005	0.00000E+000	5.79977E-001	5.79080E-001	7	...........
	539	54	5.89007E-001	2.88401E-005	0.00000E+000	5.89975E-001	5.89084E-001	7	...........
	540	54.1	5.99207E-001	2.93261E-005	0.00000E+000	6.00024E-001	5.99088E-001	7	...........
	541	54.2	6.09007E-001	2.97804E-005	0.00000E+000	6.10023E-001	6.09092E-001	7	...........
	542	54.3	6.19008E-001	3.02581E-005	0.00000E+000	6.20022E-001	6.18895E-001	7	...........
	543	54.4	6.29008E-001	3.07642E-005	0.00000E+000	6.30020E-001	6.29099E-001	7	...........
	544	54.5	6.39208E-001	3.12770E-005	0.00000E+000	6.40019E-001	6.38903E-001	7	...........
	545	54.6	6.49008E-001	3.18097E-005	0.00000E+000	6.50018E-001	6.49106E-001	7	...........
	546	54.7	6.59009E-001	3.23609E-005	0.00000E+000	6.60017E-001	6.58910E-001	7	...........
	547	54.8	6.69009E-001	3.29271E-005	0.00000E+000	6.70015E-001	6.69314E-001	7	...........
	548	54.9	6.79009E-001	3.35217E-005	0.00000E+000	6.80014E-001	6.78917E-001	7	...........
	549	55	6.89009E-001	3.41247E-005	0.00000E+000	6.90013E-001	6.88921E-001	7	...........
	550	55.1	6.99009E-001	3.47577E-005	0.00000E+000	7.00012E-001	6.98925E-001	7	...........
	551	55.2	7.09210E-001	3.54107E-005	0.00000E+000	7.10010E-001	7.08928E-001	7	...........
	552	55.3	7.19010E-001	3.60788E-005	0.00000E+000	7.20009E-001	7.19132E-001	7	...........
	553	55.4	7.29010E-001	3.67853E-005	0.00000E+000	7.30008E-001	7.28936E-001	7	...........
	554	55.5	7.39010E-001	3.75085E-005	0.00000E+000	7.40007E-001	7.38940E-001	7	...........
	555	55.6	7.49011E-001	3.82785E-005	0.00000E+000	7.50005E-001	7.48943E-001	7	...........
	556	55.7	7.59011E-001	3.90652E-005	0.00000E+000	7.60004E-001	7.59147E-001	7	...........
	557	55.8	7.69011E-001	3.98785E-005	0.00000E+000	7.70003E-001	7.68751E-001	7	...........
	558	55.9	7.78811E-001	4.07454E-005	0.00000E+000	7.80001E-001	7.78754E-001	7	...........
	559	56	7.89011E-001	4.16323E-005	0.00000E+000	7.90000E-001	7.88958E-001	7	...........
	560	56.1	7.99012E-001	4.25676E-005	0.00000E+000	7.99999E-001	7.98962E-001	7	...........
CURVE3	TABLE
	Pt	T	Vf	Im	Vu	Sig	Ach	IERange	Over
	#	s	V vs. Ref.	A	V	V	V	#	bits
	561	56.2	7.89611E-001	2.87466E-005	0.00000E+000	7.90000E-001	7.88758E-001	7	...........
	562	56.3	7.79411E-001	2.33201E-005	0.00000E+000	7.80001E-001	7.78954E-001	7	...........
	563	56.4	7.69411E-001	1.97341E-005	0.00000E+000	7.70003E-001	7.68951E-001	7	...........
	564	56.5	7.59411E-001	1.69916E-005	0.00000E+000	7.60004E-001	7.58947E-001	7	...........
	565	56.6	7.49411E-001	1.48053E-005	0.00000E+000	7.50005E-001	7.48943E-001	7	...........
	566	56.7	7.39210E-001	1.30031E-005	0.00000E+000	7.40007E-001	7.38739E-001	7	...........
	567	56.8	7.29610E-001	1.14899E-005	0.00000E+000	7.30008E-001	7.28936E-001	7	...........
	568	56.9	7.19410E-001	1.01855E-005	0.00000E+000	7.20009E-001	7.18932E-001	7	...........
	569	57	7.09410E-001	9.06144E-006	0.00000E+000	7.10010E-001	7.08728E-001	7	...........
	570	57.1	6.99409E-001	8.06432E-006	0.00000E+000	7.00012E-001	6.98925E-001	7	...........
	571	57.2	6.89409E-001	7.18412E-006	0.00000E+000	6.90013E-001	6.89121E-001	7	...........
	572	57.3	6.79409E-001	6.40079E-006	0.00000E+000	6.80014E-001	6.78917E-001	7	...........
	573	57.4	6.69409E-001	5.68928E-006	0.00000E+000	6.70015E-001	6.69114E-001	7	...........
	574	57.5	6.59608E-001	5.04791E-006	0.00000E+000	6.60017E-001	6.58710E-001	7	...........
	575	57.6	6.49408E-001	4.46668E-006	0.00000E+000	6.50018E-001	6.48906E-001	7	...........
	576	57.7	6.39608E-001	3.92386E-006	0.00000E+000	6.40019E-001	6.38903E-001	7	...........
	577	57.8	6.29408E-001	3.43616E-006	0.00000E+000	6.30020E-001	6.29099E-001	7	...........
	578	57.9	6.19608E-001	2.97518E-006	0.00000E+000	6.20022E-001	6.18895E-001	7	...........
	579	58	6.09407E-001	2.55930E-006	0.00000E+000	6.10023E-001	6.09092E-001	7	...........
	580	58.1	5.99607E-001	2.16680E-006	0.00000E+000	6.00024E-001	5.99088E-001	7	...........
	581	58.2	5.89607E-001	1.77263E-006	0.00000E+000	5.89975E-001	5.88884E-001	7	...........
	582	58.3	5.79407E-001	1.44860E-006	0.00000E+000	5.79977E-001	5.79080E-001	7	...........
	583	58.4	5.69406E-001	1.12291E-006	0.00000E+000	5.69978E-001	5.69077E-001	7	...........
	584	58.5	5.59406E-001	8.10582E-007	0.00000E+000	5.59979E-001	5.59073E-001	7	...........
	585	58.6	5.49406E-001	5.24976E-007	0.00000E+000	5.49981E-001	5.49269E-001	7	...........
	586	58.7	5.39606E-001	2.44380E-007	0.00000E+000	5.39982E-001	5.39066E-001	7	...........
	587	58.8	5.29606E-001	-1.78437E-008	0.00000E+000	5.29983E-001	5.29062E-001	7	...........
	588	58.9	5.19405E-001	-2.70046E-007	0.00000E+000	5.19984E-001	5.19058E-001	7	...........
	589	59	5.09605E-001	-5.15567E-007	0.00000E+000	5.09986E-001	5.09055E-001	7	...........
	590	59.1	4.99405E-001	-7.41046E-007	0.00000E+000	4.99987E-001	4.99251E-001	7	...........
	591	59.2	4.89405E-001	-9.73206E-007	0.00000E+000	4.89988E-001	4.89047E-001	7	...........
	592	59.3	4.79404E-001	-1.18365E-006	0.00000E+000	4.79989E-001	4.79244E-001	7	...........
	593	59.4	4.69404E-001	-1.39410E-006	0.00000E+000	4.69991E-001	4.69240E-001	7	...........
	594	59.5	4.59604E-001	-1.59620E-006	0.00000E+000	4.59992E-001	4.59236E-001	7	...........
	595	59.6	4.49604E-001	-1.79328E-006	0.00000E+000	4.49993E-001	4.49032E-001	7	...........
	596	59.7	4.39604E-001	-1.98870E-006	0.00000E+000	4.39994E-001	4.39229E-001	7	...........
	597	59.8	4.29803E-001	-2.17743E-006	0.00000E+000	4.29996E-001	4.29225E-001	7	...........
	598	59.9	4.19603E-001	-2.36115E-006	0.00000E+000	4.19997E-001	4.19021E-001	7	...........
	599	60	4.09603E-001	-2.54655E-006	0.00000E+000	4.09998E-001	4.09218E-001	7	...........
	600	60.1	3.99803E-001	-2.71691E-006	0.00000E+000	3.99999E-001	3.99014E-001	7	...........
	601	60.2	3.89802E-001	-2.90230E-006	0.00000E+000	3.90001E-001	3.89210E-001	7	...........
	602	60.3	3.79602E-001	-3.06765E-006	0.00000E+000	3.80002E-001	3.79207E-001	7	...........
	603	60.4	3.69602E-001	-3.24303E-006	0.00000E+000	3.70003E-001	3.69203E-001	7	...........
	604	60.5	3.59602E-001	-3.42007E-006	0.00000E+000	3.60005E-001	3.59199E-001	7	...........
	605	60.6	3.49601E-001	-3.58542E-006	0.00000E+000	3.50006E-001	3.49396E-001	7	...........
	606	60.7	3.39601E-001	-3.75912E-006	0.00000E+000	3.40007E-001	3.39192E-001	7	...........
	607	60.8	3.29801E-001	-3.92948E-006	0.00000E+000	3.30008E-001	3.29188E-001	7	...........
	608	60.9	3.19601E-001	-4.09316E-006	0.00000E+000	3.20010E-001	3.19384E-001	7	...........
	609	61	3.09601E-001	-4.26520E-006	0.00000E+000	3.10011E-001	3.09181E-001	7	...........
	610	61.1	2.99600E-001	-4.42387E-006	0.00000E+000	3.00012E-001	2.99377E-001	7	...........
	611	61.2	2.89800E-001	-4.59089E-006	0.00000E+000	2.90013E-001	2.89173E-001	7	...........
	612	61.3	2.79800E-001	-4.75290E-006	0.00000E+000	2.80015E-001	2.79170E-001	7	...........
	613	61.4	2.69800E-001	-4.90990E-006	0.00000E+000	2.70016E-001	2.69366E-001	7	...........
	614	61.5	2.59799E-001	-5.06690E-006	0.00000E+000	2.60017E-001	2.59162E-001	7	...........
	615	61.6	2.49799E-001	-5.21555E-006	0.00000E+000	2.50018E-001	2.49159E-001	7	...........
	616	61.7	2.39799E-001	-5.35919E-006	0.00000E+000	2.40020E-001	2.39155E-001	7	...........
	617	61.8	2.29599E-001	-5.49948E-006	0.00000E+000	2.30021E-001	2.29351E-001	7	...........
	618	61.9	2.19799E-001	-5.63143E-006	0.00000E+000	2.20022E-001	2.19347E-001	7	...........
	619	62	2.09798E-001	-5.76171E-006	0.00000E+000	2.10023E-001	2.09344E-001	7	...........
	620	62.1	1.99598E-001	-5.87862E-006	0.00000E+000	2.00025E-001	1.99140E-001	7	...........
	621	62.2	1.89798E-001	-5.99220E-006	0.00000E+000	1.90026E-001	1.89336E-001	7	...........
	622	62.3	1.79598E-001	-6.10911E-006	0.00000E+000	1.79977E-001	1.79333E-001	7	...........
	623	62.4	1.69797E-001	-6.19596E-006	0.00000E+000	1.69979E-001	1.69329E-001	7	...........
	624	62.5	1.59597E-001	-6.29117E-006	0.00000E+000	1.59980E-001	1.59325E-001	7	...........
	625	62.6	1.49597E-001	-6.37802E-006	0.00000E+000	1.49981E-001	1.49322E-001	7	...........
	626	62.7	1.39797E-001	-6.45819E-006	0.00000E+000	1.39982E-001	1.39318E-001	7	...........
	627	62.8	1.29796E-001	-6.53836E-006	0.00000E+000	1.29984E-001	1.29314E-001	7	...........
	628	62.9	1.19796E-001	-6.60517E-006	0.00000E+000	1.19985E-001	1.19310E-001	7	...........
	629	63	1.09796E-001	-6.67364E-006	0.00000E+000	1.09986E-001	1.09507E-001	7	...........
	630	63.1	9.95958E-002	-6.74045E-006	0.00000E+000	9.99874E-002	9.93031E-002	7	...........
	631	63.2	8.97956E-002	-6.79891E-006	0.00000E+000	8.99886E-002	8.92994E-002	7	...........
	632	63.3	7.95953E-002	-6.86405E-006	0.00000E+000	7.99899E-002	7.92957E-002	7	...........
	633	63.4	6.97951E-002	-6.91917E-006	0.00000E+000	6.99912E-002	6.92920E-002	7	...........
	634	63.5	5.99949E-002	-6.98096E-006	0.00000E+000	5.99924E-002	5.94884E-002	7	...........
	635	63.6	4.99947E-002	-7.03608E-006	0.00000E+000	4.99937E-002	4.94847E-002	7	...........
	636	63.7	3.99944E-002	-7.09287E-006	0.00000E+000	3.99949E-002	3.94810E-002	7	...........
	637	63.8	2.97942E-002	-7.15467E-006	0.00000E+000	2.99962E-002	2.94773E-002	7	...........
	638	63.9	1.99940E-002	-7.21312E-006	0.00000E+000	1.99975E-002	1.92735E-002	7	...........
	639	64	9.79374E-003	-7.27492E-006	0.00000E+000	9.99874E-003	9.26983E-003	7	...........
	640	64.1	-6.48014E-006	-7.34173E-006	0.00000E+000	0.00000E+000	-5.33797E-004	7	...........
	641	64.2	-1.02067E-002	-7.40520E-006	0.00000E+000	-9.99874E-003	-1.05375E-002	7	...........
	642	64.3	-2.00069E-002	-7.47869E-006	0.00000E+000	-1.99975E-002	-2.03411E-002	7	...........
	643	64.4	-3.02072E-002	-7.55218E-006	0.00000E+000	-2.99962E-002	-3.05449E-002	7	...........
	644	64.5	-4.00074E-002	-7.63569E-006	0.00000E+000	-3.99949E-002	-4.03485E-002	7	...........
	645	64.6	-5.02076E-002	-7.72588E-006	0.00000E+000	-4.99937E-002	-5.05523E-002	7	...........
	646	64.7	-6.02079E-002	-7.81607E-006	0.00000E+000	-5.99924E-002	-6.05560E-002	7	...........
	647	64.8	-7.00081E-002	-7.92463E-006	0.00000E+000	-6.99912E-002	-7.03596E-002	7	...........
	648	64.9	-8.02083E-002	-8.03654E-006	0.00000E+000	-7.99899E-002	-8.03633E-002	7	...........
	649	65	-9.00085E-002	-8.16014E-006	0.00000E+000	-8.99886E-002	-9.03670E-002	7	...........
	650	65.1	-9.98088E-002	-8.29709E-006	0.00000E+000	-9.99874E-002	-1.00371E-001	7	...........
	651	65.2	-1.10009E-001	-8.44407E-006	0.00000E+000	-1.09986E-001	-1.10574E-001	7	...........
	652	65.3	-1.20009E-001	-8.61109E-006	0.00000E+000	-1.19985E-001	-1.20378E-001	7	...........
	653	65.4	-1.30209E-001	-8.79148E-006	0.00000E+000	-1.29984E-001	-1.30382E-001	7	...........
	654	65.5	-1.40010E-001	-8.99190E-006	0.00000E+000	-1.39982E-001	-1.40385E-001	7	...........
	655	65.6	-1.50010E-001	-9.21738E-006	0.00000E+000	-1.49981E-001	-1.50389E-001	7	...........
	656	65.7	-1.60010E-001	-9.45789E-006	0.00000E+000	-1.59980E-001	-1.60393E-001	7	...........
	657	65.8	-1.70010E-001	-9.72847E-006	0.00000E+000	-1.69979E-001	-1.70397E-001	7	...........
	658	65.9	-1.80211E-001	-1.00241E-005	0.00000E+000	-1.79977E-001	-1.80400E-001	7	...........
	659	66	-1.90011E-001	-1.03431E-005	0.00000E+000	-1.89976E-001	-1.90404E-001	7	...........
	660	66.1	-1.99811E-001	-1.06989E-005	0.00000E+000	-1.99975E-001	-2.00408E-001	7	...........
	661	66.2	-2.10011E-001	-1.10747E-005	0.00000E+000	-2.09973E-001	-2.10411E-001	7	...........
	662	66.3	-2.20211E-001	-1.14989E-005	0.00000E+000	-2.20022E-001	-2.20415E-001	7	...........
	663	66.4	-2.30012E-001	-1.19348E-005	0.00000E+000	-2.30021E-001	-2.30219E-001	7	...........
	664	66.5	-2.40012E-001	-1.24008E-005	0.00000E+000	-2.40020E-001	-2.40222E-001	7	...........
	665	66.6	-2.50012E-001	-1.29019E-005	0.00000E+000	-2.50018E-001	-2.50426E-001	7	...........
	666	66.7	-2.60412E-001	-1.34263E-005	0.00000E+000	-2.60017E-001	-2.60430E-001	7	...........
	667	66.8	-2.69813E-001	-1.39792E-005	0.00000E+000	-2.70016E-001	-2.70434E-001	7	...........
	668	66.9	-2.80213E-001	-1.45587E-005	0.00000E+000	-2.80015E-001	-2.80237E-001	7	...........
	669	67	-2.90013E-001	-1.51516E-005	0.00000E+000	-2.90013E-001	-2.90441E-001	7	...........
	670	67.1	-3.00013E-001	-1.57680E-005	0.00000E+000	-3.00012E-001	-3.00245E-001	7	...........
	671	67.2	-3.10014E-001	-1.63976E-005	0.00000E+000	-3.10011E-001	-3.10248E-001	7	...........
	672	67.3	-3.20014E-001	-1.70390E-005	0.00000E+000	-3.20010E-001	-3.20252E-001	7	...........
	673	67.4	-3.29814E-001	-1.76870E-005	0.00000E+000	-3.30008E-001	-3.30256E-001	7	...........
	674	67.5	-3.39814E-001	-1.83401E-005	0.00000E+000	-3.40007E-001	-3.40259E-001	7	...........
	675	67.6	-3.49814E-001	-1.89982E-005	0.00000E+000	-3.50006E-001	-3.50263E-001	7	...........
	676	67.7	-3.59815E-001	-1.96562E-005	0.00000E+000	-3.60005E-001	-3.60267E-001	7	...........
	677	67.8	-3.70015E-001	-2.03109E-005	0.00000E+000	-3.70003E-001	-3.70471E-001	7	...........
	678	67.9	-3.79815E-001	-2.09640E-005	0.00000E+000	-3.80002E-001	-3.80074E-001	7	...........
	679	68	-3.90015E-001	-2.16037E-005	0.00000E+000	-3.90001E-001	-3.90078E-001	7	...........
	680	68.1	-4.00016E-001	-2.22434E-005	0.00000E+000	-3.99999E-001	-4.00282E-001	7	...........
	681	68.2	-4.10016E-001	-2.28697E-005	0.00000E+000	-4.09998E-001	-4.10285E-001	7	...........
	682	68.3	-4.19816E-001	-2.34860E-005	0.00000E+000	-4.19997E-001	-4.20289E-001	7	...........
	683	68.4	-4.29816E-001	-2.41040E-005	0.00000E+000	-4.29996E-001	-4.30093E-001	7	...........
	684	68.5	-4.40016E-001	-2.47036E-005	0.00000E+000	-4.39994E-001	-4.40096E-001	7	...........
	685	68.6	-4.50017E-001	-2.52999E-005	0.00000E+000	-4.49993E-001	-4.50300E-001	7	...........
	686	68.7	-4.59817E-001	-2.58945E-005	0.00000E+000	-4.59992E-001	-4.60104E-001	7	...........
	687	68.8	-4.69817E-001	-2.64757E-005	0.00000E+000	-4.69991E-001	-4.70107E-001	7	...........
	688	68.9	-4.79817E-001	-2.70653E-005	0.00000E+000	-4.79989E-001	-4.80111E-001	7	...........
	689	69	-4.89818E-001	-2.76499E-005	0.00000E+000	-4.89988E-001	-4.90115E-001	7	...........
	690	69.1	-4.99818E-001	-2.82361E-005	0.00000E+000	-4.99987E-001	-5.00118E-001	7	...........
	691	69.2	-5.09818E-001	-2.88290E-005	0.00000E+000	-5.09986E-001	-5.10122E-001	7	...........
	692	69.3	-5.19618E-001	-2.94236E-005	0.00000E+000	-5.19984E-001	-5.19926E-001	7	...........
	693	69.4	-5.29619E-001	-3.00282E-005	0.00000E+000	-5.29983E-001	-5.30130E-001	7	...........
	694	69.5	-5.39619E-001	-3.06496E-005	0.00000E+000	-5.39982E-001	-5.40133E-001	7	...........
	695	69.6	-5.49819E-001	-3.12726E-005	0.00000E+000	-5.49981E-001	-5.49937E-001	7	...........
	696	69.7	-5.59619E-001	-3.19173E-005	0.00000E+000	-5.59979E-001	-5.59941E-001	7	...........
	697	69.8	-5.69619E-001	-3.25636E-005	0.00000E+000	-5.69978E-001	-5.69944E-001	7	...........
	698	69.9	-5.79820E-001	-3.32417E-005	0.00000E+000	-5.79977E-001	-5.80148E-001	7	...........
	699	70	-5.89820E-001	-3.39349E-005	0.00000E+000	-5.89975E-001	-5.90152E-001	7	...........
	700	70.1	-5.99620E-001	-3.46414E-005	0.00000E+000	-5.99974E-001	-5.99955E-001	7	...........
	701	70.2	-6.09620E-001	-3.53796E-005	0.00000E+000	-6.09973E-001	-6.09959E-001	7	...........
	702	70.3	-6.19821E-001	-3.61579E-005	0.00000E+000	-6.20022E-001	-6.20163E-001	7	...........
	703	70.4	-6.29621E-001	-3.69229E-005	0.00000E+000	-6.30020E-001	-6.30167E-001	7	...........
	704	70.5	-6.39821E-001	-3.77313E-005	0.00000E+000	-6.40019E-001	-6.39970E-001	7	...........
	705	70.6	-6.49621E-001	-3.85614E-005	0.00000E+000	-6.50018E-001	-6.49974E-001	7	...........
	706	70.7	-6.59622E-001	-3.94366E-005	0.00000E+000	-6.60017E-001	-6.59978E-001	7	...........
	707	70.8	-6.69822E-001	-4.03351E-005	0.00000E+000	-6.70015E-001	-6.69981E-001	7	...........
	708	70.9	-6.79822E-001	-4.12688E-005	0.00000E+000	-6.80014E-001	-6.79785E-001	7	...........
	709	71	-6.89822E-001	-4.22459E-005	0.00000E+000	-6.90013E-001	-6.89789E-001	7	...........
	710	71.1	-6.99622E-001	-4.32530E-005	0.00000E+000	-7.00012E-001	-6.99992E-001	7	...........
	711	71.2	-7.09823E-001	-4.43069E-005	0.00000E+000	-7.10010E-001	-7.09996E-001	7	...........
	712	71.3	-7.19823E-001	-4.54143E-005	0.00000E+000	-7.20009E-001	-7.20000E-001	7	...........
	713	71.4	-7.29623E-001	-5.76758E-005	0.00000E+000	-7.30008E-001	-7.30003E-001	8	...........
	714	71.5	-7.39823E-001	-4.30176E-005	0.00000E+000	-7.40007E-001	-7.40007E-001	8	...........
	715	71.6	-7.49624E-001	-5.12649E-005	0.00000E+000	-7.50005E-001	-7.50011E-001	8	...........
	716	71.7	-7.59624E-001	-5.19160E-005	0.00000E+000	-7.60004E-001	-7.60015E-001	8	...........
	717	71.8	-7.69624E-001	-5.33351E-005	0.00000E+000	-7.70003E-001	-7.70018E-001	8	...........
	718	71.9	-7.79424E-001	-5.48377E-005	0.00000E+000	-7.80001E-001	-7.79822E-001	8	...........
	719	72	-7.89624E-001	-5.63903E-005	0.00000E+000	-7.90000E-001	-7.90026E-001	8	...........
	720	72.1	-7.99625E-001	-5.80264E-005	0.00000E+000	-7.99999E-001	-7.99829E-001	8	...........
	721	72.2	-7.90424E-001	-3.65066E-005	0.00000E+000	-7.90000E-001	-7.89825E-001	8	...........
	722	72.3	-7.80024E-001	-3.02938E-005	0.00000E+000	-7.80001E-001	-7.79822E-001	7	...........
	723	72.4	-7.70024E-001	-2.74778E-005	0.00000E+000	-7.70003E-001	-7.69818E-001	7	...........
	724	72.5	-7.60024E-001	-2.31536E-005	0.00000E+000	-7.60004E-001	-7.59814E-001	7	...........
	725	72.6	-7.50024E-001	-2.02508E-005	0.00000E+000	-7.50005E-001	-7.50011E-001	7	...........
	726	72.7	-7.40023E-001	-1.77906E-005	0.00000E+000	-7.40007E-001	-7.39807E-001	7	...........
	727	72.8	-7.30023E-001	-1.56961E-005	0.00000E+000	-7.30008E-001	-7.30003E-001	7	...........
	728	72.9	-7.20223E-001	-1.39007E-005	0.00000E+000	-7.20009E-001	-7.20000E-001	7	...........
	729	73	-7.10223E-001	-1.23256E-005	0.00000E+000	-7.10010E-001	-7.09996E-001	7	...........
	730	73.1	-7.00222E-001	-1.09410E-005	0.00000E+000	-7.00012E-001	-6.99992E-001	7	...........
	731	73.2	-6.90222E-001	-9.72179E-006	0.00000E+000	-6.90013E-001	-6.89989E-001	7	...........
	732	73.3	-6.80222E-001	-8.61777E-006	0.00000E+000	-6.80014E-001	-6.79785E-001	7	...........
	733	73.4	-6.70022E-001	-7.63569E-006	0.00000E+000	-6.70015E-001	-6.69981E-001	7	...........
	734	73.5	-6.60022E-001	-6.74212E-006	0.00000E+000	-6.60017E-001	-6.59978E-001	7	...........
	735	73.6	-6.50021E-001	-5.92372E-006	0.00000E+000	-6.50018E-001	-6.49974E-001	7	...........
	736	73.7	-6.40221E-001	-5.18715E-006	0.00000E+000	-6.40019E-001	-6.40170E-001	7	...........
	737	73.8	-6.30221E-001	-4.50571E-006	0.00000E+000	-6.30020E-001	-6.30167E-001	7	...........
	738	73.9	-6.20021E-001	-3.87270E-006	0.00000E+000	-6.20022E-001	-6.19963E-001	7	...........
	739	74	-6.10220E-001	-3.27309E-006	0.00000E+000	-6.09973E-001	-6.09959E-001	7	...........
	740	74.1	-6.00220E-001	-2.74196E-006	0.00000E+000	-5.99974E-001	-5.99955E-001	7	...........
	741	74.2	-5.90220E-001	-2.24257E-006	0.00000E+000	-5.89975E-001	-5.90152E-001	7	...........
	742	74.3	-5.80020E-001	-1.76322E-006	0.00000E+000	-5.79977E-001	-5.79948E-001	7	...........
	743	74.4	-5.70019E-001	-1.32395E-006	0.00000E+000	-5.69978E-001	-5.69944E-001	7	...........
	744	74.5	-5.60019E-001	-9.09738E-007	0.00000E+000	-5.59979E-001	-5.59941E-001	7	...........
	745	74.6	-5.50019E-001	-5.15567E-007	0.00000E+000	-5.49981E-001	-5.50137E-001	7	...........
	746	74.7	-5.40219E-001	-1.43110E-007	0.00000E+000	-5.39982E-001	-5.40133E-001	7	...........
	747	74.8	-5.30419E-001	2.10976E-007	0.00000E+000	-5.29983E-001	-5.30130E-001	7	...........
	748	74.9	-5.20418E-001	5.50029E-007	0.00000E+000	-5.19984E-001	-5.20326E-001	7	...........
	749	75	-5.10218E-001	8.65699E-007	0.00000E+000	-5.09986E-001	-5.10122E-001	7	...........
	750	75.1	-5.00418E-001	1.17803E-006	0.00000E+000	-4.99987E-001	-5.00118E-001	7	...........
	751	75.2	-4.90218E-001	1.47032E-006	0.00000E+000	-4.89988E-001	-4.90115E-001	7	...........
	752	75.3	-4.80217E-001	1.75425E-006	0.00000E+000	-4.79989E-001	-4.80111E-001	7	...........
	753	75.4	-4.70217E-001	2.02817E-006	0.00000E+000	-4.69991E-001	-4.70107E-001	7	...........
	754	75.5	-4.60217E-001	2.29039E-006	0.00000E+000	-4.59992E-001	-4.60104E-001	7	...........
	755	75.6	-4.50217E-001	2.54927E-006	0.00000E+000	-4.49993E-001	-4.50300E-001	7	...........
	756	75.7	-4.40216E-001	2.79313E-006	0.00000E+000	-4.39994E-001	-4.40096E-001	7	...........
	757	75.8	-4.30416E-001	3.03531E-006	0.00000E+000	-4.29996E-001	-4.30293E-001	7	...........
	758	75.9	-4.20416E-001	3.27248E-006	0.00000E+000	-4.19997E-001	-4.20289E-001	7	...........
	759	76	-4.10416E-001	3.49963E-006	0.00000E+000	-4.09998E-001	-4.10085E-001	7	...........
	760	76.1	-4.00216E-001	3.71842E-006	0.00000E+000	-3.99999E-001	-4.00081E-001	7	...........
	761	76.2	-3.90415E-001	3.93555E-006	0.00000E+000	-3.90001E-001	-3.90278E-001	7	...........
	762	76.3	-3.80215E-001	4.14767E-006	0.00000E+000	-3.80002E-001	-3.80074E-001	7	...........
	763	76.4	-3.70215E-001	4.35645E-006	0.00000E+000	-3.70003E-001	-3.70270E-001	7	...........
	764	76.5	-3.60215E-001	4.55854E-006	0.00000E+000	-3.60005E-001	-3.60267E-001	7	...........
	765	76.6	-3.50414E-001	4.75730E-006	0.00000E+000	-3.50006E-001	-3.50263E-001	7	...........
	766	76.7	-3.40414E-001	4.94937E-006	0.00000E+000	-3.40007E-001	-3.40259E-001	7	...........
	767	76.8	-3.30414E-001	5.13644E-006	0.00000E+000	-3.30008E-001	-3.30056E-001	7	...........
	768	76.9	-3.20414E-001	5.31682E-006	0.00000E+000	-3.20010E-001	-3.20252E-001	7	...........
	769	77	-3.10414E-001	5.49052E-006	0.00000E+000	-3.10011E-001	-3.10248E-001	7	...........
	770	77.1	-3.00413E-001	5.66255E-006	0.00000E+000	-3.00012E-001	-3.00245E-001	7	...........
	771	77.2	-2.90413E-001	5.82122E-006	0.00000E+000	-2.90013E-001	-2.90241E-001	7	...........
	772	77.3	-2.80613E-001	5.97488E-006	0.00000E+000	-2.80015E-001	-2.80237E-001	7	...........
	773	77.4	-2.70613E-001	6.12520E-006	0.00000E+000	-2.70016E-001	-2.70434E-001	7	...........
	774	77.5	-2.60412E-001	6.26216E-006	0.00000E+000	-2.60017E-001	-2.60230E-001	7	...........
	775	77.6	-2.50412E-001	6.39411E-006	0.00000E+000	-2.50018E-001	-2.50426E-001	7	...........
	776	77.7	-2.40412E-001	6.51770E-006	0.00000E+000	-2.40020E-001	-2.40422E-001	7	...........
	777	77.8	-2.30412E-001	6.63128E-006	0.00000E+000	-2.30021E-001	-2.30419E-001	7	...........
	778	77.9	-2.20611E-001	6.73984E-006	0.00000E+000	-2.20022E-001	-2.20415E-001	7	...........
	779	78	-2.10411E-001	6.85007E-006	0.00000E+000	-2.09973E-001	-2.10211E-001	7	...........
	780	78.1	-2.00411E-001	6.93359E-006	0.00000E+000	-1.99975E-001	-2.00208E-001	7	...........
	781	78.2	-1.90211E-001	7.01877E-006	0.00000E+000	-1.89976E-001	-1.90404E-001	7	...........
	782	78.3	-1.80411E-001	7.09393E-006	0.00000E+000	-1.79977E-001	-1.80400E-001	7	...........
	783	78.4	-1.70410E-001	7.16575E-006	0.00000E+000	-1.69979E-001	-1.70397E-001	7	...........
	784	78.5	-1.60610E-001	7.22921E-006	0.00000E+000	-1.59980E-001	-1.60393E-001	7	...........
	785	78.6	-1.50610E-001	7.28767E-006	0.00000E+000	-1.49981E-001	-1.50589E-001	7	...........
	786	78.7	-1.40410E-001	7.34446E-006	0.00000E+000	-1.39982E-001	-1.40385E-001	7	...........
	787	78.8	-1.30609E-001	7.39289E-006	0.00000E+000	-1.29984E-001	-1.30382E-001	7	...........
	788	78.9	-1.20409E-001	7.44133E-006	0.00000E+000	-1.19985E-001	-1.20378E-001	7	...........
	789	79	-1.10409E-001	7.48643E-006	0.00000E+000	-1.09986E-001	-1.10174E-001	7	...........
	790	79.1	-1.00409E-001	7.52484E-006	0.00000E+000	-9.99874E-002	-1.00371E-001	7	...........
	791	79.2	-9.04085E-002	7.56660E-006	0.00000E+000	-8.99886E-002	-9.03670E-002	7	...........
	792	79.3	-8.06083E-002	7.60501E-006	0.00000E+000	-7.99899E-002	-8.03633E-002	7	...........
	793	79.4	-7.06081E-002	7.64176E-006	0.00000E+000	-6.99912E-002	-7.03596E-002	7	...........
	794	79.5	-6.06079E-002	7.68017E-006	0.00000E+000	-5.99924E-002	-6.05560E-002	7	...........
	795	79.6	-5.04076E-002	7.71859E-006	0.00000E+000	-4.99937E-002	-5.03522E-002	7	...........
	796	79.7	-4.06074E-002	7.75700E-006	0.00000E+000	-3.99949E-002	-4.05486E-002	7	...........
	797	79.8	-3.06072E-002	7.79709E-006	0.00000E+000	-2.99962E-002	-3.05449E-002	7	...........
	798	79.9	-2.06069E-002	7.83717E-006	0.00000E+000	-1.99975E-002	-2.05412E-002	7	...........
	799	80	-1.06067E-002	7.88561E-006	0.00000E+000	-9.99874E-003	-1.03374E-002	7	...........
	800	80.1	-4.06489E-004	7.92736E-006	0.00000E+000	0.00000E+000	-5.33797E-004	7	...........
	801	80.2	9.39373E-003	7.98415E-006	0.00000E+000	9.99874E-003	9.66997E-003	7	...........
	802	80.3	1.93940E-002	8.03593E-006	0.00000E+000	1.99975E-002	1.92735E-002	7	...........
	803	80.4	2.93942E-002	8.09773E-006	0.00000E+000	2.99962E-002	2.94773E-002	7	...........
	804	80.5	3.95944E-002	8.16453E-006	0.00000E+000	3.99949E-002	3.94810E-002	7	...........
	805	80.6	4.93946E-002	8.23802E-006	0.00000E+000	4.99937E-002	4.94847E-002	7	...........
	806	80.7	5.93949E-002	8.31986E-006	0.00000E+000	5.99924E-002	5.92883E-002	7	...........
	807	80.8	6.93951E-002	8.41005E-006	0.00000E+000	6.99912E-002	6.92920E-002	7	...........
	808	80.9	7.93953E-002	8.51194E-006	0.00000E+000	7.99899E-002	7.94958E-002	7	...........
	809	81	8.93956E-002	8.63052E-006	0.00000E+000	8.99886E-002	8.92994E-002	7	...........
	810	81.1	9.91958E-002	8.75913E-006	0.00000E+000	9.99874E-002	9.93031E-002	7	...........
	811	81.2	1.09396E-001	8.90611E-006	0.00000E+000	1.09986E-001	1.09307E-001	7	...........
	812	81.3	1.19196E-001	9.07146E-006	0.00000E+000	1.19985E-001	1.19310E-001	7	...........
	813	81.4	1.29396E-001	9.25852E-006	0.00000E+000	1.29984E-001	1.29514E-001	7	...........
	814	81.5	1.38997E-001	9.47064E-006	0.00000E+000	1.39982E-001	1.39318E-001	7	...........
	815	81.6	1.49197E-001	9.70447E-006	0.00000E+000	1.49981E-001	1.49322E-001	7	...........
	816	81.7	1.59597E-001	9.97505E-006	0.00000E+000	1.59980E-001	1.59325E-001	7	...........
	817	81.8	1.69397E-001	1.02740E-005	0.00000E+000	1.69979E-001	1.69329E-001	7	...........
	818	81.9	1.79398E-001	1.05964E-005	0.00000E+000	1.79977E-001	1.79533E-001	7	...........
	819	82	1.89198E-001	1.09738E-005	0.00000E+000	1.90026E-001	1.89336E-001	7	...........
	820	82.1	1.99198E-001	1.13530E-005	0.00000E+000	2.00025E-001	1.99140E-001	7	...........
	821	82.2	2.09198E-001	1.17655E-005	0.00000E+000	2.10023E-001	2.09344E-001	7	...........
	822	82.3	2.19199E-001	1.22148E-005	0.00000E+000	2.20022E-001	2.19147E-001	7	...........
	823	82.4	2.29399E-001	1.26775E-005	0.00000E+000	2.30021E-001	2.29151E-001	7	...........
	824	82.5	2.39199E-001	1.31702E-005	0.00000E+000	2.40020E-001	2.39355E-001	7	...........
	825	82.6	2.49399E-001	1.36746E-005	0.00000E+000	2.50018E-001	2.49359E-001	7	...........
	826	82.7	2.59399E-001	1.41890E-005	0.00000E+000	2.60017E-001	2.59162E-001	7	...........
	827	82.8	2.69200E-001	1.47218E-005	0.00000E+000	2.70016E-001	2.69366E-001	7	...........
	828	82.9	2.79200E-001	1.52563E-005	0.00000E+000	2.80015E-001	2.78970E-001	7	...........
	829	83	2.89200E-001	1.58007E-005	0.00000E+000	2.90013E-001	2.89373E-001	7	...........
	830	83.1	2.99200E-001	1.63419E-005	0.00000E+000	3.00012E-001	2.99177E-001	7	...........
	831	83.2	3.09201E-001	1.68797E-005	0.00000E+000	3.10011E-001	3.09381E-001	7	...........
	832	83.3	3.19401E-001	1.74158E-005	0.00000E+000	3.20010E-001	3.19184E-001	7	...........
	833	83.4	3.29001E-001	1.79370E-005	0.00000E+000	3.30008E-001	3.28988E-001	7	...........
	834	83.5	3.39201E-001	1.84514E-005	0.00000E+000	3.40007E-001	3.39192E-001	7	...........
	835	83.6	3.49201E-001	1.89558E-005	0.00000E+000	3.50006E-001	3.49195E-001	7	...........
	836	83.7	3.59202E-001	1.94435E-005	0.00000E+000	3.60005E-001	3.59199E-001	7	...........
	837	83.8	3.69202E-001	1.99212E-005	0.00000E+000	3.70003E-001	3.69203E-001	7	...........
	838	83.9	3.79202E-001	2.03771E-005	0.00000E+000	3.80002E-001	3.79207E-001	7	...........
	839	84	3.89002E-001	2.08197E-005	0.00000E+000	3.90001E-001	3.89010E-001	7	...........
	840	84.1	3.99203E-001	2.12557E-005	0.00000E+000	3.99999E-001	3.99214E-001	7	...........
	841	84.2	4.09403E-001	2.16665E-005	0.00000E+000	4.09998E-001	4.09218E-001	7	...........
	842	84.3	4.19003E-001	2.20757E-005	0.00000E+000	4.19997E-001	4.19221E-001	7	...........
	843	84.4	4.29203E-001	2.24716E-005	0.00000E+000	4.29996E-001	4.29025E-001	7	...........
	844	84.5	4.39203E-001	2.28591E-005	0.00000E+000	4.39994E-001	4.39029E-001	7	...........
	845	84.6	4.49004E-001	2.32432E-005	0.00000E+000	4.49993E-001	4.49032E-001	7	...........
	846	84.7	4.59004E-001	2.36140E-005	0.00000E+000	4.59992E-001	4.59036E-001	7	...........
	847	84.8	4.69204E-001	2.39915E-005	0.00000E+000	4.69991E-001	4.69240E-001	7	...........
	848	84.9	4.79204E-001	2.43623E-005	0.00000E+000	4.79989E-001	4.79244E-001	7	...........
	849	85	4.89205E-001	2.47364E-005	0.00000E+000	4.89988E-001	4.89247E-001	7	...........
	850	85.1	4.99205E-001	2.51122E-005	0.00000E+000	4.99987E-001	4.99051E-001	7	...........
	851	85.2	5.09005E-001	2.54897E-005	0.00000E+000	5.09986E-001	5.09255E-001	7	...........
	852	85.3	5.19005E-001	2.58738E-005	0.00000E+000	5.19984E-001	5.18858E-001	7	...........
	853	85.4	5.29006E-001	2.62596E-005	0.00000E+000	5.29983E-001	5.29262E-001	7	...........
	854	85.5	5.39006E-001	2.66538E-005	0.00000E+000	5.39982E-001	5.39066E-001	7	...........
	855	85.6	5.49006E-001	2.70597E-005	0.00000E+000	5.49981E-001	5.49069E-001	7	...........
	856	85.7	5.59006E-001	2.74655E-005	0.00000E+000	5.59979E-001	5.59073E-001	7	...........
	857	85.8	5.69006E-001	2.78898E-005	0.00000E+000	5.69978E-001	5.69077E-001	7	...........
	858	85.9	5.79007E-001	2.83223E-005	0.00000E+000	5.79977E-001	5.79080E-001	7	...........
	859	86	5.89007E-001	2.87633E-005	0.00000E+000	5.89975E-001	5.89084E-001	7	...........
	860	86.1	5.99207E-001	2.92510E-005	0.00000E+000	6.00024E-001	5.99088E-001	7	...........
	861	86.2	6.09007E-001	2.97019E-005	0.00000E+000	6.10023E-001	6.09092E-001	7	...........
	862	86.3	6.19008E-001	3.01846E-005	0.00000E+000	6.20022E-001	6.18895E-001	7	...........
	863	86.4	6.29208E-001	3.06874E-005	0.00000E+000	6.30020E-001	6.28899E-001	7	...........
	864	86.5	6.39208E-001	3.11984E-005	0.00000E+000	6.40019E-001	6.38903E-001	7	...........
	865	86.6	6.49008E-001	3.17363E-005	0.00000E+000	6.50018E-001	6.49106E-001	7	...........
	866	86.7	6.59009E-001	3.22824E-005	0.00000E+000	6.60017E-001	6.58910E-001	7	...........
	867	86.8	6.69009E-001	3.28503E-005	0.00000E+000	6.70015E-001	6.68914E-001	7	...........
	868	86.9	6.79009E-001	3.34449E-005	0.00000E+000	6.80014E-001	6.78717E-001	7	...........
	869	87	6.89009E-001	3.40478E-005	0.00000E+000	6.90013E-001	6.89121E-001	7	...........
	870	87.1	6.99009E-001	3.46792E-005	0.00000E+000	7.00012E-001	6.98925E-001	7	...........
	871	87.2	7.09210E-001	3.53356E-005	0.00000E+000	7.10010E-001	7.08928E-001	7	...........
	872	87.3	7.19010E-001	3.60070E-005	0.00000E+000	7.20009E-001	7.18932E-001	7	...........
	873	87.4	7.29010E-001	3.67135E-005	0.00000E+000	7.30008E-001	7.29136E-001	7	...........
	874	87.5	7.39010E-001	3.74384E-005	0.00000E+000	7.40007E-001	7.38739E-001	7	...........
	875	87.6	7.49011E-001	3.82050E-005	0.00000E+000	7.50005E-001	7.48743E-001	7	...........
	876	87.7	7.59011E-001	3.89950E-005	0.00000E+000	7.60004E-001	7.58947E-001	7	...........
	877	87.8	7.69011E-001	3.98168E-005	0.00000E+000	7.70003E-001	7.68951E-001	7	...........
	878	87.9	7.79011E-001	4.06853E-005	0.00000E+000	7.80001E-001	7.78954E-001	7	...........
	879	88	7.88811E-001	4.15721E-005	0.00000E+000	7.90000E-001	7.88958E-001	7	...........
	880	88.1	7.99012E-001	4.25108E-005	0.00000E+000	7.99999E-001	7.98762E-001	7	...........
CURVE4	TABLE
	Pt	T	Vf	Im	Vu	Sig	Ach	IERange	Over
	#	s	V vs. Ref.	A	V	V	V	#	bits
	881	88.2	7.89611E-001	2.87132E-005	0.00000E+000	7.90000E-001	7.88958E-001	7	...........
	882	88.3	7.79211E-001	2.32950E-005	0.00000E+000	7.80001E-001	7.78954E-001	7	...........
	883	88.4	7.69411E-001	1.97141E-005	0.00000E+000	7.70003E-001	7.68951E-001	7	...........
	884	88.5	7.59411E-001	1.69766E-005	0.00000E+000	7.60004E-001	7.58947E-001	7	...........
	885	88.6	7.49411E-001	1.47953E-005	0.00000E+000	7.50005E-001	7.48943E-001	7	...........
	886	88.7	7.39610E-001	1.30015E-005	0.00000E+000	7.40007E-001	7.38739E-001	7	...........
	887	88.8	7.29410E-001	1.14933E-005	0.00000E+000	7.30008E-001	7.28936E-001	7	...........
	888	88.9	7.19410E-001	1.01888E-005	0.00000E+000	7.20009E-001	7.18932E-001	7	...........
	889	89	7.09410E-001	9.06478E-006	0.00000E+000	7.10010E-001	7.09129E-001	7	...........
	890	89.1	6.99609E-001	8.07601E-006	0.00000E+000	7.00012E-001	6.98925E-001	7	...........
	891	89.2	6.89409E-001	7.19247E-006	0.00000E+000	6.90013E-001	6.88921E-001	7	...........
	892	89.3	6.79609E-001	6.41081E-006	0.00000E+000	6.80014E-001	6.78917E-001	7	...........
	893	89.4	6.69409E-001	5.69930E-006	0.00000E+000	6.70015E-001	6.68914E-001	7	...........
	894	89.5	6.59809E-001	5.06462E-006	0.00000E+000	6.60017E-001	6.59110E-001	7	...........
	895	89.6	6.49408E-001	4.48004E-006	0.00000E+000	6.50018E-001	6.49106E-001	7	...........
	896	89.7	6.39608E-001	3.94223E-006	0.00000E+000	6.40019E-001	6.38903E-001	7	...........
	897	89.8	6.29608E-001	3.45286E-006	0.00000E+000	6.30020E-001	6.28899E-001	7	...........
	898	89.9	6.19608E-001	2.99355E-006	0.00000E+000	6.20022E-001	6.19095E-001	7	...........
	899	90	6.09407E-001	2.57934E-006	0.00000E+000	6.10023E-001	6.09092E-001	7	...........
	900	90.1	5.99407E-001	2.18350E-006	0.00000E+000	6.00024E-001	5.99088E-001	7	...........
	901	90.2	5.89607E-001	1.79267E-006	0.00000E+000	5.89975E-001	5.89084E-001	7	...........
	902	90.3	5.79407E-001	1.46698E-006	0.00000E+000	5.79977E-001	5.78880E-001	7	...........
	903	90.4	5.69406E-001	1.14128E-006	0.00000E+000	5.69978E-001	5.69077E-001	7	...........
	904	90.5	5.59406E-001	8.33965E-007	0.00000E+000	5.59979E-001	5.59073E-001	7	...........
	905	90.6	5.49606E-001	5.45018E-007	0.00000E+000	5.49981E-001	5.49069E-001	7	...........
	906	90.7	5.39606E-001	2.64422E-007	0.00000E+000	5.39982E-001	5.39066E-001	7	...........
	907	90.8	5.29406E-001	3.86910E-009	0.00000E+000	5.29983E-001	5.29062E-001	7	...........
	908	90.9	5.19605E-001	-2.50003E-007	0.00000E+000	5.19984E-001	5.19258E-001	7	...........
	909	91	5.09605E-001	-4.93855E-007	0.00000E+000	5.09986E-001	5.08855E-001	7	...........
	910	91.1	4.99605E-001	-7.22674E-007	0.00000E+000	4.99987E-001	4.99051E-001	7	...........
	911	91.2	4.89605E-001	-9.49823E-007	0.00000E+000	4.89988E-001	4.89047E-001	7	...........
	912	91.3	4.79604E-001	-1.16528E-006	0.00000E+000	4.79989E-001	4.79043E-001	7	...........
	913	91.4	4.69604E-001	-1.37239E-006	0.00000E+000	4.69991E-001	4.69240E-001	7	...........
	914	91.5	4.59604E-001	-1.57782E-006	0.00000E+000	4.59992E-001	4.59036E-001	7	...........
	915	91.6	4.49404E-001	-1.77658E-006	0.00000E+000	4.49993E-001	4.49232E-001	7	...........
	916	91.7	4.39604E-001	-1.97199E-006	0.00000E+000	4.39994E-001	4.38829E-001	7	...........
	917	91.8	4.29603E-001	-2.15739E-006	0.00000E+000	4.29996E-001	4.29225E-001	7	...........
	918	91.9	4.19603E-001	-2.34278E-006	0.00000E+000	4.19997E-001	4.19021E-001	7	...........
	919	92	4.09803E-001	-2.52817E-006	0.00000E+000	4.09998E-001	4.09018E-001	7	...........
	920	92.1	3.99603E-001	-2.70522E-006	0.00000E+000	3.99999E-001	3.99414E-001	7	...........
	921	92.2	3.89802E-001	-2.88560E-006	0.00000E+000	3.90001E-001	3.89210E-001	7	...........
	922	92.3	3.79602E-001	-3.05930E-006	0.00000E+000	3.80002E-001	3.79007E-001	7	...........
	923	92.4	3.69802E-001	-3.23301E-006	0.00000E+000	3.70003E-001	3.69203E-001	7	...........
	924	92.5	3.60002E-001	-3.40838E-006	0.00000E+000	3.60005E-001	3.58999E-001	7	...........
	925	92.6	3.49801E-001	-3.57874E-006	0.00000E+000	3.50006E-001	3.49195E-001	7	...........
	926	92.7	3.39601E-001	-3.75077E-006	0.00000E+000	3.40007E-001	3.39192E-001	7	...........
	927	92.8	3.29801E-001	-3.92280E-006	0.00000E+000	3.30008E-001	3.29188E-001	7	...........
	928	92.9	3.19801E-001	-4.09149E-006	0.00000E+000	3.20010E-001	3.19184E-001	7	...........
	929	93	3.09801E-001	-4.26019E-006	0.00000E+000	3.10011E-001	3.09181E-001	7	...........
	930	93.1	2.99800E-001	-4.42387E-006	0.00000E+000	3.00012E-001	2.99177E-001	7	...........
	931	93.2	2.89800E-001	-4.58922E-006	0.00000E+000	2.90013E-001	2.89173E-001	7	...........
	932	93.3	2.79800E-001	-4.75457E-006	0.00000E+000	2.80015E-001	2.79370E-001	7	...........
	933	93.4	2.69800E-001	-4.90990E-006	0.00000E+000	2.70016E-001	2.69366E-001	7	...........
	934	93.5	2.59599E-001	-5.06857E-006	0.00000E+000	2.60017E-001	2.59362E-001	7	...........
	935	93.6	2.49599E-001	-5.21722E-006	0.00000E+000	2.50018E-001	2.49159E-001	7	...........
	936	93.7	2.39799E-001	-5.36086E-006	0.00000E+000	2.40020E-001	2.39355E-001	7	...........
	937	93.8	2.29799E-001	-5.50283E-006	0.00000E+000	2.30021E-001	2.29351E-001	7	...........
	938	93.9	2.19799E-001	-5.63143E-006	0.00000E+000	2.20022E-001	2.19548E-001	7	...........
	939	94	2.09798E-001	-5.75837E-006	0.00000E+000	2.10023E-001	2.09544E-001	7	...........
	940	94.1	1.99798E-001	-5.87194E-006	0.00000E+000	2.00025E-001	1.99340E-001	7	...........
	941	94.2	1.89798E-001	-5.98552E-006	0.00000E+000	1.90026E-001	1.89136E-001	7	...........
	942	94.3	1.79798E-001	-6.10911E-006	0.00000E+000	1.79977E-001	1.79333E-001	7	...........
	943	94.4	1.69797E-001	-6.19095E-006	0.00000E+000	1.69979E-001	1.69329E-001	7	...........
	944	94.5	1.59797E-001	-6.28282E-006	0.00000E+000	1.59980E-001	1.59525E-001	7	...........
	945	94.6	1.49597E-001	-6.37468E-006	0.00000E+000	1.49981E-001	1.49322E-001	7	...........
	946	94.7	1.39797E-001	-6.44483E-006	0.00000E+000	1.39982E-001	1.39318E-001	7	...........
	947	94.8	1.29796E-001	-6.52500E-006	0.00000E+000	1.29984E-001	1.29714E-001	7	...........
	948	94.9	1.19796E-001	-6.59514E-006	0.00000E+000	1.19985E-001	1.19310E-001	7	...........
	949	95	1.09796E-001	-6.66195E-006	0.00000E+000	1.09986E-001	1.09507E-001	7	...........
	950	95.1	9.95958E-002	-6.72709E-006	0.00000E+000	9.99874E-002	9.91030E-002	7	...........
	951	95.2	8.99956E-002	-6.78388E-006	0.00000E+000	8.99886E-002	8.92994E-002	7	...........
	952	95.3	7.97953E-002	-6.84568E-006	0.00000E+000	7.99899E-002	7.96959E-002	7	...........
	953	95.4	6.99951E-002	-6.90246E-006	0.00000E+000	6.99912E-002	6.94921E-002	7	...........
	954	95.5	5.97949E-002	-6.96259E-006	0.00000E+000	5.99924E-002	5.94884E-002	7	...........
	955	95.6	4.97947E-002	-7.01771E-006	0.00000E+000	4.99937E-002	4.94847E-002	7	...........
	956	95.7	3.97944E-002	-7.07450E-006	0.00000E+000	3.99949E-002	3.94810E-002	7	...........
	957	95.8	2.99942E-002	-7.13295E-006	0.00000E+000	2.99962E-002	2.94773E-002	7	...........
	958	95.9	1.99940E-002	-7.18974E-006	0.00000E+000	1.99975E-002	1.94736E-002	7	...........
	959	96	9.99375E-003	-7.25154E-006	0.00000E+000	9.99874E-003	9.46990E-003	7	...........
	960	96.1	-2.06485E-004	-7.31668E-006	0.00000E+000	0.00000E+000	-5.33797E-004	7	...........
