EXPLAIN
TAG	CV
TITLE	LABEL	Cyclic Voltammetry	Test Identifier
DATE	LABEL	10-7-2017	Date
TIME	LABEL	16:35:37	Time
NOTES	NOTES	1	Notes...
	0.9mg

PSTAT	PSTAT	IFC5000-01520	Potentiostat
VINIT	POTEN	0.00000E+000	F	Initial E (V)
VLIMIT1	POTEN	-8.00000E-001	F	Scan Limit 1 (V)
VLIMIT2	POTEN	8.00000E-001	F	Scan Limit 2 (V)
VFINAL	POTEN	0.00000E+000	F	Final E (V)
SCANRATE	QUANT	9.99998E+001	A Real Number
STEPSIZE	QUANT	1.00000E+001	Step Size (mV)
CYCLES	IQUANT	3	Cycles (#)
IMODE	SELECTOR	0	I/E Range Mode
IRANGE	QUANT	2.50000E+002	Max Current (mA)
AREA	QUANT	3.84800E-001	A Real Number
EQDELAY	QUANT	1.00000E+000	Equil. Time (s)
IRCOMP	SELECTOR	0	IRComp
PFCOR	QUANT	2.50000E+002	PF Corr. (ohm)
SAMPLINGMODE	SELECTOR	0	Sampling Mode
EOC	QUANT	0	Open Circuit (V)
SEQUENCER	TOGGLE	TRUE	Run as Sequence
PSTATMODEL	IQUANT	53	Pstat Model
PSTATSECTION	LABEL	IFC5000-01520	Pstat Section
PSTATSERIALNO	LABEL	01520	Pstat Serial Number
CTRLMODE	IQUANT	1	Control Mode
ELECTROMETER	IQUANT	0	RE=0 or CS=1
IESTAB	IQUANT	2	I/E Stability
CASPEED	IQUANT	4	Control Amp Speed
CONVENTION	IQUANT	1	Current Convention
ICHRANGE	IQUANT	2	Ich Range
ICHRANGEMODE	TOGGLE	F	Ich Auto Range
ICHOFFSETENABLE	TOGGLE	F	Ich Offset Enable
ICHOFFSET	QUANT	0	Ich Offset (V)
ICHFILTER	IQUANT	4	Ich Filter
VCHRANGE	IQUANT	2	Vch Range
VCHRANGEMODE	TOGGLE	F	Vch Auto Range
VCHOFFSETENABLE	TOGGLE	F	Vch Offset Enable
VCHOFFSET	QUANT	0	Vch Offset (V)
VCHFILTER	IQUANT	4	Vch Filter
IERANGELOWERLIMIT	IQUANT	7	I/E Range Lower Limit
IERANGEMODE	TOGGLE	T	I/E AutoRange
IERANGE	IQUANT	11	I/E Range
ACHSELECT	IQUANT	1	Ach Select
ACHRANGE	IQUANT	2	Ach Range
ACHOFFSETENABLE	TOGGLE	F	Ach Offset Enable
ACHOFFSET	QUANT	0	Ach Offset (V)
ACHFILTER	IQUANT	1	Ach Filter
CABLEID	IQUANT	14	Cable ID
DCCALDATE	LABEL	5-7-2017	DC Calibration Date
ACCALDATE	LABEL	12/3/2015	AC Calibration Date
FRAMEWORKVERSION	QUANT	7.01	Framework Version
INSTRUMENTVERSION	LABEL	4.00	Instrument Version
CURVE1	TABLE
	Pt	T	Vf	Im	Vu	Sig	Ach	IERange	Over
	#	s	V vs. Ref.	A	V	V	V	#	bits
	0	0.1	-2.06485E-004	-1.13893E-005	0.00000E+000	0.00000E+000	-3.33723E-004	11	...........
	1	0.2	-9.80670E-003	-1.61609E-005	0.00000E+000	-9.99874E-003	-1.01373E-002	10	...........
	2	0.3	-2.00069E-002	-1.71178E-005	0.00000E+000	-1.99975E-002	-2.01410E-002	9	...........
	3	0.4	-2.98072E-002	-1.79585E-005	0.00000E+000	-2.99962E-002	-2.99447E-002	8	...........
	4	0.5	-4.00074E-002	-1.78875E-005	0.00000E+000	-3.99949E-002	-4.01484E-002	7	...........
	5	0.6	-4.98076E-002	-1.93739E-005	0.00000E+000	-4.99937E-002	-5.01521E-002	7	...........
	6	0.7	-5.98078E-002	-1.99569E-005	0.00000E+000	-5.99924E-002	-6.01558E-002	7	...........
	7	0.8	-6.98081E-002	-2.08287E-005	0.00000E+000	-6.99912E-002	-6.99595E-002	7	...........
	8	0.9	-7.98083E-002	-2.16187E-005	0.00000E+000	-7.99899E-002	-8.01632E-002	7	...........
	9	1	-8.98085E-002	-2.23987E-005	0.00000E+000	-8.99886E-002	-8.99668E-002	7	...........
	10	1.1	-9.98088E-002	-2.31620E-005	0.00000E+000	-9.99874E-002	-9.99706E-002	7	...........
	11	1.2	-1.09809E-001	-2.39487E-005	0.00000E+000	-1.09986E-001	-1.09974E-001	7	...........
	12	1.3	-1.20009E-001	-2.47153E-005	0.00000E+000	-1.19985E-001	-1.20178E-001	7	...........
	13	1.4	-1.29609E-001	-2.54769E-005	0.00000E+000	-1.29984E-001	-1.29982E-001	7	...........
	14	1.5	-1.39810E-001	-2.62653E-005	0.00000E+000	-1.39982E-001	-1.39985E-001	7	...........
	15	1.6	-1.49810E-001	-2.70319E-005	0.00000E+000	-1.49981E-001	-1.49989E-001	7	...........
	16	1.7	-1.60010E-001	-2.78269E-005	0.00000E+000	-1.59980E-001	-1.59993E-001	7	...........
	17	1.8	-1.69810E-001	-2.85902E-005	0.00000E+000	-1.69979E-001	-1.69996E-001	7	...........
	18	1.9	-1.79811E-001	-2.93785E-005	0.00000E+000	-1.79977E-001	-1.80200E-001	7	...........
	19	2	-1.89811E-001	-3.01802E-005	0.00000E+000	-1.89976E-001	-1.90004E-001	7	...........
	20	2.1	-1.99611E-001	-3.09702E-005	0.00000E+000	-1.99975E-001	-1.99807E-001	7	...........
	21	2.2	-2.09811E-001	-3.18053E-005	0.00000E+000	-2.10023E-001	-2.10011E-001	7	...........
	22	2.3	-2.19811E-001	-3.26037E-005	0.00000E+000	-2.20022E-001	-2.20015E-001	7	...........
	23	2.4	-2.29612E-001	-3.33921E-005	0.00000E+000	-2.30021E-001	-2.30019E-001	7	...........
	24	2.5	-2.39612E-001	-3.42522E-005	0.00000E+000	-2.40020E-001	-2.40022E-001	7	...........
	25	2.6	-2.49812E-001	-3.50907E-005	0.00000E+000	-2.50018E-001	-2.50026E-001	7	...........
	26	2.7	-2.59812E-001	-3.59074E-005	0.00000E+000	-2.60017E-001	-2.59830E-001	7	...........
	27	2.8	-2.69813E-001	-3.67609E-005	0.00000E+000	-2.70016E-001	-2.70033E-001	7	...........
	28	2.9	-2.79613E-001	-3.76611E-005	0.00000E+000	-2.80015E-001	-2.79837E-001	7	...........
	29	3	-2.89613E-001	-3.84628E-005	0.00000E+000	-2.90013E-001	-2.90041E-001	7	...........
	30	3.1	-2.99613E-001	-3.94833E-005	0.00000E+000	-3.00012E-001	-3.00045E-001	7	...........
	31	3.2	-3.09614E-001	-4.04019E-005	0.00000E+000	-3.10011E-001	-3.10048E-001	7	...........
	32	3.3	-3.19614E-001	-4.13723E-005	0.00000E+000	-3.20010E-001	-3.19852E-001	7	...........
	33	3.4	-3.29614E-001	-4.23193E-005	0.00000E+000	-3.30008E-001	-3.29856E-001	7	...........
	34	3.5	-3.39614E-001	-4.33198E-005	0.00000E+000	-3.40007E-001	-3.40059E-001	7	...........
	35	3.6	-3.49814E-001	-4.43152E-005	0.00000E+000	-3.50006E-001	-3.49863E-001	7	...........
	36	3.7	-3.59615E-001	-4.54460E-005	0.00000E+000	-3.60005E-001	-3.59867E-001	7	...........
	37	3.8	-3.69815E-001	-5.91950E-005	0.00000E+000	-3.70003E-001	-3.70070E-001	8	...........
	38	3.9	-3.79615E-001	-4.23999E-005	0.00000E+000	-3.80002E-001	-3.79674E-001	8	...........
	39	4	-3.89615E-001	-5.06639E-005	0.00000E+000	-3.90001E-001	-3.89878E-001	8	...........
	40	4.1	-3.99816E-001	-5.11314E-005	0.00000E+000	-3.99999E-001	-3.99881E-001	8	...........
	41	4.2	-4.09416E-001	-5.23668E-005	0.00000E+000	-4.09998E-001	-4.09685E-001	8	...........
	42	4.3	-4.19616E-001	-5.35355E-005	0.00000E+000	-4.19997E-001	-4.19689E-001	8	...........
	43	4.4	-4.29816E-001	-5.47709E-005	0.00000E+000	-4.29996E-001	-4.29692E-001	8	...........
	44	4.5	-4.39416E-001	-5.61065E-005	0.00000E+000	-4.39994E-001	-4.39896E-001	8	...........
	45	4.6	-4.49617E-001	-5.74254E-005	0.00000E+000	-4.49993E-001	-4.49700E-001	8	...........
	46	4.7	-4.59817E-001	-5.89279E-005	0.00000E+000	-4.59992E-001	-4.59904E-001	8	...........
	47	4.8	-4.69417E-001	-6.02969E-005	0.00000E+000	-4.69991E-001	-4.69707E-001	8	...........
	48	4.9	-4.79417E-001	-6.16993E-005	0.00000E+000	-4.79989E-001	-4.79911E-001	8	...........
	49	5	-4.89618E-001	-6.32686E-005	0.00000E+000	-4.89988E-001	-4.89915E-001	8	...........
	50	5.1	-4.99618E-001	-6.47211E-005	0.00000E+000	-4.99987E-001	-4.99918E-001	8	...........
	51	5.2	-5.09618E-001	-6.63238E-005	0.00000E+000	-5.09986E-001	-5.09722E-001	8	...........
	52	5.3	-5.19618E-001	-6.79265E-005	0.00000E+000	-5.19984E-001	-5.19726E-001	8	...........
	53	5.4	-5.29419E-001	-6.95793E-005	0.00000E+000	-5.29983E-001	-5.29729E-001	8	...........
	54	5.5	-5.39419E-001	-7.14158E-005	0.00000E+000	-5.39982E-001	-5.39733E-001	8	...........
	55	5.6	-5.49419E-001	-7.30686E-005	0.00000E+000	-5.49981E-001	-5.49737E-001	8	...........
	56	5.7	-5.59619E-001	-7.48716E-005	0.00000E+000	-5.59979E-001	-5.59741E-001	8	...........
	57	5.8	-5.69619E-001	-7.67915E-005	0.00000E+000	-5.69978E-001	-5.69744E-001	8	...........
	58	5.9	-5.79420E-001	-7.85779E-005	0.00000E+000	-5.79977E-001	-5.79548E-001	8	...........
	59	6	-5.89420E-001	-8.04811E-005	0.00000E+000	-5.89975E-001	-5.89952E-001	8	...........
	60	6.1	-5.99420E-001	-8.23677E-005	0.00000E+000	-5.99974E-001	-5.99755E-001	8	...........
	61	6.2	-6.09420E-001	-8.44378E-005	0.00000E+000	-6.10023E-001	-6.09559E-001	8	...........
	62	6.3	-6.19421E-001	-8.64078E-005	0.00000E+000	-6.20022E-001	-6.19763E-001	8	...........
	63	6.4	-6.29421E-001	-8.84446E-005	0.00000E+000	-6.30020E-001	-6.29766E-001	8	...........
	64	6.5	-6.39621E-001	-9.06484E-005	0.00000E+000	-6.40019E-001	-6.39570E-001	8	...........
	65	6.6	-6.49421E-001	-9.27519E-005	0.00000E+000	-6.50018E-001	-6.49774E-001	8	...........
	66	6.7	-6.59421E-001	-9.50558E-005	0.00000E+000	-6.60017E-001	-6.59577E-001	8	...........
	67	6.8	-6.69422E-001	-9.73597E-005	0.00000E+000	-6.70015E-001	-6.69781E-001	8	...........
	68	6.9	-6.79622E-001	-9.97638E-005	0.00000E+000	-6.80014E-001	-6.79585E-001	8	...........
	69	7	-6.89622E-001	-1.02134E-004	0.00000E+000	-6.90013E-001	-6.89388E-001	8	...........
	70	7.1	-6.99222E-001	-1.04505E-004	0.00000E+000	-7.00012E-001	-6.99592E-001	8	...........
	71	7.2	-7.09423E-001	-1.07126E-004	0.00000E+000	-7.10010E-001	-7.09596E-001	8	...........
	72	7.3	-7.19623E-001	-1.09747E-004	0.00000E+000	-7.20009E-001	-7.19800E-001	8	...........
	73	7.4	-7.29223E-001	-1.12385E-004	0.00000E+000	-7.30008E-001	-7.29603E-001	8	...........
	74	7.5	-7.39423E-001	-1.15106E-004	0.00000E+000	-7.40007E-001	-7.39607E-001	8	...........
	75	7.6	-7.49424E-001	-1.17861E-004	0.00000E+000	-7.50005E-001	-7.49611E-001	8	...........
	76	7.7	-7.59424E-001	-1.20749E-004	0.00000E+000	-7.60004E-001	-7.59614E-001	8	...........
	77	7.8	-7.69424E-001	-1.23754E-004	0.00000E+000	-7.70003E-001	-7.69618E-001	8	...........
	78	7.9	-7.79424E-001	-1.26776E-004	0.00000E+000	-7.80001E-001	-7.79622E-001	8	...........
	79	8	-7.89224E-001	-1.29915E-004	0.00000E+000	-7.90000E-001	-7.89625E-001	8	...........
	80	8.1	-7.99425E-001	-1.33104E-004	0.00000E+000	-7.99999E-001	-7.99629E-001	8	...........
	81	8.2	-7.90224E-001	-1.03186E-004	0.00000E+000	-7.90000E-001	-7.89425E-001	8	...........
	82	8.3	-7.80024E-001	-9.14330E-005	0.00000E+000	-7.80001E-001	-7.79622E-001	8	...........
	83	8.4	-7.70024E-001	-8.16999E-005	0.00000E+000	-7.70003E-001	-7.69618E-001	8	...........
	84	8.5	-7.60024E-001	-7.33691E-005	0.00000E+000	-7.60004E-001	-7.59614E-001	8	...........
	85	8.6	-7.49824E-001	-6.63238E-005	0.00000E+000	-7.50005E-001	-7.49611E-001	8	...........
	86	8.7	-7.39823E-001	-6.01634E-005	0.00000E+000	-7.40007E-001	-7.39607E-001	8	...........
	87	8.8	-7.29823E-001	-5.46039E-005	0.00000E+000	-7.30008E-001	-7.29803E-001	8	...........
	88	8.9	-7.20023E-001	-4.98125E-005	0.00000E+000	-7.20009E-001	-7.19600E-001	8	...........
	89	9	-7.09823E-001	-4.55720E-005	0.00000E+000	-7.10010E-001	-7.09396E-001	8	...........
	90	9.1	-6.99822E-001	-4.16486E-005	0.00000E+000	-7.00012E-001	-6.99592E-001	8	...........
	91	9.2	-6.89822E-001	-3.80258E-005	0.00000E+000	-6.90013E-001	-6.89588E-001	8	...........
	92	9.3	-6.79822E-001	-3.46030E-005	0.00000E+000	-6.80014E-001	-6.79785E-001	7	...........
	93	9.4	-6.69822E-001	-3.36727E-005	0.00000E+000	-6.70015E-001	-6.69581E-001	7	...........
	94	9.5	-6.59822E-001	-3.02487E-005	0.00000E+000	-6.60017E-001	-6.59577E-001	7	...........
	95	9.6	-6.49821E-001	-2.78453E-005	0.00000E+000	-6.50018E-001	-6.49574E-001	7	...........
	96	9.7	-6.40021E-001	-2.55020E-005	0.00000E+000	-6.40019E-001	-6.39570E-001	7	...........
	97	9.8	-6.30021E-001	-2.32238E-005	0.00000E+000	-6.30020E-001	-6.29766E-001	7	...........
	98	9.9	-6.19821E-001	-2.11878E-005	0.00000E+000	-6.20022E-001	-6.19763E-001	7	...........
	99	10	-6.09820E-001	-1.93856E-005	0.00000E+000	-6.10023E-001	-6.09759E-001	7	...........
	100	10.1	-6.00020E-001	-1.74933E-005	0.00000E+000	-5.99974E-001	-5.99555E-001	7	...........
	101	10.2	-5.90020E-001	-1.58648E-005	0.00000E+000	-5.89975E-001	-5.89552E-001	7	...........
	102	10.3	-5.80020E-001	-1.43366E-005	0.00000E+000	-5.79977E-001	-5.79748E-001	7	...........
	103	10.4	-5.69819E-001	-1.27950E-005	0.00000E+000	-5.69978E-001	-5.69544E-001	7	...........
	104	10.5	-5.60019E-001	-1.14154E-005	0.00000E+000	-5.59979E-001	-5.59540E-001	7	...........
	105	10.6	-5.49819E-001	-1.01126E-005	0.00000E+000	-5.49981E-001	-5.49737E-001	7	...........
	106	10.7	-5.40019E-001	-8.81653E-006	0.00000E+000	-5.39982E-001	-5.39733E-001	7	...........
	107	10.8	-5.30019E-001	-7.59226E-006	0.00000E+000	-5.29983E-001	-5.29729E-001	7	...........
	108	10.9	-5.19818E-001	-6.51998E-006	0.00000E+000	-5.19984E-001	-5.19726E-001	7	...........
	109	11	-5.10218E-001	-5.44938E-006	0.00000E+000	-5.09986E-001	-5.09922E-001	7	...........
	110	11.1	-5.00018E-001	-4.41719E-006	0.00000E+000	-4.99987E-001	-4.99718E-001	7	...........
	111	11.2	-4.90218E-001	-3.41172E-006	0.00000E+000	-4.89988E-001	-4.89715E-001	7	...........
	112	11.3	-4.80017E-001	-2.46471E-006	0.00000E+000	-4.79989E-001	-4.79711E-001	7	...........
	113	11.4	-4.69817E-001	-1.54275E-006	0.00000E+000	-4.69991E-001	-4.69707E-001	7	...........
	114	11.5	-4.60017E-001	-6.59206E-007	0.00000E+000	-4.59992E-001	-4.59904E-001	7	...........
	115	11.6	-4.49817E-001	1.75901E-007	0.00000E+000	-4.49993E-001	-4.49900E-001	7	...........
	116	11.7	-4.40016E-001	9.85955E-007	0.00000E+000	-4.39994E-001	-4.39896E-001	7	...........
	117	11.8	-4.30216E-001	1.72085E-006	0.00000E+000	-4.29996E-001	-4.29692E-001	7	...........
	118	11.9	-4.19816E-001	2.48748E-006	0.00000E+000	-4.19997E-001	-4.19689E-001	7	...........
	119	12	-4.10216E-001	3.19732E-006	0.00000E+000	-4.09998E-001	-4.09885E-001	7	...........
	120	12.1	-4.00016E-001	3.89547E-006	0.00000E+000	-3.99999E-001	-3.99681E-001	7	...........
	121	12.2	-3.90215E-001	4.57858E-006	0.00000E+000	-3.90001E-001	-3.90078E-001	7	...........
	122	12.3	-3.80015E-001	5.22997E-006	0.00000E+000	-3.80002E-001	-3.79874E-001	7	...........
	123	12.4	-3.70215E-001	5.85630E-006	0.00000E+000	-3.70003E-001	-3.69870E-001	7	...........
	124	12.5	-3.60015E-001	6.42250E-006	0.00000E+000	-3.60005E-001	-3.59867E-001	7	...........
	125	12.6	-3.50214E-001	7.03881E-006	0.00000E+000	-3.50006E-001	-3.49863E-001	7	...........
	126	12.7	-3.40214E-001	7.60000E-006	0.00000E+000	-3.40007E-001	-3.39859E-001	7	...........
	127	12.8	-3.30014E-001	8.16453E-006	0.00000E+000	-3.30008E-001	-3.30056E-001	7	...........
	128	12.9	-3.20214E-001	8.69733E-006	0.00000E+000	-3.20010E-001	-3.19852E-001	7	...........
	129	13	-3.10214E-001	9.24182E-006	0.00000E+000	-3.10011E-001	-3.10048E-001	7	...........
	130	13.1	-3.00013E-001	9.79132E-006	0.00000E+000	-3.00012E-001	-2.99844E-001	7	...........
	131	13.2	-2.90213E-001	1.02857E-005	0.00000E+000	-2.90013E-001	-2.90041E-001	7	...........
	132	13.3	-2.80213E-001	1.07634E-005	0.00000E+000	-2.80015E-001	-2.79637E-001	7	...........
	133	13.4	-2.70213E-001	1.12745E-005	0.00000E+000	-2.70016E-001	-2.70033E-001	7	...........
	134	13.5	-2.60012E-001	1.17622E-005	0.00000E+000	-2.60017E-001	-2.60030E-001	7	...........
	135	13.6	-2.50012E-001	1.22365E-005	0.00000E+000	-2.50018E-001	-2.50026E-001	7	...........
	136	13.7	-2.40212E-001	1.27242E-005	0.00000E+000	-2.40020E-001	-2.40022E-001	7	...........
	137	13.8	-2.30212E-001	1.31635E-005	0.00000E+000	-2.30021E-001	-2.30019E-001	7	...........
	138	13.9	-2.20411E-001	1.36128E-005	0.00000E+000	-2.20022E-001	-2.20015E-001	7	...........
	139	14	-2.10011E-001	1.40704E-005	0.00000E+000	-2.10023E-001	-2.10011E-001	7	...........
	140	14.1	-2.00211E-001	1.45297E-005	0.00000E+000	-1.99975E-001	-2.00008E-001	7	...........
	141	14.2	-1.90411E-001	1.49673E-005	0.00000E+000	-1.89976E-001	-1.90004E-001	7	...........
	142	14.3	-1.80011E-001	1.53849E-005	0.00000E+000	-1.79977E-001	-1.80000E-001	7	...........
	143	14.4	-1.70210E-001	1.58308E-005	0.00000E+000	-1.69979E-001	-1.69996E-001	7	...........
	144	14.5	-1.60210E-001	1.62534E-005	0.00000E+000	-1.59980E-001	-1.59993E-001	7	...........
	145	14.6	-1.50210E-001	1.66759E-005	0.00000E+000	-1.49981E-001	-1.49989E-001	7	...........
	146	14.7	-1.40210E-001	1.71202E-005	0.00000E+000	-1.39982E-001	-1.39785E-001	7	...........
	147	14.8	-1.30209E-001	1.75394E-005	0.00000E+000	-1.29984E-001	-1.29982E-001	7	...........
	148	14.9	-1.20209E-001	1.79804E-005	0.00000E+000	-1.19985E-001	-1.20178E-001	7	...........
	149	15	-1.10209E-001	1.83963E-005	0.00000E+000	-1.09986E-001	-1.09974E-001	7	...........
	150	15.1	-1.00409E-001	1.88222E-005	0.00000E+000	-9.99874E-002	-9.99706E-002	7	...........
	151	15.2	-9.02085E-002	1.92431E-005	0.00000E+000	-8.99886E-002	-9.01669E-002	7	...........
	152	15.3	-8.04083E-002	1.96606E-005	0.00000E+000	-7.99899E-002	-7.99632E-002	7	...........
	153	15.4	-7.04081E-002	2.00899E-005	0.00000E+000	-6.99912E-002	-6.99595E-002	7	...........
	154	15.5	-6.04079E-002	2.05091E-005	0.00000E+000	-5.99924E-002	-5.99558E-002	7	...........
	155	15.6	-5.04076E-002	2.09483E-005	0.00000E+000	-4.99937E-002	-5.01521E-002	7	...........
	156	15.7	-4.04074E-002	2.14026E-005	0.00000E+000	-3.99949E-002	-4.03485E-002	7	...........
	157	15.8	-3.04072E-002	2.18202E-005	0.00000E+000	-2.99962E-002	-3.01447E-002	7	...........
	158	15.9	-2.04069E-002	2.22444E-005	0.00000E+000	-1.99975E-002	-2.01410E-002	7	...........
	159	16	-1.02067E-002	2.26870E-005	0.00000E+000	-9.99874E-003	-1.01373E-002	7	...........
	160	16.1	-2.06485E-004	2.31347E-005	0.00000E+000	0.00000E+000	-1.33649E-004	7	...........
	161	16.2	9.59374E-003	2.35906E-005	0.00000E+000	9.99874E-003	9.87005E-003	7	...........
	162	16.3	1.95940E-002	2.40483E-005	0.00000E+000	1.99975E-002	1.96737E-002	7	...........
	163	16.4	2.95942E-002	2.44925E-005	0.00000E+000	2.99962E-002	2.98774E-002	7	...........
	164	16.5	3.97944E-002	2.49602E-005	0.00000E+000	3.99949E-002	3.96811E-002	7	...........
	165	16.6	4.95946E-002	2.54128E-005	0.00000E+000	4.99937E-002	4.96848E-002	7	...........
	166	16.7	5.95949E-002	2.58855E-005	0.00000E+000	5.99924E-002	5.98885E-002	7	...........
	167	16.8	6.95951E-002	2.63498E-005	0.00000E+000	6.99912E-002	6.96922E-002	7	...........
	168	16.9	7.95953E-002	2.68459E-005	0.00000E+000	7.99899E-002	7.96959E-002	7	...........
	169	17	8.95955E-002	2.73519E-005	0.00000E+000	8.99886E-002	8.96996E-002	7	...........
	170	17.1	9.95958E-002	2.78313E-005	0.00000E+000	9.99874E-002	9.97033E-002	7	...........
	171	17.2	1.09596E-001	2.83140E-005	0.00000E+000	1.09986E-001	1.09907E-001	7	...........
	172	17.3	1.19396E-001	2.88384E-005	0.00000E+000	1.19985E-001	1.19711E-001	7	...........
	173	17.4	1.29596E-001	2.93378E-005	0.00000E+000	1.29984E-001	1.29514E-001	7	...........
	174	17.5	1.39597E-001	2.98389E-005	0.00000E+000	1.39982E-001	1.39718E-001	7	...........
	175	17.6	1.49597E-001	3.03617E-005	0.00000E+000	1.49981E-001	1.49522E-001	7	...........
	176	17.7	1.59597E-001	3.08861E-005	0.00000E+000	1.59980E-001	1.59725E-001	7	...........
	177	17.8	1.69597E-001	3.13772E-005	0.00000E+000	1.69979E-001	1.69529E-001	7	...........
	178	17.9	1.79598E-001	3.19333E-005	0.00000E+000	1.79977E-001	1.79733E-001	7	...........
	179	18	1.89598E-001	3.24628E-005	0.00000E+000	1.89976E-001	1.89536E-001	7	...........
	180	18.1	1.99398E-001	3.29872E-005	0.00000E+000	1.99975E-001	1.99540E-001	7	...........
	181	18.2	2.09398E-001	3.35468E-005	0.00000E+000	2.10023E-001	2.09744E-001	7	...........
	182	18.3	2.19599E-001	3.41013E-005	0.00000E+000	2.20022E-001	2.19748E-001	7	...........
	183	18.4	2.29399E-001	3.46424E-005	0.00000E+000	2.30021E-001	2.29551E-001	7	...........
	184	18.5	2.39399E-001	3.52320E-005	0.00000E+000	2.40020E-001	2.39755E-001	7	...........
	185	18.6	2.49599E-001	3.58817E-005	0.00000E+000	2.50018E-001	2.49559E-001	7	...........
	186	18.7	2.59599E-001	3.65064E-005	0.00000E+000	2.60017E-001	2.59762E-001	7	...........
	187	18.8	2.69400E-001	3.71711E-005	0.00000E+000	2.70016E-001	2.69566E-001	7	...........
	188	18.9	2.79400E-001	3.77908E-005	0.00000E+000	2.80015E-001	2.79370E-001	7	...........
	189	19	2.89600E-001	3.85257E-005	0.00000E+000	2.90013E-001	2.89573E-001	7	...........
	190	19.1	2.99400E-001	3.92522E-005	0.00000E+000	3.00012E-001	2.99377E-001	7	...........
	191	19.2	3.09401E-001	3.99754E-005	0.00000E+000	3.10011E-001	3.09581E-001	7	...........
	192	19.3	3.19401E-001	4.07020E-005	0.00000E+000	3.20010E-001	3.19384E-001	7	...........
	193	19.4	3.29401E-001	4.14653E-005	0.00000E+000	3.30008E-001	3.29588E-001	7	...........
	194	19.5	3.39401E-001	4.22736E-005	0.00000E+000	3.40007E-001	3.39592E-001	7	...........
	195	19.6	3.49401E-001	4.29735E-005	0.00000E+000	3.50006E-001	3.49596E-001	7	...........
	196	19.7	3.59402E-001	4.37568E-005	0.00000E+000	3.60005E-001	3.59599E-001	7	...........
	197	19.8	3.69402E-001	4.45217E-005	0.00000E+000	3.70003E-001	3.69403E-001	7	...........
	198	19.9	3.79402E-001	5.78032E-005	0.00000E+000	3.80002E-001	3.79407E-001	8	...........
	199	20	3.89402E-001	4.10582E-005	0.00000E+000	3.90001E-001	3.89610E-001	8	...........
	200	20.1	3.99203E-001	4.88214E-005	0.00000E+000	3.99999E-001	3.99414E-001	8	...........
	201	20.2	4.09203E-001	4.89382E-005	0.00000E+000	4.09998E-001	4.09418E-001	8	...........
	202	20.3	4.19203E-001	4.96728E-005	0.00000E+000	4.19997E-001	4.19621E-001	8	...........
	203	20.4	4.29203E-001	5.04074E-005	0.00000E+000	4.29996E-001	4.29425E-001	8	...........
	204	20.5	4.39404E-001	5.11586E-005	0.00000E+000	4.39994E-001	4.39629E-001	8	...........
	205	20.6	4.49204E-001	5.19099E-005	0.00000E+000	4.49993E-001	4.49232E-001	8	...........
	206	20.7	4.59204E-001	5.27113E-005	0.00000E+000	4.59992E-001	4.59236E-001	8	...........
	207	20.8	4.69404E-001	5.34792E-005	0.00000E+000	4.69991E-001	4.69440E-001	8	...........
	208	20.9	4.79404E-001	5.42472E-005	0.00000E+000	4.79989E-001	4.79444E-001	8	...........
	209	21	4.89405E-001	5.50152E-005	0.00000E+000	4.89988E-001	4.89447E-001	8	...........
	210	21.1	4.99405E-001	5.58332E-005	0.00000E+000	4.99987E-001	4.99451E-001	8	...........
	211	21.2	5.09405E-001	5.67014E-005	0.00000E+000	5.09986E-001	5.09255E-001	8	...........
	212	21.3	5.19205E-001	5.75194E-005	0.00000E+000	5.19984E-001	5.19258E-001	8	...........
	213	21.4	5.29206E-001	5.83542E-005	0.00000E+000	5.29983E-001	5.29262E-001	8	...........
	214	21.5	5.39406E-001	5.92724E-005	0.00000E+000	5.39982E-001	5.39266E-001	8	...........
	215	21.6	5.49206E-001	6.01739E-005	0.00000E+000	5.49981E-001	5.49469E-001	8	...........
	216	21.7	5.59206E-001	6.10421E-005	0.00000E+000	5.59979E-001	5.59273E-001	8	...........
	217	21.8	5.69206E-001	6.19603E-005	0.00000E+000	5.69978E-001	5.69277E-001	8	...........
	218	21.9	5.79207E-001	6.30121E-005	0.00000E+000	5.79977E-001	5.79481E-001	8	...........
	219	22	5.89407E-001	6.38802E-005	0.00000E+000	5.89975E-001	5.89484E-001	8	...........
	220	22.1	5.99207E-001	6.48151E-005	0.00000E+000	5.99974E-001	5.99288E-001	8	...........
	221	22.2	6.09207E-001	6.59337E-005	0.00000E+000	6.10023E-001	6.09292E-001	8	...........
	222	22.3	6.19408E-001	6.69020E-005	0.00000E+000	6.20022E-001	6.19295E-001	8	...........
	223	22.4	6.29208E-001	6.79705E-005	0.00000E+000	6.30020E-001	6.29099E-001	8	...........
	224	22.5	6.39208E-001	6.90056E-005	0.00000E+000	6.40019E-001	6.39303E-001	8	...........
	225	22.6	6.49208E-001	7.01408E-005	0.00000E+000	6.50018E-001	6.49306E-001	8	...........
	226	22.7	6.59208E-001	7.11926E-005	0.00000E+000	6.60017E-001	6.59110E-001	8	...........
	227	22.8	6.69209E-001	7.23946E-005	0.00000E+000	6.70015E-001	6.69314E-001	8	...........
	228	22.9	6.79209E-001	7.35800E-005	0.00000E+000	6.80014E-001	6.79318E-001	8	...........
	229	23	6.89209E-001	7.47653E-005	0.00000E+000	6.90013E-001	6.89321E-001	8	...........
	230	23.1	6.99209E-001	7.60174E-005	0.00000E+000	7.00012E-001	6.99125E-001	8	...........
	231	23.2	7.09210E-001	7.72863E-005	0.00000E+000	7.10010E-001	7.09329E-001	8	...........
	232	23.3	7.19210E-001	7.86052E-005	0.00000E+000	7.20009E-001	7.19532E-001	8	...........
	233	23.4	7.29210E-001	7.99241E-005	0.00000E+000	7.30008E-001	7.29336E-001	8	...........
	234	23.5	7.39010E-001	8.12263E-005	0.00000E+000	7.40007E-001	7.39340E-001	8	...........
	235	23.6	7.49211E-001	8.25786E-005	0.00000E+000	7.50005E-001	7.49343E-001	8	...........
	236	23.7	7.59011E-001	8.40143E-005	0.00000E+000	7.60004E-001	7.59147E-001	8	...........
	237	23.8	7.69211E-001	8.54000E-005	0.00000E+000	7.70003E-001	7.69351E-001	8	...........
	238	23.9	7.79011E-001	8.67690E-005	0.00000E+000	7.80001E-001	7.79154E-001	8	...........
	239	24	7.89011E-001	8.83550E-005	0.00000E+000	7.90000E-001	7.89358E-001	8	...........
	240	24.1	7.99212E-001	8.97574E-005	0.00000E+000	7.99999E-001	7.99162E-001	8	...........
CURVE2	TABLE
	Pt	T	Vf	Im	Vu	Sig	Ach	IERange	Over
	#	s	V vs. Ref.	A	V	V	V	#	bits
	241	24.2	7.89811E-001	7.35132E-005	0.00000E+000	7.90000E-001	7.89158E-001	8	...........
	242	24.3	7.79611E-001	6.66683E-005	0.00000E+000	7.80001E-001	7.79354E-001	8	...........
	243	24.4	7.69611E-001	6.11088E-005	0.00000E+000	7.70003E-001	7.69151E-001	8	...........
	244	24.5	7.59411E-001	5.64176E-005	0.00000E+000	7.60004E-001	7.59347E-001	8	...........
	245	24.6	7.49611E-001	5.22271E-005	0.00000E+000	7.50005E-001	7.49143E-001	8	...........
	246	24.7	7.39610E-001	4.83539E-005	0.00000E+000	7.40007E-001	7.39140E-001	8	...........
	247	24.8	7.29810E-001	4.48813E-005	0.00000E+000	7.30008E-001	7.29136E-001	8	...........
	248	24.9	7.19810E-001	4.17260E-005	0.00000E+000	7.20009E-001	7.19332E-001	8	...........
	249	25	7.09610E-001	3.88211E-005	0.00000E+000	7.10010E-001	7.09129E-001	8	...........
	250	25.1	6.99809E-001	3.54191E-005	0.00000E+000	7.00012E-001	6.99125E-001	7	...........
	251	25.2	6.89609E-001	3.48763E-005	0.00000E+000	6.90013E-001	6.89321E-001	7	...........
	252	25.3	6.79609E-001	3.17930E-005	0.00000E+000	6.80014E-001	6.79318E-001	7	...........
	253	25.4	6.69609E-001	2.96184E-005	0.00000E+000	6.70015E-001	6.69314E-001	7	...........
	254	25.5	6.59809E-001	2.75156E-005	0.00000E+000	6.60017E-001	6.59510E-001	7	...........
	255	25.6	6.49608E-001	2.55114E-005	0.00000E+000	6.50018E-001	6.49306E-001	7	...........
	256	25.7	6.39608E-001	2.36892E-005	0.00000E+000	6.40019E-001	6.39503E-001	7	...........
	257	25.8	6.29808E-001	2.19304E-005	0.00000E+000	6.30020E-001	6.29299E-001	7	...........
	258	25.9	6.19608E-001	2.02719E-005	0.00000E+000	6.20022E-001	6.19295E-001	7	...........
	259	26	6.09807E-001	1.86635E-005	0.00000E+000	6.10023E-001	6.09492E-001	7	...........
	260	26.1	5.99807E-001	1.71920E-005	0.00000E+000	6.00024E-001	5.99488E-001	7	...........
	261	26.2	5.89807E-001	1.57657E-005	0.00000E+000	5.89975E-001	5.89284E-001	7	...........
	262	26.3	5.79607E-001	1.43978E-005	0.00000E+000	5.79977E-001	5.79481E-001	7	...........
	263	26.4	5.69606E-001	1.31535E-005	0.00000E+000	5.69978E-001	5.69277E-001	7	...........
	264	26.5	5.59806E-001	1.18874E-005	0.00000E+000	5.59979E-001	5.59473E-001	7	...........
	265	26.6	5.49606E-001	1.07049E-005	0.00000E+000	5.49981E-001	5.49269E-001	7	...........
	266	26.7	5.39806E-001	9.60760E-006	0.00000E+000	5.39982E-001	5.39266E-001	7	...........
	267	26.8	5.29806E-001	8.52196E-006	0.00000E+000	5.29983E-001	5.29462E-001	7	...........
	268	26.9	5.19605E-001	7.51315E-006	0.00000E+000	5.19984E-001	5.19458E-001	7	...........
	269	27	5.09605E-001	6.51102E-006	0.00000E+000	5.09986E-001	5.09255E-001	7	...........
	270	27.1	4.99605E-001	5.55733E-006	0.00000E+000	4.99987E-001	4.99251E-001	7	...........
	271	27.2	4.89605E-001	4.65040E-006	0.00000E+000	4.89988E-001	4.89247E-001	7	...........
	272	27.3	4.79804E-001	3.77354E-006	0.00000E+000	4.79989E-001	4.79444E-001	7	...........
	273	27.4	4.69804E-001	2.94010E-006	0.00000E+000	4.69991E-001	4.69440E-001	7	...........
	274	27.5	4.59804E-001	2.12170E-006	0.00000E+000	4.59992E-001	4.59236E-001	7	...........
	275	27.6	4.49804E-001	1.32501E-006	0.00000E+000	4.49993E-001	4.49433E-001	7	...........
	276	27.7	4.39804E-001	5.50029E-007	0.00000E+000	4.39994E-001	4.39429E-001	7	...........
	277	27.8	4.29803E-001	-1.78184E-007	0.00000E+000	4.29996E-001	4.29625E-001	7	...........
	278	27.9	4.19803E-001	-9.28110E-007	0.00000E+000	4.19997E-001	4.19621E-001	7	...........
	279	28	4.09603E-001	-1.64630E-006	0.00000E+000	4.09998E-001	4.09618E-001	7	...........
	280	28.1	3.99803E-001	-2.33777E-006	0.00000E+000	3.99999E-001	3.99414E-001	7	...........
	281	28.2	3.89602E-001	-2.99249E-006	0.00000E+000	3.90001E-001	3.89410E-001	7	...........
	282	28.3	3.79602E-001	-3.63887E-006	0.00000E+000	3.80002E-001	3.79607E-001	7	...........
	283	28.4	3.70002E-001	-4.30695E-006	0.00000E+000	3.70003E-001	3.69403E-001	7	...........
	284	28.5	3.59802E-001	-4.93996E-006	0.00000E+000	3.60005E-001	3.59599E-001	7	...........
	285	28.6	3.49801E-001	-5.54124E-006	0.00000E+000	3.50006E-001	3.49396E-001	7	...........
	286	28.7	3.40001E-001	-6.12916E-006	0.00000E+000	3.40007E-001	3.39592E-001	7	...........
	287	28.8	3.29801E-001	-6.70705E-006	0.00000E+000	3.30008E-001	3.29588E-001	7	...........
	288	28.9	3.20001E-001	-7.27993E-006	0.00000E+000	3.20010E-001	3.19585E-001	7	...........
	289	29	3.10001E-001	-7.84279E-006	0.00000E+000	3.10011E-001	3.09581E-001	7	...........
	290	29.1	3.00000E-001	-8.38227E-006	0.00000E+000	3.00012E-001	2.99577E-001	7	...........
	291	29.2	2.89800E-001	-8.91841E-006	0.00000E+000	2.90013E-001	2.89373E-001	7	...........
	292	29.3	2.79800E-001	-9.43785E-006	0.00000E+000	2.80015E-001	2.79570E-001	7	...........
	293	29.4	2.70000E-001	-9.94058E-006	0.00000E+000	2.70016E-001	2.69566E-001	7	...........
	294	29.5	2.59999E-001	-1.04383E-005	0.00000E+000	2.60017E-001	2.59562E-001	7	...........
	295	29.6	2.49799E-001	-1.08726E-005	0.00000E+000	2.50018E-001	2.49559E-001	7	...........
	296	29.7	2.39999E-001	-1.13486E-005	0.00000E+000	2.40020E-001	2.39555E-001	7	...........
	297	29.8	2.29999E-001	-1.17862E-005	0.00000E+000	2.30021E-001	2.29751E-001	7	...........
	298	29.9	2.19999E-001	-1.22288E-005	0.00000E+000	2.20022E-001	2.19548E-001	7	...........
	299	30	2.09998E-001	-1.26764E-005	0.00000E+000	2.10023E-001	2.09744E-001	7	...........
	300	30.1	1.99998E-001	-1.31023E-005	0.00000E+000	2.00025E-001	1.99540E-001	7	...........
	301	30.2	1.89998E-001	-1.35182E-005	0.00000E+000	1.90026E-001	1.89536E-001	7	...........
	302	30.3	1.79998E-001	-1.39474E-005	0.00000E+000	1.79977E-001	1.79533E-001	7	...........
	303	30.4	1.69797E-001	-1.43416E-005	0.00000E+000	1.69979E-001	1.69529E-001	7	...........
	304	30.5	1.59997E-001	-1.47291E-005	0.00000E+000	1.59980E-001	1.59725E-001	7	...........
	305	30.6	1.49997E-001	-1.51199E-005	0.00000E+000	1.49981E-001	1.49722E-001	7	...........
	306	30.7	1.40197E-001	-1.55124E-005	0.00000E+000	1.39982E-001	1.39518E-001	7	...........
	307	30.8	1.29996E-001	-1.58832E-005	0.00000E+000	1.29984E-001	1.29714E-001	7	...........
	308	30.9	1.19996E-001	-1.62707E-005	0.00000E+000	1.19985E-001	1.19711E-001	7	...........
	309	31	1.09996E-001	-1.66465E-005	0.00000E+000	1.09986E-001	1.09707E-001	7	...........
	310	31.1	9.99958E-002	-1.70206E-005	0.00000E+000	9.99874E-002	9.97033E-002	7	...........
	311	31.2	9.01956E-002	-1.74148E-005	0.00000E+000	8.99886E-002	8.96996E-002	7	...........
	312	31.3	8.01953E-002	-1.78006E-005	0.00000E+000	7.99899E-002	7.98959E-002	7	...........
	313	31.4	7.01951E-002	-1.81914E-005	0.00000E+000	6.99912E-002	6.96922E-002	7	...........
	314	31.5	5.99949E-002	-1.85823E-005	0.00000E+000	5.99924E-002	5.96885E-002	7	...........
	315	31.6	5.01947E-002	-1.89781E-005	0.00000E+000	4.99937E-002	4.96848E-002	7	...........
	316	31.7	3.99944E-002	-1.93539E-005	0.00000E+000	3.99949E-002	3.98811E-002	7	...........
	317	31.8	2.99942E-002	-1.97648E-005	0.00000E+000	2.99962E-002	2.96774E-002	7	...........
	318	31.9	1.99940E-002	-2.01723E-005	0.00000E+000	1.99975E-002	1.98737E-002	7	...........
	319	32	1.01938E-002	-2.06082E-005	0.00000E+000	9.99874E-003	9.87005E-003	7	...........
	320	32.1	-6.48014E-006	-2.10458E-005	0.00000E+000	0.00000E+000	-1.33649E-004	7	...........
	321	32.2	-9.80670E-003	-2.14801E-005	0.00000E+000	-9.99874E-003	-1.01373E-002	7	...........
	322	32.3	-1.98069E-002	-2.19310E-005	0.00000E+000	-1.99975E-002	-2.01410E-002	7	...........
	323	32.4	-3.00072E-002	-2.23887E-005	0.00000E+000	-2.99962E-002	-3.01447E-002	7	...........
	324	32.5	-3.98074E-002	-2.28747E-005	0.00000E+000	-3.99949E-002	-4.01484E-002	7	...........
	325	32.6	-4.98076E-002	-2.33474E-005	0.00000E+000	-4.99937E-002	-4.99521E-002	7	...........
	326	32.7	-5.98078E-002	-2.38451E-005	0.00000E+000	-5.99924E-002	-6.01558E-002	7	...........
	327	32.8	-6.98081E-002	-2.43495E-005	0.00000E+000	-6.99912E-002	-6.99595E-002	7	...........
	328	32.9	-7.98083E-002	-2.48489E-005	0.00000E+000	-7.99899E-002	-8.01632E-002	7	...........
	329	33	-8.98085E-002	-2.54151E-005	0.00000E+000	-8.99886E-002	-8.99668E-002	7	...........
	330	33.1	-9.98088E-002	-2.59145E-005	0.00000E+000	-9.99874E-002	-1.00171E-001	7	...........
	331	33.2	-1.09609E-001	-2.64540E-005	0.00000E+000	-1.09986E-001	-1.09974E-001	7	...........
	332	33.3	-1.19809E-001	-2.70402E-005	0.00000E+000	-1.19985E-001	-1.20178E-001	7	...........
	333	33.4	-1.30009E-001	-2.76081E-005	0.00000E+000	-1.29984E-001	-1.30182E-001	7	...........
	334	33.5	-1.39810E-001	-2.81994E-005	0.00000E+000	-1.39982E-001	-1.39985E-001	7	...........
	335	33.6	-1.49610E-001	-2.87839E-005	0.00000E+000	-1.49981E-001	-1.49989E-001	7	...........
	336	33.7	-1.59810E-001	-2.93551E-005	0.00000E+000	-1.59980E-001	-1.59993E-001	7	...........
	337	33.8	-1.69810E-001	-2.99982E-005	0.00000E+000	-1.69979E-001	-1.69996E-001	7	...........
	338	33.9	-1.79611E-001	-3.06278E-005	0.00000E+000	-1.79977E-001	-1.80000E-001	7	...........
	339	34	-1.89611E-001	-3.12692E-005	0.00000E+000	-1.89976E-001	-1.90004E-001	7	...........
	340	34.1	-1.99811E-001	-3.19557E-005	0.00000E+000	-1.99975E-001	-2.00008E-001	7	...........
	341	34.2	-2.09811E-001	-3.26338E-005	0.00000E+000	-2.09973E-001	-2.10011E-001	7	...........
	342	34.3	-2.19811E-001	-3.32868E-005	0.00000E+000	-2.20022E-001	-2.20015E-001	7	...........
	343	34.4	-2.29812E-001	-3.39883E-005	0.00000E+000	-2.30021E-001	-2.30019E-001	7	...........
	344	34.5	-2.39812E-001	-3.47199E-005	0.00000E+000	-2.40020E-001	-2.40022E-001	7	...........
	345	34.6	-2.49612E-001	-3.54331E-005	0.00000E+000	-2.50018E-001	-2.50026E-001	7	...........
	346	34.7	-2.59812E-001	-3.61813E-005	0.00000E+000	-2.60017E-001	-2.59830E-001	7	...........
	347	34.8	-2.69813E-001	-3.68678E-005	0.00000E+000	-2.70016E-001	-2.70033E-001	7	...........
	348	34.9	-2.79613E-001	-3.77413E-005	0.00000E+000	-2.80015E-001	-2.79837E-001	7	...........
	349	35	-2.89813E-001	-3.84261E-005	0.00000E+000	-2.90013E-001	-2.90041E-001	7	...........
	350	35.1	-2.99813E-001	-3.93113E-005	0.00000E+000	-3.00012E-001	-3.00045E-001	7	...........
	351	35.2	-3.09814E-001	-4.02232E-005	0.00000E+000	-3.10011E-001	-3.10048E-001	7	...........
	352	35.3	-3.19614E-001	-4.10316E-005	0.00000E+000	-3.20010E-001	-3.19852E-001	7	...........
	353	35.4	-3.29614E-001	-4.19085E-005	0.00000E+000	-3.30008E-001	-3.30056E-001	7	...........
	354	35.5	-3.39814E-001	-4.27503E-005	0.00000E+000	-3.40007E-001	-3.39859E-001	7	...........
	355	35.6	-3.49614E-001	-4.37056E-005	0.00000E+000	-3.50006E-001	-3.49663E-001	7	...........
	356	35.7	-3.59815E-001	-4.46309E-005	0.00000E+000	-3.60005E-001	-3.60067E-001	7	...........
	357	35.8	-3.69615E-001	-5.81266E-005	0.00000E+000	-3.70003E-001	-3.70070E-001	8	...........
	358	35.9	-3.79615E-001	-4.15151E-005	0.00000E+000	-3.80002E-001	-3.79674E-001	8	...........
	359	36	-3.89615E-001	-4.95287E-005	0.00000E+000	-3.90001E-001	-3.89878E-001	8	...........
	360	36.1	-3.99816E-001	-4.99293E-005	0.00000E+000	-3.99999E-001	-3.99881E-001	8	...........
	361	36.2	-4.09816E-001	-5.09978E-005	0.00000E+000	-4.09998E-001	-4.09685E-001	8	...........
	362	36.3	-4.19616E-001	-5.22166E-005	0.00000E+000	-4.19997E-001	-4.19889E-001	8	...........
	363	36.4	-4.29416E-001	-5.33351E-005	0.00000E+000	-4.29996E-001	-4.29692E-001	8	...........
	364	36.5	-4.39617E-001	-5.45205E-005	0.00000E+000	-4.39994E-001	-4.39896E-001	8	...........
	365	36.6	-4.49417E-001	-5.57392E-005	0.00000E+000	-4.49993E-001	-4.49700E-001	8	...........
	366	36.7	-4.59617E-001	-5.70581E-005	0.00000E+000	-4.59992E-001	-4.59904E-001	8	...........
	367	36.8	-4.69417E-001	-5.83269E-005	0.00000E+000	-4.69991E-001	-4.69707E-001	8	...........
	368	36.9	-4.79617E-001	-5.97794E-005	0.00000E+000	-4.79989E-001	-4.79711E-001	8	...........
	369	37	-4.89618E-001	-6.10983E-005	0.00000E+000	-4.89988E-001	-4.89715E-001	8	...........
	370	37.1	-4.99618E-001	-6.26175E-005	0.00000E+000	-4.99987E-001	-4.99718E-001	8	...........
	371	37.2	-5.09418E-001	-6.40366E-005	0.00000E+000	-5.09986E-001	-5.09722E-001	8	...........
	372	37.3	-5.19618E-001	-6.55224E-005	0.00000E+000	-5.19984E-001	-5.19726E-001	8	...........
	373	37.4	-5.29419E-001	-6.70751E-005	0.00000E+000	-5.29983E-001	-5.29729E-001	8	...........
	374	37.5	-5.39419E-001	-6.86110E-005	0.00000E+000	-5.39982E-001	-5.39733E-001	8	...........
	375	37.6	-5.49419E-001	-7.02304E-005	0.00000E+000	-5.49981E-001	-5.49737E-001	8	...........
	376	37.7	-5.59619E-001	-7.18498E-005	0.00000E+000	-5.59979E-001	-5.59540E-001	8	...........
	377	37.8	-5.69419E-001	-7.36028E-005	0.00000E+000	-5.69978E-001	-5.69544E-001	8	...........
	378	37.9	-5.79420E-001	-7.54059E-005	0.00000E+000	-5.79977E-001	-5.79548E-001	8	...........
	379	38	-5.89420E-001	-7.71755E-005	0.00000E+000	-5.89975E-001	-5.89552E-001	8	...........
	380	38.1	-5.99420E-001	-7.90454E-005	0.00000E+000	-5.99974E-001	-5.99755E-001	8	...........
	381	38.2	-6.09620E-001	-8.09319E-005	0.00000E+000	-6.09973E-001	-6.09759E-001	8	...........
	382	38.3	-6.19621E-001	-8.29019E-005	0.00000E+000	-6.20022E-001	-6.19763E-001	8	...........
	383	38.4	-6.29421E-001	-8.48385E-005	0.00000E+000	-6.30020E-001	-6.29766E-001	8	...........
	384	38.5	-6.39421E-001	-8.68252E-005	0.00000E+000	-6.40019E-001	-6.39570E-001	8	...........
	385	38.6	-6.49421E-001	-8.89455E-005	0.00000E+000	-6.50018E-001	-6.49574E-001	8	...........
	386	38.7	-6.59421E-001	-9.10657E-005	0.00000E+000	-6.60017E-001	-6.59577E-001	8	...........
	387	38.8	-6.69622E-001	-9.32695E-005	0.00000E+000	-6.70015E-001	-6.69781E-001	8	...........
	388	38.9	-6.79422E-001	-9.54899E-005	0.00000E+000	-6.80014E-001	-6.79785E-001	8	...........
	389	39	-6.89422E-001	-9.78606E-005	0.00000E+000	-6.90013E-001	-6.89588E-001	8	...........
	390	39.1	-6.99422E-001	-1.00315E-004	0.00000E+000	-7.00012E-001	-6.99792E-001	8	...........
	391	39.2	-7.09623E-001	-1.02669E-004	0.00000E+000	-7.10010E-001	-7.09796E-001	8	...........
	392	39.3	-7.19423E-001	-1.05156E-004	0.00000E+000	-7.20009E-001	-7.19600E-001	8	...........
	393	39.4	-7.29423E-001	-1.07744E-004	0.00000E+000	-7.30008E-001	-7.29803E-001	8	...........
	394	39.5	-7.39423E-001	-1.10298E-004	0.00000E+000	-7.40007E-001	-7.39607E-001	8	...........
	395	39.6	-7.49224E-001	-1.12953E-004	0.00000E+000	-7.50005E-001	-7.49611E-001	8	...........
	396	39.7	-7.59424E-001	-1.15824E-004	0.00000E+000	-7.60004E-001	-7.59414E-001	8	...........
	397	39.8	-7.69424E-001	-1.18663E-004	0.00000E+000	-7.70003E-001	-7.69618E-001	8	...........
	398	39.9	-7.79424E-001	-1.21551E-004	0.00000E+000	-7.80001E-001	-7.79422E-001	8	...........
	399	40	-7.89224E-001	-1.24639E-004	0.00000E+000	-7.90000E-001	-7.89425E-001	8	...........
	400	40.1	-7.99425E-001	-1.27728E-004	0.00000E+000	-7.99999E-001	-7.99629E-001	8	...........
	401	40.2	-7.90024E-001	-9.82279E-005	0.00000E+000	-7.90000E-001	-7.89625E-001	8	...........
	402	40.3	-7.79824E-001	-8.67751E-005	0.00000E+000	-7.80001E-001	-7.79422E-001	8	...........
	403	40.4	-7.69824E-001	-7.74426E-005	0.00000E+000	-7.70003E-001	-7.69418E-001	8	...........
	404	40.5	-7.59824E-001	-6.94624E-005	0.00000E+000	-7.60004E-001	-7.59614E-001	8	...........
	405	40.6	-7.49824E-001	-6.27010E-005	0.00000E+000	-7.50005E-001	-7.49611E-001	8	...........
	406	40.7	-7.39823E-001	-5.67409E-005	0.00000E+000	-7.40007E-001	-7.39807E-001	8	...........
	407	40.8	-7.30023E-001	-5.14653E-005	0.00000E+000	-7.30008E-001	-7.29603E-001	8	...........
	408	40.9	-7.20023E-001	-4.68408E-005	0.00000E+000	-7.20009E-001	-7.19600E-001	8	...........
	409	41	-7.09823E-001	-4.27004E-005	0.00000E+000	-7.10010E-001	-7.09596E-001	8	...........
	410	41.1	-6.99822E-001	-3.89274E-005	0.00000E+000	-7.00012E-001	-6.99592E-001	8	...........
	411	41.2	-6.89822E-001	-3.52259E-005	0.00000E+000	-6.90013E-001	-6.89789E-001	7	...........
	412	41.3	-6.79822E-001	-3.42589E-005	0.00000E+000	-6.80014E-001	-6.79585E-001	7	...........
	413	41.4	-6.69822E-001	-3.07164E-005	0.00000E+000	-6.70015E-001	-6.69581E-001	7	...........
	414	41.5	-6.59822E-001	-2.81576E-005	0.00000E+000	-6.60017E-001	-6.59777E-001	7	...........
	415	41.6	-6.50021E-001	-2.56907E-005	0.00000E+000	-6.50018E-001	-6.49574E-001	7	...........
	416	41.7	-6.39821E-001	-2.34927E-005	0.00000E+000	-6.40019E-001	-6.39570E-001	7	...........
	417	41.8	-6.29821E-001	-2.13815E-005	0.00000E+000	-6.30020E-001	-6.29566E-001	7	...........
	418	41.9	-6.19821E-001	-1.93439E-005	0.00000E+000	-6.20022E-001	-6.19763E-001	7	...........
	419	42	-6.09820E-001	-1.75367E-005	0.00000E+000	-6.09973E-001	-6.09559E-001	7	...........
	420	42.1	-5.99820E-001	-1.58014E-005	0.00000E+000	-5.99974E-001	-5.99755E-001	7	...........
	421	42.2	-5.89820E-001	-1.41762E-005	0.00000E+000	-5.89975E-001	-5.89752E-001	7	...........
	422	42.3	-5.79820E-001	-1.26814E-005	0.00000E+000	-5.79977E-001	-5.79748E-001	7	...........
	423	42.4	-5.69819E-001	-1.12768E-005	0.00000E+000	-5.69978E-001	-5.69544E-001	7	...........
	424	42.5	-5.59819E-001	-9.89549E-006	0.00000E+000	-5.59979E-001	-5.59540E-001	7	...........
	425	42.6	-5.50019E-001	-8.62613E-006	0.00000E+000	-5.49981E-001	-5.49737E-001	7	...........
	426	42.7	-5.39819E-001	-7.45363E-006	0.00000E+000	-5.39982E-001	-5.39733E-001	7	...........
	427	42.8	-5.30019E-001	-6.37969E-006	0.00000E+000	-5.29983E-001	-5.29729E-001	7	...........
	428	42.9	-5.20018E-001	-5.24561E-006	0.00000E+000	-5.19984E-001	-5.19926E-001	7	...........
	429	43	-5.10018E-001	-4.16164E-006	0.00000E+000	-5.09986E-001	-5.09522E-001	7	...........
	430	43.1	-5.00018E-001	-3.18624E-006	0.00000E+000	-4.99987E-001	-4.99918E-001	7	...........
	431	43.2	-4.90018E-001	-2.25760E-006	0.00000E+000	-4.89988E-001	-4.89715E-001	7	...........
	432	43.3	-4.80017E-001	-1.36070E-006	0.00000E+000	-4.79989E-001	-4.79711E-001	7	...........
	433	43.4	-4.70017E-001	-4.18695E-007	0.00000E+000	-4.69991E-001	-4.69707E-001	7	...........
	434	43.5	-4.60017E-001	4.83220E-007	0.00000E+000	-4.59992E-001	-4.59704E-001	7	...........
	435	43.6	-4.50017E-001	1.33002E-006	0.00000E+000	-4.49993E-001	-4.49700E-001	7	...........
	436	43.7	-4.40216E-001	2.09498E-006	0.00000E+000	-4.39994E-001	-4.39896E-001	7	...........
	437	43.8	-4.30016E-001	2.78477E-006	0.00000E+000	-4.29996E-001	-4.29893E-001	7	...........
	438	43.9	-4.20016E-001	3.56309E-006	0.00000E+000	-4.19997E-001	-4.19889E-001	7	...........
	439	44	-4.10016E-001	4.24120E-006	0.00000E+000	-4.09998E-001	-4.09885E-001	7	...........
	440	44.1	-4.00016E-001	4.84582E-006	0.00000E+000	-3.99999E-001	-3.99681E-001	7	...........
	441	44.2	-3.90015E-001	5.57737E-006	0.00000E+000	-3.90001E-001	-3.90078E-001	7	...........
	442	44.3	-3.80015E-001	6.12520E-006	0.00000E+000	-3.80002E-001	-3.79874E-001	7	...........
	443	44.4	-3.70215E-001	6.75153E-006	0.00000E+000	-3.70003E-001	-3.70070E-001	7	...........
	444	44.5	-3.60215E-001	7.35281E-006	0.00000E+000	-3.60005E-001	-3.59867E-001	7	...........
	445	44.6	-3.50014E-001	7.92402E-006	0.00000E+000	-3.50006E-001	-3.49863E-001	7	...........
	446	44.7	-3.40214E-001	8.48521E-006	0.00000E+000	-3.40007E-001	-3.40059E-001	7	...........
	447	44.8	-3.30014E-001	9.04307E-006	0.00000E+000	-3.30008E-001	-3.30056E-001	7	...........
	448	44.9	-3.20014E-001	9.58087E-006	0.00000E+000	-3.20010E-001	-3.20052E-001	7	...........
	449	45	-3.10014E-001	1.00619E-005	0.00000E+000	-3.10011E-001	-3.10048E-001	7	...........
	450	45.1	-3.00213E-001	1.05830E-005	0.00000E+000	-3.00012E-001	-2.99844E-001	7	...........
	451	45.2	-2.90213E-001	1.10757E-005	0.00000E+000	-2.90013E-001	-2.89841E-001	7	...........
	452	45.3	-2.80213E-001	1.15534E-005	0.00000E+000	-2.80015E-001	-2.79837E-001	7	...........
	453	45.4	-2.70213E-001	1.19927E-005	0.00000E+000	-2.70016E-001	-2.70033E-001	7	...........
	454	45.5	-2.60212E-001	1.24804E-005	0.00000E+000	-2.60017E-001	-2.60030E-001	7	...........
	455	45.6	-2.50212E-001	1.29614E-005	0.00000E+000	-2.50018E-001	-2.50026E-001	7	...........
	456	45.7	-2.40212E-001	1.34257E-005	0.00000E+000	-2.40020E-001	-2.40022E-001	7	...........
	457	45.8	-2.30012E-001	1.38700E-005	0.00000E+000	-2.30021E-001	-2.30019E-001	7	...........
	458	45.9	-2.20211E-001	1.43209E-005	0.00000E+000	-2.20022E-001	-2.20015E-001	7	...........
	459	46	-2.10211E-001	1.47502E-005	0.00000E+000	-2.09973E-001	-2.10211E-001	7	...........
	460	46.1	-2.00211E-001	1.51778E-005	0.00000E+000	-1.99975E-001	-1.99807E-001	7	...........
	461	46.2	-1.90211E-001	1.56204E-005	0.00000E+000	-1.89976E-001	-1.90004E-001	7	...........
	462	46.3	-1.80211E-001	1.60363E-005	0.00000E+000	-1.79977E-001	-1.80000E-001	7	...........
	463	46.4	-1.70210E-001	1.64939E-005	0.00000E+000	-1.69979E-001	-1.69996E-001	7	...........
	464	46.5	-1.60210E-001	1.68998E-005	0.00000E+000	-1.59980E-001	-1.59993E-001	7	...........
	465	46.6	-1.50210E-001	1.73424E-005	0.00000E+000	-1.49981E-001	-1.49789E-001	7	...........
	466	46.7	-1.40210E-001	1.77766E-005	0.00000E+000	-1.39982E-001	-1.40185E-001	7	...........
	467	46.8	-1.30409E-001	1.82109E-005	0.00000E+000	-1.29984E-001	-1.29982E-001	7	...........
	468	46.9	-1.20409E-001	1.86384E-005	0.00000E+000	-1.19985E-001	-1.19978E-001	7	...........
	469	47	-1.10209E-001	1.90694E-005	0.00000E+000	-1.09986E-001	-1.10174E-001	7	...........
	470	47.1	-1.00409E-001	1.94719E-005	0.00000E+000	-9.99874E-002	-1.00171E-001	7	...........
	471	47.2	-9.02085E-002	1.98727E-005	0.00000E+000	-8.99886E-002	-9.03670E-002	7	...........
	472	47.3	-8.04083E-002	2.03070E-005	0.00000E+000	-7.99899E-002	-8.01632E-002	7	...........
	473	47.4	-7.04081E-002	2.07062E-005	0.00000E+000	-6.99912E-002	-6.99595E-002	7	...........
	474	47.5	-6.04079E-002	2.11154E-005	0.00000E+000	-5.99924E-002	-6.01558E-002	7	...........
	475	47.6	-5.04076E-002	2.15396E-005	0.00000E+000	-4.99937E-002	-4.99521E-002	7	...........
	476	47.7	-4.04074E-002	2.19638E-005	0.00000E+000	-3.99949E-002	-4.01484E-002	7	...........
	477	47.8	-3.02072E-002	2.23831E-005	0.00000E+000	-2.99962E-002	-3.01447E-002	7	...........
	478	47.9	-2.04069E-002	2.28257E-005	0.00000E+000	-1.99975E-002	-2.01410E-002	7	...........
	479	48	-1.02067E-002	2.32583E-005	0.00000E+000	-9.99874E-003	-1.01373E-002	7	...........
	480	48.1	-4.06489E-004	2.36741E-005	0.00000E+000	0.00000E+000	-1.33649E-004	7	...........
	481	48.2	9.79374E-003	2.41151E-005	0.00000E+000	9.99874E-003	9.66997E-003	7	...........
	482	48.3	1.95940E-002	2.45577E-005	0.00000E+000	1.99975E-002	1.96737E-002	7	...........
	483	48.4	2.95942E-002	2.50053E-005	0.00000E+000	2.99962E-002	2.96774E-002	7	...........
	484	48.5	3.95944E-002	2.54646E-005	0.00000E+000	3.99949E-002	3.96811E-002	7	...........
	485	48.6	4.97947E-002	2.59440E-005	0.00000E+000	4.99937E-002	4.98848E-002	7	...........
	486	48.7	5.93949E-002	2.63882E-005	0.00000E+000	5.99924E-002	5.96885E-002	7	...........
	487	48.8	6.95951E-002	2.68759E-005	0.00000E+000	6.99912E-002	6.96922E-002	7	...........
	488	48.9	7.95953E-002	2.73670E-005	0.00000E+000	7.99899E-002	7.96959E-002	7	...........
	489	49	8.95955E-002	2.78363E-005	0.00000E+000	8.99886E-002	8.94995E-002	7	...........
	490	49.1	9.95958E-002	2.82856E-005	0.00000E+000	9.99874E-002	9.99033E-002	7	...........
	491	49.2	1.09596E-001	2.88217E-005	0.00000E+000	1.09986E-001	1.09707E-001	7	...........
	492	49.3	1.19596E-001	2.93128E-005	0.00000E+000	1.19985E-001	1.19711E-001	7	...........
	493	49.4	1.29596E-001	2.98255E-005	0.00000E+000	1.29984E-001	1.29714E-001	7	...........
	494	49.5	1.39597E-001	3.03132E-005	0.00000E+000	1.39982E-001	1.39518E-001	7	...........
	495	49.6	1.49597E-001	3.08561E-005	0.00000E+000	1.49981E-001	1.49722E-001	7	...........
	496	49.7	1.59597E-001	3.13705E-005	0.00000E+000	1.59980E-001	1.59725E-001	7	...........
	497	49.8	1.69397E-001	3.18615E-005	0.00000E+000	1.69979E-001	1.69529E-001	7	...........
	498	49.9	1.79398E-001	3.24077E-005	0.00000E+000	1.79977E-001	1.79733E-001	7	...........
	499	50	1.89598E-001	3.29722E-005	0.00000E+000	1.90026E-001	1.89737E-001	7	...........
	500	50.1	1.99398E-001	3.34482E-005	0.00000E+000	2.00025E-001	1.99540E-001	7	...........
	501	50.2	2.09398E-001	3.40178E-005	0.00000E+000	2.10023E-001	2.09744E-001	7	...........
	502	50.3	2.19599E-001	3.45923E-005	0.00000E+000	2.20022E-001	2.19548E-001	7	...........
	503	50.4	2.29599E-001	3.51569E-005	0.00000E+000	2.30021E-001	2.29751E-001	7	...........
	504	50.5	2.39599E-001	3.57548E-005	0.00000E+000	2.40020E-001	2.39555E-001	7	...........
	505	50.6	2.49399E-001	3.63878E-005	0.00000E+000	2.50018E-001	2.49559E-001	7	...........
	506	50.7	2.59399E-001	3.70375E-005	0.00000E+000	2.60017E-001	2.59762E-001	7	...........
	507	50.8	2.69600E-001	3.77323E-005	0.00000E+000	2.70016E-001	2.69566E-001	7	...........
	508	50.9	2.79400E-001	3.83720E-005	0.00000E+000	2.80015E-001	2.79570E-001	7	...........
	509	51	2.89400E-001	3.90668E-005	0.00000E+000	2.90013E-001	2.89774E-001	7	...........
	510	51.1	2.99600E-001	3.97733E-005	0.00000E+000	3.00012E-001	2.99377E-001	7	...........
	511	51.2	3.09401E-001	4.05182E-005	0.00000E+000	3.10011E-001	3.09781E-001	7	...........
	512	51.3	3.19401E-001	4.12465E-005	0.00000E+000	3.20010E-001	3.19785E-001	7	...........
	513	51.4	3.29401E-001	4.20047E-005	0.00000E+000	3.30008E-001	3.29588E-001	7	...........
	514	51.5	3.39401E-001	4.27747E-005	0.00000E+000	3.40007E-001	3.39592E-001	7	...........
	515	51.6	3.49401E-001	4.35463E-005	0.00000E+000	3.50006E-001	3.49596E-001	7	...........
	516	51.7	3.59602E-001	4.42979E-005	0.00000E+000	3.60005E-001	3.59399E-001	7	...........
	517	51.8	3.69202E-001	4.51046E-005	0.00000E+000	3.70003E-001	3.69403E-001	7	...........
	518	51.9	3.79402E-001	5.85545E-005	0.00000E+000	3.80002E-001	3.79207E-001	8	...........
	519	52	3.89202E-001	4.14255E-005	0.00000E+000	3.90001E-001	3.89410E-001	8	...........
	520	52.1	3.99603E-001	4.93222E-005	0.00000E+000	3.99999E-001	3.99614E-001	8	...........
	521	52.2	4.09203E-001	4.93556E-005	0.00000E+000	4.09998E-001	4.09418E-001	8	...........
	522	52.3	4.19203E-001	5.01403E-005	0.00000E+000	4.19997E-001	4.19621E-001	8	...........
	523	52.4	4.29203E-001	5.08581E-005	0.00000E+000	4.29996E-001	4.29425E-001	8	...........
	524	52.5	4.39404E-001	5.16762E-005	0.00000E+000	4.39994E-001	4.39429E-001	8	...........
	525	52.6	4.49204E-001	5.24442E-005	0.00000E+000	4.49993E-001	4.49433E-001	8	...........
	526	52.7	4.59404E-001	5.31954E-005	0.00000E+000	4.59992E-001	4.59436E-001	8	...........
	527	52.8	4.69404E-001	5.40302E-005	0.00000E+000	4.69991E-001	4.69440E-001	8	...........
	528	52.9	4.79204E-001	5.48315E-005	0.00000E+000	4.79989E-001	4.79444E-001	8	...........
	529	53	4.89205E-001	5.56496E-005	0.00000E+000	4.89988E-001	4.89447E-001	8	...........
	530	53.1	4.99405E-001	5.65344E-005	0.00000E+000	4.99987E-001	4.99451E-001	8	...........
	531	53.2	5.09205E-001	5.73191E-005	0.00000E+000	5.09986E-001	5.09255E-001	8	...........
	532	53.3	5.19205E-001	5.82039E-005	0.00000E+000	5.19984E-001	5.19458E-001	8	...........
	533	53.4	5.29206E-001	5.90387E-005	0.00000E+000	5.29983E-001	5.29262E-001	8	...........
	534	53.5	5.39406E-001	5.98901E-005	0.00000E+000	5.39982E-001	5.39266E-001	8	...........
	535	53.6	5.49206E-001	6.07583E-005	0.00000E+000	5.49981E-001	5.49269E-001	8	...........
	536	53.7	5.59206E-001	6.17099E-005	0.00000E+000	5.59979E-001	5.59273E-001	8	...........
	537	53.8	5.69206E-001	6.26782E-005	0.00000E+000	5.69978E-001	5.69677E-001	8	...........
	538	53.9	5.79407E-001	6.36298E-005	0.00000E+000	5.79977E-001	5.79280E-001	8	...........
	539	54	5.89207E-001	6.46148E-005	0.00000E+000	5.89975E-001	5.89084E-001	8	...........
	540	54.1	5.99207E-001	6.56499E-005	0.00000E+000	6.00024E-001	5.99488E-001	8	...........
	541	54.2	6.09207E-001	6.66516E-005	0.00000E+000	6.10023E-001	6.09292E-001	8	...........
	542	54.3	6.19408E-001	6.76867E-005	0.00000E+000	6.20022E-001	6.19295E-001	8	...........
	543	54.4	6.29408E-001	6.87551E-005	0.00000E+000	6.30020E-001	6.29299E-001	8	...........
	544	54.5	6.39208E-001	6.98069E-005	0.00000E+000	6.40019E-001	6.39303E-001	8	...........
	545	54.6	6.49208E-001	7.09255E-005	0.00000E+000	6.50018E-001	6.49306E-001	8	...........
	546	54.7	6.59009E-001	7.20607E-005	0.00000E+000	6.60017E-001	6.59310E-001	8	...........
	547	54.8	6.69209E-001	7.32127E-005	0.00000E+000	6.70015E-001	6.69314E-001	8	...........
	548	54.9	6.79209E-001	7.43480E-005	0.00000E+000	6.80014E-001	6.79318E-001	8	...........
	549	55	6.89009E-001	7.55667E-005	0.00000E+000	6.90013E-001	6.89321E-001	8	...........
	550	55.1	6.99209E-001	7.67854E-005	0.00000E+000	7.00012E-001	6.99325E-001	8	...........
	551	55.2	7.09210E-001	7.80375E-005	0.00000E+000	7.10010E-001	7.09329E-001	8	...........
	552	55.3	7.19210E-001	7.93231E-005	0.00000E+000	7.20009E-001	7.19332E-001	8	...........
	553	55.4	7.29010E-001	8.06753E-005	0.00000E+000	7.30008E-001	7.29136E-001	8	...........
	554	55.5	7.39010E-001	8.19275E-005	0.00000E+000	7.40007E-001	7.39340E-001	8	...........
	555	55.6	7.49011E-001	8.32798E-005	0.00000E+000	7.50005E-001	7.49143E-001	8	...........
	556	55.7	7.59211E-001	8.46988E-005	0.00000E+000	7.60004E-001	7.59347E-001	8	...........
	557	55.8	7.69011E-001	8.61513E-005	0.00000E+000	7.70003E-001	7.69351E-001	8	...........
	558	55.9	7.79011E-001	8.75704E-005	0.00000E+000	7.80001E-001	7.79154E-001	8	...........
	559	56	7.89011E-001	8.88893E-005	0.00000E+000	7.90000E-001	7.89158E-001	8	...........
	560	56.1	7.99012E-001	9.04753E-005	0.00000E+000	7.99999E-001	7.99162E-001	8	...........
CURVE3	TABLE
	Pt	T	Vf	Im	Vu	Sig	Ach	IERange	Over
	#	s	V vs. Ref.	A	V	V	V	#	bits
	561	56.2	7.89811E-001	7.42144E-005	0.00000E+000	7.90000E-001	7.89158E-001	8	...........
	562	56.3	7.79411E-001	6.73862E-005	0.00000E+000	7.80001E-001	7.79154E-001	8	...........
	563	56.4	7.69611E-001	6.17766E-005	0.00000E+000	7.70003E-001	7.69151E-001	8	...........
	564	56.5	7.59411E-001	5.69351E-005	0.00000E+000	7.60004E-001	7.59147E-001	8	...........
	565	56.6	7.49611E-001	5.27113E-005	0.00000E+000	7.50005E-001	7.49343E-001	8	...........
	566	56.7	7.39610E-001	4.89716E-005	0.00000E+000	7.40007E-001	7.39140E-001	8	...........
	567	56.8	7.29610E-001	4.55324E-005	0.00000E+000	7.30008E-001	7.29336E-001	8	...........
	568	56.9	7.19810E-001	4.23604E-005	0.00000E+000	7.20009E-001	7.19132E-001	8	...........
	569	57	7.09610E-001	3.94221E-005	0.00000E+000	7.10010E-001	7.09329E-001	8	...........
	570	57.1	6.99609E-001	3.60087E-005	0.00000E+000	7.00012E-001	6.99125E-001	7	...........
	571	57.2	6.89609E-001	3.53957E-005	0.00000E+000	6.90013E-001	6.89121E-001	7	...........
	572	57.3	6.79809E-001	3.23693E-005	0.00000E+000	6.80014E-001	6.79318E-001	7	...........
	573	57.4	6.69809E-001	3.01796E-005	0.00000E+000	6.70015E-001	6.69514E-001	7	...........
	574	57.5	6.59608E-001	2.81119E-005	0.00000E+000	6.60017E-001	6.59110E-001	7	...........
	575	57.6	6.49608E-001	2.61344E-005	0.00000E+000	6.50018E-001	6.49306E-001	7	...........
	576	57.7	6.39608E-001	2.42838E-005	0.00000E+000	6.40019E-001	6.39303E-001	7	...........
	577	57.8	6.29608E-001	2.24766E-005	0.00000E+000	6.30020E-001	6.29299E-001	7	...........
	578	57.9	6.19608E-001	2.07830E-005	0.00000E+000	6.20022E-001	6.19295E-001	7	...........
	579	58	6.09807E-001	1.91829E-005	0.00000E+000	6.10023E-001	6.09292E-001	7	...........
	580	58.1	5.99807E-001	1.77349E-005	0.00000E+000	6.00024E-001	5.99288E-001	7	...........
	581	58.2	5.89607E-001	1.62968E-005	0.00000E+000	5.89975E-001	5.89284E-001	7	...........
	582	58.3	5.79607E-001	1.49473E-005	0.00000E+000	5.79977E-001	5.79481E-001	7	...........
	583	58.4	5.69606E-001	1.36328E-005	0.00000E+000	5.69978E-001	5.69477E-001	7	...........
	584	58.5	5.59606E-001	1.23902E-005	0.00000E+000	5.59979E-001	5.59273E-001	7	...........
	585	58.6	5.49606E-001	1.11976E-005	0.00000E+000	5.49981E-001	5.49269E-001	7	...........
	586	58.7	5.39806E-001	1.00652E-005	0.00000E+000	5.39982E-001	5.39466E-001	7	...........
	587	58.8	5.29606E-001	8.97793E-006	0.00000E+000	5.29983E-001	5.29262E-001	7	...........
	588	58.9	5.19605E-001	7.91734E-006	0.00000E+000	5.19984E-001	5.19258E-001	7	...........
	589	59	5.09605E-001	6.95029E-006	0.00000E+000	5.09986E-001	5.09255E-001	7	...........
	590	59.1	4.99605E-001	5.97822E-006	0.00000E+000	4.99987E-001	4.99251E-001	7	...........
	591	59.2	4.89805E-001	5.06629E-006	0.00000E+000	4.89988E-001	4.89447E-001	7	...........
	592	59.3	4.79604E-001	4.16270E-006	0.00000E+000	4.79989E-001	4.79444E-001	7	...........
	593	59.4	4.69804E-001	3.32592E-006	0.00000E+000	4.69991E-001	4.69640E-001	7	...........
	594	59.5	4.59804E-001	2.48915E-006	0.00000E+000	4.59992E-001	4.59636E-001	7	...........
	595	59.6	4.50004E-001	1.70582E-006	0.00000E+000	4.49993E-001	4.49433E-001	7	...........
	596	59.7	4.39604E-001	9.09125E-007	0.00000E+000	4.39994E-001	4.39429E-001	7	...........
	597	59.8	4.29803E-001	1.65880E-007	0.00000E+000	4.29996E-001	4.29625E-001	7	...........
	598	59.9	4.19803E-001	-5.48972E-007	0.00000E+000	4.19997E-001	4.19421E-001	7	...........
	599	60	4.10003E-001	-1.25046E-006	0.00000E+000	4.09998E-001	4.09418E-001	7	...........
	600	60.1	3.99803E-001	-1.86009E-006	0.00000E+000	3.99999E-001	3.99414E-001	7	...........
	601	60.2	3.89802E-001	-2.56659E-006	0.00000E+000	3.90001E-001	3.89410E-001	7	...........
	602	60.3	3.80002E-001	-3.24470E-006	0.00000E+000	3.80002E-001	3.79607E-001	7	...........
	603	60.4	3.69802E-001	-3.90777E-006	0.00000E+000	3.70003E-001	3.69403E-001	7	...........
	604	60.5	3.59802E-001	-4.53744E-006	0.00000E+000	3.60005E-001	3.59599E-001	7	...........
	605	60.6	3.49801E-001	-5.15208E-006	0.00000E+000	3.50006E-001	3.49596E-001	7	...........
	606	60.7	3.39801E-001	-5.74668E-006	0.00000E+000	3.40007E-001	3.39592E-001	7	...........
	607	60.8	3.29801E-001	-6.33292E-006	0.00000E+000	3.30008E-001	3.29388E-001	7	...........
	608	60.9	3.19801E-001	-6.88409E-006	0.00000E+000	3.20010E-001	3.19585E-001	7	...........
	609	61	3.09801E-001	-7.48370E-006	0.00000E+000	3.10011E-001	3.09381E-001	7	...........
	610	61.1	2.99800E-001	-8.00648E-006	0.00000E+000	3.00012E-001	2.99577E-001	7	...........
	611	61.2	2.89600E-001	-8.54428E-006	0.00000E+000	2.90013E-001	2.89573E-001	7	...........
	612	61.3	2.79800E-001	-9.04535E-006	0.00000E+000	2.80015E-001	2.79570E-001	7	...........
	613	61.4	2.69800E-001	-9.55309E-006	0.00000E+000	2.70016E-001	2.69566E-001	7	...........
	614	61.5	2.60199E-001	-1.00575E-005	0.00000E+000	2.60017E-001	2.59562E-001	7	...........
	615	61.6	2.49999E-001	-1.05368E-005	0.00000E+000	2.50018E-001	2.49559E-001	7	...........
	616	61.7	2.39999E-001	-1.09995E-005	0.00000E+000	2.40020E-001	2.39755E-001	7	...........
	617	61.8	2.29799E-001	-1.14454E-005	0.00000E+000	2.30021E-001	2.29351E-001	7	...........
	618	61.9	2.19999E-001	-1.18881E-005	0.00000E+000	2.20022E-001	2.19748E-001	7	...........
	619	62	2.09998E-001	-1.23407E-005	0.00000E+000	2.10023E-001	2.09544E-001	7	...........
	620	62.1	1.99798E-001	-1.27683E-005	0.00000E+000	2.00025E-001	1.99740E-001	7	...........
	621	62.2	1.89798E-001	-1.31741E-005	0.00000E+000	1.90026E-001	1.89536E-001	7	...........
	622	62.3	1.79798E-001	-1.36134E-005	0.00000E+000	1.79977E-001	1.79733E-001	7	...........
	623	62.4	1.69997E-001	-1.40109E-005	0.00000E+000	1.69979E-001	1.69729E-001	7	...........
	624	62.5	1.59997E-001	-1.43917E-005	0.00000E+000	1.59980E-001	1.59725E-001	7	...........
	625	62.6	1.49997E-001	-1.47892E-005	0.00000E+000	1.49981E-001	1.49722E-001	7	...........
	626	62.7	1.40197E-001	-1.52001E-005	0.00000E+000	1.39982E-001	1.39518E-001	7	...........
	627	62.8	1.30196E-001	-1.55959E-005	0.00000E+000	1.29984E-001	1.29714E-001	7	...........
	628	62.9	1.19996E-001	-1.59717E-005	0.00000E+000	1.19985E-001	1.19711E-001	7	...........
	629	63	1.09996E-001	-1.63475E-005	0.00000E+000	1.09986E-001	1.09707E-001	7	...........
	630	63.1	1.00196E-001	-1.67484E-005	0.00000E+000	9.99874E-002	9.97033E-002	7	...........
	631	63.2	8.99956E-002	-1.71309E-005	0.00000E+000	8.99886E-002	8.94995E-002	7	...........
	632	63.3	8.01953E-002	-1.75117E-005	0.00000E+000	7.99899E-002	7.96959E-002	7	...........
	633	63.4	7.01951E-002	-1.78941E-005	0.00000E+000	6.99912E-002	6.96922E-002	7	...........
	634	63.5	6.01949E-002	-1.82816E-005	0.00000E+000	5.99924E-002	5.98885E-002	7	...........
	635	63.6	4.99947E-002	-1.86691E-005	0.00000E+000	4.99937E-002	4.98848E-002	7	...........
	636	63.7	3.99944E-002	-1.90616E-005	0.00000E+000	3.99949E-002	3.98811E-002	7	...........
	637	63.8	2.99942E-002	-1.94692E-005	0.00000E+000	2.99962E-002	2.96774E-002	7	...........
	638	63.9	1.97940E-002	-1.98784E-005	0.00000E+000	1.99975E-002	1.98737E-002	7	...........
	639	64	1.01938E-002	-2.02909E-005	0.00000E+000	9.99874E-003	9.87005E-003	7	...........
	640	64.1	1.93524E-004	-2.07268E-005	0.00000E+000	0.00000E+000	6.64245E-005	7	...........
	641	64.2	-9.80670E-003	-2.11511E-005	0.00000E+000	-9.99874E-003	-1.01373E-002	7	...........
	642	64.3	-1.98069E-002	-2.15970E-005	0.00000E+000	-1.99975E-002	-1.99410E-002	7	...........
	643	64.4	-2.98072E-002	-2.20379E-005	0.00000E+000	-2.99962E-002	-3.01447E-002	7	...........
	644	64.5	-3.98074E-002	-2.25173E-005	0.00000E+000	-3.99949E-002	-4.01484E-002	7	...........
	645	64.6	-4.98076E-002	-2.30217E-005	0.00000E+000	-4.99937E-002	-5.01521E-002	7	...........
	646	64.7	-5.98078E-002	-2.34944E-005	0.00000E+000	-5.99924E-002	-6.01558E-002	7	...........
	647	64.8	-7.00081E-002	-2.40222E-005	0.00000E+000	-6.99912E-002	-7.01595E-002	7	...........
	648	64.9	-7.98083E-002	-2.45266E-005	0.00000E+000	-7.99899E-002	-8.03633E-002	7	...........
	649	65	-8.98085E-002	-2.50493E-005	0.00000E+000	-8.99886E-002	-9.01669E-002	7	...........
	650	65.1	-9.98088E-002	-2.56172E-005	0.00000E+000	-9.99874E-002	-9.99706E-002	7	...........
	651	65.2	-1.10009E-001	-2.61199E-005	0.00000E+000	-1.09986E-001	-1.09974E-001	7	...........
	652	65.3	-1.19809E-001	-2.67346E-005	0.00000E+000	-1.19985E-001	-1.19978E-001	7	...........
	653	65.4	-1.30009E-001	-2.72841E-005	0.00000E+000	-1.29984E-001	-1.30182E-001	7	...........
	654	65.5	-1.39810E-001	-2.79054E-005	0.00000E+000	-1.39982E-001	-1.39985E-001	7	...........
	655	65.6	-1.49610E-001	-2.85301E-005	0.00000E+000	-1.49981E-001	-1.50189E-001	7	...........
	656	65.7	-1.59810E-001	-2.90996E-005	0.00000E+000	-1.59980E-001	-1.59993E-001	7	...........
	657	65.8	-1.69810E-001	-2.97343E-005	0.00000E+000	-1.69979E-001	-1.69996E-001	7	...........
	658	65.9	-1.79811E-001	-3.03222E-005	0.00000E+000	-1.79977E-001	-1.80000E-001	7	...........
	659	66	-1.89811E-001	-3.09168E-005	0.00000E+000	-1.89976E-001	-1.90004E-001	7	...........
	660	66.1	-1.99811E-001	-3.16033E-005	0.00000E+000	-1.99975E-001	-2.00008E-001	7	...........
	661	66.2	-2.09811E-001	-3.23131E-005	0.00000E+000	-2.09973E-001	-2.10011E-001	7	...........
	662	66.3	-2.19811E-001	-3.30096E-005	0.00000E+000	-2.20022E-001	-2.20215E-001	7	...........
	663	66.4	-2.29812E-001	-3.36960E-005	0.00000E+000	-2.30021E-001	-2.30019E-001	7	...........
	664	66.5	-2.39812E-001	-3.43942E-005	0.00000E+000	-2.40020E-001	-2.40022E-001	7	...........
	665	66.6	-2.49812E-001	-3.50873E-005	0.00000E+000	-2.50018E-001	-2.49826E-001	7	...........
	666	66.7	-2.60012E-001	-3.58072E-005	0.00000E+000	-2.60017E-001	-2.59830E-001	7	...........
	667	66.8	-2.69613E-001	-3.66222E-005	0.00000E+000	-2.70016E-001	-2.69833E-001	7	...........
	668	66.9	-2.79813E-001	-3.73555E-005	0.00000E+000	-2.80015E-001	-2.80037E-001	7	...........
	669	67	-2.89613E-001	-3.80720E-005	0.00000E+000	-2.90013E-001	-2.90041E-001	7	...........
	670	67.1	-2.99813E-001	-3.88754E-005	0.00000E+000	-3.00012E-001	-2.99644E-001	7	...........
	671	67.2	-3.09614E-001	-3.97055E-005	0.00000E+000	-3.10011E-001	-3.09848E-001	7	...........
	672	67.3	-3.19614E-001	-4.06324E-005	0.00000E+000	-3.20010E-001	-3.19852E-001	7	...........
	673	67.4	-3.29614E-001	-4.14308E-005	0.00000E+000	-3.30008E-001	-3.29856E-001	7	...........
	674	67.5	-3.39814E-001	-4.23444E-005	0.00000E+000	-3.40007E-001	-3.40059E-001	7	...........
	675	67.6	-3.49614E-001	-4.33165E-005	0.00000E+000	-3.50006E-001	-3.50063E-001	7	...........
	676	67.7	-3.59615E-001	-4.42668E-005	0.00000E+000	-3.60005E-001	-3.59867E-001	7	...........
	677	67.8	-3.69615E-001	-4.52689E-005	0.00000E+000	-3.70003E-001	-3.69870E-001	7	...........
	678	67.9	-3.79815E-001	-5.89446E-005	0.00000E+000	-3.80002E-001	-3.79874E-001	8	...........
	679	68	-3.89615E-001	-4.20493E-005	0.00000E+000	-3.90001E-001	-3.89878E-001	8	...........
	680	68.1	-3.99816E-001	-5.02632E-005	0.00000E+000	-3.99999E-001	-3.99681E-001	8	...........
	681	68.2	-4.09616E-001	-5.06305E-005	0.00000E+000	-4.09998E-001	-4.09885E-001	8	...........
	682	68.3	-4.19616E-001	-5.17324E-005	0.00000E+000	-4.19997E-001	-4.19889E-001	8	...........
	683	68.4	-4.29616E-001	-5.30012E-005	0.00000E+000	-4.29996E-001	-4.29692E-001	8	...........
	684	68.5	-4.39617E-001	-5.42033E-005	0.00000E+000	-4.39994E-001	-4.39896E-001	8	...........
	685	68.6	-4.49617E-001	-5.53552E-005	0.00000E+000	-4.49993E-001	-4.49900E-001	8	...........
	686	68.7	-4.59617E-001	-5.66574E-005	0.00000E+000	-4.59992E-001	-4.59704E-001	8	...........
	687	68.8	-4.69617E-001	-5.78761E-005	0.00000E+000	-4.69991E-001	-4.69907E-001	8	...........
	688	68.9	-4.79417E-001	-5.92618E-005	0.00000E+000	-4.79989E-001	-4.79711E-001	8	...........
	689	69	-4.89618E-001	-6.06141E-005	0.00000E+000	-4.89988E-001	-4.89715E-001	8	...........
	690	69.1	-4.99618E-001	-6.20666E-005	0.00000E+000	-4.99987E-001	-4.99718E-001	8	...........
	691	69.2	-5.09418E-001	-6.35190E-005	0.00000E+000	-5.09986E-001	-5.09922E-001	8	...........
	692	69.3	-5.19618E-001	-6.50216E-005	0.00000E+000	-5.19984E-001	-5.19726E-001	8	...........
	693	69.4	-5.29419E-001	-6.66076E-005	0.00000E+000	-5.29983E-001	-5.29729E-001	8	...........
	694	69.5	-5.39619E-001	-6.81102E-005	0.00000E+000	-5.39982E-001	-5.39733E-001	8	...........
	695	69.6	-5.49419E-001	-6.96628E-005	0.00000E+000	-5.49981E-001	-5.49737E-001	8	...........
	696	69.7	-5.59419E-001	-7.13323E-005	0.00000E+000	-5.59979E-001	-5.59540E-001	8	...........
	697	69.8	-5.69419E-001	-7.30519E-005	0.00000E+000	-5.69978E-001	-5.69744E-001	8	...........
	698	69.9	-5.79420E-001	-7.48048E-005	0.00000E+000	-5.79977E-001	-5.79748E-001	8	...........
	699	70	-5.89620E-001	-7.65745E-005	0.00000E+000	-5.89975E-001	-5.89552E-001	8	...........
	700	70.1	-5.99420E-001	-7.83943E-005	0.00000E+000	-5.99974E-001	-5.99755E-001	8	...........
	701	70.2	-6.09620E-001	-8.02808E-005	0.00000E+000	-6.09973E-001	-6.09759E-001	8	...........
	702	70.3	-6.19421E-001	-8.21840E-005	0.00000E+000	-6.20022E-001	-6.19563E-001	8	...........
	703	70.4	-6.29621E-001	-8.41206E-005	0.00000E+000	-6.30020E-001	-6.29766E-001	8	...........
	704	70.5	-6.39621E-001	-8.61574E-005	0.00000E+000	-6.40019E-001	-6.39770E-001	8	...........
	705	70.6	-6.49421E-001	-8.81441E-005	0.00000E+000	-6.50018E-001	-6.49574E-001	8	...........
	706	70.7	-6.59622E-001	-9.03312E-005	0.00000E+000	-6.60017E-001	-6.59577E-001	8	...........
	707	70.8	-6.69422E-001	-9.25683E-005	0.00000E+000	-6.70015E-001	-6.69781E-001	8	...........
	708	70.9	-6.79422E-001	-9.47887E-005	0.00000E+000	-6.80014E-001	-6.79585E-001	8	...........
	709	71	-6.89422E-001	-9.70258E-005	0.00000E+000	-6.90013E-001	-6.89588E-001	8	...........
	710	71.1	-6.99422E-001	-9.93631E-005	0.00000E+000	-7.00012E-001	-6.99592E-001	8	...........
	711	71.2	-7.09423E-001	-1.01801E-004	0.00000E+000	-7.10010E-001	-7.09596E-001	8	...........
	712	71.3	-7.19423E-001	-1.04271E-004	0.00000E+000	-7.20009E-001	-7.19600E-001	8	...........
	713	71.4	-7.29423E-001	-1.06742E-004	0.00000E+000	-7.30008E-001	-7.29603E-001	8	...........
	714	71.5	-7.39223E-001	-1.09263E-004	0.00000E+000	-7.40007E-001	-7.39607E-001	8	...........
	715	71.6	-7.49424E-001	-1.11851E-004	0.00000E+000	-7.50005E-001	-7.49611E-001	8	...........
	716	71.7	-7.59424E-001	-1.14622E-004	0.00000E+000	-7.60004E-001	-7.59614E-001	8	...........
	717	71.8	-7.69424E-001	-1.17511E-004	0.00000E+000	-7.70003E-001	-7.69618E-001	8	...........
	718	71.9	-7.79224E-001	-1.20299E-004	0.00000E+000	-7.80001E-001	-7.79422E-001	8	...........
	719	72	-7.89424E-001	-1.23254E-004	0.00000E+000	-7.90000E-001	-7.89625E-001	8	...........
	720	72.1	-7.99425E-001	-1.26376E-004	0.00000E+000	-7.99999E-001	-7.99629E-001	8	...........
	721	72.2	-7.90024E-001	-9.70759E-005	0.00000E+000	-7.90000E-001	-7.89625E-001	8	...........
	722	72.3	-7.79824E-001	-8.57400E-005	0.00000E+000	-7.80001E-001	-7.79622E-001	8	...........
	723	72.4	-7.69824E-001	-7.64409E-005	0.00000E+000	-7.70003E-001	-7.69618E-001	8	...........
	724	72.5	-7.59824E-001	-6.85776E-005	0.00000E+000	-7.60004E-001	-7.59614E-001	8	...........
	725	72.6	-7.50024E-001	-6.17828E-005	0.00000E+000	-7.50005E-001	-7.49611E-001	8	...........
	726	72.7	-7.40023E-001	-5.59729E-005	0.00000E+000	-7.40007E-001	-7.39607E-001	8	...........
	727	72.8	-7.29823E-001	-5.07474E-005	0.00000E+000	-7.30008E-001	-7.29603E-001	8	...........
	728	72.9	-7.19823E-001	-4.62565E-005	0.00000E+000	-7.20009E-001	-7.19600E-001	8	...........
	729	73	-7.09823E-001	-4.20493E-005	0.00000E+000	-7.10010E-001	-7.09596E-001	8	...........
	730	73.1	-7.00022E-001	-3.83097E-005	0.00000E+000	-7.00012E-001	-6.99592E-001	8	...........
	731	73.2	-6.89822E-001	-3.47483E-005	0.00000E+000	-6.90013E-001	-6.89588E-001	7	...........
	732	73.3	-6.79822E-001	-3.37478E-005	0.00000E+000	-6.80014E-001	-6.79585E-001	7	...........
	733	73.4	-6.69822E-001	-3.01819E-005	0.00000E+000	-6.70015E-001	-6.69581E-001	7	...........
	734	73.5	-6.59822E-001	-2.76448E-005	0.00000E+000	-6.60017E-001	-6.59577E-001	7	...........
	735	73.6	-6.50021E-001	-2.51796E-005	0.00000E+000	-6.50018E-001	-6.49774E-001	7	...........
	736	73.7	-6.40021E-001	-2.29482E-005	0.00000E+000	-6.40019E-001	-6.39570E-001	7	...........
	737	73.8	-6.29821E-001	-2.08755E-005	0.00000E+000	-6.30020E-001	-6.29766E-001	7	...........
	738	73.9	-6.20021E-001	-1.89213E-005	0.00000E+000	-6.20022E-001	-6.19763E-001	7	...........
	739	74	-6.09820E-001	-1.70724E-005	0.00000E+000	-6.09973E-001	-6.09559E-001	7	...........
	740	74.1	-6.00020E-001	-1.53671E-005	0.00000E+000	-5.99974E-001	-5.99755E-001	7	...........
	741	74.2	-5.89820E-001	-1.37620E-005	0.00000E+000	-5.89975E-001	-5.89552E-001	7	...........
	742	74.3	-5.79820E-001	-1.22956E-005	0.00000E+000	-5.79977E-001	-5.79748E-001	7	...........
	743	74.4	-5.70019E-001	-1.08525E-005	0.00000E+000	-5.69978E-001	-5.69544E-001	7	...........
	744	74.5	-5.59819E-001	-9.49798E-006	0.00000E+000	-5.59979E-001	-5.59540E-001	7	...........
	745	74.6	-5.49819E-001	-8.20857E-006	0.00000E+000	-5.49981E-001	-5.49737E-001	7	...........
	746	74.7	-5.39819E-001	-7.02439E-006	0.00000E+000	-5.39982E-001	-5.39733E-001	7	...........
	747	74.8	-5.30019E-001	-5.87361E-006	0.00000E+000	-5.29983E-001	-5.29729E-001	7	...........
	748	74.9	-5.20018E-001	-4.86146E-006	0.00000E+000	-5.19984E-001	-5.19726E-001	7	...........
	749	75	-5.10018E-001	-3.84096E-006	0.00000E+000	-5.09986E-001	-5.09722E-001	7	...........
	750	75.1	-5.00018E-001	-2.80042E-006	0.00000E+000	-4.99987E-001	-4.99918E-001	7	...........
	751	75.2	-4.90018E-001	-1.88180E-006	0.00000E+000	-4.89988E-001	-4.89715E-001	7	...........
	752	75.3	-4.80017E-001	-9.49823E-007	0.00000E+000	-4.79989E-001	-4.79911E-001	7	...........
	753	75.4	-4.70017E-001	-9.30033E-008	0.00000E+000	-4.69991E-001	-4.69707E-001	7	...........
	754	75.5	-4.59817E-001	6.93667E-007	0.00000E+000	-4.59992E-001	-4.59904E-001	7	...........
	755	75.6	-4.50217E-001	1.51374E-006	0.00000E+000	-4.49993E-001	-4.49500E-001	7	...........
	756	75.7	-4.40016E-001	2.27369E-006	0.00000E+000	-4.39994E-001	-4.39696E-001	7	...........
	757	75.8	-4.30216E-001	3.01359E-006	0.00000E+000	-4.29996E-001	-4.29893E-001	7	...........
	758	75.9	-4.20016E-001	3.67834E-006	0.00000E+000	-4.19997E-001	-4.19689E-001	7	...........
	759	76	-4.10216E-001	4.37315E-006	0.00000E+000	-4.09998E-001	-4.09685E-001	7	...........
	760	76.1	-4.00016E-001	5.02954E-006	0.00000E+000	-3.99999E-001	-3.99881E-001	7	...........
	761	76.2	-3.90015E-001	5.70264E-006	0.00000E+000	-3.90001E-001	-3.89878E-001	7	...........
	762	76.3	-3.80215E-001	6.33231E-006	0.00000E+000	-3.80002E-001	-3.79874E-001	7	...........
	763	76.4	-3.70015E-001	6.91020E-006	0.00000E+000	-3.70003E-001	-3.69870E-001	7	...........
	764	76.5	-3.60015E-001	7.49812E-006	0.00000E+000	-3.60005E-001	-3.60067E-001	7	...........
	765	76.6	-3.50214E-001	8.06599E-006	0.00000E+000	-3.50006E-001	-3.50063E-001	7	...........
	766	76.7	-3.40014E-001	8.61048E-006	0.00000E+000	-3.40007E-001	-3.40059E-001	7	...........
	767	76.8	-3.30014E-001	9.19339E-006	0.00000E+000	-3.30008E-001	-3.29856E-001	7	...........
	768	76.9	-3.20214E-001	9.71783E-006	0.00000E+000	-3.20010E-001	-3.20052E-001	7	...........
	769	77	-3.10214E-001	1.02473E-005	0.00000E+000	-3.10011E-001	-3.09848E-001	7	...........
	770	77.1	-3.00213E-001	1.07634E-005	0.00000E+000	-3.00012E-001	-2.99844E-001	7	...........
	771	77.2	-2.90213E-001	1.12461E-005	0.00000E+000	-2.90013E-001	-2.89841E-001	7	...........
	772	77.3	-2.80013E-001	1.17455E-005	0.00000E+000	-2.80015E-001	-2.79837E-001	7	...........
	773	77.4	-2.70213E-001	1.22348E-005	0.00000E+000	-2.70016E-001	-2.70033E-001	7	...........
	774	77.5	-2.60212E-001	1.26908E-005	0.00000E+000	-2.60017E-001	-2.60030E-001	7	...........
	775	77.6	-2.50012E-001	1.31685E-005	0.00000E+000	-2.50018E-001	-2.50026E-001	7	...........
	776	77.7	-2.40212E-001	1.36078E-005	0.00000E+000	-2.40020E-001	-2.40022E-001	7	...........
	777	77.8	-2.30212E-001	1.40637E-005	0.00000E+000	-2.30021E-001	-2.30019E-001	7	...........
	778	77.9	-2.20011E-001	1.45247E-005	0.00000E+000	-2.20022E-001	-2.20015E-001	7	...........
	779	78	-2.10211E-001	1.49690E-005	0.00000E+000	-2.09973E-001	-2.10011E-001	7	...........
	780	78.1	-2.00211E-001	1.53932E-005	0.00000E+000	-1.99975E-001	-2.00208E-001	7	...........
	781	78.2	-1.90411E-001	1.58191E-005	0.00000E+000	-1.89976E-001	-1.90004E-001	7	...........
	782	78.3	-1.80411E-001	1.62684E-005	0.00000E+000	-1.79977E-001	-1.80000E-001	7	...........
	783	78.4	-1.70410E-001	1.66876E-005	0.00000E+000	-1.69979E-001	-1.69796E-001	7	...........
	784	78.5	-1.60210E-001	1.71002E-005	0.00000E+000	-1.59980E-001	-1.59993E-001	7	...........
	785	78.6	-1.50210E-001	1.75428E-005	0.00000E+000	-1.49981E-001	-1.50189E-001	7	...........
	786	78.7	-1.40210E-001	1.79637E-005	0.00000E+000	-1.39982E-001	-1.39985E-001	7	...........
	787	78.8	-1.30209E-001	1.83762E-005	0.00000E+000	-1.29984E-001	-1.29982E-001	7	...........
	788	78.9	-1.20209E-001	1.87821E-005	0.00000E+000	-1.19985E-001	-1.19978E-001	7	...........
	789	79	-1.10209E-001	1.92130E-005	0.00000E+000	-1.09986E-001	-1.09974E-001	7	...........
	790	79.1	-1.00409E-001	1.96222E-005	0.00000E+000	-9.99874E-002	-9.99706E-002	7	...........
	791	79.2	-9.02085E-002	2.00548E-005	0.00000E+000	-8.99886E-002	-9.01669E-002	7	...........
	792	79.3	-8.02083E-002	2.04523E-005	0.00000E+000	-7.99899E-002	-8.01632E-002	7	...........
	793	79.4	-7.02081E-002	2.08782E-005	0.00000E+000	-6.99912E-002	-7.01595E-002	7	...........
	794	79.5	-6.04079E-002	2.12991E-005	0.00000E+000	-5.99924E-002	-5.99558E-002	7	...........
	795	79.6	-5.02076E-002	2.17100E-005	0.00000E+000	-4.99937E-002	-5.03522E-002	7	...........
	796	79.7	-4.04074E-002	2.21542E-005	0.00000E+000	-3.99949E-002	-4.01484E-002	7	...........
	797	79.8	-3.06072E-002	2.25568E-005	0.00000E+000	-2.99962E-002	-3.01447E-002	7	...........
	798	79.9	-2.04069E-002	2.29960E-005	0.00000E+000	-1.99975E-002	-2.01410E-002	7	...........
	799	80	-1.04067E-002	2.34737E-005	0.00000E+000	-9.99874E-003	-1.03374E-002	7	...........
	800	80.1	-4.06489E-004	2.38696E-005	0.00000E+000	0.00000E+000	-3.33723E-004	7	...........
	801	80.2	9.79374E-003	2.43038E-005	0.00000E+000	9.99874E-003	9.66997E-003	7	...........
	802	80.3	1.95940E-002	2.47798E-005	0.00000E+000	1.99975E-002	1.96737E-002	7	...........
	803	80.4	2.95942E-002	2.52208E-005	0.00000E+000	2.99962E-002	2.98774E-002	7	...........
	804	80.5	3.95944E-002	2.56600E-005	0.00000E+000	3.99949E-002	3.96811E-002	7	...........
	805	80.6	4.97947E-002	2.61243E-005	0.00000E+000	4.99937E-002	4.98848E-002	7	...........
	806	80.7	5.95949E-002	2.65736E-005	0.00000E+000	5.99924E-002	5.96885E-002	7	...........
	807	80.8	6.95951E-002	2.70613E-005	0.00000E+000	6.99912E-002	6.96922E-002	7	...........
	808	80.9	7.95953E-002	2.75140E-005	0.00000E+000	7.99899E-002	7.98959E-002	7	...........
	809	81	8.95955E-002	2.79967E-005	0.00000E+000	8.99886E-002	8.98996E-002	7	...........
	810	81.1	9.95958E-002	2.85161E-005	0.00000E+000	9.99874E-002	9.95032E-002	7	...........
	811	81.2	1.09396E-001	2.89938E-005	0.00000E+000	1.09986E-001	1.09707E-001	7	...........
	812	81.3	1.19596E-001	2.94631E-005	0.00000E+000	1.19985E-001	1.19711E-001	7	...........
	813	81.4	1.29396E-001	2.99658E-005	0.00000E+000	1.29984E-001	1.29714E-001	7	...........
	814	81.5	1.39597E-001	3.05053E-005	0.00000E+000	1.39982E-001	1.39718E-001	7	...........
	815	81.6	1.49597E-001	3.10481E-005	0.00000E+000	1.49981E-001	1.49722E-001	7	...........
	816	81.7	1.59597E-001	3.15492E-005	0.00000E+000	1.59980E-001	1.59525E-001	7	...........
	817	81.8	1.69397E-001	3.20720E-005	0.00000E+000	1.69979E-001	1.69529E-001	7	...........
	818	81.9	1.79398E-001	3.25881E-005	0.00000E+000	1.79977E-001	1.79733E-001	7	...........
	819	82	1.89398E-001	3.31543E-005	0.00000E+000	1.90026E-001	1.89737E-001	7	...........
	820	82.1	1.99598E-001	3.36370E-005	0.00000E+000	2.00025E-001	1.99740E-001	7	...........
	821	82.2	2.09398E-001	3.41982E-005	0.00000E+000	2.10023E-001	2.09744E-001	7	...........
	822	82.3	2.19599E-001	3.47994E-005	0.00000E+000	2.20022E-001	2.19548E-001	7	...........
	823	82.4	2.29599E-001	3.53924E-005	0.00000E+000	2.30021E-001	2.29751E-001	7	...........
	824	82.5	2.39599E-001	3.59886E-005	0.00000E+000	2.40020E-001	2.39555E-001	7	...........
	825	82.6	2.49399E-001	3.66016E-005	0.00000E+000	2.50018E-001	2.49559E-001	7	...........
	826	82.7	2.59599E-001	3.72279E-005	0.00000E+000	2.60017E-001	2.59762E-001	7	...........
	827	82.8	2.69600E-001	3.79127E-005	0.00000E+000	2.70016E-001	2.69566E-001	7	...........
	828	82.9	2.79600E-001	3.85457E-005	0.00000E+000	2.80015E-001	2.79770E-001	7	...........
	829	83	2.89400E-001	3.92589E-005	0.00000E+000	2.90013E-001	2.89573E-001	7	...........
	830	83.1	2.99600E-001	4.00005E-005	0.00000E+000	3.00012E-001	2.99377E-001	7	...........
	831	83.2	3.09601E-001	4.07120E-005	0.00000E+000	3.10011E-001	3.09581E-001	7	...........
	832	83.3	3.19401E-001	4.14502E-005	0.00000E+000	3.20010E-001	3.19384E-001	7	...........
	833	83.4	3.29401E-001	4.21985E-005	0.00000E+000	3.30008E-001	3.29788E-001	7	...........
	834	83.5	3.39601E-001	4.29935E-005	0.00000E+000	3.40007E-001	3.39592E-001	7	...........
	835	83.6	3.49401E-001	4.37468E-005	0.00000E+000	3.50006E-001	3.49396E-001	7	...........
	836	83.7	3.59402E-001	4.45151E-005	0.00000E+000	3.60005E-001	3.59599E-001	7	...........
	837	83.8	3.69402E-001	5.77866E-005	0.00000E+000	3.70003E-001	3.69403E-001	8	...........
	838	83.9	3.79402E-001	4.08912E-005	0.00000E+000	3.80002E-001	3.79407E-001	8	...........
	839	84	3.89402E-001	4.87045E-005	0.00000E+000	3.90001E-001	3.89410E-001	8	...........
	840	84.1	3.99403E-001	4.87880E-005	0.00000E+000	3.99999E-001	3.99414E-001	8	...........
	841	84.2	4.09403E-001	4.95392E-005	0.00000E+000	4.09998E-001	4.09418E-001	8	...........
	842	84.3	4.19403E-001	5.03072E-005	0.00000E+000	4.19997E-001	4.19421E-001	8	...........
	843	84.4	4.29403E-001	5.11253E-005	0.00000E+000	4.29996E-001	4.29425E-001	8	...........
	844	84.5	4.39404E-001	5.18264E-005	0.00000E+000	4.39994E-001	4.39629E-001	8	...........
	845	84.6	4.49404E-001	5.26445E-005	0.00000E+000	4.49993E-001	4.49433E-001	8	...........
	846	84.7	4.59404E-001	5.34459E-005	0.00000E+000	4.59992E-001	4.59436E-001	8	...........
	847	84.8	4.69404E-001	5.42806E-005	0.00000E+000	4.69991E-001	4.69440E-001	8	...........
	848	84.9	4.79404E-001	5.50486E-005	0.00000E+000	4.79989E-001	4.79444E-001	8	...........
	849	85	4.89405E-001	5.58833E-005	0.00000E+000	4.89988E-001	4.89247E-001	8	...........
	850	85.1	4.99205E-001	5.67849E-005	0.00000E+000	4.99987E-001	4.99451E-001	8	...........
	851	85.2	5.09205E-001	5.75027E-005	0.00000E+000	5.09986E-001	5.09455E-001	8	...........
	852	85.3	5.19205E-001	5.83375E-005	0.00000E+000	5.19984E-001	5.19458E-001	8	...........
	853	85.4	5.29206E-001	5.93058E-005	0.00000E+000	5.29983E-001	5.29462E-001	8	...........
	854	85.5	5.39406E-001	6.01238E-005	0.00000E+000	5.39982E-001	5.39266E-001	8	...........
	855	85.6	5.49206E-001	6.10755E-005	0.00000E+000	5.49981E-001	5.49469E-001	8	...........
	856	85.7	5.59206E-001	6.19603E-005	0.00000E+000	5.59979E-001	5.59273E-001	8	...........
	857	85.8	5.69206E-001	6.28284E-005	0.00000E+000	5.69978E-001	5.69477E-001	8	...........
	858	85.9	5.79207E-001	6.38802E-005	0.00000E+000	5.79977E-001	5.79280E-001	8	...........
	859	86	5.89207E-001	6.48151E-005	0.00000E+000	5.89975E-001	5.89284E-001	8	...........
	860	86.1	5.99207E-001	6.59337E-005	0.00000E+000	6.00024E-001	5.99488E-001	8	...........
	861	86.2	6.09207E-001	6.68519E-005	0.00000E+000	6.10023E-001	6.09092E-001	8	...........
	862	86.3	6.19208E-001	6.79204E-005	0.00000E+000	6.20022E-001	6.19295E-001	8	...........
	863	86.4	6.29208E-001	6.89722E-005	0.00000E+000	6.30020E-001	6.29299E-001	8	...........
	864	86.5	6.39408E-001	7.01241E-005	0.00000E+000	6.40019E-001	6.39303E-001	8	...........
	865	86.6	6.49208E-001	7.12093E-005	0.00000E+000	6.50018E-001	6.49507E-001	8	...........
	866	86.7	6.59208E-001	7.23446E-005	0.00000E+000	6.60017E-001	6.59310E-001	8	...........
	867	86.8	6.69409E-001	7.35299E-005	0.00000E+000	6.70015E-001	6.69314E-001	8	...........
	868	86.9	6.79209E-001	7.46985E-005	0.00000E+000	6.80014E-001	6.79318E-001	8	...........
	869	87	6.89009E-001	7.59674E-005	0.00000E+000	6.90013E-001	6.88921E-001	8	...........
	870	87.1	6.99009E-001	7.71694E-005	0.00000E+000	7.00012E-001	6.99125E-001	8	...........
	871	87.2	7.09410E-001	7.83213E-005	0.00000E+000	7.10010E-001	7.09329E-001	8	...........
	872	87.3	7.19210E-001	7.96570E-005	0.00000E+000	7.20009E-001	7.19332E-001	8	...........
	873	87.4	7.29210E-001	8.10259E-005	0.00000E+000	7.30008E-001	7.29136E-001	8	...........
	874	87.5	7.39210E-001	8.23782E-005	0.00000E+000	7.40007E-001	7.39140E-001	8	...........
	875	87.6	7.49211E-001	8.36637E-005	0.00000E+000	7.50005E-001	7.49343E-001	8	...........
	876	87.7	7.59011E-001	8.51329E-005	0.00000E+000	7.60004E-001	7.59147E-001	8	...........
	877	87.8	7.69211E-001	8.65019E-005	0.00000E+000	7.70003E-001	7.69151E-001	8	...........
	878	87.9	7.79211E-001	8.79209E-005	0.00000E+000	7.80001E-001	7.79154E-001	8	...........
	879	88	7.89211E-001	8.94736E-005	0.00000E+000	7.90000E-001	7.89158E-001	8	...........
	880	88.1	7.99212E-001	9.09260E-005	0.00000E+000	7.99999E-001	7.99362E-001	8	...........
CURVE4	TABLE
	Pt	T	Vf	Im	Vu	Sig	Ach	IERange	Over
	#	s	V vs. Ref.	A	V	V	V	#	bits
	881	88.2	7.90011E-001	7.47319E-005	0.00000E+000	7.90000E-001	7.89158E-001	8	...........
	882	88.3	7.79611E-001	6.78202E-005	0.00000E+000	7.80001E-001	7.79354E-001	8	...........
	883	88.4	7.69611E-001	6.21773E-005	0.00000E+000	7.70003E-001	7.69351E-001	8	...........
	884	88.5	7.59611E-001	5.74526E-005	0.00000E+000	7.60004E-001	7.59347E-001	8	...........
	885	88.6	7.49611E-001	5.30953E-005	0.00000E+000	7.50005E-001	7.49143E-001	8	...........
	886	88.7	7.39610E-001	4.93222E-005	0.00000E+000	7.40007E-001	7.39340E-001	8	...........
	887	88.8	7.29810E-001	4.59999E-005	0.00000E+000	7.30008E-001	7.29336E-001	8	...........
	888	88.9	7.19610E-001	4.27277E-005	0.00000E+000	7.20009E-001	7.19132E-001	8	...........
	889	89	7.09810E-001	3.96224E-005	0.00000E+000	7.10010E-001	7.09329E-001	8	...........
	890	89.1	6.99609E-001	3.61406E-005	0.00000E+000	7.00012E-001	6.99125E-001	7	...........
	891	89.2	6.89409E-001	3.56245E-005	0.00000E+000	6.90013E-001	6.89321E-001	7	...........
	892	89.3	6.79609E-001	3.26315E-005	0.00000E+000	6.80014E-001	6.79318E-001	7	...........
	893	89.4	6.69409E-001	3.05220E-005	0.00000E+000	6.70015E-001	6.69314E-001	7	...........
	894	89.5	6.59809E-001	2.85462E-005	0.00000E+000	6.60017E-001	6.59310E-001	7	...........
	895	89.6	6.49608E-001	2.64467E-005	0.00000E+000	6.50018E-001	6.49306E-001	7	...........
	896	89.7	6.39808E-001	2.45009E-005	0.00000E+000	6.40019E-001	6.39303E-001	7	...........
	897	89.8	6.29608E-001	2.27355E-005	0.00000E+000	6.30020E-001	6.29499E-001	7	...........
	898	89.9	6.19608E-001	2.10753E-005	0.00000E+000	6.20022E-001	6.19295E-001	7	...........
	899	90	6.09807E-001	1.94719E-005	0.00000E+000	6.10023E-001	6.09292E-001	7	...........
	900	90.1	5.99607E-001	1.79770E-005	0.00000E+000	6.00024E-001	5.99288E-001	7	...........
	901	90.2	5.89607E-001	1.64521E-005	0.00000E+000	5.89975E-001	5.89084E-001	7	...........
	902	90.3	5.79807E-001	1.51277E-005	0.00000E+000	5.79977E-001	5.79080E-001	7	...........
	903	90.4	5.69606E-001	1.38399E-005	0.00000E+000	5.69978E-001	5.69277E-001	7	...........
	904	90.5	5.59806E-001	1.25639E-005	0.00000E+000	5.59979E-001	5.59473E-001	7	...........
	905	90.6	5.49606E-001	1.13964E-005	0.00000E+000	5.49981E-001	5.49469E-001	7	...........
	906	90.7	5.39606E-001	1.02590E-005	0.00000E+000	5.39982E-001	5.39266E-001	7	...........
	907	90.8	5.29806E-001	9.17334E-006	0.00000E+000	5.29983E-001	5.29262E-001	7	...........
	908	90.9	5.19605E-001	8.15284E-006	0.00000E+000	5.19984E-001	5.19258E-001	7	...........
	909	91	5.09605E-001	7.14236E-006	0.00000E+000	5.09986E-001	5.09455E-001	7	...........
	910	91.1	4.99805E-001	6.16362E-006	0.00000E+000	4.99987E-001	4.99451E-001	7	...........
	911	91.2	4.89805E-001	5.25502E-006	0.00000E+000	4.89988E-001	4.89247E-001	7	...........
	912	91.3	4.79804E-001	4.31135E-006	0.00000E+000	4.79989E-001	4.79444E-001	7	...........
	913	91.4	4.69404E-001	3.51800E-006	0.00000E+000	4.69991E-001	4.69240E-001	7	...........
	914	91.5	4.59804E-001	2.67955E-006	0.00000E+000	4.59992E-001	4.59436E-001	7	...........
	915	91.6	4.49804E-001	1.81438E-006	0.00000E+000	4.49993E-001	4.49433E-001	7	...........
	916	91.7	4.39804E-001	1.02938E-006	0.00000E+000	4.39994E-001	4.39629E-001	7	...........
	917	91.8	4.29803E-001	2.67763E-007	0.00000E+000	4.29996E-001	4.29425E-001	7	...........
	918	91.9	4.19803E-001	-3.91972E-007	0.00000E+000	4.19997E-001	4.19621E-001	7	...........
	919	92	4.09603E-001	-1.18198E-006	0.00000E+000	4.09998E-001	4.09418E-001	7	...........
	920	92.1	3.99803E-001	-1.86510E-006	0.00000E+000	3.99999E-001	3.99414E-001	7	...........
	921	92.2	3.90002E-001	-2.53820E-006	0.00000E+000	3.90001E-001	3.89410E-001	7	...........
	922	92.3	3.79802E-001	-3.21296E-006	0.00000E+000	3.80002E-001	3.79407E-001	7	...........
	923	92.4	3.69602E-001	-3.85432E-006	0.00000E+000	3.70003E-001	3.69603E-001	7	...........
	924	92.5	3.59802E-001	-4.48065E-006	0.00000E+000	3.60005E-001	3.59399E-001	7	...........
	925	92.6	3.49801E-001	-5.09529E-006	0.00000E+000	3.50006E-001	3.49596E-001	7	...........
	926	92.7	3.40001E-001	-5.67486E-006	0.00000E+000	3.40007E-001	3.39392E-001	7	...........
	927	92.8	3.29801E-001	-6.29618E-006	0.00000E+000	3.30008E-001	3.29388E-001	7	...........
	928	92.9	3.19801E-001	-6.87407E-006	0.00000E+000	3.20010E-001	3.19384E-001	7	...........
	929	93	3.10001E-001	-7.46366E-006	0.00000E+000	3.10011E-001	3.09581E-001	7	...........
	930	93.1	3.00000E-001	-7.98476E-006	0.00000E+000	3.00012E-001	2.99577E-001	7	...........
	931	93.2	2.90000E-001	-8.55096E-006	0.00000E+000	2.90013E-001	2.89573E-001	7	...........
	932	93.3	2.79800E-001	-9.05370E-006	0.00000E+000	2.80015E-001	2.79570E-001	7	...........
	933	93.4	2.69800E-001	-9.56646E-006	0.00000E+000	2.70016E-001	2.69566E-001	7	...........
	934	93.5	2.59799E-001	-1.00508E-005	0.00000E+000	2.60017E-001	2.59562E-001	7	...........
	935	93.6	2.49799E-001	-1.05168E-005	0.00000E+000	2.50018E-001	2.49559E-001	7	...........
	936	93.7	2.39799E-001	-1.09962E-005	0.00000E+000	2.40020E-001	2.39755E-001	7	...........
	937	93.8	2.29999E-001	-1.14655E-005	0.00000E+000	2.30021E-001	2.29551E-001	7	...........
	938	93.9	2.19999E-001	-1.19064E-005	0.00000E+000	2.20022E-001	2.19748E-001	7	...........
	939	94	2.09798E-001	-1.23323E-005	0.00000E+000	2.10023E-001	2.09744E-001	7	...........
	940	94.1	1.99998E-001	-1.27566E-005	0.00000E+000	2.00025E-001	1.99740E-001	7	...........
	941	94.2	1.90198E-001	-1.31891E-005	0.00000E+000	1.90026E-001	1.89737E-001	7	...........
	942	94.3	1.79798E-001	-1.36251E-005	0.00000E+000	1.79977E-001	1.79733E-001	7	...........
	943	94.4	1.69797E-001	-1.40109E-005	0.00000E+000	1.69979E-001	1.69529E-001	7	...........
	944	94.5	1.59997E-001	-1.43967E-005	0.00000E+000	1.59980E-001	1.59725E-001	7	...........
	945	94.6	1.49997E-001	-1.48059E-005	0.00000E+000	1.49981E-001	1.49722E-001	7	...........
	946	94.7	1.39997E-001	-1.52018E-005	0.00000E+000	1.39982E-001	1.39718E-001	7	...........
	947	94.8	1.29996E-001	-1.55876E-005	0.00000E+000	1.29984E-001	1.29714E-001	7	...........
	948	94.9	1.19996E-001	-1.59600E-005	0.00000E+000	1.19985E-001	1.19711E-001	7	...........
	949	95	1.09996E-001	-1.63459E-005	0.00000E+000	1.09986E-001	1.09707E-001	7	...........
	950	95.1	9.99958E-002	-1.67350E-005	0.00000E+000	9.99874E-002	9.97033E-002	7	...........
	951	95.2	8.99956E-002	-1.71225E-005	0.00000E+000	8.99886E-002	8.94995E-002	7	...........
	952	95.3	7.99953E-002	-1.74799E-005	0.00000E+000	7.99899E-002	7.96959E-002	7	...........
	953	95.4	7.01951E-002	-1.78557E-005	0.00000E+000	6.99912E-002	6.98922E-002	7	...........
	954	95.5	5.99949E-002	-1.82449E-005	0.00000E+000	5.99924E-002	5.96885E-002	7	...........
	955	95.6	4.99947E-002	-1.86173E-005	0.00000E+000	4.99937E-002	4.96848E-002	7	...........
	956	95.7	3.99944E-002	-1.90165E-005	0.00000E+000	3.99949E-002	3.96811E-002	7	...........
	957	95.8	2.99942E-002	-1.94023E-005	0.00000E+000	2.99962E-002	2.98774E-002	7	...........
	958	95.9	1.99940E-002	-1.98166E-005	0.00000E+000	1.99975E-002	1.98737E-002	7	...........
	959	96	1.01938E-002	-2.02258E-005	0.00000E+000	9.99874E-003	9.46990E-003	7	...........
	960	96.1	-6.48014E-006	-2.06500E-005	0.00000E+000	0.00000E+000	-3.33723E-004	7	...........
