EXPLAIN
TAG	CV
TITLE	LABEL	Cyclic Voltammetry	Test Identifier
DATE	LABEL	10-7-2017	Date
TIME	LABEL	16:37:16	Time
NOTES	NOTES	1	Notes...
	0.9mg

PSTAT	PSTAT	IFC5000-01520	Potentiostat
VINIT	POTEN	0.00000E+000	F	Initial E (V)
VLIMIT1	POTEN	-8.00000E-001	F	Scan Limit 1 (V)
VLIMIT2	POTEN	8.00000E-001	F	Scan Limit 2 (V)
VFINAL	POTEN	0.00000E+000	F	Final E (V)
SCANRATE	QUANT	2.00000E+002	A Real Number
STEPSIZE	QUANT	1.00000E+001	Step Size (mV)
CYCLES	IQUANT	3	Cycles (#)
IMODE	SELECTOR	0	I/E Range Mode
IRANGE	QUANT	2.50000E+002	Max Current (mA)
AREA	QUANT	3.84800E-001	A Real Number
EQDELAY	QUANT	1.00000E+000	Equil. Time (s)
IRCOMP	SELECTOR	0	IRComp
PFCOR	QUANT	2.50000E+002	PF Corr. (ohm)
SAMPLINGMODE	SELECTOR	0	Sampling Mode
EOC	QUANT	0	Open Circuit (V)
SEQUENCER	TOGGLE	TRUE	Run as Sequence
PSTATMODEL	IQUANT	53	Pstat Model
PSTATSECTION	LABEL	IFC5000-01520	Pstat Section
PSTATSERIALNO	LABEL	01520	Pstat Serial Number
CTRLMODE	IQUANT	1	Control Mode
ELECTROMETER	IQUANT	0	RE=0 or CS=1
IESTAB	IQUANT	2	I/E Stability
CASPEED	IQUANT	4	Control Amp Speed
CONVENTION	IQUANT	1	Current Convention
ICHRANGE	IQUANT	2	Ich Range
ICHRANGEMODE	TOGGLE	F	Ich Auto Range
ICHOFFSETENABLE	TOGGLE	F	Ich Offset Enable
ICHOFFSET	QUANT	0	Ich Offset (V)
ICHFILTER	IQUANT	3	Ich Filter
VCHRANGE	IQUANT	2	Vch Range
VCHRANGEMODE	TOGGLE	F	Vch Auto Range
VCHOFFSETENABLE	TOGGLE	F	Vch Offset Enable
VCHOFFSET	QUANT	0	Vch Offset (V)
VCHFILTER	IQUANT	3	Vch Filter
IERANGELOWERLIMIT	IQUANT	7	I/E Range Lower Limit
IERANGEMODE	TOGGLE	T	I/E AutoRange
IERANGE	IQUANT	11	I/E Range
ACHSELECT	IQUANT	1	Ach Select
ACHRANGE	IQUANT	2	Ach Range
ACHOFFSETENABLE	TOGGLE	F	Ach Offset Enable
ACHOFFSET	QUANT	0	Ach Offset (V)
ACHFILTER	IQUANT	1	Ach Filter
CABLEID	IQUANT	14	Cable ID
DCCALDATE	LABEL	5-7-2017	DC Calibration Date
ACCALDATE	LABEL	12/3/2015	AC Calibration Date
FRAMEWORKVERSION	QUANT	7.01	Framework Version
INSTRUMENTVERSION	LABEL	4.00	Instrument Version
CURVE1	TABLE
	Pt	T	Vf	Im	Vu	Sig	Ach	IERange	Over
	#	s	V vs. Ref.	A	V	V	V	#	bits
	0	0.05	3.48799E-005	-2.20028E-005	0.00000E+000	0.00000E+000	-1.33649E-004	11	...........
	1	0.1	-1.01651E-002	-1.55547E-005	0.00000E+000	-9.99874E-003	-9.93727E-003	10	...........
	2	0.15	-2.01651E-002	-1.50566E-005	0.00000E+000	-1.99975E-002	-2.01410E-002	9	...........
	3	0.2	-3.01651E-002	-1.70005E-005	0.00000E+000	-2.99962E-002	-2.99447E-002	8	...........
	4	0.25	-4.01651E-002	-1.82256E-005	0.00000E+000	-3.99949E-002	-4.01484E-002	7	...........
	5	0.3	-4.99651E-002	-1.92411E-005	0.00000E+000	-4.99937E-002	-5.01521E-002	7	...........
	6	0.35	-5.99651E-002	-2.06206E-005	0.00000E+000	-5.99924E-002	-6.01558E-002	7	...........
	7	0.4	-7.01651E-002	-2.15660E-005	0.00000E+000	-6.99912E-002	-7.01595E-002	7	...........
	8	0.45	-8.01651E-002	-2.26015E-005	0.00000E+000	-7.99899E-002	-8.01632E-002	7	...........
	9	0.5	-8.99651E-002	-2.36620E-005	0.00000E+000	-8.99886E-002	-9.01669E-002	7	...........
	10	0.55	-9.99651E-002	-2.48562E-005	0.00000E+000	-9.99874E-002	-1.00171E-001	7	...........
	11	0.6	-1.09965E-001	-2.59318E-005	0.00000E+000	-1.09986E-001	-1.09974E-001	7	...........
	12	0.65	-1.20165E-001	-2.68521E-005	0.00000E+000	-1.19985E-001	-1.20178E-001	7	...........
	13	0.7	-1.29965E-001	-2.79995E-005	0.00000E+000	-1.29984E-001	-1.30182E-001	7	...........
	14	0.75	-1.40165E-001	-2.89148E-005	0.00000E+000	-1.39982E-001	-1.40185E-001	7	...........
	15	0.8	-1.49965E-001	-2.97215E-005	0.00000E+000	-1.49981E-001	-1.50189E-001	7	...........
	16	0.85	-1.60165E-001	-3.09491E-005	0.00000E+000	-1.59980E-001	-1.59993E-001	7	...........
	17	0.9	-1.69965E-001	-3.17558E-005	0.00000E+000	-1.69979E-001	-1.69996E-001	7	...........
	18	0.95	-1.79965E-001	-3.28280E-005	0.00000E+000	-1.79977E-001	-1.80000E-001	7	...........
	19	1	-1.90165E-001	-3.39354E-005	0.00000E+000	-1.89976E-001	-1.90004E-001	7	...........
	20	1.05	-1.99965E-001	-3.48072E-005	0.00000E+000	-1.99975E-001	-2.00008E-001	7	...........
	21	1.1	-2.09965E-001	-3.59396E-005	0.00000E+000	-2.10023E-001	-2.10011E-001	7	...........
	22	1.15	-2.19965E-001	-3.70419E-005	0.00000E+000	-2.20022E-001	-2.20015E-001	7	...........
	23	1.2	-2.29965E-001	-3.78853E-005	0.00000E+000	-2.30021E-001	-2.30019E-001	7	...........
	24	1.25	-2.40165E-001	-3.89826E-005	0.00000E+000	-2.40020E-001	-2.40022E-001	7	...........
	25	1.3	-2.49965E-001	-4.04274E-005	0.00000E+000	-2.50018E-001	-2.50026E-001	7	...........
	26	1.35	-2.60165E-001	-4.14746E-005	0.00000E+000	-2.60017E-001	-2.60030E-001	7	...........
	27	1.4	-2.70165E-001	-4.23314E-005	0.00000E+000	-2.70016E-001	-2.69833E-001	7	...........
	28	1.45	-2.79765E-001	-4.38846E-005	0.00000E+000	-2.80015E-001	-2.79837E-001	7	...........
	29	1.5	-2.89965E-001	-4.47197E-005	0.00000E+000	-2.90013E-001	-2.89841E-001	7	...........
	30	1.55	-2.99765E-001	-4.55317E-005	0.00000E+000	-3.00012E-001	-3.00045E-001	8	...........
	31	1.6	-3.09965E-001	-4.69675E-005	0.00000E+000	-3.10011E-001	-3.10048E-001	8	...........
	32	1.65	-3.19965E-001	-4.83865E-005	0.00000E+000	-3.20010E-001	-3.19852E-001	8	...........
	33	1.7	-3.29965E-001	-4.92880E-005	0.00000E+000	-3.30008E-001	-3.30056E-001	8	...........
	34	1.75	-3.39765E-001	-5.08907E-005	0.00000E+000	-3.40007E-001	-3.39859E-001	8	...........
	35	1.8	-3.49965E-001	-5.15251E-005	0.00000E+000	-3.50006E-001	-3.49863E-001	8	...........
	36	1.85	-3.59965E-001	-5.35786E-005	0.00000E+000	-3.60005E-001	-3.59667E-001	8	...........
	37	1.9	-3.69765E-001	-5.52981E-005	0.00000E+000	-3.70003E-001	-3.70070E-001	8	...........
	38	1.95	-3.79765E-001	-5.60661E-005	0.00000E+000	-3.80002E-001	-3.79874E-001	8	...........
	39	2	-3.89965E-001	-5.77021E-005	0.00000E+000	-3.90001E-001	-3.89878E-001	8	...........
	40	2.05	-3.99965E-001	-5.93382E-005	0.00000E+000	-3.99999E-001	-3.99881E-001	8	...........
	41	2.1	-4.09765E-001	-6.04902E-005	0.00000E+000	-4.09998E-001	-4.09885E-001	8	...........
	42	2.15	-4.19765E-001	-6.30444E-005	0.00000E+000	-4.19997E-001	-4.19689E-001	8	...........
	43	2.2	-4.29765E-001	-6.39960E-005	0.00000E+000	-4.29996E-001	-4.29893E-001	8	...........
	44	2.25	-4.39765E-001	-6.56321E-005	0.00000E+000	-4.39994E-001	-4.39696E-001	8	...........
	45	2.3	-4.49765E-001	-6.76355E-005	0.00000E+000	-4.49993E-001	-4.49900E-001	8	...........
	46	2.35	-4.59765E-001	-6.84034E-005	0.00000E+000	-4.59992E-001	-4.59704E-001	8	...........
	47	2.4	-4.69765E-001	-7.03233E-005	0.00000E+000	-4.69991E-001	-4.69907E-001	8	...........
	48	2.45	-4.79965E-001	-7.24602E-005	0.00000E+000	-4.79989E-001	-4.79911E-001	8	...........
	49	2.5	-4.89965E-001	-7.41798E-005	0.00000E+000	-4.89988E-001	-4.89715E-001	8	...........
	50	2.55	-4.99765E-001	-7.62666E-005	0.00000E+000	-4.99987E-001	-4.99718E-001	8	...........
	51	2.6	-5.09765E-001	-7.85204E-005	0.00000E+000	-5.09986E-001	-5.09922E-001	8	...........
	52	2.65	-5.19765E-001	-8.11081E-005	0.00000E+000	-5.19984E-001	-5.19926E-001	8	...........
	53	2.7	-5.29765E-001	-8.26941E-005	0.00000E+000	-5.29983E-001	-5.29529E-001	8	...........
	54	2.75	-5.39765E-001	-8.47308E-005	0.00000E+000	-5.39982E-001	-5.39933E-001	8	...........
	55	2.8	-5.49565E-001	-8.63001E-005	0.00000E+000	-5.49981E-001	-5.49737E-001	8	...........
	56	2.85	-5.59565E-001	-8.86541E-005	0.00000E+000	-5.59979E-001	-5.59741E-001	8	...........
	57	2.9	-5.69765E-001	-9.15923E-005	0.00000E+000	-5.69978E-001	-5.69744E-001	8	...........
	58	2.95	-5.79565E-001	-9.31449E-005	0.00000E+000	-5.79977E-001	-5.79748E-001	8	...........
	59	3	-5.89765E-001	-9.70014E-005	0.00000E+000	-5.89975E-001	-5.89552E-001	8	...........
	60	3.05	-5.99565E-001	-9.81700E-005	0.00000E+000	-5.99974E-001	-5.99755E-001	8	...........
	61	3.1	-6.09965E-001	-1.01409E-004	0.00000E+000	-6.10023E-001	-6.09759E-001	8	...........
	62	3.15	-6.19565E-001	-1.04264E-004	0.00000E+000	-6.20022E-001	-6.19963E-001	8	...........
	63	3.2	-6.29765E-001	-1.06784E-004	0.00000E+000	-6.30020E-001	-6.29766E-001	8	...........
	64	3.25	-6.39565E-001	-1.09556E-004	0.00000E+000	-6.40019E-001	-6.39570E-001	8	...........
	65	3.3	-6.49565E-001	-1.11292E-004	0.00000E+000	-6.50018E-001	-6.49574E-001	8	...........
	66	3.35	-6.59565E-001	-1.14297E-004	0.00000E+000	-6.60017E-001	-6.59577E-001	8	...........
	67	3.4	-6.69765E-001	-1.17803E-004	0.00000E+000	-6.70015E-001	-6.69781E-001	8	...........
	68	3.45	-6.79565E-001	-1.21676E-004	0.00000E+000	-6.80014E-001	-6.79785E-001	8	...........
	69	3.5	-6.89765E-001	-1.25182E-004	0.00000E+000	-6.90013E-001	-6.89588E-001	8	...........
	70	3.55	-6.99565E-001	-1.27703E-004	0.00000E+000	-7.00012E-001	-6.99592E-001	8	...........
	71	3.6	-7.09565E-001	-1.29907E-004	0.00000E+000	-7.10010E-001	-7.09596E-001	8	...........
	72	3.65	-7.19765E-001	-1.33546E-004	0.00000E+000	-7.20009E-001	-7.19800E-001	8	...........
	73	3.7	-7.29565E-001	-1.38387E-004	0.00000E+000	-7.30008E-001	-7.29803E-001	8	...........
	74	3.75	-7.39765E-001	-1.41476E-004	0.00000E+000	-7.40007E-001	-7.39607E-001	8	...........
	75	3.8	-7.49565E-001	-1.45149E-004	0.00000E+000	-7.50005E-001	-7.49411E-001	8	...........
	76	3.85	-7.59565E-001	-1.48955E-004	0.00000E+000	-7.60004E-001	-7.59414E-001	8	...........
	77	3.9	-7.69765E-001	-1.53062E-004	0.00000E+000	-7.70003E-001	-7.69618E-001	8	...........
	78	3.95	-7.79565E-001	-1.56685E-004	0.00000E+000	-7.80001E-001	-7.79422E-001	8	...........
	79	4	-7.89565E-001	-1.60491E-004	0.00000E+000	-7.90000E-001	-7.89425E-001	8	...........
	80	4.05	-7.99765E-001	-1.65383E-004	0.00000E+000	-7.99999E-001	-7.99629E-001	8	...........
	81	4.1	-7.89365E-001	-1.42611E-004	0.00000E+000	-7.90000E-001	-7.89425E-001	8	...........
	82	4.15	-7.79765E-001	-1.27870E-004	0.00000E+000	-7.80001E-001	-7.79622E-001	8	...........
	83	4.2	-7.69565E-001	-1.15499E-004	0.00000E+000	-7.70003E-001	-7.69618E-001	8	...........
	84	4.25	-7.59565E-001	-1.05365E-004	0.00000E+000	-7.60004E-001	-7.59614E-001	8	...........
	85	4.3	-7.49565E-001	-9.49646E-005	0.00000E+000	-7.50005E-001	-7.49611E-001	8	...........
	86	4.35	-7.39765E-001	-8.66841E-005	0.00000E+000	-7.40007E-001	-7.39407E-001	8	...........
	87	4.4	-7.29565E-001	-7.99895E-005	0.00000E+000	-7.30008E-001	-7.29603E-001	8	...........
	88	4.45	-7.19565E-001	-7.34619E-005	0.00000E+000	-7.20009E-001	-7.19600E-001	8	...........
	89	4.5	-7.09565E-001	-6.77023E-005	0.00000E+000	-7.10010E-001	-7.09596E-001	8	...........
	90	4.55	-6.99565E-001	-6.24267E-005	0.00000E+000	-7.00012E-001	-6.99592E-001	8	...........
	91	4.6	-6.89765E-001	-5.78691E-005	0.00000E+000	-6.90013E-001	-6.89588E-001	8	...........
	92	4.65	-6.79765E-001	-5.19759E-005	0.00000E+000	-6.80014E-001	-6.79585E-001	8	...........
	93	4.7	-6.69765E-001	-4.83030E-005	0.00000E+000	-6.70015E-001	-6.69781E-001	8	...........
	94	4.75	-6.59565E-001	-4.35451E-005	0.00000E+000	-6.60017E-001	-6.59577E-001	8	...........
	95	4.8	-6.49765E-001	-4.09407E-005	0.00000E+000	-6.50018E-001	-6.49774E-001	8	...........
	96	4.85	-6.39765E-001	-3.82195E-005	0.00000E+000	-6.40019E-001	-6.39770E-001	8	...........
	97	4.9	-6.29765E-001	-3.48372E-005	0.00000E+000	-6.30020E-001	-6.29766E-001	7	...........
	98	4.95	-6.19765E-001	-3.18409E-005	0.00000E+000	-6.20022E-001	-6.19763E-001	7	...........
	99	5	-6.09765E-001	-2.89649E-005	0.00000E+000	-6.10023E-001	-6.09559E-001	7	...........
	100	5.05	-5.99765E-001	-2.62943E-005	0.00000E+000	-5.99974E-001	-5.99755E-001	7	...........
	101	5.1	-5.89765E-001	-2.42082E-005	0.00000E+000	-5.89975E-001	-5.89752E-001	7	...........
	102	5.15	-5.79565E-001	-2.18248E-005	0.00000E+000	-5.79977E-001	-5.79548E-001	7	...........
	103	5.2	-5.69765E-001	-1.97154E-005	0.00000E+000	-5.69978E-001	-5.69744E-001	7	...........
	104	5.25	-5.59765E-001	-1.79667E-005	0.00000E+000	-5.59979E-001	-5.59741E-001	7	...........
	105	5.3	-5.49765E-001	-1.62314E-005	0.00000E+000	-5.49981E-001	-5.49537E-001	7	...........
	106	5.35	-5.39765E-001	-1.40067E-005	0.00000E+000	-5.39982E-001	-5.39733E-001	7	...........
	107	5.4	-5.29765E-001	-1.26889E-005	0.00000E+000	-5.29983E-001	-5.29529E-001	7	...........
	108	5.45	-5.19565E-001	-1.08901E-005	0.00000E+000	-5.19984E-001	-5.19726E-001	7	...........
	109	5.5	-5.09765E-001	-9.65420E-006	0.00000E+000	-5.09986E-001	-5.09722E-001	7	...........
	110	5.55	-4.99965E-001	-8.06586E-006	0.00000E+000	-4.99987E-001	-4.99718E-001	7	...........
	111	5.6	-4.89965E-001	-6.84161E-006	0.00000E+000	-4.89988E-001	-4.89715E-001	7	...........
	112	5.65	-4.79965E-001	-5.59231E-006	0.00000E+000	-4.79989E-001	-4.79711E-001	7	...........
	113	5.7	-4.69765E-001	-4.46828E-006	0.00000E+000	-4.69991E-001	-4.69707E-001	7	...........
	114	5.75	-4.59965E-001	-3.34759E-006	0.00000E+000	-4.59992E-001	-4.59704E-001	7	...........
	115	5.8	-4.49765E-001	-2.15841E-006	0.00000E+000	-4.49993E-001	-4.49700E-001	7	...........
	116	5.85	-4.39965E-001	-1.02937E-006	0.00000E+000	-4.39994E-001	-4.39896E-001	7	...........
	117	5.9	-4.29765E-001	-7.90338E-008	0.00000E+000	-4.29996E-001	-4.29893E-001	7	...........
	118	5.95	-4.19765E-001	5.15552E-007	0.00000E+000	-4.19997E-001	-4.20089E-001	7	...........
	119	6	-4.09765E-001	1.82832E-006	0.00000E+000	-4.09998E-001	-4.09885E-001	7	...........
	120	6.05	-3.99965E-001	2.73022E-006	0.00000E+000	-3.99999E-001	-3.99681E-001	7	...........
	121	6.1	-3.89965E-001	3.46510E-006	0.00000E+000	-3.90001E-001	-3.89878E-001	7	...........
	122	6.15	-3.79965E-001	3.90937E-006	0.00000E+000	-3.80002E-001	-3.79674E-001	7	...........
	123	6.2	-3.70165E-001	5.06848E-006	0.00000E+000	-3.70003E-001	-3.69870E-001	7	...........
	124	6.25	-3.59765E-001	6.14073E-006	0.00000E+000	-3.60005E-001	-3.60067E-001	7	...........
	125	6.3	-3.49965E-001	6.66851E-006	0.00000E+000	-3.50006E-001	-3.49863E-001	7	...........
	126	6.35	-3.39965E-001	7.32490E-006	0.00000E+000	-3.40007E-001	-3.40059E-001	7	...........
	127	6.4	-3.29765E-001	8.03973E-006	0.00000E+000	-3.30008E-001	-3.29856E-001	7	...........
	128	6.45	-3.19965E-001	8.73787E-006	0.00000E+000	-3.20010E-001	-3.19852E-001	7	...........
	129	6.5	-3.09965E-001	9.48444E-006	0.00000E+000	-3.10011E-001	-3.09848E-001	7	...........
	130	6.55	-2.99965E-001	1.01709E-005	0.00000E+000	-3.00012E-001	-2.99844E-001	7	...........
	131	6.6	-2.90165E-001	1.07538E-005	0.00000E+000	-2.90013E-001	-2.90041E-001	7	...........
	132	6.65	-2.79965E-001	1.15455E-005	0.00000E+000	-2.80015E-001	-2.80037E-001	7	...........
	133	6.7	-2.70165E-001	1.18394E-005	0.00000E+000	-2.70016E-001	-2.70033E-001	7	...........
	134	6.75	-2.60165E-001	1.25626E-005	0.00000E+000	-2.60017E-001	-2.59830E-001	7	...........
	135	6.8	-2.49965E-001	1.33660E-005	0.00000E+000	-2.50018E-001	-2.50026E-001	7	...........
	136	6.85	-2.39965E-001	1.37367E-005	0.00000E+000	-2.40020E-001	-2.40022E-001	7	...........
	137	6.9	-2.29965E-001	1.46470E-005	0.00000E+000	-2.30021E-001	-2.30019E-001	7	...........
	138	6.95	-2.19965E-001	1.49643E-005	0.00000E+000	-2.20022E-001	-2.20015E-001	7	...........
	139	7	-2.10165E-001	1.55506E-005	0.00000E+000	-2.10023E-001	-2.10011E-001	7	...........
	140	7.05	-1.99965E-001	1.59030E-005	0.00000E+000	-1.99975E-001	-2.00008E-001	7	...........
	141	7.1	-1.89765E-001	1.66495E-005	0.00000E+000	-1.89976E-001	-1.89804E-001	7	...........
	142	7.15	-1.80165E-001	1.69569E-005	0.00000E+000	-1.79977E-001	-1.80000E-001	7	...........
	143	7.2	-1.69965E-001	1.76099E-005	0.00000E+000	-1.69979E-001	-1.69996E-001	7	...........
	144	7.25	-1.59965E-001	1.83782E-005	0.00000E+000	-1.59980E-001	-1.59993E-001	7	...........
	145	7.3	-1.49965E-001	1.86822E-005	0.00000E+000	-1.49981E-001	-1.49989E-001	7	...........
	146	7.35	-1.40165E-001	1.92383E-005	0.00000E+000	-1.39982E-001	-1.39985E-001	7	...........
	147	7.4	-1.30165E-001	1.96742E-005	0.00000E+000	-1.29984E-001	-1.30182E-001	7	...........
	148	7.45	-1.20165E-001	2.04275E-005	0.00000E+000	-1.19985E-001	-1.19978E-001	7	...........
	149	7.5	-1.10165E-001	2.07949E-005	0.00000E+000	-1.09986E-001	-1.10174E-001	7	...........
	150	7.55	-1.00165E-001	2.11190E-005	0.00000E+000	-9.99874E-002	-1.00171E-001	7	...........
	151	7.6	-9.01651E-002	2.18956E-005	0.00000E+000	-8.99886E-002	-9.01669E-002	7	...........
	152	7.65	-8.01651E-002	2.25085E-005	0.00000E+000	-7.99899E-002	-8.01632E-002	7	...........
	153	7.7	-6.99651E-002	2.29612E-005	0.00000E+000	-6.99912E-002	-7.01595E-002	7	...........
	154	7.75	-6.01651E-002	2.34238E-005	0.00000E+000	-5.99924E-002	-6.01558E-002	7	...........
	155	7.8	-4.99651E-002	2.41353E-005	0.00000E+000	-4.99937E-002	-5.01521E-002	7	...........
	156	7.85	-4.01651E-002	2.45629E-005	0.00000E+000	-3.99949E-002	-4.03485E-002	7	...........
	157	7.9	-3.01651E-002	2.52026E-005	0.00000E+000	-2.99962E-002	-3.01447E-002	7	...........
	158	7.95	-2.01651E-002	2.57070E-005	0.00000E+000	-1.99975E-002	-2.01410E-002	7	...........
	159	8	-9.96512E-003	2.60677E-005	0.00000E+000	-9.99874E-003	-1.01373E-002	7	...........
	160	8.05	3.48799E-005	2.68577E-005	0.00000E+000	0.00000E+000	6.64245E-005	7	...........
	161	8.1	9.83488E-003	2.72636E-005	0.00000E+000	9.99874E-003	9.87005E-003	7	...........
	162	8.15	1.96349E-002	2.78064E-005	0.00000E+000	1.99975E-002	1.98737E-002	7	...........
	163	8.2	2.98349E-002	2.86081E-005	0.00000E+000	2.99962E-002	2.98774E-002	7	...........
	164	8.25	3.98349E-002	2.89521E-005	0.00000E+000	3.99949E-002	3.98811E-002	7	...........
	165	8.3	4.98349E-002	2.96285E-005	0.00000E+000	4.99937E-002	4.96848E-002	7	...........
	166	8.35	5.96349E-002	3.02332E-005	0.00000E+000	5.99924E-002	5.98885E-002	7	...........
	167	8.4	6.98349E-002	3.08378E-005	0.00000E+000	6.99912E-002	6.96922E-002	7	...........
	168	8.45	7.98349E-002	3.18315E-005	0.00000E+000	7.99899E-002	7.96959E-002	7	...........
	169	8.5	8.98349E-002	3.21221E-005	0.00000E+000	8.99886E-002	8.96996E-002	7	...........
	170	8.55	9.96349E-002	3.28336E-005	0.00000E+000	9.99874E-002	9.97033E-002	7	...........
	171	8.6	1.09835E-001	3.33380E-005	0.00000E+000	1.09986E-001	1.09707E-001	7	...........
	172	8.65	1.19835E-001	3.40178E-005	0.00000E+000	1.19985E-001	1.19711E-001	7	...........
	173	8.7	1.29835E-001	3.48696E-005	0.00000E+000	1.29984E-001	1.29714E-001	7	...........
	174	8.75	1.39635E-001	3.52103E-005	0.00000E+000	1.39982E-001	1.39518E-001	7	...........
	175	8.8	1.49435E-001	3.57899E-005	0.00000E+000	1.49981E-001	1.49722E-001	7	...........
	176	8.85	1.59835E-001	3.66567E-005	0.00000E+000	1.59980E-001	1.59725E-001	7	...........
	177	8.9	1.69835E-001	3.75552E-005	0.00000E+000	1.69979E-001	1.69529E-001	7	...........
	178	8.95	1.79635E-001	3.81515E-005	0.00000E+000	1.79977E-001	1.79733E-001	7	...........
	179	9	1.89635E-001	3.87862E-005	0.00000E+000	1.89976E-001	1.89737E-001	7	...........
	180	9.05	1.99835E-001	3.94659E-005	0.00000E+000	1.99975E-001	1.99740E-001	7	...........
	181	9.1	2.09635E-001	4.04430E-005	0.00000E+000	2.10023E-001	2.09744E-001	7	...........
	182	9.15	2.19835E-001	4.09240E-005	0.00000E+000	2.20022E-001	2.19748E-001	7	...........
	183	9.2	2.29635E-001	4.16739E-005	0.00000E+000	2.30021E-001	2.29751E-001	7	...........
	184	9.25	2.39635E-001	4.24455E-005	0.00000E+000	2.40020E-001	2.39555E-001	7	...........
	185	9.3	2.49635E-001	4.31804E-005	0.00000E+000	2.50018E-001	2.49559E-001	7	...........
	186	9.35	2.59635E-001	4.39654E-005	0.00000E+000	2.60017E-001	2.59562E-001	7	...........
	187	9.4	2.69435E-001	4.50243E-005	0.00000E+000	2.70016E-001	2.69566E-001	7	...........
	188	9.45	2.79635E-001	4.59885E-005	0.00000E+000	2.80015E-001	2.79570E-001	8	...........
	189	9.5	2.89635E-001	4.62055E-005	0.00000E+000	2.90013E-001	2.89774E-001	8	...........
	190	9.55	2.99835E-001	4.71571E-005	0.00000E+000	3.00012E-001	2.99577E-001	8	...........
	191	9.6	3.09635E-001	4.77414E-005	0.00000E+000	3.10011E-001	3.09581E-001	8	...........
	192	9.65	3.19635E-001	4.90937E-005	0.00000E+000	3.20010E-001	3.19585E-001	8	...........
	193	9.7	3.29635E-001	5.05294E-005	0.00000E+000	3.30008E-001	3.29788E-001	8	...........
	194	9.75	3.39635E-001	5.16313E-005	0.00000E+000	3.40007E-001	3.39592E-001	8	...........
	195	9.8	3.49435E-001	5.21154E-005	0.00000E+000	3.50006E-001	3.49396E-001	8	...........
	196	9.85	3.59435E-001	5.30837E-005	0.00000E+000	3.60005E-001	3.59399E-001	8	...........
	197	9.9	3.69635E-001	5.35011E-005	0.00000E+000	3.70003E-001	3.69403E-001	8	...........
	198	9.95	3.79435E-001	5.55712E-005	0.00000E+000	3.80002E-001	3.79607E-001	8	...........
	199	10	3.89635E-001	5.58884E-005	0.00000E+000	3.90001E-001	3.89610E-001	8	...........
	200	10.05	3.99635E-001	5.68066E-005	0.00000E+000	3.99999E-001	3.99414E-001	8	...........
	201	10.1	4.09635E-001	5.85596E-005	0.00000E+000	4.09998E-001	4.09418E-001	8	...........
	202	10.15	4.19635E-001	5.87766E-005	0.00000E+000	4.19997E-001	4.19421E-001	8	...........
	203	10.2	4.29435E-001	6.08133E-005	0.00000E+000	4.29996E-001	4.29425E-001	8	...........
	204	10.25	4.39435E-001	6.16147E-005	0.00000E+000	4.39994E-001	4.39429E-001	8	...........
	205	10.3	4.49635E-001	6.23826E-005	0.00000E+000	4.49993E-001	4.49633E-001	8	...........
	206	10.35	4.59435E-001	6.33676E-005	0.00000E+000	4.59992E-001	4.59236E-001	8	...........
	207	10.4	4.69635E-001	6.41356E-005	0.00000E+000	4.69991E-001	4.69440E-001	8	...........
	208	10.45	4.79235E-001	6.58718E-005	0.00000E+000	4.79989E-001	4.79244E-001	8	...........
	209	10.5	4.89435E-001	6.66899E-005	0.00000E+000	4.89988E-001	4.89047E-001	8	...........
	210	10.55	4.99435E-001	6.74578E-005	0.00000E+000	4.99987E-001	4.99451E-001	8	...........
	211	10.6	5.09635E-001	6.96114E-005	0.00000E+000	5.09986E-001	5.09255E-001	8	...........
	212	10.65	5.19435E-001	7.07968E-005	0.00000E+000	5.19984E-001	5.19458E-001	8	...........
	213	10.7	5.29635E-001	7.01457E-005	0.00000E+000	5.29983E-001	5.29462E-001	8	...........
	214	10.75	5.39635E-001	7.22158E-005	0.00000E+000	5.39982E-001	5.39266E-001	8	...........
	215	10.8	5.49635E-001	7.37517E-005	0.00000E+000	5.49981E-001	5.49469E-001	8	...........
	216	10.85	5.59435E-001	7.57050E-005	0.00000E+000	5.59979E-001	5.59273E-001	8	...........
	217	10.9	5.69435E-001	7.57885E-005	0.00000E+000	5.69978E-001	5.69477E-001	8	...........
	218	10.95	5.79435E-001	7.76917E-005	0.00000E+000	5.79977E-001	5.79481E-001	8	...........
	219	11	5.89435E-001	7.92943E-005	0.00000E+000	5.89975E-001	5.89284E-001	8	...........
	220	11.05	5.99235E-001	8.00122E-005	0.00000E+000	5.99974E-001	5.99288E-001	8	...........
	221	11.1	6.09435E-001	8.26667E-005	0.00000E+000	6.10023E-001	6.09292E-001	8	...........
	222	11.15	6.19435E-001	8.31007E-005	0.00000E+000	6.20022E-001	6.19295E-001	8	...........
	223	11.2	6.29435E-001	8.42026E-005	0.00000E+000	6.30020E-001	6.29299E-001	8	...........
	224	11.25	6.39435E-001	8.61392E-005	0.00000E+000	6.40019E-001	6.39503E-001	8	...........
	225	11.3	6.49235E-001	8.70908E-005	0.00000E+000	6.50018E-001	6.49306E-001	8	...........
	226	11.35	6.59435E-001	8.90607E-005	0.00000E+000	6.60017E-001	6.59310E-001	8	...........
	227	11.4	6.69435E-001	8.93445E-005	0.00000E+000	6.70015E-001	6.69514E-001	8	...........
	228	11.45	6.79435E-001	9.14982E-005	0.00000E+000	6.80014E-001	6.79117E-001	8	...........
	229	11.5	6.89435E-001	9.34014E-005	0.00000E+000	6.90013E-001	6.89321E-001	8	...........
	230	11.55	6.99235E-001	9.63730E-005	0.00000E+000	7.00012E-001	6.99125E-001	8	...........
	231	11.6	7.09435E-001	9.63062E-005	0.00000E+000	7.10010E-001	7.09329E-001	8	...........
	232	11.65	7.19435E-001	9.95617E-005	0.00000E+000	7.20009E-001	7.19332E-001	8	...........
	233	11.7	7.29435E-001	9.96452E-005	0.00000E+000	7.30008E-001	7.29336E-001	8	...........
	234	11.75	7.39435E-001	1.01565E-004	0.00000E+000	7.40007E-001	7.39140E-001	8	...........
	235	11.8	7.49435E-001	1.03719E-004	0.00000E+000	7.50005E-001	7.49343E-001	8	...........
	236	11.85	7.59235E-001	1.05972E-004	0.00000E+000	7.60004E-001	7.59347E-001	8	...........
	237	11.9	7.69635E-001	1.07291E-004	0.00000E+000	7.70003E-001	7.69151E-001	8	...........
	238	11.95	7.79235E-001	1.08877E-004	0.00000E+000	7.80001E-001	7.79154E-001	8	...........
	239	12	7.89235E-001	1.11215E-004	0.00000E+000	7.90000E-001	7.88958E-001	8	...........
	240	12.05	7.99435E-001	1.13502E-004	0.00000E+000	7.99999E-001	7.99162E-001	8	...........
CURVE2	TABLE
	Pt	T	Vf	Im	Vu	Sig	Ach	IERange	Over
	#	s	V vs. Ref.	A	V	V	V	#	bits
	241	12.1	7.89235E-001	9.99457E-005	0.00000E+000	7.90000E-001	7.89158E-001	8	...........
	242	12.15	7.79235E-001	9.22160E-005	0.00000E+000	7.80001E-001	7.79354E-001	8	...........
	243	12.2	7.69235E-001	8.40523E-005	0.00000E+000	7.70003E-001	7.69351E-001	8	...........
	244	12.25	7.59235E-001	7.77918E-005	0.00000E+000	7.60004E-001	7.59347E-001	8	...........
	245	12.3	7.49235E-001	7.22158E-005	0.00000E+000	7.50005E-001	7.49343E-001	8	...........
	246	12.35	7.39435E-001	6.73243E-005	0.00000E+000	7.40007E-001	7.39340E-001	8	...........
	247	12.4	7.29235E-001	6.22157E-005	0.00000E+000	7.30008E-001	7.29136E-001	8	...........
	248	12.45	7.19435E-001	5.90604E-005	0.00000E+000	7.20009E-001	7.19332E-001	8	...........
	249	12.5	7.09235E-001	5.52540E-005	0.00000E+000	7.10010E-001	7.09129E-001	8	...........
	250	12.55	6.99435E-001	5.07965E-005	0.00000E+000	7.00012E-001	6.99325E-001	8	...........
	251	12.6	6.89235E-001	4.80920E-005	0.00000E+000	6.90013E-001	6.89121E-001	8	...........
	252	12.65	6.79635E-001	4.44526E-005	0.00000E+000	6.80014E-001	6.79518E-001	8	...........
	253	12.7	6.69235E-001	4.09300E-005	0.00000E+000	6.70015E-001	6.69114E-001	8	...........
	254	12.75	6.59435E-001	3.89266E-005	0.00000E+000	6.60017E-001	6.59110E-001	8	...........
	255	12.8	6.49435E-001	3.62224E-005	0.00000E+000	6.50018E-001	6.49306E-001	7	...........
	256	12.85	6.39435E-001	3.36838E-005	0.00000E+000	6.40019E-001	6.39503E-001	7	...........
	257	12.9	6.29435E-001	3.16311E-005	0.00000E+000	6.30020E-001	6.29299E-001	7	...........
	258	12.95	6.19435E-001	2.86532E-005	0.00000E+000	6.20022E-001	6.19295E-001	7	...........
	259	13	6.09435E-001	2.69462E-005	0.00000E+000	6.10023E-001	6.09492E-001	7	...........
	260	13.05	5.99435E-001	2.49554E-005	0.00000E+000	6.00024E-001	5.99288E-001	7	...........
	261	13.1	5.89635E-001	2.28392E-005	0.00000E+000	5.89975E-001	5.89284E-001	7	...........
	262	13.15	5.79235E-001	2.10354E-005	0.00000E+000	5.79977E-001	5.79280E-001	7	...........
	263	13.2	5.69635E-001	1.92650E-005	0.00000E+000	5.69978E-001	5.69077E-001	7	...........
	264	13.25	5.59435E-001	1.78120E-005	0.00000E+000	5.59979E-001	5.59273E-001	7	...........
	265	13.3	5.49635E-001	1.59865E-005	0.00000E+000	5.49981E-001	5.49469E-001	7	...........
	266	13.35	5.39635E-001	1.44332E-005	0.00000E+000	5.39982E-001	5.39466E-001	7	...........
	267	13.4	5.29435E-001	1.30403E-005	0.00000E+000	5.29983E-001	5.29262E-001	7	...........
	268	13.45	5.19435E-001	1.17576E-005	0.00000E+000	5.19984E-001	5.19458E-001	7	...........
	269	13.5	5.09435E-001	1.05600E-005	0.00000E+000	5.09986E-001	5.09255E-001	7	...........
	270	13.55	4.99435E-001	9.08527E-006	0.00000E+000	4.99987E-001	4.99451E-001	7	...........
	271	13.6	4.89635E-001	7.98128E-006	0.00000E+000	4.89988E-001	4.89447E-001	7	...........
	272	13.65	4.79435E-001	6.25097E-006	0.00000E+000	4.79989E-001	4.79444E-001	7	...........
	273	13.7	4.69435E-001	5.14363E-006	0.00000E+000	4.69991E-001	4.69440E-001	7	...........
	274	13.75	4.59235E-001	4.36032E-006	0.00000E+000	4.59992E-001	4.59436E-001	7	...........
	275	13.8	4.49635E-001	3.33983E-006	0.00000E+000	4.49993E-001	4.49433E-001	7	...........
	276	13.85	4.39435E-001	2.03208E-006	0.00000E+000	4.39994E-001	4.39429E-001	7	...........
	277	13.9	4.29435E-001	1.34062E-006	0.00000E+000	4.29996E-001	4.29425E-001	7	...........
	278	13.95	4.19435E-001	1.68154E-007	0.00000E+000	4.19997E-001	4.19421E-001	7	...........
	279	14	4.09435E-001	-5.85100E-007	0.00000E+000	4.09998E-001	4.09418E-001	7	...........
	280	14.05	3.99635E-001	-1.65736E-006	0.00000E+000	3.99999E-001	3.99414E-001	7	...........
	281	14.1	3.89635E-001	-2.28201E-006	0.00000E+000	3.90001E-001	3.89410E-001	7	...........
	282	14.15	3.79635E-001	-3.48454E-006	0.00000E+000	3.80002E-001	3.79607E-001	7	...........
	283	14.2	3.69635E-001	-4.22610E-006	0.00000E+000	3.70003E-001	3.69603E-001	7	...........
	284	14.25	3.59635E-001	-4.84908E-006	0.00000E+000	3.60005E-001	3.59599E-001	7	...........
	285	14.3	3.49435E-001	-5.52718E-006	0.00000E+000	3.50006E-001	3.49396E-001	7	...........
	286	14.35	3.39435E-001	-6.69965E-006	0.00000E+000	3.40007E-001	3.39392E-001	7	...........
	287	14.4	3.29435E-001	-7.20571E-006	0.00000E+000	3.30008E-001	3.29388E-001	7	...........
	288	14.45	3.19835E-001	-7.90552E-006	0.00000E+000	3.20010E-001	3.19384E-001	7	...........
	289	14.5	3.09835E-001	-8.78571E-006	0.00000E+000	3.10011E-001	3.09581E-001	7	...........
	290	14.55	2.99835E-001	-9.48718E-006	0.00000E+000	3.00012E-001	2.99777E-001	7	...........
	291	14.6	2.89635E-001	-1.02237E-005	0.00000E+000	2.90013E-001	2.89573E-001	7	...........
	292	14.65	2.79635E-001	-1.04258E-005	0.00000E+000	2.80015E-001	2.79570E-001	7	...........
	293	14.7	2.69635E-001	-1.14279E-005	0.00000E+000	2.70016E-001	2.69766E-001	7	...........
	294	14.75	2.59635E-001	-1.18622E-005	0.00000E+000	2.60017E-001	2.59762E-001	7	...........
	295	14.8	2.49635E-001	-1.25386E-005	0.00000E+000	2.50018E-001	2.49559E-001	7	...........
	296	14.85	2.39635E-001	-1.33102E-005	0.00000E+000	2.40020E-001	2.39555E-001	7	...........
	297	14.9	2.29835E-001	-1.36693E-005	0.00000E+000	2.30021E-001	2.29551E-001	7	...........
	298	14.95	2.19635E-001	-1.43274E-005	0.00000E+000	2.20022E-001	2.19548E-001	7	...........
	299	15	2.09835E-001	-1.44426E-005	0.00000E+000	2.10023E-001	2.09544E-001	7	...........
	300	15.05	1.99635E-001	-1.51040E-005	0.00000E+000	2.00025E-001	1.99540E-001	7	...........
	301	15.1	1.89635E-001	-1.59191E-005	0.00000E+000	1.90026E-001	1.89737E-001	7	...........
	302	15.15	1.79635E-001	-1.62631E-005	0.00000E+000	1.79977E-001	1.79333E-001	7	...........
	303	15.2	1.69635E-001	-1.67942E-005	0.00000E+000	1.69979E-001	1.69529E-001	7	...........
	304	15.25	1.59835E-001	-1.71483E-005	0.00000E+000	1.59980E-001	1.59525E-001	7	...........
	305	15.3	1.49635E-001	-1.78749E-005	0.00000E+000	1.49981E-001	1.49722E-001	7	...........
	306	15.35	1.39835E-001	-1.81271E-005	0.00000E+000	1.39982E-001	1.39718E-001	7	...........
	307	15.4	1.29835E-001	-1.86548E-005	0.00000E+000	1.29984E-001	1.29514E-001	7	...........
	308	15.45	1.19835E-001	-1.89538E-005	0.00000E+000	1.19985E-001	1.19711E-001	7	...........
	309	15.5	1.09835E-001	-1.95901E-005	0.00000E+000	1.09986E-001	1.09707E-001	7	...........
	310	15.55	9.96349E-002	-1.99058E-005	0.00000E+000	9.99874E-002	9.95032E-002	7	...........
	311	15.6	8.98349E-002	-2.02682E-005	0.00000E+000	8.99886E-002	8.94995E-002	7	...........
	312	15.65	8.00349E-002	-2.03734E-005	0.00000E+000	7.99899E-002	7.98959E-002	7	...........
	313	15.7	6.96349E-002	-2.11885E-005	0.00000E+000	6.99912E-002	6.96922E-002	7	...........
	314	15.75	5.98349E-002	-2.15058E-005	0.00000E+000	5.99924E-002	5.96885E-002	7	...........
	315	15.8	5.00349E-002	-2.18115E-005	0.00000E+000	4.99937E-002	4.98848E-002	7	...........
	316	15.85	3.98349E-002	-2.24712E-005	0.00000E+000	3.99949E-002	3.98811E-002	7	...........
	317	15.9	2.98349E-002	-2.28036E-005	0.00000E+000	2.99962E-002	2.96774E-002	7	...........
	318	15.95	1.98349E-002	-2.31660E-005	0.00000E+000	1.99975E-002	1.98737E-002	7	...........
	319	16	9.83488E-003	-2.37222E-005	0.00000E+000	9.99874E-003	9.66997E-003	7	...........
	320	16.05	3.48799E-005	-2.42132E-005	0.00000E+000	0.00000E+000	-1.33649E-004	7	...........
	321	16.1	-1.01651E-002	-2.45690E-005	0.00000E+000	-9.99874E-003	-1.01373E-002	7	...........
	322	16.15	-1.99651E-002	-2.53055E-005	0.00000E+000	-1.99975E-002	-2.01410E-002	7	...........
	323	16.2	-3.01651E-002	-2.56362E-005	0.00000E+000	-2.99962E-002	-2.99447E-002	7	...........
	324	16.25	-4.01651E-002	-2.61206E-005	0.00000E+000	-3.99949E-002	-4.01484E-002	7	...........
	325	16.3	-4.99651E-002	-2.67202E-005	0.00000E+000	-4.99937E-002	-5.01521E-002	7	...........
	326	16.35	-6.01651E-002	-2.74550E-005	0.00000E+000	-5.99924E-002	-5.99558E-002	7	...........
	327	16.4	-7.01651E-002	-2.76120E-005	0.00000E+000	-6.99912E-002	-7.01595E-002	7	...........
	328	16.45	-8.01651E-002	-2.87127E-005	0.00000E+000	-7.99899E-002	-8.01632E-002	7	...........
	329	16.5	-8.99651E-002	-2.91703E-005	0.00000E+000	-8.99886E-002	-8.99668E-002	7	...........
	330	16.55	-9.97651E-002	-2.97732E-005	0.00000E+000	-9.99874E-002	-1.00171E-001	7	...........
	331	16.6	-1.10165E-001	-3.01257E-005	0.00000E+000	-1.09986E-001	-1.09974E-001	7	...........
	332	16.65	-1.19965E-001	-3.09424E-005	0.00000E+000	-1.19985E-001	-1.20178E-001	7	...........
	333	16.7	-1.30165E-001	-3.14768E-005	0.00000E+000	-1.29984E-001	-1.30182E-001	7	...........
	334	16.75	-1.39965E-001	-3.24205E-005	0.00000E+000	-1.39982E-001	-1.40185E-001	7	...........
	335	16.8	-1.50165E-001	-3.29717E-005	0.00000E+000	-1.49981E-001	-1.49989E-001	7	...........
	336	16.85	-1.59965E-001	-3.36915E-005	0.00000E+000	-1.59980E-001	-1.59993E-001	7	...........
	337	16.9	-1.69965E-001	-3.44815E-005	0.00000E+000	-1.69979E-001	-1.69796E-001	7	...........
	338	16.95	-1.80165E-001	-3.53834E-005	0.00000E+000	-1.79977E-001	-1.80000E-001	7	...........
	339	17	-1.89965E-001	-3.58126E-005	0.00000E+000	-1.89976E-001	-1.89804E-001	7	...........
	340	17.05	-2.00165E-001	-3.68983E-005	0.00000E+000	-1.99975E-001	-1.99807E-001	7	...........
	341	17.1	-2.09965E-001	-3.79121E-005	0.00000E+000	-2.09973E-001	-2.10011E-001	7	...........
	342	17.15	-2.20165E-001	-3.82695E-005	0.00000E+000	-2.20022E-001	-2.20215E-001	7	...........
	343	17.2	-2.29965E-001	-3.93985E-005	0.00000E+000	-2.30021E-001	-2.30019E-001	7	...........
	344	17.25	-2.39965E-001	-4.04290E-005	0.00000E+000	-2.40020E-001	-2.40022E-001	7	...........
	345	17.3	-2.49965E-001	-4.07113E-005	0.00000E+000	-2.50018E-001	-2.49826E-001	7	...........
	346	17.35	-2.60165E-001	-4.21593E-005	0.00000E+000	-2.60017E-001	-2.59830E-001	7	...........
	347	17.4	-2.69965E-001	-4.27372E-005	0.00000E+000	-2.70016E-001	-2.70233E-001	7	...........
	348	17.45	-2.79965E-001	-4.40233E-005	0.00000E+000	-2.80015E-001	-2.79837E-001	7	...........
	349	17.5	-2.89765E-001	-4.48233E-005	0.00000E+000	-2.90013E-001	-2.89841E-001	7	...........
	350	17.55	-2.99765E-001	-4.55818E-005	0.00000E+000	-3.00012E-001	-2.99844E-001	8	...........
	351	17.6	-3.09965E-001	-4.70342E-005	0.00000E+000	-3.10011E-001	-3.10048E-001	8	...........
	352	17.65	-3.19965E-001	-4.84533E-005	0.00000E+000	-3.20010E-001	-3.20052E-001	8	...........
	353	17.7	-3.29765E-001	-4.88707E-005	0.00000E+000	-3.30008E-001	-3.29856E-001	8	...........
	354	17.75	-3.39765E-001	-5.09742E-005	0.00000E+000	-3.40007E-001	-3.40059E-001	8	...........
	355	17.8	-3.50165E-001	-5.18256E-005	0.00000E+000	-3.50006E-001	-3.49863E-001	8	...........
	356	17.85	-3.59965E-001	-5.28106E-005	0.00000E+000	-3.60005E-001	-3.59867E-001	8	...........
	357	17.9	-3.70165E-001	-5.44133E-005	0.00000E+000	-3.70003E-001	-3.69870E-001	8	...........
	358	17.95	-3.79965E-001	-5.47305E-005	0.00000E+000	-3.80002E-001	-3.80074E-001	8	...........
	359	18	-3.89965E-001	-5.59158E-005	0.00000E+000	-3.90001E-001	-3.89678E-001	8	...........
	360	18.05	-3.99765E-001	-5.75519E-005	0.00000E+000	-3.99999E-001	-4.00081E-001	8	...........
	361	18.1	-4.09965E-001	-5.92214E-005	0.00000E+000	-4.09998E-001	-4.09885E-001	8	...........
	362	18.15	-4.19765E-001	-6.02397E-005	0.00000E+000	-4.19997E-001	-4.19689E-001	8	...........
	363	18.2	-4.29765E-001	-6.18758E-005	0.00000E+000	-4.29996E-001	-4.29893E-001	8	...........
	364	18.25	-4.39965E-001	-6.29109E-005	0.00000E+000	-4.39994E-001	-4.39696E-001	8	...........
	365	18.3	-4.49765E-001	-6.49810E-005	0.00000E+000	-4.49993E-001	-4.49700E-001	8	...........
	366	18.35	-4.59565E-001	-6.69844E-005	0.00000E+000	-4.59992E-001	-4.59904E-001	8	...........
	367	18.4	-4.69765E-001	-6.85871E-005	0.00000E+000	-4.69991E-001	-4.69707E-001	8	...........
	368	18.45	-4.79765E-001	-6.98893E-005	0.00000E+000	-4.79989E-001	-4.79711E-001	8	...........
	369	18.5	-4.89965E-001	-7.15921E-005	0.00000E+000	-4.89988E-001	-4.89715E-001	8	...........
	370	18.55	-4.99765E-001	-7.23434E-005	0.00000E+000	-4.99987E-001	-4.99718E-001	8	...........
	371	18.6	-5.09765E-001	-7.49310E-005	0.00000E+000	-5.09986E-001	-5.09722E-001	8	...........
	372	18.65	-5.19765E-001	-7.69678E-005	0.00000E+000	-5.19984E-001	-5.19726E-001	8	...........
	373	18.7	-5.29765E-001	-7.95221E-005	0.00000E+000	-5.29983E-001	-5.29729E-001	8	...........
	374	18.75	-5.39965E-001	-8.23268E-005	0.00000E+000	-5.39982E-001	-5.39533E-001	8	...........
	375	18.8	-5.49965E-001	-8.34453E-005	0.00000E+000	-5.49981E-001	-5.49337E-001	8	...........
	376	18.85	-5.59765E-001	-8.39295E-005	0.00000E+000	-5.59979E-001	-5.59540E-001	8	...........
	377	18.9	-5.69765E-001	-8.78527E-005	0.00000E+000	-5.69978E-001	-5.69744E-001	8	...........
	378	18.95	-5.79565E-001	-8.99563E-005	0.00000E+000	-5.79977E-001	-5.79748E-001	8	...........
	379	19	-5.89765E-001	-9.15089E-005	0.00000E+000	-5.89975E-001	-5.89952E-001	8	...........
	380	19.05	-5.99765E-001	-9.46307E-005	0.00000E+000	-5.99974E-001	-5.99555E-001	8	...........
	381	19.1	-6.09565E-001	-9.66007E-005	0.00000E+000	-6.09973E-001	-6.09559E-001	8	...........
	382	19.15	-6.19565E-001	-9.92385E-005	0.00000E+000	-6.20022E-001	-6.19563E-001	8	...........
	383	19.2	-6.29765E-001	-1.02210E-004	0.00000E+000	-6.30020E-001	-6.29766E-001	8	...........
	384	19.25	-6.39765E-001	-1.03128E-004	0.00000E+000	-6.40019E-001	-6.39770E-001	8	...........
	385	19.3	-6.49765E-001	-1.06801E-004	0.00000E+000	-6.50018E-001	-6.49774E-001	8	...........
	386	19.35	-6.59765E-001	-1.09389E-004	0.00000E+000	-6.60017E-001	-6.59577E-001	8	...........
	387	19.4	-6.69565E-001	-1.12394E-004	0.00000E+000	-6.70015E-001	-6.69581E-001	8	...........
	388	19.45	-6.79765E-001	-1.14798E-004	0.00000E+000	-6.80014E-001	-6.79785E-001	8	...........
	389	19.5	-6.89565E-001	-1.18621E-004	0.00000E+000	-6.90013E-001	-6.89789E-001	8	...........
	390	19.55	-6.99565E-001	-1.21492E-004	0.00000E+000	-7.00012E-001	-6.99592E-001	8	...........
	391	19.6	-7.09765E-001	-1.25549E-004	0.00000E+000	-7.10010E-001	-7.09596E-001	8	...........
	392	19.65	-7.19765E-001	-1.28321E-004	0.00000E+000	-7.20009E-001	-7.19600E-001	8	...........
	393	19.7	-7.29565E-001	-1.32194E-004	0.00000E+000	-7.30008E-001	-7.29603E-001	8	...........
	394	19.75	-7.39565E-001	-1.34932E-004	0.00000E+000	-7.40007E-001	-7.39607E-001	8	...........
	395	19.8	-7.49565E-001	-1.38187E-004	0.00000E+000	-7.50005E-001	-7.49611E-001	8	...........
	396	19.85	-7.59765E-001	-1.42494E-004	0.00000E+000	-7.60004E-001	-7.59614E-001	8	...........
	397	19.9	-7.69365E-001	-1.45316E-004	0.00000E+000	-7.70003E-001	-7.69618E-001	8	...........
	398	19.95	-7.79565E-001	-1.50291E-004	0.00000E+000	-7.80001E-001	-7.79422E-001	8	...........
	399	20	-7.89565E-001	-1.53580E-004	0.00000E+000	-7.90000E-001	-7.89625E-001	8	...........
	400	20.05	-7.99565E-001	-1.58688E-004	0.00000E+000	-7.99999E-001	-7.99829E-001	8	...........
	401	20.1	-7.89765E-001	-1.37469E-004	0.00000E+000	-7.90000E-001	-7.89625E-001	8	...........
	402	20.15	-7.79565E-001	-1.22494E-004	0.00000E+000	-7.80001E-001	-7.79822E-001	8	...........
	403	20.2	-7.69765E-001	-1.09790E-004	0.00000E+000	-7.70003E-001	-7.69418E-001	8	...........
	404	20.25	-7.59565E-001	-9.90549E-005	0.00000E+000	-7.60004E-001	-7.59414E-001	8	...........
	405	20.3	-7.49765E-001	-9.03736E-005	0.00000E+000	-7.50005E-001	-7.49611E-001	8	...........
	406	20.35	-7.39565E-001	-8.30447E-005	0.00000E+000	-7.40007E-001	-7.39807E-001	8	...........
	407	20.4	-7.29565E-001	-7.51481E-005	0.00000E+000	-7.30008E-001	-7.29803E-001	8	...........
	408	20.45	-7.19765E-001	-6.94051E-005	0.00000E+000	-7.20009E-001	-7.19600E-001	8	...........
	409	20.5	-7.09565E-001	-6.46137E-005	0.00000E+000	-7.10010E-001	-7.09796E-001	8	...........
	410	20.55	-6.99565E-001	-5.86704E-005	0.00000E+000	-7.00012E-001	-6.99592E-001	8	...........
	411	20.6	-6.89565E-001	-5.22263E-005	0.00000E+000	-6.90013E-001	-6.89588E-001	8	...........
	412	20.65	-6.79765E-001	-4.88707E-005	0.00000E+000	-6.80014E-001	-6.79585E-001	8	...........
	413	20.7	-6.69565E-001	-4.47137E-005	0.00000E+000	-6.70015E-001	-6.69581E-001	8	...........
	414	20.75	-6.59765E-001	-4.11410E-005	0.00000E+000	-6.60017E-001	-6.59777E-001	8	...........
	415	20.8	-6.49765E-001	-3.75684E-005	0.00000E+000	-6.50018E-001	-6.49574E-001	8	...........
	416	20.85	-6.39765E-001	-3.45834E-005	0.00000E+000	-6.40019E-001	-6.39570E-001	7	...........
	417	20.9	-6.29765E-001	-3.17491E-005	0.00000E+000	-6.30020E-001	-6.29766E-001	7	...........
	418	20.95	-6.19965E-001	-2.91219E-005	0.00000E+000	-6.20022E-001	-6.19763E-001	7	...........
	419	21	-6.09765E-001	-2.65982E-005	0.00000E+000	-6.09973E-001	-6.09559E-001	7	...........
	420	21.05	-5.99765E-001	-2.37121E-005	0.00000E+000	-5.99974E-001	-5.99555E-001	7	...........
	421	21.1	-5.89965E-001	-2.16511E-005	0.00000E+000	-5.89975E-001	-5.89752E-001	7	...........
	422	21.15	-5.79765E-001	-1.95634E-005	0.00000E+000	-5.79977E-001	-5.79548E-001	7	...........
	423	21.2	-5.69765E-001	-1.79383E-005	0.00000E+000	-5.69978E-001	-5.69744E-001	7	...........
	424	21.25	-5.59765E-001	-1.58222E-005	0.00000E+000	-5.59979E-001	-5.59741E-001	7	...........
	425	21.3	-5.49565E-001	-1.41420E-005	0.00000E+000	-5.49981E-001	-5.49537E-001	7	...........
	426	21.35	-5.39765E-001	-1.22213E-005	0.00000E+000	-5.39982E-001	-5.39733E-001	7	...........
	427	21.4	-5.29765E-001	-1.10772E-005	0.00000E+000	-5.29983E-001	-5.29729E-001	7	...........
	428	21.45	-5.19765E-001	-9.65086E-006	0.00000E+000	-5.19984E-001	-5.19526E-001	7	...........
	429	21.5	-5.09765E-001	-8.01074E-006	0.00000E+000	-5.09986E-001	-5.09722E-001	7	...........
	430	21.55	-4.99765E-001	-6.63451E-006	0.00000E+000	-4.99987E-001	-4.99718E-001	7	...........
	431	21.6	-4.89765E-001	-5.12633E-006	0.00000E+000	-4.89988E-001	-4.89715E-001	7	...........
	432	21.65	-4.79765E-001	-3.91378E-006	0.00000E+000	-4.79989E-001	-4.79911E-001	7	...........
	433	21.7	-4.69765E-001	-2.94841E-006	0.00000E+000	-4.69991E-001	-4.69707E-001	7	...........
	434	21.75	-4.59965E-001	-1.56383E-006	0.00000E+000	-4.59992E-001	-4.59704E-001	7	...........
	435	21.8	-4.49565E-001	-7.43767E-007	0.00000E+000	-4.49993E-001	-4.49700E-001	7	...........
	436	21.85	-4.39965E-001	4.30373E-007	0.00000E+000	-4.39994E-001	-4.39896E-001	7	...........
	437	21.9	-4.29765E-001	1.13018E-006	0.00000E+000	-4.29996E-001	-4.29692E-001	7	...........
	438	21.95	-4.19965E-001	2.01705E-006	0.00000E+000	-4.19997E-001	-4.19889E-001	7	...........
	439	22	-4.09765E-001	3.11603E-006	0.00000E+000	-4.09998E-001	-4.09685E-001	7	...........
	440	22.05	-3.99765E-001	3.72231E-006	0.00000E+000	-3.99999E-001	-3.99881E-001	7	...........
	441	22.1	-3.89765E-001	4.89478E-006	0.00000E+000	-3.90001E-001	-3.89878E-001	7	...........
	442	22.15	-3.79965E-001	5.81505E-006	0.00000E+000	-3.80002E-001	-3.79874E-001	7	...........
	443	22.2	-3.69965E-001	6.57498E-006	0.00000E+000	-3.70003E-001	-3.69870E-001	7	...........
	444	22.25	-3.59965E-001	7.04096E-006	0.00000E+000	-3.60005E-001	-3.59867E-001	7	...........
	445	22.3	-3.49965E-001	7.93785E-006	0.00000E+000	-3.50006E-001	-3.49863E-001	7	...........
	446	22.35	-3.39965E-001	8.44559E-006	0.00000E+000	-3.40007E-001	-3.39859E-001	7	...........
	447	22.4	-3.29965E-001	9.32912E-006	0.00000E+000	-3.30008E-001	-3.29856E-001	7	...........
	448	22.45	-3.19965E-001	1.00456E-005	0.00000E+000	-3.20010E-001	-3.19852E-001	7	...........
	449	22.5	-3.10165E-001	1.06018E-005	0.00000E+000	-3.10011E-001	-3.09848E-001	7	...........
	450	22.55	-2.99965E-001	1.14152E-005	0.00000E+000	-3.00012E-001	-2.99844E-001	7	...........
	451	22.6	-2.90165E-001	1.21250E-005	0.00000E+000	-2.90013E-001	-2.89841E-001	7	...........
	452	22.65	-2.79965E-001	1.23087E-005	0.00000E+000	-2.80015E-001	-2.80037E-001	7	...........
	453	22.7	-2.69965E-001	1.28131E-005	0.00000E+000	-2.70016E-001	-2.70033E-001	7	...........
	454	22.75	-2.59965E-001	1.39772E-005	0.00000E+000	-2.60017E-001	-2.60030E-001	7	...........
	455	22.8	-2.49965E-001	1.42294E-005	0.00000E+000	-2.50018E-001	-2.50026E-001	7	...........
	456	22.85	-2.39965E-001	1.48057E-005	0.00000E+000	-2.40020E-001	-2.40022E-001	7	...........
	457	22.9	-2.29965E-001	1.53234E-005	0.00000E+000	-2.30021E-001	-2.30219E-001	7	...........
	458	22.95	-2.19965E-001	1.59598E-005	0.00000E+000	-2.20022E-001	-2.20215E-001	7	...........
	459	23	-2.09965E-001	1.64358E-005	0.00000E+000	-2.09973E-001	-2.09811E-001	7	...........
	460	23.05	-1.99965E-001	1.68617E-005	0.00000E+000	-1.99975E-001	-1.99807E-001	7	...........
	461	23.1	-1.89965E-001	1.74746E-005	0.00000E+000	-1.89976E-001	-1.90004E-001	7	...........
	462	23.15	-1.80165E-001	1.82730E-005	0.00000E+000	-1.79977E-001	-1.80000E-001	7	...........
	463	23.2	-1.70165E-001	1.85218E-005	0.00000E+000	-1.69979E-001	-1.70197E-001	7	...........
	464	23.25	-1.59965E-001	1.94037E-005	0.00000E+000	-1.59980E-001	-1.59993E-001	7	...........
	465	23.3	-1.49965E-001	1.97661E-005	0.00000E+000	-1.49981E-001	-1.49989E-001	7	...........
	466	23.35	-1.40165E-001	2.01319E-005	0.00000E+000	-1.39982E-001	-1.39985E-001	7	...........
	467	23.4	-1.30165E-001	2.04993E-005	0.00000E+000	-1.29984E-001	-1.29982E-001	7	...........
	468	23.45	-1.20165E-001	2.12492E-005	0.00000E+000	-1.19985E-001	-1.19978E-001	7	...........
	469	23.5	-1.10165E-001	2.15766E-005	0.00000E+000	-1.09986E-001	-1.09974E-001	7	...........
	470	23.55	-9.99651E-002	2.21845E-005	0.00000E+000	-9.99874E-002	-1.00171E-001	7	...........
	471	23.6	-8.99651E-002	2.28760E-005	0.00000E+000	-8.99886E-002	-8.99668E-002	7	...........
	472	23.65	-8.01651E-002	2.34505E-005	0.00000E+000	-7.99899E-002	-8.01632E-002	7	...........
	473	23.7	-6.99651E-002	2.38814E-005	0.00000E+000	-6.99912E-002	-6.99595E-002	7	...........
	474	23.75	-6.01651E-002	2.44242E-005	0.00000E+000	-5.99924E-002	-6.01558E-002	7	...........
	475	23.8	-4.99651E-002	2.48084E-005	0.00000E+000	-4.99937E-002	-5.01521E-002	7	...........
	476	23.85	-4.01651E-002	2.53512E-005	0.00000E+000	-3.99949E-002	-4.01484E-002	7	...........
	477	23.9	-3.01651E-002	2.59976E-005	0.00000E+000	-2.99962E-002	-3.01447E-002	7	...........
	478	23.95	-2.01651E-002	2.64268E-005	0.00000E+000	-1.99975E-002	-2.03411E-002	7	...........
	479	24	-1.01651E-002	2.69178E-005	0.00000E+000	-9.99874E-003	-1.01373E-002	7	...........
	480	24.05	-1.65120E-004	2.77613E-005	0.00000E+000	0.00000E+000	-1.33649E-004	7	...........
	481	24.1	9.83488E-003	2.82206E-005	0.00000E+000	9.99874E-003	9.66997E-003	7	...........
	482	24.15	1.98349E-002	2.89221E-005	0.00000E+000	1.99975E-002	1.98737E-002	7	...........
	483	24.2	2.98349E-002	2.91926E-005	0.00000E+000	2.99962E-002	2.96774E-002	7	...........
	484	24.25	3.98349E-002	2.99759E-005	0.00000E+000	3.99949E-002	3.98811E-002	7	...........
	485	24.3	4.96349E-002	3.06140E-005	0.00000E+000	4.99937E-002	4.96848E-002	7	...........
	486	24.35	5.96349E-002	3.12135E-005	0.00000E+000	5.99924E-002	5.94884E-002	7	...........
	487	24.4	6.98349E-002	3.17129E-005	0.00000E+000	6.99912E-002	6.96922E-002	7	...........
	488	24.45	7.96349E-002	3.25814E-005	0.00000E+000	7.99899E-002	7.98959E-002	7	...........
	489	24.5	8.98349E-002	3.30190E-005	0.00000E+000	8.99886E-002	8.96996E-002	7	...........
	490	24.55	9.98349E-002	3.35618E-005	0.00000E+000	9.99874E-002	9.97033E-002	7	...........
	491	24.6	1.09635E-001	3.39527E-005	0.00000E+000	1.09986E-001	1.09707E-001	7	...........
	492	24.65	1.19635E-001	3.47243E-005	0.00000E+000	1.19985E-001	1.19711E-001	7	...........
	493	24.7	1.29835E-001	3.55243E-005	0.00000E+000	1.29984E-001	1.29714E-001	7	...........
	494	24.75	1.39835E-001	3.61239E-005	0.00000E+000	1.39982E-001	1.39518E-001	7	...........
	495	24.8	1.49635E-001	3.68771E-005	0.00000E+000	1.49981E-001	1.49522E-001	7	...........
	496	24.85	1.59835E-001	3.72379E-005	0.00000E+000	1.59980E-001	1.59725E-001	7	...........
	497	24.9	1.69835E-001	3.82617E-005	0.00000E+000	1.69979E-001	1.69529E-001	7	...........
	498	24.95	1.79635E-001	3.88881E-005	0.00000E+000	1.79977E-001	1.79733E-001	7	...........
	499	25	1.89835E-001	3.94793E-005	0.00000E+000	1.90026E-001	1.89737E-001	7	...........
	500	25.05	1.99635E-001	4.03795E-005	0.00000E+000	2.00025E-001	1.99740E-001	7	...........
	501	25.1	2.09635E-001	4.10025E-005	0.00000E+000	2.10023E-001	2.09944E-001	7	...........
	502	25.15	2.19835E-001	4.18292E-005	0.00000E+000	2.20022E-001	2.19548E-001	7	...........
	503	25.2	2.29635E-001	4.23570E-005	0.00000E+000	2.30021E-001	2.29551E-001	7	...........
	504	25.25	2.39635E-001	4.31337E-005	0.00000E+000	2.40020E-001	2.39555E-001	7	...........
	505	25.3	2.49835E-001	4.40690E-005	0.00000E+000	2.50018E-001	2.49559E-001	7	...........
	506	25.35	2.59635E-001	4.48089E-005	0.00000E+000	2.60017E-001	2.59562E-001	7	...........
	507	25.4	2.69635E-001	4.62890E-005	0.00000E+000	2.70016E-001	2.69566E-001	8	...........
	508	25.45	2.79835E-001	4.67230E-005	0.00000E+000	2.80015E-001	2.79570E-001	8	...........
	509	25.5	2.89835E-001	4.67063E-005	0.00000E+000	2.90013E-001	2.89774E-001	8	...........
	510	25.55	2.99835E-001	4.84927E-005	0.00000E+000	3.00012E-001	2.99577E-001	8	...........
	511	25.6	3.09635E-001	4.92940E-005	0.00000E+000	3.10011E-001	3.09581E-001	8	...........
	512	25.65	3.19435E-001	4.98950E-005	0.00000E+000	3.20010E-001	3.19585E-001	8	...........
	513	25.7	3.29435E-001	5.08132E-005	0.00000E+000	3.30008E-001	3.29588E-001	8	...........
	514	25.75	3.39835E-001	5.18650E-005	0.00000E+000	3.40007E-001	3.39392E-001	8	...........
	515	25.8	3.49835E-001	5.24493E-005	0.00000E+000	3.50006E-001	3.49596E-001	8	...........
	516	25.85	3.59635E-001	5.45362E-005	0.00000E+000	3.60005E-001	3.59799E-001	8	...........
	517	25.9	3.69635E-001	5.51038E-005	0.00000E+000	3.70003E-001	3.69603E-001	8	...........
	518	25.95	3.79435E-001	5.53876E-005	0.00000E+000	3.80002E-001	3.79407E-001	8	...........
	519	26	3.89635E-001	5.75746E-005	0.00000E+000	3.90001E-001	3.89610E-001	8	...........
	520	26.05	3.99635E-001	5.83759E-005	0.00000E+000	3.99999E-001	3.99214E-001	8	...........
	521	26.1	4.09635E-001	5.84260E-005	0.00000E+000	4.09998E-001	4.09418E-001	8	...........
	522	26.15	4.19435E-001	6.03960E-005	0.00000E+000	4.19997E-001	4.19421E-001	8	...........
	523	26.2	4.29435E-001	6.08300E-005	0.00000E+000	4.29996E-001	4.29225E-001	8	...........
	524	26.25	4.39435E-001	6.12307E-005	0.00000E+000	4.39994E-001	4.39629E-001	8	...........
	525	26.3	4.49635E-001	6.33342E-005	0.00000E+000	4.49993E-001	4.49433E-001	8	...........
	526	26.35	4.59635E-001	6.47032E-005	0.00000E+000	4.59992E-001	4.59436E-001	8	...........
	527	26.4	4.69435E-001	6.58551E-005	0.00000E+000	4.69991E-001	4.69640E-001	8	...........
	528	26.45	4.79635E-001	6.64561E-005	0.00000E+000	4.79989E-001	4.79444E-001	8	...........
	529	26.5	4.89635E-001	6.81089E-005	0.00000E+000	4.89988E-001	4.89447E-001	8	...........
	530	26.55	4.99435E-001	6.90939E-005	0.00000E+000	4.99987E-001	4.99451E-001	8	...........
	531	26.6	5.09235E-001	6.97951E-005	0.00000E+000	5.09986E-001	5.09455E-001	8	...........
	532	26.65	5.19435E-001	7.15480E-005	0.00000E+000	5.19984E-001	5.19258E-001	8	...........
	533	26.7	5.29435E-001	7.21657E-005	0.00000E+000	5.29983E-001	5.29462E-001	8	...........
	534	26.75	5.39435E-001	7.36849E-005	0.00000E+000	5.39982E-001	5.39466E-001	8	...........
	535	26.8	5.49635E-001	7.44195E-005	0.00000E+000	5.49981E-001	5.49269E-001	8	...........
	536	26.85	5.59635E-001	7.62225E-005	0.00000E+000	5.59979E-001	5.59473E-001	8	...........
	537	26.9	5.69435E-001	7.69571E-005	0.00000E+000	5.69978E-001	5.69277E-001	8	...........
	538	26.95	5.79435E-001	7.91274E-005	0.00000E+000	5.79977E-001	5.79280E-001	8	...........
	539	27	5.89235E-001	8.01458E-005	0.00000E+000	5.89975E-001	5.89484E-001	8	...........
	540	27.05	5.99435E-001	8.16817E-005	0.00000E+000	6.00024E-001	5.99488E-001	8	...........
	541	27.1	6.09435E-001	8.22159E-005	0.00000E+000	6.10023E-001	6.09292E-001	8	...........
	542	27.15	6.19435E-001	8.37184E-005	0.00000E+000	6.20022E-001	6.19295E-001	8	...........
	543	27.2	6.29635E-001	8.54380E-005	0.00000E+000	6.30020E-001	6.29499E-001	8	...........
	544	27.25	6.39435E-001	8.67903E-005	0.00000E+000	6.40019E-001	6.39303E-001	8	...........
	545	27.3	6.49435E-001	8.79422E-005	0.00000E+000	6.50018E-001	6.49306E-001	8	...........
	546	27.35	6.59235E-001	9.02628E-005	0.00000E+000	6.60017E-001	6.59310E-001	8	...........
	547	27.4	6.69435E-001	9.17987E-005	0.00000E+000	6.70015E-001	6.69314E-001	8	...........
	548	27.45	6.79635E-001	9.34014E-005	0.00000E+000	6.80014E-001	6.79318E-001	8	...........
	549	27.5	6.89435E-001	9.54548E-005	0.00000E+000	6.90013E-001	6.89321E-001	8	...........
	550	27.55	6.99435E-001	9.61894E-005	0.00000E+000	7.00012E-001	6.99325E-001	8	...........
	551	27.6	7.09435E-001	9.86435E-005	0.00000E+000	7.10010E-001	7.09329E-001	8	...........
	552	27.65	7.19235E-001	9.91777E-005	0.00000E+000	7.20009E-001	7.19332E-001	8	...........
	553	27.7	7.29435E-001	1.01281E-004	0.00000E+000	7.30008E-001	7.29136E-001	8	...........
	554	27.75	7.39235E-001	1.03084E-004	0.00000E+000	7.40007E-001	7.39140E-001	8	...........
	555	27.8	7.49435E-001	1.04386E-004	0.00000E+000	7.50005E-001	7.49343E-001	8	...........
	556	27.85	7.59235E-001	1.06423E-004	0.00000E+000	7.60004E-001	7.59347E-001	8	...........
	557	27.9	7.69435E-001	1.08560E-004	0.00000E+000	7.70003E-001	7.69351E-001	8	...........
	558	27.95	7.79235E-001	1.10079E-004	0.00000E+000	7.80001E-001	7.79354E-001	8	...........
	559	28	7.89035E-001	1.12183E-004	0.00000E+000	7.90000E-001	7.89158E-001	8	...........
	560	28.05	7.99435E-001	1.13786E-004	0.00000E+000	7.99999E-001	7.99162E-001	8	...........
CURVE3	TABLE
	Pt	T	Vf	Im	Vu	Sig	Ach	IERange	Over
	#	s	V vs. Ref.	A	V	V	V	#	bits
	561	28.1	7.89235E-001	1.01398E-004	0.00000E+000	7.90000E-001	7.89358E-001	8	...........
	562	28.15	7.79235E-001	9.26167E-005	0.00000E+000	7.80001E-001	7.79154E-001	8	...........
	563	28.2	7.69435E-001	8.50206E-005	0.00000E+000	7.70003E-001	7.69151E-001	8	...........
	564	28.25	7.59435E-001	7.92610E-005	0.00000E+000	7.60004E-001	7.59147E-001	8	...........
	565	28.3	7.49435E-001	7.42192E-005	0.00000E+000	7.50005E-001	7.49543E-001	8	...........
	566	28.35	7.39435E-001	6.88936E-005	0.00000E+000	7.40007E-001	7.39340E-001	8	...........
	567	28.4	7.29435E-001	6.50371E-005	0.00000E+000	7.30008E-001	7.29336E-001	8	...........
	568	28.45	7.19235E-001	5.93943E-005	0.00000E+000	7.20009E-001	7.19332E-001	8	...........
	569	28.5	7.09435E-001	5.61055E-005	0.00000E+000	7.10010E-001	7.09329E-001	8	...........
	570	28.55	6.99435E-001	5.17815E-005	0.00000E+000	7.00012E-001	6.99125E-001	8	...........
	571	28.6	6.89235E-001	4.90770E-005	0.00000E+000	6.90013E-001	6.89321E-001	8	...........
	572	28.65	6.79435E-001	4.58549E-005	0.00000E+000	6.80014E-001	6.79318E-001	8	...........
	573	28.7	6.69435E-001	4.29000E-005	0.00000E+000	6.70015E-001	6.69314E-001	8	...........
	574	28.75	6.59435E-001	4.04625E-005	0.00000E+000	6.60017E-001	6.59110E-001	8	...........
	575	28.8	6.49435E-001	3.72572E-005	0.00000E+000	6.50018E-001	6.49306E-001	8	...........
	576	28.85	6.39435E-001	3.45873E-005	0.00000E+000	6.40019E-001	6.39303E-001	7	...........
	577	28.9	6.29435E-001	3.25063E-005	0.00000E+000	6.30020E-001	6.29299E-001	7	...........
	578	28.95	6.19435E-001	3.01062E-005	0.00000E+000	6.20022E-001	6.19295E-001	7	...........
	579	29	6.09435E-001	2.79868E-005	0.00000E+000	6.10023E-001	6.09292E-001	7	...........
	580	29.05	5.99435E-001	2.61061E-005	0.00000E+000	6.00024E-001	5.99288E-001	7	...........
	581	29.1	5.89435E-001	2.42038E-005	0.00000E+000	5.89975E-001	5.89284E-001	7	...........
	582	29.15	5.79435E-001	2.18956E-005	0.00000E+000	5.79977E-001	5.79481E-001	7	...........
	583	29.2	5.69235E-001	2.01001E-005	0.00000E+000	5.69978E-001	5.69477E-001	7	...........
	584	29.25	5.59435E-001	1.85435E-005	0.00000E+000	5.59979E-001	5.59073E-001	7	...........
	585	29.3	5.49435E-001	1.69184E-005	0.00000E+000	5.49981E-001	5.49469E-001	7	...........
	586	29.35	5.39435E-001	1.53384E-005	0.00000E+000	5.39982E-001	5.39466E-001	7	...........
	587	29.4	5.29435E-001	1.34845E-005	0.00000E+000	5.29983E-001	5.29262E-001	7	...........
	588	29.45	5.19435E-001	1.24340E-005	0.00000E+000	5.19984E-001	5.19458E-001	7	...........
	589	29.5	5.09435E-001	1.09241E-005	0.00000E+000	5.09986E-001	5.09455E-001	7	...........
	590	29.55	4.99435E-001	9.62307E-006	0.00000E+000	4.99987E-001	4.99451E-001	7	...........
	591	29.6	4.89435E-001	8.45728E-006	0.00000E+000	4.89988E-001	4.89447E-001	7	...........
	592	29.65	4.79435E-001	7.03595E-006	0.00000E+000	4.79989E-001	4.79244E-001	7	...........
	593	29.7	4.69635E-001	6.00378E-006	0.00000E+000	4.69991E-001	4.69440E-001	7	...........
	594	29.75	4.59635E-001	4.83298E-006	0.00000E+000	4.59992E-001	4.59436E-001	7	...........
	595	29.8	4.49635E-001	3.91271E-006	0.00000E+000	4.49993E-001	4.49633E-001	7	...........
	596	29.85	4.39435E-001	2.83544E-006	0.00000E+000	4.39994E-001	4.39429E-001	7	...........
	597	29.9	4.29435E-001	1.75316E-006	0.00000E+000	4.29996E-001	4.29425E-001	7	...........
	598	29.95	4.19835E-001	9.74853E-007	0.00000E+000	4.19997E-001	4.19421E-001	7	...........
	599	30	4.09635E-001	-1.92606E-007	0.00000E+000	4.09998E-001	4.09418E-001	7	...........
	600	30.05	3.99635E-001	-1.20641E-006	0.00000E+000	3.99999E-001	3.99414E-001	7	...........
	601	30.1	3.89435E-001	-1.76258E-006	0.00000E+000	3.90001E-001	3.89610E-001	7	...........
	602	30.15	3.79435E-001	-2.92169E-006	0.00000E+000	3.80002E-001	3.79607E-001	7	...........
	603	30.2	3.69835E-001	-3.62985E-006	0.00000E+000	3.70003E-001	3.69403E-001	7	...........
	604	30.25	3.59435E-001	-4.25951E-006	0.00000E+000	3.60005E-001	3.59599E-001	7	...........
	605	30.3	3.49435E-001	-5.32843E-006	0.00000E+000	3.50006E-001	3.49396E-001	7	...........
	606	30.35	3.39635E-001	-5.82113E-006	0.00000E+000	3.40007E-001	3.39392E-001	7	...........
	607	30.4	3.29635E-001	-6.70967E-006	0.00000E+000	3.30008E-001	3.29388E-001	7	...........
	608	30.45	3.19635E-001	-7.71679E-006	0.00000E+000	3.20010E-001	3.19585E-001	7	...........
	609	30.5	3.09835E-001	-8.06920E-006	0.00000E+000	3.10011E-001	3.09381E-001	7	...........
	610	30.55	2.99635E-001	-8.94103E-006	0.00000E+000	3.00012E-001	2.99577E-001	7	...........
	611	30.6	2.89835E-001	-9.36860E-006	0.00000E+000	2.90013E-001	2.89573E-001	7	...........
	612	30.65	2.79835E-001	-1.02805E-005	0.00000E+000	2.80015E-001	2.79570E-001	7	...........
	613	30.7	2.69835E-001	-1.08734E-005	0.00000E+000	2.70016E-001	2.69566E-001	7	...........
	614	30.75	2.59635E-001	-1.15582E-005	0.00000E+000	2.60017E-001	2.59562E-001	7	...........
	615	30.8	2.49635E-001	-1.24167E-005	0.00000E+000	2.50018E-001	2.49759E-001	7	...........
	616	30.85	2.39635E-001	-1.28392E-005	0.00000E+000	2.40020E-001	2.39755E-001	7	...........
	617	30.9	2.29635E-001	-1.31699E-005	0.00000E+000	2.30021E-001	2.29751E-001	7	...........
	618	30.95	2.19635E-001	-1.38013E-005	0.00000E+000	2.20022E-001	2.19548E-001	7	...........
	619	31	2.09835E-001	-1.42188E-005	0.00000E+000	2.10023E-001	2.09744E-001	7	...........
	620	31.05	1.99635E-001	-1.49554E-005	0.00000E+000	2.00025E-001	1.99540E-001	7	...........
	621	31.1	1.89635E-001	-1.53629E-005	0.00000E+000	1.90026E-001	1.89737E-001	7	...........
	622	31.15	1.79835E-001	-1.57738E-005	0.00000E+000	1.79977E-001	1.79733E-001	7	...........
	623	31.2	1.69635E-001	-1.61746E-005	0.00000E+000	1.69979E-001	1.69729E-001	7	...........
	624	31.25	1.59635E-001	-1.67258E-005	0.00000E+000	1.59980E-001	1.59525E-001	7	...........
	625	31.3	1.49635E-001	-1.72402E-005	0.00000E+000	1.49981E-001	1.49522E-001	7	...........
	626	31.35	1.39835E-001	-1.76778E-005	0.00000E+000	1.39982E-001	1.39518E-001	7	...........
	627	31.4	1.29835E-001	-1.81438E-005	0.00000E+000	1.29984E-001	1.29714E-001	7	...........
	628	31.45	1.19835E-001	-1.88135E-005	0.00000E+000	1.19985E-001	1.19711E-001	7	...........
	629	31.5	1.09835E-001	-1.90440E-005	0.00000E+000	1.09986E-001	1.09507E-001	7	...........
	630	31.55	9.96349E-002	-1.94164E-005	0.00000E+000	9.99874E-002	9.97033E-002	7	...........
	631	31.6	8.98349E-002	-1.98974E-005	0.00000E+000	8.99886E-002	8.96996E-002	7	...........
	632	31.65	7.96349E-002	-2.08227E-005	0.00000E+000	7.99899E-002	7.96959E-002	7	...........
	633	31.7	6.96349E-002	-2.07192E-005	0.00000E+000	6.99912E-002	6.96922E-002	7	...........
	634	31.75	5.98349E-002	-2.11835E-005	0.00000E+000	5.99924E-002	5.98885E-002	7	...........
	635	31.8	4.98349E-002	-2.14591E-005	0.00000E+000	4.99937E-002	4.96848E-002	7	...........
	636	31.85	3.98349E-002	-2.18549E-005	0.00000E+000	3.99949E-002	3.96811E-002	7	...........
	637	31.9	2.98349E-002	-2.25029E-005	0.00000E+000	2.99962E-002	2.98774E-002	7	...........
	638	31.95	1.98349E-002	-2.30591E-005	0.00000E+000	1.99975E-002	1.96737E-002	7	...........
	639	32	9.83488E-003	-2.33815E-005	0.00000E+000	9.99874E-003	9.66997E-003	7	...........
	640	32.05	-1.65120E-004	-2.38357E-005	0.00000E+000	0.00000E+000	-3.33723E-004	7	...........
	641	32.1	-1.01651E-002	-2.40863E-005	0.00000E+000	-9.99874E-003	-1.03374E-002	7	...........
	642	32.15	-1.99651E-002	-2.49214E-005	0.00000E+000	-1.99975E-002	-2.03411E-002	7	...........
	643	32.2	-2.99651E-002	-2.52303E-005	0.00000E+000	-2.99962E-002	-3.01447E-002	7	...........
	644	32.25	-4.01651E-002	-2.57364E-005	0.00000E+000	-3.99949E-002	-3.99484E-002	7	...........
	645	32.3	-4.99651E-002	-2.65832E-005	0.00000E+000	-4.99937E-002	-4.99521E-002	7	...........
	646	32.35	-6.01651E-002	-2.67151E-005	0.00000E+000	-5.99924E-002	-6.01558E-002	7	...........
	647	32.4	-7.01651E-002	-2.75786E-005	0.00000E+000	-6.99912E-002	-6.99595E-002	7	...........
	648	32.45	-8.01651E-002	-2.81281E-005	0.00000E+000	-7.99899E-002	-8.01632E-002	7	...........
	649	32.5	-9.03651E-002	-2.87260E-005	0.00000E+000	-8.99886E-002	-8.99668E-002	7	...........
	650	32.55	-1.00165E-001	-2.91202E-005	0.00000E+000	-9.99874E-002	-1.00171E-001	7	...........
	651	32.6	-1.09965E-001	-2.98902E-005	0.00000E+000	-1.09986E-001	-1.09974E-001	7	...........
	652	32.65	-1.20165E-001	-3.03812E-005	0.00000E+000	-1.19985E-001	-1.20178E-001	7	...........
	653	32.7	-1.30165E-001	-3.09858E-005	0.00000E+000	-1.29984E-001	-1.29982E-001	7	...........
	654	32.75	-1.40165E-001	-3.18727E-005	0.00000E+000	-1.39982E-001	-1.39985E-001	7	...........
	655	32.8	-1.49965E-001	-3.24038E-005	0.00000E+000	-1.49981E-001	-1.49989E-001	7	...........
	656	32.85	-1.59965E-001	-3.33808E-005	0.00000E+000	-1.59980E-001	-1.59993E-001	7	...........
	657	32.9	-1.69965E-001	-3.39303E-005	0.00000E+000	-1.69979E-001	-1.69996E-001	7	...........
	658	32.95	-1.79965E-001	-3.45550E-005	0.00000E+000	-1.79977E-001	-1.80000E-001	7	...........
	659	33	-1.90165E-001	-3.57408E-005	0.00000E+000	-1.89976E-001	-1.90004E-001	7	...........
	660	33.05	-1.99965E-001	-3.66561E-005	0.00000E+000	-1.99975E-001	-2.00008E-001	7	...........
	661	33.1	-2.09965E-001	-3.70970E-005	0.00000E+000	-2.09973E-001	-2.10011E-001	7	...........
	662	33.15	-2.19965E-001	-3.79254E-005	0.00000E+000	-2.20022E-001	-2.20015E-001	7	...........
	663	33.2	-2.29965E-001	-3.90361E-005	0.00000E+000	-2.30021E-001	-2.30019E-001	7	...........
	664	33.25	-2.39965E-001	-3.95906E-005	0.00000E+000	-2.40020E-001	-2.40022E-001	7	...........
	665	33.3	-2.49965E-001	-4.05426E-005	0.00000E+000	-2.50018E-001	-2.50026E-001	7	...........
	666	33.35	-2.59965E-001	-4.12925E-005	0.00000E+000	-2.60017E-001	-2.60030E-001	7	...........
	667	33.4	-2.69965E-001	-4.23765E-005	0.00000E+000	-2.70016E-001	-2.70033E-001	7	...........
	668	33.45	-2.79965E-001	-4.33535E-005	0.00000E+000	-2.80015E-001	-2.79637E-001	7	...........
	669	33.5	-2.89965E-001	-4.42938E-005	0.00000E+000	-2.90013E-001	-2.90041E-001	7	...........
	670	33.55	-2.99965E-001	-4.55548E-005	0.00000E+000	-3.00012E-001	-3.00045E-001	7	...........
	671	33.6	-3.09965E-001	-4.60493E-005	0.00000E+000	-3.10011E-001	-3.09848E-001	8	...........
	672	33.65	-3.19965E-001	-4.73347E-005	0.00000E+000	-3.20010E-001	-3.20052E-001	8	...........
	673	33.7	-3.29965E-001	-4.94383E-005	0.00000E+000	-3.30008E-001	-3.29856E-001	8	...........
	674	33.75	-3.39965E-001	-4.96052E-005	0.00000E+000	-3.40007E-001	-3.39859E-001	8	...........
	675	33.8	-3.50165E-001	-5.08072E-005	0.00000E+000	-3.50006E-001	-3.49863E-001	8	...........
	676	33.85	-3.59965E-001	-5.25602E-005	0.00000E+000	-3.60005E-001	-3.59867E-001	8	...........
	677	33.9	-3.69965E-001	-5.38290E-005	0.00000E+000	-3.70003E-001	-3.69870E-001	8	...........
	678	33.95	-3.79965E-001	-5.44968E-005	0.00000E+000	-3.80002E-001	-3.79674E-001	8	...........
	679	34	-3.89965E-001	-5.55151E-005	0.00000E+000	-3.90001E-001	-3.89678E-001	8	...........
	680	34.05	-3.99965E-001	-5.62998E-005	0.00000E+000	-3.99999E-001	-3.99681E-001	8	...........
	681	34.1	-4.09765E-001	-5.88040E-005	0.00000E+000	-4.09998E-001	-4.09885E-001	8	...........
	682	34.15	-4.19965E-001	-5.96888E-005	0.00000E+000	-4.19997E-001	-4.19689E-001	8	...........
	683	34.2	-4.29765E-001	-6.04234E-005	0.00000E+000	-4.29996E-001	-4.29692E-001	8	...........
	684	34.25	-4.39965E-001	-6.36121E-005	0.00000E+000	-4.39994E-001	-4.39896E-001	8	...........
	685	34.3	-4.49765E-001	-6.48308E-005	0.00000E+000	-4.49993E-001	-4.49700E-001	8	...........
	686	34.35	-4.59765E-001	-6.55152E-005	0.00000E+000	-4.59992E-001	-4.59904E-001	8	...........
	687	34.4	-4.69765E-001	-6.80695E-005	0.00000E+000	-4.69991E-001	-4.69707E-001	8	...........
	688	34.45	-4.79965E-001	-6.94886E-005	0.00000E+000	-4.79989E-001	-4.79711E-001	8	...........
	689	34.5	-4.89765E-001	-7.12248E-005	0.00000E+000	-4.89988E-001	-4.89715E-001	8	...........
	690	34.55	-4.99765E-001	-7.25938E-005	0.00000E+000	-4.99987E-001	-4.99918E-001	8	...........
	691	34.6	-5.09765E-001	-7.43801E-005	0.00000E+000	-5.09986E-001	-5.09722E-001	8	...........
	692	34.65	-5.19765E-001	-7.64837E-005	0.00000E+000	-5.19984E-001	-5.19926E-001	8	...........
	693	34.7	-5.29565E-001	-7.78192E-005	0.00000E+000	-5.29983E-001	-5.29729E-001	8	...........
	694	34.75	-5.39965E-001	-8.05571E-005	0.00000E+000	-5.39982E-001	-5.39733E-001	8	...........
	695	34.8	-5.49765E-001	-8.22266E-005	0.00000E+000	-5.49981E-001	-5.49937E-001	8	...........
	696	34.85	-5.59565E-001	-8.52650E-005	0.00000E+000	-5.59979E-001	-5.59741E-001	8	...........
	697	34.9	-5.69765E-001	-8.63502E-005	0.00000E+000	-5.69978E-001	-5.69744E-001	8	...........
	698	34.95	-5.79565E-001	-8.81198E-005	0.00000E+000	-5.79977E-001	-5.79748E-001	8	...........
	699	35	-5.89765E-001	-9.04237E-005	0.00000E+000	-5.89975E-001	-5.89752E-001	8	...........
	700	35.05	-5.99765E-001	-9.24771E-005	0.00000E+000	-5.99974E-001	-5.99755E-001	8	...........
	701	35.1	-6.09565E-001	-9.62335E-005	0.00000E+000	-6.09973E-001	-6.09559E-001	8	...........
	702	35.15	-6.19765E-001	-9.78361E-005	0.00000E+000	-6.20022E-001	-6.19763E-001	8	...........
	703	35.2	-6.29765E-001	-9.96058E-005	0.00000E+000	-6.30020E-001	-6.29566E-001	8	...........
	704	35.25	-6.39565E-001	-1.02945E-004	0.00000E+000	-6.40019E-001	-6.39570E-001	8	...........
	705	35.3	-6.49765E-001	-1.05950E-004	0.00000E+000	-6.50018E-001	-6.49574E-001	8	...........
	706	35.35	-6.59565E-001	-1.08671E-004	0.00000E+000	-6.60017E-001	-6.59777E-001	8	...........
	707	35.4	-6.69765E-001	-1.11476E-004	0.00000E+000	-6.70015E-001	-6.69781E-001	8	...........
	708	35.45	-6.79765E-001	-1.13629E-004	0.00000E+000	-6.80014E-001	-6.79585E-001	8	...........
	709	35.5	-6.89765E-001	-1.16751E-004	0.00000E+000	-6.90013E-001	-6.89588E-001	8	...........
	710	35.55	-6.99765E-001	-1.21426E-004	0.00000E+000	-7.00012E-001	-6.99392E-001	8	...........
	711	35.6	-7.09565E-001	-1.23663E-004	0.00000E+000	-7.10010E-001	-7.09596E-001	8	...........
	712	35.65	-7.19565E-001	-1.26451E-004	0.00000E+000	-7.20009E-001	-7.19600E-001	8	...........
	713	35.7	-7.29565E-001	-1.29639E-004	0.00000E+000	-7.30008E-001	-7.29603E-001	8	...........
	714	35.75	-7.39765E-001	-1.33796E-004	0.00000E+000	-7.40007E-001	-7.39607E-001	8	...........
	715	35.8	-7.49565E-001	-1.37169E-004	0.00000E+000	-7.50005E-001	-7.49411E-001	8	...........
	716	35.85	-7.59765E-001	-1.40541E-004	0.00000E+000	-7.60004E-001	-7.59614E-001	8	...........
	717	35.9	-7.69565E-001	-1.44982E-004	0.00000E+000	-7.70003E-001	-7.69618E-001	8	...........
	718	35.95	-7.79565E-001	-1.49940E-004	0.00000E+000	-7.80001E-001	-7.79422E-001	8	...........
	719	36	-7.89565E-001	-1.52261E-004	0.00000E+000	-7.90000E-001	-7.89425E-001	8	...........
	720	36.05	-7.99565E-001	-1.56768E-004	0.00000E+000	-7.99999E-001	-7.99429E-001	8	...........
	721	36.1	-7.89765E-001	-1.35650E-004	0.00000E+000	-7.90000E-001	-7.89625E-001	8	...........
	722	36.15	-7.79565E-001	-1.20858E-004	0.00000E+000	-7.80001E-001	-7.79622E-001	8	...........
	723	36.2	-7.69765E-001	-1.09339E-004	0.00000E+000	-7.70003E-001	-7.69418E-001	8	...........
	724	36.25	-7.59565E-001	-9.85039E-005	0.00000E+000	-7.60004E-001	-7.59614E-001	8	...........
	725	36.3	-7.49565E-001	-9.01399E-005	0.00000E+000	-7.50005E-001	-7.49611E-001	8	...........
	726	36.35	-7.39565E-001	-8.18927E-005	0.00000E+000	-7.40007E-001	-7.39607E-001	8	...........
	727	36.4	-7.29765E-001	-7.55321E-005	0.00000E+000	-7.30008E-001	-7.29603E-001	8	...........
	728	36.45	-7.19765E-001	-6.81697E-005	0.00000E+000	-7.20009E-001	-7.19600E-001	8	...........
	729	36.5	-7.09765E-001	-6.24935E-005	0.00000E+000	-7.10010E-001	-7.09596E-001	8	...........
	730	36.55	-6.99565E-001	-5.77689E-005	0.00000E+000	-7.00012E-001	-6.99592E-001	8	...........
	731	36.6	-6.89765E-001	-5.39291E-005	0.00000E+000	-6.90013E-001	-6.89588E-001	8	...........
	732	36.65	-6.79565E-001	-4.81862E-005	0.00000E+000	-6.80014E-001	-6.79585E-001	8	...........
	733	36.7	-6.69565E-001	-4.38790E-005	0.00000E+000	-6.70015E-001	-6.69781E-001	8	...........
	734	36.75	-6.59565E-001	-4.06903E-005	0.00000E+000	-6.60017E-001	-6.59577E-001	8	...........
	735	36.8	-6.49565E-001	-3.72640E-005	0.00000E+000	-6.50018E-001	-6.49574E-001	7	...........
	736	36.85	-6.39565E-001	-3.46903E-005	0.00000E+000	-6.40019E-001	-6.39770E-001	7	...........
	737	36.9	-6.29765E-001	-3.12681E-005	0.00000E+000	-6.30020E-001	-6.29766E-001	7	...........
	738	36.95	-6.19765E-001	-2.85173E-005	0.00000E+000	-6.20022E-001	-6.19763E-001	7	...........
	739	37	-6.09765E-001	-2.58183E-005	0.00000E+000	-6.09973E-001	-6.09559E-001	7	...........
	740	37.05	-5.99565E-001	-2.35902E-005	0.00000E+000	-5.99974E-001	-5.99555E-001	7	...........
	741	37.1	-5.89765E-001	-2.12653E-005	0.00000E+000	-5.89975E-001	-5.89752E-001	7	...........
	742	37.15	-5.79765E-001	-1.89271E-005	0.00000E+000	-5.79977E-001	-5.79748E-001	7	...........
	743	37.2	-5.69765E-001	-1.74105E-005	0.00000E+000	-5.69978E-001	-5.69744E-001	7	...........
	744	37.25	-5.59765E-001	-1.52109E-005	0.00000E+000	-5.59979E-001	-5.59540E-001	7	...........
	745	37.3	-5.49765E-001	-1.35741E-005	0.00000E+000	-5.49981E-001	-5.49537E-001	7	...........
	746	37.35	-5.39765E-001	-1.18054E-005	0.00000E+000	-5.39982E-001	-5.39733E-001	7	...........
	747	37.4	-5.29765E-001	-1.05093E-005	0.00000E+000	-5.29983E-001	-5.29729E-001	7	...........
	748	37.45	-5.19765E-001	-8.64875E-006	0.00000E+000	-5.19984E-001	-5.19726E-001	7	...........
	749	37.5	-5.09765E-001	-7.22241E-006	0.00000E+000	-5.09986E-001	-5.09522E-001	7	...........
	750	37.55	-4.99765E-001	-5.70756E-006	0.00000E+000	-4.99987E-001	-4.99718E-001	7	...........
	751	37.6	-4.89765E-001	-4.96599E-006	0.00000E+000	-4.89988E-001	-4.89915E-001	7	...........
	752	37.65	-4.79965E-001	-3.55135E-006	0.00000E+000	-4.79989E-001	-4.79911E-001	7	...........
	753	37.7	-4.69565E-001	-2.55759E-006	0.00000E+000	-4.69991E-001	-4.69707E-001	7	...........
	754	37.75	-4.59965E-001	-1.66738E-006	0.00000E+000	-4.59992E-001	-4.59904E-001	7	...........
	755	37.8	-4.49765E-001	-3.27891E-007	0.00000E+000	-4.49993E-001	-4.49700E-001	7	...........
	756	37.85	-4.39565E-001	5.72338E-007	0.00000E+000	-4.39994E-001	-4.39896E-001	7	...........
	757	37.9	-4.29965E-001	1.95525E-006	0.00000E+000	-4.29996E-001	-4.29692E-001	7	...........
	758	37.95	-4.19765E-001	2.54316E-006	0.00000E+000	-4.19997E-001	-4.19689E-001	7	...........
	759	38	-4.09965E-001	3.52690E-006	0.00000E+000	-4.09998E-001	-4.09685E-001	7	...........
	760	38.05	-3.99965E-001	4.32357E-006	0.00000E+000	-3.99999E-001	-3.99681E-001	7	...........
	761	38.1	-3.89765E-001	5.37579E-006	0.00000E+000	-3.90001E-001	-3.90078E-001	7	...........
	762	38.15	-3.79965E-001	5.89021E-006	0.00000E+000	-3.80002E-001	-3.79874E-001	7	...........
	763	38.2	-3.69965E-001	6.87729E-006	0.00000E+000	-3.70003E-001	-3.70070E-001	7	...........
	764	38.25	-3.59965E-001	7.54870E-006	0.00000E+000	-3.60005E-001	-3.59867E-001	7	...........
	765	38.3	-3.49965E-001	8.44559E-006	0.00000E+000	-3.50006E-001	-3.49663E-001	7	...........
	766	38.35	-3.39965E-001	8.76293E-006	0.00000E+000	-3.40007E-001	-3.40059E-001	7	...........
	767	38.4	-3.29965E-001	9.57296E-006	0.00000E+000	-3.30008E-001	-3.30056E-001	7	...........
	768	38.45	-3.19965E-001	1.03980E-005	0.00000E+000	-3.20010E-001	-3.20052E-001	7	...........
	769	38.5	-3.09965E-001	1.07037E-005	0.00000E+000	-3.10011E-001	-3.10048E-001	7	...........
	770	38.55	-3.00165E-001	1.17359E-005	0.00000E+000	-3.00012E-001	-2.99844E-001	7	...........
	771	38.6	-2.89965E-001	1.24407E-005	0.00000E+000	-2.90013E-001	-2.89841E-001	7	...........
	772	38.65	-2.79965E-001	1.26211E-005	0.00000E+000	-2.80015E-001	-2.80037E-001	7	...........
	773	38.7	-2.69965E-001	1.35680E-005	0.00000E+000	-2.70016E-001	-2.70033E-001	7	...........
	774	38.75	-2.59965E-001	1.40173E-005	0.00000E+000	-2.60017E-001	-2.60030E-001	7	...........
	775	38.8	-2.50165E-001	1.44900E-005	0.00000E+000	-2.50018E-001	-2.49826E-001	7	...........
	776	38.85	-2.39965E-001	1.53885E-005	0.00000E+000	-2.40020E-001	-2.40022E-001	7	...........
	777	38.9	-2.29965E-001	1.58529E-005	0.00000E+000	-2.30021E-001	-2.30019E-001	7	...........
	778	38.95	-2.20165E-001	1.60215E-005	0.00000E+000	-2.20022E-001	-2.20215E-001	7	...........
	779	39	-2.10165E-001	1.67247E-005	0.00000E+000	-2.09973E-001	-2.10011E-001	7	...........
	780	39.05	-1.99965E-001	1.73928E-005	0.00000E+000	-1.99975E-001	-2.00008E-001	7	...........
	781	39.1	-1.90165E-001	1.78337E-005	0.00000E+000	-1.89976E-001	-1.90204E-001	7	...........
	782	39.15	-1.79965E-001	1.85619E-005	0.00000E+000	-1.79977E-001	-1.80200E-001	7	...........
	783	39.2	-1.70165E-001	1.90630E-005	0.00000E+000	-1.69979E-001	-1.69996E-001	7	...........
	784	39.25	-1.60165E-001	1.95557E-005	0.00000E+000	-1.59980E-001	-1.60193E-001	7	...........
	785	39.3	-1.49965E-001	1.98713E-005	0.00000E+000	-1.49981E-001	-1.49989E-001	7	...........
	786	39.35	-1.39965E-001	2.07766E-005	0.00000E+000	-1.39982E-001	-1.39985E-001	7	...........
	787	39.4	-1.30165E-001	2.12025E-005	0.00000E+000	-1.29984E-001	-1.29982E-001	7	...........
	788	39.45	-1.20165E-001	2.13361E-005	0.00000E+000	-1.19985E-001	-1.19978E-001	7	...........
	789	39.5	-1.10165E-001	2.16801E-005	0.00000E+000	-1.09986E-001	-1.10174E-001	7	...........
	790	39.55	-1.00165E-001	2.26488E-005	0.00000E+000	-9.99874E-002	-1.00171E-001	7	...........
	791	39.6	-8.99651E-002	2.32568E-005	0.00000E+000	-8.99886E-002	-9.01669E-002	7	...........
	792	39.65	-8.01651E-002	2.37161E-005	0.00000E+000	-7.99899E-002	-8.03633E-002	7	...........
	793	39.7	-7.01651E-002	2.42823E-005	0.00000E+000	-6.99912E-002	-6.99595E-002	7	...........
	794	39.75	-6.01651E-002	2.46998E-005	0.00000E+000	-5.99924E-002	-6.01558E-002	7	...........
	795	39.8	-5.01651E-002	2.52560E-005	0.00000E+000	-4.99937E-002	-5.01521E-002	7	...........
	796	39.85	-4.01651E-002	2.58840E-005	0.00000E+000	-3.99949E-002	-4.03485E-002	7	...........
	797	39.9	-3.01651E-002	2.62314E-005	0.00000E+000	-2.99962E-002	-3.01447E-002	7	...........
	798	39.95	-1.99651E-002	2.68694E-005	0.00000E+000	-1.99975E-002	-2.03411E-002	7	...........
	799	40	-1.01651E-002	2.74155E-005	0.00000E+000	-9.99874E-003	-9.93727E-003	7	...........
	800	40.05	3.48799E-005	2.77513E-005	0.00000E+000	0.00000E+000	-3.33723E-004	7	...........
	801	40.1	9.83488E-003	2.84360E-005	0.00000E+000	9.99874E-003	9.66997E-003	7	...........
	802	40.15	2.00349E-002	2.90941E-005	0.00000E+000	1.99975E-002	1.98737E-002	7	...........
	803	40.2	2.96349E-002	2.92728E-005	0.00000E+000	2.99962E-002	2.98774E-002	7	...........
	804	40.25	3.96349E-002	3.01914E-005	0.00000E+000	3.99949E-002	3.96811E-002	7	...........
	805	40.3	4.98349E-002	3.09196E-005	0.00000E+000	4.99937E-002	4.98848E-002	7	...........
	806	40.35	5.98349E-002	3.14524E-005	0.00000E+000	5.99924E-002	5.98885E-002	7	...........
	807	40.4	6.96349E-002	3.20704E-005	0.00000E+000	6.99912E-002	6.96922E-002	7	...........
	808	40.45	7.98349E-002	3.27067E-005	0.00000E+000	7.99899E-002	7.98959E-002	7	...........
	809	40.5	8.96349E-002	3.32412E-005	0.00000E+000	8.99886E-002	8.98996E-002	7	...........
	810	40.55	9.98349E-002	3.39744E-005	0.00000E+000	9.99874E-002	9.97033E-002	7	...........
	811	40.6	1.09835E-001	3.42533E-005	0.00000E+000	1.09986E-001	1.09707E-001	7	...........
	812	40.65	1.19635E-001	3.52554E-005	0.00000E+000	1.19985E-001	1.19711E-001	7	...........
	813	40.7	1.29635E-001	3.56529E-005	0.00000E+000	1.29984E-001	1.29714E-001	7	...........
	814	40.75	1.39835E-001	3.65147E-005	0.00000E+000	1.39982E-001	1.39518E-001	7	...........
	815	40.8	1.49835E-001	3.69339E-005	0.00000E+000	1.49981E-001	1.49722E-001	7	...........
	816	40.85	1.59835E-001	3.74934E-005	0.00000E+000	1.59980E-001	1.59725E-001	7	...........
	817	40.9	1.69635E-001	3.81482E-005	0.00000E+000	1.69979E-001	1.69529E-001	7	...........
	818	40.95	1.79835E-001	3.90484E-005	0.00000E+000	1.79977E-001	1.79333E-001	7	...........
	819	41	1.89835E-001	3.97148E-005	0.00000E+000	1.90026E-001	1.89536E-001	7	...........
	820	41.05	1.99435E-001	4.04346E-005	0.00000E+000	2.00025E-001	1.99540E-001	7	...........
	821	41.1	2.09635E-001	4.13232E-005	0.00000E+000	2.10023E-001	2.09744E-001	7	...........
	822	41.15	2.19835E-001	4.17257E-005	0.00000E+000	2.20022E-001	2.19548E-001	7	...........
	823	41.2	2.29635E-001	4.28330E-005	0.00000E+000	2.30021E-001	2.29751E-001	7	...........
	824	41.25	2.39435E-001	4.32723E-005	0.00000E+000	2.40020E-001	2.39555E-001	7	...........
	825	41.3	2.49635E-001	4.43329E-005	0.00000E+000	2.50018E-001	2.49759E-001	7	...........
	826	41.35	2.59835E-001	4.51429E-005	0.00000E+000	2.60017E-001	2.59562E-001	7	...........
	827	41.4	2.69635E-001	4.58716E-005	0.00000E+000	2.70016E-001	2.69766E-001	8	...........
	828	41.45	2.79635E-001	4.74576E-005	0.00000E+000	2.80015E-001	2.79370E-001	8	...........
	829	41.5	2.89635E-001	4.81421E-005	0.00000E+000	2.90013E-001	2.89573E-001	8	...........
	830	41.55	2.99435E-001	4.88433E-005	0.00000E+000	3.00012E-001	2.99377E-001	8	...........
	831	41.6	3.09635E-001	4.88266E-005	0.00000E+000	3.10011E-001	3.09581E-001	8	...........
	832	41.65	3.19835E-001	5.01288E-005	0.00000E+000	3.20010E-001	3.19384E-001	8	...........
	833	41.7	3.29435E-001	5.18650E-005	0.00000E+000	3.30008E-001	3.29388E-001	8	...........
	834	41.75	3.39435E-001	5.20987E-005	0.00000E+000	3.40007E-001	3.39792E-001	8	...........
	835	41.8	3.49635E-001	5.39685E-005	0.00000E+000	3.50006E-001	3.49796E-001	8	...........
	836	41.85	3.59435E-001	5.55378E-005	0.00000E+000	3.60005E-001	3.59399E-001	8	...........
	837	41.9	3.69635E-001	5.55211E-005	0.00000E+000	3.70003E-001	3.69603E-001	8	...........
	838	41.95	3.79435E-001	5.69402E-005	0.00000E+000	3.80002E-001	3.79607E-001	8	...........
	839	42	3.89635E-001	5.68567E-005	0.00000E+000	3.90001E-001	3.89410E-001	8	...........
	840	42.05	3.99635E-001	5.80587E-005	0.00000E+000	3.99999E-001	3.99614E-001	8	...........
	841	42.1	4.09635E-001	5.92607E-005	0.00000E+000	4.09998E-001	4.09618E-001	8	...........
	842	42.15	4.19435E-001	6.06798E-005	0.00000E+000	4.19997E-001	4.19621E-001	8	...........
	843	42.2	4.29435E-001	6.17149E-005	0.00000E+000	4.29996E-001	4.29425E-001	8	...........
	844	42.25	4.39635E-001	6.26164E-005	0.00000E+000	4.39994E-001	4.39429E-001	8	...........
	845	42.3	4.49435E-001	6.33176E-005	0.00000E+000	4.49993E-001	4.49433E-001	8	...........
	846	42.35	4.59435E-001	6.47867E-005	0.00000E+000	4.59992E-001	4.59636E-001	8	...........
	847	42.4	4.69635E-001	6.58885E-005	0.00000E+000	4.69991E-001	4.69440E-001	8	...........
	848	42.45	4.79235E-001	6.70071E-005	0.00000E+000	4.79989E-001	4.79244E-001	8	...........
	849	42.5	4.89435E-001	6.73076E-005	0.00000E+000	4.89988E-001	4.89447E-001	8	...........
	850	42.55	4.99435E-001	6.89603E-005	0.00000E+000	4.99987E-001	4.99451E-001	8	...........
	851	42.6	5.09435E-001	7.00956E-005	0.00000E+000	5.09986E-001	5.09255E-001	8	...........
	852	42.65	5.19435E-001	7.03627E-005	0.00000E+000	5.19984E-001	5.19458E-001	8	...........
	853	42.7	5.29435E-001	7.27333E-005	0.00000E+000	5.29983E-001	5.29462E-001	8	...........
	854	42.75	5.39635E-001	7.38352E-005	0.00000E+000	5.39982E-001	5.39466E-001	8	...........
	855	42.8	5.49435E-001	7.53377E-005	0.00000E+000	5.49981E-001	5.49269E-001	8	...........
	856	42.85	5.59435E-001	7.66566E-005	0.00000E+000	5.59979E-001	5.59273E-001	8	...........
	857	42.9	5.69435E-001	7.76917E-005	0.00000E+000	5.69978E-001	5.69477E-001	8	...........
	858	42.95	5.79235E-001	7.95615E-005	0.00000E+000	5.79977E-001	5.79280E-001	8	...........
	859	43	5.89435E-001	8.04296E-005	0.00000E+000	5.89975E-001	5.89284E-001	8	...........
	860	43.05	5.99635E-001	8.11642E-005	0.00000E+000	6.00024E-001	5.99288E-001	8	...........
	861	43.1	6.09435E-001	8.27835E-005	0.00000E+000	6.10023E-001	6.09292E-001	8	...........
	862	43.15	6.19435E-001	8.37184E-005	0.00000E+000	6.20022E-001	6.19295E-001	8	...........
	863	43.2	6.29435E-001	8.58387E-005	0.00000E+000	6.30020E-001	6.29499E-001	8	...........
	864	43.25	6.39435E-001	8.70574E-005	0.00000E+000	6.40019E-001	6.39303E-001	8	...........
	865	43.3	6.49435E-001	8.82093E-005	0.00000E+000	6.50018E-001	6.49306E-001	8	...........
	866	43.35	6.59435E-001	8.99455E-005	0.00000E+000	6.60017E-001	6.59110E-001	8	...........
	867	43.4	6.69435E-001	9.21659E-005	0.00000E+000	6.70015E-001	6.69314E-001	8	...........
	868	43.45	6.79435E-001	9.33680E-005	0.00000E+000	6.80014E-001	6.79318E-001	8	...........
	869	43.5	6.89235E-001	9.50541E-005	0.00000E+000	6.90013E-001	6.89121E-001	8	...........
	870	43.55	6.99635E-001	9.68905E-005	0.00000E+000	7.00012E-001	6.99325E-001	8	...........
	871	43.6	7.09435E-001	9.84431E-005	0.00000E+000	7.10010E-001	7.09129E-001	8	...........
	872	43.65	7.19435E-001	9.96285E-005	0.00000E+000	7.20009E-001	7.19332E-001	8	...........
	873	43.7	7.29435E-001	1.01098E-004	0.00000E+000	7.30008E-001	7.29136E-001	8	...........
	874	43.75	7.39435E-001	1.04053E-004	0.00000E+000	7.40007E-001	7.39140E-001	8	...........
	875	43.8	7.49435E-001	1.05605E-004	0.00000E+000	7.50005E-001	7.49343E-001	8	...........
	876	43.85	7.59435E-001	1.07141E-004	0.00000E+000	7.60004E-001	7.59147E-001	8	...........
	877	43.9	7.69435E-001	1.09094E-004	0.00000E+000	7.70003E-001	7.69151E-001	8	...........
	878	43.95	7.79235E-001	1.11048E-004	0.00000E+000	7.80001E-001	7.79354E-001	8	...........
	879	44	7.89235E-001	1.12884E-004	0.00000E+000	7.90000E-001	7.89158E-001	8	...........
	880	44.05	7.99235E-001	1.15255E-004	0.00000E+000	7.99999E-001	7.99362E-001	8	...........
CURVE4	TABLE
	Pt	T	Vf	Im	Vu	Sig	Ach	IERange	Over
	#	s	V vs. Ref.	A	V	V	V	#	bits
	881	44.1	7.89435E-001	1.02433E-004	0.00000E+000	7.90000E-001	7.89158E-001	8	...........
	882	44.15	7.79235E-001	9.21326E-005	0.00000E+000	7.80001E-001	7.79154E-001	8	...........
	883	44.2	7.69235E-001	8.51542E-005	0.00000E+000	7.70003E-001	7.69351E-001	8	...........
	884	44.25	7.59435E-001	7.94780E-005	0.00000E+000	7.60004E-001	7.59147E-001	8	...........
	885	44.3	7.49435E-001	7.30672E-005	0.00000E+000	7.50005E-001	7.49343E-001	8	...........
	886	44.35	7.39235E-001	6.87266E-005	0.00000E+000	7.40007E-001	7.39140E-001	8	...........
	887	44.4	7.29235E-001	6.45029E-005	0.00000E+000	7.30008E-001	7.29136E-001	8	...........
	888	44.45	7.19435E-001	5.99118E-005	0.00000E+000	7.20009E-001	7.19332E-001	8	...........
	889	44.5	7.09435E-001	5.58383E-005	0.00000E+000	7.10010E-001	7.09129E-001	8	...........
	890	44.55	6.99435E-001	5.19819E-005	0.00000E+000	7.00012E-001	6.99125E-001	8	...........
	891	44.6	6.89435E-001	4.88767E-005	0.00000E+000	6.90013E-001	6.89121E-001	8	...........
	892	44.65	6.79435E-001	4.55878E-005	0.00000E+000	6.80014E-001	6.79117E-001	8	...........
	893	44.7	6.69435E-001	4.26829E-005	0.00000E+000	6.70015E-001	6.69314E-001	8	...........
	894	44.75	6.59435E-001	4.03123E-005	0.00000E+000	6.60017E-001	6.59310E-001	8	...........
	895	44.8	6.49435E-001	3.72579E-005	0.00000E+000	6.50018E-001	6.49306E-001	7	...........
	896	44.85	6.39435E-001	3.50967E-005	0.00000E+000	6.40019E-001	6.39103E-001	7	...........
	897	44.9	6.29435E-001	3.25798E-005	0.00000E+000	6.30020E-001	6.29299E-001	7	...........
	898	44.95	6.19435E-001	3.04085E-005	0.00000E+000	6.20022E-001	6.19295E-001	7	...........
	899	45	6.09435E-001	2.81822E-005	0.00000E+000	6.10023E-001	6.09092E-001	7	...........
	900	45.05	5.99435E-001	2.62598E-005	0.00000E+000	6.00024E-001	5.99288E-001	7	...........
	901	45.1	5.89435E-001	2.41453E-005	0.00000E+000	5.89975E-001	5.89284E-001	7	...........
	902	45.15	5.79235E-001	2.24234E-005	0.00000E+000	5.79977E-001	5.79280E-001	7	...........
	903	45.2	5.69435E-001	2.01937E-005	0.00000E+000	5.69978E-001	5.69277E-001	7	...........
	904	45.25	5.59235E-001	1.88926E-005	0.00000E+000	5.59979E-001	5.59473E-001	7	...........
	905	45.3	5.49435E-001	1.72541E-005	0.00000E+000	5.49981E-001	5.49269E-001	7	...........
	906	45.35	5.39235E-001	1.53468E-005	0.00000E+000	5.39982E-001	5.39266E-001	7	...........
	907	45.4	5.29435E-001	1.41643E-005	0.00000E+000	5.29983E-001	5.29262E-001	7	...........
	908	45.45	5.19435E-001	1.27981E-005	0.00000E+000	5.19984E-001	5.19458E-001	7	...........
	909	45.5	5.09635E-001	1.14135E-005	0.00000E+000	5.09986E-001	5.09255E-001	7	...........
	910	45.55	4.99435E-001	9.92704E-006	0.00000E+000	4.99987E-001	4.99251E-001	7	...........
	911	45.6	4.89435E-001	8.51574E-006	0.00000E+000	4.89988E-001	4.89447E-001	7	...........
	912	45.65	4.79435E-001	7.55037E-006	0.00000E+000	4.79989E-001	4.79444E-001	7	...........
	913	45.7	4.69435E-001	6.31610E-006	0.00000E+000	4.69991E-001	4.69640E-001	7	...........
	914	45.75	4.59435E-001	5.26890E-006	0.00000E+000	4.59992E-001	4.59436E-001	7	...........
	915	45.8	4.49635E-001	3.96114E-006	0.00000E+000	4.49993E-001	4.49433E-001	7	...........
	916	45.85	4.39635E-001	2.86550E-006	0.00000E+000	4.39994E-001	4.39629E-001	7	...........
	917	45.9	4.29435E-001	1.79491E-006	0.00000E+000	4.29996E-001	4.29425E-001	7	...........
	918	45.95	4.19435E-001	1.24876E-006	0.00000E+000	4.19997E-001	4.19621E-001	7	...........
	919	46	4.09635E-001	2.80524E-009	0.00000E+000	4.09998E-001	4.09418E-001	7	...........
	920	46.05	3.99435E-001	-9.14126E-007	0.00000E+000	3.99999E-001	3.99214E-001	7	...........
	921	46.1	3.89635E-001	-1.83607E-006	0.00000E+000	3.90001E-001	3.89410E-001	7	...........
	922	46.15	3.79635E-001	-2.70456E-006	0.00000E+000	3.80002E-001	3.79407E-001	7	...........
	923	46.2	3.69635E-001	-3.40437E-006	0.00000E+000	3.70003E-001	3.69403E-001	7	...........
	924	46.25	3.59635E-001	-4.14092E-006	0.00000E+000	3.60005E-001	3.59599E-001	7	...........
	925	46.3	3.49435E-001	-5.29836E-006	0.00000E+000	3.50006E-001	3.49396E-001	7	...........
	926	46.35	3.39435E-001	-5.86956E-006	0.00000E+000	3.40007E-001	3.39392E-001	7	...........
	927	46.4	3.29635E-001	-6.67125E-006	0.00000E+000	3.30008E-001	3.29388E-001	7	...........
	928	46.45	3.19835E-001	-7.07711E-006	0.00000E+000	3.20010E-001	3.19585E-001	7	...........
	929	46.5	3.09635E-001	-7.88214E-006	0.00000E+000	3.10011E-001	3.09781E-001	7	...........
	930	46.55	2.99635E-001	-8.69552E-006	0.00000E+000	3.00012E-001	2.99577E-001	7	...........
	931	46.6	2.89635E-001	-9.36860E-006	0.00000E+000	2.90013E-001	2.89373E-001	7	...........
	932	46.65	2.79835E-001	-1.01369E-005	0.00000E+000	2.80015E-001	2.79570E-001	7	...........
	933	46.7	2.69835E-001	-1.04091E-005	0.00000E+000	2.70016E-001	2.69566E-001	7	...........
	934	46.75	2.59635E-001	-1.12910E-005	0.00000E+000	2.60017E-001	2.59562E-001	7	...........
	935	46.8	2.49635E-001	-1.17703E-005	0.00000E+000	2.50018E-001	2.49559E-001	7	...........
	936	46.85	2.39635E-001	-1.26405E-005	0.00000E+000	2.40020E-001	2.39555E-001	7	...........
	937	46.9	2.29835E-001	-1.31833E-005	0.00000E+000	2.30021E-001	2.29551E-001	7	...........
	938	46.95	2.19835E-001	-1.32601E-005	0.00000E+000	2.20022E-001	2.19548E-001	7	...........
	939	47	2.09835E-001	-1.38748E-005	0.00000E+000	2.10023E-001	2.09544E-001	7	...........
	940	47.05	1.99635E-001	-1.47115E-005	0.00000E+000	2.00025E-001	1.99740E-001	7	...........
	941	47.1	1.89635E-001	-1.55316E-005	0.00000E+000	1.90026E-001	1.89336E-001	7	...........
	942	47.15	1.79835E-001	-1.56101E-005	0.00000E+000	1.79977E-001	1.79733E-001	7	...........
	943	47.2	1.69635E-001	-1.60109E-005	0.00000E+000	1.69979E-001	1.69529E-001	7	...........
	944	47.25	1.59435E-001	-1.66974E-005	0.00000E+000	1.59980E-001	1.59725E-001	7	...........
	945	47.3	1.49635E-001	-1.72268E-005	0.00000E+000	1.49981E-001	1.49722E-001	7	...........
	946	47.35	1.39835E-001	-1.79316E-005	0.00000E+000	1.39982E-001	1.39718E-001	7	...........
	947	47.4	1.29835E-001	-1.79083E-005	0.00000E+000	1.29984E-001	1.29714E-001	7	...........
	948	47.45	1.19835E-001	-1.84594E-005	0.00000E+000	1.19985E-001	1.19711E-001	7	...........
	949	47.5	1.09835E-001	-1.87016E-005	0.00000E+000	1.09986E-001	1.09707E-001	7	...........
	950	47.55	9.96349E-002	-1.96202E-005	0.00000E+000	9.99874E-002	9.97033E-002	7	...........
	951	47.6	8.98349E-002	-1.99626E-005	0.00000E+000	8.99886E-002	8.94995E-002	7	...........
	952	47.65	7.98349E-002	-2.04035E-005	0.00000E+000	7.99899E-002	7.98959E-002	7	...........
	953	47.7	6.98349E-002	-2.05555E-005	0.00000E+000	6.99912E-002	6.98922E-002	7	...........
	954	47.75	5.98349E-002	-2.10081E-005	0.00000E+000	5.99924E-002	5.98885E-002	7	...........
	955	47.8	4.98349E-002	-2.15142E-005	0.00000E+000	4.99937E-002	4.98848E-002	7	...........
	956	47.85	3.98349E-002	-2.17413E-005	0.00000E+000	3.99949E-002	3.98811E-002	7	...........
	957	47.9	2.98349E-002	-2.25079E-005	0.00000E+000	2.99962E-002	2.96774E-002	7	...........
	958	47.95	1.98349E-002	-2.26399E-005	0.00000E+000	1.99975E-002	1.98737E-002	7	...........
	959	48	1.00349E-002	-2.30591E-005	0.00000E+000	9.99874E-003	9.66997E-003	7	...........
	960	48.05	-1.65120E-004	-2.36153E-005	0.00000E+000	0.00000E+000	-1.33649E-004	7	...........
