EXPLAIN
TAG	CV
TITLE	LABEL	Cyclic Voltammetry	Test Identifier
DATE	LABEL	2-8-2017	Date
TIME	LABEL	18:32:49	Time
NOTES	NOTES	1	Notes...
	0.6m
PSTAT	PSTAT	IFC5000-01520	Potentiostat
VINIT	POTEN	0.00000E+000	F	Initial E (V)
VLIMIT1	POTEN	-8.00000E-001	F	Scan Limit 1 (V)
VLIMIT2	POTEN	8.00000E-001	F	Scan Limit 2 (V)
VFINAL	POTEN	0.00000E+000	F	Final E (V)
SCANRATE	QUANT	4.99999E+001	A Real Number
STEPSIZE	QUANT	1.00000E+001	Step Size (mV)
CYCLES	IQUANT	3	Cycles (#)
IMODE	SELECTOR	0	I/E Range Mode
IRANGE	QUANT	2.50000E+002	Max Current (mA)
AREA	QUANT	3.84800E-001	A Real Number
EQDELAY	QUANT	1.00000E+000	Equil. Time (s)
IRCOMP	SELECTOR	0	IRComp
PFCOR	QUANT	2.50000E+002	PF Corr. (ohm)
SAMPLINGMODE	SELECTOR	0	Sampling Mode
EOC	QUANT	0	Open Circuit (V)
SEQUENCER	TOGGLE	TRUE	Run as Sequence
PSTATMODEL	IQUANT	53	Pstat Model
PSTATSECTION	LABEL	IFC5000-01520	Pstat Section
PSTATSERIALNO	LABEL	01520	Pstat Serial Number
CTRLMODE	IQUANT	1	Control Mode
ELECTROMETER	IQUANT	0	RE=0 or CS=1
IESTAB	IQUANT	2	I/E Stability
CASPEED	IQUANT	4	Control Amp Speed
CONVENTION	IQUANT	1	Current Convention
ICHRANGE	IQUANT	2	Ich Range
ICHRANGEMODE	TOGGLE	F	Ich Auto Range
ICHOFFSETENABLE	TOGGLE	F	Ich Offset Enable
ICHOFFSET	QUANT	0	Ich Offset (V)
ICHFILTER	IQUANT	4	Ich Filter
VCHRANGE	IQUANT	2	Vch Range
VCHRANGEMODE	TOGGLE	F	Vch Auto Range
VCHOFFSETENABLE	TOGGLE	F	Vch Offset Enable
VCHOFFSET	QUANT	0	Vch Offset (V)
VCHFILTER	IQUANT	4	Vch Filter
IERANGELOWERLIMIT	IQUANT	7	I/E Range Lower Limit
IERANGEMODE	TOGGLE	T	I/E AutoRange
IERANGE	IQUANT	11	I/E Range
ACHSELECT	IQUANT	1	Ach Select
ACHRANGE	IQUANT	2	Ach Range
ACHOFFSETENABLE	TOGGLE	F	Ach Offset Enable
ACHOFFSET	QUANT	0	Ach Offset (V)
ACHFILTER	IQUANT	1	Ach Filter
CABLEID	IQUANT	14	Cable ID
DCCALDATE	LABEL	5-7-2017	DC Calibration Date
ACCALDATE	LABEL	12/3/2015	AC Calibration Date
FRAMEWORKVERSION	QUANT	7.01	Framework Version
INSTRUMENTVERSION	LABEL	4.00	Instrument Version
CURVE1	TABLE
	Pt	T	Vf	Im	Vu	Sig	Ach	IERange	Over
	#	s	V vs. Ref.	A	V	V	V	#	bits
	0	0.2	-2.06485E-004	-3.94662E-004	0.00000E+000	0.00000E+000	-5.33797E-004	11	...........
	1	0.4	-1.04067E-002	-6.21979E-004	0.00000E+000	-9.99874E-003	-1.03374E-002	10	...........
	2	0.6	-2.04069E-002	-7.90627E-004	0.00000E+000	-1.99975E-002	-2.03411E-002	9	...........
	3	0.8	-3.04072E-002	-9.10988E-004	0.00000E+000	-2.99962E-002	-3.03448E-002	9	...........
	4	1	-4.04074E-002	-1.01368E-003	0.00000E+000	-3.99949E-002	-4.03485E-002	9	...........
	5	1.2	-5.04076E-002	-1.09853E-003	0.00000E+000	-4.99937E-002	-5.03522E-002	9	...........
	6	1.4	-6.04079E-002	-1.16938E-003	0.00000E+000	-5.99924E-002	-6.03559E-002	9	...........
	7	1.6	-7.04081E-002	-1.23073E-003	0.00000E+000	-6.99912E-002	-7.03596E-002	9	...........
	8	1.8	-8.06083E-002	-1.28407E-003	0.00000E+000	-7.99899E-002	-8.03633E-002	9	...........
	9	2	-9.04085E-002	-1.33125E-003	0.00000E+000	-8.99886E-002	-9.03670E-002	9	...........
	10	2.2	-1.00209E-001	-1.37443E-003	0.00000E+000	-9.99874E-002	-1.00371E-001	9	...........
	11	2.4	-1.10609E-001	-1.41243E-003	0.00000E+000	-1.09986E-001	-1.10374E-001	9	...........
	12	2.6	-1.20409E-001	-1.44761E-003	0.00000E+000	-1.19985E-001	-1.20378E-001	9	...........
	13	2.8	-1.30409E-001	-1.48045E-003	0.00000E+000	-1.29984E-001	-1.30182E-001	9	...........
	14	3	-1.40410E-001	-1.51029E-003	0.00000E+000	-1.39982E-001	-1.40385E-001	9	...........
	15	3.2	-1.50210E-001	-1.53830E-003	0.00000E+000	-1.49981E-001	-1.50389E-001	9	...........
	16	3.4	-1.60210E-001	-1.56414E-003	0.00000E+000	-1.59980E-001	-1.60393E-001	9	...........
	17	3.6	-1.70410E-001	-1.58848E-003	0.00000E+000	-1.69979E-001	-1.70197E-001	9	...........
	18	3.8	-1.80411E-001	-1.61198E-003	0.00000E+000	-1.79977E-001	-1.80200E-001	9	...........
	19	4	-1.90211E-001	-1.63399E-003	0.00000E+000	-1.89976E-001	-1.90204E-001	9	...........
	20	4.2	-2.00211E-001	-1.65466E-003	0.00000E+000	-1.99975E-001	-2.00208E-001	9	...........
	21	4.4	-2.10411E-001	-1.67533E-003	0.00000E+000	-2.10023E-001	-2.10411E-001	9	...........
	22	4.6	-2.20211E-001	-1.69333E-003	0.00000E+000	-2.20022E-001	-2.20415E-001	9	...........
	23	4.8	-2.30412E-001	-1.71084E-003	0.00000E+000	-2.30021E-001	-2.30219E-001	9	...........
	24	5	-2.40412E-001	-1.72684E-003	0.00000E+000	-2.40020E-001	-2.40222E-001	9	...........
	25	5.2	-2.50212E-001	-1.74268E-003	0.00000E+000	-2.50018E-001	-2.50226E-001	9	...........
	26	5.4	-2.60212E-001	-1.75768E-003	0.00000E+000	-2.60017E-001	-2.60430E-001	9	...........
	27	5.6	-2.70413E-001	-1.77218E-003	0.00000E+000	-2.70016E-001	-2.70233E-001	9	...........
	28	5.8	-2.80413E-001	-1.78569E-003	0.00000E+000	-2.80015E-001	-2.80237E-001	9	...........
	29	6	-2.90413E-001	-1.79869E-003	0.00000E+000	-2.90013E-001	-2.90241E-001	9	...........
	30	6.2	-3.00213E-001	-1.81119E-003	0.00000E+000	-3.00012E-001	-3.00245E-001	9	...........
	31	6.4	-3.10214E-001	-1.82303E-003	0.00000E+000	-3.10011E-001	-3.10248E-001	9	...........
	32	6.6	-3.20014E-001	-1.83420E-003	0.00000E+000	-3.20010E-001	-3.20252E-001	9	...........
	33	6.8	-3.30214E-001	-1.84537E-003	0.00000E+000	-3.30008E-001	-3.30256E-001	9	...........
	34	7	-3.40214E-001	-1.85554E-003	0.00000E+000	-3.40007E-001	-3.40059E-001	9	...........
	35	7.2	-3.50214E-001	-1.86520E-003	0.00000E+000	-3.50006E-001	-3.50063E-001	9	...........
	36	7.4	-3.60015E-001	-1.87471E-003	0.00000E+000	-3.60005E-001	-3.60067E-001	9	...........
	37	7.6	-3.70215E-001	-1.88354E-003	0.00000E+000	-3.70003E-001	-3.70070E-001	9	...........
	38	7.8	-3.80215E-001	-1.89221E-003	0.00000E+000	-3.80002E-001	-3.80074E-001	9	...........
	39	8	-3.90215E-001	-1.90088E-003	0.00000E+000	-3.90001E-001	-3.90078E-001	9	...........
	40	8.2	-4.00016E-001	-1.90888E-003	0.00000E+000	-3.99999E-001	-4.00081E-001	9	...........
	41	8.4	-4.10216E-001	-1.91638E-003	0.00000E+000	-4.09998E-001	-4.10285E-001	9	...........
	42	8.6	-4.20016E-001	-1.92355E-003	0.00000E+000	-4.19997E-001	-4.20089E-001	9	...........
	43	8.8	-4.30016E-001	-1.93089E-003	0.00000E+000	-4.29996E-001	-4.30093E-001	9	...........
	44	9	-4.40216E-001	-1.93739E-003	0.00000E+000	-4.39994E-001	-4.40096E-001	9	...........
	45	9.2	-4.50217E-001	-1.94406E-003	0.00000E+000	-4.49993E-001	-4.50100E-001	9	...........
	46	9.4	-4.60217E-001	-1.95022E-003	0.00000E+000	-4.59992E-001	-4.59904E-001	9	...........
	47	9.6	-4.70217E-001	-1.95589E-003	0.00000E+000	-4.69991E-001	-4.69907E-001	9	...........
	48	9.8	-4.80217E-001	-1.96189E-003	0.00000E+000	-4.79989E-001	-4.80111E-001	9	...........
	49	10	-4.90018E-001	-1.96756E-003	0.00000E+000	-4.89988E-001	-4.90115E-001	9	...........
	50	10.2	-5.00218E-001	-1.97273E-003	0.00000E+000	-4.99987E-001	-4.99918E-001	9	...........
	51	10.4	-5.10418E-001	-1.97856E-003	0.00000E+000	-5.09986E-001	-5.09922E-001	9	...........
	52	10.6	-5.20018E-001	-1.98357E-003	0.00000E+000	-5.19984E-001	-5.19926E-001	9	...........
	53	10.8	-5.30219E-001	-1.98840E-003	0.00000E+000	-5.29983E-001	-5.30130E-001	9	...........
	54	11	-5.40219E-001	-1.99323E-003	0.00000E+000	-5.39982E-001	-5.39933E-001	9	...........
	55	11.2	-5.50019E-001	-1.99790E-003	0.00000E+000	-5.49981E-001	-5.49937E-001	9	...........
	56	11.4	-5.60219E-001	-2.00340E-003	0.00000E+000	-5.59979E-001	-5.59741E-001	9	...........
	57	11.6	-5.70219E-001	-2.00790E-003	0.00000E+000	-5.69978E-001	-5.69944E-001	9	...........
	58	11.8	-5.80020E-001	-2.01257E-003	0.00000E+000	-5.79977E-001	-5.79948E-001	9	...........
	59	12	-5.90220E-001	-2.01807E-003	0.00000E+000	-5.89975E-001	-5.89952E-001	9	...........
	60	12.2	-6.00220E-001	-2.02257E-003	0.00000E+000	-5.99974E-001	-6.00155E-001	9	...........
	61	12.4	-6.10020E-001	-2.03008E-003	0.00000E+000	-6.10023E-001	-6.09959E-001	9	...........
	62	12.6	-6.20021E-001	-2.03491E-003	0.00000E+000	-6.20022E-001	-6.19963E-001	9	...........
	63	12.8	-6.30021E-001	-2.04024E-003	0.00000E+000	-6.30020E-001	-6.29966E-001	9	...........
	64	13	-6.40021E-001	-2.04625E-003	0.00000E+000	-6.40019E-001	-6.39770E-001	9	...........
	65	13.2	-6.50021E-001	-2.05225E-003	0.00000E+000	-6.50018E-001	-6.49974E-001	9	...........
	66	13.4	-6.60022E-001	-2.05942E-003	0.00000E+000	-6.60017E-001	-6.59978E-001	9	...........
	67	13.6	-6.70022E-001	-2.06642E-003	0.00000E+000	-6.70015E-001	-6.69981E-001	9	...........
	68	13.8	-6.80022E-001	-2.07442E-003	0.00000E+000	-6.80014E-001	-6.79985E-001	9	...........
	69	14	-6.90022E-001	-2.08425E-003	0.00000E+000	-6.90013E-001	-6.89989E-001	9	...........
	70	14.2	-7.00022E-001	-2.09376E-003	0.00000E+000	-7.00012E-001	-6.99792E-001	9	...........
	71	14.4	-7.09823E-001	-2.10426E-003	0.00000E+000	-7.10010E-001	-7.09796E-001	9	...........
	72	14.6	-7.20023E-001	-2.11626E-003	0.00000E+000	-7.20009E-001	-7.20000E-001	9	...........
	73	14.8	-7.30023E-001	-2.12860E-003	0.00000E+000	-7.30008E-001	-7.30003E-001	9	...........
	74	15	-7.39823E-001	-2.14243E-003	0.00000E+000	-7.40007E-001	-7.40007E-001	9	...........
	75	15.2	-7.49824E-001	-2.15744E-003	0.00000E+000	-7.50005E-001	-7.49611E-001	9	...........
	76	15.4	-7.60024E-001	-2.17427E-003	0.00000E+000	-7.60004E-001	-7.59814E-001	9	...........
	77	15.6	-7.69824E-001	-2.19311E-003	0.00000E+000	-7.70003E-001	-7.69818E-001	9	...........
	78	15.8	-7.79824E-001	-2.21278E-003	0.00000E+000	-7.80001E-001	-7.79822E-001	9	...........
	79	16	-7.90024E-001	-2.23546E-003	0.00000E+000	-7.90000E-001	-7.89825E-001	9	...........
	80	16.2	-8.00025E-001	-2.25946E-003	0.00000E+000	-7.99999E-001	-7.99629E-001	9	...........
	81	16.4	-7.89624E-001	-1.53563E-003	0.00000E+000	-7.90000E-001	-7.89825E-001	9	...........
	82	16.6	-7.79624E-001	-1.05085E-003	0.00000E+000	-7.80001E-001	-7.79822E-001	9	...........
	83	16.8	-7.69624E-001	-6.94772E-004	0.00000E+000	-7.70003E-001	-7.69818E-001	9	...........
	84	17	-7.59624E-001	-4.22043E-004	0.00000E+000	-7.60004E-001	-7.59814E-001	9	...........
	85	17.2	-7.49624E-001	-2.07328E-004	0.00000E+000	-7.50005E-001	-7.49811E-001	9	...........
	86	17.4	-7.39623E-001	-3.85267E-005	0.00000E+000	-7.40007E-001	-7.39807E-001	8	...........
	87	17.6	-7.29623E-001	5.47117E-005	0.00000E+000	-7.30008E-001	-7.30003E-001	7	........i..
	88	17.8	-7.19823E-001	2.15370E-004	0.00000E+000	-7.20009E-001	-7.19600E-001	8	...........
	89	18	-7.09623E-001	3.23787E-004	0.00000E+000	-7.10010E-001	-7.09996E-001	8	...........
	90	18.2	-6.99822E-001	4.08514E-004	0.00000E+000	-7.00012E-001	-6.99992E-001	8	...........
	91	18.4	-6.89822E-001	4.81488E-004	0.00000E+000	-6.90013E-001	-6.89789E-001	8	...........
	92	18.6	-6.79622E-001	4.84163E-004	0.00000E+000	-6.80014E-001	-6.79985E-001	9	...........
	93	18.8	-6.69622E-001	6.01023E-004	0.00000E+000	-6.70015E-001	-6.69781E-001	9	...........
	94	19	-6.59822E-001	6.50201E-004	0.00000E+000	-6.60017E-001	-6.59777E-001	9	...........
	95	19.2	-6.49621E-001	6.94711E-004	0.00000E+000	-6.50018E-001	-6.49974E-001	9	...........
	96	19.4	-6.39621E-001	7.34386E-004	0.00000E+000	-6.40019E-001	-6.39970E-001	9	...........
	97	19.6	-6.29821E-001	7.71061E-004	0.00000E+000	-6.30020E-001	-6.29966E-001	9	...........
	98	19.8	-6.19821E-001	8.04069E-004	0.00000E+000	-6.20022E-001	-6.19963E-001	9	...........
	99	20	-6.09820E-001	8.34743E-004	0.00000E+000	-6.10023E-001	-6.10159E-001	9	...........
	100	20.2	-5.99820E-001	8.64916E-004	0.00000E+000	-5.99974E-001	-5.99955E-001	9	...........
	101	20.4	-5.89820E-001	8.90589E-004	0.00000E+000	-5.89975E-001	-5.89952E-001	9	...........
	102	20.6	-5.79620E-001	9.15428E-004	0.00000E+000	-5.79977E-001	-5.79748E-001	9	...........
	103	20.8	-5.69819E-001	9.38433E-004	0.00000E+000	-5.69978E-001	-5.69944E-001	9	...........
	104	21	-5.60019E-001	9.60104E-004	0.00000E+000	-5.59979E-001	-5.59741E-001	9	...........
	105	21.2	-5.49819E-001	9.81443E-004	0.00000E+000	-5.49981E-001	-5.49937E-001	9	...........
	106	21.4	-5.39819E-001	1.00078E-003	0.00000E+000	-5.39982E-001	-5.39933E-001	9	...........
	107	21.6	-5.29819E-001	1.02028E-003	0.00000E+000	-5.29983E-001	-5.29930E-001	9	...........
	108	21.8	-5.19618E-001	1.03862E-003	0.00000E+000	-5.19984E-001	-5.19926E-001	9	...........
	109	22	-5.09818E-001	1.05629E-003	0.00000E+000	-5.09986E-001	-5.09922E-001	9	...........
	110	22.2	-4.99818E-001	1.07363E-003	0.00000E+000	-4.99987E-001	-4.99918E-001	9	...........
	111	22.4	-4.89618E-001	1.08980E-003	0.00000E+000	-4.89988E-001	-4.89915E-001	9	...........
	112	22.6	-4.79817E-001	1.10580E-003	0.00000E+000	-4.79989E-001	-4.79911E-001	9	...........
	113	22.8	-4.69817E-001	1.12131E-003	0.00000E+000	-4.69991E-001	-4.70107E-001	9	...........
	114	23	-4.60017E-001	1.13598E-003	0.00000E+000	-4.59992E-001	-4.60104E-001	9	...........
	115	23.2	-4.50017E-001	1.15098E-003	0.00000E+000	-4.49993E-001	-4.49900E-001	9	...........
	116	23.4	-4.40016E-001	1.16532E-003	0.00000E+000	-4.39994E-001	-4.40096E-001	9	...........
	117	23.6	-4.29816E-001	1.17882E-003	0.00000E+000	-4.29996E-001	-4.30093E-001	9	...........
	118	23.8	-4.19816E-001	1.19266E-003	0.00000E+000	-4.19997E-001	-4.20089E-001	9	...........
	119	24	-4.09816E-001	1.20566E-003	0.00000E+000	-4.09998E-001	-4.10285E-001	9	...........
	120	24.2	-4.00016E-001	1.21866E-003	0.00000E+000	-3.99999E-001	-4.00081E-001	9	...........
	121	24.4	-3.89815E-001	1.23117E-003	0.00000E+000	-3.90001E-001	-3.90078E-001	9	...........
	122	24.6	-3.79815E-001	1.24384E-003	0.00000E+000	-3.80002E-001	-3.80074E-001	9	...........
	123	24.8	-3.70015E-001	1.25634E-003	0.00000E+000	-3.70003E-001	-3.70070E-001	9	...........
	124	25	-3.60015E-001	1.26801E-003	0.00000E+000	-3.60005E-001	-3.60267E-001	9	...........
	125	25.2	-3.50014E-001	1.28001E-003	0.00000E+000	-3.50006E-001	-3.50063E-001	9	...........
	126	25.4	-3.40014E-001	1.29185E-003	0.00000E+000	-3.40007E-001	-3.40259E-001	9	...........
	127	25.6	-3.30014E-001	1.30285E-003	0.00000E+000	-3.30008E-001	-3.30256E-001	9	...........
	128	25.8	-3.20014E-001	1.31452E-003	0.00000E+000	-3.20010E-001	-3.20252E-001	9	...........
	129	26	-3.10014E-001	1.32535E-003	0.00000E+000	-3.10011E-001	-3.10248E-001	9	...........
	130	26.2	-3.00013E-001	1.33636E-003	0.00000E+000	-3.00012E-001	-3.00245E-001	9	...........
	131	26.4	-2.90213E-001	1.34719E-003	0.00000E+000	-2.90013E-001	-2.90241E-001	9	...........
	132	26.6	-2.79813E-001	1.35753E-003	0.00000E+000	-2.80015E-001	-2.80237E-001	9	...........
	133	26.8	-2.70013E-001	1.36836E-003	0.00000E+000	-2.70016E-001	-2.70233E-001	9	...........
	134	27	-2.60012E-001	1.37820E-003	0.00000E+000	-2.60017E-001	-2.60230E-001	9	...........
	135	27.2	-2.50012E-001	1.38854E-003	0.00000E+000	-2.50018E-001	-2.50026E-001	9	...........
	136	27.4	-2.40012E-001	1.39820E-003	0.00000E+000	-2.40020E-001	-2.40222E-001	9	...........
	137	27.6	-2.30212E-001	1.40721E-003	0.00000E+000	-2.30021E-001	-2.30219E-001	9	...........
	138	27.8	-2.20011E-001	1.41654E-003	0.00000E+000	-2.20022E-001	-2.20215E-001	9	...........
	139	28	-2.10011E-001	1.42538E-003	0.00000E+000	-2.10023E-001	-2.10411E-001	9	...........
	140	28.2	-2.00211E-001	1.43538E-003	0.00000E+000	-1.99975E-001	-2.00208E-001	9	...........
	141	28.4	-1.90011E-001	1.44355E-003	0.00000E+000	-1.89976E-001	-1.90204E-001	9	...........
	142	28.6	-1.80011E-001	1.45088E-003	0.00000E+000	-1.79977E-001	-1.80400E-001	9	...........
	143	28.8	-1.70210E-001	1.45872E-003	0.00000E+000	-1.69979E-001	-1.70397E-001	9	...........
	144	29	-1.60010E-001	1.46589E-003	0.00000E+000	-1.59980E-001	-1.60393E-001	9	...........
	145	29.2	-1.50010E-001	1.47272E-003	0.00000E+000	-1.49981E-001	-1.50189E-001	9	...........
	146	29.4	-1.40010E-001	1.47989E-003	0.00000E+000	-1.39982E-001	-1.40185E-001	9	...........
	147	29.6	-1.30209E-001	1.48572E-003	0.00000E+000	-1.29984E-001	-1.30382E-001	9	...........
	148	29.8	-1.20009E-001	1.49256E-003	0.00000E+000	-1.19985E-001	-1.20578E-001	9	...........
	149	30	-1.10209E-001	1.49839E-003	0.00000E+000	-1.09986E-001	-1.10374E-001	9	...........
	150	30.2	-1.00009E-001	1.50389E-003	0.00000E+000	-9.99874E-002	-1.00371E-001	9	...........
	151	30.4	-9.00085E-002	1.50990E-003	0.00000E+000	-8.99886E-002	-9.03670E-002	9	...........
	152	30.6	-8.02083E-002	1.51506E-003	0.00000E+000	-7.99899E-002	-8.03633E-002	9	...........
	153	30.8	-7.02081E-002	1.52023E-003	0.00000E+000	-6.99912E-002	-7.03596E-002	9	...........
	154	31	-6.02079E-002	1.52507E-003	0.00000E+000	-5.99924E-002	-6.01558E-002	9	...........
	155	31.2	-5.02076E-002	1.52957E-003	0.00000E+000	-4.99937E-002	-5.03522E-002	9	...........
	156	31.4	-4.02074E-002	1.53407E-003	0.00000E+000	-3.99949E-002	-4.05486E-002	9	...........
	157	31.6	-3.00072E-002	1.53857E-003	0.00000E+000	-2.99962E-002	-3.05449E-002	9	...........
	158	31.8	-2.02069E-002	1.54240E-003	0.00000E+000	-1.99975E-002	-2.05412E-002	9	...........
	159	32	-1.02067E-002	1.54640E-003	0.00000E+000	-9.99874E-003	-1.03374E-002	9	...........
	160	32.2	-2.06485E-004	1.54991E-003	0.00000E+000	0.00000E+000	-3.33723E-004	9	...........
	161	32.4	9.79374E-003	1.55407E-003	0.00000E+000	9.99874E-003	9.46990E-003	9	...........
	162	32.6	1.97940E-002	1.55757E-003	0.00000E+000	1.99975E-002	1.96737E-002	9	...........
	163	32.8	2.97942E-002	1.56107E-003	0.00000E+000	2.99962E-002	2.94773E-002	9	...........
	164	33	3.97944E-002	1.56491E-003	0.00000E+000	3.99949E-002	3.94810E-002	9	...........
	165	33.2	4.97947E-002	1.56791E-003	0.00000E+000	4.99937E-002	4.94847E-002	9	...........
	166	33.4	5.97949E-002	1.57124E-003	0.00000E+000	5.99924E-002	5.94884E-002	9	...........
	167	33.6	6.99951E-002	1.57458E-003	0.00000E+000	6.99912E-002	6.94921E-002	9	...........
	168	33.8	7.97953E-002	1.57741E-003	0.00000E+000	7.99899E-002	7.92957E-002	9	...........
	169	34	8.97956E-002	1.58091E-003	0.00000E+000	8.99886E-002	8.96996E-002	9	...........
	170	34.2	9.97958E-002	1.58425E-003	0.00000E+000	9.99874E-002	9.93031E-002	9	...........
	171	34.4	1.09796E-001	1.58725E-003	0.00000E+000	1.09986E-001	1.09507E-001	9	...........
	172	34.6	1.19796E-001	1.59091E-003	0.00000E+000	1.19985E-001	1.19511E-001	9	...........
	173	34.8	1.29796E-001	1.59375E-003	0.00000E+000	1.29984E-001	1.29314E-001	9	...........
	174	35	1.39597E-001	1.59708E-003	0.00000E+000	1.39982E-001	1.39318E-001	9	...........
	175	35.2	1.49797E-001	1.60042E-003	0.00000E+000	1.49981E-001	1.49322E-001	9	...........
	176	35.4	1.59397E-001	1.60358E-003	0.00000E+000	1.59980E-001	1.59525E-001	9	...........
	177	35.6	1.69597E-001	1.60658E-003	0.00000E+000	1.69979E-001	1.69329E-001	9	...........
	178	35.8	1.79598E-001	1.60925E-003	0.00000E+000	1.79977E-001	1.79333E-001	9	...........
	179	36	1.89598E-001	1.61275E-003	0.00000E+000	1.89976E-001	1.89336E-001	9	...........
	180	36.2	1.99798E-001	1.61542E-003	0.00000E+000	1.99975E-001	1.99340E-001	9	...........
	181	36.4	2.09598E-001	1.61925E-003	0.00000E+000	2.10023E-001	2.09344E-001	9	...........
	182	36.6	2.19599E-001	1.62175E-003	0.00000E+000	2.20022E-001	2.19347E-001	9	...........
	183	36.8	2.29799E-001	1.62359E-003	0.00000E+000	2.30021E-001	2.29351E-001	9	...........
	184	37	2.39599E-001	1.62576E-003	0.00000E+000	2.40020E-001	2.39155E-001	9	...........
	185	37.2	2.49599E-001	1.62726E-003	0.00000E+000	2.50018E-001	2.49359E-001	9	...........
	186	37.4	2.59599E-001	1.62859E-003	0.00000E+000	2.60017E-001	2.59362E-001	9	...........
	187	37.6	2.69600E-001	1.62976E-003	0.00000E+000	2.70016E-001	2.69566E-001	9	...........
	188	37.8	2.79600E-001	1.63059E-003	0.00000E+000	2.80015E-001	2.79570E-001	9	...........
	189	38	2.89600E-001	1.63109E-003	0.00000E+000	2.90013E-001	2.89373E-001	9	...........
	190	38.2	2.99600E-001	1.63159E-003	0.00000E+000	3.00012E-001	2.99377E-001	9	...........
	191	38.4	3.09601E-001	1.63159E-003	0.00000E+000	3.10011E-001	3.09181E-001	9	...........
	192	38.6	3.19601E-001	1.63126E-003	0.00000E+000	3.20010E-001	3.19384E-001	9	...........
	193	38.8	3.29601E-001	1.63009E-003	0.00000E+000	3.30008E-001	3.29388E-001	9	...........
	194	39	3.39801E-001	1.62876E-003	0.00000E+000	3.40007E-001	3.39192E-001	9	...........
	195	39.2	3.49601E-001	1.62742E-003	0.00000E+000	3.50006E-001	3.49195E-001	9	...........
	196	39.4	3.59602E-001	1.62492E-003	0.00000E+000	3.60005E-001	3.59399E-001	9	...........
	197	39.6	3.69602E-001	1.62326E-003	0.00000E+000	3.70003E-001	3.69203E-001	9	...........
	198	39.8	3.79602E-001	1.62025E-003	0.00000E+000	3.80002E-001	3.79207E-001	9	...........
	199	40	3.89602E-001	1.61692E-003	0.00000E+000	3.90001E-001	3.89210E-001	9	...........
	200	40.2	3.99603E-001	1.61392E-003	0.00000E+000	3.99999E-001	3.99014E-001	9	...........
	201	40.4	4.09603E-001	1.60992E-003	0.00000E+000	4.09998E-001	4.09218E-001	9	...........
	202	40.6	4.19603E-001	1.60642E-003	0.00000E+000	4.19997E-001	4.19421E-001	9	...........
	203	40.8	4.29603E-001	1.60175E-003	0.00000E+000	4.29996E-001	4.29425E-001	9	...........
	204	41	4.39604E-001	1.59758E-003	0.00000E+000	4.39994E-001	4.39429E-001	9	...........
	205	41.2	4.49604E-001	1.59342E-003	0.00000E+000	4.49993E-001	4.49232E-001	9	...........
	206	41.4	4.59404E-001	1.58858E-003	0.00000E+000	4.59992E-001	4.59036E-001	9	...........
	207	41.6	4.69604E-001	1.58425E-003	0.00000E+000	4.69991E-001	4.69240E-001	9	...........
	208	41.8	4.79604E-001	1.57925E-003	0.00000E+000	4.79989E-001	4.79244E-001	9	...........
	209	42	4.89605E-001	1.57458E-003	0.00000E+000	4.89988E-001	4.89047E-001	9	...........
	210	42.2	4.99605E-001	1.57008E-003	0.00000E+000	4.99987E-001	4.99051E-001	9	...........
	211	42.4	5.09605E-001	1.56524E-003	0.00000E+000	5.09986E-001	5.09055E-001	9	...........
	212	42.6	5.19605E-001	1.56107E-003	0.00000E+000	5.19984E-001	5.19258E-001	9	...........
	213	42.8	5.29406E-001	1.55641E-003	0.00000E+000	5.29983E-001	5.29262E-001	9	...........
	214	43	5.39406E-001	1.55191E-003	0.00000E+000	5.39982E-001	5.39066E-001	9	...........
	215	43.2	5.49406E-001	1.54807E-003	0.00000E+000	5.49981E-001	5.49069E-001	9	...........
	216	43.4	5.59206E-001	1.54457E-003	0.00000E+000	5.59979E-001	5.59073E-001	9	...........
	217	43.6	5.69406E-001	1.54074E-003	0.00000E+000	5.69978E-001	5.69077E-001	9	...........
	218	43.8	5.79207E-001	1.53740E-003	0.00000E+000	5.79977E-001	5.78880E-001	9	...........
	219	44	5.89207E-001	1.53423E-003	0.00000E+000	5.89975E-001	5.89084E-001	9	...........
	220	44.2	5.99407E-001	1.53157E-003	0.00000E+000	5.99974E-001	5.99088E-001	9	...........
	221	44.4	6.09407E-001	1.53040E-003	0.00000E+000	6.10023E-001	6.09092E-001	9	...........
	222	44.6	6.19608E-001	1.52757E-003	0.00000E+000	6.20022E-001	6.19095E-001	9	...........
	223	44.8	6.29608E-001	1.52590E-003	0.00000E+000	6.30020E-001	6.29099E-001	9	...........
	224	45	6.39608E-001	1.52407E-003	0.00000E+000	6.40019E-001	6.39103E-001	9	...........
	225	45.2	6.49408E-001	1.52290E-003	0.00000E+000	6.50018E-001	6.48906E-001	9	...........
	226	45.4	6.59409E-001	1.52190E-003	0.00000E+000	6.60017E-001	6.59110E-001	9	...........
	227	45.6	6.69409E-001	1.52173E-003	0.00000E+000	6.70015E-001	6.69114E-001	9	...........
	228	45.8	6.79609E-001	1.52140E-003	0.00000E+000	6.80014E-001	6.79117E-001	9	...........
	229	46	6.89409E-001	1.52157E-003	0.00000E+000	6.90013E-001	6.88921E-001	9	...........
	230	46.2	6.99409E-001	1.52307E-003	0.00000E+000	7.00012E-001	6.99125E-001	9	...........
	231	46.4	7.09410E-001	1.52457E-003	0.00000E+000	7.10010E-001	7.09129E-001	9	...........
	232	46.6	7.19410E-001	1.52607E-003	0.00000E+000	7.20009E-001	7.19132E-001	9	...........
	233	46.8	7.29410E-001	1.52890E-003	0.00000E+000	7.30008E-001	7.28936E-001	9	...........
	234	47	7.39210E-001	1.53207E-003	0.00000E+000	7.40007E-001	7.38940E-001	9	...........
	235	47.2	7.49411E-001	1.53674E-003	0.00000E+000	7.50005E-001	7.49143E-001	9	...........
	236	47.4	7.59411E-001	1.54157E-003	0.00000E+000	7.60004E-001	7.59147E-001	9	...........
	237	47.6	7.69411E-001	1.54690E-003	0.00000E+000	7.70003E-001	7.68951E-001	9	...........
	238	47.8	7.79611E-001	1.55374E-003	0.00000E+000	7.80001E-001	7.79154E-001	9	...........
	239	48	7.89411E-001	1.56157E-003	0.00000E+000	7.90000E-001	7.89158E-001	9	...........
	240	48.2	7.99412E-001	1.57024E-003	0.00000E+000	7.99999E-001	7.98962E-001	9	...........
CURVE2	TABLE
	Pt	T	Vf	Im	Vu	Sig	Ach	IERange	Over
	#	s	V vs. Ref.	A	V	V	V	#	bits
	241	48.4	7.89211E-001	1.07030E-003	0.00000E+000	7.90000E-001	7.88958E-001	9	...........
	242	48.6	7.79211E-001	7.52390E-004	0.00000E+000	7.80001E-001	7.78754E-001	9	...........
	243	48.8	7.69011E-001	5.23505E-004	0.00000E+000	7.70003E-001	7.68951E-001	9	...........
	244	49	7.59011E-001	3.50299E-004	0.00000E+000	7.60004E-001	7.58947E-001	9	...........
	245	49.2	7.49211E-001	2.19427E-004	0.00000E+000	7.50005E-001	7.48943E-001	8	...........
	246	49.4	7.39210E-001	1.04549E-004	0.00000E+000	7.40007E-001	7.38940E-001	8	...........
	247	49.6	7.29010E-001	1.51977E-005	0.00000E+000	7.30008E-001	7.29136E-001	8	...........
	248	49.8	7.19210E-001	-5.47457E-005	0.00000E+000	7.20009E-001	7.19132E-001	7	........i..
	249	50	7.09210E-001	-1.19247E-004	0.00000E+000	7.10010E-001	7.09129E-001	8	...........
	250	50.2	6.99209E-001	-1.77996E-004	0.00000E+000	7.00012E-001	6.99125E-001	8	...........
	251	50.4	6.89009E-001	-2.26061E-004	0.00000E+000	6.90013E-001	6.89121E-001	8	...........
	252	50.6	6.79209E-001	-2.68350E-004	0.00000E+000	6.80014E-001	6.79117E-001	8	...........
	253	50.8	6.69209E-001	-3.06548E-004	0.00000E+000	6.70015E-001	6.69114E-001	8	...........
	254	51	6.59208E-001	-3.40906E-004	0.00000E+000	6.60017E-001	6.58910E-001	8	...........
	255	51.2	6.49208E-001	-3.72777E-004	0.00000E+000	6.50018E-001	6.49106E-001	8	...........
	256	51.4	6.39208E-001	-4.02393E-004	0.00000E+000	6.40019E-001	6.38903E-001	8	...........
	257	51.6	6.29208E-001	-4.30007E-004	0.00000E+000	6.30020E-001	6.29099E-001	8	...........
	258	51.8	6.19208E-001	-4.56468E-004	0.00000E+000	6.20022E-001	6.19095E-001	8	...........
	259	52	6.09207E-001	-4.21376E-004	0.00000E+000	6.10023E-001	6.09092E-001	9	...........
	260	52.2	5.99207E-001	-5.05395E-004	0.00000E+000	6.00024E-001	5.99088E-001	9	...........
	261	52.4	5.89207E-001	-5.30068E-004	0.00000E+000	5.89975E-001	5.89084E-001	9	...........
	262	52.6	5.79207E-001	-5.51906E-004	0.00000E+000	5.79977E-001	5.79080E-001	9	...........
	263	52.8	5.69206E-001	-5.74078E-004	0.00000E+000	5.69978E-001	5.69077E-001	9	...........
	264	53	5.59006E-001	-5.96083E-004	0.00000E+000	5.59979E-001	5.59073E-001	9	...........
	265	53.2	5.49206E-001	-6.17254E-004	0.00000E+000	5.49981E-001	5.49069E-001	9	...........
	266	53.4	5.39206E-001	-6.38592E-004	0.00000E+000	5.39982E-001	5.39066E-001	9	...........
	267	53.6	5.29406E-001	-6.59431E-004	0.00000E+000	5.29983E-001	5.29062E-001	9	...........
	268	53.8	5.19005E-001	-6.80102E-004	0.00000E+000	5.19984E-001	5.19058E-001	9	...........
	269	54	5.09205E-001	-7.00773E-004	0.00000E+000	5.09986E-001	5.09255E-001	9	...........
	270	54.2	4.99205E-001	-7.20944E-004	0.00000E+000	4.99987E-001	4.99051E-001	9	...........
	271	54.4	4.89405E-001	-7.40949E-004	0.00000E+000	4.89988E-001	4.89047E-001	9	...........
	272	54.6	4.79204E-001	-7.60620E-004	0.00000E+000	4.79989E-001	4.79244E-001	9	...........
	273	54.8	4.69404E-001	-7.80125E-004	0.00000E+000	4.69991E-001	4.69240E-001	9	...........
	274	55	4.59204E-001	-7.99796E-004	0.00000E+000	4.59992E-001	4.59236E-001	9	...........
	275	55.2	4.49204E-001	-8.18800E-004	0.00000E+000	4.49993E-001	4.49232E-001	9	...........
	276	55.4	4.39203E-001	-8.38138E-004	0.00000E+000	4.39994E-001	4.39029E-001	9	...........
	277	55.6	4.29403E-001	-8.57309E-004	0.00000E+000	4.29996E-001	4.29425E-001	9	...........
	278	55.8	4.19203E-001	-8.75980E-004	0.00000E+000	4.19997E-001	4.19221E-001	9	...........
	279	56	4.09203E-001	-8.94817E-004	0.00000E+000	4.09998E-001	4.09218E-001	9	...........
	280	56.2	3.99203E-001	-9.12821E-004	0.00000E+000	3.99999E-001	3.99214E-001	9	...........
	281	56.4	3.89602E-001	-9.31326E-004	0.00000E+000	3.90001E-001	3.89210E-001	9	...........
	282	56.6	3.79402E-001	-9.49496E-004	0.00000E+000	3.80002E-001	3.79207E-001	9	...........
	283	56.8	3.69202E-001	-9.67501E-004	0.00000E+000	3.70003E-001	3.69403E-001	9	...........
	284	57	3.59602E-001	-9.85671E-004	0.00000E+000	3.60005E-001	3.59399E-001	9	...........
	285	57.2	3.49201E-001	-1.00268E-003	0.00000E+000	3.50006E-001	3.49195E-001	9	...........
	286	57.4	3.39201E-001	-1.02068E-003	0.00000E+000	3.40007E-001	3.39392E-001	9	...........
	287	57.6	3.29401E-001	-1.03802E-003	0.00000E+000	3.30008E-001	3.29388E-001	9	...........
	288	57.8	3.19401E-001	-1.05502E-003	0.00000E+000	3.20010E-001	3.19384E-001	9	...........
	289	58	3.09401E-001	-1.07219E-003	0.00000E+000	3.10011E-001	3.09181E-001	9	...........
	290	58.2	2.99400E-001	-1.08886E-003	0.00000E+000	3.00012E-001	2.99177E-001	9	...........
	291	58.4	2.89200E-001	-1.10537E-003	0.00000E+000	2.90013E-001	2.89173E-001	9	...........
	292	58.6	2.79400E-001	-1.12204E-003	0.00000E+000	2.80015E-001	2.79370E-001	9	...........
	293	58.8	2.69400E-001	-1.13804E-003	0.00000E+000	2.70016E-001	2.69366E-001	9	...........
	294	59	2.59599E-001	-1.15388E-003	0.00000E+000	2.60017E-001	2.59562E-001	9	...........
	295	59.2	2.49399E-001	-1.16938E-003	0.00000E+000	2.50018E-001	2.49359E-001	9	...........
	296	59.4	2.39399E-001	-1.18488E-003	0.00000E+000	2.40020E-001	2.39355E-001	9	...........
	297	59.6	2.29399E-001	-1.20005E-003	0.00000E+000	2.30021E-001	2.29551E-001	9	...........
	298	59.8	2.19399E-001	-1.21506E-003	0.00000E+000	2.20022E-001	2.19347E-001	9	...........
	299	60	2.09398E-001	-1.22989E-003	0.00000E+000	2.10023E-001	2.09344E-001	9	...........
	300	60.2	1.99198E-001	-1.24406E-003	0.00000E+000	2.00025E-001	1.99340E-001	9	...........
	301	60.4	1.89598E-001	-1.25823E-003	0.00000E+000	1.90026E-001	1.89536E-001	9	...........
	302	60.6	1.79398E-001	-1.27407E-003	0.00000E+000	1.79977E-001	1.79533E-001	9	...........
	303	60.8	1.69397E-001	-1.28707E-003	0.00000E+000	1.69979E-001	1.69529E-001	9	...........
	304	61	1.59397E-001	-1.30041E-003	0.00000E+000	1.59980E-001	1.59525E-001	9	...........
	305	61.2	1.49397E-001	-1.31408E-003	0.00000E+000	1.49981E-001	1.49322E-001	9	...........
	306	61.4	1.39597E-001	-1.32725E-003	0.00000E+000	1.39982E-001	1.39518E-001	9	...........
	307	61.6	1.29396E-001	-1.34042E-003	0.00000E+000	1.29984E-001	1.29514E-001	9	...........
	308	61.8	1.19596E-001	-1.35292E-003	0.00000E+000	1.19985E-001	1.19310E-001	9	...........
	309	62	1.09396E-001	-1.36592E-003	0.00000E+000	1.09986E-001	1.09307E-001	9	...........
	310	62.2	9.95958E-002	-1.37876E-003	0.00000E+000	9.99874E-002	9.93031E-002	9	...........
	311	62.4	8.95955E-002	-1.39110E-003	0.00000E+000	8.99886E-002	8.94995E-002	9	...........
	312	62.6	7.95953E-002	-1.40393E-003	0.00000E+000	7.99899E-002	7.94958E-002	9	...........
	313	62.8	6.95951E-002	-1.41594E-003	0.00000E+000	6.99912E-002	6.94921E-002	9	...........
	314	63	5.95949E-002	-1.42861E-003	0.00000E+000	5.99924E-002	5.94884E-002	9	...........
	315	63.2	4.95946E-002	-1.44077E-003	0.00000E+000	4.99937E-002	4.94847E-002	9	...........
	316	63.4	3.95944E-002	-1.45328E-003	0.00000E+000	3.99949E-002	3.96811E-002	9	...........
	317	63.6	2.95942E-002	-1.46578E-003	0.00000E+000	2.99962E-002	2.96774E-002	9	...........
	318	63.8	1.93940E-002	-1.47778E-003	0.00000E+000	1.99975E-002	1.94736E-002	9	...........
	319	64	9.59374E-003	-1.48995E-003	0.00000E+000	9.99874E-003	9.66997E-003	9	...........
	320	64.2	-4.06489E-004	-1.50262E-003	0.00000E+000	0.00000E+000	-5.33797E-004	9	...........
	321	64.4	-1.04067E-002	-1.51412E-003	0.00000E+000	-9.99874E-003	-1.05375E-002	9	...........
	322	64.6	-2.04069E-002	-1.52663E-003	0.00000E+000	-1.99975E-002	-2.03411E-002	9	...........
	323	64.8	-3.04072E-002	-1.53846E-003	0.00000E+000	-2.99962E-002	-3.03448E-002	9	...........
	324	65	-4.04074E-002	-1.55080E-003	0.00000E+000	-3.99949E-002	-4.05486E-002	9	...........
	325	65.2	-5.02076E-002	-1.56347E-003	0.00000E+000	-4.99937E-002	-5.03522E-002	9	...........
	326	65.4	-6.04079E-002	-1.57514E-003	0.00000E+000	-5.99924E-002	-6.03559E-002	9	...........
	327	65.6	-7.02081E-002	-1.58781E-003	0.00000E+000	-6.99912E-002	-7.03596E-002	9	...........
	328	65.8	-8.04083E-002	-1.59998E-003	0.00000E+000	-7.99899E-002	-8.03633E-002	9	...........
	329	66	-9.04085E-002	-1.61248E-003	0.00000E+000	-8.99886E-002	-9.03670E-002	9	...........
	330	66.2	-1.00409E-001	-1.62482E-003	0.00000E+000	-9.99874E-002	-1.00371E-001	9	...........
	331	66.4	-1.10209E-001	-1.63632E-003	0.00000E+000	-1.09986E-001	-1.10374E-001	9	...........
	332	66.6	-1.20209E-001	-1.64849E-003	0.00000E+000	-1.19985E-001	-1.20178E-001	9	...........
	333	66.8	-1.30409E-001	-1.66066E-003	0.00000E+000	-1.29984E-001	-1.30382E-001	9	...........
	334	67	-1.40410E-001	-1.67266E-003	0.00000E+000	-1.39982E-001	-1.40185E-001	9	...........
	335	67.2	-1.50210E-001	-1.68450E-003	0.00000E+000	-1.49981E-001	-1.50189E-001	9	...........
	336	67.4	-1.60410E-001	-1.69617E-003	0.00000E+000	-1.59980E-001	-1.60193E-001	9	...........
	337	67.6	-1.70210E-001	-1.70767E-003	0.00000E+000	-1.69979E-001	-1.70197E-001	9	...........
	338	67.8	-1.80411E-001	-1.71917E-003	0.00000E+000	-1.79977E-001	-1.80200E-001	9	...........
	339	68	-1.90211E-001	-1.73017E-003	0.00000E+000	-1.89976E-001	-1.90204E-001	9	...........
	340	68.2	-2.00211E-001	-1.74134E-003	0.00000E+000	-1.99975E-001	-2.00208E-001	9	...........
	341	68.4	-2.10211E-001	-1.75151E-003	0.00000E+000	-2.09973E-001	-2.10211E-001	9	...........
	342	68.6	-2.20411E-001	-1.76351E-003	0.00000E+000	-2.20022E-001	-2.20415E-001	9	...........
	343	68.8	-2.30212E-001	-1.77368E-003	0.00000E+000	-2.30021E-001	-2.30219E-001	9	...........
	344	69	-2.40412E-001	-1.78269E-003	0.00000E+000	-2.40020E-001	-2.40222E-001	9	...........
	345	69.2	-2.50412E-001	-1.79202E-003	0.00000E+000	-2.50018E-001	-2.50226E-001	9	...........
	346	69.4	-2.60412E-001	-1.80152E-003	0.00000E+000	-2.60017E-001	-2.60030E-001	9	...........
	347	69.6	-2.70413E-001	-1.81019E-003	0.00000E+000	-2.70016E-001	-2.70434E-001	9	...........
	348	69.8	-2.80213E-001	-1.81919E-003	0.00000E+000	-2.80015E-001	-2.80037E-001	9	...........
	349	70	-2.90413E-001	-1.82670E-003	0.00000E+000	-2.90013E-001	-2.90241E-001	9	...........
	350	70.2	-3.00213E-001	-1.83520E-003	0.00000E+000	-3.00012E-001	-3.00245E-001	9	...........
	351	70.4	-3.10414E-001	-1.84320E-003	0.00000E+000	-3.10011E-001	-3.10448E-001	9	...........
	352	70.6	-3.20214E-001	-1.85070E-003	0.00000E+000	-3.20010E-001	-3.20252E-001	9	...........
	353	70.8	-3.30214E-001	-1.85820E-003	0.00000E+000	-3.30008E-001	-3.30056E-001	9	...........
	354	71	-3.40214E-001	-1.86520E-003	0.00000E+000	-3.40007E-001	-3.40259E-001	9	...........
	355	71.2	-3.50214E-001	-1.87154E-003	0.00000E+000	-3.50006E-001	-3.50063E-001	9	...........
	356	71.4	-3.60215E-001	-1.87854E-003	0.00000E+000	-3.60005E-001	-3.60067E-001	9	...........
	357	71.6	-3.70215E-001	-1.88454E-003	0.00000E+000	-3.70003E-001	-3.70070E-001	9	...........
	358	71.8	-3.80215E-001	-1.89121E-003	0.00000E+000	-3.80002E-001	-3.80274E-001	9	...........
	359	72	-3.90215E-001	-1.89721E-003	0.00000E+000	-3.90001E-001	-3.90078E-001	9	...........
	360	72.2	-4.00016E-001	-1.90271E-003	0.00000E+000	-3.99999E-001	-4.00081E-001	9	...........
	361	72.4	-4.10216E-001	-1.90805E-003	0.00000E+000	-4.09998E-001	-4.10085E-001	9	...........
	362	72.6	-4.20016E-001	-1.91305E-003	0.00000E+000	-4.19997E-001	-4.20089E-001	9	...........
	363	72.8	-4.30216E-001	-1.91838E-003	0.00000E+000	-4.29996E-001	-4.30093E-001	9	...........
	364	73	-4.40216E-001	-1.92255E-003	0.00000E+000	-4.39994E-001	-4.40096E-001	9	...........
	365	73.2	-4.50217E-001	-1.92739E-003	0.00000E+000	-4.49993E-001	-4.49900E-001	9	...........
	366	73.4	-4.60217E-001	-1.93155E-003	0.00000E+000	-4.59992E-001	-4.60104E-001	9	...........
	367	73.6	-4.70217E-001	-1.93572E-003	0.00000E+000	-4.69991E-001	-4.69907E-001	9	...........
	368	73.8	-4.80217E-001	-1.94039E-003	0.00000E+000	-4.79989E-001	-4.80111E-001	9	...........
	369	74	-4.90218E-001	-1.94456E-003	0.00000E+000	-4.89988E-001	-4.90315E-001	9	...........
	370	74.2	-5.00018E-001	-1.94806E-003	0.00000E+000	-4.99987E-001	-4.99918E-001	9	...........
	371	74.4	-5.10018E-001	-1.95206E-003	0.00000E+000	-5.09986E-001	-5.10122E-001	9	...........
	372	74.6	-5.20218E-001	-1.95556E-003	0.00000E+000	-5.19984E-001	-5.19926E-001	9	...........
	373	74.8	-5.30019E-001	-1.95939E-003	0.00000E+000	-5.29983E-001	-5.30130E-001	9	...........
	374	75	-5.40019E-001	-1.96339E-003	0.00000E+000	-5.39982E-001	-5.39933E-001	9	...........
	375	75.2	-5.50019E-001	-1.96673E-003	0.00000E+000	-5.49981E-001	-5.49937E-001	9	...........
	376	75.4	-5.60019E-001	-1.97090E-003	0.00000E+000	-5.59979E-001	-5.59941E-001	9	...........
	377	75.6	-5.70019E-001	-1.97423E-003	0.00000E+000	-5.69978E-001	-5.69944E-001	9	...........
	378	75.8	-5.80020E-001	-1.97806E-003	0.00000E+000	-5.79977E-001	-5.79748E-001	9	...........
	379	76	-5.90020E-001	-1.98273E-003	0.00000E+000	-5.89975E-001	-5.89752E-001	9	...........
	380	76.2	-6.00020E-001	-1.98640E-003	0.00000E+000	-5.99974E-001	-5.99755E-001	9	...........
	381	76.4	-6.10020E-001	-1.99140E-003	0.00000E+000	-6.09973E-001	-6.09959E-001	9	...........
	382	76.6	-6.20021E-001	-1.99757E-003	0.00000E+000	-6.20022E-001	-6.19763E-001	9	...........
	383	76.8	-6.30021E-001	-2.00224E-003	0.00000E+000	-6.30020E-001	-6.29966E-001	9	...........
	384	77	-6.40021E-001	-2.00690E-003	0.00000E+000	-6.40019E-001	-6.39970E-001	9	...........
	385	77.2	-6.50021E-001	-2.01240E-003	0.00000E+000	-6.50018E-001	-6.49974E-001	9	...........
	386	77.4	-6.60022E-001	-2.01924E-003	0.00000E+000	-6.60017E-001	-6.59777E-001	9	...........
	387	77.6	-6.70022E-001	-2.02574E-003	0.00000E+000	-6.70015E-001	-6.69781E-001	9	...........
	388	77.8	-6.80022E-001	-2.03324E-003	0.00000E+000	-6.80014E-001	-6.79985E-001	9	...........
	389	78	-6.90222E-001	-2.04191E-003	0.00000E+000	-6.90013E-001	-6.89989E-001	9	...........
	390	78.2	-7.00022E-001	-2.05141E-003	0.00000E+000	-7.00012E-001	-6.99992E-001	9	...........
	391	78.4	-7.10023E-001	-2.06142E-003	0.00000E+000	-7.10010E-001	-7.09796E-001	9	...........
	392	78.6	-7.20023E-001	-2.07292E-003	0.00000E+000	-7.20009E-001	-7.20000E-001	9	...........
	393	78.8	-7.30023E-001	-2.08509E-003	0.00000E+000	-7.30008E-001	-7.29803E-001	9	...........
	394	79	-7.40023E-001	-2.09909E-003	0.00000E+000	-7.40007E-001	-7.39807E-001	9	...........
	395	79.2	-7.49824E-001	-2.11393E-003	0.00000E+000	-7.50005E-001	-7.49811E-001	9	...........
	396	79.4	-7.60024E-001	-2.13110E-003	0.00000E+000	-7.60004E-001	-7.59814E-001	9	...........
	397	79.6	-7.70024E-001	-2.14977E-003	0.00000E+000	-7.70003E-001	-7.69818E-001	9	...........
	398	79.8	-7.79824E-001	-2.17011E-003	0.00000E+000	-7.80001E-001	-7.79822E-001	9	...........
	399	80	-7.90024E-001	-2.19278E-003	0.00000E+000	-7.90000E-001	-7.89625E-001	9	...........
	400	80.2	-8.00025E-001	-2.21695E-003	0.00000E+000	-7.99999E-001	-7.99829E-001	9	...........
	401	80.4	-7.89624E-001	-1.49662E-003	0.00000E+000	-7.90000E-001	-7.89625E-001	9	...........
	402	80.6	-7.79624E-001	-1.01484E-003	0.00000E+000	-7.80001E-001	-7.79822E-001	9	...........
	403	80.8	-7.69624E-001	-6.62264E-004	0.00000E+000	-7.70003E-001	-7.69818E-001	9	...........
	404	81	-7.59824E-001	-3.92870E-004	0.00000E+000	-7.60004E-001	-7.59814E-001	9	...........
	405	81.2	-7.49624E-001	-1.87429E-004	0.00000E+000	-7.50005E-001	-7.49811E-001	8	...........
	406	81.4	-7.39623E-001	-1.13974E-005	0.00000E+000	-7.40007E-001	-7.39807E-001	8	...........
	407	81.6	-7.29823E-001	5.47117E-005	0.00000E+000	-7.30008E-001	-7.30003E-001	7	....ih..i..
	408	81.8	-7.19623E-001	2.32483E-004	0.00000E+000	-7.20009E-001	-7.20000E-001	8	...........
	409	82	-7.09623E-001	3.40265E-004	0.00000E+000	-7.10010E-001	-7.09796E-001	8	...........
	410	82.2	-7.00022E-001	4.23072E-004	0.00000E+000	-7.00012E-001	-6.99992E-001	8	...........
	411	82.4	-6.89622E-001	4.94326E-004	0.00000E+000	-6.90013E-001	-6.89789E-001	8	...........
	412	82.6	-6.79622E-001	4.93832E-004	0.00000E+000	-6.80014E-001	-6.79785E-001	9	...........
	413	82.8	-6.69822E-001	6.11025E-004	0.00000E+000	-6.70015E-001	-6.70181E-001	9	...........
	414	83	-6.59822E-001	6.59203E-004	0.00000E+000	-6.60017E-001	-6.59978E-001	9	...........
	415	83.2	-6.49821E-001	7.02879E-004	0.00000E+000	-6.50018E-001	-6.49774E-001	9	...........
	416	83.4	-6.39621E-001	7.41555E-004	0.00000E+000	-6.40019E-001	-6.39970E-001	9	...........
	417	83.6	-6.29821E-001	7.77229E-004	0.00000E+000	-6.30020E-001	-6.29966E-001	9	...........
	418	83.8	-6.19621E-001	8.09904E-004	0.00000E+000	-6.20022E-001	-6.19963E-001	9	...........
	419	84	-6.09820E-001	8.41577E-004	0.00000E+000	-6.09973E-001	-6.09759E-001	9	...........
	420	84.2	-5.99820E-001	8.68917E-004	0.00000E+000	-5.99974E-001	-5.99955E-001	9	...........
	421	84.4	-5.89820E-001	8.94256E-004	0.00000E+000	-5.89975E-001	-5.89952E-001	9	...........
	422	84.6	-5.79620E-001	9.19095E-004	0.00000E+000	-5.79977E-001	-5.79948E-001	9	...........
	423	84.8	-5.69619E-001	9.41934E-004	0.00000E+000	-5.69978E-001	-5.69944E-001	9	...........
	424	85	-5.59819E-001	9.63105E-004	0.00000E+000	-5.59979E-001	-5.59941E-001	9	...........
	425	85.2	-5.49819E-001	9.83776E-004	0.00000E+000	-5.49981E-001	-5.49937E-001	9	...........
	426	85.4	-5.39619E-001	1.00345E-003	0.00000E+000	-5.39982E-001	-5.40133E-001	9	...........
	427	85.6	-5.29619E-001	1.02229E-003	0.00000E+000	-5.29983E-001	-5.30130E-001	9	...........
	428	85.8	-5.19818E-001	1.04012E-003	0.00000E+000	-5.19984E-001	-5.19926E-001	9	...........
	429	86	-5.09818E-001	1.05746E-003	0.00000E+000	-5.09986E-001	-5.09922E-001	9	...........
	430	86.2	-4.99818E-001	1.07463E-003	0.00000E+000	-4.99987E-001	-4.99918E-001	9	...........
	431	86.4	-4.89818E-001	1.09080E-003	0.00000E+000	-4.89988E-001	-4.90315E-001	9	...........
	432	86.6	-4.80017E-001	1.10580E-003	0.00000E+000	-4.79989E-001	-4.80111E-001	9	...........
	433	86.8	-4.69817E-001	1.12131E-003	0.00000E+000	-4.69991E-001	-4.70107E-001	9	...........
	434	87	-4.59817E-001	1.13598E-003	0.00000E+000	-4.59992E-001	-4.60104E-001	9	...........
	435	87.2	-4.49817E-001	1.15081E-003	0.00000E+000	-4.49993E-001	-4.50100E-001	9	...........
	436	87.4	-4.39817E-001	1.16482E-003	0.00000E+000	-4.39994E-001	-4.40096E-001	9	...........
	437	87.6	-4.29816E-001	1.17832E-003	0.00000E+000	-4.29996E-001	-4.30093E-001	9	...........
	438	87.8	-4.19816E-001	1.19166E-003	0.00000E+000	-4.19997E-001	-4.19889E-001	9	...........
	439	88	-4.09816E-001	1.20466E-003	0.00000E+000	-4.09998E-001	-4.10085E-001	9	...........
	440	88.2	-3.99816E-001	1.21733E-003	0.00000E+000	-3.99999E-001	-4.00081E-001	9	...........
	441	88.4	-3.90015E-001	1.23000E-003	0.00000E+000	-3.90001E-001	-3.90078E-001	9	...........
	442	88.6	-3.80015E-001	1.24234E-003	0.00000E+000	-3.80002E-001	-3.80274E-001	9	...........
	443	88.8	-3.69815E-001	1.25450E-003	0.00000E+000	-3.70003E-001	-3.70070E-001	9	...........
	444	89	-3.60015E-001	1.26634E-003	0.00000E+000	-3.60005E-001	-3.60067E-001	9	...........
	445	89.2	-3.50014E-001	1.27834E-003	0.00000E+000	-3.50006E-001	-3.50063E-001	9	...........
	446	89.4	-3.39814E-001	1.29001E-003	0.00000E+000	-3.40007E-001	-3.40259E-001	9	...........
	447	89.6	-3.30014E-001	1.30085E-003	0.00000E+000	-3.30008E-001	-3.30056E-001	9	...........
	448	89.8	-3.19814E-001	1.31252E-003	0.00000E+000	-3.20010E-001	-3.20052E-001	9	...........
	449	90	-3.09814E-001	1.32335E-003	0.00000E+000	-3.10011E-001	-3.10048E-001	9	...........
	450	90.2	-3.00013E-001	1.33436E-003	0.00000E+000	-3.00012E-001	-3.00245E-001	9	...........
	451	90.4	-2.90013E-001	1.34519E-003	0.00000E+000	-2.90013E-001	-2.90241E-001	9	...........
	452	90.6	-2.79813E-001	1.35536E-003	0.00000E+000	-2.80015E-001	-2.80037E-001	9	...........
	453	90.8	-2.70013E-001	1.36620E-003	0.00000E+000	-2.70016E-001	-2.70233E-001	9	...........
	454	91	-2.60012E-001	1.37603E-003	0.00000E+000	-2.60017E-001	-2.60230E-001	9	...........
	455	91.2	-2.49812E-001	1.38603E-003	0.00000E+000	-2.50018E-001	-2.50026E-001	9	...........
	456	91.4	-2.40012E-001	1.39554E-003	0.00000E+000	-2.40020E-001	-2.40222E-001	9	...........
	457	91.6	-2.30012E-001	1.40437E-003	0.00000E+000	-2.30021E-001	-2.30419E-001	9	...........
	458	91.8	-2.20011E-001	1.41404E-003	0.00000E+000	-2.20022E-001	-2.20415E-001	9	...........
	459	92	-2.10011E-001	1.42421E-003	0.00000E+000	-2.09973E-001	-2.10211E-001	9	...........
	460	92.2	-2.00011E-001	1.43204E-003	0.00000E+000	-1.99975E-001	-2.00208E-001	9	...........
	461	92.4	-1.90011E-001	1.44038E-003	0.00000E+000	-1.89976E-001	-1.90404E-001	9	...........
	462	92.6	-1.80011E-001	1.44805E-003	0.00000E+000	-1.79977E-001	-1.80400E-001	9	...........
	463	92.8	-1.70010E-001	1.45588E-003	0.00000E+000	-1.69979E-001	-1.70397E-001	9	...........
	464	93	-1.60010E-001	1.46322E-003	0.00000E+000	-1.59980E-001	-1.60193E-001	9	...........
	465	93.2	-1.50210E-001	1.47022E-003	0.00000E+000	-1.49981E-001	-1.50189E-001	9	...........
	466	93.4	-1.40010E-001	1.47739E-003	0.00000E+000	-1.39982E-001	-1.40185E-001	9	...........
	467	93.6	-1.30209E-001	1.48356E-003	0.00000E+000	-1.29984E-001	-1.30382E-001	9	...........
	468	93.8	-1.20009E-001	1.49039E-003	0.00000E+000	-1.19985E-001	-1.20178E-001	9	...........
	469	94	-1.10009E-001	1.49673E-003	0.00000E+000	-1.09986E-001	-1.10374E-001	9	...........
	470	94.2	-1.00209E-001	1.50256E-003	0.00000E+000	-9.99874E-002	-1.00171E-001	9	...........
	471	94.4	-9.00085E-002	1.50840E-003	0.00000E+000	-8.99886E-002	-9.03670E-002	9	...........
	472	94.6	-8.00083E-002	1.51373E-003	0.00000E+000	-7.99899E-002	-8.03633E-002	9	...........
	473	94.8	-7.00081E-002	1.51906E-003	0.00000E+000	-6.99912E-002	-7.03596E-002	9	...........
	474	95	-6.00078E-002	1.52440E-003	0.00000E+000	-5.99924E-002	-6.03559E-002	9	...........
	475	95.2	-5.02076E-002	1.52907E-003	0.00000E+000	-4.99937E-002	-5.03522E-002	9	...........
	476	95.4	-4.02074E-002	1.53423E-003	0.00000E+000	-3.99949E-002	-4.03485E-002	9	...........
	477	95.6	-3.02072E-002	1.53874E-003	0.00000E+000	-2.99962E-002	-3.05449E-002	9	...........
	478	95.8	-2.00069E-002	1.54257E-003	0.00000E+000	-1.99975E-002	-2.03411E-002	9	...........
	479	96	-1.02067E-002	1.54707E-003	0.00000E+000	-9.99874E-003	-1.03374E-002	9	...........
	480	96.2	-2.06485E-004	1.55074E-003	0.00000E+000	0.00000E+000	-5.33797E-004	9	...........
	481	96.4	9.79374E-003	1.55491E-003	0.00000E+000	9.99874E-003	9.46990E-003	9	...........
	482	96.6	1.95940E-002	1.55874E-003	0.00000E+000	1.99975E-002	1.94736E-002	9	...........
	483	96.8	2.99942E-002	1.56241E-003	0.00000E+000	2.99962E-002	2.94773E-002	9	...........
	484	97	3.99944E-002	1.56608E-003	0.00000E+000	3.99949E-002	3.96811E-002	9	...........
	485	97.2	4.97947E-002	1.56958E-003	0.00000E+000	4.99937E-002	4.94847E-002	9	...........
	486	97.4	5.97949E-002	1.57308E-003	0.00000E+000	5.99924E-002	5.92883E-002	9	...........
	487	97.6	6.97951E-002	1.57641E-003	0.00000E+000	6.99912E-002	6.94921E-002	9	...........
	488	97.8	7.97953E-002	1.57958E-003	0.00000E+000	7.99899E-002	7.94958E-002	9	...........
	489	98	8.97956E-002	1.58308E-003	0.00000E+000	8.99886E-002	8.94995E-002	9	...........
	490	98.2	9.97958E-002	1.58641E-003	0.00000E+000	9.99874E-002	9.95032E-002	9	...........
	491	98.4	1.09396E-001	1.58975E-003	0.00000E+000	1.09986E-001	1.09507E-001	9	...........
	492	98.6	1.19796E-001	1.59325E-003	0.00000E+000	1.19985E-001	1.19310E-001	9	...........
	493	98.8	1.29796E-001	1.59608E-003	0.00000E+000	1.29984E-001	1.29514E-001	9	...........
	494	99	1.39997E-001	1.59975E-003	0.00000E+000	1.39982E-001	1.39518E-001	9	...........
	495	99.2	1.49797E-001	1.60242E-003	0.00000E+000	1.49981E-001	1.49322E-001	9	...........
	496	99.4	1.59597E-001	1.60575E-003	0.00000E+000	1.59980E-001	1.59325E-001	9	...........
	497	99.6	1.69597E-001	1.60892E-003	0.00000E+000	1.69979E-001	1.69329E-001	9	...........
	498	99.8	1.79598E-001	1.61159E-003	0.00000E+000	1.79977E-001	1.79533E-001	9	...........
	499	100	1.89598E-001	1.61592E-003	0.00000E+000	1.90026E-001	1.89336E-001	9	...........
	500	100.2	1.99798E-001	1.61825E-003	0.00000E+000	2.00025E-001	1.99340E-001	9	...........
	501	100.4	2.09598E-001	1.61992E-003	0.00000E+000	2.10023E-001	2.09344E-001	9	...........
	502	100.6	2.19599E-001	1.62292E-003	0.00000E+000	2.20022E-001	2.19147E-001	9	...........
	503	100.8	2.29999E-001	1.62476E-003	0.00000E+000	2.30021E-001	2.29351E-001	9	...........
	504	101	2.39599E-001	1.62709E-003	0.00000E+000	2.40020E-001	2.39355E-001	9	...........
	505	101.2	2.49599E-001	1.62826E-003	0.00000E+000	2.50018E-001	2.49159E-001	9	...........
	506	101.4	2.59599E-001	1.62992E-003	0.00000E+000	2.60017E-001	2.59162E-001	9	...........
	507	101.6	2.69600E-001	1.63092E-003	0.00000E+000	2.70016E-001	2.69366E-001	9	...........
	508	101.8	2.79800E-001	1.63159E-003	0.00000E+000	2.80015E-001	2.79170E-001	9	...........
	509	102	2.89400E-001	1.63242E-003	0.00000E+000	2.90013E-001	2.89373E-001	9	...........
	510	102.2	2.99600E-001	1.63259E-003	0.00000E+000	3.00012E-001	2.99177E-001	9	...........
	511	102.4	3.09801E-001	1.63209E-003	0.00000E+000	3.10011E-001	3.09381E-001	9	...........
	512	102.6	3.19601E-001	1.63176E-003	0.00000E+000	3.20010E-001	3.19384E-001	9	...........
	513	102.8	3.29601E-001	1.63042E-003	0.00000E+000	3.30008E-001	3.29188E-001	9	...........
	514	103	3.39801E-001	1.62942E-003	0.00000E+000	3.40007E-001	3.39392E-001	9	...........
	515	103.2	3.49601E-001	1.62792E-003	0.00000E+000	3.50006E-001	3.48995E-001	9	...........
	516	103.4	3.59602E-001	1.62559E-003	0.00000E+000	3.60005E-001	3.59399E-001	9	...........
	517	103.6	3.69602E-001	1.62326E-003	0.00000E+000	3.70003E-001	3.69203E-001	9	...........
	518	103.8	3.79802E-001	1.62025E-003	0.00000E+000	3.80002E-001	3.79207E-001	9	...........
	519	104	3.89402E-001	1.61709E-003	0.00000E+000	3.90001E-001	3.89410E-001	9	...........
	520	104.2	3.99603E-001	1.61375E-003	0.00000E+000	3.99999E-001	3.99214E-001	9	...........
	521	104.4	4.09403E-001	1.60992E-003	0.00000E+000	4.09998E-001	4.09218E-001	9	...........
	522	104.6	4.19603E-001	1.60625E-003	0.00000E+000	4.19997E-001	4.19221E-001	9	...........
	523	104.8	4.29403E-001	1.60208E-003	0.00000E+000	4.29996E-001	4.29225E-001	9	...........
	524	105	4.39604E-001	1.59758E-003	0.00000E+000	4.39994E-001	4.39429E-001	9	...........
	525	105.2	4.49604E-001	1.59325E-003	0.00000E+000	4.49993E-001	4.49232E-001	9	...........
	526	105.4	4.59604E-001	1.58841E-003	0.00000E+000	4.59992E-001	4.59236E-001	9	...........
	527	105.6	4.69404E-001	1.58341E-003	0.00000E+000	4.69991E-001	4.69040E-001	9	...........
	528	105.8	4.79604E-001	1.57824E-003	0.00000E+000	4.79989E-001	4.79244E-001	9	...........
	529	106	4.89405E-001	1.57374E-003	0.00000E+000	4.89988E-001	4.89047E-001	9	...........
	530	106.2	4.99605E-001	1.56908E-003	0.00000E+000	4.99987E-001	4.99051E-001	9	...........
	531	106.4	5.09405E-001	1.56441E-003	0.00000E+000	5.09986E-001	5.09055E-001	9	...........
	532	106.6	5.19405E-001	1.55974E-003	0.00000E+000	5.19984E-001	5.19058E-001	9	...........
	533	106.8	5.29206E-001	1.55541E-003	0.00000E+000	5.29983E-001	5.29062E-001	9	...........
	534	107	5.39406E-001	1.55107E-003	0.00000E+000	5.39982E-001	5.39066E-001	9	...........
	535	107.2	5.49406E-001	1.54724E-003	0.00000E+000	5.49981E-001	5.49069E-001	9	...........
	536	107.4	5.59406E-001	1.54324E-003	0.00000E+000	5.59979E-001	5.59273E-001	9	...........
	537	107.6	5.69406E-001	1.53924E-003	0.00000E+000	5.69978E-001	5.69077E-001	9	...........
	538	107.8	5.79207E-001	1.53557E-003	0.00000E+000	5.79977E-001	5.79280E-001	9	...........
	539	108	5.89407E-001	1.53223E-003	0.00000E+000	5.89975E-001	5.88884E-001	9	...........
	540	108.2	5.99407E-001	1.53090E-003	0.00000E+000	6.00024E-001	5.99288E-001	9	...........
	541	108.4	6.09207E-001	1.52773E-003	0.00000E+000	6.10023E-001	6.09092E-001	9	...........
	542	108.6	6.19608E-001	1.52490E-003	0.00000E+000	6.20022E-001	6.19295E-001	9	...........
	543	108.8	6.29408E-001	1.52323E-003	0.00000E+000	6.30020E-001	6.29099E-001	9	...........
	544	109	6.39408E-001	1.52140E-003	0.00000E+000	6.40019E-001	6.38903E-001	9	...........
	545	109.2	6.49408E-001	1.52023E-003	0.00000E+000	6.50018E-001	6.49106E-001	9	...........
	546	109.4	6.59409E-001	1.51906E-003	0.00000E+000	6.60017E-001	6.59110E-001	9	...........
	547	109.6	6.69409E-001	1.51873E-003	0.00000E+000	6.70015E-001	6.69114E-001	9	...........
	548	109.8	6.79609E-001	1.51873E-003	0.00000E+000	6.80014E-001	6.78917E-001	9	...........
	549	110	6.89409E-001	1.51890E-003	0.00000E+000	6.90013E-001	6.89121E-001	9	...........
	550	110.2	6.99409E-001	1.52006E-003	0.00000E+000	7.00012E-001	6.98925E-001	9	...........
	551	110.4	7.09410E-001	1.52190E-003	0.00000E+000	7.10010E-001	7.09129E-001	9	...........
	552	110.6	7.19410E-001	1.52407E-003	0.00000E+000	7.20009E-001	7.18932E-001	9	...........
	553	110.8	7.29410E-001	1.52657E-003	0.00000E+000	7.30008E-001	7.28736E-001	9	...........
	554	111	7.39410E-001	1.52973E-003	0.00000E+000	7.40007E-001	7.38940E-001	9	...........
	555	111.2	7.49411E-001	1.53390E-003	0.00000E+000	7.50005E-001	7.48943E-001	9	...........
	556	111.4	7.59411E-001	1.53924E-003	0.00000E+000	7.60004E-001	7.59147E-001	9	...........
	557	111.6	7.69211E-001	1.54474E-003	0.00000E+000	7.70003E-001	7.69151E-001	9	...........
	558	111.8	7.79411E-001	1.55207E-003	0.00000E+000	7.80001E-001	7.78954E-001	9	...........
	559	112	7.89411E-001	1.56007E-003	0.00000E+000	7.90000E-001	7.88958E-001	9	...........
	560	112.2	7.99212E-001	1.56924E-003	0.00000E+000	7.99999E-001	7.98962E-001	9	...........
CURVE3	TABLE
	Pt	T	Vf	Im	Vu	Sig	Ach	IERange	Over
	#	s	V vs. Ref.	A	V	V	V	#	bits
	561	112.4	7.89011E-001	1.06763E-003	0.00000E+000	7.90000E-001	7.88758E-001	9	...........
	562	112.6	7.79211E-001	7.49223E-004	0.00000E+000	7.80001E-001	7.79154E-001	9	...........
	563	112.8	7.69011E-001	5.20171E-004	0.00000E+000	7.70003E-001	7.68951E-001	9	...........
	564	113	7.59211E-001	3.47298E-004	0.00000E+000	7.60004E-001	7.58947E-001	9	...........
	565	113.2	7.49211E-001	2.16522E-004	0.00000E+000	7.50005E-001	7.49143E-001	8	...........
	566	113.4	7.39010E-001	1.01811E-004	0.00000E+000	7.40007E-001	7.39140E-001	8	...........
	567	113.6	7.29010E-001	1.27268E-005	0.00000E+000	7.30008E-001	7.28936E-001	8	...........
	568	113.8	7.19210E-001	-5.47457E-005	0.00000E+000	7.20009E-001	7.19132E-001	7	........i..
	569	114	7.09210E-001	-1.21167E-004	0.00000E+000	7.10010E-001	7.09129E-001	8	...........
	570	114.2	6.99209E-001	-1.80234E-004	0.00000E+000	7.00012E-001	6.99125E-001	8	...........
	571	114.4	6.89409E-001	-2.28115E-004	0.00000E+000	6.90013E-001	6.88921E-001	8	...........
	572	114.6	6.79009E-001	-2.70236E-004	0.00000E+000	6.80014E-001	6.79117E-001	8	...........
	573	114.8	6.69209E-001	-3.08417E-004	0.00000E+000	6.70015E-001	6.68914E-001	8	...........
	574	115	6.59208E-001	-3.42859E-004	0.00000E+000	6.60017E-001	6.58910E-001	8	...........
	575	115.2	6.49408E-001	-3.74630E-004	0.00000E+000	6.50018E-001	6.49306E-001	8	...........
	576	115.4	6.39208E-001	-4.04263E-004	0.00000E+000	6.40019E-001	6.39103E-001	8	...........
	577	115.6	6.29208E-001	-4.31843E-004	0.00000E+000	6.30020E-001	6.29299E-001	8	...........
	578	115.8	6.19408E-001	-4.58338E-004	0.00000E+000	6.20022E-001	6.19095E-001	8	...........
	579	116	6.09207E-001	-4.23043E-004	0.00000E+000	6.10023E-001	6.09092E-001	9	...........
	580	116.2	5.99207E-001	-5.07563E-004	0.00000E+000	6.00024E-001	5.99088E-001	9	...........
	581	116.4	5.89207E-001	-5.32235E-004	0.00000E+000	5.89975E-001	5.89084E-001	9	...........
	582	116.6	5.79407E-001	-5.54073E-004	0.00000E+000	5.79977E-001	5.79080E-001	9	...........
	583	116.8	5.69206E-001	-5.76578E-004	0.00000E+000	5.69978E-001	5.69077E-001	9	...........
	584	117	5.59206E-001	-5.98250E-004	0.00000E+000	5.59979E-001	5.59073E-001	9	...........
	585	117.2	5.49206E-001	-6.19588E-004	0.00000E+000	5.49981E-001	5.49269E-001	9	...........
	586	117.4	5.39406E-001	-6.41093E-004	0.00000E+000	5.39982E-001	5.39066E-001	9	...........
	587	117.6	5.29206E-001	-6.61764E-004	0.00000E+000	5.29983E-001	5.29262E-001	9	...........
	588	117.8	5.19005E-001	-6.82436E-004	0.00000E+000	5.19984E-001	5.19258E-001	9	...........
	589	118	5.09205E-001	-7.02774E-004	0.00000E+000	5.09986E-001	5.09255E-001	9	...........
	590	118.2	4.99205E-001	-7.23112E-004	0.00000E+000	4.99987E-001	4.99051E-001	9	...........
	591	118.4	4.89005E-001	-7.42949E-004	0.00000E+000	4.89988E-001	4.89247E-001	9	...........
	592	118.6	4.79204E-001	-7.62954E-004	0.00000E+000	4.79989E-001	4.79043E-001	9	...........
	593	118.8	4.69204E-001	-7.82458E-004	0.00000E+000	4.69991E-001	4.69240E-001	9	...........
	594	119	4.59404E-001	-8.02130E-004	0.00000E+000	4.59992E-001	4.59236E-001	9	...........
	595	119.2	4.49204E-001	-8.21301E-004	0.00000E+000	4.49993E-001	4.49032E-001	9	...........
	596	119.4	4.39203E-001	-8.40472E-004	0.00000E+000	4.39994E-001	4.39429E-001	9	...........
	597	119.6	4.29203E-001	-8.59476E-004	0.00000E+000	4.29996E-001	4.29425E-001	9	...........
	598	119.8	4.19203E-001	-8.78147E-004	0.00000E+000	4.19997E-001	4.19221E-001	9	...........
	599	120	4.09203E-001	-8.96818E-004	0.00000E+000	4.09998E-001	4.09418E-001	9	...........
	600	120.2	3.99403E-001	-9.15155E-004	0.00000E+000	3.99999E-001	3.99214E-001	9	...........
	601	120.4	3.89402E-001	-9.33659E-004	0.00000E+000	3.90001E-001	3.89410E-001	9	...........
	602	120.6	3.79202E-001	-9.51664E-004	0.00000E+000	3.80002E-001	3.79207E-001	9	...........
	603	120.8	3.69402E-001	-9.69668E-004	0.00000E+000	3.70003E-001	3.69403E-001	9	...........
	604	121	3.59402E-001	-9.87672E-004	0.00000E+000	3.60005E-001	3.59199E-001	9	...........
	605	121.2	3.49201E-001	-1.00534E-003	0.00000E+000	3.50006E-001	3.49195E-001	9	...........
	606	121.4	3.39401E-001	-1.02301E-003	0.00000E+000	3.40007E-001	3.39392E-001	9	...........
	607	121.6	3.29401E-001	-1.04052E-003	0.00000E+000	3.30008E-001	3.29188E-001	9	...........
	608	121.8	3.19401E-001	-1.05752E-003	0.00000E+000	3.20010E-001	3.19184E-001	9	...........
	609	122	3.09401E-001	-1.07486E-003	0.00000E+000	3.10011E-001	3.09381E-001	9	...........
	610	122.2	2.99400E-001	-1.09153E-003	0.00000E+000	3.00012E-001	2.99177E-001	9	...........
	611	122.4	2.89400E-001	-1.10803E-003	0.00000E+000	2.90013E-001	2.89173E-001	9	...........
	612	122.6	2.79400E-001	-1.12437E-003	0.00000E+000	2.80015E-001	2.79170E-001	9	...........
	613	122.8	2.69400E-001	-1.14021E-003	0.00000E+000	2.70016E-001	2.69366E-001	9	...........
	614	123	2.59599E-001	-1.15654E-003	0.00000E+000	2.60017E-001	2.59362E-001	9	...........
	615	123.2	2.49399E-001	-1.17205E-003	0.00000E+000	2.50018E-001	2.49359E-001	9	...........
	616	123.4	2.39399E-001	-1.18755E-003	0.00000E+000	2.40020E-001	2.39355E-001	9	...........
	617	123.6	2.29399E-001	-1.20289E-003	0.00000E+000	2.30021E-001	2.29151E-001	9	...........
	618	123.8	2.19399E-001	-1.21756E-003	0.00000E+000	2.20022E-001	2.19347E-001	9	...........
	619	124	2.09398E-001	-1.23223E-003	0.00000E+000	2.10023E-001	2.09344E-001	9	...........
	620	124.2	1.99398E-001	-1.24673E-003	0.00000E+000	2.00025E-001	1.99340E-001	9	...........
	621	124.4	1.89198E-001	-1.26090E-003	0.00000E+000	1.90026E-001	1.89336E-001	9	...........
	622	124.6	1.79398E-001	-1.27690E-003	0.00000E+000	1.79977E-001	1.79533E-001	9	...........
	623	124.8	1.69397E-001	-1.28991E-003	0.00000E+000	1.69979E-001	1.69329E-001	9	...........
	624	125	1.59397E-001	-1.30341E-003	0.00000E+000	1.59980E-001	1.59325E-001	9	...........
	625	125.2	1.49397E-001	-1.31691E-003	0.00000E+000	1.49981E-001	1.49522E-001	9	...........
	626	125.4	1.39397E-001	-1.32975E-003	0.00000E+000	1.39982E-001	1.39318E-001	9	...........
	627	125.6	1.29396E-001	-1.34325E-003	0.00000E+000	1.29984E-001	1.29114E-001	9	...........
	628	125.8	1.19396E-001	-1.35609E-003	0.00000E+000	1.19985E-001	1.19310E-001	9	...........
	629	126	1.09596E-001	-1.36893E-003	0.00000E+000	1.09986E-001	1.09507E-001	9	...........
	630	126.2	9.95958E-002	-1.38176E-003	0.00000E+000	9.99874E-002	9.95032E-002	9	...........
	631	126.4	8.93956E-002	-1.39410E-003	0.00000E+000	8.99886E-002	8.94995E-002	9	...........
	632	126.6	7.95953E-002	-1.40693E-003	0.00000E+000	7.99899E-002	7.96959E-002	9	...........
	633	126.8	6.95951E-002	-1.41910E-003	0.00000E+000	6.99912E-002	6.94921E-002	9	...........
	634	127	5.93949E-002	-1.43177E-003	0.00000E+000	5.99924E-002	5.96885E-002	9	...........
	635	127.2	4.93946E-002	-1.44394E-003	0.00000E+000	4.99937E-002	4.96848E-002	9	...........
	636	127.4	3.93944E-002	-1.45628E-003	0.00000E+000	3.99949E-002	3.94810E-002	9	...........
	637	127.6	2.95942E-002	-1.46878E-003	0.00000E+000	2.99962E-002	2.94773E-002	9	...........
	638	127.8	1.93940E-002	-1.48078E-003	0.00000E+000	1.99975E-002	1.92735E-002	9	...........
	639	128	9.59374E-003	-1.49312E-003	0.00000E+000	9.99874E-003	9.46990E-003	9	...........
	640	128.2	-4.06489E-004	-1.50546E-003	0.00000E+000	0.00000E+000	-3.33723E-004	9	...........
	641	128.4	-1.06067E-002	-1.51729E-003	0.00000E+000	-9.99874E-003	-1.03374E-002	9	...........
	642	128.6	-2.04069E-002	-1.52996E-003	0.00000E+000	-1.99975E-002	-2.03411E-002	9	...........
	643	128.8	-3.04072E-002	-1.54196E-003	0.00000E+000	-2.99962E-002	-3.03448E-002	9	...........
	644	129	-4.04074E-002	-1.55413E-003	0.00000E+000	-3.99949E-002	-4.03485E-002	9	...........
	645	129.2	-5.02076E-002	-1.56647E-003	0.00000E+000	-4.99937E-002	-5.03522E-002	9	...........
	646	129.4	-6.04079E-002	-1.57847E-003	0.00000E+000	-5.99924E-002	-6.03559E-002	9	...........
	647	129.6	-7.02081E-002	-1.59098E-003	0.00000E+000	-6.99912E-002	-7.03596E-002	9	...........
	648	129.8	-8.04083E-002	-1.60298E-003	0.00000E+000	-7.99899E-002	-8.03633E-002	9	...........
	649	130	-9.04085E-002	-1.61498E-003	0.00000E+000	-8.99886E-002	-9.03670E-002	9	...........
	650	130.2	-1.00609E-001	-1.62715E-003	0.00000E+000	-9.99874E-002	-1.00371E-001	9	...........
	651	130.4	-1.10409E-001	-1.63865E-003	0.00000E+000	-1.09986E-001	-1.10174E-001	9	...........
	652	130.6	-1.20409E-001	-1.65082E-003	0.00000E+000	-1.19985E-001	-1.20378E-001	9	...........
	653	130.8	-1.30609E-001	-1.66266E-003	0.00000E+000	-1.29984E-001	-1.30382E-001	9	...........
	654	131	-1.40410E-001	-1.67433E-003	0.00000E+000	-1.39982E-001	-1.40185E-001	9	...........
	655	131.2	-1.50410E-001	-1.68583E-003	0.00000E+000	-1.49981E-001	-1.50389E-001	9	...........
	656	131.4	-1.60410E-001	-1.69700E-003	0.00000E+000	-1.59980E-001	-1.60193E-001	9	...........
	657	131.6	-1.70410E-001	-1.70817E-003	0.00000E+000	-1.69979E-001	-1.70197E-001	9	...........
	658	131.8	-1.80211E-001	-1.71950E-003	0.00000E+000	-1.79977E-001	-1.80400E-001	9	...........
	659	132	-1.90611E-001	-1.72967E-003	0.00000E+000	-1.89976E-001	-1.90204E-001	9	...........
	660	132.2	-2.00411E-001	-1.74084E-003	0.00000E+000	-1.99975E-001	-2.00208E-001	9	...........
	661	132.4	-2.10211E-001	-1.75051E-003	0.00000E+000	-2.09973E-001	-2.10211E-001	9	...........
	662	132.6	-2.20411E-001	-1.76235E-003	0.00000E+000	-2.20022E-001	-2.20215E-001	9	...........
	663	132.8	-2.30412E-001	-1.77218E-003	0.00000E+000	-2.30021E-001	-2.30219E-001	9	...........
	664	133	-2.40412E-001	-1.78069E-003	0.00000E+000	-2.40020E-001	-2.40222E-001	9	...........
	665	133.2	-2.50412E-001	-1.79019E-003	0.00000E+000	-2.50018E-001	-2.50226E-001	9	...........
	666	133.4	-2.60212E-001	-1.79919E-003	0.00000E+000	-2.60017E-001	-2.60230E-001	9	...........
	667	133.6	-2.70413E-001	-1.80736E-003	0.00000E+000	-2.70016E-001	-2.70233E-001	9	...........
	668	133.8	-2.80213E-001	-1.81603E-003	0.00000E+000	-2.80015E-001	-2.80237E-001	9	...........
	669	134	-2.90213E-001	-1.82353E-003	0.00000E+000	-2.90013E-001	-2.90241E-001	9	...........
	670	134.2	-3.00413E-001	-1.83170E-003	0.00000E+000	-3.00012E-001	-3.00245E-001	9	...........
	671	134.4	-3.10214E-001	-1.83953E-003	0.00000E+000	-3.10011E-001	-3.10248E-001	9	...........
	672	134.6	-3.20214E-001	-1.84637E-003	0.00000E+000	-3.20010E-001	-3.20252E-001	9	...........
	673	134.8	-3.30414E-001	-1.85370E-003	0.00000E+000	-3.30008E-001	-3.30056E-001	9	...........
	674	135	-3.40214E-001	-1.86037E-003	0.00000E+000	-3.40007E-001	-3.40059E-001	9	...........
	675	135.2	-3.50414E-001	-1.86687E-003	0.00000E+000	-3.50006E-001	-3.50263E-001	9	...........
	676	135.4	-3.60215E-001	-1.87304E-003	0.00000E+000	-3.60005E-001	-3.60067E-001	9	...........
	677	135.6	-3.70415E-001	-1.87921E-003	0.00000E+000	-3.70003E-001	-3.70070E-001	9	...........
	678	135.8	-3.80215E-001	-1.88488E-003	0.00000E+000	-3.80002E-001	-3.79874E-001	9	...........
	679	136	-3.90015E-001	-1.89054E-003	0.00000E+000	-3.90001E-001	-3.90078E-001	9	...........
	680	136.2	-4.00416E-001	-1.89604E-003	0.00000E+000	-3.99999E-001	-4.00081E-001	9	...........
	681	136.4	-4.10216E-001	-1.90121E-003	0.00000E+000	-4.09998E-001	-4.10085E-001	9	...........
	682	136.6	-4.20016E-001	-1.90588E-003	0.00000E+000	-4.19997E-001	-4.20089E-001	9	...........
	683	136.8	-4.30216E-001	-1.91088E-003	0.00000E+000	-4.29996E-001	-4.30093E-001	9	...........
	684	137	-4.40216E-001	-1.91522E-003	0.00000E+000	-4.39994E-001	-4.40096E-001	9	...........
	685	137.2	-4.50217E-001	-1.91972E-003	0.00000E+000	-4.49993E-001	-4.50100E-001	9	...........
	686	137.4	-4.60017E-001	-1.92388E-003	0.00000E+000	-4.59992E-001	-4.60104E-001	9	...........
	687	137.6	-4.70017E-001	-1.92772E-003	0.00000E+000	-4.69991E-001	-4.69907E-001	9	...........
	688	137.8	-4.80017E-001	-1.93155E-003	0.00000E+000	-4.79989E-001	-4.79911E-001	9	...........
	689	138	-4.90218E-001	-1.93572E-003	0.00000E+000	-4.89988E-001	-4.89915E-001	9	...........
	690	138.2	-5.00218E-001	-1.93922E-003	0.00000E+000	-4.99987E-001	-4.99918E-001	9	...........
	691	138.4	-5.10218E-001	-1.94322E-003	0.00000E+000	-5.09986E-001	-5.09922E-001	9	...........
	692	138.6	-5.20018E-001	-1.94639E-003	0.00000E+000	-5.19984E-001	-5.20126E-001	9	...........
	693	138.8	-5.30019E-001	-1.94989E-003	0.00000E+000	-5.29983E-001	-5.29930E-001	9	...........
	694	139	-5.40019E-001	-1.95389E-003	0.00000E+000	-5.39982E-001	-5.39933E-001	9	...........
	695	139.2	-5.50019E-001	-1.95689E-003	0.00000E+000	-5.49981E-001	-5.50137E-001	9	...........
	696	139.4	-5.60219E-001	-1.96106E-003	0.00000E+000	-5.59979E-001	-5.59941E-001	9	...........
	697	139.6	-5.70019E-001	-1.96423E-003	0.00000E+000	-5.69978E-001	-5.69944E-001	9	...........
	698	139.8	-5.80020E-001	-1.96806E-003	0.00000E+000	-5.79977E-001	-5.79948E-001	9	...........
	699	140	-5.90020E-001	-1.97206E-003	0.00000E+000	-5.89975E-001	-5.89952E-001	9	...........
	700	140.2	-6.00020E-001	-1.97573E-003	0.00000E+000	-5.99974E-001	-5.99955E-001	9	...........
	701	140.4	-6.09820E-001	-1.98023E-003	0.00000E+000	-6.09973E-001	-6.09759E-001	9	...........
	702	140.6	-6.20021E-001	-1.98590E-003	0.00000E+000	-6.20022E-001	-6.19963E-001	9	...........
	703	140.8	-6.30021E-001	-1.99007E-003	0.00000E+000	-6.30020E-001	-6.29766E-001	9	...........
	704	141	-6.40221E-001	-1.99540E-003	0.00000E+000	-6.40019E-001	-6.39970E-001	9	...........
	705	141.2	-6.50221E-001	-2.00090E-003	0.00000E+000	-6.50018E-001	-6.49974E-001	9	...........
	706	141.4	-6.60022E-001	-2.00690E-003	0.00000E+000	-6.60017E-001	-6.59978E-001	9	...........
	707	141.6	-6.70222E-001	-2.01357E-003	0.00000E+000	-6.70015E-001	-6.69981E-001	9	...........
	708	141.8	-6.80222E-001	-2.02057E-003	0.00000E+000	-6.80014E-001	-6.79785E-001	9	...........
	709	142	-6.90022E-001	-2.02941E-003	0.00000E+000	-6.90013E-001	-6.89789E-001	9	...........
	710	142.2	-7.00022E-001	-2.03774E-003	0.00000E+000	-7.00012E-001	-6.99992E-001	9	...........
	711	142.4	-7.10223E-001	-2.04858E-003	0.00000E+000	-7.10010E-001	-7.09796E-001	9	...........
	712	142.6	-7.19823E-001	-2.05958E-003	0.00000E+000	-7.20009E-001	-7.19800E-001	9	...........
	713	142.8	-7.30023E-001	-2.07158E-003	0.00000E+000	-7.30008E-001	-7.29803E-001	9	...........
	714	143	-7.39823E-001	-2.08559E-003	0.00000E+000	-7.40007E-001	-7.39807E-001	9	...........
	715	143.2	-7.49824E-001	-2.10042E-003	0.00000E+000	-7.50005E-001	-7.50011E-001	9	...........
	716	143.4	-7.60024E-001	-2.11693E-003	0.00000E+000	-7.60004E-001	-7.60015E-001	9	...........
	717	143.6	-7.69824E-001	-2.13527E-003	0.00000E+000	-7.70003E-001	-7.70018E-001	9	...........
	718	143.8	-7.79824E-001	-2.15494E-003	0.00000E+000	-7.80001E-001	-7.79822E-001	9	...........
	719	144	-7.89824E-001	-2.17744E-003	0.00000E+000	-7.90000E-001	-7.89825E-001	9	...........
	720	144.2	-8.00025E-001	-2.20161E-003	0.00000E+000	-7.99999E-001	-7.99829E-001	9	...........
	721	144.4	-7.89624E-001	-1.48178E-003	0.00000E+000	-7.90000E-001	-7.89825E-001	9	...........
	722	144.6	-7.79624E-001	-1.00101E-003	0.00000E+000	-7.80001E-001	-7.79822E-001	9	...........
	723	144.8	-7.69624E-001	-6.49595E-004	0.00000E+000	-7.70003E-001	-7.69818E-001	9	...........
	724	145	-7.59624E-001	-3.81201E-004	0.00000E+000	-7.60004E-001	-7.59814E-001	9	...........
	725	145.2	-7.49624E-001	-1.76661E-004	0.00000E+000	-7.50005E-001	-7.50011E-001	8	...........
	726	145.4	-7.39823E-001	-2.03150E-006	0.00000E+000	-7.40007E-001	-7.40007E-001	8	...........
	727	145.6	-7.29623E-001	5.47117E-005	0.00000E+000	-7.30008E-001	-7.30003E-001	7	....ih..i..
	728	145.8	-7.19823E-001	2.39812E-004	0.00000E+000	-7.20009E-001	-7.19800E-001	8	...........
	729	146	-7.09623E-001	3.47010E-004	0.00000E+000	-7.10010E-001	-7.09796E-001	8	...........
	730	146.2	-6.99822E-001	4.28932E-004	0.00000E+000	-7.00012E-001	-6.99992E-001	8	...........
	731	146.4	-6.89822E-001	4.99736E-004	0.00000E+000	-6.90013E-001	-6.89789E-001	8	...........
	732	146.6	-6.79622E-001	4.97666E-004	0.00000E+000	-6.80014E-001	-6.79985E-001	9	...........
	733	146.8	-6.69622E-001	6.15193E-004	0.00000E+000	-6.70015E-001	-6.69981E-001	9	...........
	734	147	-6.59822E-001	6.63204E-004	0.00000E+000	-6.60017E-001	-6.59978E-001	9	...........
	735	147.2	-6.49821E-001	7.06213E-004	0.00000E+000	-6.50018E-001	-6.49974E-001	9	...........
	736	147.4	-6.39821E-001	7.44722E-004	0.00000E+000	-6.40019E-001	-6.39770E-001	9	...........
	737	147.6	-6.29821E-001	7.80063E-004	0.00000E+000	-6.30020E-001	-6.29966E-001	9	...........
	738	147.8	-6.19821E-001	8.12404E-004	0.00000E+000	-6.20022E-001	-6.19763E-001	9	...........
	739	148	-6.09820E-001	8.43578E-004	0.00000E+000	-6.09973E-001	-6.09959E-001	9	...........
	740	148.2	-5.99820E-001	8.70751E-004	0.00000E+000	-5.99974E-001	-5.99755E-001	9	...........
	741	148.4	-5.89820E-001	8.96090E-004	0.00000E+000	-5.89975E-001	-5.89952E-001	9	...........
	742	148.6	-5.79820E-001	9.19929E-004	0.00000E+000	-5.79977E-001	-5.80148E-001	9	...........
	743	148.8	-5.69819E-001	9.42600E-004	0.00000E+000	-5.69978E-001	-5.69944E-001	9	...........
	744	149	-5.59819E-001	9.63772E-004	0.00000E+000	-5.59979E-001	-5.59941E-001	9	...........
	745	149.2	-5.49819E-001	9.84443E-004	0.00000E+000	-5.49981E-001	-5.49937E-001	9	...........
	746	149.4	-5.39819E-001	1.00361E-003	0.00000E+000	-5.39982E-001	-5.40133E-001	9	...........
	747	149.6	-5.29819E-001	1.02212E-003	0.00000E+000	-5.29983E-001	-5.29930E-001	9	...........
	748	149.8	-5.19818E-001	1.03996E-003	0.00000E+000	-5.19984E-001	-5.20126E-001	9	...........
	749	150	-5.09818E-001	1.05696E-003	0.00000E+000	-5.09986E-001	-5.09722E-001	9	...........
	750	150.2	-4.99618E-001	1.07380E-003	0.00000E+000	-4.99987E-001	-5.00118E-001	9	...........
	751	150.4	-4.89818E-001	1.08980E-003	0.00000E+000	-4.89988E-001	-4.90115E-001	9	...........
	752	150.6	-4.80017E-001	1.10547E-003	0.00000E+000	-4.79989E-001	-4.80111E-001	9	...........
	753	150.8	-4.70017E-001	1.12064E-003	0.00000E+000	-4.69991E-001	-4.70107E-001	9	...........
	754	151	-4.59817E-001	1.13514E-003	0.00000E+000	-4.59992E-001	-4.60104E-001	9	...........
	755	151.2	-4.49817E-001	1.14965E-003	0.00000E+000	-4.49993E-001	-4.49900E-001	9	...........
	756	151.4	-4.39817E-001	1.16315E-003	0.00000E+000	-4.39994E-001	-4.40096E-001	9	...........
	757	151.6	-4.29816E-001	1.17699E-003	0.00000E+000	-4.29996E-001	-4.29893E-001	9	...........
	758	151.8	-4.19816E-001	1.19032E-003	0.00000E+000	-4.19997E-001	-4.20089E-001	9	...........
	759	152	-4.09816E-001	1.20316E-003	0.00000E+000	-4.09998E-001	-4.10085E-001	9	...........
	760	152.2	-4.00016E-001	1.21583E-003	0.00000E+000	-3.99999E-001	-4.00081E-001	9	...........
	761	152.4	-3.89815E-001	1.22833E-003	0.00000E+000	-3.90001E-001	-3.90078E-001	9	...........
	762	152.6	-3.80015E-001	1.24083E-003	0.00000E+000	-3.80002E-001	-3.80074E-001	9	...........
	763	152.8	-3.69815E-001	1.25317E-003	0.00000E+000	-3.70003E-001	-3.70070E-001	9	...........
	764	153	-3.60015E-001	1.26484E-003	0.00000E+000	-3.60005E-001	-3.60267E-001	9	...........
	765	153.2	-3.50014E-001	1.27651E-003	0.00000E+000	-3.50006E-001	-3.50263E-001	9	...........
	766	153.4	-3.40014E-001	1.28818E-003	0.00000E+000	-3.40007E-001	-3.40259E-001	9	...........
	767	153.6	-3.29814E-001	1.29935E-003	0.00000E+000	-3.30008E-001	-3.30056E-001	9	...........
	768	153.8	-3.20014E-001	1.31085E-003	0.00000E+000	-3.20010E-001	-3.20052E-001	9	...........
	769	154	-3.10014E-001	1.32135E-003	0.00000E+000	-3.10011E-001	-3.10248E-001	9	...........
	770	154.2	-3.00013E-001	1.33236E-003	0.00000E+000	-3.00012E-001	-3.00245E-001	9	...........
	771	154.4	-2.89813E-001	1.34319E-003	0.00000E+000	-2.90013E-001	-2.90041E-001	9	...........
	772	154.6	-2.80013E-001	1.35336E-003	0.00000E+000	-2.80015E-001	-2.80437E-001	9	...........
	773	154.8	-2.70013E-001	1.36403E-003	0.00000E+000	-2.70016E-001	-2.70233E-001	9	...........
	774	155	-2.60212E-001	1.37403E-003	0.00000E+000	-2.60017E-001	-2.60230E-001	9	...........
	775	155.2	-2.49812E-001	1.38387E-003	0.00000E+000	-2.50018E-001	-2.50226E-001	9	...........
	776	155.4	-2.40012E-001	1.39354E-003	0.00000E+000	-2.40020E-001	-2.40022E-001	9	...........
	777	155.6	-2.30012E-001	1.40270E-003	0.00000E+000	-2.30021E-001	-2.30219E-001	9	...........
	778	155.8	-2.20211E-001	1.41187E-003	0.00000E+000	-2.20022E-001	-2.20415E-001	9	...........
	779	156	-2.10211E-001	1.42204E-003	0.00000E+000	-2.09973E-001	-2.10211E-001	9	...........
	780	156.2	-1.99811E-001	1.42971E-003	0.00000E+000	-1.99975E-001	-2.00408E-001	9	...........
	781	156.4	-1.90011E-001	1.43805E-003	0.00000E+000	-1.89976E-001	-1.90204E-001	9	...........
	782	156.6	-1.80211E-001	1.44588E-003	0.00000E+000	-1.79977E-001	-1.80200E-001	9	...........
	783	156.8	-1.70210E-001	1.45388E-003	0.00000E+000	-1.69979E-001	-1.70197E-001	9	...........
	784	157	-1.60010E-001	1.46088E-003	0.00000E+000	-1.59980E-001	-1.60193E-001	9	...........
	785	157.2	-1.50010E-001	1.46805E-003	0.00000E+000	-1.49981E-001	-1.50389E-001	9	...........
	786	157.4	-1.39810E-001	1.47505E-003	0.00000E+000	-1.39982E-001	-1.40385E-001	9	...........
	787	157.6	-1.30009E-001	1.48156E-003	0.00000E+000	-1.29984E-001	-1.30182E-001	9	...........
	788	157.8	-1.20009E-001	1.48839E-003	0.00000E+000	-1.19985E-001	-1.20178E-001	9	...........
	789	158	-1.10209E-001	1.49489E-003	0.00000E+000	-1.09986E-001	-1.10174E-001	9	...........
	790	158.2	-1.00209E-001	1.50073E-003	0.00000E+000	-9.99874E-002	-1.00371E-001	9	...........
	791	158.4	-9.02085E-002	1.50723E-003	0.00000E+000	-8.99886E-002	-9.03670E-002	9	...........
	792	158.6	-8.02083E-002	1.51256E-003	0.00000E+000	-7.99899E-002	-8.03633E-002	9	...........
	793	158.8	-7.00081E-002	1.51806E-003	0.00000E+000	-6.99912E-002	-7.03596E-002	9	...........
	794	159	-5.98078E-002	1.52340E-003	0.00000E+000	-5.99924E-002	-6.01558E-002	9	...........
	795	159.2	-5.00076E-002	1.52823E-003	0.00000E+000	-4.99937E-002	-5.03522E-002	9	...........
	796	159.4	-4.02074E-002	1.53357E-003	0.00000E+000	-3.99949E-002	-4.03485E-002	9	...........
	797	159.6	-3.02072E-002	1.53790E-003	0.00000E+000	-2.99962E-002	-3.03448E-002	9	...........
	798	159.8	-2.02069E-002	1.54207E-003	0.00000E+000	-1.99975E-002	-2.05412E-002	9	...........
	799	160	-1.00067E-002	1.54674E-003	0.00000E+000	-9.99874E-003	-1.05375E-002	9	...........
	800	160.2	-2.06485E-004	1.55074E-003	0.00000E+000	0.00000E+000	-5.33797E-004	9	...........
	801	160.4	9.99375E-003	1.55507E-003	0.00000E+000	9.99874E-003	9.46990E-003	9	...........
	802	160.6	1.99940E-002	1.55907E-003	0.00000E+000	1.99975E-002	1.94736E-002	9	...........
	803	160.8	2.97942E-002	1.56257E-003	0.00000E+000	2.99962E-002	2.94773E-002	9	...........
	804	161	3.97944E-002	1.56641E-003	0.00000E+000	3.99949E-002	3.94810E-002	9	...........
	805	161.2	4.99947E-002	1.56974E-003	0.00000E+000	4.99937E-002	4.94847E-002	9	...........
	806	161.4	5.95949E-002	1.57358E-003	0.00000E+000	5.99924E-002	5.94884E-002	9	...........
	807	161.6	6.97951E-002	1.57674E-003	0.00000E+000	6.99912E-002	6.92920E-002	9	...........
	808	161.8	7.97953E-002	1.58041E-003	0.00000E+000	7.99899E-002	7.94958E-002	9	...........
	809	162	8.97956E-002	1.58375E-003	0.00000E+000	8.99886E-002	8.94995E-002	9	...........
	810	162.2	9.97958E-002	1.58725E-003	0.00000E+000	9.99874E-002	9.95032E-002	9	...........
	811	162.4	1.09796E-001	1.59041E-003	0.00000E+000	1.09986E-001	1.09707E-001	9	...........
	812	162.6	1.19796E-001	1.59375E-003	0.00000E+000	1.19985E-001	1.19310E-001	9	...........
	813	162.8	1.29596E-001	1.59675E-003	0.00000E+000	1.29984E-001	1.29314E-001	9	...........
	814	163	1.39597E-001	1.60025E-003	0.00000E+000	1.39982E-001	1.39318E-001	9	...........
	815	163.2	1.49797E-001	1.60342E-003	0.00000E+000	1.49981E-001	1.49322E-001	9	...........
	816	163.4	1.59797E-001	1.60675E-003	0.00000E+000	1.59980E-001	1.59525E-001	9	...........
	817	163.6	1.69597E-001	1.60959E-003	0.00000E+000	1.69979E-001	1.69329E-001	9	...........
	818	163.8	1.79798E-001	1.61209E-003	0.00000E+000	1.79977E-001	1.79333E-001	9	...........
	819	164	1.89598E-001	1.61709E-003	0.00000E+000	1.90026E-001	1.89336E-001	9	...........
	820	164.2	1.99798E-001	1.61942E-003	0.00000E+000	2.00025E-001	1.99340E-001	9	...........
	821	164.4	2.09798E-001	1.62142E-003	0.00000E+000	2.10023E-001	2.09344E-001	9	...........
	822	164.6	2.19799E-001	1.62409E-003	0.00000E+000	2.20022E-001	2.19347E-001	9	...........
	823	164.8	2.29799E-001	1.62576E-003	0.00000E+000	2.30021E-001	2.29751E-001	9	...........
	824	165	2.39599E-001	1.62792E-003	0.00000E+000	2.40020E-001	2.39555E-001	9	...........
	825	165.2	2.49799E-001	1.62926E-003	0.00000E+000	2.50018E-001	2.49359E-001	9	...........
	826	165.4	2.59799E-001	1.63059E-003	0.00000E+000	2.60017E-001	2.59162E-001	9	...........
	827	165.6	2.69800E-001	1.63209E-003	0.00000E+000	2.70016E-001	2.69366E-001	9	...........
	828	165.8	2.79800E-001	1.63276E-003	0.00000E+000	2.80015E-001	2.79370E-001	9	...........
	829	166	2.89600E-001	1.63342E-003	0.00000E+000	2.90013E-001	2.89173E-001	9	...........
	830	166.2	2.99600E-001	1.63342E-003	0.00000E+000	3.00012E-001	2.99177E-001	9	...........
	831	166.4	3.09801E-001	1.63292E-003	0.00000E+000	3.10011E-001	3.09381E-001	9	...........
	832	166.6	3.19601E-001	1.63259E-003	0.00000E+000	3.20010E-001	3.19384E-001	9	...........
	833	166.8	3.29601E-001	1.63109E-003	0.00000E+000	3.30008E-001	3.29188E-001	9	...........
	834	167	3.39601E-001	1.62992E-003	0.00000E+000	3.40007E-001	3.39192E-001	9	...........
	835	167.2	3.49601E-001	1.62809E-003	0.00000E+000	3.50006E-001	3.49195E-001	9	...........
	836	167.4	3.59602E-001	1.62592E-003	0.00000E+000	3.60005E-001	3.59399E-001	9	...........
	837	167.6	3.69602E-001	1.62392E-003	0.00000E+000	3.70003E-001	3.69203E-001	9	...........
	838	167.8	3.79602E-001	1.62109E-003	0.00000E+000	3.80002E-001	3.79407E-001	9	...........
	839	168	3.89602E-001	1.61792E-003	0.00000E+000	3.90001E-001	3.89410E-001	9	...........
	840	168.2	3.99403E-001	1.61442E-003	0.00000E+000	3.99999E-001	3.99214E-001	9	...........
	841	168.4	4.09403E-001	1.61042E-003	0.00000E+000	4.09998E-001	4.09218E-001	9	...........
	842	168.6	4.19603E-001	1.60658E-003	0.00000E+000	4.19997E-001	4.19221E-001	9	...........
	843	168.8	4.29403E-001	1.60225E-003	0.00000E+000	4.29996E-001	4.29225E-001	9	...........
	844	169	4.39604E-001	1.59792E-003	0.00000E+000	4.39994E-001	4.39229E-001	9	...........
	845	169.2	4.49604E-001	1.59325E-003	0.00000E+000	4.49993E-001	4.49433E-001	9	...........
	846	169.4	4.59604E-001	1.58841E-003	0.00000E+000	4.59992E-001	4.59236E-001	9	...........
	847	169.6	4.69404E-001	1.58358E-003	0.00000E+000	4.69991E-001	4.69240E-001	9	...........
	848	169.8	4.79604E-001	1.57874E-003	0.00000E+000	4.79989E-001	4.79244E-001	9	...........
	849	170	4.89405E-001	1.57358E-003	0.00000E+000	4.89988E-001	4.89247E-001	9	...........
	850	170.2	4.99405E-001	1.56874E-003	0.00000E+000	4.99987E-001	4.99051E-001	9	...........
	851	170.4	5.09405E-001	1.56408E-003	0.00000E+000	5.09986E-001	5.09055E-001	9	...........
	852	170.6	5.19405E-001	1.55941E-003	0.00000E+000	5.19984E-001	5.18858E-001	9	...........
	853	170.8	5.29406E-001	1.55474E-003	0.00000E+000	5.29983E-001	5.29062E-001	9	...........
	854	171	5.39406E-001	1.55024E-003	0.00000E+000	5.39982E-001	5.39266E-001	9	...........
	855	171.2	5.49406E-001	1.54640E-003	0.00000E+000	5.49981E-001	5.49069E-001	9	...........
	856	171.4	5.59406E-001	1.54224E-003	0.00000E+000	5.59979E-001	5.59073E-001	9	...........
	857	171.6	5.69606E-001	1.53890E-003	0.00000E+000	5.69978E-001	5.69277E-001	9	...........
	858	171.8	5.79407E-001	1.53490E-003	0.00000E+000	5.79977E-001	5.79280E-001	9	...........
	859	172	5.89607E-001	1.53140E-003	0.00000E+000	5.89975E-001	5.89084E-001	9	...........
	860	172.2	5.99407E-001	1.52990E-003	0.00000E+000	6.00024E-001	5.99288E-001	9	...........
	861	172.4	6.09607E-001	1.52640E-003	0.00000E+000	6.10023E-001	6.08891E-001	9	...........
	862	172.6	6.19608E-001	1.52390E-003	0.00000E+000	6.20022E-001	6.18895E-001	9	...........
	863	172.8	6.29408E-001	1.52223E-003	0.00000E+000	6.30020E-001	6.29099E-001	9	...........
	864	173	6.39408E-001	1.51990E-003	0.00000E+000	6.40019E-001	6.38903E-001	9	...........
	865	173.2	6.49608E-001	1.51890E-003	0.00000E+000	6.50018E-001	6.49106E-001	9	...........
	866	173.4	6.59409E-001	1.51806E-003	0.00000E+000	6.60017E-001	6.58910E-001	9	...........
	867	173.6	6.69409E-001	1.51723E-003	0.00000E+000	6.70015E-001	6.69114E-001	9	...........
	868	173.8	6.79609E-001	1.51773E-003	0.00000E+000	6.80014E-001	6.79117E-001	9	...........
	869	174	6.89409E-001	1.51773E-003	0.00000E+000	6.90013E-001	6.88921E-001	9	...........
	870	174.2	6.99209E-001	1.51890E-003	0.00000E+000	7.00012E-001	6.99125E-001	9	...........
	871	174.4	7.09410E-001	1.52040E-003	0.00000E+000	7.10010E-001	7.08928E-001	9	...........
	872	174.6	7.19410E-001	1.52257E-003	0.00000E+000	7.20009E-001	7.19132E-001	9	...........
	873	174.8	7.29610E-001	1.52523E-003	0.00000E+000	7.30008E-001	7.28936E-001	9	...........
	874	175	7.39210E-001	1.52823E-003	0.00000E+000	7.40007E-001	7.38940E-001	9	...........
	875	175.2	7.49411E-001	1.53257E-003	0.00000E+000	7.50005E-001	7.48943E-001	9	...........
	876	175.4	7.59411E-001	1.53774E-003	0.00000E+000	7.60004E-001	7.58947E-001	9	...........
	877	175.6	7.69411E-001	1.54357E-003	0.00000E+000	7.70003E-001	7.68951E-001	9	...........
	878	175.8	7.79411E-001	1.55074E-003	0.00000E+000	7.80001E-001	7.78954E-001	9	...........
	879	176	7.89411E-001	1.55891E-003	0.00000E+000	7.90000E-001	7.88958E-001	9	...........
	880	176.2	7.99412E-001	1.56774E-003	0.00000E+000	7.99999E-001	7.98762E-001	9	...........
CURVE4	TABLE
	Pt	T	Vf	Im	Vu	Sig	Ach	IERange	Over
	#	s	V vs. Ref.	A	V	V	V	#	bits
	881	176.4	7.89011E-001	1.06479E-003	0.00000E+000	7.90000E-001	7.88958E-001	9	...........
	882	176.6	7.79011E-001	7.45889E-004	0.00000E+000	7.80001E-001	7.78954E-001	9	...........
	883	176.8	7.69211E-001	5.17004E-004	0.00000E+000	7.70003E-001	7.68951E-001	9	...........
	884	177	7.59211E-001	3.43964E-004	0.00000E+000	7.60004E-001	7.58947E-001	9	...........
	885	177.2	7.49211E-001	2.13350E-004	0.00000E+000	7.50005E-001	7.48943E-001	8	...........
	886	177.4	7.39010E-001	9.88728E-005	0.00000E+000	7.40007E-001	7.38940E-001	8	...........
	887	177.6	7.29010E-001	9.73845E-006	0.00000E+000	7.30008E-001	7.29136E-001	8	...........
	888	177.8	7.19210E-001	-5.47457E-005	0.00000E+000	7.20009E-001	7.18932E-001	7	........i..
	889	178	7.09210E-001	-1.23454E-004	0.00000E+000	7.10010E-001	7.08928E-001	8	...........
	890	178.2	6.99209E-001	-1.82788E-004	0.00000E+000	7.00012E-001	6.98925E-001	8	...........
	891	178.4	6.89209E-001	-2.30652E-004	0.00000E+000	6.90013E-001	6.89121E-001	8	...........
	892	178.6	6.79209E-001	-2.72757E-004	0.00000E+000	6.80014E-001	6.78917E-001	8	...........
	893	178.8	6.69209E-001	-3.10721E-004	0.00000E+000	6.70015E-001	6.69114E-001	8	...........
	894	179	6.59208E-001	-3.45096E-004	0.00000E+000	6.60017E-001	6.59110E-001	8	...........
	895	179.2	6.49008E-001	-3.76767E-004	0.00000E+000	6.50018E-001	6.49106E-001	8	...........
	896	179.4	6.39008E-001	-4.06484E-004	0.00000E+000	6.40019E-001	6.39303E-001	8	...........
	897	179.6	6.29208E-001	-4.34097E-004	0.00000E+000	6.30020E-001	6.29099E-001	8	...........
	898	179.8	6.19208E-001	-4.60509E-004	0.00000E+000	6.20022E-001	6.19295E-001	8	...........
	899	180	6.09007E-001	-4.24877E-004	0.00000E+000	6.10023E-001	6.09092E-001	9	...........
	900	180.2	5.99207E-001	-5.09563E-004	0.00000E+000	6.00024E-001	5.99088E-001	9	...........
	901	180.4	5.89207E-001	-5.34235E-004	0.00000E+000	5.89975E-001	5.89084E-001	9	...........
	902	180.6	5.79207E-001	-5.56240E-004	0.00000E+000	5.79977E-001	5.79080E-001	9	...........
	903	180.8	5.69206E-001	-5.78412E-004	0.00000E+000	5.69978E-001	5.69277E-001	9	...........
	904	181	5.59206E-001	-6.00417E-004	0.00000E+000	5.59979E-001	5.58873E-001	9	...........
	905	181.2	5.49206E-001	-6.21922E-004	0.00000E+000	5.49981E-001	5.49269E-001	9	...........
	906	181.4	5.39406E-001	-6.43093E-004	0.00000E+000	5.39982E-001	5.39066E-001	9	...........
	907	181.6	5.29206E-001	-6.63765E-004	0.00000E+000	5.29983E-001	5.29062E-001	9	...........
	908	181.8	5.19205E-001	-6.84603E-004	0.00000E+000	5.19984E-001	5.19058E-001	9	...........
	909	182	5.09005E-001	-7.04941E-004	0.00000E+000	5.09986E-001	5.09055E-001	9	...........
	910	182.2	4.99205E-001	-7.25112E-004	0.00000E+000	4.99987E-001	4.99051E-001	9	...........
	911	182.4	4.89005E-001	-7.45117E-004	0.00000E+000	4.89988E-001	4.89247E-001	9	...........
	912	182.6	4.79204E-001	-7.64954E-004	0.00000E+000	4.79989E-001	4.79244E-001	9	...........
	913	182.8	4.69204E-001	-7.84292E-004	0.00000E+000	4.69991E-001	4.69240E-001	9	...........
	914	183	4.59204E-001	-8.03797E-004	0.00000E+000	4.59992E-001	4.59036E-001	9	...........
	915	183.2	4.49204E-001	-8.22968E-004	0.00000E+000	4.49993E-001	4.49232E-001	9	...........
	916	183.4	4.39404E-001	-8.42139E-004	0.00000E+000	4.39994E-001	4.39229E-001	9	...........
	917	183.6	4.29203E-001	-8.61143E-004	0.00000E+000	4.29996E-001	4.29225E-001	9	...........
	918	183.8	4.19203E-001	-8.79981E-004	0.00000E+000	4.19997E-001	4.19021E-001	9	...........
	919	184	4.09203E-001	-8.98652E-004	0.00000E+000	4.09998E-001	4.09218E-001	9	...........
	920	184.2	3.99203E-001	-9.16656E-004	0.00000E+000	3.99999E-001	3.99214E-001	9	...........
	921	184.4	3.89402E-001	-9.35326E-004	0.00000E+000	3.90001E-001	3.89410E-001	9	...........
	922	184.6	3.79202E-001	-9.52997E-004	0.00000E+000	3.80002E-001	3.79207E-001	9	...........
	923	184.8	3.69402E-001	-9.71335E-004	0.00000E+000	3.70003E-001	3.69203E-001	9	...........
	924	185	3.59402E-001	-9.89506E-004	0.00000E+000	3.60005E-001	3.59199E-001	9	...........
	925	185.2	3.49201E-001	-1.00701E-003	0.00000E+000	3.50006E-001	3.49195E-001	9	...........
	926	185.4	3.39401E-001	-1.02451E-003	0.00000E+000	3.40007E-001	3.39392E-001	9	...........
	927	185.6	3.29401E-001	-1.04202E-003	0.00000E+000	3.30008E-001	3.29188E-001	9	...........
	928	185.8	3.19401E-001	-1.05919E-003	0.00000E+000	3.20010E-001	3.19184E-001	9	...........
	929	186	3.09601E-001	-1.07636E-003	0.00000E+000	3.10011E-001	3.09381E-001	9	...........
	930	186.2	2.99200E-001	-1.09286E-003	0.00000E+000	3.00012E-001	2.99377E-001	9	...........
	931	186.4	2.89200E-001	-1.10937E-003	0.00000E+000	2.90013E-001	2.89373E-001	9	...........
	932	186.6	2.79400E-001	-1.12604E-003	0.00000E+000	2.80015E-001	2.79170E-001	9	...........
	933	186.8	2.69400E-001	-1.14187E-003	0.00000E+000	2.70016E-001	2.69366E-001	9	...........
	934	187	2.59199E-001	-1.15788E-003	0.00000E+000	2.60017E-001	2.59362E-001	9	...........
	935	187.2	2.49399E-001	-1.17371E-003	0.00000E+000	2.50018E-001	2.49359E-001	9	...........
	936	187.4	2.39399E-001	-1.18905E-003	0.00000E+000	2.40020E-001	2.39355E-001	9	...........
	937	187.6	2.29399E-001	-1.20455E-003	0.00000E+000	2.30021E-001	2.29351E-001	9	...........
	938	187.8	2.19399E-001	-1.21922E-003	0.00000E+000	2.20022E-001	2.19347E-001	9	...........
	939	188	2.09398E-001	-1.23423E-003	0.00000E+000	2.10023E-001	2.09544E-001	9	...........
	940	188.2	1.99198E-001	-1.24823E-003	0.00000E+000	2.00025E-001	1.99540E-001	9	...........
	941	188.4	1.89798E-001	-1.26273E-003	0.00000E+000	1.90026E-001	1.89336E-001	9	...........
	942	188.6	1.79398E-001	-1.27840E-003	0.00000E+000	1.79977E-001	1.79533E-001	9	...........
	943	188.8	1.69397E-001	-1.29124E-003	0.00000E+000	1.69979E-001	1.69329E-001	9	...........
	944	189	1.59397E-001	-1.30491E-003	0.00000E+000	1.59980E-001	1.59525E-001	9	...........
	945	189.2	1.49397E-001	-1.31825E-003	0.00000E+000	1.49981E-001	1.49122E-001	9	...........
	946	189.4	1.39597E-001	-1.33175E-003	0.00000E+000	1.39982E-001	1.39518E-001	9	...........
	947	189.6	1.29196E-001	-1.34525E-003	0.00000E+000	1.29984E-001	1.29514E-001	9	...........
	948	189.8	1.19596E-001	-1.35809E-003	0.00000E+000	1.19985E-001	1.19310E-001	9	...........
	949	190	1.09396E-001	-1.37059E-003	0.00000E+000	1.09986E-001	1.09507E-001	9	...........
	950	190.2	9.93958E-002	-1.38360E-003	0.00000E+000	9.99874E-002	9.93031E-002	9	...........
	951	190.4	8.93956E-002	-1.39576E-003	0.00000E+000	8.99886E-002	8.92994E-002	9	...........
	952	190.6	7.93953E-002	-1.40877E-003	0.00000E+000	7.99899E-002	7.96959E-002	9	...........
	953	190.8	6.95951E-002	-1.42110E-003	0.00000E+000	6.99912E-002	6.92920E-002	9	...........
	954	191	5.93949E-002	-1.43361E-003	0.00000E+000	5.99924E-002	5.94884E-002	9	...........
	955	191.2	4.95946E-002	-1.44611E-003	0.00000E+000	4.99937E-002	4.94847E-002	9	...........
	956	191.4	3.95944E-002	-1.45845E-003	0.00000E+000	3.99949E-002	3.96811E-002	9	...........
	957	191.6	2.95942E-002	-1.47095E-003	0.00000E+000	2.99962E-002	2.94773E-002	9	...........
	958	191.8	1.95940E-002	-1.48295E-003	0.00000E+000	1.99975E-002	1.96737E-002	9	...........
	959	192	9.59374E-003	-1.49545E-003	0.00000E+000	9.99874E-003	9.66997E-003	9	...........
	960	192.2	-4.06489E-004	-1.50762E-003	0.00000E+000	0.00000E+000	-3.33723E-004	9	...........
