EXPLAIN
TAG	PWR800_CHARGE
TITLE	LABEL	PWR Cyclic Charge Discharge (Cell) - Charge Step	Test &Identifier
DATE	LABEL	7-7-2017	Date
TIME	LABEL	16:20:07	Time
NOTES	NOTES	3	&Notes...
	supercap test cell
	2.8mg
	6M KOH
PSTAT	PSTAT	IFC5000-01520	Potentiostat
CAPACITY	QUANT	1.00000E-003	Capacity (A-hr)
CELLTYPE	SELECTOR	1	&Cell Type
WORKINGCONNECTION	SELECTOR	0	&Working Lead
MAXCHARGETIME	VARIABLEANDUNITS	1.00000E+002	s	1.00000E+002	second(s)	Max &Charge Time
CHARGECURRENT	QUANT	2.80000E-004	&Charge Current (A) 
VOLTAGEFINISH	TWOPARAM	F	1.00000E-003	3.60000E+003	&Voltage Finish	 I (A) < 	Max Time(s)
SAMPLETIME	QUANT	1.00000E-002	Sa&mple Period (s)
CHARGESTOPAT1	MULTIPARAM	4	1.00000E+000	Charge Stop At &1	Voltage > Limit	V
CHARGESTOPAT2	MULTIPARAM	0	0.00000E+000	Charge Stop At &2	None	N/A
AESBHCSELECTOR	TOGGLE	F	Save Both Half Cells
IRCOMP	TOGGLE	F	IR &Measure
EOC	QUANT	0	Open Circuit (V)
SEQUENCER	TOGGLE	TRUE	Run as Sequence
PSTATMODEL	IQUANT	53	Pstat Model
PSTATSECTION	LABEL	IFC5000-01520	Pstat Section
PSTATSERIALNO	LABEL	01520	Pstat Serial Number
CTRLMODE	IQUANT	0	Control Mode
ELECTROMETER	IQUANT	1	RE=0 or CS=1
IESTAB	IQUANT	0	I/E Stability
CASPEED	IQUANT	4	Control Amp Speed
CONVENTION	IQUANT	1	Current Convention
ICHRANGE	IQUANT	2	Ich Range
ICHRANGEMODE	TOGGLE	T	Ich Auto Range
ICHOFFSETENABLE	TOGGLE	F	Ich Offset Enable
ICHOFFSET	QUANT	0	Ich Offset (V)
ICHFILTER	IQUANT	1	Ich Filter
VCHRANGE	IQUANT	2	Vch Range
VCHRANGEMODE	TOGGLE	T	Vch Auto Range
VCHOFFSETENABLE	TOGGLE	F	Vch Offset Enable
VCHOFFSET	QUANT	0	Vch Offset (V)
VCHFILTER	IQUANT	1	Vch Filter
IERANGELOWERLIMIT	IQUANT	9	I/E Range Lower Limit
IERANGEMODE	TOGGLE	F	I/E AutoRange
IERANGE	IQUANT	9	I/E Range
ACHSELECT	IQUANT	1	Ach Select
ACHRANGE	IQUANT	2	Ach Range
ACHOFFSETENABLE	TOGGLE	F	Ach Offset Enable
ACHOFFSET	QUANT	0	Ach Offset (V)
ACHFILTER	IQUANT	1	Ach Filter
CABLEID	IQUANT	14	Cable ID
DCCALDATE	LABEL	5-7-2017	DC Calibration Date
ACCALDATE	LABEL	12/3/2015	AC Calibration Date
FRAMEWORKVERSION	QUANT	7.01	Framework Version
INSTRUMENTVERSION	LABEL	4.00	Instrument Version
CURVE	TABLE	60
	Pt	T	Vf	Im	Vu	Pwr	Sig	Ach	Temp	IERange	Over
	#	s	V	A	V	W	V	V	deg C	#	bits
	0	0.013333	6.10249E-001	2.81395E-004	0.00000E+000	1.71721E-004	1.68088E-001	6.10520E-001	3.57880E+000	9	...........
	1	0.026667	6.40686E-001	2.80393E-004	0.00000E+000	1.79644E-004	1.68088E-001	6.40931E-001	3.57880E+000	9	...........
	2	0.04	6.66850E-001	2.80630E-004	0.00000E+000	1.87138E-004	1.68088E-001	6.67094E-001	3.57880E+000	9	...........
	3	0.053333	6.89908E-001	2.81314E-004	0.00000E+000	1.94081E-004	1.68088E-001	6.90154E-001	3.57880E+000	9	...........
	4	0.066667	7.10524E-001	2.80125E-004	0.00000E+000	1.99036E-004	1.68088E-001	7.10793E-001	3.57880E+000	9	...........
	5	0.08	7.29191E-001	2.81473E-004	0.00000E+000	2.05248E-004	1.68088E-001	7.29451E-001	3.57880E+000	9	...........
	6	0.093333	7.46157E-001	2.81362E-004	0.00000E+000	2.09940E-004	1.68088E-001	7.46424E-001	3.57880E+000	9	...........
	7	0.106667	7.61697E-001	2.80544E-004	0.00000E+000	2.13689E-004	1.68088E-001	7.61967E-001	3.57880E+000	9	...........
	8	0.12	7.75991E-001	2.81888E-004	0.00000E+000	2.18742E-004	1.68088E-001	7.76274E-001	3.57880E+000	9	...........
	9	0.133333	7.89208E-001	2.80906E-004	0.00000E+000	2.21694E-004	1.68088E-001	7.89460E-001	3.57880E+000	9	...........
	10	0.146667	8.01410E-001	2.79850E-004	0.00000E+000	2.24275E-004	1.68088E-001	8.01683E-001	3.57880E+000	9	...........
	11	0.16	8.12737E-001	2.81321E-004	0.00000E+000	2.28640E-004	1.68088E-001	8.13046E-001	3.57880E+000	9	...........
	12	0.173333	8.23302E-001	2.81206E-004	0.00000E+000	2.31518E-004	1.68088E-001	8.23597E-001	3.57880E+000	9	...........
	13	0.186667	8.33077E-001	2.81155E-004	0.00000E+000	2.34224E-004	1.68088E-001	8.33392E-001	3.57880E+000	9	...........
	14	0.2	8.42243E-001	2.81460E-004	0.00000E+000	2.37057E-004	1.68088E-001	8.42571E-001	3.57880E+000	9	...........
	15	0.213333	8.50812E-001	2.81631E-004	0.00000E+000	2.39615E-004	1.68088E-001	8.51158E-001	3.57880E+000	9	...........
	16	0.226667	8.58843E-001	2.80182E-004	0.00000E+000	2.40633E-004	1.68088E-001	8.59186E-001	3.57880E+000	9	...........
	17	0.24	8.66375E-001	2.81078E-004	0.00000E+000	2.43519E-004	1.68088E-001	8.66733E-001	3.57880E+000	9	...........
	18	0.253333	8.73470E-001	2.79901E-004	0.00000E+000	2.44485E-004	1.68088E-001	8.73824E-001	3.57880E+000	9	...........
	19	0.266667	8.80102E-001	2.82137E-004	0.00000E+000	2.48309E-004	1.68088E-001	8.80454E-001	3.57880E+000	9	...........
	20	0.28	8.86387E-001	2.80821E-004	0.00000E+000	2.48916E-004	1.68088E-001	8.86683E-001	3.57880E+000	9	...........
	21	0.293333	8.92256E-001	2.80880E-004	0.00000E+000	2.50617E-004	1.68088E-001	8.92588E-001	3.57880E+000	9	...........
	22	0.306667	8.97818E-001	2.82038E-004	0.00000E+000	2.53219E-004	1.68088E-001	8.98179E-001	3.57880E+000	9	...........
	23	0.32	9.03098E-001	2.80736E-004	0.00000E+000	2.53532E-004	1.68088E-001	9.03454E-001	3.57880E+000	9	...........
	24	0.333333	9.08068E-001	2.81958E-004	0.00000E+000	2.56037E-004	1.68088E-001	9.08434E-001	3.57880E+000	9	...........
	25	0.346667	9.12853E-001	2.80807E-004	0.00000E+000	2.56336E-004	1.68088E-001	9.13204E-001	3.57880E+000	9	...........
	26	0.36	9.17329E-001	2.81724E-004	0.00000E+000	2.58434E-004	1.68088E-001	9.17687E-001	3.57880E+000	9	...........
	27	0.373333	9.21625E-001	2.82184E-004	0.00000E+000	2.60067E-004	1.68088E-001	9.21967E-001	3.57880E+000	9	...........
	28	0.386667	9.25736E-001	2.82311E-004	0.00000E+000	2.61345E-004	1.68088E-001	9.26043E-001	3.57880E+000	9	...........
	29	0.4	9.29614E-001	2.80608E-004	0.00000E+000	2.60857E-004	1.68088E-001	9.29918E-001	3.57880E+000	9	...........
	30	0.413333	9.33350E-001	2.80891E-004	0.00000E+000	2.62169E-004	1.68088E-001	9.33673E-001	3.57880E+000	9	...........
	31	0.426667	9.36895E-001	2.82385E-004	0.00000E+000	2.64565E-004	1.68088E-001	9.37236E-001	3.57880E+000	9	...........
	32	0.44	9.40308E-001	2.80795E-004	0.00000E+000	2.64034E-004	1.68088E-001	9.40649E-001	3.57880E+000	9	...........
	33	0.453333	9.43548E-001	2.80727E-004	0.00000E+000	2.64880E-004	1.68088E-001	9.43918E-001	3.57880E+000	9	...........
	34	0.466667	9.46680E-001	2.80514E-004	0.00000E+000	2.65557E-004	1.68088E-001	9.47049E-001	3.57880E+000	9	...........
	35	0.48	9.49714E-001	2.81594E-004	0.00000E+000	2.67434E-004	1.68088E-001	9.50041E-001	3.57880E+000	9	...........
	36	0.493333	9.52585E-001	2.83227E-004	0.00000E+000	2.69797E-004	1.68088E-001	9.52918E-001	3.57880E+000	9	...........
	37	0.506667	9.55381E-001	2.79449E-004	0.00000E+000	2.66980E-004	1.68088E-001	9.55719E-001	3.57880E+000	9	...........
	38	0.52	9.58092E-001	2.80596E-004	0.00000E+000	2.68837E-004	1.68088E-001	9.58433E-001	3.57874E+000	9	...........
	39	0.533333	9.60687E-001	2.81688E-004	0.00000E+000	2.70614E-004	1.68088E-001	9.61049E-001	3.57830E+000	9	...........
	40	0.546667	9.63165E-001	2.81363E-004	0.00000E+000	2.70999E-004	1.68088E-001	9.63528E-001	3.57830E+000	9	...........
	41	0.56	9.65583E-001	2.81911E-004	0.00000E+000	2.72208E-004	1.68088E-001	9.65958E-001	3.57830E+000	9	...........
	42	0.573333	9.67925E-001	2.81151E-004	0.00000E+000	2.72133E-004	1.68088E-001	9.68293E-001	3.57830E+000	9	...........
	43	0.586667	9.70197E-001	2.80501E-004	0.00000E+000	2.72142E-004	1.68088E-001	9.70555E-001	3.57830E+000	9	...........
	44	0.6	9.72440E-001	2.80714E-004	0.00000E+000	2.72977E-004	1.68088E-001	9.72818E-001	3.57830E+000	9	...........
	45	0.613333	9.74627E-001	2.82384E-004	0.00000E+000	2.75219E-004	1.68088E-001	9.74976E-001	3.57830E+000	9	...........
	46	0.626667	9.76725E-001	2.80776E-004	0.00000E+000	2.74241E-004	1.68088E-001	9.77069E-001	3.57830E+000	9	...........
	47	0.64	9.78722E-001	2.82219E-004	0.00000E+000	2.76214E-004	1.68088E-001	9.79096E-001	3.57830E+000	9	...........
	48	0.653333	9.80706E-001	2.80435E-004	0.00000E+000	2.75025E-004	1.68088E-001	9.81041E-001	3.57830E+000	9	...........
	49	0.666667	9.82632E-001	2.79830E-004	0.00000E+000	2.74970E-004	1.68088E-001	9.82979E-001	3.57830E+000	9	...........
	50	0.68	9.84499E-001	2.81453E-004	0.00000E+000	2.77091E-004	1.68088E-001	9.84857E-001	3.57830E+000	9	...........
	51	0.693333	9.86351E-001	2.82024E-004	0.00000E+000	2.78175E-004	1.68088E-001	9.86726E-001	3.57830E+000	9	...........
	52	0.706667	9.88135E-001	2.82012E-004	0.00000E+000	2.78666E-004	1.68088E-001	9.88492E-001	3.57830E+000	9	...........
	53	0.72	9.89891E-001	2.81933E-004	0.00000E+000	2.79083E-004	1.68088E-001	9.90247E-001	3.57830E+000	9	...........
	54	0.733333	9.91578E-001	2.81958E-004	0.00000E+000	2.79583E-004	1.68088E-001	9.91961E-001	3.57830E+000	9	...........
	55	0.746667	9.93282E-001	2.81956E-004	0.00000E+000	2.80062E-004	1.68088E-001	9.93661E-001	3.57830E+000	9	...........
	56	0.76	9.94953E-001	2.81671E-004	0.00000E+000	2.80250E-004	1.68088E-001	9.95311E-001	3.57830E+000	9	...........
	57	0.773333	9.96551E-001	2.80671E-004	0.00000E+000	2.79703E-004	1.68088E-001	9.96932E-001	3.57830E+000	9	...........
	58	0.786667	9.98193E-001	2.81398E-004	0.00000E+000	2.80890E-004	1.68088E-001	9.98572E-001	3.57830E+000	9	...........
	59	0.796667	9.99586E-001	2.80649E-004	0.00000E+000	2.80533E-004	1.68088E-001	9.99969E-001	3.57830E+000	9	...........
STARTTIMEOFFSET	QUANT	1927.552	Start Time Offset (s)
