EXPLAIN
TAG	PWR800_CHARGE
TITLE	LABEL	PWR Cyclic Charge Discharge (Cell) - Charge Step	Test &Identifier
DATE	LABEL	7-7-2017	Date
TIME	LABEL	16:09:16	Time
NOTES	NOTES	3	&Notes...
	supercap test cell
	2.8mg
	6M KOH
PSTAT	PSTAT	IFC5000-01520	Potentiostat
CAPACITY	QUANT	1.00000E-003	Capacity (A-hr)
CELLTYPE	SELECTOR	1	&Cell Type
WORKINGCONNECTION	SELECTOR	0	&Working Lead
MAXCHARGETIME	VARIABLEANDUNITS	1.00000E+002	s	1.00000E+002	second(s)	Max &Charge Time
CHARGECURRENT	QUANT	2.80000E-004	&Charge Current (A) 
VOLTAGEFINISH	TWOPARAM	F	1.00000E-003	3.60000E+003	&Voltage Finish	 I (A) < 	Max Time(s)
SAMPLETIME	QUANT	1.00000E-002	Sa&mple Period (s)
CHARGESTOPAT1	MULTIPARAM	4	1.00000E+000	Charge Stop At &1	Voltage > Limit	V
CHARGESTOPAT2	MULTIPARAM	0	0.00000E+000	Charge Stop At &2	None	N/A
AESBHCSELECTOR	TOGGLE	F	Save Both Half Cells
IRCOMP	TOGGLE	F	IR &Measure
EOC	QUANT	0	Open Circuit (V)
SEQUENCER	TOGGLE	TRUE	Run as Sequence
PSTATMODEL	IQUANT	53	Pstat Model
PSTATSECTION	LABEL	IFC5000-01520	Pstat Section
PSTATSERIALNO	LABEL	01520	Pstat Serial Number
CTRLMODE	IQUANT	0	Control Mode
ELECTROMETER	IQUANT	1	RE=0 or CS=1
IESTAB	IQUANT	0	I/E Stability
CASPEED	IQUANT	4	Control Amp Speed
CONVENTION	IQUANT	1	Current Convention
ICHRANGE	IQUANT	2	Ich Range
ICHRANGEMODE	TOGGLE	T	Ich Auto Range
ICHOFFSETENABLE	TOGGLE	F	Ich Offset Enable
ICHOFFSET	QUANT	0	Ich Offset (V)
ICHFILTER	IQUANT	1	Ich Filter
VCHRANGE	IQUANT	2	Vch Range
VCHRANGEMODE	TOGGLE	T	Vch Auto Range
VCHOFFSETENABLE	TOGGLE	F	Vch Offset Enable
VCHOFFSET	QUANT	0	Vch Offset (V)
VCHFILTER	IQUANT	1	Vch Filter
IERANGELOWERLIMIT	IQUANT	9	I/E Range Lower Limit
IERANGEMODE	TOGGLE	F	I/E AutoRange
IERANGE	IQUANT	9	I/E Range
ACHSELECT	IQUANT	1	Ach Select
ACHRANGE	IQUANT	2	Ach Range
ACHOFFSETENABLE	TOGGLE	F	Ach Offset Enable
ACHOFFSET	QUANT	0	Ach Offset (V)
ACHFILTER	IQUANT	1	Ach Filter
CABLEID	IQUANT	14	Cable ID
DCCALDATE	LABEL	5-7-2017	DC Calibration Date
ACCALDATE	LABEL	12/3/2015	AC Calibration Date
FRAMEWORKVERSION	QUANT	7.01	Framework Version
INSTRUMENTVERSION	LABEL	4.00	Instrument Version
CURVE	TABLE	69
	Pt	T	Vf	Im	Vu	Pwr	Sig	Ach	Temp	IERange	Over
	#	s	V	A	V	W	V	V	deg C	#	bits
	0	0.013333	6.00111E-001	2.80912E-004	0.00000E+000	1.68578E-004	1.68088E-001	6.00386E-001	3.57870E+000	9	...........
	1	0.026667	6.30398E-001	2.81403E-004	0.00000E+000	1.77396E-004	1.68088E-001	6.30671E-001	3.57870E+000	9	...........
	2	0.04	6.56317E-001	2.82676E-004	0.00000E+000	1.85525E-004	1.68088E-001	6.56557E-001	3.57870E+000	9	...........
	3	0.053333	6.79040E-001	2.81652E-004	0.00000E+000	1.91253E-004	1.68088E-001	6.79285E-001	3.57870E+000	9	...........
	4	0.066667	6.99246E-001	2.81446E-004	0.00000E+000	1.96800E-004	1.68088E-001	6.99500E-001	3.57870E+000	9	...........
	5	0.08	7.17497E-001	2.80561E-004	0.00000E+000	2.01301E-004	1.68088E-001	7.17740E-001	3.57870E+000	9	...........
	6	0.093333	7.34044E-001	2.82288E-004	0.00000E+000	2.07212E-004	1.68088E-001	7.34294E-001	3.57870E+000	9	...........
	7	0.106667	7.49213E-001	2.81515E-004	0.00000E+000	2.10915E-004	1.68088E-001	7.49466E-001	3.57870E+000	9	...........
	8	0.12	7.63115E-001	2.80360E-004	0.00000E+000	2.13947E-004	1.68088E-001	7.63392E-001	3.57870E+000	9	...........
	9	0.133333	7.75972E-001	2.81390E-004	0.00000E+000	2.18351E-004	1.68088E-001	7.76262E-001	3.57870E+000	9	...........
	10	0.146667	7.87866E-001	2.81196E-004	0.00000E+000	2.21545E-004	1.68088E-001	7.88154E-001	3.57870E+000	9	...........
	11	0.16	7.98919E-001	2.81830E-004	0.00000E+000	2.25159E-004	1.68088E-001	7.99196E-001	3.57870E+000	9	...........
	12	0.173333	8.09179E-001	2.83019E-004	0.00000E+000	2.29013E-004	1.68088E-001	8.09467E-001	3.57870E+000	9	...........
	13	0.186667	8.18780E-001	2.82541E-004	0.00000E+000	2.31339E-004	1.68088E-001	8.19066E-001	3.57870E+000	9	...........
	14	0.2	8.27726E-001	2.82002E-004	0.00000E+000	2.33421E-004	1.68088E-001	8.27996E-001	3.57870E+000	9	...........
	15	0.213333	8.36103E-001	2.80223E-004	0.00000E+000	2.34295E-004	1.68088E-001	8.36344E-001	3.57870E+000	9	...........
	16	0.226667	8.43955E-001	2.81578E-004	0.00000E+000	2.37639E-004	1.68088E-001	8.44225E-001	3.57870E+000	9	...........
	17	0.24	8.51330E-001	2.80738E-004	0.00000E+000	2.39000E-004	1.68088E-001	8.51617E-001	3.57870E+000	9	...........
	18	0.253333	8.58279E-001	2.81170E-004	0.00000E+000	2.41322E-004	1.68088E-001	8.58577E-001	3.57870E+000	9	...........
	19	0.266667	8.64855E-001	2.80814E-004	0.00000E+000	2.42863E-004	1.68088E-001	8.65169E-001	3.57870E+000	9	...........
	20	0.28	8.71072E-001	2.80730E-004	0.00000E+000	2.44536E-004	1.68088E-001	8.71357E-001	3.57870E+000	9	...........
	21	0.293333	8.76897E-001	2.80890E-004	0.00000E+000	2.46311E-004	1.68088E-001	8.77183E-001	3.57870E+000	9	...........
	22	0.306667	8.82465E-001	2.82175E-004	0.00000E+000	2.49010E-004	1.68088E-001	8.82747E-001	3.57870E+000	9	...........
	23	0.32	8.87703E-001	2.81844E-004	0.00000E+000	2.50194E-004	1.68088E-001	8.87999E-001	3.57870E+000	9	...........
	24	0.333333	8.92688E-001	2.80229E-004	0.00000E+000	2.50157E-004	1.68088E-001	8.93000E-001	3.57870E+000	9	...........
	25	0.346667	8.97421E-001	2.80475E-004	0.00000E+000	2.51704E-004	1.68088E-001	8.97759E-001	3.57870E+000	9	...........
	26	0.36	9.01916E-001	2.80121E-004	0.00000E+000	2.52645E-004	1.68088E-001	9.02275E-001	3.57870E+000	9	...........
	27	0.373333	9.06256E-001	2.80618E-004	0.00000E+000	2.54312E-004	1.68088E-001	9.06600E-001	3.57870E+000	9	...........
	28	0.386667	9.10343E-001	2.82145E-004	0.00000E+000	2.56849E-004	1.68088E-001	9.10663E-001	3.57870E+000	9	...........
	29	0.4	9.14254E-001	2.81619E-004	0.00000E+000	2.57471E-004	1.68088E-001	9.14570E-001	3.57870E+000	9	...........
	30	0.413333	9.17994E-001	2.81770E-004	0.00000E+000	2.58663E-004	1.68088E-001	9.18313E-001	3.57870E+000	9	...........
	31	0.426667	9.21652E-001	2.81991E-004	0.00000E+000	2.59898E-004	1.68088E-001	9.21942E-001	3.57870E+000	9	...........
	32	0.44	9.25096E-001	2.80792E-004	0.00000E+000	2.59759E-004	1.68088E-001	9.25398E-001	3.57870E+000	9	...........
	33	0.453333	9.28403E-001	2.80397E-004	0.00000E+000	2.60321E-004	1.68088E-001	9.28733E-001	3.57870E+000	9	...........
	34	0.466667	9.31558E-001	2.81183E-004	0.00000E+000	2.61938E-004	1.68088E-001	9.31900E-001	3.57870E+000	9	...........
	35	0.48	9.34629E-001	2.81552E-004	0.00000E+000	2.63147E-004	1.68088E-001	9.34985E-001	3.57870E+000	9	...........
	36	0.493333	9.37600E-001	2.81797E-004	0.00000E+000	2.64213E-004	1.68088E-001	9.37966E-001	3.57870E+000	9	...........
	37	0.506667	9.40460E-001	2.80663E-004	0.00000E+000	2.63952E-004	1.68088E-001	9.40834E-001	3.57870E+000	9	...........
	38	0.52	9.43224E-001	2.82374E-004	0.00000E+000	2.66342E-004	1.68088E-001	9.43595E-001	3.57870E+000	9	...........
	39	0.533333	9.45901E-001	2.81672E-004	0.00000E+000	2.66434E-004	1.68088E-001	9.46288E-001	3.57870E+000	9	...........
	40	0.546667	9.48507E-001	2.82510E-004	0.00000E+000	2.67963E-004	1.68088E-001	9.48873E-001	3.57870E+000	9	...........
	41	0.56	9.51037E-001	2.81516E-004	0.00000E+000	2.67732E-004	1.68088E-001	9.51423E-001	3.57870E+000	9	...........
	42	0.573333	9.53439E-001	2.79861E-004	0.00000E+000	2.66831E-004	1.68088E-001	9.53825E-001	3.57870E+000	9	...........
	43	0.586667	9.55815E-001	2.81674E-004	0.00000E+000	2.69228E-004	1.68088E-001	9.56170E-001	3.57870E+000	9	...........
	44	0.6	9.58052E-001	2.81435E-004	0.00000E+000	2.69629E-004	1.68088E-001	9.58428E-001	3.57870E+000	9	...........
	45	0.613333	9.60298E-001	2.80509E-004	0.00000E+000	2.69373E-004	1.68088E-001	9.60689E-001	3.57870E+000	9	...........
	46	0.626667	9.62501E-001	2.81927E-004	0.00000E+000	2.71355E-004	1.68088E-001	9.62901E-001	3.57870E+000	9	...........
	47	0.64	9.64595E-001	2.80675E-004	0.00000E+000	2.70738E-004	1.68088E-001	9.64989E-001	3.57969E+000	9	...........
	48	0.653333	9.66655E-001	2.81603E-004	0.00000E+000	2.72213E-004	1.68088E-001	9.67035E-001	3.58000E+000	9	...........
	49	0.666667	9.68649E-001	2.81468E-004	0.00000E+000	2.72644E-004	1.68088E-001	9.69048E-001	3.58000E+000	9	...........
	50	0.68	9.70546E-001	2.80860E-004	0.00000E+000	2.72587E-004	1.68088E-001	9.70971E-001	3.58000E+000	9	...........
	51	0.693333	9.72487E-001	2.82768E-004	0.00000E+000	2.74989E-004	1.68088E-001	9.72909E-001	3.58000E+000	9	...........
	52	0.706667	9.74370E-001	2.81599E-004	0.00000E+000	2.74382E-004	1.68088E-001	9.74758E-001	3.58000E+000	9	...........
	53	0.72	9.76197E-001	2.81273E-004	0.00000E+000	2.74578E-004	1.68088E-001	9.76590E-001	3.58000E+000	9	...........
	54	0.733333	9.78003E-001	2.81533E-004	0.00000E+000	2.75340E-004	1.68088E-001	9.78403E-001	3.58000E+000	9	...........
	55	0.746667	9.79772E-001	2.82574E-004	0.00000E+000	2.76859E-004	1.68088E-001	9.80139E-001	3.58000E+000	9	...........
	56	0.76	9.81440E-001	2.82700E-004	0.00000E+000	2.77453E-004	1.68088E-001	9.81838E-001	3.58000E+000	9	...........
	57	0.773333	9.83115E-001	2.81446E-004	0.00000E+000	2.76694E-004	1.68088E-001	9.83498E-001	3.58000E+000	9	...........
	58	0.786667	9.84757E-001	2.81669E-004	0.00000E+000	2.77376E-004	1.68088E-001	9.85160E-001	3.58000E+000	9	...........
	59	0.8	9.86381E-001	2.81765E-004	0.00000E+000	2.77928E-004	1.68088E-001	9.86760E-001	3.58000E+000	9	...........
	60	0.813333	9.87992E-001	2.81338E-004	0.00000E+000	2.77959E-004	1.68088E-001	9.88370E-001	3.58000E+000	9	...........
	61	0.826667	9.89598E-001	2.81795E-004	0.00000E+000	2.78864E-004	1.68088E-001	9.89956E-001	3.58000E+000	9	...........
	62	0.84	9.91118E-001	2.81442E-004	0.00000E+000	2.78942E-004	1.68088E-001	9.91479E-001	3.58000E+000	9	...........
	63	0.853333	9.92626E-001	2.81625E-004	0.00000E+000	2.79549E-004	1.68088E-001	9.93039E-001	3.58000E+000	9	...........
	64	0.866667	9.94114E-001	2.81961E-004	0.00000E+000	2.80301E-004	1.68088E-001	9.94522E-001	3.58000E+000	9	...........
	65	0.88	9.95582E-001	2.81338E-004	0.00000E+000	2.80095E-004	1.68088E-001	9.95980E-001	3.58000E+000	9	...........
	66	0.893333	9.97020E-001	2.81559E-004	0.00000E+000	2.80720E-004	1.68088E-001	9.97429E-001	3.58000E+000	9	...........
	67	0.906667	9.98447E-001	2.80280E-004	0.00000E+000	2.79845E-004	1.68088E-001	9.98831E-001	3.58000E+000	9	...........
	68	0.916667	9.99684E-001	2.81329E-004	0.00000E+000	2.81240E-004	1.68088E-001	1.00005E+000	3.58000E+000	9	...........
STARTTIMEOFFSET	QUANT	1495.41	Start Time Offset (s)
