EXPLAIN
TAG	PWR800_CHARGE
TITLE	LABEL	PWR Cyclic Charge Discharge (Cell) - Charge Step	Test &Identifier
DATE	LABEL	7-7-2017	Date
TIME	LABEL	16:21:26	Time
NOTES	NOTES	3	&Notes...
	supercap test cell
	2.8mg
	6M KOH
PSTAT	PSTAT	IFC5000-01520	Potentiostat
CAPACITY	QUANT	1.00000E-003	Capacity (A-hr)
CELLTYPE	SELECTOR	1	&Cell Type
WORKINGCONNECTION	SELECTOR	0	&Working Lead
MAXCHARGETIME	VARIABLEANDUNITS	1.00000E+002	s	1.00000E+002	second(s)	Max &Charge Time
CHARGECURRENT	QUANT	2.80000E-004	&Charge Current (A) 
VOLTAGEFINISH	TWOPARAM	F	1.00000E-003	3.60000E+003	&Voltage Finish	 I (A) < 	Max Time(s)
SAMPLETIME	QUANT	1.00000E-002	Sa&mple Period (s)
CHARGESTOPAT1	MULTIPARAM	4	1.00000E+000	Charge Stop At &1	Voltage > Limit	V
CHARGESTOPAT2	MULTIPARAM	0	0.00000E+000	Charge Stop At &2	None	N/A
AESBHCSELECTOR	TOGGLE	F	Save Both Half Cells
IRCOMP	TOGGLE	F	IR &Measure
EOC	QUANT	0	Open Circuit (V)
SEQUENCER	TOGGLE	TRUE	Run as Sequence
PSTATMODEL	IQUANT	53	Pstat Model
PSTATSECTION	LABEL	IFC5000-01520	Pstat Section
PSTATSERIALNO	LABEL	01520	Pstat Serial Number
CTRLMODE	IQUANT	0	Control Mode
ELECTROMETER	IQUANT	1	RE=0 or CS=1
IESTAB	IQUANT	0	I/E Stability
CASPEED	IQUANT	4	Control Amp Speed
CONVENTION	IQUANT	1	Current Convention
ICHRANGE	IQUANT	2	Ich Range
ICHRANGEMODE	TOGGLE	T	Ich Auto Range
ICHOFFSETENABLE	TOGGLE	F	Ich Offset Enable
ICHOFFSET	QUANT	0	Ich Offset (V)
ICHFILTER	IQUANT	1	Ich Filter
VCHRANGE	IQUANT	2	Vch Range
VCHRANGEMODE	TOGGLE	T	Vch Auto Range
VCHOFFSETENABLE	TOGGLE	F	Vch Offset Enable
VCHOFFSET	QUANT	0	Vch Offset (V)
VCHFILTER	IQUANT	1	Vch Filter
IERANGELOWERLIMIT	IQUANT	9	I/E Range Lower Limit
IERANGEMODE	TOGGLE	F	I/E AutoRange
IERANGE	IQUANT	9	I/E Range
ACHSELECT	IQUANT	1	Ach Select
ACHRANGE	IQUANT	2	Ach Range
ACHOFFSETENABLE	TOGGLE	F	Ach Offset Enable
ACHOFFSET	QUANT	0	Ach Offset (V)
ACHFILTER	IQUANT	1	Ach Filter
CABLEID	IQUANT	14	Cable ID
DCCALDATE	LABEL	5-7-2017	DC Calibration Date
ACCALDATE	LABEL	12/3/2015	AC Calibration Date
FRAMEWORKVERSION	QUANT	7.01	Framework Version
INSTRUMENTVERSION	LABEL	4.00	Instrument Version
CURVE	TABLE	59
	Pt	T	Vf	Im	Vu	Pwr	Sig	Ach	Temp	IERange	Over
	#	s	V	A	V	W	V	V	deg C	#	bits
	0	0.013333	6.07203E-001	2.80555E-004	0.00000E+000	1.70354E-004	1.68088E-001	6.07473E-001	3.57830E+000	9	...........
	1	0.026667	6.37900E-001	2.81699E-004	0.00000E+000	1.79696E-004	1.68088E-001	6.38149E-001	3.57830E+000	9	...........
	2	0.04	6.64356E-001	2.81011E-004	0.00000E+000	1.86691E-004	1.68088E-001	6.64582E-001	3.57830E+000	9	...........
	3	0.053333	6.87647E-001	2.80157E-004	0.00000E+000	1.92649E-004	1.68088E-001	6.87918E-001	3.57830E+000	9	...........
	4	0.066667	7.08515E-001	2.81564E-004	0.00000E+000	1.99492E-004	1.68088E-001	7.08789E-001	3.57830E+000	9	...........
	5	0.08	7.27399E-001	2.80851E-004	0.00000E+000	2.04291E-004	1.68088E-001	7.27656E-001	3.57830E+000	9	...........
	6	0.093333	7.44557E-001	2.81382E-004	0.00000E+000	2.09504E-004	1.68088E-001	7.44845E-001	3.57830E+000	9	...........
	7	0.106667	7.60317E-001	2.81225E-004	0.00000E+000	2.13820E-004	1.68088E-001	7.60579E-001	3.57830E+000	9	...........
	8	0.12	7.74818E-001	2.81362E-004	0.00000E+000	2.18004E-004	1.68088E-001	7.75084E-001	3.57830E+000	9	...........
	9	0.133333	7.88195E-001	2.81594E-004	0.00000E+000	2.21951E-004	1.68088E-001	7.88465E-001	3.57830E+000	9	...........
	10	0.146667	8.00570E-001	2.81454E-004	0.00000E+000	2.25324E-004	1.68088E-001	8.00855E-001	3.57830E+000	9	...........
	11	0.16	8.12042E-001	2.81340E-004	0.00000E+000	2.28460E-004	1.68088E-001	8.12362E-001	3.57830E+000	9	...........
	12	0.173333	8.22780E-001	2.79818E-004	0.00000E+000	2.30229E-004	1.68088E-001	8.23091E-001	3.57830E+000	9	...........
	13	0.186667	8.32725E-001	2.82769E-004	0.00000E+000	2.35469E-004	1.68088E-001	8.33043E-001	3.57830E+000	9	...........
	14	0.2	8.42023E-001	2.81352E-004	0.00000E+000	2.36905E-004	1.68088E-001	8.42328E-001	3.57830E+000	9	...........
	15	0.213333	8.50715E-001	2.79686E-004	0.00000E+000	2.37933E-004	1.68088E-001	8.51023E-001	3.57830E+000	9	...........
	16	0.226667	8.58855E-001	2.81416E-004	0.00000E+000	2.41695E-004	1.68088E-001	8.59173E-001	3.57830E+000	9	...........
	17	0.24	8.66474E-001	2.80874E-004	0.00000E+000	2.43370E-004	1.68088E-001	8.66789E-001	3.57830E+000	9	...........
	18	0.253333	8.73672E-001	2.81284E-004	0.00000E+000	2.45750E-004	1.68088E-001	8.73967E-001	3.57830E+000	9	...........
	19	0.266667	8.80438E-001	2.80223E-004	0.00000E+000	2.46719E-004	1.68088E-001	8.80744E-001	3.57830E+000	9	...........
	20	0.28	8.86817E-001	2.81545E-004	0.00000E+000	2.49679E-004	1.68088E-001	8.87133E-001	3.57830E+000	9	...........
	21	0.293333	8.92815E-001	2.81478E-004	0.00000E+000	2.51308E-004	1.68088E-001	8.93114E-001	3.57830E+000	9	...........
	22	0.306667	8.98475E-001	2.81511E-004	0.00000E+000	2.52930E-004	1.68088E-001	8.98805E-001	3.57830E+000	9	...........
	23	0.32	9.03815E-001	2.81816E-004	0.00000E+000	2.54710E-004	1.68088E-001	9.04162E-001	3.57830E+000	9	...........
	24	0.333333	9.08891E-001	2.82382E-004	0.00000E+000	2.56654E-004	1.68088E-001	9.09219E-001	3.57830E+000	9	...........
	25	0.346667	9.13664E-001	2.81019E-004	0.00000E+000	2.56757E-004	1.68088E-001	9.14010E-001	3.57830E+000	9	...........
	26	0.36	9.18205E-001	2.81484E-004	0.00000E+000	2.58460E-004	1.68088E-001	9.18575E-001	3.57830E+000	9	...........
	27	0.373333	9.22566E-001	2.80783E-004	0.00000E+000	2.59041E-004	1.68088E-001	9.22885E-001	3.57830E+000	9	...........
	28	0.386667	9.26684E-001	2.81360E-004	0.00000E+000	2.60731E-004	1.68088E-001	9.27010E-001	3.57830E+000	9	...........
	29	0.4	9.30634E-001	2.81970E-004	0.00000E+000	2.62411E-004	1.68088E-001	9.30943E-001	3.57830E+000	9	...........
	30	0.413333	9.34346E-001	2.81180E-004	0.00000E+000	2.62720E-004	1.68088E-001	9.34692E-001	3.57830E+000	9	...........
	31	0.426667	9.37947E-001	2.81743E-004	0.00000E+000	2.64260E-004	1.68088E-001	9.38291E-001	3.57830E+000	9	...........
	32	0.44	9.41412E-001	2.81590E-004	0.00000E+000	2.65092E-004	1.68088E-001	9.41731E-001	3.57823E+000	9	...........
	33	0.453333	9.44679E-001	2.80107E-004	0.00000E+000	2.64612E-004	1.68088E-001	9.45019E-001	3.57810E+000	9	...........
	34	0.466667	9.47905E-001	2.81218E-004	0.00000E+000	2.66568E-004	1.68088E-001	9.48249E-001	3.57810E+000	9	...........
	35	0.48	9.50942E-001	2.81386E-004	0.00000E+000	2.67581E-004	1.68088E-001	9.51301E-001	3.57810E+000	9	...........
	36	0.493333	9.53887E-001	2.81072E-004	0.00000E+000	2.68111E-004	1.68088E-001	9.54226E-001	3.57810E+000	9	...........
	37	0.506667	9.56666E-001	2.80457E-004	0.00000E+000	2.68304E-004	1.68088E-001	9.57035E-001	3.57810E+000	9	...........
	38	0.52	9.59347E-001	2.81170E-004	0.00000E+000	2.69740E-004	1.68088E-001	9.59744E-001	3.57810E+000	9	...........
	39	0.533333	9.61938E-001	2.81462E-004	0.00000E+000	2.70749E-004	1.68088E-001	9.62304E-001	3.57810E+000	9	...........
	40	0.546667	9.64467E-001	2.80896E-004	0.00000E+000	2.70915E-004	1.68088E-001	9.64838E-001	3.57810E+000	9	...........
	41	0.56	9.66941E-001	2.81660E-004	0.00000E+000	2.72348E-004	1.68088E-001	9.67286E-001	3.57810E+000	9	...........
	42	0.573333	9.69321E-001	2.80354E-004	0.00000E+000	2.71753E-004	1.68088E-001	9.69675E-001	3.57810E+000	9	...........
	43	0.586667	9.71586E-001	2.80930E-004	0.00000E+000	2.72948E-004	1.68088E-001	9.71969E-001	3.57810E+000	9	...........
	44	0.6	9.73885E-001	2.81228E-004	0.00000E+000	2.73884E-004	1.68088E-001	9.74204E-001	3.57810E+000	9	...........
	45	0.613333	9.76116E-001	2.82430E-004	0.00000E+000	2.75684E-004	1.68088E-001	9.76420E-001	3.57810E+000	9	...........
	46	0.626667	9.78192E-001	2.80213E-004	0.00000E+000	2.74102E-004	1.68088E-001	9.78519E-001	3.57810E+000	9	...........
	47	0.64	9.80237E-001	2.80656E-004	0.00000E+000	2.75110E-004	1.68088E-001	9.80583E-001	3.57810E+000	9	...........
	48	0.653333	9.82242E-001	2.80588E-004	0.00000E+000	2.75605E-004	1.68088E-001	9.82586E-001	3.57810E+000	9	...........
	49	0.666667	9.84143E-001	2.80037E-004	0.00000E+000	2.75597E-004	1.68088E-001	9.84495E-001	3.57810E+000	9	...........
	50	0.68	9.86056E-001	2.80915E-004	0.00000E+000	2.76998E-004	1.68088E-001	9.86387E-001	3.57810E+000	9	...........
	51	0.693333	9.87910E-001	2.80317E-004	0.00000E+000	2.76928E-004	1.68088E-001	9.88267E-001	3.57810E+000	9	...........
	52	0.706667	9.89697E-001	2.82341E-004	0.00000E+000	2.79432E-004	1.68088E-001	9.90057E-001	3.57810E+000	9	...........
	53	0.72	9.91445E-001	2.81009E-004	0.00000E+000	2.78605E-004	1.68088E-001	9.91805E-001	3.57810E+000	9	...........
	54	0.733333	9.93143E-001	2.80599E-004	0.00000E+000	2.78675E-004	1.68088E-001	9.93519E-001	3.57810E+000	9	...........
	55	0.746667	9.94850E-001	2.81065E-004	0.00000E+000	2.79617E-004	1.68088E-001	9.95202E-001	3.57810E+000	9	...........
	56	0.76	9.96508E-001	2.81143E-004	0.00000E+000	2.80161E-004	1.68088E-001	9.96910E-001	3.57810E+000	9	...........
	57	0.773333	9.98172E-001	2.81165E-004	0.00000E+000	2.80651E-004	1.68088E-001	9.98541E-001	3.57810E+000	9	...........
	58	0.783333	9.99589E-001	2.81229E-004	0.00000E+000	2.81113E-004	1.68088E-001	9.99942E-001	3.57810E+000	9	...........
STARTTIMEOFFSET	QUANT	1978.311	Start Time Offset (s)
