EXPLAIN
TAG	PWR800_CHARGE
TITLE	LABEL	PWR Cyclic Charge Discharge (Cell) - Charge Step	Test &Identifier
DATE	LABEL	7-7-2017	Date
TIME	LABEL	16:17:03	Time
NOTES	NOTES	3	&Notes...
	supercap test cell
	2.8mg
	6M KOH
PSTAT	PSTAT	IFC5000-01520	Potentiostat
CAPACITY	QUANT	1.00000E-003	Capacity (A-hr)
CELLTYPE	SELECTOR	1	&Cell Type
WORKINGCONNECTION	SELECTOR	0	&Working Lead
MAXCHARGETIME	VARIABLEANDUNITS	1.00000E+002	s	1.00000E+002	second(s)	Max &Charge Time
CHARGECURRENT	QUANT	2.80000E-004	&Charge Current (A) 
VOLTAGEFINISH	TWOPARAM	F	1.00000E-003	3.60000E+003	&Voltage Finish	 I (A) < 	Max Time(s)
SAMPLETIME	QUANT	1.00000E-002	Sa&mple Period (s)
CHARGESTOPAT1	MULTIPARAM	4	1.00000E+000	Charge Stop At &1	Voltage > Limit	V
CHARGESTOPAT2	MULTIPARAM	0	0.00000E+000	Charge Stop At &2	None	N/A
AESBHCSELECTOR	TOGGLE	F	Save Both Half Cells
IRCOMP	TOGGLE	F	IR &Measure
EOC	QUANT	0	Open Circuit (V)
SEQUENCER	TOGGLE	TRUE	Run as Sequence
PSTATMODEL	IQUANT	53	Pstat Model
PSTATSECTION	LABEL	IFC5000-01520	Pstat Section
PSTATSERIALNO	LABEL	01520	Pstat Serial Number
CTRLMODE	IQUANT	0	Control Mode
ELECTROMETER	IQUANT	1	RE=0 or CS=1
IESTAB	IQUANT	0	I/E Stability
CASPEED	IQUANT	4	Control Amp Speed
CONVENTION	IQUANT	1	Current Convention
ICHRANGE	IQUANT	2	Ich Range
ICHRANGEMODE	TOGGLE	T	Ich Auto Range
ICHOFFSETENABLE	TOGGLE	F	Ich Offset Enable
ICHOFFSET	QUANT	0	Ich Offset (V)
ICHFILTER	IQUANT	1	Ich Filter
VCHRANGE	IQUANT	2	Vch Range
VCHRANGEMODE	TOGGLE	T	Vch Auto Range
VCHOFFSETENABLE	TOGGLE	F	Vch Offset Enable
VCHOFFSET	QUANT	0	Vch Offset (V)
VCHFILTER	IQUANT	1	Vch Filter
IERANGELOWERLIMIT	IQUANT	9	I/E Range Lower Limit
IERANGEMODE	TOGGLE	F	I/E AutoRange
IERANGE	IQUANT	9	I/E Range
ACHSELECT	IQUANT	1	Ach Select
ACHRANGE	IQUANT	2	Ach Range
ACHOFFSETENABLE	TOGGLE	F	Ach Offset Enable
ACHOFFSET	QUANT	0	Ach Offset (V)
ACHFILTER	IQUANT	1	Ach Filter
CABLEID	IQUANT	14	Cable ID
DCCALDATE	LABEL	5-7-2017	DC Calibration Date
ACCALDATE	LABEL	12/3/2015	AC Calibration Date
FRAMEWORKVERSION	QUANT	7.01	Framework Version
INSTRUMENTVERSION	LABEL	4.00	Instrument Version
CURVE	TABLE	62
	Pt	T	Vf	Im	Vu	Pwr	Sig	Ach	Temp	IERange	Over
	#	s	V	A	V	W	V	V	deg C	#	bits
	0	0.013333	6.04786E-001	2.80023E-004	0.00000E+000	1.69354E-004	1.68088E-001	6.05058E-001	3.57870E+000	9	...........
	1	0.026667	6.35380E-001	2.80591E-004	0.00000E+000	1.78282E-004	1.68088E-001	6.35629E-001	3.57870E+000	9	...........
	2	0.04	6.61673E-001	2.80277E-004	0.00000E+000	1.85452E-004	1.68088E-001	6.61930E-001	3.57870E+000	9	...........
	3	0.053333	6.84800E-001	2.81390E-004	0.00000E+000	1.92696E-004	1.68088E-001	6.85064E-001	3.57870E+000	9	...........
	4	0.066667	7.05483E-001	2.80967E-004	0.00000E+000	1.98217E-004	1.68088E-001	7.05728E-001	3.57870E+000	9	...........
	5	0.08	7.24164E-001	2.80911E-004	0.00000E+000	2.03425E-004	1.68088E-001	7.24441E-001	3.57870E+000	9	...........
	6	0.093333	7.41173E-001	2.82897E-004	0.00000E+000	2.09676E-004	1.68088E-001	7.41443E-001	3.57870E+000	9	...........
	7	0.106667	7.56791E-001	2.81029E-004	0.00000E+000	2.12681E-004	1.68088E-001	7.57056E-001	3.57870E+000	9	...........
	8	0.12	7.71124E-001	2.82032E-004	0.00000E+000	2.17481E-004	1.68088E-001	7.71407E-001	3.57870E+000	9	...........
	9	0.133333	7.84334E-001	2.81362E-004	0.00000E+000	2.20682E-004	1.68088E-001	7.84609E-001	3.57870E+000	9	...........
	10	0.146667	7.96570E-001	2.82159E-004	0.00000E+000	2.24759E-004	1.68088E-001	7.96867E-001	3.57870E+000	9	...........
	11	0.16	8.07939E-001	2.80786E-004	0.00000E+000	2.26858E-004	1.68088E-001	8.08241E-001	3.57870E+000	9	...........
	12	0.173333	8.18518E-001	2.81095E-004	0.00000E+000	2.30081E-004	1.68088E-001	8.18827E-001	3.57870E+000	9	...........
	13	0.186667	8.28344E-001	2.80653E-004	0.00000E+000	2.32477E-004	1.68088E-001	8.28666E-001	3.57870E+000	9	...........
	14	0.2	8.37508E-001	2.81203E-004	0.00000E+000	2.35510E-004	1.68088E-001	8.37838E-001	3.57870E+000	9	...........
	15	0.213333	8.46147E-001	2.80940E-004	0.00000E+000	2.37716E-004	1.68088E-001	8.46428E-001	3.57870E+000	9	...........
	16	0.226667	8.54230E-001	2.80266E-004	0.00000E+000	2.39411E-004	1.68088E-001	8.54529E-001	3.57870E+000	9	...........
	17	0.24	8.61780E-001	2.82048E-004	0.00000E+000	2.43064E-004	1.68088E-001	8.62082E-001	3.57870E+000	9	...........
	18	0.253333	8.68898E-001	2.81468E-004	0.00000E+000	2.44567E-004	1.68088E-001	8.69214E-001	3.57870E+000	9	...........
	19	0.266667	8.75605E-001	2.80346E-004	0.00000E+000	2.45472E-004	1.68088E-001	8.75941E-001	3.57870E+000	9	...........
	20	0.28	8.81921E-001	2.81297E-004	0.00000E+000	2.48082E-004	1.68088E-001	8.82228E-001	3.57870E+000	9	...........
	21	0.293333	8.87886E-001	2.80699E-004	0.00000E+000	2.49229E-004	1.68088E-001	8.88182E-001	3.57870E+000	9	...........
	22	0.306667	8.93464E-001	2.81361E-004	0.00000E+000	2.51386E-004	1.68088E-001	8.93778E-001	3.57870E+000	9	...........
	23	0.32	8.98780E-001	2.80574E-004	0.00000E+000	2.52174E-004	1.68088E-001	8.99079E-001	3.57870E+000	9	...........
	24	0.333333	9.03812E-001	2.81154E-004	0.00000E+000	2.54111E-004	1.68088E-001	9.04140E-001	3.57870E+000	9	...........
	25	0.346667	9.08610E-001	2.79920E-004	0.00000E+000	2.54338E-004	1.68088E-001	9.08958E-001	3.57870E+000	9	...........
	26	0.36	9.13185E-001	2.81861E-004	0.00000E+000	2.57391E-004	1.68088E-001	9.13512E-001	3.57870E+000	9	...........
	27	0.373333	9.17516E-001	2.81857E-004	0.00000E+000	2.58608E-004	1.68088E-001	9.17849E-001	3.57870E+000	9	...........
	28	0.386667	9.21682E-001	2.81280E-004	0.00000E+000	2.59251E-004	1.68088E-001	9.21970E-001	3.57870E+000	9	...........
	29	0.4	9.25599E-001	2.80392E-004	0.00000E+000	2.59530E-004	1.68088E-001	9.25895E-001	3.57870E+000	9	...........
	30	0.413333	9.29344E-001	2.82240E-004	0.00000E+000	2.62298E-004	1.68088E-001	9.29650E-001	3.57870E+000	9	...........
	31	0.426667	9.32948E-001	2.79885E-004	0.00000E+000	2.61118E-004	1.68088E-001	9.33258E-001	3.57870E+000	9	...........
	32	0.44	9.36399E-001	2.81834E-004	0.00000E+000	2.63909E-004	1.68088E-001	9.36736E-001	3.57870E+000	9	...........
	33	0.453333	9.39746E-001	2.81055E-004	0.00000E+000	2.64121E-004	1.68088E-001	9.40063E-001	3.57870E+000	9	...........
	34	0.466667	9.42905E-001	2.79226E-004	0.00000E+000	2.63283E-004	1.68088E-001	9.43239E-001	3.57870E+000	9	...........
	35	0.48	9.45971E-001	2.81693E-004	0.00000E+000	2.66473E-004	1.68088E-001	9.46333E-001	3.57870E+000	9	...........
	36	0.493333	9.48941E-001	2.80544E-004	0.00000E+000	2.66220E-004	1.68088E-001	9.49255E-001	3.57870E+000	9	...........
	37	0.506667	9.51762E-001	2.82261E-004	0.00000E+000	2.68645E-004	1.68088E-001	9.52113E-001	3.57870E+000	9	...........
	38	0.52	9.54490E-001	2.81388E-004	0.00000E+000	2.68582E-004	1.68088E-001	9.54828E-001	3.57870E+000	9	...........
	39	0.533333	9.57095E-001	2.81282E-004	0.00000E+000	2.69213E-004	1.68088E-001	9.57459E-001	3.57870E+000	9	...........
	40	0.546667	9.59641E-001	2.81083E-004	0.00000E+000	2.69738E-004	1.68088E-001	9.60016E-001	3.57870E+000	9	...........
	41	0.56	9.62099E-001	2.79864E-004	0.00000E+000	2.69257E-004	1.68088E-001	9.62461E-001	3.57870E+000	9	...........
	42	0.573333	9.64494E-001	2.80920E-004	0.00000E+000	2.70946E-004	1.68088E-001	9.64865E-001	3.57870E+000	9	...........
	43	0.586667	9.66833E-001	2.81652E-004	0.00000E+000	2.72311E-004	1.68088E-001	9.67173E-001	3.57870E+000	9	...........
	44	0.6	9.69073E-001	2.80458E-004	0.00000E+000	2.71785E-004	1.68088E-001	9.69414E-001	3.57870E+000	9	...........
	45	0.613333	9.71235E-001	2.81195E-004	0.00000E+000	2.73107E-004	1.68088E-001	9.71609E-001	3.57870E+000	9	...........
	46	0.626667	9.73459E-001	2.81106E-004	0.00000E+000	2.73646E-004	1.68088E-001	9.73785E-001	3.57870E+000	9	...........
	47	0.64	9.75508E-001	2.80926E-004	0.00000E+000	2.74046E-004	1.68088E-001	9.75859E-001	3.57870E+000	9	...........
	48	0.653333	9.77542E-001	2.80897E-004	0.00000E+000	2.74589E-004	1.68088E-001	9.77886E-001	3.57870E+000	9	...........
	49	0.666667	9.79518E-001	2.81888E-004	0.00000E+000	2.76114E-004	1.68088E-001	9.79824E-001	3.57870E+000	9	...........
	50	0.68	9.81425E-001	2.82667E-004	0.00000E+000	2.77417E-004	1.68088E-001	9.81715E-001	3.57870E+000	9	...........
	51	0.693333	9.83274E-001	2.81746E-004	0.00000E+000	2.77034E-004	1.68088E-001	9.83564E-001	3.57870E+000	9	...........
	52	0.706667	9.85118E-001	2.79914E-004	0.00000E+000	2.75748E-004	1.68088E-001	9.85414E-001	3.57870E+000	9	...........
	53	0.72	9.86901E-001	2.82062E-004	0.00000E+000	2.78367E-004	1.68088E-001	9.87216E-001	3.57870E+000	9	...........
	54	0.733333	9.88663E-001	2.80643E-004	0.00000E+000	2.77461E-004	1.68088E-001	9.88969E-001	3.57870E+000	9	...........
	55	0.746667	9.90417E-001	2.80499E-004	0.00000E+000	2.77811E-004	1.68088E-001	9.90744E-001	3.57870E+000	9	...........
	56	0.76	9.92066E-001	2.81491E-004	0.00000E+000	2.79257E-004	1.68088E-001	9.92446E-001	3.57870E+000	9	...........
	57	0.773333	9.93724E-001	2.80693E-004	0.00000E+000	2.78931E-004	1.68088E-001	9.94122E-001	3.57870E+000	9	...........
	58	0.786667	9.95362E-001	2.81350E-004	0.00000E+000	2.80045E-004	1.68088E-001	9.95755E-001	3.57870E+000	9	...........
	59	0.8	9.96920E-001	2.80601E-004	0.00000E+000	2.79737E-004	1.68088E-001	9.97342E-001	3.57870E+000	9	...........
	60	0.813333	9.98523E-001	2.80515E-004	0.00000E+000	2.80100E-004	1.68088E-001	9.98912E-001	3.57870E+000	9	...........
	61	0.821667	9.99794E-001	2.80946E-004	0.00000E+000	2.80888E-004	1.68088E-001	1.00015E+000	3.57870E+000	9	...........
STARTTIMEOFFSET	QUANT	1806.761	Start Time Offset (s)
