EXPLAIN
TAG	PWR800_CHARGE
TITLE	LABEL	PWR Cyclic Charge Discharge (Cell) - Charge Step	Test &Identifier
DATE	LABEL	7-7-2017	Date
TIME	LABEL	16:00:19	Time
NOTES	NOTES	3	&Notes...
	supercap test cell
	2.8mg
	6M KOH
PSTAT	PSTAT	IFC5000-01520	Potentiostat
CAPACITY	QUANT	1.00000E-003	Capacity (A-hr)
CELLTYPE	SELECTOR	1	&Cell Type
WORKINGCONNECTION	SELECTOR	0	&Working Lead
MAXCHARGETIME	VARIABLEANDUNITS	1.00000E+002	s	1.00000E+002	second(s)	Max &Charge Time
CHARGECURRENT	QUANT	2.80000E-004	&Charge Current (A) 
VOLTAGEFINISH	TWOPARAM	F	1.00000E-003	3.60000E+003	&Voltage Finish	 I (A) < 	Max Time(s)
SAMPLETIME	QUANT	1.00000E-002	Sa&mple Period (s)
CHARGESTOPAT1	MULTIPARAM	4	1.00000E+000	Charge Stop At &1	Voltage > Limit	V
CHARGESTOPAT2	MULTIPARAM	0	0.00000E+000	Charge Stop At &2	None	N/A
AESBHCSELECTOR	TOGGLE	F	Save Both Half Cells
IRCOMP	TOGGLE	F	IR &Measure
EOC	QUANT	0	Open Circuit (V)
SEQUENCER	TOGGLE	TRUE	Run as Sequence
PSTATMODEL	IQUANT	53	Pstat Model
PSTATSECTION	LABEL	IFC5000-01520	Pstat Section
PSTATSERIALNO	LABEL	01520	Pstat Serial Number
CTRLMODE	IQUANT	0	Control Mode
ELECTROMETER	IQUANT	1	RE=0 or CS=1
IESTAB	IQUANT	0	I/E Stability
CASPEED	IQUANT	4	Control Amp Speed
CONVENTION	IQUANT	1	Current Convention
ICHRANGE	IQUANT	2	Ich Range
ICHRANGEMODE	TOGGLE	T	Ich Auto Range
ICHOFFSETENABLE	TOGGLE	F	Ich Offset Enable
ICHOFFSET	QUANT	0	Ich Offset (V)
ICHFILTER	IQUANT	1	Ich Filter
VCHRANGE	IQUANT	2	Vch Range
VCHRANGEMODE	TOGGLE	T	Vch Auto Range
VCHOFFSETENABLE	TOGGLE	F	Vch Offset Enable
VCHOFFSET	QUANT	0	Vch Offset (V)
VCHFILTER	IQUANT	1	Vch Filter
IERANGELOWERLIMIT	IQUANT	9	I/E Range Lower Limit
IERANGEMODE	TOGGLE	F	I/E AutoRange
IERANGE	IQUANT	9	I/E Range
ACHSELECT	IQUANT	1	Ach Select
ACHRANGE	IQUANT	2	Ach Range
ACHOFFSETENABLE	TOGGLE	F	Ach Offset Enable
ACHOFFSET	QUANT	0	Ach Offset (V)
ACHFILTER	IQUANT	1	Ach Filter
CABLEID	IQUANT	14	Cable ID
DCCALDATE	LABEL	5-7-2017	DC Calibration Date
ACCALDATE	LABEL	12/3/2015	AC Calibration Date
FRAMEWORKVERSION	QUANT	7.01	Framework Version
INSTRUMENTVERSION	LABEL	4.00	Instrument Version
CURVE	TABLE	80
	Pt	T	Vf	Im	Vu	Pwr	Sig	Ach	Temp	IERange	Over
	#	s	V	A	V	W	V	V	deg C	#	bits
	0	0.013333	5.93492E-001	2.82582E-004	0.00000E+000	1.67710E-004	1.68088E-001	5.93777E-001	3.57890E+000	9	...........
	1	0.026667	6.23446E-001	2.82328E-004	0.00000E+000	1.76016E-004	1.68088E-001	6.23697E-001	3.57890E+000	9	...........
	2	0.04	6.48935E-001	2.81052E-004	0.00000E+000	1.82385E-004	1.68088E-001	6.49213E-001	3.57890E+000	9	...........
	3	0.053333	6.71200E-001	2.80579E-004	0.00000E+000	1.88325E-004	1.68088E-001	6.71493E-001	3.57890E+000	9	...........
	4	0.066667	6.90966E-001	2.81159E-004	0.00000E+000	1.94271E-004	1.68088E-001	6.91248E-001	3.57890E+000	9	...........
	5	0.08	7.08712E-001	2.80317E-004	0.00000E+000	1.98664E-004	1.68088E-001	7.09029E-001	3.57890E+000	9	...........
	6	0.093333	7.24817E-001	2.81205E-004	0.00000E+000	2.03822E-004	1.68088E-001	7.25083E-001	3.57890E+000	9	...........
	7	0.106667	7.39496E-001	2.80810E-004	0.00000E+000	2.07658E-004	1.68088E-001	7.39775E-001	3.57890E+000	9	...........
	8	0.12	7.53031E-001	2.80023E-004	0.00000E+000	2.10866E-004	1.68088E-001	7.53277E-001	3.57890E+000	9	...........
	9	0.133333	7.65478E-001	2.81369E-004	0.00000E+000	2.15382E-004	1.68088E-001	7.65752E-001	3.57890E+000	9	...........
	10	0.146667	7.76979E-001	2.81464E-004	0.00000E+000	2.18691E-004	1.68088E-001	7.77269E-001	3.57890E+000	9	...........
	11	0.16	7.87700E-001	2.82184E-004	0.00000E+000	2.22276E-004	1.68088E-001	7.87981E-001	3.57890E+000	9	...........
	12	0.173333	7.97685E-001	2.81012E-004	0.00000E+000	2.24159E-004	1.68088E-001	7.97953E-001	3.57890E+000	9	...........
	13	0.186667	8.06957E-001	2.80471E-004	0.00000E+000	2.26328E-004	1.68088E-001	8.07247E-001	3.57890E+000	9	...........
	14	0.2	8.15627E-001	2.81241E-004	0.00000E+000	2.29388E-004	1.68088E-001	8.15907E-001	3.57890E+000	9	...........
	15	0.213333	8.23796E-001	2.81212E-004	0.00000E+000	2.31661E-004	1.68088E-001	8.24067E-001	3.57890E+000	9	...........
	16	0.226667	8.31430E-001	2.82195E-004	0.00000E+000	2.34626E-004	1.68088E-001	8.31710E-001	3.57890E+000	9	...........
	17	0.24	8.38614E-001	2.80568E-004	0.00000E+000	2.35288E-004	1.68088E-001	8.38912E-001	3.57890E+000	9	...........
	18	0.253333	8.45386E-001	2.80459E-004	0.00000E+000	2.37097E-004	1.68088E-001	8.45681E-001	3.57890E+000	9	...........
	19	0.266667	8.51756E-001	2.81652E-004	0.00000E+000	2.39899E-004	1.68088E-001	8.52044E-001	3.57890E+000	9	...........
	20	0.28	8.57776E-001	2.80023E-004	0.00000E+000	2.40197E-004	1.68088E-001	8.58101E-001	3.57890E+000	9	...........
	21	0.293333	8.63471E-001	2.81539E-004	0.00000E+000	2.43100E-004	1.68088E-001	8.63809E-001	3.57890E+000	9	...........
	22	0.306667	8.68905E-001	2.80730E-004	0.00000E+000	2.43928E-004	1.68088E-001	8.69231E-001	3.57861E+000	9	...........
	23	0.32	8.74051E-001	2.80964E-004	0.00000E+000	2.45577E-004	1.68088E-001	8.74389E-001	3.57790E+000	9	...........
	24	0.333333	8.78898E-001	2.81126E-004	0.00000E+000	2.47081E-004	1.68088E-001	8.79252E-001	3.57790E+000	9	...........
	25	0.346667	8.83573E-001	2.81354E-004	0.00000E+000	2.48597E-004	1.68088E-001	8.83908E-001	3.57790E+000	9	...........
	26	0.36	8.87990E-001	2.81410E-004	0.00000E+000	2.49889E-004	1.68088E-001	8.88338E-001	3.57790E+000	9	...........
	27	0.373333	8.92237E-001	2.81312E-004	0.00000E+000	2.50997E-004	1.68088E-001	8.92597E-001	3.57790E+000	9	...........
	28	0.386667	8.96304E-001	2.81697E-004	0.00000E+000	2.52486E-004	1.68088E-001	8.96680E-001	3.57790E+000	9	...........
	29	0.4	9.00198E-001	2.81738E-004	0.00000E+000	2.53620E-004	1.68088E-001	9.00573E-001	3.57790E+000	9	...........
	30	0.413333	9.03928E-001	2.80997E-004	0.00000E+000	2.54001E-004	1.68088E-001	9.04290E-001	3.57790E+000	9	...........
	31	0.426667	9.07478E-001	2.82074E-004	0.00000E+000	2.55976E-004	1.68088E-001	9.07877E-001	3.57790E+000	9	...........
	32	0.44	9.10929E-001	2.80383E-004	0.00000E+000	2.55409E-004	1.68088E-001	9.11257E-001	3.57790E+000	9	...........
	33	0.453333	9.14246E-001	2.81372E-004	0.00000E+000	2.57243E-004	1.68088E-001	9.14589E-001	3.57790E+000	9	...........
	34	0.466667	9.17424E-001	2.81269E-004	0.00000E+000	2.58043E-004	1.68088E-001	9.17787E-001	3.57790E+000	9	...........
	35	0.48	9.20523E-001	2.80443E-004	0.00000E+000	2.58154E-004	1.68088E-001	9.20864E-001	3.57790E+000	9	...........
	36	0.493333	9.23522E-001	2.81853E-004	0.00000E+000	2.60298E-004	1.68088E-001	9.23832E-001	3.57790E+000	9	...........
	37	0.506667	9.26390E-001	2.81974E-004	0.00000E+000	2.61218E-004	1.68088E-001	9.26715E-001	3.57790E+000	9	...........
	38	0.52	9.29172E-001	2.81520E-004	0.00000E+000	2.61581E-004	1.68088E-001	9.29480E-001	3.57790E+000	9	...........
	39	0.533333	9.31805E-001	2.81614E-004	0.00000E+000	2.62409E-004	1.68088E-001	9.32140E-001	3.57790E+000	9	...........
	40	0.546667	9.34388E-001	2.81425E-004	0.00000E+000	2.62960E-004	1.68088E-001	9.34747E-001	3.57790E+000	9	...........
	41	0.56	9.36904E-001	2.80988E-004	0.00000E+000	2.63258E-004	1.68088E-001	9.37258E-001	3.57790E+000	9	...........
	42	0.573333	9.39312E-001	2.81693E-004	0.00000E+000	2.64598E-004	1.68088E-001	9.39708E-001	3.57790E+000	9	...........
	43	0.586667	9.41668E-001	2.81066E-004	0.00000E+000	2.64671E-004	1.68088E-001	9.42040E-001	3.57790E+000	9	...........
	44	0.6	9.43933E-001	2.81684E-004	0.00000E+000	2.65890E-004	1.68088E-001	9.44315E-001	3.57790E+000	9	...........
	45	0.613333	9.46250E-001	2.82712E-004	0.00000E+000	2.67516E-004	1.68088E-001	9.46606E-001	3.57790E+000	9	...........
	46	0.626667	9.48454E-001	2.80931E-004	0.00000E+000	2.66451E-004	1.68088E-001	9.48798E-001	3.57790E+000	9	...........
	47	0.64	9.50549E-001	2.81728E-004	0.00000E+000	2.67797E-004	1.68088E-001	9.50878E-001	3.57790E+000	9	...........
	48	0.653333	9.52605E-001	2.81441E-004	0.00000E+000	2.68102E-004	1.68088E-001	9.52940E-001	3.57790E+000	9	...........
	49	0.666667	9.54620E-001	2.82005E-004	0.00000E+000	2.69207E-004	1.68088E-001	9.54943E-001	3.57790E+000	9	...........
	50	0.68	9.56535E-001	2.81257E-004	0.00000E+000	2.69032E-004	1.68088E-001	9.56878E-001	3.57790E+000	9	...........
	51	0.693333	9.58423E-001	2.80924E-004	0.00000E+000	2.69244E-004	1.68088E-001	9.58809E-001	3.57790E+000	9	...........
	52	0.706667	9.60314E-001	2.81486E-004	0.00000E+000	2.70315E-004	1.68088E-001	9.60681E-001	3.57790E+000	9	...........
	53	0.72	9.62157E-001	2.82345E-004	0.00000E+000	2.71660E-004	1.68088E-001	9.62535E-001	3.57790E+000	9	...........
	54	0.733333	9.63983E-001	2.81046E-004	0.00000E+000	2.70924E-004	1.68088E-001	9.64379E-001	3.57790E+000	9	...........
	55	0.746667	9.65766E-001	2.81267E-004	0.00000E+000	2.71638E-004	1.68088E-001	9.66158E-001	3.57790E+000	9	...........
	56	0.76	9.67519E-001	2.81267E-004	0.00000E+000	2.72131E-004	1.68088E-001	9.67863E-001	3.57790E+000	9	...........
	57	0.773333	9.69178E-001	2.80737E-004	0.00000E+000	2.72084E-004	1.68088E-001	9.69564E-001	3.57790E+000	9	...........
	58	0.786667	9.70860E-001	2.81264E-004	0.00000E+000	2.73068E-004	1.68088E-001	9.71276E-001	3.57790E+000	9	...........
	59	0.8	9.72580E-001	2.82334E-004	0.00000E+000	2.74592E-004	1.68088E-001	9.72941E-001	3.57790E+000	9	...........
	60	0.813333	9.74195E-001	2.80300E-004	0.00000E+000	2.73067E-004	1.68088E-001	9.74563E-001	3.57790E+000	9	...........
	61	0.826667	9.75755E-001	2.80870E-004	0.00000E+000	2.74060E-004	1.68088E-001	9.76155E-001	3.57790E+000	9	...........
	62	0.84	9.77300E-001	2.80772E-004	0.00000E+000	2.74399E-004	1.68088E-001	9.77702E-001	3.57790E+000	9	...........
	63	0.853333	9.78821E-001	2.80819E-004	0.00000E+000	2.74871E-004	1.68088E-001	9.79210E-001	3.57790E+000	9	...........
	64	0.866667	9.80351E-001	2.80075E-004	0.00000E+000	2.74572E-004	1.68088E-001	9.80700E-001	3.57790E+000	9	...........
	65	0.88	9.81833E-001	2.80997E-004	0.00000E+000	2.75892E-004	1.68088E-001	9.82210E-001	3.57790E+000	9	...........
	66	0.893333	9.83332E-001	2.81863E-004	0.00000E+000	2.77165E-004	1.68088E-001	9.83715E-001	3.57790E+000	9	...........
	67	0.906667	9.84805E-001	2.81136E-004	0.00000E+000	2.76864E-004	1.68088E-001	9.85190E-001	3.57790E+000	9	...........
	68	0.92	9.86218E-001	2.81604E-004	0.00000E+000	2.77724E-004	1.68088E-001	9.86592E-001	3.57790E+000	9	...........
	69	0.933333	9.87599E-001	2.81965E-004	0.00000E+000	2.78468E-004	1.68088E-001	9.87991E-001	3.57790E+000	9	...........
	70	0.946667	9.89001E-001	2.81485E-004	0.00000E+000	2.78389E-004	1.68088E-001	9.89387E-001	3.57790E+000	9	...........
	71	0.96	9.90347E-001	2.80571E-004	0.00000E+000	2.77863E-004	1.68088E-001	9.90703E-001	3.57790E+000	9	...........
	72	0.97333	9.91668E-001	2.81917E-004	0.00000E+000	2.79568E-004	1.68088E-001	9.92015E-001	3.57790E+000	9	...........
	73	0.98667	9.92941E-001	2.81390E-004	0.00000E+000	2.79403E-004	1.68088E-001	9.93315E-001	3.57790E+000	9	...........
	74	1	9.94208E-001	2.80086E-004	0.00000E+000	2.78464E-004	1.68088E-001	9.94566E-001	3.57790E+000	9	...........
	75	1.01333	9.95473E-001	2.81099E-004	0.00000E+000	2.79827E-004	1.68088E-001	9.95819E-001	3.57790E+000	9	...........
	76	1.02667	9.96739E-001	2.81476E-004	0.00000E+000	2.80558E-004	1.68088E-001	9.97102E-001	3.57790E+000	9	...........
	77	1.04	9.97979E-001	2.80300E-004	0.00000E+000	2.79734E-004	1.68088E-001	9.98354E-001	3.57790E+000	9	...........
	78	1.05333	9.99229E-001	2.81291E-004	0.00000E+000	2.81074E-004	1.68088E-001	9.99585E-001	3.57790E+000	9	...........
	79	1.05667	9.99961E-001	2.81102E-004	0.00000E+000	2.81091E-004	1.68088E-001	1.00032E+000	3.57790E+000	9	...........
STARTTIMEOFFSET	QUANT	1122.938	Start Time Offset (s)
