EXPLAIN
TAG	PWR800_CHARGE
TITLE	LABEL	PWR Cyclic Charge Discharge (Cell) - Charge Step	Test &Identifier
DATE	LABEL	7-7-2017	Date
TIME	LABEL	16:15:09	Time
NOTES	NOTES	3	&Notes...
	supercap test cell
	2.8mg
	6M KOH
PSTAT	PSTAT	IFC5000-01520	Potentiostat
CAPACITY	QUANT	1.00000E-003	Capacity (A-hr)
CELLTYPE	SELECTOR	1	&Cell Type
WORKINGCONNECTION	SELECTOR	0	&Working Lead
MAXCHARGETIME	VARIABLEANDUNITS	1.00000E+002	s	1.00000E+002	second(s)	Max &Charge Time
CHARGECURRENT	QUANT	2.80000E-004	&Charge Current (A) 
VOLTAGEFINISH	TWOPARAM	F	1.00000E-003	3.60000E+003	&Voltage Finish	 I (A) < 	Max Time(s)
SAMPLETIME	QUANT	1.00000E-002	Sa&mple Period (s)
CHARGESTOPAT1	MULTIPARAM	4	1.00000E+000	Charge Stop At &1	Voltage > Limit	V
CHARGESTOPAT2	MULTIPARAM	0	0.00000E+000	Charge Stop At &2	None	N/A
AESBHCSELECTOR	TOGGLE	F	Save Both Half Cells
IRCOMP	TOGGLE	F	IR &Measure
EOC	QUANT	0	Open Circuit (V)
SEQUENCER	TOGGLE	TRUE	Run as Sequence
PSTATMODEL	IQUANT	53	Pstat Model
PSTATSECTION	LABEL	IFC5000-01520	Pstat Section
PSTATSERIALNO	LABEL	01520	Pstat Serial Number
CTRLMODE	IQUANT	0	Control Mode
ELECTROMETER	IQUANT	1	RE=0 or CS=1
IESTAB	IQUANT	0	I/E Stability
CASPEED	IQUANT	4	Control Amp Speed
CONVENTION	IQUANT	1	Current Convention
ICHRANGE	IQUANT	2	Ich Range
ICHRANGEMODE	TOGGLE	T	Ich Auto Range
ICHOFFSETENABLE	TOGGLE	F	Ich Offset Enable
ICHOFFSET	QUANT	0	Ich Offset (V)
ICHFILTER	IQUANT	1	Ich Filter
VCHRANGE	IQUANT	2	Vch Range
VCHRANGEMODE	TOGGLE	T	Vch Auto Range
VCHOFFSETENABLE	TOGGLE	F	Vch Offset Enable
VCHOFFSET	QUANT	0	Vch Offset (V)
VCHFILTER	IQUANT	1	Vch Filter
IERANGELOWERLIMIT	IQUANT	9	I/E Range Lower Limit
IERANGEMODE	TOGGLE	F	I/E AutoRange
IERANGE	IQUANT	9	I/E Range
ACHSELECT	IQUANT	1	Ach Select
ACHRANGE	IQUANT	2	Ach Range
ACHOFFSETENABLE	TOGGLE	F	Ach Offset Enable
ACHOFFSET	QUANT	0	Ach Offset (V)
ACHFILTER	IQUANT	1	Ach Filter
CABLEID	IQUANT	14	Cable ID
DCCALDATE	LABEL	5-7-2017	DC Calibration Date
ACCALDATE	LABEL	12/3/2015	AC Calibration Date
FRAMEWORKVERSION	QUANT	7.01	Framework Version
INSTRUMENTVERSION	LABEL	4.00	Instrument Version
CURVE	TABLE	64
	Pt	T	Vf	Im	Vu	Pwr	Sig	Ach	Temp	IERange	Over
	#	s	V	A	V	W	V	V	deg C	#	bits
	0	0.013333	6.04652E-001	2.80096E-004	0.00000E+000	1.69361E-004	1.68088E-001	6.04881E-001	3.57780E+000	9	...........
	1	0.026667	6.34962E-001	2.82318E-004	0.00000E+000	1.79261E-004	1.68088E-001	6.35201E-001	3.57780E+000	9	...........
	2	0.04	6.61018E-001	2.80405E-004	0.00000E+000	1.85353E-004	1.68088E-001	6.61253E-001	3.57780E+000	9	...........
	3	0.053333	6.83915E-001	2.82056E-004	0.00000E+000	1.92902E-004	1.68088E-001	6.84172E-001	3.57780E+000	9	...........
	4	0.066667	7.04372E-001	2.80848E-004	0.00000E+000	1.97821E-004	1.68088E-001	7.04642E-001	3.57780E+000	9	...........
	5	0.08	7.22874E-001	2.80782E-004	0.00000E+000	2.02970E-004	1.68088E-001	7.23139E-001	3.57780E+000	9	...........
	6	0.093333	7.39681E-001	2.80678E-004	0.00000E+000	2.07612E-004	1.68088E-001	7.39965E-001	3.57780E+000	9	...........
	7	0.106667	7.55075E-001	2.81796E-004	0.00000E+000	2.12777E-004	1.68088E-001	7.55355E-001	3.57780E+000	9	...........
	8	0.12	7.69218E-001	2.81707E-004	0.00000E+000	2.16694E-004	1.68088E-001	7.69502E-001	3.57780E+000	9	...........
	9	0.133333	7.82283E-001	2.82105E-004	0.00000E+000	2.20686E-004	1.68088E-001	7.82531E-001	3.57780E+000	9	...........
	10	0.146667	7.94390E-001	2.81005E-004	0.00000E+000	2.23228E-004	1.68088E-001	7.94657E-001	3.57780E+000	9	...........
	11	0.16	8.05608E-001	2.80642E-004	0.00000E+000	2.26087E-004	1.68088E-001	8.05880E-001	3.57780E+000	9	...........
	12	0.173333	8.16056E-001	2.81392E-004	0.00000E+000	2.29631E-004	1.68088E-001	8.16348E-001	3.57780E+000	9	...........
	13	0.186667	8.25832E-001	2.81186E-004	0.00000E+000	2.32212E-004	1.68088E-001	8.26095E-001	3.57780E+000	9	...........
	14	0.2	8.34924E-001	2.82038E-004	0.00000E+000	2.35480E-004	1.68088E-001	8.35206E-001	3.57780E+000	9	...........
	15	0.213333	8.43443E-001	2.80944E-004	0.00000E+000	2.36960E-004	1.68088E-001	8.43748E-001	3.57780E+000	9	...........
	16	0.226667	8.51429E-001	2.81000E-004	0.00000E+000	2.39252E-004	1.68088E-001	8.51748E-001	3.57780E+000	9	...........
	17	0.24	8.58928E-001	2.80221E-004	0.00000E+000	2.40689E-004	1.68088E-001	8.59252E-001	3.57780E+000	9	...........
	18	0.253333	8.65961E-001	2.81081E-004	0.00000E+000	2.43406E-004	1.68088E-001	8.66303E-001	3.57780E+000	9	...........
	19	0.266667	8.72624E-001	2.80927E-004	0.00000E+000	2.45144E-004	1.68088E-001	8.72982E-001	3.57780E+000	9	...........
	20	0.28	8.78885E-001	2.80949E-004	0.00000E+000	2.46922E-004	1.68088E-001	8.79233E-001	3.57780E+000	9	...........
	21	0.293333	8.84792E-001	2.82341E-004	0.00000E+000	2.49813E-004	1.68088E-001	8.85142E-001	3.57780E+000	9	...........
	22	0.306667	8.90383E-001	2.80351E-004	0.00000E+000	2.49620E-004	1.68088E-001	8.90713E-001	3.57780E+000	9	...........
	23	0.32	8.95659E-001	2.81287E-004	0.00000E+000	2.51937E-004	1.68088E-001	8.96009E-001	3.57780E+000	9	...........
	24	0.333333	9.00667E-001	2.81631E-004	0.00000E+000	2.53655E-004	1.68088E-001	9.00987E-001	3.57780E+000	9	...........
	25	0.346667	9.05390E-001	2.81708E-004	0.00000E+000	2.55055E-004	1.68088E-001	9.05699E-001	3.57780E+000	9	...........
	26	0.36	9.09952E-001	2.82256E-004	0.00000E+000	2.56839E-004	1.68088E-001	9.10208E-001	3.57780E+000	9	...........
	27	0.373333	9.14237E-001	2.81102E-004	0.00000E+000	2.56994E-004	1.68088E-001	9.14520E-001	3.57780E+000	9	...........
	28	0.386667	9.18342E-001	2.81024E-004	0.00000E+000	2.58076E-004	1.68088E-001	9.18642E-001	3.57780E+000	9	...........
	29	0.4	9.22310E-001	2.80276E-004	0.00000E+000	2.58501E-004	1.68088E-001	9.22562E-001	3.57780E+000	9	...........
	30	0.413333	9.26034E-001	2.80805E-004	0.00000E+000	2.60035E-004	1.68088E-001	9.26308E-001	3.57780E+000	9	...........
	31	0.426667	9.29608E-001	2.80775E-004	0.00000E+000	2.61011E-004	1.68088E-001	9.29887E-001	3.57780E+000	9	...........
	32	0.44	9.33012E-001	2.80969E-004	0.00000E+000	2.62148E-004	1.68088E-001	9.33303E-001	3.57780E+000	9	...........
	33	0.453333	9.36300E-001	2.79947E-004	0.00000E+000	2.62114E-004	1.68088E-001	9.36609E-001	3.57780E+000	9	...........
	34	0.466667	9.39454E-001	2.80773E-004	0.00000E+000	2.63773E-004	1.68088E-001	9.39796E-001	3.57780E+000	9	...........
	35	0.48	9.42500E-001	2.81492E-004	0.00000E+000	2.65306E-004	1.68088E-001	9.42820E-001	3.57780E+000	9	...........
	36	0.493333	9.45457E-001	2.82341E-004	0.00000E+000	2.66941E-004	1.68088E-001	9.45804E-001	3.57780E+000	9	...........
	37	0.506667	9.48342E-001	2.81895E-004	0.00000E+000	2.67333E-004	1.68088E-001	9.48671E-001	3.57780E+000	9	...........
	38	0.52	9.51092E-001	2.81529E-004	0.00000E+000	2.67760E-004	1.68088E-001	9.51440E-001	3.57780E+000	9	...........
	39	0.533333	9.53731E-001	2.80367E-004	0.00000E+000	2.67395E-004	1.68088E-001	9.54064E-001	3.57780E+000	9	...........
	40	0.546667	9.56316E-001	2.80150E-004	0.00000E+000	2.67912E-004	1.68088E-001	9.56621E-001	3.57780E+000	9	...........
	41	0.56	9.58770E-001	2.81123E-004	0.00000E+000	2.69532E-004	1.68088E-001	9.59111E-001	3.57780E+000	9	...........
	42	0.573333	9.61160E-001	2.81701E-004	0.00000E+000	2.70760E-004	1.68088E-001	9.61504E-001	3.57780E+000	9	...........
	43	0.586667	9.63461E-001	2.80246E-004	0.00000E+000	2.70006E-004	1.68088E-001	9.63823E-001	3.57780E+000	9	...........
	44	0.6	9.65725E-001	2.81582E-004	0.00000E+000	2.71930E-004	1.68088E-001	9.66084E-001	3.57780E+000	9	...........
	45	0.613333	9.67935E-001	2.79687E-004	0.00000E+000	2.70719E-004	1.68088E-001	9.68306E-001	3.57780E+000	9	...........
	46	0.626667	9.70054E-001	2.83113E-004	0.00000E+000	2.74635E-004	1.68088E-001	9.70448E-001	3.57780E+000	9	...........
	47	0.64	9.72160E-001	2.80782E-004	0.00000E+000	2.72965E-004	1.68088E-001	9.72551E-001	3.57780E+000	9	...........
	48	0.653333	9.74223E-001	2.81614E-004	0.00000E+000	2.74355E-004	1.68088E-001	9.74568E-001	3.57780E+000	9	...........
	49	0.666667	9.76181E-001	2.79168E-004	0.00000E+000	2.72518E-004	1.68088E-001	9.76510E-001	3.57780E+000	9	...........
	50	0.68	9.78058E-001	2.79519E-004	0.00000E+000	2.73385E-004	1.68088E-001	9.78430E-001	3.57780E+000	9	...........
	51	0.693333	9.79925E-001	2.81120E-004	0.00000E+000	2.75476E-004	1.68088E-001	9.80281E-001	3.57780E+000	9	...........
	52	0.706667	9.81705E-001	2.81560E-004	0.00000E+000	2.76409E-004	1.68088E-001	9.82079E-001	3.57780E+000	9	...........
	53	0.72	9.83462E-001	2.81028E-004	0.00000E+000	2.76381E-004	1.68088E-001	9.83822E-001	3.57780E+000	9	...........
	54	0.733333	9.85174E-001	2.79827E-004	0.00000E+000	2.75678E-004	1.68088E-001	9.85544E-001	3.57780E+000	9	...........
	55	0.746667	9.86900E-001	2.81837E-004	0.00000E+000	2.78145E-004	1.68088E-001	9.87269E-001	3.57780E+000	9	...........
	56	0.76	9.88594E-001	2.81587E-004	0.00000E+000	2.78375E-004	1.68088E-001	9.88947E-001	3.57780E+000	9	...........
	57	0.773333	9.90236E-001	2.81125E-004	0.00000E+000	2.78380E-004	1.68088E-001	9.90565E-001	3.57780E+000	9	...........
	58	0.786667	9.91874E-001	2.80290E-004	0.00000E+000	2.78012E-004	1.68088E-001	9.92224E-001	3.57780E+000	9	...........
	59	0.8	9.93479E-001	2.81122E-004	0.00000E+000	2.79289E-004	1.68088E-001	9.93824E-001	3.57780E+000	9	...........
	60	0.813333	9.95047E-001	2.82310E-004	0.00000E+000	2.80911E-004	1.68088E-001	9.95374E-001	3.57780E+000	9	...........
	61	0.826667	9.96592E-001	2.81834E-004	0.00000E+000	2.80873E-004	1.68088E-001	9.96945E-001	3.57780E+000	9	...........
	62	0.84	9.98103E-001	2.80670E-004	0.00000E+000	2.80137E-004	1.68088E-001	9.98465E-001	3.57780E+000	9	...........
	63	0.851667	9.99476E-001	2.81471E-004	0.00000E+000	2.81324E-004	1.68088E-001	9.99842E-001	3.57780E+000	9	...........
STARTTIMEOFFSET	QUANT	1730.502	Start Time Offset (s)
