EXPLAIN
TAG	PWR800_CHARGE
TITLE	LABEL	PWR Cyclic Charge Discharge (Cell) - Charge Step	Test &Identifier
DATE	LABEL	7-7-2017	Date
TIME	LABEL	16:23:46	Time
NOTES	NOTES	3	&Notes...
	supercap test cell
	2.8mg
	6M KOH
PSTAT	PSTAT	IFC5000-01520	Potentiostat
CAPACITY	QUANT	1.00000E-003	Capacity (A-hr)
CELLTYPE	SELECTOR	1	&Cell Type
WORKINGCONNECTION	SELECTOR	0	&Working Lead
MAXCHARGETIME	VARIABLEANDUNITS	1.00000E+002	s	1.00000E+002	second(s)	Max &Charge Time
CHARGECURRENT	QUANT	2.80000E-004	&Charge Current (A) 
VOLTAGEFINISH	TWOPARAM	F	1.00000E-003	3.60000E+003	&Voltage Finish	 I (A) < 	Max Time(s)
SAMPLETIME	QUANT	1.00000E-002	Sa&mple Period (s)
CHARGESTOPAT1	MULTIPARAM	4	1.00000E+000	Charge Stop At &1	Voltage > Limit	V
CHARGESTOPAT2	MULTIPARAM	0	0.00000E+000	Charge Stop At &2	None	N/A
AESBHCSELECTOR	TOGGLE	F	Save Both Half Cells
IRCOMP	TOGGLE	F	IR &Measure
EOC	QUANT	0	Open Circuit (V)
SEQUENCER	TOGGLE	TRUE	Run as Sequence
PSTATMODEL	IQUANT	53	Pstat Model
PSTATSECTION	LABEL	IFC5000-01520	Pstat Section
PSTATSERIALNO	LABEL	01520	Pstat Serial Number
CTRLMODE	IQUANT	0	Control Mode
ELECTROMETER	IQUANT	1	RE=0 or CS=1
IESTAB	IQUANT	0	I/E Stability
CASPEED	IQUANT	4	Control Amp Speed
CONVENTION	IQUANT	1	Current Convention
ICHRANGE	IQUANT	2	Ich Range
ICHRANGEMODE	TOGGLE	T	Ich Auto Range
ICHOFFSETENABLE	TOGGLE	F	Ich Offset Enable
ICHOFFSET	QUANT	0	Ich Offset (V)
ICHFILTER	IQUANT	1	Ich Filter
VCHRANGE	IQUANT	2	Vch Range
VCHRANGEMODE	TOGGLE	T	Vch Auto Range
VCHOFFSETENABLE	TOGGLE	F	Vch Offset Enable
VCHOFFSET	QUANT	0	Vch Offset (V)
VCHFILTER	IQUANT	1	Vch Filter
IERANGELOWERLIMIT	IQUANT	9	I/E Range Lower Limit
IERANGEMODE	TOGGLE	F	I/E AutoRange
IERANGE	IQUANT	9	I/E Range
ACHSELECT	IQUANT	1	Ach Select
ACHRANGE	IQUANT	2	Ach Range
ACHOFFSETENABLE	TOGGLE	F	Ach Offset Enable
ACHOFFSET	QUANT	0	Ach Offset (V)
ACHFILTER	IQUANT	1	Ach Filter
CABLEID	IQUANT	14	Cable ID
DCCALDATE	LABEL	5-7-2017	DC Calibration Date
ACCALDATE	LABEL	12/3/2015	AC Calibration Date
FRAMEWORKVERSION	QUANT	7.01	Framework Version
INSTRUMENTVERSION	LABEL	4.00	Instrument Version
CURVE	TABLE	57
	Pt	T	Vf	Im	Vu	Pwr	Sig	Ach	Temp	IERange	Over
	#	s	V	A	V	W	V	V	deg C	#	bits
	0	0.013333	6.12448E-001	2.80861E-004	0.00000E+000	1.72012E-004	1.68088E-001	6.12708E-001	3.57790E+000	9	...........
	1	0.026667	6.42934E-001	2.80856E-004	0.00000E+000	1.80572E-004	1.68088E-001	6.43167E-001	3.57790E+000	9	...........
	2	0.04	6.69201E-001	2.81535E-004	0.00000E+000	1.88403E-004	1.68088E-001	6.69447E-001	3.57790E+000	9	...........
	3	0.053333	6.92380E-001	2.81641E-004	0.00000E+000	1.95003E-004	1.68088E-001	6.92628E-001	3.57790E+000	9	...........
	4	0.066667	7.13125E-001	2.80852E-004	0.00000E+000	2.00283E-004	1.68088E-001	7.13386E-001	3.57790E+000	9	...........
	5	0.08	7.31881E-001	2.81180E-004	0.00000E+000	2.05791E-004	1.68088E-001	7.32156E-001	3.57790E+000	9	...........
	6	0.093333	7.48981E-001	2.80155E-004	0.00000E+000	2.09831E-004	1.68088E-001	7.49250E-001	3.57790E+000	9	...........
	7	0.106667	7.64640E-001	2.80478E-004	0.00000E+000	2.14465E-004	1.68088E-001	7.64896E-001	3.57790E+000	9	...........
	8	0.12	7.79062E-001	2.81192E-004	0.00000E+000	2.19066E-004	1.68088E-001	7.79306E-001	3.57790E+000	9	...........
	9	0.133333	7.92368E-001	2.80556E-004	0.00000E+000	2.22304E-004	1.68088E-001	7.92619E-001	3.57790E+000	9	...........
	10	0.146667	8.04680E-001	2.82007E-004	0.00000E+000	2.26925E-004	1.68088E-001	8.04945E-001	3.57790E+000	9	...........
	11	0.16	8.16073E-001	2.81932E-004	0.00000E+000	2.30077E-004	1.68088E-001	8.16346E-001	3.57790E+000	9	...........
	12	0.173333	8.26737E-001	2.80309E-004	0.00000E+000	2.31742E-004	1.68088E-001	8.26983E-001	3.57790E+000	9	...........
	13	0.186667	8.36611E-001	2.81317E-004	0.00000E+000	2.35353E-004	1.68088E-001	8.36907E-001	3.57790E+000	9	...........
	14	0.2	8.45880E-001	2.81193E-004	0.00000E+000	2.37856E-004	1.68088E-001	8.46166E-001	3.57790E+000	9	...........
	15	0.213333	8.54485E-001	2.81641E-004	0.00000E+000	2.40658E-004	1.68088E-001	8.54784E-001	3.57790E+000	9	...........
	16	0.226667	8.62571E-001	2.79830E-004	0.00000E+000	2.41374E-004	1.68088E-001	8.62894E-001	3.57790E+000	9	...........
	17	0.24	8.70219E-001	2.81076E-004	0.00000E+000	2.44598E-004	1.68088E-001	8.70506E-001	3.57790E+000	9	...........
	18	0.253333	8.77319E-001	2.80855E-004	0.00000E+000	2.46400E-004	1.68088E-001	8.77647E-001	3.57790E+000	9	...........
	19	0.266667	8.84007E-001	2.81734E-004	0.00000E+000	2.49055E-004	1.68088E-001	8.84343E-001	3.57790E+000	9	...........
	20	0.28	8.90317E-001	2.80172E-004	0.00000E+000	2.49442E-004	1.68088E-001	8.90623E-001	3.57790E+000	9	...........
	21	0.293333	8.96243E-001	2.81122E-004	0.00000E+000	2.51954E-004	1.68088E-001	8.96612E-001	3.57790E+000	9	...........
	22	0.306667	9.01862E-001	2.80335E-004	0.00000E+000	2.52824E-004	1.68088E-001	9.02208E-001	3.57790E+000	9	...........
	23	0.32	9.07163E-001	2.81363E-004	0.00000E+000	2.55242E-004	1.68088E-001	9.07492E-001	3.57790E+000	9	...........
	24	0.333333	9.12151E-001	2.80652E-004	0.00000E+000	2.55997E-004	1.68088E-001	9.12505E-001	3.57790E+000	9	...........
	25	0.346667	9.16918E-001	2.81052E-004	0.00000E+000	2.57702E-004	1.68088E-001	9.17283E-001	3.57790E+000	9	...........
	26	0.36	9.21466E-001	2.81188E-004	0.00000E+000	2.59105E-004	1.68088E-001	9.21808E-001	3.57790E+000	9	...........
	27	0.373333	9.25785E-001	2.80968E-004	0.00000E+000	2.60116E-004	1.68088E-001	9.26120E-001	3.57790E+000	9	...........
	28	0.386667	9.29871E-001	2.81048E-004	0.00000E+000	2.61339E-004	1.68088E-001	9.30199E-001	3.57790E+000	9	...........
	29	0.4	9.33769E-001	2.81120E-004	0.00000E+000	2.62501E-004	1.68088E-001	9.34094E-001	3.57790E+000	9	...........
	30	0.413333	9.37467E-001	2.82904E-004	0.00000E+000	2.65213E-004	1.68088E-001	9.37810E-001	3.57790E+000	9	...........
	31	0.426667	9.41025E-001	2.82881E-004	0.00000E+000	2.66198E-004	1.68088E-001	9.41356E-001	3.57790E+000	9	...........
	32	0.44	9.44424E-001	2.81566E-004	0.00000E+000	2.65918E-004	1.68088E-001	9.44785E-001	3.57790E+000	9	...........
	33	0.453333	9.47723E-001	2.81097E-004	0.00000E+000	2.66402E-004	1.68088E-001	9.48074E-001	3.57790E+000	9	...........
	34	0.466667	9.50860E-001	2.80537E-004	0.00000E+000	2.66751E-004	1.68088E-001	9.51200E-001	3.57790E+000	9	...........
	35	0.48	9.53870E-001	2.82789E-004	0.00000E+000	2.69744E-004	1.68088E-001	9.54215E-001	3.57790E+000	9	...........
	36	0.493333	9.56746E-001	2.81769E-004	0.00000E+000	2.69582E-004	1.68088E-001	9.57088E-001	3.57790E+000	9	...........
	37	0.506667	9.59551E-001	2.80865E-004	0.00000E+000	2.69504E-004	1.68088E-001	9.59919E-001	3.57790E+000	9	...........
	38	0.52	9.62257E-001	2.80130E-004	0.00000E+000	2.69557E-004	1.68088E-001	9.62634E-001	3.57790E+000	9	...........
	39	0.533333	9.64832E-001	2.81292E-004	0.00000E+000	2.71399E-004	1.68088E-001	9.65201E-001	3.57790E+000	9	...........
	40	0.546667	9.67379E-001	2.81373E-004	0.00000E+000	2.72195E-004	1.68088E-001	9.67744E-001	3.57790E+000	9	...........
	41	0.56	9.69810E-001	2.81575E-004	0.00000E+000	2.73075E-004	1.68088E-001	9.70219E-001	3.57790E+000	9	...........
	42	0.573333	9.72256E-001	2.81723E-004	0.00000E+000	2.73907E-004	1.68088E-001	9.72604E-001	3.57790E+000	9	...........
	43	0.586667	9.74559E-001	2.80871E-004	0.00000E+000	2.73725E-004	1.68088E-001	9.74880E-001	3.57790E+000	9	...........
	44	0.6	9.76749E-001	2.80401E-004	0.00000E+000	2.73881E-004	1.68088E-001	9.77056E-001	3.57790E+000	9	...........
	45	0.613333	9.78906E-001	2.81749E-004	0.00000E+000	2.75806E-004	1.68088E-001	9.79194E-001	3.57790E+000	9	...........
	46	0.626667	9.81014E-001	2.81432E-004	0.00000E+000	2.76088E-004	1.68088E-001	9.81295E-001	3.57790E+000	9	...........
	47	0.64	9.83035E-001	2.81062E-004	0.00000E+000	2.76293E-004	1.68088E-001	9.83326E-001	3.57790E+000	9	...........
	48	0.653333	9.85003E-001	2.80504E-004	0.00000E+000	2.76298E-004	1.68088E-001	9.85343E-001	3.57790E+000	9	...........
	49	0.666667	9.86975E-001	2.80758E-004	0.00000E+000	2.77102E-004	1.68088E-001	9.87310E-001	3.57790E+000	9	...........
	50	0.68	9.88883E-001	2.80832E-004	0.00000E+000	2.77710E-004	1.68088E-001	9.89174E-001	3.57790E+000	9	...........
	51	0.693333	9.90719E-001	2.79724E-004	0.00000E+000	2.77128E-004	1.68088E-001	9.91029E-001	3.57790E+000	9	...........
	52	0.706667	9.92496E-001	2.80929E-004	0.00000E+000	2.78821E-004	1.68088E-001	9.92825E-001	3.57790E+000	9	...........
	53	0.72	9.94255E-001	2.80993E-004	0.00000E+000	2.79379E-004	1.68088E-001	9.94585E-001	3.57790E+000	9	...........
	54	0.733333	9.95975E-001	2.80755E-004	0.00000E+000	2.79625E-004	1.68088E-001	9.96315E-001	3.57790E+000	9	...........
	55	0.746667	9.97659E-001	2.80364E-004	0.00000E+000	2.79707E-004	1.68088E-001	9.98032E-001	3.57790E+000	9	...........
	56	0.76	9.99318E-001	2.81506E-004	0.00000E+000	2.81314E-004	1.68088E-001	9.99680E-001	3.57790E+000	9	...........
STARTTIMEOFFSET	QUANT	2067.905	Start Time Offset (s)
