EXPLAIN
TAG	PWR800_CHARGE
TITLE	LABEL	PWR Cyclic Charge Discharge (Cell) - Charge Step	Test &Identifier
DATE	LABEL	7-7-2017	Date
TIME	LABEL	15:58:28	Time
NOTES	NOTES	3	&Notes...
	supercap test cell
	2.8mg
	6M KOH
PSTAT	PSTAT	IFC5000-01520	Potentiostat
CAPACITY	QUANT	1.00000E-003	Capacity (A-hr)
CELLTYPE	SELECTOR	1	&Cell Type
WORKINGCONNECTION	SELECTOR	0	&Working Lead
MAXCHARGETIME	VARIABLEANDUNITS	1.00000E+002	s	1.00000E+002	second(s)	Max &Charge Time
CHARGECURRENT	QUANT	2.80000E-004	&Charge Current (A) 
VOLTAGEFINISH	TWOPARAM	F	1.00000E-003	3.60000E+003	&Voltage Finish	 I (A) < 	Max Time(s)
SAMPLETIME	QUANT	1.00000E-002	Sa&mple Period (s)
CHARGESTOPAT1	MULTIPARAM	4	1.00000E+000	Charge Stop At &1	Voltage > Limit	V
CHARGESTOPAT2	MULTIPARAM	0	0.00000E+000	Charge Stop At &2	None	N/A
AESBHCSELECTOR	TOGGLE	F	Save Both Half Cells
IRCOMP	TOGGLE	F	IR &Measure
EOC	QUANT	0	Open Circuit (V)
SEQUENCER	TOGGLE	TRUE	Run as Sequence
PSTATMODEL	IQUANT	53	Pstat Model
PSTATSECTION	LABEL	IFC5000-01520	Pstat Section
PSTATSERIALNO	LABEL	01520	Pstat Serial Number
CTRLMODE	IQUANT	0	Control Mode
ELECTROMETER	IQUANT	1	RE=0 or CS=1
IESTAB	IQUANT	0	I/E Stability
CASPEED	IQUANT	4	Control Amp Speed
CONVENTION	IQUANT	1	Current Convention
ICHRANGE	IQUANT	2	Ich Range
ICHRANGEMODE	TOGGLE	T	Ich Auto Range
ICHOFFSETENABLE	TOGGLE	F	Ich Offset Enable
ICHOFFSET	QUANT	0	Ich Offset (V)
ICHFILTER	IQUANT	1	Ich Filter
VCHRANGE	IQUANT	2	Vch Range
VCHRANGEMODE	TOGGLE	T	Vch Auto Range
VCHOFFSETENABLE	TOGGLE	F	Vch Offset Enable
VCHOFFSET	QUANT	0	Vch Offset (V)
VCHFILTER	IQUANT	1	Vch Filter
IERANGELOWERLIMIT	IQUANT	9	I/E Range Lower Limit
IERANGEMODE	TOGGLE	F	I/E AutoRange
IERANGE	IQUANT	9	I/E Range
ACHSELECT	IQUANT	1	Ach Select
ACHRANGE	IQUANT	2	Ach Range
ACHOFFSETENABLE	TOGGLE	F	Ach Offset Enable
ACHOFFSET	QUANT	0	Ach Offset (V)
ACHFILTER	IQUANT	1	Ach Filter
CABLEID	IQUANT	14	Cable ID
DCCALDATE	LABEL	5-7-2017	DC Calibration Date
ACCALDATE	LABEL	12/3/2015	AC Calibration Date
FRAMEWORKVERSION	QUANT	7.01	Framework Version
INSTRUMENTVERSION	LABEL	4.00	Instrument Version
CURVE	TABLE	83
	Pt	T	Vf	Im	Vu	Pwr	Sig	Ach	Temp	IERange	Over
	#	s	V	A	V	W	V	V	deg C	#	bits
	0	0.013333	5.96895E-001	2.79867E-004	0.00000E+000	1.67051E-004	1.68088E-001	5.97196E-001	3.57810E+000	9	...........
	1	0.026667	6.26369E-001	2.81215E-004	0.00000E+000	1.76144E-004	1.68088E-001	6.26657E-001	3.57810E+000	9	...........
	2	0.04	6.51365E-001	2.81127E-004	0.00000E+000	1.83116E-004	1.68088E-001	6.51671E-001	3.57810E+000	9	...........
	3	0.053333	6.73194E-001	2.80575E-004	0.00000E+000	1.88881E-004	1.68088E-001	6.73458E-001	3.57810E+000	9	...........
	4	0.066667	6.92536E-001	2.80770E-004	0.00000E+000	1.94443E-004	1.68088E-001	6.92777E-001	3.57810E+000	9	...........
	5	0.08	7.09901E-001	2.81947E-004	0.00000E+000	2.00155E-004	1.68088E-001	7.10151E-001	3.57810E+000	9	...........
	6	0.093333	7.25666E-001	2.81303E-004	0.00000E+000	2.04132E-004	1.68088E-001	7.25928E-001	3.57810E+000	9	...........
	7	0.106667	7.40015E-001	2.80780E-004	0.00000E+000	2.07782E-004	1.68088E-001	7.40263E-001	3.57810E+000	9	...........
	8	0.12	7.53201E-001	2.80698E-004	0.00000E+000	2.11422E-004	1.68088E-001	7.53465E-001	3.57810E+000	9	...........
	9	0.133333	7.65361E-001	2.81183E-004	0.00000E+000	2.15206E-004	1.68088E-001	7.65630E-001	3.57810E+000	9	...........
	10	0.146667	7.76575E-001	2.83243E-004	0.00000E+000	2.19960E-004	1.68088E-001	7.76874E-001	3.57810E+000	9	...........
	11	0.16	7.86975E-001	2.81177E-004	0.00000E+000	2.21279E-004	1.68088E-001	7.87275E-001	3.57810E+000	9	...........
	12	0.173333	7.96680E-001	2.81810E-004	0.00000E+000	2.24512E-004	1.68088E-001	7.96964E-001	3.57810E+000	9	...........
	13	0.186667	8.05683E-001	2.80626E-004	0.00000E+000	2.26096E-004	1.68088E-001	8.05986E-001	3.57810E+000	9	...........
	14	0.2	8.14122E-001	2.80641E-004	0.00000E+000	2.28476E-004	1.68088E-001	8.14432E-001	3.57810E+000	9	...........
	15	0.213333	8.22073E-001	2.81071E-004	0.00000E+000	2.31061E-004	1.68088E-001	8.22375E-001	3.57810E+000	9	...........
	16	0.226667	8.29526E-001	2.80953E-004	0.00000E+000	2.33058E-004	1.68088E-001	8.29820E-001	3.57810E+000	9	...........
	17	0.24	8.36506E-001	2.80128E-004	0.00000E+000	2.34329E-004	1.68088E-001	8.36817E-001	3.57810E+000	9	...........
	18	0.253333	8.43104E-001	2.81115E-004	0.00000E+000	2.37009E-004	1.68088E-001	8.43438E-001	3.57810E+000	9	...........
	19	0.266667	8.49354E-001	2.81375E-004	0.00000E+000	2.38987E-004	1.68088E-001	8.49703E-001	3.57810E+000	9	...........
	20	0.28	8.55244E-001	2.80789E-004	0.00000E+000	2.40143E-004	1.68088E-001	8.55599E-001	3.57810E+000	9	...........
	21	0.293333	8.60837E-001	2.80907E-004	0.00000E+000	2.41816E-004	1.68088E-001	8.61207E-001	3.57810E+000	9	...........
	22	0.306667	8.66143E-001	2.80868E-004	0.00000E+000	2.43272E-004	1.68088E-001	8.66509E-001	3.57810E+000	9	...........
	23	0.32	8.71242E-001	2.81181E-004	0.00000E+000	2.44977E-004	1.68088E-001	8.71591E-001	3.57810E+000	9	...........
	24	0.333333	8.76030E-001	2.81100E-004	0.00000E+000	2.46252E-004	1.68088E-001	8.76393E-001	3.57810E+000	9	...........
	25	0.346667	8.80572E-001	2.81226E-004	0.00000E+000	2.47640E-004	1.68088E-001	8.80932E-001	3.57810E+000	9	...........
	26	0.36	8.84933E-001	2.80902E-004	0.00000E+000	2.48580E-004	1.68088E-001	8.85259E-001	3.57810E+000	9	...........
	27	0.373333	8.89094E-001	2.81024E-004	0.00000E+000	2.49857E-004	1.68088E-001	8.89417E-001	3.57810E+000	9	...........
	28	0.386667	8.93044E-001	2.81124E-004	0.00000E+000	2.51056E-004	1.68088E-001	8.93376E-001	3.57810E+000	9	...........
	29	0.4	8.96865E-001	2.80772E-004	0.00000E+000	2.51815E-004	1.68088E-001	8.97215E-001	3.57810E+000	9	...........
	30	0.413333	9.00526E-001	2.81083E-004	0.00000E+000	2.53122E-004	1.68088E-001	9.00883E-001	3.57810E+000	9	...........
	31	0.426667	9.04037E-001	2.80498E-004	0.00000E+000	2.53581E-004	1.68088E-001	9.04428E-001	3.57810E+000	9	...........
	32	0.44	9.07447E-001	2.81196E-004	0.00000E+000	2.55170E-004	1.68088E-001	9.07849E-001	3.57810E+000	9	...........
	33	0.453333	9.10737E-001	2.81036E-004	0.00000E+000	2.55950E-004	1.68088E-001	9.11092E-001	3.57810E+000	9	...........
	34	0.466667	9.13879E-001	2.80539E-004	0.00000E+000	2.56378E-004	1.68088E-001	9.14262E-001	3.57810E+000	9	...........
	35	0.48	9.16897E-001	2.80910E-004	0.00000E+000	2.57565E-004	1.68088E-001	9.17285E-001	3.57810E+000	9	...........
	36	0.493333	9.19858E-001	2.81487E-004	0.00000E+000	2.58928E-004	1.68088E-001	9.20238E-001	3.57810E+000	9	...........
	37	0.506667	9.22730E-001	2.82541E-004	0.00000E+000	2.60709E-004	1.68088E-001	9.23059E-001	3.57810E+000	9	...........
	38	0.52	9.25467E-001	2.81746E-004	0.00000E+000	2.60747E-004	1.68088E-001	9.25795E-001	3.57810E+000	9	...........
	39	0.533333	9.28079E-001	2.81169E-004	0.00000E+000	2.60947E-004	1.68088E-001	9.28456E-001	3.57810E+000	9	...........
	40	0.546667	9.30658E-001	2.81122E-004	0.00000E+000	2.61629E-004	1.68088E-001	9.30994E-001	3.57810E+000	9	...........
	41	0.56	9.33134E-001	2.81462E-004	0.00000E+000	2.62641E-004	1.68088E-001	9.33488E-001	3.57810E+000	9	...........
	42	0.573333	9.35521E-001	2.80670E-004	0.00000E+000	2.62573E-004	1.68088E-001	9.35897E-001	3.57810E+000	9	...........
	43	0.586667	9.37881E-001	2.80512E-004	0.00000E+000	2.63086E-004	1.68088E-001	9.38243E-001	3.57810E+000	9	...........
	44	0.6	9.40153E-001	2.81433E-004	0.00000E+000	2.64590E-004	1.68088E-001	9.40514E-001	3.57810E+000	9	...........
	45	0.613333	9.42398E-001	2.80826E-004	0.00000E+000	2.64650E-004	1.68088E-001	9.42744E-001	3.57810E+000	9	...........
	46	0.626667	9.44531E-001	2.81507E-004	0.00000E+000	2.65892E-004	1.68088E-001	9.44919E-001	3.57810E+000	9	...........
	47	0.64	9.46696E-001	2.81741E-004	0.00000E+000	2.66723E-004	1.68088E-001	9.47050E-001	3.57810E+000	9	...........
	48	0.653333	9.48766E-001	2.80916E-004	0.00000E+000	2.66523E-004	1.68088E-001	9.49100E-001	3.57810E+000	9	...........
	49	0.666667	9.50759E-001	2.81110E-004	0.00000E+000	2.67267E-004	1.68088E-001	9.51105E-001	3.57810E+000	9	...........
	50	0.68	9.52737E-001	2.81772E-004	0.00000E+000	2.68455E-004	1.68088E-001	9.53076E-001	3.57810E+000	9	...........
	51	0.693333	9.54644E-001	2.81305E-004	0.00000E+000	2.68547E-004	1.68088E-001	9.54990E-001	3.57810E+000	9	...........
	52	0.706667	9.56551E-001	2.81694E-004	0.00000E+000	2.69455E-004	1.68088E-001	9.56896E-001	3.57810E+000	9	...........
	53	0.72	9.58352E-001	2.81789E-004	0.00000E+000	2.70053E-004	1.68088E-001	9.58714E-001	3.57810E+000	9	...........
	54	0.733333	9.60156E-001	2.80780E-004	0.00000E+000	2.69593E-004	1.68088E-001	9.60516E-001	3.57810E+000	9	...........
	55	0.746667	9.61899E-001	2.81300E-004	0.00000E+000	2.70583E-004	1.68088E-001	9.62270E-001	3.57810E+000	9	...........
	56	0.76	9.63646E-001	2.81834E-004	0.00000E+000	2.71588E-004	1.68088E-001	9.64023E-001	3.57810E+000	9	...........
	57	0.773333	9.65343E-001	2.80226E-004	0.00000E+000	2.70514E-004	1.68088E-001	9.65746E-001	3.57810E+000	9	...........
	58	0.786667	9.67008E-001	2.81467E-004	0.00000E+000	2.72181E-004	1.68088E-001	9.67400E-001	3.57810E+000	9	...........
	59	0.8	9.68556E-001	2.80060E-004	0.00000E+000	2.71254E-004	1.68088E-001	9.68999E-001	3.57810E+000	9	...........
	60	0.813333	9.70179E-001	2.81302E-004	0.00000E+000	2.72914E-004	1.68088E-001	9.70611E-001	3.57810E+000	9	...........
	61	0.826667	9.71763E-001	2.81993E-004	0.00000E+000	2.74030E-004	1.68088E-001	9.72208E-001	3.57900E+000	9	...........
	62	0.84	9.73356E-001	2.80718E-004	0.00000E+000	2.73238E-004	1.68088E-001	9.73780E-001	3.57900E+000	9	...........
	63	0.853333	9.74885E-001	2.81076E-004	0.00000E+000	2.74017E-004	1.68088E-001	9.75274E-001	3.57900E+000	9	...........
	64	0.866667	9.76356E-001	2.81045E-004	0.00000E+000	2.74400E-004	1.68088E-001	9.76740E-001	3.57900E+000	9	...........
	65	0.88	9.77829E-001	2.81534E-004	0.00000E+000	2.75292E-004	1.68088E-001	9.78191E-001	3.57900E+000	9	...........
	66	0.893333	9.79288E-001	2.81000E-004	0.00000E+000	2.75180E-004	1.68088E-001	9.79648E-001	3.57900E+000	9	...........
	67	0.906667	9.80716E-001	2.80543E-004	0.00000E+000	2.75133E-004	1.68088E-001	9.81078E-001	3.57900E+000	9	...........
	68	0.92	9.82119E-001	2.80717E-004	0.00000E+000	2.75697E-004	1.68088E-001	9.82491E-001	3.57900E+000	9	...........
	69	0.933333	9.83525E-001	2.81162E-004	0.00000E+000	2.76530E-004	1.68088E-001	9.83909E-001	3.57900E+000	9	...........
	70	0.946667	9.84899E-001	2.81228E-004	0.00000E+000	2.76982E-004	1.68088E-001	9.85255E-001	3.57900E+000	9	...........
	71	0.96	9.86230E-001	2.80890E-004	0.00000E+000	2.77022E-004	1.68088E-001	9.86594E-001	3.57900E+000	9	...........
	72	0.97333	9.87570E-001	2.80963E-004	0.00000E+000	2.77470E-004	1.68088E-001	9.87946E-001	3.57900E+000	9	...........
	73	0.98667	9.88896E-001	2.80959E-004	0.00000E+000	2.77839E-004	1.68088E-001	9.89234E-001	3.57900E+000	9	...........
	74	1	9.90197E-001	2.81689E-004	0.00000E+000	2.78928E-004	1.68088E-001	9.90536E-001	3.57900E+000	9	...........
	75	1.01333	9.91454E-001	2.80675E-004	0.00000E+000	2.78277E-004	1.68088E-001	9.91794E-001	3.57900E+000	9	...........
	76	1.02667	9.92717E-001	2.81372E-004	0.00000E+000	2.79323E-004	1.68088E-001	9.93066E-001	3.57900E+000	9	...........
	77	1.04	9.93964E-001	2.81167E-004	0.00000E+000	2.79470E-004	1.68088E-001	9.94331E-001	3.57900E+000	9	...........
	78	1.05333	9.95241E-001	2.81279E-004	0.00000E+000	2.79941E-004	1.68088E-001	9.95592E-001	3.57900E+000	9	...........
	79	1.06667	9.96458E-001	2.81534E-004	0.00000E+000	2.80537E-004	1.68088E-001	9.96814E-001	3.57900E+000	9	...........
	80	1.08	9.97678E-001	2.80819E-004	0.00000E+000	2.80167E-004	1.68088E-001	9.98052E-001	3.57900E+000	9	...........
	81	1.09333	9.98858E-001	2.81977E-004	0.00000E+000	2.81655E-004	1.68088E-001	9.99237E-001	3.57900E+000	9	...........
	82	1.10167	9.99834E-001	2.81182E-004	0.00000E+000	2.81136E-004	1.68088E-001	1.00018E+000	3.57900E+000	9	...........
STARTTIMEOFFSET	QUANT	1044.142	Start Time Offset (s)
