EXPLAIN
TAG	PWR800_CHARGE
TITLE	LABEL	PWR Cyclic Charge Discharge (Cell) - Charge Step	Test &Identifier
DATE	LABEL	7-7-2017	Date
TIME	LABEL	15:42:16	Time
NOTES	NOTES	3	&Notes...
	supercap test cell
	2.8mg
	6M KOH
PSTAT	PSTAT	IFC5000-01520	Potentiostat
CAPACITY	QUANT	1.00000E-003	Capacity (A-hr)
CELLTYPE	SELECTOR	1	&Cell Type
WORKINGCONNECTION	SELECTOR	0	&Working Lead
MAXCHARGETIME	VARIABLEANDUNITS	1.00000E+002	s	1.00000E+002	second(s)	Max &Charge Time
CHARGECURRENT	QUANT	2.80000E-004	&Charge Current (A) 
VOLTAGEFINISH	TWOPARAM	F	1.00000E-003	3.60000E+003	&Voltage Finish	 I (A) < 	Max Time(s)
SAMPLETIME	QUANT	1.00000E-002	Sa&mple Period (s)
CHARGESTOPAT1	MULTIPARAM	4	1.00000E+000	Charge Stop At &1	Voltage > Limit	V
CHARGESTOPAT2	MULTIPARAM	0	0.00000E+000	Charge Stop At &2	None	N/A
AESBHCSELECTOR	TOGGLE	F	Save Both Half Cells
IRCOMP	TOGGLE	F	IR &Measure
EOC	QUANT	0	Open Circuit (V)
SEQUENCER	TOGGLE	TRUE	Run as Sequence
PSTATMODEL	IQUANT	53	Pstat Model
PSTATSECTION	LABEL	IFC5000-01520	Pstat Section
PSTATSERIALNO	LABEL	01520	Pstat Serial Number
CTRLMODE	IQUANT	0	Control Mode
ELECTROMETER	IQUANT	1	RE=0 or CS=1
IESTAB	IQUANT	0	I/E Stability
CASPEED	IQUANT	4	Control Amp Speed
CONVENTION	IQUANT	1	Current Convention
ICHRANGE	IQUANT	2	Ich Range
ICHRANGEMODE	TOGGLE	T	Ich Auto Range
ICHOFFSETENABLE	TOGGLE	F	Ich Offset Enable
ICHOFFSET	QUANT	0	Ich Offset (V)
ICHFILTER	IQUANT	1	Ich Filter
VCHRANGE	IQUANT	2	Vch Range
VCHRANGEMODE	TOGGLE	T	Vch Auto Range
VCHOFFSETENABLE	TOGGLE	F	Vch Offset Enable
VCHOFFSET	QUANT	0	Vch Offset (V)
VCHFILTER	IQUANT	1	Vch Filter
IERANGELOWERLIMIT	IQUANT	9	I/E Range Lower Limit
IERANGEMODE	TOGGLE	F	I/E AutoRange
IERANGE	IQUANT	9	I/E Range
ACHSELECT	IQUANT	1	Ach Select
ACHRANGE	IQUANT	2	Ach Range
ACHOFFSETENABLE	TOGGLE	F	Ach Offset Enable
ACHOFFSET	QUANT	0	Ach Offset (V)
ACHFILTER	IQUANT	1	Ach Filter
CABLEID	IQUANT	14	Cable ID
DCCALDATE	LABEL	5-7-2017	DC Calibration Date
ACCALDATE	LABEL	12/3/2015	AC Calibration Date
FRAMEWORKVERSION	QUANT	7.01	Framework Version
INSTRUMENTVERSION	LABEL	4.00	Instrument Version
CURVE	TABLE	143
	Pt	T	Vf	Im	Vu	Pwr	Sig	Ach	Temp	IERange	Over
	#	s	V	A	V	W	V	V	deg C	#	bits
	0	0.013333	5.70167E-001	2.80631E-004	0.00000E+000	1.60007E-004	1.68088E-001	5.70455E-001	3.57840E+000	9	...........
	1	0.026667	5.97975E-001	2.80808E-004	0.00000E+000	1.67916E-004	1.68088E-001	5.98281E-001	3.57840E+000	9	...........
	2	0.04	6.21215E-001	2.81350E-004	0.00000E+000	1.74779E-004	1.68088E-001	6.21477E-001	3.57840E+000	9	...........
	3	0.053333	6.41091E-001	2.81017E-004	0.00000E+000	1.80157E-004	1.68088E-001	6.41373E-001	3.57840E+000	9	...........
	4	0.066667	6.58472E-001	2.80678E-004	0.00000E+000	1.84819E-004	1.68088E-001	6.58755E-001	3.57840E+000	9	...........
	5	0.08	6.73899E-001	2.81307E-004	0.00000E+000	1.89572E-004	1.68088E-001	6.74170E-001	3.57840E+000	9	...........
	6	0.093333	6.87663E-001	2.81313E-004	0.00000E+000	1.93448E-004	1.68088E-001	6.87978E-001	3.57840E+000	9	...........
	7	0.106667	7.00160E-001	2.81638E-004	0.00000E+000	1.97192E-004	1.68088E-001	7.00442E-001	3.57840E+000	9	...........
	8	0.12	7.11487E-001	2.80789E-004	0.00000E+000	1.99777E-004	1.68088E-001	7.11801E-001	3.57840E+000	9	...........
	9	0.133333	7.21982E-001	2.81201E-004	0.00000E+000	2.03022E-004	1.68088E-001	7.22235E-001	3.57840E+000	9	...........
	10	0.146667	7.31546E-001	2.81694E-004	0.00000E+000	2.06072E-004	1.68088E-001	7.31845E-001	3.57840E+000	9	...........
	11	0.16	7.40428E-001	2.81678E-004	0.00000E+000	2.08563E-004	1.68088E-001	7.40743E-001	3.57840E+000	9	...........
	12	0.173333	7.48681E-001	2.81466E-004	0.00000E+000	2.10728E-004	1.68088E-001	7.48991E-001	3.57840E+000	9	...........
	13	0.186667	7.56386E-001	2.80266E-004	0.00000E+000	2.11989E-004	1.68088E-001	7.56712E-001	3.57840E+000	9	...........
	14	0.2	7.63600E-001	2.81599E-004	0.00000E+000	2.15029E-004	1.68088E-001	7.63919E-001	3.57840E+000	9	...........
	15	0.213333	7.70389E-001	2.81663E-004	0.00000E+000	2.16990E-004	1.68088E-001	7.70715E-001	3.57840E+000	9	...........
	16	0.226667	7.76754E-001	2.80921E-004	0.00000E+000	2.18206E-004	1.68088E-001	7.77074E-001	3.57840E+000	9	...........
	17	0.24	7.82798E-001	2.81073E-004	0.00000E+000	2.20024E-004	1.68088E-001	7.83114E-001	3.57840E+000	9	...........
	18	0.253333	7.88473E-001	2.81299E-004	0.00000E+000	2.21797E-004	1.68088E-001	7.88791E-001	3.57840E+000	9	...........
	19	0.266667	7.93904E-001	2.81362E-004	0.00000E+000	2.23374E-004	1.68088E-001	7.94217E-001	3.57840E+000	9	...........
	20	0.28	7.99034E-001	2.81708E-004	0.00000E+000	2.25094E-004	1.68088E-001	7.99308E-001	3.57840E+000	9	...........
	21	0.293333	8.03937E-001	2.81213E-004	0.00000E+000	2.26077E-004	1.68088E-001	8.04242E-001	3.57840E+000	9	...........
	22	0.306667	8.08622E-001	2.81690E-004	0.00000E+000	2.27781E-004	1.68088E-001	8.08922E-001	3.57840E+000	9	...........
	23	0.32	8.13063E-001	2.81661E-004	0.00000E+000	2.29008E-004	1.68088E-001	8.13381E-001	3.57840E+000	9	...........
	24	0.333333	8.17347E-001	2.80860E-004	0.00000E+000	2.29560E-004	1.68088E-001	8.17667E-001	3.57840E+000	9	...........
	25	0.346667	8.21469E-001	2.81569E-004	0.00000E+000	2.31300E-004	1.68088E-001	8.21793E-001	3.57840E+000	9	...........
	26	0.36	8.25393E-001	2.80355E-004	0.00000E+000	2.31403E-004	1.68088E-001	8.25743E-001	3.57840E+000	9	...........
	27	0.373333	8.29134E-001	2.80567E-004	0.00000E+000	2.32627E-004	1.68088E-001	8.29465E-001	3.57840E+000	9	...........
	28	0.386667	8.32739E-001	2.80741E-004	0.00000E+000	2.33784E-004	1.68088E-001	8.33096E-001	3.57840E+000	9	...........
	29	0.4	8.36251E-001	2.81797E-004	0.00000E+000	2.35653E-004	1.68088E-001	8.36613E-001	3.57840E+000	9	...........
	30	0.413333	8.39623E-001	2.80937E-004	0.00000E+000	2.35881E-004	1.68088E-001	8.39981E-001	3.57840E+000	9	...........
	31	0.426667	8.42895E-001	2.80131E-004	0.00000E+000	2.36121E-004	1.68088E-001	8.43266E-001	3.57840E+000	9	...........
	32	0.44	8.46125E-001	2.81853E-004	0.00000E+000	2.38483E-004	1.68088E-001	8.46451E-001	3.57840E+000	9	...........
	33	0.453333	8.49177E-001	2.81080E-004	0.00000E+000	2.38687E-004	1.68088E-001	8.49504E-001	3.57840E+000	9	...........
	34	0.466667	8.52100E-001	2.80984E-004	0.00000E+000	2.39426E-004	1.68088E-001	8.52418E-001	3.57840E+000	9	...........
	35	0.48	8.54986E-001	2.80499E-004	0.00000E+000	2.39823E-004	1.68088E-001	8.55322E-001	3.57840E+000	9	...........
	36	0.493333	8.57815E-001	2.80418E-004	0.00000E+000	2.40546E-004	1.68088E-001	8.58152E-001	3.57840E+000	9	...........
	37	0.506667	8.60557E-001	2.81516E-004	0.00000E+000	2.42261E-004	1.68088E-001	8.60878E-001	3.57840E+000	9	...........
	38	0.52	8.63168E-001	2.81518E-004	0.00000E+000	2.42997E-004	1.68088E-001	8.63488E-001	3.57840E+000	9	...........
	39	0.533333	8.65689E-001	2.80676E-004	0.00000E+000	2.42978E-004	1.68088E-001	8.66054E-001	3.57840E+000	9	...........
	40	0.546667	8.68220E-001	2.82132E-004	0.00000E+000	2.44952E-004	1.68088E-001	8.68573E-001	3.57840E+000	9	...........
	41	0.56	8.70721E-001	2.80847E-004	0.00000E+000	2.44539E-004	1.68088E-001	8.71058E-001	3.57840E+000	9	...........
	42	0.573333	8.73092E-001	2.81149E-004	0.00000E+000	2.45469E-004	1.68088E-001	8.73462E-001	3.57840E+000	9	...........
	43	0.586667	8.75424E-001	2.81021E-004	0.00000E+000	2.46012E-004	1.68088E-001	8.75811E-001	3.57840E+000	9	...........
	44	0.6	8.77725E-001	2.80866E-004	0.00000E+000	2.46523E-004	1.68088E-001	8.78098E-001	3.57840E+000	9	...........
	45	0.613333	8.79953E-001	2.81752E-004	0.00000E+000	2.47929E-004	1.68088E-001	8.80326E-001	3.57840E+000	9	...........
	46	0.626667	8.82145E-001	2.80984E-004	0.00000E+000	2.47868E-004	1.68088E-001	8.82526E-001	3.57840E+000	9	...........
	47	0.64	8.84287E-001	2.80388E-004	0.00000E+000	2.47943E-004	1.68088E-001	8.84682E-001	3.57840E+000	9	...........
	48	0.653333	8.86370E-001	2.81379E-004	0.00000E+000	2.49406E-004	1.68088E-001	8.86773E-001	3.57840E+000	9	...........
	49	0.666667	8.88446E-001	2.80826E-004	0.00000E+000	2.49499E-004	1.68088E-001	8.88793E-001	3.57840E+000	9	...........
	50	0.68	8.90468E-001	2.81085E-004	0.00000E+000	2.50297E-004	1.68088E-001	8.90807E-001	3.57840E+000	9	...........
	51	0.693333	8.92461E-001	2.81197E-004	0.00000E+000	2.50958E-004	1.68088E-001	8.92806E-001	3.57840E+000	9	...........
	52	0.706667	8.94391E-001	2.80577E-004	0.00000E+000	2.50946E-004	1.68088E-001	8.94760E-001	3.57840E+000	9	...........
	53	0.72	8.96333E-001	2.81460E-004	0.00000E+000	2.52281E-004	1.68088E-001	8.96675E-001	3.57840E+000	9	...........
	54	0.733333	8.98226E-001	2.81009E-004	0.00000E+000	2.52409E-004	1.68088E-001	8.98574E-001	3.57840E+000	9	...........
	55	0.746667	9.00048E-001	2.80643E-004	0.00000E+000	2.52592E-004	1.68088E-001	9.00399E-001	3.57840E+000	9	...........
	56	0.76	9.01847E-001	2.81036E-004	0.00000E+000	2.53451E-004	1.68088E-001	9.02208E-001	3.57840E+000	9	...........
	57	0.773333	9.03617E-001	2.80961E-004	0.00000E+000	2.53881E-004	1.68088E-001	9.03999E-001	3.57840E+000	9	...........
	58	0.786667	9.05352E-001	2.80995E-004	0.00000E+000	2.54399E-004	1.68088E-001	9.05732E-001	3.57840E+000	9	...........
	59	0.8	9.07100E-001	2.81245E-004	0.00000E+000	2.55118E-004	1.68088E-001	9.07474E-001	3.57840E+000	9	...........
	60	0.813333	9.08801E-001	2.81139E-004	0.00000E+000	2.55499E-004	1.68088E-001	9.09185E-001	3.57909E+000	9	...........
	61	0.826667	9.10484E-001	2.81421E-004	0.00000E+000	2.56229E-004	1.68088E-001	9.10864E-001	3.57950E+000	9	...........
	62	0.84	9.12121E-001	2.81277E-004	0.00000E+000	2.56559E-004	1.68088E-001	9.12505E-001	3.57950E+000	9	...........
	63	0.853333	9.13700E-001	2.81180E-004	0.00000E+000	2.56915E-004	1.68088E-001	9.14080E-001	3.57950E+000	9	...........
	64	0.866667	9.15295E-001	2.80830E-004	0.00000E+000	2.57043E-004	1.68088E-001	9.15662E-001	3.57950E+000	9	...........
	65	0.88	9.16892E-001	2.80669E-004	0.00000E+000	2.57343E-004	1.68088E-001	9.17264E-001	3.57950E+000	9	...........
	66	0.893333	9.18478E-001	2.81130E-004	0.00000E+000	2.58212E-004	1.68088E-001	9.18844E-001	3.57950E+000	9	...........
	67	0.906667	9.20015E-001	2.80895E-004	0.00000E+000	2.58428E-004	1.68088E-001	9.20372E-001	3.57950E+000	9	...........
	68	0.92	9.21568E-001	2.81488E-004	0.00000E+000	2.59410E-004	1.68088E-001	9.21878E-001	3.57950E+000	9	...........
	69	0.933333	9.23051E-001	2.80903E-004	0.00000E+000	2.59288E-004	1.68088E-001	9.23329E-001	3.57950E+000	9	...........
	70	0.946667	9.24531E-001	2.81019E-004	0.00000E+000	2.59811E-004	1.68088E-001	9.24837E-001	3.57950E+000	9	...........
	71	0.96	9.25967E-001	2.81820E-004	0.00000E+000	2.60956E-004	1.68088E-001	9.26303E-001	3.57950E+000	9	...........
	72	0.97333	9.27414E-001	2.81519E-004	0.00000E+000	2.61085E-004	1.68088E-001	9.27757E-001	3.57950E+000	9	...........
	73	0.98667	9.28836E-001	2.81154E-004	0.00000E+000	2.61146E-004	1.68088E-001	9.29160E-001	3.57950E+000	9	...........
	74	1	9.30194E-001	2.80880E-004	0.00000E+000	2.61273E-004	1.68088E-001	9.30565E-001	3.57950E+000	9	...........
	75	1.01333	9.31578E-001	2.81157E-004	0.00000E+000	2.61920E-004	1.68088E-001	9.31928E-001	3.57950E+000	9	...........
	76	1.02667	9.32911E-001	2.81131E-004	0.00000E+000	2.62271E-004	1.68088E-001	9.33287E-001	3.57950E+000	9	...........
	77	1.04	9.34274E-001	2.80789E-004	0.00000E+000	2.62334E-004	1.68088E-001	9.34654E-001	3.57950E+000	9	...........
	78	1.05333	9.35632E-001	2.81102E-004	0.00000E+000	2.63008E-004	1.68088E-001	9.36027E-001	3.57950E+000	9	...........
	79	1.06667	9.36974E-001	2.80955E-004	0.00000E+000	2.63248E-004	1.68088E-001	9.37359E-001	3.57950E+000	9	...........
	80	1.08	9.38269E-001	2.81181E-004	0.00000E+000	2.63824E-004	1.68088E-001	9.38660E-001	3.57950E+000	9	...........
	81	1.09333	9.39576E-001	2.82110E-004	0.00000E+000	2.65064E-004	1.68088E-001	9.39966E-001	3.57950E+000	9	...........
	82	1.10667	9.40873E-001	2.81228E-004	0.00000E+000	2.64600E-004	1.68088E-001	9.41254E-001	3.57950E+000	9	...........
	83	1.12	9.42165E-001	2.81504E-004	0.00000E+000	2.65224E-004	1.68088E-001	9.42524E-001	3.57950E+000	9	...........
	84	1.13333	9.43416E-001	2.81073E-004	0.00000E+000	2.65169E-004	1.68088E-001	9.43769E-001	3.57950E+000	9	...........
	85	1.14667	9.44627E-001	2.80477E-004	0.00000E+000	2.64946E-004	1.68088E-001	9.45005E-001	3.57950E+000	9	...........
	86	1.16	9.45825E-001	2.81172E-004	0.00000E+000	2.65940E-004	1.68088E-001	9.46235E-001	3.57950E+000	9	...........
	87	1.17333	9.47095E-001	2.80713E-004	0.00000E+000	2.65862E-004	1.68088E-001	9.47454E-001	3.57950E+000	9	...........
	88	1.18667	9.48289E-001	2.81460E-004	0.00000E+000	2.66905E-004	1.68088E-001	9.48668E-001	3.57950E+000	9	...........
	89	1.2	9.49460E-001	2.81032E-004	0.00000E+000	2.66829E-004	1.68088E-001	9.49829E-001	3.57950E+000	9	...........
	90	1.21333	9.50627E-001	2.81262E-004	0.00000E+000	2.67375E-004	1.68088E-001	9.51006E-001	3.57950E+000	9	...........
	91	1.22667	9.51819E-001	2.81061E-004	0.00000E+000	2.67519E-004	1.68088E-001	9.52195E-001	3.57950E+000	9	...........
	92	1.24	9.52960E-001	2.80725E-004	0.00000E+000	2.67520E-004	1.68088E-001	9.53349E-001	3.57950E+000	9	...........
	93	1.25333	9.54105E-001	2.81222E-004	0.00000E+000	2.68316E-004	1.68088E-001	9.54459E-001	3.57950E+000	9	...........
	94	1.26667	9.55246E-001	2.81149E-004	0.00000E+000	2.68567E-004	1.68088E-001	9.55573E-001	3.57950E+000	9	...........
	95	1.28	9.56341E-001	2.80748E-004	0.00000E+000	2.68491E-004	1.68088E-001	9.56698E-001	3.57950E+000	9	...........
	96	1.29333	9.57433E-001	2.81221E-004	0.00000E+000	2.69250E-004	1.68088E-001	9.57826E-001	3.57950E+000	9	...........
	97	1.30667	9.58551E-001	2.82112E-004	0.00000E+000	2.70419E-004	1.68088E-001	9.58939E-001	3.57950E+000	9	...........
	98	1.32	9.59637E-001	2.80947E-004	0.00000E+000	2.69607E-004	1.68088E-001	9.60026E-001	3.57950E+000	9	...........
	99	1.33333	9.60733E-001	2.81102E-004	0.00000E+000	2.70064E-004	1.68088E-001	9.61105E-001	3.57950E+000	9	...........
	100	1.34667	9.61787E-001	2.80372E-004	0.00000E+000	2.69658E-004	1.68088E-001	9.62185E-001	3.57950E+000	9	...........
	101	1.36	9.62865E-001	2.81884E-004	0.00000E+000	2.71416E-004	1.68088E-001	9.63223E-001	3.57950E+000	9	...........
	102	1.37333	9.63926E-001	2.81173E-004	0.00000E+000	2.71030E-004	1.68088E-001	9.64301E-001	3.57950E+000	9	...........
	103	1.38667	9.64972E-001	2.81203E-004	0.00000E+000	2.71353E-004	1.68088E-001	9.65325E-001	3.57950E+000	9	...........
	104	1.4	9.66005E-001	2.81146E-004	0.00000E+000	2.71588E-004	1.68088E-001	9.66340E-001	3.57950E+000	9	...........
	105	1.41333	9.66996E-001	2.81483E-004	0.00000E+000	2.72193E-004	1.68088E-001	9.67363E-001	3.57950E+000	9	...........
	106	1.42667	9.68020E-001	2.81219E-004	0.00000E+000	2.72226E-004	1.68088E-001	9.68374E-001	3.57950E+000	9	...........
	107	1.44	9.69016E-001	2.81198E-004	0.00000E+000	2.72485E-004	1.68088E-001	9.69424E-001	3.57950E+000	9	...........
	108	1.45333	9.70024E-001	2.81831E-004	0.00000E+000	2.73382E-004	1.68088E-001	9.70441E-001	3.57950E+000	9	...........
	109	1.46667	9.70999E-001	2.80668E-004	0.00000E+000	2.72528E-004	1.68088E-001	9.71444E-001	3.57950E+000	9	...........
	110	1.48	9.72042E-001	2.81161E-004	0.00000E+000	2.73300E-004	1.68088E-001	9.72499E-001	3.57950E+000	9	...........
	111	1.49333	9.73094E-001	2.80475E-004	0.00000E+000	2.72928E-004	1.68088E-001	9.73458E-001	3.57950E+000	9	...........
	112	1.50667	9.74068E-001	2.82264E-004	0.00000E+000	2.74944E-004	1.68088E-001	9.74440E-001	3.57950E+000	9	...........
	113	1.52	9.75016E-001	2.80838E-004	0.00000E+000	2.73821E-004	1.68088E-001	9.75420E-001	3.57950E+000	9	...........
	114	1.53333	9.75991E-001	2.80027E-004	0.00000E+000	2.73304E-004	1.68088E-001	9.76364E-001	3.57950E+000	9	...........
	115	1.54667	9.76902E-001	2.80976E-004	0.00000E+000	2.74486E-004	1.68088E-001	9.77300E-001	3.57950E+000	9	...........
	116	1.56	9.77818E-001	2.81472E-004	0.00000E+000	2.75228E-004	1.68088E-001	9.78203E-001	3.57950E+000	9	...........
	117	1.57333	9.78778E-001	2.81216E-004	0.00000E+000	2.75248E-004	1.68088E-001	9.79155E-001	3.57950E+000	9	...........
	118	1.58667	9.79711E-001	2.81801E-004	0.00000E+000	2.76084E-004	1.68088E-001	9.80075E-001	3.57950E+000	9	...........
	119	1.6	9.80605E-001	2.81338E-004	0.00000E+000	2.75881E-004	1.68088E-001	9.80985E-001	3.57950E+000	9	...........
	120	1.61333	9.81549E-001	2.81164E-004	0.00000E+000	2.75976E-004	1.68088E-001	9.81926E-001	3.57950E+000	9	...........
	121	1.62667	9.82452E-001	2.81377E-004	0.00000E+000	2.76440E-004	1.68088E-001	9.82861E-001	3.57950E+000	9	...........
	122	1.64	9.83375E-001	2.81837E-004	0.00000E+000	2.77151E-004	1.68088E-001	9.83780E-001	3.57950E+000	9	...........
	123	1.65333	9.84295E-001	2.81375E-004	0.00000E+000	2.76956E-004	1.68088E-001	9.84719E-001	3.57950E+000	9	...........
	124	1.66667	9.85206E-001	2.80779E-004	0.00000E+000	2.76625E-004	1.68088E-001	9.85617E-001	3.57950E+000	9	...........
	125	1.68	9.86106E-001	2.80917E-004	0.00000E+000	2.77014E-004	1.68088E-001	9.86515E-001	3.57950E+000	9	...........
	126	1.69333	9.86986E-001	2.81446E-004	0.00000E+000	2.77783E-004	1.68088E-001	9.87412E-001	3.57950E+000	9	...........
	127	1.70667	9.87845E-001	2.81696E-004	0.00000E+000	2.78272E-004	1.68088E-001	9.88274E-001	3.57950E+000	9	...........
	128	1.72	9.88703E-001	2.81645E-004	0.00000E+000	2.78463E-004	1.68088E-001	9.89110E-001	3.57950E+000	9	...........
	129	1.73333	9.89555E-001	2.81124E-004	0.00000E+000	2.78188E-004	1.68088E-001	9.89946E-001	3.57950E+000	9	...........
	130	1.74667	9.90399E-001	2.82140E-004	0.00000E+000	2.79431E-004	1.68088E-001	9.90792E-001	3.57950E+000	9	...........
	131	1.76	9.91245E-001	2.80683E-004	0.00000E+000	2.78226E-004	1.68088E-001	9.91617E-001	3.57950E+000	9	...........
	132	1.77333	9.92063E-001	2.81660E-004	0.00000E+000	2.79424E-004	1.68088E-001	9.92437E-001	3.57950E+000	9	...........
	133	1.78667	9.92893E-001	2.81394E-004	0.00000E+000	2.79394E-004	1.68088E-001	9.93277E-001	3.57950E+000	9	...........
	134	1.8	9.93757E-001	2.80925E-004	0.00000E+000	2.79171E-004	1.68088E-001	9.94147E-001	3.57950E+000	9	...........
	135	1.81333	9.94642E-001	2.81156E-004	0.00000E+000	2.79650E-004	1.68088E-001	9.95019E-001	3.57856E+000	9	...........
	136	1.82667	9.95481E-001	2.80425E-004	0.00000E+000	2.79158E-004	1.68088E-001	9.95856E-001	3.57800E+000	9	...........
	137	1.84	9.96291E-001	2.81428E-004	0.00000E+000	2.80385E-004	1.68088E-001	9.96666E-001	3.57800E+000	9	...........
	138	1.85333	9.97104E-001	2.81910E-004	0.00000E+000	2.81093E-004	1.68088E-001	9.97532E-001	3.57800E+000	9	...........
	139	1.86667	9.97932E-001	2.80477E-004	0.00000E+000	2.79897E-004	1.68088E-001	9.98337E-001	3.57800E+000	9	...........
	140	1.88	9.98729E-001	2.81301E-004	0.00000E+000	2.80944E-004	1.68088E-001	9.99126E-001	3.57800E+000	9	...........
	141	1.89333	9.99513E-001	2.81852E-004	0.00000E+000	2.81715E-004	1.68088E-001	9.99917E-001	3.57800E+000	9	...........
	142	1.89667	1.00001E+000	2.81102E-004	0.00000E+000	2.81104E-004	1.68088E-001	1.00038E+000	3.57800E+000	9	...........
STARTTIMEOFFSET	QUANT	311.3601	Start Time Offset (s)
