EXPLAIN
TAG	PWR800_CHARGE
TITLE	LABEL	PWR Cyclic Charge Discharge (Cell) - Charge Step	Test &Identifier
DATE	LABEL	7-7-2017	Date
TIME	LABEL	16:15:26	Time
NOTES	NOTES	3	&Notes...
	supercap test cell
	2.8mg
	6M KOH
PSTAT	PSTAT	IFC5000-01520	Potentiostat
CAPACITY	QUANT	1.00000E-003	Capacity (A-hr)
CELLTYPE	SELECTOR	1	&Cell Type
WORKINGCONNECTION	SELECTOR	0	&Working Lead
MAXCHARGETIME	VARIABLEANDUNITS	1.00000E+002	s	1.00000E+002	second(s)	Max &Charge Time
CHARGECURRENT	QUANT	2.80000E-004	&Charge Current (A) 
VOLTAGEFINISH	TWOPARAM	F	1.00000E-003	3.60000E+003	&Voltage Finish	 I (A) < 	Max Time(s)
SAMPLETIME	QUANT	1.00000E-002	Sa&mple Period (s)
CHARGESTOPAT1	MULTIPARAM	4	1.00000E+000	Charge Stop At &1	Voltage > Limit	V
CHARGESTOPAT2	MULTIPARAM	0	0.00000E+000	Charge Stop At &2	None	N/A
AESBHCSELECTOR	TOGGLE	F	Save Both Half Cells
IRCOMP	TOGGLE	F	IR &Measure
EOC	QUANT	0	Open Circuit (V)
SEQUENCER	TOGGLE	TRUE	Run as Sequence
PSTATMODEL	IQUANT	53	Pstat Model
PSTATSECTION	LABEL	IFC5000-01520	Pstat Section
PSTATSERIALNO	LABEL	01520	Pstat Serial Number
CTRLMODE	IQUANT	0	Control Mode
ELECTROMETER	IQUANT	1	RE=0 or CS=1
IESTAB	IQUANT	0	I/E Stability
CASPEED	IQUANT	4	Control Amp Speed
CONVENTION	IQUANT	1	Current Convention
ICHRANGE	IQUANT	2	Ich Range
ICHRANGEMODE	TOGGLE	T	Ich Auto Range
ICHOFFSETENABLE	TOGGLE	F	Ich Offset Enable
ICHOFFSET	QUANT	0	Ich Offset (V)
ICHFILTER	IQUANT	1	Ich Filter
VCHRANGE	IQUANT	2	Vch Range
VCHRANGEMODE	TOGGLE	T	Vch Auto Range
VCHOFFSETENABLE	TOGGLE	F	Vch Offset Enable
VCHOFFSET	QUANT	0	Vch Offset (V)
VCHFILTER	IQUANT	1	Vch Filter
IERANGELOWERLIMIT	IQUANT	9	I/E Range Lower Limit
IERANGEMODE	TOGGLE	F	I/E AutoRange
IERANGE	IQUANT	9	I/E Range
ACHSELECT	IQUANT	1	Ach Select
ACHRANGE	IQUANT	2	Ach Range
ACHOFFSETENABLE	TOGGLE	F	Ach Offset Enable
ACHOFFSET	QUANT	0	Ach Offset (V)
ACHFILTER	IQUANT	1	Ach Filter
CABLEID	IQUANT	14	Cable ID
DCCALDATE	LABEL	5-7-2017	DC Calibration Date
ACCALDATE	LABEL	12/3/2015	AC Calibration Date
FRAMEWORKVERSION	QUANT	7.01	Framework Version
INSTRUMENTVERSION	LABEL	4.00	Instrument Version
CURVE	TABLE	64
	Pt	T	Vf	Im	Vu	Pwr	Sig	Ach	Temp	IERange	Over
	#	s	V	A	V	W	V	V	deg C	#	bits
	0	0.013333	6.09274E-001	2.80837E-004	0.00000E+000	1.71106E-004	1.68088E-001	6.09516E-001	3.57740E+000	9	...........
	1	0.026667	6.39351E-001	2.80208E-004	0.00000E+000	1.79152E-004	1.68088E-001	6.39618E-001	3.57740E+000	9	...........
	2	0.04	6.65205E-001	2.80377E-004	0.00000E+000	1.86508E-004	1.68088E-001	6.65477E-001	3.57740E+000	9	...........
	3	0.053333	6.87891E-001	2.81301E-004	0.00000E+000	1.93505E-004	1.68088E-001	6.88184E-001	3.57745E+000	9	...........
	4	0.066667	7.08144E-001	2.80133E-004	0.00000E+000	1.98375E-004	1.68088E-001	7.08420E-001	3.57780E+000	9	...........
	5	0.08	7.26441E-001	2.82245E-004	0.00000E+000	2.05035E-004	1.68088E-001	7.26703E-001	3.57780E+000	9	...........
	6	0.093333	7.43060E-001	2.81544E-004	0.00000E+000	2.09204E-004	1.68088E-001	7.43311E-001	3.57780E+000	9	...........
	7	0.106667	7.58264E-001	2.81479E-004	0.00000E+000	2.13436E-004	1.68088E-001	7.58535E-001	3.57780E+000	9	...........
	8	0.12	7.72258E-001	2.82117E-004	0.00000E+000	2.17867E-004	1.68088E-001	7.72525E-001	3.57780E+000	9	...........
	9	0.133333	7.85173E-001	2.81521E-004	0.00000E+000	2.21043E-004	1.68088E-001	7.85465E-001	3.57780E+000	9	...........
	10	0.146667	7.97152E-001	2.80636E-004	0.00000E+000	2.23709E-004	1.68088E-001	7.97446E-001	3.57780E+000	9	...........
	11	0.16	8.08221E-001	2.81068E-004	0.00000E+000	2.27165E-004	1.68088E-001	8.08525E-001	3.57780E+000	9	...........
	12	0.173333	8.18545E-001	2.82161E-004	0.00000E+000	2.30961E-004	1.68088E-001	8.18855E-001	3.57780E+000	9	...........
	13	0.186667	8.28185E-001	2.81034E-004	0.00000E+000	2.32748E-004	1.68088E-001	8.28455E-001	3.57780E+000	9	...........
	14	0.2	8.37156E-001	2.81458E-004	0.00000E+000	2.35624E-004	1.68088E-001	8.37447E-001	3.57780E+000	9	...........
	15	0.213333	8.45594E-001	2.81035E-004	0.00000E+000	2.37641E-004	1.68088E-001	8.45888E-001	3.57780E+000	9	...........
	16	0.226667	8.53458E-001	2.80597E-004	0.00000E+000	2.39478E-004	1.68088E-001	8.53798E-001	3.57780E+000	9	...........
	17	0.24	8.60840E-001	2.81186E-004	0.00000E+000	2.42056E-004	1.68088E-001	8.61168E-001	3.57780E+000	9	...........
	18	0.253333	8.67811E-001	2.80236E-004	0.00000E+000	2.43192E-004	1.68088E-001	8.68138E-001	3.57780E+000	9	...........
	19	0.266667	8.74401E-001	2.81261E-004	0.00000E+000	2.45935E-004	1.68088E-001	8.74708E-001	3.57780E+000	9	...........
	20	0.28	8.80573E-001	2.79903E-004	0.00000E+000	2.46475E-004	1.68088E-001	8.80851E-001	3.57780E+000	9	...........
	21	0.293333	8.86442E-001	2.81452E-004	0.00000E+000	2.49491E-004	1.68088E-001	8.86712E-001	3.57780E+000	9	...........
	22	0.306667	8.91964E-001	2.80797E-004	0.00000E+000	2.50461E-004	1.68088E-001	8.92260E-001	3.57780E+000	9	...........
	23	0.32	8.97194E-001	2.80792E-004	0.00000E+000	2.51925E-004	1.68088E-001	8.97508E-001	3.57780E+000	9	...........
	24	0.333333	9.02119E-001	2.82320E-004	0.00000E+000	2.54686E-004	1.68088E-001	9.02492E-001	3.57780E+000	9	...........
	25	0.346667	9.06835E-001	2.80725E-004	0.00000E+000	2.54571E-004	1.68088E-001	9.07210E-001	3.57780E+000	9	...........
	26	0.36	9.11356E-001	2.81776E-004	0.00000E+000	2.56799E-004	1.68088E-001	9.11688E-001	3.57780E+000	9	...........
	27	0.373333	9.15620E-001	2.80811E-004	0.00000E+000	2.57116E-004	1.68088E-001	9.15992E-001	3.57780E+000	9	...........
	28	0.386667	9.19676E-001	2.80094E-004	0.00000E+000	2.57596E-004	1.68088E-001	9.20050E-001	3.57780E+000	9	...........
	29	0.4	9.23630E-001	2.82240E-004	0.00000E+000	2.60685E-004	1.68088E-001	9.23969E-001	3.57780E+000	9	...........
	30	0.413333	9.27354E-001	2.81099E-004	0.00000E+000	2.60678E-004	1.68088E-001	9.27692E-001	3.57780E+000	9	...........
	31	0.426667	9.30877E-001	2.80718E-004	0.00000E+000	2.61314E-004	1.68088E-001	9.31217E-001	3.57780E+000	9	...........
	32	0.44	9.34322E-001	2.81841E-004	0.00000E+000	2.63330E-004	1.68088E-001	9.34657E-001	3.57780E+000	9	...........
	33	0.453333	9.37613E-001	2.81789E-004	0.00000E+000	2.64209E-004	1.68088E-001	9.37935E-001	3.57780E+000	9	...........
	34	0.466667	9.40763E-001	2.80886E-004	0.00000E+000	2.64247E-004	1.68088E-001	9.41069E-001	3.57780E+000	9	...........
	35	0.48	9.43790E-001	2.81010E-004	0.00000E+000	2.65214E-004	1.68088E-001	9.44104E-001	3.57780E+000	9	...........
	36	0.493333	9.46726E-001	2.80698E-004	0.00000E+000	2.65744E-004	1.68088E-001	9.47044E-001	3.57780E+000	9	...........
	37	0.506667	9.49539E-001	2.80639E-004	0.00000E+000	2.66477E-004	1.68088E-001	9.49870E-001	3.57780E+000	9	...........
	38	0.52	9.52230E-001	2.81553E-004	0.00000E+000	2.68103E-004	1.68088E-001	9.52561E-001	3.57780E+000	9	...........
	39	0.533333	9.54856E-001	2.82192E-004	0.00000E+000	2.69453E-004	1.68088E-001	9.55178E-001	3.57780E+000	9	...........
	40	0.546667	9.57349E-001	2.79431E-004	0.00000E+000	2.67513E-004	1.68088E-001	9.57668E-001	3.57780E+000	9	...........
	41	0.56	9.59784E-001	2.80379E-004	0.00000E+000	2.69103E-004	1.68088E-001	9.60129E-001	3.57780E+000	9	...........
	42	0.573333	9.62139E-001	2.81204E-004	0.00000E+000	2.70558E-004	1.68088E-001	9.62518E-001	3.57780E+000	9	...........
	43	0.586667	9.64477E-001	2.81064E-004	0.00000E+000	2.71079E-004	1.68088E-001	9.64851E-001	3.57780E+000	9	...........
	44	0.6	9.66717E-001	2.80280E-004	0.00000E+000	2.70952E-004	1.68088E-001	9.67093E-001	3.57780E+000	9	...........
	45	0.613333	9.68915E-001	2.80685E-004	0.00000E+000	2.71959E-004	1.68088E-001	9.69296E-001	3.57780E+000	9	...........
	46	0.626667	9.71022E-001	2.79372E-004	0.00000E+000	2.71276E-004	1.68088E-001	9.71431E-001	3.57780E+000	9	...........
	47	0.64	9.73140E-001	2.81803E-004	0.00000E+000	2.74234E-004	1.68088E-001	9.73500E-001	3.57780E+000	9	...........
	48	0.653333	9.75164E-001	2.80847E-004	0.00000E+000	2.73872E-004	1.68088E-001	9.75524E-001	3.57780E+000	9	...........
	49	0.666667	9.77178E-001	2.81143E-004	0.00000E+000	2.74727E-004	1.68088E-001	9.77551E-001	3.57780E+000	9	...........
	50	0.68	9.79142E-001	2.81567E-004	0.00000E+000	2.75694E-004	1.68088E-001	9.79498E-001	3.57780E+000	9	...........
	51	0.693333	9.81010E-001	2.80384E-004	0.00000E+000	2.75060E-004	1.68088E-001	9.81377E-001	3.57780E+000	9	...........
	52	0.706667	9.82860E-001	2.81834E-004	0.00000E+000	2.77003E-004	1.68088E-001	9.83226E-001	3.57780E+000	9	...........
	53	0.72	9.84617E-001	2.82084E-004	0.00000E+000	2.77744E-004	1.68088E-001	9.84994E-001	3.57780E+000	9	...........
	54	0.733333	9.86335E-001	2.80977E-004	0.00000E+000	2.77138E-004	1.68088E-001	9.86711E-001	3.57780E+000	9	...........
	55	0.746667	9.88075E-001	2.80519E-004	0.00000E+000	2.77174E-004	1.68088E-001	9.88446E-001	3.57780E+000	9	...........
	56	0.76	9.89766E-001	2.81048E-004	0.00000E+000	2.78172E-004	1.68088E-001	9.90151E-001	3.57780E+000	9	...........
	57	0.773333	9.91377E-001	2.80635E-004	0.00000E+000	2.78214E-004	1.68088E-001	9.91757E-001	3.57780E+000	9	...........
	58	0.786667	9.92987E-001	2.80897E-004	0.00000E+000	2.78927E-004	1.68088E-001	9.93357E-001	3.57780E+000	9	...........
	59	0.8	9.94573E-001	2.81786E-004	0.00000E+000	2.80256E-004	1.68088E-001	9.94966E-001	3.57780E+000	9	...........
	60	0.813333	9.96146E-001	2.81021E-004	0.00000E+000	2.79938E-004	1.68088E-001	9.96501E-001	3.57780E+000	9	...........
	61	0.826667	9.97696E-001	2.80378E-004	0.00000E+000	2.79732E-004	1.68088E-001	9.98027E-001	3.57780E+000	9	...........
	62	0.84	9.99188E-001	2.80394E-004	0.00000E+000	2.80166E-004	1.68088E-001	9.99534E-001	3.57780E+000	9	...........
	63	0.841667	1.00001E+000	2.74643E-004	0.00000E+000	2.74644E-004	1.68088E-001	1.00029E+000	3.57780E+000	9	...........
STARTTIMEOFFSET	QUANT	1741.777	Start Time Offset (s)
