EXPLAIN
TAG	PWR800_CHARGE
TITLE	LABEL	PWR Cyclic Charge Discharge (Cell) - Charge Step	Test &Identifier
DATE	LABEL	7-7-2017	Date
TIME	LABEL	16:15:52	Time
NOTES	NOTES	3	&Notes...
	supercap test cell
	2.8mg
	6M KOH
PSTAT	PSTAT	IFC5000-01520	Potentiostat
CAPACITY	QUANT	1.00000E-003	Capacity (A-hr)
CELLTYPE	SELECTOR	1	&Cell Type
WORKINGCONNECTION	SELECTOR	0	&Working Lead
MAXCHARGETIME	VARIABLEANDUNITS	1.00000E+002	s	1.00000E+002	second(s)	Max &Charge Time
CHARGECURRENT	QUANT	2.80000E-004	&Charge Current (A) 
VOLTAGEFINISH	TWOPARAM	F	1.00000E-003	3.60000E+003	&Voltage Finish	 I (A) < 	Max Time(s)
SAMPLETIME	QUANT	1.00000E-002	Sa&mple Period (s)
CHARGESTOPAT1	MULTIPARAM	4	1.00000E+000	Charge Stop At &1	Voltage > Limit	V
CHARGESTOPAT2	MULTIPARAM	0	0.00000E+000	Charge Stop At &2	None	N/A
AESBHCSELECTOR	TOGGLE	F	Save Both Half Cells
IRCOMP	TOGGLE	F	IR &Measure
EOC	QUANT	0	Open Circuit (V)
SEQUENCER	TOGGLE	TRUE	Run as Sequence
PSTATMODEL	IQUANT	53	Pstat Model
PSTATSECTION	LABEL	IFC5000-01520	Pstat Section
PSTATSERIALNO	LABEL	01520	Pstat Serial Number
CTRLMODE	IQUANT	0	Control Mode
ELECTROMETER	IQUANT	1	RE=0 or CS=1
IESTAB	IQUANT	0	I/E Stability
CASPEED	IQUANT	4	Control Amp Speed
CONVENTION	IQUANT	1	Current Convention
ICHRANGE	IQUANT	2	Ich Range
ICHRANGEMODE	TOGGLE	T	Ich Auto Range
ICHOFFSETENABLE	TOGGLE	F	Ich Offset Enable
ICHOFFSET	QUANT	0	Ich Offset (V)
ICHFILTER	IQUANT	1	Ich Filter
VCHRANGE	IQUANT	2	Vch Range
VCHRANGEMODE	TOGGLE	T	Vch Auto Range
VCHOFFSETENABLE	TOGGLE	F	Vch Offset Enable
VCHOFFSET	QUANT	0	Vch Offset (V)
VCHFILTER	IQUANT	1	Vch Filter
IERANGELOWERLIMIT	IQUANT	9	I/E Range Lower Limit
IERANGEMODE	TOGGLE	F	I/E AutoRange
IERANGE	IQUANT	9	I/E Range
ACHSELECT	IQUANT	1	Ach Select
ACHRANGE	IQUANT	2	Ach Range
ACHOFFSETENABLE	TOGGLE	F	Ach Offset Enable
ACHOFFSET	QUANT	0	Ach Offset (V)
ACHFILTER	IQUANT	1	Ach Filter
CABLEID	IQUANT	14	Cable ID
DCCALDATE	LABEL	5-7-2017	DC Calibration Date
ACCALDATE	LABEL	12/3/2015	AC Calibration Date
FRAMEWORKVERSION	QUANT	7.01	Framework Version
INSTRUMENTVERSION	LABEL	4.00	Instrument Version
CURVE	TABLE	64
	Pt	T	Vf	Im	Vu	Pwr	Sig	Ach	Temp	IERange	Over
	#	s	V	A	V	W	V	V	deg C	#	bits
	0	0.013333	6.05943E-001	2.80443E-004	0.00000E+000	1.69932E-004	1.68088E-001	6.06232E-001	3.57840E+000	9	...........
	1	0.026667	6.36302E-001	2.81314E-004	0.00000E+000	1.79000E-004	1.68088E-001	6.36548E-001	3.57840E+000	9	...........
	2	0.04	6.62361E-001	2.81293E-004	0.00000E+000	1.86318E-004	1.68088E-001	6.62604E-001	3.57840E+000	9	...........
	3	0.053333	6.85285E-001	2.79751E-004	0.00000E+000	1.91709E-004	1.68088E-001	6.85498E-001	3.57840E+000	9	...........
	4	0.066667	7.05741E-001	2.80456E-004	0.00000E+000	1.97930E-004	1.68088E-001	7.05963E-001	3.57840E+000	9	...........
	5	0.08	7.24242E-001	2.79553E-004	0.00000E+000	2.02464E-004	1.68088E-001	7.24451E-001	3.57840E+000	9	...........
	6	0.093333	7.41059E-001	2.80357E-004	0.00000E+000	2.07761E-004	1.68088E-001	7.41283E-001	3.57840E+000	9	...........
	7	0.106667	7.56428E-001	2.80906E-004	0.00000E+000	2.12486E-004	1.68088E-001	7.56669E-001	3.57840E+000	9	...........
	8	0.12	7.70564E-001	2.80544E-004	0.00000E+000	2.16177E-004	1.68088E-001	7.70844E-001	3.57840E+000	9	...........
	9	0.133333	7.83601E-001	2.82466E-004	0.00000E+000	2.21341E-004	1.68088E-001	7.83895E-001	3.57840E+000	9	...........
	10	0.146667	7.95719E-001	2.81255E-004	0.00000E+000	2.23800E-004	1.68088E-001	7.95985E-001	3.57840E+000	9	...........
	11	0.16	8.06916E-001	2.80928E-004	0.00000E+000	2.26686E-004	1.68088E-001	8.07217E-001	3.57840E+000	9	...........
	12	0.173333	8.17358E-001	2.81004E-004	0.00000E+000	2.29681E-004	1.68088E-001	8.17672E-001	3.57840E+000	9	...........
	13	0.186667	8.27091E-001	2.80760E-004	0.00000E+000	2.32214E-004	1.68088E-001	8.27410E-001	3.57840E+000	9	...........
	14	0.2	8.36169E-001	2.81898E-004	0.00000E+000	2.35715E-004	1.68088E-001	8.36517E-001	3.57840E+000	9	...........
	15	0.213333	8.44705E-001	2.81411E-004	0.00000E+000	2.37709E-004	1.68088E-001	8.45032E-001	3.57840E+000	9	...........
	16	0.226667	8.52705E-001	2.80074E-004	0.00000E+000	2.38821E-004	1.68088E-001	8.53019E-001	3.57840E+000	9	...........
	17	0.24	8.60162E-001	2.81084E-004	0.00000E+000	2.41777E-004	1.68088E-001	8.60522E-001	3.57840E+000	9	...........
	18	0.253333	8.67223E-001	2.81618E-004	0.00000E+000	2.44226E-004	1.68088E-001	8.67559E-001	3.57840E+000	9	...........
	19	0.266667	8.73837E-001	2.81655E-004	0.00000E+000	2.46120E-004	1.68088E-001	8.74177E-001	3.57840E+000	9	...........
	20	0.28	8.80045E-001	2.81455E-004	0.00000E+000	2.47694E-004	1.68088E-001	8.80383E-001	3.57840E+000	9	...........
	21	0.293333	8.85935E-001	2.80171E-004	0.00000E+000	2.48213E-004	1.68088E-001	8.86275E-001	3.57840E+000	9	...........
	22	0.306667	8.91457E-001	2.82159E-004	0.00000E+000	2.51532E-004	1.68088E-001	8.91820E-001	3.57840E+000	9	...........
	23	0.32	8.96704E-001	2.81980E-004	0.00000E+000	2.52852E-004	1.68088E-001	8.97097E-001	3.57840E+000	9	...........
	24	0.333333	9.01685E-001	2.80806E-004	0.00000E+000	2.53199E-004	1.68088E-001	9.02059E-001	3.57840E+000	9	...........
	25	0.346667	9.06448E-001	2.80452E-004	0.00000E+000	2.54215E-004	1.68088E-001	9.06809E-001	3.57840E+000	9	...........
	26	0.36	9.10957E-001	2.83177E-004	0.00000E+000	2.57962E-004	1.68088E-001	9.11330E-001	3.57840E+000	9	...........
	27	0.373333	9.15257E-001	2.82109E-004	0.00000E+000	2.58202E-004	1.68088E-001	9.15613E-001	3.57840E+000	9	...........
	28	0.386667	9.19325E-001	2.80943E-004	0.00000E+000	2.58278E-004	1.68088E-001	9.19695E-001	3.57840E+000	9	...........
	29	0.4	9.23281E-001	2.82460E-004	0.00000E+000	2.60790E-004	1.68088E-001	9.23610E-001	3.57840E+000	9	...........
	30	0.413333	9.27005E-001	2.80485E-004	0.00000E+000	2.60012E-004	1.68088E-001	9.27345E-001	3.57840E+000	9	...........
	31	0.426667	9.30542E-001	2.81448E-004	0.00000E+000	2.61899E-004	1.68088E-001	9.30866E-001	3.57840E+000	9	...........
	32	0.44	9.33969E-001	2.81551E-004	0.00000E+000	2.62960E-004	1.68088E-001	9.34305E-001	3.57840E+000	9	...........
	33	0.453333	9.37232E-001	2.80871E-004	0.00000E+000	2.63241E-004	1.68088E-001	9.37589E-001	3.57840E+000	9	...........
	34	0.466667	9.40412E-001	2.81101E-004	0.00000E+000	2.64351E-004	1.68088E-001	9.40743E-001	3.57840E+000	9	...........
	35	0.48	9.43438E-001	2.79746E-004	0.00000E+000	2.63923E-004	1.68088E-001	9.43785E-001	3.57840E+000	9	...........
	36	0.493333	9.46439E-001	2.80410E-004	0.00000E+000	2.65391E-004	1.68088E-001	9.46751E-001	3.57840E+000	9	...........
	37	0.506667	9.49277E-001	2.81110E-004	0.00000E+000	2.66851E-004	1.68088E-001	9.49600E-001	3.57840E+000	9	...........
	38	0.52	9.52025E-001	2.80674E-004	0.00000E+000	2.67209E-004	1.68088E-001	9.52336E-001	3.57840E+000	9	...........
	39	0.533333	9.54684E-001	2.81404E-004	0.00000E+000	2.68652E-004	1.68088E-001	9.54983E-001	3.57840E+000	9	...........
	40	0.546667	9.57239E-001	2.81350E-004	0.00000E+000	2.69319E-004	1.68088E-001	9.57543E-001	3.57840E+000	9	...........
	41	0.56	9.59709E-001	2.80643E-004	0.00000E+000	2.69335E-004	1.68088E-001	9.60060E-001	3.57840E+000	9	...........
	42	0.573333	9.62133E-001	2.81224E-004	0.00000E+000	2.70575E-004	1.68088E-001	9.62469E-001	3.57840E+000	9	...........
	43	0.586667	9.64444E-001	2.80139E-004	0.00000E+000	2.70178E-004	1.68088E-001	9.64811E-001	3.57840E+000	9	...........
	44	0.6	9.66722E-001	2.81631E-004	0.00000E+000	2.72259E-004	1.68088E-001	9.67085E-001	3.57840E+000	9	...........
	45	0.613333	9.68882E-001	2.81474E-004	0.00000E+000	2.72715E-004	1.68088E-001	9.69260E-001	3.57840E+000	9	...........
	46	0.626667	9.70988E-001	2.81477E-004	0.00000E+000	2.73311E-004	1.68088E-001	9.71411E-001	3.57840E+000	9	...........
	47	0.64	9.73166E-001	2.80543E-004	0.00000E+000	2.73015E-004	1.68088E-001	9.73533E-001	3.57840E+000	9	...........
	48	0.653333	9.75193E-001	2.81588E-004	0.00000E+000	2.74603E-004	1.68088E-001	9.75525E-001	3.57840E+000	9	...........
	49	0.666667	9.77170E-001	2.81742E-004	0.00000E+000	2.75310E-004	1.68088E-001	9.77494E-001	3.57840E+000	9	...........
	50	0.68	9.79086E-001	2.81844E-004	0.00000E+000	2.75950E-004	1.68088E-001	9.79418E-001	3.57840E+000	9	...........
	51	0.693333	9.81007E-001	2.80604E-004	0.00000E+000	2.75275E-004	1.68088E-001	9.81304E-001	3.57840E+000	9	...........
	52	0.706667	9.82801E-001	2.81488E-004	0.00000E+000	2.76646E-004	1.68088E-001	9.83129E-001	3.57840E+000	9	...........
	53	0.72	9.84614E-001	2.81209E-004	0.00000E+000	2.76882E-004	1.68088E-001	9.84945E-001	3.57840E+000	9	...........
	54	0.733333	9.86360E-001	2.80473E-004	0.00000E+000	2.76647E-004	1.68088E-001	9.86717E-001	3.57840E+000	9	...........
	55	0.746667	9.88064E-001	2.80867E-004	0.00000E+000	2.77514E-004	1.68088E-001	9.88375E-001	3.57840E+000	9	...........
	56	0.76	9.89731E-001	2.81620E-004	0.00000E+000	2.78728E-004	1.68088E-001	9.90026E-001	3.57840E+000	9	...........
	57	0.773333	9.91358E-001	2.80419E-004	0.00000E+000	2.77995E-004	1.68088E-001	9.91646E-001	3.57840E+000	9	...........
	58	0.786667	9.92941E-001	2.80257E-004	0.00000E+000	2.78279E-004	1.68088E-001	9.93241E-001	3.57840E+000	9	...........
	59	0.8	9.94519E-001	2.81960E-004	0.00000E+000	2.80414E-004	1.68088E-001	9.94840E-001	3.57850E+000	9	...........
	60	0.813333	9.96075E-001	2.81942E-004	0.00000E+000	2.80835E-004	1.68088E-001	9.96381E-001	3.57880E+000	9	...........
	61	0.826667	9.97609E-001	2.82498E-004	0.00000E+000	2.81823E-004	1.68088E-001	9.97956E-001	3.57880E+000	9	...........
	62	0.84	9.99118E-001	2.80762E-004	0.00000E+000	2.80514E-004	1.68088E-001	9.99460E-001	3.57880E+000	9	...........
	63	0.843333	1.00006E+000	2.82561E-004	0.00000E+000	2.82577E-004	1.68088E-001	1.00040E+000	3.57880E+000	9	...........
STARTTIMEOFFSET	QUANT	1759.361	Start Time Offset (s)
