EXPLAIN
TAG	PWR800_CHARGE
TITLE	LABEL	PWR Cyclic Charge Discharge (Cell) - Charge Step	Test &Identifier
DATE	LABEL	7-7-2017	Date
TIME	LABEL	16:13:29	Time
NOTES	NOTES	3	&Notes...
	supercap test cell
	2.8mg
	6M KOH
PSTAT	PSTAT	IFC5000-01520	Potentiostat
CAPACITY	QUANT	1.00000E-003	Capacity (A-hr)
CELLTYPE	SELECTOR	1	&Cell Type
WORKINGCONNECTION	SELECTOR	0	&Working Lead
MAXCHARGETIME	VARIABLEANDUNITS	1.00000E+002	s	1.00000E+002	second(s)	Max &Charge Time
CHARGECURRENT	QUANT	2.80000E-004	&Charge Current (A) 
VOLTAGEFINISH	TWOPARAM	F	1.00000E-003	3.60000E+003	&Voltage Finish	 I (A) < 	Max Time(s)
SAMPLETIME	QUANT	1.00000E-002	Sa&mple Period (s)
CHARGESTOPAT1	MULTIPARAM	4	1.00000E+000	Charge Stop At &1	Voltage > Limit	V
CHARGESTOPAT2	MULTIPARAM	0	0.00000E+000	Charge Stop At &2	None	N/A
AESBHCSELECTOR	TOGGLE	F	Save Both Half Cells
IRCOMP	TOGGLE	F	IR &Measure
EOC	QUANT	0	Open Circuit (V)
SEQUENCER	TOGGLE	TRUE	Run as Sequence
PSTATMODEL	IQUANT	53	Pstat Model
PSTATSECTION	LABEL	IFC5000-01520	Pstat Section
PSTATSERIALNO	LABEL	01520	Pstat Serial Number
CTRLMODE	IQUANT	0	Control Mode
ELECTROMETER	IQUANT	1	RE=0 or CS=1
IESTAB	IQUANT	0	I/E Stability
CASPEED	IQUANT	4	Control Amp Speed
CONVENTION	IQUANT	1	Current Convention
ICHRANGE	IQUANT	2	Ich Range
ICHRANGEMODE	TOGGLE	T	Ich Auto Range
ICHOFFSETENABLE	TOGGLE	F	Ich Offset Enable
ICHOFFSET	QUANT	0	Ich Offset (V)
ICHFILTER	IQUANT	1	Ich Filter
VCHRANGE	IQUANT	2	Vch Range
VCHRANGEMODE	TOGGLE	T	Vch Auto Range
VCHOFFSETENABLE	TOGGLE	F	Vch Offset Enable
VCHOFFSET	QUANT	0	Vch Offset (V)
VCHFILTER	IQUANT	1	Vch Filter
IERANGELOWERLIMIT	IQUANT	9	I/E Range Lower Limit
IERANGEMODE	TOGGLE	F	I/E AutoRange
IERANGE	IQUANT	9	I/E Range
ACHSELECT	IQUANT	1	Ach Select
ACHRANGE	IQUANT	2	Ach Range
ACHOFFSETENABLE	TOGGLE	F	Ach Offset Enable
ACHOFFSET	QUANT	0	Ach Offset (V)
ACHFILTER	IQUANT	1	Ach Filter
CABLEID	IQUANT	14	Cable ID
DCCALDATE	LABEL	5-7-2017	DC Calibration Date
ACCALDATE	LABEL	12/3/2015	AC Calibration Date
FRAMEWORKVERSION	QUANT	7.01	Framework Version
INSTRUMENTVERSION	LABEL	4.00	Instrument Version
CURVE	TABLE	66
	Pt	T	Vf	Im	Vu	Pwr	Sig	Ach	Temp	IERange	Over
	#	s	V	A	V	W	V	V	deg C	#	bits
	0	0.013333	6.05551E-001	2.81223E-004	0.00000E+000	1.70295E-004	1.68088E-001	6.05816E-001	3.57810E+000	9	...........
	1	0.026667	6.35739E-001	2.81545E-004	0.00000E+000	1.78989E-004	1.68088E-001	6.35997E-001	3.57810E+000	9	...........
	2	0.04	6.61628E-001	2.80842E-004	0.00000E+000	1.85813E-004	1.68088E-001	6.61872E-001	3.57810E+000	9	...........
	3	0.053333	6.84319E-001	2.81017E-004	0.00000E+000	1.92305E-004	1.68088E-001	6.84570E-001	3.57810E+000	9	...........
	4	0.066667	7.04603E-001	2.80963E-004	0.00000E+000	1.97967E-004	1.68088E-001	7.04835E-001	3.57810E+000	9	...........
	5	0.08	7.22909E-001	2.80315E-004	0.00000E+000	2.02642E-004	1.68088E-001	7.23154E-001	3.57810E+000	9	...........
	6	0.093333	7.39527E-001	2.80128E-004	0.00000E+000	2.07162E-004	1.68088E-001	7.39811E-001	3.57810E+000	9	...........
	7	0.106667	7.54757E-001	2.80240E-004	0.00000E+000	2.11513E-004	1.68088E-001	7.55015E-001	3.57803E+000	9	...........
	8	0.12	7.68726E-001	2.80488E-004	0.00000E+000	2.15618E-004	1.68088E-001	7.68987E-001	3.57780E+000	9	...........
	9	0.133333	7.81645E-001	2.80302E-004	0.00000E+000	2.19097E-004	1.68088E-001	7.81915E-001	3.57780E+000	9	...........
	10	0.146667	7.93611E-001	2.81647E-004	0.00000E+000	2.23518E-004	1.68088E-001	7.93905E-001	3.57780E+000	9	...........
	11	0.16	8.04723E-001	2.81944E-004	0.00000E+000	2.26887E-004	1.68088E-001	8.05021E-001	3.57780E+000	9	...........
	12	0.173333	8.15001E-001	2.80912E-004	0.00000E+000	2.28943E-004	1.68088E-001	8.15303E-001	3.57780E+000	9	...........
	13	0.186667	8.24639E-001	2.80674E-004	0.00000E+000	2.31455E-004	1.68088E-001	8.24931E-001	3.57780E+000	9	...........
	14	0.2	8.33608E-001	2.80915E-004	0.00000E+000	2.34173E-004	1.68088E-001	8.33911E-001	3.57780E+000	9	...........
	15	0.213333	8.42018E-001	2.82137E-004	0.00000E+000	2.37564E-004	1.68088E-001	8.42345E-001	3.57780E+000	9	...........
	16	0.226667	8.49912E-001	2.80503E-004	0.00000E+000	2.38403E-004	1.68088E-001	8.50224E-001	3.57780E+000	9	...........
	17	0.24	8.57265E-001	2.80172E-004	0.00000E+000	2.40181E-004	1.68088E-001	8.57601E-001	3.57780E+000	9	...........
	18	0.253333	8.64190E-001	2.81372E-004	0.00000E+000	2.43159E-004	1.68088E-001	8.64528E-001	3.57780E+000	9	...........
	19	0.266667	8.70790E-001	2.81120E-004	0.00000E+000	2.44796E-004	1.68088E-001	8.71108E-001	3.57780E+000	9	...........
	20	0.28	8.76989E-001	2.81472E-004	0.00000E+000	2.46848E-004	1.68088E-001	8.77289E-001	3.57780E+000	9	...........
	21	0.293333	8.82830E-001	2.80333E-004	0.00000E+000	2.47487E-004	1.68088E-001	8.83131E-001	3.57780E+000	9	...........
	22	0.306667	8.88353E-001	2.81403E-004	0.00000E+000	2.49986E-004	1.68088E-001	8.88668E-001	3.57780E+000	9	...........
	23	0.32	8.93553E-001	2.81048E-004	0.00000E+000	2.51131E-004	1.68088E-001	8.93909E-001	3.57780E+000	9	...........
	24	0.333333	8.98510E-001	2.81676E-004	0.00000E+000	2.53089E-004	1.68088E-001	8.98870E-001	3.57780E+000	9	...........
	25	0.346667	9.03234E-001	2.80210E-004	0.00000E+000	2.53096E-004	1.68088E-001	9.03592E-001	3.57780E+000	9	...........
	26	0.36	9.07742E-001	2.81509E-004	0.00000E+000	2.55537E-004	1.68088E-001	9.08102E-001	3.57780E+000	9	...........
	27	0.373333	9.12006E-001	2.81588E-004	0.00000E+000	2.56810E-004	1.68088E-001	9.12353E-001	3.57780E+000	9	...........
	28	0.386667	9.16050E-001	2.81421E-004	0.00000E+000	2.57796E-004	1.68088E-001	9.16417E-001	3.57780E+000	9	...........
	29	0.4	9.19929E-001	2.80930E-004	0.00000E+000	2.58436E-004	1.68088E-001	9.20294E-001	3.57780E+000	9	...........
	30	0.413333	9.23687E-001	2.80500E-004	0.00000E+000	2.59094E-004	1.68088E-001	9.24017E-001	3.57780E+000	9	...........
	31	0.426667	9.27214E-001	2.81850E-004	0.00000E+000	2.61336E-004	1.68088E-001	9.27558E-001	3.57780E+000	9	...........
	32	0.44	9.30592E-001	2.80230E-004	0.00000E+000	2.60780E-004	1.68088E-001	9.30904E-001	3.57780E+000	9	...........
	33	0.453333	9.33868E-001	2.82186E-004	0.00000E+000	2.63524E-004	1.68088E-001	9.34199E-001	3.57780E+000	9	...........
	34	0.466667	9.36984E-001	2.79750E-004	0.00000E+000	2.62121E-004	1.68088E-001	9.37343E-001	3.57780E+000	9	...........
	35	0.48	9.40003E-001	2.80912E-004	0.00000E+000	2.64058E-004	1.68088E-001	9.40341E-001	3.57780E+000	9	...........
	36	0.493333	9.42956E-001	2.80671E-004	0.00000E+000	2.64660E-004	1.68088E-001	9.43256E-001	3.57780E+000	9	...........
	37	0.506667	9.45773E-001	2.79666E-004	0.00000E+000	2.64500E-004	1.68088E-001	9.46116E-001	3.57780E+000	9	...........
	38	0.52	9.48533E-001	2.79766E-004	0.00000E+000	2.65367E-004	1.68088E-001	9.48850E-001	3.57780E+000	9	...........
	39	0.533333	9.51145E-001	2.80615E-004	0.00000E+000	2.66905E-004	1.68088E-001	9.51488E-001	3.57780E+000	9	...........
	40	0.546667	9.53699E-001	2.80190E-004	0.00000E+000	2.67217E-004	1.68088E-001	9.54028E-001	3.57780E+000	9	...........
	41	0.56	9.56131E-001	2.81936E-004	0.00000E+000	2.69568E-004	1.68088E-001	9.56471E-001	3.57780E+000	9	...........
	42	0.573333	9.58463E-001	2.81659E-004	0.00000E+000	2.69959E-004	1.68088E-001	9.58825E-001	3.57780E+000	9	...........
	43	0.586667	9.60728E-001	2.81511E-004	0.00000E+000	2.70455E-004	1.68088E-001	9.61093E-001	3.57780E+000	9	...........
	44	0.6	9.62974E-001	2.81752E-004	0.00000E+000	2.71320E-004	1.68088E-001	9.63354E-001	3.57780E+000	9	...........
	45	0.613333	9.65161E-001	2.80512E-004	0.00000E+000	2.70739E-004	1.68088E-001	9.65515E-001	3.57780E+000	9	...........
	46	0.626667	9.67268E-001	2.81018E-004	0.00000E+000	2.71820E-004	1.68088E-001	9.67626E-001	3.57780E+000	9	...........
	47	0.64	9.69345E-001	2.81213E-004	0.00000E+000	2.72592E-004	1.68088E-001	9.69716E-001	3.57780E+000	9	...........
	48	0.653333	9.71350E-001	2.81006E-004	0.00000E+000	2.72956E-004	1.68088E-001	9.71734E-001	3.57780E+000	9	...........
	49	0.666667	9.73390E-001	2.80822E-004	0.00000E+000	2.73349E-004	1.68088E-001	9.73750E-001	3.57780E+000	9	...........
	50	0.68	9.75313E-001	2.81429E-004	0.00000E+000	2.74482E-004	1.68088E-001	9.75680E-001	3.57780E+000	9	...........
	51	0.693333	9.77179E-001	2.81832E-004	0.00000E+000	2.75400E-004	1.68088E-001	9.77553E-001	3.57780E+000	9	...........
	52	0.706667	9.79030E-001	2.81068E-004	0.00000E+000	2.75174E-004	1.68088E-001	9.79380E-001	3.57780E+000	9	...........
	53	0.72	9.80860E-001	2.80860E-004	0.00000E+000	2.75484E-004	1.68088E-001	9.81199E-001	3.57780E+000	9	...........
	54	0.733333	9.82645E-001	2.81900E-004	0.00000E+000	2.77008E-004	1.68088E-001	9.82999E-001	3.57780E+000	9	...........
	55	0.746667	9.84325E-001	2.80559E-004	0.00000E+000	2.76162E-004	1.68088E-001	9.84710E-001	3.57780E+000	9	...........
	56	0.76	9.86011E-001	2.81276E-004	0.00000E+000	2.77341E-004	1.68088E-001	9.86372E-001	3.57780E+000	9	...........
	57	0.773333	9.87653E-001	2.80942E-004	0.00000E+000	2.77473E-004	1.68088E-001	9.88024E-001	3.57780E+000	9	...........
	58	0.786667	9.89312E-001	2.81678E-004	0.00000E+000	2.78668E-004	1.68088E-001	9.89667E-001	3.57780E+000	9	...........
	59	0.8	9.90895E-001	2.81631E-004	0.00000E+000	2.79066E-004	1.68088E-001	9.91237E-001	3.57780E+000	9	...........
	60	0.813333	9.92437E-001	2.80377E-004	0.00000E+000	2.78257E-004	1.68088E-001	9.92812E-001	3.57780E+000	9	...........
	61	0.826667	9.93968E-001	2.80394E-004	0.00000E+000	2.78702E-004	1.68088E-001	9.94359E-001	3.57780E+000	9	...........
	62	0.84	9.95487E-001	2.80042E-004	0.00000E+000	2.78778E-004	1.68088E-001	9.95860E-001	3.57780E+000	9	...........
	63	0.853333	9.96969E-001	2.81731E-004	0.00000E+000	2.80877E-004	1.68088E-001	9.97334E-001	3.57780E+000	9	...........
	64	0.866667	9.98438E-001	2.81676E-004	0.00000E+000	2.81236E-004	1.68088E-001	9.98816E-001	3.57780E+000	9	...........
	65	0.876667	9.99693E-001	2.80663E-004	0.00000E+000	2.80577E-004	1.68088E-001	1.00009E+000	3.57780E+000	9	...........
STARTTIMEOFFSET	QUANT	1663.665	Start Time Offset (s)
