EXPLAIN
TAG	PWR800_CHARGE
TITLE	LABEL	PWR Cyclic Charge Discharge (Cell) - Charge Step	Test &Identifier
DATE	LABEL	7-7-2017	Date
TIME	LABEL	15:52:23	Time
NOTES	NOTES	3	&Notes...
	supercap test cell
	2.8mg
	6M KOH
PSTAT	PSTAT	IFC5000-01520	Potentiostat
CAPACITY	QUANT	1.00000E-003	Capacity (A-hr)
CELLTYPE	SELECTOR	1	&Cell Type
WORKINGCONNECTION	SELECTOR	0	&Working Lead
MAXCHARGETIME	VARIABLEANDUNITS	1.00000E+002	s	1.00000E+002	second(s)	Max &Charge Time
CHARGECURRENT	QUANT	2.80000E-004	&Charge Current (A) 
VOLTAGEFINISH	TWOPARAM	F	1.00000E-003	3.60000E+003	&Voltage Finish	 I (A) < 	Max Time(s)
SAMPLETIME	QUANT	1.00000E-002	Sa&mple Period (s)
CHARGESTOPAT1	MULTIPARAM	4	1.00000E+000	Charge Stop At &1	Voltage > Limit	V
CHARGESTOPAT2	MULTIPARAM	0	0.00000E+000	Charge Stop At &2	None	N/A
AESBHCSELECTOR	TOGGLE	F	Save Both Half Cells
IRCOMP	TOGGLE	F	IR &Measure
EOC	QUANT	0	Open Circuit (V)
SEQUENCER	TOGGLE	TRUE	Run as Sequence
PSTATMODEL	IQUANT	53	Pstat Model
PSTATSECTION	LABEL	IFC5000-01520	Pstat Section
PSTATSERIALNO	LABEL	01520	Pstat Serial Number
CTRLMODE	IQUANT	0	Control Mode
ELECTROMETER	IQUANT	1	RE=0 or CS=1
IESTAB	IQUANT	0	I/E Stability
CASPEED	IQUANT	4	Control Amp Speed
CONVENTION	IQUANT	1	Current Convention
ICHRANGE	IQUANT	2	Ich Range
ICHRANGEMODE	TOGGLE	T	Ich Auto Range
ICHOFFSETENABLE	TOGGLE	F	Ich Offset Enable
ICHOFFSET	QUANT	0	Ich Offset (V)
ICHFILTER	IQUANT	1	Ich Filter
VCHRANGE	IQUANT	2	Vch Range
VCHRANGEMODE	TOGGLE	T	Vch Auto Range
VCHOFFSETENABLE	TOGGLE	F	Vch Offset Enable
VCHOFFSET	QUANT	0	Vch Offset (V)
VCHFILTER	IQUANT	1	Vch Filter
IERANGELOWERLIMIT	IQUANT	9	I/E Range Lower Limit
IERANGEMODE	TOGGLE	F	I/E AutoRange
IERANGE	IQUANT	9	I/E Range
ACHSELECT	IQUANT	1	Ach Select
ACHRANGE	IQUANT	2	Ach Range
ACHOFFSETENABLE	TOGGLE	F	Ach Offset Enable
ACHOFFSET	QUANT	0	Ach Offset (V)
ACHFILTER	IQUANT	1	Ach Filter
CABLEID	IQUANT	14	Cable ID
DCCALDATE	LABEL	5-7-2017	DC Calibration Date
ACCALDATE	LABEL	12/3/2015	AC Calibration Date
FRAMEWORKVERSION	QUANT	7.01	Framework Version
INSTRUMENTVERSION	LABEL	4.00	Instrument Version
CURVE	TABLE	98
	Pt	T	Vf	Im	Vu	Pwr	Sig	Ach	Temp	IERange	Over
	#	s	V	A	V	W	V	V	deg C	#	bits
	0	0.013333	6.02332E-001	2.81288E-004	0.00000E+000	1.69428E-004	1.68088E-001	6.02603E-001	3.57820E+000	9	...........
	1	0.026667	6.30463E-001	2.81466E-004	0.00000E+000	1.77454E-004	1.68088E-001	6.30729E-001	3.57820E+000	9	...........
	2	0.04	6.54159E-001	2.81039E-004	0.00000E+000	1.83844E-004	1.68088E-001	6.54454E-001	3.57820E+000	9	...........
	3	0.053333	6.74698E-001	2.81046E-004	0.00000E+000	1.89621E-004	1.68088E-001	6.75020E-001	3.57820E+000	9	...........
	4	0.066667	6.92786E-001	2.80533E-004	0.00000E+000	1.94350E-004	1.68088E-001	6.93095E-001	3.57820E+000	9	...........
	5	0.08	7.08948E-001	2.81372E-004	0.00000E+000	1.99478E-004	1.68088E-001	7.09269E-001	3.57820E+000	9	...........
	6	0.093333	7.23579E-001	2.80565E-004	0.00000E+000	2.03011E-004	1.68088E-001	7.23868E-001	3.57820E+000	9	...........
	7	0.106667	7.36805E-001	2.81957E-004	0.00000E+000	2.07747E-004	1.68088E-001	7.37129E-001	3.57820E+000	9	...........
	8	0.12	7.49011E-001	2.81489E-004	0.00000E+000	2.10838E-004	1.68088E-001	7.49305E-001	3.57820E+000	9	...........
	9	0.133333	7.60186E-001	2.81294E-004	0.00000E+000	2.13836E-004	1.68088E-001	7.60460E-001	3.57820E+000	9	...........
	10	0.146667	7.70521E-001	2.80768E-004	0.00000E+000	2.16338E-004	1.68088E-001	7.70811E-001	3.57820E+000	9	...........
	11	0.16	7.80119E-001	2.81166E-004	0.00000E+000	2.19343E-004	1.68088E-001	7.80425E-001	3.57820E+000	9	...........
	12	0.173333	7.89034E-001	2.80687E-004	0.00000E+000	2.21471E-004	1.68088E-001	7.89329E-001	3.57820E+000	9	...........
	13	0.186667	7.97392E-001	2.81626E-004	0.00000E+000	2.24567E-004	1.68088E-001	7.97657E-001	3.57820E+000	9	...........
	14	0.2	8.05154E-001	2.80964E-004	0.00000E+000	2.26219E-004	1.68088E-001	8.05440E-001	3.57820E+000	9	...........
	15	0.213333	8.12489E-001	2.81123E-004	0.00000E+000	2.28410E-004	1.68088E-001	8.12782E-001	3.57820E+000	9	...........
	16	0.226667	8.19378E-001	2.80518E-004	0.00000E+000	2.29850E-004	1.68088E-001	8.19673E-001	3.57820E+000	9	...........
	17	0.24	8.25828E-001	2.81166E-004	0.00000E+000	2.32195E-004	1.68088E-001	8.26138E-001	3.57820E+000	9	...........
	18	0.253333	8.31968E-001	2.81166E-004	0.00000E+000	2.33921E-004	1.68088E-001	8.32282E-001	3.57820E+000	9	...........
	19	0.266667	8.37734E-001	2.81947E-004	0.00000E+000	2.36197E-004	1.68088E-001	8.38070E-001	3.57820E+000	9	...........
	20	0.28	8.43232E-001	2.80616E-004	0.00000E+000	2.36624E-004	1.68088E-001	8.43552E-001	3.57820E+000	9	...........
	21	0.293333	8.48458E-001	2.81086E-004	0.00000E+000	2.38489E-004	1.68088E-001	8.48788E-001	3.57820E+000	9	...........
	22	0.306667	8.53399E-001	2.81131E-004	0.00000E+000	2.39917E-004	1.68088E-001	8.53729E-001	3.57820E+000	9	...........
	23	0.32	8.58102E-001	2.80767E-004	0.00000E+000	2.40927E-004	1.68088E-001	8.58441E-001	3.57820E+000	9	...........
	24	0.333333	8.62610E-001	2.81023E-004	0.00000E+000	2.42413E-004	1.68088E-001	8.62958E-001	3.57820E+000	9	...........
	25	0.346667	8.66907E-001	2.81095E-004	0.00000E+000	2.43683E-004	1.68088E-001	8.67229E-001	3.57820E+000	9	...........
	26	0.36	8.71051E-001	2.80820E-004	0.00000E+000	2.44608E-004	1.68088E-001	8.71366E-001	3.57820E+000	9	...........
	27	0.373333	8.74975E-001	2.81666E-004	0.00000E+000	2.46451E-004	1.68088E-001	8.75278E-001	3.57820E+000	9	...........
	28	0.386667	8.78766E-001	2.81224E-004	0.00000E+000	2.47130E-004	1.68088E-001	8.79071E-001	3.57820E+000	9	...........
	29	0.4	8.82419E-001	2.80620E-004	0.00000E+000	2.47624E-004	1.68088E-001	8.82709E-001	3.57820E+000	9	...........
	30	0.413333	8.85895E-001	2.81239E-004	0.00000E+000	2.49148E-004	1.68088E-001	8.86209E-001	3.57820E+000	9	...........
	31	0.426667	8.89241E-001	2.81288E-004	0.00000E+000	2.50133E-004	1.68088E-001	8.89563E-001	3.57820E+000	9	...........
	32	0.44	8.92479E-001	2.81323E-004	0.00000E+000	2.51075E-004	1.68088E-001	8.92796E-001	3.57820E+000	9	...........
	33	0.453333	8.95564E-001	2.81741E-004	0.00000E+000	2.52317E-004	1.68088E-001	8.95918E-001	3.57820E+000	9	...........
	34	0.466667	8.98550E-001	2.81004E-004	0.00000E+000	2.52496E-004	1.68088E-001	8.98894E-001	3.57820E+000	9	...........
	35	0.48	9.01447E-001	2.82082E-004	0.00000E+000	2.54282E-004	1.68088E-001	9.01820E-001	3.57820E+000	9	...........
	36	0.493333	9.04247E-001	2.81486E-004	0.00000E+000	2.54533E-004	1.68088E-001	9.04623E-001	3.57820E+000	9	...........
	37	0.506667	9.06978E-001	2.80387E-004	0.00000E+000	2.54304E-004	1.68088E-001	9.07369E-001	3.57820E+000	9	...........
	38	0.52	9.09663E-001	2.82071E-004	0.00000E+000	2.56590E-004	1.68088E-001	9.10010E-001	3.57820E+000	9	...........
	39	0.533333	9.12211E-001	2.80908E-004	0.00000E+000	2.56248E-004	1.68088E-001	9.12545E-001	3.57820E+000	9	...........
	40	0.546667	9.14710E-001	2.81531E-004	0.00000E+000	2.57519E-004	1.68088E-001	9.15045E-001	3.57820E+000	9	...........
	41	0.56	9.17130E-001	2.82184E-004	0.00000E+000	2.58799E-004	1.68088E-001	9.17459E-001	3.57820E+000	9	...........
	42	0.573333	9.19446E-001	2.81444E-004	0.00000E+000	2.58773E-004	1.68088E-001	9.19795E-001	3.57820E+000	9	...........
	43	0.586667	9.21821E-001	2.80850E-004	0.00000E+000	2.58894E-004	1.68088E-001	9.22123E-001	3.57820E+000	9	...........
	44	0.6	9.24049E-001	2.80916E-004	0.00000E+000	2.59580E-004	1.68088E-001	9.24355E-001	3.57820E+000	9	...........
	45	0.613333	9.26239E-001	2.81080E-004	0.00000E+000	2.60348E-004	1.68088E-001	9.26553E-001	3.57820E+000	9	...........
	46	0.626667	9.28360E-001	2.81425E-004	0.00000E+000	2.61264E-004	1.68088E-001	9.28703E-001	3.57820E+000	9	...........
	47	0.64	9.30437E-001	2.80948E-004	0.00000E+000	2.61404E-004	1.68088E-001	9.30792E-001	3.57820E+000	9	...........
	48	0.653333	9.32475E-001	2.80005E-004	0.00000E+000	2.61098E-004	1.68088E-001	9.32802E-001	3.57820E+000	9	...........
	49	0.666667	9.34462E-001	2.81834E-004	0.00000E+000	2.63363E-004	1.68088E-001	9.34825E-001	3.57820E+000	9	...........
	50	0.68	9.36389E-001	2.80577E-004	0.00000E+000	2.62729E-004	1.68088E-001	9.36769E-001	3.57820E+000	9	...........
	51	0.693333	9.38283E-001	2.82101E-004	0.00000E+000	2.64691E-004	1.68088E-001	9.38641E-001	3.57820E+000	9	...........
	52	0.706667	9.40173E-001	2.80920E-004	0.00000E+000	2.64113E-004	1.68088E-001	9.40556E-001	3.57902E+000	9	...........
	53	0.72	9.42016E-001	2.81686E-004	0.00000E+000	2.65352E-004	1.68088E-001	9.42356E-001	3.57930E+000	9	...........
	54	0.733333	9.43794E-001	2.81032E-004	0.00000E+000	2.65237E-004	1.68088E-001	9.44149E-001	3.57930E+000	9	...........
	55	0.746667	9.45521E-001	2.80980E-004	0.00000E+000	2.65673E-004	1.68088E-001	9.45910E-001	3.57930E+000	9	...........
	56	0.76	9.47302E-001	2.81144E-004	0.00000E+000	2.66328E-004	1.68088E-001	9.47653E-001	3.57930E+000	9	...........
	57	0.773333	9.49006E-001	2.81906E-004	0.00000E+000	2.67530E-004	1.68088E-001	9.49376E-001	3.57930E+000	9	...........
	58	0.786667	9.50695E-001	2.81536E-004	0.00000E+000	2.67655E-004	1.68088E-001	9.51034E-001	3.57930E+000	9	...........
	59	0.8	9.52323E-001	2.82032E-004	0.00000E+000	2.68585E-004	1.68088E-001	9.52681E-001	3.57930E+000	9	...........
	60	0.813333	9.53990E-001	2.80822E-004	0.00000E+000	2.67902E-004	1.68088E-001	9.54320E-001	3.57930E+000	9	...........
	61	0.826667	9.55565E-001	2.80881E-004	0.00000E+000	2.68400E-004	1.68088E-001	9.55928E-001	3.57930E+000	9	...........
	62	0.84	9.57138E-001	2.81422E-004	0.00000E+000	2.69360E-004	1.68088E-001	9.57493E-001	3.57930E+000	9	...........
	63	0.853333	9.58696E-001	2.81176E-004	0.00000E+000	2.69563E-004	1.68088E-001	9.59070E-001	3.57930E+000	9	...........
	64	0.866667	9.60206E-001	2.81342E-004	0.00000E+000	2.70146E-004	1.68088E-001	9.60579E-001	3.57930E+000	9	...........
	65	0.88	9.61683E-001	2.80837E-004	0.00000E+000	2.70076E-004	1.68088E-001	9.62075E-001	3.57930E+000	9	...........
	66	0.893333	9.63132E-001	2.81248E-004	0.00000E+000	2.70879E-004	1.68088E-001	9.63533E-001	3.57930E+000	9	...........
	67	0.906667	9.64578E-001	2.80476E-004	0.00000E+000	2.70541E-004	1.68088E-001	9.64980E-001	3.57930E+000	9	...........
	68	0.92	9.66018E-001	2.80721E-004	0.00000E+000	2.71182E-004	1.68088E-001	9.66394E-001	3.57930E+000	9	...........
	69	0.933333	9.67406E-001	2.81138E-004	0.00000E+000	2.71974E-004	1.68088E-001	9.67779E-001	3.57930E+000	9	...........
	70	0.946667	9.68769E-001	2.81242E-004	0.00000E+000	2.72459E-004	1.68088E-001	9.69133E-001	3.57930E+000	9	...........
	71	0.96	9.70113E-001	2.82242E-004	0.00000E+000	2.73807E-004	1.68088E-001	9.70483E-001	3.57930E+000	9	...........
	72	0.97333	9.71429E-001	2.81089E-004	0.00000E+000	2.73058E-004	1.68088E-001	9.71858E-001	3.57930E+000	9	...........
	73	0.98667	9.72831E-001	2.81057E-004	0.00000E+000	2.73421E-004	1.68088E-001	9.73215E-001	3.57930E+000	9	...........
	74	1	9.74128E-001	2.80066E-004	0.00000E+000	2.72820E-004	1.68088E-001	9.74492E-001	3.57930E+000	9	...........
	75	1.01333	9.75422E-001	2.81064E-004	0.00000E+000	2.74156E-004	1.68088E-001	9.75754E-001	3.57930E+000	9	...........
	76	1.02667	9.76666E-001	2.81599E-004	0.00000E+000	2.75028E-004	1.68088E-001	9.77014E-001	3.57930E+000	9	...........
	77	1.04	9.77949E-001	2.82330E-004	0.00000E+000	2.76104E-004	1.68088E-001	9.78295E-001	3.57930E+000	9	...........
	78	1.05333	9.79210E-001	2.81164E-004	0.00000E+000	2.75318E-004	1.68088E-001	9.79545E-001	3.57930E+000	9	...........
	79	1.06667	9.80443E-001	2.81901E-004	0.00000E+000	2.76388E-004	1.68088E-001	9.80801E-001	3.57930E+000	9	...........
	80	1.08	9.81644E-001	2.81259E-004	0.00000E+000	2.76096E-004	1.68088E-001	9.81989E-001	3.57930E+000	9	...........
	81	1.09333	9.82850E-001	2.80916E-004	0.00000E+000	2.76098E-004	1.68088E-001	9.83202E-001	3.57930E+000	9	...........
	82	1.10667	9.84036E-001	2.81144E-004	0.00000E+000	2.76656E-004	1.68088E-001	9.84410E-001	3.57930E+000	9	...........
	83	1.12	9.85201E-001	2.80497E-004	0.00000E+000	2.76346E-004	1.68088E-001	9.85601E-001	3.57930E+000	9	...........
	84	1.13333	9.86346E-001	2.80707E-004	0.00000E+000	2.76875E-004	1.68088E-001	9.86734E-001	3.57930E+000	9	...........
	85	1.14667	9.87449E-001	2.81086E-004	0.00000E+000	2.77558E-004	1.68088E-001	9.87864E-001	3.57930E+000	9	...........
	86	1.16	9.88633E-001	2.81230E-004	0.00000E+000	2.78034E-004	1.68088E-001	9.89012E-001	3.57930E+000	9	...........
	87	1.17333	9.89777E-001	2.81640E-004	0.00000E+000	2.78761E-004	1.68088E-001	9.90180E-001	3.57930E+000	9	...........
	88	1.18667	9.90924E-001	2.81458E-004	0.00000E+000	2.78903E-004	1.68088E-001	9.91315E-001	3.57930E+000	9	...........
	89	1.2	9.92021E-001	2.81228E-004	0.00000E+000	2.78984E-004	1.68088E-001	9.92431E-001	3.57930E+000	9	...........
	90	1.21333	9.93106E-001	2.81382E-004	0.00000E+000	2.79442E-004	1.68088E-001	9.93512E-001	3.57930E+000	9	...........
	91	1.22667	9.94171E-001	2.82325E-004	0.00000E+000	2.80680E-004	1.68088E-001	9.94576E-001	3.57930E+000	9	...........
	92	1.24	9.95244E-001	2.81703E-004	0.00000E+000	2.80364E-004	1.68088E-001	9.95625E-001	3.57930E+000	9	...........
	93	1.25333	9.96330E-001	2.81620E-004	0.00000E+000	2.80586E-004	1.68088E-001	9.96717E-001	3.57930E+000	9	...........
	94	1.26667	9.97359E-001	2.81359E-004	0.00000E+000	2.80615E-004	1.68088E-001	9.97772E-001	3.57930E+000	9	...........
	95	1.28	9.98419E-001	2.81877E-004	0.00000E+000	2.81432E-004	1.68088E-001	9.98807E-001	3.57930E+000	9	...........
	96	1.29333	9.99441E-001	2.81701E-004	0.00000E+000	2.81544E-004	1.68088E-001	9.99835E-001	3.57930E+000	9	...........
	97	1.29667	1.00002E+000	2.79448E-004	0.00000E+000	2.79454E-004	1.68088E-001	1.00046E+000	3.57930E+000	9	...........
STARTTIMEOFFSET	QUANT	779.5385	Start Time Offset (s)
