EXPLAIN
TAG	PWR800_CHARGE
TITLE	LABEL	PWR Cyclic Charge Discharge (Cell) - Charge Step	Test &Identifier
DATE	LABEL	7-7-2017	Date
TIME	LABEL	16:10:35	Time
NOTES	NOTES	3	&Notes...
	supercap test cell
	2.8mg
	6M KOH
PSTAT	PSTAT	IFC5000-01520	Potentiostat
CAPACITY	QUANT	1.00000E-003	Capacity (A-hr)
CELLTYPE	SELECTOR	1	&Cell Type
WORKINGCONNECTION	SELECTOR	0	&Working Lead
MAXCHARGETIME	VARIABLEANDUNITS	1.00000E+002	s	1.00000E+002	second(s)	Max &Charge Time
CHARGECURRENT	QUANT	2.80000E-004	&Charge Current (A) 
VOLTAGEFINISH	TWOPARAM	F	1.00000E-003	3.60000E+003	&Voltage Finish	 I (A) < 	Max Time(s)
SAMPLETIME	QUANT	1.00000E-002	Sa&mple Period (s)
CHARGESTOPAT1	MULTIPARAM	4	1.00000E+000	Charge Stop At &1	Voltage > Limit	V
CHARGESTOPAT2	MULTIPARAM	0	0.00000E+000	Charge Stop At &2	None	N/A
AESBHCSELECTOR	TOGGLE	F	Save Both Half Cells
IRCOMP	TOGGLE	F	IR &Measure
EOC	QUANT	0	Open Circuit (V)
SEQUENCER	TOGGLE	TRUE	Run as Sequence
PSTATMODEL	IQUANT	53	Pstat Model
PSTATSECTION	LABEL	IFC5000-01520	Pstat Section
PSTATSERIALNO	LABEL	01520	Pstat Serial Number
CTRLMODE	IQUANT	0	Control Mode
ELECTROMETER	IQUANT	1	RE=0 or CS=1
IESTAB	IQUANT	0	I/E Stability
CASPEED	IQUANT	4	Control Amp Speed
CONVENTION	IQUANT	1	Current Convention
ICHRANGE	IQUANT	2	Ich Range
ICHRANGEMODE	TOGGLE	T	Ich Auto Range
ICHOFFSETENABLE	TOGGLE	F	Ich Offset Enable
ICHOFFSET	QUANT	0	Ich Offset (V)
ICHFILTER	IQUANT	1	Ich Filter
VCHRANGE	IQUANT	2	Vch Range
VCHRANGEMODE	TOGGLE	T	Vch Auto Range
VCHOFFSETENABLE	TOGGLE	F	Vch Offset Enable
VCHOFFSET	QUANT	0	Vch Offset (V)
VCHFILTER	IQUANT	1	Vch Filter
IERANGELOWERLIMIT	IQUANT	9	I/E Range Lower Limit
IERANGEMODE	TOGGLE	F	I/E AutoRange
IERANGE	IQUANT	9	I/E Range
ACHSELECT	IQUANT	1	Ach Select
ACHRANGE	IQUANT	2	Ach Range
ACHOFFSETENABLE	TOGGLE	F	Ach Offset Enable
ACHOFFSET	QUANT	0	Ach Offset (V)
ACHFILTER	IQUANT	1	Ach Filter
CABLEID	IQUANT	14	Cable ID
DCCALDATE	LABEL	5-7-2017	DC Calibration Date
ACCALDATE	LABEL	12/3/2015	AC Calibration Date
FRAMEWORKVERSION	QUANT	7.01	Framework Version
INSTRUMENTVERSION	LABEL	4.00	Instrument Version
CURVE	TABLE	67
	Pt	T	Vf	Im	Vu	Pwr	Sig	Ach	Temp	IERange	Over
	#	s	V	A	V	W	V	V	deg C	#	bits
	0	0.013333	6.02187E-001	2.81399E-004	0.00000E+000	1.69455E-004	1.68088E-001	6.02493E-001	3.57730E+000	9	...........
	1	0.026667	6.32461E-001	2.81497E-004	0.00000E+000	1.78036E-004	1.68088E-001	6.32728E-001	3.57730E+000	9	...........
	2	0.04	6.58417E-001	2.80728E-004	0.00000E+000	1.84836E-004	1.68088E-001	6.58678E-001	3.57730E+000	9	...........
	3	0.053333	6.81179E-001	2.81841E-004	0.00000E+000	1.91984E-004	1.68088E-001	6.81427E-001	3.57730E+000	9	...........
	4	0.066667	7.01486E-001	2.81715E-004	0.00000E+000	1.97619E-004	1.68088E-001	7.01734E-001	3.57730E+000	9	...........
	5	0.08	7.19794E-001	2.81162E-004	0.00000E+000	2.02378E-004	1.68088E-001	7.20025E-001	3.57730E+000	9	...........
	6	0.093333	7.36424E-001	2.80276E-004	0.00000E+000	2.06402E-004	1.68088E-001	7.36658E-001	3.57730E+000	9	...........
	7	0.106667	7.51648E-001	2.81568E-004	0.00000E+000	2.11640E-004	1.68088E-001	7.51888E-001	3.57730E+000	9	...........
	8	0.12	7.65614E-001	2.81706E-004	0.00000E+000	2.15678E-004	1.68088E-001	7.65856E-001	3.57730E+000	9	...........
	9	0.133333	7.78487E-001	2.82089E-004	0.00000E+000	2.19603E-004	1.68088E-001	7.78760E-001	3.57730E+000	9	...........
	10	0.146667	7.90424E-001	2.80863E-004	0.00000E+000	2.22000E-004	1.68088E-001	7.90666E-001	3.57730E+000	9	...........
	11	0.16	8.01506E-001	2.81240E-004	0.00000E+000	2.25416E-004	1.68088E-001	8.01766E-001	3.57730E+000	9	...........
	12	0.173333	8.11785E-001	2.82206E-004	0.00000E+000	2.29090E-004	1.68088E-001	8.12065E-001	3.57730E+000	9	...........
	13	0.186667	8.21376E-001	2.81842E-004	0.00000E+000	2.31498E-004	1.68088E-001	8.21692E-001	3.57730E+000	9	...........
	14	0.2	8.30387E-001	2.80837E-004	0.00000E+000	2.33203E-004	1.68088E-001	8.30682E-001	3.57730E+000	9	...........
	15	0.213333	8.38794E-001	2.81107E-004	0.00000E+000	2.35791E-004	1.68088E-001	8.39117E-001	3.57730E+000	9	...........
	16	0.226667	8.46679E-001	2.79622E-004	0.00000E+000	2.36750E-004	1.68088E-001	8.47034E-001	3.57730E+000	9	...........
	17	0.24	8.54115E-001	2.80676E-004	0.00000E+000	2.39730E-004	1.68088E-001	8.54438E-001	3.57730E+000	9	...........
	18	0.253333	8.61088E-001	2.81066E-004	0.00000E+000	2.42023E-004	1.68088E-001	8.61421E-001	3.57745E+000	9	...........
	19	0.266667	8.67653E-001	2.81485E-004	0.00000E+000	2.44231E-004	1.68088E-001	8.68003E-001	3.57780E+000	9	...........
	20	0.28	8.73839E-001	2.80840E-004	0.00000E+000	2.45409E-004	1.68088E-001	8.74229E-001	3.57780E+000	9	...........
	21	0.293333	8.79697E-001	2.81320E-004	0.00000E+000	2.47476E-004	1.68088E-001	8.80053E-001	3.57780E+000	9	...........
	22	0.306667	8.85256E-001	2.81165E-004	0.00000E+000	2.48903E-004	1.68088E-001	8.85606E-001	3.57780E+000	9	...........
	23	0.32	8.90514E-001	2.81321E-004	0.00000E+000	2.50520E-004	1.68088E-001	8.90888E-001	3.57780E+000	9	...........
	24	0.333333	8.95496E-001	2.81015E-004	0.00000E+000	2.51648E-004	1.68088E-001	8.95895E-001	3.57780E+000	9	...........
	25	0.346667	9.00250E-001	2.80894E-004	0.00000E+000	2.52875E-004	1.68088E-001	9.00642E-001	3.57780E+000	9	...........
	26	0.36	9.04723E-001	2.81248E-004	0.00000E+000	2.54452E-004	1.68088E-001	9.05127E-001	3.57780E+000	9	...........
	27	0.373333	9.09010E-001	2.81288E-004	0.00000E+000	2.55693E-004	1.68088E-001	9.09405E-001	3.57780E+000	9	...........
	28	0.386667	9.13115E-001	2.82359E-004	0.00000E+000	2.57826E-004	1.68088E-001	9.13524E-001	3.57780E+000	9	...........
	29	0.4	9.17043E-001	2.81549E-004	0.00000E+000	2.58193E-004	1.68088E-001	9.17439E-001	3.57780E+000	9	...........
	30	0.413333	9.20821E-001	2.81021E-004	0.00000E+000	2.58770E-004	1.68088E-001	9.21169E-001	3.57780E+000	9	...........
	31	0.426667	9.24474E-001	2.80464E-004	0.00000E+000	2.59281E-004	1.68088E-001	9.24798E-001	3.57780E+000	9	...........
	32	0.44	9.27954E-001	2.82275E-004	0.00000E+000	2.61939E-004	1.68088E-001	9.28241E-001	3.57780E+000	9	...........
	33	0.453333	9.31242E-001	2.80930E-004	0.00000E+000	2.61614E-004	1.68088E-001	9.31558E-001	3.57780E+000	9	...........
	34	0.466667	9.34429E-001	2.81257E-004	0.00000E+000	2.62814E-004	1.68088E-001	9.34753E-001	3.57780E+000	9	...........
	35	0.48	9.37467E-001	2.80293E-004	0.00000E+000	2.62765E-004	1.68088E-001	9.37824E-001	3.57780E+000	9	...........
	36	0.493333	9.40439E-001	2.81887E-004	0.00000E+000	2.65097E-004	1.68088E-001	9.40784E-001	3.57780E+000	9	...........
	37	0.506667	9.43301E-001	2.80613E-004	0.00000E+000	2.64702E-004	1.68088E-001	9.43634E-001	3.57780E+000	9	...........
	38	0.52	9.46069E-001	2.81977E-004	0.00000E+000	2.66770E-004	1.68088E-001	9.46370E-001	3.57780E+000	9	...........
	39	0.533333	9.48750E-001	2.81294E-004	0.00000E+000	2.66878E-004	1.68088E-001	9.49028E-001	3.57780E+000	9	...........
	40	0.546667	9.51329E-001	2.80267E-004	0.00000E+000	2.66626E-004	1.68088E-001	9.51594E-001	3.57780E+000	9	...........
	41	0.56	9.53810E-001	2.81003E-004	0.00000E+000	2.68024E-004	1.68088E-001	9.54073E-001	3.57780E+000	9	...........
	42	0.573333	9.56232E-001	2.81800E-004	0.00000E+000	2.69467E-004	1.68088E-001	9.56524E-001	3.57780E+000	9	...........
	43	0.586667	9.58584E-001	2.81013E-004	0.00000E+000	2.69374E-004	1.68088E-001	9.58900E-001	3.57780E+000	9	...........
	44	0.6	9.60850E-001	2.81673E-004	0.00000E+000	2.70646E-004	1.68088E-001	9.61180E-001	3.57780E+000	9	...........
	45	0.613333	9.63014E-001	2.81271E-004	0.00000E+000	2.70868E-004	1.68088E-001	9.63375E-001	3.57780E+000	9	...........
	46	0.626667	9.65188E-001	2.81511E-004	0.00000E+000	2.71711E-004	1.68088E-001	9.65538E-001	3.57780E+000	9	...........
	47	0.64	9.67261E-001	2.81492E-004	0.00000E+000	2.72276E-004	1.68088E-001	9.67621E-001	3.57780E+000	9	...........
	48	0.653333	9.69292E-001	2.80232E-004	0.00000E+000	2.71627E-004	1.68088E-001	9.69643E-001	3.57780E+000	9	...........
	49	0.666667	9.71268E-001	2.81325E-004	0.00000E+000	2.73242E-004	1.68088E-001	9.71663E-001	3.57780E+000	9	...........
	50	0.68	9.73296E-001	2.81565E-004	0.00000E+000	2.74046E-004	1.68088E-001	9.73611E-001	3.57780E+000	9	...........
	51	0.693333	9.75188E-001	2.81968E-004	0.00000E+000	2.74972E-004	1.68088E-001	9.75525E-001	3.57780E+000	9	...........
	52	0.706667	9.77051E-001	2.80552E-004	0.00000E+000	2.74114E-004	1.68088E-001	9.77390E-001	3.57780E+000	9	...........
	53	0.72	9.78876E-001	2.82014E-004	0.00000E+000	2.76057E-004	1.68088E-001	9.79218E-001	3.57780E+000	9	...........
	54	0.733333	9.80623E-001	2.81427E-004	0.00000E+000	2.75974E-004	1.68088E-001	9.80980E-001	3.57780E+000	9	...........
	55	0.746667	9.82358E-001	2.81705E-004	0.00000E+000	2.76735E-004	1.68088E-001	9.82734E-001	3.57780E+000	9	...........
	56	0.76	9.84058E-001	2.80896E-004	0.00000E+000	2.76418E-004	1.68088E-001	9.84431E-001	3.57780E+000	9	...........
	57	0.773333	9.85718E-001	2.81450E-004	0.00000E+000	2.77431E-004	1.68088E-001	9.86116E-001	3.57780E+000	9	...........
	58	0.786667	9.87358E-001	2.81932E-004	0.00000E+000	2.78367E-004	1.68088E-001	9.87744E-001	3.57780E+000	9	...........
	59	0.8	9.88966E-001	2.81777E-004	0.00000E+000	2.78668E-004	1.68088E-001	9.89330E-001	3.57780E+000	9	...........
	60	0.813333	9.90515E-001	2.81094E-004	0.00000E+000	2.78428E-004	1.68088E-001	9.90874E-001	3.57780E+000	9	...........
	61	0.826667	9.92052E-001	2.81405E-004	0.00000E+000	2.79169E-004	1.68088E-001	9.92420E-001	3.57780E+000	9	...........
	62	0.84	9.93557E-001	2.81352E-004	0.00000E+000	2.79540E-004	1.68088E-001	9.93947E-001	3.57780E+000	9	...........
	63	0.853333	9.95053E-001	2.81115E-004	0.00000E+000	2.79724E-004	1.68088E-001	9.95425E-001	3.57780E+000	9	...........
	64	0.866667	9.96531E-001	2.81822E-004	0.00000E+000	2.80845E-004	1.68088E-001	9.96909E-001	3.57780E+000	9	...........
	65	0.88	9.98013E-001	2.80920E-004	0.00000E+000	2.80362E-004	1.68088E-001	9.98384E-001	3.57780E+000	9	...........
	66	0.893333	9.99435E-001	2.80058E-004	0.00000E+000	2.79900E-004	1.68088E-001	9.99827E-001	3.57780E+000	9	...........
STARTTIMEOFFSET	QUANT	1546.606	Start Time Offset (s)
