EXPLAIN
TAG	PWR800_CHARGE
TITLE	LABEL	PWR Cyclic Charge Discharge (Cell) - Charge Step	Test &Identifier
DATE	LABEL	7-7-2017	Date
TIME	LABEL	15:42:20	Time
NOTES	NOTES	3	&Notes...
	supercap test cell
	2.8mg
	6M KOH
PSTAT	PSTAT	IFC5000-01520	Potentiostat
CAPACITY	QUANT	1.00000E-003	Capacity (A-hr)
CELLTYPE	SELECTOR	1	&Cell Type
WORKINGCONNECTION	SELECTOR	0	&Working Lead
MAXCHARGETIME	VARIABLEANDUNITS	1.00000E+002	s	1.00000E+002	second(s)	Max &Charge Time
CHARGECURRENT	QUANT	2.80000E-004	&Charge Current (A) 
VOLTAGEFINISH	TWOPARAM	F	1.00000E-003	3.60000E+003	&Voltage Finish	 I (A) < 	Max Time(s)
SAMPLETIME	QUANT	1.00000E-002	Sa&mple Period (s)
CHARGESTOPAT1	MULTIPARAM	4	1.00000E+000	Charge Stop At &1	Voltage > Limit	V
CHARGESTOPAT2	MULTIPARAM	0	0.00000E+000	Charge Stop At &2	None	N/A
AESBHCSELECTOR	TOGGLE	F	Save Both Half Cells
IRCOMP	TOGGLE	F	IR &Measure
EOC	QUANT	0	Open Circuit (V)
SEQUENCER	TOGGLE	TRUE	Run as Sequence
PSTATMODEL	IQUANT	53	Pstat Model
PSTATSECTION	LABEL	IFC5000-01520	Pstat Section
PSTATSERIALNO	LABEL	01520	Pstat Serial Number
CTRLMODE	IQUANT	0	Control Mode
ELECTROMETER	IQUANT	1	RE=0 or CS=1
IESTAB	IQUANT	0	I/E Stability
CASPEED	IQUANT	4	Control Amp Speed
CONVENTION	IQUANT	1	Current Convention
ICHRANGE	IQUANT	2	Ich Range
ICHRANGEMODE	TOGGLE	T	Ich Auto Range
ICHOFFSETENABLE	TOGGLE	F	Ich Offset Enable
ICHOFFSET	QUANT	0	Ich Offset (V)
ICHFILTER	IQUANT	1	Ich Filter
VCHRANGE	IQUANT	2	Vch Range
VCHRANGEMODE	TOGGLE	T	Vch Auto Range
VCHOFFSETENABLE	TOGGLE	F	Vch Offset Enable
VCHOFFSET	QUANT	0	Vch Offset (V)
VCHFILTER	IQUANT	1	Vch Filter
IERANGELOWERLIMIT	IQUANT	9	I/E Range Lower Limit
IERANGEMODE	TOGGLE	F	I/E AutoRange
IERANGE	IQUANT	9	I/E Range
ACHSELECT	IQUANT	1	Ach Select
ACHRANGE	IQUANT	2	Ach Range
ACHOFFSETENABLE	TOGGLE	F	Ach Offset Enable
ACHOFFSET	QUANT	0	Ach Offset (V)
ACHFILTER	IQUANT	1	Ach Filter
CABLEID	IQUANT	14	Cable ID
DCCALDATE	LABEL	5-7-2017	DC Calibration Date
ACCALDATE	LABEL	12/3/2015	AC Calibration Date
FRAMEWORKVERSION	QUANT	7.01	Framework Version
INSTRUMENTVERSION	LABEL	4.00	Instrument Version
CURVE	TABLE	142
	Pt	T	Vf	Im	Vu	Pwr	Sig	Ach	Temp	IERange	Over
	#	s	V	A	V	W	V	V	deg C	#	bits
	0	0.013333	5.77267E-001	2.81055E-004	0.00000E+000	1.62244E-004	1.68088E-001	5.77556E-001	3.57840E+000	9	...........
	1	0.026667	6.04604E-001	2.80493E-004	0.00000E+000	1.69587E-004	1.68088E-001	6.04920E-001	3.57840E+000	9	...........
	2	0.04	6.27411E-001	2.81303E-004	0.00000E+000	1.76493E-004	1.68088E-001	6.27681E-001	3.57840E+000	9	...........
	3	0.053333	6.46878E-001	2.81318E-004	0.00000E+000	1.81978E-004	1.68088E-001	6.47151E-001	3.57840E+000	9	...........
	4	0.066667	6.63879E-001	2.80598E-004	0.00000E+000	1.86283E-004	1.68088E-001	6.64153E-001	3.57840E+000	9	...........
	5	0.08	6.78926E-001	2.81661E-004	0.00000E+000	1.91227E-004	1.68088E-001	6.79210E-001	3.57840E+000	9	...........
	6	0.093333	6.92401E-001	2.81337E-004	0.00000E+000	1.94798E-004	1.68088E-001	6.92710E-001	3.57840E+000	9	...........
	7	0.106667	7.04596E-001	2.81956E-004	0.00000E+000	1.98665E-004	1.68088E-001	7.04890E-001	3.57840E+000	9	...........
	8	0.12	7.15715E-001	2.80675E-004	0.00000E+000	2.00883E-004	1.68088E-001	7.16009E-001	3.57840E+000	9	...........
	9	0.133333	7.25925E-001	2.81393E-004	0.00000E+000	2.04270E-004	1.68088E-001	7.26209E-001	3.57840E+000	9	...........
	10	0.146667	7.35272E-001	2.80677E-004	0.00000E+000	2.06374E-004	1.68088E-001	7.35591E-001	3.57840E+000	9	...........
	11	0.16	7.43975E-001	2.80471E-004	0.00000E+000	2.08663E-004	1.68088E-001	7.44304E-001	3.57840E+000	9	...........
	12	0.173333	7.52048E-001	2.81204E-004	0.00000E+000	2.11479E-004	1.68088E-001	7.52339E-001	3.57840E+000	9	...........
	13	0.186667	7.59577E-001	2.80985E-004	0.00000E+000	2.13429E-004	1.68088E-001	7.59886E-001	3.57840E+000	9	...........
	14	0.2	7.66645E-001	2.80719E-004	0.00000E+000	2.15212E-004	1.68088E-001	7.66970E-001	3.57840E+000	9	...........
	15	0.213333	7.73278E-001	2.81255E-004	0.00000E+000	2.17489E-004	1.68088E-001	7.73580E-001	3.57840E+000	9	...........
	16	0.226667	7.79545E-001	2.81616E-004	0.00000E+000	2.19532E-004	1.68088E-001	7.79846E-001	3.57840E+000	9	...........
	17	0.24	7.85427E-001	2.81251E-004	0.00000E+000	2.20902E-004	1.68088E-001	7.85741E-001	3.57840E+000	9	...........
	18	0.253333	7.91004E-001	2.81915E-004	0.00000E+000	2.22996E-004	1.68088E-001	7.91342E-001	3.57840E+000	9	...........
	19	0.266667	7.96337E-001	2.81448E-004	0.00000E+000	2.24128E-004	1.68088E-001	7.96652E-001	3.57840E+000	9	...........
	20	0.28	8.01354E-001	2.82379E-004	0.00000E+000	2.26285E-004	1.68088E-001	8.01673E-001	3.57840E+000	9	...........
	21	0.293333	8.06106E-001	2.80839E-004	0.00000E+000	2.26386E-004	1.68088E-001	8.06457E-001	3.57840E+000	9	...........
	22	0.306667	8.10652E-001	2.80797E-004	0.00000E+000	2.27629E-004	1.68088E-001	8.10986E-001	3.57840E+000	9	...........
	23	0.32	8.15034E-001	2.80790E-004	0.00000E+000	2.28853E-004	1.68088E-001	8.15356E-001	3.57840E+000	9	...........
	24	0.333333	8.19255E-001	2.81228E-004	0.00000E+000	2.30398E-004	1.68088E-001	8.19537E-001	3.57840E+000	9	...........
	25	0.346667	8.23247E-001	2.80751E-004	0.00000E+000	2.31128E-004	1.68088E-001	8.23537E-001	3.57840E+000	9	...........
	26	0.36	8.27111E-001	2.82221E-004	0.00000E+000	2.33428E-004	1.68088E-001	8.27403E-001	3.57840E+000	9	...........
	27	0.373333	8.30828E-001	2.82094E-004	0.00000E+000	2.34372E-004	1.68088E-001	8.31125E-001	3.57840E+000	9	...........
	28	0.386667	8.34369E-001	2.81410E-004	0.00000E+000	2.34799E-004	1.68088E-001	8.34680E-001	3.57844E+000	9	...........
	29	0.4	8.37776E-001	2.81029E-004	0.00000E+000	2.35440E-004	1.68088E-001	8.38086E-001	3.57900E+000	9	...........
	30	0.413333	8.41077E-001	2.81512E-004	0.00000E+000	2.36773E-004	1.68088E-001	8.41398E-001	3.57900E+000	9	...........
	31	0.426667	8.44329E-001	2.81070E-004	0.00000E+000	2.37315E-004	1.68088E-001	8.44683E-001	3.57900E+000	9	...........
	32	0.44	8.47442E-001	2.81257E-004	0.00000E+000	2.38349E-004	1.68088E-001	8.47775E-001	3.57900E+000	9	...........
	33	0.453333	8.50452E-001	2.82228E-004	0.00000E+000	2.40021E-004	1.68088E-001	8.50797E-001	3.57900E+000	9	...........
	34	0.466667	8.53386E-001	2.81343E-004	0.00000E+000	2.40094E-004	1.68088E-001	8.53738E-001	3.57900E+000	9	...........
	35	0.48	8.56217E-001	2.81391E-004	0.00000E+000	2.40932E-004	1.68088E-001	8.56569E-001	3.57900E+000	9	...........
	36	0.493333	8.59000E-001	2.80788E-004	0.00000E+000	2.41197E-004	1.68088E-001	8.59374E-001	3.57900E+000	9	...........
	37	0.506667	8.61700E-001	2.80785E-004	0.00000E+000	2.41952E-004	1.68088E-001	8.62068E-001	3.57900E+000	9	...........
	38	0.52	8.64287E-001	2.81433E-004	0.00000E+000	2.43239E-004	1.68088E-001	8.64654E-001	3.57900E+000	9	...........
	39	0.533333	8.66823E-001	2.81482E-004	0.00000E+000	2.43995E-004	1.68088E-001	8.67191E-001	3.57900E+000	9	...........
	40	0.546667	8.69276E-001	2.80725E-004	0.00000E+000	2.44028E-004	1.68088E-001	8.69657E-001	3.57900E+000	9	...........
	41	0.56	8.71690E-001	2.81882E-004	0.00000E+000	2.45713E-004	1.68088E-001	8.72041E-001	3.57900E+000	9	...........
	42	0.573333	8.74006E-001	2.80744E-004	0.00000E+000	2.45372E-004	1.68088E-001	8.74384E-001	3.57900E+000	9	...........
	43	0.586667	8.76284E-001	2.81812E-004	0.00000E+000	2.46947E-004	1.68088E-001	8.76649E-001	3.57900E+000	9	...........
	44	0.6	8.78540E-001	2.81025E-004	0.00000E+000	2.46892E-004	1.68088E-001	8.78912E-001	3.57900E+000	9	...........
	45	0.613333	8.80749E-001	2.80774E-004	0.00000E+000	2.47292E-004	1.68088E-001	8.81119E-001	3.57900E+000	9	...........
	46	0.626667	8.82923E-001	2.81265E-004	0.00000E+000	2.48335E-004	1.68088E-001	8.83284E-001	3.57900E+000	9	...........
	47	0.64	8.85023E-001	2.81036E-004	0.00000E+000	2.48723E-004	1.68088E-001	8.85368E-001	3.57900E+000	9	...........
	48	0.653333	8.87046E-001	2.80750E-004	0.00000E+000	2.49038E-004	1.68088E-001	8.87435E-001	3.57900E+000	9	...........
	49	0.666667	8.89079E-001	2.80788E-004	0.00000E+000	2.49642E-004	1.68088E-001	8.89458E-001	3.57900E+000	9	...........
	50	0.68	8.91043E-001	2.80953E-004	0.00000E+000	2.50342E-004	1.68088E-001	8.91423E-001	3.57900E+000	9	...........
	51	0.693333	8.92985E-001	2.81929E-004	0.00000E+000	2.51758E-004	1.68088E-001	8.93352E-001	3.57900E+000	9	...........
	52	0.706667	8.94903E-001	2.81155E-004	0.00000E+000	2.51607E-004	1.68088E-001	8.95283E-001	3.57900E+000	9	...........
	53	0.72	8.96805E-001	2.81105E-004	0.00000E+000	2.52097E-004	1.68088E-001	8.97158E-001	3.57900E+000	9	...........
	54	0.733333	8.98647E-001	2.81892E-004	0.00000E+000	2.53322E-004	1.68088E-001	8.98967E-001	3.57900E+000	9	...........
	55	0.746667	9.00457E-001	2.81125E-004	0.00000E+000	2.53141E-004	1.68088E-001	9.00787E-001	3.57900E+000	9	...........
	56	0.76	9.02246E-001	2.80753E-004	0.00000E+000	2.53309E-004	1.68088E-001	9.02568E-001	3.57900E+000	9	...........
	57	0.773333	9.03982E-001	2.81290E-004	0.00000E+000	2.54281E-004	1.68088E-001	9.04304E-001	3.57900E+000	9	...........
	58	0.786667	9.05692E-001	2.82406E-004	0.00000E+000	2.55773E-004	1.68088E-001	9.06029E-001	3.57900E+000	9	...........
	59	0.8	9.07422E-001	2.80724E-004	0.00000E+000	2.54735E-004	1.68088E-001	9.07770E-001	3.57900E+000	9	...........
	60	0.813333	9.09110E-001	2.81223E-004	0.00000E+000	2.55663E-004	1.68088E-001	9.09430E-001	3.57900E+000	9	...........
	61	0.826667	9.10767E-001	2.81564E-004	0.00000E+000	2.56439E-004	1.68088E-001	9.11080E-001	3.57900E+000	9	...........
	62	0.84	9.12372E-001	2.81427E-004	0.00000E+000	2.56767E-004	1.68088E-001	9.12723E-001	3.57900E+000	9	...........
	63	0.853333	9.13969E-001	2.81051E-004	0.00000E+000	2.56872E-004	1.68088E-001	9.14344E-001	3.57900E+000	9	...........
	64	0.866667	9.15570E-001	2.81949E-004	0.00000E+000	2.58144E-004	1.68088E-001	9.15943E-001	3.57900E+000	9	...........
	65	0.88	9.17163E-001	2.81839E-004	0.00000E+000	2.58492E-004	1.68088E-001	9.17545E-001	3.57900E+000	9	...........
	66	0.893333	9.18717E-001	2.81633E-004	0.00000E+000	2.58741E-004	1.68088E-001	9.19105E-001	3.57900E+000	9	...........
	67	0.906667	9.20257E-001	2.80161E-004	0.00000E+000	2.57820E-004	1.68088E-001	9.20615E-001	3.57900E+000	9	...........
	68	0.92	9.21835E-001	2.80885E-004	0.00000E+000	2.58929E-004	1.68088E-001	9.22164E-001	3.57900E+000	9	...........
	69	0.933333	9.23339E-001	2.81354E-004	0.00000E+000	2.59786E-004	1.68088E-001	9.23647E-001	3.57900E+000	9	...........
	70	0.946667	9.24766E-001	2.80956E-004	0.00000E+000	2.59819E-004	1.68088E-001	9.25078E-001	3.57900E+000	9	...........
	71	0.96	9.26235E-001	2.81881E-004	0.00000E+000	2.61088E-004	1.68088E-001	9.26559E-001	3.57900E+000	9	...........
	72	0.97333	9.27687E-001	2.80320E-004	0.00000E+000	2.60049E-004	1.68088E-001	9.28034E-001	3.57900E+000	9	...........
	73	0.98667	9.29157E-001	2.80862E-004	0.00000E+000	2.60965E-004	1.68088E-001	9.29468E-001	3.57900E+000	9	...........
	74	1	9.30542E-001	2.81509E-004	0.00000E+000	2.61955E-004	1.68088E-001	9.30883E-001	3.57900E+000	9	...........
	75	1.01333	9.31912E-001	2.80814E-004	0.00000E+000	2.61694E-004	1.68088E-001	9.32278E-001	3.57900E+000	9	...........
	76	1.02667	9.33281E-001	2.80129E-004	0.00000E+000	2.61439E-004	1.68088E-001	9.33658E-001	3.57900E+000	9	...........
	77	1.04	9.34593E-001	2.81240E-004	0.00000E+000	2.62845E-004	1.68088E-001	9.34959E-001	3.57900E+000	9	...........
	78	1.05333	9.35907E-001	2.81061E-004	0.00000E+000	2.63047E-004	1.68088E-001	9.36273E-001	3.57900E+000	9	...........
	79	1.06667	9.37210E-001	2.81409E-004	0.00000E+000	2.63739E-004	1.68088E-001	9.37545E-001	3.57900E+000	9	...........
	80	1.08	9.38485E-001	2.80898E-004	0.00000E+000	2.63619E-004	1.68088E-001	9.38825E-001	3.57900E+000	9	...........
	81	1.09333	9.39748E-001	2.81168E-004	0.00000E+000	2.64227E-004	1.68088E-001	9.40121E-001	3.57900E+000	9	...........
	82	1.10667	9.41022E-001	2.82062E-004	0.00000E+000	2.65426E-004	1.68088E-001	9.41364E-001	3.57900E+000	9	...........
	83	1.12	9.42263E-001	2.81310E-004	0.00000E+000	2.65068E-004	1.68088E-001	9.42618E-001	3.57900E+000	9	...........
	84	1.13333	9.43538E-001	2.81523E-004	0.00000E+000	2.65628E-004	1.68088E-001	9.43899E-001	3.57900E+000	9	...........
	85	1.14667	9.44754E-001	2.80652E-004	0.00000E+000	2.65147E-004	1.68088E-001	9.45104E-001	3.57900E+000	9	...........
	86	1.16	9.45977E-001	2.81413E-004	0.00000E+000	2.66210E-004	1.68088E-001	9.46363E-001	3.57900E+000	9	...........
	87	1.17333	9.47254E-001	2.80952E-004	0.00000E+000	2.66133E-004	1.68088E-001	9.47613E-001	3.57900E+000	9	...........
	88	1.18667	9.48465E-001	2.81071E-004	0.00000E+000	2.66586E-004	1.68088E-001	9.48839E-001	3.57900E+000	9	...........
	89	1.2	9.49655E-001	2.81487E-004	0.00000E+000	2.67315E-004	1.68088E-001	9.50036E-001	3.57900E+000	9	...........
	90	1.21333	9.50874E-001	2.80794E-004	0.00000E+000	2.67000E-004	1.68088E-001	9.51255E-001	3.57900E+000	9	...........
	91	1.22667	9.52009E-001	2.80837E-004	0.00000E+000	2.67359E-004	1.68088E-001	9.52400E-001	3.57900E+000	9	...........
	92	1.24	9.53173E-001	2.80832E-004	0.00000E+000	2.67682E-004	1.68088E-001	9.53536E-001	3.57900E+000	9	...........
	93	1.25333	9.54338E-001	2.80861E-004	0.00000E+000	2.68036E-004	1.68088E-001	9.54679E-001	3.57900E+000	9	...........
	94	1.26667	9.55426E-001	2.80897E-004	0.00000E+000	2.68376E-004	1.68088E-001	9.55793E-001	3.57900E+000	9	...........
	95	1.28	9.56589E-001	2.81700E-004	0.00000E+000	2.69471E-004	1.68088E-001	9.56935E-001	3.57900E+000	9	...........
	96	1.29333	9.57667E-001	2.80839E-004	0.00000E+000	2.68950E-004	1.68088E-001	9.58018E-001	3.57900E+000	9	...........
	97	1.30667	9.58772E-001	2.81320E-004	0.00000E+000	2.69722E-004	1.68088E-001	9.59128E-001	3.57900E+000	9	...........
	98	1.32	9.59887E-001	2.80707E-004	0.00000E+000	2.69448E-004	1.68088E-001	9.60249E-001	3.57900E+000	9	...........
	99	1.33333	9.60989E-001	2.81303E-004	0.00000E+000	2.70330E-004	1.68088E-001	9.61356E-001	3.57900E+000	9	...........
	100	1.34667	9.62096E-001	2.81009E-004	0.00000E+000	2.70357E-004	1.68088E-001	9.62483E-001	3.57900E+000	9	...........
	101	1.36	9.63155E-001	2.80871E-004	0.00000E+000	2.70522E-004	1.68088E-001	9.63549E-001	3.57900E+000	9	...........
	102	1.37333	9.64235E-001	2.81245E-004	0.00000E+000	2.71186E-004	1.68088E-001	9.64650E-001	3.57900E+000	9	...........
	103	1.38667	9.65303E-001	2.81304E-004	0.00000E+000	2.71544E-004	1.68088E-001	9.65704E-001	3.57896E+000	9	...........
	104	1.4	9.66366E-001	2.80813E-004	0.00000E+000	2.71368E-004	1.68088E-001	9.66726E-001	3.57840E+000	9	...........
	105	1.41333	9.67426E-001	2.80609E-004	0.00000E+000	2.71469E-004	1.68088E-001	9.67798E-001	3.57840E+000	9	...........
	106	1.42667	9.68438E-001	2.80800E-004	0.00000E+000	2.71938E-004	1.68088E-001	9.68841E-001	3.57840E+000	9	...........
	107	1.44	9.69441E-001	2.80791E-004	0.00000E+000	2.72210E-004	1.68088E-001	9.69820E-001	3.57840E+000	9	...........
	108	1.45333	9.70445E-001	2.80953E-004	0.00000E+000	2.72650E-004	1.68088E-001	9.70866E-001	3.57840E+000	9	...........
	109	1.46667	9.71412E-001	2.81019E-004	0.00000E+000	2.72985E-004	1.68088E-001	9.71845E-001	3.57840E+000	9	...........
	110	1.48	9.72441E-001	2.81367E-004	0.00000E+000	2.73613E-004	1.68088E-001	9.72856E-001	3.57840E+000	9	...........
	111	1.49333	9.73461E-001	2.81529E-004	0.00000E+000	2.74058E-004	1.68088E-001	9.73828E-001	3.57840E+000	9	...........
	112	1.50667	9.74438E-001	2.81088E-004	0.00000E+000	2.73902E-004	1.68088E-001	9.74828E-001	3.57840E+000	9	...........
	113	1.52	9.75433E-001	2.81155E-004	0.00000E+000	2.74248E-004	1.68088E-001	9.75838E-001	3.57840E+000	9	...........
	114	1.53333	9.76444E-001	2.81214E-004	0.00000E+000	2.74589E-004	1.68088E-001	9.76849E-001	3.57840E+000	9	...........
	115	1.54667	9.77376E-001	2.80830E-004	0.00000E+000	2.74477E-004	1.68088E-001	9.77787E-001	3.57840E+000	9	...........
	116	1.56	9.78354E-001	2.82420E-004	0.00000E+000	2.76307E-004	1.68088E-001	9.78749E-001	3.57840E+000	9	...........
	117	1.57333	9.79273E-001	2.81177E-004	0.00000E+000	2.75349E-004	1.68088E-001	9.79635E-001	3.57840E+000	9	...........
	118	1.58667	9.80229E-001	2.81112E-004	0.00000E+000	2.75554E-004	1.68088E-001	9.80614E-001	3.57840E+000	9	...........
	119	1.6	9.81160E-001	2.82119E-004	0.00000E+000	2.76804E-004	1.68088E-001	9.81546E-001	3.57840E+000	9	...........
	120	1.61333	9.82077E-001	2.80430E-004	0.00000E+000	2.75404E-004	1.68088E-001	9.82446E-001	3.57840E+000	9	...........
	121	1.62667	9.82961E-001	2.80404E-004	0.00000E+000	2.75626E-004	1.68088E-001	9.83336E-001	3.57840E+000	9	...........
	122	1.64	9.83875E-001	2.81909E-004	0.00000E+000	2.77363E-004	1.68088E-001	9.84244E-001	3.57840E+000	9	...........
	123	1.65333	9.84778E-001	2.81603E-004	0.00000E+000	2.77317E-004	1.68088E-001	9.85156E-001	3.57840E+000	9	...........
	124	1.66667	9.85695E-001	2.81287E-004	0.00000E+000	2.77263E-004	1.68088E-001	9.86070E-001	3.57840E+000	9	...........
	125	1.68	9.86550E-001	2.80362E-004	0.00000E+000	2.76591E-004	1.68088E-001	9.86931E-001	3.57840E+000	9	...........
	126	1.69333	9.87380E-001	2.80715E-004	0.00000E+000	2.77172E-004	1.68088E-001	9.87791E-001	3.57840E+000	9	...........
	127	1.70667	9.88249E-001	2.80954E-004	0.00000E+000	2.77653E-004	1.68088E-001	9.88640E-001	3.57840E+000	9	...........
	128	1.72	9.89107E-001	2.80482E-004	0.00000E+000	2.77427E-004	1.68088E-001	9.89505E-001	3.57840E+000	9	...........
	129	1.73333	9.89989E-001	2.81579E-004	0.00000E+000	2.78760E-004	1.68088E-001	9.90386E-001	3.57840E+000	9	...........
	130	1.74667	9.90813E-001	2.81337E-004	0.00000E+000	2.78752E-004	1.68088E-001	9.91185E-001	3.57840E+000	9	...........
	131	1.76	9.91624E-001	2.81475E-004	0.00000E+000	2.79118E-004	1.68088E-001	9.92014E-001	3.57840E+000	9	...........
	132	1.77333	9.92443E-001	2.81264E-004	0.00000E+000	2.79138E-004	1.68088E-001	9.92847E-001	3.57840E+000	9	...........
	133	1.78667	9.93245E-001	2.81434E-004	0.00000E+000	2.79532E-004	1.68088E-001	9.93665E-001	3.57840E+000	9	...........
	134	1.8	9.94076E-001	2.80845E-004	0.00000E+000	2.79181E-004	1.68088E-001	9.94496E-001	3.57840E+000	9	...........
	135	1.81333	9.94957E-001	2.81353E-004	0.00000E+000	2.79934E-004	1.68088E-001	9.95337E-001	3.57840E+000	9	...........
	136	1.82667	9.95787E-001	2.80998E-004	0.00000E+000	2.79814E-004	1.68088E-001	9.96167E-001	3.57840E+000	9	...........
	137	1.84	9.96620E-001	2.81548E-004	0.00000E+000	2.80597E-004	1.68088E-001	9.97007E-001	3.57840E+000	9	...........
	138	1.85333	9.97433E-001	2.80347E-004	0.00000E+000	2.79627E-004	1.68088E-001	9.97860E-001	3.57840E+000	9	...........
	139	1.86667	9.98264E-001	2.80873E-004	0.00000E+000	2.80386E-004	1.68088E-001	9.98654E-001	3.57840E+000	9	...........
	140	1.88	9.99047E-001	2.80929E-004	0.00000E+000	2.80662E-004	1.68088E-001	9.99449E-001	3.57840E+000	9	...........
	141	1.89167	9.99782E-001	2.82057E-004	0.00000E+000	2.81996E-004	1.68088E-001	1.00020E+000	3.57840E+000	9	...........
STARTTIMEOFFSET	QUANT	314.8417	Start Time Offset (s)
