EXPLAIN
TAG	PWR800_CHARGE
TITLE	LABEL	PWR Cyclic Charge Discharge (Cell) - Charge Step	Test &Identifier
DATE	LABEL	7-7-2017	Date
TIME	LABEL	16:23:10	Time
NOTES	NOTES	3	&Notes...
	supercap test cell
	2.8mg
	6M KOH
PSTAT	PSTAT	IFC5000-01520	Potentiostat
CAPACITY	QUANT	1.00000E-003	Capacity (A-hr)
CELLTYPE	SELECTOR	1	&Cell Type
WORKINGCONNECTION	SELECTOR	0	&Working Lead
MAXCHARGETIME	VARIABLEANDUNITS	1.00000E+002	s	1.00000E+002	second(s)	Max &Charge Time
CHARGECURRENT	QUANT	2.80000E-004	&Charge Current (A) 
VOLTAGEFINISH	TWOPARAM	F	1.00000E-003	3.60000E+003	&Voltage Finish	 I (A) < 	Max Time(s)
SAMPLETIME	QUANT	1.00000E-002	Sa&mple Period (s)
CHARGESTOPAT1	MULTIPARAM	4	1.00000E+000	Charge Stop At &1	Voltage > Limit	V
CHARGESTOPAT2	MULTIPARAM	0	0.00000E+000	Charge Stop At &2	None	N/A
AESBHCSELECTOR	TOGGLE	F	Save Both Half Cells
IRCOMP	TOGGLE	F	IR &Measure
EOC	QUANT	0	Open Circuit (V)
SEQUENCER	TOGGLE	TRUE	Run as Sequence
PSTATMODEL	IQUANT	53	Pstat Model
PSTATSECTION	LABEL	IFC5000-01520	Pstat Section
PSTATSERIALNO	LABEL	01520	Pstat Serial Number
CTRLMODE	IQUANT	0	Control Mode
ELECTROMETER	IQUANT	1	RE=0 or CS=1
IESTAB	IQUANT	0	I/E Stability
CASPEED	IQUANT	4	Control Amp Speed
CONVENTION	IQUANT	1	Current Convention
ICHRANGE	IQUANT	2	Ich Range
ICHRANGEMODE	TOGGLE	T	Ich Auto Range
ICHOFFSETENABLE	TOGGLE	F	Ich Offset Enable
ICHOFFSET	QUANT	0	Ich Offset (V)
ICHFILTER	IQUANT	1	Ich Filter
VCHRANGE	IQUANT	2	Vch Range
VCHRANGEMODE	TOGGLE	T	Vch Auto Range
VCHOFFSETENABLE	TOGGLE	F	Vch Offset Enable
VCHOFFSET	QUANT	0	Vch Offset (V)
VCHFILTER	IQUANT	1	Vch Filter
IERANGELOWERLIMIT	IQUANT	9	I/E Range Lower Limit
IERANGEMODE	TOGGLE	F	I/E AutoRange
IERANGE	IQUANT	9	I/E Range
ACHSELECT	IQUANT	1	Ach Select
ACHRANGE	IQUANT	2	Ach Range
ACHOFFSETENABLE	TOGGLE	F	Ach Offset Enable
ACHOFFSET	QUANT	0	Ach Offset (V)
ACHFILTER	IQUANT	1	Ach Filter
CABLEID	IQUANT	14	Cable ID
DCCALDATE	LABEL	5-7-2017	DC Calibration Date
ACCALDATE	LABEL	12/3/2015	AC Calibration Date
FRAMEWORKVERSION	QUANT	7.01	Framework Version
INSTRUMENTVERSION	LABEL	4.00	Instrument Version
CURVE	TABLE	58
	Pt	T	Vf	Im	Vu	Pwr	Sig	Ach	Temp	IERange	Over
	#	s	V	A	V	W	V	V	deg C	#	bits
	0	0.013333	6.13227E-001	2.81983E-004	0.00000E+000	1.72919E-004	1.68088E-001	6.13492E-001	3.57730E+000	9	...........
	1	0.026667	6.43577E-001	2.82745E-004	0.00000E+000	1.81968E-004	1.68088E-001	6.43852E-001	3.57730E+000	9	...........
	2	0.04	6.69739E-001	2.81041E-004	0.00000E+000	1.88224E-004	1.68088E-001	6.70017E-001	3.57730E+000	9	...........
	3	0.053333	6.92832E-001	2.82363E-004	0.00000E+000	1.95630E-004	1.68088E-001	6.93108E-001	3.57730E+000	9	...........
	4	0.066667	7.13489E-001	2.80765E-004	0.00000E+000	2.00323E-004	1.68088E-001	7.13789E-001	3.57730E+000	9	...........
	5	0.08	7.32216E-001	2.81857E-004	0.00000E+000	2.06380E-004	1.68088E-001	7.32480E-001	3.57768E+000	9	...........
	6	0.093333	7.49261E-001	2.81399E-004	0.00000E+000	2.10841E-004	1.68088E-001	7.49524E-001	3.57780E+000	9	...........
	7	0.106667	7.64815E-001	2.80395E-004	0.00000E+000	2.14450E-004	1.68088E-001	7.65115E-001	3.57780E+000	9	...........
	8	0.12	7.79179E-001	2.82794E-004	0.00000E+000	2.20348E-004	1.68088E-001	7.79456E-001	3.57780E+000	9	...........
	9	0.133333	7.92433E-001	2.82275E-004	0.00000E+000	2.23684E-004	1.68088E-001	7.92697E-001	3.57780E+000	9	...........
	10	0.146667	8.04698E-001	2.81118E-004	0.00000E+000	2.26215E-004	1.68088E-001	8.04975E-001	3.57780E+000	9	...........
	11	0.16	8.16067E-001	2.82105E-004	0.00000E+000	2.30216E-004	1.68088E-001	8.16383E-001	3.57780E+000	9	...........
	12	0.173333	8.26662E-001	2.79700E-004	0.00000E+000	2.31217E-004	1.68088E-001	8.26976E-001	3.57780E+000	9	...........
	13	0.186667	8.36524E-001	2.81009E-004	0.00000E+000	2.35070E-004	1.68088E-001	8.36846E-001	3.57780E+000	9	...........
	14	0.2	8.45760E-001	2.80648E-004	0.00000E+000	2.37361E-004	1.68088E-001	8.46068E-001	3.57780E+000	9	...........
	15	0.213333	8.54330E-001	2.81422E-004	0.00000E+000	2.40427E-004	1.68088E-001	8.54639E-001	3.57780E+000	9	...........
	16	0.226667	8.62353E-001	2.81210E-004	0.00000E+000	2.42502E-004	1.68088E-001	8.62677E-001	3.57780E+000	9	...........
	17	0.24	8.69942E-001	2.81591E-004	0.00000E+000	2.44968E-004	1.68088E-001	8.70254E-001	3.57780E+000	9	...........
	18	0.253333	8.77029E-001	2.81915E-004	0.00000E+000	2.47248E-004	1.68088E-001	8.77327E-001	3.57780E+000	9	...........
	19	0.266667	8.83662E-001	2.80842E-004	0.00000E+000	2.48169E-004	1.68088E-001	8.83978E-001	3.57780E+000	9	...........
	20	0.28	8.89913E-001	2.80856E-004	0.00000E+000	2.49938E-004	1.68088E-001	8.90253E-001	3.57780E+000	9	...........
	21	0.293333	8.95851E-001	2.81185E-004	0.00000E+000	2.51900E-004	1.68088E-001	8.96189E-001	3.57780E+000	9	...........
	22	0.306667	9.01441E-001	2.80765E-004	0.00000E+000	2.53093E-004	1.68088E-001	9.01799E-001	3.57780E+000	9	...........
	23	0.32	9.06725E-001	2.81511E-004	0.00000E+000	2.55253E-004	1.68088E-001	9.07065E-001	3.57780E+000	9	...........
	24	0.333333	9.11741E-001	2.81710E-004	0.00000E+000	2.56846E-004	1.68088E-001	9.12085E-001	3.57780E+000	9	...........
	25	0.346667	9.16476E-001	2.80681E-004	0.00000E+000	2.57238E-004	1.68088E-001	9.16834E-001	3.57780E+000	9	...........
	26	0.36	9.21026E-001	2.81726E-004	0.00000E+000	2.59477E-004	1.68088E-001	9.21355E-001	3.57780E+000	9	...........
	27	0.373333	9.25302E-001	2.80878E-004	0.00000E+000	2.59897E-004	1.68088E-001	9.25635E-001	3.57780E+000	9	...........
	28	0.386667	9.29372E-001	2.81202E-004	0.00000E+000	2.61342E-004	1.68088E-001	9.29702E-001	3.57780E+000	9	...........
	29	0.4	9.33221E-001	2.80475E-004	0.00000E+000	2.61745E-004	1.68088E-001	9.33544E-001	3.57780E+000	9	...........
	30	0.413333	9.36923E-001	2.80629E-004	0.00000E+000	2.62928E-004	1.68088E-001	9.37268E-001	3.57780E+000	9	...........
	31	0.426667	9.40453E-001	2.80869E-004	0.00000E+000	2.64144E-004	1.68088E-001	9.40819E-001	3.57780E+000	9	...........
	32	0.44	9.43893E-001	2.80356E-004	0.00000E+000	2.64626E-004	1.68088E-001	9.44226E-001	3.57780E+000	9	...........
	33	0.453333	9.47179E-001	2.80150E-004	0.00000E+000	2.65352E-004	1.68088E-001	9.47539E-001	3.57780E+000	9	...........
	34	0.466667	9.50331E-001	2.80596E-004	0.00000E+000	2.66659E-004	1.68088E-001	9.50681E-001	3.57780E+000	9	...........
	35	0.48	9.53346E-001	2.81614E-004	0.00000E+000	2.68476E-004	1.68088E-001	9.53678E-001	3.57780E+000	9	...........
	36	0.493333	9.56190E-001	2.80283E-004	0.00000E+000	2.68004E-004	1.68088E-001	9.56551E-001	3.57780E+000	9	...........
	37	0.506667	9.58968E-001	2.81727E-004	0.00000E+000	2.70168E-004	1.68088E-001	9.59326E-001	3.57780E+000	9	...........
	38	0.52	9.61636E-001	2.80780E-004	0.00000E+000	2.70008E-004	1.68088E-001	9.62004E-001	3.57780E+000	9	...........
	39	0.533333	9.64249E-001	2.80692E-004	0.00000E+000	2.70657E-004	1.68088E-001	9.64616E-001	3.57780E+000	9	...........
	40	0.546667	9.66785E-001	2.82340E-004	0.00000E+000	2.72962E-004	1.68088E-001	9.67129E-001	3.57780E+000	9	...........
	41	0.56	9.69181E-001	2.80906E-004	0.00000E+000	2.72249E-004	1.68088E-001	9.69555E-001	3.57780E+000	9	...........
	42	0.573333	9.71558E-001	2.82857E-004	0.00000E+000	2.74812E-004	1.68088E-001	9.71935E-001	3.57780E+000	9	...........
	43	0.586667	9.73883E-001	2.80778E-004	0.00000E+000	2.73445E-004	1.68088E-001	9.74244E-001	3.57780E+000	9	...........
	44	0.6	9.76112E-001	2.79797E-004	0.00000E+000	2.73113E-004	1.68088E-001	9.76472E-001	3.57780E+000	9	...........
	45	0.613333	9.78244E-001	2.80196E-004	0.00000E+000	2.74100E-004	1.68088E-001	9.78596E-001	3.57780E+000	9	...........
	46	0.626667	9.80354E-001	2.81689E-004	0.00000E+000	2.76155E-004	1.68088E-001	9.80698E-001	3.57780E+000	9	...........
	47	0.64	9.82385E-001	2.80250E-004	0.00000E+000	2.75313E-004	1.68088E-001	9.82747E-001	3.57780E+000	9	...........
	48	0.653333	9.84314E-001	2.79885E-004	0.00000E+000	2.75495E-004	1.68088E-001	9.84707E-001	3.57780E+000	9	...........
	49	0.666667	9.86262E-001	2.81234E-004	0.00000E+000	2.77370E-004	1.68088E-001	9.86627E-001	3.57780E+000	9	...........
	50	0.68	9.88122E-001	2.80982E-004	0.00000E+000	2.77645E-004	1.68088E-001	9.88500E-001	3.57780E+000	9	...........
	51	0.693333	9.89962E-001	2.81894E-004	0.00000E+000	2.79065E-004	1.68088E-001	9.90324E-001	3.57780E+000	9	...........
	52	0.706667	9.91771E-001	2.81198E-004	0.00000E+000	2.78884E-004	1.68088E-001	9.92126E-001	3.57780E+000	9	...........
	53	0.72	9.93530E-001	2.81997E-004	0.00000E+000	2.80173E-004	1.68088E-001	9.93901E-001	3.57780E+000	9	...........
	54	0.733333	9.95281E-001	2.79836E-004	0.00000E+000	2.78516E-004	1.68088E-001	9.95614E-001	3.57780E+000	9	...........
	55	0.746667	9.96937E-001	2.80630E-004	0.00000E+000	2.79771E-004	1.68088E-001	9.97311E-001	3.57780E+000	9	...........
	56	0.76	9.98607E-001	2.80225E-004	0.00000E+000	2.79835E-004	1.68088E-001	9.98962E-001	3.57780E+000	9	...........
	57	0.766667	9.99811E-001	2.82346E-004	0.00000E+000	2.82293E-004	1.68088E-001	1.00020E+000	3.57780E+000	9	...........
STARTTIMEOFFSET	QUANT	2044.695	Start Time Offset (s)
