EXPLAIN
TAG	PWR800_CHARGE
TITLE	LABEL	PWR Cyclic Charge Discharge (Cell) - Charge Step	Test &Identifier
DATE	LABEL	7-7-2017	Date
TIME	LABEL	16:07:31	Time
NOTES	NOTES	3	&Notes...
	supercap test cell
	2.8mg
	6M KOH
PSTAT	PSTAT	IFC5000-01520	Potentiostat
CAPACITY	QUANT	1.00000E-003	Capacity (A-hr)
CELLTYPE	SELECTOR	1	&Cell Type
WORKINGCONNECTION	SELECTOR	0	&Working Lead
MAXCHARGETIME	VARIABLEANDUNITS	1.00000E+002	s	1.00000E+002	second(s)	Max &Charge Time
CHARGECURRENT	QUANT	2.80000E-004	&Charge Current (A) 
VOLTAGEFINISH	TWOPARAM	F	1.00000E-003	3.60000E+003	&Voltage Finish	 I (A) < 	Max Time(s)
SAMPLETIME	QUANT	1.00000E-002	Sa&mple Period (s)
CHARGESTOPAT1	MULTIPARAM	4	1.00000E+000	Charge Stop At &1	Voltage > Limit	V
CHARGESTOPAT2	MULTIPARAM	0	0.00000E+000	Charge Stop At &2	None	N/A
AESBHCSELECTOR	TOGGLE	F	Save Both Half Cells
IRCOMP	TOGGLE	F	IR &Measure
EOC	QUANT	0	Open Circuit (V)
SEQUENCER	TOGGLE	TRUE	Run as Sequence
PSTATMODEL	IQUANT	53	Pstat Model
PSTATSECTION	LABEL	IFC5000-01520	Pstat Section
PSTATSERIALNO	LABEL	01520	Pstat Serial Number
CTRLMODE	IQUANT	0	Control Mode
ELECTROMETER	IQUANT	1	RE=0 or CS=1
IESTAB	IQUANT	0	I/E Stability
CASPEED	IQUANT	4	Control Amp Speed
CONVENTION	IQUANT	1	Current Convention
ICHRANGE	IQUANT	2	Ich Range
ICHRANGEMODE	TOGGLE	T	Ich Auto Range
ICHOFFSETENABLE	TOGGLE	F	Ich Offset Enable
ICHOFFSET	QUANT	0	Ich Offset (V)
ICHFILTER	IQUANT	1	Ich Filter
VCHRANGE	IQUANT	2	Vch Range
VCHRANGEMODE	TOGGLE	T	Vch Auto Range
VCHOFFSETENABLE	TOGGLE	F	Vch Offset Enable
VCHOFFSET	QUANT	0	Vch Offset (V)
VCHFILTER	IQUANT	1	Vch Filter
IERANGELOWERLIMIT	IQUANT	9	I/E Range Lower Limit
IERANGEMODE	TOGGLE	F	I/E AutoRange
IERANGE	IQUANT	9	I/E Range
ACHSELECT	IQUANT	1	Ach Select
ACHRANGE	IQUANT	2	Ach Range
ACHOFFSETENABLE	TOGGLE	F	Ach Offset Enable
ACHOFFSET	QUANT	0	Ach Offset (V)
ACHFILTER	IQUANT	1	Ach Filter
CABLEID	IQUANT	14	Cable ID
DCCALDATE	LABEL	5-7-2017	DC Calibration Date
ACCALDATE	LABEL	12/3/2015	AC Calibration Date
FRAMEWORKVERSION	QUANT	7.01	Framework Version
INSTRUMENTVERSION	LABEL	4.00	Instrument Version
CURVE	TABLE	71
	Pt	T	Vf	Im	Vu	Pwr	Sig	Ach	Temp	IERange	Over
	#	s	V	A	V	W	V	V	deg C	#	bits
	0	0.013333	6.01152E-001	2.81865E-004	0.00000E+000	1.69444E-004	1.68088E-001	6.01428E-001	3.57880E+000	9	...........
	1	0.026667	6.31188E-001	2.82059E-004	0.00000E+000	1.78032E-004	1.68088E-001	6.31444E-001	3.57880E+000	9	...........
	2	0.04	6.56850E-001	2.81117E-004	0.00000E+000	1.84652E-004	1.68088E-001	6.57113E-001	3.57880E+000	9	...........
	3	0.053333	6.79336E-001	2.81334E-004	0.00000E+000	1.91120E-004	1.68088E-001	6.79605E-001	3.57880E+000	9	...........
	4	0.066667	6.99356E-001	2.80887E-004	0.00000E+000	1.96440E-004	1.68088E-001	6.99625E-001	3.57880E+000	9	...........
	5	0.08	7.17404E-001	2.80869E-004	0.00000E+000	2.01496E-004	1.68088E-001	7.17661E-001	3.57880E+000	9	...........
	6	0.093333	7.33748E-001	2.81918E-004	0.00000E+000	2.06857E-004	1.68088E-001	7.34033E-001	3.57880E+000	9	...........
	7	0.106667	7.48697E-001	2.81269E-004	0.00000E+000	2.10585E-004	1.68088E-001	7.48979E-001	3.57880E+000	9	...........
	8	0.12	7.62399E-001	2.80333E-004	0.00000E+000	2.13726E-004	1.68088E-001	7.62692E-001	3.57880E+000	9	...........
	9	0.133333	7.75050E-001	2.80366E-004	0.00000E+000	2.17298E-004	1.68088E-001	7.75374E-001	3.57880E+000	9	...........
	10	0.146667	7.86805E-001	2.80467E-004	0.00000E+000	2.20673E-004	1.68088E-001	7.87117E-001	3.57880E+000	9	...........
	11	0.16	7.97711E-001	2.82485E-004	0.00000E+000	2.25341E-004	1.68088E-001	7.98009E-001	3.57880E+000	9	...........
	12	0.173333	8.07804E-001	2.81471E-004	0.00000E+000	2.27373E-004	1.68088E-001	8.08166E-001	3.57880E+000	9	...........
	13	0.186667	8.17243E-001	2.81468E-004	0.00000E+000	2.30028E-004	1.68088E-001	8.17601E-001	3.57880E+000	9	...........
	14	0.2	8.26072E-001	2.81042E-004	0.00000E+000	2.32161E-004	1.68088E-001	8.26426E-001	3.57880E+000	9	...........
	15	0.213333	8.34332E-001	2.81128E-004	0.00000E+000	2.34554E-004	1.68088E-001	8.34696E-001	3.57880E+000	9	...........
	16	0.226667	8.42128E-001	2.81408E-004	0.00000E+000	2.36981E-004	1.68088E-001	8.42476E-001	3.57880E+000	9	...........
	17	0.24	8.49420E-001	2.81253E-004	0.00000E+000	2.38902E-004	1.68088E-001	8.49763E-001	3.57880E+000	9	...........
	18	0.253333	8.56275E-001	2.81432E-004	0.00000E+000	2.40983E-004	1.68088E-001	8.56643E-001	3.57880E+000	9	...........
	19	0.266667	8.62764E-001	2.82510E-004	0.00000E+000	2.43739E-004	1.68088E-001	8.63119E-001	3.57880E+000	9	...........
	20	0.28	8.68909E-001	2.81468E-004	0.00000E+000	2.44570E-004	1.68088E-001	8.69266E-001	3.57880E+000	9	...........
	21	0.293333	8.74730E-001	2.82991E-004	0.00000E+000	2.47541E-004	1.68088E-001	8.75076E-001	3.57880E+000	9	...........
	22	0.306667	8.80199E-001	2.80788E-004	0.00000E+000	2.47149E-004	1.68088E-001	8.80561E-001	3.57880E+000	9	...........
	23	0.32	8.85427E-001	2.81209E-004	0.00000E+000	2.48990E-004	1.68088E-001	8.85752E-001	3.57880E+000	9	...........
	24	0.333333	8.90336E-001	2.81113E-004	0.00000E+000	2.50285E-004	1.68088E-001	8.90634E-001	3.57880E+000	9	...........
	25	0.346667	8.95006E-001	2.80574E-004	0.00000E+000	2.51115E-004	1.68088E-001	8.95307E-001	3.57880E+000	9	...........
	26	0.36	8.99441E-001	2.81582E-004	0.00000E+000	2.53266E-004	1.68088E-001	8.99767E-001	3.57880E+000	9	...........
	27	0.373333	9.03709E-001	2.81241E-004	0.00000E+000	2.54160E-004	1.68088E-001	9.04054E-001	3.57880E+000	9	...........
	28	0.386667	9.07791E-001	2.82457E-004	0.00000E+000	2.56412E-004	1.68088E-001	9.08125E-001	3.57880E+000	9	...........
	29	0.4	9.11676E-001	2.80997E-004	0.00000E+000	2.56178E-004	1.68088E-001	9.12005E-001	3.57880E+000	9	...........
	30	0.413333	9.15429E-001	2.81235E-004	0.00000E+000	2.57450E-004	1.68088E-001	9.15774E-001	3.57880E+000	9	...........
	31	0.426667	9.18929E-001	2.81570E-004	0.00000E+000	2.58743E-004	1.68088E-001	9.19287E-001	3.57880E+000	9	...........
	32	0.44	9.22426E-001	2.81504E-004	0.00000E+000	2.59667E-004	1.68088E-001	9.22725E-001	3.57880E+000	9	...........
	33	0.453333	9.25699E-001	2.81043E-004	0.00000E+000	2.60161E-004	1.68088E-001	9.26003E-001	3.57880E+000	9	...........
	34	0.466667	9.28843E-001	2.80204E-004	0.00000E+000	2.60266E-004	1.68088E-001	9.29161E-001	3.57880E+000	9	...........
	35	0.48	9.31882E-001	2.80577E-004	0.00000E+000	2.61465E-004	1.68088E-001	9.32200E-001	3.57880E+000	9	...........
	36	0.493333	9.34809E-001	2.81768E-004	0.00000E+000	2.63399E-004	1.68088E-001	9.35181E-001	3.57880E+000	9	...........
	37	0.506667	9.37617E-001	2.80282E-004	0.00000E+000	2.62797E-004	1.68088E-001	9.37990E-001	3.57880E+000	9	...........
	38	0.52	9.40349E-001	2.80741E-004	0.00000E+000	2.63994E-004	1.68088E-001	9.40720E-001	3.57880E+000	9	...........
	39	0.533333	9.43030E-001	2.80826E-004	0.00000E+000	2.64827E-004	1.68088E-001	9.43378E-001	3.57880E+000	9	...........
	40	0.546667	9.45585E-001	2.79050E-004	0.00000E+000	2.63865E-004	1.68088E-001	9.45964E-001	3.57880E+000	9	...........
	41	0.56	9.48163E-001	2.82025E-004	0.00000E+000	2.67406E-004	1.68088E-001	9.48516E-001	3.57880E+000	9	...........
	42	0.573333	9.50563E-001	2.80922E-004	0.00000E+000	2.67034E-004	1.68088E-001	9.50933E-001	3.57880E+000	9	...........
	43	0.586667	9.52934E-001	2.80106E-004	0.00000E+000	2.66923E-004	1.68088E-001	9.53290E-001	3.57880E+000	9	...........
	44	0.6	9.55236E-001	2.82238E-004	0.00000E+000	2.69604E-004	1.68088E-001	9.55589E-001	3.57872E+000	9	...........
	45	0.613333	9.57493E-001	2.82011E-004	0.00000E+000	2.70023E-004	1.68088E-001	9.57861E-001	3.57870E+000	9	...........
	46	0.626667	9.59722E-001	2.80935E-004	0.00000E+000	2.69619E-004	1.68088E-001	9.60066E-001	3.57870E+000	9	...........
	47	0.64	9.61829E-001	2.81649E-004	0.00000E+000	2.70899E-004	1.68088E-001	9.62191E-001	3.57870E+000	9	...........
	48	0.653333	9.63906E-001	2.82142E-004	0.00000E+000	2.71959E-004	1.68088E-001	9.64259E-001	3.57870E+000	9	...........
	49	0.666667	9.65887E-001	2.80649E-004	0.00000E+000	2.71075E-004	1.68088E-001	9.66249E-001	3.57870E+000	9	...........
	50	0.68	9.67847E-001	2.79948E-004	0.00000E+000	2.70947E-004	1.68088E-001	9.68229E-001	3.57870E+000	9	...........
	51	0.693333	9.69785E-001	2.80453E-004	0.00000E+000	2.71979E-004	1.68088E-001	9.70170E-001	3.57870E+000	9	...........
	52	0.706667	9.71656E-001	2.81949E-004	0.00000E+000	2.73958E-004	1.68088E-001	9.72075E-001	3.57870E+000	9	...........
	53	0.72	9.73556E-001	2.81135E-004	0.00000E+000	2.73700E-004	1.68088E-001	9.73914E-001	3.57870E+000	9	...........
	54	0.733333	9.75322E-001	2.80767E-004	0.00000E+000	2.73838E-004	1.68088E-001	9.75686E-001	3.57870E+000	9	...........
	55	0.746667	9.77064E-001	2.80869E-004	0.00000E+000	2.74427E-004	1.68088E-001	9.77464E-001	3.57870E+000	9	...........
	56	0.76	9.78781E-001	2.82253E-004	0.00000E+000	2.76263E-004	1.68088E-001	9.79160E-001	3.57870E+000	9	...........
	57	0.773333	9.80445E-001	2.81775E-004	0.00000E+000	2.76265E-004	1.68088E-001	9.80816E-001	3.57870E+000	9	...........
	58	0.786667	9.82084E-001	2.81768E-004	0.00000E+000	2.76720E-004	1.68088E-001	9.82445E-001	3.57870E+000	9	...........
	59	0.8	9.83664E-001	2.80989E-004	0.00000E+000	2.76398E-004	1.68088E-001	9.84057E-001	3.57870E+000	9	...........
	60	0.813333	9.85291E-001	2.81732E-004	0.00000E+000	2.77588E-004	1.68088E-001	9.85679E-001	3.57870E+000	9	...........
	61	0.826667	9.86845E-001	2.81719E-004	0.00000E+000	2.78013E-004	1.68088E-001	9.87249E-001	3.57870E+000	9	...........
	62	0.84	9.88385E-001	2.81214E-004	0.00000E+000	2.77948E-004	1.68088E-001	9.88744E-001	3.57870E+000	9	...........
	63	0.853333	9.89884E-001	2.80007E-004	0.00000E+000	2.77175E-004	1.68088E-001	9.90279E-001	3.57870E+000	9	...........
	64	0.866667	9.91399E-001	2.82298E-004	0.00000E+000	2.79870E-004	1.68088E-001	9.91771E-001	3.57870E+000	9	...........
	65	0.88	9.92837E-001	2.80368E-004	0.00000E+000	2.78360E-004	1.68088E-001	9.93237E-001	3.57870E+000	9	...........
	66	0.893333	9.94324E-001	2.81203E-004	0.00000E+000	2.79607E-004	1.68088E-001	9.94730E-001	3.57870E+000	9	...........
	67	0.906667	9.95753E-001	2.82428E-004	0.00000E+000	2.81228E-004	1.68088E-001	9.96140E-001	3.57870E+000	9	...........
	68	0.92	9.97142E-001	2.81444E-004	0.00000E+000	2.80640E-004	1.68088E-001	9.97540E-001	3.57870E+000	9	...........
	69	0.933333	9.98482E-001	2.81320E-004	0.00000E+000	2.80893E-004	1.68088E-001	9.98871E-001	3.57870E+000	9	...........
	70	0.943333	9.99613E-001	2.81372E-004	0.00000E+000	2.81263E-004	1.68088E-001	1.00002E+000	3.57870E+000	9	...........
STARTTIMEOFFSET	QUANT	1423.323	Start Time Offset (s)
