EXPLAIN
TAG	PWR800_CHARGE
TITLE	LABEL	PWR Cyclic Charge Discharge (Cell) - Charge Step	Test &Identifier
DATE	LABEL	7-7-2017	Date
TIME	LABEL	15:58:39	Time
NOTES	NOTES	3	&Notes...
	supercap test cell
	2.8mg
	6M KOH
PSTAT	PSTAT	IFC5000-01520	Potentiostat
CAPACITY	QUANT	1.00000E-003	Capacity (A-hr)
CELLTYPE	SELECTOR	1	&Cell Type
WORKINGCONNECTION	SELECTOR	0	&Working Lead
MAXCHARGETIME	VARIABLEANDUNITS	1.00000E+002	s	1.00000E+002	second(s)	Max &Charge Time
CHARGECURRENT	QUANT	2.80000E-004	&Charge Current (A) 
VOLTAGEFINISH	TWOPARAM	F	1.00000E-003	3.60000E+003	&Voltage Finish	 I (A) < 	Max Time(s)
SAMPLETIME	QUANT	1.00000E-002	Sa&mple Period (s)
CHARGESTOPAT1	MULTIPARAM	4	1.00000E+000	Charge Stop At &1	Voltage > Limit	V
CHARGESTOPAT2	MULTIPARAM	0	0.00000E+000	Charge Stop At &2	None	N/A
AESBHCSELECTOR	TOGGLE	F	Save Both Half Cells
IRCOMP	TOGGLE	F	IR &Measure
EOC	QUANT	0	Open Circuit (V)
SEQUENCER	TOGGLE	TRUE	Run as Sequence
PSTATMODEL	IQUANT	53	Pstat Model
PSTATSECTION	LABEL	IFC5000-01520	Pstat Section
PSTATSERIALNO	LABEL	01520	Pstat Serial Number
CTRLMODE	IQUANT	0	Control Mode
ELECTROMETER	IQUANT	1	RE=0 or CS=1
IESTAB	IQUANT	0	I/E Stability
CASPEED	IQUANT	4	Control Amp Speed
CONVENTION	IQUANT	1	Current Convention
ICHRANGE	IQUANT	2	Ich Range
ICHRANGEMODE	TOGGLE	T	Ich Auto Range
ICHOFFSETENABLE	TOGGLE	F	Ich Offset Enable
ICHOFFSET	QUANT	0	Ich Offset (V)
ICHFILTER	IQUANT	1	Ich Filter
VCHRANGE	IQUANT	2	Vch Range
VCHRANGEMODE	TOGGLE	T	Vch Auto Range
VCHOFFSETENABLE	TOGGLE	F	Vch Offset Enable
VCHOFFSET	QUANT	0	Vch Offset (V)
VCHFILTER	IQUANT	1	Vch Filter
IERANGELOWERLIMIT	IQUANT	9	I/E Range Lower Limit
IERANGEMODE	TOGGLE	F	I/E AutoRange
IERANGE	IQUANT	9	I/E Range
ACHSELECT	IQUANT	1	Ach Select
ACHRANGE	IQUANT	2	Ach Range
ACHOFFSETENABLE	TOGGLE	F	Ach Offset Enable
ACHOFFSET	QUANT	0	Ach Offset (V)
ACHFILTER	IQUANT	1	Ach Filter
CABLEID	IQUANT	14	Cable ID
DCCALDATE	LABEL	5-7-2017	DC Calibration Date
ACCALDATE	LABEL	12/3/2015	AC Calibration Date
FRAMEWORKVERSION	QUANT	7.01	Framework Version
INSTRUMENTVERSION	LABEL	4.00	Instrument Version
CURVE	TABLE	81
	Pt	T	Vf	Im	Vu	Pwr	Sig	Ach	Temp	IERange	Over
	#	s	V	A	V	W	V	V	deg C	#	bits
	0	0.013333	6.49807E-001	2.80577E-004	0.00000E+000	1.82321E-004	1.68088E-001	6.50097E-001	3.57890E+000	9	...........
	1	0.026667	6.72050E-001	2.81606E-004	0.00000E+000	1.89253E-004	1.68088E-001	6.72349E-001	3.57890E+000	9	...........
	2	0.04	6.91685E-001	2.80465E-004	0.00000E+000	1.93993E-004	1.68088E-001	6.91990E-001	3.57890E+000	9	...........
	3	0.053333	7.09302E-001	2.80833E-004	0.00000E+000	1.99196E-004	1.68088E-001	7.09597E-001	3.57890E+000	9	...........
	4	0.066667	7.25256E-001	2.82244E-004	0.00000E+000	2.04699E-004	1.68088E-001	7.25535E-001	3.57890E+000	9	...........
	5	0.08	7.39742E-001	2.80819E-004	0.00000E+000	2.07734E-004	1.68088E-001	7.40025E-001	3.57890E+000	9	...........
	6	0.093333	7.53036E-001	2.81910E-004	0.00000E+000	2.12288E-004	1.68088E-001	7.53345E-001	3.57890E+000	9	...........
	7	0.106667	7.65256E-001	2.81424E-004	0.00000E+000	2.15361E-004	1.68088E-001	7.65561E-001	3.57890E+000	9	...........
	8	0.12	7.76571E-001	2.79844E-004	0.00000E+000	2.17318E-004	1.68088E-001	7.76859E-001	3.57890E+000	9	...........
	9	0.133333	7.87036E-001	2.81812E-004	0.00000E+000	2.21796E-004	1.68088E-001	7.87322E-001	3.57890E+000	9	...........
	10	0.146667	7.96818E-001	2.81393E-004	0.00000E+000	2.24219E-004	1.68088E-001	7.97076E-001	3.57890E+000	9	...........
	11	0.16	8.05872E-001	2.81983E-004	0.00000E+000	2.27242E-004	1.68088E-001	8.06175E-001	3.57890E+000	9	...........
	12	0.173333	8.14349E-001	2.81239E-004	0.00000E+000	2.29026E-004	1.68088E-001	8.14661E-001	3.57890E+000	9	...........
	13	0.186667	8.22283E-001	2.80810E-004	0.00000E+000	2.30905E-004	1.68088E-001	8.22606E-001	3.57890E+000	9	...........
	14	0.2	8.29733E-001	2.81196E-004	0.00000E+000	2.33318E-004	1.68088E-001	8.30065E-001	3.57890E+000	9	...........
	15	0.213333	8.36742E-001	2.81714E-004	0.00000E+000	2.35722E-004	1.68088E-001	8.37101E-001	3.57890E+000	9	...........
	16	0.226667	8.43368E-001	2.81070E-004	0.00000E+000	2.37046E-004	1.68088E-001	8.43708E-001	3.57890E+000	9	...........
	17	0.24	8.49634E-001	2.82694E-004	0.00000E+000	2.40187E-004	1.68088E-001	8.50007E-001	3.57890E+000	9	...........
	18	0.253333	8.55564E-001	2.81290E-004	0.00000E+000	2.40661E-004	1.68088E-001	8.55929E-001	3.57890E+000	9	...........
	19	0.266667	8.61168E-001	2.80855E-004	0.00000E+000	2.41864E-004	1.68088E-001	8.61541E-001	3.57890E+000	9	...........
	20	0.28	8.66470E-001	2.81251E-004	0.00000E+000	2.43696E-004	1.68088E-001	8.66849E-001	3.57853E+000	9	...........
	21	0.293333	8.71557E-001	2.80214E-004	0.00000E+000	2.44222E-004	1.68088E-001	8.71932E-001	3.57830E+000	9	...........
	22	0.306667	8.76352E-001	2.81049E-004	0.00000E+000	2.46298E-004	1.68088E-001	8.76716E-001	3.57830E+000	9	...........
	23	0.32	8.80949E-001	2.81108E-004	0.00000E+000	2.47642E-004	1.68088E-001	8.81301E-001	3.57830E+000	9	...........
	24	0.333333	8.85316E-001	2.81305E-004	0.00000E+000	2.49044E-004	1.68088E-001	8.85692E-001	3.57830E+000	9	...........
	25	0.346667	8.89520E-001	2.81341E-004	0.00000E+000	2.50258E-004	1.68088E-001	8.89856E-001	3.57830E+000	9	...........
	26	0.36	8.93464E-001	2.81141E-004	0.00000E+000	2.51189E-004	1.68088E-001	8.93850E-001	3.57830E+000	9	...........
	27	0.373333	8.97286E-001	2.80316E-004	0.00000E+000	2.51523E-004	1.68088E-001	8.97665E-001	3.57830E+000	9	...........
	28	0.386667	9.00943E-001	2.80491E-004	0.00000E+000	2.52706E-004	1.68088E-001	9.01322E-001	3.57830E+000	9	...........
	29	0.4	9.04446E-001	2.81017E-004	0.00000E+000	2.54165E-004	1.68088E-001	9.04833E-001	3.57830E+000	9	...........
	30	0.413333	9.07806E-001	2.81169E-004	0.00000E+000	2.55247E-004	1.68088E-001	9.08194E-001	3.57830E+000	9	...........
	31	0.426667	9.11047E-001	2.80902E-004	0.00000E+000	2.55915E-004	1.68088E-001	9.11355E-001	3.57830E+000	9	...........
	32	0.44	9.14167E-001	2.80838E-004	0.00000E+000	2.56732E-004	1.68088E-001	9.14493E-001	3.57830E+000	9	...........
	33	0.453333	9.17207E-001	2.82106E-004	0.00000E+000	2.58749E-004	1.68088E-001	9.17520E-001	3.57830E+000	9	...........
	34	0.466667	9.20153E-001	2.81215E-004	0.00000E+000	2.58761E-004	1.68088E-001	9.20467E-001	3.57830E+000	9	...........
	35	0.48	9.23021E-001	2.81111E-004	0.00000E+000	2.59471E-004	1.68088E-001	9.23298E-001	3.57830E+000	9	...........
	36	0.493333	9.25714E-001	2.80817E-004	0.00000E+000	2.59956E-004	1.68088E-001	9.26013E-001	3.57830E+000	9	...........
	37	0.506667	9.28328E-001	2.81478E-004	0.00000E+000	2.61304E-004	1.68088E-001	9.28649E-001	3.57830E+000	9	...........
	38	0.52	9.30894E-001	2.81327E-004	0.00000E+000	2.61886E-004	1.68088E-001	9.31228E-001	3.57830E+000	9	...........
	39	0.533333	9.33371E-001	2.81039E-004	0.00000E+000	2.62314E-004	1.68088E-001	9.33713E-001	3.57830E+000	9	...........
	40	0.546667	9.35787E-001	2.80477E-004	0.00000E+000	2.62467E-004	1.68088E-001	9.36144E-001	3.57830E+000	9	...........
	41	0.56	9.38109E-001	2.81899E-004	0.00000E+000	2.64452E-004	1.68088E-001	9.38466E-001	3.57830E+000	9	...........
	42	0.573333	9.40370E-001	2.81469E-004	0.00000E+000	2.64685E-004	1.68088E-001	9.40716E-001	3.57830E+000	9	...........
	43	0.586667	9.42585E-001	2.80868E-004	0.00000E+000	2.64742E-004	1.68088E-001	9.42910E-001	3.57830E+000	9	...........
	44	0.6	9.44756E-001	2.81068E-004	0.00000E+000	2.65540E-004	1.68088E-001	9.45100E-001	3.57830E+000	9	...........
	45	0.613333	9.46904E-001	2.81769E-004	0.00000E+000	2.66808E-004	1.68088E-001	9.47245E-001	3.57830E+000	9	...........
	46	0.626667	9.48958E-001	2.81139E-004	0.00000E+000	2.66789E-004	1.68088E-001	9.49309E-001	3.57830E+000	9	...........
	47	0.64	9.50969E-001	2.80545E-004	0.00000E+000	2.66790E-004	1.68088E-001	9.51323E-001	3.57830E+000	9	...........
	48	0.653333	9.52934E-001	2.81911E-004	0.00000E+000	2.68642E-004	1.68088E-001	9.53281E-001	3.57830E+000	9	...........
	49	0.666667	9.54849E-001	2.81103E-004	0.00000E+000	2.68411E-004	1.68088E-001	9.55173E-001	3.57830E+000	9	...........
	50	0.68	9.56750E-001	2.81925E-004	0.00000E+000	2.69732E-004	1.68088E-001	9.57051E-001	3.57830E+000	9	...........
	51	0.693333	9.58578E-001	2.81429E-004	0.00000E+000	2.69772E-004	1.68088E-001	9.58889E-001	3.57830E+000	9	...........
	52	0.706667	9.60399E-001	2.80930E-004	0.00000E+000	2.69805E-004	1.68088E-001	9.60714E-001	3.57830E+000	9	...........
	53	0.72	9.62178E-001	2.81099E-004	0.00000E+000	2.70468E-004	1.68088E-001	9.62518E-001	3.57830E+000	9	...........
	54	0.733333	9.63934E-001	2.80830E-004	0.00000E+000	2.70702E-004	1.68088E-001	9.64260E-001	3.57830E+000	9	...........
	55	0.746667	9.65641E-001	2.80893E-004	0.00000E+000	2.71242E-004	1.68088E-001	9.65970E-001	3.57830E+000	9	...........
	56	0.76	9.67291E-001	2.81989E-004	0.00000E+000	2.72765E-004	1.68088E-001	9.67609E-001	3.57830E+000	9	...........
	57	0.773333	9.68876E-001	2.80947E-004	0.00000E+000	2.72203E-004	1.68088E-001	9.69218E-001	3.57830E+000	9	...........
	58	0.786667	9.70453E-001	2.81208E-004	0.00000E+000	2.72899E-004	1.68088E-001	9.70825E-001	3.57830E+000	9	...........
	59	0.8	9.72006E-001	2.81396E-004	0.00000E+000	2.73519E-004	1.68088E-001	9.72399E-001	3.57830E+000	9	...........
	60	0.813333	9.73626E-001	2.80581E-004	0.00000E+000	2.73181E-004	1.68088E-001	9.73969E-001	3.57830E+000	9	...........
	61	0.826667	9.75162E-001	2.81122E-004	0.00000E+000	2.74140E-004	1.68088E-001	9.75552E-001	3.57830E+000	9	...........
	62	0.84	9.76664E-001	2.80658E-004	0.00000E+000	2.74109E-004	1.68088E-001	9.77046E-001	3.57830E+000	9	...........
	63	0.853333	9.78143E-001	2.82479E-004	0.00000E+000	2.76304E-004	1.68088E-001	9.78533E-001	3.57830E+000	9	...........
	64	0.866667	9.79615E-001	2.80853E-004	0.00000E+000	2.75128E-004	1.68088E-001	9.79977E-001	3.57830E+000	9	...........
	65	0.88	9.81070E-001	2.82174E-004	0.00000E+000	2.76833E-004	1.68088E-001	9.81416E-001	3.57830E+000	9	...........
	66	0.893333	9.82483E-001	2.81802E-004	0.00000E+000	2.76866E-004	1.68088E-001	9.82840E-001	3.57830E+000	9	...........
	67	0.906667	9.83854E-001	2.81179E-004	0.00000E+000	2.76639E-004	1.68088E-001	9.84213E-001	3.57830E+000	9	...........
	68	0.92	9.85191E-001	2.80672E-004	0.00000E+000	2.76515E-004	1.68088E-001	9.85562E-001	3.57830E+000	9	...........
	69	0.933333	9.86561E-001	2.81031E-004	0.00000E+000	2.77255E-004	1.68088E-001	9.86939E-001	3.57830E+000	9	...........
	70	0.946667	9.87924E-001	2.80829E-004	0.00000E+000	2.77438E-004	1.68088E-001	9.88315E-001	3.57830E+000	9	...........
	71	0.96	9.89286E-001	2.81481E-004	0.00000E+000	2.78465E-004	1.68088E-001	9.89645E-001	3.57830E+000	9	...........
	72	0.97333	9.90554E-001	2.80618E-004	0.00000E+000	2.77967E-004	1.68088E-001	9.90915E-001	3.57830E+000	9	...........
	73	0.98667	9.91810E-001	2.80732E-004	0.00000E+000	2.78433E-004	1.68088E-001	9.92187E-001	3.57830E+000	9	...........
	74	1	9.93067E-001	2.81745E-004	0.00000E+000	2.79792E-004	1.68088E-001	9.93426E-001	3.57830E+000	9	...........
	75	1.01333	9.94285E-001	2.80885E-004	0.00000E+000	2.79279E-004	1.68088E-001	9.94674E-001	3.57830E+000	9	...........
	76	1.02667	9.95579E-001	2.81226E-004	0.00000E+000	2.79983E-004	1.68088E-001	9.95945E-001	3.57830E+000	9	...........
	77	1.04	9.96792E-001	2.81359E-004	0.00000E+000	2.80456E-004	1.68088E-001	9.97182E-001	3.57830E+000	9	...........
	78	1.05333	9.98000E-001	2.82076E-004	0.00000E+000	2.81512E-004	1.68088E-001	9.98389E-001	3.57830E+000	9	...........
	79	1.06667	9.99176E-001	2.81389E-004	0.00000E+000	2.81157E-004	1.68088E-001	9.99569E-001	3.57830E+000	9	...........
	80	1.07167	9.99996E-001	2.80680E-004	0.00000E+000	2.80679E-004	1.68088E-001	1.00035E+000	3.57830E+000	9	...........
STARTTIMEOFFSET	QUANT	1052.409	Start Time Offset (s)
