EXPLAIN
TAG	PWR800_CHARGE
TITLE	LABEL	PWR Cyclic Charge Discharge (Cell) - Charge Step	Test &Identifier
DATE	LABEL	7-7-2017	Date
TIME	LABEL	16:23:14	Time
NOTES	NOTES	3	&Notes...
	supercap test cell
	2.8mg
	6M KOH
PSTAT	PSTAT	IFC5000-01520	Potentiostat
CAPACITY	QUANT	1.00000E-003	Capacity (A-hr)
CELLTYPE	SELECTOR	1	&Cell Type
WORKINGCONNECTION	SELECTOR	0	&Working Lead
MAXCHARGETIME	VARIABLEANDUNITS	1.00000E+002	s	1.00000E+002	second(s)	Max &Charge Time
CHARGECURRENT	QUANT	2.80000E-004	&Charge Current (A) 
VOLTAGEFINISH	TWOPARAM	F	1.00000E-003	3.60000E+003	&Voltage Finish	 I (A) < 	Max Time(s)
SAMPLETIME	QUANT	1.00000E-002	Sa&mple Period (s)
CHARGESTOPAT1	MULTIPARAM	4	1.00000E+000	Charge Stop At &1	Voltage > Limit	V
CHARGESTOPAT2	MULTIPARAM	0	0.00000E+000	Charge Stop At &2	None	N/A
AESBHCSELECTOR	TOGGLE	F	Save Both Half Cells
IRCOMP	TOGGLE	F	IR &Measure
EOC	QUANT	0	Open Circuit (V)
SEQUENCER	TOGGLE	TRUE	Run as Sequence
PSTATMODEL	IQUANT	53	Pstat Model
PSTATSECTION	LABEL	IFC5000-01520	Pstat Section
PSTATSERIALNO	LABEL	01520	Pstat Serial Number
CTRLMODE	IQUANT	0	Control Mode
ELECTROMETER	IQUANT	1	RE=0 or CS=1
IESTAB	IQUANT	0	I/E Stability
CASPEED	IQUANT	4	Control Amp Speed
CONVENTION	IQUANT	1	Current Convention
ICHRANGE	IQUANT	2	Ich Range
ICHRANGEMODE	TOGGLE	T	Ich Auto Range
ICHOFFSETENABLE	TOGGLE	F	Ich Offset Enable
ICHOFFSET	QUANT	0	Ich Offset (V)
ICHFILTER	IQUANT	1	Ich Filter
VCHRANGE	IQUANT	2	Vch Range
VCHRANGEMODE	TOGGLE	T	Vch Auto Range
VCHOFFSETENABLE	TOGGLE	F	Vch Offset Enable
VCHOFFSET	QUANT	0	Vch Offset (V)
VCHFILTER	IQUANT	1	Vch Filter
IERANGELOWERLIMIT	IQUANT	9	I/E Range Lower Limit
IERANGEMODE	TOGGLE	F	I/E AutoRange
IERANGE	IQUANT	9	I/E Range
ACHSELECT	IQUANT	1	Ach Select
ACHRANGE	IQUANT	2	Ach Range
ACHOFFSETENABLE	TOGGLE	F	Ach Offset Enable
ACHOFFSET	QUANT	0	Ach Offset (V)
ACHFILTER	IQUANT	1	Ach Filter
CABLEID	IQUANT	14	Cable ID
DCCALDATE	LABEL	5-7-2017	DC Calibration Date
ACCALDATE	LABEL	12/3/2015	AC Calibration Date
FRAMEWORKVERSION	QUANT	7.01	Framework Version
INSTRUMENTVERSION	LABEL	4.00	Instrument Version
CURVE	TABLE	58
	Pt	T	Vf	Im	Vu	Pwr	Sig	Ach	Temp	IERange	Over
	#	s	V	A	V	W	V	V	deg C	#	bits
	0	0.013333	6.08794E-001	2.81984E-004	0.00000E+000	1.71670E-004	1.68088E-001	6.09015E-001	3.57880E+000	9	...........
	1	0.026667	6.39472E-001	2.80922E-004	0.00000E+000	1.79642E-004	1.68088E-001	6.39723E-001	3.57880E+000	9	...........
	2	0.04	6.65959E-001	2.80963E-004	0.00000E+000	1.87110E-004	1.68088E-001	6.66190E-001	3.57880E+000	9	...........
	3	0.053333	6.89314E-001	2.81197E-004	0.00000E+000	1.93833E-004	1.68088E-001	6.89564E-001	3.57880E+000	9	...........
	4	0.066667	7.10215E-001	2.81685E-004	0.00000E+000	2.00057E-004	1.68088E-001	7.10460E-001	3.57880E+000	9	...........
	5	0.08	7.29105E-001	2.80552E-004	0.00000E+000	2.04552E-004	1.68088E-001	7.29325E-001	3.57880E+000	9	...........
	6	0.093333	7.46301E-001	2.81397E-004	0.00000E+000	2.10007E-004	1.68088E-001	7.46545E-001	3.57880E+000	9	...........
	7	0.106667	7.62107E-001	2.80893E-004	0.00000E+000	2.14070E-004	1.68088E-001	7.62359E-001	3.57880E+000	9	...........
	8	0.12	7.76670E-001	2.80319E-004	0.00000E+000	2.17715E-004	1.68088E-001	7.76911E-001	3.57880E+000	9	...........
	9	0.133333	7.90082E-001	2.80764E-004	0.00000E+000	2.21826E-004	1.68088E-001	7.90349E-001	3.57880E+000	9	...........
	10	0.146667	8.02491E-001	2.81934E-004	0.00000E+000	2.26249E-004	1.68088E-001	8.02766E-001	3.57880E+000	9	...........
	11	0.16	8.14000E-001	2.80892E-004	0.00000E+000	2.28646E-004	1.68088E-001	8.14272E-001	3.57880E+000	9	...........
	12	0.173333	8.24713E-001	2.81686E-004	0.00000E+000	2.32310E-004	1.68088E-001	8.25008E-001	3.57880E+000	9	...........
	13	0.186667	8.34665E-001	2.81897E-004	0.00000E+000	2.35290E-004	1.68088E-001	8.34980E-001	3.57880E+000	9	...........
	14	0.2	8.43970E-001	2.81722E-004	0.00000E+000	2.37765E-004	1.68088E-001	8.44281E-001	3.57880E+000	9	...........
	15	0.213333	8.52689E-001	2.81627E-004	0.00000E+000	2.40141E-004	1.68088E-001	8.53004E-001	3.57880E+000	9	...........
	16	0.226667	8.60831E-001	2.81498E-004	0.00000E+000	2.42322E-004	1.68088E-001	8.61168E-001	3.57880E+000	9	...........
	17	0.24	8.68494E-001	2.79354E-004	0.00000E+000	2.42617E-004	1.68088E-001	8.68821E-001	3.57880E+000	9	...........
	18	0.253333	8.75688E-001	2.81585E-004	0.00000E+000	2.46580E-004	1.68088E-001	8.76009E-001	3.57880E+000	9	...........
	19	0.266667	8.82443E-001	2.80542E-004	0.00000E+000	2.47562E-004	1.68088E-001	8.82806E-001	3.57880E+000	9	...........
	20	0.28	8.88812E-001	2.80534E-004	0.00000E+000	2.49343E-004	1.68088E-001	8.89127E-001	3.57880E+000	9	...........
	21	0.293333	8.94765E-001	2.81540E-004	0.00000E+000	2.51912E-004	1.68088E-001	8.95114E-001	3.57880E+000	9	...........
	22	0.306667	9.00428E-001	2.80825E-004	0.00000E+000	2.52863E-004	1.68088E-001	9.00758E-001	3.57880E+000	9	...........
	23	0.32	9.05764E-001	2.80723E-004	0.00000E+000	2.54269E-004	1.68088E-001	9.06093E-001	3.57880E+000	9	...........
	24	0.333333	9.10861E-001	2.80092E-004	0.00000E+000	2.55124E-004	1.68088E-001	9.11154E-001	3.57880E+000	9	...........
	25	0.346667	9.15635E-001	2.81063E-004	0.00000E+000	2.57351E-004	1.68088E-001	9.15963E-001	3.57880E+000	9	...........
	26	0.36	9.20258E-001	2.81714E-004	0.00000E+000	2.59249E-004	1.68088E-001	9.20568E-001	3.57880E+000	9	...........
	27	0.373333	9.24611E-001	2.82111E-004	0.00000E+000	2.60843E-004	1.68088E-001	9.24913E-001	3.57880E+000	9	...........
	28	0.386667	9.28751E-001	2.82029E-004	0.00000E+000	2.61934E-004	1.68088E-001	9.29034E-001	3.57880E+000	9	...........
	29	0.4	9.32664E-001	2.79860E-004	0.00000E+000	2.61016E-004	1.68088E-001	9.32955E-001	3.57880E+000	9	...........
	30	0.413333	9.36386E-001	2.81896E-004	0.00000E+000	2.63964E-004	1.68088E-001	9.36703E-001	3.57880E+000	9	...........
	31	0.426667	9.39968E-001	2.81054E-004	0.00000E+000	2.64182E-004	1.68088E-001	9.40276E-001	3.57880E+000	9	...........
	32	0.44	9.43406E-001	2.81130E-004	0.00000E+000	2.65220E-004	1.68088E-001	9.43726E-001	3.57880E+000	9	...........
	33	0.453333	9.46725E-001	2.81040E-004	0.00000E+000	2.66067E-004	1.68088E-001	9.47071E-001	3.57880E+000	9	...........
	34	0.466667	9.49886E-001	2.80720E-004	0.00000E+000	2.66652E-004	1.68088E-001	9.50225E-001	3.57880E+000	9	...........
	35	0.48	9.52962E-001	2.80274E-004	0.00000E+000	2.67091E-004	1.68088E-001	9.53285E-001	3.57880E+000	9	...........
	36	0.493333	9.55881E-001	2.80976E-004	0.00000E+000	2.68580E-004	1.68088E-001	9.56228E-001	3.57880E+000	9	...........
	37	0.506667	9.58692E-001	2.81142E-004	0.00000E+000	2.69528E-004	1.68088E-001	9.59026E-001	3.57880E+000	9	...........
	38	0.52	9.61414E-001	2.80534E-004	0.00000E+000	2.69710E-004	1.68088E-001	9.61766E-001	3.57880E+000	9	...........
	39	0.533333	9.64054E-001	2.80657E-004	0.00000E+000	2.70569E-004	1.68088E-001	9.64394E-001	3.57880E+000	9	...........
	40	0.546667	9.66562E-001	2.81296E-004	0.00000E+000	2.71890E-004	1.68088E-001	9.66923E-001	3.57880E+000	9	...........
	41	0.56	9.68992E-001	2.80708E-004	0.00000E+000	2.72004E-004	1.68088E-001	9.69360E-001	3.57880E+000	9	...........
	42	0.573333	9.71358E-001	2.81249E-004	0.00000E+000	2.73194E-004	1.68088E-001	9.71765E-001	3.57880E+000	9	...........
	43	0.586667	9.73720E-001	2.79875E-004	0.00000E+000	2.72520E-004	1.68088E-001	9.74051E-001	3.57880E+000	9	...........
	44	0.6	9.75956E-001	2.80004E-004	0.00000E+000	2.73272E-004	1.68088E-001	9.76295E-001	3.57866E+000	9	...........
	45	0.613333	9.78093E-001	2.82287E-004	0.00000E+000	2.76103E-004	1.68088E-001	9.78464E-001	3.57810E+000	9	...........
	46	0.626667	9.80226E-001	2.80929E-004	0.00000E+000	2.75374E-004	1.68088E-001	9.80556E-001	3.57810E+000	9	...........
	47	0.64	9.82252E-001	2.80470E-004	0.00000E+000	2.75492E-004	1.68088E-001	9.82617E-001	3.57810E+000	9	...........
	48	0.653333	9.84243E-001	2.81127E-004	0.00000E+000	2.76698E-004	1.68088E-001	9.84634E-001	3.57810E+000	9	...........
	49	0.666667	9.86223E-001	2.81259E-004	0.00000E+000	2.77384E-004	1.68088E-001	9.86601E-001	3.57810E+000	9	...........
	50	0.68	9.88142E-001	2.81354E-004	0.00000E+000	2.78018E-004	1.68088E-001	9.88510E-001	3.57810E+000	9	...........
	51	0.693333	9.89991E-001	2.80970E-004	0.00000E+000	2.78158E-004	1.68088E-001	9.90347E-001	3.57810E+000	9	...........
	52	0.706667	9.91779E-001	2.81460E-004	0.00000E+000	2.79146E-004	1.68088E-001	9.92156E-001	3.57810E+000	9	...........
	53	0.72	9.93547E-001	2.81350E-004	0.00000E+000	2.79535E-004	1.68088E-001	9.93942E-001	3.57810E+000	9	...........
	54	0.733333	9.95294E-001	2.82128E-004	0.00000E+000	2.80800E-004	1.68088E-001	9.95674E-001	3.57810E+000	9	...........
	55	0.746667	9.96982E-001	2.79909E-004	0.00000E+000	2.79065E-004	1.68088E-001	9.97386E-001	3.57810E+000	9	...........
	56	0.76	9.98707E-001	2.81548E-004	0.00000E+000	2.81184E-004	1.68088E-001	9.99067E-001	3.57810E+000	9	...........
	57	0.765	9.99843E-001	2.82147E-004	0.00000E+000	2.82103E-004	1.68088E-001	1.00018E+000	3.57810E+000	9	...........
STARTTIMEOFFSET	QUANT	2047.605	Start Time Offset (s)
