EXPLAIN
TAG	PWR800_CHARGE
TITLE	LABEL	PWR Cyclic Charge Discharge (Cell) - Charge Step	Test &Identifier
DATE	LABEL	7-7-2017	Date
TIME	LABEL	16:01:24	Time
NOTES	NOTES	3	&Notes...
	supercap test cell
	2.8mg
	6M KOH
PSTAT	PSTAT	IFC5000-01520	Potentiostat
CAPACITY	QUANT	1.00000E-003	Capacity (A-hr)
CELLTYPE	SELECTOR	1	&Cell Type
WORKINGCONNECTION	SELECTOR	0	&Working Lead
MAXCHARGETIME	VARIABLEANDUNITS	1.00000E+002	s	1.00000E+002	second(s)	Max &Charge Time
CHARGECURRENT	QUANT	2.80000E-004	&Charge Current (A) 
VOLTAGEFINISH	TWOPARAM	F	1.00000E-003	3.60000E+003	&Voltage Finish	 I (A) < 	Max Time(s)
SAMPLETIME	QUANT	1.00000E-002	Sa&mple Period (s)
CHARGESTOPAT1	MULTIPARAM	4	1.00000E+000	Charge Stop At &1	Voltage > Limit	V
CHARGESTOPAT2	MULTIPARAM	0	0.00000E+000	Charge Stop At &2	None	N/A
AESBHCSELECTOR	TOGGLE	F	Save Both Half Cells
IRCOMP	TOGGLE	F	IR &Measure
EOC	QUANT	0	Open Circuit (V)
SEQUENCER	TOGGLE	TRUE	Run as Sequence
PSTATMODEL	IQUANT	53	Pstat Model
PSTATSECTION	LABEL	IFC5000-01520	Pstat Section
PSTATSERIALNO	LABEL	01520	Pstat Serial Number
CTRLMODE	IQUANT	0	Control Mode
ELECTROMETER	IQUANT	1	RE=0 or CS=1
IESTAB	IQUANT	0	I/E Stability
CASPEED	IQUANT	4	Control Amp Speed
CONVENTION	IQUANT	1	Current Convention
ICHRANGE	IQUANT	2	Ich Range
ICHRANGEMODE	TOGGLE	T	Ich Auto Range
ICHOFFSETENABLE	TOGGLE	F	Ich Offset Enable
ICHOFFSET	QUANT	0	Ich Offset (V)
ICHFILTER	IQUANT	1	Ich Filter
VCHRANGE	IQUANT	2	Vch Range
VCHRANGEMODE	TOGGLE	T	Vch Auto Range
VCHOFFSETENABLE	TOGGLE	F	Vch Offset Enable
VCHOFFSET	QUANT	0	Vch Offset (V)
VCHFILTER	IQUANT	1	Vch Filter
IERANGELOWERLIMIT	IQUANT	9	I/E Range Lower Limit
IERANGEMODE	TOGGLE	F	I/E AutoRange
IERANGE	IQUANT	9	I/E Range
ACHSELECT	IQUANT	1	Ach Select
ACHRANGE	IQUANT	2	Ach Range
ACHOFFSETENABLE	TOGGLE	F	Ach Offset Enable
ACHOFFSET	QUANT	0	Ach Offset (V)
ACHFILTER	IQUANT	1	Ach Filter
CABLEID	IQUANT	14	Cable ID
DCCALDATE	LABEL	5-7-2017	DC Calibration Date
ACCALDATE	LABEL	12/3/2015	AC Calibration Date
FRAMEWORKVERSION	QUANT	7.01	Framework Version
INSTRUMENTVERSION	LABEL	4.00	Instrument Version
CURVE	TABLE	78
	Pt	T	Vf	Im	Vu	Pwr	Sig	Ach	Temp	IERange	Over
	#	s	V	A	V	W	V	V	deg C	#	bits
	0	0.013333	6.01946E-001	2.81541E-004	0.00000E+000	1.69473E-004	1.68088E-001	6.02233E-001	3.57780E+000	9	...........
	1	0.026667	6.31217E-001	2.80988E-004	0.00000E+000	1.77364E-004	1.68088E-001	6.31478E-001	3.57780E+000	9	...........
	2	0.04	6.56194E-001	2.81087E-004	0.00000E+000	1.84447E-004	1.68088E-001	6.56466E-001	3.57780E+000	9	...........
	3	0.053333	6.78001E-001	2.81053E-004	0.00000E+000	1.90554E-004	1.68088E-001	6.78274E-001	3.57780E+000	9	...........
	4	0.066667	6.97345E-001	2.80406E-004	0.00000E+000	1.95540E-004	1.68088E-001	6.97599E-001	3.57780E+000	9	...........
	5	0.08	7.14764E-001	2.81216E-004	0.00000E+000	2.01003E-004	1.68088E-001	7.15041E-001	3.57780E+000	9	...........
	6	0.093333	7.30570E-001	2.81336E-004	0.00000E+000	2.05535E-004	1.68088E-001	7.30845E-001	3.57780E+000	9	...........
	7	0.106667	7.45026E-001	2.81220E-004	0.00000E+000	2.09516E-004	1.68088E-001	7.45294E-001	3.57780E+000	9	...........
	8	0.12	7.58245E-001	2.80590E-004	0.00000E+000	2.12756E-004	1.68088E-001	7.58540E-001	3.57780E+000	9	...........
	9	0.133333	7.70467E-001	2.82779E-004	0.00000E+000	2.17872E-004	1.68088E-001	7.70756E-001	3.57780E+000	9	...........
	10	0.146667	7.81763E-001	2.80799E-004	0.00000E+000	2.19518E-004	1.68088E-001	7.82065E-001	3.57780E+000	9	...........
	11	0.16	7.92265E-001	2.81790E-004	0.00000E+000	2.23252E-004	1.68088E-001	7.92574E-001	3.57780E+000	9	...........
	12	0.173333	8.02048E-001	2.81642E-004	0.00000E+000	2.25890E-004	1.68088E-001	8.02365E-001	3.57780E+000	9	...........
	13	0.186667	8.11134E-001	2.80600E-004	0.00000E+000	2.27604E-004	1.68088E-001	8.11477E-001	3.57780E+000	9	...........
	14	0.2	8.19687E-001	2.81376E-004	0.00000E+000	2.30640E-004	1.68088E-001	8.20040E-001	3.57780E+000	9	...........
	15	0.213333	8.27685E-001	2.80826E-004	0.00000E+000	2.32436E-004	1.68088E-001	8.28040E-001	3.57780E+000	9	...........
	16	0.226667	8.35210E-001	2.80873E-004	0.00000E+000	2.34588E-004	1.68088E-001	8.35585E-001	3.57780E+000	9	...........
	17	0.24	8.42288E-001	2.81455E-004	0.00000E+000	2.37067E-004	1.68088E-001	8.42681E-001	3.57780E+000	9	...........
	18	0.253333	8.48945E-001	2.81072E-004	0.00000E+000	2.38615E-004	1.68088E-001	8.49336E-001	3.57780E+000	9	...........
	19	0.266667	8.55224E-001	2.81756E-004	0.00000E+000	2.40964E-004	1.68088E-001	8.55597E-001	3.57780E+000	9	...........
	20	0.28	8.61201E-001	2.81267E-004	0.00000E+000	2.42227E-004	1.68088E-001	8.61581E-001	3.57780E+000	9	...........
	21	0.293333	8.66832E-001	2.81138E-004	0.00000E+000	2.43699E-004	1.68088E-001	8.67223E-001	3.57780E+000	9	...........
	22	0.306667	8.72150E-001	2.82402E-004	0.00000E+000	2.46297E-004	1.68088E-001	8.72541E-001	3.57780E+000	9	...........
	23	0.32	8.77218E-001	2.81430E-004	0.00000E+000	2.46876E-004	1.68088E-001	8.77601E-001	3.57780E+000	9	...........
	24	0.333333	8.82051E-001	2.80016E-004	0.00000E+000	2.46988E-004	1.68088E-001	8.82427E-001	3.57780E+000	9	...........
	25	0.346667	8.86638E-001	2.81812E-004	0.00000E+000	2.49865E-004	1.68088E-001	8.87024E-001	3.57780E+000	9	...........
	26	0.36	8.91010E-001	2.80476E-004	0.00000E+000	2.49907E-004	1.68088E-001	8.91377E-001	3.57780E+000	9	...........
	27	0.373333	8.95185E-001	2.80969E-004	0.00000E+000	2.51519E-004	1.68088E-001	8.95592E-001	3.57780E+000	9	...........
	28	0.386667	8.99184E-001	2.81136E-004	0.00000E+000	2.52793E-004	1.68088E-001	8.99592E-001	3.57780E+000	9	...........
	29	0.4	9.03010E-001	2.81210E-004	0.00000E+000	2.53935E-004	1.68088E-001	9.03405E-001	3.57780E+000	9	...........
	30	0.413333	9.06655E-001	2.81380E-004	0.00000E+000	2.55115E-004	1.68088E-001	9.07060E-001	3.57780E+000	9	...........
	31	0.426667	9.10172E-001	2.81130E-004	0.00000E+000	2.55877E-004	1.68088E-001	9.10557E-001	3.57780E+000	9	...........
	32	0.44	9.13534E-001	2.82188E-004	0.00000E+000	2.57788E-004	1.68088E-001	9.13908E-001	3.57780E+000	9	...........
	33	0.453333	9.16782E-001	2.82289E-004	0.00000E+000	2.58797E-004	1.68088E-001	9.17170E-001	3.57780E+000	9	...........
	34	0.466667	9.19978E-001	2.81737E-004	0.00000E+000	2.59192E-004	1.68088E-001	9.20318E-001	3.57780E+000	9	...........
	35	0.48	9.23026E-001	2.81201E-004	0.00000E+000	2.59556E-004	1.68088E-001	9.23372E-001	3.57780E+000	9	...........
	36	0.493333	9.25942E-001	2.82019E-004	0.00000E+000	2.61133E-004	1.68088E-001	9.26277E-001	3.57780E+000	9	...........
	37	0.506667	9.28742E-001	2.81401E-004	0.00000E+000	2.61349E-004	1.68088E-001	9.29090E-001	3.57780E+000	9	...........
	38	0.52	9.31457E-001	2.81174E-004	0.00000E+000	2.61902E-004	1.68088E-001	9.31794E-001	3.57780E+000	9	...........
	39	0.533333	9.34077E-001	2.81366E-004	0.00000E+000	2.62817E-004	1.68088E-001	9.34429E-001	3.57780E+000	9	...........
	40	0.546667	9.36625E-001	2.82172E-004	0.00000E+000	2.64290E-004	1.68088E-001	9.36964E-001	3.57780E+000	9	...........
	41	0.56	9.39110E-001	2.80750E-004	0.00000E+000	2.63655E-004	1.68088E-001	9.39439E-001	3.57780E+000	9	...........
	42	0.573333	9.41537E-001	2.81472E-004	0.00000E+000	2.65016E-004	1.68088E-001	9.41866E-001	3.57780E+000	9	...........
	43	0.586667	9.43867E-001	2.79481E-004	0.00000E+000	2.63793E-004	1.68088E-001	9.44190E-001	3.57780E+000	9	...........
	44	0.6	9.46186E-001	2.81201E-004	0.00000E+000	2.66069E-004	1.68088E-001	9.46533E-001	3.57780E+000	9	...........
	45	0.613333	9.48408E-001	2.81467E-004	0.00000E+000	2.66946E-004	1.68088E-001	9.48779E-001	3.57780E+000	9	...........
	46	0.626667	9.50554E-001	2.81544E-004	0.00000E+000	2.67623E-004	1.68088E-001	9.50910E-001	3.57780E+000	9	...........
	47	0.64	9.52652E-001	2.81018E-004	0.00000E+000	2.67712E-004	1.68088E-001	9.53035E-001	3.57780E+000	9	...........
	48	0.653333	9.54731E-001	2.80166E-004	0.00000E+000	2.67483E-004	1.68088E-001	9.55079E-001	3.57780E+000	9	...........
	49	0.666667	9.56729E-001	2.80502E-004	0.00000E+000	2.68364E-004	1.68088E-001	9.57091E-001	3.57780E+000	9	...........
	50	0.68	9.58683E-001	2.80685E-004	0.00000E+000	2.69088E-004	1.68088E-001	9.59066E-001	3.57780E+000	9	...........
	51	0.693333	9.60580E-001	2.80565E-004	0.00000E+000	2.69505E-004	1.68088E-001	9.60956E-001	3.57780E+000	9	...........
	52	0.706667	9.62451E-001	2.81069E-004	0.00000E+000	2.70515E-004	1.68088E-001	9.62840E-001	3.57780E+000	9	...........
	53	0.72	9.64322E-001	2.80832E-004	0.00000E+000	2.70813E-004	1.68088E-001	9.64711E-001	3.57780E+000	9	...........
	54	0.733333	9.66107E-001	2.82192E-004	0.00000E+000	2.72628E-004	1.68088E-001	9.66469E-001	3.57780E+000	9	...........
	55	0.746667	9.67823E-001	2.80835E-004	0.00000E+000	2.71798E-004	1.68088E-001	9.68203E-001	3.57780E+000	9	...........
	56	0.76	9.69540E-001	2.81338E-004	0.00000E+000	2.72768E-004	1.68088E-001	9.69920E-001	3.57780E+000	9	...........
	57	0.773333	9.71225E-001	2.81435E-004	0.00000E+000	2.73336E-004	1.68088E-001	9.71654E-001	3.57780E+000	9	...........
	58	0.786667	9.72965E-001	2.80143E-004	0.00000E+000	2.72569E-004	1.68088E-001	9.73335E-001	3.57780E+000	9	...........
	59	0.8	9.74609E-001	2.80872E-004	0.00000E+000	2.73740E-004	1.68088E-001	9.74963E-001	3.57780E+000	9	...........
	60	0.813333	9.76218E-001	2.80726E-004	0.00000E+000	2.74050E-004	1.68088E-001	9.76581E-001	3.57780E+000	9	...........
	61	0.826667	9.77794E-001	2.81778E-004	0.00000E+000	2.75521E-004	1.68088E-001	9.78164E-001	3.57780E+000	9	...........
	62	0.84	9.79361E-001	2.81732E-004	0.00000E+000	2.75917E-004	1.68088E-001	9.79726E-001	3.57780E+000	9	...........
	63	0.853333	9.80903E-001	2.80475E-004	0.00000E+000	2.75119E-004	1.68088E-001	9.81264E-001	3.57780E+000	9	...........
	64	0.866667	9.82407E-001	2.80190E-004	0.00000E+000	2.75260E-004	1.68088E-001	9.82759E-001	3.57780E+000	9	...........
	65	0.88	9.83881E-001	2.81866E-004	0.00000E+000	2.77323E-004	1.68088E-001	9.84241E-001	3.57780E+000	9	...........
	66	0.893333	9.85329E-001	2.81051E-004	0.00000E+000	2.76928E-004	1.68088E-001	9.85674E-001	3.57780E+000	9	...........
	67	0.906667	9.86749E-001	2.81318E-004	0.00000E+000	2.77590E-004	1.68088E-001	9.87094E-001	3.57780E+000	9	...........
	68	0.92	9.88160E-001	2.81079E-004	0.00000E+000	2.77752E-004	1.68088E-001	9.88505E-001	3.57780E+000	9	...........
	69	0.933333	9.89568E-001	2.81703E-004	0.00000E+000	2.78765E-004	1.68088E-001	9.89909E-001	3.57780E+000	9	...........
	70	0.946667	9.90936E-001	2.82639E-004	0.00000E+000	2.80077E-004	1.68088E-001	9.91259E-001	3.57787E+000	9	...........
	71	0.96	9.92236E-001	2.80946E-004	0.00000E+000	2.78765E-004	1.68088E-001	9.92612E-001	3.57890E+000	9	...........
	72	0.97333	9.93557E-001	2.81347E-004	0.00000E+000	2.79535E-004	1.68088E-001	9.93935E-001	3.57890E+000	9	...........
	73	0.98667	9.94840E-001	2.80772E-004	0.00000E+000	2.79323E-004	1.68088E-001	9.95205E-001	3.57890E+000	9	...........
	74	1	9.96130E-001	2.81457E-004	0.00000E+000	2.80367E-004	1.68088E-001	9.96485E-001	3.57890E+000	9	...........
	75	1.01333	9.97374E-001	2.81205E-004	0.00000E+000	2.80467E-004	1.68088E-001	9.97764E-001	3.57890E+000	9	...........
	76	1.02667	9.98624E-001	2.82168E-004	0.00000E+000	2.81780E-004	1.68088E-001	9.98997E-001	3.57890E+000	9	...........
	77	1.03667	9.99686E-001	2.81320E-004	0.00000E+000	2.81232E-004	1.68088E-001	1.00008E+000	3.57890E+000	9	...........
STARTTIMEOFFSET	QUANT	1168.27	Start Time Offset (s)
