EXPLAIN
TAG	PWR800_CHARGE
TITLE	LABEL	PWR Cyclic Charge Discharge (Cell) - Charge Step	Test &Identifier
DATE	LABEL	7-7-2017	Date
TIME	LABEL	16:01:29	Time
NOTES	NOTES	3	&Notes...
	supercap test cell
	2.8mg
	6M KOH
PSTAT	PSTAT	IFC5000-01520	Potentiostat
CAPACITY	QUANT	1.00000E-003	Capacity (A-hr)
CELLTYPE	SELECTOR	1	&Cell Type
WORKINGCONNECTION	SELECTOR	0	&Working Lead
MAXCHARGETIME	VARIABLEANDUNITS	1.00000E+002	s	1.00000E+002	second(s)	Max &Charge Time
CHARGECURRENT	QUANT	2.80000E-004	&Charge Current (A) 
VOLTAGEFINISH	TWOPARAM	F	1.00000E-003	3.60000E+003	&Voltage Finish	 I (A) < 	Max Time(s)
SAMPLETIME	QUANT	1.00000E-002	Sa&mple Period (s)
CHARGESTOPAT1	MULTIPARAM	4	1.00000E+000	Charge Stop At &1	Voltage > Limit	V
CHARGESTOPAT2	MULTIPARAM	0	0.00000E+000	Charge Stop At &2	None	N/A
AESBHCSELECTOR	TOGGLE	F	Save Both Half Cells
IRCOMP	TOGGLE	F	IR &Measure
EOC	QUANT	0	Open Circuit (V)
SEQUENCER	TOGGLE	TRUE	Run as Sequence
PSTATMODEL	IQUANT	53	Pstat Model
PSTATSECTION	LABEL	IFC5000-01520	Pstat Section
PSTATSERIALNO	LABEL	01520	Pstat Serial Number
CTRLMODE	IQUANT	0	Control Mode
ELECTROMETER	IQUANT	1	RE=0 or CS=1
IESTAB	IQUANT	0	I/E Stability
CASPEED	IQUANT	4	Control Amp Speed
CONVENTION	IQUANT	1	Current Convention
ICHRANGE	IQUANT	2	Ich Range
ICHRANGEMODE	TOGGLE	T	Ich Auto Range
ICHOFFSETENABLE	TOGGLE	F	Ich Offset Enable
ICHOFFSET	QUANT	0	Ich Offset (V)
ICHFILTER	IQUANT	1	Ich Filter
VCHRANGE	IQUANT	2	Vch Range
VCHRANGEMODE	TOGGLE	T	Vch Auto Range
VCHOFFSETENABLE	TOGGLE	F	Vch Offset Enable
VCHOFFSET	QUANT	0	Vch Offset (V)
VCHFILTER	IQUANT	1	Vch Filter
IERANGELOWERLIMIT	IQUANT	9	I/E Range Lower Limit
IERANGEMODE	TOGGLE	F	I/E AutoRange
IERANGE	IQUANT	9	I/E Range
ACHSELECT	IQUANT	1	Ach Select
ACHRANGE	IQUANT	2	Ach Range
ACHOFFSETENABLE	TOGGLE	F	Ach Offset Enable
ACHOFFSET	QUANT	0	Ach Offset (V)
ACHFILTER	IQUANT	1	Ach Filter
CABLEID	IQUANT	14	Cable ID
DCCALDATE	LABEL	5-7-2017	DC Calibration Date
ACCALDATE	LABEL	12/3/2015	AC Calibration Date
FRAMEWORKVERSION	QUANT	7.01	Framework Version
INSTRUMENTVERSION	LABEL	4.00	Instrument Version
CURVE	TABLE	78
	Pt	T	Vf	Im	Vu	Pwr	Sig	Ach	Temp	IERange	Over
	#	s	V	A	V	W	V	V	deg C	#	bits
	0	0.013333	6.06453E-001	2.81320E-004	0.00000E+000	1.70607E-004	1.68088E-001	6.06697E-001	3.57890E+000	9	...........
	1	0.026667	6.35523E-001	2.80380E-004	0.00000E+000	1.78188E-004	1.68088E-001	6.35771E-001	3.57890E+000	9	...........
	2	0.04	6.60257E-001	2.80407E-004	0.00000E+000	1.85141E-004	1.68088E-001	6.60507E-001	3.57890E+000	9	...........
	3	0.053333	6.81851E-001	2.80682E-004	0.00000E+000	1.91384E-004	1.68088E-001	6.82115E-001	3.57890E+000	9	...........
	4	0.066667	7.00998E-001	2.80321E-004	0.00000E+000	1.96504E-004	1.68088E-001	7.01274E-001	3.57890E+000	9	...........
	5	0.08	7.18232E-001	2.81209E-004	0.00000E+000	2.01973E-004	1.68088E-001	7.18513E-001	3.57890E+000	9	...........
	6	0.093333	7.33819E-001	2.82067E-004	0.00000E+000	2.06986E-004	1.68088E-001	7.34131E-001	3.57890E+000	9	...........
	7	0.106667	7.48092E-001	2.81932E-004	0.00000E+000	2.10911E-004	1.68088E-001	7.48380E-001	3.57890E+000	9	...........
	8	0.12	7.61181E-001	2.80994E-004	0.00000E+000	2.13887E-004	1.68088E-001	7.61477E-001	3.57890E+000	9	...........
	9	0.133333	7.73227E-001	2.80304E-004	0.00000E+000	2.16739E-004	1.68088E-001	7.73537E-001	3.57890E+000	9	...........
	10	0.146667	7.84381E-001	2.82264E-004	0.00000E+000	2.21403E-004	1.68088E-001	7.84677E-001	3.57890E+000	9	...........
	11	0.16	7.94753E-001	2.81973E-004	0.00000E+000	2.24099E-004	1.68088E-001	7.95034E-001	3.57890E+000	9	...........
	12	0.173333	8.04381E-001	2.80631E-004	0.00000E+000	2.25735E-004	1.68088E-001	8.04692E-001	3.57890E+000	9	...........
	13	0.186667	8.13358E-001	2.81634E-004	0.00000E+000	2.29069E-004	1.68088E-001	8.13675E-001	3.57890E+000	9	...........
	14	0.2	8.21796E-001	2.81186E-004	0.00000E+000	2.31077E-004	1.68088E-001	8.22132E-001	3.57890E+000	9	...........
	15	0.213333	8.29668E-001	2.80988E-004	0.00000E+000	2.33126E-004	1.68088E-001	8.30008E-001	3.57890E+000	9	...........
	16	0.226667	8.37072E-001	2.81211E-004	0.00000E+000	2.35394E-004	1.68088E-001	8.37438E-001	3.57890E+000	9	...........
	17	0.24	8.44057E-001	2.81170E-004	0.00000E+000	2.37324E-004	1.68088E-001	8.44420E-001	3.57890E+000	9	...........
	18	0.253333	8.50638E-001	2.80065E-004	0.00000E+000	2.38234E-004	1.68088E-001	8.50984E-001	3.57890E+000	9	...........
	19	0.266667	8.56816E-001	2.81031E-004	0.00000E+000	2.40792E-004	1.68088E-001	8.57152E-001	3.57890E+000	9	...........
	20	0.28	8.62664E-001	2.81523E-004	0.00000E+000	2.42860E-004	1.68088E-001	8.63019E-001	3.57890E+000	9	...........
	21	0.293333	8.68202E-001	2.80395E-004	0.00000E+000	2.43439E-004	1.68088E-001	8.68564E-001	3.57890E+000	9	...........
	22	0.306667	8.73533E-001	2.80686E-004	0.00000E+000	2.45188E-004	1.68088E-001	8.73867E-001	3.57829E+000	9	...........
	23	0.32	8.78546E-001	2.80716E-004	0.00000E+000	2.46622E-004	1.68088E-001	8.78901E-001	3.57820E+000	9	...........
	24	0.333333	8.83295E-001	2.83332E-004	0.00000E+000	2.50266E-004	1.68088E-001	8.83659E-001	3.57820E+000	9	...........
	25	0.346667	8.87803E-001	2.82429E-004	0.00000E+000	2.50741E-004	1.68088E-001	8.88174E-001	3.57820E+000	9	...........
	26	0.36	8.92124E-001	2.82278E-004	0.00000E+000	2.51826E-004	1.68088E-001	8.92485E-001	3.57820E+000	9	...........
	27	0.373333	8.96250E-001	2.81765E-004	0.00000E+000	2.52532E-004	1.68088E-001	8.96624E-001	3.57820E+000	9	...........
	28	0.386667	9.00190E-001	2.80455E-004	0.00000E+000	2.52463E-004	1.68088E-001	9.00562E-001	3.57820E+000	9	...........
	29	0.4	9.04006E-001	2.81200E-004	0.00000E+000	2.54207E-004	1.68088E-001	9.04390E-001	3.57820E+000	9	...........
	30	0.413333	9.07652E-001	2.81103E-004	0.00000E+000	2.55144E-004	1.68088E-001	9.08025E-001	3.57820E+000	9	...........
	31	0.426667	9.11141E-001	2.80949E-004	0.00000E+000	2.55984E-004	1.68088E-001	9.11475E-001	3.57820E+000	9	...........
	32	0.44	9.14473E-001	2.80542E-004	0.00000E+000	2.56548E-004	1.68088E-001	9.14860E-001	3.57820E+000	9	...........
	33	0.453333	9.17686E-001	2.81534E-004	0.00000E+000	2.58359E-004	1.68088E-001	9.18053E-001	3.57820E+000	9	...........
	34	0.466667	9.20856E-001	2.81047E-004	0.00000E+000	2.58804E-004	1.68088E-001	9.21188E-001	3.57820E+000	9	...........
	35	0.48	9.23893E-001	2.81818E-004	0.00000E+000	2.60370E-004	1.68088E-001	9.24214E-001	3.57820E+000	9	...........
	36	0.493333	9.26819E-001	2.81985E-004	0.00000E+000	2.61349E-004	1.68088E-001	9.27144E-001	3.57820E+000	9	...........
	37	0.506667	9.29621E-001	2.82205E-004	0.00000E+000	2.62343E-004	1.68088E-001	9.29953E-001	3.57820E+000	9	...........
	38	0.52	9.32324E-001	2.81380E-004	0.00000E+000	2.62338E-004	1.68088E-001	9.32660E-001	3.57820E+000	9	...........
	39	0.533333	9.34964E-001	2.80467E-004	0.00000E+000	2.62226E-004	1.68088E-001	9.35314E-001	3.57820E+000	9	...........
	40	0.546667	9.37509E-001	2.80228E-004	0.00000E+000	2.62716E-004	1.68088E-001	9.37851E-001	3.57820E+000	9	...........
	41	0.56	9.39928E-001	2.81237E-004	0.00000E+000	2.64342E-004	1.68088E-001	9.40278E-001	3.57820E+000	9	...........
	42	0.573333	9.42313E-001	2.81720E-004	0.00000E+000	2.65469E-004	1.68088E-001	9.42666E-001	3.57820E+000	9	...........
	43	0.586667	9.44614E-001	2.81230E-004	0.00000E+000	2.65654E-004	1.68088E-001	9.44998E-001	3.57820E+000	9	...........
	44	0.6	9.46908E-001	2.81740E-004	0.00000E+000	2.66782E-004	1.68088E-001	9.47271E-001	3.57820E+000	9	...........
	45	0.613333	9.49112E-001	2.81142E-004	0.00000E+000	2.66835E-004	1.68088E-001	9.49486E-001	3.57820E+000	9	...........
	46	0.626667	9.51282E-001	2.79951E-004	0.00000E+000	2.66312E-004	1.68088E-001	9.51655E-001	3.57820E+000	9	...........
	47	0.64	9.53374E-001	2.81123E-004	0.00000E+000	2.68015E-004	1.68088E-001	9.53740E-001	3.57820E+000	9	...........
	48	0.653333	9.55393E-001	2.81297E-004	0.00000E+000	2.68749E-004	1.68088E-001	9.55765E-001	3.57820E+000	9	...........
	49	0.666667	9.57392E-001	2.82514E-004	0.00000E+000	2.70477E-004	1.68088E-001	9.57741E-001	3.57820E+000	9	...........
	50	0.68	9.59306E-001	2.82081E-004	0.00000E+000	2.70602E-004	1.68088E-001	9.59685E-001	3.57820E+000	9	...........
	51	0.693333	9.61185E-001	2.82002E-004	0.00000E+000	2.71057E-004	1.68088E-001	9.61583E-001	3.57820E+000	9	...........
	52	0.706667	9.63052E-001	2.81577E-004	0.00000E+000	2.71174E-004	1.68088E-001	9.63438E-001	3.57820E+000	9	...........
	53	0.72	9.64884E-001	2.80612E-004	0.00000E+000	2.70758E-004	1.68088E-001	9.65268E-001	3.57820E+000	9	...........
	54	0.733333	9.66665E-001	2.81223E-004	0.00000E+000	2.71849E-004	1.68088E-001	9.67035E-001	3.57820E+000	9	...........
	55	0.746667	9.68381E-001	2.81916E-004	0.00000E+000	2.73002E-004	1.68088E-001	9.68774E-001	3.57820E+000	9	...........
	56	0.76	9.70084E-001	2.81627E-004	0.00000E+000	2.73202E-004	1.68088E-001	9.70500E-001	3.57820E+000	9	...........
	57	0.773333	9.71753E-001	2.80915E-004	0.00000E+000	2.72980E-004	1.68088E-001	9.72205E-001	3.57820E+000	9	...........
	58	0.786667	9.73457E-001	2.80274E-004	0.00000E+000	2.72835E-004	1.68088E-001	9.73854E-001	3.57820E+000	9	...........
	59	0.8	9.75118E-001	2.81471E-004	0.00000E+000	2.74468E-004	1.68088E-001	9.75488E-001	3.57820E+000	9	...........
	60	0.813333	9.76717E-001	2.82240E-004	0.00000E+000	2.75669E-004	1.68088E-001	9.77064E-001	3.57820E+000	9	...........
	61	0.826667	9.78290E-001	2.80925E-004	0.00000E+000	2.74826E-004	1.68088E-001	9.78660E-001	3.57820E+000	9	...........
	62	0.84	9.79822E-001	2.80756E-004	0.00000E+000	2.75091E-004	1.68088E-001	9.80176E-001	3.57820E+000	9	...........
	63	0.853333	9.81339E-001	2.80730E-004	0.00000E+000	2.75492E-004	1.68088E-001	9.81697E-001	3.57820E+000	9	...........
	64	0.866667	9.82856E-001	2.81487E-004	0.00000E+000	2.76661E-004	1.68088E-001	9.83222E-001	3.57820E+000	9	...........
	65	0.88	9.84285E-001	2.80736E-004	0.00000E+000	2.76324E-004	1.68088E-001	9.84682E-001	3.57820E+000	9	...........
	66	0.893333	9.85706E-001	2.81974E-004	0.00000E+000	2.77944E-004	1.68088E-001	9.86105E-001	3.57820E+000	9	...........
	67	0.906667	9.87139E-001	2.81577E-004	0.00000E+000	2.77956E-004	1.68088E-001	9.87541E-001	3.57820E+000	9	...........
	68	0.92	9.88548E-001	2.81413E-004	0.00000E+000	2.78190E-004	1.68088E-001	9.88926E-001	3.57820E+000	9	...........
	69	0.933333	9.89904E-001	2.81715E-004	0.00000E+000	2.78871E-004	1.68088E-001	9.90302E-001	3.57820E+000	9	...........
	70	0.946667	9.91257E-001	2.81130E-004	0.00000E+000	2.78672E-004	1.68088E-001	9.91615E-001	3.57820E+000	9	...........
	71	0.96	9.92547E-001	2.80637E-004	0.00000E+000	2.78545E-004	1.68088E-001	9.92955E-001	3.57820E+000	9	...........
	72	0.97333	9.93885E-001	2.80934E-004	0.00000E+000	2.79216E-004	1.68088E-001	9.94259E-001	3.57820E+000	9	...........
	73	0.98667	9.95201E-001	2.80602E-004	0.00000E+000	2.79255E-004	1.68088E-001	9.95581E-001	3.57820E+000	9	...........
	74	1	9.96495E-001	2.81942E-004	0.00000E+000	2.80954E-004	1.68088E-001	9.96851E-001	3.57820E+000	9	...........
	75	1.01333	9.97758E-001	2.80955E-004	0.00000E+000	2.80325E-004	1.68088E-001	9.98127E-001	3.57820E+000	9	...........
	76	1.02667	9.99023E-001	2.82019E-004	0.00000E+000	2.81744E-004	1.68088E-001	9.99395E-001	3.57820E+000	9	...........
	77	1.03167	9.99853E-001	2.81147E-004	0.00000E+000	2.81105E-004	1.68088E-001	1.00022E+000	3.57820E+000	9	...........
STARTTIMEOFFSET	QUANT	1172.175	Start Time Offset (s)
