EXPLAIN
TAG	PWR800_CHARGE
TITLE	LABEL	PWR Cyclic Charge Discharge (Cell) - Charge Step	Test &Identifier
DATE	LABEL	7-7-2017	Date
TIME	LABEL	16:06:54	Time
NOTES	NOTES	3	&Notes...
	supercap test cell
	2.8mg
	6M KOH
PSTAT	PSTAT	IFC5000-01520	Potentiostat
CAPACITY	QUANT	1.00000E-003	Capacity (A-hr)
CELLTYPE	SELECTOR	1	&Cell Type
WORKINGCONNECTION	SELECTOR	0	&Working Lead
MAXCHARGETIME	VARIABLEANDUNITS	1.00000E+002	s	1.00000E+002	second(s)	Max &Charge Time
CHARGECURRENT	QUANT	2.80000E-004	&Charge Current (A) 
VOLTAGEFINISH	TWOPARAM	F	1.00000E-003	3.60000E+003	&Voltage Finish	 I (A) < 	Max Time(s)
SAMPLETIME	QUANT	1.00000E-002	Sa&mple Period (s)
CHARGESTOPAT1	MULTIPARAM	4	1.00000E+000	Charge Stop At &1	Voltage > Limit	V
CHARGESTOPAT2	MULTIPARAM	0	0.00000E+000	Charge Stop At &2	None	N/A
AESBHCSELECTOR	TOGGLE	F	Save Both Half Cells
IRCOMP	TOGGLE	F	IR &Measure
EOC	QUANT	0	Open Circuit (V)
SEQUENCER	TOGGLE	TRUE	Run as Sequence
PSTATMODEL	IQUANT	53	Pstat Model
PSTATSECTION	LABEL	IFC5000-01520	Pstat Section
PSTATSERIALNO	LABEL	01520	Pstat Serial Number
CTRLMODE	IQUANT	0	Control Mode
ELECTROMETER	IQUANT	1	RE=0 or CS=1
IESTAB	IQUANT	0	I/E Stability
CASPEED	IQUANT	4	Control Amp Speed
CONVENTION	IQUANT	1	Current Convention
ICHRANGE	IQUANT	2	Ich Range
ICHRANGEMODE	TOGGLE	T	Ich Auto Range
ICHOFFSETENABLE	TOGGLE	F	Ich Offset Enable
ICHOFFSET	QUANT	0	Ich Offset (V)
ICHFILTER	IQUANT	1	Ich Filter
VCHRANGE	IQUANT	2	Vch Range
VCHRANGEMODE	TOGGLE	T	Vch Auto Range
VCHOFFSETENABLE	TOGGLE	F	Vch Offset Enable
VCHOFFSET	QUANT	0	Vch Offset (V)
VCHFILTER	IQUANT	1	Vch Filter
IERANGELOWERLIMIT	IQUANT	9	I/E Range Lower Limit
IERANGEMODE	TOGGLE	F	I/E AutoRange
IERANGE	IQUANT	9	I/E Range
ACHSELECT	IQUANT	1	Ach Select
ACHRANGE	IQUANT	2	Ach Range
ACHOFFSETENABLE	TOGGLE	F	Ach Offset Enable
ACHOFFSET	QUANT	0	Ach Offset (V)
ACHFILTER	IQUANT	1	Ach Filter
CABLEID	IQUANT	14	Cable ID
DCCALDATE	LABEL	5-7-2017	DC Calibration Date
ACCALDATE	LABEL	12/3/2015	AC Calibration Date
FRAMEWORKVERSION	QUANT	7.01	Framework Version
INSTRUMENTVERSION	LABEL	4.00	Instrument Version
CURVE	TABLE	72
	Pt	T	Vf	Im	Vu	Pwr	Sig	Ach	Temp	IERange	Over
	#	s	V	A	V	W	V	V	deg C	#	bits
	0	0.013333	5.97759E-001	2.81794E-004	0.00000E+000	1.68445E-004	1.68088E-001	5.98038E-001	3.57930E+000	9	...........
	1	0.026667	6.27901E-001	2.81582E-004	0.00000E+000	1.76805E-004	1.68088E-001	6.28147E-001	3.57930E+000	9	...........
	2	0.04	6.53670E-001	2.80920E-004	0.00000E+000	1.83629E-004	1.68088E-001	6.53937E-001	3.57930E+000	9	...........
	3	0.053333	6.76293E-001	2.81333E-004	0.00000E+000	1.90263E-004	1.68088E-001	6.76548E-001	3.57930E+000	9	...........
	4	0.066667	6.96413E-001	2.80039E-004	0.00000E+000	1.95022E-004	1.68088E-001	6.96664E-001	3.57930E+000	9	...........
	5	0.08	7.14524E-001	2.80293E-004	0.00000E+000	2.00276E-004	1.68088E-001	7.14791E-001	3.57930E+000	9	...........
	6	0.093333	7.30999E-001	2.80565E-004	0.00000E+000	2.05093E-004	1.68088E-001	7.31270E-001	3.57930E+000	9	...........
	7	0.106667	7.46075E-001	2.81222E-004	0.00000E+000	2.09813E-004	1.68088E-001	7.46355E-001	3.57930E+000	9	...........
	8	0.12	7.59902E-001	2.79368E-004	0.00000E+000	2.12292E-004	1.68088E-001	7.60177E-001	3.57930E+000	9	...........
	9	0.133333	7.72663E-001	2.79621E-004	0.00000E+000	2.16053E-004	1.68088E-001	7.72970E-001	3.57930E+000	9	...........
	10	0.146667	7.84513E-001	2.80575E-004	0.00000E+000	2.20115E-004	1.68088E-001	7.84794E-001	3.57930E+000	9	...........
	11	0.16	7.95490E-001	2.80552E-004	0.00000E+000	2.23177E-004	1.68088E-001	7.95790E-001	3.57930E+000	9	...........
	12	0.173333	8.05685E-001	2.80366E-004	0.00000E+000	2.25887E-004	1.68088E-001	8.06028E-001	3.57930E+000	9	...........
	13	0.186667	8.15209E-001	2.81345E-004	0.00000E+000	2.29355E-004	1.68088E-001	8.15548E-001	3.57930E+000	9	...........
	14	0.2	8.24126E-001	2.81468E-004	0.00000E+000	2.31965E-004	1.68088E-001	8.24452E-001	3.57930E+000	9	...........
	15	0.213333	8.32480E-001	2.81134E-004	0.00000E+000	2.34038E-004	1.68088E-001	8.32796E-001	3.57930E+000	9	...........
	16	0.226667	8.40321E-001	2.80604E-004	0.00000E+000	2.35798E-004	1.68088E-001	8.40648E-001	3.57930E+000	9	...........
	17	0.24	8.47708E-001	2.81098E-004	0.00000E+000	2.38289E-004	1.68088E-001	8.48019E-001	3.57930E+000	9	...........
	18	0.253333	8.54634E-001	2.81220E-004	0.00000E+000	2.40340E-004	1.68088E-001	8.54932E-001	3.57930E+000	9	...........
	19	0.266667	8.61176E-001	2.82163E-004	0.00000E+000	2.42992E-004	1.68088E-001	8.61483E-001	3.57930E+000	9	...........
	20	0.28	8.67350E-001	2.80514E-004	0.00000E+000	2.43303E-004	1.68088E-001	8.67649E-001	3.57930E+000	9	...........
	21	0.293333	8.73198E-001	2.82297E-004	0.00000E+000	2.46501E-004	1.68088E-001	8.73521E-001	3.57930E+000	9	...........
	22	0.306667	8.78710E-001	2.79968E-004	0.00000E+000	2.46010E-004	1.68088E-001	8.79007E-001	3.57930E+000	9	...........
	23	0.32	8.83948E-001	2.81565E-004	0.00000E+000	2.48889E-004	1.68088E-001	8.84272E-001	3.57930E+000	9	...........
	24	0.333333	8.88881E-001	2.81268E-004	0.00000E+000	2.50014E-004	1.68088E-001	8.89202E-001	3.57930E+000	9	...........
	25	0.346667	8.93618E-001	2.80817E-004	0.00000E+000	2.50943E-004	1.68088E-001	8.93973E-001	3.57930E+000	9	...........
	26	0.36	8.98123E-001	2.81199E-004	0.00000E+000	2.52552E-004	1.68088E-001	8.98475E-001	3.57930E+000	9	...........
	27	0.373333	9.02411E-001	2.82207E-004	0.00000E+000	2.54666E-004	1.68088E-001	9.02765E-001	3.57930E+000	9	...........
	28	0.386667	9.06490E-001	2.80818E-004	0.00000E+000	2.54559E-004	1.68088E-001	9.06868E-001	3.57930E+000	9	...........
	29	0.4	9.10410E-001	2.80812E-004	0.00000E+000	2.55654E-004	1.68088E-001	9.10780E-001	3.57930E+000	9	...........
	30	0.413333	9.14144E-001	2.82488E-004	0.00000E+000	2.58235E-004	1.68088E-001	9.14537E-001	3.57930E+000	9	...........
	31	0.426667	9.17744E-001	2.82104E-004	0.00000E+000	2.58899E-004	1.68088E-001	9.18128E-001	3.57870E+000	9	...........
	32	0.44	9.21238E-001	2.81258E-004	0.00000E+000	2.59105E-004	1.68088E-001	9.21599E-001	3.57820E+000	9	...........
	33	0.453333	9.24564E-001	2.81368E-004	0.00000E+000	2.60143E-004	1.68088E-001	9.24908E-001	3.57820E+000	9	...........
	34	0.466667	9.27732E-001	2.80685E-004	0.00000E+000	2.60400E-004	1.68088E-001	9.28095E-001	3.57820E+000	9	...........
	35	0.48	9.30789E-001	2.81315E-004	0.00000E+000	2.61845E-004	1.68088E-001	9.31144E-001	3.57820E+000	9	...........
	36	0.493333	9.33738E-001	2.81963E-004	0.00000E+000	2.63279E-004	1.68088E-001	9.34121E-001	3.57820E+000	9	...........
	37	0.506667	9.36593E-001	2.81684E-004	0.00000E+000	2.63823E-004	1.68088E-001	9.36963E-001	3.57820E+000	9	...........
	38	0.52	9.39359E-001	2.81933E-004	0.00000E+000	2.64836E-004	1.68088E-001	9.39728E-001	3.57820E+000	9	...........
	39	0.533333	9.42027E-001	2.80012E-004	0.00000E+000	2.63779E-004	1.68088E-001	9.42394E-001	3.57820E+000	9	...........
	40	0.546667	9.44614E-001	2.81209E-004	0.00000E+000	2.65634E-004	1.68088E-001	9.44979E-001	3.57820E+000	9	...........
	41	0.56	9.47172E-001	2.81549E-004	0.00000E+000	2.66675E-004	1.68088E-001	9.47514E-001	3.57820E+000	9	...........
	42	0.573333	9.49592E-001	2.80935E-004	0.00000E+000	2.66773E-004	1.68088E-001	9.49959E-001	3.57820E+000	9	...........
	43	0.586667	9.51945E-001	2.81470E-004	0.00000E+000	2.67944E-004	1.68088E-001	9.52338E-001	3.57820E+000	9	...........
	44	0.6	9.54260E-001	2.81558E-004	0.00000E+000	2.68679E-004	1.68088E-001	9.54628E-001	3.57820E+000	9	...........
	45	0.613333	9.56491E-001	2.81120E-004	0.00000E+000	2.68889E-004	1.68088E-001	9.56863E-001	3.57820E+000	9	...........
	46	0.626667	9.58681E-001	2.81046E-004	0.00000E+000	2.69433E-004	1.68088E-001	9.59074E-001	3.57820E+000	9	...........
	47	0.64	9.60802E-001	2.83057E-004	0.00000E+000	2.71961E-004	1.68088E-001	9.61199E-001	3.57820E+000	9	...........
	48	0.653333	9.62837E-001	2.81995E-004	0.00000E+000	2.71516E-004	1.68088E-001	9.63254E-001	3.57820E+000	9	...........
	49	0.666667	9.64817E-001	2.81815E-004	0.00000E+000	2.71900E-004	1.68088E-001	9.65213E-001	3.57820E+000	9	...........
	50	0.68	9.66791E-001	2.81317E-004	0.00000E+000	2.71975E-004	1.68088E-001	9.67154E-001	3.57820E+000	9	...........
	51	0.693333	9.68728E-001	2.82388E-004	0.00000E+000	2.73557E-004	1.68088E-001	9.69101E-001	3.57820E+000	9	...........
	52	0.706667	9.70629E-001	2.80873E-004	0.00000E+000	2.72624E-004	1.68088E-001	9.71013E-001	3.57820E+000	9	...........
	53	0.72	9.72466E-001	2.81645E-004	0.00000E+000	2.73890E-004	1.68088E-001	9.72863E-001	3.57820E+000	9	...........
	54	0.733333	9.74258E-001	2.80916E-004	0.00000E+000	2.73684E-004	1.68088E-001	9.74627E-001	3.57820E+000	9	...........
	55	0.746667	9.76043E-001	2.82174E-004	0.00000E+000	2.75414E-004	1.68088E-001	9.76418E-001	3.57820E+000	9	...........
	56	0.76	9.77792E-001	2.80911E-004	0.00000E+000	2.74672E-004	1.68088E-001	9.78166E-001	3.57820E+000	9	...........
	57	0.773333	9.79505E-001	2.80794E-004	0.00000E+000	2.75039E-004	1.68088E-001	9.79850E-001	3.57820E+000	9	...........
	58	0.786667	9.81147E-001	2.81731E-004	0.00000E+000	2.76419E-004	1.68088E-001	9.81494E-001	3.57820E+000	9	...........
	59	0.8	9.82763E-001	2.81827E-004	0.00000E+000	2.76970E-004	1.68088E-001	9.83127E-001	3.57820E+000	9	...........
	60	0.813333	9.84340E-001	2.81003E-004	0.00000E+000	2.76603E-004	1.68088E-001	9.84729E-001	3.57820E+000	9	...........
	61	0.826667	9.85922E-001	2.82405E-004	0.00000E+000	2.78429E-004	1.68088E-001	9.86305E-001	3.57820E+000	9	...........
	62	0.84	9.87454E-001	2.80082E-004	0.00000E+000	2.76568E-004	1.68088E-001	9.87849E-001	3.57820E+000	9	...........
	63	0.853333	9.89024E-001	2.81571E-004	0.00000E+000	2.78481E-004	1.68088E-001	9.89382E-001	3.57820E+000	9	...........
	64	0.866667	9.90543E-001	2.81582E-004	0.00000E+000	2.78919E-004	1.68088E-001	9.90901E-001	3.57820E+000	9	...........
	65	0.88	9.92014E-001	2.80496E-004	0.00000E+000	2.78256E-004	1.68088E-001	9.92386E-001	3.57820E+000	9	...........
	66	0.893333	9.93467E-001	2.81534E-004	0.00000E+000	2.79694E-004	1.68088E-001	9.93849E-001	3.57820E+000	9	...........
	67	0.906667	9.94884E-001	2.81979E-004	0.00000E+000	2.80536E-004	1.68088E-001	9.95249E-001	3.57820E+000	9	...........
	68	0.92	9.96293E-001	2.81471E-004	0.00000E+000	2.80428E-004	1.68088E-001	9.96636E-001	3.57820E+000	9	...........
	69	0.933333	9.97659E-001	2.82020E-004	0.00000E+000	2.81360E-004	1.68088E-001	9.98027E-001	3.57820E+000	9	...........
	70	0.946667	9.99011E-001	2.80904E-004	0.00000E+000	2.80626E-004	1.68088E-001	9.99376E-001	3.57820E+000	9	...........
	71	0.95167	9.99916E-001	2.81386E-004	0.00000E+000	2.81362E-004	1.68088E-001	1.00026E+000	3.57820E+000	9	...........
STARTTIMEOFFSET	QUANT	1398.177	Start Time Offset (s)
