EXPLAIN
TAG	PWR800_CHARGE
TITLE	LABEL	PWR Cyclic Charge Discharge (Cell) - Charge Step	Test &Identifier
DATE	LABEL	7-7-2017	Date
TIME	LABEL	16:05:28	Time
NOTES	NOTES	3	&Notes...
	supercap test cell
	2.8mg
	6M KOH
PSTAT	PSTAT	IFC5000-01520	Potentiostat
CAPACITY	QUANT	1.00000E-003	Capacity (A-hr)
CELLTYPE	SELECTOR	1	&Cell Type
WORKINGCONNECTION	SELECTOR	0	&Working Lead
MAXCHARGETIME	VARIABLEANDUNITS	1.00000E+002	s	1.00000E+002	second(s)	Max &Charge Time
CHARGECURRENT	QUANT	2.80000E-004	&Charge Current (A) 
VOLTAGEFINISH	TWOPARAM	F	1.00000E-003	3.60000E+003	&Voltage Finish	 I (A) < 	Max Time(s)
SAMPLETIME	QUANT	1.00000E-002	Sa&mple Period (s)
CHARGESTOPAT1	MULTIPARAM	4	1.00000E+000	Charge Stop At &1	Voltage > Limit	V
CHARGESTOPAT2	MULTIPARAM	0	0.00000E+000	Charge Stop At &2	None	N/A
AESBHCSELECTOR	TOGGLE	F	Save Both Half Cells
IRCOMP	TOGGLE	F	IR &Measure
EOC	QUANT	0	Open Circuit (V)
SEQUENCER	TOGGLE	TRUE	Run as Sequence
PSTATMODEL	IQUANT	53	Pstat Model
PSTATSECTION	LABEL	IFC5000-01520	Pstat Section
PSTATSERIALNO	LABEL	01520	Pstat Serial Number
CTRLMODE	IQUANT	0	Control Mode
ELECTROMETER	IQUANT	1	RE=0 or CS=1
IESTAB	IQUANT	0	I/E Stability
CASPEED	IQUANT	4	Control Amp Speed
CONVENTION	IQUANT	1	Current Convention
ICHRANGE	IQUANT	2	Ich Range
ICHRANGEMODE	TOGGLE	T	Ich Auto Range
ICHOFFSETENABLE	TOGGLE	F	Ich Offset Enable
ICHOFFSET	QUANT	0	Ich Offset (V)
ICHFILTER	IQUANT	1	Ich Filter
VCHRANGE	IQUANT	2	Vch Range
VCHRANGEMODE	TOGGLE	T	Vch Auto Range
VCHOFFSETENABLE	TOGGLE	F	Vch Offset Enable
VCHOFFSET	QUANT	0	Vch Offset (V)
VCHFILTER	IQUANT	1	Vch Filter
IERANGELOWERLIMIT	IQUANT	9	I/E Range Lower Limit
IERANGEMODE	TOGGLE	F	I/E AutoRange
IERANGE	IQUANT	9	I/E Range
ACHSELECT	IQUANT	1	Ach Select
ACHRANGE	IQUANT	2	Ach Range
ACHOFFSETENABLE	TOGGLE	F	Ach Offset Enable
ACHOFFSET	QUANT	0	Ach Offset (V)
ACHFILTER	IQUANT	1	Ach Filter
CABLEID	IQUANT	14	Cable ID
DCCALDATE	LABEL	5-7-2017	DC Calibration Date
ACCALDATE	LABEL	12/3/2015	AC Calibration Date
FRAMEWORKVERSION	QUANT	7.01	Framework Version
INSTRUMENTVERSION	LABEL	4.00	Instrument Version
CURVE	TABLE	72
	Pt	T	Vf	Im	Vu	Pwr	Sig	Ach	Temp	IERange	Over
	#	s	V	A	V	W	V	V	deg C	#	bits
	0	0.013333	5.99799E-001	2.81520E-004	0.00000E+000	1.68856E-004	1.68088E-001	6.00091E-001	3.57880E+000	9	...........
	1	0.026667	6.29810E-001	2.81009E-004	0.00000E+000	1.76982E-004	1.68088E-001	6.30079E-001	3.57880E+000	9	...........
	2	0.04	6.55429E-001	2.80874E-004	0.00000E+000	1.84093E-004	1.68088E-001	6.55695E-001	3.57880E+000	9	...........
	3	0.053333	6.77841E-001	2.80677E-004	0.00000E+000	1.90254E-004	1.68088E-001	6.78124E-001	3.57880E+000	9	...........
	4	0.066667	6.97818E-001	2.80710E-004	0.00000E+000	1.95884E-004	1.68088E-001	6.98095E-001	3.57880E+000	9	...........
	5	0.08	7.15820E-001	2.79822E-004	0.00000E+000	2.00302E-004	1.68088E-001	7.16075E-001	3.57880E+000	9	...........
	6	0.093333	7.32136E-001	2.81468E-004	0.00000E+000	2.06073E-004	1.68088E-001	7.32411E-001	3.57880E+000	9	...........
	7	0.106667	7.47043E-001	2.81549E-004	0.00000E+000	2.10329E-004	1.68088E-001	7.47322E-001	3.57880E+000	9	...........
	8	0.12	7.60744E-001	2.81243E-004	0.00000E+000	2.13954E-004	1.68088E-001	7.61035E-001	3.57880E+000	9	...........
	9	0.133333	7.73386E-001	2.80267E-004	0.00000E+000	2.16754E-004	1.68088E-001	7.73682E-001	3.57880E+000	9	...........
	10	0.146667	7.85037E-001	2.81974E-004	0.00000E+000	2.21360E-004	1.68088E-001	7.85339E-001	3.57880E+000	9	...........
	11	0.16	7.95917E-001	2.81310E-004	0.00000E+000	2.23899E-004	1.68088E-001	7.96222E-001	3.57880E+000	9	...........
	12	0.173333	8.06052E-001	2.82035E-004	0.00000E+000	2.27335E-004	1.68088E-001	8.06336E-001	3.57880E+000	9	...........
	13	0.186667	8.15454E-001	2.79942E-004	0.00000E+000	2.28280E-004	1.68088E-001	8.15790E-001	3.57880E+000	9	...........
	14	0.2	8.24306E-001	2.80032E-004	0.00000E+000	2.30832E-004	1.68088E-001	8.24633E-001	3.57880E+000	9	...........
	15	0.213333	8.32560E-001	2.82962E-004	0.00000E+000	2.35583E-004	1.68088E-001	8.32895E-001	3.57880E+000	9	...........
	16	0.226667	8.40297E-001	2.81670E-004	0.00000E+000	2.36687E-004	1.68088E-001	8.40651E-001	3.57880E+000	9	...........
	17	0.24	8.47601E-001	2.80688E-004	0.00000E+000	2.37911E-004	1.68088E-001	8.47937E-001	3.57880E+000	9	...........
	18	0.253333	8.54430E-001	2.82012E-004	0.00000E+000	2.40959E-004	1.68088E-001	8.54796E-001	3.57880E+000	9	...........
	19	0.266667	8.60933E-001	2.81665E-004	0.00000E+000	2.42495E-004	1.68088E-001	8.61288E-001	3.57880E+000	9	...........
	20	0.28	8.67029E-001	2.79975E-004	0.00000E+000	2.42747E-004	1.68088E-001	8.67406E-001	3.57880E+000	9	...........
	21	0.293333	8.72870E-001	2.80898E-004	0.00000E+000	2.45188E-004	1.68088E-001	8.73232E-001	3.57880E+000	9	...........
	22	0.306667	8.78379E-001	2.82592E-004	0.00000E+000	2.48223E-004	1.68088E-001	8.78714E-001	3.57880E+000	9	...........
	23	0.32	8.83562E-001	2.81916E-004	0.00000E+000	2.49090E-004	1.68088E-001	8.83933E-001	3.57880E+000	9	...........
	24	0.333333	8.88529E-001	2.81355E-004	0.00000E+000	2.49992E-004	1.68088E-001	8.88873E-001	3.57880E+000	9	...........
	25	0.346667	8.93212E-001	2.80924E-004	0.00000E+000	2.50925E-004	1.68088E-001	8.93584E-001	3.57880E+000	9	...........
	26	0.36	8.97691E-001	2.80781E-004	0.00000E+000	2.52055E-004	1.68088E-001	8.98068E-001	3.57880E+000	9	...........
	27	0.373333	9.01966E-001	2.81068E-004	0.00000E+000	2.53514E-004	1.68088E-001	9.02339E-001	3.57880E+000	9	...........
	28	0.386667	9.06036E-001	2.81752E-004	0.00000E+000	2.55278E-004	1.68088E-001	9.06425E-001	3.57880E+000	9	...........
	29	0.4	9.09952E-001	2.82147E-004	0.00000E+000	2.56740E-004	1.68088E-001	9.10315E-001	3.57880E+000	9	...........
	30	0.413333	9.13649E-001	2.79900E-004	0.00000E+000	2.55730E-004	1.68088E-001	9.14060E-001	3.57880E+000	9	...........
	31	0.426667	9.17230E-001	2.81213E-004	0.00000E+000	2.57937E-004	1.68088E-001	9.17640E-001	3.57880E+000	9	...........
	32	0.44	9.20685E-001	2.80553E-004	0.00000E+000	2.58301E-004	1.68088E-001	9.21088E-001	3.57880E+000	9	...........
	33	0.453333	9.23990E-001	2.79798E-004	0.00000E+000	2.58531E-004	1.68088E-001	9.24355E-001	3.57880E+000	9	...........
	34	0.466667	9.27173E-001	2.80273E-004	0.00000E+000	2.59861E-004	1.68088E-001	9.27533E-001	3.57810E+000	9	...........
	35	0.48	9.30221E-001	2.81471E-004	0.00000E+000	2.61831E-004	1.68088E-001	9.30563E-001	3.57810E+000	9	...........
	36	0.493333	9.33164E-001	2.80619E-004	0.00000E+000	2.61863E-004	1.68088E-001	9.33540E-001	3.57810E+000	9	...........
	37	0.506667	9.36009E-001	2.81146E-004	0.00000E+000	2.63155E-004	1.68088E-001	9.36382E-001	3.57810E+000	9	...........
	38	0.52	9.38781E-001	2.81907E-004	0.00000E+000	2.64649E-004	1.68088E-001	9.39151E-001	3.57810E+000	9	...........
	39	0.533333	9.41454E-001	2.81735E-004	0.00000E+000	2.65240E-004	1.68088E-001	9.41805E-001	3.57810E+000	9	...........
	40	0.546667	9.44008E-001	2.81319E-004	0.00000E+000	2.65567E-004	1.68088E-001	9.44368E-001	3.57810E+000	9	...........
	41	0.56	9.46544E-001	2.81305E-004	0.00000E+000	2.66268E-004	1.68088E-001	9.46905E-001	3.57810E+000	9	...........
	42	0.573333	9.48976E-001	2.80707E-004	0.00000E+000	2.66385E-004	1.68088E-001	9.49331E-001	3.57810E+000	9	...........
	43	0.586667	9.51331E-001	2.81285E-004	0.00000E+000	2.67595E-004	1.68088E-001	9.51705E-001	3.57810E+000	9	...........
	44	0.6	9.53631E-001	2.81875E-004	0.00000E+000	2.68805E-004	1.68088E-001	9.53989E-001	3.57810E+000	9	...........
	45	0.613333	9.55875E-001	2.80957E-004	0.00000E+000	2.68560E-004	1.68088E-001	9.56214E-001	3.57810E+000	9	...........
	46	0.626667	9.58058E-001	2.81081E-004	0.00000E+000	2.69292E-004	1.68088E-001	9.58421E-001	3.57810E+000	9	...........
	47	0.64	9.60181E-001	2.80667E-004	0.00000E+000	2.69491E-004	1.68088E-001	9.60558E-001	3.57810E+000	9	...........
	48	0.653333	9.62261E-001	2.81084E-004	0.00000E+000	2.70476E-004	1.68088E-001	9.62628E-001	3.57810E+000	9	...........
	49	0.666667	9.64252E-001	2.80792E-004	0.00000E+000	2.70754E-004	1.68088E-001	9.64604E-001	3.57810E+000	9	...........
	50	0.68	9.66237E-001	2.82792E-004	0.00000E+000	2.73244E-004	1.68088E-001	9.66546E-001	3.57810E+000	9	...........
	51	0.693333	9.68150E-001	2.81174E-004	0.00000E+000	2.72219E-004	1.68088E-001	9.68453E-001	3.57810E+000	9	...........
	52	0.706667	9.70050E-001	2.79961E-004	0.00000E+000	2.71577E-004	1.68088E-001	9.70329E-001	3.57810E+000	9	...........
	53	0.72	9.71898E-001	2.80558E-004	0.00000E+000	2.72674E-004	1.68088E-001	9.72185E-001	3.57810E+000	9	...........
	54	0.733333	9.73726E-001	2.81621E-004	0.00000E+000	2.74222E-004	1.68088E-001	9.74001E-001	3.57810E+000	9	...........
	55	0.746667	9.75476E-001	2.81535E-004	0.00000E+000	2.74630E-004	1.68088E-001	9.75779E-001	3.57810E+000	9	...........
	56	0.76	9.77171E-001	2.80193E-004	0.00000E+000	2.73796E-004	1.68088E-001	9.77486E-001	3.57810E+000	9	...........
	57	0.773333	9.78879E-001	2.82893E-004	0.00000E+000	2.76918E-004	1.68088E-001	9.79190E-001	3.57810E+000	9	...........
	58	0.786667	9.80499E-001	2.81859E-004	0.00000E+000	2.76362E-004	1.68088E-001	9.80836E-001	3.57810E+000	9	...........
	59	0.8	9.82108E-001	2.80054E-004	0.00000E+000	2.75043E-004	1.68088E-001	9.82444E-001	3.57810E+000	9	...........
	60	0.813333	9.83688E-001	2.80754E-004	0.00000E+000	2.76174E-004	1.68088E-001	9.84042E-001	3.57810E+000	9	...........
	61	0.826667	9.85241E-001	2.81240E-004	0.00000E+000	2.77089E-004	1.68088E-001	9.85602E-001	3.57810E+000	9	...........
	62	0.84	9.86736E-001	2.81288E-004	0.00000E+000	2.77557E-004	1.68088E-001	9.87116E-001	3.57810E+000	9	...........
	63	0.853333	9.88215E-001	2.81206E-004	0.00000E+000	2.77893E-004	1.68088E-001	9.88596E-001	3.57810E+000	9	...........
	64	0.866667	9.89673E-001	2.81071E-004	0.00000E+000	2.78169E-004	1.68088E-001	9.90052E-001	3.57810E+000	9	...........
	65	0.88	9.91133E-001	2.81340E-004	0.00000E+000	2.78845E-004	1.68088E-001	9.91492E-001	3.57810E+000	9	...........
	66	0.893333	9.92556E-001	2.80616E-004	0.00000E+000	2.78527E-004	1.68088E-001	9.92942E-001	3.57810E+000	9	...........
	67	0.906667	9.94004E-001	2.80862E-004	0.00000E+000	2.79178E-004	1.68088E-001	9.94381E-001	3.57810E+000	9	...........
	68	0.92	9.95427E-001	2.80748E-004	0.00000E+000	2.79464E-004	1.68088E-001	9.95771E-001	3.57810E+000	9	...........
	69	0.933333	9.96785E-001	2.81525E-004	0.00000E+000	2.80620E-004	1.68088E-001	9.97174E-001	3.57810E+000	9	...........
	70	0.946667	9.98142E-001	2.82705E-004	0.00000E+000	2.82179E-004	1.68088E-001	9.98527E-001	3.57810E+000	9	...........
	71	0.96	9.99471E-001	2.82116E-004	0.00000E+000	2.81967E-004	1.68088E-001	9.99844E-001	3.57810E+000	9	...........
STARTTIMEOFFSET	QUANT	1338.541	Start Time Offset (s)
