EXPLAIN
TAG	PWR800_CHARGE
TITLE	LABEL	PWR Cyclic Charge Discharge (Cell) - Charge Step	Test &Identifier
DATE	LABEL	7-7-2017	Date
TIME	LABEL	16:08:33	Time
NOTES	NOTES	3	&Notes...
	supercap test cell
	2.8mg
	6M KOH
PSTAT	PSTAT	IFC5000-01520	Potentiostat
CAPACITY	QUANT	1.00000E-003	Capacity (A-hr)
CELLTYPE	SELECTOR	1	&Cell Type
WORKINGCONNECTION	SELECTOR	0	&Working Lead
MAXCHARGETIME	VARIABLEANDUNITS	1.00000E+002	s	1.00000E+002	second(s)	Max &Charge Time
CHARGECURRENT	QUANT	2.80000E-004	&Charge Current (A) 
VOLTAGEFINISH	TWOPARAM	F	1.00000E-003	3.60000E+003	&Voltage Finish	 I (A) < 	Max Time(s)
SAMPLETIME	QUANT	1.00000E-002	Sa&mple Period (s)
CHARGESTOPAT1	MULTIPARAM	4	1.00000E+000	Charge Stop At &1	Voltage > Limit	V
CHARGESTOPAT2	MULTIPARAM	0	0.00000E+000	Charge Stop At &2	None	N/A
AESBHCSELECTOR	TOGGLE	F	Save Both Half Cells
IRCOMP	TOGGLE	F	IR &Measure
EOC	QUANT	0	Open Circuit (V)
SEQUENCER	TOGGLE	TRUE	Run as Sequence
PSTATMODEL	IQUANT	53	Pstat Model
PSTATSECTION	LABEL	IFC5000-01520	Pstat Section
PSTATSERIALNO	LABEL	01520	Pstat Serial Number
CTRLMODE	IQUANT	0	Control Mode
ELECTROMETER	IQUANT	1	RE=0 or CS=1
IESTAB	IQUANT	0	I/E Stability
CASPEED	IQUANT	4	Control Amp Speed
CONVENTION	IQUANT	1	Current Convention
ICHRANGE	IQUANT	2	Ich Range
ICHRANGEMODE	TOGGLE	T	Ich Auto Range
ICHOFFSETENABLE	TOGGLE	F	Ich Offset Enable
ICHOFFSET	QUANT	0	Ich Offset (V)
ICHFILTER	IQUANT	1	Ich Filter
VCHRANGE	IQUANT	2	Vch Range
VCHRANGEMODE	TOGGLE	T	Vch Auto Range
VCHOFFSETENABLE	TOGGLE	F	Vch Offset Enable
VCHOFFSET	QUANT	0	Vch Offset (V)
VCHFILTER	IQUANT	1	Vch Filter
IERANGELOWERLIMIT	IQUANT	9	I/E Range Lower Limit
IERANGEMODE	TOGGLE	F	I/E AutoRange
IERANGE	IQUANT	9	I/E Range
ACHSELECT	IQUANT	1	Ach Select
ACHRANGE	IQUANT	2	Ach Range
ACHOFFSETENABLE	TOGGLE	F	Ach Offset Enable
ACHOFFSET	QUANT	0	Ach Offset (V)
ACHFILTER	IQUANT	1	Ach Filter
CABLEID	IQUANT	14	Cable ID
DCCALDATE	LABEL	5-7-2017	DC Calibration Date
ACCALDATE	LABEL	12/3/2015	AC Calibration Date
FRAMEWORKVERSION	QUANT	7.01	Framework Version
INSTRUMENTVERSION	LABEL	4.00	Instrument Version
CURVE	TABLE	70
	Pt	T	Vf	Im	Vu	Pwr	Sig	Ach	Temp	IERange	Over
	#	s	V	A	V	W	V	V	deg C	#	bits
	0	0.013333	6.03775E-001	2.81765E-004	0.00000E+000	1.70123E-004	1.68088E-001	6.04067E-001	3.57870E+000	9	...........
	1	0.026667	6.33652E-001	2.81134E-004	0.00000E+000	1.78141E-004	1.68088E-001	6.33923E-001	3.57870E+000	9	...........
	2	0.04	6.59230E-001	2.80608E-004	0.00000E+000	1.84986E-004	1.68088E-001	6.59499E-001	3.57870E+000	9	...........
	3	0.053333	6.81640E-001	2.80750E-004	0.00000E+000	1.91370E-004	1.68088E-001	6.81930E-001	3.57870E+000	9	...........
	4	0.066667	7.01621E-001	2.82193E-004	0.00000E+000	1.97993E-004	1.68088E-001	7.01909E-001	3.57870E+000	9	...........
	5	0.08	7.19631E-001	2.81548E-004	0.00000E+000	2.02611E-004	1.68088E-001	7.19916E-001	3.57870E+000	9	...........
	6	0.093333	7.36000E-001	2.81112E-004	0.00000E+000	2.06898E-004	1.68088E-001	7.36290E-001	3.57870E+000	9	...........
	7	0.106667	7.50991E-001	2.81305E-004	0.00000E+000	2.11258E-004	1.68088E-001	7.51265E-001	3.57870E+000	9	...........
	8	0.12	7.64743E-001	2.80698E-004	0.00000E+000	2.14662E-004	1.68088E-001	7.65014E-001	3.57870E+000	9	...........
	9	0.133333	7.77426E-001	2.81323E-004	0.00000E+000	2.18708E-004	1.68088E-001	7.77700E-001	3.57870E+000	9	...........
	10	0.146667	7.89152E-001	2.80752E-004	0.00000E+000	2.21556E-004	1.68088E-001	7.89454E-001	3.57870E+000	9	...........
	11	0.16	8.00087E-001	2.80906E-004	0.00000E+000	2.24750E-004	1.68088E-001	8.00352E-001	3.57870E+000	9	...........
	12	0.173333	8.10198E-001	2.81082E-004	0.00000E+000	2.27733E-004	1.68088E-001	8.10493E-001	3.57870E+000	9	...........
	13	0.186667	8.19667E-001	2.81521E-004	0.00000E+000	2.30754E-004	1.68088E-001	8.19951E-001	3.57870E+000	9	...........
	14	0.2	8.28488E-001	2.80494E-004	0.00000E+000	2.32386E-004	1.68088E-001	8.28788E-001	3.57870E+000	9	...........
	15	0.213333	8.36739E-001	2.81652E-004	0.00000E+000	2.35670E-004	1.68088E-001	8.37057E-001	3.57870E+000	9	...........
	16	0.226667	8.44514E-001	2.82339E-004	0.00000E+000	2.38439E-004	1.68088E-001	8.44840E-001	3.57870E+000	9	...........
	17	0.24	8.51835E-001	2.81698E-004	0.00000E+000	2.39960E-004	1.68088E-001	8.52168E-001	3.57870E+000	9	...........
	18	0.253333	8.58683E-001	2.81966E-004	0.00000E+000	2.42119E-004	1.68088E-001	8.59032E-001	3.57870E+000	9	...........
	19	0.266667	8.65169E-001	2.81515E-004	0.00000E+000	2.43558E-004	1.68088E-001	8.65491E-001	3.57870E+000	9	...........
	20	0.28	8.71297E-001	2.80662E-004	0.00000E+000	2.44540E-004	1.68088E-001	8.71623E-001	3.57870E+000	9	...........
	21	0.293333	8.77089E-001	2.81730E-004	0.00000E+000	2.47102E-004	1.68088E-001	8.77404E-001	3.57870E+000	9	...........
	22	0.306667	8.82575E-001	2.81784E-004	0.00000E+000	2.48695E-004	1.68088E-001	8.82871E-001	3.57870E+000	9	...........
	23	0.32	8.87767E-001	2.81766E-004	0.00000E+000	2.50143E-004	1.68088E-001	8.88076E-001	3.57870E+000	9	...........
	24	0.333333	8.92660E-001	2.81391E-004	0.00000E+000	2.51186E-004	1.68088E-001	8.92977E-001	3.57870E+000	9	...........
	25	0.346667	8.97381E-001	2.80516E-004	0.00000E+000	2.51729E-004	1.68088E-001	8.97680E-001	3.57870E+000	9	...........
	26	0.36	9.01840E-001	2.81352E-004	0.00000E+000	2.53735E-004	1.68088E-001	9.02167E-001	3.57870E+000	9	...........
	27	0.373333	9.06120E-001	2.81504E-004	0.00000E+000	2.55077E-004	1.68088E-001	9.06455E-001	3.57870E+000	9	...........
	28	0.386667	9.10198E-001	2.80747E-004	0.00000E+000	2.55535E-004	1.68088E-001	9.10524E-001	3.57870E+000	9	...........
	29	0.4	9.14070E-001	2.82528E-004	0.00000E+000	2.58250E-004	1.68088E-001	9.14432E-001	3.57870E+000	9	...........
	30	0.413333	9.17807E-001	2.81414E-004	0.00000E+000	2.58284E-004	1.68088E-001	9.18173E-001	3.57870E+000	9	...........
	31	0.426667	9.21418E-001	2.82319E-004	0.00000E+000	2.60134E-004	1.68088E-001	9.21763E-001	3.57870E+000	9	...........
	32	0.44	9.24891E-001	2.81221E-004	0.00000E+000	2.60099E-004	1.68088E-001	9.25224E-001	3.57870E+000	9	...........
	33	0.453333	9.28212E-001	2.82618E-004	0.00000E+000	2.62330E-004	1.68088E-001	9.28565E-001	3.57870E+000	9	...........
	34	0.466667	9.31366E-001	2.80772E-004	0.00000E+000	2.61501E-004	1.68088E-001	9.31709E-001	3.57870E+000	9	...........
	35	0.48	9.34399E-001	2.81277E-004	0.00000E+000	2.62825E-004	1.68088E-001	9.34754E-001	3.57870E+000	9	...........
	36	0.493333	9.37344E-001	2.81024E-004	0.00000E+000	2.63416E-004	1.68088E-001	9.37694E-001	3.57870E+000	9	...........
	37	0.506667	9.40174E-001	2.80744E-004	0.00000E+000	2.63948E-004	1.68088E-001	9.40515E-001	3.57870E+000	9	...........
	38	0.52	9.42920E-001	2.81493E-004	0.00000E+000	2.65425E-004	1.68088E-001	9.43244E-001	3.57870E+000	9	...........
	39	0.533333	9.45533E-001	2.80715E-004	0.00000E+000	2.65425E-004	1.68088E-001	9.45900E-001	3.57870E+000	9	...........
	40	0.546667	9.48129E-001	2.81814E-004	0.00000E+000	2.67196E-004	1.68088E-001	9.48484E-001	3.57870E+000	9	...........
	41	0.56	9.50599E-001	2.81656E-004	0.00000E+000	2.67741E-004	1.68088E-001	9.50985E-001	3.57870E+000	9	...........
	42	0.573333	9.53044E-001	2.80970E-004	0.00000E+000	2.67777E-004	1.68088E-001	9.53398E-001	3.57870E+000	9	...........
	43	0.586667	9.55402E-001	2.81603E-004	0.00000E+000	2.69045E-004	1.68088E-001	9.55754E-001	3.57870E+000	9	...........
	44	0.6	9.57720E-001	2.82473E-004	0.00000E+000	2.70531E-004	1.68088E-001	9.58073E-001	3.57870E+000	9	...........
	45	0.613333	9.59910E-001	2.80688E-004	0.00000E+000	2.69435E-004	1.68088E-001	9.60311E-001	3.57870E+000	9	...........
	46	0.626667	9.62086E-001	2.79713E-004	0.00000E+000	2.69108E-004	1.68088E-001	9.62483E-001	3.57870E+000	9	...........
	47	0.64	9.64203E-001	2.80547E-004	0.00000E+000	2.70504E-004	1.68088E-001	9.64589E-001	3.57870E+000	9	...........
	48	0.653333	9.66272E-001	2.81896E-004	0.00000E+000	2.72389E-004	1.68088E-001	9.66651E-001	3.57870E+000	9	...........
	49	0.666667	9.68251E-001	2.81179E-004	0.00000E+000	2.72252E-004	1.68088E-001	9.68635E-001	3.57870E+000	9	...........
	50	0.68	9.70218E-001	2.81193E-004	0.00000E+000	2.72818E-004	1.68088E-001	9.70631E-001	3.57876E+000	9	...........
	51	0.693333	9.72191E-001	2.80472E-004	0.00000E+000	2.72672E-004	1.68088E-001	9.72604E-001	3.57880E+000	9	...........
	52	0.706667	9.74105E-001	2.82344E-004	0.00000E+000	2.75033E-004	1.68088E-001	9.74463E-001	3.57880E+000	9	...........
	53	0.72	9.75920E-001	2.80653E-004	0.00000E+000	2.73895E-004	1.68088E-001	9.76278E-001	3.57880E+000	9	...........
	54	0.733333	9.77677E-001	2.81204E-004	0.00000E+000	2.74927E-004	1.68088E-001	9.78064E-001	3.57880E+000	9	...........
	55	0.746667	9.79407E-001	2.81097E-004	0.00000E+000	2.75308E-004	1.68088E-001	9.79769E-001	3.57880E+000	9	...........
	56	0.76	9.81102E-001	2.80952E-004	0.00000E+000	2.75643E-004	1.68088E-001	9.81461E-001	3.57880E+000	9	...........
	57	0.773333	9.82758E-001	2.80458E-004	0.00000E+000	2.75623E-004	1.68088E-001	9.83147E-001	3.57880E+000	9	...........
	58	0.786667	9.84373E-001	2.81943E-004	0.00000E+000	2.77537E-004	1.68088E-001	9.84794E-001	3.57880E+000	9	...........
	59	0.8	9.86037E-001	2.81901E-004	0.00000E+000	2.77965E-004	1.68088E-001	9.86426E-001	3.57880E+000	9	...........
	60	0.813333	9.87614E-001	2.82314E-004	0.00000E+000	2.78817E-004	1.68088E-001	9.88040E-001	3.57880E+000	9	...........
	61	0.826667	9.89186E-001	2.82435E-004	0.00000E+000	2.79381E-004	1.68088E-001	9.89591E-001	3.57880E+000	9	...........
	62	0.84	9.90691E-001	2.80957E-004	0.00000E+000	2.78342E-004	1.68088E-001	9.91074E-001	3.57880E+000	9	...........
	63	0.853333	9.92186E-001	2.82518E-004	0.00000E+000	2.80311E-004	1.68088E-001	9.92597E-001	3.57880E+000	9	...........
	64	0.866667	9.93641E-001	2.81692E-004	0.00000E+000	2.79901E-004	1.68088E-001	9.94046E-001	3.57880E+000	9	...........
	65	0.88	9.95113E-001	2.81091E-004	0.00000E+000	2.79717E-004	1.68088E-001	9.95500E-001	3.57880E+000	9	...........
	66	0.893333	9.96536E-001	2.81049E-004	0.00000E+000	2.80076E-004	1.68088E-001	9.96949E-001	3.57880E+000	9	...........
	67	0.906667	9.97969E-001	2.81190E-004	0.00000E+000	2.80619E-004	1.68088E-001	9.98375E-001	3.57880E+000	9	...........
	68	0.92	9.99372E-001	2.82150E-004	0.00000E+000	2.81973E-004	1.68088E-001	9.99774E-001	3.57880E+000	9	...........
	69	0.921667	1.00018E+000	2.79735E-004	0.00000E+000	2.79785E-004	1.68088E-001	1.00057E+000	3.57880E+000	9	...........
STARTTIMEOFFSET	QUANT	1465.732	Start Time Offset (s)
