EXPLAIN
TAG	PWR800_CHARGE
TITLE	LABEL	PWR Cyclic Charge Discharge (Cell) - Charge Step	Test &Identifier
DATE	LABEL	7-7-2017	Date
TIME	LABEL	16:11:58	Time
NOTES	NOTES	3	&Notes...
	supercap test cell
	2.8mg
	6M KOH
PSTAT	PSTAT	IFC5000-01520	Potentiostat
CAPACITY	QUANT	1.00000E-003	Capacity (A-hr)
CELLTYPE	SELECTOR	1	&Cell Type
WORKINGCONNECTION	SELECTOR	0	&Working Lead
MAXCHARGETIME	VARIABLEANDUNITS	1.00000E+002	s	1.00000E+002	second(s)	Max &Charge Time
CHARGECURRENT	QUANT	2.80000E-004	&Charge Current (A) 
VOLTAGEFINISH	TWOPARAM	F	1.00000E-003	3.60000E+003	&Voltage Finish	 I (A) < 	Max Time(s)
SAMPLETIME	QUANT	1.00000E-002	Sa&mple Period (s)
CHARGESTOPAT1	MULTIPARAM	4	1.00000E+000	Charge Stop At &1	Voltage > Limit	V
CHARGESTOPAT2	MULTIPARAM	0	0.00000E+000	Charge Stop At &2	None	N/A
AESBHCSELECTOR	TOGGLE	F	Save Both Half Cells
IRCOMP	TOGGLE	F	IR &Measure
EOC	QUANT	0	Open Circuit (V)
SEQUENCER	TOGGLE	TRUE	Run as Sequence
PSTATMODEL	IQUANT	53	Pstat Model
PSTATSECTION	LABEL	IFC5000-01520	Pstat Section
PSTATSERIALNO	LABEL	01520	Pstat Serial Number
CTRLMODE	IQUANT	0	Control Mode
ELECTROMETER	IQUANT	1	RE=0 or CS=1
IESTAB	IQUANT	0	I/E Stability
CASPEED	IQUANT	4	Control Amp Speed
CONVENTION	IQUANT	1	Current Convention
ICHRANGE	IQUANT	2	Ich Range
ICHRANGEMODE	TOGGLE	T	Ich Auto Range
ICHOFFSETENABLE	TOGGLE	F	Ich Offset Enable
ICHOFFSET	QUANT	0	Ich Offset (V)
ICHFILTER	IQUANT	1	Ich Filter
VCHRANGE	IQUANT	2	Vch Range
VCHRANGEMODE	TOGGLE	T	Vch Auto Range
VCHOFFSETENABLE	TOGGLE	F	Vch Offset Enable
VCHOFFSET	QUANT	0	Vch Offset (V)
VCHFILTER	IQUANT	1	Vch Filter
IERANGELOWERLIMIT	IQUANT	9	I/E Range Lower Limit
IERANGEMODE	TOGGLE	F	I/E AutoRange
IERANGE	IQUANT	9	I/E Range
ACHSELECT	IQUANT	1	Ach Select
ACHRANGE	IQUANT	2	Ach Range
ACHOFFSETENABLE	TOGGLE	F	Ach Offset Enable
ACHOFFSET	QUANT	0	Ach Offset (V)
ACHFILTER	IQUANT	1	Ach Filter
CABLEID	IQUANT	14	Cable ID
DCCALDATE	LABEL	5-7-2017	DC Calibration Date
ACCALDATE	LABEL	12/3/2015	AC Calibration Date
FRAMEWORKVERSION	QUANT	7.01	Framework Version
INSTRUMENTVERSION	LABEL	4.00	Instrument Version
CURVE	TABLE	67
	Pt	T	Vf	Im	Vu	Pwr	Sig	Ach	Temp	IERange	Over
	#	s	V	A	V	W	V	V	deg C	#	bits
	0	0.013333	6.07331E-001	2.81004E-004	0.00000E+000	1.70663E-004	1.68088E-001	6.07599E-001	3.57790E+000	9	...........
	1	0.026667	6.37326E-001	2.80380E-004	0.00000E+000	1.78694E-004	1.68088E-001	6.37572E-001	3.57790E+000	9	...........
	2	0.04	6.62998E-001	2.80623E-004	0.00000E+000	1.86052E-004	1.68088E-001	6.63253E-001	3.57790E+000	9	...........
	3	0.053333	6.85535E-001	2.81003E-004	0.00000E+000	1.92638E-004	1.68088E-001	6.85790E-001	3.57790E+000	9	...........
	4	0.066667	7.05612E-001	2.81061E-004	0.00000E+000	1.98320E-004	1.68088E-001	7.05865E-001	3.57790E+000	9	...........
	5	0.08	7.23775E-001	2.79924E-004	0.00000E+000	2.02602E-004	1.68088E-001	7.24019E-001	3.57790E+000	9	...........
	6	0.093333	7.40218E-001	2.81319E-004	0.00000E+000	2.08237E-004	1.68088E-001	7.40488E-001	3.57790E+000	9	...........
	7	0.106667	7.55308E-001	2.80368E-004	0.00000E+000	2.11764E-004	1.68088E-001	7.55554E-001	3.57790E+000	9	...........
	8	0.12	7.69137E-001	2.80686E-004	0.00000E+000	2.15886E-004	1.68088E-001	7.69419E-001	3.57790E+000	9	...........
	9	0.133333	7.81928E-001	2.81340E-004	0.00000E+000	2.19988E-004	1.68088E-001	7.82196E-001	3.57790E+000	9	...........
	10	0.146667	7.93769E-001	2.80464E-004	0.00000E+000	2.22623E-004	1.68088E-001	7.94041E-001	3.57790E+000	9	...........
	11	0.16	8.04746E-001	2.80586E-004	0.00000E+000	2.25800E-004	1.68088E-001	8.05037E-001	3.57790E+000	9	...........
	12	0.173333	8.14943E-001	2.79911E-004	0.00000E+000	2.28112E-004	1.68088E-001	8.15261E-001	3.57790E+000	9	...........
	13	0.186667	8.24469E-001	2.81912E-004	0.00000E+000	2.32427E-004	1.68088E-001	8.24802E-001	3.57790E+000	9	...........
	14	0.2	8.33332E-001	2.80597E-004	0.00000E+000	2.33830E-004	1.68088E-001	8.33671E-001	3.57790E+000	9	...........
	15	0.213333	8.41672E-001	2.81136E-004	0.00000E+000	2.36624E-004	1.68088E-001	8.42006E-001	3.57790E+000	9	...........
	16	0.226667	8.49529E-001	2.81666E-004	0.00000E+000	2.39283E-004	1.68088E-001	8.49848E-001	3.57805E+000	9	...........
	17	0.24	8.56869E-001	2.81235E-004	0.00000E+000	2.40981E-004	1.68088E-001	8.57216E-001	3.57810E+000	9	...........
	18	0.253333	8.63767E-001	2.81553E-004	0.00000E+000	2.43197E-004	1.68088E-001	8.64111E-001	3.57810E+000	9	...........
	19	0.266667	8.70272E-001	2.81310E-004	0.00000E+000	2.44816E-004	1.68088E-001	8.70627E-001	3.57810E+000	9	...........
	20	0.28	8.76427E-001	2.80862E-004	0.00000E+000	2.46155E-004	1.68088E-001	8.76776E-001	3.57810E+000	9	...........
	21	0.293333	8.82211E-001	2.81478E-004	0.00000E+000	2.48323E-004	1.68088E-001	8.82564E-001	3.57810E+000	9	...........
	22	0.306667	8.87712E-001	2.81776E-004	0.00000E+000	2.50136E-004	1.68088E-001	8.88067E-001	3.57810E+000	9	...........
	23	0.32	8.92888E-001	2.81465E-004	0.00000E+000	2.51316E-004	1.68088E-001	8.93232E-001	3.57810E+000	9	...........
	24	0.333333	8.97798E-001	2.82636E-004	0.00000E+000	2.53750E-004	1.68088E-001	8.98157E-001	3.57810E+000	9	...........
	25	0.346667	9.02464E-001	2.81509E-004	0.00000E+000	2.54051E-004	1.68088E-001	9.02807E-001	3.57810E+000	9	...........
	26	0.36	9.06923E-001	2.80931E-004	0.00000E+000	2.54783E-004	1.68088E-001	9.07274E-001	3.57810E+000	9	...........
	27	0.373333	9.11217E-001	2.81262E-004	0.00000E+000	2.56290E-004	1.68088E-001	9.11552E-001	3.57810E+000	9	...........
	28	0.386667	9.15305E-001	2.81701E-004	0.00000E+000	2.57843E-004	1.68088E-001	9.15643E-001	3.57810E+000	9	...........
	29	0.4	9.19164E-001	2.82383E-004	0.00000E+000	2.59556E-004	1.68088E-001	9.19515E-001	3.57810E+000	9	...........
	30	0.413333	9.22915E-001	2.81842E-004	0.00000E+000	2.60116E-004	1.68088E-001	9.23215E-001	3.57810E+000	9	...........
	31	0.426667	9.26434E-001	2.81105E-004	0.00000E+000	2.60426E-004	1.68088E-001	9.26767E-001	3.57810E+000	9	...........
	32	0.44	9.29835E-001	2.79484E-004	0.00000E+000	2.59874E-004	1.68088E-001	9.30144E-001	3.57810E+000	9	...........
	33	0.453333	9.33086E-001	2.82041E-004	0.00000E+000	2.63169E-004	1.68088E-001	9.33408E-001	3.57810E+000	9	...........
	34	0.466667	9.36205E-001	2.80801E-004	0.00000E+000	2.62887E-004	1.68088E-001	9.36568E-001	3.57810E+000	9	...........
	35	0.48	9.39204E-001	2.81579E-004	0.00000E+000	2.64460E-004	1.68088E-001	9.39566E-001	3.57810E+000	9	...........
	36	0.493333	9.42166E-001	2.81357E-004	0.00000E+000	2.65084E-004	1.68088E-001	9.42484E-001	3.57810E+000	9	...........
	37	0.506667	9.44957E-001	2.82300E-004	0.00000E+000	2.66762E-004	1.68088E-001	9.45325E-001	3.57810E+000	9	...........
	38	0.52	9.47718E-001	2.81698E-004	0.00000E+000	2.66970E-004	1.68088E-001	9.48058E-001	3.57810E+000	9	...........
	39	0.533333	9.50358E-001	2.81491E-004	0.00000E+000	2.67517E-004	1.68088E-001	9.50689E-001	3.57810E+000	9	...........
	40	0.546667	9.52919E-001	2.81309E-004	0.00000E+000	2.68064E-004	1.68088E-001	9.53238E-001	3.57810E+000	9	...........
	41	0.56	9.55383E-001	2.81453E-004	0.00000E+000	2.68896E-004	1.68088E-001	9.55673E-001	3.57810E+000	9	...........
	42	0.573333	9.57792E-001	2.81625E-004	0.00000E+000	2.69738E-004	1.68088E-001	9.58096E-001	3.57810E+000	9	...........
	43	0.586667	9.60121E-001	2.81811E-004	0.00000E+000	2.70573E-004	1.68088E-001	9.60431E-001	3.57810E+000	9	...........
	44	0.6	9.62376E-001	2.81526E-004	0.00000E+000	2.70934E-004	1.68088E-001	9.62688E-001	3.57810E+000	9	...........
	45	0.613333	9.64560E-001	2.81187E-004	0.00000E+000	2.71222E-004	1.68088E-001	9.64888E-001	3.57810E+000	9	...........
	46	0.626667	9.66687E-001	2.81577E-004	0.00000E+000	2.72197E-004	1.68088E-001	9.67003E-001	3.57810E+000	9	...........
	47	0.64	9.68758E-001	2.80076E-004	0.00000E+000	2.71326E-004	1.68088E-001	9.69075E-001	3.57810E+000	9	...........
	48	0.653333	9.70769E-001	2.80806E-004	0.00000E+000	2.72598E-004	1.68088E-001	9.71135E-001	3.57810E+000	9	...........
	49	0.666667	9.72803E-001	2.82054E-004	0.00000E+000	2.74383E-004	1.68088E-001	9.73154E-001	3.57810E+000	9	...........
	50	0.68	9.74749E-001	2.81136E-004	0.00000E+000	2.74037E-004	1.68088E-001	9.75086E-001	3.57810E+000	9	...........
	51	0.693333	9.76595E-001	2.80604E-004	0.00000E+000	2.74037E-004	1.68088E-001	9.76913E-001	3.57810E+000	9	...........
	52	0.706667	9.78424E-001	2.80877E-004	0.00000E+000	2.74817E-004	1.68088E-001	9.78730E-001	3.57810E+000	9	...........
	53	0.72	9.80226E-001	2.80613E-004	0.00000E+000	2.75064E-004	1.68088E-001	9.80563E-001	3.57810E+000	9	...........
	54	0.733333	9.82014E-001	2.81758E-004	0.00000E+000	2.76690E-004	1.68088E-001	9.82347E-001	3.57810E+000	9	...........
	55	0.746667	9.83765E-001	2.80614E-004	0.00000E+000	2.76058E-004	1.68088E-001	9.84124E-001	3.57810E+000	9	...........
	56	0.76	9.85467E-001	2.82308E-004	0.00000E+000	2.78205E-004	1.68088E-001	9.85839E-001	3.57810E+000	9	...........
	57	0.773333	9.87085E-001	2.80536E-004	0.00000E+000	2.76912E-004	1.68088E-001	9.87466E-001	3.57810E+000	9	...........
	58	0.786667	9.88713E-001	2.80841E-004	0.00000E+000	2.77671E-004	1.68088E-001	9.89080E-001	3.57810E+000	9	...........
	59	0.8	9.90310E-001	2.82072E-004	0.00000E+000	2.79339E-004	1.68088E-001	9.90662E-001	3.57810E+000	9	...........
	60	0.813333	9.91837E-001	2.80497E-004	0.00000E+000	2.78207E-004	1.68088E-001	9.92207E-001	3.57810E+000	9	...........
	61	0.826667	9.93327E-001	2.81699E-004	0.00000E+000	2.79820E-004	1.68088E-001	9.93716E-001	3.57810E+000	9	...........
	62	0.84	9.94825E-001	2.80856E-004	0.00000E+000	2.79403E-004	1.68088E-001	9.95214E-001	3.57810E+000	9	...........
	63	0.853333	9.96302E-001	2.80848E-004	0.00000E+000	2.79810E-004	1.68088E-001	9.96664E-001	3.57810E+000	9	...........
	64	0.866667	9.97741E-001	2.81338E-004	0.00000E+000	2.80702E-004	1.68088E-001	9.98160E-001	3.57810E+000	9	...........
	65	0.88	9.99171E-001	2.81038E-004	0.00000E+000	2.80805E-004	1.68088E-001	9.99570E-001	3.57810E+000	9	...........
	66	0.883333	1.00002E+000	2.80931E-004	0.00000E+000	2.80937E-004	1.68088E-001	1.00043E+000	3.57810E+000	9	...........
STARTTIMEOFFSET	QUANT	1602.14	Start Time Offset (s)
