EXPLAIN
TAG	PWR800_CHARGE
TITLE	LABEL	PWR Cyclic Charge Discharge (Cell) - Charge Step	Test &Identifier
DATE	LABEL	7-7-2017	Date
TIME	LABEL	16:19:37	Time
NOTES	NOTES	3	&Notes...
	supercap test cell
	2.8mg
	6M KOH
PSTAT	PSTAT	IFC5000-01520	Potentiostat
CAPACITY	QUANT	1.00000E-003	Capacity (A-hr)
CELLTYPE	SELECTOR	1	&Cell Type
WORKINGCONNECTION	SELECTOR	0	&Working Lead
MAXCHARGETIME	VARIABLEANDUNITS	1.00000E+002	s	1.00000E+002	second(s)	Max &Charge Time
CHARGECURRENT	QUANT	2.80000E-004	&Charge Current (A) 
VOLTAGEFINISH	TWOPARAM	F	1.00000E-003	3.60000E+003	&Voltage Finish	 I (A) < 	Max Time(s)
SAMPLETIME	QUANT	1.00000E-002	Sa&mple Period (s)
CHARGESTOPAT1	MULTIPARAM	4	1.00000E+000	Charge Stop At &1	Voltage > Limit	V
CHARGESTOPAT2	MULTIPARAM	0	0.00000E+000	Charge Stop At &2	None	N/A
AESBHCSELECTOR	TOGGLE	F	Save Both Half Cells
IRCOMP	TOGGLE	F	IR &Measure
EOC	QUANT	0	Open Circuit (V)
SEQUENCER	TOGGLE	TRUE	Run as Sequence
PSTATMODEL	IQUANT	53	Pstat Model
PSTATSECTION	LABEL	IFC5000-01520	Pstat Section
PSTATSERIALNO	LABEL	01520	Pstat Serial Number
CTRLMODE	IQUANT	0	Control Mode
ELECTROMETER	IQUANT	1	RE=0 or CS=1
IESTAB	IQUANT	0	I/E Stability
CASPEED	IQUANT	4	Control Amp Speed
CONVENTION	IQUANT	1	Current Convention
ICHRANGE	IQUANT	2	Ich Range
ICHRANGEMODE	TOGGLE	T	Ich Auto Range
ICHOFFSETENABLE	TOGGLE	F	Ich Offset Enable
ICHOFFSET	QUANT	0	Ich Offset (V)
ICHFILTER	IQUANT	1	Ich Filter
VCHRANGE	IQUANT	2	Vch Range
VCHRANGEMODE	TOGGLE	T	Vch Auto Range
VCHOFFSETENABLE	TOGGLE	F	Vch Offset Enable
VCHOFFSET	QUANT	0	Vch Offset (V)
VCHFILTER	IQUANT	1	Vch Filter
IERANGELOWERLIMIT	IQUANT	9	I/E Range Lower Limit
IERANGEMODE	TOGGLE	F	I/E AutoRange
IERANGE	IQUANT	9	I/E Range
ACHSELECT	IQUANT	1	Ach Select
ACHRANGE	IQUANT	2	Ach Range
ACHOFFSETENABLE	TOGGLE	F	Ach Offset Enable
ACHOFFSET	QUANT	0	Ach Offset (V)
ACHFILTER	IQUANT	1	Ach Filter
CABLEID	IQUANT	14	Cable ID
DCCALDATE	LABEL	5-7-2017	DC Calibration Date
ACCALDATE	LABEL	12/3/2015	AC Calibration Date
FRAMEWORKVERSION	QUANT	7.01	Framework Version
INSTRUMENTVERSION	LABEL	4.00	Instrument Version
CURVE	TABLE	60
	Pt	T	Vf	Im	Vu	Pwr	Sig	Ach	Temp	IERange	Over
	#	s	V	A	V	W	V	V	deg C	#	bits
	0	0.013333	6.40617E-001	2.80973E-004	0.00000E+000	1.79996E-004	1.68088E-001	6.40857E-001	3.57790E+000	9	...........
	1	0.026667	6.68990E-001	2.81294E-004	0.00000E+000	1.88183E-004	1.68088E-001	6.69252E-001	3.57790E+000	9	...........
	2	0.04	6.93311E-001	2.81246E-004	0.00000E+000	1.94991E-004	1.68088E-001	6.93544E-001	3.57790E+000	9	...........
	3	0.053333	7.14624E-001	2.80597E-004	0.00000E+000	2.00521E-004	1.68088E-001	7.14875E-001	3.57790E+000	9	...........
	4	0.066667	7.33615E-001	2.80490E-004	0.00000E+000	2.05771E-004	1.68088E-001	7.33873E-001	3.57790E+000	9	...........
	5	0.08	7.50774E-001	2.79933E-004	0.00000E+000	2.10167E-004	1.68088E-001	7.51029E-001	3.57790E+000	9	...........
	6	0.093333	7.66297E-001	2.80387E-004	0.00000E+000	2.14859E-004	1.68088E-001	7.66581E-001	3.57790E+000	9	...........
	7	0.106667	7.80521E-001	2.81054E-004	0.00000E+000	2.19369E-004	1.68088E-001	7.80802E-001	3.57790E+000	9	...........
	8	0.12	7.93551E-001	2.81224E-004	0.00000E+000	2.23166E-004	1.68088E-001	7.93845E-001	3.57790E+000	9	...........
	9	0.133333	8.05568E-001	2.80954E-004	0.00000E+000	2.26328E-004	1.68088E-001	8.05862E-001	3.57790E+000	9	...........
	10	0.146667	8.16661E-001	2.80901E-004	0.00000E+000	2.29401E-004	1.68088E-001	8.16995E-001	3.57790E+000	9	...........
	11	0.16	8.26972E-001	2.81975E-004	0.00000E+000	2.33186E-004	1.68088E-001	8.27296E-001	3.57790E+000	9	...........
	12	0.173333	8.36504E-001	2.81614E-004	0.00000E+000	2.35571E-004	1.68088E-001	8.36840E-001	3.57790E+000	9	...........
	13	0.186667	8.45440E-001	2.81448E-004	0.00000E+000	2.37948E-004	1.68088E-001	8.45773E-001	3.57790E+000	9	...........
	14	0.2	8.53758E-001	2.80235E-004	0.00000E+000	2.39253E-004	1.68088E-001	8.54078E-001	3.57790E+000	9	...........
	15	0.213333	8.61535E-001	2.80093E-004	0.00000E+000	2.41310E-004	1.68088E-001	8.61874E-001	3.57790E+000	9	...........
	16	0.226667	8.68876E-001	2.82204E-004	0.00000E+000	2.45200E-004	1.68088E-001	8.69204E-001	3.57790E+000	9	...........
	17	0.24	8.75748E-001	2.80649E-004	0.00000E+000	2.45778E-004	1.68088E-001	8.76093E-001	3.57790E+000	9	...........
	18	0.253333	8.82211E-001	2.80613E-004	0.00000E+000	2.47560E-004	1.68088E-001	8.82533E-001	3.57790E+000	9	...........
	19	0.266667	8.88270E-001	2.82425E-004	0.00000E+000	2.50870E-004	1.68088E-001	8.88584E-001	3.57790E+000	9	...........
	20	0.28	8.93968E-001	2.80924E-004	0.00000E+000	2.51137E-004	1.68088E-001	8.94289E-001	3.57790E+000	9	...........
	21	0.293333	8.99369E-001	2.81686E-004	0.00000E+000	2.53339E-004	1.68088E-001	8.99715E-001	3.57790E+000	9	...........
	22	0.306667	9.04462E-001	2.79885E-004	0.00000E+000	2.53146E-004	1.68088E-001	9.04802E-001	3.57790E+000	9	...........
	23	0.32	9.09291E-001	2.80266E-004	0.00000E+000	2.54843E-004	1.68088E-001	9.09630E-001	3.57790E+000	9	...........
	24	0.333333	9.13900E-001	2.81448E-004	0.00000E+000	2.57216E-004	1.68088E-001	9.14252E-001	3.57790E+000	9	...........
	25	0.346667	9.18260E-001	2.81681E-004	0.00000E+000	2.58656E-004	1.68088E-001	9.18608E-001	3.57790E+000	9	...........
	26	0.36	9.22469E-001	2.81485E-004	0.00000E+000	2.59661E-004	1.68088E-001	9.22754E-001	3.57790E+000	9	...........
	27	0.373333	9.26404E-001	2.80405E-004	0.00000E+000	2.59769E-004	1.68088E-001	9.26712E-001	3.57790E+000	9	...........
	28	0.386667	9.30176E-001	2.81271E-004	0.00000E+000	2.61632E-004	1.68088E-001	9.30450E-001	3.57790E+000	9	...........
	29	0.4	9.33775E-001	2.81186E-004	0.00000E+000	2.62564E-004	1.68088E-001	9.34099E-001	3.57790E+000	9	...........
	30	0.413333	9.37220E-001	2.81311E-004	0.00000E+000	2.63650E-004	1.68088E-001	9.37541E-001	3.57790E+000	9	...........
	31	0.426667	9.40509E-001	2.79996E-004	0.00000E+000	2.63339E-004	1.68088E-001	9.40815E-001	3.57790E+000	9	...........
	32	0.44	9.43665E-001	2.81178E-004	0.00000E+000	2.65338E-004	1.68088E-001	9.43973E-001	3.57790E+000	9	...........
	33	0.453333	9.46756E-001	2.80325E-004	0.00000E+000	2.65400E-004	1.68088E-001	9.47063E-001	3.57790E+000	9	...........
	34	0.466667	9.49705E-001	2.80760E-004	0.00000E+000	2.66639E-004	1.68088E-001	9.50041E-001	3.57790E+000	9	...........
	35	0.48	9.52570E-001	2.82121E-004	0.00000E+000	2.68740E-004	1.68088E-001	9.52904E-001	3.57790E+000	9	...........
	36	0.493333	9.55318E-001	2.81039E-004	0.00000E+000	2.68481E-004	1.68088E-001	9.55673E-001	3.57790E+000	9	...........
	37	0.506667	9.57937E-001	2.80693E-004	0.00000E+000	2.68886E-004	1.68088E-001	9.58310E-001	3.57790E+000	9	...........
	38	0.52	9.60444E-001	2.82285E-004	0.00000E+000	2.71119E-004	1.68088E-001	9.60815E-001	3.57790E+000	9	...........
	39	0.533333	9.62910E-001	2.80620E-004	0.00000E+000	2.70212E-004	1.68088E-001	9.63260E-001	3.57790E+000	9	...........
	40	0.546667	9.65304E-001	2.81238E-004	0.00000E+000	2.71480E-004	1.68088E-001	9.65646E-001	3.57790E+000	9	...........
	41	0.56	9.67620E-001	2.82572E-004	0.00000E+000	2.73423E-004	1.68088E-001	9.67965E-001	3.57790E+000	9	...........
	42	0.573333	9.69857E-001	2.80999E-004	0.00000E+000	2.72529E-004	1.68088E-001	9.70216E-001	3.57790E+000	9	...........
	43	0.586667	9.72061E-001	2.81592E-004	0.00000E+000	2.73724E-004	1.68088E-001	9.72455E-001	3.57790E+000	9	...........
	44	0.6	9.74220E-001	2.80780E-004	0.00000E+000	2.73542E-004	1.68088E-001	9.74581E-001	3.57790E+000	9	...........
	45	0.613333	9.76262E-001	2.80155E-004	0.00000E+000	2.73505E-004	1.68088E-001	9.76635E-001	3.58200E+000	9	...........
	46	0.626667	9.78248E-001	2.81247E-004	0.00000E+000	2.75129E-004	1.68088E-001	9.78614E-001	3.58200E+000	9	...........
	47	0.64	9.80156E-001	2.80069E-004	0.00000E+000	2.74511E-004	1.68088E-001	9.80516E-001	3.58200E+000	9	...........
	48	0.653333	9.82036E-001	2.81462E-004	0.00000E+000	2.76405E-004	1.68088E-001	9.82416E-001	3.58200E+000	9	...........
	49	0.666667	9.83895E-001	2.80687E-004	0.00000E+000	2.76166E-004	1.68088E-001	9.84262E-001	3.58200E+000	9	...........
	50	0.68	9.85717E-001	2.81022E-004	0.00000E+000	2.77008E-004	1.68088E-001	9.86092E-001	3.58200E+000	9	...........
	51	0.693333	9.87508E-001	2.81210E-004	0.00000E+000	2.77697E-004	1.68088E-001	9.87876E-001	3.58200E+000	9	...........
	52	0.706667	9.89250E-001	2.80799E-004	0.00000E+000	2.77780E-004	1.68088E-001	9.89592E-001	3.58200E+000	9	...........
	53	0.72	9.90900E-001	2.81558E-004	0.00000E+000	2.78995E-004	1.68088E-001	9.91254E-001	3.58200E+000	9	...........
	54	0.733333	9.92545E-001	2.80910E-004	0.00000E+000	2.78815E-004	1.68088E-001	9.92910E-001	3.58200E+000	9	...........
	55	0.746667	9.94219E-001	2.81225E-004	0.00000E+000	2.79599E-004	1.68088E-001	9.94585E-001	3.58200E+000	9	...........
	56	0.76	9.95844E-001	2.80519E-004	0.00000E+000	2.79353E-004	1.68088E-001	9.96217E-001	3.58200E+000	9	...........
	57	0.773333	9.97453E-001	2.80378E-004	0.00000E+000	2.79664E-004	1.68088E-001	9.97824E-001	3.58200E+000	9	...........
	58	0.786667	9.99006E-001	2.81025E-004	0.00000E+000	2.80746E-004	1.68088E-001	9.99357E-001	3.58200E+000	9	...........
	59	0.79	9.99976E-001	2.80969E-004	0.00000E+000	2.80962E-004	1.68088E-001	1.00031E+000	3.58200E+000	9	...........
STARTTIMEOFFSET	QUANT	1907.881	Start Time Offset (s)
