EXPLAIN
TAG	PWR800_CHARGE
TITLE	LABEL	PWR Cyclic Charge Discharge (Cell) - Charge Step	Test &Identifier
DATE	LABEL	7-7-2017	Date
TIME	LABEL	16:02:30	Time
NOTES	NOTES	3	&Notes...
	supercap test cell
	2.8mg
	6M KOH
PSTAT	PSTAT	IFC5000-01520	Potentiostat
CAPACITY	QUANT	1.00000E-003	Capacity (A-hr)
CELLTYPE	SELECTOR	1	&Cell Type
WORKINGCONNECTION	SELECTOR	0	&Working Lead
MAXCHARGETIME	VARIABLEANDUNITS	1.00000E+002	s	1.00000E+002	second(s)	Max &Charge Time
CHARGECURRENT	QUANT	2.80000E-004	&Charge Current (A) 
VOLTAGEFINISH	TWOPARAM	F	1.00000E-003	3.60000E+003	&Voltage Finish	 I (A) < 	Max Time(s)
SAMPLETIME	QUANT	1.00000E-002	Sa&mple Period (s)
CHARGESTOPAT1	MULTIPARAM	4	1.00000E+000	Charge Stop At &1	Voltage > Limit	V
CHARGESTOPAT2	MULTIPARAM	0	0.00000E+000	Charge Stop At &2	None	N/A
AESBHCSELECTOR	TOGGLE	F	Save Both Half Cells
IRCOMP	TOGGLE	F	IR &Measure
EOC	QUANT	0	Open Circuit (V)
SEQUENCER	TOGGLE	TRUE	Run as Sequence
PSTATMODEL	IQUANT	53	Pstat Model
PSTATSECTION	LABEL	IFC5000-01520	Pstat Section
PSTATSERIALNO	LABEL	01520	Pstat Serial Number
CTRLMODE	IQUANT	0	Control Mode
ELECTROMETER	IQUANT	1	RE=0 or CS=1
IESTAB	IQUANT	0	I/E Stability
CASPEED	IQUANT	4	Control Amp Speed
CONVENTION	IQUANT	1	Current Convention
ICHRANGE	IQUANT	2	Ich Range
ICHRANGEMODE	TOGGLE	T	Ich Auto Range
ICHOFFSETENABLE	TOGGLE	F	Ich Offset Enable
ICHOFFSET	QUANT	0	Ich Offset (V)
ICHFILTER	IQUANT	1	Ich Filter
VCHRANGE	IQUANT	2	Vch Range
VCHRANGEMODE	TOGGLE	T	Vch Auto Range
VCHOFFSETENABLE	TOGGLE	F	Vch Offset Enable
VCHOFFSET	QUANT	0	Vch Offset (V)
VCHFILTER	IQUANT	1	Vch Filter
IERANGELOWERLIMIT	IQUANT	9	I/E Range Lower Limit
IERANGEMODE	TOGGLE	F	I/E AutoRange
IERANGE	IQUANT	9	I/E Range
ACHSELECT	IQUANT	1	Ach Select
ACHRANGE	IQUANT	2	Ach Range
ACHOFFSETENABLE	TOGGLE	F	Ach Offset Enable
ACHOFFSET	QUANT	0	Ach Offset (V)
ACHFILTER	IQUANT	1	Ach Filter
CABLEID	IQUANT	14	Cable ID
DCCALDATE	LABEL	5-7-2017	DC Calibration Date
ACCALDATE	LABEL	12/3/2015	AC Calibration Date
FRAMEWORKVERSION	QUANT	7.01	Framework Version
INSTRUMENTVERSION	LABEL	4.00	Instrument Version
CURVE	TABLE	76
	Pt	T	Vf	Im	Vu	Pwr	Sig	Ach	Temp	IERange	Over
	#	s	V	A	V	W	V	V	deg C	#	bits
	0	0.013333	6.01581E-001	2.80756E-004	0.00000E+000	1.68898E-004	1.68088E-001	6.01838E-001	3.57870E+000	9	...........
	1	0.026667	6.30857E-001	2.80632E-004	0.00000E+000	1.77039E-004	1.68088E-001	6.31123E-001	3.57870E+000	9	...........
	2	0.04	6.55898E-001	2.81071E-004	0.00000E+000	1.84354E-004	1.68088E-001	6.56189E-001	3.57870E+000	9	...........
	3	0.053333	6.77869E-001	2.80662E-004	0.00000E+000	1.90252E-004	1.68088E-001	6.78157E-001	3.57870E+000	9	...........
	4	0.066667	6.97422E-001	2.82290E-004	0.00000E+000	1.96875E-004	1.68088E-001	6.97694E-001	3.57870E+000	9	...........
	5	0.08	7.15017E-001	2.80220E-004	0.00000E+000	2.00362E-004	1.68088E-001	7.15298E-001	3.57870E+000	9	...........
	6	0.093333	7.31014E-001	2.80884E-004	0.00000E+000	2.05330E-004	1.68088E-001	7.31308E-001	3.57870E+000	9	...........
	7	0.106667	7.45613E-001	2.81876E-004	0.00000E+000	2.10171E-004	1.68088E-001	7.45909E-001	3.57870E+000	9	...........
	8	0.12	7.59048E-001	2.80592E-004	0.00000E+000	2.12983E-004	1.68088E-001	7.59292E-001	3.57870E+000	9	...........
	9	0.133333	7.71455E-001	2.81545E-004	0.00000E+000	2.17199E-004	1.68088E-001	7.71740E-001	3.57870E+000	9	...........
	10	0.146667	7.82922E-001	2.81042E-004	0.00000E+000	2.20034E-004	1.68088E-001	7.83211E-001	3.57870E+000	9	...........
	11	0.16	7.93598E-001	2.80943E-004	0.00000E+000	2.22956E-004	1.68088E-001	7.93875E-001	3.57870E+000	9	...........
	12	0.173333	8.03537E-001	2.81880E-004	0.00000E+000	2.26501E-004	1.68088E-001	8.03830E-001	3.57870E+000	9	...........
	13	0.186667	8.12793E-001	2.82097E-004	0.00000E+000	2.29287E-004	1.68088E-001	8.13110E-001	3.57870E+000	9	...........
	14	0.2	8.21455E-001	2.81690E-004	0.00000E+000	2.31396E-004	1.68088E-001	8.21788E-001	3.57870E+000	9	...........
	15	0.213333	8.29569E-001	2.81129E-004	0.00000E+000	2.33216E-004	1.68088E-001	8.29901E-001	3.57870E+000	9	...........
	16	0.226667	8.37202E-001	2.81268E-004	0.00000E+000	2.35478E-004	1.68088E-001	8.37563E-001	3.57870E+000	9	...........
	17	0.24	8.44374E-001	2.80079E-004	0.00000E+000	2.36491E-004	1.68088E-001	8.44741E-001	3.57870E+000	9	...........
	18	0.253333	8.51122E-001	2.80526E-004	0.00000E+000	2.38762E-004	1.68088E-001	8.51492E-001	3.57870E+000	9	...........
	19	0.266667	8.57481E-001	2.81617E-004	0.00000E+000	2.41481E-004	1.68088E-001	8.57867E-001	3.57870E+000	9	...........
	20	0.28	8.63484E-001	2.80822E-004	0.00000E+000	2.42485E-004	1.68088E-001	8.63876E-001	3.57870E+000	9	...........
	21	0.293333	8.69200E-001	2.80808E-004	0.00000E+000	2.44079E-004	1.68088E-001	8.69574E-001	3.57870E+000	9	...........
	22	0.306667	8.74612E-001	2.80986E-004	0.00000E+000	2.45753E-004	1.68088E-001	8.75001E-001	3.57870E+000	9	...........
	23	0.32	8.79733E-001	2.81106E-004	0.00000E+000	2.47299E-004	1.68088E-001	8.80134E-001	3.57870E+000	9	...........
	24	0.333333	8.84623E-001	2.81521E-004	0.00000E+000	2.49040E-004	1.68088E-001	8.85014E-001	3.57870E+000	9	...........
	25	0.346667	8.89283E-001	2.82940E-004	0.00000E+000	2.51614E-004	1.68088E-001	8.89673E-001	3.57870E+000	9	...........
	26	0.36	8.93703E-001	2.80968E-004	0.00000E+000	2.51102E-004	1.68088E-001	8.94104E-001	3.57870E+000	9	...........
	27	0.373333	8.97903E-001	2.80895E-004	0.00000E+000	2.52217E-004	1.68088E-001	8.98312E-001	3.57870E+000	9	...........
	28	0.386667	9.01957E-001	2.82159E-004	0.00000E+000	2.54495E-004	1.68088E-001	9.02349E-001	3.57870E+000	9	...........
	29	0.4	9.05813E-001	2.80865E-004	0.00000E+000	2.54411E-004	1.68088E-001	9.06214E-001	3.57870E+000	9	...........
	30	0.413333	9.09526E-001	2.80441E-004	0.00000E+000	2.55068E-004	1.68088E-001	9.09885E-001	3.57870E+000	9	...........
	31	0.426667	9.13088E-001	2.80653E-004	0.00000E+000	2.56261E-004	1.68088E-001	9.13467E-001	3.57870E+000	9	...........
	32	0.44	9.16545E-001	2.81031E-004	0.00000E+000	2.57578E-004	1.68088E-001	9.16910E-001	3.57870E+000	9	...........
	33	0.453333	9.19885E-001	2.80769E-004	0.00000E+000	2.58275E-004	1.68088E-001	9.20242E-001	3.57870E+000	9	...........
	34	0.466667	9.23084E-001	2.80992E-004	0.00000E+000	2.59379E-004	1.68088E-001	9.23400E-001	3.57870E+000	9	...........
	35	0.48	9.26124E-001	2.81127E-004	0.00000E+000	2.60359E-004	1.68088E-001	9.26457E-001	3.57870E+000	9	...........
	36	0.493333	9.29077E-001	2.81110E-004	0.00000E+000	2.61173E-004	1.68088E-001	9.29385E-001	3.57870E+000	9	...........
	37	0.506667	9.31887E-001	2.81727E-004	0.00000E+000	2.62538E-004	1.68088E-001	9.32225E-001	3.57870E+000	9	...........
	38	0.52	9.34638E-001	2.81037E-004	0.00000E+000	2.62668E-004	1.68088E-001	9.34975E-001	3.57870E+000	9	...........
	39	0.533333	9.37277E-001	2.81447E-004	0.00000E+000	2.63794E-004	1.68088E-001	9.37609E-001	3.57870E+000	9	...........
	40	0.546667	9.39858E-001	2.80621E-004	0.00000E+000	2.63744E-004	1.68088E-001	9.40176E-001	3.57870E+000	9	...........
	41	0.56	9.42352E-001	2.80348E-004	0.00000E+000	2.64187E-004	1.68088E-001	9.42668E-001	3.57870E+000	9	...........
	42	0.573333	9.44796E-001	2.81272E-004	0.00000E+000	2.65745E-004	1.68088E-001	9.45120E-001	3.57870E+000	9	...........
	43	0.586667	9.47160E-001	2.81519E-004	0.00000E+000	2.66644E-004	1.68088E-001	9.47485E-001	3.57870E+000	9	...........
	44	0.6	9.49454E-001	2.82099E-004	0.00000E+000	2.67840E-004	1.68088E-001	9.49778E-001	3.57870E+000	9	...........
	45	0.613333	9.51648E-001	2.80652E-004	0.00000E+000	2.67082E-004	1.68088E-001	9.51994E-001	3.57870E+000	9	...........
	46	0.626667	9.53813E-001	2.80971E-004	0.00000E+000	2.67994E-004	1.68088E-001	9.54118E-001	3.57870E+000	9	...........
	47	0.64	9.55897E-001	2.80988E-004	0.00000E+000	2.68595E-004	1.68088E-001	9.56224E-001	3.57870E+000	9	...........
	48	0.653333	9.57947E-001	2.80639E-004	0.00000E+000	2.68837E-004	1.68088E-001	9.58279E-001	3.57870E+000	9	...........
	49	0.666667	9.59961E-001	2.81176E-004	0.00000E+000	2.69918E-004	1.68088E-001	9.60318E-001	3.57870E+000	9	...........
	50	0.68	9.61913E-001	2.80349E-004	0.00000E+000	2.69671E-004	1.68088E-001	9.62279E-001	3.57870E+000	9	...........
	51	0.693333	9.63794E-001	2.80627E-004	0.00000E+000	2.70467E-004	1.68088E-001	9.64189E-001	3.57870E+000	9	...........
	52	0.706667	9.65661E-001	2.80473E-004	0.00000E+000	2.70842E-004	1.68088E-001	9.66066E-001	3.57870E+000	9	...........
	53	0.72	9.67476E-001	2.81974E-004	0.00000E+000	2.72804E-004	1.68088E-001	9.67870E-001	3.57870E+000	9	...........
	54	0.733333	9.69257E-001	2.81065E-004	0.00000E+000	2.72424E-004	1.68088E-001	9.69669E-001	3.57870E+000	9	...........
	55	0.746667	9.71010E-001	2.80795E-004	0.00000E+000	2.72655E-004	1.68088E-001	9.71461E-001	3.57870E+000	9	...........
	56	0.76	9.72805E-001	2.81032E-004	0.00000E+000	2.73390E-004	1.68088E-001	9.73224E-001	3.57870E+000	9	...........
	57	0.773333	9.74524E-001	2.80182E-004	0.00000E+000	2.73044E-004	1.68088E-001	9.74901E-001	3.57870E+000	9	...........
	58	0.786667	9.76152E-001	2.81880E-004	0.00000E+000	2.75157E-004	1.68088E-001	9.76560E-001	3.57870E+000	9	...........
	59	0.8	9.77818E-001	2.81516E-004	0.00000E+000	2.75271E-004	1.68088E-001	9.78217E-001	3.57870E+000	9	...........
	60	0.813333	9.79425E-001	2.81186E-004	0.00000E+000	2.75400E-004	1.68088E-001	9.79801E-001	3.57870E+000	9	...........
	61	0.826667	9.81009E-001	2.81297E-004	0.00000E+000	2.75955E-004	1.68088E-001	9.81378E-001	3.57886E+000	9	...........
	62	0.84	9.82536E-001	2.81887E-004	0.00000E+000	2.76964E-004	1.68088E-001	9.82917E-001	3.57890E+000	9	...........
	63	0.853333	9.84063E-001	2.80701E-004	0.00000E+000	2.76228E-004	1.68088E-001	9.84452E-001	3.57890E+000	9	...........
	64	0.866667	9.85569E-001	2.81300E-004	0.00000E+000	2.77241E-004	1.68088E-001	9.85936E-001	3.57890E+000	9	...........
	65	0.88	9.87039E-001	2.80421E-004	0.00000E+000	2.76786E-004	1.68088E-001	9.87411E-001	3.57890E+000	9	...........
	66	0.893333	9.88498E-001	2.81425E-004	0.00000E+000	2.78188E-004	1.68088E-001	9.88832E-001	3.57890E+000	9	...........
	67	0.906667	9.89885E-001	2.80503E-004	0.00000E+000	2.77666E-004	1.68088E-001	9.90231E-001	3.57890E+000	9	...........
	68	0.92	9.91289E-001	2.80667E-004	0.00000E+000	2.78222E-004	1.68088E-001	9.91605E-001	3.57890E+000	9	...........
	69	0.933333	9.92658E-001	2.80762E-004	0.00000E+000	2.78700E-004	1.68088E-001	9.92992E-001	3.57890E+000	9	...........
	70	0.946667	9.94013E-001	2.81286E-004	0.00000E+000	2.79601E-004	1.68088E-001	9.94346E-001	3.57890E+000	9	...........
	71	0.96	9.95373E-001	2.81994E-004	0.00000E+000	2.80689E-004	1.68088E-001	9.95684E-001	3.57890E+000	9	...........
	72	0.97333	9.96686E-001	2.80873E-004	0.00000E+000	2.79942E-004	1.68088E-001	9.97005E-001	3.57890E+000	9	...........
	73	0.98667	9.98025E-001	2.80368E-004	0.00000E+000	2.79814E-004	1.68088E-001	9.98360E-001	3.57890E+000	9	...........
	74	1	9.99302E-001	2.80882E-004	0.00000E+000	2.80686E-004	1.68088E-001	9.99646E-001	3.57890E+000	9	...........
	75	1.00333	1.00008E+000	2.79269E-004	0.00000E+000	2.79290E-004	1.68088E-001	1.00043E+000	3.57890E+000	9	...........
STARTTIMEOFFSET	QUANT	1214.498	Start Time Offset (s)
