EXPLAIN
TAG	PWR800_CHARGE
TITLE	LABEL	PWR Cyclic Charge Discharge (Cell) - Charge Step	Test &Identifier
DATE	LABEL	7-7-2017	Date
TIME	LABEL	15:44:50	Time
NOTES	NOTES	3	&Notes...
	supercap test cell
	2.8mg
	6M KOH
PSTAT	PSTAT	IFC5000-01520	Potentiostat
CAPACITY	QUANT	1.00000E-003	Capacity (A-hr)
CELLTYPE	SELECTOR	1	&Cell Type
WORKINGCONNECTION	SELECTOR	0	&Working Lead
MAXCHARGETIME	VARIABLEANDUNITS	1.00000E+002	s	1.00000E+002	second(s)	Max &Charge Time
CHARGECURRENT	QUANT	2.80000E-004	&Charge Current (A) 
VOLTAGEFINISH	TWOPARAM	F	1.00000E-003	3.60000E+003	&Voltage Finish	 I (A) < 	Max Time(s)
SAMPLETIME	QUANT	1.00000E-002	Sa&mple Period (s)
CHARGESTOPAT1	MULTIPARAM	4	1.00000E+000	Charge Stop At &1	Voltage > Limit	V
CHARGESTOPAT2	MULTIPARAM	0	0.00000E+000	Charge Stop At &2	None	N/A
AESBHCSELECTOR	TOGGLE	F	Save Both Half Cells
IRCOMP	TOGGLE	F	IR &Measure
EOC	QUANT	0	Open Circuit (V)
SEQUENCER	TOGGLE	TRUE	Run as Sequence
PSTATMODEL	IQUANT	53	Pstat Model
PSTATSECTION	LABEL	IFC5000-01520	Pstat Section
PSTATSERIALNO	LABEL	01520	Pstat Serial Number
CTRLMODE	IQUANT	0	Control Mode
ELECTROMETER	IQUANT	1	RE=0 or CS=1
IESTAB	IQUANT	0	I/E Stability
CASPEED	IQUANT	4	Control Amp Speed
CONVENTION	IQUANT	1	Current Convention
ICHRANGE	IQUANT	2	Ich Range
ICHRANGEMODE	TOGGLE	T	Ich Auto Range
ICHOFFSETENABLE	TOGGLE	F	Ich Offset Enable
ICHOFFSET	QUANT	0	Ich Offset (V)
ICHFILTER	IQUANT	1	Ich Filter
VCHRANGE	IQUANT	2	Vch Range
VCHRANGEMODE	TOGGLE	T	Vch Auto Range
VCHOFFSETENABLE	TOGGLE	F	Vch Offset Enable
VCHOFFSET	QUANT	0	Vch Offset (V)
VCHFILTER	IQUANT	1	Vch Filter
IERANGELOWERLIMIT	IQUANT	9	I/E Range Lower Limit
IERANGEMODE	TOGGLE	F	I/E AutoRange
IERANGE	IQUANT	9	I/E Range
ACHSELECT	IQUANT	1	Ach Select
ACHRANGE	IQUANT	2	Ach Range
ACHOFFSETENABLE	TOGGLE	F	Ach Offset Enable
ACHOFFSET	QUANT	0	Ach Offset (V)
ACHFILTER	IQUANT	1	Ach Filter
CABLEID	IQUANT	14	Cable ID
DCCALDATE	LABEL	5-7-2017	DC Calibration Date
ACCALDATE	LABEL	12/3/2015	AC Calibration Date
FRAMEWORKVERSION	QUANT	7.01	Framework Version
INSTRUMENTVERSION	LABEL	4.00	Instrument Version
CURVE	TABLE	127
	Pt	T	Vf	Im	Vu	Pwr	Sig	Ach	Temp	IERange	Over
	#	s	V	A	V	W	V	V	deg C	#	bits
	0	0.013333	5.73652E-001	2.81158E-004	0.00000E+000	1.61287E-004	1.68088E-001	5.73908E-001	3.57840E+000	9	...........
	1	0.026667	6.02006E-001	2.81239E-004	0.00000E+000	1.69308E-004	1.68088E-001	6.02306E-001	3.57840E+000	9	...........
	2	0.04	6.25875E-001	2.81036E-004	0.00000E+000	1.75893E-004	1.68088E-001	6.26123E-001	3.57840E+000	9	...........
	3	0.053333	6.46350E-001	2.80692E-004	0.00000E+000	1.81425E-004	1.68088E-001	6.46613E-001	3.57840E+000	9	...........
	4	0.066667	6.64333E-001	2.80977E-004	0.00000E+000	1.86663E-004	1.68088E-001	6.64564E-001	3.57840E+000	9	...........
	5	0.08	6.80320E-001	2.81118E-004	0.00000E+000	1.91250E-004	1.68088E-001	6.80558E-001	3.57840E+000	9	...........
	6	0.093333	6.94647E-001	2.80928E-004	0.00000E+000	1.95146E-004	1.68088E-001	6.94927E-001	3.57840E+000	9	...........
	7	0.106667	7.07659E-001	2.81500E-004	0.00000E+000	1.99206E-004	1.68088E-001	7.07939E-001	3.57840E+000	9	...........
	8	0.12	7.19547E-001	2.80714E-004	0.00000E+000	2.01987E-004	1.68088E-001	7.19833E-001	3.57840E+000	9	...........
	9	0.133333	7.30413E-001	2.80711E-004	0.00000E+000	2.05035E-004	1.68088E-001	7.30705E-001	3.57840E+000	9	...........
	10	0.146667	7.40440E-001	2.80987E-004	0.00000E+000	2.08054E-004	1.68088E-001	7.40744E-001	3.57840E+000	9	...........
	11	0.16	7.49766E-001	2.81615E-004	0.00000E+000	2.11145E-004	1.68088E-001	7.50072E-001	3.57840E+000	9	...........
	12	0.173333	7.58467E-001	2.80730E-004	0.00000E+000	2.12925E-004	1.68088E-001	7.58731E-001	3.57840E+000	9	...........
	13	0.186667	7.66530E-001	2.81975E-004	0.00000E+000	2.16143E-004	1.68088E-001	7.66810E-001	3.57840E+000	9	...........
	14	0.2	7.74103E-001	2.81540E-004	0.00000E+000	2.17941E-004	1.68088E-001	7.74396E-001	3.57840E+000	9	...........
	15	0.213333	7.81218E-001	2.81392E-004	0.00000E+000	2.19828E-004	1.68088E-001	7.81524E-001	3.57840E+000	9	...........
	16	0.226667	7.87893E-001	2.81361E-004	0.00000E+000	2.21682E-004	1.68088E-001	7.88185E-001	3.57840E+000	9	...........
	17	0.24	7.94224E-001	2.81026E-004	0.00000E+000	2.23198E-004	1.68088E-001	7.94527E-001	3.57840E+000	9	...........
	18	0.253333	8.00173E-001	2.80531E-004	0.00000E+000	2.24474E-004	1.68088E-001	8.00462E-001	3.57840E+000	9	...........
	19	0.266667	8.05844E-001	2.80996E-004	0.00000E+000	2.26439E-004	1.68088E-001	8.06133E-001	3.57840E+000	9	...........
	20	0.28	8.11152E-001	2.81161E-004	0.00000E+000	2.28064E-004	1.68088E-001	8.11466E-001	3.57840E+000	9	...........
	21	0.293333	8.16233E-001	2.81028E-004	0.00000E+000	2.29385E-004	1.68088E-001	8.16568E-001	3.57840E+000	9	...........
	22	0.306667	8.21140E-001	2.80642E-004	0.00000E+000	2.30446E-004	1.68088E-001	8.21455E-001	3.57840E+000	9	...........
	23	0.32	8.25773E-001	2.81211E-004	0.00000E+000	2.32216E-004	1.68088E-001	8.26081E-001	3.57840E+000	9	...........
	24	0.333333	8.30163E-001	2.81336E-004	0.00000E+000	2.33555E-004	1.68088E-001	8.30485E-001	3.57840E+000	9	...........
	25	0.346667	8.34352E-001	2.80421E-004	0.00000E+000	2.33970E-004	1.68088E-001	8.34688E-001	3.57840E+000	9	...........
	26	0.36	8.38441E-001	2.80586E-004	0.00000E+000	2.35254E-004	1.68088E-001	8.38778E-001	3.57840E+000	9	...........
	27	0.373333	8.42354E-001	2.81096E-004	0.00000E+000	2.36782E-004	1.68088E-001	8.42717E-001	3.57840E+000	9	...........
	28	0.386667	8.46168E-001	2.81247E-004	0.00000E+000	2.37982E-004	1.68088E-001	8.46498E-001	3.57840E+000	9	...........
	29	0.4	8.49773E-001	2.81327E-004	0.00000E+000	2.39064E-004	1.68088E-001	8.50129E-001	3.57840E+000	9	...........
	30	0.413333	8.53257E-001	2.81097E-004	0.00000E+000	2.39848E-004	1.68088E-001	8.53596E-001	3.57840E+000	9	...........
	31	0.426667	8.56594E-001	2.80790E-004	0.00000E+000	2.40523E-004	1.68088E-001	8.56992E-001	3.57840E+000	9	...........
	32	0.44	8.59841E-001	2.81454E-004	0.00000E+000	2.42006E-004	1.68088E-001	8.60218E-001	3.57840E+000	9	...........
	33	0.453333	8.62977E-001	2.81774E-004	0.00000E+000	2.43165E-004	1.68088E-001	8.63342E-001	3.57840E+000	9	...........
	34	0.466667	8.66010E-001	2.80712E-004	0.00000E+000	2.43099E-004	1.68088E-001	8.66386E-001	3.57840E+000	9	...........
	35	0.48	8.68966E-001	2.80773E-004	0.00000E+000	2.43982E-004	1.68088E-001	8.69328E-001	3.57840E+000	9	...........
	36	0.493333	8.71800E-001	2.81130E-004	0.00000E+000	2.45089E-004	1.68088E-001	8.72162E-001	3.57840E+000	9	...........
	37	0.506667	8.74570E-001	2.80579E-004	0.00000E+000	2.45386E-004	1.68088E-001	8.74926E-001	3.57840E+000	9	...........
	38	0.52	8.77263E-001	2.81925E-004	0.00000E+000	2.47323E-004	1.68088E-001	8.77606E-001	3.57840E+000	9	...........
	39	0.533333	8.79850E-001	2.80089E-004	0.00000E+000	2.46436E-004	1.68088E-001	8.80184E-001	3.57840E+000	9	...........
	40	0.546667	8.82435E-001	2.81231E-004	0.00000E+000	2.48169E-004	1.68088E-001	8.82771E-001	3.57840E+000	9	...........
	41	0.56	8.84932E-001	2.80988E-004	0.00000E+000	2.48655E-004	1.68088E-001	8.85278E-001	3.57840E+000	9	...........
	42	0.573333	8.87369E-001	2.81360E-004	0.00000E+000	2.49670E-004	1.68088E-001	8.87703E-001	3.57840E+000	9	...........
	43	0.586667	8.89727E-001	2.81740E-004	0.00000E+000	2.50671E-004	1.68088E-001	8.90042E-001	3.57840E+000	9	...........
	44	0.6	8.92014E-001	2.81076E-004	0.00000E+000	2.50724E-004	1.68088E-001	8.92311E-001	3.57840E+000	9	...........
	45	0.613333	8.94251E-001	2.80827E-004	0.00000E+000	2.51130E-004	1.68088E-001	8.94592E-001	3.57840E+000	9	...........
	46	0.626667	8.96493E-001	2.81319E-004	0.00000E+000	2.52200E-004	1.68088E-001	8.96813E-001	3.57840E+000	9	...........
	47	0.64	8.98615E-001	2.81782E-004	0.00000E+000	2.53213E-004	1.68088E-001	8.98949E-001	3.57840E+000	9	...........
	48	0.653333	9.00724E-001	2.80199E-004	0.00000E+000	2.52382E-004	1.68088E-001	9.01083E-001	3.57840E+000	9	...........
	49	0.666667	9.02811E-001	2.80623E-004	0.00000E+000	2.53350E-004	1.68088E-001	9.03170E-001	3.57840E+000	9	...........
	50	0.68	9.04813E-001	2.80629E-004	0.00000E+000	2.53917E-004	1.68088E-001	9.05192E-001	3.57840E+000	9	...........
	51	0.693333	9.06764E-001	2.81095E-004	0.00000E+000	2.54887E-004	1.68088E-001	9.07142E-001	3.57840E+000	9	...........
	52	0.706667	9.08735E-001	2.80736E-004	0.00000E+000	2.55114E-004	1.68088E-001	9.09083E-001	3.57840E+000	9	...........
	53	0.72	9.10655E-001	2.81271E-004	0.00000E+000	2.56141E-004	1.68088E-001	9.10975E-001	3.57840E+000	9	...........
	54	0.733333	9.12534E-001	2.80110E-004	0.00000E+000	2.55610E-004	1.68088E-001	9.12858E-001	3.57840E+000	9	...........
	55	0.746667	9.14377E-001	2.80870E-004	0.00000E+000	2.56821E-004	1.68088E-001	9.14734E-001	3.57840E+000	9	...........
	56	0.76	9.16189E-001	2.79603E-004	0.00000E+000	2.56169E-004	1.68088E-001	9.16548E-001	3.57840E+000	9	...........
	57	0.773333	9.17957E-001	2.80965E-004	0.00000E+000	2.57914E-004	1.68088E-001	9.18330E-001	3.57840E+000	9	...........
	58	0.786667	9.19716E-001	2.81143E-004	0.00000E+000	2.58572E-004	1.68088E-001	9.20054E-001	3.57840E+000	9	...........
	59	0.8	9.21470E-001	2.80814E-004	0.00000E+000	2.58761E-004	1.68088E-001	9.21788E-001	3.57840E+000	9	...........
	60	0.813333	9.23130E-001	2.80797E-004	0.00000E+000	2.59212E-004	1.68088E-001	9.23458E-001	3.57840E+000	9	...........
	61	0.826667	9.24822E-001	2.80637E-004	0.00000E+000	2.59539E-004	1.68088E-001	9.25142E-001	3.57840E+000	9	...........
	62	0.84	9.26435E-001	2.81324E-004	0.00000E+000	2.60629E-004	1.68088E-001	9.26800E-001	3.57840E+000	9	...........
	63	0.853333	9.28074E-001	2.80641E-004	0.00000E+000	2.60456E-004	1.68088E-001	9.28421E-001	3.57840E+000	9	...........
	64	0.866667	9.29650E-001	2.80653E-004	0.00000E+000	2.60909E-004	1.68088E-001	9.29977E-001	3.57840E+000	9	...........
	65	0.88	9.31174E-001	2.81280E-004	0.00000E+000	2.61921E-004	1.68088E-001	9.31532E-001	3.57840E+000	9	...........
	66	0.893333	9.32726E-001	2.81417E-004	0.00000E+000	2.62485E-004	1.68088E-001	9.33063E-001	3.57909E+000	9	...........
	67	0.906667	9.34255E-001	2.80753E-004	0.00000E+000	2.62295E-004	1.68088E-001	9.34602E-001	3.57950E+000	9	...........
	68	0.92	9.35786E-001	2.80595E-004	0.00000E+000	2.62577E-004	1.68088E-001	9.36143E-001	3.57950E+000	9	...........
	69	0.933333	9.37279E-001	2.81216E-004	0.00000E+000	2.63578E-004	1.68088E-001	9.37621E-001	3.57950E+000	9	...........
	70	0.946667	9.38767E-001	2.80294E-004	0.00000E+000	2.63131E-004	1.68088E-001	9.39136E-001	3.57950E+000	9	...........
	71	0.96	9.40219E-001	2.80923E-004	0.00000E+000	2.64129E-004	1.68088E-001	9.40581E-001	3.57950E+000	9	...........
	72	0.97333	9.41641E-001	2.80188E-004	0.00000E+000	2.63836E-004	1.68088E-001	9.41974E-001	3.57950E+000	9	...........
	73	0.98667	9.43041E-001	2.81282E-004	0.00000E+000	2.65260E-004	1.68088E-001	9.43374E-001	3.57950E+000	9	...........
	74	1	9.44429E-001	2.80688E-004	0.00000E+000	2.65090E-004	1.68088E-001	9.44781E-001	3.57950E+000	9	...........
	75	1.01333	9.45782E-001	2.80730E-004	0.00000E+000	2.65510E-004	1.68088E-001	9.46190E-001	3.57950E+000	9	...........
	76	1.02667	9.47224E-001	2.80561E-004	0.00000E+000	2.65754E-004	1.68088E-001	9.47556E-001	3.57950E+000	9	...........
	77	1.04	9.48556E-001	2.81294E-004	0.00000E+000	2.66823E-004	1.68088E-001	9.48890E-001	3.57950E+000	9	...........
	78	1.05333	9.49896E-001	2.80396E-004	0.00000E+000	2.66347E-004	1.68088E-001	9.50248E-001	3.57950E+000	9	...........
	79	1.06667	9.51228E-001	2.80485E-004	0.00000E+000	2.66806E-004	1.68088E-001	9.51569E-001	3.57950E+000	9	...........
	80	1.08	9.52520E-001	2.79568E-004	0.00000E+000	2.66294E-004	1.68088E-001	9.52869E-001	3.57950E+000	9	...........
	81	1.09333	9.53788E-001	2.81074E-004	0.00000E+000	2.68085E-004	1.68088E-001	9.54123E-001	3.57950E+000	9	...........
	82	1.10667	9.55052E-001	2.81760E-004	0.00000E+000	2.69095E-004	1.68088E-001	9.55403E-001	3.57950E+000	9	...........
	83	1.12	9.56265E-001	2.81056E-004	0.00000E+000	2.68764E-004	1.68088E-001	9.56609E-001	3.57950E+000	9	...........
	84	1.13333	9.57498E-001	2.80991E-004	0.00000E+000	2.69048E-004	1.68088E-001	9.57839E-001	3.57950E+000	9	...........
	85	1.14667	9.58692E-001	2.81379E-004	0.00000E+000	2.69756E-004	1.68088E-001	9.59061E-001	3.57950E+000	9	...........
	86	1.16	9.59864E-001	2.80648E-004	0.00000E+000	2.69384E-004	1.68088E-001	9.60238E-001	3.57950E+000	9	...........
	87	1.17333	9.61019E-001	2.80713E-004	0.00000E+000	2.69770E-004	1.68088E-001	9.61396E-001	3.57950E+000	9	...........
	88	1.18667	9.62182E-001	2.81161E-004	0.00000E+000	2.70528E-004	1.68088E-001	9.62551E-001	3.57950E+000	9	...........
	89	1.2	9.63347E-001	2.80314E-004	0.00000E+000	2.70039E-004	1.68088E-001	9.63723E-001	3.57950E+000	9	...........
	90	1.21333	9.64462E-001	2.80832E-004	0.00000E+000	2.70852E-004	1.68088E-001	9.64833E-001	3.57950E+000	9	...........
	91	1.22667	9.65575E-001	2.81262E-004	0.00000E+000	2.71579E-004	1.68088E-001	9.65976E-001	3.57950E+000	9	...........
	92	1.24	9.66700E-001	2.81105E-004	0.00000E+000	2.71745E-004	1.68088E-001	9.67094E-001	3.57950E+000	9	...........
	93	1.25333	9.67832E-001	2.81725E-004	0.00000E+000	2.72663E-004	1.68088E-001	9.68214E-001	3.57950E+000	9	...........
	94	1.26667	9.68932E-001	2.81933E-004	0.00000E+000	2.73174E-004	1.68088E-001	9.69329E-001	3.57950E+000	9	...........
	95	1.28	9.70016E-001	2.80761E-004	0.00000E+000	2.72342E-004	1.68088E-001	9.70436E-001	3.57950E+000	9	...........
	96	1.29333	9.71090E-001	2.81147E-004	0.00000E+000	2.73019E-004	1.68088E-001	9.71514E-001	3.57950E+000	9	...........
	97	1.30667	9.72207E-001	2.80644E-004	0.00000E+000	2.72844E-004	1.68088E-001	9.72620E-001	3.57950E+000	9	...........
	98	1.32	9.73304E-001	2.80895E-004	0.00000E+000	2.73396E-004	1.68088E-001	9.73676E-001	3.57950E+000	9	...........
	99	1.33333	9.74395E-001	2.80940E-004	0.00000E+000	2.73746E-004	1.68088E-001	9.74755E-001	3.57950E+000	9	...........
	100	1.34667	9.75448E-001	2.81595E-004	0.00000E+000	2.74681E-004	1.68088E-001	9.75789E-001	3.57950E+000	9	...........
	101	1.36	9.76480E-001	2.80705E-004	0.00000E+000	2.74103E-004	1.68088E-001	9.76835E-001	3.57950E+000	9	...........
	102	1.37333	9.77494E-001	2.81130E-004	0.00000E+000	2.74803E-004	1.68088E-001	9.77864E-001	3.57950E+000	9	...........
	103	1.38667	9.78563E-001	2.81476E-004	0.00000E+000	2.75442E-004	1.68088E-001	9.78914E-001	3.57950E+000	9	...........
	104	1.4	9.79582E-001	2.80485E-004	0.00000E+000	2.74759E-004	1.68088E-001	9.79924E-001	3.57950E+000	9	...........
	105	1.41333	9.80584E-001	2.80368E-004	0.00000E+000	2.74924E-004	1.68088E-001	9.80939E-001	3.57950E+000	9	...........
	106	1.42667	9.81609E-001	2.81512E-004	0.00000E+000	2.76335E-004	1.68088E-001	9.81957E-001	3.57950E+000	9	...........
	107	1.44	9.82605E-001	2.80732E-004	0.00000E+000	2.75849E-004	1.68088E-001	9.82964E-001	3.57950E+000	9	...........
	108	1.45333	9.83566E-001	2.80904E-004	0.00000E+000	2.76288E-004	1.68088E-001	9.83946E-001	3.57950E+000	9	...........
	109	1.46667	9.84552E-001	2.80732E-004	0.00000E+000	2.76396E-004	1.68088E-001	9.84940E-001	3.57950E+000	9	...........
	110	1.48	9.85504E-001	2.81245E-004	0.00000E+000	2.77168E-004	1.68088E-001	9.85885E-001	3.57950E+000	9	...........
	111	1.49333	9.86480E-001	2.81853E-004	0.00000E+000	2.78043E-004	1.68088E-001	9.86864E-001	3.57950E+000	9	...........
	112	1.50667	9.87441E-001	2.81593E-004	0.00000E+000	2.78057E-004	1.68088E-001	9.87829E-001	3.57950E+000	9	...........
	113	1.52	9.88413E-001	2.81372E-004	0.00000E+000	2.78112E-004	1.68088E-001	9.88785E-001	3.57950E+000	9	...........
	114	1.53333	9.89376E-001	2.81010E-004	0.00000E+000	2.78024E-004	1.68088E-001	9.89739E-001	3.57950E+000	9	...........
	115	1.54667	9.90280E-001	2.80794E-004	0.00000E+000	2.78065E-004	1.68088E-001	9.90664E-001	3.57950E+000	9	...........
	116	1.56	9.91204E-001	2.80818E-004	0.00000E+000	2.78348E-004	1.68088E-001	9.91569E-001	3.57950E+000	9	...........
	117	1.57333	9.92098E-001	2.81131E-004	0.00000E+000	2.78910E-004	1.68088E-001	9.92470E-001	3.57950E+000	9	...........
	118	1.58667	9.92987E-001	2.81240E-004	0.00000E+000	2.79268E-004	1.68088E-001	9.93361E-001	3.57950E+000	9	...........
	119	1.6	9.93856E-001	2.80699E-004	0.00000E+000	2.78975E-004	1.68088E-001	9.94252E-001	3.57950E+000	9	...........
	120	1.61333	9.94763E-001	2.80914E-004	0.00000E+000	2.79443E-004	1.68088E-001	9.95149E-001	3.57950E+000	9	...........
	121	1.62667	9.95696E-001	2.81258E-004	0.00000E+000	2.80047E-004	1.68088E-001	9.96070E-001	3.57950E+000	9	...........
	122	1.64	9.96563E-001	2.81439E-004	0.00000E+000	2.80472E-004	1.68088E-001	9.96971E-001	3.57950E+000	9	...........
	123	1.65333	9.97444E-001	2.80267E-004	0.00000E+000	2.79550E-004	1.68088E-001	9.97840E-001	3.57950E+000	9	...........
	124	1.66667	9.98302E-001	2.80722E-004	0.00000E+000	2.80245E-004	1.68088E-001	9.98696E-001	3.57950E+000	9	...........
	125	1.68	9.99133E-001	2.80847E-004	0.00000E+000	2.80604E-004	1.68088E-001	9.99515E-001	3.57950E+000	9	...........
	126	1.68833	9.99812E-001	2.81126E-004	0.00000E+000	2.81073E-004	1.68088E-001	1.00022E+000	3.57950E+000	9	...........
STARTTIMEOFFSET	QUANT	433.0585	Start Time Offset (s)
