EXPLAIN
TAG	PWR800_CHARGE
TITLE	LABEL	PWR Cyclic Charge Discharge (Cell) - Charge Step	Test &Identifier
DATE	LABEL	7-7-2017	Date
TIME	LABEL	15:37:58	Time
NOTES	NOTES	3	&Notes...
	supercap test cell
	2.8mg
	6M KOH
PSTAT	PSTAT	IFC5000-01520	Potentiostat
CAPACITY	QUANT	1.00000E-003	Capacity (A-hr)
CELLTYPE	SELECTOR	1	&Cell Type
WORKINGCONNECTION	SELECTOR	0	&Working Lead
MAXCHARGETIME	VARIABLEANDUNITS	1.00000E+002	s	1.00000E+002	second(s)	Max &Charge Time
CHARGECURRENT	QUANT	2.80000E-004	&Charge Current (A) 
VOLTAGEFINISH	TWOPARAM	F	1.00000E-003	3.60000E+003	&Voltage Finish	 I (A) < 	Max Time(s)
SAMPLETIME	QUANT	1.00000E-002	Sa&mple Period (s)
CHARGESTOPAT1	MULTIPARAM	4	1.00000E+000	Charge Stop At &1	Voltage > Limit	V
CHARGESTOPAT2	MULTIPARAM	0	0.00000E+000	Charge Stop At &2	None	N/A
AESBHCSELECTOR	TOGGLE	F	Save Both Half Cells
IRCOMP	TOGGLE	F	IR &Measure
EOC	QUANT	0	Open Circuit (V)
SEQUENCER	TOGGLE	TRUE	Run as Sequence
PSTATMODEL	IQUANT	53	Pstat Model
PSTATSECTION	LABEL	IFC5000-01520	Pstat Section
PSTATSERIALNO	LABEL	01520	Pstat Serial Number
CTRLMODE	IQUANT	0	Control Mode
ELECTROMETER	IQUANT	1	RE=0 or CS=1
IESTAB	IQUANT	0	I/E Stability
CASPEED	IQUANT	4	Control Amp Speed
CONVENTION	IQUANT	1	Current Convention
ICHRANGE	IQUANT	2	Ich Range
ICHRANGEMODE	TOGGLE	T	Ich Auto Range
ICHOFFSETENABLE	TOGGLE	F	Ich Offset Enable
ICHOFFSET	QUANT	0	Ich Offset (V)
ICHFILTER	IQUANT	1	Ich Filter
VCHRANGE	IQUANT	2	Vch Range
VCHRANGEMODE	TOGGLE	T	Vch Auto Range
VCHOFFSETENABLE	TOGGLE	F	Vch Offset Enable
VCHOFFSET	QUANT	0	Vch Offset (V)
VCHFILTER	IQUANT	1	Vch Filter
IERANGELOWERLIMIT	IQUANT	9	I/E Range Lower Limit
IERANGEMODE	TOGGLE	F	I/E AutoRange
IERANGE	IQUANT	9	I/E Range
ACHSELECT	IQUANT	1	Ach Select
ACHRANGE	IQUANT	2	Ach Range
ACHOFFSETENABLE	TOGGLE	F	Ach Offset Enable
ACHOFFSET	QUANT	0	Ach Offset (V)
ACHFILTER	IQUANT	1	Ach Filter
CABLEID	IQUANT	14	Cable ID
DCCALDATE	LABEL	5-7-2017	DC Calibration Date
ACCALDATE	LABEL	12/3/2015	AC Calibration Date
FRAMEWORKVERSION	QUANT	7.01	Framework Version
INSTRUMENTVERSION	LABEL	4.00	Instrument Version
CURVE	TABLE	187
	Pt	T	Vf	Im	Vu	Pwr	Sig	Ach	Temp	IERange	Over
	#	s	V	A	V	W	V	V	deg C	#	bits
	0	0.013333	5.52534E-001	2.81096E-004	0.00000E+000	1.55315E-004	1.68088E-001	5.52807E-001	3.57840E+000	9	...........
	1	0.026667	5.79588E-001	2.80986E-004	0.00000E+000	1.62856E-004	1.68088E-001	5.79907E-001	3.57840E+000	9	...........
	2	0.04	6.01994E-001	2.81817E-004	0.00000E+000	1.69652E-004	1.68088E-001	6.02332E-001	3.57840E+000	9	...........
	3	0.053333	6.21085E-001	2.80451E-004	0.00000E+000	1.74184E-004	1.68088E-001	6.21352E-001	3.57840E+000	9	...........
	4	0.066667	6.37598E-001	2.80801E-004	0.00000E+000	1.79038E-004	1.68088E-001	6.37898E-001	3.57840E+000	9	...........
	5	0.08	6.52170E-001	2.80732E-004	0.00000E+000	1.83085E-004	1.68088E-001	6.52459E-001	3.57840E+000	9	...........
	6	0.093333	6.65171E-001	2.81115E-004	0.00000E+000	1.86989E-004	1.68088E-001	6.65439E-001	3.57840E+000	9	...........
	7	0.106667	6.76838E-001	2.80463E-004	0.00000E+000	1.89828E-004	1.68088E-001	6.77119E-001	3.57840E+000	9	...........
	8	0.12	6.87463E-001	2.81163E-004	0.00000E+000	1.93289E-004	1.68088E-001	6.87739E-001	3.57840E+000	9	...........
	9	0.133333	6.97163E-001	2.81480E-004	0.00000E+000	1.96238E-004	1.68088E-001	6.97449E-001	3.57840E+000	9	...........
	10	0.146667	7.06129E-001	2.80410E-004	0.00000E+000	1.98006E-004	1.68088E-001	7.06399E-001	3.57840E+000	9	...........
	11	0.16	7.14373E-001	2.80719E-004	0.00000E+000	2.00538E-004	1.68088E-001	7.14634E-001	3.57840E+000	9	...........
	12	0.173333	7.22096E-001	2.80969E-004	0.00000E+000	2.02886E-004	1.68088E-001	7.22334E-001	3.57840E+000	9	...........
	13	0.186667	7.29251E-001	2.80970E-004	0.00000E+000	2.04898E-004	1.68088E-001	7.29496E-001	3.57840E+000	9	...........
	14	0.2	7.35908E-001	2.80489E-004	0.00000E+000	2.06414E-004	1.68088E-001	7.36164E-001	3.57840E+000	9	...........
	15	0.213333	7.42163E-001	2.80731E-004	0.00000E+000	2.08349E-004	1.68088E-001	7.42444E-001	3.57840E+000	9	...........
	16	0.226667	7.48082E-001	2.80671E-004	0.00000E+000	2.09965E-004	1.68088E-001	7.48357E-001	3.57840E+000	9	...........
	17	0.24	7.53654E-001	2.81171E-004	0.00000E+000	2.11906E-004	1.68088E-001	7.53934E-001	3.57840E+000	9	...........
	18	0.253333	7.58929E-001	2.80611E-004	0.00000E+000	2.12964E-004	1.68088E-001	7.59216E-001	3.57840E+000	9	...........
	19	0.266667	7.63953E-001	2.80475E-004	0.00000E+000	2.14270E-004	1.68088E-001	7.64255E-001	3.57840E+000	9	...........
	20	0.28	7.68722E-001	2.81507E-004	0.00000E+000	2.16400E-004	1.68088E-001	7.69057E-001	3.57840E+000	9	...........
	21	0.293333	7.73275E-001	2.81740E-004	0.00000E+000	2.17862E-004	1.68088E-001	7.73580E-001	3.57840E+000	9	...........
	22	0.306667	7.77596E-001	2.81155E-004	0.00000E+000	2.18625E-004	1.68088E-001	7.77894E-001	3.57840E+000	9	...........
	23	0.32	7.81789E-001	2.80812E-004	0.00000E+000	2.19535E-004	1.68088E-001	7.82101E-001	3.57840E+000	9	...........
	24	0.333333	7.85783E-001	2.81350E-004	0.00000E+000	2.21080E-004	1.68088E-001	7.86086E-001	3.57840E+000	9	...........
	25	0.346667	7.89653E-001	2.81733E-004	0.00000E+000	2.22471E-004	1.68088E-001	7.89955E-001	3.57840E+000	9	...........
	26	0.36	7.93381E-001	2.80507E-004	0.00000E+000	2.22549E-004	1.68088E-001	7.93699E-001	3.57840E+000	9	...........
	27	0.373333	7.96955E-001	2.81581E-004	0.00000E+000	2.24407E-004	1.68088E-001	7.97250E-001	3.57840E+000	9	...........
	28	0.386667	8.00353E-001	2.81247E-004	0.00000E+000	2.25097E-004	1.68088E-001	8.00683E-001	3.57840E+000	9	...........
	29	0.4	8.03656E-001	2.81060E-004	0.00000E+000	2.25875E-004	1.68088E-001	8.03978E-001	3.57840E+000	9	...........
	30	0.413333	8.06843E-001	2.81187E-004	0.00000E+000	2.26874E-004	1.68088E-001	8.07193E-001	3.57840E+000	9	...........
	31	0.426667	8.09934E-001	2.81862E-004	0.00000E+000	2.28290E-004	1.68088E-001	8.10272E-001	3.57840E+000	9	...........
	32	0.44	8.12937E-001	2.81574E-004	0.00000E+000	2.28902E-004	1.68088E-001	8.13263E-001	3.57840E+000	9	...........
	33	0.453333	8.15849E-001	2.81129E-004	0.00000E+000	2.29359E-004	1.68088E-001	8.16218E-001	3.57840E+000	9	...........
	34	0.466667	8.18742E-001	2.81534E-004	0.00000E+000	2.30503E-004	1.68088E-001	8.19087E-001	3.57840E+000	9	...........
	35	0.48	8.21466E-001	2.80702E-004	0.00000E+000	2.30587E-004	1.68088E-001	8.21822E-001	3.57840E+000	9	...........
	36	0.493333	8.24132E-001	2.81669E-004	0.00000E+000	2.32133E-004	1.68088E-001	8.24483E-001	3.57840E+000	9	...........
	37	0.506667	8.26753E-001	2.80581E-004	0.00000E+000	2.31972E-004	1.68088E-001	8.27080E-001	3.57840E+000	9	...........
	38	0.52	8.29275E-001	2.81070E-004	0.00000E+000	2.33084E-004	1.68088E-001	8.29602E-001	3.57840E+000	9	...........
	39	0.533333	8.31760E-001	2.81394E-004	0.00000E+000	2.34052E-004	1.68088E-001	8.32108E-001	3.57840E+000	9	...........
	40	0.546667	8.34151E-001	2.80544E-004	0.00000E+000	2.34016E-004	1.68088E-001	8.34533E-001	3.57840E+000	9	...........
	41	0.56	8.36479E-001	2.80511E-004	0.00000E+000	2.34641E-004	1.68088E-001	8.36887E-001	3.57840E+000	9	...........
	42	0.573333	8.38798E-001	2.81355E-004	0.00000E+000	2.36000E-004	1.68088E-001	8.39166E-001	3.57840E+000	9	...........
	43	0.586667	8.41034E-001	2.80972E-004	0.00000E+000	2.36307E-004	1.68088E-001	8.41399E-001	3.57840E+000	9	...........
	44	0.6	8.43246E-001	2.80662E-004	0.00000E+000	2.36667E-004	1.68088E-001	8.43643E-001	3.57840E+000	9	...........
	45	0.613333	8.45471E-001	2.81114E-004	0.00000E+000	2.37674E-004	1.68088E-001	8.45858E-001	3.57840E+000	9	...........
	46	0.626667	8.47656E-001	2.81392E-004	0.00000E+000	2.38524E-004	1.68088E-001	8.48005E-001	3.57840E+000	9	...........
	47	0.64	8.49738E-001	2.81311E-004	0.00000E+000	2.39040E-004	1.68088E-001	8.50094E-001	3.57840E+000	9	...........
	48	0.653333	8.51774E-001	2.80910E-004	0.00000E+000	2.39271E-004	1.68088E-001	8.52114E-001	3.57840E+000	9	...........
	49	0.666667	8.53763E-001	2.81637E-004	0.00000E+000	2.40451E-004	1.68088E-001	8.54108E-001	3.57840E+000	9	...........
	50	0.68	8.55734E-001	2.81088E-004	0.00000E+000	2.40536E-004	1.68088E-001	8.56066E-001	3.57840E+000	9	...........
	51	0.693333	8.57687E-001	2.81693E-004	0.00000E+000	2.41605E-004	1.68088E-001	8.58027E-001	3.57840E+000	9	...........
	52	0.706667	8.59579E-001	2.81055E-004	0.00000E+000	2.41589E-004	1.68088E-001	8.59933E-001	3.57840E+000	9	...........
	53	0.72	8.61477E-001	2.81388E-004	0.00000E+000	2.42409E-004	1.68088E-001	8.61837E-001	3.57840E+000	9	...........
	54	0.733333	8.63351E-001	2.80911E-004	0.00000E+000	2.42524E-004	1.68088E-001	8.63697E-001	3.57840E+000	9	...........
	55	0.746667	8.65134E-001	2.81273E-004	0.00000E+000	2.43339E-004	1.68088E-001	8.65516E-001	3.57840E+000	9	...........
	56	0.76	8.66964E-001	2.81255E-004	0.00000E+000	2.43838E-004	1.68088E-001	8.67338E-001	3.57840E+000	9	...........
	57	0.773333	8.68721E-001	2.80719E-004	0.00000E+000	2.43866E-004	1.68088E-001	8.69088E-001	3.57840E+000	9	...........
	58	0.786667	8.70448E-001	2.80637E-004	0.00000E+000	2.44280E-004	1.68088E-001	8.70816E-001	3.57840E+000	9	...........
	59	0.8	8.72169E-001	2.81184E-004	0.00000E+000	2.45240E-004	1.68088E-001	8.72532E-001	3.57840E+000	9	...........
	60	0.813333	8.73858E-001	2.82010E-004	0.00000E+000	2.46437E-004	1.68088E-001	8.74231E-001	3.57840E+000	9	...........
	61	0.826667	8.75514E-001	2.81062E-004	0.00000E+000	2.46073E-004	1.68088E-001	8.75916E-001	3.57840E+000	9	...........
	62	0.84	8.77168E-001	2.81500E-004	0.00000E+000	2.46923E-004	1.68088E-001	8.77546E-001	3.57909E+000	9	...........
	63	0.853333	8.78751E-001	2.80601E-004	0.00000E+000	2.46579E-004	1.68088E-001	8.79084E-001	3.57950E+000	9	...........
	64	0.866667	8.80321E-001	2.81353E-004	0.00000E+000	2.47681E-004	1.68088E-001	8.80671E-001	3.57950E+000	9	...........
	65	0.88	8.81976E-001	2.80703E-004	0.00000E+000	2.47574E-004	1.68088E-001	8.82289E-001	3.57950E+000	9	...........
	66	0.893333	8.83554E-001	2.81565E-004	0.00000E+000	2.48778E-004	1.68088E-001	8.83892E-001	3.57950E+000	9	...........
	67	0.906667	8.85096E-001	2.81335E-004	0.00000E+000	2.49008E-004	1.68088E-001	8.85418E-001	3.57950E+000	9	...........
	68	0.92	8.86627E-001	2.81849E-004	0.00000E+000	2.49895E-004	1.68088E-001	8.86958E-001	3.57950E+000	9	...........
	69	0.933333	8.88113E-001	2.80994E-004	0.00000E+000	2.49554E-004	1.68088E-001	8.88466E-001	3.57950E+000	9	...........
	70	0.946667	8.89604E-001	2.81709E-004	0.00000E+000	2.50609E-004	1.68088E-001	8.89925E-001	3.57950E+000	9	...........
	71	0.96	8.91073E-001	2.81846E-004	0.00000E+000	2.51146E-004	1.68088E-001	8.91408E-001	3.57950E+000	9	...........
	72	0.97333	8.92554E-001	2.81984E-004	0.00000E+000	2.51686E-004	1.68088E-001	8.92892E-001	3.57950E+000	9	...........
	73	0.98667	8.93982E-001	2.80943E-004	0.00000E+000	2.51158E-004	1.68088E-001	8.94337E-001	3.57950E+000	9	...........
	74	1	8.95426E-001	2.81303E-004	0.00000E+000	2.51886E-004	1.68088E-001	8.95815E-001	3.57950E+000	9	...........
	75	1.01333	8.96817E-001	2.80843E-004	0.00000E+000	2.51865E-004	1.68088E-001	8.97188E-001	3.57950E+000	9	...........
	76	1.02667	8.98156E-001	2.81169E-004	0.00000E+000	2.52534E-004	1.68088E-001	8.98529E-001	3.57950E+000	9	...........
	77	1.04	8.99520E-001	2.80565E-004	0.00000E+000	2.52374E-004	1.68088E-001	8.99862E-001	3.57950E+000	9	...........
	78	1.05333	9.00837E-001	2.81635E-004	0.00000E+000	2.53707E-004	1.68088E-001	9.01203E-001	3.57950E+000	9	...........
	79	1.06667	9.02214E-001	2.81405E-004	0.00000E+000	2.53888E-004	1.68088E-001	9.02534E-001	3.57950E+000	9	...........
	80	1.08	9.03528E-001	2.81022E-004	0.00000E+000	2.53911E-004	1.68088E-001	9.03840E-001	3.57950E+000	9	...........
	81	1.09333	9.04817E-001	2.81625E-004	0.00000E+000	2.54819E-004	1.68088E-001	9.05138E-001	3.57950E+000	9	...........
	82	1.10667	9.06143E-001	2.82462E-004	0.00000E+000	2.55951E-004	1.68088E-001	9.06468E-001	3.57950E+000	9	...........
	83	1.12	9.07454E-001	2.80061E-004	0.00000E+000	2.54143E-004	1.68088E-001	9.07814E-001	3.57950E+000	9	...........
	84	1.13333	9.08811E-001	2.80606E-004	0.00000E+000	2.55018E-004	1.68088E-001	9.09140E-001	3.57950E+000	9	...........
	85	1.14667	9.10078E-001	2.81850E-004	0.00000E+000	2.56506E-004	1.68088E-001	9.10419E-001	3.57950E+000	9	...........
	86	1.16	9.11296E-001	2.81234E-004	0.00000E+000	2.56287E-004	1.68088E-001	9.11645E-001	3.57950E+000	9	...........
	87	1.17333	9.12532E-001	2.81524E-004	0.00000E+000	2.56900E-004	1.68088E-001	9.12893E-001	3.57950E+000	9	...........
	88	1.18667	9.13753E-001	2.81539E-004	0.00000E+000	2.57257E-004	1.68088E-001	9.14147E-001	3.57950E+000	9	...........
	89	1.2	9.14993E-001	2.81620E-004	0.00000E+000	2.57681E-004	1.68088E-001	9.15363E-001	3.57950E+000	9	...........
	90	1.21333	9.16206E-001	2.81222E-004	0.00000E+000	2.57657E-004	1.68088E-001	9.16598E-001	3.57950E+000	9	...........
	91	1.22667	9.17390E-001	2.81993E-004	0.00000E+000	2.58698E-004	1.68088E-001	9.17800E-001	3.57950E+000	9	...........
	92	1.24	9.18615E-001	2.81142E-004	0.00000E+000	2.58261E-004	1.68088E-001	9.18984E-001	3.57950E+000	9	...........
	93	1.25333	9.19801E-001	2.80695E-004	0.00000E+000	2.58184E-004	1.68088E-001	9.20179E-001	3.57950E+000	9	...........
	94	1.26667	9.21087E-001	2.80888E-004	0.00000E+000	2.58722E-004	1.68088E-001	9.21404E-001	3.57950E+000	9	...........
	95	1.28	9.22316E-001	2.81187E-004	0.00000E+000	2.59343E-004	1.68088E-001	9.22625E-001	3.57950E+000	9	...........
	96	1.29333	9.23479E-001	2.80855E-004	0.00000E+000	2.59364E-004	1.68088E-001	9.23815E-001	3.57950E+000	9	...........
	97	1.30667	9.24639E-001	2.81115E-004	0.00000E+000	2.59930E-004	1.68088E-001	9.24949E-001	3.57950E+000	9	...........
	98	1.32	9.25735E-001	2.81061E-004	0.00000E+000	2.60188E-004	1.68088E-001	9.26048E-001	3.57950E+000	9	...........
	99	1.33333	9.26845E-001	2.81363E-004	0.00000E+000	2.60780E-004	1.68088E-001	9.27149E-001	3.57950E+000	9	...........
	100	1.34667	9.27964E-001	2.80217E-004	0.00000E+000	2.60031E-004	1.68088E-001	9.28233E-001	3.57950E+000	9	...........
	101	1.36	9.29045E-001	2.81245E-004	0.00000E+000	2.61289E-004	1.68088E-001	9.29327E-001	3.57950E+000	9	...........
	102	1.37333	9.30123E-001	2.81314E-004	0.00000E+000	2.61656E-004	1.68088E-001	9.30423E-001	3.57950E+000	9	...........
	103	1.38667	9.31179E-001	2.81167E-004	0.00000E+000	2.61817E-004	1.68088E-001	9.31500E-001	3.57950E+000	9	...........
	104	1.4	9.32256E-001	2.81419E-004	0.00000E+000	2.62355E-004	1.68088E-001	9.32564E-001	3.57950E+000	9	...........
	105	1.41333	9.33324E-001	2.81935E-004	0.00000E+000	2.63136E-004	1.68088E-001	9.33644E-001	3.57950E+000	9	...........
	106	1.42667	9.34359E-001	2.81278E-004	0.00000E+000	2.62815E-004	1.68088E-001	9.34693E-001	3.57950E+000	9	...........
	107	1.44	9.35367E-001	2.81017E-004	0.00000E+000	2.62854E-004	1.68088E-001	9.35705E-001	3.57950E+000	9	...........
	108	1.45333	9.36394E-001	2.81538E-004	0.00000E+000	2.63630E-004	1.68088E-001	9.36752E-001	3.57950E+000	9	...........
	109	1.46667	9.37449E-001	2.81118E-004	0.00000E+000	2.63534E-004	1.68088E-001	9.37791E-001	3.57950E+000	9	...........
	110	1.48	9.38463E-001	2.80745E-004	0.00000E+000	2.63469E-004	1.68088E-001	9.38815E-001	3.57950E+000	9	...........
	111	1.49333	9.39499E-001	2.81640E-004	0.00000E+000	2.64600E-004	1.68088E-001	9.39855E-001	3.57950E+000	9	...........
	112	1.50667	9.40579E-001	2.81360E-004	0.00000E+000	2.64641E-004	1.68088E-001	9.40923E-001	3.57950E+000	9	...........
	113	1.52	9.41554E-001	2.80547E-004	0.00000E+000	2.64150E-004	1.68088E-001	9.41884E-001	3.57950E+000	9	...........
	114	1.53333	9.42566E-001	2.80668E-004	0.00000E+000	2.64548E-004	1.68088E-001	9.42913E-001	3.57950E+000	9	...........
	115	1.54667	9.43593E-001	2.81607E-004	0.00000E+000	2.65722E-004	1.68088E-001	9.43913E-001	3.57950E+000	9	...........
	116	1.56	9.44592E-001	2.81292E-004	0.00000E+000	2.65706E-004	1.68088E-001	9.44941E-001	3.57950E+000	9	...........
	117	1.57333	9.45581E-001	2.82518E-004	0.00000E+000	2.67144E-004	1.68088E-001	9.45931E-001	3.57950E+000	9	...........
	118	1.58667	9.46586E-001	2.81787E-004	0.00000E+000	2.66736E-004	1.68088E-001	9.46913E-001	3.57950E+000	9	...........
	119	1.6	9.47557E-001	2.80763E-004	0.00000E+000	2.66039E-004	1.68088E-001	9.47860E-001	3.57950E+000	9	...........
	120	1.61333	9.48509E-001	2.81111E-004	0.00000E+000	2.66636E-004	1.68088E-001	9.48844E-001	3.57950E+000	9	...........
	121	1.62667	9.49449E-001	2.81292E-004	0.00000E+000	2.67072E-004	1.68088E-001	9.49759E-001	3.57950E+000	9	...........
	122	1.64	9.50391E-001	2.81618E-004	0.00000E+000	2.67647E-004	1.68088E-001	9.50731E-001	3.57950E+000	9	...........
	123	1.65333	9.51321E-001	2.81065E-004	0.00000E+000	2.67383E-004	1.68088E-001	9.51660E-001	3.57950E+000	9	...........
	124	1.66667	9.52261E-001	2.80735E-004	0.00000E+000	2.67332E-004	1.68088E-001	9.52596E-001	3.57950E+000	9	...........
	125	1.68	9.53204E-001	2.81714E-004	0.00000E+000	2.68531E-004	1.68088E-001	9.53543E-001	3.57950E+000	9	...........
	126	1.69333	9.54098E-001	2.81681E-004	0.00000E+000	2.68751E-004	1.68088E-001	9.54443E-001	3.57950E+000	9	...........
	127	1.70667	9.55019E-001	2.81501E-004	0.00000E+000	2.68839E-004	1.68088E-001	9.55353E-001	3.57950E+000	9	...........
	128	1.72	9.55920E-001	2.81180E-004	0.00000E+000	2.68786E-004	1.68088E-001	9.56270E-001	3.57950E+000	9	...........
	129	1.73333	9.56860E-001	2.81786E-004	0.00000E+000	2.69630E-004	1.68088E-001	9.57211E-001	3.57950E+000	9	...........
	130	1.74667	9.57799E-001	2.80657E-004	0.00000E+000	2.68813E-004	1.68088E-001	9.58131E-001	3.57950E+000	9	...........
	131	1.76	9.58658E-001	2.81631E-004	0.00000E+000	2.69987E-004	1.68088E-001	9.59048E-001	3.57950E+000	9	...........
	132	1.77333	9.59545E-001	2.81128E-004	0.00000E+000	2.69755E-004	1.68088E-001	9.59929E-001	3.57950E+000	9	...........
	133	1.78667	9.60425E-001	2.81612E-004	0.00000E+000	2.70467E-004	1.68088E-001	9.60814E-001	3.57950E+000	9	...........
	134	1.8	9.61302E-001	2.81108E-004	0.00000E+000	2.70229E-004	1.68088E-001	9.61695E-001	3.57950E+000	9	...........
	135	1.81333	9.62163E-001	2.81052E-004	0.00000E+000	2.70418E-004	1.68088E-001	9.62569E-001	3.57950E+000	9	...........
	136	1.82667	9.63011E-001	2.80338E-004	0.00000E+000	2.69968E-004	1.68088E-001	9.63401E-001	3.57950E+000	9	...........
	137	1.84	9.63881E-001	2.81062E-004	0.00000E+000	2.70910E-004	1.68088E-001	9.64289E-001	3.57919E+000	9	...........
	138	1.85333	9.64740E-001	2.81130E-004	0.00000E+000	2.71218E-004	1.68088E-001	9.65134E-001	3.57900E+000	9	...........
	139	1.86667	9.65600E-001	2.81430E-004	0.00000E+000	2.71749E-004	1.68088E-001	9.66005E-001	3.57900E+000	9	...........
	140	1.88	9.66446E-001	2.81318E-004	0.00000E+000	2.71879E-004	1.68088E-001	9.66846E-001	3.57900E+000	9	...........
	141	1.89333	9.67321E-001	2.80493E-004	0.00000E+000	2.71327E-004	1.68088E-001	9.67699E-001	3.57900E+000	9	...........
	142	1.90667	9.68143E-001	2.81141E-004	0.00000E+000	2.72185E-004	1.68088E-001	9.68531E-001	3.57900E+000	9	...........
	143	1.92	9.68952E-001	2.80617E-004	0.00000E+000	2.71904E-004	1.68088E-001	9.69339E-001	3.57900E+000	9	...........
	144	1.93333	9.69731E-001	2.80471E-004	0.00000E+000	2.71981E-004	1.68088E-001	9.70136E-001	3.57900E+000	9	...........
	145	1.94667	9.70540E-001	2.80754E-004	0.00000E+000	2.72483E-004	1.68088E-001	9.70943E-001	3.57900E+000	9	...........
	146	1.96	9.71359E-001	2.80723E-004	0.00000E+000	2.72683E-004	1.68088E-001	9.71756E-001	3.57900E+000	9	...........
	147	1.97333	9.72191E-001	2.80726E-004	0.00000E+000	2.72919E-004	1.68088E-001	9.72590E-001	3.57900E+000	9	...........
	148	1.98667	9.73036E-001	2.81863E-004	0.00000E+000	2.74263E-004	1.68088E-001	9.73389E-001	3.57900E+000	9	...........
	149	2	9.73849E-001	2.81482E-004	0.00000E+000	2.74120E-004	1.68088E-001	9.74209E-001	3.57900E+000	9	...........
	150	2.01333	9.74617E-001	2.80467E-004	0.00000E+000	2.73348E-004	1.68088E-001	9.74975E-001	3.57900E+000	9	...........
	151	2.02667	9.75409E-001	2.81484E-004	0.00000E+000	2.74562E-004	1.68088E-001	9.75764E-001	3.57900E+000	9	...........
	152	2.04	9.76201E-001	2.81673E-004	0.00000E+000	2.74970E-004	1.68088E-001	9.76551E-001	3.57900E+000	9	...........
	153	2.05333	9.76988E-001	2.82017E-004	0.00000E+000	2.75527E-004	1.68088E-001	9.77347E-001	3.57900E+000	9	...........
	154	2.06667	9.77780E-001	2.81638E-004	0.00000E+000	2.75380E-004	1.68088E-001	9.78165E-001	3.57900E+000	9	...........
	155	2.08	9.78549E-001	2.80616E-004	0.00000E+000	2.74596E-004	1.68088E-001	9.78905E-001	3.57900E+000	9	...........
	156	2.09333	9.79318E-001	2.81302E-004	0.00000E+000	2.75485E-004	1.68088E-001	9.79686E-001	3.57900E+000	9	...........
	157	2.10667	9.80057E-001	2.80708E-004	0.00000E+000	2.75110E-004	1.68088E-001	9.80425E-001	3.57900E+000	9	...........
	158	2.12	9.80830E-001	2.81700E-004	0.00000E+000	2.76300E-004	1.68088E-001	9.81194E-001	3.57900E+000	9	...........
	159	2.13333	9.81563E-001	2.81880E-004	0.00000E+000	2.76683E-004	1.68088E-001	9.81950E-001	3.57900E+000	9	...........
	160	2.14667	9.82303E-001	2.81554E-004	0.00000E+000	2.76572E-004	1.68088E-001	9.82677E-001	3.57900E+000	9	...........
	161	2.16	9.83043E-001	2.81184E-004	0.00000E+000	2.76416E-004	1.68088E-001	9.83426E-001	3.57900E+000	9	...........
	162	2.17333	9.83791E-001	2.81475E-004	0.00000E+000	2.76913E-004	1.68088E-001	9.84184E-001	3.57900E+000	9	...........
	163	2.18667	9.84545E-001	2.80878E-004	0.00000E+000	2.76537E-004	1.68088E-001	9.84964E-001	3.57900E+000	9	...........
	164	2.2	9.85287E-001	2.81101E-004	0.00000E+000	2.76965E-004	1.68088E-001	9.85679E-001	3.57900E+000	9	...........
	165	2.21333	9.85972E-001	2.81512E-004	0.00000E+000	2.77563E-004	1.68088E-001	9.86355E-001	3.57900E+000	9	...........
	166	2.22667	9.86649E-001	2.81477E-004	0.00000E+000	2.77719E-004	1.68088E-001	9.87034E-001	3.57900E+000	9	...........
	167	2.24	9.87301E-001	2.81452E-004	0.00000E+000	2.77878E-004	1.68088E-001	9.87719E-001	3.57900E+000	9	...........
	168	2.25333	9.88015E-001	2.80923E-004	0.00000E+000	2.77556E-004	1.68088E-001	9.88422E-001	3.57900E+000	9	...........
	169	2.26667	9.88712E-001	2.80681E-004	0.00000E+000	2.77513E-004	1.68088E-001	9.89095E-001	3.57900E+000	9	...........
	170	2.28	9.89401E-001	2.81164E-004	0.00000E+000	2.78184E-004	1.68088E-001	9.89774E-001	3.57900E+000	9	...........
	171	2.29333	9.90085E-001	2.81293E-004	0.00000E+000	2.78504E-004	1.68088E-001	9.90469E-001	3.57900E+000	9	...........
	172	2.30667	9.90794E-001	2.81284E-004	0.00000E+000	2.78694E-004	1.68088E-001	9.91166E-001	3.57900E+000	9	...........
	173	2.32	9.91458E-001	2.81112E-004	0.00000E+000	2.78710E-004	1.68088E-001	9.91827E-001	3.57900E+000	9	...........
	174	2.33333	9.92139E-001	2.80520E-004	0.00000E+000	2.78315E-004	1.68088E-001	9.92534E-001	3.57900E+000	9	...........
	175	2.34667	9.92828E-001	2.80893E-004	0.00000E+000	2.78878E-004	1.68088E-001	9.93215E-001	3.57900E+000	9	...........
	176	2.36	9.93532E-001	2.80494E-004	0.00000E+000	2.78680E-004	1.68088E-001	9.93910E-001	3.57900E+000	9	...........
	177	2.37333	9.94214E-001	2.81850E-004	0.00000E+000	2.80220E-004	1.68088E-001	9.94564E-001	3.57900E+000	9	...........
	178	2.38667	9.94882E-001	2.80711E-004	0.00000E+000	2.79274E-004	1.68088E-001	9.95239E-001	3.57900E+000	9	...........
	179	2.4	9.95547E-001	2.81644E-004	0.00000E+000	2.80390E-004	1.68088E-001	9.95919E-001	3.57900E+000	9	...........
	180	2.41333	9.96170E-001	2.80619E-004	0.00000E+000	2.79544E-004	1.68088E-001	9.96531E-001	3.57900E+000	9	...........
	181	2.42667	9.96791E-001	2.80375E-004	0.00000E+000	2.79475E-004	1.68088E-001	9.97185E-001	3.57900E+000	9	...........
	182	2.44	9.97448E-001	2.81825E-004	0.00000E+000	2.81106E-004	1.68088E-001	9.97854E-001	3.57900E+000	9	...........
	183	2.45333	9.98162E-001	2.80638E-004	0.00000E+000	2.80122E-004	1.68088E-001	9.98529E-001	3.57900E+000	9	...........
	184	2.46667	9.98783E-001	2.81483E-004	0.00000E+000	2.81140E-004	1.68088E-001	9.99142E-001	3.57900E+000	9	...........
	185	2.48	9.99412E-001	2.80364E-004	0.00000E+000	2.80199E-004	1.68088E-001	9.99765E-001	3.57900E+000	9	...........
	186	2.48833	9.99914E-001	2.83126E-004	0.00000E+000	2.83102E-004	1.68088E-001	1.00028E+000	3.57900E+000	9	...........
STARTTIMEOFFSET	QUANT	100.8917	Start Time Offset (s)
