EXPLAIN
TAG	PWR800_CHARGE
TITLE	LABEL	PWR Cyclic Charge Discharge (Cell) - Charge Step	Test &Identifier
DATE	LABEL	7-7-2017	Date
TIME	LABEL	16:20:31	Time
NOTES	NOTES	3	&Notes...
	supercap test cell
	2.8mg
	6M KOH
PSTAT	PSTAT	IFC5000-01520	Potentiostat
CAPACITY	QUANT	1.00000E-003	Capacity (A-hr)
CELLTYPE	SELECTOR	1	&Cell Type
WORKINGCONNECTION	SELECTOR	0	&Working Lead
MAXCHARGETIME	VARIABLEANDUNITS	1.00000E+002	s	1.00000E+002	second(s)	Max &Charge Time
CHARGECURRENT	QUANT	2.80000E-004	&Charge Current (A) 
VOLTAGEFINISH	TWOPARAM	F	1.00000E-003	3.60000E+003	&Voltage Finish	 I (A) < 	Max Time(s)
SAMPLETIME	QUANT	1.00000E-002	Sa&mple Period (s)
CHARGESTOPAT1	MULTIPARAM	4	1.00000E+000	Charge Stop At &1	Voltage > Limit	V
CHARGESTOPAT2	MULTIPARAM	0	0.00000E+000	Charge Stop At &2	None	N/A
AESBHCSELECTOR	TOGGLE	F	Save Both Half Cells
IRCOMP	TOGGLE	F	IR &Measure
EOC	QUANT	0	Open Circuit (V)
SEQUENCER	TOGGLE	TRUE	Run as Sequence
PSTATMODEL	IQUANT	53	Pstat Model
PSTATSECTION	LABEL	IFC5000-01520	Pstat Section
PSTATSERIALNO	LABEL	01520	Pstat Serial Number
CTRLMODE	IQUANT	0	Control Mode
ELECTROMETER	IQUANT	1	RE=0 or CS=1
IESTAB	IQUANT	0	I/E Stability
CASPEED	IQUANT	4	Control Amp Speed
CONVENTION	IQUANT	1	Current Convention
ICHRANGE	IQUANT	2	Ich Range
ICHRANGEMODE	TOGGLE	T	Ich Auto Range
ICHOFFSETENABLE	TOGGLE	F	Ich Offset Enable
ICHOFFSET	QUANT	0	Ich Offset (V)
ICHFILTER	IQUANT	1	Ich Filter
VCHRANGE	IQUANT	2	Vch Range
VCHRANGEMODE	TOGGLE	T	Vch Auto Range
VCHOFFSETENABLE	TOGGLE	F	Vch Offset Enable
VCHOFFSET	QUANT	0	Vch Offset (V)
VCHFILTER	IQUANT	1	Vch Filter
IERANGELOWERLIMIT	IQUANT	9	I/E Range Lower Limit
IERANGEMODE	TOGGLE	F	I/E AutoRange
IERANGE	IQUANT	9	I/E Range
ACHSELECT	IQUANT	1	Ach Select
ACHRANGE	IQUANT	2	Ach Range
ACHOFFSETENABLE	TOGGLE	F	Ach Offset Enable
ACHOFFSET	QUANT	0	Ach Offset (V)
ACHFILTER	IQUANT	1	Ach Filter
CABLEID	IQUANT	14	Cable ID
DCCALDATE	LABEL	5-7-2017	DC Calibration Date
ACCALDATE	LABEL	12/3/2015	AC Calibration Date
FRAMEWORKVERSION	QUANT	7.01	Framework Version
INSTRUMENTVERSION	LABEL	4.00	Instrument Version
CURVE	TABLE	60
	Pt	T	Vf	Im	Vu	Pwr	Sig	Ach	Temp	IERange	Over
	#	s	V	A	V	W	V	V	deg C	#	bits
	0	0.013333	6.07333E-001	2.82015E-004	0.00000E+000	1.71277E-004	1.68088E-001	6.07608E-001	3.57730E+000	9	...........
	1	0.026667	6.37938E-001	2.82140E-004	0.00000E+000	1.79988E-004	1.68088E-001	6.38189E-001	3.57730E+000	9	...........
	2	0.04	6.64306E-001	2.81561E-004	0.00000E+000	1.87042E-004	1.68088E-001	6.64575E-001	3.57730E+000	9	...........
	3	0.053333	6.87533E-001	2.81054E-004	0.00000E+000	1.93234E-004	1.68088E-001	6.87820E-001	3.57730E+000	9	...........
	4	0.066667	7.08314E-001	2.80368E-004	0.00000E+000	1.98589E-004	1.68088E-001	7.08594E-001	3.57730E+000	9	...........
	5	0.08	7.27115E-001	2.80945E-004	0.00000E+000	2.04279E-004	1.68088E-001	7.27374E-001	3.57730E+000	9	...........
	6	0.093333	7.44225E-001	2.80331E-004	0.00000E+000	2.08630E-004	1.68088E-001	7.44504E-001	3.57730E+000	9	...........
	7	0.106667	7.59902E-001	2.82305E-004	0.00000E+000	2.14524E-004	1.68088E-001	7.60184E-001	3.57730E+000	9	...........
	8	0.12	7.74340E-001	2.82106E-004	0.00000E+000	2.18446E-004	1.68088E-001	7.74637E-001	3.57730E+000	9	...........
	9	0.133333	7.87659E-001	2.81982E-004	0.00000E+000	2.22105E-004	1.68088E-001	7.87945E-001	3.57730E+000	9	...........
	10	0.146667	7.99998E-001	2.80679E-004	0.00000E+000	2.24543E-004	1.68088E-001	8.00300E-001	3.57730E+000	9	...........
	11	0.16	8.11415E-001	2.82531E-004	0.00000E+000	2.29250E-004	1.68088E-001	8.11743E-001	3.57730E+000	9	...........
	12	0.173333	8.22060E-001	2.81421E-004	0.00000E+000	2.31345E-004	1.68088E-001	8.22411E-001	3.57730E+000	9	...........
	13	0.186667	8.31990E-001	2.82167E-004	0.00000E+000	2.34760E-004	1.68088E-001	8.32335E-001	3.57730E+000	9	...........
	14	0.2	8.41270E-001	2.81066E-004	0.00000E+000	2.36452E-004	1.68088E-001	8.41596E-001	3.57730E+000	9	...........
	15	0.213333	8.49954E-001	2.80546E-004	0.00000E+000	2.38451E-004	1.68088E-001	8.50281E-001	3.57730E+000	9	...........
	16	0.226667	8.58046E-001	2.81142E-004	0.00000E+000	2.41233E-004	1.68088E-001	8.58378E-001	3.57763E+000	9	...........
	17	0.24	8.65633E-001	2.82034E-004	0.00000E+000	2.44138E-004	1.68088E-001	8.65973E-001	3.57770E+000	9	...........
	18	0.253333	8.72806E-001	2.81479E-004	0.00000E+000	2.45677E-004	1.68088E-001	8.73134E-001	3.57770E+000	9	...........
	19	0.266667	8.79513E-001	2.80935E-004	0.00000E+000	2.47086E-004	1.68088E-001	8.79876E-001	3.57770E+000	9	...........
	20	0.28	8.85875E-001	2.80730E-004	0.00000E+000	2.48692E-004	1.68088E-001	8.86208E-001	3.57770E+000	9	...........
	21	0.293333	8.91835E-001	2.80542E-004	0.00000E+000	2.50197E-004	1.68088E-001	8.92175E-001	3.57770E+000	9	...........
	22	0.306667	8.97501E-001	2.80803E-004	0.00000E+000	2.52021E-004	1.68088E-001	8.97845E-001	3.57770E+000	9	...........
	23	0.32	9.02820E-001	2.80867E-004	0.00000E+000	2.53572E-004	1.68088E-001	9.03189E-001	3.57770E+000	9	...........
	24	0.333333	9.07871E-001	2.80865E-004	0.00000E+000	2.54989E-004	1.68088E-001	9.08238E-001	3.57770E+000	9	...........
	25	0.346667	9.12661E-001	2.81872E-004	0.00000E+000	2.57254E-004	1.68088E-001	9.13007E-001	3.57770E+000	9	...........
	26	0.36	9.17193E-001	2.80597E-004	0.00000E+000	2.57362E-004	1.68088E-001	9.17512E-001	3.57770E+000	9	...........
	27	0.373333	9.21567E-001	2.80618E-004	0.00000E+000	2.58608E-004	1.68088E-001	9.21820E-001	3.57770E+000	9	...........
	28	0.386667	9.25667E-001	2.81343E-004	0.00000E+000	2.60430E-004	1.68088E-001	9.25927E-001	3.57770E+000	9	...........
	29	0.4	9.29572E-001	2.81185E-004	0.00000E+000	2.61381E-004	1.68088E-001	9.29825E-001	3.57770E+000	9	...........
	30	0.413333	9.33341E-001	2.82077E-004	0.00000E+000	2.63275E-004	1.68088E-001	9.33605E-001	3.57770E+000	9	...........
	31	0.426667	9.36906E-001	2.81097E-004	0.00000E+000	2.63362E-004	1.68088E-001	9.37178E-001	3.57770E+000	9	...........
	32	0.44	9.40330E-001	2.81034E-004	0.00000E+000	2.64264E-004	1.68088E-001	9.40590E-001	3.57770E+000	9	...........
	33	0.453333	9.43583E-001	2.81961E-004	0.00000E+000	2.66053E-004	1.68088E-001	9.43863E-001	3.57770E+000	9	...........
	34	0.466667	9.46761E-001	2.81267E-004	0.00000E+000	2.66293E-004	1.68088E-001	9.47093E-001	3.57770E+000	9	...........
	35	0.48	9.49814E-001	2.81608E-004	0.00000E+000	2.67475E-004	1.68088E-001	9.50128E-001	3.57770E+000	9	...........
	36	0.493333	9.52721E-001	2.81262E-004	0.00000E+000	2.67964E-004	1.68088E-001	9.53069E-001	3.57770E+000	9	...........
	37	0.506667	9.55506E-001	2.81659E-004	0.00000E+000	2.69126E-004	1.68088E-001	9.55830E-001	3.57770E+000	9	...........
	38	0.52	9.58201E-001	2.80464E-004	0.00000E+000	2.68740E-004	1.68088E-001	9.58531E-001	3.57770E+000	9	...........
	39	0.533333	9.60822E-001	2.80671E-004	0.00000E+000	2.69675E-004	1.68088E-001	9.61175E-001	3.57770E+000	9	...........
	40	0.546667	9.63339E-001	2.80329E-004	0.00000E+000	2.70052E-004	1.68088E-001	9.63700E-001	3.57770E+000	9	...........
	41	0.56	9.65831E-001	2.80586E-004	0.00000E+000	2.70998E-004	1.68088E-001	9.66160E-001	3.57770E+000	9	...........
	42	0.573333	9.68206E-001	2.81713E-004	0.00000E+000	2.72756E-004	1.68088E-001	9.68559E-001	3.57770E+000	9	...........
	43	0.586667	9.70524E-001	2.81056E-004	0.00000E+000	2.72772E-004	1.68088E-001	9.70909E-001	3.57770E+000	9	...........
	44	0.6	9.72806E-001	2.80406E-004	0.00000E+000	2.72781E-004	1.68088E-001	9.73160E-001	3.57770E+000	9	...........
	45	0.613333	9.75002E-001	2.80649E-004	0.00000E+000	2.73633E-004	1.68088E-001	9.75330E-001	3.57770E+000	9	...........
	46	0.626667	9.77090E-001	2.80814E-004	0.00000E+000	2.74380E-004	1.68088E-001	9.77410E-001	3.57770E+000	9	...........
	47	0.64	9.79127E-001	2.80404E-004	0.00000E+000	2.74551E-004	1.68088E-001	9.79449E-001	3.57770E+000	9	...........
	48	0.653333	9.81147E-001	2.80484E-004	0.00000E+000	2.75196E-004	1.68088E-001	9.81460E-001	3.57770E+000	9	...........
	49	0.666667	9.83117E-001	2.81983E-004	0.00000E+000	2.77222E-004	1.68088E-001	9.83429E-001	3.57770E+000	9	...........
	50	0.68	9.85009E-001	2.80673E-004	0.00000E+000	2.76466E-004	1.68088E-001	9.85346E-001	3.57770E+000	9	...........
	51	0.693333	9.86824E-001	2.80976E-004	0.00000E+000	2.77274E-004	1.68088E-001	9.87189E-001	3.57770E+000	9	...........
	52	0.706667	9.88641E-001	2.81572E-004	0.00000E+000	2.78374E-004	1.68088E-001	9.88997E-001	3.57770E+000	9	...........
	53	0.72	9.90425E-001	2.81481E-004	0.00000E+000	2.78785E-004	1.68088E-001	9.90786E-001	3.57770E+000	9	...........
	54	0.733333	9.92162E-001	2.81962E-004	0.00000E+000	2.79752E-004	1.68088E-001	9.92549E-001	3.57770E+000	9	...........
	55	0.746667	9.93896E-001	2.80165E-004	0.00000E+000	2.78455E-004	1.68088E-001	9.94259E-001	3.57770E+000	9	...........
	56	0.76	9.95597E-001	2.80999E-004	0.00000E+000	2.79762E-004	1.68088E-001	9.95962E-001	3.57770E+000	9	...........
	57	0.773333	9.97232E-001	2.82796E-004	0.00000E+000	2.82014E-004	1.68088E-001	9.97621E-001	3.57770E+000	9	...........
	58	0.786667	9.98838E-001	2.81385E-004	0.00000E+000	2.81058E-004	1.68088E-001	9.99235E-001	3.57770E+000	9	...........
	59	0.791667	9.99919E-001	2.81808E-004	0.00000E+000	2.81785E-004	1.68088E-001	1.00031E+000	3.57770E+000	9	...........
STARTTIMEOFFSET	QUANT	1942.633	Start Time Offset (s)
