EXPLAIN
TAG	PWR800_CHARGE
TITLE	LABEL	PWR Cyclic Charge Discharge (Cell) - Charge Step	Test &Identifier
DATE	LABEL	7-7-2017	Date
TIME	LABEL	15:57:06	Time
NOTES	NOTES	3	&Notes...
	supercap test cell
	2.8mg
	6M KOH
PSTAT	PSTAT	IFC5000-01520	Potentiostat
CAPACITY	QUANT	1.00000E-003	Capacity (A-hr)
CELLTYPE	SELECTOR	1	&Cell Type
WORKINGCONNECTION	SELECTOR	0	&Working Lead
MAXCHARGETIME	VARIABLEANDUNITS	1.00000E+002	s	1.00000E+002	second(s)	Max &Charge Time
CHARGECURRENT	QUANT	2.80000E-004	&Charge Current (A) 
VOLTAGEFINISH	TWOPARAM	F	1.00000E-003	3.60000E+003	&Voltage Finish	 I (A) < 	Max Time(s)
SAMPLETIME	QUANT	1.00000E-002	Sa&mple Period (s)
CHARGESTOPAT1	MULTIPARAM	4	1.00000E+000	Charge Stop At &1	Voltage > Limit	V
CHARGESTOPAT2	MULTIPARAM	0	0.00000E+000	Charge Stop At &2	None	N/A
AESBHCSELECTOR	TOGGLE	F	Save Both Half Cells
IRCOMP	TOGGLE	F	IR &Measure
EOC	QUANT	0	Open Circuit (V)
SEQUENCER	TOGGLE	TRUE	Run as Sequence
PSTATMODEL	IQUANT	53	Pstat Model
PSTATSECTION	LABEL	IFC5000-01520	Pstat Section
PSTATSERIALNO	LABEL	01520	Pstat Serial Number
CTRLMODE	IQUANT	0	Control Mode
ELECTROMETER	IQUANT	1	RE=0 or CS=1
IESTAB	IQUANT	0	I/E Stability
CASPEED	IQUANT	4	Control Amp Speed
CONVENTION	IQUANT	1	Current Convention
ICHRANGE	IQUANT	2	Ich Range
ICHRANGEMODE	TOGGLE	T	Ich Auto Range
ICHOFFSETENABLE	TOGGLE	F	Ich Offset Enable
ICHOFFSET	QUANT	0	Ich Offset (V)
ICHFILTER	IQUANT	1	Ich Filter
VCHRANGE	IQUANT	2	Vch Range
VCHRANGEMODE	TOGGLE	T	Vch Auto Range
VCHOFFSETENABLE	TOGGLE	F	Vch Offset Enable
VCHOFFSET	QUANT	0	Vch Offset (V)
VCHFILTER	IQUANT	1	Vch Filter
IERANGELOWERLIMIT	IQUANT	9	I/E Range Lower Limit
IERANGEMODE	TOGGLE	F	I/E AutoRange
IERANGE	IQUANT	9	I/E Range
ACHSELECT	IQUANT	1	Ach Select
ACHRANGE	IQUANT	2	Ach Range
ACHOFFSETENABLE	TOGGLE	F	Ach Offset Enable
ACHOFFSET	QUANT	0	Ach Offset (V)
ACHFILTER	IQUANT	1	Ach Filter
CABLEID	IQUANT	14	Cable ID
DCCALDATE	LABEL	5-7-2017	DC Calibration Date
ACCALDATE	LABEL	12/3/2015	AC Calibration Date
FRAMEWORKVERSION	QUANT	7.01	Framework Version
INSTRUMENTVERSION	LABEL	4.00	Instrument Version
CURVE	TABLE	86
	Pt	T	Vf	Im	Vu	Pwr	Sig	Ach	Temp	IERange	Over
	#	s	V	A	V	W	V	V	deg C	#	bits
	0	0.013333	5.91803E-001	2.82253E-004	0.00000E+000	1.67038E-004	1.68088E-001	5.92072E-001	3.57760E+000	9	...........
	1	0.026667	6.21366E-001	2.82032E-004	0.00000E+000	1.75245E-004	1.68088E-001	6.21643E-001	3.57760E+000	9	...........
	2	0.04	6.46459E-001	2.82151E-004	0.00000E+000	1.82399E-004	1.68088E-001	6.46732E-001	3.57760E+000	9	...........
	3	0.053333	6.68342E-001	2.81359E-004	0.00000E+000	1.88044E-004	1.68088E-001	6.68639E-001	3.57760E+000	9	...........
	4	0.066667	6.87712E-001	2.82338E-004	0.00000E+000	1.94167E-004	1.68088E-001	6.88014E-001	3.57760E+000	9	...........
	5	0.08	7.05098E-001	2.81070E-004	0.00000E+000	1.98182E-004	1.68088E-001	7.05422E-001	3.57760E+000	9	...........
	6	0.093333	7.20843E-001	2.81069E-004	0.00000E+000	2.02607E-004	1.68088E-001	7.21176E-001	3.57760E+000	9	...........
	7	0.106667	7.35212E-001	2.81898E-004	0.00000E+000	2.07255E-004	1.68088E-001	7.35544E-001	3.57760E+000	9	...........
	8	0.12	7.48409E-001	2.81082E-004	0.00000E+000	2.10365E-004	1.68088E-001	7.48734E-001	3.57760E+000	9	...........
	9	0.133333	7.60553E-001	2.81711E-004	0.00000E+000	2.14256E-004	1.68088E-001	7.60860E-001	3.57760E+000	9	...........
	10	0.146667	7.71799E-001	2.80742E-004	0.00000E+000	2.16676E-004	1.68088E-001	7.72131E-001	3.57760E+000	9	...........
	11	0.16	7.82248E-001	2.81747E-004	0.00000E+000	2.20396E-004	1.68088E-001	7.82576E-001	3.57760E+000	9	...........
	12	0.173333	7.91965E-001	2.81714E-004	0.00000E+000	2.23108E-004	1.68088E-001	7.92292E-001	3.57760E+000	9	...........
	13	0.186667	8.01042E-001	2.81462E-004	0.00000E+000	2.25463E-004	1.68088E-001	8.01346E-001	3.57790E+000	9	...........
	14	0.2	8.09493E-001	2.80710E-004	0.00000E+000	2.27232E-004	1.68088E-001	8.09818E-001	3.57800E+000	9	...........
	15	0.213333	8.17440E-001	2.81186E-004	0.00000E+000	2.29852E-004	1.68088E-001	8.17751E-001	3.57800E+000	9	...........
	16	0.226667	8.24885E-001	2.81188E-004	0.00000E+000	2.31948E-004	1.68088E-001	8.25210E-001	3.57800E+000	9	...........
	17	0.24	8.31903E-001	2.81961E-004	0.00000E+000	2.34564E-004	1.68088E-001	8.32205E-001	3.57800E+000	9	...........
	18	0.253333	8.38505E-001	2.80833E-004	0.00000E+000	2.35480E-004	1.68088E-001	8.38837E-001	3.57800E+000	9	...........
	19	0.266667	8.44809E-001	2.81078E-004	0.00000E+000	2.37457E-004	1.68088E-001	8.45124E-001	3.57800E+000	9	...........
	20	0.28	8.50725E-001	2.80988E-004	0.00000E+000	2.39043E-004	1.68088E-001	8.51073E-001	3.57800E+000	9	...........
	21	0.293333	8.56325E-001	2.81046E-004	0.00000E+000	2.40667E-004	1.68088E-001	8.56671E-001	3.57800E+000	9	...........
	22	0.306667	8.61637E-001	2.80511E-004	0.00000E+000	2.41698E-004	1.68088E-001	8.61999E-001	3.57800E+000	9	...........
	23	0.32	8.66707E-001	2.80578E-004	0.00000E+000	2.43179E-004	1.68088E-001	8.67086E-001	3.57800E+000	9	...........
	24	0.333333	8.71551E-001	2.81298E-004	0.00000E+000	2.45166E-004	1.68088E-001	8.71866E-001	3.57800E+000	9	...........
	25	0.346667	8.76119E-001	2.80562E-004	0.00000E+000	2.45805E-004	1.68088E-001	8.76452E-001	3.57800E+000	9	...........
	26	0.36	8.80477E-001	2.81496E-004	0.00000E+000	2.47851E-004	1.68088E-001	8.80834E-001	3.57800E+000	9	...........
	27	0.373333	8.84673E-001	2.80355E-004	0.00000E+000	2.48023E-004	1.68088E-001	8.85020E-001	3.57800E+000	9	...........
	28	0.386667	8.88685E-001	2.81284E-004	0.00000E+000	2.49972E-004	1.68088E-001	8.89044E-001	3.57800E+000	9	...........
	29	0.4	8.92498E-001	2.81564E-004	0.00000E+000	2.51295E-004	1.68088E-001	8.92849E-001	3.57800E+000	9	...........
	30	0.413333	8.96178E-001	2.81718E-004	0.00000E+000	2.52469E-004	1.68088E-001	8.96570E-001	3.57800E+000	9	...........
	31	0.426667	8.99730E-001	2.80976E-004	0.00000E+000	2.52803E-004	1.68088E-001	9.00108E-001	3.57800E+000	9	...........
	32	0.44	9.03150E-001	2.81594E-004	0.00000E+000	2.54322E-004	1.68088E-001	9.03532E-001	3.57800E+000	9	...........
	33	0.453333	9.06431E-001	2.81310E-004	0.00000E+000	2.54988E-004	1.68088E-001	9.06839E-001	3.57800E+000	9	...........
	34	0.466667	9.09611E-001	2.81350E-004	0.00000E+000	2.55919E-004	1.68088E-001	9.09997E-001	3.57800E+000	9	...........
	35	0.48	9.12627E-001	2.81613E-004	0.00000E+000	2.57008E-004	1.68088E-001	9.13025E-001	3.57800E+000	9	...........
	36	0.493333	9.15577E-001	2.81632E-004	0.00000E+000	2.57855E-004	1.68088E-001	9.15974E-001	3.57800E+000	9	...........
	37	0.506667	9.18420E-001	2.81349E-004	0.00000E+000	2.58397E-004	1.68088E-001	9.18829E-001	3.57800E+000	9	...........
	38	0.52	9.21201E-001	2.81087E-004	0.00000E+000	2.58937E-004	1.68088E-001	9.21565E-001	3.57800E+000	9	...........
	39	0.533333	9.23835E-001	2.82539E-004	0.00000E+000	2.61020E-004	1.68088E-001	9.24180E-001	3.57800E+000	9	...........
	40	0.546667	9.26390E-001	2.81597E-004	0.00000E+000	2.60869E-004	1.68088E-001	9.26758E-001	3.57800E+000	9	...........
	41	0.56	9.28923E-001	2.81069E-004	0.00000E+000	2.61092E-004	1.68088E-001	9.29286E-001	3.57800E+000	9	...........
	42	0.573333	9.31356E-001	2.80346E-004	0.00000E+000	2.61102E-004	1.68088E-001	9.31712E-001	3.57800E+000	9	...........
	43	0.586667	9.33755E-001	2.79928E-004	0.00000E+000	2.61384E-004	1.68088E-001	9.34149E-001	3.57800E+000	9	...........
	44	0.6	9.36090E-001	2.81211E-004	0.00000E+000	2.63238E-004	1.68088E-001	9.36472E-001	3.57800E+000	9	...........
	45	0.613333	9.38367E-001	2.81032E-004	0.00000E+000	2.63712E-004	1.68088E-001	9.38748E-001	3.57800E+000	9	...........
	46	0.626667	9.40542E-001	2.82007E-004	0.00000E+000	2.65239E-004	1.68088E-001	9.40920E-001	3.57800E+000	9	...........
	47	0.64	9.42675E-001	2.80663E-004	0.00000E+000	2.64574E-004	1.68088E-001	9.43050E-001	3.57800E+000	9	...........
	48	0.653333	9.44746E-001	2.80533E-004	0.00000E+000	2.65033E-004	1.68088E-001	9.45113E-001	3.57800E+000	9	...........
	49	0.666667	9.46831E-001	2.81310E-004	0.00000E+000	2.66353E-004	1.68088E-001	9.47223E-001	3.57800E+000	9	...........
	50	0.68	9.48808E-001	2.81454E-004	0.00000E+000	2.67046E-004	1.68088E-001	9.49193E-001	3.57800E+000	9	...........
	51	0.693333	9.50755E-001	2.79524E-004	0.00000E+000	2.65759E-004	1.68088E-001	9.51099E-001	3.57800E+000	9	...........
	52	0.706667	9.52667E-001	2.82041E-004	0.00000E+000	2.68691E-004	1.68088E-001	9.53021E-001	3.57800E+000	9	...........
	53	0.72	9.54517E-001	2.81508E-004	0.00000E+000	2.68704E-004	1.68088E-001	9.54838E-001	3.57800E+000	9	...........
	54	0.733333	9.56324E-001	2.81074E-004	0.00000E+000	2.68798E-004	1.68088E-001	9.56659E-001	3.57800E+000	9	...........
	55	0.746667	9.58096E-001	2.81337E-004	0.00000E+000	2.69547E-004	1.68088E-001	9.58461E-001	3.57800E+000	9	...........
	56	0.76	9.59837E-001	2.81789E-004	0.00000E+000	2.70472E-004	1.68088E-001	9.60200E-001	3.57800E+000	9	...........
	57	0.773333	9.61552E-001	2.81470E-004	0.00000E+000	2.70648E-004	1.68088E-001	9.61938E-001	3.57800E+000	9	...........
	58	0.786667	9.63242E-001	2.81072E-004	0.00000E+000	2.70741E-004	1.68088E-001	9.63629E-001	3.57800E+000	9	...........
	59	0.8	9.64904E-001	2.81272E-004	0.00000E+000	2.71401E-004	1.68088E-001	9.65296E-001	3.57800E+000	9	...........
	60	0.813333	9.66570E-001	2.81458E-004	0.00000E+000	2.72048E-004	1.68088E-001	9.66959E-001	3.57800E+000	9	...........
	61	0.826667	9.68156E-001	2.81851E-004	0.00000E+000	2.72876E-004	1.68088E-001	9.68551E-001	3.57800E+000	9	...........
	62	0.84	9.69724E-001	2.79983E-004	0.00000E+000	2.71506E-004	1.68088E-001	9.70110E-001	3.57800E+000	9	...........
	63	0.853333	9.71224E-001	2.82006E-004	0.00000E+000	2.73891E-004	1.68088E-001	9.71649E-001	3.57800E+000	9	...........
	64	0.866667	9.72808E-001	2.81940E-004	0.00000E+000	2.74274E-004	1.68088E-001	9.73154E-001	3.57800E+000	9	...........
	65	0.88	9.74303E-001	2.81029E-004	0.00000E+000	2.73808E-004	1.68088E-001	9.74659E-001	3.57800E+000	9	...........
	66	0.893333	9.75745E-001	2.81352E-004	0.00000E+000	2.74528E-004	1.68088E-001	9.76071E-001	3.57800E+000	9	...........
	67	0.906667	9.77140E-001	2.81022E-004	0.00000E+000	2.74598E-004	1.68088E-001	9.77506E-001	3.57800E+000	9	...........
	68	0.92	9.78562E-001	2.81142E-004	0.00000E+000	2.75115E-004	1.68088E-001	9.78901E-001	3.57800E+000	9	...........
	69	0.933333	9.79926E-001	2.81226E-004	0.00000E+000	2.75581E-004	1.68088E-001	9.80290E-001	3.57800E+000	9	...........
	70	0.946667	9.81320E-001	2.81502E-004	0.00000E+000	2.76244E-004	1.68088E-001	9.81668E-001	3.57800E+000	9	...........
	71	0.96	9.82683E-001	2.82260E-004	0.00000E+000	2.77372E-004	1.68088E-001	9.83032E-001	3.57800E+000	9	...........
	72	0.97333	9.84001E-001	2.81294E-004	0.00000E+000	2.76794E-004	1.68088E-001	9.84389E-001	3.57800E+000	9	...........
	73	0.98667	9.85373E-001	2.82020E-004	0.00000E+000	2.77895E-004	1.68088E-001	9.85746E-001	3.57800E+000	9	...........
	74	1	9.86662E-001	2.81084E-004	0.00000E+000	2.77335E-004	1.68088E-001	9.87044E-001	3.57800E+000	9	...........
	75	1.01333	9.87972E-001	2.82035E-004	0.00000E+000	2.78642E-004	1.68088E-001	9.88342E-001	3.57800E+000	9	...........
	76	1.02667	9.89251E-001	2.81254E-004	0.00000E+000	2.78231E-004	1.68088E-001	9.89643E-001	3.57800E+000	9	...........
	77	1.04	9.90488E-001	2.81684E-004	0.00000E+000	2.79004E-004	1.68088E-001	9.90882E-001	3.57800E+000	9	...........
	78	1.05333	9.91753E-001	2.81314E-004	0.00000E+000	2.78994E-004	1.68088E-001	9.92142E-001	3.57800E+000	9	...........
	79	1.06667	9.92982E-001	2.80947E-004	0.00000E+000	2.78975E-004	1.68088E-001	9.93381E-001	3.57800E+000	9	...........
	80	1.08	9.94173E-001	2.81401E-004	0.00000E+000	2.79761E-004	1.68088E-001	9.94580E-001	3.57800E+000	9	...........
	81	1.09333	9.95388E-001	2.81688E-004	0.00000E+000	2.80389E-004	1.68088E-001	9.95779E-001	3.57800E+000	9	...........
	82	1.10667	9.96589E-001	2.81627E-004	0.00000E+000	2.80667E-004	1.68088E-001	9.96991E-001	3.57800E+000	9	...........
	83	1.12	9.97779E-001	2.80761E-004	0.00000E+000	2.80137E-004	1.68088E-001	9.98170E-001	3.57800E+000	9	...........
	84	1.13333	9.98949E-001	2.81271E-004	0.00000E+000	2.80976E-004	1.68088E-001	9.99334E-001	3.57800E+000	9	...........
	85	1.14	9.99826E-001	2.80569E-004	0.00000E+000	2.80520E-004	1.68088E-001	1.00022E+000	3.57800E+000	9	...........
STARTTIMEOFFSET	QUANT	985.137	Start Time Offset (s)
