EXPLAIN
TAG	PWR800_CHARGE
TITLE	LABEL	PWR Cyclic Charge Discharge (Cell) - Charge Step	Test &Identifier
DATE	LABEL	7-7-2017	Date
TIME	LABEL	15:53:56	Time
NOTES	NOTES	3	&Notes...
	supercap test cell
	2.8mg
	6M KOH
PSTAT	PSTAT	IFC5000-01520	Potentiostat
CAPACITY	QUANT	1.00000E-003	Capacity (A-hr)
CELLTYPE	SELECTOR	1	&Cell Type
WORKINGCONNECTION	SELECTOR	0	&Working Lead
MAXCHARGETIME	VARIABLEANDUNITS	1.00000E+002	s	1.00000E+002	second(s)	Max &Charge Time
CHARGECURRENT	QUANT	2.80000E-004	&Charge Current (A) 
VOLTAGEFINISH	TWOPARAM	F	1.00000E-003	3.60000E+003	&Voltage Finish	 I (A) < 	Max Time(s)
SAMPLETIME	QUANT	1.00000E-002	Sa&mple Period (s)
CHARGESTOPAT1	MULTIPARAM	4	1.00000E+000	Charge Stop At &1	Voltage > Limit	V
CHARGESTOPAT2	MULTIPARAM	0	0.00000E+000	Charge Stop At &2	None	N/A
AESBHCSELECTOR	TOGGLE	F	Save Both Half Cells
IRCOMP	TOGGLE	F	IR &Measure
EOC	QUANT	0	Open Circuit (V)
SEQUENCER	TOGGLE	TRUE	Run as Sequence
PSTATMODEL	IQUANT	53	Pstat Model
PSTATSECTION	LABEL	IFC5000-01520	Pstat Section
PSTATSERIALNO	LABEL	01520	Pstat Serial Number
CTRLMODE	IQUANT	0	Control Mode
ELECTROMETER	IQUANT	1	RE=0 or CS=1
IESTAB	IQUANT	0	I/E Stability
CASPEED	IQUANT	4	Control Amp Speed
CONVENTION	IQUANT	1	Current Convention
ICHRANGE	IQUANT	2	Ich Range
ICHRANGEMODE	TOGGLE	T	Ich Auto Range
ICHOFFSETENABLE	TOGGLE	F	Ich Offset Enable
ICHOFFSET	QUANT	0	Ich Offset (V)
ICHFILTER	IQUANT	1	Ich Filter
VCHRANGE	IQUANT	2	Vch Range
VCHRANGEMODE	TOGGLE	T	Vch Auto Range
VCHOFFSETENABLE	TOGGLE	F	Vch Offset Enable
VCHOFFSET	QUANT	0	Vch Offset (V)
VCHFILTER	IQUANT	1	Vch Filter
IERANGELOWERLIMIT	IQUANT	9	I/E Range Lower Limit
IERANGEMODE	TOGGLE	F	I/E AutoRange
IERANGE	IQUANT	9	I/E Range
ACHSELECT	IQUANT	1	Ach Select
ACHRANGE	IQUANT	2	Ach Range
ACHOFFSETENABLE	TOGGLE	F	Ach Offset Enable
ACHOFFSET	QUANT	0	Ach Offset (V)
ACHFILTER	IQUANT	1	Ach Filter
CABLEID	IQUANT	14	Cable ID
DCCALDATE	LABEL	5-7-2017	DC Calibration Date
ACCALDATE	LABEL	12/3/2015	AC Calibration Date
FRAMEWORKVERSION	QUANT	7.01	Framework Version
INSTRUMENTVERSION	LABEL	4.00	Instrument Version
CURVE	TABLE	93
	Pt	T	Vf	Im	Vu	Pwr	Sig	Ach	Temp	IERange	Over
	#	s	V	A	V	W	V	V	deg C	#	bits
	0	0.013333	5.89092E-001	2.80985E-004	0.00000E+000	1.65526E-004	1.68088E-001	5.89356E-001	3.57830E+000	9	...........
	1	0.026667	6.18460E-001	2.81090E-004	0.00000E+000	1.73843E-004	1.68088E-001	6.18696E-001	3.57830E+000	9	...........
	2	0.04	6.43317E-001	2.80915E-004	0.00000E+000	1.80717E-004	1.68088E-001	6.43593E-001	3.57830E+000	9	...........
	3	0.053333	6.64958E-001	2.81004E-004	0.00000E+000	1.86856E-004	1.68088E-001	6.65219E-001	3.57830E+000	9	...........
	4	0.066667	6.84061E-001	2.80459E-004	0.00000E+000	1.91851E-004	1.68088E-001	6.84343E-001	3.57830E+000	9	...........
	5	0.08	7.01177E-001	2.80374E-004	0.00000E+000	1.96592E-004	1.68088E-001	7.01485E-001	3.57830E+000	9	...........
	6	0.093333	7.16683E-001	2.80632E-004	0.00000E+000	2.01124E-004	1.68088E-001	7.16971E-001	3.57830E+000	9	...........
	7	0.106667	7.30800E-001	2.80660E-004	0.00000E+000	2.05106E-004	1.68088E-001	7.31074E-001	3.57830E+000	9	...........
	8	0.12	7.43730E-001	2.81868E-004	0.00000E+000	2.09634E-004	1.68088E-001	7.43978E-001	3.57830E+000	9	...........
	9	0.133333	7.55642E-001	2.81423E-004	0.00000E+000	2.12655E-004	1.68088E-001	7.55876E-001	3.57830E+000	9	...........
	10	0.146667	7.66650E-001	2.81062E-004	0.00000E+000	2.15476E-004	1.68088E-001	7.66899E-001	3.57830E+000	9	...........
	11	0.16	7.76855E-001	2.81621E-004	0.00000E+000	2.18779E-004	1.68088E-001	7.77116E-001	3.57830E+000	9	...........
	12	0.173333	7.86368E-001	2.81022E-004	0.00000E+000	2.20987E-004	1.68088E-001	7.86616E-001	3.57830E+000	9	...........
	13	0.186667	7.95230E-001	2.80954E-004	0.00000E+000	2.23423E-004	1.68088E-001	7.95516E-001	3.57830E+000	9	...........
	14	0.2	8.03550E-001	2.81146E-004	0.00000E+000	2.25915E-004	1.68088E-001	8.03815E-001	3.57830E+000	9	...........
	15	0.213333	8.11319E-001	2.81931E-004	0.00000E+000	2.28736E-004	1.68088E-001	8.11617E-001	3.57830E+000	9	...........
	16	0.226667	8.18639E-001	2.80458E-004	0.00000E+000	2.29594E-004	1.68088E-001	8.18953E-001	3.57830E+000	9	...........
	17	0.24	8.25523E-001	2.80377E-004	0.00000E+000	2.31458E-004	1.68088E-001	8.25831E-001	3.57830E+000	9	...........
	18	0.253333	8.32008E-001	2.81689E-004	0.00000E+000	2.34367E-004	1.68088E-001	8.32353E-001	3.57830E+000	9	...........
	19	0.266667	8.38130E-001	2.82068E-004	0.00000E+000	2.36410E-004	1.68088E-001	8.38481E-001	3.57830E+000	9	...........
	20	0.28	8.43931E-001	2.81924E-004	0.00000E+000	2.37925E-004	1.68088E-001	8.44308E-001	3.57830E+000	9	...........
	21	0.293333	8.49488E-001	2.81455E-004	0.00000E+000	2.39093E-004	1.68088E-001	8.49828E-001	3.57830E+000	9	...........
	22	0.306667	8.54719E-001	2.81708E-004	0.00000E+000	2.40781E-004	1.68088E-001	8.55049E-001	3.57830E+000	9	...........
	23	0.32	8.59699E-001	2.82184E-004	0.00000E+000	2.42593E-004	1.68088E-001	8.60036E-001	3.57830E+000	9	...........
	24	0.333333	8.64422E-001	2.81348E-004	0.00000E+000	2.43204E-004	1.68088E-001	8.64788E-001	3.57830E+000	9	...........
	25	0.346667	8.68988E-001	2.81944E-004	0.00000E+000	2.45006E-004	1.68088E-001	8.69366E-001	3.57830E+000	9	...........
	26	0.36	8.73295E-001	2.81325E-004	0.00000E+000	2.45680E-004	1.68088E-001	8.73654E-001	3.57830E+000	9	...........
	27	0.373333	8.77433E-001	2.81594E-004	0.00000E+000	2.47080E-004	1.68088E-001	8.77783E-001	3.57830E+000	9	...........
	28	0.386667	8.81383E-001	2.81233E-004	0.00000E+000	2.47874E-004	1.68088E-001	8.81728E-001	3.57830E+000	9	...........
	29	0.4	8.85181E-001	2.81497E-004	0.00000E+000	2.49176E-004	1.68088E-001	8.85531E-001	3.57830E+000	9	...........
	30	0.413333	8.88836E-001	2.80504E-004	0.00000E+000	2.49322E-004	1.68088E-001	8.89182E-001	3.57830E+000	9	...........
	31	0.426667	8.92326E-001	2.80126E-004	0.00000E+000	2.49964E-004	1.68088E-001	8.92679E-001	3.57830E+000	9	...........
	32	0.44	8.95674E-001	2.80934E-004	0.00000E+000	2.51625E-004	1.68088E-001	8.96054E-001	3.57830E+000	9	...........
	33	0.453333	8.98900E-001	2.81471E-004	0.00000E+000	2.53014E-004	1.68088E-001	8.99263E-001	3.57830E+000	9	...........
	34	0.466667	9.02014E-001	2.81320E-004	0.00000E+000	2.53754E-004	1.68088E-001	9.02364E-001	3.57830E+000	9	...........
	35	0.48	9.05031E-001	2.80805E-004	0.00000E+000	2.54138E-004	1.68088E-001	9.05408E-001	3.57830E+000	9	...........
	36	0.493333	9.07948E-001	2.81473E-004	0.00000E+000	2.55563E-004	1.68088E-001	9.08329E-001	3.57830E+000	9	...........
	37	0.506667	9.10781E-001	2.81767E-004	0.00000E+000	2.56628E-004	1.68088E-001	9.11147E-001	3.57830E+000	9	...........
	38	0.52	9.13482E-001	2.80668E-004	0.00000E+000	2.56385E-004	1.68088E-001	9.13862E-001	3.57830E+000	9	...........
	39	0.533333	9.16121E-001	2.81268E-004	0.00000E+000	2.57676E-004	1.68088E-001	9.16515E-001	3.57830E+000	9	...........
	40	0.546667	9.18715E-001	2.81229E-004	0.00000E+000	2.58370E-004	1.68088E-001	9.19079E-001	3.57830E+000	9	...........
	41	0.56	9.21308E-001	2.81098E-004	0.00000E+000	2.58978E-004	1.68088E-001	9.21663E-001	3.57830E+000	9	...........
	42	0.573333	9.23784E-001	2.81404E-004	0.00000E+000	2.59957E-004	1.68088E-001	9.24119E-001	3.57830E+000	9	...........
	43	0.586667	9.26122E-001	2.81027E-004	0.00000E+000	2.60266E-004	1.68088E-001	9.26469E-001	3.57830E+000	9	...........
	44	0.6	9.28425E-001	2.81350E-004	0.00000E+000	2.61213E-004	1.68088E-001	9.28747E-001	3.57830E+000	9	...........
	45	0.613333	9.30634E-001	2.80893E-004	0.00000E+000	2.61409E-004	1.68088E-001	9.30965E-001	3.57830E+000	9	...........
	46	0.626667	9.32810E-001	2.81556E-004	0.00000E+000	2.62638E-004	1.68088E-001	9.33130E-001	3.57830E+000	9	...........
	47	0.64	9.34913E-001	2.81206E-004	0.00000E+000	2.62904E-004	1.68088E-001	9.35249E-001	3.58149E+000	9	...........
	48	0.653333	9.36949E-001	2.81253E-004	0.00000E+000	2.63520E-004	1.68088E-001	9.37305E-001	3.58190E+000	9	...........
	49	0.666667	9.38986E-001	2.81931E-004	0.00000E+000	2.64729E-004	1.68088E-001	9.39345E-001	3.58190E+000	9	...........
	50	0.68	9.40964E-001	2.82338E-004	0.00000E+000	2.65670E-004	1.68088E-001	9.41308E-001	3.58190E+000	9	...........
	51	0.693333	9.42892E-001	2.81267E-004	0.00000E+000	2.65204E-004	1.68088E-001	9.43240E-001	3.58190E+000	9	...........
	52	0.706667	9.44793E-001	2.81492E-004	0.00000E+000	2.65952E-004	1.68088E-001	9.45139E-001	3.58190E+000	9	...........
	53	0.72	9.46729E-001	2.81414E-004	0.00000E+000	2.66423E-004	1.68088E-001	9.47075E-001	3.58190E+000	9	...........
	54	0.733333	9.48575E-001	2.80961E-004	0.00000E+000	2.66512E-004	1.68088E-001	9.48908E-001	3.58190E+000	9	...........
	55	0.746667	9.50363E-001	2.80746E-004	0.00000E+000	2.66811E-004	1.68088E-001	9.50704E-001	3.58190E+000	9	...........
	56	0.76	9.52110E-001	2.80836E-004	0.00000E+000	2.67386E-004	1.68088E-001	9.52455E-001	3.58190E+000	9	...........
	57	0.773333	9.53856E-001	2.81955E-004	0.00000E+000	2.68944E-004	1.68088E-001	9.54164E-001	3.58190E+000	9	...........
	58	0.786667	9.55555E-001	2.81135E-004	0.00000E+000	2.68639E-004	1.68088E-001	9.55869E-001	3.58190E+000	9	...........
	59	0.8	9.57231E-001	2.81114E-004	0.00000E+000	2.69091E-004	1.68088E-001	9.57541E-001	3.58190E+000	9	...........
	60	0.813333	9.58868E-001	2.81446E-004	0.00000E+000	2.69870E-004	1.68088E-001	9.59179E-001	3.58190E+000	9	...........
	61	0.826667	9.60463E-001	2.81638E-004	0.00000E+000	2.70503E-004	1.68088E-001	9.60775E-001	3.58190E+000	9	...........
	62	0.84	9.62008E-001	2.81709E-004	0.00000E+000	2.71006E-004	1.68088E-001	9.62320E-001	3.58190E+000	9	...........
	63	0.853333	9.63609E-001	2.80565E-004	0.00000E+000	2.70355E-004	1.68088E-001	9.63901E-001	3.58190E+000	9	...........
	64	0.866667	9.65144E-001	2.81103E-004	0.00000E+000	2.71305E-004	1.68088E-001	9.65456E-001	3.58190E+000	9	...........
	65	0.88	9.66657E-001	2.81904E-004	0.00000E+000	2.72504E-004	1.68088E-001	9.66996E-001	3.58190E+000	9	...........
	66	0.893333	9.68161E-001	2.81041E-004	0.00000E+000	2.72093E-004	1.68088E-001	9.68486E-001	3.58190E+000	9	...........
	67	0.906667	9.69590E-001	2.81752E-004	0.00000E+000	2.73184E-004	1.68088E-001	9.69930E-001	3.58190E+000	9	...........
	68	0.92	9.70947E-001	2.81032E-004	0.00000E+000	2.72868E-004	1.68088E-001	9.71323E-001	3.58190E+000	9	...........
	69	0.933333	9.72367E-001	2.82412E-004	0.00000E+000	2.74608E-004	1.68088E-001	9.72720E-001	3.58190E+000	9	...........
	70	0.946667	9.73780E-001	2.80718E-004	0.00000E+000	2.73357E-004	1.68088E-001	9.74124E-001	3.58190E+000	9	...........
	71	0.96	9.75127E-001	2.80792E-004	0.00000E+000	2.73808E-004	1.68088E-001	9.75480E-001	3.58190E+000	9	...........
	72	0.97333	9.76497E-001	2.81345E-004	0.00000E+000	2.74733E-004	1.68088E-001	9.76873E-001	3.58190E+000	9	...........
	73	0.98667	9.77833E-001	2.81365E-004	0.00000E+000	2.75128E-004	1.68088E-001	9.78205E-001	3.58190E+000	9	...........
	74	1	9.79167E-001	2.81255E-004	0.00000E+000	2.75396E-004	1.68088E-001	9.79493E-001	3.58190E+000	9	...........
	75	1.01333	9.80483E-001	2.81127E-004	0.00000E+000	2.75640E-004	1.68088E-001	9.80809E-001	3.58190E+000	9	...........
	76	1.02667	9.81758E-001	2.81130E-004	0.00000E+000	2.76002E-004	1.68088E-001	9.82074E-001	3.58190E+000	9	...........
	77	1.04	9.83014E-001	2.81701E-004	0.00000E+000	2.76916E-004	1.68088E-001	9.83349E-001	3.58190E+000	9	...........
	78	1.05333	9.84296E-001	2.81812E-004	0.00000E+000	2.77386E-004	1.68088E-001	9.84622E-001	3.58190E+000	9	...........
	79	1.06667	9.85533E-001	2.81111E-004	0.00000E+000	2.77044E-004	1.68088E-001	9.85890E-001	3.58190E+000	9	...........
	80	1.08	9.86769E-001	2.81204E-004	0.00000E+000	2.77484E-004	1.68088E-001	9.87151E-001	3.58190E+000	9	...........
	81	1.09333	9.87985E-001	2.80969E-004	0.00000E+000	2.77593E-004	1.68088E-001	9.88350E-001	3.58190E+000	9	...........
	82	1.10667	9.89160E-001	2.80900E-004	0.00000E+000	2.77855E-004	1.68088E-001	9.89524E-001	3.58190E+000	9	...........
	83	1.12	9.90361E-001	2.81461E-004	0.00000E+000	2.78748E-004	1.68088E-001	9.90715E-001	3.58190E+000	9	...........
	84	1.13333	9.91520E-001	2.80702E-004	0.00000E+000	2.78322E-004	1.68088E-001	9.91859E-001	3.58190E+000	9	...........
	85	1.14667	9.92658E-001	2.81489E-004	0.00000E+000	2.79422E-004	1.68088E-001	9.93019E-001	3.58190E+000	9	...........
	86	1.16	9.93771E-001	2.80808E-004	0.00000E+000	2.79059E-004	1.68088E-001	9.94139E-001	3.58190E+000	9	...........
	87	1.17333	9.94928E-001	2.81215E-004	0.00000E+000	2.79788E-004	1.68088E-001	9.95265E-001	3.58190E+000	9	...........
	88	1.18667	9.96036E-001	2.81661E-004	0.00000E+000	2.80544E-004	1.68088E-001	9.96359E-001	3.58190E+000	9	...........
	89	1.2	9.97127E-001	2.81131E-004	0.00000E+000	2.80324E-004	1.68088E-001	9.97506E-001	3.58190E+000	9	...........
	90	1.21333	9.98268E-001	2.80490E-004	0.00000E+000	2.80004E-004	1.68088E-001	9.98620E-001	3.58190E+000	9	...........
	91	1.22667	9.99338E-001	2.81938E-004	0.00000E+000	2.81751E-004	1.68088E-001	9.99722E-001	3.58190E+000	9	...........
	92	1.23	1.00001E+000	2.81790E-004	0.00000E+000	2.81793E-004	1.68088E-001	1.00038E+000	3.58190E+000	9	...........
STARTTIMEOFFSET	QUANT	848.0485	Start Time Offset (s)
