EXPLAIN
TAG	PWR800_CHARGE
TITLE	LABEL	PWR Cyclic Charge Discharge (Cell) - Charge Step	Test &Identifier
DATE	LABEL	7-7-2017	Date
TIME	LABEL	16:01:04	Time
NOTES	NOTES	3	&Notes...
	supercap test cell
	2.8mg
	6M KOH
PSTAT	PSTAT	IFC5000-01520	Potentiostat
CAPACITY	QUANT	1.00000E-003	Capacity (A-hr)
CELLTYPE	SELECTOR	1	&Cell Type
WORKINGCONNECTION	SELECTOR	0	&Working Lead
MAXCHARGETIME	VARIABLEANDUNITS	1.00000E+002	s	1.00000E+002	second(s)	Max &Charge Time
CHARGECURRENT	QUANT	2.80000E-004	&Charge Current (A) 
VOLTAGEFINISH	TWOPARAM	F	1.00000E-003	3.60000E+003	&Voltage Finish	 I (A) < 	Max Time(s)
SAMPLETIME	QUANT	1.00000E-002	Sa&mple Period (s)
CHARGESTOPAT1	MULTIPARAM	4	1.00000E+000	Charge Stop At &1	Voltage > Limit	V
CHARGESTOPAT2	MULTIPARAM	0	0.00000E+000	Charge Stop At &2	None	N/A
AESBHCSELECTOR	TOGGLE	F	Save Both Half Cells
IRCOMP	TOGGLE	F	IR &Measure
EOC	QUANT	0	Open Circuit (V)
SEQUENCER	TOGGLE	TRUE	Run as Sequence
PSTATMODEL	IQUANT	53	Pstat Model
PSTATSECTION	LABEL	IFC5000-01520	Pstat Section
PSTATSERIALNO	LABEL	01520	Pstat Serial Number
CTRLMODE	IQUANT	0	Control Mode
ELECTROMETER	IQUANT	1	RE=0 or CS=1
IESTAB	IQUANT	0	I/E Stability
CASPEED	IQUANT	4	Control Amp Speed
CONVENTION	IQUANT	1	Current Convention
ICHRANGE	IQUANT	2	Ich Range
ICHRANGEMODE	TOGGLE	T	Ich Auto Range
ICHOFFSETENABLE	TOGGLE	F	Ich Offset Enable
ICHOFFSET	QUANT	0	Ich Offset (V)
ICHFILTER	IQUANT	1	Ich Filter
VCHRANGE	IQUANT	2	Vch Range
VCHRANGEMODE	TOGGLE	T	Vch Auto Range
VCHOFFSETENABLE	TOGGLE	F	Vch Offset Enable
VCHOFFSET	QUANT	0	Vch Offset (V)
VCHFILTER	IQUANT	1	Vch Filter
IERANGELOWERLIMIT	IQUANT	9	I/E Range Lower Limit
IERANGEMODE	TOGGLE	F	I/E AutoRange
IERANGE	IQUANT	9	I/E Range
ACHSELECT	IQUANT	1	Ach Select
ACHRANGE	IQUANT	2	Ach Range
ACHOFFSETENABLE	TOGGLE	F	Ach Offset Enable
ACHOFFSET	QUANT	0	Ach Offset (V)
ACHFILTER	IQUANT	1	Ach Filter
CABLEID	IQUANT	14	Cable ID
DCCALDATE	LABEL	5-7-2017	DC Calibration Date
ACCALDATE	LABEL	12/3/2015	AC Calibration Date
FRAMEWORKVERSION	QUANT	7.01	Framework Version
INSTRUMENTVERSION	LABEL	4.00	Instrument Version
CURVE	TABLE	79
	Pt	T	Vf	Im	Vu	Pwr	Sig	Ach	Temp	IERange	Over
	#	s	V	A	V	W	V	V	deg C	#	bits
	0	0.013333	5.99393E-001	2.81125E-004	0.00000E+000	1.68504E-004	1.68088E-001	5.99710E-001	3.57890E+000	9	...........
	1	0.026667	6.28850E-001	2.81932E-004	0.00000E+000	1.77293E-004	1.68088E-001	6.29153E-001	3.57890E+000	9	...........
	2	0.04	6.53939E-001	2.80878E-004	0.00000E+000	1.83677E-004	1.68088E-001	6.54249E-001	3.57890E+000	9	...........
	3	0.053333	6.75891E-001	2.81216E-004	0.00000E+000	1.90071E-004	1.68088E-001	6.76180E-001	3.57890E+000	9	...........
	4	0.066667	6.95358E-001	2.81343E-004	0.00000E+000	1.95634E-004	1.68088E-001	6.95650E-001	3.57890E+000	9	...........
	5	0.08	7.12856E-001	2.80791E-004	0.00000E+000	2.00163E-004	1.68088E-001	7.13118E-001	3.57890E+000	9	...........
	6	0.093333	7.28726E-001	2.80502E-004	0.00000E+000	2.04409E-004	1.68088E-001	7.28999E-001	3.57890E+000	9	...........
	7	0.106667	7.43205E-001	2.81693E-004	0.00000E+000	2.09356E-004	1.68088E-001	7.43468E-001	3.57890E+000	9	...........
	8	0.12	7.56522E-001	2.80991E-004	0.00000E+000	2.12576E-004	1.68088E-001	7.56807E-001	3.57890E+000	9	...........
	9	0.133333	7.68808E-001	2.80569E-004	0.00000E+000	2.15704E-004	1.68088E-001	7.69096E-001	3.57890E+000	9	...........
	10	0.146667	7.80165E-001	2.80509E-004	0.00000E+000	2.18844E-004	1.68088E-001	7.80462E-001	3.57890E+000	9	...........
	11	0.16	7.90702E-001	2.80840E-004	0.00000E+000	2.22061E-004	1.68088E-001	7.90976E-001	3.57890E+000	9	...........
	12	0.173333	8.00544E-001	2.81924E-004	0.00000E+000	2.25693E-004	1.68088E-001	8.00793E-001	3.57890E+000	9	...........
	13	0.186667	8.09671E-001	2.80665E-004	0.00000E+000	2.27246E-004	1.68088E-001	8.09946E-001	3.57890E+000	9	...........
	14	0.2	8.18241E-001	2.80365E-004	0.00000E+000	2.29406E-004	1.68088E-001	8.18517E-001	3.57890E+000	9	...........
	15	0.213333	8.26267E-001	2.82156E-004	0.00000E+000	2.33136E-004	1.68088E-001	8.26548E-001	3.57890E+000	9	...........
	16	0.226667	8.33806E-001	2.80977E-004	0.00000E+000	2.34281E-004	1.68088E-001	8.34113E-001	3.57890E+000	9	...........
	17	0.24	8.40873E-001	2.80780E-004	0.00000E+000	2.36101E-004	1.68088E-001	8.41222E-001	3.57890E+000	9	...........
	18	0.253333	8.47587E-001	2.82005E-004	0.00000E+000	2.39023E-004	1.68088E-001	8.47943E-001	3.57890E+000	9	...........
	19	0.266667	8.53932E-001	2.81870E-004	0.00000E+000	2.40698E-004	1.68088E-001	8.54264E-001	3.57890E+000	9	...........
	20	0.28	8.59904E-001	2.81040E-004	0.00000E+000	2.41667E-004	1.68088E-001	8.60274E-001	3.57890E+000	9	...........
	21	0.293333	8.65541E-001	2.81152E-004	0.00000E+000	2.43349E-004	1.68088E-001	8.65938E-001	3.57890E+000	9	...........
	22	0.306667	8.70956E-001	2.80295E-004	0.00000E+000	2.44124E-004	1.68088E-001	8.71336E-001	3.57890E+000	9	...........
	23	0.32	8.76069E-001	2.80235E-004	0.00000E+000	2.45506E-004	1.68088E-001	8.76471E-001	3.57890E+000	9	...........
	24	0.333333	8.80898E-001	2.80127E-004	0.00000E+000	2.46763E-004	1.68088E-001	8.81289E-001	3.57890E+000	9	...........
	25	0.346667	8.85531E-001	2.82099E-004	0.00000E+000	2.49808E-004	1.68088E-001	8.85912E-001	3.57890E+000	9	...........
	26	0.36	8.89945E-001	2.81623E-004	0.00000E+000	2.50629E-004	1.68088E-001	8.90284E-001	3.57890E+000	9	...........
	27	0.373333	8.94102E-001	2.81618E-004	0.00000E+000	2.51795E-004	1.68088E-001	8.94450E-001	3.57890E+000	9	...........
	28	0.386667	8.98117E-001	2.81531E-004	0.00000E+000	2.52847E-004	1.68088E-001	8.98468E-001	3.57855E+000	9	...........
	29	0.4	9.01952E-001	2.81262E-004	0.00000E+000	2.53685E-004	1.68088E-001	9.02295E-001	3.57850E+000	9	...........
	30	0.413333	9.05605E-001	2.80697E-004	0.00000E+000	2.54201E-004	1.68088E-001	9.05985E-001	3.57850E+000	9	...........
	31	0.426667	9.09157E-001	2.80426E-004	0.00000E+000	2.54952E-004	1.68088E-001	9.09522E-001	3.57850E+000	9	...........
	32	0.44	9.12552E-001	2.81649E-004	0.00000E+000	2.57020E-004	1.68088E-001	9.12942E-001	3.57850E+000	9	...........
	33	0.453333	9.15819E-001	2.81604E-004	0.00000E+000	2.57899E-004	1.68088E-001	9.16197E-001	3.57850E+000	9	...........
	34	0.466667	9.18944E-001	2.82482E-004	0.00000E+000	2.59585E-004	1.68088E-001	9.19343E-001	3.57850E+000	9	...........
	35	0.48	9.22075E-001	2.82357E-004	0.00000E+000	2.60354E-004	1.68088E-001	9.22415E-001	3.57850E+000	9	...........
	36	0.493333	9.24972E-001	2.80588E-004	0.00000E+000	2.59536E-004	1.68088E-001	9.25333E-001	3.57850E+000	9	...........
	37	0.506667	9.27837E-001	2.81807E-004	0.00000E+000	2.61471E-004	1.68088E-001	9.28209E-001	3.57850E+000	9	...........
	38	0.52	9.30559E-001	2.81702E-004	0.00000E+000	2.62141E-004	1.68088E-001	9.30948E-001	3.57850E+000	9	...........
	39	0.533333	9.33240E-001	2.80733E-004	0.00000E+000	2.61992E-004	1.68088E-001	9.33609E-001	3.57850E+000	9	...........
	40	0.546667	9.35810E-001	2.81723E-004	0.00000E+000	2.63639E-004	1.68088E-001	9.36215E-001	3.57850E+000	9	...........
	41	0.56	9.38278E-001	2.80706E-004	0.00000E+000	2.63381E-004	1.68088E-001	9.38688E-001	3.57850E+000	9	...........
	42	0.573333	9.40684E-001	2.81862E-004	0.00000E+000	2.65143E-004	1.68088E-001	9.41050E-001	3.57850E+000	9	...........
	43	0.586667	9.43034E-001	2.81762E-004	0.00000E+000	2.65711E-004	1.68088E-001	9.43401E-001	3.57850E+000	9	...........
	44	0.6	9.45336E-001	2.82125E-004	0.00000E+000	2.66703E-004	1.68088E-001	9.45739E-001	3.57850E+000	9	...........
	45	0.613333	9.47639E-001	2.83365E-004	0.00000E+000	2.68528E-004	1.68088E-001	9.48013E-001	3.57850E+000	9	...........
	46	0.626667	9.49795E-001	2.81350E-004	0.00000E+000	2.67225E-004	1.68088E-001	9.50149E-001	3.57850E+000	9	...........
	47	0.64	9.51891E-001	2.81159E-004	0.00000E+000	2.67632E-004	1.68088E-001	9.52274E-001	3.57850E+000	9	...........
	48	0.653333	9.53998E-001	2.82118E-004	0.00000E+000	2.69140E-004	1.68088E-001	9.54336E-001	3.57850E+000	9	...........
	49	0.666667	9.55986E-001	2.80985E-004	0.00000E+000	2.68617E-004	1.68088E-001	9.56374E-001	3.57850E+000	9	...........
	50	0.68	9.57965E-001	2.80994E-004	0.00000E+000	2.69182E-004	1.68088E-001	9.58346E-001	3.57850E+000	9	...........
	51	0.693333	9.59901E-001	2.81194E-004	0.00000E+000	2.69918E-004	1.68088E-001	9.60290E-001	3.57850E+000	9	...........
	52	0.706667	9.61774E-001	2.82262E-004	0.00000E+000	2.71472E-004	1.68088E-001	9.62158E-001	3.57850E+000	9	...........
	53	0.72	9.63584E-001	2.82027E-004	0.00000E+000	2.71757E-004	1.68088E-001	9.63989E-001	3.57850E+000	9	...........
	54	0.733333	9.65378E-001	2.80905E-004	0.00000E+000	2.71180E-004	1.68088E-001	9.65783E-001	3.57850E+000	9	...........
	55	0.746667	9.67169E-001	2.81418E-004	0.00000E+000	2.72179E-004	1.68088E-001	9.67544E-001	3.57850E+000	9	...........
	56	0.76	9.68886E-001	2.81229E-004	0.00000E+000	2.72479E-004	1.68088E-001	9.69273E-001	3.57850E+000	9	...........
	57	0.773333	9.70581E-001	2.81979E-004	0.00000E+000	2.73683E-004	1.68088E-001	9.70990E-001	3.57850E+000	9	...........
	58	0.786667	9.72293E-001	2.81170E-004	0.00000E+000	2.73380E-004	1.68088E-001	9.72671E-001	3.57850E+000	9	...........
	59	0.8	9.73963E-001	2.82421E-004	0.00000E+000	2.75068E-004	1.68088E-001	9.74311E-001	3.57850E+000	9	...........
	60	0.813333	9.75576E-001	2.81174E-004	0.00000E+000	2.74307E-004	1.68088E-001	9.75919E-001	3.57850E+000	9	...........
	61	0.826667	9.77150E-001	2.81427E-004	0.00000E+000	2.74997E-004	1.68088E-001	9.77516E-001	3.57850E+000	9	...........
	62	0.84	9.78739E-001	2.81088E-004	0.00000E+000	2.75112E-004	1.68088E-001	9.79070E-001	3.57850E+000	9	...........
	63	0.853333	9.80235E-001	2.81239E-004	0.00000E+000	2.75680E-004	1.68088E-001	9.80569E-001	3.57850E+000	9	...........
	64	0.866667	9.81706E-001	2.80567E-004	0.00000E+000	2.75434E-004	1.68088E-001	9.82056E-001	3.57850E+000	9	...........
	65	0.88	9.83179E-001	2.83227E-004	0.00000E+000	2.78462E-004	1.68088E-001	9.83520E-001	3.57850E+000	9	...........
	66	0.893333	9.84613E-001	2.81288E-004	0.00000E+000	2.76960E-004	1.68088E-001	9.84971E-001	3.57850E+000	9	...........
	67	0.906667	9.86013E-001	2.81238E-004	0.00000E+000	2.77304E-004	1.68088E-001	9.86406E-001	3.57850E+000	9	...........
	68	0.92	9.87425E-001	2.80135E-004	0.00000E+000	2.76613E-004	1.68088E-001	9.87809E-001	3.57850E+000	9	...........
	69	0.933333	9.88838E-001	2.81115E-004	0.00000E+000	2.77977E-004	1.68088E-001	9.89200E-001	3.57850E+000	9	...........
	70	0.946667	9.90215E-001	2.79702E-004	0.00000E+000	2.76965E-004	1.68088E-001	9.90552E-001	3.57850E+000	9	...........
	71	0.96	9.91569E-001	2.81890E-004	0.00000E+000	2.79513E-004	1.68088E-001	9.91912E-001	3.57850E+000	9	...........
	72	0.97333	9.92852E-001	2.80099E-004	0.00000E+000	2.78097E-004	1.68088E-001	9.93222E-001	3.57850E+000	9	...........
	73	0.98667	9.94169E-001	2.81766E-004	0.00000E+000	2.80123E-004	1.68088E-001	9.94556E-001	3.57850E+000	9	...........
	74	1	9.95486E-001	2.81100E-004	0.00000E+000	2.79831E-004	1.68088E-001	9.95844E-001	3.57850E+000	9	...........
	75	1.01333	9.96766E-001	2.81225E-004	0.00000E+000	2.80316E-004	1.68088E-001	9.97149E-001	3.57850E+000	9	...........
	76	1.02667	9.98044E-001	2.81523E-004	0.00000E+000	2.80973E-004	1.68088E-001	9.98431E-001	3.57850E+000	9	...........
	77	1.04	9.99283E-001	2.81296E-004	0.00000E+000	2.81094E-004	1.68088E-001	9.99684E-001	3.57850E+000	9	...........
	78	1.04333	1.00004E+000	2.80094E-004	0.00000E+000	2.80105E-004	1.68088E-001	1.00042E+000	3.57850E+000	9	...........
STARTTIMEOFFSET	QUANT	1154.548	Start Time Offset (s)
