EXPLAIN
TAG	PWR800_CHARGE
TITLE	LABEL	PWR Cyclic Charge Discharge (Cell) - Charge Step	Test &Identifier
DATE	LABEL	7-7-2017	Date
TIME	LABEL	16:21:13	Time
NOTES	NOTES	3	&Notes...
	supercap test cell
	2.8mg
	6M KOH
PSTAT	PSTAT	IFC5000-01520	Potentiostat
CAPACITY	QUANT	1.00000E-003	Capacity (A-hr)
CELLTYPE	SELECTOR	1	&Cell Type
WORKINGCONNECTION	SELECTOR	0	&Working Lead
MAXCHARGETIME	VARIABLEANDUNITS	1.00000E+002	s	1.00000E+002	second(s)	Max &Charge Time
CHARGECURRENT	QUANT	2.80000E-004	&Charge Current (A) 
VOLTAGEFINISH	TWOPARAM	F	1.00000E-003	3.60000E+003	&Voltage Finish	 I (A) < 	Max Time(s)
SAMPLETIME	QUANT	1.00000E-002	Sa&mple Period (s)
CHARGESTOPAT1	MULTIPARAM	4	1.00000E+000	Charge Stop At &1	Voltage > Limit	V
CHARGESTOPAT2	MULTIPARAM	0	0.00000E+000	Charge Stop At &2	None	N/A
AESBHCSELECTOR	TOGGLE	F	Save Both Half Cells
IRCOMP	TOGGLE	F	IR &Measure
EOC	QUANT	0	Open Circuit (V)
SEQUENCER	TOGGLE	TRUE	Run as Sequence
PSTATMODEL	IQUANT	53	Pstat Model
PSTATSECTION	LABEL	IFC5000-01520	Pstat Section
PSTATSERIALNO	LABEL	01520	Pstat Serial Number
CTRLMODE	IQUANT	0	Control Mode
ELECTROMETER	IQUANT	1	RE=0 or CS=1
IESTAB	IQUANT	0	I/E Stability
CASPEED	IQUANT	4	Control Amp Speed
CONVENTION	IQUANT	1	Current Convention
ICHRANGE	IQUANT	2	Ich Range
ICHRANGEMODE	TOGGLE	T	Ich Auto Range
ICHOFFSETENABLE	TOGGLE	F	Ich Offset Enable
ICHOFFSET	QUANT	0	Ich Offset (V)
ICHFILTER	IQUANT	1	Ich Filter
VCHRANGE	IQUANT	2	Vch Range
VCHRANGEMODE	TOGGLE	T	Vch Auto Range
VCHOFFSETENABLE	TOGGLE	F	Vch Offset Enable
VCHOFFSET	QUANT	0	Vch Offset (V)
VCHFILTER	IQUANT	1	Vch Filter
IERANGELOWERLIMIT	IQUANT	9	I/E Range Lower Limit
IERANGEMODE	TOGGLE	F	I/E AutoRange
IERANGE	IQUANT	9	I/E Range
ACHSELECT	IQUANT	1	Ach Select
ACHRANGE	IQUANT	2	Ach Range
ACHOFFSETENABLE	TOGGLE	F	Ach Offset Enable
ACHOFFSET	QUANT	0	Ach Offset (V)
ACHFILTER	IQUANT	1	Ach Filter
CABLEID	IQUANT	14	Cable ID
DCCALDATE	LABEL	5-7-2017	DC Calibration Date
ACCALDATE	LABEL	12/3/2015	AC Calibration Date
FRAMEWORKVERSION	QUANT	7.01	Framework Version
INSTRUMENTVERSION	LABEL	4.00	Instrument Version
CURVE	TABLE	59
	Pt	T	Vf	Im	Vu	Pwr	Sig	Ach	Temp	IERange	Over
	#	s	V	A	V	W	V	V	deg C	#	bits
	0	0.013333	6.25090E-001	2.82893E-004	0.00000E+000	1.76834E-004	1.68088E-001	6.25279E-001	3.57770E+000	9	...........
	1	0.026667	6.54415E-001	2.79970E-004	0.00000E+000	1.83216E-004	1.68088E-001	6.54614E-001	3.57770E+000	9	...........
	2	0.04	6.79680E-001	2.82421E-004	0.00000E+000	1.91956E-004	1.68088E-001	6.79890E-001	3.57770E+000	9	...........
	3	0.053333	7.01901E-001	2.80528E-004	0.00000E+000	1.96903E-004	1.68088E-001	7.02137E-001	3.57770E+000	9	...........
	4	0.066667	7.21801E-001	2.80554E-004	0.00000E+000	2.02504E-004	1.68088E-001	7.22051E-001	3.57770E+000	9	...........
	5	0.08	7.39777E-001	2.79976E-004	0.00000E+000	2.07120E-004	1.68088E-001	7.40035E-001	3.57770E+000	9	...........
	6	0.093333	7.56118E-001	2.81831E-004	0.00000E+000	2.13097E-004	1.68088E-001	7.56387E-001	3.57770E+000	9	...........
	7	0.106667	7.71083E-001	2.81551E-004	0.00000E+000	2.17099E-004	1.68088E-001	7.71339E-001	3.57770E+000	9	...........
	8	0.12	7.84824E-001	2.82601E-004	0.00000E+000	2.21792E-004	1.68088E-001	7.85095E-001	3.57770E+000	9	...........
	9	0.133333	7.97540E-001	2.81556E-004	0.00000E+000	2.24552E-004	1.68088E-001	7.97808E-001	3.57770E+000	9	...........
	10	0.146667	8.09279E-001	2.82235E-004	0.00000E+000	2.28407E-004	1.68088E-001	8.09562E-001	3.57770E+000	9	...........
	11	0.16	8.20208E-001	2.82981E-004	0.00000E+000	2.32103E-004	1.68088E-001	8.20518E-001	3.57770E+000	9	...........
	12	0.173333	8.30366E-001	2.80576E-004	0.00000E+000	2.32981E-004	1.68088E-001	8.30702E-001	3.57775E+000	9	...........
	13	0.186667	8.39814E-001	2.81305E-004	0.00000E+000	2.36244E-004	1.68088E-001	8.40169E-001	3.57780E+000	9	...........
	14	0.2	8.48660E-001	2.81592E-004	0.00000E+000	2.38976E-004	1.68088E-001	8.49019E-001	3.57780E+000	9	...........
	15	0.213333	8.56946E-001	2.81974E-004	0.00000E+000	2.41637E-004	1.68088E-001	8.57316E-001	3.57780E+000	9	...........
	16	0.226667	8.64681E-001	2.82534E-004	0.00000E+000	2.44302E-004	1.68088E-001	8.65073E-001	3.57780E+000	9	...........
	17	0.24	8.71987E-001	2.81461E-004	0.00000E+000	2.45430E-004	1.68088E-001	8.72358E-001	3.57780E+000	9	...........
	18	0.253333	8.78774E-001	2.79853E-004	0.00000E+000	2.45928E-004	1.68088E-001	8.79142E-001	3.57780E+000	9	...........
	19	0.266667	8.85234E-001	2.81908E-004	0.00000E+000	2.49554E-004	1.68088E-001	8.85572E-001	3.57780E+000	9	...........
	20	0.28	8.91268E-001	2.79725E-004	0.00000E+000	2.49310E-004	1.68088E-001	8.91590E-001	3.57780E+000	9	...........
	21	0.293333	8.96989E-001	2.80712E-004	0.00000E+000	2.51795E-004	1.68088E-001	8.97348E-001	3.57780E+000	9	...........
	22	0.306667	9.02379E-001	2.81013E-004	0.00000E+000	2.53580E-004	1.68088E-001	9.02714E-001	3.57780E+000	9	...........
	23	0.32	9.07466E-001	2.80861E-004	0.00000E+000	2.54871E-004	1.68088E-001	9.07843E-001	3.57780E+000	9	...........
	24	0.333333	9.12329E-001	2.79726E-004	0.00000E+000	2.55202E-004	1.68088E-001	9.12674E-001	3.57780E+000	9	...........
	25	0.346667	9.16904E-001	2.80269E-004	0.00000E+000	2.56980E-004	1.68088E-001	9.17243E-001	3.57780E+000	9	...........
	26	0.36	9.21302E-001	2.80294E-004	0.00000E+000	2.58235E-004	1.68088E-001	9.21605E-001	3.57780E+000	9	...........
	27	0.373333	9.25466E-001	2.82211E-004	0.00000E+000	2.61177E-004	1.68088E-001	9.25744E-001	3.57780E+000	9	...........
	28	0.386667	9.29415E-001	2.81682E-004	0.00000E+000	2.61799E-004	1.68088E-001	9.29728E-001	3.57780E+000	9	...........
	29	0.4	9.33163E-001	2.81114E-004	0.00000E+000	2.62325E-004	1.68088E-001	9.33478E-001	3.57780E+000	9	...........
	30	0.413333	9.36716E-001	2.81489E-004	0.00000E+000	2.63675E-004	1.68088E-001	9.37059E-001	3.57780E+000	9	...........
	31	0.426667	9.40143E-001	2.82085E-004	0.00000E+000	2.65200E-004	1.68088E-001	9.40493E-001	3.57780E+000	9	...........
	32	0.44	9.43440E-001	2.80952E-004	0.00000E+000	2.65062E-004	1.68088E-001	9.43799E-001	3.57780E+000	9	...........
	33	0.453333	9.46649E-001	2.80690E-004	0.00000E+000	2.65715E-004	1.68088E-001	9.46998E-001	3.57780E+000	9	...........
	34	0.466667	9.49745E-001	2.81082E-004	0.00000E+000	2.66957E-004	1.68088E-001	9.50058E-001	3.57780E+000	9	...........
	35	0.48	9.52662E-001	2.82002E-004	0.00000E+000	2.68653E-004	1.68088E-001	9.52994E-001	3.57780E+000	9	...........
	36	0.493333	9.55480E-001	2.80077E-004	0.00000E+000	2.67608E-004	1.68088E-001	9.55805E-001	3.57780E+000	9	...........
	37	0.506667	9.58209E-001	2.81080E-004	0.00000E+000	2.69334E-004	1.68088E-001	9.58565E-001	3.57780E+000	9	...........
	38	0.52	9.60850E-001	2.80238E-004	0.00000E+000	2.69266E-004	1.68088E-001	9.61203E-001	3.57780E+000	9	...........
	39	0.533333	9.63354E-001	2.82040E-004	0.00000E+000	2.71704E-004	1.68088E-001	9.63720E-001	3.57780E+000	9	...........
	40	0.546667	9.65776E-001	2.81467E-004	0.00000E+000	2.71834E-004	1.68088E-001	9.66125E-001	3.57780E+000	9	...........
	41	0.56	9.68140E-001	2.79956E-004	0.00000E+000	2.71037E-004	1.68088E-001	9.68511E-001	3.57780E+000	9	...........
	42	0.573333	9.70436E-001	2.81883E-004	0.00000E+000	2.73549E-004	1.68088E-001	9.70811E-001	3.57780E+000	9	...........
	43	0.586667	9.72708E-001	2.81000E-004	0.00000E+000	2.73331E-004	1.68088E-001	9.73103E-001	3.57780E+000	9	...........
	44	0.6	9.74907E-001	2.80360E-004	0.00000E+000	2.73325E-004	1.68088E-001	9.75270E-001	3.57780E+000	9	...........
	45	0.613333	9.77013E-001	2.82402E-004	0.00000E+000	2.75910E-004	1.68088E-001	9.77380E-001	3.57780E+000	9	...........
	46	0.626667	9.79096E-001	2.81364E-004	0.00000E+000	2.75482E-004	1.68088E-001	9.79455E-001	3.57780E+000	9	...........
	47	0.64	9.81107E-001	2.81014E-004	0.00000E+000	2.75704E-004	1.68088E-001	9.81440E-001	3.57780E+000	9	...........
	48	0.653333	9.83040E-001	2.80922E-004	0.00000E+000	2.76158E-004	1.68088E-001	9.83420E-001	3.57780E+000	9	...........
	49	0.666667	9.84914E-001	2.81071E-004	0.00000E+000	2.76831E-004	1.68088E-001	9.85305E-001	3.57780E+000	9	...........
	50	0.68	9.86791E-001	2.80593E-004	0.00000E+000	2.76887E-004	1.68088E-001	9.87170E-001	3.57780E+000	9	...........
	51	0.693333	9.88586E-001	2.80679E-004	0.00000E+000	2.77475E-004	1.68088E-001	9.88952E-001	3.57780E+000	9	...........
	52	0.706667	9.90357E-001	2.81553E-004	0.00000E+000	2.78839E-004	1.68088E-001	9.90737E-001	3.57780E+000	9	...........
	53	0.72	9.92118E-001	2.80208E-004	0.00000E+000	2.78000E-004	1.68088E-001	9.92472E-001	3.57780E+000	9	...........
	54	0.733333	9.93797E-001	2.81531E-004	0.00000E+000	2.79784E-004	1.68088E-001	9.94186E-001	3.57780E+000	9	...........
	55	0.746667	9.95469E-001	2.81280E-004	0.00000E+000	2.80006E-004	1.68088E-001	9.95812E-001	3.57780E+000	9	...........
	56	0.76	9.97085E-001	2.80866E-004	0.00000E+000	2.80047E-004	1.68088E-001	9.97461E-001	3.57780E+000	9	...........
	57	0.773333	9.98724E-001	2.82142E-004	0.00000E+000	2.81782E-004	1.68088E-001	9.99089E-001	3.57780E+000	9	...........
	58	0.778333	9.99806E-001	2.79238E-004	0.00000E+000	2.79184E-004	1.68088E-001	1.00016E+000	3.57780E+000	9	...........
STARTTIMEOFFSET	QUANT	1969.446	Start Time Offset (s)
