EXPLAIN
TAG	PWR800_CHARGE
TITLE	LABEL	PWR Cyclic Charge Discharge (Cell) - Charge Step	Test &Identifier
DATE	LABEL	7-7-2017	Date
TIME	LABEL	15:59:28	Time
NOTES	NOTES	3	&Notes...
	supercap test cell
	2.8mg
	6M KOH
PSTAT	PSTAT	IFC5000-01520	Potentiostat
CAPACITY	QUANT	1.00000E-003	Capacity (A-hr)
CELLTYPE	SELECTOR	1	&Cell Type
WORKINGCONNECTION	SELECTOR	0	&Working Lead
MAXCHARGETIME	VARIABLEANDUNITS	1.00000E+002	s	1.00000E+002	second(s)	Max &Charge Time
CHARGECURRENT	QUANT	2.80000E-004	&Charge Current (A) 
VOLTAGEFINISH	TWOPARAM	F	1.00000E-003	3.60000E+003	&Voltage Finish	 I (A) < 	Max Time(s)
SAMPLETIME	QUANT	1.00000E-002	Sa&mple Period (s)
CHARGESTOPAT1	MULTIPARAM	4	1.00000E+000	Charge Stop At &1	Voltage > Limit	V
CHARGESTOPAT2	MULTIPARAM	0	0.00000E+000	Charge Stop At &2	None	N/A
AESBHCSELECTOR	TOGGLE	F	Save Both Half Cells
IRCOMP	TOGGLE	F	IR &Measure
EOC	QUANT	0	Open Circuit (V)
SEQUENCER	TOGGLE	TRUE	Run as Sequence
PSTATMODEL	IQUANT	53	Pstat Model
PSTATSECTION	LABEL	IFC5000-01520	Pstat Section
PSTATSERIALNO	LABEL	01520	Pstat Serial Number
CTRLMODE	IQUANT	0	Control Mode
ELECTROMETER	IQUANT	1	RE=0 or CS=1
IESTAB	IQUANT	0	I/E Stability
CASPEED	IQUANT	4	Control Amp Speed
CONVENTION	IQUANT	1	Current Convention
ICHRANGE	IQUANT	2	Ich Range
ICHRANGEMODE	TOGGLE	T	Ich Auto Range
ICHOFFSETENABLE	TOGGLE	F	Ich Offset Enable
ICHOFFSET	QUANT	0	Ich Offset (V)
ICHFILTER	IQUANT	1	Ich Filter
VCHRANGE	IQUANT	2	Vch Range
VCHRANGEMODE	TOGGLE	T	Vch Auto Range
VCHOFFSETENABLE	TOGGLE	F	Vch Offset Enable
VCHOFFSET	QUANT	0	Vch Offset (V)
VCHFILTER	IQUANT	1	Vch Filter
IERANGELOWERLIMIT	IQUANT	9	I/E Range Lower Limit
IERANGEMODE	TOGGLE	F	I/E AutoRange
IERANGE	IQUANT	9	I/E Range
ACHSELECT	IQUANT	1	Ach Select
ACHRANGE	IQUANT	2	Ach Range
ACHOFFSETENABLE	TOGGLE	F	Ach Offset Enable
ACHOFFSET	QUANT	0	Ach Offset (V)
ACHFILTER	IQUANT	1	Ach Filter
CABLEID	IQUANT	14	Cable ID
DCCALDATE	LABEL	5-7-2017	DC Calibration Date
ACCALDATE	LABEL	12/3/2015	AC Calibration Date
FRAMEWORKVERSION	QUANT	7.01	Framework Version
INSTRUMENTVERSION	LABEL	4.00	Instrument Version
CURVE	TABLE	81
	Pt	T	Vf	Im	Vu	Pwr	Sig	Ach	Temp	IERange	Over
	#	s	V	A	V	W	V	V	deg C	#	bits
	0	0.013333	5.97962E-001	2.79885E-004	0.00000E+000	1.67361E-004	1.68088E-001	5.98252E-001	3.57800E+000	9	...........
	1	0.026667	6.27403E-001	2.81489E-004	0.00000E+000	1.76607E-004	1.68088E-001	6.27671E-001	3.57800E+000	9	...........
	2	0.04	6.52428E-001	2.81114E-004	0.00000E+000	1.83406E-004	1.68088E-001	6.52697E-001	3.57800E+000	9	...........
	3	0.053333	6.74294E-001	2.81627E-004	0.00000E+000	1.89900E-004	1.68088E-001	6.74572E-001	3.57800E+000	9	...........
	4	0.066667	6.93673E-001	2.81504E-004	0.00000E+000	1.95272E-004	1.68088E-001	6.93944E-001	3.57800E+000	9	...........
	5	0.08	7.11089E-001	2.81073E-004	0.00000E+000	1.99868E-004	1.68088E-001	7.11355E-001	3.57800E+000	9	...........
	6	0.093333	7.26879E-001	2.80818E-004	0.00000E+000	2.04121E-004	1.68088E-001	7.27116E-001	3.57800E+000	9	...........
	7	0.106667	7.41269E-001	2.80923E-004	0.00000E+000	2.08240E-004	1.68088E-001	7.41488E-001	3.57800E+000	9	...........
	8	0.12	7.54499E-001	2.81797E-004	0.00000E+000	2.12616E-004	1.68088E-001	7.54746E-001	3.57800E+000	9	...........
	9	0.133333	7.66704E-001	2.81466E-004	0.00000E+000	2.15801E-004	1.68088E-001	7.66964E-001	3.57800E+000	9	...........
	10	0.146667	7.78015E-001	2.82156E-004	0.00000E+000	2.19521E-004	1.68088E-001	7.78280E-001	3.57800E+000	9	...........
	11	0.16	7.88490E-001	2.80524E-004	0.00000E+000	2.21191E-004	1.68088E-001	7.88760E-001	3.57800E+000	9	...........
	12	0.173333	7.98276E-001	2.79456E-004	0.00000E+000	2.23083E-004	1.68088E-001	7.98548E-001	3.57800E+000	9	...........
	13	0.186667	8.07401E-001	2.80991E-004	0.00000E+000	2.26872E-004	1.68088E-001	8.07695E-001	3.57800E+000	9	...........
	14	0.2	8.15949E-001	2.81460E-004	0.00000E+000	2.29657E-004	1.68088E-001	8.16250E-001	3.57800E+000	9	...........
	15	0.213333	8.23968E-001	2.81612E-004	0.00000E+000	2.32039E-004	1.68088E-001	8.24285E-001	3.57800E+000	9	...........
	16	0.226667	8.31455E-001	2.81139E-004	0.00000E+000	2.33754E-004	1.68088E-001	8.31768E-001	3.57800E+000	9	...........
	17	0.24	8.38539E-001	2.80633E-004	0.00000E+000	2.35322E-004	1.68088E-001	8.38860E-001	3.57800E+000	9	...........
	18	0.253333	8.45243E-001	2.81396E-004	0.00000E+000	2.37848E-004	1.68088E-001	8.45564E-001	3.57800E+000	9	...........
	19	0.266667	8.51521E-001	2.80721E-004	0.00000E+000	2.39040E-004	1.68088E-001	8.51863E-001	3.57800E+000	9	...........
	20	0.28	8.57473E-001	2.80776E-004	0.00000E+000	2.40758E-004	1.68088E-001	8.57827E-001	3.57800E+000	9	...........
	21	0.293333	8.63110E-001	2.81146E-004	0.00000E+000	2.42660E-004	1.68088E-001	8.63483E-001	3.57800E+000	9	...........
	22	0.306667	8.68491E-001	2.81210E-004	0.00000E+000	2.44228E-004	1.68088E-001	8.68864E-001	3.57800E+000	9	...........
	23	0.32	8.73559E-001	2.80539E-004	0.00000E+000	2.45067E-004	1.68088E-001	8.73937E-001	3.57800E+000	9	...........
	24	0.333333	8.78372E-001	2.80845E-004	0.00000E+000	2.46686E-004	1.68088E-001	8.78719E-001	3.57800E+000	9	...........
	25	0.346667	8.82965E-001	2.80911E-004	0.00000E+000	2.48034E-004	1.68088E-001	8.83337E-001	3.57800E+000	9	...........
	26	0.36	8.87326E-001	2.80546E-004	0.00000E+000	2.48936E-004	1.68088E-001	8.87717E-001	3.57800E+000	9	...........
	27	0.373333	8.91516E-001	2.80877E-004	0.00000E+000	2.50407E-004	1.68088E-001	8.91879E-001	3.57800E+000	9	...........
	28	0.386667	8.95540E-001	2.80953E-004	0.00000E+000	2.51605E-004	1.68088E-001	8.95920E-001	3.57800E+000	9	...........
	29	0.4	8.99356E-001	2.80785E-004	0.00000E+000	2.52525E-004	1.68088E-001	8.99740E-001	3.57800E+000	9	...........
	30	0.413333	9.02988E-001	2.82024E-004	0.00000E+000	2.54665E-004	1.68088E-001	9.03354E-001	3.57800E+000	9	...........
	31	0.426667	9.06475E-001	2.81489E-004	0.00000E+000	2.55163E-004	1.68088E-001	9.06862E-001	3.57800E+000	9	...........
	32	0.44	9.09839E-001	2.81232E-004	0.00000E+000	2.55875E-004	1.68088E-001	9.10198E-001	3.57800E+000	9	...........
	33	0.453333	9.13096E-001	2.81076E-004	0.00000E+000	2.56650E-004	1.68088E-001	9.13464E-001	3.57800E+000	9	...........
	34	0.466667	9.16248E-001	2.81376E-004	0.00000E+000	2.57810E-004	1.68088E-001	9.16624E-001	3.57800E+000	9	...........
	35	0.48	9.19280E-001	2.81993E-004	0.00000E+000	2.59231E-004	1.68088E-001	9.19657E-001	3.57800E+000	9	...........
	36	0.493333	9.22252E-001	2.80867E-004	0.00000E+000	2.59030E-004	1.68088E-001	9.22569E-001	3.57800E+000	9	...........
	37	0.506667	9.25085E-001	2.81483E-004	0.00000E+000	2.60395E-004	1.68088E-001	9.25424E-001	3.57800E+000	9	...........
	38	0.52	9.27827E-001	2.80181E-004	0.00000E+000	2.59960E-004	1.68088E-001	9.28153E-001	3.57800E+000	9	...........
	39	0.533333	9.30483E-001	2.81074E-004	0.00000E+000	2.61535E-004	1.68088E-001	9.30824E-001	3.57800E+000	9	...........
	40	0.546667	9.33050E-001	2.81382E-004	0.00000E+000	2.62543E-004	1.68088E-001	9.33389E-001	3.57800E+000	9	...........
	41	0.56	9.35548E-001	2.81295E-004	0.00000E+000	2.63165E-004	1.68088E-001	9.35905E-001	3.57800E+000	9	...........
	42	0.573333	9.37956E-001	2.81351E-004	0.00000E+000	2.63895E-004	1.68088E-001	9.38316E-001	3.57800E+000	9	...........
	43	0.586667	9.40295E-001	2.81002E-004	0.00000E+000	2.64225E-004	1.68088E-001	9.40640E-001	3.57800E+000	9	...........
	44	0.6	9.42542E-001	2.81653E-004	0.00000E+000	2.65470E-004	1.68088E-001	9.42929E-001	3.57938E+000	9	...........
	45	0.613333	9.44748E-001	2.80897E-004	0.00000E+000	2.65377E-004	1.68088E-001	9.45113E-001	3.58020E+000	9	...........
	46	0.626667	9.46978E-001	2.82651E-004	0.00000E+000	2.67664E-004	1.68088E-001	9.47343E-001	3.58020E+000	9	...........
	47	0.64	9.49093E-001	2.81196E-004	0.00000E+000	2.66881E-004	1.68088E-001	9.49443E-001	3.58020E+000	9	...........
	48	0.653333	9.51165E-001	2.81311E-004	0.00000E+000	2.67573E-004	1.68088E-001	9.51546E-001	3.58020E+000	9	...........
	49	0.666667	9.53175E-001	2.81484E-004	0.00000E+000	2.68303E-004	1.68088E-001	9.53531E-001	3.58020E+000	9	...........
	50	0.68	9.55111E-001	2.80114E-004	0.00000E+000	2.67539E-004	1.68088E-001	9.55475E-001	3.58020E+000	9	...........
	51	0.693333	9.57000E-001	2.81354E-004	0.00000E+000	2.69256E-004	1.68088E-001	9.57373E-001	3.58020E+000	9	...........
	52	0.706667	9.58857E-001	2.81176E-004	0.00000E+000	2.69608E-004	1.68088E-001	9.59248E-001	3.58020E+000	9	...........
	53	0.72	9.60730E-001	2.80931E-004	0.00000E+000	2.69899E-004	1.68088E-001	9.61106E-001	3.58020E+000	9	...........
	54	0.733333	9.62520E-001	2.80703E-004	0.00000E+000	2.70182E-004	1.68088E-001	9.62905E-001	3.58020E+000	9	...........
	55	0.746667	9.64294E-001	2.82021E-004	0.00000E+000	2.71951E-004	1.68088E-001	9.64676E-001	3.58020E+000	9	...........
	56	0.76	9.66048E-001	2.81667E-004	0.00000E+000	2.72104E-004	1.68088E-001	9.66418E-001	3.58020E+000	9	...........
	57	0.773333	9.67792E-001	2.82142E-004	0.00000E+000	2.73055E-004	1.68088E-001	9.68158E-001	3.58020E+000	9	...........
	58	0.786667	9.69455E-001	2.80222E-004	0.00000E+000	2.71662E-004	1.68088E-001	9.69828E-001	3.58020E+000	9	...........
	59	0.8	9.71079E-001	2.81717E-004	0.00000E+000	2.73569E-004	1.68088E-001	9.71504E-001	3.58020E+000	9	...........
	60	0.813333	9.72732E-001	2.80948E-004	0.00000E+000	2.73287E-004	1.68088E-001	9.73109E-001	3.58020E+000	9	...........
	61	0.826667	9.74285E-001	2.82716E-004	0.00000E+000	2.75446E-004	1.68088E-001	9.74634E-001	3.58020E+000	9	...........
	62	0.84	9.75812E-001	2.81128E-004	0.00000E+000	2.74328E-004	1.68088E-001	9.76163E-001	3.58020E+000	9	...........
	63	0.853333	9.77293E-001	2.81544E-004	0.00000E+000	2.75151E-004	1.68088E-001	9.77651E-001	3.58020E+000	9	...........
	64	0.866667	9.78773E-001	2.81250E-004	0.00000E+000	2.75280E-004	1.68088E-001	9.79139E-001	3.58020E+000	9	...........
	65	0.88	9.80234E-001	2.81283E-004	0.00000E+000	2.75723E-004	1.68088E-001	9.80599E-001	3.58020E+000	9	...........
	66	0.893333	9.81673E-001	2.80830E-004	0.00000E+000	2.75684E-004	1.68088E-001	9.82037E-001	3.58020E+000	9	...........
	67	0.906667	9.83124E-001	2.82339E-004	0.00000E+000	2.77574E-004	1.68088E-001	9.83474E-001	3.58020E+000	9	...........
	68	0.92	9.84522E-001	2.81305E-004	0.00000E+000	2.76951E-004	1.68088E-001	9.84882E-001	3.58020E+000	9	...........
	69	0.933333	9.85916E-001	2.81318E-004	0.00000E+000	2.77356E-004	1.68088E-001	9.86275E-001	3.58020E+000	9	...........
	70	0.946667	9.87319E-001	2.81448E-004	0.00000E+000	2.77879E-004	1.68088E-001	9.87700E-001	3.58020E+000	9	...........
	71	0.96	9.88682E-001	2.81826E-004	0.00000E+000	2.78637E-004	1.68088E-001	9.89034E-001	3.58020E+000	9	...........
	72	0.97333	9.90004E-001	2.81348E-004	0.00000E+000	2.78536E-004	1.68088E-001	9.90345E-001	3.58020E+000	9	...........
	73	0.98667	9.91277E-001	2.79823E-004	0.00000E+000	2.77382E-004	1.68088E-001	9.91637E-001	3.58020E+000	9	...........
	74	1	9.92535E-001	2.82032E-004	0.00000E+000	2.79926E-004	1.68088E-001	9.92927E-001	3.58020E+000	9	...........
	75	1.01333	9.93805E-001	2.80680E-004	0.00000E+000	2.78942E-004	1.68088E-001	9.94194E-001	3.58020E+000	9	...........
	76	1.02667	9.95077E-001	2.81529E-004	0.00000E+000	2.80143E-004	1.68088E-001	9.95464E-001	3.58020E+000	9	...........
	77	1.04	9.96333E-001	2.80929E-004	0.00000E+000	2.79899E-004	1.68088E-001	9.96714E-001	3.58020E+000	9	...........
	78	1.05333	9.97619E-001	2.81357E-004	0.00000E+000	2.80687E-004	1.68088E-001	9.97996E-001	3.58020E+000	9	...........
	79	1.06667	9.98843E-001	2.81942E-004	0.00000E+000	2.81616E-004	1.68088E-001	9.99206E-001	3.58020E+000	9	...........
	80	1.075	9.99842E-001	2.81069E-004	0.00000E+000	2.81025E-004	1.68088E-001	1.00018E+000	3.58020E+000	9	...........
STARTTIMEOFFSET	QUANT	1087.027	Start Time Offset (s)
