EXPLAIN
TAG	PWR800_CHARGE
TITLE	LABEL	PWR Cyclic Charge Discharge (Cell) - Charge Step	Test &Identifier
DATE	LABEL	7-7-2017	Date
TIME	LABEL	15:36:21	Time
NOTES	NOTES	3	&Notes...
	supercap test cell
	2.8mg
	6M KOH
PSTAT	PSTAT	IFC5000-01520	Potentiostat
CAPACITY	QUANT	1.00000E-003	Capacity (A-hr)
CELLTYPE	SELECTOR	1	&Cell Type
WORKINGCONNECTION	SELECTOR	0	&Working Lead
MAXCHARGETIME	VARIABLEANDUNITS	1.00000E+002	s	1.00000E+002	second(s)	Max &Charge Time
CHARGECURRENT	QUANT	2.80000E-004	&Charge Current (A) 
VOLTAGEFINISH	TWOPARAM	F	1.00000E-003	3.60000E+003	&Voltage Finish	 I (A) < 	Max Time(s)
SAMPLETIME	QUANT	1.00000E-002	Sa&mple Period (s)
CHARGESTOPAT1	MULTIPARAM	4	1.00000E+000	Charge Stop At &1	Voltage > Limit	V
CHARGESTOPAT2	MULTIPARAM	0	0.00000E+000	Charge Stop At &2	None	N/A
AESBHCSELECTOR	TOGGLE	F	Save Both Half Cells
IRCOMP	TOGGLE	F	IR &Measure
EOC	QUANT	0	Open Circuit (V)
SEQUENCER	TOGGLE	TRUE	Run as Sequence
PSTATMODEL	IQUANT	53	Pstat Model
PSTATSECTION	LABEL	IFC5000-01520	Pstat Section
PSTATSERIALNO	LABEL	01520	Pstat Serial Number
CTRLMODE	IQUANT	0	Control Mode
ELECTROMETER	IQUANT	1	RE=0 or CS=1
IESTAB	IQUANT	0	I/E Stability
CASPEED	IQUANT	4	Control Amp Speed
CONVENTION	IQUANT	1	Current Convention
ICHRANGE	IQUANT	2	Ich Range
ICHRANGEMODE	TOGGLE	T	Ich Auto Range
ICHOFFSETENABLE	TOGGLE	F	Ich Offset Enable
ICHOFFSET	QUANT	0	Ich Offset (V)
ICHFILTER	IQUANT	1	Ich Filter
VCHRANGE	IQUANT	2	Vch Range
VCHRANGEMODE	TOGGLE	T	Vch Auto Range
VCHOFFSETENABLE	TOGGLE	F	Vch Offset Enable
VCHOFFSET	QUANT	0	Vch Offset (V)
VCHFILTER	IQUANT	1	Vch Filter
IERANGELOWERLIMIT	IQUANT	9	I/E Range Lower Limit
IERANGEMODE	TOGGLE	F	I/E AutoRange
IERANGE	IQUANT	9	I/E Range
ACHSELECT	IQUANT	1	Ach Select
ACHRANGE	IQUANT	2	Ach Range
ACHOFFSETENABLE	TOGGLE	F	Ach Offset Enable
ACHOFFSET	QUANT	0	Ach Offset (V)
ACHFILTER	IQUANT	1	Ach Filter
CABLEID	IQUANT	14	Cable ID
DCCALDATE	LABEL	5-7-2017	DC Calibration Date
ACCALDATE	LABEL	12/3/2015	AC Calibration Date
FRAMEWORKVERSION	QUANT	7.01	Framework Version
INSTRUMENTVERSION	LABEL	4.00	Instrument Version
CURVE	TABLE	249
	Pt	T	Vf	Im	Vu	Pwr	Sig	Ach	Temp	IERange	Over
	#	s	V	A	V	W	V	V	deg C	#	bits
	0	0.013333	5.56111E-001	2.80706E-004	0.00000E+000	1.56104E-004	1.68088E-001	5.56371E-001	3.57840E+000	9	...........
	1	0.026667	5.81454E-001	2.81125E-004	0.00000E+000	1.63461E-004	1.68088E-001	5.81722E-001	3.57840E+000	9	...........
	2	0.04	6.02248E-001	2.80462E-004	0.00000E+000	1.68907E-004	1.68088E-001	6.02547E-001	3.57840E+000	9	...........
	3	0.053333	6.19928E-001	2.81255E-004	0.00000E+000	1.74358E-004	1.68088E-001	6.20172E-001	3.57840E+000	9	...........
	4	0.066667	6.35162E-001	2.81216E-004	0.00000E+000	1.78618E-004	1.68088E-001	6.35424E-001	3.57840E+000	9	...........
	5	0.08	6.48589E-001	2.81165E-004	0.00000E+000	1.82360E-004	1.68088E-001	6.48846E-001	3.57840E+000	9	...........
	6	0.093333	6.60531E-001	2.81295E-004	0.00000E+000	1.85804E-004	1.68088E-001	6.60779E-001	3.57840E+000	9	...........
	7	0.106667	6.71276E-001	2.81081E-004	0.00000E+000	1.88683E-004	1.68088E-001	6.71548E-001	3.57840E+000	9	...........
	8	0.12	6.81027E-001	2.81428E-004	0.00000E+000	1.91660E-004	1.68088E-001	6.81283E-001	3.57840E+000	9	...........
	9	0.133333	6.89926E-001	2.80818E-004	0.00000E+000	1.93744E-004	1.68088E-001	6.90207E-001	3.57840E+000	9	...........
	10	0.146667	6.98104E-001	2.81249E-004	0.00000E+000	1.96341E-004	1.68088E-001	6.98378E-001	3.57840E+000	9	...........
	11	0.16	7.05671E-001	2.81610E-004	0.00000E+000	1.98724E-004	1.68088E-001	7.05948E-001	3.57840E+000	9	...........
	12	0.173333	7.12699E-001	2.80796E-004	0.00000E+000	2.00123E-004	1.68088E-001	7.13001E-001	3.57863E+000	9	...........
	13	0.186667	7.19320E-001	2.80293E-004	0.00000E+000	2.01620E-004	1.68088E-001	7.19610E-001	3.57900E+000	9	...........
	14	0.2	7.25510E-001	2.81293E-004	0.00000E+000	2.04081E-004	1.68088E-001	7.25758E-001	3.57900E+000	9	...........
	15	0.213333	7.31273E-001	2.81588E-004	0.00000E+000	2.05918E-004	1.68088E-001	7.31591E-001	3.57900E+000	9	...........
	16	0.226667	7.36716E-001	2.80505E-004	0.00000E+000	2.06653E-004	1.68088E-001	7.36996E-001	3.57900E+000	9	...........
	17	0.24	7.41871E-001	2.81249E-004	0.00000E+000	2.08651E-004	1.68088E-001	7.42164E-001	3.57900E+000	9	...........
	18	0.253333	7.46792E-001	2.81314E-004	0.00000E+000	2.10083E-004	1.68088E-001	7.47015E-001	3.57900E+000	9	...........
	19	0.266667	7.51387E-001	2.81250E-004	0.00000E+000	2.11328E-004	1.68088E-001	7.51637E-001	3.57900E+000	9	...........
	20	0.28	7.55821E-001	2.81017E-004	0.00000E+000	2.12398E-004	1.68088E-001	7.56066E-001	3.57900E+000	9	...........
	21	0.293333	7.60025E-001	2.81230E-004	0.00000E+000	2.13742E-004	1.68088E-001	7.60309E-001	3.57900E+000	9	...........
	22	0.306667	7.64030E-001	2.81769E-004	0.00000E+000	2.15280E-004	1.68088E-001	7.64314E-001	3.57900E+000	9	...........
	23	0.32	7.67894E-001	2.81302E-004	0.00000E+000	2.16010E-004	1.68088E-001	7.68181E-001	3.57900E+000	9	...........
	24	0.333333	7.71599E-001	2.80450E-004	0.00000E+000	2.16395E-004	1.68088E-001	7.71872E-001	3.57900E+000	9	...........
	25	0.346667	7.75134E-001	2.80988E-004	0.00000E+000	2.17803E-004	1.68088E-001	7.75416E-001	3.57900E+000	9	...........
	26	0.36	7.78582E-001	2.80774E-004	0.00000E+000	2.18606E-004	1.68088E-001	7.78876E-001	3.57900E+000	9	...........
	27	0.373333	7.81905E-001	2.81470E-004	0.00000E+000	2.20083E-004	1.68088E-001	7.82169E-001	3.57900E+000	9	...........
	28	0.386667	7.85082E-001	2.80901E-004	0.00000E+000	2.20530E-004	1.68088E-001	7.85325E-001	3.57900E+000	9	...........
	29	0.4	7.88148E-001	2.81702E-004	0.00000E+000	2.22023E-004	1.68088E-001	7.88421E-001	3.57900E+000	9	...........
	30	0.413333	7.91159E-001	2.81503E-004	0.00000E+000	2.22714E-004	1.68088E-001	7.91440E-001	3.57900E+000	9	...........
	31	0.426667	7.94075E-001	2.80831E-004	0.00000E+000	2.23001E-004	1.68088E-001	7.94349E-001	3.57900E+000	9	...........
	32	0.44	7.96836E-001	2.79992E-004	0.00000E+000	2.23107E-004	1.68088E-001	7.97123E-001	3.57900E+000	9	...........
	33	0.453333	7.99536E-001	2.80763E-004	0.00000E+000	2.24480E-004	1.68088E-001	7.99817E-001	3.57900E+000	9	...........
	34	0.466667	8.02127E-001	2.81810E-004	0.00000E+000	2.26047E-004	1.68088E-001	8.02415E-001	3.57900E+000	9	...........
	35	0.48	8.04641E-001	2.81315E-004	0.00000E+000	2.26358E-004	1.68088E-001	8.04960E-001	3.57900E+000	9	...........
	36	0.493333	8.07116E-001	2.80952E-004	0.00000E+000	2.26761E-004	1.68088E-001	8.07432E-001	3.57900E+000	9	...........
	37	0.506667	8.09534E-001	2.81084E-004	0.00000E+000	2.27547E-004	1.68088E-001	8.09860E-001	3.57900E+000	9	...........
	38	0.52	8.11884E-001	2.80949E-004	0.00000E+000	2.28098E-004	1.68088E-001	8.12195E-001	3.57900E+000	9	...........
	39	0.533333	8.14147E-001	2.81832E-004	0.00000E+000	2.29452E-004	1.68088E-001	8.14456E-001	3.57900E+000	9	...........
	40	0.546667	8.16393E-001	2.81150E-004	0.00000E+000	2.29529E-004	1.68088E-001	8.16721E-001	3.57900E+000	9	...........
	41	0.56	8.18585E-001	2.81231E-004	0.00000E+000	2.30212E-004	1.68088E-001	8.18908E-001	3.57900E+000	9	...........
	42	0.573333	8.20717E-001	2.80808E-004	0.00000E+000	2.30464E-004	1.68088E-001	8.21045E-001	3.57900E+000	9	...........
	43	0.586667	8.22809E-001	2.80416E-004	0.00000E+000	2.30729E-004	1.68088E-001	8.23128E-001	3.57900E+000	9	...........
	44	0.6	8.24834E-001	2.81120E-004	0.00000E+000	2.31877E-004	1.68088E-001	8.25186E-001	3.57900E+000	9	...........
	45	0.613333	8.26863E-001	2.81247E-004	0.00000E+000	2.32553E-004	1.68088E-001	8.27191E-001	3.57900E+000	9	...........
	46	0.626667	8.28838E-001	2.81179E-004	0.00000E+000	2.33052E-004	1.68088E-001	8.29175E-001	3.57900E+000	9	...........
	47	0.64	8.30775E-001	2.81221E-004	0.00000E+000	2.33631E-004	1.68088E-001	8.31120E-001	3.57900E+000	9	...........
	48	0.653333	8.32685E-001	2.80848E-004	0.00000E+000	2.33858E-004	1.68088E-001	8.33033E-001	3.57900E+000	9	...........
	49	0.666667	8.34527E-001	2.81616E-004	0.00000E+000	2.35016E-004	1.68088E-001	8.34890E-001	3.57900E+000	9	...........
	50	0.68	8.36342E-001	2.80433E-004	0.00000E+000	2.34538E-004	1.68088E-001	8.36723E-001	3.57900E+000	9	...........
	51	0.693333	8.38146E-001	2.81002E-004	0.00000E+000	2.35521E-004	1.68088E-001	8.38520E-001	3.57900E+000	9	...........
	52	0.706667	8.39907E-001	2.80596E-004	0.00000E+000	2.35674E-004	1.68088E-001	8.40272E-001	3.57900E+000	9	...........
	53	0.72	8.41653E-001	2.81050E-004	0.00000E+000	2.36547E-004	1.68088E-001	8.42013E-001	3.57900E+000	9	...........
	54	0.733333	8.43353E-001	2.80851E-004	0.00000E+000	2.36857E-004	1.68088E-001	8.43745E-001	3.57900E+000	9	...........
	55	0.746667	8.45083E-001	2.81354E-004	0.00000E+000	2.37768E-004	1.68088E-001	8.45431E-001	3.57900E+000	9	...........
	56	0.76	8.46713E-001	2.80813E-004	0.00000E+000	2.37768E-004	1.68088E-001	8.47068E-001	3.57900E+000	9	...........
	57	0.773333	8.48260E-001	2.81260E-004	0.00000E+000	2.38581E-004	1.68088E-001	8.48626E-001	3.57900E+000	9	...........
	58	0.786667	8.49829E-001	2.81028E-004	0.00000E+000	2.38826E-004	1.68088E-001	8.50167E-001	3.57900E+000	9	...........
	59	0.8	8.51412E-001	2.81425E-004	0.00000E+000	2.39609E-004	1.68088E-001	8.51704E-001	3.57900E+000	9	...........
	60	0.813333	8.52952E-001	2.81098E-004	0.00000E+000	2.39763E-004	1.68088E-001	8.53248E-001	3.57900E+000	9	...........
	61	0.826667	8.54490E-001	2.81361E-004	0.00000E+000	2.40420E-004	1.68088E-001	8.54794E-001	3.57900E+000	9	...........
	62	0.84	8.55993E-001	2.80460E-004	0.00000E+000	2.40072E-004	1.68088E-001	8.56329E-001	3.57900E+000	9	...........
	63	0.853333	8.57488E-001	2.80940E-004	0.00000E+000	2.40903E-004	1.68088E-001	8.57848E-001	3.57900E+000	9	...........
	64	0.866667	8.58963E-001	2.80844E-004	0.00000E+000	2.41234E-004	1.68088E-001	8.59321E-001	3.57900E+000	9	...........
	65	0.88	8.60439E-001	2.80607E-004	0.00000E+000	2.41446E-004	1.68088E-001	8.60777E-001	3.57900E+000	9	...........
	66	0.893333	8.61839E-001	2.81816E-004	0.00000E+000	2.42880E-004	1.68088E-001	8.62172E-001	3.57900E+000	9	...........
	67	0.906667	8.63190E-001	2.81111E-004	0.00000E+000	2.42652E-004	1.68088E-001	8.63538E-001	3.57900E+000	9	...........
	68	0.92	8.64560E-001	2.81649E-004	0.00000E+000	2.43503E-004	1.68088E-001	8.64919E-001	3.57900E+000	9	...........
	69	0.933333	8.65876E-001	2.81719E-004	0.00000E+000	2.43934E-004	1.68088E-001	8.66258E-001	3.57900E+000	9	...........
	70	0.946667	8.67267E-001	2.80697E-004	0.00000E+000	2.43439E-004	1.68088E-001	8.67614E-001	3.57900E+000	9	...........
	71	0.96	8.68589E-001	2.81688E-004	0.00000E+000	2.44671E-004	1.68088E-001	8.68941E-001	3.57900E+000	9	...........
	72	0.97333	8.69907E-001	2.81493E-004	0.00000E+000	2.44873E-004	1.68088E-001	8.70261E-001	3.57900E+000	9	...........
	73	0.98667	8.71213E-001	2.81200E-004	0.00000E+000	2.44985E-004	1.68088E-001	8.71584E-001	3.57900E+000	9	...........
	74	1	8.72553E-001	2.80814E-004	0.00000E+000	2.45025E-004	1.68088E-001	8.72924E-001	3.57900E+000	9	...........
	75	1.01333	8.73839E-001	2.81255E-004	0.00000E+000	2.45772E-004	1.68088E-001	8.74232E-001	3.57900E+000	9	...........
	76	1.02667	8.75137E-001	2.81625E-004	0.00000E+000	2.46461E-004	1.68088E-001	8.75508E-001	3.57900E+000	9	...........
	77	1.04	8.76407E-001	2.81540E-004	0.00000E+000	2.46743E-004	1.68088E-001	8.76789E-001	3.57900E+000	9	...........
	78	1.05333	8.77650E-001	2.81127E-004	0.00000E+000	2.46731E-004	1.68088E-001	8.77999E-001	3.57900E+000	9	...........
	79	1.06667	8.78856E-001	2.81187E-004	0.00000E+000	2.47123E-004	1.68088E-001	8.79202E-001	3.57900E+000	9	...........
	80	1.08	8.80083E-001	2.81455E-004	0.00000E+000	2.47704E-004	1.68088E-001	8.80457E-001	3.57900E+000	9	...........
	81	1.09333	8.81296E-001	2.81248E-004	0.00000E+000	2.47863E-004	1.68088E-001	8.81663E-001	3.57900E+000	9	...........
	82	1.10667	8.82498E-001	2.81247E-004	0.00000E+000	2.48200E-004	1.68088E-001	8.82842E-001	3.57900E+000	9	...........
	83	1.12	8.83668E-001	2.81728E-004	0.00000E+000	2.48954E-004	1.68088E-001	8.84005E-001	3.57900E+000	9	...........
	84	1.13333	8.84813E-001	2.80329E-004	0.00000E+000	2.48039E-004	1.68088E-001	8.85157E-001	3.57900E+000	9	...........
	85	1.14667	8.85940E-001	2.81491E-004	0.00000E+000	2.49384E-004	1.68088E-001	8.86287E-001	3.57900E+000	9	...........
	86	1.16	8.87121E-001	2.81134E-004	0.00000E+000	2.49399E-004	1.68088E-001	8.87470E-001	3.57900E+000	9	...........
	87	1.17333	8.88228E-001	2.80606E-004	0.00000E+000	2.49243E-004	1.68088E-001	8.88569E-001	3.57862E+000	9	...........
	88	1.18667	8.89363E-001	2.81027E-004	0.00000E+000	2.49935E-004	1.68088E-001	8.89704E-001	3.57800E+000	9	...........
	89	1.2	8.90514E-001	2.81747E-004	0.00000E+000	2.50900E-004	1.68088E-001	8.90848E-001	3.57800E+000	9	...........
	90	1.21333	8.91632E-001	2.80852E-004	0.00000E+000	2.50417E-004	1.68088E-001	8.91955E-001	3.57800E+000	9	...........
	91	1.22667	8.92761E-001	2.81394E-004	0.00000E+000	2.51218E-004	1.68088E-001	8.93069E-001	3.57800E+000	9	...........
	92	1.24	8.93794E-001	2.81173E-004	0.00000E+000	2.51311E-004	1.68088E-001	8.94100E-001	3.57800E+000	9	...........
	93	1.25333	8.94887E-001	2.80966E-004	0.00000E+000	2.51433E-004	1.68088E-001	8.95230E-001	3.57800E+000	9	...........
	94	1.26667	8.96004E-001	2.81568E-004	0.00000E+000	2.52286E-004	1.68088E-001	8.96318E-001	3.57800E+000	9	...........
	95	1.28	8.97030E-001	2.81052E-004	0.00000E+000	2.52112E-004	1.68088E-001	8.97348E-001	3.57800E+000	9	...........
	96	1.29333	8.98031E-001	2.80965E-004	0.00000E+000	2.52315E-004	1.68088E-001	8.98379E-001	3.57800E+000	9	...........
	97	1.30667	8.99084E-001	2.81153E-004	0.00000E+000	2.52780E-004	1.68088E-001	8.99449E-001	3.57800E+000	9	...........
	98	1.32	9.00145E-001	2.81196E-004	0.00000E+000	2.53117E-004	1.68088E-001	9.00504E-001	3.57800E+000	9	...........
	99	1.33333	9.01197E-001	2.80513E-004	0.00000E+000	2.52797E-004	1.68088E-001	9.01587E-001	3.57800E+000	9	...........
	100	1.34667	9.02254E-001	2.80972E-004	0.00000E+000	2.53508E-004	1.68088E-001	9.02634E-001	3.57800E+000	9	...........
	101	1.36	9.03226E-001	2.81518E-004	0.00000E+000	2.54275E-004	1.68088E-001	9.03623E-001	3.57800E+000	9	...........
	102	1.37333	9.04199E-001	2.81387E-004	0.00000E+000	2.54430E-004	1.68088E-001	9.04602E-001	3.57800E+000	9	...........
	103	1.38667	9.05222E-001	2.80775E-004	0.00000E+000	2.54164E-004	1.68088E-001	9.05589E-001	3.57800E+000	9	...........
	104	1.4	9.06214E-001	2.81086E-004	0.00000E+000	2.54724E-004	1.68088E-001	9.06610E-001	3.57800E+000	9	...........
	105	1.41333	9.07197E-001	2.80751E-004	0.00000E+000	2.54697E-004	1.68088E-001	9.07585E-001	3.57800E+000	9	...........
	106	1.42667	9.08197E-001	2.80807E-004	0.00000E+000	2.55029E-004	1.68088E-001	9.08588E-001	3.57800E+000	9	...........
	107	1.44	9.09135E-001	2.80742E-004	0.00000E+000	2.55232E-004	1.68088E-001	9.09505E-001	3.57800E+000	9	...........
	108	1.45333	9.10109E-001	2.81121E-004	0.00000E+000	2.55851E-004	1.68088E-001	9.10458E-001	3.57800E+000	9	...........
	109	1.46667	9.11039E-001	2.81864E-004	0.00000E+000	2.56789E-004	1.68088E-001	9.11409E-001	3.57800E+000	9	...........
	110	1.48	9.11987E-001	2.81260E-004	0.00000E+000	2.56505E-004	1.68088E-001	9.12354E-001	3.57800E+000	9	...........
	111	1.49333	9.12928E-001	2.81479E-004	0.00000E+000	2.56970E-004	1.68088E-001	9.13304E-001	3.57800E+000	9	...........
	112	1.50667	9.13868E-001	2.80902E-004	0.00000E+000	2.56708E-004	1.68088E-001	9.14243E-001	3.57800E+000	9	...........
	113	1.52	9.14815E-001	2.81362E-004	0.00000E+000	2.57394E-004	1.68088E-001	9.15180E-001	3.57800E+000	9	...........
	114	1.53333	9.15702E-001	2.80967E-004	0.00000E+000	2.57282E-004	1.68088E-001	9.16080E-001	3.57800E+000	9	...........
	115	1.54667	9.16621E-001	2.80693E-004	0.00000E+000	2.57289E-004	1.68088E-001	9.17018E-001	3.57800E+000	9	...........
	116	1.56	9.17514E-001	2.81409E-004	0.00000E+000	2.58196E-004	1.68088E-001	9.17922E-001	3.57800E+000	9	...........
	117	1.57333	9.18415E-001	2.80897E-004	0.00000E+000	2.57980E-004	1.68088E-001	9.18793E-001	3.57800E+000	9	...........
	118	1.58667	9.19311E-001	2.81327E-004	0.00000E+000	2.58627E-004	1.68088E-001	9.19697E-001	3.57800E+000	9	...........
	119	1.6	9.20182E-001	2.80850E-004	0.00000E+000	2.58433E-004	1.68088E-001	9.20587E-001	3.57800E+000	9	...........
	120	1.61333	9.21153E-001	2.81496E-004	0.00000E+000	2.59301E-004	1.68088E-001	9.21488E-001	3.57800E+000	9	...........
	121	1.62667	9.22045E-001	2.80647E-004	0.00000E+000	2.58769E-004	1.68088E-001	9.22390E-001	3.57800E+000	9	...........
	122	1.64	9.22964E-001	2.80323E-004	0.00000E+000	2.58728E-004	1.68088E-001	9.23309E-001	3.57800E+000	9	...........
	123	1.65333	9.23887E-001	2.81361E-004	0.00000E+000	2.59945E-004	1.68088E-001	9.24245E-001	3.57800E+000	9	...........
	124	1.66667	9.24761E-001	2.81534E-004	0.00000E+000	2.60351E-004	1.68088E-001	9.25095E-001	3.57800E+000	9	...........
	125	1.68	9.25624E-001	2.81663E-004	0.00000E+000	2.60714E-004	1.68088E-001	9.25950E-001	3.57800E+000	9	...........
	126	1.69333	9.26474E-001	2.81196E-004	0.00000E+000	2.60521E-004	1.68088E-001	9.26819E-001	3.57800E+000	9	...........
	127	1.70667	9.27297E-001	2.81089E-004	0.00000E+000	2.60653E-004	1.68088E-001	9.27638E-001	3.57800E+000	9	...........
	128	1.72	9.28137E-001	2.80466E-004	0.00000E+000	2.60311E-004	1.68088E-001	9.28452E-001	3.57800E+000	9	...........
	129	1.73333	9.28955E-001	2.81110E-004	0.00000E+000	2.61138E-004	1.68088E-001	9.29270E-001	3.57800E+000	9	...........
	130	1.74667	9.29759E-001	2.80392E-004	0.00000E+000	2.60697E-004	1.68088E-001	9.30074E-001	3.57800E+000	9	...........
	131	1.76	9.30565E-001	2.80771E-004	0.00000E+000	2.61276E-004	1.68088E-001	9.30898E-001	3.57800E+000	9	...........
	132	1.77333	9.31416E-001	2.80819E-004	0.00000E+000	2.61559E-004	1.68088E-001	9.31739E-001	3.57800E+000	9	...........
	133	1.78667	9.32255E-001	2.80912E-004	0.00000E+000	2.61881E-004	1.68088E-001	9.32600E-001	3.57800E+000	9	...........
	134	1.8	9.33099E-001	2.81806E-004	0.00000E+000	2.62952E-004	1.68088E-001	9.33450E-001	3.57800E+000	9	...........
	135	1.81333	9.33905E-001	2.81616E-004	0.00000E+000	2.63003E-004	1.68088E-001	9.34259E-001	3.57800E+000	9	...........
	136	1.82667	9.34696E-001	2.81428E-004	0.00000E+000	2.63050E-004	1.68088E-001	9.35058E-001	3.57800E+000	9	...........
	137	1.84	9.35481E-001	2.82151E-004	0.00000E+000	2.63947E-004	1.68088E-001	9.35840E-001	3.57800E+000	9	...........
	138	1.85333	9.36291E-001	2.81146E-004	0.00000E+000	2.63235E-004	1.68088E-001	9.36648E-001	3.57800E+000	9	...........
	139	1.86667	9.37058E-001	2.81712E-004	0.00000E+000	2.63980E-004	1.68088E-001	9.37397E-001	3.57800E+000	9	...........
	140	1.88	9.37851E-001	2.81082E-004	0.00000E+000	2.63613E-004	1.68088E-001	9.38211E-001	3.57800E+000	9	...........
	141	1.89333	9.38637E-001	2.80657E-004	0.00000E+000	2.63435E-004	1.68088E-001	9.38979E-001	3.57800E+000	9	...........
	142	1.90667	9.39421E-001	2.80491E-004	0.00000E+000	2.63499E-004	1.68088E-001	9.39781E-001	3.57800E+000	9	...........
	143	1.92	9.40204E-001	2.80122E-004	0.00000E+000	2.63372E-004	1.68088E-001	9.40566E-001	3.57800E+000	9	...........
	144	1.93333	9.40993E-001	2.81651E-004	0.00000E+000	2.65032E-004	1.68088E-001	9.41331E-001	3.57800E+000	9	...........
	145	1.94667	9.41717E-001	2.81762E-004	0.00000E+000	2.65340E-004	1.68088E-001	9.42094E-001	3.57800E+000	9	...........
	146	1.96	9.42477E-001	2.80849E-004	0.00000E+000	2.64694E-004	1.68088E-001	9.42843E-001	3.57800E+000	9	...........
	147	1.97333	9.43209E-001	2.81642E-004	0.00000E+000	2.65647E-004	1.68088E-001	9.43603E-001	3.57800E+000	9	...........
	148	1.98667	9.43972E-001	2.81698E-004	0.00000E+000	2.65915E-004	1.68088E-001	9.44354E-001	3.57800E+000	9	...........
	149	2	9.44716E-001	2.80751E-004	0.00000E+000	2.65230E-004	1.68088E-001	9.45088E-001	3.57800E+000	9	...........
	150	2.01333	9.45462E-001	2.81282E-004	0.00000E+000	2.65941E-004	1.68088E-001	9.45883E-001	3.57800E+000	9	...........
	151	2.02667	9.46205E-001	2.81142E-004	0.00000E+000	2.66018E-004	1.68088E-001	9.46611E-001	3.57800E+000	9	...........
	152	2.04	9.46970E-001	2.80536E-004	0.00000E+000	2.65659E-004	1.68088E-001	9.47318E-001	3.57800E+000	9	...........
	153	2.05333	9.47664E-001	2.81230E-004	0.00000E+000	2.66512E-004	1.68088E-001	9.48035E-001	3.57800E+000	9	...........
	154	2.06667	9.48374E-001	2.80948E-004	0.00000E+000	2.66444E-004	1.68088E-001	9.48736E-001	3.57800E+000	9	...........
	155	2.08	9.49070E-001	2.81647E-004	0.00000E+000	2.67303E-004	1.68088E-001	9.49436E-001	3.57800E+000	9	...........
	156	2.09333	9.49757E-001	2.81402E-004	0.00000E+000	2.67264E-004	1.68088E-001	9.50130E-001	3.57800E+000	9	...........
	157	2.10667	9.50449E-001	2.80818E-004	0.00000E+000	2.66903E-004	1.68088E-001	9.50820E-001	3.57800E+000	9	...........
	158	2.12	9.51165E-001	2.82080E-004	0.00000E+000	2.68304E-004	1.68088E-001	9.51536E-001	3.57800E+000	9	...........
	159	2.13333	9.51869E-001	2.80852E-004	0.00000E+000	2.67335E-004	1.68088E-001	9.52224E-001	3.57800E+000	9	...........
	160	2.14667	9.52590E-001	2.80558E-004	0.00000E+000	2.67257E-004	1.68088E-001	9.52938E-001	3.57800E+000	9	...........
	161	2.16	9.53320E-001	2.81111E-004	0.00000E+000	2.67988E-004	1.68088E-001	9.53651E-001	3.57800E+000	9	...........
	162	2.17333	9.53982E-001	2.81475E-004	0.00000E+000	2.68522E-004	1.68088E-001	9.54319E-001	3.57827E+000	9	...........
	163	2.18667	9.54682E-001	2.81169E-004	0.00000E+000	2.68427E-004	1.68088E-001	9.55001E-001	3.57870E+000	9	...........
	164	2.2	9.55336E-001	2.81703E-004	0.00000E+000	2.69121E-004	1.68088E-001	9.55689E-001	3.57870E+000	9	...........
	165	2.21333	9.55991E-001	2.82126E-004	0.00000E+000	2.69710E-004	1.68088E-001	9.56358E-001	3.57870E+000	9	...........
	166	2.22667	9.56665E-001	2.80971E-004	0.00000E+000	2.68795E-004	1.68088E-001	9.57021E-001	3.57870E+000	9	...........
	167	2.24	9.57298E-001	2.81003E-004	0.00000E+000	2.69004E-004	1.68088E-001	9.57664E-001	3.57870E+000	9	...........
	168	2.25333	9.57962E-001	2.81034E-004	0.00000E+000	2.69219E-004	1.68088E-001	9.58325E-001	3.57870E+000	9	...........
	169	2.26667	9.58629E-001	2.80691E-004	0.00000E+000	2.69078E-004	1.68088E-001	9.58988E-001	3.57870E+000	9	...........
	170	2.28	9.59267E-001	2.81122E-004	0.00000E+000	2.69671E-004	1.68088E-001	9.59654E-001	3.57870E+000	9	...........
	171	2.29333	9.59897E-001	2.81370E-004	0.00000E+000	2.70086E-004	1.68088E-001	9.60288E-001	3.57870E+000	9	...........
	172	2.30667	9.60566E-001	2.81827E-004	0.00000E+000	2.70714E-004	1.68088E-001	9.60954E-001	3.57870E+000	9	...........
	173	2.32	9.61230E-001	2.81404E-004	0.00000E+000	2.70495E-004	1.68088E-001	9.61601E-001	3.57870E+000	9	...........
	174	2.33333	9.61854E-001	2.81670E-004	0.00000E+000	2.70926E-004	1.68088E-001	9.62260E-001	3.57870E+000	9	...........
	175	2.34667	9.62505E-001	2.81339E-004	0.00000E+000	2.70790E-004	1.68088E-001	9.62890E-001	3.57870E+000	9	...........
	176	2.36	9.63159E-001	2.80250E-004	0.00000E+000	2.69925E-004	1.68088E-001	9.63530E-001	3.57870E+000	9	...........
	177	2.37333	9.63754E-001	2.81304E-004	0.00000E+000	2.71108E-004	1.68088E-001	9.64136E-001	3.57870E+000	9	...........
	178	2.38667	9.64389E-001	2.80231E-004	0.00000E+000	2.70252E-004	1.68088E-001	9.64746E-001	3.57870E+000	9	...........
	179	2.4	9.64992E-001	2.81235E-004	0.00000E+000	2.71389E-004	1.68088E-001	9.65373E-001	3.57870E+000	9	...........
	180	2.41333	9.65615E-001	2.81069E-004	0.00000E+000	2.71404E-004	1.68088E-001	9.66010E-001	3.57870E+000	9	...........
	181	2.42667	9.66189E-001	2.81160E-004	0.00000E+000	2.71653E-004	1.68088E-001	9.66578E-001	3.57870E+000	9	...........
	182	2.44	9.66784E-001	2.81099E-004	0.00000E+000	2.71762E-004	1.68088E-001	9.67186E-001	3.57870E+000	9	...........
	183	2.45333	9.67403E-001	2.81312E-004	0.00000E+000	2.72142E-004	1.68088E-001	9.67791E-001	3.57870E+000	9	...........
	184	2.46667	9.67968E-001	2.81577E-004	0.00000E+000	2.72558E-004	1.68088E-001	9.68358E-001	3.57870E+000	9	...........
	185	2.48	9.68519E-001	2.81212E-004	0.00000E+000	2.72359E-004	1.68088E-001	9.68913E-001	3.57870E+000	9	...........
	186	2.49333	9.69077E-001	2.81198E-004	0.00000E+000	2.72503E-004	1.68088E-001	9.69475E-001	3.57870E+000	9	...........
	187	2.50667	9.69656E-001	2.81355E-004	0.00000E+000	2.72818E-004	1.68088E-001	9.70085E-001	3.57870E+000	9	...........
	188	2.52	9.70225E-001	2.80840E-004	0.00000E+000	2.72478E-004	1.68088E-001	9.70659E-001	3.57870E+000	9	...........
	189	2.53333	9.70850E-001	2.81368E-004	0.00000E+000	2.73166E-004	1.68088E-001	9.71268E-001	3.57870E+000	9	...........
	190	2.54667	9.71389E-001	2.80602E-004	0.00000E+000	2.72574E-004	1.68088E-001	9.71826E-001	3.57870E+000	9	...........
	191	2.56	9.72001E-001	2.81409E-004	0.00000E+000	2.73529E-004	1.68088E-001	9.72416E-001	3.57870E+000	9	...........
	192	2.57333	9.72622E-001	2.81889E-004	0.00000E+000	2.74171E-004	1.68088E-001	9.72998E-001	3.57870E+000	9	...........
	193	2.58667	9.73200E-001	2.80817E-004	0.00000E+000	2.73291E-004	1.68088E-001	9.73576E-001	3.57870E+000	9	...........
	194	2.6	9.73736E-001	2.80972E-004	0.00000E+000	2.73593E-004	1.68088E-001	9.74099E-001	3.57870E+000	9	...........
	195	2.61333	9.74313E-001	2.80948E-004	0.00000E+000	2.73731E-004	1.68088E-001	9.74669E-001	3.57870E+000	9	...........
	196	2.62667	9.74877E-001	2.81147E-004	0.00000E+000	2.74084E-004	1.68088E-001	9.75233E-001	3.57870E+000	9	...........
	197	2.64	9.75436E-001	2.81988E-004	0.00000E+000	2.75061E-004	1.68088E-001	9.75779E-001	3.57870E+000	9	...........
	198	2.65333	9.75987E-001	2.80473E-004	0.00000E+000	2.73738E-004	1.68088E-001	9.76335E-001	3.57870E+000	9	...........
	199	2.66667	9.76534E-001	2.81809E-004	0.00000E+000	2.75196E-004	1.68088E-001	9.76930E-001	3.57870E+000	9	...........
	200	2.68	9.77063E-001	2.80966E-004	0.00000E+000	2.74521E-004	1.68088E-001	9.77434E-001	3.57870E+000	9	...........
	201	2.69333	9.77590E-001	2.80548E-004	0.00000E+000	2.74261E-004	1.68088E-001	9.77955E-001	3.57870E+000	9	...........
	202	2.70667	9.78117E-001	2.81188E-004	0.00000E+000	2.75034E-004	1.68088E-001	9.78508E-001	3.57870E+000	9	...........
	203	2.72	9.78701E-001	2.81352E-004	0.00000E+000	2.75360E-004	1.68088E-001	9.79080E-001	3.57870E+000	9	...........
	204	2.73333	9.79223E-001	2.80806E-004	0.00000E+000	2.74972E-004	1.68088E-001	9.79590E-001	3.57870E+000	9	...........
	205	2.74667	9.79746E-001	2.81668E-004	0.00000E+000	2.75963E-004	1.68088E-001	9.80104E-001	3.57870E+000	9	...........
	206	2.76	9.80287E-001	2.81104E-004	0.00000E+000	2.75563E-004	1.68088E-001	9.80655E-001	3.57870E+000	9	...........
	207	2.77333	9.80850E-001	2.80778E-004	0.00000E+000	2.75401E-004	1.68088E-001	9.81229E-001	3.57870E+000	9	...........
	208	2.78667	9.81370E-001	2.80928E-004	0.00000E+000	2.75695E-004	1.68088E-001	9.81759E-001	3.57870E+000	9	...........
	209	2.8	9.81886E-001	2.82120E-004	0.00000E+000	2.77010E-004	1.68088E-001	9.82286E-001	3.57870E+000	9	...........
	210	2.81333	9.82418E-001	2.81003E-004	0.00000E+000	2.76063E-004	1.68088E-001	9.82830E-001	3.57870E+000	9	...........
	211	2.82667	9.82921E-001	2.80511E-004	0.00000E+000	2.75720E-004	1.68088E-001	9.83342E-001	3.57870E+000	9	...........
	212	2.84	9.83417E-001	2.81075E-004	0.00000E+000	2.76414E-004	1.68088E-001	9.83802E-001	3.57870E+000	9	...........
	213	2.85333	9.83926E-001	2.80829E-004	0.00000E+000	2.76315E-004	1.68088E-001	9.84333E-001	3.57870E+000	9	...........
	214	2.86667	9.84442E-001	2.80356E-004	0.00000E+000	2.75994E-004	1.68088E-001	9.84845E-001	3.57870E+000	9	...........
	215	2.88	9.84984E-001	2.80871E-004	0.00000E+000	2.76654E-004	1.68088E-001	9.85385E-001	3.57870E+000	9	...........
	216	2.89333	9.85529E-001	2.81395E-004	0.00000E+000	2.77323E-004	1.68088E-001	9.85906E-001	3.57870E+000	9	...........
	217	2.90667	9.85995E-001	2.81723E-004	0.00000E+000	2.77778E-004	1.68088E-001	9.86414E-001	3.57870E+000	9	...........
	218	2.92	9.86494E-001	2.81603E-004	0.00000E+000	2.77800E-004	1.68088E-001	9.86906E-001	3.57870E+000	9	...........
	219	2.93333	9.86986E-001	2.81380E-004	0.00000E+000	2.77719E-004	1.68088E-001	9.87389E-001	3.57870E+000	9	...........
	220	2.94667	9.87478E-001	2.81831E-004	0.00000E+000	2.78301E-004	1.68088E-001	9.87861E-001	3.57870E+000	9	...........
	221	2.96	9.87979E-001	2.82171E-004	0.00000E+000	2.78779E-004	1.68088E-001	9.88372E-001	3.57870E+000	9	...........
	222	2.97333	9.88508E-001	2.81307E-004	0.00000E+000	2.78074E-004	1.68088E-001	9.88871E-001	3.57870E+000	9	...........
	223	2.98667	9.89006E-001	2.81801E-004	0.00000E+000	2.78703E-004	1.68088E-001	9.89376E-001	3.57870E+000	9	...........
	224	3	9.89470E-001	2.81036E-004	0.00000E+000	2.78076E-004	1.68088E-001	9.89852E-001	3.57870E+000	9	...........
	225	3.01333	9.89956E-001	2.81968E-004	0.00000E+000	2.79136E-004	1.68088E-001	9.90316E-001	3.57870E+000	9	...........
	226	3.02667	9.90420E-001	2.80944E-004	0.00000E+000	2.78252E-004	1.68088E-001	9.90804E-001	3.57870E+000	9	...........
	227	3.04	9.90918E-001	2.81579E-004	0.00000E+000	2.79022E-004	1.68088E-001	9.91251E-001	3.57870E+000	9	...........
	228	3.05333	9.91413E-001	2.80606E-004	0.00000E+000	2.78197E-004	1.68088E-001	9.91744E-001	3.57870E+000	9	...........
	229	3.06667	9.91877E-001	2.81591E-004	0.00000E+000	2.79304E-004	1.68088E-001	9.92227E-001	3.57870E+000	9	...........
	230	3.08	9.92327E-001	2.81060E-004	0.00000E+000	2.78903E-004	1.68088E-001	9.92712E-001	3.57870E+000	9	...........
	231	3.09333	9.92810E-001	2.81313E-004	0.00000E+000	2.79290E-004	1.68088E-001	9.93181E-001	3.57870E+000	9	...........
	232	3.10667	9.93277E-001	2.81525E-004	0.00000E+000	2.79633E-004	1.68088E-001	9.93675E-001	3.57870E+000	9	...........
	233	3.12	9.93762E-001	2.80092E-004	0.00000E+000	2.78345E-004	1.68088E-001	9.94164E-001	3.57870E+000	9	...........
	234	3.13333	9.94236E-001	2.80302E-004	0.00000E+000	2.78687E-004	1.68088E-001	9.94614E-001	3.57870E+000	9	...........
	235	3.14667	9.94683E-001	2.81482E-004	0.00000E+000	2.79985E-004	1.68088E-001	9.95061E-001	3.57870E+000	9	...........
	236	3.16	9.95113E-001	2.81219E-004	0.00000E+000	2.79845E-004	1.68088E-001	9.95472E-001	3.57870E+000	9	...........
	237	3.17333	9.95513E-001	2.81520E-004	0.00000E+000	2.80257E-004	1.68088E-001	9.95866E-001	3.57859E+000	9	...........
	238	3.18667	9.95915E-001	2.81064E-004	0.00000E+000	2.79915E-004	1.68088E-001	9.96290E-001	3.57840E+000	9	...........
	239	3.2	9.96328E-001	2.81350E-004	0.00000E+000	2.80317E-004	1.68088E-001	9.96674E-001	3.57840E+000	9	...........
	240	3.21333	9.96755E-001	2.80548E-004	0.00000E+000	2.79638E-004	1.68088E-001	9.97136E-001	3.57840E+000	9	...........
	241	3.22667	9.97194E-001	2.80999E-004	0.00000E+000	2.80211E-004	1.68088E-001	9.97571E-001	3.57840E+000	9	...........
	242	3.24	9.97635E-001	2.80518E-004	0.00000E+000	2.79854E-004	1.68088E-001	9.98015E-001	3.57840E+000	9	...........
	243	3.25333	9.98100E-001	2.80714E-004	0.00000E+000	2.80180E-004	1.68088E-001	9.98460E-001	3.57840E+000	9	...........
	244	3.26667	9.98513E-001	2.81255E-004	0.00000E+000	2.80837E-004	1.68088E-001	9.98890E-001	3.57840E+000	9	...........
	245	3.28	9.98913E-001	2.81188E-004	0.00000E+000	2.80882E-004	1.68088E-001	9.99297E-001	3.57840E+000	9	...........
	246	3.29333	9.99359E-001	2.81318E-004	0.00000E+000	2.81138E-004	1.68088E-001	9.99742E-001	3.57840E+000	9	...........
	247	3.30667	9.99791E-001	2.81684E-004	0.00000E+000	2.81625E-004	1.68088E-001	1.00017E+000	3.57840E+000	9	...........
	248	3.30833	1.00002E+000	2.82144E-004	0.00000E+000	2.82149E-004	1.68088E-001	1.00039E+000	3.57840E+000	9	...........
STARTTIMEOFFSET	QUANT	18.44833	Start Time Offset (s)
