EXPLAIN
TAG	PWR800_CHARGE
TITLE	LABEL	PWR Cyclic Charge Discharge (Cell) - Charge Step	Test &Identifier
DATE	LABEL	7-7-2017	Date
TIME	LABEL	15:41:54	Time
NOTES	NOTES	3	&Notes...
	supercap test cell
	2.8mg
	6M KOH
PSTAT	PSTAT	IFC5000-01520	Potentiostat
CAPACITY	QUANT	1.00000E-003	Capacity (A-hr)
CELLTYPE	SELECTOR	1	&Cell Type
WORKINGCONNECTION	SELECTOR	0	&Working Lead
MAXCHARGETIME	VARIABLEANDUNITS	1.00000E+002	s	1.00000E+002	second(s)	Max &Charge Time
CHARGECURRENT	QUANT	2.80000E-004	&Charge Current (A) 
VOLTAGEFINISH	TWOPARAM	F	1.00000E-003	3.60000E+003	&Voltage Finish	 I (A) < 	Max Time(s)
SAMPLETIME	QUANT	1.00000E-002	Sa&mple Period (s)
CHARGESTOPAT1	MULTIPARAM	4	1.00000E+000	Charge Stop At &1	Voltage > Limit	V
CHARGESTOPAT2	MULTIPARAM	0	0.00000E+000	Charge Stop At &2	None	N/A
AESBHCSELECTOR	TOGGLE	F	Save Both Half Cells
IRCOMP	TOGGLE	F	IR &Measure
EOC	QUANT	0	Open Circuit (V)
SEQUENCER	TOGGLE	TRUE	Run as Sequence
PSTATMODEL	IQUANT	53	Pstat Model
PSTATSECTION	LABEL	IFC5000-01520	Pstat Section
PSTATSERIALNO	LABEL	01520	Pstat Serial Number
CTRLMODE	IQUANT	0	Control Mode
ELECTROMETER	IQUANT	1	RE=0 or CS=1
IESTAB	IQUANT	0	I/E Stability
CASPEED	IQUANT	4	Control Amp Speed
CONVENTION	IQUANT	1	Current Convention
ICHRANGE	IQUANT	2	Ich Range
ICHRANGEMODE	TOGGLE	T	Ich Auto Range
ICHOFFSETENABLE	TOGGLE	F	Ich Offset Enable
ICHOFFSET	QUANT	0	Ich Offset (V)
ICHFILTER	IQUANT	1	Ich Filter
VCHRANGE	IQUANT	2	Vch Range
VCHRANGEMODE	TOGGLE	T	Vch Auto Range
VCHOFFSETENABLE	TOGGLE	F	Vch Offset Enable
VCHOFFSET	QUANT	0	Vch Offset (V)
VCHFILTER	IQUANT	1	Vch Filter
IERANGELOWERLIMIT	IQUANT	9	I/E Range Lower Limit
IERANGEMODE	TOGGLE	F	I/E AutoRange
IERANGE	IQUANT	9	I/E Range
ACHSELECT	IQUANT	1	Ach Select
ACHRANGE	IQUANT	2	Ach Range
ACHOFFSETENABLE	TOGGLE	F	Ach Offset Enable
ACHOFFSET	QUANT	0	Ach Offset (V)
ACHFILTER	IQUANT	1	Ach Filter
CABLEID	IQUANT	14	Cable ID
DCCALDATE	LABEL	5-7-2017	DC Calibration Date
ACCALDATE	LABEL	12/3/2015	AC Calibration Date
FRAMEWORKVERSION	QUANT	7.01	Framework Version
INSTRUMENTVERSION	LABEL	4.00	Instrument Version
CURVE	TABLE	145
	Pt	T	Vf	Im	Vu	Pwr	Sig	Ach	Temp	IERange	Over
	#	s	V	A	V	W	V	V	deg C	#	bits
	0	0.013333	5.66256E-001	2.80707E-004	0.00000E+000	1.58952E-004	1.68088E-001	5.66541E-001	3.57840E+000	9	...........
	1	0.026667	5.94265E-001	2.80993E-004	0.00000E+000	1.66984E-004	1.68088E-001	5.94556E-001	3.57840E+000	9	...........
	2	0.04	6.17641E-001	2.80802E-004	0.00000E+000	1.73435E-004	1.68088E-001	6.17923E-001	3.57840E+000	9	...........
	3	0.053333	6.37682E-001	2.81286E-004	0.00000E+000	1.79371E-004	1.68088E-001	6.37956E-001	3.57840E+000	9	...........
	4	0.066667	6.55179E-001	2.80733E-004	0.00000E+000	1.83931E-004	1.68088E-001	6.55484E-001	3.57840E+000	9	...........
	5	0.08	6.70726E-001	2.80687E-004	0.00000E+000	1.88264E-004	1.68088E-001	6.71019E-001	3.57840E+000	9	...........
	6	0.093333	6.84604E-001	2.81013E-004	0.00000E+000	1.92383E-004	1.68088E-001	6.84905E-001	3.57840E+000	9	...........
	7	0.106667	6.97164E-001	2.81288E-004	0.00000E+000	1.96104E-004	1.68088E-001	6.97455E-001	3.57840E+000	9	...........
	8	0.12	7.08580E-001	2.81883E-004	0.00000E+000	1.99736E-004	1.68088E-001	7.08873E-001	3.57840E+000	9	...........
	9	0.133333	7.19060E-001	2.81589E-004	0.00000E+000	2.02479E-004	1.68088E-001	7.19346E-001	3.57840E+000	9	...........
	10	0.146667	7.28720E-001	2.80960E-004	0.00000E+000	2.04741E-004	1.68088E-001	7.29001E-001	3.57840E+000	9	...........
	11	0.16	7.37634E-001	2.81352E-004	0.00000E+000	2.07535E-004	1.68088E-001	7.37924E-001	3.57840E+000	9	...........
	12	0.173333	7.45981E-001	2.81625E-004	0.00000E+000	2.10087E-004	1.68088E-001	7.46255E-001	3.57840E+000	9	...........
	13	0.186667	7.53724E-001	2.81344E-004	0.00000E+000	2.12056E-004	1.68088E-001	7.54006E-001	3.57840E+000	9	...........
	14	0.2	7.60978E-001	2.81450E-004	0.00000E+000	2.14177E-004	1.68088E-001	7.61270E-001	3.57840E+000	9	...........
	15	0.213333	7.67750E-001	2.81333E-004	0.00000E+000	2.15993E-004	1.68088E-001	7.68067E-001	3.57840E+000	9	...........
	16	0.226667	7.74143E-001	2.80946E-004	0.00000E+000	2.17492E-004	1.68088E-001	7.74427E-001	3.57840E+000	9	...........
	17	0.24	7.80204E-001	2.80540E-004	0.00000E+000	2.18878E-004	1.68088E-001	7.80515E-001	3.57840E+000	9	...........
	18	0.253333	7.85961E-001	2.81278E-004	0.00000E+000	2.21074E-004	1.68088E-001	7.86274E-001	3.57840E+000	9	...........
	19	0.266667	7.91374E-001	2.80638E-004	0.00000E+000	2.22089E-004	1.68088E-001	7.91712E-001	3.57840E+000	9	...........
	20	0.28	7.96563E-001	2.81410E-004	0.00000E+000	2.24161E-004	1.68088E-001	7.96878E-001	3.57840E+000	9	...........
	21	0.293333	8.01484E-001	2.81322E-004	0.00000E+000	2.25475E-004	1.68088E-001	8.01784E-001	3.57840E+000	9	...........
	22	0.306667	8.06131E-001	2.81722E-004	0.00000E+000	2.27105E-004	1.68088E-001	8.06457E-001	3.57840E+000	9	...........
	23	0.32	8.10562E-001	2.81271E-004	0.00000E+000	2.27988E-004	1.68088E-001	8.10912E-001	3.57840E+000	9	...........
	24	0.333333	8.14851E-001	2.80207E-004	0.00000E+000	2.28327E-004	1.68088E-001	8.15180E-001	3.57840E+000	9	...........
	25	0.346667	8.18994E-001	2.81357E-004	0.00000E+000	2.30429E-004	1.68088E-001	8.19340E-001	3.57840E+000	9	...........
	26	0.36	8.22958E-001	2.80658E-004	0.00000E+000	2.30970E-004	1.68088E-001	8.23313E-001	3.57840E+000	9	...........
	27	0.373333	8.26753E-001	2.81112E-004	0.00000E+000	2.32410E-004	1.68088E-001	8.27085E-001	3.57840E+000	9	...........
	28	0.386667	8.30362E-001	2.81076E-004	0.00000E+000	2.33395E-004	1.68088E-001	8.30710E-001	3.57840E+000	9	...........
	29	0.4	8.33892E-001	2.82188E-004	0.00000E+000	2.35314E-004	1.68088E-001	8.34242E-001	3.57840E+000	9	...........
	30	0.413333	8.37313E-001	2.80306E-004	0.00000E+000	2.34704E-004	1.68088E-001	8.37674E-001	3.57840E+000	9	...........
	31	0.426667	8.40605E-001	2.82173E-004	0.00000E+000	2.37196E-004	1.68088E-001	8.40951E-001	3.57840E+000	9	...........
	32	0.44	8.43819E-001	2.80797E-004	0.00000E+000	2.36942E-004	1.68088E-001	8.44175E-001	3.57840E+000	9	...........
	33	0.453333	8.46929E-001	2.81430E-004	0.00000E+000	2.38352E-004	1.68088E-001	8.47278E-001	3.57840E+000	9	...........
	34	0.466667	8.49857E-001	2.81344E-004	0.00000E+000	2.39102E-004	1.68088E-001	8.50221E-001	3.57840E+000	9	...........
	35	0.48	8.52762E-001	2.81467E-004	0.00000E+000	2.40024E-004	1.68088E-001	8.53101E-001	3.57840E+000	9	...........
	36	0.493333	8.55533E-001	2.80814E-004	0.00000E+000	2.40245E-004	1.68088E-001	8.55877E-001	3.57840E+000	9	...........
	37	0.506667	8.58271E-001	2.81458E-004	0.00000E+000	2.41567E-004	1.68088E-001	8.58619E-001	3.57840E+000	9	...........
	38	0.52	8.60907E-001	2.81105E-004	0.00000E+000	2.42006E-004	1.68088E-001	8.61232E-001	3.57840E+000	9	...........
	39	0.533333	8.63433E-001	2.81509E-004	0.00000E+000	2.43064E-004	1.68088E-001	8.63798E-001	3.57840E+000	9	...........
	40	0.546667	8.65938E-001	2.80772E-004	0.00000E+000	2.43131E-004	1.68088E-001	8.66312E-001	3.57840E+000	9	...........
	41	0.56	8.68410E-001	2.81287E-004	0.00000E+000	2.44272E-004	1.68088E-001	8.68822E-001	3.57840E+000	9	...........
	42	0.573333	8.70870E-001	2.81175E-004	0.00000E+000	2.44867E-004	1.68088E-001	8.71249E-001	3.57840E+000	9	...........
	43	0.586667	8.73204E-001	2.80839E-004	0.00000E+000	2.45230E-004	1.68088E-001	8.73598E-001	3.57840E+000	9	...........
	44	0.6	8.75491E-001	2.81095E-004	0.00000E+000	2.46096E-004	1.68088E-001	8.75843E-001	3.57840E+000	9	...........
	45	0.613333	8.77717E-001	2.81924E-004	0.00000E+000	2.47450E-004	1.68088E-001	8.78056E-001	3.58220E+000	9	...........
	46	0.626667	8.79925E-001	2.80862E-004	0.00000E+000	2.47137E-004	1.68088E-001	8.80263E-001	3.58220E+000	9	...........
	47	0.64	8.82079E-001	2.81336E-004	0.00000E+000	2.48160E-004	1.68088E-001	8.82443E-001	3.58220E+000	9	...........
	48	0.653333	8.84224E-001	2.81004E-004	0.00000E+000	2.48471E-004	1.68088E-001	8.84542E-001	3.58220E+000	9	...........
	49	0.666667	8.86268E-001	2.81382E-004	0.00000E+000	2.49379E-004	1.68088E-001	8.86619E-001	3.58220E+000	9	...........
	50	0.68	8.88299E-001	2.80822E-004	0.00000E+000	2.49454E-004	1.68088E-001	8.88658E-001	3.58220E+000	9	...........
	51	0.693333	8.90310E-001	2.81005E-004	0.00000E+000	2.50182E-004	1.68088E-001	8.90639E-001	3.58220E+000	9	...........
	52	0.706667	8.92281E-001	2.81145E-004	0.00000E+000	2.50860E-004	1.68088E-001	8.92617E-001	3.58220E+000	9	...........
	53	0.72	8.94187E-001	2.80818E-004	0.00000E+000	2.51104E-004	1.68088E-001	8.94557E-001	3.58220E+000	9	...........
	54	0.733333	8.96059E-001	2.80629E-004	0.00000E+000	2.51460E-004	1.68088E-001	8.96432E-001	3.58220E+000	9	...........
	55	0.746667	8.97887E-001	2.81079E-004	0.00000E+000	2.52378E-004	1.68088E-001	8.98277E-001	3.58220E+000	9	...........
	56	0.76	8.99698E-001	2.80625E-004	0.00000E+000	2.52478E-004	1.68088E-001	9.00055E-001	3.58220E+000	9	...........
	57	0.773333	9.01457E-001	2.81320E-004	0.00000E+000	2.53598E-004	1.68088E-001	9.01844E-001	3.58220E+000	9	...........
	58	0.786667	9.03238E-001	2.80522E-004	0.00000E+000	2.53378E-004	1.68088E-001	9.03638E-001	3.58220E+000	9	...........
	59	0.8	9.04943E-001	2.81002E-004	0.00000E+000	2.54291E-004	1.68088E-001	9.05319E-001	3.58220E+000	9	...........
	60	0.813333	9.06650E-001	2.81168E-004	0.00000E+000	2.54921E-004	1.68088E-001	9.07034E-001	3.58220E+000	9	...........
	61	0.826667	9.08343E-001	2.81030E-004	0.00000E+000	2.55272E-004	1.68088E-001	9.08732E-001	3.58220E+000	9	...........
	62	0.84	9.10040E-001	2.80859E-004	0.00000E+000	2.55593E-004	1.68088E-001	9.10409E-001	3.58220E+000	9	...........
	63	0.853333	9.11722E-001	2.80967E-004	0.00000E+000	2.56164E-004	1.68088E-001	9.12079E-001	3.58220E+000	9	...........
	64	0.866667	9.13314E-001	2.80264E-004	0.00000E+000	2.55969E-004	1.68088E-001	9.13683E-001	3.58220E+000	9	...........
	65	0.88	9.14933E-001	2.81088E-004	0.00000E+000	2.57177E-004	1.68088E-001	9.15315E-001	3.58220E+000	9	...........
	66	0.893333	9.16521E-001	2.81147E-004	0.00000E+000	2.57677E-004	1.68088E-001	9.16913E-001	3.58220E+000	9	...........
	67	0.906667	9.18069E-001	2.82006E-004	0.00000E+000	2.58901E-004	1.68088E-001	9.18474E-001	3.58220E+000	9	...........
	68	0.92	9.19588E-001	2.81313E-004	0.00000E+000	2.58692E-004	1.68088E-001	9.19973E-001	3.58220E+000	9	...........
	69	0.933333	9.21153E-001	2.80042E-004	0.00000E+000	2.57961E-004	1.68088E-001	9.21503E-001	3.58220E+000	9	...........
	70	0.946667	9.22600E-001	2.80665E-004	0.00000E+000	2.58941E-004	1.68088E-001	9.22932E-001	3.58220E+000	9	...........
	71	0.96	9.24039E-001	2.81278E-004	0.00000E+000	2.59912E-004	1.68088E-001	9.24382E-001	3.58220E+000	9	...........
	72	0.97333	9.25488E-001	2.80975E-004	0.00000E+000	2.60039E-004	1.68088E-001	9.25829E-001	3.58220E+000	9	...........
	73	0.98667	9.26904E-001	2.81506E-004	0.00000E+000	2.60929E-004	1.68088E-001	9.27270E-001	3.58220E+000	9	...........
	74	1	9.28328E-001	2.80726E-004	0.00000E+000	2.60606E-004	1.68088E-001	9.28659E-001	3.58220E+000	9	...........
	75	1.01333	9.29689E-001	2.81147E-004	0.00000E+000	2.61379E-004	1.68088E-001	9.30025E-001	3.58220E+000	9	...........
	76	1.02667	9.31107E-001	2.81187E-004	0.00000E+000	2.61815E-004	1.68088E-001	9.31437E-001	3.58220E+000	9	...........
	77	1.04	9.32435E-001	2.80721E-004	0.00000E+000	2.61754E-004	1.68088E-001	9.32794E-001	3.58220E+000	9	...........
	78	1.05333	9.33823E-001	2.81435E-004	0.00000E+000	2.62810E-004	1.68088E-001	9.34210E-001	3.58220E+000	9	...........
	79	1.06667	9.35192E-001	2.81220E-004	0.00000E+000	2.62995E-004	1.68088E-001	9.35584E-001	3.58220E+000	9	...........
	80	1.08	9.36486E-001	2.81595E-004	0.00000E+000	2.63710E-004	1.68088E-001	9.36880E-001	3.58220E+000	9	...........
	81	1.09333	9.37816E-001	2.80955E-004	0.00000E+000	2.63484E-004	1.68088E-001	9.38190E-001	3.58220E+000	9	...........
	82	1.10667	9.39098E-001	2.80793E-004	0.00000E+000	2.63692E-004	1.68088E-001	9.39500E-001	3.58220E+000	9	...........
	83	1.12	9.40403E-001	2.81900E-004	0.00000E+000	2.65100E-004	1.68088E-001	9.40798E-001	3.58220E+000	9	...........
	84	1.13333	9.41718E-001	2.81490E-004	0.00000E+000	2.65084E-004	1.68088E-001	9.42078E-001	3.58220E+000	9	...........
	85	1.14667	9.42947E-001	2.81272E-004	0.00000E+000	2.65225E-004	1.68088E-001	9.43330E-001	3.58220E+000	9	...........
	86	1.16	9.44164E-001	2.81507E-004	0.00000E+000	2.65788E-004	1.68088E-001	9.44551E-001	3.58220E+000	9	...........
	87	1.17333	9.45376E-001	2.80969E-004	0.00000E+000	2.65621E-004	1.68088E-001	9.45780E-001	3.58220E+000	9	...........
	88	1.18667	9.46633E-001	2.81278E-004	0.00000E+000	2.66267E-004	1.68088E-001	9.47021E-001	3.58220E+000	9	...........
	89	1.2	9.47867E-001	2.81101E-004	0.00000E+000	2.66447E-004	1.68088E-001	9.48230E-001	3.58220E+000	9	...........
	90	1.21333	9.49047E-001	2.81056E-004	0.00000E+000	2.66736E-004	1.68088E-001	9.49431E-001	3.58220E+000	9	...........
	91	1.22667	9.50216E-001	2.81638E-004	0.00000E+000	2.67617E-004	1.68088E-001	9.50590E-001	3.58220E+000	9	...........
	92	1.24	9.51367E-001	2.81403E-004	0.00000E+000	2.67718E-004	1.68088E-001	9.51765E-001	3.58220E+000	9	...........
	93	1.25333	9.52538E-001	2.80584E-004	0.00000E+000	2.67268E-004	1.68088E-001	9.52915E-001	3.58220E+000	9	...........
	94	1.26667	9.53683E-001	2.81724E-004	0.00000E+000	2.68676E-004	1.68088E-001	9.54063E-001	3.58220E+000	9	...........
	95	1.28	9.54801E-001	2.81086E-004	0.00000E+000	2.68381E-004	1.68088E-001	9.55175E-001	3.58220E+000	9	...........
	96	1.29333	9.55925E-001	2.80846E-004	0.00000E+000	2.68468E-004	1.68088E-001	9.56311E-001	3.58220E+000	9	...........
	97	1.30667	9.57051E-001	2.80941E-004	0.00000E+000	2.68875E-004	1.68088E-001	9.57426E-001	3.58220E+000	9	...........
	98	1.32	9.58142E-001	2.80813E-004	0.00000E+000	2.69058E-004	1.68088E-001	9.58511E-001	3.58220E+000	9	...........
	99	1.33333	9.59265E-001	2.81594E-004	0.00000E+000	2.70123E-004	1.68088E-001	9.59646E-001	3.58220E+000	9	...........
	100	1.34667	9.60369E-001	2.81139E-004	0.00000E+000	2.69997E-004	1.68088E-001	9.60730E-001	3.58220E+000	9	...........
	101	1.36	9.61469E-001	2.81151E-004	0.00000E+000	2.70318E-004	1.68088E-001	9.61849E-001	3.58220E+000	9	...........
	102	1.37333	9.62518E-001	2.82314E-004	0.00000E+000	2.71732E-004	1.68088E-001	9.62919E-001	3.58220E+000	9	...........
	103	1.38667	9.63616E-001	2.81772E-004	0.00000E+000	2.71520E-004	1.68088E-001	9.63995E-001	3.58220E+000	9	...........
	104	1.4	9.64657E-001	2.81104E-004	0.00000E+000	2.71169E-004	1.68088E-001	9.65023E-001	3.58220E+000	9	...........
	105	1.41333	9.65656E-001	2.80940E-004	0.00000E+000	2.71291E-004	1.68088E-001	9.66041E-001	3.58220E+000	9	...........
	106	1.42667	9.66691E-001	2.81495E-004	0.00000E+000	2.72119E-004	1.68088E-001	9.67085E-001	3.58220E+000	9	...........
	107	1.44	9.67678E-001	2.81022E-004	0.00000E+000	2.71939E-004	1.68088E-001	9.68078E-001	3.58220E+000	9	...........
	108	1.45333	9.68708E-001	2.81438E-004	0.00000E+000	2.72631E-004	1.68088E-001	9.69081E-001	3.58220E+000	9	...........
	109	1.46667	9.69704E-001	2.80987E-004	0.00000E+000	2.72474E-004	1.68088E-001	9.70093E-001	3.58220E+000	9	...........
	110	1.48	9.70688E-001	2.81586E-004	0.00000E+000	2.73332E-004	1.68088E-001	9.71091E-001	3.58220E+000	9	...........
	111	1.49333	9.71686E-001	2.81005E-004	0.00000E+000	2.73049E-004	1.68088E-001	9.72095E-001	3.58220E+000	9	...........
	112	1.50667	9.72755E-001	2.80598E-004	0.00000E+000	2.72953E-004	1.68088E-001	9.73104E-001	3.58220E+000	9	...........
	113	1.52	9.73763E-001	2.81109E-004	0.00000E+000	2.73733E-004	1.68088E-001	9.74114E-001	3.58220E+000	9	...........
	114	1.53333	9.74750E-001	2.81404E-004	0.00000E+000	2.74299E-004	1.68088E-001	9.75089E-001	3.58220E+000	9	...........
	115	1.54667	9.75701E-001	2.81674E-004	0.00000E+000	2.74830E-004	1.68088E-001	9.76063E-001	3.58220E+000	9	...........
	116	1.56	9.76634E-001	2.81594E-004	0.00000E+000	2.75014E-004	1.68088E-001	9.76988E-001	3.58220E+000	9	...........
	117	1.57333	9.77568E-001	2.81053E-004	0.00000E+000	2.74749E-004	1.68088E-001	9.77950E-001	3.58220E+000	9	...........
	118	1.58667	9.78514E-001	2.80864E-004	0.00000E+000	2.74829E-004	1.68088E-001	9.78870E-001	3.58220E+000	9	...........
	119	1.6	9.79415E-001	2.81646E-004	0.00000E+000	2.75848E-004	1.68088E-001	9.79774E-001	3.58220E+000	9	...........
	120	1.61333	9.80307E-001	2.80465E-004	0.00000E+000	2.74942E-004	1.68088E-001	9.80670E-001	3.57830E+000	9	...........
	121	1.62667	9.81179E-001	2.80919E-004	0.00000E+000	2.75632E-004	1.68088E-001	9.81551E-001	3.57830E+000	9	...........
	122	1.64	9.82088E-001	2.81065E-004	0.00000E+000	2.76030E-004	1.68088E-001	9.82464E-001	3.57830E+000	9	...........
	123	1.65333	9.83015E-001	2.81198E-004	0.00000E+000	2.76422E-004	1.68088E-001	9.83386E-001	3.57830E+000	9	...........
	124	1.66667	9.83901E-001	2.81627E-004	0.00000E+000	2.77094E-004	1.68088E-001	9.84292E-001	3.57830E+000	9	...........
	125	1.68	9.84774E-001	2.81570E-004	0.00000E+000	2.77283E-004	1.68088E-001	9.85189E-001	3.57830E+000	9	...........
	126	1.69333	9.85692E-001	2.81930E-004	0.00000E+000	2.77896E-004	1.68088E-001	9.86076E-001	3.57830E+000	9	...........
	127	1.70667	9.86542E-001	2.81590E-004	0.00000E+000	2.77800E-004	1.68088E-001	9.86934E-001	3.57830E+000	9	...........
	128	1.72	9.87398E-001	2.80558E-004	0.00000E+000	2.77023E-004	1.68088E-001	9.87812E-001	3.57830E+000	9	...........
	129	1.73333	9.88282E-001	2.80882E-004	0.00000E+000	2.77591E-004	1.68088E-001	9.88682E-001	3.57830E+000	9	...........
	130	1.74667	9.89113E-001	2.81477E-004	0.00000E+000	2.78413E-004	1.68088E-001	9.89505E-001	3.57830E+000	9	...........
	131	1.76	9.89976E-001	2.80688E-004	0.00000E+000	2.77874E-004	1.68088E-001	9.90374E-001	3.57830E+000	9	...........
	132	1.77333	9.90821E-001	2.80994E-004	0.00000E+000	2.78415E-004	1.68088E-001	9.91199E-001	3.57830E+000	9	...........
	133	1.78667	9.91650E-001	2.80812E-004	0.00000E+000	2.78467E-004	1.68088E-001	9.92009E-001	3.57830E+000	9	...........
	134	1.8	9.92464E-001	2.80981E-004	0.00000E+000	2.78864E-004	1.68088E-001	9.92849E-001	3.57830E+000	9	...........
	135	1.81333	9.93275E-001	2.81450E-004	0.00000E+000	2.79557E-004	1.68088E-001	9.93651E-001	3.57830E+000	9	...........
	136	1.82667	9.94085E-001	2.81626E-004	0.00000E+000	2.79961E-004	1.68088E-001	9.94477E-001	3.57830E+000	9	...........
	137	1.84	9.94922E-001	2.81915E-004	0.00000E+000	2.80483E-004	1.68088E-001	9.95279E-001	3.57830E+000	9	...........
	138	1.85333	9.95699E-001	2.80790E-004	0.00000E+000	2.79582E-004	1.68088E-001	9.96072E-001	3.57830E+000	9	...........
	139	1.86667	9.96484E-001	2.80563E-004	0.00000E+000	2.79576E-004	1.68088E-001	9.96889E-001	3.57830E+000	9	...........
	140	1.88	9.97255E-001	2.81647E-004	0.00000E+000	2.80874E-004	1.68088E-001	9.97694E-001	3.57830E+000	9	...........
	141	1.89333	9.98083E-001	2.80814E-004	0.00000E+000	2.80275E-004	1.68088E-001	9.98497E-001	3.57830E+000	9	...........
	142	1.90667	9.98859E-001	2.80995E-004	0.00000E+000	2.80674E-004	1.68088E-001	9.99276E-001	3.57830E+000	9	...........
	143	1.92	9.99637E-001	2.80748E-004	0.00000E+000	2.80646E-004	1.68088E-001	1.00009E+000	3.57830E+000	9	...........
	144	1.92167	1.00011E+000	2.82269E-004	0.00000E+000	2.82299E-004	1.68088E-001	1.00058E+000	3.57830E+000	9	...........
STARTTIMEOFFSET	QUANT	293.7951	Start Time Offset (s)
