EXPLAIN
TAG	PWR800_CHARGE
TITLE	LABEL	PWR Cyclic Charge Discharge (Cell) - Charge Step	Test &Identifier
DATE	LABEL	7-7-2017	Date
TIME	LABEL	15:53:27	Time
NOTES	NOTES	3	&Notes...
	supercap test cell
	2.8mg
	6M KOH
PSTAT	PSTAT	IFC5000-01520	Potentiostat
CAPACITY	QUANT	1.00000E-003	Capacity (A-hr)
CELLTYPE	SELECTOR	1	&Cell Type
WORKINGCONNECTION	SELECTOR	0	&Working Lead
MAXCHARGETIME	VARIABLEANDUNITS	1.00000E+002	s	1.00000E+002	second(s)	Max &Charge Time
CHARGECURRENT	QUANT	2.80000E-004	&Charge Current (A) 
VOLTAGEFINISH	TWOPARAM	F	1.00000E-003	3.60000E+003	&Voltage Finish	 I (A) < 	Max Time(s)
SAMPLETIME	QUANT	1.00000E-002	Sa&mple Period (s)
CHARGESTOPAT1	MULTIPARAM	4	1.00000E+000	Charge Stop At &1	Voltage > Limit	V
CHARGESTOPAT2	MULTIPARAM	0	0.00000E+000	Charge Stop At &2	None	N/A
AESBHCSELECTOR	TOGGLE	F	Save Both Half Cells
IRCOMP	TOGGLE	F	IR &Measure
EOC	QUANT	0	Open Circuit (V)
SEQUENCER	TOGGLE	TRUE	Run as Sequence
PSTATMODEL	IQUANT	53	Pstat Model
PSTATSECTION	LABEL	IFC5000-01520	Pstat Section
PSTATSERIALNO	LABEL	01520	Pstat Serial Number
CTRLMODE	IQUANT	0	Control Mode
ELECTROMETER	IQUANT	1	RE=0 or CS=1
IESTAB	IQUANT	0	I/E Stability
CASPEED	IQUANT	4	Control Amp Speed
CONVENTION	IQUANT	1	Current Convention
ICHRANGE	IQUANT	2	Ich Range
ICHRANGEMODE	TOGGLE	T	Ich Auto Range
ICHOFFSETENABLE	TOGGLE	F	Ich Offset Enable
ICHOFFSET	QUANT	0	Ich Offset (V)
ICHFILTER	IQUANT	1	Ich Filter
VCHRANGE	IQUANT	2	Vch Range
VCHRANGEMODE	TOGGLE	T	Vch Auto Range
VCHOFFSETENABLE	TOGGLE	F	Vch Offset Enable
VCHOFFSET	QUANT	0	Vch Offset (V)
VCHFILTER	IQUANT	1	Vch Filter
IERANGELOWERLIMIT	IQUANT	9	I/E Range Lower Limit
IERANGEMODE	TOGGLE	F	I/E AutoRange
IERANGE	IQUANT	9	I/E Range
ACHSELECT	IQUANT	1	Ach Select
ACHRANGE	IQUANT	2	Ach Range
ACHOFFSETENABLE	TOGGLE	F	Ach Offset Enable
ACHOFFSET	QUANT	0	Ach Offset (V)
ACHFILTER	IQUANT	1	Ach Filter
CABLEID	IQUANT	14	Cable ID
DCCALDATE	LABEL	5-7-2017	DC Calibration Date
ACCALDATE	LABEL	12/3/2015	AC Calibration Date
FRAMEWORKVERSION	QUANT	7.01	Framework Version
INSTRUMENTVERSION	LABEL	4.00	Instrument Version
CURVE	TABLE	95
	Pt	T	Vf	Im	Vu	Pwr	Sig	Ach	Temp	IERange	Over
	#	s	V	A	V	W	V	V	deg C	#	bits
	0	0.013333	5.93408E-001	2.81308E-004	0.00000E+000	1.66930E-004	1.68088E-001	5.93691E-001	3.57920E+000	9	...........
	1	0.026667	6.22336E-001	2.81535E-004	0.00000E+000	1.75209E-004	1.68088E-001	6.22598E-001	3.57920E+000	9	...........
	2	0.04	6.46814E-001	2.81681E-004	0.00000E+000	1.82195E-004	1.68088E-001	6.47078E-001	3.57920E+000	9	...........
	3	0.053333	6.68052E-001	2.80330E-004	0.00000E+000	1.87275E-004	1.68088E-001	6.68307E-001	3.57920E+000	9	...........
	4	0.066667	6.86830E-001	2.80605E-004	0.00000E+000	1.92728E-004	1.68088E-001	6.87105E-001	3.57920E+000	9	...........
	5	0.08	7.03639E-001	2.81457E-004	0.00000E+000	1.98044E-004	1.68088E-001	7.03925E-001	3.57920E+000	9	...........
	6	0.093333	7.18848E-001	2.80991E-004	0.00000E+000	2.01990E-004	1.68088E-001	7.19126E-001	3.57920E+000	9	...........
	7	0.106667	7.32690E-001	2.81578E-004	0.00000E+000	2.06310E-004	1.68088E-001	7.32959E-001	3.57920E+000	9	...........
	8	0.12	7.45361E-001	2.81257E-004	0.00000E+000	2.09638E-004	1.68088E-001	7.45655E-001	3.57920E+000	9	...........
	9	0.133333	7.57034E-001	2.81193E-004	0.00000E+000	2.12873E-004	1.68088E-001	7.57317E-001	3.57920E+000	9	...........
	10	0.146667	7.67749E-001	2.81620E-004	0.00000E+000	2.16214E-004	1.68088E-001	7.68059E-001	3.57920E+000	9	...........
	11	0.16	7.77746E-001	2.80622E-004	0.00000E+000	2.18253E-004	1.68088E-001	7.78042E-001	3.57920E+000	9	...........
	12	0.173333	7.87061E-001	2.81608E-004	0.00000E+000	2.21642E-004	1.68088E-001	7.87360E-001	3.57920E+000	9	...........
	13	0.186667	7.95789E-001	2.82055E-004	0.00000E+000	2.24456E-004	1.68088E-001	7.96087E-001	3.57920E+000	9	...........
	14	0.2	8.03882E-001	2.81213E-004	0.00000E+000	2.26062E-004	1.68088E-001	8.04187E-001	3.57920E+000	9	...........
	15	0.213333	8.11488E-001	2.81260E-004	0.00000E+000	2.28239E-004	1.68088E-001	8.11816E-001	3.57920E+000	9	...........
	16	0.226667	8.18671E-001	2.81493E-004	0.00000E+000	2.30450E-004	1.68088E-001	8.19001E-001	3.57920E+000	9	...........
	17	0.24	8.25393E-001	2.81970E-004	0.00000E+000	2.32736E-004	1.68088E-001	8.25728E-001	3.57920E+000	9	...........
	18	0.253333	8.31789E-001	2.82219E-004	0.00000E+000	2.34747E-004	1.68088E-001	8.32121E-001	3.57920E+000	9	...........
	19	0.266667	8.37781E-001	2.80828E-004	0.00000E+000	2.35273E-004	1.68088E-001	8.38127E-001	3.57920E+000	9	...........
	20	0.28	8.43478E-001	2.80986E-004	0.00000E+000	2.37005E-004	1.68088E-001	8.43822E-001	3.57920E+000	9	...........
	21	0.293333	8.48903E-001	2.81226E-004	0.00000E+000	2.38734E-004	1.68088E-001	8.49268E-001	3.57920E+000	9	...........
	22	0.306667	8.54022E-001	2.81126E-004	0.00000E+000	2.40088E-004	1.68088E-001	8.54366E-001	3.57920E+000	9	...........
	23	0.32	8.58893E-001	2.80491E-004	0.00000E+000	2.40911E-004	1.68088E-001	8.59272E-001	3.57920E+000	9	...........
	24	0.333333	8.63528E-001	2.80907E-004	0.00000E+000	2.42571E-004	1.68088E-001	8.63897E-001	3.57920E+000	9	...........
	25	0.346667	8.67980E-001	2.81547E-004	0.00000E+000	2.44377E-004	1.68088E-001	8.68353E-001	3.57920E+000	9	...........
	26	0.36	8.72280E-001	2.80865E-004	0.00000E+000	2.44993E-004	1.68088E-001	8.72656E-001	3.57920E+000	9	...........
	27	0.373333	8.76357E-001	2.81583E-004	0.00000E+000	2.46767E-004	1.68088E-001	8.76736E-001	3.57920E+000	9	...........
	28	0.386667	8.80221E-001	2.81722E-004	0.00000E+000	2.47978E-004	1.68088E-001	8.80592E-001	3.57920E+000	9	...........
	29	0.4	8.83988E-001	2.79978E-004	0.00000E+000	2.47497E-004	1.68088E-001	8.84322E-001	3.57920E+000	9	...........
	30	0.413333	8.87536E-001	2.81533E-004	0.00000E+000	2.49870E-004	1.68088E-001	8.87902E-001	3.57903E+000	9	...........
	31	0.426667	8.90976E-001	2.81143E-004	0.00000E+000	2.50492E-004	1.68088E-001	8.91311E-001	3.57850E+000	9	...........
	32	0.44	8.94263E-001	2.80989E-004	0.00000E+000	2.51278E-004	1.68088E-001	8.94638E-001	3.57850E+000	9	...........
	33	0.453333	8.97489E-001	2.80959E-004	0.00000E+000	2.52157E-004	1.68088E-001	8.97863E-001	3.57850E+000	9	...........
	34	0.466667	9.00542E-001	2.81418E-004	0.00000E+000	2.53429E-004	1.68088E-001	9.00913E-001	3.57850E+000	9	...........
	35	0.48	9.03495E-001	2.81875E-004	0.00000E+000	2.54673E-004	1.68088E-001	9.03865E-001	3.57850E+000	9	...........
	36	0.493333	9.06376E-001	2.81475E-004	0.00000E+000	2.55123E-004	1.68088E-001	9.06760E-001	3.57850E+000	9	...........
	37	0.506667	9.09239E-001	2.82660E-004	0.00000E+000	2.57005E-004	1.68088E-001	9.09580E-001	3.57850E+000	9	...........
	38	0.52	9.11910E-001	2.82059E-004	0.00000E+000	2.57212E-004	1.68088E-001	9.12259E-001	3.57850E+000	9	...........
	39	0.533333	9.14529E-001	2.81733E-004	0.00000E+000	2.57653E-004	1.68088E-001	9.14907E-001	3.57850E+000	9	...........
	40	0.546667	9.17100E-001	2.80327E-004	0.00000E+000	2.57088E-004	1.68088E-001	9.17460E-001	3.57850E+000	9	...........
	41	0.56	9.19574E-001	2.81311E-004	0.00000E+000	2.58686E-004	1.68088E-001	9.19957E-001	3.57850E+000	9	...........
	42	0.573333	9.22076E-001	2.80941E-004	0.00000E+000	2.59049E-004	1.68088E-001	9.22397E-001	3.57850E+000	9	...........
	43	0.586667	9.24407E-001	2.80973E-004	0.00000E+000	2.59733E-004	1.68088E-001	9.24729E-001	3.57850E+000	9	...........
	44	0.6	9.26659E-001	2.80293E-004	0.00000E+000	2.59736E-004	1.68088E-001	9.27003E-001	3.57850E+000	9	...........
	45	0.613333	9.28868E-001	2.81433E-004	0.00000E+000	2.61414E-004	1.68088E-001	9.29203E-001	3.57850E+000	9	...........
	46	0.626667	9.31012E-001	2.81328E-004	0.00000E+000	2.61920E-004	1.68088E-001	9.31330E-001	3.57850E+000	9	...........
	47	0.64	9.33136E-001	2.82008E-004	0.00000E+000	2.63152E-004	1.68088E-001	9.33479E-001	3.57850E+000	9	...........
	48	0.653333	9.35210E-001	2.80730E-004	0.00000E+000	2.62542E-004	1.68088E-001	9.35548E-001	3.57850E+000	9	...........
	49	0.666667	9.37204E-001	2.81000E-004	0.00000E+000	2.63355E-004	1.68088E-001	9.37563E-001	3.57850E+000	9	...........
	50	0.68	9.39179E-001	2.81687E-004	0.00000E+000	2.64554E-004	1.68088E-001	9.39543E-001	3.57850E+000	9	...........
	51	0.693333	9.41132E-001	2.81474E-004	0.00000E+000	2.64904E-004	1.68088E-001	9.41485E-001	3.57850E+000	9	...........
	52	0.706667	9.43032E-001	2.81264E-004	0.00000E+000	2.65241E-004	1.68088E-001	9.43404E-001	3.57850E+000	9	...........
	53	0.72	9.44826E-001	2.81893E-004	0.00000E+000	2.66340E-004	1.68088E-001	9.45204E-001	3.57850E+000	9	...........
	54	0.733333	9.46660E-001	2.81407E-004	0.00000E+000	2.66396E-004	1.68088E-001	9.47003E-001	3.57850E+000	9	...........
	55	0.746667	9.48423E-001	2.81660E-004	0.00000E+000	2.67133E-004	1.68088E-001	9.48749E-001	3.57850E+000	9	...........
	56	0.76	9.50156E-001	2.80794E-004	0.00000E+000	2.66798E-004	1.68088E-001	9.50494E-001	3.57850E+000	9	...........
	57	0.773333	9.51831E-001	2.81073E-004	0.00000E+000	2.67534E-004	1.68088E-001	9.52196E-001	3.57850E+000	9	...........
	58	0.786667	9.53543E-001	2.81378E-004	0.00000E+000	2.68306E-004	1.68088E-001	9.53883E-001	3.57850E+000	9	...........
	59	0.8	9.55227E-001	2.81115E-004	0.00000E+000	2.68528E-004	1.68088E-001	9.55551E-001	3.57850E+000	9	...........
	60	0.813333	9.56850E-001	2.81755E-004	0.00000E+000	2.69597E-004	1.68088E-001	9.57195E-001	3.57850E+000	9	...........
	61	0.826667	9.58459E-001	2.80831E-004	0.00000E+000	2.69166E-004	1.68088E-001	9.58824E-001	3.57850E+000	9	...........
	62	0.84	9.60021E-001	2.80963E-004	0.00000E+000	2.69730E-004	1.68088E-001	9.60385E-001	3.57850E+000	9	...........
	63	0.853333	9.61573E-001	2.82182E-004	0.00000E+000	2.71338E-004	1.68088E-001	9.61938E-001	3.57850E+000	9	...........
	64	0.866667	9.63095E-001	2.81318E-004	0.00000E+000	2.70936E-004	1.68088E-001	9.63465E-001	3.57850E+000	9	...........
	65	0.88	9.64608E-001	2.81839E-004	0.00000E+000	2.71864E-004	1.68088E-001	9.64998E-001	3.57850E+000	9	...........
	66	0.893333	9.66101E-001	2.82294E-004	0.00000E+000	2.72725E-004	1.68088E-001	9.66473E-001	3.57850E+000	9	...........
	67	0.906667	9.67560E-001	2.80733E-004	0.00000E+000	2.71627E-004	1.68088E-001	9.67919E-001	3.57850E+000	9	...........
	68	0.92	9.68963E-001	2.81434E-004	0.00000E+000	2.72699E-004	1.68088E-001	9.69335E-001	3.57850E+000	9	...........
	69	0.933333	9.70351E-001	2.80440E-004	0.00000E+000	2.72125E-004	1.68088E-001	9.70734E-001	3.57850E+000	9	...........
	70	0.946667	9.71703E-001	2.81040E-004	0.00000E+000	2.73087E-004	1.68088E-001	9.72119E-001	3.57850E+000	9	...........
	71	0.96	9.73135E-001	2.80699E-004	0.00000E+000	2.73158E-004	1.68088E-001	9.73500E-001	3.57850E+000	9	...........
	72	0.97333	9.74467E-001	2.81059E-004	0.00000E+000	2.73882E-004	1.68088E-001	9.74829E-001	3.57850E+000	9	...........
	73	0.98667	9.75838E-001	2.82098E-004	0.00000E+000	2.75282E-004	1.68088E-001	9.76184E-001	3.57850E+000	9	...........
	74	1	9.77146E-001	2.82175E-004	0.00000E+000	2.75727E-004	1.68088E-001	9.77505E-001	3.57850E+000	9	...........
	75	1.01333	9.78424E-001	2.80129E-004	0.00000E+000	2.74085E-004	1.68088E-001	9.78783E-001	3.57850E+000	9	...........
	76	1.02667	9.79721E-001	2.81419E-004	0.00000E+000	2.75712E-004	1.68088E-001	9.80081E-001	3.57850E+000	9	...........
	77	1.04	9.81007E-001	2.81897E-004	0.00000E+000	2.76543E-004	1.68088E-001	9.81341E-001	3.57850E+000	9	...........
	78	1.05333	9.82228E-001	2.81349E-004	0.00000E+000	2.76349E-004	1.68088E-001	9.82602E-001	3.57850E+000	9	...........
	79	1.06667	9.83479E-001	2.81538E-004	0.00000E+000	2.76886E-004	1.68088E-001	9.83844E-001	3.57850E+000	9	...........
	80	1.08	9.84660E-001	2.81480E-004	0.00000E+000	2.77163E-004	1.68088E-001	9.85042E-001	3.57850E+000	9	...........
	81	1.09333	9.85867E-001	2.81013E-004	0.00000E+000	2.77041E-004	1.68088E-001	9.86250E-001	3.57850E+000	9	...........
	82	1.10667	9.87082E-001	2.81864E-004	0.00000E+000	2.78223E-004	1.68088E-001	9.87477E-001	3.57850E+000	9	...........
	83	1.12	9.88280E-001	2.81258E-004	0.00000E+000	2.77961E-004	1.68088E-001	9.88662E-001	3.57850E+000	9	...........
	84	1.13333	9.89476E-001	2.80415E-004	0.00000E+000	2.77464E-004	1.68088E-001	9.89834E-001	3.57850E+000	9	...........
	85	1.14667	9.90633E-001	2.81780E-004	0.00000E+000	2.79140E-004	1.68088E-001	9.91006E-001	3.57850E+000	9	...........
	86	1.16	9.91765E-001	2.81540E-004	0.00000E+000	2.79222E-004	1.68088E-001	9.92161E-001	3.57850E+000	9	...........
	87	1.17333	9.92936E-001	2.80611E-004	0.00000E+000	2.78628E-004	1.68088E-001	9.93321E-001	3.57850E+000	9	...........
	88	1.18667	9.94068E-001	2.81929E-004	0.00000E+000	2.80256E-004	1.68088E-001	9.94440E-001	3.57850E+000	9	...........
	89	1.2	9.95220E-001	2.81457E-004	0.00000E+000	2.80111E-004	1.68088E-001	9.95576E-001	3.57850E+000	9	...........
	90	1.21333	9.96297E-001	2.81342E-004	0.00000E+000	2.80300E-004	1.68088E-001	9.96642E-001	3.57850E+000	9	...........
	91	1.22667	9.97358E-001	2.81596E-004	0.00000E+000	2.80852E-004	1.68088E-001	9.97735E-001	3.57850E+000	9	...........
	92	1.24	9.98420E-001	2.82083E-004	0.00000E+000	2.81637E-004	1.68088E-001	9.98777E-001	3.57850E+000	9	...........
	93	1.25333	9.99473E-001	2.81239E-004	0.00000E+000	2.81091E-004	1.68088E-001	9.99825E-001	3.57850E+000	9	...........
	94	1.255	1.00007E+000	2.80894E-004	0.00000E+000	2.80912E-004	1.68088E-001	1.00047E+000	3.57850E+000	9	...........
STARTTIMEOFFSET	QUANT	827.1952	Start Time Offset (s)
