EXPLAIN
TAG	PWR800_CHARGE
TITLE	LABEL	PWR Cyclic Charge Discharge (Cell) - Charge Step	Test &Identifier
DATE	LABEL	7-7-2017	Date
TIME	LABEL	16:01:41	Time
NOTES	NOTES	3	&Notes...
	supercap test cell
	2.8mg
	6M KOH
PSTAT	PSTAT	IFC5000-01520	Potentiostat
CAPACITY	QUANT	1.00000E-003	Capacity (A-hr)
CELLTYPE	SELECTOR	1	&Cell Type
WORKINGCONNECTION	SELECTOR	0	&Working Lead
MAXCHARGETIME	VARIABLEANDUNITS	1.00000E+002	s	1.00000E+002	second(s)	Max &Charge Time
CHARGECURRENT	QUANT	2.80000E-004	&Charge Current (A) 
VOLTAGEFINISH	TWOPARAM	F	1.00000E-003	3.60000E+003	&Voltage Finish	 I (A) < 	Max Time(s)
SAMPLETIME	QUANT	1.00000E-002	Sa&mple Period (s)
CHARGESTOPAT1	MULTIPARAM	4	1.00000E+000	Charge Stop At &1	Voltage > Limit	V
CHARGESTOPAT2	MULTIPARAM	0	0.00000E+000	Charge Stop At &2	None	N/A
AESBHCSELECTOR	TOGGLE	F	Save Both Half Cells
IRCOMP	TOGGLE	F	IR &Measure
EOC	QUANT	0	Open Circuit (V)
SEQUENCER	TOGGLE	TRUE	Run as Sequence
PSTATMODEL	IQUANT	53	Pstat Model
PSTATSECTION	LABEL	IFC5000-01520	Pstat Section
PSTATSERIALNO	LABEL	01520	Pstat Serial Number
CTRLMODE	IQUANT	0	Control Mode
ELECTROMETER	IQUANT	1	RE=0 or CS=1
IESTAB	IQUANT	0	I/E Stability
CASPEED	IQUANT	4	Control Amp Speed
CONVENTION	IQUANT	1	Current Convention
ICHRANGE	IQUANT	2	Ich Range
ICHRANGEMODE	TOGGLE	T	Ich Auto Range
ICHOFFSETENABLE	TOGGLE	F	Ich Offset Enable
ICHOFFSET	QUANT	0	Ich Offset (V)
ICHFILTER	IQUANT	1	Ich Filter
VCHRANGE	IQUANT	2	Vch Range
VCHRANGEMODE	TOGGLE	T	Vch Auto Range
VCHOFFSETENABLE	TOGGLE	F	Vch Offset Enable
VCHOFFSET	QUANT	0	Vch Offset (V)
VCHFILTER	IQUANT	1	Vch Filter
IERANGELOWERLIMIT	IQUANT	9	I/E Range Lower Limit
IERANGEMODE	TOGGLE	F	I/E AutoRange
IERANGE	IQUANT	9	I/E Range
ACHSELECT	IQUANT	1	Ach Select
ACHRANGE	IQUANT	2	Ach Range
ACHOFFSETENABLE	TOGGLE	F	Ach Offset Enable
ACHOFFSET	QUANT	0	Ach Offset (V)
ACHFILTER	IQUANT	1	Ach Filter
CABLEID	IQUANT	14	Cable ID
DCCALDATE	LABEL	5-7-2017	DC Calibration Date
ACCALDATE	LABEL	12/3/2015	AC Calibration Date
FRAMEWORKVERSION	QUANT	7.01	Framework Version
INSTRUMENTVERSION	LABEL	4.00	Instrument Version
CURVE	TABLE	78
	Pt	T	Vf	Im	Vu	Pwr	Sig	Ach	Temp	IERange	Over
	#	s	V	A	V	W	V	V	deg C	#	bits
	0	0.013333	5.96993E-001	2.80775E-004	0.00000E+000	1.67621E-004	1.68088E-001	5.97290E-001	3.57800E+000	9	...........
	1	0.026667	6.26716E-001	2.81041E-004	0.00000E+000	1.76133E-004	1.68088E-001	6.26991E-001	3.57800E+000	9	...........
	2	0.04	6.52052E-001	2.81996E-004	0.00000E+000	1.83876E-004	1.68088E-001	6.52328E-001	3.57800E+000	9	...........
	3	0.053333	6.74222E-001	2.80821E-004	0.00000E+000	1.89336E-004	1.68088E-001	6.74497E-001	3.57800E+000	9	...........
	4	0.066667	6.93893E-001	2.80680E-004	0.00000E+000	1.94762E-004	1.68088E-001	6.94199E-001	3.57800E+000	9	...........
	5	0.08	7.11564E-001	2.81030E-004	0.00000E+000	1.99971E-004	1.68088E-001	7.11868E-001	3.57800E+000	9	...........
	6	0.093333	7.27644E-001	2.81190E-004	0.00000E+000	2.04606E-004	1.68088E-001	7.27923E-001	3.57800E+000	9	...........
	7	0.106667	7.42292E-001	2.80835E-004	0.00000E+000	2.08461E-004	1.68088E-001	7.42553E-001	3.57800E+000	9	...........
	8	0.12	7.55778E-001	2.81318E-004	0.00000E+000	2.12614E-004	1.68088E-001	7.56034E-001	3.57800E+000	9	...........
	9	0.133333	7.68203E-001	2.81265E-004	0.00000E+000	2.16068E-004	1.68088E-001	7.68477E-001	3.57800E+000	9	...........
	10	0.146667	7.79693E-001	2.80098E-004	0.00000E+000	2.18390E-004	1.68088E-001	7.80001E-001	3.57800E+000	9	...........
	11	0.16	7.90362E-001	2.81914E-004	0.00000E+000	2.22814E-004	1.68088E-001	7.90681E-001	3.57800E+000	9	...........
	12	0.173333	8.00333E-001	2.81830E-004	0.00000E+000	2.25558E-004	1.68088E-001	8.00637E-001	3.57800E+000	9	...........
	13	0.186667	8.09548E-001	2.81287E-004	0.00000E+000	2.27715E-004	1.68088E-001	8.09883E-001	3.57800E+000	9	...........
	14	0.2	8.18228E-001	2.81449E-004	0.00000E+000	2.30290E-004	1.68088E-001	8.18562E-001	3.57800E+000	9	...........
	15	0.213333	8.26343E-001	2.80507E-004	0.00000E+000	2.31795E-004	1.68088E-001	8.26680E-001	3.57800E+000	9	...........
	16	0.226667	8.33942E-001	2.81525E-004	0.00000E+000	2.34776E-004	1.68088E-001	8.34316E-001	3.57800E+000	9	...........
	17	0.24	8.41126E-001	2.80796E-004	0.00000E+000	2.36185E-004	1.68088E-001	8.41488E-001	3.57800E+000	9	...........
	18	0.253333	8.47912E-001	2.81317E-004	0.00000E+000	2.38532E-004	1.68088E-001	8.48282E-001	3.57781E+000	9	...........
	19	0.266667	8.54256E-001	2.81725E-004	0.00000E+000	2.40666E-004	1.68088E-001	8.54626E-001	3.57780E+000	9	...........
	20	0.28	8.60283E-001	2.79955E-004	0.00000E+000	2.40841E-004	1.68088E-001	8.60671E-001	3.57780E+000	9	...........
	21	0.293333	8.65995E-001	2.81949E-004	0.00000E+000	2.44167E-004	1.68088E-001	8.66359E-001	3.57780E+000	9	...........
	22	0.306667	8.71401E-001	2.81198E-004	0.00000E+000	2.45036E-004	1.68088E-001	8.71777E-001	3.57780E+000	9	...........
	23	0.32	8.76518E-001	2.81653E-004	0.00000E+000	2.46874E-004	1.68088E-001	8.76904E-001	3.57780E+000	9	...........
	24	0.333333	8.81413E-001	2.81579E-004	0.00000E+000	2.48188E-004	1.68088E-001	8.81806E-001	3.57780E+000	9	...........
	25	0.346667	8.86069E-001	2.81069E-004	0.00000E+000	2.49046E-004	1.68088E-001	8.86433E-001	3.57780E+000	9	...........
	26	0.36	8.90489E-001	2.83701E-004	0.00000E+000	2.52632E-004	1.68088E-001	8.90868E-001	3.57780E+000	9	...........
	27	0.373333	8.94727E-001	2.81459E-004	0.00000E+000	2.51829E-004	1.68088E-001	8.95127E-001	3.57780E+000	9	...........
	28	0.386667	8.98789E-001	2.80951E-004	0.00000E+000	2.52516E-004	1.68088E-001	8.99192E-001	3.57780E+000	9	...........
	29	0.4	9.02618E-001	2.81938E-004	0.00000E+000	2.54482E-004	1.68088E-001	9.03054E-001	3.57780E+000	9	...........
	30	0.413333	9.06309E-001	2.81252E-004	0.00000E+000	2.54901E-004	1.68088E-001	9.06734E-001	3.57780E+000	9	...........
	31	0.426667	9.09893E-001	2.82038E-004	0.00000E+000	2.56624E-004	1.68088E-001	9.10300E-001	3.57780E+000	9	...........
	32	0.44	9.13327E-001	2.81960E-004	0.00000E+000	2.57521E-004	1.68088E-001	9.13743E-001	3.57780E+000	9	...........
	33	0.453333	9.16639E-001	2.80449E-004	0.00000E+000	2.57071E-004	1.68088E-001	9.17054E-001	3.57780E+000	9	...........
	34	0.466667	9.19829E-001	2.80392E-004	0.00000E+000	2.57912E-004	1.68088E-001	9.20247E-001	3.57780E+000	9	...........
	35	0.48	9.22973E-001	2.82892E-004	0.00000E+000	2.61102E-004	1.68088E-001	9.23330E-001	3.57780E+000	9	...........
	36	0.493333	9.25936E-001	2.80722E-004	0.00000E+000	2.59931E-004	1.68088E-001	9.26318E-001	3.57780E+000	9	...........
	37	0.506667	9.28797E-001	2.82165E-004	0.00000E+000	2.62074E-004	1.68088E-001	9.29162E-001	3.57780E+000	9	...........
	38	0.52	9.31557E-001	2.80922E-004	0.00000E+000	2.61695E-004	1.68088E-001	9.31915E-001	3.57780E+000	9	...........
	39	0.533333	9.34265E-001	2.81186E-004	0.00000E+000	2.62702E-004	1.68088E-001	9.34640E-001	3.57780E+000	9	...........
	40	0.546667	9.36868E-001	2.81832E-004	0.00000E+000	2.64039E-004	1.68088E-001	9.37250E-001	3.57780E+000	9	...........
	41	0.56	9.39401E-001	2.80645E-004	0.00000E+000	2.63638E-004	1.68088E-001	9.39784E-001	3.57780E+000	9	...........
	42	0.573333	9.41861E-001	2.80876E-004	0.00000E+000	2.64546E-004	1.68088E-001	9.42195E-001	3.57780E+000	9	...........
	43	0.586667	9.44180E-001	2.80488E-004	0.00000E+000	2.64831E-004	1.68088E-001	9.44526E-001	3.57780E+000	9	...........
	44	0.6	9.46471E-001	2.80040E-004	0.00000E+000	2.65049E-004	1.68088E-001	9.46843E-001	3.57780E+000	9	...........
	45	0.613333	9.48726E-001	2.81528E-004	0.00000E+000	2.67093E-004	1.68088E-001	9.49071E-001	3.57780E+000	9	...........
	46	0.626667	9.50883E-001	2.80479E-004	0.00000E+000	2.66703E-004	1.68088E-001	9.51215E-001	3.57780E+000	9	...........
	47	0.64	9.52979E-001	2.81743E-004	0.00000E+000	2.68495E-004	1.68088E-001	9.53324E-001	3.57780E+000	9	...........
	48	0.653333	9.55093E-001	2.82012E-004	0.00000E+000	2.69348E-004	1.68088E-001	9.55386E-001	3.57780E+000	9	...........
	49	0.666667	9.57106E-001	2.80820E-004	0.00000E+000	2.68775E-004	1.68088E-001	9.57425E-001	3.57780E+000	9	...........
	50	0.68	9.59040E-001	2.80940E-004	0.00000E+000	2.69432E-004	1.68088E-001	9.59359E-001	3.57780E+000	9	...........
	51	0.693333	9.60929E-001	2.80898E-004	0.00000E+000	2.69923E-004	1.68088E-001	9.61274E-001	3.57780E+000	9	...........
	52	0.706667	9.62784E-001	2.81217E-004	0.00000E+000	2.70751E-004	1.68088E-001	9.63145E-001	3.57780E+000	9	...........
	53	0.72	9.64594E-001	2.81255E-004	0.00000E+000	2.71297E-004	1.68088E-001	9.64951E-001	3.57780E+000	9	...........
	54	0.733333	9.66355E-001	2.81376E-004	0.00000E+000	2.71909E-004	1.68088E-001	9.66720E-001	3.57780E+000	9	...........
	55	0.746667	9.68129E-001	2.79765E-004	0.00000E+000	2.70848E-004	1.68088E-001	9.68500E-001	3.57780E+000	9	...........
	56	0.76	9.69872E-001	2.79925E-004	0.00000E+000	2.71492E-004	1.68088E-001	9.70255E-001	3.57780E+000	9	...........
	57	0.773333	9.71593E-001	2.80318E-004	0.00000E+000	2.72355E-004	1.68088E-001	9.72004E-001	3.57780E+000	9	...........
	58	0.786667	9.73301E-001	2.80299E-004	0.00000E+000	2.72815E-004	1.68088E-001	9.73656E-001	3.57780E+000	9	...........
	59	0.8	9.74929E-001	2.81077E-004	0.00000E+000	2.74030E-004	1.68088E-001	9.75275E-001	3.57780E+000	9	...........
	60	0.813333	9.76501E-001	2.80761E-004	0.00000E+000	2.74163E-004	1.68088E-001	9.76893E-001	3.57780E+000	9	...........
	61	0.826667	9.78082E-001	2.80664E-004	0.00000E+000	2.74512E-004	1.68088E-001	9.78455E-001	3.57780E+000	9	...........
	62	0.84	9.79632E-001	2.81293E-004	0.00000E+000	2.75564E-004	1.68088E-001	9.80000E-001	3.57780E+000	9	...........
	63	0.853333	9.81164E-001	2.81263E-004	0.00000E+000	2.75965E-004	1.68088E-001	9.81510E-001	3.57780E+000	9	...........
	64	0.866667	9.82657E-001	2.81095E-004	0.00000E+000	2.76220E-004	1.68088E-001	9.83009E-001	3.57780E+000	9	...........
	65	0.88	9.84089E-001	2.81237E-004	0.00000E+000	2.76762E-004	1.68088E-001	9.84456E-001	3.57780E+000	9	...........
	66	0.893333	9.85553E-001	2.82153E-004	0.00000E+000	2.78076E-004	1.68088E-001	9.85920E-001	3.57780E+000	9	...........
	67	0.906667	9.86971E-001	2.81560E-004	0.00000E+000	2.77891E-004	1.68088E-001	9.87330E-001	3.57780E+000	9	...........
	68	0.92	9.88436E-001	2.82063E-004	0.00000E+000	2.78801E-004	1.68088E-001	9.88778E-001	3.57780E+000	9	...........
	69	0.933333	9.89791E-001	2.82197E-004	0.00000E+000	2.79316E-004	1.68088E-001	9.90142E-001	3.57780E+000	9	...........
	70	0.946667	9.91166E-001	2.81353E-004	0.00000E+000	2.78868E-004	1.68088E-001	9.91499E-001	3.57780E+000	9	...........
	71	0.96	9.92501E-001	2.81045E-004	0.00000E+000	2.78937E-004	1.68088E-001	9.92865E-001	3.57780E+000	9	...........
	72	0.97333	9.93871E-001	2.82903E-004	0.00000E+000	2.81169E-004	1.68088E-001	9.94226E-001	3.57780E+000	9	...........
	73	0.98667	9.95219E-001	2.81081E-004	0.00000E+000	2.79738E-004	1.68088E-001	9.95559E-001	3.57780E+000	9	...........
	74	1	9.96472E-001	2.81646E-004	0.00000E+000	2.80653E-004	1.68088E-001	9.96837E-001	3.57780E+000	9	...........
	75	1.01333	9.97731E-001	2.81138E-004	0.00000E+000	2.80500E-004	1.68088E-001	9.98117E-001	3.57780E+000	9	...........
	76	1.02667	9.98971E-001	2.81788E-004	0.00000E+000	2.81498E-004	1.68088E-001	9.99354E-001	3.57780E+000	9	...........
	77	1.03167	9.99833E-001	2.83042E-004	0.00000E+000	2.82994E-004	1.68088E-001	1.00021E+000	3.57780E+000	9	...........
STARTTIMEOFFSET	QUANT	1179.94	Start Time Offset (s)
