EXPLAIN
TAG	PWR800_CHARGE
TITLE	LABEL	PWR Cyclic Charge Discharge (Cell) - Charge Step	Test &Identifier
DATE	LABEL	7-7-2017	Date
TIME	LABEL	15:42:03	Time
NOTES	NOTES	3	&Notes...
	supercap test cell
	2.8mg
	6M KOH
PSTAT	PSTAT	IFC5000-01520	Potentiostat
CAPACITY	QUANT	1.00000E-003	Capacity (A-hr)
CELLTYPE	SELECTOR	1	&Cell Type
WORKINGCONNECTION	SELECTOR	0	&Working Lead
MAXCHARGETIME	VARIABLEANDUNITS	1.00000E+002	s	1.00000E+002	second(s)	Max &Charge Time
CHARGECURRENT	QUANT	2.80000E-004	&Charge Current (A) 
VOLTAGEFINISH	TWOPARAM	F	1.00000E-003	3.60000E+003	&Voltage Finish	 I (A) < 	Max Time(s)
SAMPLETIME	QUANT	1.00000E-002	Sa&mple Period (s)
CHARGESTOPAT1	MULTIPARAM	4	1.00000E+000	Charge Stop At &1	Voltage > Limit	V
CHARGESTOPAT2	MULTIPARAM	0	0.00000E+000	Charge Stop At &2	None	N/A
AESBHCSELECTOR	TOGGLE	F	Save Both Half Cells
IRCOMP	TOGGLE	F	IR &Measure
EOC	QUANT	0	Open Circuit (V)
SEQUENCER	TOGGLE	TRUE	Run as Sequence
PSTATMODEL	IQUANT	53	Pstat Model
PSTATSECTION	LABEL	IFC5000-01520	Pstat Section
PSTATSERIALNO	LABEL	01520	Pstat Serial Number
CTRLMODE	IQUANT	0	Control Mode
ELECTROMETER	IQUANT	1	RE=0 or CS=1
IESTAB	IQUANT	0	I/E Stability
CASPEED	IQUANT	4	Control Amp Speed
CONVENTION	IQUANT	1	Current Convention
ICHRANGE	IQUANT	2	Ich Range
ICHRANGEMODE	TOGGLE	T	Ich Auto Range
ICHOFFSETENABLE	TOGGLE	F	Ich Offset Enable
ICHOFFSET	QUANT	0	Ich Offset (V)
ICHFILTER	IQUANT	1	Ich Filter
VCHRANGE	IQUANT	2	Vch Range
VCHRANGEMODE	TOGGLE	T	Vch Auto Range
VCHOFFSETENABLE	TOGGLE	F	Vch Offset Enable
VCHOFFSET	QUANT	0	Vch Offset (V)
VCHFILTER	IQUANT	1	Vch Filter
IERANGELOWERLIMIT	IQUANT	9	I/E Range Lower Limit
IERANGEMODE	TOGGLE	F	I/E AutoRange
IERANGE	IQUANT	9	I/E Range
ACHSELECT	IQUANT	1	Ach Select
ACHRANGE	IQUANT	2	Ach Range
ACHOFFSETENABLE	TOGGLE	F	Ach Offset Enable
ACHOFFSET	QUANT	0	Ach Offset (V)
ACHFILTER	IQUANT	1	Ach Filter
CABLEID	IQUANT	14	Cable ID
DCCALDATE	LABEL	5-7-2017	DC Calibration Date
ACCALDATE	LABEL	12/3/2015	AC Calibration Date
FRAMEWORKVERSION	QUANT	7.01	Framework Version
INSTRUMENTVERSION	LABEL	4.00	Instrument Version
CURVE	TABLE	144
	Pt	T	Vf	Im	Vu	Pwr	Sig	Ach	Temp	IERange	Over
	#	s	V	A	V	W	V	V	deg C	#	bits
	0	0.013333	5.67474E-001	2.80963E-004	0.00000E+000	1.59439E-004	1.68088E-001	5.67756E-001	3.57860E+000	9	...........
	1	0.026667	5.95341E-001	2.81393E-004	0.00000E+000	1.67525E-004	1.68088E-001	5.95637E-001	3.57860E+000	9	...........
	2	0.04	6.18650E-001	2.80855E-004	0.00000E+000	1.73751E-004	1.68088E-001	6.18944E-001	3.57860E+000	9	...........
	3	0.053333	6.38632E-001	2.81136E-004	0.00000E+000	1.79542E-004	1.68088E-001	6.38912E-001	3.57860E+000	9	...........
	4	0.066667	6.56044E-001	2.80854E-004	0.00000E+000	1.84253E-004	1.68088E-001	6.56362E-001	3.57860E+000	9	...........
	5	0.08	6.71513E-001	2.81504E-004	0.00000E+000	1.89034E-004	1.68088E-001	6.71830E-001	3.57860E+000	9	...........
	6	0.093333	6.85326E-001	2.80899E-004	0.00000E+000	1.92507E-004	1.68088E-001	6.85633E-001	3.57860E+000	9	...........
	7	0.106667	6.97848E-001	2.81048E-004	0.00000E+000	1.96129E-004	1.68088E-001	6.98177E-001	3.57860E+000	9	...........
	8	0.12	7.09230E-001	2.81682E-004	0.00000E+000	1.99777E-004	1.68088E-001	7.09556E-001	3.57860E+000	9	...........
	9	0.133333	7.19725E-001	2.81057E-004	0.00000E+000	2.02284E-004	1.68088E-001	7.20049E-001	3.57860E+000	9	...........
	10	0.146667	7.29343E-001	2.80926E-004	0.00000E+000	2.04892E-004	1.68088E-001	7.29658E-001	3.57860E+000	9	...........
	11	0.16	7.38232E-001	2.81069E-004	0.00000E+000	2.07494E-004	1.68088E-001	7.38538E-001	3.57860E+000	9	...........
	12	0.173333	7.46525E-001	2.81215E-004	0.00000E+000	2.09934E-004	1.68088E-001	7.46828E-001	3.57860E+000	9	...........
	13	0.186667	7.54245E-001	2.81733E-004	0.00000E+000	2.12496E-004	1.68088E-001	7.54564E-001	3.57860E+000	9	...........
	14	0.2	7.61475E-001	2.81598E-004	0.00000E+000	2.14430E-004	1.68088E-001	7.61762E-001	3.57860E+000	9	...........
	15	0.213333	7.68263E-001	2.81354E-004	0.00000E+000	2.16154E-004	1.68088E-001	7.68600E-001	3.57860E+000	9	...........
	16	0.226667	7.74679E-001	2.82058E-004	0.00000E+000	2.18504E-004	1.68088E-001	7.74994E-001	3.57860E+000	9	...........
	17	0.24	7.80706E-001	2.81545E-004	0.00000E+000	2.19804E-004	1.68088E-001	7.81035E-001	3.57860E+000	9	...........
	18	0.253333	7.86427E-001	2.81113E-004	0.00000E+000	2.21075E-004	1.68088E-001	7.86716E-001	3.57860E+000	9	...........
	19	0.266667	7.91819E-001	2.80672E-004	0.00000E+000	2.22241E-004	1.68088E-001	7.92150E-001	3.57860E+000	9	...........
	20	0.28	7.96958E-001	2.81212E-004	0.00000E+000	2.24114E-004	1.68088E-001	7.97308E-001	3.57860E+000	9	...........
	21	0.293333	8.01857E-001	2.80583E-004	0.00000E+000	2.24988E-004	1.68088E-001	8.02163E-001	3.57860E+000	9	...........
	22	0.306667	8.06530E-001	2.81304E-004	0.00000E+000	2.26880E-004	1.68088E-001	8.06845E-001	3.57860E+000	9	...........
	23	0.32	8.10991E-001	2.80999E-004	0.00000E+000	2.27888E-004	1.68088E-001	8.11326E-001	3.57860E+000	9	...........
	24	0.333333	8.15265E-001	2.80624E-004	0.00000E+000	2.28783E-004	1.68088E-001	8.15606E-001	3.57860E+000	9	...........
	25	0.346667	8.19416E-001	2.81495E-004	0.00000E+000	2.30661E-004	1.68088E-001	8.19753E-001	3.57860E+000	9	...........
	26	0.36	8.23371E-001	2.81609E-004	0.00000E+000	2.31868E-004	1.68088E-001	8.23735E-001	3.57860E+000	9	...........
	27	0.373333	8.27175E-001	2.81817E-004	0.00000E+000	2.33112E-004	1.68088E-001	8.27505E-001	3.57860E+000	9	...........
	28	0.386667	8.30845E-001	2.80854E-004	0.00000E+000	2.33346E-004	1.68088E-001	8.31173E-001	3.57860E+000	9	...........
	29	0.4	8.34381E-001	2.81554E-004	0.00000E+000	2.34924E-004	1.68088E-001	8.34708E-001	3.57860E+000	9	...........
	30	0.413333	8.37725E-001	2.81656E-004	0.00000E+000	2.35950E-004	1.68088E-001	8.38072E-001	3.57860E+000	9	...........
	31	0.426667	8.40962E-001	2.81724E-004	0.00000E+000	2.36919E-004	1.68088E-001	8.41318E-001	3.57860E+000	9	...........
	32	0.44	8.44145E-001	2.81736E-004	0.00000E+000	2.37826E-004	1.68088E-001	8.44517E-001	3.57860E+000	9	...........
	33	0.453333	8.47225E-001	2.80629E-004	0.00000E+000	2.37756E-004	1.68088E-001	8.47582E-001	3.57860E+000	9	...........
	34	0.466667	8.50189E-001	2.81245E-004	0.00000E+000	2.39112E-004	1.68088E-001	8.50536E-001	3.57860E+000	9	...........
	35	0.48	8.53078E-001	2.80913E-004	0.00000E+000	2.39640E-004	1.68088E-001	8.53453E-001	3.57860E+000	9	...........
	36	0.493333	8.55905E-001	2.81791E-004	0.00000E+000	2.41186E-004	1.68088E-001	8.56259E-001	3.57860E+000	9	...........
	37	0.506667	8.58588E-001	2.81176E-004	0.00000E+000	2.41414E-004	1.68088E-001	8.58961E-001	3.57860E+000	9	...........
	38	0.52	8.61232E-001	2.81315E-004	0.00000E+000	2.42277E-004	1.68088E-001	8.61597E-001	3.57860E+000	9	...........
	39	0.533333	8.63833E-001	2.81088E-004	0.00000E+000	2.42813E-004	1.68088E-001	8.64193E-001	3.57860E+000	9	...........
	40	0.546667	8.66332E-001	2.80758E-004	0.00000E+000	2.43230E-004	1.68088E-001	8.66689E-001	3.57860E+000	9	...........
	41	0.56	8.68840E-001	2.80915E-004	0.00000E+000	2.44070E-004	1.68088E-001	8.69177E-001	3.57860E+000	9	...........
	42	0.573333	8.71262E-001	2.81100E-004	0.00000E+000	2.44912E-004	1.68088E-001	8.71568E-001	3.57860E+000	9	...........
	43	0.586667	8.73579E-001	2.81284E-004	0.00000E+000	2.45724E-004	1.68088E-001	8.73939E-001	3.57860E+000	9	...........
	44	0.6	8.75851E-001	2.81897E-004	0.00000E+000	2.46900E-004	1.68088E-001	8.76202E-001	3.57860E+000	9	...........
	45	0.613333	8.78058E-001	2.80909E-004	0.00000E+000	2.46654E-004	1.68088E-001	8.78412E-001	3.57860E+000	9	...........
	46	0.626667	8.80258E-001	2.81027E-004	0.00000E+000	2.47377E-004	1.68088E-001	8.80601E-001	3.57860E+000	9	...........
	47	0.64	8.82425E-001	2.80309E-004	0.00000E+000	2.47352E-004	1.68088E-001	8.82782E-001	3.57860E+000	9	...........
	48	0.653333	8.84548E-001	2.81056E-004	0.00000E+000	2.48608E-004	1.68088E-001	8.84896E-001	3.57860E+000	9	...........
	49	0.666667	8.86605E-001	2.81447E-004	0.00000E+000	2.49533E-004	1.68088E-001	8.86940E-001	3.57860E+000	9	...........
	50	0.68	8.88654E-001	2.81048E-004	0.00000E+000	2.49754E-004	1.68088E-001	8.88986E-001	3.57860E+000	9	...........
	51	0.693333	8.90628E-001	2.81116E-004	0.00000E+000	2.50370E-004	1.68088E-001	8.90984E-001	3.57860E+000	9	...........
	52	0.706667	8.92573E-001	2.81078E-004	0.00000E+000	2.50883E-004	1.68088E-001	8.92908E-001	3.57860E+000	9	...........
	53	0.72	8.94466E-001	2.81221E-004	0.00000E+000	2.51543E-004	1.68088E-001	8.94843E-001	3.57860E+000	9	...........
	54	0.733333	8.96374E-001	2.80920E-004	0.00000E+000	2.51809E-004	1.68088E-001	8.96740E-001	3.57860E+000	9	...........
	55	0.746667	8.98220E-001	2.81154E-004	0.00000E+000	2.52538E-004	1.68088E-001	8.98568E-001	3.57860E+000	9	...........
	56	0.76	8.99984E-001	2.80454E-004	0.00000E+000	2.52404E-004	1.68088E-001	9.00375E-001	3.57860E+000	9	...........
	57	0.773333	9.01775E-001	2.81364E-004	0.00000E+000	2.53727E-004	1.68088E-001	9.02170E-001	3.57860E+000	9	...........
	58	0.786667	9.03549E-001	2.80769E-004	0.00000E+000	2.53688E-004	1.68088E-001	9.03909E-001	3.57860E+000	9	...........
	59	0.8	9.05247E-001	2.81361E-004	0.00000E+000	2.54701E-004	1.68088E-001	9.05628E-001	3.57860E+000	9	...........
	60	0.813333	9.06909E-001	2.81211E-004	0.00000E+000	2.55033E-004	1.68088E-001	9.07314E-001	3.57860E+000	9	...........
	61	0.826667	9.08617E-001	2.81006E-004	0.00000E+000	2.55327E-004	1.68088E-001	9.08995E-001	3.57860E+000	9	...........
	62	0.84	9.10257E-001	2.82063E-004	0.00000E+000	2.56750E-004	1.68088E-001	9.10594E-001	3.57860E+000	9	...........
	63	0.853333	9.11852E-001	2.80869E-004	0.00000E+000	2.56111E-004	1.68088E-001	9.12205E-001	3.57894E+000	9	...........
	64	0.866667	9.13428E-001	2.80702E-004	0.00000E+000	2.56401E-004	1.68088E-001	9.13790E-001	3.57950E+000	9	...........
	65	0.88	9.14973E-001	2.80571E-004	0.00000E+000	2.56715E-004	1.68088E-001	9.15387E-001	3.57950E+000	9	...........
	66	0.893333	9.16560E-001	2.80651E-004	0.00000E+000	2.57234E-004	1.68088E-001	9.16959E-001	3.57950E+000	9	...........
	67	0.906667	9.18143E-001	2.81579E-004	0.00000E+000	2.58530E-004	1.68088E-001	9.18505E-001	3.57950E+000	9	...........
	68	0.92	9.19691E-001	2.81289E-004	0.00000E+000	2.58699E-004	1.68088E-001	9.20079E-001	3.57950E+000	9	...........
	69	0.933333	9.21284E-001	2.81321E-004	0.00000E+000	2.59177E-004	1.68088E-001	9.21630E-001	3.57950E+000	9	...........
	70	0.946667	9.22761E-001	2.81549E-004	0.00000E+000	2.59803E-004	1.68088E-001	9.23098E-001	3.57950E+000	9	...........
	71	0.96	9.24213E-001	2.81747E-004	0.00000E+000	2.60394E-004	1.68088E-001	9.24560E-001	3.57950E+000	9	...........
	72	0.97333	9.25605E-001	2.80603E-004	0.00000E+000	2.59728E-004	1.68088E-001	9.25983E-001	3.57950E+000	9	...........
	73	0.98667	9.27060E-001	2.80928E-004	0.00000E+000	2.60437E-004	1.68088E-001	9.27420E-001	3.57950E+000	9	...........
	74	1	9.28517E-001	2.81200E-004	0.00000E+000	2.61099E-004	1.68088E-001	9.28833E-001	3.57950E+000	9	...........
	75	1.01333	9.29873E-001	2.80867E-004	0.00000E+000	2.61170E-004	1.68088E-001	9.30203E-001	3.57950E+000	9	...........
	76	1.02667	9.31234E-001	2.81238E-004	0.00000E+000	2.61898E-004	1.68088E-001	9.31552E-001	3.57950E+000	9	...........
	77	1.04	9.32602E-001	2.81456E-004	0.00000E+000	2.62486E-004	1.68088E-001	9.32930E-001	3.57950E+000	9	...........
	78	1.05333	9.33958E-001	2.80931E-004	0.00000E+000	2.62378E-004	1.68088E-001	9.34284E-001	3.57950E+000	9	...........
	79	1.06667	9.35273E-001	2.81139E-004	0.00000E+000	2.62942E-004	1.68088E-001	9.35595E-001	3.57950E+000	9	...........
	80	1.08	9.36561E-001	2.81217E-004	0.00000E+000	2.63377E-004	1.68088E-001	9.36885E-001	3.57950E+000	9	...........
	81	1.09333	9.37863E-001	2.80880E-004	0.00000E+000	2.63427E-004	1.68088E-001	9.38235E-001	3.57950E+000	9	...........
	82	1.10667	9.39156E-001	2.81835E-004	0.00000E+000	2.64687E-004	1.68088E-001	9.39500E-001	3.57950E+000	9	...........
	83	1.12	9.40462E-001	2.81343E-004	0.00000E+000	2.64592E-004	1.68088E-001	9.40793E-001	3.57950E+000	9	...........
	84	1.13333	9.41713E-001	2.81215E-004	0.00000E+000	2.64824E-004	1.68088E-001	9.42068E-001	3.57950E+000	9	...........
	85	1.14667	9.42905E-001	2.81519E-004	0.00000E+000	2.65446E-004	1.68088E-001	9.43263E-001	3.57950E+000	9	...........
	86	1.16	9.44154E-001	2.81218E-004	0.00000E+000	2.65513E-004	1.68088E-001	9.44494E-001	3.57950E+000	9	...........
	87	1.17333	9.45342E-001	2.81543E-004	0.00000E+000	2.66154E-004	1.68088E-001	9.45708E-001	3.57950E+000	9	...........
	88	1.18667	9.46600E-001	2.81133E-004	0.00000E+000	2.66120E-004	1.68088E-001	9.46936E-001	3.57950E+000	9	...........
	89	1.2	9.47818E-001	2.81417E-004	0.00000E+000	2.66732E-004	1.68088E-001	9.48161E-001	3.57950E+000	9	...........
	90	1.21333	9.49000E-001	2.81069E-004	0.00000E+000	2.66734E-004	1.68088E-001	9.49353E-001	3.57950E+000	9	...........
	91	1.22667	9.50208E-001	2.80952E-004	0.00000E+000	2.66963E-004	1.68088E-001	9.50589E-001	3.57950E+000	9	...........
	92	1.24	9.51403E-001	2.81408E-004	0.00000E+000	2.67732E-004	1.68088E-001	9.51780E-001	3.57950E+000	9	...........
	93	1.25333	9.52570E-001	2.80612E-004	0.00000E+000	2.67302E-004	1.68088E-001	9.52940E-001	3.57950E+000	9	...........
	94	1.26667	9.53709E-001	2.80798E-004	0.00000E+000	2.67800E-004	1.68088E-001	9.54075E-001	3.57950E+000	9	...........
	95	1.28	9.54816E-001	2.80203E-004	0.00000E+000	2.67542E-004	1.68088E-001	9.55190E-001	3.57950E+000	9	...........
	96	1.29333	9.55951E-001	2.80718E-004	0.00000E+000	2.68353E-004	1.68088E-001	9.56299E-001	3.57950E+000	9	...........
	97	1.30667	9.57049E-001	2.81388E-004	0.00000E+000	2.69302E-004	1.68088E-001	9.57395E-001	3.57950E+000	9	...........
	98	1.32	9.58121E-001	2.80915E-004	0.00000E+000	2.69150E-004	1.68088E-001	9.58488E-001	3.57950E+000	9	...........
	99	1.33333	9.59215E-001	2.81820E-004	0.00000E+000	2.70326E-004	1.68088E-001	9.59580E-001	3.57950E+000	9	...........
	100	1.34667	9.60294E-001	2.80466E-004	0.00000E+000	2.69329E-004	1.68088E-001	9.60646E-001	3.57950E+000	9	...........
	101	1.36	9.61393E-001	2.80566E-004	0.00000E+000	2.69734E-004	1.68088E-001	9.61753E-001	3.57950E+000	9	...........
	102	1.37333	9.62478E-001	2.81643E-004	0.00000E+000	2.71075E-004	1.68088E-001	9.62848E-001	3.57950E+000	9	...........
	103	1.38667	9.63551E-001	2.81522E-004	0.00000E+000	2.71261E-004	1.68088E-001	9.63921E-001	3.57950E+000	9	...........
	104	1.4	9.64587E-001	2.81545E-004	0.00000E+000	2.71575E-004	1.68088E-001	9.64968E-001	3.57950E+000	9	...........
	105	1.41333	9.65647E-001	2.81085E-004	0.00000E+000	2.71429E-004	1.68088E-001	9.66005E-001	3.57950E+000	9	...........
	106	1.42667	9.66744E-001	2.81583E-004	0.00000E+000	2.72218E-004	1.68088E-001	9.67098E-001	3.57950E+000	9	...........
	107	1.44	9.67788E-001	2.81635E-004	0.00000E+000	2.72563E-004	1.68088E-001	9.68153E-001	3.57950E+000	9	...........
	108	1.45333	9.68802E-001	2.81114E-004	0.00000E+000	2.72344E-004	1.68088E-001	9.69195E-001	3.57950E+000	9	...........
	109	1.46667	9.69811E-001	2.81114E-004	0.00000E+000	2.72627E-004	1.68088E-001	9.70216E-001	3.57950E+000	9	...........
	110	1.48	9.70810E-001	2.81787E-004	0.00000E+000	2.73562E-004	1.68088E-001	9.71213E-001	3.57950E+000	9	...........
	111	1.49333	9.71822E-001	2.81229E-004	0.00000E+000	2.73305E-004	1.68088E-001	9.72225E-001	3.57950E+000	9	...........
	112	1.50667	9.72885E-001	2.80746E-004	0.00000E+000	2.73133E-004	1.68088E-001	9.73225E-001	3.57950E+000	9	...........
	113	1.52	9.73898E-001	2.80847E-004	0.00000E+000	2.73516E-004	1.68088E-001	9.74234E-001	3.57950E+000	9	...........
	114	1.53333	9.74869E-001	2.81574E-004	0.00000E+000	2.74498E-004	1.68088E-001	9.75215E-001	3.57950E+000	9	...........
	115	1.54667	9.75848E-001	2.80927E-004	0.00000E+000	2.74142E-004	1.68088E-001	9.76190E-001	3.57950E+000	9	...........
	116	1.56	9.76761E-001	2.81090E-004	0.00000E+000	2.74558E-004	1.68088E-001	9.77131E-001	3.57950E+000	9	...........
	117	1.57333	9.77709E-001	2.81364E-004	0.00000E+000	2.75092E-004	1.68088E-001	9.78073E-001	3.57950E+000	9	...........
	118	1.58667	9.78633E-001	2.81379E-004	0.00000E+000	2.75367E-004	1.68088E-001	9.79036E-001	3.57950E+000	9	...........
	119	1.6	9.79593E-001	2.81062E-004	0.00000E+000	2.75326E-004	1.68088E-001	9.79958E-001	3.57950E+000	9	...........
	120	1.61333	9.80509E-001	2.80407E-004	0.00000E+000	2.74942E-004	1.68088E-001	9.80875E-001	3.57950E+000	9	...........
	121	1.62667	9.81383E-001	2.80688E-004	0.00000E+000	2.75462E-004	1.68088E-001	9.81763E-001	3.57950E+000	9	...........
	122	1.64	9.82340E-001	2.80676E-004	0.00000E+000	2.75719E-004	1.68088E-001	9.82705E-001	3.57950E+000	9	...........
	123	1.65333	9.83244E-001	2.81751E-004	0.00000E+000	2.77030E-004	1.68088E-001	9.83615E-001	3.57950E+000	9	...........
	124	1.66667	9.84140E-001	2.81110E-004	0.00000E+000	2.76651E-004	1.68088E-001	9.84560E-001	3.57950E+000	9	...........
	125	1.68	9.85088E-001	2.81550E-004	0.00000E+000	2.77352E-004	1.68088E-001	9.85476E-001	3.57950E+000	9	...........
	126	1.69333	9.85960E-001	2.80655E-004	0.00000E+000	2.76715E-004	1.68088E-001	9.86332E-001	3.57950E+000	9	...........
	127	1.70667	9.86826E-001	2.81537E-004	0.00000E+000	2.77828E-004	1.68088E-001	9.87206E-001	3.57950E+000	9	...........
	128	1.72	9.87699E-001	2.81784E-004	0.00000E+000	2.78317E-004	1.68088E-001	9.88086E-001	3.57950E+000	9	...........
	129	1.73333	9.88606E-001	2.81648E-004	0.00000E+000	2.78439E-004	1.68088E-001	9.88977E-001	3.57950E+000	9	...........
	130	1.74667	9.89442E-001	2.80363E-004	0.00000E+000	2.77403E-004	1.68088E-001	9.89812E-001	3.57950E+000	9	...........
	131	1.76	9.90272E-001	2.81789E-004	0.00000E+000	2.79048E-004	1.68088E-001	9.90656E-001	3.57950E+000	9	...........
	132	1.77333	9.91121E-001	2.81059E-004	0.00000E+000	2.78563E-004	1.68088E-001	9.91500E-001	3.57950E+000	9	...........
	133	1.78667	9.91978E-001	2.81394E-004	0.00000E+000	2.79137E-004	1.68088E-001	9.92379E-001	3.57950E+000	9	...........
	134	1.8	9.92802E-001	2.81476E-004	0.00000E+000	2.79450E-004	1.68088E-001	9.93220E-001	3.57950E+000	9	...........
	135	1.81333	9.93607E-001	2.81577E-004	0.00000E+000	2.79777E-004	1.68088E-001	9.94012E-001	3.57950E+000	9	...........
	136	1.82667	9.94444E-001	2.80854E-004	0.00000E+000	2.79294E-004	1.68088E-001	9.94830E-001	3.57950E+000	9	...........
	137	1.84	9.95261E-001	2.80395E-004	0.00000E+000	2.79066E-004	1.68088E-001	9.95625E-001	3.57950E+000	9	...........
	138	1.85333	9.96035E-001	2.81342E-004	0.00000E+000	2.80226E-004	1.68088E-001	9.96407E-001	3.57901E+000	9	...........
	139	1.86667	9.96837E-001	2.81039E-004	0.00000E+000	2.80150E-004	1.68088E-001	9.97231E-001	3.57820E+000	9	...........
	140	1.88	9.97605E-001	2.81286E-004	0.00000E+000	2.80612E-004	1.68088E-001	9.98025E-001	3.57820E+000	9	...........
	141	1.89333	9.98400E-001	2.81212E-004	0.00000E+000	2.80762E-004	1.68088E-001	9.98779E-001	3.57820E+000	9	...........
	142	1.90667	9.99187E-001	2.81568E-004	0.00000E+000	2.81339E-004	1.68088E-001	9.99589E-001	3.57820E+000	9	...........
	143	1.91667	9.99866E-001	2.80918E-004	0.00000E+000	2.80880E-004	1.68088E-001	1.00028E+000	3.57820E+000	9	...........
STARTTIMEOFFSET	QUANT	300.8351	Start Time Offset (s)
