EXPLAIN
TAG	PWR800_CHARGE
TITLE	LABEL	PWR Cyclic Charge Discharge (Cell) - Charge Step	Test &Identifier
DATE	LABEL	7-7-2017	Date
TIME	LABEL	15:51:39	Time
NOTES	NOTES	3	&Notes...
	supercap test cell
	2.8mg
	6M KOH
PSTAT	PSTAT	IFC5000-01520	Potentiostat
CAPACITY	QUANT	1.00000E-003	Capacity (A-hr)
CELLTYPE	SELECTOR	1	&Cell Type
WORKINGCONNECTION	SELECTOR	0	&Working Lead
MAXCHARGETIME	VARIABLEANDUNITS	1.00000E+002	s	1.00000E+002	second(s)	Max &Charge Time
CHARGECURRENT	QUANT	2.80000E-004	&Charge Current (A) 
VOLTAGEFINISH	TWOPARAM	F	1.00000E-003	3.60000E+003	&Voltage Finish	 I (A) < 	Max Time(s)
SAMPLETIME	QUANT	1.00000E-002	Sa&mple Period (s)
CHARGESTOPAT1	MULTIPARAM	4	1.00000E+000	Charge Stop At &1	Voltage > Limit	V
CHARGESTOPAT2	MULTIPARAM	0	0.00000E+000	Charge Stop At &2	None	N/A
AESBHCSELECTOR	TOGGLE	F	Save Both Half Cells
IRCOMP	TOGGLE	F	IR &Measure
EOC	QUANT	0	Open Circuit (V)
SEQUENCER	TOGGLE	TRUE	Run as Sequence
PSTATMODEL	IQUANT	53	Pstat Model
PSTATSECTION	LABEL	IFC5000-01520	Pstat Section
PSTATSERIALNO	LABEL	01520	Pstat Serial Number
CTRLMODE	IQUANT	0	Control Mode
ELECTROMETER	IQUANT	1	RE=0 or CS=1
IESTAB	IQUANT	0	I/E Stability
CASPEED	IQUANT	4	Control Amp Speed
CONVENTION	IQUANT	1	Current Convention
ICHRANGE	IQUANT	2	Ich Range
ICHRANGEMODE	TOGGLE	T	Ich Auto Range
ICHOFFSETENABLE	TOGGLE	F	Ich Offset Enable
ICHOFFSET	QUANT	0	Ich Offset (V)
ICHFILTER	IQUANT	1	Ich Filter
VCHRANGE	IQUANT	2	Vch Range
VCHRANGEMODE	TOGGLE	T	Vch Auto Range
VCHOFFSETENABLE	TOGGLE	F	Vch Offset Enable
VCHOFFSET	QUANT	0	Vch Offset (V)
VCHFILTER	IQUANT	1	Vch Filter
IERANGELOWERLIMIT	IQUANT	9	I/E Range Lower Limit
IERANGEMODE	TOGGLE	F	I/E AutoRange
IERANGE	IQUANT	9	I/E Range
ACHSELECT	IQUANT	1	Ach Select
ACHRANGE	IQUANT	2	Ach Range
ACHOFFSETENABLE	TOGGLE	F	Ach Offset Enable
ACHOFFSET	QUANT	0	Ach Offset (V)
ACHFILTER	IQUANT	1	Ach Filter
CABLEID	IQUANT	14	Cable ID
DCCALDATE	LABEL	5-7-2017	DC Calibration Date
ACCALDATE	LABEL	12/3/2015	AC Calibration Date
FRAMEWORKVERSION	QUANT	7.01	Framework Version
INSTRUMENTVERSION	LABEL	4.00	Instrument Version
CURVE	TABLE	100
	Pt	T	Vf	Im	Vu	Pwr	Sig	Ach	Temp	IERange	Over
	#	s	V	A	V	W	V	V	deg C	#	bits
	0	0.013333	5.85964E-001	2.80632E-004	0.00000E+000	1.64441E-004	1.68088E-001	5.86275E-001	3.57930E+000	9	...........
	1	0.026667	6.15029E-001	2.81670E-004	0.00000E+000	1.73235E-004	1.68088E-001	6.15326E-001	3.57930E+000	9	...........
	2	0.04	6.39614E-001	2.81038E-004	0.00000E+000	1.79756E-004	1.68088E-001	6.39897E-001	3.57930E+000	9	...........
	3	0.053333	6.60923E-001	2.81160E-004	0.00000E+000	1.85825E-004	1.68088E-001	6.61207E-001	3.57930E+000	9	...........
	4	0.066667	6.79739E-001	2.80422E-004	0.00000E+000	1.90614E-004	1.68088E-001	6.80013E-001	3.57930E+000	9	...........
	5	0.08	6.96553E-001	2.80857E-004	0.00000E+000	1.95632E-004	1.68088E-001	6.96834E-001	3.57930E+000	9	...........
	6	0.093333	7.11722E-001	2.80401E-004	0.00000E+000	1.99568E-004	1.68088E-001	7.12023E-001	3.57930E+000	9	...........
	7	0.106667	7.25578E-001	2.81299E-004	0.00000E+000	2.04105E-004	1.68088E-001	7.25825E-001	3.57930E+000	9	...........
	8	0.12	7.38202E-001	2.80473E-004	0.00000E+000	2.07046E-004	1.68088E-001	7.38493E-001	3.57930E+000	9	...........
	9	0.133333	7.49846E-001	2.81753E-004	0.00000E+000	2.11272E-004	1.68088E-001	7.50125E-001	3.57930E+000	9	...........
	10	0.146667	7.60590E-001	2.80524E-004	0.00000E+000	2.13364E-004	1.68088E-001	7.60867E-001	3.57930E+000	9	...........
	11	0.16	7.70584E-001	2.80456E-004	0.00000E+000	2.16115E-004	1.68088E-001	7.70856E-001	3.57930E+000	9	...........
	12	0.173333	7.79846E-001	2.80867E-004	0.00000E+000	2.19033E-004	1.68088E-001	7.80150E-001	3.57930E+000	9	...........
	13	0.186667	7.88474E-001	2.80900E-004	0.00000E+000	2.21483E-004	1.68088E-001	7.88781E-001	3.57930E+000	9	...........
	14	0.2	7.96637E-001	2.81188E-004	0.00000E+000	2.24005E-004	1.68088E-001	7.96907E-001	3.57930E+000	9	...........
	15	0.213333	8.04246E-001	2.80370E-004	0.00000E+000	2.25486E-004	1.68088E-001	8.04517E-001	3.57930E+000	9	...........
	16	0.226667	8.11393E-001	2.80414E-004	0.00000E+000	2.27526E-004	1.68088E-001	8.11686E-001	3.57930E+000	9	...........
	17	0.24	8.18134E-001	2.82553E-004	0.00000E+000	2.31166E-004	1.68088E-001	8.18437E-001	3.57930E+000	9	...........
	18	0.253333	8.24539E-001	2.80785E-004	0.00000E+000	2.31518E-004	1.68088E-001	8.24836E-001	3.57930E+000	9	...........
	19	0.266667	8.30553E-001	2.81384E-004	0.00000E+000	2.33704E-004	1.68088E-001	8.30838E-001	3.57930E+000	9	...........
	20	0.28	8.36236E-001	2.81265E-004	0.00000E+000	2.35204E-004	1.68088E-001	8.36550E-001	3.57930E+000	9	...........
	21	0.293333	8.41644E-001	2.80416E-004	0.00000E+000	2.36010E-004	1.68088E-001	8.41949E-001	3.57930E+000	9	...........
	22	0.306667	8.46809E-001	2.80768E-004	0.00000E+000	2.37757E-004	1.68088E-001	8.47085E-001	3.57930E+000	9	...........
	23	0.32	8.51674E-001	2.80956E-004	0.00000E+000	2.39283E-004	1.68088E-001	8.51989E-001	3.57930E+000	9	...........
	24	0.333333	8.56338E-001	2.81322E-004	0.00000E+000	2.40907E-004	1.68088E-001	8.56651E-001	3.57921E+000	9	...........
	25	0.346667	8.60803E-001	2.81415E-004	0.00000E+000	2.42243E-004	1.68088E-001	8.61122E-001	3.57860E+000	9	...........
	26	0.36	8.65026E-001	2.81795E-004	0.00000E+000	2.43760E-004	1.68088E-001	8.65358E-001	3.57860E+000	9	...........
	27	0.373333	8.69079E-001	2.81806E-004	0.00000E+000	2.44911E-004	1.68088E-001	8.69431E-001	3.57860E+000	9	...........
	28	0.386667	8.73003E-001	2.80145E-004	0.00000E+000	2.44567E-004	1.68088E-001	8.73346E-001	3.57860E+000	9	...........
	29	0.4	8.76763E-001	2.82893E-004	0.00000E+000	2.48030E-004	1.68088E-001	8.77128E-001	3.57860E+000	9	...........
	30	0.413333	8.80384E-001	2.80661E-004	0.00000E+000	2.47089E-004	1.68088E-001	8.80741E-001	3.57860E+000	9	...........
	31	0.426667	8.83876E-001	2.80904E-004	0.00000E+000	2.48285E-004	1.68088E-001	8.84217E-001	3.57860E+000	9	...........
	32	0.44	8.87197E-001	2.80498E-004	0.00000E+000	2.48857E-004	1.68088E-001	8.87533E-001	3.57860E+000	9	...........
	33	0.453333	8.90412E-001	2.81490E-004	0.00000E+000	2.50642E-004	1.68088E-001	8.90742E-001	3.57860E+000	9	...........
	34	0.466667	8.93535E-001	2.80526E-004	0.00000E+000	2.50660E-004	1.68088E-001	8.93858E-001	3.57860E+000	9	...........
	35	0.48	8.96551E-001	2.80896E-004	0.00000E+000	2.51838E-004	1.68088E-001	8.96875E-001	3.57860E+000	9	...........
	36	0.493333	8.99434E-001	2.80456E-004	0.00000E+000	2.52252E-004	1.68088E-001	8.99774E-001	3.57860E+000	9	...........
	37	0.506667	9.02242E-001	2.81713E-004	0.00000E+000	2.54173E-004	1.68088E-001	9.02582E-001	3.57860E+000	9	...........
	38	0.52	9.04968E-001	2.81590E-004	0.00000E+000	2.54830E-004	1.68088E-001	9.05347E-001	3.57860E+000	9	...........
	39	0.533333	9.07644E-001	2.81774E-004	0.00000E+000	2.55751E-004	1.68088E-001	9.08004E-001	3.57860E+000	9	...........
	40	0.546667	9.10225E-001	2.80687E-004	0.00000E+000	2.55488E-004	1.68088E-001	9.10570E-001	3.57860E+000	9	...........
	41	0.56	9.12721E-001	2.81007E-004	0.00000E+000	2.56482E-004	1.68088E-001	9.13065E-001	3.57860E+000	9	...........
	42	0.573333	9.15132E-001	2.81566E-004	0.00000E+000	2.57670E-004	1.68088E-001	9.15512E-001	3.57860E+000	9	...........
	43	0.586667	9.17483E-001	2.81550E-004	0.00000E+000	2.58318E-004	1.68088E-001	9.17845E-001	3.57860E+000	9	...........
	44	0.6	9.19784E-001	2.81531E-004	0.00000E+000	2.58947E-004	1.68088E-001	9.20129E-001	3.57860E+000	9	...........
	45	0.613333	9.22068E-001	2.81013E-004	0.00000E+000	2.59113E-004	1.68088E-001	9.22342E-001	3.57860E+000	9	...........
	46	0.626667	9.24244E-001	2.80009E-004	0.00000E+000	2.58797E-004	1.68088E-001	9.24530E-001	3.57860E+000	9	...........
	47	0.64	9.26368E-001	2.81195E-004	0.00000E+000	2.60490E-004	1.68088E-001	9.26683E-001	3.57860E+000	9	...........
	48	0.653333	9.28471E-001	2.81014E-004	0.00000E+000	2.60913E-004	1.68088E-001	9.28787E-001	3.57860E+000	9	...........
	49	0.666667	9.30499E-001	2.81465E-004	0.00000E+000	2.61903E-004	1.68088E-001	9.30813E-001	3.57860E+000	9	...........
	50	0.68	9.32500E-001	2.81205E-004	0.00000E+000	2.62224E-004	1.68088E-001	9.32814E-001	3.57860E+000	9	...........
	51	0.693333	9.34456E-001	2.81259E-004	0.00000E+000	2.62824E-004	1.68088E-001	9.34780E-001	3.57860E+000	9	...........
	52	0.706667	9.36404E-001	2.81339E-004	0.00000E+000	2.63447E-004	1.68088E-001	9.36713E-001	3.57860E+000	9	...........
	53	0.72	9.38291E-001	2.81100E-004	0.00000E+000	2.63754E-004	1.68088E-001	9.38634E-001	3.57860E+000	9	...........
	54	0.733333	9.40149E-001	2.81467E-004	0.00000E+000	2.64621E-004	1.68088E-001	9.40471E-001	3.57860E+000	9	...........
	55	0.746667	9.41946E-001	2.81080E-004	0.00000E+000	2.64763E-004	1.68088E-001	9.42279E-001	3.57860E+000	9	...........
	56	0.76	9.43711E-001	2.81218E-004	0.00000E+000	2.65389E-004	1.68088E-001	9.44068E-001	3.57860E+000	9	...........
	57	0.773333	9.45447E-001	2.80381E-004	0.00000E+000	2.65086E-004	1.68088E-001	9.45829E-001	3.57860E+000	9	...........
	58	0.786667	9.47204E-001	2.81721E-004	0.00000E+000	2.66847E-004	1.68088E-001	9.47546E-001	3.57860E+000	9	...........
	59	0.8	9.48907E-001	2.81843E-004	0.00000E+000	2.67443E-004	1.68088E-001	9.49256E-001	3.57860E+000	9	...........
	60	0.813333	9.50589E-001	2.80518E-004	0.00000E+000	2.66657E-004	1.68088E-001	9.50928E-001	3.57860E+000	9	...........
	61	0.826667	9.52183E-001	2.81737E-004	0.00000E+000	2.68265E-004	1.68088E-001	9.52545E-001	3.57860E+000	9	...........
	62	0.84	9.53803E-001	2.80883E-004	0.00000E+000	2.67907E-004	1.68088E-001	9.54133E-001	3.57860E+000	9	...........
	63	0.853333	9.55346E-001	2.80554E-004	0.00000E+000	2.68026E-004	1.68088E-001	9.55661E-001	3.57860E+000	9	...........
	64	0.866667	9.56853E-001	2.81095E-004	0.00000E+000	2.68966E-004	1.68088E-001	9.57174E-001	3.57860E+000	9	...........
	65	0.88	9.58328E-001	2.82427E-004	0.00000E+000	2.70657E-004	1.68088E-001	9.58675E-001	3.57860E+000	9	...........
	66	0.893333	9.59784E-001	2.81594E-004	0.00000E+000	2.70269E-004	1.68088E-001	9.60145E-001	3.57860E+000	9	...........
	67	0.906667	9.61235E-001	2.81073E-004	0.00000E+000	2.70177E-004	1.68088E-001	9.61600E-001	3.57860E+000	9	...........
	68	0.92	9.62690E-001	2.80515E-004	0.00000E+000	2.70049E-004	1.68088E-001	9.63066E-001	3.57860E+000	9	...........
	69	0.933333	9.64124E-001	2.80782E-004	0.00000E+000	2.70709E-004	1.68088E-001	9.64519E-001	3.57860E+000	9	...........
	70	0.946667	9.65551E-001	2.81520E-004	0.00000E+000	2.71822E-004	1.68088E-001	9.65928E-001	3.57860E+000	9	...........
	71	0.96	9.66944E-001	2.81707E-004	0.00000E+000	2.72394E-004	1.68088E-001	9.67316E-001	3.57860E+000	9	...........
	72	0.97333	9.68291E-001	2.81057E-004	0.00000E+000	2.72145E-004	1.68088E-001	9.68693E-001	3.57860E+000	9	...........
	73	0.98667	9.69595E-001	2.80973E-004	0.00000E+000	2.72430E-004	1.68088E-001	9.70040E-001	3.57860E+000	9	...........
	74	1	9.70947E-001	2.81517E-004	0.00000E+000	2.73338E-004	1.68088E-001	9.71369E-001	3.57860E+000	9	...........
	75	1.01333	9.72301E-001	2.81524E-004	0.00000E+000	2.73726E-004	1.68088E-001	9.72709E-001	3.57860E+000	9	...........
	76	1.02667	9.73633E-001	2.81290E-004	0.00000E+000	2.73873E-004	1.68088E-001	9.73995E-001	3.57860E+000	9	...........
	77	1.04	9.74927E-001	2.80975E-004	0.00000E+000	2.73930E-004	1.68088E-001	9.75321E-001	3.57860E+000	9	...........
	78	1.05333	9.76187E-001	2.80348E-004	0.00000E+000	2.73672E-004	1.68088E-001	9.76566E-001	3.57860E+000	9	...........
	79	1.06667	9.77436E-001	2.80797E-004	0.00000E+000	2.74461E-004	1.68088E-001	9.77831E-001	3.57860E+000	9	...........
	80	1.08	9.78653E-001	2.81259E-004	0.00000E+000	2.75255E-004	1.68088E-001	9.79029E-001	3.57860E+000	9	...........
	81	1.09333	9.79870E-001	2.81746E-004	0.00000E+000	2.76075E-004	1.68088E-001	9.80241E-001	3.57860E+000	9	...........
	82	1.10667	9.81068E-001	2.80428E-004	0.00000E+000	2.75119E-004	1.68088E-001	9.81423E-001	3.57860E+000	9	...........
	83	1.12	9.82242E-001	2.80950E-004	0.00000E+000	2.75961E-004	1.68088E-001	9.82600E-001	3.57860E+000	9	...........
	84	1.13333	9.83414E-001	2.81372E-004	0.00000E+000	2.76705E-004	1.68088E-001	9.83771E-001	3.57860E+000	9	...........
	85	1.14667	9.84567E-001	2.81088E-004	0.00000E+000	2.76750E-004	1.68088E-001	9.84941E-001	3.57860E+000	9	...........
	86	1.16	9.85730E-001	2.81860E-004	0.00000E+000	2.77837E-004	1.68088E-001	9.86092E-001	3.57860E+000	9	...........
	87	1.17333	9.86870E-001	2.81721E-004	0.00000E+000	2.78022E-004	1.68088E-001	9.87235E-001	3.57860E+000	9	...........
	88	1.18667	9.87995E-001	2.81257E-004	0.00000E+000	2.77880E-004	1.68088E-001	9.88355E-001	3.57860E+000	9	...........
	89	1.2	9.89120E-001	2.80317E-004	0.00000E+000	2.77267E-004	1.68088E-001	9.89480E-001	3.57860E+000	9	...........
	90	1.21333	9.90240E-001	2.81318E-004	0.00000E+000	2.78572E-004	1.68088E-001	9.90569E-001	3.57860E+000	9	...........
	91	1.22667	9.91335E-001	2.80342E-004	0.00000E+000	2.77913E-004	1.68088E-001	9.91687E-001	3.57860E+000	9	...........
	92	1.24	9.92392E-001	2.81612E-004	0.00000E+000	2.79469E-004	1.68088E-001	9.92750E-001	3.57860E+000	9	...........
	93	1.25333	9.93452E-001	2.81453E-004	0.00000E+000	2.79611E-004	1.68088E-001	9.93815E-001	3.57860E+000	9	...........
	94	1.26667	9.94476E-001	2.81696E-004	0.00000E+000	2.80140E-004	1.68088E-001	9.94872E-001	3.57860E+000	9	...........
	95	1.28	9.95568E-001	2.80363E-004	0.00000E+000	2.79120E-004	1.68088E-001	9.95950E-001	3.57860E+000	9	...........
	96	1.29333	9.96600E-001	2.81771E-004	0.00000E+000	2.80813E-004	1.68088E-001	9.97001E-001	3.57860E+000	9	...........
	97	1.30667	9.97668E-001	2.81357E-004	0.00000E+000	2.80700E-004	1.68088E-001	9.98060E-001	3.57860E+000	9	...........
	98	1.32	9.98721E-001	2.81190E-004	0.00000E+000	2.80830E-004	1.68088E-001	9.99119E-001	3.57860E+000	9	...........
	99	1.33167	9.99667E-001	2.81752E-004	0.00000E+000	2.81659E-004	1.68088E-001	1.00006E+000	3.57860E+000	9	...........
STARTTIMEOFFSET	QUANT	747.772	Start Time Offset (s)
