EXPLAIN
TAG	PWR800_CHARGE
TITLE	LABEL	PWR Cyclic Charge Discharge (Cell) - Charge Step	Test &Identifier
DATE	LABEL	7-7-2017	Date
TIME	LABEL	16:24:59	Time
NOTES	NOTES	3	&Notes...
	supercap test cell
	2.8mg
	6M KOH
PSTAT	PSTAT	IFC5000-01520	Potentiostat
CAPACITY	QUANT	1.00000E-003	Capacity (A-hr)
CELLTYPE	SELECTOR	1	&Cell Type
WORKINGCONNECTION	SELECTOR	0	&Working Lead
MAXCHARGETIME	VARIABLEANDUNITS	1.00000E+002	s	1.00000E+002	second(s)	Max &Charge Time
CHARGECURRENT	QUANT	2.80000E-004	&Charge Current (A) 
VOLTAGEFINISH	TWOPARAM	F	1.00000E-003	3.60000E+003	&Voltage Finish	 I (A) < 	Max Time(s)
SAMPLETIME	QUANT	1.00000E-002	Sa&mple Period (s)
CHARGESTOPAT1	MULTIPARAM	4	1.00000E+000	Charge Stop At &1	Voltage > Limit	V
CHARGESTOPAT2	MULTIPARAM	0	0.00000E+000	Charge Stop At &2	None	N/A
AESBHCSELECTOR	TOGGLE	F	Save Both Half Cells
IRCOMP	TOGGLE	F	IR &Measure
EOC	QUANT	0	Open Circuit (V)
SEQUENCER	TOGGLE	TRUE	Run as Sequence
PSTATMODEL	IQUANT	53	Pstat Model
PSTATSECTION	LABEL	IFC5000-01520	Pstat Section
PSTATSERIALNO	LABEL	01520	Pstat Serial Number
CTRLMODE	IQUANT	0	Control Mode
ELECTROMETER	IQUANT	1	RE=0 or CS=1
IESTAB	IQUANT	0	I/E Stability
CASPEED	IQUANT	4	Control Amp Speed
CONVENTION	IQUANT	1	Current Convention
ICHRANGE	IQUANT	2	Ich Range
ICHRANGEMODE	TOGGLE	T	Ich Auto Range
ICHOFFSETENABLE	TOGGLE	F	Ich Offset Enable
ICHOFFSET	QUANT	0	Ich Offset (V)
ICHFILTER	IQUANT	1	Ich Filter
VCHRANGE	IQUANT	2	Vch Range
VCHRANGEMODE	TOGGLE	T	Vch Auto Range
VCHOFFSETENABLE	TOGGLE	F	Vch Offset Enable
VCHOFFSET	QUANT	0	Vch Offset (V)
VCHFILTER	IQUANT	1	Vch Filter
IERANGELOWERLIMIT	IQUANT	9	I/E Range Lower Limit
IERANGEMODE	TOGGLE	F	I/E AutoRange
IERANGE	IQUANT	9	I/E Range
ACHSELECT	IQUANT	1	Ach Select
ACHRANGE	IQUANT	2	Ach Range
ACHOFFSETENABLE	TOGGLE	F	Ach Offset Enable
ACHOFFSET	QUANT	0	Ach Offset (V)
ACHFILTER	IQUANT	1	Ach Filter
CABLEID	IQUANT	14	Cable ID
DCCALDATE	LABEL	5-7-2017	DC Calibration Date
ACCALDATE	LABEL	12/3/2015	AC Calibration Date
FRAMEWORKVERSION	QUANT	7.01	Framework Version
INSTRUMENTVERSION	LABEL	4.00	Instrument Version
CURVE	TABLE	56
	Pt	T	Vf	Im	Vu	Pwr	Sig	Ach	Temp	IERange	Over
	#	s	V	A	V	W	V	V	deg C	#	bits
	0	0.013333	6.12905E-001	2.81992E-004	0.00000E+000	1.72834E-004	1.68088E-001	6.13163E-001	3.57740E+000	9	...........
	1	0.026667	6.43508E-001	2.81689E-004	0.00000E+000	1.81269E-004	1.68088E-001	6.43804E-001	3.57740E+000	9	...........
	2	0.04	6.69944E-001	2.81732E-004	0.00000E+000	1.88744E-004	1.68088E-001	6.70198E-001	3.57740E+000	9	...........
	3	0.053333	6.93194E-001	2.81501E-004	0.00000E+000	1.95135E-004	1.68088E-001	6.93493E-001	3.57740E+000	9	...........
	4	0.066667	7.14089E-001	2.82209E-004	0.00000E+000	2.01522E-004	1.68088E-001	7.14363E-001	3.57740E+000	9	...........
	5	0.08	7.32916E-001	2.81472E-004	0.00000E+000	2.06295E-004	1.68088E-001	7.33209E-001	3.57740E+000	9	...........
	6	0.093333	7.50132E-001	2.80584E-004	0.00000E+000	2.10476E-004	1.68088E-001	7.50405E-001	3.57740E+000	9	...........
	7	0.106667	7.65896E-001	2.82563E-004	0.00000E+000	2.16414E-004	1.68088E-001	7.66171E-001	3.57740E+000	9	...........
	8	0.12	7.80361E-001	2.81626E-004	0.00000E+000	2.19770E-004	1.68088E-001	7.80656E-001	3.57740E+000	9	...........
	9	0.133333	7.93745E-001	2.81663E-004	0.00000E+000	2.23568E-004	1.68088E-001	7.94020E-001	3.57740E+000	9	...........
	10	0.146667	8.06129E-001	2.83044E-004	0.00000E+000	2.28170E-004	1.68088E-001	8.06405E-001	3.57740E+000	9	...........
	11	0.16	8.17602E-001	2.81522E-004	0.00000E+000	2.30173E-004	1.68088E-001	8.17881E-001	3.57740E+000	9	...........
	12	0.173333	8.28293E-001	2.81812E-004	0.00000E+000	2.33423E-004	1.68088E-001	8.28573E-001	3.57740E+000	9	...........
	13	0.186667	8.38216E-001	2.80639E-004	0.00000E+000	2.35236E-004	1.68088E-001	8.38518E-001	3.57740E+000	9	...........
	14	0.2	8.47513E-001	2.80824E-004	0.00000E+000	2.38002E-004	1.68088E-001	8.47826E-001	3.57740E+000	9	...........
	15	0.213333	8.56195E-001	2.81358E-004	0.00000E+000	2.40897E-004	1.68088E-001	8.56496E-001	3.57740E+000	9	...........
	16	0.226667	8.64300E-001	2.81218E-004	0.00000E+000	2.43057E-004	1.68088E-001	8.64632E-001	3.57740E+000	9	...........
	17	0.24	8.71911E-001	2.81326E-004	0.00000E+000	2.45292E-004	1.68088E-001	8.72253E-001	3.57740E+000	9	...........
	18	0.253333	8.79051E-001	2.81027E-004	0.00000E+000	2.47037E-004	1.68088E-001	8.79367E-001	3.57740E+000	9	...........
	19	0.266667	8.85804E-001	2.81004E-004	0.00000E+000	2.48915E-004	1.68088E-001	8.86109E-001	3.57740E+000	9	...........
	20	0.28	8.92141E-001	2.81084E-004	0.00000E+000	2.50766E-004	1.68088E-001	8.92457E-001	3.57740E+000	9	...........
	21	0.293333	8.98115E-001	2.81757E-004	0.00000E+000	2.53050E-004	1.68088E-001	8.98459E-001	3.57740E+000	9	...........
	22	0.306667	9.03753E-001	2.80750E-004	0.00000E+000	2.53729E-004	1.68088E-001	9.04078E-001	3.57740E+000	9	...........
	23	0.32	9.09092E-001	2.81531E-004	0.00000E+000	2.55937E-004	1.68088E-001	9.09427E-001	3.57740E+000	9	...........
	24	0.333333	9.14126E-001	2.81513E-004	0.00000E+000	2.57338E-004	1.68088E-001	9.14474E-001	3.57740E+000	9	...........
	25	0.346667	9.18916E-001	2.81510E-004	0.00000E+000	2.58684E-004	1.68088E-001	9.19273E-001	3.57740E+000	9	...........
	26	0.36	9.23551E-001	2.80825E-004	0.00000E+000	2.59356E-004	1.68088E-001	9.23854E-001	3.57740E+000	9	...........
	27	0.373333	9.27868E-001	2.81227E-004	0.00000E+000	2.60942E-004	1.68088E-001	9.28194E-001	3.57740E+000	9	...........
	28	0.386667	9.31951E-001	2.79957E-004	0.00000E+000	2.60906E-004	1.68088E-001	9.32265E-001	3.57740E+000	9	...........
	29	0.4	9.35850E-001	2.81245E-004	0.00000E+000	2.63203E-004	1.68088E-001	9.36195E-001	3.57740E+000	9	...........
	30	0.413333	9.39564E-001	2.82029E-004	0.00000E+000	2.64984E-004	1.68088E-001	9.39916E-001	3.57778E+000	9	...........
	31	0.426667	9.43085E-001	2.81138E-004	0.00000E+000	2.65137E-004	1.68088E-001	9.43420E-001	3.57810E+000	9	...........
	32	0.44	9.46541E-001	2.81781E-004	0.00000E+000	2.66717E-004	1.68088E-001	9.46868E-001	3.57810E+000	9	...........
	33	0.453333	9.49835E-001	2.82025E-004	0.00000E+000	2.67878E-004	1.68088E-001	9.50133E-001	3.57810E+000	9	...........
	34	0.466667	9.52941E-001	2.80574E-004	0.00000E+000	2.67371E-004	1.68088E-001	9.53260E-001	3.57810E+000	9	...........
	35	0.48	9.55960E-001	2.81135E-004	0.00000E+000	2.68753E-004	1.68088E-001	9.56254E-001	3.57810E+000	9	...........
	36	0.493333	9.58862E-001	2.81725E-004	0.00000E+000	2.70136E-004	1.68088E-001	9.59179E-001	3.57810E+000	9	...........
	37	0.506667	9.61657E-001	2.81320E-004	0.00000E+000	2.70533E-004	1.68088E-001	9.61985E-001	3.57810E+000	9	...........
	38	0.52	9.64352E-001	2.80755E-004	0.00000E+000	2.70747E-004	1.68088E-001	9.64696E-001	3.57810E+000	9	...........
	39	0.533333	9.66956E-001	2.80955E-004	0.00000E+000	2.71672E-004	1.68088E-001	9.67296E-001	3.57810E+000	9	...........
	40	0.546667	9.69473E-001	2.80395E-004	0.00000E+000	2.71835E-004	1.68088E-001	9.69813E-001	3.57810E+000	9	...........
	41	0.56	9.71888E-001	2.81053E-004	0.00000E+000	2.73152E-004	1.68088E-001	9.72283E-001	3.57810E+000	9	...........
	42	0.573333	9.74260E-001	2.81015E-004	0.00000E+000	2.73782E-004	1.68088E-001	9.74606E-001	3.57810E+000	9	...........
	43	0.586667	9.76516E-001	2.79889E-004	0.00000E+000	2.73316E-004	1.68088E-001	9.76878E-001	3.57810E+000	9	...........
	44	0.6	9.78728E-001	2.81571E-004	0.00000E+000	2.75582E-004	1.68088E-001	9.79101E-001	3.57810E+000	9	...........
	45	0.613333	9.80864E-001	2.81597E-004	0.00000E+000	2.76209E-004	1.68088E-001	9.81215E-001	3.57810E+000	9	...........
	46	0.626667	9.82900E-001	2.81292E-004	0.00000E+000	2.76482E-004	1.68088E-001	9.83284E-001	3.57810E+000	9	...........
	47	0.64	9.84950E-001	2.81371E-004	0.00000E+000	2.77137E-004	1.68088E-001	9.85331E-001	3.57810E+000	9	...........
	48	0.653333	9.86946E-001	2.81995E-004	0.00000E+000	2.78314E-004	1.68088E-001	9.87329E-001	3.57810E+000	9	...........
	49	0.666667	9.88888E-001	2.82840E-004	0.00000E+000	2.79697E-004	1.68088E-001	9.89250E-001	3.57810E+000	9	...........
	50	0.68	9.90765E-001	2.82552E-004	0.00000E+000	2.79942E-004	1.68088E-001	9.91127E-001	3.57810E+000	9	...........
	51	0.693333	9.92590E-001	2.80992E-004	0.00000E+000	2.78910E-004	1.68088E-001	9.92937E-001	3.57810E+000	9	...........
	52	0.706667	9.94355E-001	2.80870E-004	0.00000E+000	2.79284E-004	1.68088E-001	9.94732E-001	3.57810E+000	9	...........
	53	0.72	9.96141E-001	2.80460E-004	0.00000E+000	2.79378E-004	1.68088E-001	9.96487E-001	3.57810E+000	9	...........
	54	0.733333	9.97873E-001	2.80262E-004	0.00000E+000	2.79665E-004	1.68088E-001	9.98232E-001	3.57810E+000	9	...........
	55	0.745	9.99453E-001	2.78915E-004	0.00000E+000	2.78762E-004	1.68088E-001	9.99805E-001	3.57810E+000	9	...........
STARTTIMEOFFSET	QUANT	2115.309	Start Time Offset (s)
