EXPLAIN
TAG	PWR800_CHARGE
TITLE	LABEL	PWR Cyclic Charge Discharge (Cell) - Charge Step	Test &Identifier
DATE	LABEL	7-7-2017	Date
TIME	LABEL	15:52:26	Time
NOTES	NOTES	3	&Notes...
	supercap test cell
	2.8mg
	6M KOH
PSTAT	PSTAT	IFC5000-01520	Potentiostat
CAPACITY	QUANT	1.00000E-003	Capacity (A-hr)
CELLTYPE	SELECTOR	1	&Cell Type
WORKINGCONNECTION	SELECTOR	0	&Working Lead
MAXCHARGETIME	VARIABLEANDUNITS	1.00000E+002	s	1.00000E+002	second(s)	Max &Charge Time
CHARGECURRENT	QUANT	2.80000E-004	&Charge Current (A) 
VOLTAGEFINISH	TWOPARAM	F	1.00000E-003	3.60000E+003	&Voltage Finish	 I (A) < 	Max Time(s)
SAMPLETIME	QUANT	1.00000E-002	Sa&mple Period (s)
CHARGESTOPAT1	MULTIPARAM	4	1.00000E+000	Charge Stop At &1	Voltage > Limit	V
CHARGESTOPAT2	MULTIPARAM	0	0.00000E+000	Charge Stop At &2	None	N/A
AESBHCSELECTOR	TOGGLE	F	Save Both Half Cells
IRCOMP	TOGGLE	F	IR &Measure
EOC	QUANT	0	Open Circuit (V)
SEQUENCER	TOGGLE	TRUE	Run as Sequence
PSTATMODEL	IQUANT	53	Pstat Model
PSTATSECTION	LABEL	IFC5000-01520	Pstat Section
PSTATSERIALNO	LABEL	01520	Pstat Serial Number
CTRLMODE	IQUANT	0	Control Mode
ELECTROMETER	IQUANT	1	RE=0 or CS=1
IESTAB	IQUANT	0	I/E Stability
CASPEED	IQUANT	4	Control Amp Speed
CONVENTION	IQUANT	1	Current Convention
ICHRANGE	IQUANT	2	Ich Range
ICHRANGEMODE	TOGGLE	T	Ich Auto Range
ICHOFFSETENABLE	TOGGLE	F	Ich Offset Enable
ICHOFFSET	QUANT	0	Ich Offset (V)
ICHFILTER	IQUANT	1	Ich Filter
VCHRANGE	IQUANT	2	Vch Range
VCHRANGEMODE	TOGGLE	T	Vch Auto Range
VCHOFFSETENABLE	TOGGLE	F	Vch Offset Enable
VCHOFFSET	QUANT	0	Vch Offset (V)
VCHFILTER	IQUANT	1	Vch Filter
IERANGELOWERLIMIT	IQUANT	9	I/E Range Lower Limit
IERANGEMODE	TOGGLE	F	I/E AutoRange
IERANGE	IQUANT	9	I/E Range
ACHSELECT	IQUANT	1	Ach Select
ACHRANGE	IQUANT	2	Ach Range
ACHOFFSETENABLE	TOGGLE	F	Ach Offset Enable
ACHOFFSET	QUANT	0	Ach Offset (V)
ACHFILTER	IQUANT	1	Ach Filter
CABLEID	IQUANT	14	Cable ID
DCCALDATE	LABEL	5-7-2017	DC Calibration Date
ACCALDATE	LABEL	12/3/2015	AC Calibration Date
FRAMEWORKVERSION	QUANT	7.01	Framework Version
INSTRUMENTVERSION	LABEL	4.00	Instrument Version
CURVE	TABLE	98
	Pt	T	Vf	Im	Vu	Pwr	Sig	Ach	Temp	IERange	Over
	#	s	V	A	V	W	V	V	deg C	#	bits
	0	0.013333	5.88661E-001	2.81873E-004	0.00000E+000	1.65928E-004	1.68088E-001	5.88883E-001	3.57790E+000	9	...........
	1	0.026667	6.17588E-001	2.80365E-004	0.00000E+000	1.73150E-004	1.68088E-001	6.17838E-001	3.57790E+000	9	...........
	2	0.04	6.42101E-001	2.81767E-004	0.00000E+000	1.80923E-004	1.68088E-001	6.42363E-001	3.57790E+000	9	...........
	3	0.053333	6.63382E-001	2.81687E-004	0.00000E+000	1.86866E-004	1.68088E-001	6.63663E-001	3.57790E+000	9	...........
	4	0.066667	6.82186E-001	2.81537E-004	0.00000E+000	1.92060E-004	1.68088E-001	6.82475E-001	3.57790E+000	9	...........
	5	0.08	6.99009E-001	2.80848E-004	0.00000E+000	1.96315E-004	1.68088E-001	6.99294E-001	3.57790E+000	9	...........
	6	0.093333	7.14170E-001	2.81239E-004	0.00000E+000	2.00852E-004	1.68088E-001	7.14480E-001	3.57790E+000	9	...........
	7	0.106667	7.28038E-001	2.81273E-004	0.00000E+000	2.04778E-004	1.68088E-001	7.28340E-001	3.57790E+000	9	...........
	8	0.12	7.40705E-001	2.80519E-004	0.00000E+000	2.07782E-004	1.68088E-001	7.41021E-001	3.57790E+000	9	...........
	9	0.133333	7.52365E-001	2.81803E-004	0.00000E+000	2.12019E-004	1.68088E-001	7.52672E-001	3.57790E+000	9	...........
	10	0.146667	7.63148E-001	2.80239E-004	0.00000E+000	2.13864E-004	1.68088E-001	7.63471E-001	3.57790E+000	9	...........
	11	0.16	7.73163E-001	2.80210E-004	0.00000E+000	2.16648E-004	1.68088E-001	7.73495E-001	3.57790E+000	9	...........
	12	0.173333	7.82481E-001	2.80654E-004	0.00000E+000	2.19607E-004	1.68088E-001	7.82776E-001	3.57790E+000	9	...........
	13	0.186667	7.91185E-001	2.81205E-004	0.00000E+000	2.22486E-004	1.68088E-001	7.91465E-001	3.57790E+000	9	...........
	14	0.2	7.99328E-001	2.81770E-004	0.00000E+000	2.25227E-004	1.68088E-001	7.99587E-001	3.57790E+000	9	...........
	15	0.213333	8.06941E-001	2.81158E-004	0.00000E+000	2.26878E-004	1.68088E-001	8.07230E-001	3.57790E+000	9	...........
	16	0.226667	8.14071E-001	2.81104E-004	0.00000E+000	2.28839E-004	1.68088E-001	8.14397E-001	3.57790E+000	9	...........
	17	0.24	8.20875E-001	2.81189E-004	0.00000E+000	2.30821E-004	1.68088E-001	8.21192E-001	3.57790E+000	9	...........
	18	0.253333	8.27248E-001	2.81801E-004	0.00000E+000	2.33120E-004	1.68088E-001	8.27577E-001	3.57790E+000	9	...........
	19	0.266667	8.33232E-001	2.81601E-004	0.00000E+000	2.34639E-004	1.68088E-001	8.33570E-001	3.57790E+000	9	...........
	20	0.28	8.38953E-001	2.81221E-004	0.00000E+000	2.35931E-004	1.68088E-001	8.39312E-001	3.57790E+000	9	...........
	21	0.293333	8.44411E-001	2.81030E-004	0.00000E+000	2.37305E-004	1.68088E-001	8.44776E-001	3.57790E+000	9	...........
	22	0.306667	8.49560E-001	2.81140E-004	0.00000E+000	2.38845E-004	1.68088E-001	8.49937E-001	3.57790E+000	9	...........
	23	0.32	8.54470E-001	2.81192E-004	0.00000E+000	2.40270E-004	1.68088E-001	8.54823E-001	3.57790E+000	9	...........
	24	0.333333	8.59143E-001	2.81187E-004	0.00000E+000	2.41580E-004	1.68088E-001	8.59519E-001	3.57790E+000	9	...........
	25	0.346667	8.63616E-001	2.82146E-004	0.00000E+000	2.43666E-004	1.68088E-001	8.63972E-001	3.57790E+000	9	...........
	26	0.36	8.67866E-001	2.81280E-004	0.00000E+000	2.44114E-004	1.68088E-001	8.68227E-001	3.57790E+000	9	...........
	27	0.373333	8.71964E-001	2.80800E-004	0.00000E+000	2.44848E-004	1.68088E-001	8.72333E-001	3.57790E+000	9	...........
	28	0.386667	8.75870E-001	2.80582E-004	0.00000E+000	2.45754E-004	1.68088E-001	8.76221E-001	3.57790E+000	9	...........
	29	0.4	8.79623E-001	2.81677E-004	0.00000E+000	2.47770E-004	1.68088E-001	8.79977E-001	3.57790E+000	9	...........
	30	0.413333	8.83208E-001	2.81466E-004	0.00000E+000	2.48593E-004	1.68088E-001	8.83583E-001	3.57790E+000	9	...........
	31	0.426667	8.86664E-001	2.80893E-004	0.00000E+000	2.49058E-004	1.68088E-001	8.87054E-001	3.57790E+000	9	...........
	32	0.44	8.90029E-001	2.80073E-004	0.00000E+000	2.49273E-004	1.68088E-001	8.90364E-001	3.57807E+000	9	...........
	33	0.453333	8.93207E-001	2.81354E-004	0.00000E+000	2.51308E-004	1.68088E-001	8.93568E-001	3.57860E+000	9	...........
	34	0.466667	8.96300E-001	2.81039E-004	0.00000E+000	2.51895E-004	1.68088E-001	8.96667E-001	3.57860E+000	9	...........
	35	0.48	8.99313E-001	2.80863E-004	0.00000E+000	2.52583E-004	1.68088E-001	8.99687E-001	3.57860E+000	9	...........
	36	0.493333	9.02237E-001	2.82112E-004	0.00000E+000	2.54532E-004	1.68088E-001	9.02622E-001	3.57860E+000	9	...........
	37	0.506667	9.05052E-001	2.81642E-004	0.00000E+000	2.54901E-004	1.68088E-001	9.05453E-001	3.57860E+000	9	...........
	38	0.52	9.07834E-001	2.81736E-004	0.00000E+000	2.55769E-004	1.68088E-001	9.08243E-001	3.57860E+000	9	...........
	39	0.533333	9.10510E-001	2.81270E-004	0.00000E+000	2.56099E-004	1.68088E-001	9.10878E-001	3.57860E+000	9	...........
	40	0.546667	9.13084E-001	2.80437E-004	0.00000E+000	2.56062E-004	1.68088E-001	9.13469E-001	3.57860E+000	9	...........
	41	0.56	9.15551E-001	2.80956E-004	0.00000E+000	2.57230E-004	1.68088E-001	9.15950E-001	3.57860E+000	9	...........
	42	0.573333	9.17991E-001	2.81708E-004	0.00000E+000	2.58605E-004	1.68088E-001	9.18378E-001	3.57860E+000	9	...........
	43	0.586667	9.20382E-001	2.80182E-004	0.00000E+000	2.57875E-004	1.68088E-001	9.20739E-001	3.57860E+000	9	...........
	44	0.6	9.22751E-001	2.81462E-004	0.00000E+000	2.59719E-004	1.68088E-001	9.23060E-001	3.57860E+000	9	...........
	45	0.613333	9.25012E-001	2.80914E-004	0.00000E+000	2.59849E-004	1.68088E-001	9.25330E-001	3.57860E+000	9	...........
	46	0.626667	9.27212E-001	2.80885E-004	0.00000E+000	2.60439E-004	1.68088E-001	9.27520E-001	3.57860E+000	9	...........
	47	0.64	9.29361E-001	2.80065E-004	0.00000E+000	2.60281E-004	1.68088E-001	9.29662E-001	3.57860E+000	9	...........
	48	0.653333	9.31471E-001	2.80997E-004	0.00000E+000	2.61741E-004	1.68088E-001	9.31769E-001	3.57860E+000	9	...........
	49	0.666667	9.33499E-001	2.80655E-004	0.00000E+000	2.61991E-004	1.68088E-001	9.33807E-001	3.57860E+000	9	...........
	50	0.68	9.35471E-001	2.81574E-004	0.00000E+000	2.63405E-004	1.68088E-001	9.35773E-001	3.57860E+000	9	...........
	51	0.693333	9.37403E-001	2.81363E-004	0.00000E+000	2.63750E-004	1.68088E-001	9.37754E-001	3.57860E+000	9	...........
	52	0.706667	9.39317E-001	2.81009E-004	0.00000E+000	2.63956E-004	1.68088E-001	9.39656E-001	3.57860E+000	9	...........
	53	0.72	9.41199E-001	2.81368E-004	0.00000E+000	2.64823E-004	1.68088E-001	9.41529E-001	3.57860E+000	9	...........
	54	0.733333	9.43033E-001	2.81424E-004	0.00000E+000	2.65392E-004	1.68088E-001	9.43366E-001	3.57860E+000	9	...........
	55	0.746667	9.44836E-001	2.81232E-004	0.00000E+000	2.65718E-004	1.68088E-001	9.45170E-001	3.57860E+000	9	...........
	56	0.76	9.46654E-001	2.81468E-004	0.00000E+000	2.66453E-004	1.68088E-001	9.46970E-001	3.57860E+000	9	...........
	57	0.773333	9.48373E-001	2.81203E-004	0.00000E+000	2.66686E-004	1.68088E-001	9.48688E-001	3.57860E+000	9	...........
	58	0.786667	9.50055E-001	2.81691E-004	0.00000E+000	2.67622E-004	1.68088E-001	9.50393E-001	3.57860E+000	9	...........
	59	0.8	9.51696E-001	2.80464E-004	0.00000E+000	2.66916E-004	1.68088E-001	9.52029E-001	3.57860E+000	9	...........
	60	0.813333	9.53319E-001	2.80637E-004	0.00000E+000	2.67536E-004	1.68088E-001	9.53655E-001	3.57860E+000	9	...........
	61	0.826667	9.54941E-001	2.81572E-004	0.00000E+000	2.68885E-004	1.68088E-001	9.55268E-001	3.57860E+000	9	...........
	62	0.84	9.56522E-001	2.81094E-004	0.00000E+000	2.68873E-004	1.68088E-001	9.56868E-001	3.57860E+000	9	...........
	63	0.853333	9.58074E-001	2.82055E-004	0.00000E+000	2.70229E-004	1.68088E-001	9.58401E-001	3.57860E+000	9	...........
	64	0.866667	9.59611E-001	2.82062E-004	0.00000E+000	2.70670E-004	1.68088E-001	9.59931E-001	3.57860E+000	9	...........
	65	0.88	9.61109E-001	2.80812E-004	0.00000E+000	2.69891E-004	1.68088E-001	9.61450E-001	3.57860E+000	9	...........
	66	0.893333	9.62577E-001	2.81140E-004	0.00000E+000	2.70619E-004	1.68088E-001	9.62913E-001	3.57860E+000	9	...........
	67	0.906667	9.63981E-001	2.81391E-004	0.00000E+000	2.71256E-004	1.68088E-001	9.64350E-001	3.57860E+000	9	...........
	68	0.92	9.65386E-001	2.81541E-004	0.00000E+000	2.71796E-004	1.68088E-001	9.65774E-001	3.57860E+000	9	...........
	69	0.933333	9.66814E-001	2.81239E-004	0.00000E+000	2.71906E-004	1.68088E-001	9.67174E-001	3.57860E+000	9	...........
	70	0.946667	9.68199E-001	2.80253E-004	0.00000E+000	2.71341E-004	1.68088E-001	9.68586E-001	3.57860E+000	9	...........
	71	0.96	9.69569E-001	2.80995E-004	0.00000E+000	2.72444E-004	1.68088E-001	9.69960E-001	3.57860E+000	9	...........
	72	0.97333	9.70925E-001	2.80359E-004	0.00000E+000	2.72208E-004	1.68088E-001	9.71340E-001	3.57860E+000	9	...........
	73	0.98667	9.72316E-001	2.81282E-004	0.00000E+000	2.73494E-004	1.68088E-001	9.72721E-001	3.57860E+000	9	...........
	74	1	9.73664E-001	2.81725E-004	0.00000E+000	2.74306E-004	1.68088E-001	9.74023E-001	3.57860E+000	9	...........
	75	1.01333	9.74929E-001	2.81180E-004	0.00000E+000	2.74131E-004	1.68088E-001	9.75295E-001	3.57860E+000	9	...........
	76	1.02667	9.76250E-001	2.80427E-004	0.00000E+000	2.73767E-004	1.68088E-001	9.76624E-001	3.57860E+000	9	...........
	77	1.04	9.77553E-001	2.81224E-004	0.00000E+000	2.74911E-004	1.68088E-001	9.77918E-001	3.57860E+000	9	...........
	78	1.05333	9.78809E-001	2.81332E-004	0.00000E+000	2.75370E-004	1.68088E-001	9.79161E-001	3.57860E+000	9	...........
	79	1.06667	9.80027E-001	2.81587E-004	0.00000E+000	2.75963E-004	1.68088E-001	9.80376E-001	3.57860E+000	9	...........
	80	1.08	9.81242E-001	2.80509E-004	0.00000E+000	2.75248E-004	1.68088E-001	9.81589E-001	3.57860E+000	9	...........
	81	1.09333	9.82470E-001	2.81906E-004	0.00000E+000	2.76964E-004	1.68088E-001	9.82826E-001	3.57860E+000	9	...........
	82	1.10667	9.83684E-001	2.81264E-004	0.00000E+000	2.76675E-004	1.68088E-001	9.84054E-001	3.57860E+000	9	...........
	83	1.12	9.84887E-001	2.81151E-004	0.00000E+000	2.76902E-004	1.68088E-001	9.85275E-001	3.57860E+000	9	...........
	84	1.13333	9.86108E-001	2.80904E-004	0.00000E+000	2.77002E-004	1.68088E-001	9.86490E-001	3.57860E+000	9	...........
	85	1.14667	9.87261E-001	2.80685E-004	0.00000E+000	2.77109E-004	1.68088E-001	9.87644E-001	3.57860E+000	9	...........
	86	1.16	9.88403E-001	2.81376E-004	0.00000E+000	2.78113E-004	1.68088E-001	9.88781E-001	3.57860E+000	9	...........
	87	1.17333	9.89536E-001	2.81833E-004	0.00000E+000	2.78884E-004	1.68088E-001	9.89879E-001	3.57860E+000	9	...........
	88	1.18667	9.90645E-001	2.81397E-004	0.00000E+000	2.78765E-004	1.68088E-001	9.90996E-001	3.57860E+000	9	...........
	89	1.2	9.91754E-001	2.81464E-004	0.00000E+000	2.79143E-004	1.68088E-001	9.92131E-001	3.57860E+000	9	...........
	90	1.21333	9.92868E-001	2.80449E-004	0.00000E+000	2.78449E-004	1.68088E-001	9.93235E-001	3.57860E+000	9	...........
	91	1.22667	9.93973E-001	2.81063E-004	0.00000E+000	2.79369E-004	1.68088E-001	9.94341E-001	3.57860E+000	9	...........
	92	1.24	9.95040E-001	2.81355E-004	0.00000E+000	2.79960E-004	1.68088E-001	9.95384E-001	3.57860E+000	9	...........
	93	1.25333	9.96096E-001	2.81039E-004	0.00000E+000	2.79942E-004	1.68088E-001	9.96449E-001	3.57860E+000	9	...........
	94	1.26667	9.97139E-001	2.81070E-004	0.00000E+000	2.80266E-004	1.68088E-001	9.97541E-001	3.57860E+000	9	...........
	95	1.28	9.98239E-001	2.82129E-004	0.00000E+000	2.81632E-004	1.68088E-001	9.98591E-001	3.57860E+000	9	...........
	96	1.29333	9.99263E-001	2.80842E-004	0.00000E+000	2.80635E-004	1.68088E-001	9.99641E-001	3.57860E+000	9	...........
	97	1.29833	9.99986E-001	2.81177E-004	0.00000E+000	2.81173E-004	1.68088E-001	1.00035E+000	3.57860E+000	9	...........
STARTTIMEOFFSET	QUANT	781.9551	Start Time Offset (s)
