EXPLAIN
TAG	PWR800_CHARGE
TITLE	LABEL	PWR Cyclic Charge Discharge (Cell) - Charge Step	Test &Identifier
DATE	LABEL	7-7-2017	Date
TIME	LABEL	15:42:46	Time
NOTES	NOTES	3	&Notes...
	supercap test cell
	2.8mg
	6M KOH
PSTAT	PSTAT	IFC5000-01520	Potentiostat
CAPACITY	QUANT	1.00000E-003	Capacity (A-hr)
CELLTYPE	SELECTOR	1	&Cell Type
WORKINGCONNECTION	SELECTOR	0	&Working Lead
MAXCHARGETIME	VARIABLEANDUNITS	1.00000E+002	s	1.00000E+002	second(s)	Max &Charge Time
CHARGECURRENT	QUANT	2.80000E-004	&Charge Current (A) 
VOLTAGEFINISH	TWOPARAM	F	1.00000E-003	3.60000E+003	&Voltage Finish	 I (A) < 	Max Time(s)
SAMPLETIME	QUANT	1.00000E-002	Sa&mple Period (s)
CHARGESTOPAT1	MULTIPARAM	4	1.00000E+000	Charge Stop At &1	Voltage > Limit	V
CHARGESTOPAT2	MULTIPARAM	0	0.00000E+000	Charge Stop At &2	None	N/A
AESBHCSELECTOR	TOGGLE	F	Save Both Half Cells
IRCOMP	TOGGLE	F	IR &Measure
EOC	QUANT	0	Open Circuit (V)
SEQUENCER	TOGGLE	TRUE	Run as Sequence
PSTATMODEL	IQUANT	53	Pstat Model
PSTATSECTION	LABEL	IFC5000-01520	Pstat Section
PSTATSERIALNO	LABEL	01520	Pstat Serial Number
CTRLMODE	IQUANT	0	Control Mode
ELECTROMETER	IQUANT	1	RE=0 or CS=1
IESTAB	IQUANT	0	I/E Stability
CASPEED	IQUANT	4	Control Amp Speed
CONVENTION	IQUANT	1	Current Convention
ICHRANGE	IQUANT	2	Ich Range
ICHRANGEMODE	TOGGLE	T	Ich Auto Range
ICHOFFSETENABLE	TOGGLE	F	Ich Offset Enable
ICHOFFSET	QUANT	0	Ich Offset (V)
ICHFILTER	IQUANT	1	Ich Filter
VCHRANGE	IQUANT	2	Vch Range
VCHRANGEMODE	TOGGLE	T	Vch Auto Range
VCHOFFSETENABLE	TOGGLE	F	Vch Offset Enable
VCHOFFSET	QUANT	0	Vch Offset (V)
VCHFILTER	IQUANT	1	Vch Filter
IERANGELOWERLIMIT	IQUANT	9	I/E Range Lower Limit
IERANGEMODE	TOGGLE	F	I/E AutoRange
IERANGE	IQUANT	9	I/E Range
ACHSELECT	IQUANT	1	Ach Select
ACHRANGE	IQUANT	2	Ach Range
ACHOFFSETENABLE	TOGGLE	F	Ach Offset Enable
ACHOFFSET	QUANT	0	Ach Offset (V)
ACHFILTER	IQUANT	1	Ach Filter
CABLEID	IQUANT	14	Cable ID
DCCALDATE	LABEL	5-7-2017	DC Calibration Date
ACCALDATE	LABEL	12/3/2015	AC Calibration Date
FRAMEWORKVERSION	QUANT	7.01	Framework Version
INSTRUMENTVERSION	LABEL	4.00	Instrument Version
CURVE	TABLE	139
	Pt	T	Vf	Im	Vu	Pwr	Sig	Ach	Temp	IERange	Over
	#	s	V	A	V	W	V	V	deg C	#	bits
	0	0.013333	5.71501E-001	2.79886E-004	0.00000E+000	1.59955E-004	1.68088E-001	5.71771E-001	3.57840E+000	9	...........
	1	0.026667	5.99323E-001	2.81069E-004	0.00000E+000	1.68451E-004	1.68088E-001	5.99602E-001	3.57840E+000	9	...........
	2	0.04	6.22581E-001	2.80316E-004	0.00000E+000	1.74519E-004	1.68088E-001	6.22861E-001	3.57840E+000	9	...........
	3	0.053333	6.42483E-001	2.80444E-004	0.00000E+000	1.80180E-004	1.68088E-001	6.42793E-001	3.57840E+000	9	...........
	4	0.066667	6.59947E-001	2.81007E-004	0.00000E+000	1.85450E-004	1.68088E-001	6.60235E-001	3.57840E+000	9	...........
	5	0.08	6.75447E-001	2.81371E-004	0.00000E+000	1.90051E-004	1.68088E-001	6.75720E-001	3.57840E+000	9	...........
	6	0.093333	6.89277E-001	2.80744E-004	0.00000E+000	1.93510E-004	1.68088E-001	6.89578E-001	3.57840E+000	9	...........
	7	0.106667	7.01808E-001	2.81236E-004	0.00000E+000	1.97374E-004	1.68088E-001	7.02114E-001	3.57840E+000	9	...........
	8	0.12	7.13225E-001	2.81513E-004	0.00000E+000	2.00782E-004	1.68088E-001	7.13534E-001	3.57840E+000	9	...........
	9	0.133333	7.23715E-001	2.81007E-004	0.00000E+000	2.03369E-004	1.68088E-001	7.24013E-001	3.57840E+000	9	...........
	10	0.146667	7.33375E-001	2.81355E-004	0.00000E+000	2.06339E-004	1.68088E-001	7.33681E-001	3.57840E+000	9	...........
	11	0.16	7.42327E-001	2.80862E-004	0.00000E+000	2.08491E-004	1.68088E-001	7.42625E-001	3.57840E+000	9	...........
	12	0.173333	7.50628E-001	2.81073E-004	0.00000E+000	2.10981E-004	1.68088E-001	7.50924E-001	3.57840E+000	9	...........
	13	0.186667	7.58393E-001	2.81070E-004	0.00000E+000	2.13162E-004	1.68088E-001	7.58671E-001	3.57840E+000	9	...........
	14	0.2	7.65609E-001	2.81035E-004	0.00000E+000	2.15163E-004	1.68088E-001	7.65909E-001	3.57840E+000	9	...........
	15	0.213333	7.72408E-001	2.80767E-004	0.00000E+000	2.16867E-004	1.68088E-001	7.72712E-001	3.57840E+000	9	...........
	16	0.226667	7.78829E-001	2.81531E-004	0.00000E+000	2.19264E-004	1.68088E-001	7.79180E-001	3.57840E+000	9	...........
	17	0.24	7.84925E-001	2.81104E-004	0.00000E+000	2.20646E-004	1.68088E-001	7.85250E-001	3.57840E+000	9	...........
	18	0.253333	7.90651E-001	2.81084E-004	0.00000E+000	2.22239E-004	1.68088E-001	7.90960E-001	3.57840E+000	9	...........
	19	0.266667	7.96137E-001	2.81165E-004	0.00000E+000	2.23846E-004	1.68088E-001	7.96403E-001	3.57840E+000	9	...........
	20	0.28	8.01293E-001	2.81303E-004	0.00000E+000	2.25406E-004	1.68088E-001	8.01577E-001	3.57840E+000	9	...........
	21	0.293333	8.06196E-001	2.80845E-004	0.00000E+000	2.26416E-004	1.68088E-001	8.06483E-001	3.57840E+000	9	...........
	22	0.306667	8.10854E-001	2.81496E-004	0.00000E+000	2.28252E-004	1.68088E-001	8.11163E-001	3.57840E+000	9	...........
	23	0.32	8.15349E-001	2.80932E-004	0.00000E+000	2.29058E-004	1.68088E-001	8.15672E-001	3.57840E+000	9	...........
	24	0.333333	8.19651E-001	2.81112E-004	0.00000E+000	2.30413E-004	1.68088E-001	8.19990E-001	3.57840E+000	9	...........
	25	0.346667	8.23771E-001	2.80444E-004	0.00000E+000	2.31021E-004	1.68088E-001	8.24118E-001	3.57840E+000	9	...........
	26	0.36	8.27687E-001	2.81588E-004	0.00000E+000	2.33067E-004	1.68088E-001	8.28033E-001	3.57840E+000	9	...........
	27	0.373333	8.31485E-001	2.81955E-004	0.00000E+000	2.34441E-004	1.68088E-001	8.31867E-001	3.57840E+000	9	...........
	28	0.386667	8.35129E-001	2.81180E-004	0.00000E+000	2.34822E-004	1.68088E-001	8.35513E-001	3.57840E+000	9	...........
	29	0.4	8.38626E-001	2.81066E-004	0.00000E+000	2.35709E-004	1.68088E-001	8.39015E-001	3.57840E+000	9	...........
	30	0.413333	8.42003E-001	2.80859E-004	0.00000E+000	2.36484E-004	1.68088E-001	8.42396E-001	3.57840E+000	9	...........
	31	0.426667	8.45308E-001	2.81221E-004	0.00000E+000	2.37718E-004	1.68088E-001	8.45687E-001	3.57840E+000	9	...........
	32	0.44	8.48476E-001	2.81020E-004	0.00000E+000	2.38439E-004	1.68088E-001	8.48877E-001	3.57840E+000	9	...........
	33	0.453333	8.51557E-001	2.81279E-004	0.00000E+000	2.39526E-004	1.68088E-001	8.51937E-001	3.57840E+000	9	...........
	34	0.466667	8.54528E-001	2.80738E-004	0.00000E+000	2.39898E-004	1.68088E-001	8.54902E-001	3.57840E+000	9	...........
	35	0.48	8.57415E-001	2.81652E-004	0.00000E+000	2.41493E-004	1.68088E-001	8.57829E-001	3.57840E+000	9	...........
	36	0.493333	8.60263E-001	2.81190E-004	0.00000E+000	2.41897E-004	1.68088E-001	8.60643E-001	3.57840E+000	9	...........
	37	0.506667	8.62993E-001	2.80423E-004	0.00000E+000	2.42003E-004	1.68088E-001	8.63369E-001	3.57840E+000	9	...........
	38	0.52	8.65610E-001	2.81558E-004	0.00000E+000	2.43719E-004	1.68088E-001	8.65988E-001	3.57840E+000	9	...........
	39	0.533333	8.68194E-001	2.81003E-004	0.00000E+000	2.43965E-004	1.68088E-001	8.68579E-001	3.57954E+000	9	...........
	40	0.546667	8.70738E-001	2.81267E-004	0.00000E+000	2.44910E-004	1.68088E-001	8.71074E-001	3.57970E+000	9	...........
	41	0.56	8.73173E-001	2.80555E-004	0.00000E+000	2.44973E-004	1.68088E-001	8.73539E-001	3.57970E+000	9	...........
	42	0.573333	8.75606E-001	2.80936E-004	0.00000E+000	2.45989E-004	1.68088E-001	8.75958E-001	3.57970E+000	9	...........
	43	0.586667	8.77931E-001	2.80673E-004	0.00000E+000	2.46412E-004	1.68088E-001	8.78272E-001	3.57970E+000	9	...........
	44	0.6	8.80180E-001	2.81330E-004	0.00000E+000	2.47622E-004	1.68088E-001	8.80539E-001	3.57970E+000	9	...........
	45	0.613333	8.82415E-001	2.81344E-004	0.00000E+000	2.48262E-004	1.68088E-001	8.82768E-001	3.57970E+000	9	...........
	46	0.626667	8.84621E-001	2.80945E-004	0.00000E+000	2.48530E-004	1.68088E-001	8.84986E-001	3.57970E+000	9	...........
	47	0.64	8.86773E-001	2.80705E-004	0.00000E+000	2.48922E-004	1.68088E-001	8.87139E-001	3.57970E+000	9	...........
	48	0.653333	8.88849E-001	2.81388E-004	0.00000E+000	2.50111E-004	1.68088E-001	8.89205E-001	3.57970E+000	9	...........
	49	0.666667	8.90896E-001	2.80653E-004	0.00000E+000	2.50033E-004	1.68088E-001	8.91271E-001	3.57970E+000	9	...........
	50	0.68	8.92909E-001	2.81210E-004	0.00000E+000	2.51095E-004	1.68088E-001	8.93297E-001	3.57970E+000	9	...........
	51	0.693333	8.94907E-001	2.80755E-004	0.00000E+000	2.51250E-004	1.68088E-001	8.95309E-001	3.57970E+000	9	...........
	52	0.706667	8.96873E-001	2.81380E-004	0.00000E+000	2.52363E-004	1.68088E-001	8.97245E-001	3.57970E+000	9	...........
	53	0.72	8.98782E-001	2.80782E-004	0.00000E+000	2.52362E-004	1.68088E-001	8.99122E-001	3.57970E+000	9	...........
	54	0.733333	9.00693E-001	2.81079E-004	0.00000E+000	2.53166E-004	1.68088E-001	9.01033E-001	3.57970E+000	9	...........
	55	0.746667	9.02531E-001	2.80468E-004	0.00000E+000	2.53131E-004	1.68088E-001	9.02897E-001	3.57970E+000	9	...........
	56	0.76	9.04323E-001	2.80945E-004	0.00000E+000	2.54065E-004	1.68088E-001	9.04718E-001	3.57970E+000	9	...........
	57	0.773333	9.06105E-001	2.80673E-004	0.00000E+000	2.54319E-004	1.68088E-001	9.06505E-001	3.57970E+000	9	...........
	58	0.786667	9.07867E-001	2.81384E-004	0.00000E+000	2.55459E-004	1.68088E-001	9.08275E-001	3.57970E+000	9	...........
	59	0.8	9.09596E-001	2.80961E-004	0.00000E+000	2.55561E-004	1.68088E-001	9.09957E-001	3.57970E+000	9	...........
	60	0.813333	9.11293E-001	2.80746E-004	0.00000E+000	2.55842E-004	1.68088E-001	9.11664E-001	3.57970E+000	9	...........
	61	0.826667	9.12974E-001	2.81250E-004	0.00000E+000	2.56774E-004	1.68088E-001	9.13359E-001	3.57970E+000	9	...........
	62	0.84	9.14599E-001	2.81172E-004	0.00000E+000	2.57160E-004	1.68088E-001	9.14953E-001	3.57970E+000	9	...........
	63	0.853333	9.16195E-001	2.80840E-004	0.00000E+000	2.57304E-004	1.68088E-001	9.16575E-001	3.57970E+000	9	...........
	64	0.866667	9.17817E-001	2.81062E-004	0.00000E+000	2.57963E-004	1.68088E-001	9.18174E-001	3.57970E+000	9	...........
	65	0.88	9.19372E-001	2.80722E-004	0.00000E+000	2.58088E-004	1.68088E-001	9.19737E-001	3.57970E+000	9	...........
	66	0.893333	9.20956E-001	2.80458E-004	0.00000E+000	2.58290E-004	1.68088E-001	9.21292E-001	3.57970E+000	9	...........
	67	0.906667	9.22497E-001	2.80665E-004	0.00000E+000	2.58912E-004	1.68088E-001	9.22815E-001	3.57970E+000	9	...........
	68	0.92	9.24013E-001	2.81052E-004	0.00000E+000	2.59696E-004	1.68088E-001	9.24337E-001	3.57970E+000	9	...........
	69	0.933333	9.25511E-001	2.81271E-004	0.00000E+000	2.60319E-004	1.68088E-001	9.25809E-001	3.57970E+000	9	...........
	70	0.946667	9.26977E-001	2.81068E-004	0.00000E+000	2.60543E-004	1.68088E-001	9.27293E-001	3.57970E+000	9	...........
	71	0.96	9.28448E-001	2.81175E-004	0.00000E+000	2.61057E-004	1.68088E-001	9.28758E-001	3.57970E+000	9	...........
	72	0.97333	9.29871E-001	2.79986E-004	0.00000E+000	2.60351E-004	1.68088E-001	9.30195E-001	3.57970E+000	9	...........
	73	0.98667	9.31328E-001	2.80913E-004	0.00000E+000	2.61622E-004	1.68088E-001	9.31642E-001	3.57970E+000	9	...........
	74	1	9.32725E-001	2.80943E-004	0.00000E+000	2.62042E-004	1.68088E-001	9.33050E-001	3.57970E+000	9	...........
	75	1.01333	9.34114E-001	2.81168E-004	0.00000E+000	2.62643E-004	1.68088E-001	9.34467E-001	3.57970E+000	9	...........
	76	1.02667	9.35475E-001	2.81691E-004	0.00000E+000	2.63515E-004	1.68088E-001	9.35829E-001	3.57970E+000	9	...........
	77	1.04	9.36839E-001	2.81920E-004	0.00000E+000	2.64114E-004	1.68088E-001	9.37205E-001	3.57970E+000	9	...........
	78	1.05333	9.38197E-001	2.81291E-004	0.00000E+000	2.63906E-004	1.68088E-001	9.38544E-001	3.57970E+000	9	...........
	79	1.06667	9.39509E-001	2.81224E-004	0.00000E+000	2.64213E-004	1.68088E-001	9.39860E-001	3.57970E+000	9	...........
	80	1.08	9.40849E-001	2.80636E-004	0.00000E+000	2.64036E-004	1.68088E-001	9.41185E-001	3.57970E+000	9	...........
	81	1.09333	9.42180E-001	2.81211E-004	0.00000E+000	2.64951E-004	1.68088E-001	9.42523E-001	3.57970E+000	9	...........
	82	1.10667	9.43503E-001	2.81085E-004	0.00000E+000	2.65204E-004	1.68088E-001	9.43805E-001	3.57970E+000	9	...........
	83	1.12	9.44762E-001	2.80931E-004	0.00000E+000	2.65413E-004	1.68088E-001	9.45103E-001	3.57970E+000	9	...........
	84	1.13333	9.46040E-001	2.81871E-004	0.00000E+000	2.66661E-004	1.68088E-001	9.46410E-001	3.57970E+000	9	...........
	85	1.14667	9.47324E-001	2.80947E-004	0.00000E+000	2.66148E-004	1.68088E-001	9.47661E-001	3.57970E+000	9	...........
	86	1.16	9.48571E-001	2.81017E-004	0.00000E+000	2.66564E-004	1.68088E-001	9.48909E-001	3.57970E+000	9	...........
	87	1.17333	9.49770E-001	2.81982E-004	0.00000E+000	2.67818E-004	1.68088E-001	9.50131E-001	3.57970E+000	9	...........
	88	1.18667	9.50969E-001	2.81437E-004	0.00000E+000	2.67638E-004	1.68088E-001	9.51325E-001	3.57970E+000	9	...........
	89	1.2	9.52153E-001	2.80847E-004	0.00000E+000	2.67409E-004	1.68088E-001	9.52519E-001	3.57970E+000	9	...........
	90	1.21333	9.53376E-001	2.81882E-004	0.00000E+000	2.68739E-004	1.68088E-001	9.53715E-001	3.57970E+000	9	...........
	91	1.22667	9.54550E-001	2.81196E-004	0.00000E+000	2.68416E-004	1.68088E-001	9.54904E-001	3.57970E+000	9	...........
	92	1.24	9.55703E-001	2.80735E-004	0.00000E+000	2.68299E-004	1.68088E-001	9.56086E-001	3.57970E+000	9	...........
	93	1.25333	9.56851E-001	2.81053E-004	0.00000E+000	2.68926E-004	1.68088E-001	9.57240E-001	3.57970E+000	9	...........
	94	1.26667	9.57967E-001	2.80888E-004	0.00000E+000	2.69081E-004	1.68088E-001	9.58363E-001	3.57970E+000	9	...........
	95	1.28	9.59141E-001	2.81302E-004	0.00000E+000	2.69809E-004	1.68088E-001	9.59525E-001	3.57970E+000	9	...........
	96	1.29333	9.60278E-001	2.81096E-004	0.00000E+000	2.69930E-004	1.68088E-001	9.60668E-001	3.57970E+000	9	...........
	97	1.30667	9.61363E-001	2.81559E-004	0.00000E+000	2.70680E-004	1.68088E-001	9.61783E-001	3.57970E+000	9	...........
	98	1.32	9.62438E-001	2.81093E-004	0.00000E+000	2.70535E-004	1.68088E-001	9.62839E-001	3.57970E+000	9	...........
	99	1.33333	9.63515E-001	2.81043E-004	0.00000E+000	2.70789E-004	1.68088E-001	9.63920E-001	3.57970E+000	9	...........
	100	1.34667	9.64574E-001	2.81040E-004	0.00000E+000	2.71084E-004	1.68088E-001	9.64979E-001	3.57970E+000	9	...........
	101	1.36	9.65632E-001	2.81012E-004	0.00000E+000	2.71354E-004	1.68088E-001	9.66040E-001	3.57970E+000	9	...........
	102	1.37333	9.66704E-001	2.81082E-004	0.00000E+000	2.71723E-004	1.68088E-001	9.67100E-001	3.57970E+000	9	...........
	103	1.38667	9.67755E-001	2.81477E-004	0.00000E+000	2.72401E-004	1.68088E-001	9.68156E-001	3.57970E+000	9	...........
	104	1.4	9.68781E-001	2.80750E-004	0.00000E+000	2.71985E-004	1.68088E-001	9.69194E-001	3.57970E+000	9	...........
	105	1.41333	9.69836E-001	2.82073E-004	0.00000E+000	2.73565E-004	1.68088E-001	9.70243E-001	3.57970E+000	9	...........
	106	1.42667	9.70851E-001	2.80679E-004	0.00000E+000	2.72498E-004	1.68088E-001	9.71266E-001	3.57970E+000	9	...........
	107	1.44	9.71863E-001	2.82320E-004	0.00000E+000	2.74377E-004	1.68088E-001	9.72295E-001	3.57970E+000	9	...........
	108	1.45333	9.72956E-001	2.81399E-004	0.00000E+000	2.73789E-004	1.68088E-001	9.73345E-001	3.57970E+000	9	...........
	109	1.46667	9.73935E-001	2.81074E-004	0.00000E+000	2.73748E-004	1.68088E-001	9.74308E-001	3.57970E+000	9	...........
	110	1.48	9.74889E-001	2.81583E-004	0.00000E+000	2.74512E-004	1.68088E-001	9.75285E-001	3.57970E+000	9	...........
	111	1.49333	9.75875E-001	2.81351E-004	0.00000E+000	2.74564E-004	1.68088E-001	9.76276E-001	3.57970E+000	9	...........
	112	1.50667	9.76810E-001	2.80925E-004	0.00000E+000	2.74411E-004	1.68088E-001	9.77231E-001	3.57970E+000	9	...........
	113	1.52	9.77770E-001	2.81395E-004	0.00000E+000	2.75140E-004	1.68088E-001	9.78190E-001	3.57970E+000	9	...........
	114	1.53333	9.78713E-001	2.80939E-004	0.00000E+000	2.74958E-004	1.68088E-001	9.79125E-001	3.57830E+000	9	...........
	115	1.54667	9.79661E-001	2.81169E-004	0.00000E+000	2.75450E-004	1.68088E-001	9.80022E-001	3.57810E+000	9	...........
	116	1.56	9.80613E-001	2.81941E-004	0.00000E+000	2.76475E-004	1.68088E-001	9.80966E-001	3.57810E+000	9	...........
	117	1.57333	9.81564E-001	2.80862E-004	0.00000E+000	2.75684E-004	1.68088E-001	9.81906E-001	3.57810E+000	9	...........
	118	1.58667	9.82522E-001	2.81378E-004	0.00000E+000	2.76460E-004	1.68088E-001	9.82875E-001	3.57810E+000	9	...........
	119	1.6	9.83457E-001	2.81625E-004	0.00000E+000	2.76966E-004	1.68088E-001	9.83804E-001	3.57810E+000	9	...........
	120	1.61333	9.84379E-001	2.81388E-004	0.00000E+000	2.76992E-004	1.68088E-001	9.84740E-001	3.57810E+000	9	...........
	121	1.62667	9.85298E-001	2.80926E-004	0.00000E+000	2.76796E-004	1.68088E-001	9.85664E-001	3.57810E+000	9	...........
	122	1.64	9.86207E-001	2.81234E-004	0.00000E+000	2.77355E-004	1.68088E-001	9.86579E-001	3.57810E+000	9	...........
	123	1.65333	9.87094E-001	2.81173E-004	0.00000E+000	2.77544E-004	1.68088E-001	9.87482E-001	3.57810E+000	9	...........
	124	1.66667	9.87985E-001	2.80743E-004	0.00000E+000	2.77370E-004	1.68088E-001	9.88372E-001	3.57810E+000	9	...........
	125	1.68	9.88894E-001	2.81478E-004	0.00000E+000	2.78352E-004	1.68088E-001	9.89262E-001	3.57810E+000	9	...........
	126	1.69333	9.89776E-001	2.81128E-004	0.00000E+000	2.78254E-004	1.68088E-001	9.90140E-001	3.57810E+000	9	...........
	127	1.70667	9.90635E-001	2.80818E-004	0.00000E+000	2.78188E-004	1.68088E-001	9.91016E-001	3.57810E+000	9	...........
	128	1.72	9.91529E-001	2.81048E-004	0.00000E+000	2.78667E-004	1.68088E-001	9.91902E-001	3.57810E+000	9	...........
	129	1.73333	9.92374E-001	2.81471E-004	0.00000E+000	2.79325E-004	1.68088E-001	9.92792E-001	3.57810E+000	9	...........
	130	1.74667	9.93249E-001	2.81755E-004	0.00000E+000	2.79852E-004	1.68088E-001	9.93649E-001	3.57810E+000	9	...........
	131	1.76	9.94103E-001	2.81794E-004	0.00000E+000	2.80132E-004	1.68088E-001	9.94510E-001	3.57810E+000	9	...........
	132	1.77333	9.94963E-001	2.80762E-004	0.00000E+000	2.79347E-004	1.68088E-001	9.95355E-001	3.57810E+000	9	...........
	133	1.78667	9.95796E-001	2.80962E-004	0.00000E+000	2.79780E-004	1.68088E-001	9.96186E-001	3.57810E+000	9	...........
	134	1.8	9.96642E-001	2.81203E-004	0.00000E+000	2.80259E-004	1.68088E-001	9.97036E-001	3.57810E+000	9	...........
	135	1.81333	9.97453E-001	2.81090E-004	0.00000E+000	2.80374E-004	1.68088E-001	9.97859E-001	3.57810E+000	9	...........
	136	1.82667	9.98297E-001	2.81141E-004	0.00000E+000	2.80662E-004	1.68088E-001	9.98680E-001	3.57810E+000	9	...........
	137	1.84	9.99091E-001	2.81172E-004	0.00000E+000	2.80916E-004	1.68088E-001	9.99510E-001	3.57810E+000	9	...........
	138	1.85	9.99801E-001	2.81869E-004	0.00000E+000	2.81813E-004	1.68088E-001	1.00022E+000	3.57810E+000	9	...........
STARTTIMEOFFSET	QUANT	335.5234	Start Time Offset (s)
