EXPLAIN
TAG	PWR800_CHARGE
TITLE	LABEL	PWR Cyclic Charge Discharge (Cell) - Charge Step	Test &Identifier
DATE	LABEL	7-7-2017	Date
TIME	LABEL	16:24:10	Time
NOTES	NOTES	3	&Notes...
	supercap test cell
	2.8mg
	6M KOH
PSTAT	PSTAT	IFC5000-01520	Potentiostat
CAPACITY	QUANT	1.00000E-003	Capacity (A-hr)
CELLTYPE	SELECTOR	1	&Cell Type
WORKINGCONNECTION	SELECTOR	0	&Working Lead
MAXCHARGETIME	VARIABLEANDUNITS	1.00000E+002	s	1.00000E+002	second(s)	Max &Charge Time
CHARGECURRENT	QUANT	2.80000E-004	&Charge Current (A) 
VOLTAGEFINISH	TWOPARAM	F	1.00000E-003	3.60000E+003	&Voltage Finish	 I (A) < 	Max Time(s)
SAMPLETIME	QUANT	1.00000E-002	Sa&mple Period (s)
CHARGESTOPAT1	MULTIPARAM	4	1.00000E+000	Charge Stop At &1	Voltage > Limit	V
CHARGESTOPAT2	MULTIPARAM	0	0.00000E+000	Charge Stop At &2	None	N/A
AESBHCSELECTOR	TOGGLE	F	Save Both Half Cells
IRCOMP	TOGGLE	F	IR &Measure
EOC	QUANT	0	Open Circuit (V)
SEQUENCER	TOGGLE	TRUE	Run as Sequence
PSTATMODEL	IQUANT	53	Pstat Model
PSTATSECTION	LABEL	IFC5000-01520	Pstat Section
PSTATSERIALNO	LABEL	01520	Pstat Serial Number
CTRLMODE	IQUANT	0	Control Mode
ELECTROMETER	IQUANT	1	RE=0 or CS=1
IESTAB	IQUANT	0	I/E Stability
CASPEED	IQUANT	4	Control Amp Speed
CONVENTION	IQUANT	1	Current Convention
ICHRANGE	IQUANT	2	Ich Range
ICHRANGEMODE	TOGGLE	T	Ich Auto Range
ICHOFFSETENABLE	TOGGLE	F	Ich Offset Enable
ICHOFFSET	QUANT	0	Ich Offset (V)
ICHFILTER	IQUANT	1	Ich Filter
VCHRANGE	IQUANT	2	Vch Range
VCHRANGEMODE	TOGGLE	T	Vch Auto Range
VCHOFFSETENABLE	TOGGLE	F	Vch Offset Enable
VCHOFFSET	QUANT	0	Vch Offset (V)
VCHFILTER	IQUANT	1	Vch Filter
IERANGELOWERLIMIT	IQUANT	9	I/E Range Lower Limit
IERANGEMODE	TOGGLE	F	I/E AutoRange
IERANGE	IQUANT	9	I/E Range
ACHSELECT	IQUANT	1	Ach Select
ACHRANGE	IQUANT	2	Ach Range
ACHOFFSETENABLE	TOGGLE	F	Ach Offset Enable
ACHOFFSET	QUANT	0	Ach Offset (V)
ACHFILTER	IQUANT	1	Ach Filter
CABLEID	IQUANT	14	Cable ID
DCCALDATE	LABEL	5-7-2017	DC Calibration Date
ACCALDATE	LABEL	12/3/2015	AC Calibration Date
FRAMEWORKVERSION	QUANT	7.01	Framework Version
INSTRUMENTVERSION	LABEL	4.00	Instrument Version
CURVE	TABLE	57
	Pt	T	Vf	Im	Vu	Pwr	Sig	Ach	Temp	IERange	Over
	#	s	V	A	V	W	V	V	deg C	#	bits
	0	0.013333	6.09726E-001	2.80117E-004	0.00000E+000	1.70794E-004	1.68088E-001	6.09966E-001	3.57730E+000	9	...........
	1	0.026667	6.40446E-001	2.81537E-004	0.00000E+000	1.80309E-004	1.68088E-001	6.40646E-001	3.57730E+000	9	...........
	2	0.04	6.66910E-001	2.80865E-004	0.00000E+000	1.87312E-004	1.68088E-001	6.67130E-001	3.57730E+000	9	...........
	3	0.053333	6.90263E-001	2.79942E-004	0.00000E+000	1.93233E-004	1.68088E-001	6.90500E-001	3.57730E+000	9	...........
	4	0.066667	7.11173E-001	2.81342E-004	0.00000E+000	2.00083E-004	1.68088E-001	7.11431E-001	3.57730E+000	9	...........
	5	0.08	7.30143E-001	2.81497E-004	0.00000E+000	2.05533E-004	1.68088E-001	7.30365E-001	3.57730E+000	9	...........
	6	0.093333	7.47419E-001	2.80917E-004	0.00000E+000	2.09963E-004	1.68088E-001	7.47654E-001	3.57730E+000	9	...........
	7	0.106667	7.63211E-001	2.81698E-004	0.00000E+000	2.14995E-004	1.68088E-001	7.63454E-001	3.57730E+000	9	...........
	8	0.12	7.77754E-001	2.81134E-004	0.00000E+000	2.18653E-004	1.68088E-001	7.78016E-001	3.57730E+000	9	...........
	9	0.133333	7.91176E-001	2.82142E-004	0.00000E+000	2.23224E-004	1.68088E-001	7.91436E-001	3.57730E+000	9	...........
	10	0.146667	8.03595E-001	2.80966E-004	0.00000E+000	2.25783E-004	1.68088E-001	8.03871E-001	3.57730E+000	9	...........
	11	0.16	8.15113E-001	2.81727E-004	0.00000E+000	2.29640E-004	1.68088E-001	8.15410E-001	3.57730E+000	9	...........
	12	0.173333	8.25857E-001	2.80846E-004	0.00000E+000	2.31939E-004	1.68088E-001	8.26182E-001	3.57730E+000	9	...........
	13	0.186667	8.35842E-001	2.82601E-004	0.00000E+000	2.36209E-004	1.68088E-001	8.36151E-001	3.57730E+000	9	...........
	14	0.2	8.45185E-001	2.80990E-004	0.00000E+000	2.37488E-004	1.68088E-001	8.45511E-001	3.57730E+000	9	...........
	15	0.213333	8.53918E-001	2.81321E-004	0.00000E+000	2.40225E-004	1.68088E-001	8.54232E-001	3.57730E+000	9	...........
	16	0.226667	8.62081E-001	2.80619E-004	0.00000E+000	2.41916E-004	1.68088E-001	8.62416E-001	3.57730E+000	9	...........
	17	0.24	8.69777E-001	2.81970E-004	0.00000E+000	2.45251E-004	1.68088E-001	8.70108E-001	3.57730E+000	9	...........
	18	0.253333	8.76941E-001	2.81595E-004	0.00000E+000	2.46942E-004	1.68088E-001	8.77281E-001	3.57730E+000	9	...........
	19	0.266667	8.83741E-001	2.80882E-004	0.00000E+000	2.48227E-004	1.68088E-001	8.84062E-001	3.57730E+000	9	...........
	20	0.28	8.90075E-001	2.81054E-004	0.00000E+000	2.50160E-004	1.68088E-001	8.90413E-001	3.57730E+000	9	...........
	21	0.293333	8.96066E-001	2.80873E-004	0.00000E+000	2.51681E-004	1.68088E-001	8.96408E-001	3.57730E+000	9	...........
	22	0.306667	9.01737E-001	2.82212E-004	0.00000E+000	2.54481E-004	1.68088E-001	9.02070E-001	3.57730E+000	9	...........
	23	0.32	9.07085E-001	2.80437E-004	0.00000E+000	2.54380E-004	1.68088E-001	9.07418E-001	3.57730E+000	9	...........
	24	0.333333	9.12159E-001	2.81945E-004	0.00000E+000	2.57179E-004	1.68088E-001	9.12483E-001	3.57730E+000	9	...........
	25	0.346667	9.16968E-001	2.82119E-004	0.00000E+000	2.58694E-004	1.68088E-001	9.17319E-001	3.57730E+000	9	...........
	26	0.36	9.21557E-001	2.81950E-004	0.00000E+000	2.59833E-004	1.68088E-001	9.21872E-001	3.57730E+000	9	...........
	27	0.373333	9.25897E-001	2.80827E-004	0.00000E+000	2.60017E-004	1.68088E-001	9.26195E-001	3.57730E+000	9	...........
	28	0.386667	9.30003E-001	2.80841E-004	0.00000E+000	2.61183E-004	1.68088E-001	9.30295E-001	3.57730E+000	9	...........
	29	0.4	9.33898E-001	2.80156E-004	0.00000E+000	2.61637E-004	1.68088E-001	9.34218E-001	3.57730E+000	9	...........
	30	0.413333	9.37653E-001	2.81294E-004	0.00000E+000	2.63756E-004	1.68088E-001	9.37973E-001	3.57730E+000	9	...........
	31	0.426667	9.41252E-001	2.82404E-004	0.00000E+000	2.65813E-004	1.68088E-001	9.41578E-001	3.57730E+000	9	...........
	32	0.44	9.44683E-001	2.81138E-004	0.00000E+000	2.65586E-004	1.68088E-001	9.45034E-001	3.57760E+000	9	...........
	33	0.453333	9.48023E-001	2.80740E-004	0.00000E+000	2.66148E-004	1.68088E-001	9.48340E-001	3.57810E+000	9	...........
	34	0.466667	9.51160E-001	2.79911E-004	0.00000E+000	2.66241E-004	1.68088E-001	9.51495E-001	3.57810E+000	9	...........
	35	0.48	9.54188E-001	2.81176E-004	0.00000E+000	2.68295E-004	1.68088E-001	9.54515E-001	3.57810E+000	9	...........
	36	0.493333	9.57096E-001	2.81080E-004	0.00000E+000	2.69021E-004	1.68088E-001	9.57440E-001	3.57810E+000	9	...........
	37	0.506667	9.59892E-001	2.81081E-004	0.00000E+000	2.69808E-004	1.68088E-001	9.60261E-001	3.57810E+000	9	...........
	38	0.52	9.62622E-001	2.81298E-004	0.00000E+000	2.70784E-004	1.68088E-001	9.62996E-001	3.57810E+000	9	...........
	39	0.533333	9.65308E-001	2.81719E-004	0.00000E+000	2.71946E-004	1.68088E-001	9.65676E-001	3.57810E+000	9	...........
	40	0.546667	9.67827E-001	2.81495E-004	0.00000E+000	2.72438E-004	1.68088E-001	9.68223E-001	3.57810E+000	9	...........
	41	0.56	9.70311E-001	2.80793E-004	0.00000E+000	2.72456E-004	1.68088E-001	9.70711E-001	3.57810E+000	9	...........
	42	0.573333	9.72717E-001	2.79666E-004	0.00000E+000	2.72035E-004	1.68088E-001	9.73099E-001	3.57810E+000	9	...........
	43	0.586667	9.75033E-001	2.82286E-004	0.00000E+000	2.75238E-004	1.68088E-001	9.75359E-001	3.57810E+000	9	...........
	44	0.6	9.77245E-001	2.82162E-004	0.00000E+000	2.75741E-004	1.68088E-001	9.77600E-001	3.57810E+000	9	...........
	45	0.613333	9.79387E-001	2.81980E-004	0.00000E+000	2.76167E-004	1.68088E-001	9.79734E-001	3.57810E+000	9	...........
	46	0.626667	9.81463E-001	2.80594E-004	0.00000E+000	2.75392E-004	1.68088E-001	9.81816E-001	3.57810E+000	9	...........
	47	0.64	9.83490E-001	2.81820E-004	0.00000E+000	2.77167E-004	1.68088E-001	9.83855E-001	3.57810E+000	9	...........
	48	0.653333	9.85474E-001	2.81726E-004	0.00000E+000	2.77634E-004	1.68088E-001	9.85842E-001	3.57810E+000	9	...........
	49	0.666667	9.87369E-001	2.81359E-004	0.00000E+000	2.77805E-004	1.68088E-001	9.87715E-001	3.57810E+000	9	...........
	50	0.68	9.89288E-001	2.80966E-004	0.00000E+000	2.77956E-004	1.68088E-001	9.89626E-001	3.57810E+000	9	...........
	51	0.693333	9.91134E-001	2.81417E-004	0.00000E+000	2.78922E-004	1.68088E-001	9.91484E-001	3.57810E+000	9	...........
	52	0.706667	9.92928E-001	2.81997E-004	0.00000E+000	2.80003E-004	1.68088E-001	9.93291E-001	3.57810E+000	9	...........
	53	0.72	9.94724E-001	2.81513E-004	0.00000E+000	2.80028E-004	1.68088E-001	9.95062E-001	3.57810E+000	9	...........
	54	0.733333	9.96458E-001	2.81296E-004	0.00000E+000	2.80300E-004	1.68088E-001	9.96781E-001	3.57810E+000	9	...........
	55	0.746667	9.98150E-001	2.82214E-004	0.00000E+000	2.81692E-004	1.68088E-001	9.98469E-001	3.57810E+000	9	...........
	56	0.756667	9.99557E-001	2.80133E-004	0.00000E+000	2.80009E-004	1.68088E-001	9.99907E-001	3.57810E+000	9	...........
STARTTIMEOFFSET	QUANT	2083.783	Start Time Offset (s)
