EXPLAIN
TAG	PWR800_CHARGE
TITLE	LABEL	PWR Cyclic Charge Discharge (Cell) - Charge Step	Test &Identifier
DATE	LABEL	7-7-2017	Date
TIME	LABEL	15:48:59	Time
NOTES	NOTES	3	&Notes...
	supercap test cell
	2.8mg
	6M KOH
PSTAT	PSTAT	IFC5000-01520	Potentiostat
CAPACITY	QUANT	1.00000E-003	Capacity (A-hr)
CELLTYPE	SELECTOR	1	&Cell Type
WORKINGCONNECTION	SELECTOR	0	&Working Lead
MAXCHARGETIME	VARIABLEANDUNITS	1.00000E+002	s	1.00000E+002	second(s)	Max &Charge Time
CHARGECURRENT	QUANT	2.80000E-004	&Charge Current (A) 
VOLTAGEFINISH	TWOPARAM	F	1.00000E-003	3.60000E+003	&Voltage Finish	 I (A) < 	Max Time(s)
SAMPLETIME	QUANT	1.00000E-002	Sa&mple Period (s)
CHARGESTOPAT1	MULTIPARAM	4	1.00000E+000	Charge Stop At &1	Voltage > Limit	V
CHARGESTOPAT2	MULTIPARAM	0	0.00000E+000	Charge Stop At &2	None	N/A
AESBHCSELECTOR	TOGGLE	F	Save Both Half Cells
IRCOMP	TOGGLE	F	IR &Measure
EOC	QUANT	0	Open Circuit (V)
SEQUENCER	TOGGLE	TRUE	Run as Sequence
PSTATMODEL	IQUANT	53	Pstat Model
PSTATSECTION	LABEL	IFC5000-01520	Pstat Section
PSTATSERIALNO	LABEL	01520	Pstat Serial Number
CTRLMODE	IQUANT	0	Control Mode
ELECTROMETER	IQUANT	1	RE=0 or CS=1
IESTAB	IQUANT	0	I/E Stability
CASPEED	IQUANT	4	Control Amp Speed
CONVENTION	IQUANT	1	Current Convention
ICHRANGE	IQUANT	2	Ich Range
ICHRANGEMODE	TOGGLE	T	Ich Auto Range
ICHOFFSETENABLE	TOGGLE	F	Ich Offset Enable
ICHOFFSET	QUANT	0	Ich Offset (V)
ICHFILTER	IQUANT	1	Ich Filter
VCHRANGE	IQUANT	2	Vch Range
VCHRANGEMODE	TOGGLE	T	Vch Auto Range
VCHOFFSETENABLE	TOGGLE	F	Vch Offset Enable
VCHOFFSET	QUANT	0	Vch Offset (V)
VCHFILTER	IQUANT	1	Vch Filter
IERANGELOWERLIMIT	IQUANT	9	I/E Range Lower Limit
IERANGEMODE	TOGGLE	F	I/E AutoRange
IERANGE	IQUANT	9	I/E Range
ACHSELECT	IQUANT	1	Ach Select
ACHRANGE	IQUANT	2	Ach Range
ACHOFFSETENABLE	TOGGLE	F	Ach Offset Enable
ACHOFFSET	QUANT	0	Ach Offset (V)
ACHFILTER	IQUANT	1	Ach Filter
CABLEID	IQUANT	14	Cable ID
DCCALDATE	LABEL	5-7-2017	DC Calibration Date
ACCALDATE	LABEL	12/3/2015	AC Calibration Date
FRAMEWORKVERSION	QUANT	7.01	Framework Version
INSTRUMENTVERSION	LABEL	4.00	Instrument Version
CURVE	TABLE	108
	Pt	T	Vf	Im	Vu	Pwr	Sig	Ach	Temp	IERange	Over
	#	s	V	A	V	W	V	V	deg C	#	bits
	0	0.013333	5.93091E-001	2.80892E-004	0.00000E+000	1.66594E-004	1.68088E-001	5.93391E-001	3.57830E+000	9	...........
	1	0.026667	6.21162E-001	2.81192E-004	0.00000E+000	1.74666E-004	1.68088E-001	6.21464E-001	3.57830E+000	9	...........
	2	0.04	6.44780E-001	2.81184E-004	0.00000E+000	1.81301E-004	1.68088E-001	6.45056E-001	3.57830E+000	9	...........
	3	0.053333	6.65141E-001	2.81104E-004	0.00000E+000	1.86974E-004	1.68088E-001	6.65439E-001	3.57830E+000	9	...........
	4	0.066667	6.83061E-001	2.80648E-004	0.00000E+000	1.91700E-004	1.68088E-001	6.83358E-001	3.57830E+000	9	...........
	5	0.08	6.99076E-001	2.81076E-004	0.00000E+000	1.96494E-004	1.68088E-001	6.99369E-001	3.57830E+000	9	...........
	6	0.093333	7.13498E-001	2.81257E-004	0.00000E+000	2.00676E-004	1.68088E-001	7.13814E-001	3.57830E+000	9	...........
	7	0.106667	7.26610E-001	2.80575E-004	0.00000E+000	2.03869E-004	1.68088E-001	7.26908E-001	3.57830E+000	9	...........
	8	0.12	7.38558E-001	2.81262E-004	0.00000E+000	2.07728E-004	1.68088E-001	7.38840E-001	3.57830E+000	9	...........
	9	0.133333	7.49572E-001	2.81173E-004	0.00000E+000	2.10760E-004	1.68088E-001	7.49887E-001	3.57830E+000	9	...........
	10	0.146667	7.59748E-001	2.80592E-004	0.00000E+000	2.13179E-004	1.68088E-001	7.60052E-001	3.57830E+000	9	...........
	11	0.16	7.69119E-001	2.80582E-004	0.00000E+000	2.15801E-004	1.68088E-001	7.69469E-001	3.57830E+000	9	...........
	12	0.173333	7.77891E-001	2.81040E-004	0.00000E+000	2.18618E-004	1.68088E-001	7.78205E-001	3.57830E+000	9	...........
	13	0.186667	7.86081E-001	2.81561E-004	0.00000E+000	2.21329E-004	1.68088E-001	7.86396E-001	3.57830E+000	9	...........
	14	0.2	7.93757E-001	2.80713E-004	0.00000E+000	2.22818E-004	1.68088E-001	7.94053E-001	3.57830E+000	9	...........
	15	0.213333	8.00920E-001	2.81345E-004	0.00000E+000	2.25335E-004	1.68088E-001	8.01240E-001	3.57830E+000	9	...........
	16	0.226667	8.07680E-001	2.80458E-004	0.00000E+000	2.26521E-004	1.68088E-001	8.07990E-001	3.57830E+000	9	...........
	17	0.24	8.14039E-001	2.81732E-004	0.00000E+000	2.29340E-004	1.68088E-001	8.14368E-001	3.57830E+000	9	...........
	18	0.253333	8.20102E-001	2.80838E-004	0.00000E+000	2.30316E-004	1.68088E-001	8.20411E-001	3.57830E+000	9	...........
	19	0.266667	8.25784E-001	2.81514E-004	0.00000E+000	2.32470E-004	1.68088E-001	8.26107E-001	3.57830E+000	9	...........
	20	0.28	8.31200E-001	2.81909E-004	0.00000E+000	2.34323E-004	1.68088E-001	8.31490E-001	3.57857E+000	9	...........
	21	0.293333	8.36314E-001	2.80670E-004	0.00000E+000	2.34728E-004	1.68088E-001	8.36636E-001	3.57870E+000	9	...........
	22	0.306667	8.41199E-001	2.81613E-004	0.00000E+000	2.36892E-004	1.68088E-001	8.41529E-001	3.57870E+000	9	...........
	23	0.32	8.45883E-001	2.81646E-004	0.00000E+000	2.38240E-004	1.68088E-001	8.46176E-001	3.57870E+000	9	...........
	24	0.333333	8.50341E-001	2.81706E-004	0.00000E+000	2.39546E-004	1.68088E-001	8.50657E-001	3.57870E+000	9	...........
	25	0.346667	8.54609E-001	2.81247E-004	0.00000E+000	2.40356E-004	1.68088E-001	8.54938E-001	3.57870E+000	9	...........
	26	0.36	8.58686E-001	2.81164E-004	0.00000E+000	2.41431E-004	1.68088E-001	8.59021E-001	3.57870E+000	9	...........
	27	0.373333	8.62606E-001	2.81764E-004	0.00000E+000	2.43051E-004	1.68088E-001	8.62959E-001	3.57870E+000	9	...........
	28	0.386667	8.66348E-001	2.81257E-004	0.00000E+000	2.43666E-004	1.68088E-001	8.66704E-001	3.57870E+000	9	...........
	29	0.4	8.69982E-001	2.80966E-004	0.00000E+000	2.44435E-004	1.68088E-001	8.70296E-001	3.57870E+000	9	...........
	30	0.413333	8.73450E-001	2.80736E-004	0.00000E+000	2.45209E-004	1.68088E-001	8.73789E-001	3.57870E+000	9	...........
	31	0.426667	8.76779E-001	2.80962E-004	0.00000E+000	2.46341E-004	1.68088E-001	8.77107E-001	3.57870E+000	9	...........
	32	0.44	8.80002E-001	2.81297E-004	0.00000E+000	2.47542E-004	1.68088E-001	8.80327E-001	3.57870E+000	9	...........
	33	0.453333	8.83094E-001	2.81204E-004	0.00000E+000	2.48330E-004	1.68088E-001	8.83413E-001	3.57870E+000	9	...........
	34	0.466667	8.86099E-001	2.81619E-004	0.00000E+000	2.49542E-004	1.68088E-001	8.86419E-001	3.57870E+000	9	...........
	35	0.48	8.88986E-001	2.81724E-004	0.00000E+000	2.50449E-004	1.68088E-001	8.89327E-001	3.57870E+000	9	...........
	36	0.493333	8.91789E-001	2.80816E-004	0.00000E+000	2.50428E-004	1.68088E-001	8.92134E-001	3.57870E+000	9	...........
	37	0.506667	8.94550E-001	2.80862E-004	0.00000E+000	2.51245E-004	1.68088E-001	8.94943E-001	3.57870E+000	9	...........
	38	0.52	8.97254E-001	2.80472E-004	0.00000E+000	2.51655E-004	1.68088E-001	8.97603E-001	3.57870E+000	9	...........
	39	0.533333	8.99804E-001	2.80517E-004	0.00000E+000	2.52410E-004	1.68088E-001	9.00173E-001	3.57870E+000	9	...........
	40	0.546667	9.02274E-001	2.81109E-004	0.00000E+000	2.53637E-004	1.68088E-001	9.02692E-001	3.57870E+000	9	...........
	41	0.56	9.04767E-001	2.81858E-004	0.00000E+000	2.55016E-004	1.68088E-001	9.05143E-001	3.57870E+000	9	...........
	42	0.573333	9.07178E-001	2.80725E-004	0.00000E+000	2.54668E-004	1.68088E-001	9.07577E-001	3.57870E+000	9	...........
	43	0.586667	9.09515E-001	2.81856E-004	0.00000E+000	2.56352E-004	1.68088E-001	9.09879E-001	3.57870E+000	9	...........
	44	0.6	9.11736E-001	2.81429E-004	0.00000E+000	2.56589E-004	1.68088E-001	9.12134E-001	3.57870E+000	9	...........
	45	0.613333	9.13963E-001	2.81149E-004	0.00000E+000	2.56960E-004	1.68088E-001	9.14339E-001	3.57870E+000	9	...........
	46	0.626667	9.16108E-001	2.80847E-004	0.00000E+000	2.57286E-004	1.68088E-001	9.16500E-001	3.57870E+000	9	...........
	47	0.64	9.18237E-001	2.81016E-004	0.00000E+000	2.58039E-004	1.68088E-001	9.18639E-001	3.57870E+000	9	...........
	48	0.653333	9.20322E-001	2.81342E-004	0.00000E+000	2.58925E-004	1.68088E-001	9.20693E-001	3.57870E+000	9	...........
	49	0.666667	9.22367E-001	2.81541E-004	0.00000E+000	2.59684E-004	1.68088E-001	9.22715E-001	3.57870E+000	9	...........
	50	0.68	9.24391E-001	2.81522E-004	0.00000E+000	2.60236E-004	1.68088E-001	9.24724E-001	3.57870E+000	9	...........
	51	0.693333	9.26361E-001	2.80881E-004	0.00000E+000	2.60198E-004	1.68088E-001	9.26713E-001	3.57870E+000	9	...........
	52	0.706667	9.28277E-001	2.81837E-004	0.00000E+000	2.61623E-004	1.68088E-001	9.28632E-001	3.57870E+000	9	...........
	53	0.72	9.30108E-001	2.80864E-004	0.00000E+000	2.61233E-004	1.68088E-001	9.30462E-001	3.57870E+000	9	...........
	54	0.733333	9.31917E-001	2.81669E-004	0.00000E+000	2.62492E-004	1.68088E-001	9.32267E-001	3.57870E+000	9	...........
	55	0.746667	9.33730E-001	2.81846E-004	0.00000E+000	2.63168E-004	1.68088E-001	9.34077E-001	3.57870E+000	9	...........
	56	0.76	9.35521E-001	2.80982E-004	0.00000E+000	2.62865E-004	1.68088E-001	9.35858E-001	3.57870E+000	9	...........
	57	0.773333	9.37243E-001	2.80752E-004	0.00000E+000	2.63133E-004	1.68088E-001	9.37599E-001	3.57870E+000	9	...........
	58	0.786667	9.38901E-001	2.81076E-004	0.00000E+000	2.63903E-004	1.68088E-001	9.39280E-001	3.57870E+000	9	...........
	59	0.8	9.40548E-001	2.81185E-004	0.00000E+000	2.64468E-004	1.68088E-001	9.40933E-001	3.57870E+000	9	...........
	60	0.813333	9.42193E-001	2.81040E-004	0.00000E+000	2.64794E-004	1.68088E-001	9.42569E-001	3.57870E+000	9	...........
	61	0.826667	9.43815E-001	2.80616E-004	0.00000E+000	2.64849E-004	1.68088E-001	9.44178E-001	3.57870E+000	9	...........
	62	0.84	9.45408E-001	2.81521E-004	0.00000E+000	2.66152E-004	1.68088E-001	9.45786E-001	3.57870E+000	9	...........
	63	0.853333	9.47001E-001	2.81243E-004	0.00000E+000	2.66337E-004	1.68088E-001	9.47353E-001	3.57870E+000	9	...........
	64	0.866667	9.48494E-001	2.81872E-004	0.00000E+000	2.67354E-004	1.68088E-001	9.48861E-001	3.57870E+000	9	...........
	65	0.88	9.50025E-001	2.80843E-004	0.00000E+000	2.66808E-004	1.68088E-001	9.50350E-001	3.57870E+000	9	...........
	66	0.893333	9.51509E-001	2.81223E-004	0.00000E+000	2.67586E-004	1.68088E-001	9.51821E-001	3.57870E+000	9	...........
	67	0.906667	9.53007E-001	2.81124E-004	0.00000E+000	2.67913E-004	1.68088E-001	9.53323E-001	3.57870E+000	9	...........
	68	0.92	9.54470E-001	2.81096E-004	0.00000E+000	2.68298E-004	1.68088E-001	9.54804E-001	3.57870E+000	9	...........
	69	0.933333	9.55906E-001	2.81026E-004	0.00000E+000	2.68635E-004	1.68088E-001	9.56244E-001	3.57870E+000	9	...........
	70	0.946667	9.57310E-001	2.81149E-004	0.00000E+000	2.69147E-004	1.68088E-001	9.57678E-001	3.57870E+000	9	...........
	71	0.96	9.58703E-001	2.81710E-004	0.00000E+000	2.70076E-004	1.68088E-001	9.59066E-001	3.57870E+000	9	...........
	72	0.97333	9.60096E-001	2.81594E-004	0.00000E+000	2.70357E-004	1.68088E-001	9.60454E-001	3.57870E+000	9	...........
	73	0.98667	9.61472E-001	2.81014E-004	0.00000E+000	2.70187E-004	1.68088E-001	9.61848E-001	3.57870E+000	9	...........
	74	1	9.62810E-001	2.81262E-004	0.00000E+000	2.70802E-004	1.68088E-001	9.63171E-001	3.57870E+000	9	...........
	75	1.01333	9.64122E-001	2.80724E-004	0.00000E+000	2.70652E-004	1.68088E-001	9.64490E-001	3.57870E+000	9	...........
	76	1.02667	9.65412E-001	2.81778E-004	0.00000E+000	2.72032E-004	1.68088E-001	9.65778E-001	3.57870E+000	9	...........
	77	1.04	9.66710E-001	2.81393E-004	0.00000E+000	2.72025E-004	1.68088E-001	9.67056E-001	3.57870E+000	9	...........
	78	1.05333	9.67948E-001	2.81135E-004	0.00000E+000	2.72124E-004	1.68088E-001	9.68301E-001	3.57870E+000	9	...........
	79	1.06667	9.69206E-001	2.81317E-004	0.00000E+000	2.72654E-004	1.68088E-001	9.69568E-001	3.57870E+000	9	...........
	80	1.08	9.70433E-001	2.81542E-004	0.00000E+000	2.73218E-004	1.68088E-001	9.70834E-001	3.57870E+000	9	...........
	81	1.09333	9.71698E-001	2.81508E-004	0.00000E+000	2.73540E-004	1.68088E-001	9.72103E-001	3.57870E+000	9	...........
	82	1.10667	9.72982E-001	2.81870E-004	0.00000E+000	2.74255E-004	1.68088E-001	9.73335E-001	3.57870E+000	9	...........
	83	1.12	9.74199E-001	2.80724E-004	0.00000E+000	2.73481E-004	1.68088E-001	9.74554E-001	3.57870E+000	9	...........
	84	1.13333	9.75378E-001	2.81887E-004	0.00000E+000	2.74946E-004	1.68088E-001	9.75760E-001	3.57870E+000	9	...........
	85	1.14667	9.76540E-001	2.80794E-004	0.00000E+000	2.74206E-004	1.68088E-001	9.76911E-001	3.57870E+000	9	...........
	86	1.16	9.77717E-001	2.81413E-004	0.00000E+000	2.75142E-004	1.68088E-001	9.78083E-001	3.57870E+000	9	...........
	87	1.17333	9.78911E-001	2.81328E-004	0.00000E+000	2.75395E-004	1.68088E-001	9.79286E-001	3.57870E+000	9	...........
	88	1.18667	9.80045E-001	2.80563E-004	0.00000E+000	2.74964E-004	1.68088E-001	9.80429E-001	3.57870E+000	9	...........
	89	1.2	9.81165E-001	2.81715E-004	0.00000E+000	2.76409E-004	1.68088E-001	9.81583E-001	3.57870E+000	9	...........
	90	1.21333	9.82281E-001	2.81715E-004	0.00000E+000	2.76723E-004	1.68088E-001	9.82666E-001	3.57870E+000	9	...........
	91	1.22667	9.83421E-001	2.81274E-004	0.00000E+000	2.76611E-004	1.68088E-001	9.83802E-001	3.57870E+000	9	...........
	92	1.24	9.84477E-001	2.81194E-004	0.00000E+000	2.76829E-004	1.68088E-001	9.84871E-001	3.57870E+000	9	...........
	93	1.25333	9.85579E-001	2.81370E-004	0.00000E+000	2.77313E-004	1.68088E-001	9.85931E-001	3.57870E+000	9	...........
	94	1.26667	9.86666E-001	2.81320E-004	0.00000E+000	2.77569E-004	1.68088E-001	9.87010E-001	3.57870E+000	9	...........
	95	1.28	9.87739E-001	2.81822E-004	0.00000E+000	2.78367E-004	1.68088E-001	9.88109E-001	3.57816E+000	9	...........
	96	1.29333	9.88828E-001	2.81597E-004	0.00000E+000	2.78451E-004	1.68088E-001	9.89185E-001	3.57790E+000	9	...........
	97	1.30667	9.89857E-001	2.81288E-004	0.00000E+000	2.78435E-004	1.68088E-001	9.90229E-001	3.57790E+000	9	...........
	98	1.32	9.90884E-001	2.81520E-004	0.00000E+000	2.78954E-004	1.68088E-001	9.91289E-001	3.57790E+000	9	...........
	99	1.33333	9.91929E-001	2.80963E-004	0.00000E+000	2.78695E-004	1.68088E-001	9.92326E-001	3.57790E+000	9	...........
	100	1.34667	9.92921E-001	2.81091E-004	0.00000E+000	2.79101E-004	1.68088E-001	9.93341E-001	3.57790E+000	9	...........
	101	1.36	9.93910E-001	2.81992E-004	0.00000E+000	2.80275E-004	1.68088E-001	9.94349E-001	3.57790E+000	9	...........
	102	1.37333	9.94927E-001	2.80569E-004	0.00000E+000	2.79145E-004	1.68088E-001	9.95325E-001	3.57790E+000	9	...........
	103	1.38667	9.95902E-001	2.80951E-004	0.00000E+000	2.79800E-004	1.68088E-001	9.96294E-001	3.57790E+000	9	...........
	104	1.4	9.96867E-001	2.81312E-004	0.00000E+000	2.80430E-004	1.68088E-001	9.97274E-001	3.57790E+000	9	...........
	105	1.41333	9.97843E-001	2.81539E-004	0.00000E+000	2.80931E-004	1.68088E-001	9.98262E-001	3.57790E+000	9	...........
	106	1.42667	9.98833E-001	2.81605E-004	0.00000E+000	2.81276E-004	1.68088E-001	9.99206E-001	3.57790E+000	9	...........
	107	1.43833	9.99702E-001	2.81969E-004	0.00000E+000	2.81885E-004	1.68088E-001	1.00010E+000	3.57790E+000	9	...........
STARTTIMEOFFSET	QUANT	626.8584	Start Time Offset (s)
