EXPLAIN
TAG	PWR800_CHARGE
TITLE	LABEL	PWR Cyclic Charge Discharge (Cell) - Charge Step	Test &Identifier
DATE	LABEL	7-7-2017	Date
TIME	LABEL	16:05:39	Time
NOTES	NOTES	3	&Notes...
	supercap test cell
	2.8mg
	6M KOH
PSTAT	PSTAT	IFC5000-01520	Potentiostat
CAPACITY	QUANT	1.00000E-003	Capacity (A-hr)
CELLTYPE	SELECTOR	1	&Cell Type
WORKINGCONNECTION	SELECTOR	0	&Working Lead
MAXCHARGETIME	VARIABLEANDUNITS	1.00000E+002	s	1.00000E+002	second(s)	Max &Charge Time
CHARGECURRENT	QUANT	2.80000E-004	&Charge Current (A) 
VOLTAGEFINISH	TWOPARAM	F	1.00000E-003	3.60000E+003	&Voltage Finish	 I (A) < 	Max Time(s)
SAMPLETIME	QUANT	1.00000E-002	Sa&mple Period (s)
CHARGESTOPAT1	MULTIPARAM	4	1.00000E+000	Charge Stop At &1	Voltage > Limit	V
CHARGESTOPAT2	MULTIPARAM	0	0.00000E+000	Charge Stop At &2	None	N/A
AESBHCSELECTOR	TOGGLE	F	Save Both Half Cells
IRCOMP	TOGGLE	F	IR &Measure
EOC	QUANT	0	Open Circuit (V)
SEQUENCER	TOGGLE	TRUE	Run as Sequence
PSTATMODEL	IQUANT	53	Pstat Model
PSTATSECTION	LABEL	IFC5000-01520	Pstat Section
PSTATSERIALNO	LABEL	01520	Pstat Serial Number
CTRLMODE	IQUANT	0	Control Mode
ELECTROMETER	IQUANT	1	RE=0 or CS=1
IESTAB	IQUANT	0	I/E Stability
CASPEED	IQUANT	4	Control Amp Speed
CONVENTION	IQUANT	1	Current Convention
ICHRANGE	IQUANT	2	Ich Range
ICHRANGEMODE	TOGGLE	T	Ich Auto Range
ICHOFFSETENABLE	TOGGLE	F	Ich Offset Enable
ICHOFFSET	QUANT	0	Ich Offset (V)
ICHFILTER	IQUANT	1	Ich Filter
VCHRANGE	IQUANT	2	Vch Range
VCHRANGEMODE	TOGGLE	T	Vch Auto Range
VCHOFFSETENABLE	TOGGLE	F	Vch Offset Enable
VCHOFFSET	QUANT	0	Vch Offset (V)
VCHFILTER	IQUANT	1	Vch Filter
IERANGELOWERLIMIT	IQUANT	9	I/E Range Lower Limit
IERANGEMODE	TOGGLE	F	I/E AutoRange
IERANGE	IQUANT	9	I/E Range
ACHSELECT	IQUANT	1	Ach Select
ACHRANGE	IQUANT	2	Ach Range
ACHOFFSETENABLE	TOGGLE	F	Ach Offset Enable
ACHOFFSET	QUANT	0	Ach Offset (V)
ACHFILTER	IQUANT	1	Ach Filter
CABLEID	IQUANT	14	Cable ID
DCCALDATE	LABEL	5-7-2017	DC Calibration Date
ACCALDATE	LABEL	12/3/2015	AC Calibration Date
FRAMEWORKVERSION	QUANT	7.01	Framework Version
INSTRUMENTVERSION	LABEL	4.00	Instrument Version
CURVE	TABLE	72
	Pt	T	Vf	Im	Vu	Pwr	Sig	Ach	Temp	IERange	Over
	#	s	V	A	V	W	V	V	deg C	#	bits
	0	0.013333	6.00033E-001	2.81499E-004	0.00000E+000	1.68909E-004	1.68088E-001	6.00321E-001	3.57760E+000	9	...........
	1	0.026667	6.29942E-001	2.81422E-004	0.00000E+000	1.77280E-004	1.68088E-001	6.30223E-001	3.57760E+000	9	...........
	2	0.04	6.55501E-001	2.80880E-004	0.00000E+000	1.84117E-004	1.68088E-001	6.55789E-001	3.57760E+000	9	...........
	3	0.053333	6.77902E-001	2.81403E-004	0.00000E+000	1.90764E-004	1.68088E-001	6.78190E-001	3.57760E+000	9	...........
	4	0.066667	6.97829E-001	2.81209E-004	0.00000E+000	1.96236E-004	1.68088E-001	6.98132E-001	3.57775E+000	9	...........
	5	0.08	7.15776E-001	2.80220E-004	0.00000E+000	2.00575E-004	1.68088E-001	7.16063E-001	3.57880E+000	9	...........
	6	0.093333	7.32073E-001	2.81751E-004	0.00000E+000	2.06263E-004	1.68088E-001	7.32366E-001	3.57880E+000	9	...........
	7	0.106667	7.46963E-001	2.81449E-004	0.00000E+000	2.10232E-004	1.68088E-001	7.47285E-001	3.57880E+000	9	...........
	8	0.12	7.60664E-001	2.80629E-004	0.00000E+000	2.13465E-004	1.68088E-001	7.60945E-001	3.57880E+000	9	...........
	9	0.133333	7.73309E-001	2.81465E-004	0.00000E+000	2.17659E-004	1.68088E-001	7.73596E-001	3.57880E+000	9	...........
	10	0.146667	7.84970E-001	2.80216E-004	0.00000E+000	2.19961E-004	1.68088E-001	7.85267E-001	3.57880E+000	9	...........
	11	0.16	7.95846E-001	2.80750E-004	0.00000E+000	2.23434E-004	1.68088E-001	7.96140E-001	3.57880E+000	9	...........
	12	0.173333	8.05969E-001	2.81065E-004	0.00000E+000	2.26530E-004	1.68088E-001	8.06238E-001	3.57880E+000	9	...........
	13	0.186667	8.15394E-001	2.81969E-004	0.00000E+000	2.29916E-004	1.68088E-001	8.15687E-001	3.57880E+000	9	...........
	14	0.2	8.24200E-001	2.81072E-004	0.00000E+000	2.31660E-004	1.68088E-001	8.24486E-001	3.57880E+000	9	...........
	15	0.213333	8.32450E-001	2.80703E-004	0.00000E+000	2.33672E-004	1.68088E-001	8.32761E-001	3.57880E+000	9	...........
	16	0.226667	8.40228E-001	2.82080E-004	0.00000E+000	2.37011E-004	1.68088E-001	8.40545E-001	3.57880E+000	9	...........
	17	0.24	8.47562E-001	2.80850E-004	0.00000E+000	2.38038E-004	1.68088E-001	8.47911E-001	3.57880E+000	9	...........
	18	0.253333	8.54440E-001	2.80901E-004	0.00000E+000	2.40013E-004	1.68088E-001	8.54784E-001	3.57880E+000	9	...........
	19	0.266667	8.60918E-001	2.80524E-004	0.00000E+000	2.41508E-004	1.68088E-001	8.61267E-001	3.57880E+000	9	...........
	20	0.28	8.67033E-001	2.80654E-004	0.00000E+000	2.43337E-004	1.68088E-001	8.67389E-001	3.57880E+000	9	...........
	21	0.293333	8.72854E-001	2.81160E-004	0.00000E+000	2.45411E-004	1.68088E-001	8.73201E-001	3.57880E+000	9	...........
	22	0.306667	8.78325E-001	2.81563E-004	0.00000E+000	2.47304E-004	1.68088E-001	8.78672E-001	3.57880E+000	9	...........
	23	0.32	8.83519E-001	2.82365E-004	0.00000E+000	2.49475E-004	1.68088E-001	8.83859E-001	3.57880E+000	9	...........
	24	0.333333	8.88450E-001	2.82086E-004	0.00000E+000	2.50619E-004	1.68088E-001	8.88789E-001	3.57880E+000	9	...........
	25	0.346667	8.93134E-001	2.80097E-004	0.00000E+000	2.50164E-004	1.68088E-001	8.93480E-001	3.57880E+000	9	...........
	26	0.36	8.97622E-001	2.81974E-004	0.00000E+000	2.53106E-004	1.68088E-001	8.97984E-001	3.57880E+000	9	...........
	27	0.373333	9.01840E-001	2.80919E-004	0.00000E+000	2.53344E-004	1.68088E-001	9.02204E-001	3.57880E+000	9	...........
	28	0.386667	9.05879E-001	2.81666E-004	0.00000E+000	2.55155E-004	1.68088E-001	9.06278E-001	3.57880E+000	9	...........
	29	0.4	9.09831E-001	2.80557E-004	0.00000E+000	2.55260E-004	1.68088E-001	9.10204E-001	3.57880E+000	9	...........
	30	0.413333	9.13572E-001	2.81807E-004	0.00000E+000	2.57451E-004	1.68088E-001	9.13958E-001	3.57880E+000	9	...........
	31	0.426667	9.17172E-001	2.79148E-004	0.00000E+000	2.56026E-004	1.68088E-001	9.17577E-001	3.57880E+000	9	...........
	32	0.44	9.20669E-001	2.81266E-004	0.00000E+000	2.58953E-004	1.68088E-001	9.21022E-001	3.57880E+000	9	...........
	33	0.453333	9.24033E-001	2.81394E-004	0.00000E+000	2.60017E-004	1.68088E-001	9.24352E-001	3.57880E+000	9	...........
	34	0.466667	9.27194E-001	2.80108E-004	0.00000E+000	2.59715E-004	1.68088E-001	9.27542E-001	3.57880E+000	9	...........
	35	0.48	9.30258E-001	2.80876E-004	0.00000E+000	2.61287E-004	1.68088E-001	9.30585E-001	3.57880E+000	9	...........
	36	0.493333	9.33193E-001	2.81600E-004	0.00000E+000	2.62787E-004	1.68088E-001	9.33547E-001	3.57880E+000	9	...........
	37	0.506667	9.36031E-001	2.81835E-004	0.00000E+000	2.63806E-004	1.68088E-001	9.36406E-001	3.57880E+000	9	...........
	38	0.52	9.38752E-001	2.81769E-004	0.00000E+000	2.64511E-004	1.68088E-001	9.39165E-001	3.57880E+000	9	...........
	39	0.533333	9.41431E-001	2.80917E-004	0.00000E+000	2.64464E-004	1.68088E-001	9.41798E-001	3.57880E+000	9	...........
	40	0.546667	9.43980E-001	2.81017E-004	0.00000E+000	2.65274E-004	1.68088E-001	9.44371E-001	3.57880E+000	9	...........
	41	0.56	9.46469E-001	2.81753E-004	0.00000E+000	2.66671E-004	1.68088E-001	9.46858E-001	3.57880E+000	9	...........
	42	0.573333	9.48925E-001	2.81843E-004	0.00000E+000	2.67448E-004	1.68088E-001	9.49291E-001	3.57880E+000	9	...........
	43	0.586667	9.51268E-001	2.80951E-004	0.00000E+000	2.67260E-004	1.68088E-001	9.51650E-001	3.57880E+000	9	...........
	44	0.6	9.53600E-001	2.81440E-004	0.00000E+000	2.68381E-004	1.68088E-001	9.53944E-001	3.57880E+000	9	...........
	45	0.613333	9.55831E-001	2.81127E-004	0.00000E+000	2.68710E-004	1.68088E-001	9.56159E-001	3.57880E+000	9	...........
	46	0.626667	9.57987E-001	2.81006E-004	0.00000E+000	2.69200E-004	1.68088E-001	9.58363E-001	3.57880E+000	9	...........
	47	0.64	9.60096E-001	2.80559E-004	0.00000E+000	2.69364E-004	1.68088E-001	9.60459E-001	3.57880E+000	9	...........
	48	0.653333	9.62168E-001	2.82684E-004	0.00000E+000	2.71989E-004	1.68088E-001	9.62548E-001	3.57880E+000	9	...........
	49	0.666667	9.64192E-001	2.81810E-004	0.00000E+000	2.71719E-004	1.68088E-001	9.64573E-001	3.57880E+000	9	...........
	50	0.68	9.66166E-001	2.81341E-004	0.00000E+000	2.71822E-004	1.68088E-001	9.66523E-001	3.57880E+000	9	...........
	51	0.693333	9.68060E-001	2.82019E-004	0.00000E+000	2.73012E-004	1.68088E-001	9.68434E-001	3.57880E+000	9	...........
	52	0.706667	9.69930E-001	2.81856E-004	0.00000E+000	2.73380E-004	1.68088E-001	9.70329E-001	3.57880E+000	9	...........
	53	0.72	9.71806E-001	2.81009E-004	0.00000E+000	2.73086E-004	1.68088E-001	9.72200E-001	3.57880E+000	9	...........
	54	0.733333	9.73639E-001	2.82063E-004	0.00000E+000	2.74627E-004	1.68088E-001	9.73976E-001	3.57880E+000	9	...........
	55	0.746667	9.75384E-001	2.81972E-004	0.00000E+000	2.75031E-004	1.68088E-001	9.75729E-001	3.57880E+000	9	...........
	56	0.76	9.77059E-001	2.80736E-004	0.00000E+000	2.74295E-004	1.68088E-001	9.77419E-001	3.57880E+000	9	...........
	57	0.773333	9.78764E-001	2.80343E-004	0.00000E+000	2.74390E-004	1.68088E-001	9.79133E-001	3.57880E+000	9	...........
	58	0.786667	9.80469E-001	2.79763E-004	0.00000E+000	2.74299E-004	1.68088E-001	9.80811E-001	3.57880E+000	9	...........
	59	0.8	9.82091E-001	2.81802E-004	0.00000E+000	2.76756E-004	1.68088E-001	9.82455E-001	3.57880E+000	9	...........
	60	0.813333	9.83720E-001	2.79696E-004	0.00000E+000	2.75142E-004	1.68088E-001	9.84099E-001	3.57880E+000	9	...........
	61	0.826667	9.85297E-001	2.81345E-004	0.00000E+000	2.77208E-004	1.68088E-001	9.85666E-001	3.57880E+000	9	...........
	62	0.84	9.86840E-001	2.81007E-004	0.00000E+000	2.77309E-004	1.68088E-001	9.87227E-001	3.57880E+000	9	...........
	63	0.853333	9.88335E-001	2.81081E-004	0.00000E+000	2.77803E-004	1.68088E-001	9.88695E-001	3.57880E+000	9	...........
	64	0.866667	9.89830E-001	2.81657E-004	0.00000E+000	2.78792E-004	1.68088E-001	9.90204E-001	3.57880E+000	9	...........
	65	0.88	9.91272E-001	2.81024E-004	0.00000E+000	2.78571E-004	1.68088E-001	9.91644E-001	3.57880E+000	9	...........
	66	0.893333	9.92706E-001	2.80800E-004	0.00000E+000	2.78752E-004	1.68088E-001	9.93102E-001	3.57880E+000	9	...........
	67	0.906667	9.94108E-001	2.81120E-004	0.00000E+000	2.79464E-004	1.68088E-001	9.94511E-001	3.57880E+000	9	...........
	68	0.92	9.95529E-001	2.81305E-004	0.00000E+000	2.80048E-004	1.68088E-001	9.95914E-001	3.57880E+000	9	...........
	69	0.933333	9.96885E-001	2.80516E-004	0.00000E+000	2.79642E-004	1.68088E-001	9.97297E-001	3.57880E+000	9	...........
	70	0.946667	9.98272E-001	2.81248E-004	0.00000E+000	2.80762E-004	1.68088E-001	9.98647E-001	3.57880E+000	9	...........
	71	0.95833	9.99552E-001	2.81229E-004	0.00000E+000	2.81102E-004	1.68088E-001	9.99886E-001	3.57880E+000	9	...........
STARTTIMEOFFSET	QUANT	1345.791	Start Time Offset (s)
