EXPLAIN
TAG	PWR800_CHARGE
TITLE	LABEL	PWR Cyclic Charge Discharge (Cell) - Charge Step	Test &Identifier
DATE	LABEL	7-7-2017	Date
TIME	LABEL	16:22:26	Time
NOTES	NOTES	3	&Notes...
	supercap test cell
	2.8mg
	6M KOH
PSTAT	PSTAT	IFC5000-01520	Potentiostat
CAPACITY	QUANT	1.00000E-003	Capacity (A-hr)
CELLTYPE	SELECTOR	1	&Cell Type
WORKINGCONNECTION	SELECTOR	0	&Working Lead
MAXCHARGETIME	VARIABLEANDUNITS	1.00000E+002	s	1.00000E+002	second(s)	Max &Charge Time
CHARGECURRENT	QUANT	2.80000E-004	&Charge Current (A) 
VOLTAGEFINISH	TWOPARAM	F	1.00000E-003	3.60000E+003	&Voltage Finish	 I (A) < 	Max Time(s)
SAMPLETIME	QUANT	1.00000E-002	Sa&mple Period (s)
CHARGESTOPAT1	MULTIPARAM	4	1.00000E+000	Charge Stop At &1	Voltage > Limit	V
CHARGESTOPAT2	MULTIPARAM	0	0.00000E+000	Charge Stop At &2	None	N/A
AESBHCSELECTOR	TOGGLE	F	Save Both Half Cells
IRCOMP	TOGGLE	F	IR &Measure
EOC	QUANT	0	Open Circuit (V)
SEQUENCER	TOGGLE	TRUE	Run as Sequence
PSTATMODEL	IQUANT	53	Pstat Model
PSTATSECTION	LABEL	IFC5000-01520	Pstat Section
PSTATSERIALNO	LABEL	01520	Pstat Serial Number
CTRLMODE	IQUANT	0	Control Mode
ELECTROMETER	IQUANT	1	RE=0 or CS=1
IESTAB	IQUANT	0	I/E Stability
CASPEED	IQUANT	4	Control Amp Speed
CONVENTION	IQUANT	1	Current Convention
ICHRANGE	IQUANT	2	Ich Range
ICHRANGEMODE	TOGGLE	T	Ich Auto Range
ICHOFFSETENABLE	TOGGLE	F	Ich Offset Enable
ICHOFFSET	QUANT	0	Ich Offset (V)
ICHFILTER	IQUANT	1	Ich Filter
VCHRANGE	IQUANT	2	Vch Range
VCHRANGEMODE	TOGGLE	T	Vch Auto Range
VCHOFFSETENABLE	TOGGLE	F	Vch Offset Enable
VCHOFFSET	QUANT	0	Vch Offset (V)
VCHFILTER	IQUANT	1	Vch Filter
IERANGELOWERLIMIT	IQUANT	9	I/E Range Lower Limit
IERANGEMODE	TOGGLE	F	I/E AutoRange
IERANGE	IQUANT	9	I/E Range
ACHSELECT	IQUANT	1	Ach Select
ACHRANGE	IQUANT	2	Ach Range
ACHOFFSETENABLE	TOGGLE	F	Ach Offset Enable
ACHOFFSET	QUANT	0	Ach Offset (V)
ACHFILTER	IQUANT	1	Ach Filter
CABLEID	IQUANT	14	Cable ID
DCCALDATE	LABEL	5-7-2017	DC Calibration Date
ACCALDATE	LABEL	12/3/2015	AC Calibration Date
FRAMEWORKVERSION	QUANT	7.01	Framework Version
INSTRUMENTVERSION	LABEL	4.00	Instrument Version
CURVE	TABLE	59
	Pt	T	Vf	Im	Vu	Pwr	Sig	Ach	Temp	IERange	Over
	#	s	V	A	V	W	V	V	deg C	#	bits
	0	0.013333	6.10233E-001	2.80015E-004	0.00000E+000	1.70874E-004	1.68088E-001	6.10500E-001	3.57880E+000	9	...........
	1	0.026667	6.40748E-001	2.81145E-004	0.00000E+000	1.80143E-004	1.68088E-001	6.41014E-001	3.57880E+000	9	...........
	2	0.04	6.67045E-001	2.81039E-004	0.00000E+000	1.87466E-004	1.68088E-001	6.67299E-001	3.57880E+000	9	...........
	3	0.053333	6.90219E-001	2.81529E-004	0.00000E+000	1.94317E-004	1.68088E-001	6.90457E-001	3.57880E+000	9	...........
	4	0.066667	7.10962E-001	2.81414E-004	0.00000E+000	2.00074E-004	1.68088E-001	7.11229E-001	3.57880E+000	9	...........
	5	0.08	7.29712E-001	2.82088E-004	0.00000E+000	2.05843E-004	1.68088E-001	7.29994E-001	3.57880E+000	9	...........
	6	0.093333	7.46820E-001	2.81136E-004	0.00000E+000	2.09958E-004	1.68088E-001	7.47085E-001	3.57880E+000	9	...........
	7	0.106667	7.62458E-001	2.80288E-004	0.00000E+000	2.13708E-004	1.68088E-001	7.62739E-001	3.57880E+000	9	...........
	8	0.12	7.76862E-001	2.81450E-004	0.00000E+000	2.18648E-004	1.68088E-001	7.77146E-001	3.57880E+000	9	...........
	9	0.133333	7.90121E-001	2.80335E-004	0.00000E+000	2.21499E-004	1.68088E-001	7.90440E-001	3.57880E+000	9	...........
	10	0.146667	8.02467E-001	2.82260E-004	0.00000E+000	2.26504E-004	1.68088E-001	8.02750E-001	3.57880E+000	9	...........
	11	0.16	8.13826E-001	2.81302E-004	0.00000E+000	2.28931E-004	1.68088E-001	8.14160E-001	3.57880E+000	9	...........
	12	0.173333	8.24460E-001	2.82087E-004	0.00000E+000	2.32569E-004	1.68088E-001	8.24787E-001	3.57880E+000	9	...........
	13	0.186667	8.34331E-001	2.79993E-004	0.00000E+000	2.33607E-004	1.68088E-001	8.34678E-001	3.57880E+000	9	...........
	14	0.2	8.43561E-001	2.80938E-004	0.00000E+000	2.36988E-004	1.68088E-001	8.43901E-001	3.57880E+000	9	...........
	15	0.213333	8.52200E-001	2.81361E-004	0.00000E+000	2.39776E-004	1.68088E-001	8.52544E-001	3.57880E+000	9	...........
	16	0.226667	8.60272E-001	2.81510E-004	0.00000E+000	2.42175E-004	1.68088E-001	8.60612E-001	3.57880E+000	9	...........
	17	0.24	8.67826E-001	2.80816E-004	0.00000E+000	2.43699E-004	1.68088E-001	8.68171E-001	3.57880E+000	9	...........
	18	0.253333	8.74940E-001	2.81692E-004	0.00000E+000	2.46464E-004	1.68088E-001	8.75276E-001	3.57880E+000	9	...........
	19	0.266667	8.81625E-001	2.80509E-004	0.00000E+000	2.47304E-004	1.68088E-001	8.81954E-001	3.57880E+000	9	...........
	20	0.28	8.87938E-001	2.80256E-004	0.00000E+000	2.48850E-004	1.68088E-001	8.88220E-001	3.57880E+000	9	...........
	21	0.293333	8.93807E-001	2.80643E-004	0.00000E+000	2.50840E-004	1.68088E-001	8.94147E-001	3.57880E+000	9	...........
	22	0.306667	8.99408E-001	2.82315E-004	0.00000E+000	2.53916E-004	1.68088E-001	8.99737E-001	3.57880E+000	9	...........
	23	0.32	9.04722E-001	2.80503E-004	0.00000E+000	2.53777E-004	1.68088E-001	9.05039E-001	3.57880E+000	9	...........
	24	0.333333	9.09766E-001	2.80873E-004	0.00000E+000	2.55529E-004	1.68088E-001	9.10055E-001	3.57880E+000	9	...........
	25	0.346667	9.14509E-001	2.81002E-004	0.00000E+000	2.56979E-004	1.68088E-001	9.14813E-001	3.57880E+000	9	...........
	26	0.36	9.19050E-001	2.81377E-004	0.00000E+000	2.58600E-004	1.68088E-001	9.19360E-001	3.57880E+000	9	...........
	27	0.373333	9.23383E-001	2.80796E-004	0.00000E+000	2.59282E-004	1.68088E-001	9.23673E-001	3.57880E+000	9	...........
	28	0.386667	9.27479E-001	2.81396E-004	0.00000E+000	2.60989E-004	1.68088E-001	9.27808E-001	3.57880E+000	9	...........
	29	0.4	9.31386E-001	2.83350E-004	0.00000E+000	2.63908E-004	1.68088E-001	9.31714E-001	3.57880E+000	9	...........
	30	0.413333	9.35118E-001	2.80681E-004	0.00000E+000	2.62470E-004	1.68088E-001	9.35452E-001	3.57880E+000	9	...........
	31	0.426667	9.38676E-001	2.79693E-004	0.00000E+000	2.62541E-004	1.68088E-001	9.39008E-001	3.57880E+000	9	...........
	32	0.44	9.42078E-001	2.81013E-004	0.00000E+000	2.64736E-004	1.68088E-001	9.42354E-001	3.57880E+000	9	...........
	33	0.453333	9.45337E-001	2.80875E-004	0.00000E+000	2.65522E-004	1.68088E-001	9.45654E-001	3.57880E+000	9	...........
	34	0.466667	9.48477E-001	2.81041E-004	0.00000E+000	2.66561E-004	1.68088E-001	9.48790E-001	3.57880E+000	9	...........
	35	0.48	9.51492E-001	2.80342E-004	0.00000E+000	2.66743E-004	1.68088E-001	9.51805E-001	3.57880E+000	9	...........
	36	0.493333	9.54405E-001	2.80567E-004	0.00000E+000	2.67774E-004	1.68088E-001	9.54724E-001	3.57880E+000	9	...........
	37	0.506667	9.57185E-001	2.81548E-004	0.00000E+000	2.69494E-004	1.68088E-001	9.57480E-001	3.57880E+000	9	...........
	38	0.52	9.59865E-001	2.80942E-004	0.00000E+000	2.69666E-004	1.68088E-001	9.60190E-001	3.57880E+000	9	...........
	39	0.533333	9.62438E-001	2.81413E-004	0.00000E+000	2.70842E-004	1.68088E-001	9.62806E-001	3.57880E+000	9	...........
	40	0.546667	9.64956E-001	2.80677E-004	0.00000E+000	2.70841E-004	1.68088E-001	9.65289E-001	3.57880E+000	9	...........
	41	0.56	9.67386E-001	2.80410E-004	0.00000E+000	2.71265E-004	1.68088E-001	9.67724E-001	3.57880E+000	9	...........
	42	0.573333	9.69761E-001	2.81859E-004	0.00000E+000	2.73336E-004	1.68088E-001	9.70114E-001	3.57880E+000	9	...........
	43	0.586667	9.72059E-001	2.81758E-004	0.00000E+000	2.73885E-004	1.68088E-001	9.72460E-001	3.57880E+000	9	...........
	44	0.6	9.74340E-001	2.82063E-004	0.00000E+000	2.74825E-004	1.68088E-001	9.74681E-001	3.57885E+000	9	...........
	45	0.613333	9.76510E-001	2.80726E-004	0.00000E+000	2.74132E-004	1.68088E-001	9.76846E-001	3.57890E+000	9	...........
	46	0.626667	9.78627E-001	2.80296E-004	0.00000E+000	2.74305E-004	1.68088E-001	9.78959E-001	3.57890E+000	9	...........
	47	0.64	9.80670E-001	2.80313E-004	0.00000E+000	2.74894E-004	1.68088E-001	9.80991E-001	3.57890E+000	9	...........
	48	0.653333	9.82662E-001	2.80728E-004	0.00000E+000	2.75861E-004	1.68088E-001	9.83010E-001	3.57890E+000	9	...........
	49	0.666667	9.84565E-001	2.80998E-004	0.00000E+000	2.76661E-004	1.68088E-001	9.84949E-001	3.57890E+000	9	...........
	50	0.68	9.86480E-001	2.81042E-004	0.00000E+000	2.77242E-004	1.68088E-001	9.86871E-001	3.57890E+000	9	...........
	51	0.693333	9.88330E-001	2.80650E-004	0.00000E+000	2.77375E-004	1.68088E-001	9.88710E-001	3.57890E+000	9	...........
	52	0.706667	9.90139E-001	2.81889E-004	0.00000E+000	2.79109E-004	1.68088E-001	9.90504E-001	3.57890E+000	9	...........
	53	0.72	9.91878E-001	2.81981E-004	0.00000E+000	2.79690E-004	1.68088E-001	9.92260E-001	3.57890E+000	9	...........
	54	0.733333	9.93585E-001	2.80886E-004	0.00000E+000	2.79084E-004	1.68088E-001	9.93951E-001	3.57890E+000	9	...........
	55	0.746667	9.95287E-001	2.81399E-004	0.00000E+000	2.80073E-004	1.68088E-001	9.95641E-001	3.57890E+000	9	...........
	56	0.76	9.96927E-001	2.80621E-004	0.00000E+000	2.79759E-004	1.68088E-001	9.97296E-001	3.57890E+000	9	...........
	57	0.773333	9.98573E-001	2.80462E-004	0.00000E+000	2.80061E-004	1.68088E-001	9.98920E-001	3.57890E+000	9	...........
	58	0.78	9.99763E-001	2.81419E-004	0.00000E+000	2.81352E-004	1.68088E-001	1.00012E+000	3.57890E+000	9	...........
STARTTIMEOFFSET	QUANT	2016.802	Start Time Offset (s)
