EXPLAIN
TAG	PWR800_CHARGE
TITLE	LABEL	PWR Cyclic Charge Discharge (Cell) - Charge Step	Test &Identifier
DATE	LABEL	7-7-2017	Date
TIME	LABEL	15:49:21	Time
NOTES	NOTES	3	&Notes...
	supercap test cell
	2.8mg
	6M KOH
PSTAT	PSTAT	IFC5000-01520	Potentiostat
CAPACITY	QUANT	1.00000E-003	Capacity (A-hr)
CELLTYPE	SELECTOR	1	&Cell Type
WORKINGCONNECTION	SELECTOR	0	&Working Lead
MAXCHARGETIME	VARIABLEANDUNITS	1.00000E+002	s	1.00000E+002	second(s)	Max &Charge Time
CHARGECURRENT	QUANT	2.80000E-004	&Charge Current (A) 
VOLTAGEFINISH	TWOPARAM	F	1.00000E-003	3.60000E+003	&Voltage Finish	 I (A) < 	Max Time(s)
SAMPLETIME	QUANT	1.00000E-002	Sa&mple Period (s)
CHARGESTOPAT1	MULTIPARAM	4	1.00000E+000	Charge Stop At &1	Voltage > Limit	V
CHARGESTOPAT2	MULTIPARAM	0	0.00000E+000	Charge Stop At &2	None	N/A
AESBHCSELECTOR	TOGGLE	F	Save Both Half Cells
IRCOMP	TOGGLE	F	IR &Measure
EOC	QUANT	0	Open Circuit (V)
SEQUENCER	TOGGLE	TRUE	Run as Sequence
PSTATMODEL	IQUANT	53	Pstat Model
PSTATSECTION	LABEL	IFC5000-01520	Pstat Section
PSTATSERIALNO	LABEL	01520	Pstat Serial Number
CTRLMODE	IQUANT	0	Control Mode
ELECTROMETER	IQUANT	1	RE=0 or CS=1
IESTAB	IQUANT	0	I/E Stability
CASPEED	IQUANT	4	Control Amp Speed
CONVENTION	IQUANT	1	Current Convention
ICHRANGE	IQUANT	2	Ich Range
ICHRANGEMODE	TOGGLE	T	Ich Auto Range
ICHOFFSETENABLE	TOGGLE	F	Ich Offset Enable
ICHOFFSET	QUANT	0	Ich Offset (V)
ICHFILTER	IQUANT	1	Ich Filter
VCHRANGE	IQUANT	2	Vch Range
VCHRANGEMODE	TOGGLE	T	Vch Auto Range
VCHOFFSETENABLE	TOGGLE	F	Vch Offset Enable
VCHOFFSET	QUANT	0	Vch Offset (V)
VCHFILTER	IQUANT	1	Vch Filter
IERANGELOWERLIMIT	IQUANT	9	I/E Range Lower Limit
IERANGEMODE	TOGGLE	F	I/E AutoRange
IERANGE	IQUANT	9	I/E Range
ACHSELECT	IQUANT	1	Ach Select
ACHRANGE	IQUANT	2	Ach Range
ACHOFFSETENABLE	TOGGLE	F	Ach Offset Enable
ACHOFFSET	QUANT	0	Ach Offset (V)
ACHFILTER	IQUANT	1	Ach Filter
CABLEID	IQUANT	14	Cable ID
DCCALDATE	LABEL	5-7-2017	DC Calibration Date
ACCALDATE	LABEL	12/3/2015	AC Calibration Date
FRAMEWORKVERSION	QUANT	7.01	Framework Version
INSTRUMENTVERSION	LABEL	4.00	Instrument Version
CURVE	TABLE	107
	Pt	T	Vf	Im	Vu	Pwr	Sig	Ach	Temp	IERange	Over
	#	s	V	A	V	W	V	V	deg C	#	bits
	0	0.013333	5.81663E-001	2.81421E-004	0.00000E+000	1.63692E-004	1.68088E-001	5.81931E-001	3.57930E+000	9	...........
	1	0.026667	6.10633E-001	2.81068E-004	0.00000E+000	1.71629E-004	1.68088E-001	6.10906E-001	3.57930E+000	9	...........
	2	0.04	6.35057E-001	2.80776E-004	0.00000E+000	1.78309E-004	1.68088E-001	6.35342E-001	3.57930E+000	9	...........
	3	0.053333	6.56218E-001	2.80917E-004	0.00000E+000	1.84343E-004	1.68088E-001	6.56492E-001	3.57930E+000	9	...........
	4	0.066667	6.74832E-001	2.80413E-004	0.00000E+000	1.89231E-004	1.68088E-001	6.75110E-001	3.57930E+000	9	...........
	5	0.08	6.91427E-001	2.81010E-004	0.00000E+000	1.94298E-004	1.68088E-001	6.91733E-001	3.57930E+000	9	...........
	6	0.093333	7.06395E-001	2.80403E-004	0.00000E+000	1.98075E-004	1.68088E-001	7.06690E-001	3.57930E+000	9	...........
	7	0.106667	7.20006E-001	2.81147E-004	0.00000E+000	2.02428E-004	1.68088E-001	7.20301E-001	3.57930E+000	9	...........
	8	0.12	7.32456E-001	2.81551E-004	0.00000E+000	2.06224E-004	1.68088E-001	7.32753E-001	3.57930E+000	9	...........
	9	0.133333	7.43901E-001	2.81418E-004	0.00000E+000	2.09347E-004	1.68088E-001	7.44170E-001	3.57930E+000	9	...........
	10	0.146667	7.54480E-001	2.81337E-004	0.00000E+000	2.12263E-004	1.68088E-001	7.54749E-001	3.57930E+000	9	...........
	11	0.16	7.64278E-001	2.81386E-004	0.00000E+000	2.15057E-004	1.68088E-001	7.64591E-001	3.57930E+000	9	...........
	12	0.173333	7.73410E-001	2.80362E-004	0.00000E+000	2.16834E-004	1.68088E-001	7.73714E-001	3.57930E+000	9	...........
	13	0.186667	7.81917E-001	2.81809E-004	0.00000E+000	2.20351E-004	1.68088E-001	7.82211E-001	3.57930E+000	9	...........
	14	0.2	7.89867E-001	2.80937E-004	0.00000E+000	2.21903E-004	1.68088E-001	7.90177E-001	3.57930E+000	9	...........
	15	0.213333	7.97347E-001	2.80621E-004	0.00000E+000	2.23752E-004	1.68088E-001	7.97670E-001	3.57930E+000	9	...........
	16	0.226667	8.04407E-001	2.81201E-004	0.00000E+000	2.26200E-004	1.68088E-001	8.04727E-001	3.57930E+000	9	...........
	17	0.24	8.11044E-001	2.81817E-004	0.00000E+000	2.28566E-004	1.68088E-001	8.11376E-001	3.57930E+000	9	...........
	18	0.253333	8.17305E-001	2.81857E-004	0.00000E+000	2.30363E-004	1.68088E-001	8.17641E-001	3.57930E+000	9	...........
	19	0.266667	8.23221E-001	2.81410E-004	0.00000E+000	2.31662E-004	1.68088E-001	8.23568E-001	3.57927E+000	9	...........
	20	0.28	8.28805E-001	2.81441E-004	0.00000E+000	2.33260E-004	1.68088E-001	8.29151E-001	3.57910E+000	9	...........
	21	0.293333	8.34130E-001	2.80599E-004	0.00000E+000	2.34056E-004	1.68088E-001	8.34493E-001	3.57910E+000	9	...........
	22	0.306667	8.39197E-001	2.80960E-004	0.00000E+000	2.35780E-004	1.68088E-001	8.39566E-001	3.57910E+000	9	...........
	23	0.32	8.44028E-001	2.81511E-004	0.00000E+000	2.37603E-004	1.68088E-001	8.44416E-001	3.57910E+000	9	...........
	24	0.333333	8.48660E-001	2.80987E-004	0.00000E+000	2.38462E-004	1.68088E-001	8.48987E-001	3.57910E+000	9	...........
	25	0.346667	8.53053E-001	2.81977E-004	0.00000E+000	2.40542E-004	1.68088E-001	8.53373E-001	3.57910E+000	9	...........
	26	0.36	8.57260E-001	2.81154E-004	0.00000E+000	2.41022E-004	1.68088E-001	8.57594E-001	3.57910E+000	9	...........
	27	0.373333	8.61288E-001	2.82151E-004	0.00000E+000	2.43014E-004	1.68088E-001	8.61641E-001	3.57910E+000	9	...........
	28	0.386667	8.65131E-001	2.81169E-004	0.00000E+000	2.43248E-004	1.68088E-001	8.65484E-001	3.57910E+000	9	...........
	29	0.4	8.68896E-001	2.80477E-004	0.00000E+000	2.43706E-004	1.68088E-001	8.69233E-001	3.57910E+000	9	...........
	30	0.413333	8.72464E-001	2.81109E-004	0.00000E+000	2.45257E-004	1.68088E-001	8.72834E-001	3.57910E+000	9	...........
	31	0.426667	8.75935E-001	2.81538E-004	0.00000E+000	2.46609E-004	1.68088E-001	8.76282E-001	3.57910E+000	9	...........
	32	0.44	8.79261E-001	2.80661E-004	0.00000E+000	2.46774E-004	1.68088E-001	8.79608E-001	3.57910E+000	9	...........
	33	0.453333	8.82494E-001	2.81723E-004	0.00000E+000	2.48619E-004	1.68088E-001	8.82832E-001	3.57910E+000	9	...........
	34	0.466667	8.85614E-001	2.81788E-004	0.00000E+000	2.49555E-004	1.68088E-001	8.85948E-001	3.57910E+000	9	...........
	35	0.48	8.88610E-001	2.81771E-004	0.00000E+000	2.50385E-004	1.68088E-001	8.88960E-001	3.57910E+000	9	...........
	36	0.493333	8.91551E-001	2.80224E-004	0.00000E+000	2.49834E-004	1.68088E-001	8.91894E-001	3.57910E+000	9	...........
	37	0.506667	8.94395E-001	2.80529E-004	0.00000E+000	2.50904E-004	1.68088E-001	8.94730E-001	3.57910E+000	9	...........
	38	0.52	8.97135E-001	2.81316E-004	0.00000E+000	2.52378E-004	1.68088E-001	8.97487E-001	3.57910E+000	9	...........
	39	0.533333	8.99790E-001	2.81496E-004	0.00000E+000	2.53287E-004	1.68088E-001	9.00099E-001	3.57910E+000	9	...........
	40	0.546667	9.02271E-001	2.81144E-004	0.00000E+000	2.53668E-004	1.68088E-001	9.02632E-001	3.57910E+000	9	...........
	41	0.56	9.04773E-001	2.81150E-004	0.00000E+000	2.54377E-004	1.68088E-001	9.05110E-001	3.57910E+000	9	...........
	42	0.573333	9.07203E-001	2.80766E-004	0.00000E+000	2.54712E-004	1.68088E-001	9.07553E-001	3.57910E+000	9	...........
	43	0.586667	9.09579E-001	2.81114E-004	0.00000E+000	2.55695E-004	1.68088E-001	9.09932E-001	3.57910E+000	9	...........
	44	0.6	9.11898E-001	2.80778E-004	0.00000E+000	2.56041E-004	1.68088E-001	9.12247E-001	3.57910E+000	9	...........
	45	0.613333	9.14117E-001	2.80955E-004	0.00000E+000	2.56826E-004	1.68088E-001	9.14493E-001	3.57910E+000	9	...........
	46	0.626667	9.16284E-001	2.80826E-004	0.00000E+000	2.57317E-004	1.68088E-001	9.16669E-001	3.57910E+000	9	...........
	47	0.64	9.18438E-001	2.81181E-004	0.00000E+000	2.58248E-004	1.68088E-001	9.18820E-001	3.57910E+000	9	...........
	48	0.653333	9.20584E-001	2.80942E-004	0.00000E+000	2.58631E-004	1.68088E-001	9.20905E-001	3.57910E+000	9	...........
	49	0.666667	9.22634E-001	2.81048E-004	0.00000E+000	2.59304E-004	1.68088E-001	9.22938E-001	3.57910E+000	9	...........
	50	0.68	9.24579E-001	2.81190E-004	0.00000E+000	2.59982E-004	1.68088E-001	9.24897E-001	3.57910E+000	9	...........
	51	0.693333	9.26544E-001	2.81435E-004	0.00000E+000	2.60762E-004	1.68088E-001	9.26874E-001	3.57910E+000	9	...........
	52	0.706667	9.28511E-001	2.82361E-004	0.00000E+000	2.62175E-004	1.68088E-001	9.28827E-001	3.57910E+000	9	...........
	53	0.72	9.30405E-001	2.81325E-004	0.00000E+000	2.61747E-004	1.68088E-001	9.30712E-001	3.57910E+000	9	...........
	54	0.733333	9.32279E-001	2.81002E-004	0.00000E+000	2.61972E-004	1.68088E-001	9.32582E-001	3.57910E+000	9	...........
	55	0.746667	9.34034E-001	2.82280E-004	0.00000E+000	2.63659E-004	1.68088E-001	9.34385E-001	3.57910E+000	9	...........
	56	0.76	9.35790E-001	2.80596E-004	0.00000E+000	2.62579E-004	1.68088E-001	9.36117E-001	3.57910E+000	9	...........
	57	0.773333	9.37545E-001	2.81759E-004	0.00000E+000	2.64162E-004	1.68088E-001	9.37894E-001	3.57910E+000	9	...........
	58	0.786667	9.39260E-001	2.81740E-004	0.00000E+000	2.64627E-004	1.68088E-001	9.39640E-001	3.57910E+000	9	...........
	59	0.8	9.40960E-001	2.81220E-004	0.00000E+000	2.64617E-004	1.68088E-001	9.41321E-001	3.57910E+000	9	...........
	60	0.813333	9.42605E-001	2.81133E-004	0.00000E+000	2.64997E-004	1.68088E-001	9.42960E-001	3.57910E+000	9	...........
	61	0.826667	9.44233E-001	2.81084E-004	0.00000E+000	2.65408E-004	1.68088E-001	9.44590E-001	3.57910E+000	9	...........
	62	0.84	9.45847E-001	2.82222E-004	0.00000E+000	2.66939E-004	1.68088E-001	9.46210E-001	3.57910E+000	9	...........
	63	0.853333	9.47480E-001	2.81227E-004	0.00000E+000	2.66457E-004	1.68088E-001	9.47798E-001	3.57910E+000	9	...........
	64	0.866667	9.49010E-001	2.80903E-004	0.00000E+000	2.66580E-004	1.68088E-001	9.49374E-001	3.57910E+000	9	...........
	65	0.88	9.50544E-001	2.81078E-004	0.00000E+000	2.67177E-004	1.68088E-001	9.50908E-001	3.57910E+000	9	...........
	66	0.893333	9.52073E-001	2.80647E-004	0.00000E+000	2.67197E-004	1.68088E-001	9.52450E-001	3.57910E+000	9	...........
	67	0.906667	9.53599E-001	2.80931E-004	0.00000E+000	2.67896E-004	1.68088E-001	9.53949E-001	3.57910E+000	9	...........
	68	0.92	9.55062E-001	2.81771E-004	0.00000E+000	2.69109E-004	1.68088E-001	9.55419E-001	3.57910E+000	9	...........
	69	0.933333	9.56521E-001	2.81875E-004	0.00000E+000	2.69620E-004	1.68088E-001	9.56896E-001	3.57910E+000	9	...........
	70	0.946667	9.57932E-001	2.81270E-004	0.00000E+000	2.69437E-004	1.68088E-001	9.58311E-001	3.57910E+000	9	...........
	71	0.96	9.59354E-001	2.81154E-004	0.00000E+000	2.69726E-004	1.68088E-001	9.59743E-001	3.57910E+000	9	...........
	72	0.97333	9.60738E-001	2.81328E-004	0.00000E+000	2.70283E-004	1.68088E-001	9.61144E-001	3.57910E+000	9	...........
	73	0.98667	9.62117E-001	2.81322E-004	0.00000E+000	2.70665E-004	1.68088E-001	9.62503E-001	3.57910E+000	9	...........
	74	1	9.63440E-001	2.81189E-004	0.00000E+000	2.70908E-004	1.68088E-001	9.63871E-001	3.57910E+000	9	...........
	75	1.01333	9.64747E-001	2.81020E-004	0.00000E+000	2.71113E-004	1.68088E-001	9.65159E-001	3.57910E+000	9	...........
	76	1.02667	9.66062E-001	2.80730E-004	0.00000E+000	2.71203E-004	1.68088E-001	9.66448E-001	3.57910E+000	9	...........
	77	1.04	9.67363E-001	2.80356E-004	0.00000E+000	2.71206E-004	1.68088E-001	9.67760E-001	3.57910E+000	9	...........
	78	1.05333	9.68657E-001	2.80637E-004	0.00000E+000	2.71841E-004	1.68088E-001	9.69066E-001	3.57910E+000	9	...........
	79	1.06667	9.69950E-001	2.81339E-004	0.00000E+000	2.72885E-004	1.68088E-001	9.70383E-001	3.57910E+000	9	...........
	80	1.08	9.71232E-001	2.81382E-004	0.00000E+000	2.73287E-004	1.68088E-001	9.71658E-001	3.57910E+000	9	...........
	81	1.09333	9.72520E-001	2.81650E-004	0.00000E+000	2.73910E-004	1.68088E-001	9.72916E-001	3.57910E+000	9	...........
	82	1.10667	9.73726E-001	2.81685E-004	0.00000E+000	2.74284E-004	1.68088E-001	9.74140E-001	3.57910E+000	9	...........
	83	1.12	9.74967E-001	2.81095E-004	0.00000E+000	2.74058E-004	1.68088E-001	9.75351E-001	3.57910E+000	9	...........
	84	1.13333	9.76163E-001	2.81073E-004	0.00000E+000	2.74373E-004	1.68088E-001	9.76516E-001	3.57910E+000	9	...........
	85	1.14667	9.77309E-001	2.80479E-004	0.00000E+000	2.74115E-004	1.68088E-001	9.77699E-001	3.57910E+000	9	...........
	86	1.16	9.78483E-001	2.81518E-004	0.00000E+000	2.75461E-004	1.68088E-001	9.78853E-001	3.57910E+000	9	...........
	87	1.17333	9.79645E-001	2.80936E-004	0.00000E+000	2.75217E-004	1.68088E-001	9.80000E-001	3.57910E+000	9	...........
	88	1.18667	9.80775E-001	2.81869E-004	0.00000E+000	2.76450E-004	1.68088E-001	9.81134E-001	3.57910E+000	9	...........
	89	1.2	9.81881E-001	2.80984E-004	0.00000E+000	2.75892E-004	1.68088E-001	9.82259E-001	3.57910E+000	9	...........
	90	1.21333	9.82995E-001	2.81191E-004	0.00000E+000	2.76409E-004	1.68088E-001	9.83380E-001	3.57910E+000	9	...........
	91	1.22667	9.84094E-001	2.81032E-004	0.00000E+000	2.76562E-004	1.68088E-001	9.84464E-001	3.57910E+000	9	...........
	92	1.24	9.85192E-001	2.81286E-004	0.00000E+000	2.77120E-004	1.68088E-001	9.85569E-001	3.57910E+000	9	...........
	93	1.25333	9.86280E-001	2.81525E-004	0.00000E+000	2.77663E-004	1.68088E-001	9.86637E-001	3.57910E+000	9	...........
	94	1.26667	9.87364E-001	2.81444E-004	0.00000E+000	2.77888E-004	1.68088E-001	9.87722E-001	3.57897E+000	9	...........
	95	1.28	9.88454E-001	2.81227E-004	0.00000E+000	2.77980E-004	1.68088E-001	9.88825E-001	3.57810E+000	9	...........
	96	1.29333	9.89505E-001	2.81521E-004	0.00000E+000	2.78566E-004	1.68088E-001	9.89881E-001	3.57810E+000	9	...........
	97	1.30667	9.90570E-001	2.80805E-004	0.00000E+000	2.78157E-004	1.68088E-001	9.90916E-001	3.57810E+000	9	...........
	98	1.32	9.91600E-001	2.81247E-004	0.00000E+000	2.78885E-004	1.68088E-001	9.91930E-001	3.57810E+000	9	...........
	99	1.33333	9.92597E-001	2.81176E-004	0.00000E+000	2.79095E-004	1.68088E-001	9.92941E-001	3.57810E+000	9	...........
	100	1.34667	9.93590E-001	2.80919E-004	0.00000E+000	2.79118E-004	1.68088E-001	9.93957E-001	3.57810E+000	9	...........
	101	1.36	9.94598E-001	2.81646E-004	0.00000E+000	2.80125E-004	1.68088E-001	9.94975E-001	3.57810E+000	9	...........
	102	1.37333	9.95631E-001	2.81416E-004	0.00000E+000	2.80186E-004	1.68088E-001	9.96005E-001	3.57810E+000	9	...........
	103	1.38667	9.96625E-001	2.81238E-004	0.00000E+000	2.80288E-004	1.68088E-001	9.97041E-001	3.57810E+000	9	...........
	104	1.4	9.97640E-001	2.81131E-004	0.00000E+000	2.80468E-004	1.68088E-001	9.98065E-001	3.57810E+000	9	...........
	105	1.41333	9.98632E-001	2.80139E-004	0.00000E+000	2.79755E-004	1.68088E-001	9.99039E-001	3.57810E+000	9	...........
	106	1.42667	9.99652E-001	2.81235E-004	0.00000E+000	2.81137E-004	1.68088E-001	1.00004E+000	3.57810E+000	9	...........
STARTTIMEOFFSET	QUANT	642.8368	Start Time Offset (s)
