EXPLAIN
TAG	PWR800_CHARGE
TITLE	LABEL	PWR Cyclic Charge Discharge (Cell) - Charge Step	Test &Identifier
DATE	LABEL	7-7-2017	Date
TIME	LABEL	16:21:49	Time
NOTES	NOTES	3	&Notes...
	supercap test cell
	2.8mg
	6M KOH
PSTAT	PSTAT	IFC5000-01520	Potentiostat
CAPACITY	QUANT	1.00000E-003	Capacity (A-hr)
CELLTYPE	SELECTOR	1	&Cell Type
WORKINGCONNECTION	SELECTOR	0	&Working Lead
MAXCHARGETIME	VARIABLEANDUNITS	1.00000E+002	s	1.00000E+002	second(s)	Max &Charge Time
CHARGECURRENT	QUANT	2.80000E-004	&Charge Current (A) 
VOLTAGEFINISH	TWOPARAM	F	1.00000E-003	3.60000E+003	&Voltage Finish	 I (A) < 	Max Time(s)
SAMPLETIME	QUANT	1.00000E-002	Sa&mple Period (s)
CHARGESTOPAT1	MULTIPARAM	4	1.00000E+000	Charge Stop At &1	Voltage > Limit	V
CHARGESTOPAT2	MULTIPARAM	0	0.00000E+000	Charge Stop At &2	None	N/A
AESBHCSELECTOR	TOGGLE	F	Save Both Half Cells
IRCOMP	TOGGLE	F	IR &Measure
EOC	QUANT	0	Open Circuit (V)
SEQUENCER	TOGGLE	TRUE	Run as Sequence
PSTATMODEL	IQUANT	53	Pstat Model
PSTATSECTION	LABEL	IFC5000-01520	Pstat Section
PSTATSERIALNO	LABEL	01520	Pstat Serial Number
CTRLMODE	IQUANT	0	Control Mode
ELECTROMETER	IQUANT	1	RE=0 or CS=1
IESTAB	IQUANT	0	I/E Stability
CASPEED	IQUANT	4	Control Amp Speed
CONVENTION	IQUANT	1	Current Convention
ICHRANGE	IQUANT	2	Ich Range
ICHRANGEMODE	TOGGLE	T	Ich Auto Range
ICHOFFSETENABLE	TOGGLE	F	Ich Offset Enable
ICHOFFSET	QUANT	0	Ich Offset (V)
ICHFILTER	IQUANT	1	Ich Filter
VCHRANGE	IQUANT	2	Vch Range
VCHRANGEMODE	TOGGLE	T	Vch Auto Range
VCHOFFSETENABLE	TOGGLE	F	Vch Offset Enable
VCHOFFSET	QUANT	0	Vch Offset (V)
VCHFILTER	IQUANT	1	Vch Filter
IERANGELOWERLIMIT	IQUANT	9	I/E Range Lower Limit
IERANGEMODE	TOGGLE	F	I/E AutoRange
IERANGE	IQUANT	9	I/E Range
ACHSELECT	IQUANT	1	Ach Select
ACHRANGE	IQUANT	2	Ach Range
ACHOFFSETENABLE	TOGGLE	F	Ach Offset Enable
ACHOFFSET	QUANT	0	Ach Offset (V)
ACHFILTER	IQUANT	1	Ach Filter
CABLEID	IQUANT	14	Cable ID
DCCALDATE	LABEL	5-7-2017	DC Calibration Date
ACCALDATE	LABEL	12/3/2015	AC Calibration Date
FRAMEWORKVERSION	QUANT	7.01	Framework Version
INSTRUMENTVERSION	LABEL	4.00	Instrument Version
CURVE	TABLE	59
	Pt	T	Vf	Im	Vu	Pwr	Sig	Ach	Temp	IERange	Over
	#	s	V	A	V	W	V	V	deg C	#	bits
	0	0.013333	6.19125E-001	2.81574E-004	0.00000E+000	1.74330E-004	1.68088E-001	6.19369E-001	3.57730E+000	9	...........
	1	0.026667	6.48767E-001	2.81040E-004	0.00000E+000	1.82329E-004	1.68088E-001	6.49003E-001	3.57730E+000	9	...........
	2	0.04	6.74338E-001	2.80885E-004	0.00000E+000	1.89411E-004	1.68088E-001	6.74597E-001	3.57730E+000	9	...........
	3	0.053333	6.96899E-001	2.81455E-004	0.00000E+000	1.96146E-004	1.68088E-001	6.97132E-001	3.57730E+000	9	...........
	4	0.066667	7.17101E-001	2.81060E-004	0.00000E+000	2.01548E-004	1.68088E-001	7.17333E-001	3.57730E+000	9	...........
	5	0.08	7.35321E-001	2.80574E-004	0.00000E+000	2.06312E-004	1.68088E-001	7.35563E-001	3.57730E+000	9	...........
	6	0.093333	7.51974E-001	2.80850E-004	0.00000E+000	2.11192E-004	1.68088E-001	7.52209E-001	3.57730E+000	9	...........
	7	0.106667	7.67185E-001	2.82144E-004	0.00000E+000	2.16457E-004	1.68088E-001	7.67439E-001	3.57730E+000	9	...........
	8	0.12	7.81196E-001	2.81771E-004	0.00000E+000	2.20119E-004	1.68088E-001	7.81444E-001	3.57730E+000	9	...........
	9	0.133333	7.94109E-001	2.81489E-004	0.00000E+000	2.23533E-004	1.68088E-001	7.94385E-001	3.57730E+000	9	...........
	10	0.146667	8.06089E-001	2.80896E-004	0.00000E+000	2.26427E-004	1.68088E-001	8.06350E-001	3.57730E+000	9	...........
	11	0.16	8.17175E-001	2.81479E-004	0.00000E+000	2.30018E-004	1.68088E-001	8.17471E-001	3.57730E+000	9	...........
	12	0.173333	8.27505E-001	2.80664E-004	0.00000E+000	2.32251E-004	1.68088E-001	8.27807E-001	3.57730E+000	9	...........
	13	0.186667	8.37093E-001	2.81286E-004	0.00000E+000	2.35462E-004	1.68088E-001	8.37431E-001	3.57730E+000	9	...........
	14	0.2	8.46093E-001	2.80789E-004	0.00000E+000	2.37573E-004	1.68088E-001	8.46413E-001	3.57730E+000	9	...........
	15	0.213333	8.54499E-001	2.80900E-004	0.00000E+000	2.40029E-004	1.68088E-001	8.54828E-001	3.57730E+000	9	...........
	16	0.226667	8.62339E-001	2.81318E-004	0.00000E+000	2.42591E-004	1.68088E-001	8.62676E-001	3.57730E+000	9	...........
	17	0.24	8.69698E-001	2.80708E-004	0.00000E+000	2.44132E-004	1.68088E-001	8.70036E-001	3.57730E+000	9	...........
	18	0.253333	8.76644E-001	2.80328E-004	0.00000E+000	2.45748E-004	1.68088E-001	8.76972E-001	3.57730E+000	9	...........
	19	0.266667	8.83152E-001	2.81454E-004	0.00000E+000	2.48567E-004	1.68088E-001	8.83471E-001	3.57730E+000	9	...........
	20	0.28	8.89301E-001	2.82389E-004	0.00000E+000	2.51129E-004	1.68088E-001	8.89599E-001	3.57730E+000	9	...........
	21	0.293333	8.95087E-001	2.81786E-004	0.00000E+000	2.52223E-004	1.68088E-001	8.95427E-001	3.57730E+000	9	...........
	22	0.306667	9.00560E-001	2.81393E-004	0.00000E+000	2.53411E-004	1.68088E-001	9.00885E-001	3.57730E+000	9	...........
	23	0.32	9.05734E-001	2.80397E-004	0.00000E+000	2.53965E-004	1.68088E-001	9.06070E-001	3.57730E+000	9	...........
	24	0.333333	9.10643E-001	2.81461E-004	0.00000E+000	2.56310E-004	1.68088E-001	9.10968E-001	3.57730E+000	9	...........
	25	0.346667	9.15275E-001	2.82256E-004	0.00000E+000	2.58341E-004	1.68088E-001	9.15627E-001	3.57730E+000	9	...........
	26	0.36	9.19678E-001	2.82678E-004	0.00000E+000	2.59972E-004	1.68088E-001	9.20015E-001	3.57730E+000	9	...........
	27	0.373333	9.23932E-001	2.80996E-004	0.00000E+000	2.59621E-004	1.68088E-001	9.24230E-001	3.57730E+000	9	...........
	28	0.386667	9.27916E-001	2.81513E-004	0.00000E+000	2.61220E-004	1.68088E-001	9.28198E-001	3.57730E+000	9	...........
	29	0.4	9.31690E-001	2.79879E-004	0.00000E+000	2.60760E-004	1.68088E-001	9.31998E-001	3.57730E+000	9	...........
	30	0.413333	9.35356E-001	2.82260E-004	0.00000E+000	2.64013E-004	1.68088E-001	9.35677E-001	3.57791E+000	9	...........
	31	0.426667	9.38863E-001	2.79653E-004	0.00000E+000	2.62556E-004	1.68088E-001	9.39199E-001	3.57810E+000	9	...........
	32	0.44	9.42251E-001	2.81002E-004	0.00000E+000	2.64775E-004	1.68088E-001	9.42588E-001	3.57810E+000	9	...........
	33	0.453333	9.45526E-001	2.82110E-004	0.00000E+000	2.66742E-004	1.68088E-001	9.45858E-001	3.57810E+000	9	...........
	34	0.466667	9.48628E-001	2.80489E-004	0.00000E+000	2.66079E-004	1.68088E-001	9.48978E-001	3.57810E+000	9	...........
	35	0.48	9.51596E-001	2.79207E-004	0.00000E+000	2.65692E-004	1.68088E-001	9.51940E-001	3.57810E+000	9	...........
	36	0.493333	9.54464E-001	2.80999E-004	0.00000E+000	2.68204E-004	1.68088E-001	9.54799E-001	3.57810E+000	9	...........
	37	0.506667	9.57206E-001	2.81797E-004	0.00000E+000	2.69738E-004	1.68088E-001	9.57566E-001	3.57810E+000	9	...........
	38	0.52	9.59857E-001	2.80785E-004	0.00000E+000	2.69513E-004	1.68088E-001	9.60216E-001	3.57810E+000	9	...........
	39	0.533333	9.62415E-001	2.80396E-004	0.00000E+000	2.69857E-004	1.68088E-001	9.62794E-001	3.57810E+000	9	...........
	40	0.546667	9.64909E-001	2.81491E-004	0.00000E+000	2.71613E-004	1.68088E-001	9.65311E-001	3.57810E+000	9	...........
	41	0.56	9.67328E-001	2.80812E-004	0.00000E+000	2.71637E-004	1.68088E-001	9.67694E-001	3.57810E+000	9	...........
	42	0.573333	9.69627E-001	2.80900E-004	0.00000E+000	2.72368E-004	1.68088E-001	9.70000E-001	3.57810E+000	9	...........
	43	0.586667	9.71896E-001	2.80742E-004	0.00000E+000	2.72852E-004	1.68088E-001	9.72266E-001	3.57810E+000	9	...........
	44	0.6	9.74123E-001	2.80615E-004	0.00000E+000	2.73353E-004	1.68088E-001	9.74465E-001	3.57810E+000	9	...........
	45	0.613333	9.76232E-001	2.79662E-004	0.00000E+000	2.73015E-004	1.68088E-001	9.76576E-001	3.57810E+000	9	...........
	46	0.626667	9.78303E-001	2.80937E-004	0.00000E+000	2.74841E-004	1.68088E-001	9.78656E-001	3.57810E+000	9	...........
	47	0.64	9.80331E-001	2.81472E-004	0.00000E+000	2.75936E-004	1.68088E-001	9.80655E-001	3.57810E+000	9	...........
	48	0.653333	9.82322E-001	2.81392E-004	0.00000E+000	2.76418E-004	1.68088E-001	9.82634E-001	3.57810E+000	9	...........
	49	0.666667	9.84205E-001	2.81881E-004	0.00000E+000	2.77428E-004	1.68088E-001	9.84594E-001	3.57810E+000	9	...........
	50	0.68	9.86080E-001	2.81862E-004	0.00000E+000	2.77938E-004	1.68088E-001	9.86445E-001	3.57810E+000	9	...........
	51	0.693333	9.87887E-001	2.80494E-004	0.00000E+000	2.77096E-004	1.68088E-001	9.88252E-001	3.57810E+000	9	...........
	52	0.706667	9.89696E-001	2.80638E-004	0.00000E+000	2.77746E-004	1.68088E-001	9.90061E-001	3.57810E+000	9	...........
	53	0.72	9.91475E-001	2.80915E-004	0.00000E+000	2.78520E-004	1.68088E-001	9.91824E-001	3.57810E+000	9	...........
	54	0.733333	9.93183E-001	2.82038E-004	0.00000E+000	2.80115E-004	1.68088E-001	9.93554E-001	3.57810E+000	9	...........
	55	0.746667	9.94865E-001	2.81570E-004	0.00000E+000	2.80124E-004	1.68088E-001	9.95229E-001	3.57810E+000	9	...........
	56	0.76	9.96531E-001	2.80839E-004	0.00000E+000	2.79864E-004	1.68088E-001	9.96887E-001	3.57810E+000	9	...........
	57	0.773333	9.98178E-001	2.80678E-004	0.00000E+000	2.80167E-004	1.68088E-001	9.98522E-001	3.57810E+000	9	...........
	58	0.783333	9.99538E-001	2.80070E-004	0.00000E+000	2.79941E-004	1.68088E-001	9.99874E-001	3.57810E+000	9	...........
STARTTIMEOFFSET	QUANT	1993.128	Start Time Offset (s)
