EXPLAIN
TAG	PWR800_CHARGE
TITLE	LABEL	PWR Cyclic Charge Discharge (Cell) - Charge Step	Test &Identifier
DATE	LABEL	7-7-2017	Date
TIME	LABEL	15:42:59	Time
NOTES	NOTES	3	&Notes...
	supercap test cell
	2.8mg
	6M KOH
PSTAT	PSTAT	IFC5000-01520	Potentiostat
CAPACITY	QUANT	1.00000E-003	Capacity (A-hr)
CELLTYPE	SELECTOR	1	&Cell Type
WORKINGCONNECTION	SELECTOR	0	&Working Lead
MAXCHARGETIME	VARIABLEANDUNITS	1.00000E+002	s	1.00000E+002	second(s)	Max &Charge Time
CHARGECURRENT	QUANT	2.80000E-004	&Charge Current (A) 
VOLTAGEFINISH	TWOPARAM	F	1.00000E-003	3.60000E+003	&Voltage Finish	 I (A) < 	Max Time(s)
SAMPLETIME	QUANT	1.00000E-002	Sa&mple Period (s)
CHARGESTOPAT1	MULTIPARAM	4	1.00000E+000	Charge Stop At &1	Voltage > Limit	V
CHARGESTOPAT2	MULTIPARAM	0	0.00000E+000	Charge Stop At &2	None	N/A
AESBHCSELECTOR	TOGGLE	F	Save Both Half Cells
IRCOMP	TOGGLE	F	IR &Measure
EOC	QUANT	0	Open Circuit (V)
SEQUENCER	TOGGLE	TRUE	Run as Sequence
PSTATMODEL	IQUANT	53	Pstat Model
PSTATSECTION	LABEL	IFC5000-01520	Pstat Section
PSTATSERIALNO	LABEL	01520	Pstat Serial Number
CTRLMODE	IQUANT	0	Control Mode
ELECTROMETER	IQUANT	1	RE=0 or CS=1
IESTAB	IQUANT	0	I/E Stability
CASPEED	IQUANT	4	Control Amp Speed
CONVENTION	IQUANT	1	Current Convention
ICHRANGE	IQUANT	2	Ich Range
ICHRANGEMODE	TOGGLE	T	Ich Auto Range
ICHOFFSETENABLE	TOGGLE	F	Ich Offset Enable
ICHOFFSET	QUANT	0	Ich Offset (V)
ICHFILTER	IQUANT	1	Ich Filter
VCHRANGE	IQUANT	2	Vch Range
VCHRANGEMODE	TOGGLE	T	Vch Auto Range
VCHOFFSETENABLE	TOGGLE	F	Vch Offset Enable
VCHOFFSET	QUANT	0	Vch Offset (V)
VCHFILTER	IQUANT	1	Vch Filter
IERANGELOWERLIMIT	IQUANT	9	I/E Range Lower Limit
IERANGEMODE	TOGGLE	F	I/E AutoRange
IERANGE	IQUANT	9	I/E Range
ACHSELECT	IQUANT	1	Ach Select
ACHRANGE	IQUANT	2	Ach Range
ACHOFFSETENABLE	TOGGLE	F	Ach Offset Enable
ACHOFFSET	QUANT	0	Ach Offset (V)
ACHFILTER	IQUANT	1	Ach Filter
CABLEID	IQUANT	14	Cable ID
DCCALDATE	LABEL	5-7-2017	DC Calibration Date
ACCALDATE	LABEL	12/3/2015	AC Calibration Date
FRAMEWORKVERSION	QUANT	7.01	Framework Version
INSTRUMENTVERSION	LABEL	4.00	Instrument Version
CURVE	TABLE	139
	Pt	T	Vf	Im	Vu	Pwr	Sig	Ach	Temp	IERange	Over
	#	s	V	A	V	W	V	V	deg C	#	bits
	0	0.013333	5.73521E-001	2.81106E-004	0.00000E+000	1.61220E-004	1.68088E-001	5.73756E-001	3.57860E+000	9	...........
	1	0.026667	6.01351E-001	2.81616E-004	0.00000E+000	1.69350E-004	1.68088E-001	6.01621E-001	3.57860E+000	9	...........
	2	0.04	6.24587E-001	2.81715E-004	0.00000E+000	1.75956E-004	1.68088E-001	6.24856E-001	3.57860E+000	9	...........
	3	0.053333	6.44467E-001	2.81293E-004	0.00000E+000	1.81284E-004	1.68088E-001	6.44757E-001	3.57860E+000	9	...........
	4	0.066667	6.61859E-001	2.81198E-004	0.00000E+000	1.86113E-004	1.68088E-001	6.62158E-001	3.57860E+000	9	...........
	5	0.08	6.77248E-001	2.81642E-004	0.00000E+000	1.90741E-004	1.68088E-001	6.77557E-001	3.57860E+000	9	...........
	6	0.093333	6.91034E-001	2.81329E-004	0.00000E+000	1.94408E-004	1.68088E-001	6.91353E-001	3.57860E+000	9	...........
	7	0.106667	7.03535E-001	2.81244E-004	0.00000E+000	1.97865E-004	1.68088E-001	7.03871E-001	3.57860E+000	9	...........
	8	0.12	7.14906E-001	2.81756E-004	0.00000E+000	2.01429E-004	1.68088E-001	7.15278E-001	3.57860E+000	9	...........
	9	0.133333	7.25392E-001	2.81398E-004	0.00000E+000	2.04124E-004	1.68088E-001	7.25731E-001	3.57860E+000	9	...........
	10	0.146667	7.35006E-001	2.81336E-004	0.00000E+000	2.06783E-004	1.68088E-001	7.35321E-001	3.57860E+000	9	...........
	11	0.16	7.43921E-001	2.79336E-004	0.00000E+000	2.07804E-004	1.68088E-001	7.44261E-001	3.57860E+000	9	...........
	12	0.173333	7.52209E-001	2.81096E-004	0.00000E+000	2.11443E-004	1.68088E-001	7.52567E-001	3.57860E+000	9	...........
	13	0.186667	7.59950E-001	2.80572E-004	0.00000E+000	2.13221E-004	1.68088E-001	7.60256E-001	3.57860E+000	9	...........
	14	0.2	7.67169E-001	2.80518E-004	0.00000E+000	2.15204E-004	1.68088E-001	7.67516E-001	3.57860E+000	9	...........
	15	0.213333	7.73970E-001	2.81032E-004	0.00000E+000	2.17511E-004	1.68088E-001	7.74302E-001	3.57860E+000	9	...........
	16	0.226667	7.80376E-001	2.81250E-004	0.00000E+000	2.19481E-004	1.68088E-001	7.80694E-001	3.57860E+000	9	...........
	17	0.24	7.86473E-001	2.81745E-004	0.00000E+000	2.21585E-004	1.68088E-001	7.86777E-001	3.57860E+000	9	...........
	18	0.253333	7.92182E-001	2.81222E-004	0.00000E+000	2.22779E-004	1.68088E-001	7.92486E-001	3.57860E+000	9	...........
	19	0.266667	7.97621E-001	2.82064E-004	0.00000E+000	2.24980E-004	1.68088E-001	7.97911E-001	3.57860E+000	9	...........
	20	0.28	8.02786E-001	2.80416E-004	0.00000E+000	2.25114E-004	1.68088E-001	8.03086E-001	3.57860E+000	9	...........
	21	0.293333	8.07672E-001	2.80976E-004	0.00000E+000	2.26937E-004	1.68088E-001	8.07975E-001	3.57860E+000	9	...........
	22	0.306667	8.12324E-001	2.80830E-004	0.00000E+000	2.28125E-004	1.68088E-001	8.12648E-001	3.57860E+000	9	...........
	23	0.32	8.16772E-001	2.81165E-004	0.00000E+000	2.29648E-004	1.68088E-001	8.17101E-001	3.57860E+000	9	...........
	24	0.333333	8.21066E-001	2.81590E-004	0.00000E+000	2.31204E-004	1.68088E-001	8.21388E-001	3.57860E+000	9	...........
	25	0.346667	8.25150E-001	2.81588E-004	0.00000E+000	2.32352E-004	1.68088E-001	8.25493E-001	3.57860E+000	9	...........
	26	0.36	8.29093E-001	2.80545E-004	0.00000E+000	2.32598E-004	1.68088E-001	8.29437E-001	3.57860E+000	9	...........
	27	0.373333	8.32857E-001	2.80566E-004	0.00000E+000	2.33671E-004	1.68088E-001	8.33216E-001	3.57860E+000	9	...........
	28	0.386667	8.36474E-001	2.81674E-004	0.00000E+000	2.35613E-004	1.68088E-001	8.36856E-001	3.57860E+000	9	...........
	29	0.4	8.40008E-001	2.81203E-004	0.00000E+000	2.36213E-004	1.68088E-001	8.40357E-001	3.57860E+000	9	...........
	30	0.413333	8.43426E-001	2.81337E-004	0.00000E+000	2.37287E-004	1.68088E-001	8.43776E-001	3.57860E+000	9	...........
	31	0.426667	8.46719E-001	2.80994E-004	0.00000E+000	2.37923E-004	1.68088E-001	8.47059E-001	3.57860E+000	9	...........
	32	0.44	8.49869E-001	2.81294E-004	0.00000E+000	2.39063E-004	1.68088E-001	8.50199E-001	3.57860E+000	9	...........
	33	0.453333	8.52942E-001	2.80496E-004	0.00000E+000	2.39247E-004	1.68088E-001	8.53251E-001	3.57860E+000	9	...........
	34	0.466667	8.55878E-001	2.81510E-004	0.00000E+000	2.40938E-004	1.68088E-001	8.56183E-001	3.57860E+000	9	...........
	35	0.48	8.58735E-001	2.80721E-004	0.00000E+000	2.41065E-004	1.68088E-001	8.59061E-001	3.57860E+000	9	...........
	36	0.493333	8.61524E-001	2.81246E-004	0.00000E+000	2.42300E-004	1.68088E-001	8.61837E-001	3.57860E+000	9	...........
	37	0.506667	8.64187E-001	2.81332E-004	0.00000E+000	2.43123E-004	1.68088E-001	8.64522E-001	3.57860E+000	9	...........
	38	0.52	8.66823E-001	2.81027E-004	0.00000E+000	2.43601E-004	1.68088E-001	8.67181E-001	3.57860E+000	9	...........
	39	0.533333	8.69457E-001	2.80927E-004	0.00000E+000	2.44254E-004	1.68088E-001	8.69812E-001	3.57860E+000	9	...........
	40	0.546667	8.71975E-001	2.80291E-004	0.00000E+000	2.44406E-004	1.68088E-001	8.72344E-001	3.57860E+000	9	...........
	41	0.56	8.74421E-001	2.80407E-004	0.00000E+000	2.45194E-004	1.68088E-001	8.74808E-001	3.57860E+000	9	...........
	42	0.573333	8.76779E-001	2.81055E-004	0.00000E+000	2.46424E-004	1.68088E-001	8.77163E-001	3.57860E+000	9	...........
	43	0.586667	8.79140E-001	2.81339E-004	0.00000E+000	2.47336E-004	1.68088E-001	8.79519E-001	3.57860E+000	9	...........
	44	0.6	8.81417E-001	2.81155E-004	0.00000E+000	2.47815E-004	1.68088E-001	8.81826E-001	3.57860E+000	9	...........
	45	0.613333	8.83687E-001	2.81286E-004	0.00000E+000	2.48568E-004	1.68088E-001	8.84067E-001	3.57860E+000	9	...........
	46	0.626667	8.85885E-001	2.81248E-004	0.00000E+000	2.49154E-004	1.68088E-001	8.86248E-001	3.57860E+000	9	...........
	47	0.64	8.88000E-001	2.80329E-004	0.00000E+000	2.48932E-004	1.68088E-001	8.88368E-001	3.57860E+000	9	...........
	48	0.653333	8.90070E-001	2.80818E-004	0.00000E+000	2.49948E-004	1.68088E-001	8.90429E-001	3.57860E+000	9	...........
	49	0.666667	8.92081E-001	2.81103E-004	0.00000E+000	2.50767E-004	1.68088E-001	8.92455E-001	3.57860E+000	9	...........
	50	0.68	8.94101E-001	2.81568E-004	0.00000E+000	2.51750E-004	1.68088E-001	8.94484E-001	3.57860E+000	9	...........
	51	0.693333	8.96078E-001	2.81438E-004	0.00000E+000	2.52190E-004	1.68088E-001	8.96483E-001	3.57860E+000	9	...........
	52	0.706667	8.98002E-001	2.80969E-004	0.00000E+000	2.52311E-004	1.68088E-001	8.98420E-001	3.57860E+000	9	...........
	53	0.72	8.99929E-001	2.80641E-004	0.00000E+000	2.52557E-004	1.68088E-001	9.00320E-001	3.57860E+000	9	...........
	54	0.733333	9.01792E-001	2.81809E-004	0.00000E+000	2.54133E-004	1.68088E-001	9.02208E-001	3.57881E+000	9	...........
	55	0.746667	9.03610E-001	2.80071E-004	0.00000E+000	2.53075E-004	1.68088E-001	9.04033E-001	3.57950E+000	9	...........
	56	0.76	9.05400E-001	2.81091E-004	0.00000E+000	2.54500E-004	1.68088E-001	9.05829E-001	3.57950E+000	9	...........
	57	0.773333	9.07155E-001	2.81153E-004	0.00000E+000	2.55050E-004	1.68088E-001	9.07603E-001	3.57950E+000	9	...........
	58	0.786667	9.08930E-001	2.81951E-004	0.00000E+000	2.56274E-004	1.68088E-001	9.09352E-001	3.57950E+000	9	...........
	59	0.8	9.10669E-001	2.81068E-004	0.00000E+000	2.55960E-004	1.68088E-001	9.11074E-001	3.57950E+000	9	...........
	60	0.813333	9.12340E-001	2.81823E-004	0.00000E+000	2.57119E-004	1.68088E-001	9.12790E-001	3.57950E+000	9	...........
	61	0.826667	9.13983E-001	2.80750E-004	0.00000E+000	2.56601E-004	1.68088E-001	9.14435E-001	3.57950E+000	9	...........
	62	0.84	9.15652E-001	2.81641E-004	0.00000E+000	2.57885E-004	1.68088E-001	9.16088E-001	3.57950E+000	9	...........
	63	0.853333	9.17259E-001	2.81562E-004	0.00000E+000	2.58265E-004	1.68088E-001	9.17705E-001	3.57950E+000	9	...........
	64	0.866667	9.18846E-001	2.81264E-004	0.00000E+000	2.58438E-004	1.68088E-001	9.19277E-001	3.57950E+000	9	...........
	65	0.88	9.20414E-001	2.80985E-004	0.00000E+000	2.58622E-004	1.68088E-001	9.20829E-001	3.57950E+000	9	...........
	66	0.893333	9.21991E-001	2.80982E-004	0.00000E+000	2.59063E-004	1.68088E-001	9.22342E-001	3.57950E+000	9	...........
	67	0.906667	9.23508E-001	2.81289E-004	0.00000E+000	2.59772E-004	1.68088E-001	9.23868E-001	3.57950E+000	9	...........
	68	0.92	9.25007E-001	2.80523E-004	0.00000E+000	2.59486E-004	1.68088E-001	9.25380E-001	3.57950E+000	9	...........
	69	0.933333	9.26475E-001	2.81363E-004	0.00000E+000	2.60676E-004	1.68088E-001	9.26804E-001	3.57950E+000	9	...........
	70	0.946667	9.27937E-001	2.80947E-004	0.00000E+000	2.60701E-004	1.68088E-001	9.28265E-001	3.57950E+000	9	...........
	71	0.96	9.29414E-001	2.80743E-004	0.00000E+000	2.60926E-004	1.68088E-001	9.29712E-001	3.57950E+000	9	...........
	72	0.97333	9.30884E-001	2.81642E-004	0.00000E+000	2.62176E-004	1.68088E-001	9.31194E-001	3.57950E+000	9	...........
	73	0.98667	9.32324E-001	2.81893E-004	0.00000E+000	2.62816E-004	1.68088E-001	9.32658E-001	3.57950E+000	9	...........
	74	1	9.33714E-001	2.80967E-004	0.00000E+000	2.62343E-004	1.68088E-001	9.34043E-001	3.57950E+000	9	...........
	75	1.01333	9.35110E-001	2.80584E-004	0.00000E+000	2.62377E-004	1.68088E-001	9.35430E-001	3.57950E+000	9	...........
	76	1.02667	9.36450E-001	2.81003E-004	0.00000E+000	2.63146E-004	1.68088E-001	9.36782E-001	3.57950E+000	9	...........
	77	1.04	9.37806E-001	2.81003E-004	0.00000E+000	2.63526E-004	1.68088E-001	9.38143E-001	3.57950E+000	9	...........
	78	1.05333	9.39122E-001	2.80938E-004	0.00000E+000	2.63835E-004	1.68088E-001	9.39464E-001	3.57950E+000	9	...........
	79	1.06667	9.40478E-001	2.81066E-004	0.00000E+000	2.64336E-004	1.68088E-001	9.40819E-001	3.57950E+000	9	...........
	80	1.08	9.41766E-001	2.81894E-004	0.00000E+000	2.65478E-004	1.68088E-001	9.42115E-001	3.57950E+000	9	...........
	81	1.09333	9.43026E-001	2.81032E-004	0.00000E+000	2.65021E-004	1.68088E-001	9.43395E-001	3.57950E+000	9	...........
	82	1.10667	9.44299E-001	2.80128E-004	0.00000E+000	2.64525E-004	1.68088E-001	9.44686E-001	3.57950E+000	9	...........
	83	1.12	9.45552E-001	2.81702E-004	0.00000E+000	2.66364E-004	1.68088E-001	9.45976E-001	3.57950E+000	9	...........
	84	1.13333	9.46860E-001	2.81264E-004	0.00000E+000	2.66317E-004	1.68088E-001	9.47234E-001	3.57950E+000	9	...........
	85	1.14667	9.48116E-001	2.81801E-004	0.00000E+000	2.67180E-004	1.68088E-001	9.48484E-001	3.57950E+000	9	...........
	86	1.16	9.49344E-001	2.79763E-004	0.00000E+000	2.65592E-004	1.68088E-001	9.49708E-001	3.57950E+000	9	...........
	87	1.17333	9.50523E-001	2.81831E-004	0.00000E+000	2.67886E-004	1.68088E-001	9.50914E-001	3.57950E+000	9	...........
	88	1.18667	9.51696E-001	2.81072E-004	0.00000E+000	2.67495E-004	1.68088E-001	9.52100E-001	3.57950E+000	9	...........
	89	1.2	9.52882E-001	2.80537E-004	0.00000E+000	2.67318E-004	1.68088E-001	9.53275E-001	3.57950E+000	9	...........
	90	1.21333	9.54080E-001	2.81685E-004	0.00000E+000	2.68750E-004	1.68088E-001	9.54489E-001	3.57950E+000	9	...........
	91	1.22667	9.55283E-001	2.81037E-004	0.00000E+000	2.68470E-004	1.68088E-001	9.55654E-001	3.57950E+000	9	...........
	92	1.24	9.56455E-001	2.80807E-004	0.00000E+000	2.68580E-004	1.68088E-001	9.56841E-001	3.57950E+000	9	...........
	93	1.25333	9.57609E-001	2.80447E-004	0.00000E+000	2.68559E-004	1.68088E-001	9.58005E-001	3.57950E+000	9	...........
	94	1.26667	9.58790E-001	2.80963E-004	0.00000E+000	2.69384E-004	1.68088E-001	9.59189E-001	3.57950E+000	9	...........
	95	1.28	9.59940E-001	2.81503E-004	0.00000E+000	2.70226E-004	1.68088E-001	9.60344E-001	3.57950E+000	9	...........
	96	1.29333	9.61045E-001	2.80985E-004	0.00000E+000	2.70039E-004	1.68088E-001	9.61451E-001	3.57950E+000	9	...........
	97	1.30667	9.62135E-001	2.81650E-004	0.00000E+000	2.70986E-004	1.68088E-001	9.62544E-001	3.57950E+000	9	...........
	98	1.32	9.63225E-001	2.80935E-004	0.00000E+000	2.70603E-004	1.68088E-001	9.63618E-001	3.57950E+000	9	...........
	99	1.33333	9.64324E-001	2.81514E-004	0.00000E+000	2.71471E-004	1.68088E-001	9.64711E-001	3.57950E+000	9	...........
	100	1.34667	9.65382E-001	2.81010E-004	0.00000E+000	2.71282E-004	1.68088E-001	9.65783E-001	3.57950E+000	9	...........
	101	1.36	9.66480E-001	2.81015E-004	0.00000E+000	2.71595E-004	1.68088E-001	9.66864E-001	3.57950E+000	9	...........
	102	1.37333	9.67555E-001	2.80824E-004	0.00000E+000	2.71713E-004	1.68088E-001	9.67946E-001	3.57950E+000	9	...........
	103	1.38667	9.68574E-001	2.80640E-004	0.00000E+000	2.71820E-004	1.68088E-001	9.68975E-001	3.57950E+000	9	...........
	104	1.4	9.69615E-001	2.80965E-004	0.00000E+000	2.72428E-004	1.68088E-001	9.70014E-001	3.57950E+000	9	...........
	105	1.41333	9.70634E-001	2.81899E-004	0.00000E+000	2.73621E-004	1.68088E-001	9.71040E-001	3.57950E+000	9	...........
	106	1.42667	9.71666E-001	2.81604E-004	0.00000E+000	2.73625E-004	1.68088E-001	9.72089E-001	3.57950E+000	9	...........
	107	1.44	9.72700E-001	2.81465E-004	0.00000E+000	2.73781E-004	1.68088E-001	9.73081E-001	3.57950E+000	9	...........
	108	1.45333	9.73731E-001	2.81246E-004	0.00000E+000	2.73858E-004	1.68088E-001	9.74099E-001	3.57950E+000	9	...........
	109	1.46667	9.74679E-001	2.80971E-004	0.00000E+000	2.73857E-004	1.68088E-001	9.75083E-001	3.57950E+000	9	...........
	110	1.48	9.75687E-001	2.80972E-004	0.00000E+000	2.74141E-004	1.68088E-001	9.76073E-001	3.57950E+000	9	...........
	111	1.49333	9.76640E-001	2.81535E-004	0.00000E+000	2.74958E-004	1.68088E-001	9.77030E-001	3.57950E+000	9	...........
	112	1.50667	9.77585E-001	2.81839E-004	0.00000E+000	2.75522E-004	1.68088E-001	9.77973E-001	3.57950E+000	9	...........
	113	1.52	9.78552E-001	2.80814E-004	0.00000E+000	2.74791E-004	1.68088E-001	9.78935E-001	3.57950E+000	9	...........
	114	1.53333	9.79510E-001	2.81266E-004	0.00000E+000	2.75503E-004	1.68088E-001	9.79874E-001	3.57950E+000	9	...........
	115	1.54667	9.80396E-001	2.81266E-004	0.00000E+000	2.75752E-004	1.68088E-001	9.80758E-001	3.57950E+000	9	...........
	116	1.56	9.81330E-001	2.80812E-004	0.00000E+000	2.75569E-004	1.68088E-001	9.81689E-001	3.57950E+000	9	...........
	117	1.57333	9.82256E-001	2.81073E-004	0.00000E+000	2.76086E-004	1.68088E-001	9.82604E-001	3.57950E+000	9	...........
	118	1.58667	9.83150E-001	2.81938E-004	0.00000E+000	2.77187E-004	1.68088E-001	9.83492E-001	3.57950E+000	9	...........
	119	1.6	9.84118E-001	2.80409E-004	0.00000E+000	2.75956E-004	1.68088E-001	9.84466E-001	3.57950E+000	9	...........
	120	1.61333	9.85012E-001	2.80448E-004	0.00000E+000	2.76245E-004	1.68088E-001	9.85354E-001	3.57950E+000	9	...........
	121	1.62667	9.85918E-001	2.81057E-004	0.00000E+000	2.77100E-004	1.68088E-001	9.86274E-001	3.57950E+000	9	...........
	122	1.64	9.86801E-001	2.80982E-004	0.00000E+000	2.77274E-004	1.68088E-001	9.87156E-001	3.57950E+000	9	...........
	123	1.65333	9.87674E-001	2.80923E-004	0.00000E+000	2.77460E-004	1.68088E-001	9.88071E-001	3.57950E+000	9	...........
	124	1.66667	9.88586E-001	2.80493E-004	0.00000E+000	2.77291E-004	1.68088E-001	9.88926E-001	3.57950E+000	9	...........
	125	1.68	9.89435E-001	2.80616E-004	0.00000E+000	2.77651E-004	1.68088E-001	9.89780E-001	3.57950E+000	9	...........
	126	1.69333	9.90279E-001	2.81408E-004	0.00000E+000	2.78672E-004	1.68088E-001	9.90640E-001	3.57950E+000	9	...........
	127	1.70667	9.91140E-001	2.80290E-004	0.00000E+000	2.77806E-004	1.68088E-001	9.91495E-001	3.57950E+000	9	...........
	128	1.72	9.91997E-001	2.81199E-004	0.00000E+000	2.78949E-004	1.68088E-001	9.92369E-001	3.57950E+000	9	...........
	129	1.73333	9.92857E-001	2.81126E-004	0.00000E+000	2.79118E-004	1.68088E-001	9.93254E-001	3.57915E+000	9	...........
	130	1.74667	9.93709E-001	2.80754E-004	0.00000E+000	2.78988E-004	1.68088E-001	9.94127E-001	3.57800E+000	9	...........
	131	1.76	9.94561E-001	2.80730E-004	0.00000E+000	2.79204E-004	1.68088E-001	9.94967E-001	3.57800E+000	9	...........
	132	1.77333	9.95388E-001	2.80824E-004	0.00000E+000	2.79529E-004	1.68088E-001	9.95797E-001	3.57800E+000	9	...........
	133	1.78667	9.96220E-001	2.81240E-004	0.00000E+000	2.80177E-004	1.68088E-001	9.96611E-001	3.57800E+000	9	...........
	134	1.8	9.97014E-001	2.81416E-004	0.00000E+000	2.80576E-004	1.68088E-001	9.97444E-001	3.57800E+000	9	...........
	135	1.81333	9.97855E-001	2.81044E-004	0.00000E+000	2.80441E-004	1.68088E-001	9.98271E-001	3.57800E+000	9	...........
	136	1.82667	9.98696E-001	2.81583E-004	0.00000E+000	2.81215E-004	1.68088E-001	9.99119E-001	3.57800E+000	9	...........
	137	1.84	9.99516E-001	2.81451E-004	0.00000E+000	2.81315E-004	1.68088E-001	9.99936E-001	3.57800E+000	9	...........
	138	1.84333	1.00002E+000	2.81548E-004	0.00000E+000	2.81553E-004	1.68088E-001	1.00043E+000	3.57800E+000	9	...........
STARTTIMEOFFSET	QUANT	345.7218	Start Time Offset (s)
