EXPLAIN
TAG	PWR800_CHARGE
TITLE	LABEL	PWR Cyclic Charge Discharge (Cell) - Charge Step	Test &Identifier
DATE	LABEL	7-7-2017	Date
TIME	LABEL	16:22:28	Time
NOTES	NOTES	3	&Notes...
	supercap test cell
	2.8mg
	6M KOH
PSTAT	PSTAT	IFC5000-01520	Potentiostat
CAPACITY	QUANT	1.00000E-003	Capacity (A-hr)
CELLTYPE	SELECTOR	1	&Cell Type
WORKINGCONNECTION	SELECTOR	0	&Working Lead
MAXCHARGETIME	VARIABLEANDUNITS	1.00000E+002	s	1.00000E+002	second(s)	Max &Charge Time
CHARGECURRENT	QUANT	2.80000E-004	&Charge Current (A) 
VOLTAGEFINISH	TWOPARAM	F	1.00000E-003	3.60000E+003	&Voltage Finish	 I (A) < 	Max Time(s)
SAMPLETIME	QUANT	1.00000E-002	Sa&mple Period (s)
CHARGESTOPAT1	MULTIPARAM	4	1.00000E+000	Charge Stop At &1	Voltage > Limit	V
CHARGESTOPAT2	MULTIPARAM	0	0.00000E+000	Charge Stop At &2	None	N/A
AESBHCSELECTOR	TOGGLE	F	Save Both Half Cells
IRCOMP	TOGGLE	F	IR &Measure
EOC	QUANT	0	Open Circuit (V)
SEQUENCER	TOGGLE	TRUE	Run as Sequence
PSTATMODEL	IQUANT	53	Pstat Model
PSTATSECTION	LABEL	IFC5000-01520	Pstat Section
PSTATSERIALNO	LABEL	01520	Pstat Serial Number
CTRLMODE	IQUANT	0	Control Mode
ELECTROMETER	IQUANT	1	RE=0 or CS=1
IESTAB	IQUANT	0	I/E Stability
CASPEED	IQUANT	4	Control Amp Speed
CONVENTION	IQUANT	1	Current Convention
ICHRANGE	IQUANT	2	Ich Range
ICHRANGEMODE	TOGGLE	T	Ich Auto Range
ICHOFFSETENABLE	TOGGLE	F	Ich Offset Enable
ICHOFFSET	QUANT	0	Ich Offset (V)
ICHFILTER	IQUANT	1	Ich Filter
VCHRANGE	IQUANT	2	Vch Range
VCHRANGEMODE	TOGGLE	T	Vch Auto Range
VCHOFFSETENABLE	TOGGLE	F	Vch Offset Enable
VCHOFFSET	QUANT	0	Vch Offset (V)
VCHFILTER	IQUANT	1	Vch Filter
IERANGELOWERLIMIT	IQUANT	9	I/E Range Lower Limit
IERANGEMODE	TOGGLE	F	I/E AutoRange
IERANGE	IQUANT	9	I/E Range
ACHSELECT	IQUANT	1	Ach Select
ACHRANGE	IQUANT	2	Ach Range
ACHOFFSETENABLE	TOGGLE	F	Ach Offset Enable
ACHOFFSET	QUANT	0	Ach Offset (V)
ACHFILTER	IQUANT	1	Ach Filter
CABLEID	IQUANT	14	Cable ID
DCCALDATE	LABEL	5-7-2017	DC Calibration Date
ACCALDATE	LABEL	12/3/2015	AC Calibration Date
FRAMEWORKVERSION	QUANT	7.01	Framework Version
INSTRUMENTVERSION	LABEL	4.00	Instrument Version
CURVE	TABLE	59
	Pt	T	Vf	Im	Vu	Pwr	Sig	Ach	Temp	IERange	Over
	#	s	V	A	V	W	V	V	deg C	#	bits
	0	0.013333	6.10166E-001	2.82045E-004	0.00000E+000	1.72094E-004	1.68088E-001	6.10417E-001	3.57740E+000	9	...........
	1	0.026667	6.40682E-001	2.80615E-004	0.00000E+000	1.79785E-004	1.68088E-001	6.40939E-001	3.57740E+000	9	...........
	2	0.04	6.66999E-001	2.80549E-004	0.00000E+000	1.87126E-004	1.68088E-001	6.67249E-001	3.57740E+000	9	...........
	3	0.053333	6.90145E-001	2.81315E-004	0.00000E+000	1.94148E-004	1.68088E-001	6.90409E-001	3.57740E+000	9	...........
	4	0.066667	7.10894E-001	2.80965E-004	0.00000E+000	1.99736E-004	1.68088E-001	7.11165E-001	3.57740E+000	9	...........
	5	0.08	7.29674E-001	2.80797E-004	0.00000E+000	2.04890E-004	1.68088E-001	7.29956E-001	3.57740E+000	9	...........
	6	0.093333	7.46780E-001	2.81958E-004	0.00000E+000	2.10560E-004	1.68088E-001	7.47060E-001	3.57740E+000	9	...........
	7	0.106667	7.62416E-001	2.80553E-004	0.00000E+000	2.13898E-004	1.68088E-001	7.62710E-001	3.57740E+000	9	...........
	8	0.12	7.76834E-001	2.81296E-004	0.00000E+000	2.18520E-004	1.68088E-001	7.77130E-001	3.57740E+000	9	...........
	9	0.133333	7.90117E-001	2.81879E-004	0.00000E+000	2.22717E-004	1.68088E-001	7.90412E-001	3.57740E+000	9	...........
	10	0.146667	8.02456E-001	2.81684E-004	0.00000E+000	2.26039E-004	1.68088E-001	8.02752E-001	3.57740E+000	9	...........
	11	0.16	8.13845E-001	2.81354E-004	0.00000E+000	2.28979E-004	1.68088E-001	8.14158E-001	3.57740E+000	9	...........
	12	0.173333	8.24486E-001	2.81594E-004	0.00000E+000	2.32170E-004	1.68088E-001	8.24780E-001	3.57740E+000	9	...........
	13	0.186667	8.34344E-001	2.80757E-004	0.00000E+000	2.34248E-004	1.68088E-001	8.34667E-001	3.57740E+000	9	...........
	14	0.2	8.43577E-001	2.80816E-004	0.00000E+000	2.36890E-004	1.68088E-001	8.43888E-001	3.57740E+000	9	...........
	15	0.213333	8.52209E-001	2.80391E-004	0.00000E+000	2.38951E-004	1.68088E-001	8.52519E-001	3.57740E+000	9	...........
	16	0.226667	8.60274E-001	2.80816E-004	0.00000E+000	2.41579E-004	1.68088E-001	8.60611E-001	3.57740E+000	9	...........
	17	0.24	8.67826E-001	2.80817E-004	0.00000E+000	2.43700E-004	1.68088E-001	8.68158E-001	3.57740E+000	9	...........
	18	0.253333	8.74956E-001	2.81870E-004	0.00000E+000	2.46624E-004	1.68088E-001	8.75284E-001	3.57740E+000	9	...........
	19	0.266667	8.81667E-001	2.81192E-004	0.00000E+000	2.47918E-004	1.68088E-001	8.81994E-001	3.57740E+000	9	...........
	20	0.28	8.87965E-001	2.80736E-004	0.00000E+000	2.49283E-004	1.68088E-001	8.88287E-001	3.57740E+000	9	...........
	21	0.293333	8.93909E-001	2.79779E-004	0.00000E+000	2.50097E-004	1.68088E-001	8.94243E-001	3.57740E+000	9	...........
	22	0.306667	8.99505E-001	2.80976E-004	0.00000E+000	2.52740E-004	1.68088E-001	8.99850E-001	3.57740E+000	9	...........
	23	0.32	9.04787E-001	2.79854E-004	0.00000E+000	2.53208E-004	1.68088E-001	9.05145E-001	3.57740E+000	9	...........
	24	0.333333	9.09829E-001	2.82415E-004	0.00000E+000	2.56949E-004	1.68088E-001	9.10169E-001	3.57769E+000	9	...........
	25	0.346667	9.14584E-001	2.80855E-004	0.00000E+000	2.56866E-004	1.68088E-001	9.14925E-001	3.57770E+000	9	...........
	26	0.36	9.19096E-001	2.81376E-004	0.00000E+000	2.58612E-004	1.68088E-001	9.19444E-001	3.57770E+000	9	...........
	27	0.373333	9.23434E-001	2.81542E-004	0.00000E+000	2.59985E-004	1.68088E-001	9.23737E-001	3.57770E+000	9	...........
	28	0.386667	9.27549E-001	2.81147E-004	0.00000E+000	2.60778E-004	1.68088E-001	9.27849E-001	3.57770E+000	9	...........
	29	0.4	9.31442E-001	2.81299E-004	0.00000E+000	2.62014E-004	1.68088E-001	9.31722E-001	3.57770E+000	9	...........
	30	0.413333	9.35152E-001	2.81251E-004	0.00000E+000	2.63013E-004	1.68088E-001	9.35467E-001	3.57770E+000	9	...........
	31	0.426667	9.38696E-001	2.80161E-004	0.00000E+000	2.62986E-004	1.68088E-001	9.39019E-001	3.57770E+000	9	...........
	32	0.44	9.42107E-001	2.82214E-004	0.00000E+000	2.65876E-004	1.68088E-001	9.42418E-001	3.57770E+000	9	...........
	33	0.453333	9.45395E-001	2.80687E-004	0.00000E+000	2.65360E-004	1.68088E-001	9.45698E-001	3.57770E+000	9	...........
	34	0.466667	9.48582E-001	2.80663E-004	0.00000E+000	2.66232E-004	1.68088E-001	9.48904E-001	3.57770E+000	9	...........
	35	0.48	9.51576E-001	2.80602E-004	0.00000E+000	2.67014E-004	1.68088E-001	9.51886E-001	3.57770E+000	9	...........
	36	0.493333	9.54467E-001	2.80967E-004	0.00000E+000	2.68174E-004	1.68088E-001	9.54780E-001	3.57770E+000	9	...........
	37	0.506667	9.57267E-001	2.81588E-004	0.00000E+000	2.69555E-004	1.68088E-001	9.57600E-001	3.57770E+000	9	...........
	38	0.52	9.59971E-001	2.82492E-004	0.00000E+000	2.71184E-004	1.68088E-001	9.60309E-001	3.57770E+000	9	...........
	39	0.533333	9.62562E-001	2.81332E-004	0.00000E+000	2.70799E-004	1.68088E-001	9.62916E-001	3.57770E+000	9	...........
	40	0.546667	9.65046E-001	2.80689E-004	0.00000E+000	2.70877E-004	1.68088E-001	9.65415E-001	3.57770E+000	9	...........
	41	0.56	9.67454E-001	2.79567E-004	0.00000E+000	2.70468E-004	1.68088E-001	9.67810E-001	3.57770E+000	9	...........
	42	0.573333	9.69822E-001	2.81992E-004	0.00000E+000	2.73482E-004	1.68088E-001	9.70189E-001	3.57770E+000	9	...........
	43	0.586667	9.72121E-001	2.81346E-004	0.00000E+000	2.73502E-004	1.68088E-001	9.72529E-001	3.57770E+000	9	...........
	44	0.6	9.74374E-001	2.81597E-004	0.00000E+000	2.74381E-004	1.68088E-001	9.74725E-001	3.57770E+000	9	...........
	45	0.613333	9.76510E-001	2.81059E-004	0.00000E+000	2.74456E-004	1.68088E-001	9.76873E-001	3.57770E+000	9	...........
	46	0.626667	9.78611E-001	2.81350E-004	0.00000E+000	2.75332E-004	1.68088E-001	9.78968E-001	3.57770E+000	9	...........
	47	0.64	9.80676E-001	2.81279E-004	0.00000E+000	2.75844E-004	1.68088E-001	9.81016E-001	3.57770E+000	9	...........
	48	0.653333	9.82642E-001	2.81142E-004	0.00000E+000	2.76262E-004	1.68088E-001	9.82990E-001	3.57770E+000	9	...........
	49	0.666667	9.84560E-001	2.80475E-004	0.00000E+000	2.76145E-004	1.68088E-001	9.84919E-001	3.57770E+000	9	...........
	50	0.68	9.86465E-001	2.80252E-004	0.00000E+000	2.76459E-004	1.68088E-001	9.86817E-001	3.57770E+000	9	...........
	51	0.693333	9.88315E-001	2.81377E-004	0.00000E+000	2.78090E-004	1.68088E-001	9.88671E-001	3.57770E+000	9	...........
	52	0.706667	9.90142E-001	2.80461E-004	0.00000E+000	2.77696E-004	1.68088E-001	9.90480E-001	3.57770E+000	9	...........
	53	0.72	9.91881E-001	2.81417E-004	0.00000E+000	2.79132E-004	1.68088E-001	9.92205E-001	3.57770E+000	9	...........
	54	0.733333	9.93616E-001	2.80679E-004	0.00000E+000	2.78888E-004	1.68088E-001	9.93957E-001	3.57770E+000	9	...........
	55	0.746667	9.95306E-001	2.80385E-004	0.00000E+000	2.79069E-004	1.68088E-001	9.95629E-001	3.57770E+000	9	...........
	56	0.76	9.96930E-001	2.81205E-004	0.00000E+000	2.80342E-004	1.68088E-001	9.97311E-001	3.57770E+000	9	...........
	57	0.773333	9.98573E-001	2.81650E-004	0.00000E+000	2.81248E-004	1.68088E-001	9.98929E-001	3.57770E+000	9	...........
	58	0.78	9.99748E-001	2.79535E-004	0.00000E+000	2.79465E-004	1.68088E-001	1.00013E+000	3.57770E+000	9	...........
STARTTIMEOFFSET	QUANT	2018.284	Start Time Offset (s)
