EXPLAIN
TAG	PWR800_CHARGE
TITLE	LABEL	PWR Cyclic Charge Discharge (Cell) - Charge Step	Test &Identifier
DATE	LABEL	7-7-2017	Date
TIME	LABEL	15:50:29	Time
NOTES	NOTES	3	&Notes...
	supercap test cell
	2.8mg
	6M KOH
PSTAT	PSTAT	IFC5000-01520	Potentiostat
CAPACITY	QUANT	1.00000E-003	Capacity (A-hr)
CELLTYPE	SELECTOR	1	&Cell Type
WORKINGCONNECTION	SELECTOR	0	&Working Lead
MAXCHARGETIME	VARIABLEANDUNITS	1.00000E+002	s	1.00000E+002	second(s)	Max &Charge Time
CHARGECURRENT	QUANT	2.80000E-004	&Charge Current (A) 
VOLTAGEFINISH	TWOPARAM	F	1.00000E-003	3.60000E+003	&Voltage Finish	 I (A) < 	Max Time(s)
SAMPLETIME	QUANT	1.00000E-002	Sa&mple Period (s)
CHARGESTOPAT1	MULTIPARAM	4	1.00000E+000	Charge Stop At &1	Voltage > Limit	V
CHARGESTOPAT2	MULTIPARAM	0	0.00000E+000	Charge Stop At &2	None	N/A
AESBHCSELECTOR	TOGGLE	F	Save Both Half Cells
IRCOMP	TOGGLE	F	IR &Measure
EOC	QUANT	0	Open Circuit (V)
SEQUENCER	TOGGLE	TRUE	Run as Sequence
PSTATMODEL	IQUANT	53	Pstat Model
PSTATSECTION	LABEL	IFC5000-01520	Pstat Section
PSTATSERIALNO	LABEL	01520	Pstat Serial Number
CTRLMODE	IQUANT	0	Control Mode
ELECTROMETER	IQUANT	1	RE=0 or CS=1
IESTAB	IQUANT	0	I/E Stability
CASPEED	IQUANT	4	Control Amp Speed
CONVENTION	IQUANT	1	Current Convention
ICHRANGE	IQUANT	2	Ich Range
ICHRANGEMODE	TOGGLE	T	Ich Auto Range
ICHOFFSETENABLE	TOGGLE	F	Ich Offset Enable
ICHOFFSET	QUANT	0	Ich Offset (V)
ICHFILTER	IQUANT	1	Ich Filter
VCHRANGE	IQUANT	2	Vch Range
VCHRANGEMODE	TOGGLE	T	Vch Auto Range
VCHOFFSETENABLE	TOGGLE	F	Vch Offset Enable
VCHOFFSET	QUANT	0	Vch Offset (V)
VCHFILTER	IQUANT	1	Vch Filter
IERANGELOWERLIMIT	IQUANT	9	I/E Range Lower Limit
IERANGEMODE	TOGGLE	F	I/E AutoRange
IERANGE	IQUANT	9	I/E Range
ACHSELECT	IQUANT	1	Ach Select
ACHRANGE	IQUANT	2	Ach Range
ACHOFFSETENABLE	TOGGLE	F	Ach Offset Enable
ACHOFFSET	QUANT	0	Ach Offset (V)
ACHFILTER	IQUANT	1	Ach Filter
CABLEID	IQUANT	14	Cable ID
DCCALDATE	LABEL	5-7-2017	DC Calibration Date
ACCALDATE	LABEL	12/3/2015	AC Calibration Date
FRAMEWORKVERSION	QUANT	7.01	Framework Version
INSTRUMENTVERSION	LABEL	4.00	Instrument Version
CURVE	TABLE	103
	Pt	T	Vf	Im	Vu	Pwr	Sig	Ach	Temp	IERange	Over
	#	s	V	A	V	W	V	V	deg C	#	bits
	0	0.013333	5.84332E-001	2.79990E-004	0.00000E+000	1.63607E-004	1.68088E-001	5.84641E-001	3.57830E+000	9	...........
	1	0.026667	6.13389E-001	2.81123E-004	0.00000E+000	1.72438E-004	1.68088E-001	6.13653E-001	3.57830E+000	9	...........
	2	0.04	6.37870E-001	2.80847E-004	0.00000E+000	1.79144E-004	1.68088E-001	6.38142E-001	3.57830E+000	9	...........
	3	0.053333	6.59079E-001	2.81295E-004	0.00000E+000	1.85396E-004	1.68088E-001	6.59368E-001	3.57830E+000	9	...........
	4	0.066667	6.77782E-001	2.81509E-004	0.00000E+000	1.90801E-004	1.68088E-001	6.78067E-001	3.57830E+000	9	...........
	5	0.08	6.94481E-001	2.81221E-004	0.00000E+000	1.95303E-004	1.68088E-001	6.94729E-001	3.57830E+000	9	...........
	6	0.093333	7.09539E-001	2.80875E-004	0.00000E+000	1.99292E-004	1.68088E-001	7.09809E-001	3.57830E+000	9	...........
	7	0.106667	7.23264E-001	2.80642E-004	0.00000E+000	2.02978E-004	1.68088E-001	7.23520E-001	3.57830E+000	9	...........
	8	0.12	7.35803E-001	2.81074E-004	0.00000E+000	2.06815E-004	1.68088E-001	7.36080E-001	3.57830E+000	9	...........
	9	0.133333	7.47344E-001	2.81323E-004	0.00000E+000	2.10245E-004	1.68088E-001	7.47606E-001	3.57830E+000	9	...........
	10	0.146667	7.57990E-001	2.81329E-004	0.00000E+000	2.13245E-004	1.68088E-001	7.58264E-001	3.57830E+000	9	...........
	11	0.16	7.67875E-001	2.81397E-004	0.00000E+000	2.16078E-004	1.68088E-001	7.68155E-001	3.57830E+000	9	...........
	12	0.173333	7.77069E-001	2.81339E-004	0.00000E+000	2.18620E-004	1.68088E-001	7.77370E-001	3.57830E+000	9	...........
	13	0.186667	7.85627E-001	2.81177E-004	0.00000E+000	2.20900E-004	1.68088E-001	7.85934E-001	3.57830E+000	9	...........
	14	0.2	7.93662E-001	2.81027E-004	0.00000E+000	2.23041E-004	1.68088E-001	7.93966E-001	3.57830E+000	9	...........
	15	0.213333	8.01211E-001	2.81470E-004	0.00000E+000	2.25517E-004	1.68088E-001	8.01498E-001	3.57830E+000	9	...........
	16	0.226667	8.08281E-001	2.81534E-004	0.00000E+000	2.27558E-004	1.68088E-001	8.08591E-001	3.57830E+000	9	...........
	17	0.24	8.14941E-001	2.81393E-004	0.00000E+000	2.29319E-004	1.68088E-001	8.15275E-001	3.57830E+000	9	...........
	18	0.253333	8.21274E-001	2.80653E-004	0.00000E+000	2.30493E-004	1.68088E-001	8.21595E-001	3.57830E+000	9	...........
	19	0.266667	8.27217E-001	2.80777E-004	0.00000E+000	2.32264E-004	1.68088E-001	8.27547E-001	3.57830E+000	9	...........
	20	0.28	8.32893E-001	2.81018E-004	0.00000E+000	2.34058E-004	1.68088E-001	8.33227E-001	3.57830E+000	9	...........
	21	0.293333	8.38245E-001	2.81105E-004	0.00000E+000	2.35635E-004	1.68088E-001	8.38606E-001	3.57830E+000	9	...........
	22	0.306667	8.43363E-001	2.81465E-004	0.00000E+000	2.37377E-004	1.68088E-001	8.43716E-001	3.57830E+000	9	...........
	23	0.32	8.48247E-001	2.80979E-004	0.00000E+000	2.38340E-004	1.68088E-001	8.48597E-001	3.57830E+000	9	...........
	24	0.333333	8.52900E-001	2.81459E-004	0.00000E+000	2.40056E-004	1.68088E-001	8.53274E-001	3.57830E+000	9	...........
	25	0.346667	8.57365E-001	2.81307E-004	0.00000E+000	2.41182E-004	1.68088E-001	8.57722E-001	3.57830E+000	9	...........
	26	0.36	8.61625E-001	2.80576E-004	0.00000E+000	2.41751E-004	1.68088E-001	8.61968E-001	3.57830E+000	9	...........
	27	0.373333	8.65675E-001	2.81074E-004	0.00000E+000	2.43319E-004	1.68088E-001	8.66036E-001	3.57830E+000	9	...........
	28	0.386667	8.69573E-001	2.80701E-004	0.00000E+000	2.44090E-004	1.68088E-001	8.69927E-001	3.57830E+000	9	...........
	29	0.4	8.73317E-001	2.80883E-004	0.00000E+000	2.45300E-004	1.68088E-001	8.73683E-001	3.57830E+000	9	...........
	30	0.413333	8.76931E-001	2.82123E-004	0.00000E+000	2.47403E-004	1.68088E-001	8.77288E-001	3.57830E+000	9	...........
	31	0.426667	8.80382E-001	2.81099E-004	0.00000E+000	2.47475E-004	1.68088E-001	8.80758E-001	3.57830E+000	9	...........
	32	0.44	8.83751E-001	2.80903E-004	0.00000E+000	2.48248E-004	1.68088E-001	8.84112E-001	3.57830E+000	9	...........
	33	0.453333	8.86959E-001	2.80608E-004	0.00000E+000	2.48888E-004	1.68088E-001	8.87321E-001	3.57830E+000	9	...........
	34	0.466667	8.90059E-001	2.80663E-004	0.00000E+000	2.49806E-004	1.68088E-001	8.90428E-001	3.57830E+000	9	...........
	35	0.48	8.93034E-001	2.81468E-004	0.00000E+000	2.51360E-004	1.68088E-001	8.93417E-001	3.57830E+000	9	...........
	36	0.493333	8.95939E-001	2.80545E-004	0.00000E+000	2.51351E-004	1.68088E-001	8.96338E-001	3.57830E+000	9	...........
	37	0.506667	8.98785E-001	2.81259E-004	0.00000E+000	2.52791E-004	1.68088E-001	8.99182E-001	3.57830E+000	9	...........
	38	0.52	9.01523E-001	2.80497E-004	0.00000E+000	2.52875E-004	1.68088E-001	9.01914E-001	3.57830E+000	9	...........
	39	0.533333	9.04142E-001	2.81690E-004	0.00000E+000	2.54688E-004	1.68088E-001	9.04533E-001	3.57830E+000	9	...........
	40	0.546667	9.06668E-001	2.81862E-004	0.00000E+000	2.55555E-004	1.68088E-001	9.07057E-001	3.57830E+000	9	...........
	41	0.56	9.09166E-001	2.81434E-004	0.00000E+000	2.55870E-004	1.68088E-001	9.09513E-001	3.57830E+000	9	...........
	42	0.573333	9.11556E-001	2.80971E-004	0.00000E+000	2.56121E-004	1.68088E-001	9.11913E-001	3.57830E+000	9	...........
	43	0.586667	9.13897E-001	2.80861E-004	0.00000E+000	2.56678E-004	1.68088E-001	9.14277E-001	3.57830E+000	9	...........
	44	0.6	9.16236E-001	2.80891E-004	0.00000E+000	2.57362E-004	1.68088E-001	9.16612E-001	3.58014E+000	9	...........
	45	0.613333	9.18438E-001	2.81762E-004	0.00000E+000	2.58781E-004	1.68088E-001	9.18848E-001	3.58040E+000	9	...........
	46	0.626667	9.20644E-001	2.81088E-004	0.00000E+000	2.58782E-004	1.68088E-001	9.21004E-001	3.58040E+000	9	...........
	47	0.64	9.22804E-001	2.81021E-004	0.00000E+000	2.59327E-004	1.68088E-001	9.23115E-001	3.58040E+000	9	...........
	48	0.653333	9.24890E-001	2.81248E-004	0.00000E+000	2.60123E-004	1.68088E-001	9.25195E-001	3.58040E+000	9	...........
	49	0.666667	9.26945E-001	2.80473E-004	0.00000E+000	2.59983E-004	1.68088E-001	9.27269E-001	3.58040E+000	9	...........
	50	0.68	9.28913E-001	2.80861E-004	0.00000E+000	2.60895E-004	1.68088E-001	9.29246E-001	3.58040E+000	9	...........
	51	0.693333	9.30902E-001	2.80680E-004	0.00000E+000	2.61286E-004	1.68088E-001	9.31228E-001	3.58040E+000	9	...........
	52	0.706667	9.32786E-001	2.80509E-004	0.00000E+000	2.61655E-004	1.68088E-001	9.33163E-001	3.58040E+000	9	...........
	53	0.72	9.34667E-001	2.81142E-004	0.00000E+000	2.62774E-004	1.68088E-001	9.35045E-001	3.58040E+000	9	...........
	54	0.733333	9.36503E-001	2.81648E-004	0.00000E+000	2.63764E-004	1.68088E-001	9.36893E-001	3.58040E+000	9	...........
	55	0.746667	9.38332E-001	2.82264E-004	0.00000E+000	2.64857E-004	1.68088E-001	9.38698E-001	3.58040E+000	9	...........
	56	0.76	9.40100E-001	2.81325E-004	0.00000E+000	2.64474E-004	1.68088E-001	9.40499E-001	3.58040E+000	9	...........
	57	0.773333	9.41819E-001	2.81263E-004	0.00000E+000	2.64899E-004	1.68088E-001	9.42171E-001	3.58040E+000	9	...........
	58	0.786667	9.43518E-001	2.81502E-004	0.00000E+000	2.65602E-004	1.68088E-001	9.43889E-001	3.58040E+000	9	...........
	59	0.8	9.45204E-001	2.81673E-004	0.00000E+000	2.66239E-004	1.68088E-001	9.45593E-001	3.58040E+000	9	...........
	60	0.813333	9.46930E-001	2.80471E-004	0.00000E+000	2.65586E-004	1.68088E-001	9.47276E-001	3.58040E+000	9	...........
	61	0.826667	9.48575E-001	2.80846E-004	0.00000E+000	2.66403E-004	1.68088E-001	9.48930E-001	3.58040E+000	9	...........
	62	0.84	9.50151E-001	2.81407E-004	0.00000E+000	2.67379E-004	1.68088E-001	9.50503E-001	3.58040E+000	9	...........
	63	0.853333	9.51753E-001	2.81428E-004	0.00000E+000	2.67850E-004	1.68088E-001	9.52105E-001	3.58040E+000	9	...........
	64	0.866667	9.53336E-001	2.80273E-004	0.00000E+000	2.67194E-004	1.68088E-001	9.53655E-001	3.58040E+000	9	...........
	65	0.88	9.54867E-001	2.81113E-004	0.00000E+000	2.68425E-004	1.68088E-001	9.55208E-001	3.58040E+000	9	...........
	66	0.893333	9.56369E-001	2.81594E-004	0.00000E+000	2.69308E-004	1.68088E-001	9.56728E-001	3.58040E+000	9	...........
	67	0.906667	9.57887E-001	2.81404E-004	0.00000E+000	2.69554E-004	1.68088E-001	9.58249E-001	3.58040E+000	9	...........
	68	0.92	9.59384E-001	2.81042E-004	0.00000E+000	2.69627E-004	1.68088E-001	9.59748E-001	3.58040E+000	9	...........
	69	0.933333	9.60794E-001	2.80514E-004	0.00000E+000	2.69516E-004	1.68088E-001	9.61188E-001	3.58040E+000	9	...........
	70	0.946667	9.62228E-001	2.81554E-004	0.00000E+000	2.70920E-004	1.68088E-001	9.62606E-001	3.58040E+000	9	...........
	71	0.96	9.63614E-001	2.80891E-004	0.00000E+000	2.70670E-004	1.68088E-001	9.64003E-001	3.58040E+000	9	...........
	72	0.97333	9.65004E-001	2.81158E-004	0.00000E+000	2.71318E-004	1.68088E-001	9.65399E-001	3.58040E+000	9	...........
	73	0.98667	9.66379E-001	2.81464E-004	0.00000E+000	2.72001E-004	1.68088E-001	9.66764E-001	3.58040E+000	9	...........
	74	1	9.67727E-001	2.80974E-004	0.00000E+000	2.71906E-004	1.68088E-001	9.68099E-001	3.58040E+000	9	...........
	75	1.01333	9.69037E-001	2.81113E-004	0.00000E+000	2.72409E-004	1.68088E-001	9.69413E-001	3.58040E+000	9	...........
	76	1.02667	9.70338E-001	2.81096E-004	0.00000E+000	2.72758E-004	1.68088E-001	9.70735E-001	3.58040E+000	9	...........
	77	1.04	9.71638E-001	2.81373E-004	0.00000E+000	2.73393E-004	1.68088E-001	9.72048E-001	3.58040E+000	9	...........
	78	1.05333	9.72974E-001	2.80885E-004	0.00000E+000	2.73293E-004	1.68088E-001	9.73318E-001	3.58040E+000	9	...........
	79	1.06667	9.74264E-001	2.81172E-004	0.00000E+000	2.73936E-004	1.68088E-001	9.74593E-001	3.58040E+000	9	...........
	80	1.08	9.75531E-001	2.81249E-004	0.00000E+000	2.74367E-004	1.68088E-001	9.75845E-001	3.58040E+000	9	...........
	81	1.09333	9.76774E-001	2.80991E-004	0.00000E+000	2.74464E-004	1.68088E-001	9.77125E-001	3.58040E+000	9	...........
	82	1.10667	9.78000E-001	2.80603E-004	0.00000E+000	2.74430E-004	1.68088E-001	9.78340E-001	3.58040E+000	9	...........
	83	1.12	9.79198E-001	2.81425E-004	0.00000E+000	2.75571E-004	1.68088E-001	9.79544E-001	3.58040E+000	9	...........
	84	1.13333	9.80384E-001	2.81069E-004	0.00000E+000	2.75555E-004	1.68088E-001	9.80729E-001	3.58040E+000	9	...........
	85	1.14667	9.81532E-001	2.80916E-004	0.00000E+000	2.75728E-004	1.68088E-001	9.81893E-001	3.58040E+000	9	...........
	86	1.16	9.82695E-001	2.81552E-004	0.00000E+000	2.76680E-004	1.68088E-001	9.83066E-001	3.58040E+000	9	...........
	87	1.17333	9.83858E-001	2.81193E-004	0.00000E+000	2.76654E-004	1.68088E-001	9.84221E-001	3.58040E+000	9	...........
	88	1.18667	9.85019E-001	2.81232E-004	0.00000E+000	2.77018E-004	1.68088E-001	9.85379E-001	3.58040E+000	9	...........
	89	1.2	9.86131E-001	2.82082E-004	0.00000E+000	2.78169E-004	1.68088E-001	9.86509E-001	3.58040E+000	9	...........
	90	1.21333	9.87220E-001	2.80844E-004	0.00000E+000	2.77255E-004	1.68088E-001	9.87595E-001	3.58040E+000	9	...........
	91	1.22667	9.88308E-001	2.81302E-004	0.00000E+000	2.78013E-004	1.68088E-001	9.88662E-001	3.58040E+000	9	...........
	92	1.24	9.89407E-001	2.81399E-004	0.00000E+000	2.78418E-004	1.68088E-001	9.89774E-001	3.58040E+000	9	...........
	93	1.25333	9.90489E-001	2.80706E-004	0.00000E+000	2.78037E-004	1.68088E-001	9.90857E-001	3.58040E+000	9	...........
	94	1.26667	9.91507E-001	2.81658E-004	0.00000E+000	2.79265E-004	1.68088E-001	9.91899E-001	3.58040E+000	9	...........
	95	1.28	9.92560E-001	2.81016E-004	0.00000E+000	2.78925E-004	1.68088E-001	9.92954E-001	3.58040E+000	9	...........
	96	1.29333	9.93584E-001	2.81508E-004	0.00000E+000	2.79701E-004	1.68088E-001	9.93980E-001	3.58040E+000	9	...........
	97	1.30667	9.94603E-001	2.81860E-004	0.00000E+000	2.80338E-004	1.68088E-001	9.95017E-001	3.58040E+000	9	...........
	98	1.32	9.95651E-001	2.81309E-004	0.00000E+000	2.80085E-004	1.68088E-001	9.96027E-001	3.58040E+000	9	...........
	99	1.33333	9.96656E-001	2.80671E-004	0.00000E+000	2.79732E-004	1.68088E-001	9.97044E-001	3.58040E+000	9	...........
	100	1.34667	9.97673E-001	2.79858E-004	0.00000E+000	2.79207E-004	1.68088E-001	9.98076E-001	3.58040E+000	9	...........
	101	1.36	9.98676E-001	2.80897E-004	0.00000E+000	2.80525E-004	1.68088E-001	9.99066E-001	3.58040E+000	9	...........
	102	1.37333	9.99681E-001	2.80571E-004	0.00000E+000	2.80481E-004	1.68088E-001	1.00005E+000	3.58040E+000	9	...........
STARTTIMEOFFSET	QUANT	694.9302	Start Time Offset (s)
