EXPLAIN
TAG	PWR800_CHARGE
TITLE	LABEL	PWR Cyclic Charge Discharge (Cell) - Charge Step	Test &Identifier
DATE	LABEL	7-7-2017	Date
TIME	LABEL	15:54:21	Time
NOTES	NOTES	3	&Notes...
	supercap test cell
	2.8mg
	6M KOH
PSTAT	PSTAT	IFC5000-01520	Potentiostat
CAPACITY	QUANT	1.00000E-003	Capacity (A-hr)
CELLTYPE	SELECTOR	1	&Cell Type
WORKINGCONNECTION	SELECTOR	0	&Working Lead
MAXCHARGETIME	VARIABLEANDUNITS	1.00000E+002	s	1.00000E+002	second(s)	Max &Charge Time
CHARGECURRENT	QUANT	2.80000E-004	&Charge Current (A) 
VOLTAGEFINISH	TWOPARAM	F	1.00000E-003	3.60000E+003	&Voltage Finish	 I (A) < 	Max Time(s)
SAMPLETIME	QUANT	1.00000E-002	Sa&mple Period (s)
CHARGESTOPAT1	MULTIPARAM	4	1.00000E+000	Charge Stop At &1	Voltage > Limit	V
CHARGESTOPAT2	MULTIPARAM	0	0.00000E+000	Charge Stop At &2	None	N/A
AESBHCSELECTOR	TOGGLE	F	Save Both Half Cells
IRCOMP	TOGGLE	F	IR &Measure
EOC	QUANT	0	Open Circuit (V)
SEQUENCER	TOGGLE	TRUE	Run as Sequence
PSTATMODEL	IQUANT	53	Pstat Model
PSTATSECTION	LABEL	IFC5000-01520	Pstat Section
PSTATSERIALNO	LABEL	01520	Pstat Serial Number
CTRLMODE	IQUANT	0	Control Mode
ELECTROMETER	IQUANT	1	RE=0 or CS=1
IESTAB	IQUANT	0	I/E Stability
CASPEED	IQUANT	4	Control Amp Speed
CONVENTION	IQUANT	1	Current Convention
ICHRANGE	IQUANT	2	Ich Range
ICHRANGEMODE	TOGGLE	T	Ich Auto Range
ICHOFFSETENABLE	TOGGLE	F	Ich Offset Enable
ICHOFFSET	QUANT	0	Ich Offset (V)
ICHFILTER	IQUANT	1	Ich Filter
VCHRANGE	IQUANT	2	Vch Range
VCHRANGEMODE	TOGGLE	T	Vch Auto Range
VCHOFFSETENABLE	TOGGLE	F	Vch Offset Enable
VCHOFFSET	QUANT	0	Vch Offset (V)
VCHFILTER	IQUANT	1	Vch Filter
IERANGELOWERLIMIT	IQUANT	9	I/E Range Lower Limit
IERANGEMODE	TOGGLE	F	I/E AutoRange
IERANGE	IQUANT	9	I/E Range
ACHSELECT	IQUANT	1	Ach Select
ACHRANGE	IQUANT	2	Ach Range
ACHOFFSETENABLE	TOGGLE	F	Ach Offset Enable
ACHOFFSET	QUANT	0	Ach Offset (V)
ACHFILTER	IQUANT	1	Ach Filter
CABLEID	IQUANT	14	Cable ID
DCCALDATE	LABEL	5-7-2017	DC Calibration Date
ACCALDATE	LABEL	12/3/2015	AC Calibration Date
FRAMEWORKVERSION	QUANT	7.01	Framework Version
INSTRUMENTVERSION	LABEL	4.00	Instrument Version
CURVE	TABLE	92
	Pt	T	Vf	Im	Vu	Pwr	Sig	Ach	Temp	IERange	Over
	#	s	V	A	V	W	V	V	deg C	#	bits
	0	0.013333	5.92886E-001	2.81667E-004	0.00000E+000	1.66996E-004	1.68088E-001	5.93223E-001	3.57870E+000	9	...........
	1	0.026667	6.21955E-001	2.80881E-004	0.00000E+000	1.74696E-004	1.68088E-001	6.22274E-001	3.57870E+000	9	...........
	2	0.04	6.46598E-001	2.81021E-004	0.00000E+000	1.81708E-004	1.68088E-001	6.46931E-001	3.57870E+000	9	...........
	3	0.053333	6.68065E-001	2.81590E-004	0.00000E+000	1.88120E-004	1.68088E-001	6.68358E-001	3.57870E+000	9	...........
	4	0.066667	6.86993E-001	2.81409E-004	0.00000E+000	1.93326E-004	1.68088E-001	6.87319E-001	3.57870E+000	9	...........
	5	0.08	7.04004E-001	2.81886E-004	0.00000E+000	1.98449E-004	1.68088E-001	7.04303E-001	3.57870E+000	9	...........
	6	0.093333	7.19380E-001	2.81395E-004	0.00000E+000	2.02430E-004	1.68088E-001	7.19684E-001	3.57870E+000	9	...........
	7	0.106667	7.33384E-001	2.80849E-004	0.00000E+000	2.05970E-004	1.68088E-001	7.33681E-001	3.57870E+000	9	...........
	8	0.12	7.46237E-001	2.81383E-004	0.00000E+000	2.09978E-004	1.68088E-001	7.46536E-001	3.57870E+000	9	...........
	9	0.133333	7.58037E-001	2.81685E-004	0.00000E+000	2.13527E-004	1.68088E-001	7.58334E-001	3.57870E+000	9	...........
	10	0.146667	7.68958E-001	2.82625E-004	0.00000E+000	2.17326E-004	1.68088E-001	7.69260E-001	3.57870E+000	9	...........
	11	0.16	7.79079E-001	2.80875E-004	0.00000E+000	2.18824E-004	1.68088E-001	7.79367E-001	3.57870E+000	9	...........
	12	0.173333	7.88505E-001	2.81622E-004	0.00000E+000	2.22061E-004	1.68088E-001	7.88786E-001	3.57870E+000	9	...........
	13	0.186667	7.97362E-001	2.81445E-004	0.00000E+000	2.24414E-004	1.68088E-001	7.97628E-001	3.57870E+000	9	...........
	14	0.2	8.05582E-001	2.80173E-004	0.00000E+000	2.25702E-004	1.68088E-001	8.05863E-001	3.57870E+000	9	...........
	15	0.213333	8.13297E-001	2.81859E-004	0.00000E+000	2.29235E-004	1.68088E-001	8.13598E-001	3.57870E+000	9	...........
	16	0.226667	8.20568E-001	2.80990E-004	0.00000E+000	2.30571E-004	1.68088E-001	8.20860E-001	3.57870E+000	9	...........
	17	0.24	8.27395E-001	2.81380E-004	0.00000E+000	2.32813E-004	1.68088E-001	8.27712E-001	3.57870E+000	9	...........
	18	0.253333	8.33806E-001	2.80892E-004	0.00000E+000	2.34209E-004	1.68088E-001	8.34146E-001	3.57870E+000	9	...........
	19	0.266667	8.39914E-001	2.81018E-004	0.00000E+000	2.36031E-004	1.68088E-001	8.40231E-001	3.57870E+000	9	...........
	20	0.28	8.45675E-001	2.81666E-004	0.00000E+000	2.38198E-004	1.68088E-001	8.45997E-001	3.57870E+000	9	...........
	21	0.293333	8.51141E-001	2.81236E-004	0.00000E+000	2.39371E-004	1.68088E-001	8.51454E-001	3.57870E+000	9	...........
	22	0.306667	8.56344E-001	2.82096E-004	0.00000E+000	2.41571E-004	1.68088E-001	8.56637E-001	3.57870E+000	9	...........
	23	0.32	8.61282E-001	2.80572E-004	0.00000E+000	2.41652E-004	1.68088E-001	8.61614E-001	3.57870E+000	9	...........
	24	0.333333	8.65998E-001	2.80730E-004	0.00000E+000	2.43112E-004	1.68088E-001	8.66327E-001	3.57870E+000	9	...........
	25	0.346667	8.70502E-001	2.81299E-004	0.00000E+000	2.44872E-004	1.68088E-001	8.70867E-001	3.57870E+000	9	...........
	26	0.36	8.74807E-001	2.80537E-004	0.00000E+000	2.45415E-004	1.68088E-001	8.75123E-001	3.57870E+000	9	...........
	27	0.373333	8.78885E-001	2.81414E-004	0.00000E+000	2.47330E-004	1.68088E-001	8.79216E-001	3.57870E+000	9	...........
	28	0.386667	8.82844E-001	2.81493E-004	0.00000E+000	2.48514E-004	1.68088E-001	8.83159E-001	3.57870E+000	9	...........
	29	0.4	8.86624E-001	2.81807E-004	0.00000E+000	2.49857E-004	1.68088E-001	8.86955E-001	3.57870E+000	9	...........
	30	0.413333	8.90209E-001	2.81590E-004	0.00000E+000	2.50674E-004	1.68088E-001	8.90536E-001	3.57870E+000	9	...........
	31	0.426667	8.93673E-001	2.80942E-004	0.00000E+000	2.51070E-004	1.68088E-001	8.94020E-001	3.57870E+000	9	...........
	32	0.44	8.97024E-001	2.81090E-004	0.00000E+000	2.52144E-004	1.68088E-001	8.97387E-001	3.57870E+000	9	...........
	33	0.453333	9.00252E-001	2.80930E-004	0.00000E+000	2.52908E-004	1.68088E-001	9.00608E-001	3.57870E+000	9	...........
	34	0.466667	9.03377E-001	2.81280E-004	0.00000E+000	2.54102E-004	1.68088E-001	9.03714E-001	3.57870E+000	9	...........
	35	0.48	9.06389E-001	2.80209E-004	0.00000E+000	2.53979E-004	1.68088E-001	9.06762E-001	3.57870E+000	9	...........
	36	0.493333	9.09295E-001	2.81651E-004	0.00000E+000	2.56104E-004	1.68088E-001	9.09652E-001	3.57870E+000	9	...........
	37	0.506667	9.12115E-001	2.80934E-004	0.00000E+000	2.56244E-004	1.68088E-001	9.12455E-001	3.57870E+000	9	...........
	38	0.52	9.14825E-001	2.81859E-004	0.00000E+000	2.57851E-004	1.68088E-001	9.15202E-001	3.57870E+000	9	...........
	39	0.533333	9.17466E-001	2.81275E-004	0.00000E+000	2.58060E-004	1.68088E-001	9.17809E-001	3.57870E+000	9	...........
	40	0.546667	9.20041E-001	2.81324E-004	0.00000E+000	2.58830E-004	1.68088E-001	9.20383E-001	3.57870E+000	9	...........
	41	0.56	9.22636E-001	2.80500E-004	0.00000E+000	2.58800E-004	1.68088E-001	9.22944E-001	3.57870E+000	9	...........
	42	0.573333	9.25066E-001	2.81078E-004	0.00000E+000	2.60016E-004	1.68088E-001	9.25394E-001	3.57870E+000	9	...........
	43	0.586667	9.27409E-001	2.81074E-004	0.00000E+000	2.60671E-004	1.68088E-001	9.27758E-001	3.57870E+000	9	...........
	44	0.6	9.29693E-001	2.81037E-004	0.00000E+000	2.61278E-004	1.68088E-001	9.29982E-001	3.57870E+000	9	...........
	45	0.613333	9.31887E-001	2.80728E-004	0.00000E+000	2.61607E-004	1.68088E-001	9.32218E-001	3.57870E+000	9	...........
	46	0.626667	9.34075E-001	2.80815E-004	0.00000E+000	2.62302E-004	1.68088E-001	9.34419E-001	3.57870E+000	9	...........
	47	0.64	9.36212E-001	2.80050E-004	0.00000E+000	2.62186E-004	1.68088E-001	9.36550E-001	3.57870E+000	9	...........
	48	0.653333	9.38296E-001	2.80827E-004	0.00000E+000	2.63499E-004	1.68088E-001	9.38658E-001	3.57870E+000	9	...........
	49	0.666667	9.40299E-001	2.81563E-004	0.00000E+000	2.64753E-004	1.68088E-001	9.40646E-001	3.57870E+000	9	...........
	50	0.68	9.42295E-001	2.81374E-004	0.00000E+000	2.65137E-004	1.68088E-001	9.42613E-001	3.57870E+000	9	...........
	51	0.693333	9.44253E-001	2.80262E-004	0.00000E+000	2.64638E-004	1.68088E-001	9.44596E-001	3.57870E+000	9	...........
	52	0.706667	9.46197E-001	2.81224E-004	0.00000E+000	2.66094E-004	1.68088E-001	9.46560E-001	3.57870E+000	9	...........
	53	0.72	9.48109E-001	2.81328E-004	0.00000E+000	2.66730E-004	1.68088E-001	9.48450E-001	3.57870E+000	9	...........
	54	0.733333	9.49909E-001	2.81077E-004	0.00000E+000	2.66998E-004	1.68088E-001	9.50258E-001	3.57870E+000	9	...........
	55	0.746667	9.51669E-001	2.81936E-004	0.00000E+000	2.68310E-004	1.68088E-001	9.52044E-001	3.57920E+000	9	...........
	56	0.76	9.53448E-001	2.80040E-004	0.00000E+000	2.67003E-004	1.68088E-001	9.53780E-001	3.57920E+000	9	...........
	57	0.773333	9.55172E-001	2.80073E-004	0.00000E+000	2.67518E-004	1.68088E-001	9.55531E-001	3.57920E+000	9	...........
	58	0.786667	9.56910E-001	2.80997E-004	0.00000E+000	2.68889E-004	1.68088E-001	9.57256E-001	3.57920E+000	9	...........
	59	0.8	9.58546E-001	2.81061E-004	0.00000E+000	2.69409E-004	1.68088E-001	9.58931E-001	3.57920E+000	9	...........
	60	0.813333	9.60181E-001	2.80407E-004	0.00000E+000	2.69242E-004	1.68088E-001	9.60550E-001	3.57920E+000	9	...........
	61	0.826667	9.61786E-001	2.80779E-004	0.00000E+000	2.70050E-004	1.68088E-001	9.62173E-001	3.57920E+000	9	...........
	62	0.84	9.63369E-001	2.81335E-004	0.00000E+000	2.71029E-004	1.68088E-001	9.63733E-001	3.57920E+000	9	...........
	63	0.853333	9.64891E-001	2.81234E-004	0.00000E+000	2.71360E-004	1.68088E-001	9.65251E-001	3.57920E+000	9	...........
	64	0.866667	9.66432E-001	2.81780E-004	0.00000E+000	2.72321E-004	1.68088E-001	9.66781E-001	3.57920E+000	9	...........
	65	0.88	9.67927E-001	2.80558E-004	0.00000E+000	2.71560E-004	1.68088E-001	9.68323E-001	3.57920E+000	9	...........
	66	0.893333	9.69398E-001	2.81374E-004	0.00000E+000	2.72764E-004	1.68088E-001	9.69800E-001	3.57920E+000	9	...........
	67	0.906667	9.70839E-001	2.80970E-004	0.00000E+000	2.72777E-004	1.68088E-001	9.71269E-001	3.57920E+000	9	...........
	68	0.92	9.72331E-001	2.80372E-004	0.00000E+000	2.72614E-004	1.68088E-001	9.72725E-001	3.57920E+000	9	...........
	69	0.933333	9.73746E-001	2.81266E-004	0.00000E+000	2.73882E-004	1.68088E-001	9.74123E-001	3.57920E+000	9	...........
	70	0.946667	9.75126E-001	2.80420E-004	0.00000E+000	2.73445E-004	1.68088E-001	9.75485E-001	3.57920E+000	9	...........
	71	0.96	9.76445E-001	2.81194E-004	0.00000E+000	2.74570E-004	1.68088E-001	9.76806E-001	3.57920E+000	9	...........
	72	0.97333	9.77770E-001	2.80703E-004	0.00000E+000	2.74463E-004	1.68088E-001	9.78149E-001	3.57920E+000	9	...........
	73	0.98667	9.79108E-001	2.81879E-004	0.00000E+000	2.75990E-004	1.68088E-001	9.79460E-001	3.57920E+000	9	...........
	74	1	9.80394E-001	2.80931E-004	0.00000E+000	2.75423E-004	1.68088E-001	9.80746E-001	3.57920E+000	9	...........
	75	1.01333	9.81664E-001	2.81191E-004	0.00000E+000	2.76035E-004	1.68088E-001	9.82023E-001	3.57920E+000	9	...........
	76	1.02667	9.82941E-001	2.80836E-004	0.00000E+000	2.76045E-004	1.68088E-001	9.83315E-001	3.57920E+000	9	...........
	77	1.04	9.84173E-001	2.81276E-004	0.00000E+000	2.76824E-004	1.68088E-001	9.84564E-001	3.57920E+000	9	...........
	78	1.05333	9.85427E-001	2.81605E-004	0.00000E+000	2.77501E-004	1.68088E-001	9.85826E-001	3.57920E+000	9	...........
	79	1.06667	9.86642E-001	2.81143E-004	0.00000E+000	2.77388E-004	1.68088E-001	9.87046E-001	3.57920E+000	9	...........
	80	1.08	9.87885E-001	2.80457E-004	0.00000E+000	2.77060E-004	1.68088E-001	9.88259E-001	3.57920E+000	9	...........
	81	1.09333	9.89061E-001	2.81873E-004	0.00000E+000	2.78790E-004	1.68088E-001	9.89442E-001	3.57920E+000	9	...........
	82	1.10667	9.90199E-001	2.81438E-004	0.00000E+000	2.78679E-004	1.68088E-001	9.90596E-001	3.57920E+000	9	...........
	83	1.12	9.91347E-001	2.80949E-004	0.00000E+000	2.78518E-004	1.68088E-001	9.91731E-001	3.57920E+000	9	...........
	84	1.13333	9.92523E-001	2.81129E-004	0.00000E+000	2.79027E-004	1.68088E-001	9.92906E-001	3.57920E+000	9	...........
	85	1.14667	9.93665E-001	2.80934E-004	0.00000E+000	2.79154E-004	1.68088E-001	9.94039E-001	3.57920E+000	9	...........
	86	1.16	9.94832E-001	2.81630E-004	0.00000E+000	2.80174E-004	1.68088E-001	9.95202E-001	3.57920E+000	9	...........
	87	1.17333	9.95955E-001	2.82244E-004	0.00000E+000	2.81102E-004	1.68088E-001	9.96332E-001	3.57920E+000	9	...........
	88	1.18667	9.97084E-001	2.81685E-004	0.00000E+000	2.80863E-004	1.68088E-001	9.97477E-001	3.57920E+000	9	...........
	89	1.2	9.98190E-001	2.80588E-004	0.00000E+000	2.80080E-004	1.68088E-001	9.98561E-001	3.57920E+000	9	...........
	90	1.21333	9.99319E-001	2.81314E-004	0.00000E+000	2.81122E-004	1.68088E-001	9.99661E-001	3.57920E+000	9	...........
	91	1.21667	1.00002E+000	2.81969E-004	0.00000E+000	2.81974E-004	1.68088E-001	1.00037E+000	3.57920E+000	9	...........
STARTTIMEOFFSET	QUANT	866.3485	Start Time Offset (s)
