EXPLAIN
TAG	PWR800_CHARGE
TITLE	LABEL	PWR Cyclic Charge Discharge (Cell) - Charge Step	Test &Identifier
DATE	LABEL	7-7-2017	Date
TIME	LABEL	16:12:02	Time
NOTES	NOTES	3	&Notes...
	supercap test cell
	2.8mg
	6M KOH
PSTAT	PSTAT	IFC5000-01520	Potentiostat
CAPACITY	QUANT	1.00000E-003	Capacity (A-hr)
CELLTYPE	SELECTOR	1	&Cell Type
WORKINGCONNECTION	SELECTOR	0	&Working Lead
MAXCHARGETIME	VARIABLEANDUNITS	1.00000E+002	s	1.00000E+002	second(s)	Max &Charge Time
CHARGECURRENT	QUANT	2.80000E-004	&Charge Current (A) 
VOLTAGEFINISH	TWOPARAM	F	1.00000E-003	3.60000E+003	&Voltage Finish	 I (A) < 	Max Time(s)
SAMPLETIME	QUANT	1.00000E-002	Sa&mple Period (s)
CHARGESTOPAT1	MULTIPARAM	4	1.00000E+000	Charge Stop At &1	Voltage > Limit	V
CHARGESTOPAT2	MULTIPARAM	0	0.00000E+000	Charge Stop At &2	None	N/A
AESBHCSELECTOR	TOGGLE	F	Save Both Half Cells
IRCOMP	TOGGLE	F	IR &Measure
EOC	QUANT	0	Open Circuit (V)
SEQUENCER	TOGGLE	TRUE	Run as Sequence
PSTATMODEL	IQUANT	53	Pstat Model
PSTATSECTION	LABEL	IFC5000-01520	Pstat Section
PSTATSERIALNO	LABEL	01520	Pstat Serial Number
CTRLMODE	IQUANT	0	Control Mode
ELECTROMETER	IQUANT	1	RE=0 or CS=1
IESTAB	IQUANT	0	I/E Stability
CASPEED	IQUANT	4	Control Amp Speed
CONVENTION	IQUANT	1	Current Convention
ICHRANGE	IQUANT	2	Ich Range
ICHRANGEMODE	TOGGLE	T	Ich Auto Range
ICHOFFSETENABLE	TOGGLE	F	Ich Offset Enable
ICHOFFSET	QUANT	0	Ich Offset (V)
ICHFILTER	IQUANT	1	Ich Filter
VCHRANGE	IQUANT	2	Vch Range
VCHRANGEMODE	TOGGLE	T	Vch Auto Range
VCHOFFSETENABLE	TOGGLE	F	Vch Offset Enable
VCHOFFSET	QUANT	0	Vch Offset (V)
VCHFILTER	IQUANT	1	Vch Filter
IERANGELOWERLIMIT	IQUANT	9	I/E Range Lower Limit
IERANGEMODE	TOGGLE	F	I/E AutoRange
IERANGE	IQUANT	9	I/E Range
ACHSELECT	IQUANT	1	Ach Select
ACHRANGE	IQUANT	2	Ach Range
ACHOFFSETENABLE	TOGGLE	F	Ach Offset Enable
ACHOFFSET	QUANT	0	Ach Offset (V)
ACHFILTER	IQUANT	1	Ach Filter
CABLEID	IQUANT	14	Cable ID
DCCALDATE	LABEL	5-7-2017	DC Calibration Date
ACCALDATE	LABEL	12/3/2015	AC Calibration Date
FRAMEWORKVERSION	QUANT	7.01	Framework Version
INSTRUMENTVERSION	LABEL	4.00	Instrument Version
CURVE	TABLE	67
	Pt	T	Vf	Im	Vu	Pwr	Sig	Ach	Temp	IERange	Over
	#	s	V	A	V	W	V	V	deg C	#	bits
	0	0.013333	6.04417E-001	2.80407E-004	0.00000E+000	1.69483E-004	1.68088E-001	6.04695E-001	3.57770E+000	9	...........
	1	0.026667	6.34585E-001	2.80443E-004	0.00000E+000	1.77965E-004	1.68088E-001	6.34852E-001	3.57770E+000	9	...........
	2	0.04	6.60479E-001	2.82660E-004	0.00000E+000	1.86691E-004	1.68088E-001	6.60758E-001	3.57770E+000	9	...........
	3	0.053333	6.83194E-001	2.79757E-004	0.00000E+000	1.91128E-004	1.68088E-001	6.83462E-001	3.57770E+000	9	...........
	4	0.066667	7.03435E-001	2.81867E-004	0.00000E+000	1.98275E-004	1.68088E-001	7.03734E-001	3.57770E+000	9	...........
	5	0.08	7.21726E-001	2.81780E-004	0.00000E+000	2.03368E-004	1.68088E-001	7.22004E-001	3.57770E+000	9	...........
	6	0.093333	7.38316E-001	2.81648E-004	0.00000E+000	2.07945E-004	1.68088E-001	7.38614E-001	3.57770E+000	9	...........
	7	0.106667	7.53535E-001	2.82758E-004	0.00000E+000	2.13068E-004	1.68088E-001	7.53826E-001	3.57770E+000	9	...........
	8	0.12	7.67513E-001	2.81003E-004	0.00000E+000	2.15674E-004	1.68088E-001	7.67816E-001	3.57770E+000	9	...........
	9	0.133333	7.80394E-001	2.81217E-004	0.00000E+000	2.19460E-004	1.68088E-001	7.80724E-001	3.57770E+000	9	...........
	10	0.146667	7.92344E-001	2.81172E-004	0.00000E+000	2.22785E-004	1.68088E-001	7.92654E-001	3.57770E+000	9	...........
	11	0.16	8.03406E-001	2.81672E-004	0.00000E+000	2.26297E-004	1.68088E-001	8.03725E-001	3.57770E+000	9	...........
	12	0.173333	8.13692E-001	2.80757E-004	0.00000E+000	2.28450E-004	1.68088E-001	8.14037E-001	3.57770E+000	9	...........
	13	0.186667	8.23336E-001	2.80053E-004	0.00000E+000	2.30578E-004	1.68088E-001	8.23658E-001	3.57770E+000	9	...........
	14	0.2	8.32310E-001	2.81740E-004	0.00000E+000	2.34495E-004	1.68088E-001	8.32631E-001	3.57770E+000	9	...........
	15	0.213333	8.40720E-001	2.82130E-004	0.00000E+000	2.37192E-004	1.68088E-001	8.41060E-001	3.57770E+000	9	...........
	16	0.226667	8.48605E-001	2.81783E-004	0.00000E+000	2.39122E-004	1.68088E-001	8.48931E-001	3.57770E+000	9	...........
	17	0.24	8.56018E-001	2.82194E-004	0.00000E+000	2.41563E-004	1.68088E-001	8.56348E-001	3.57770E+000	9	...........
	18	0.253333	8.62963E-001	2.81268E-004	0.00000E+000	2.42724E-004	1.68088E-001	8.63299E-001	3.57770E+000	9	...........
	19	0.266667	8.69542E-001	2.82997E-004	0.00000E+000	2.46078E-004	1.68088E-001	8.69871E-001	3.57770E+000	9	...........
	20	0.28	8.75733E-001	2.81312E-004	0.00000E+000	2.46354E-004	1.68088E-001	8.76054E-001	3.57770E+000	9	...........
	21	0.293333	8.81562E-001	2.78898E-004	0.00000E+000	2.45866E-004	1.68088E-001	8.81897E-001	3.57770E+000	9	...........
	22	0.306667	8.87119E-001	2.81430E-004	0.00000E+000	2.49662E-004	1.68088E-001	8.87439E-001	3.57815E+000	9	...........
	23	0.32	8.92370E-001	2.82110E-004	0.00000E+000	2.51746E-004	1.68088E-001	8.92683E-001	3.57830E+000	9	...........
	24	0.333333	8.97381E-001	2.80542E-004	0.00000E+000	2.51753E-004	1.68088E-001	8.97729E-001	3.57830E+000	9	...........
	25	0.346667	9.02096E-001	2.82170E-004	0.00000E+000	2.54545E-004	1.68088E-001	9.02450E-001	3.57830E+000	9	...........
	26	0.36	9.06599E-001	2.80380E-004	0.00000E+000	2.54192E-004	1.68088E-001	9.06955E-001	3.57830E+000	9	...........
	27	0.373333	9.10833E-001	2.80507E-004	0.00000E+000	2.55495E-004	1.68088E-001	9.11205E-001	3.57830E+000	9	...........
	28	0.386667	9.14925E-001	2.81117E-004	0.00000E+000	2.57201E-004	1.68088E-001	9.15270E-001	3.57830E+000	9	...........
	29	0.4	9.18823E-001	2.81075E-004	0.00000E+000	2.58259E-004	1.68088E-001	9.19167E-001	3.57830E+000	9	...........
	30	0.413333	9.22607E-001	2.82688E-004	0.00000E+000	2.60810E-004	1.68088E-001	9.22902E-001	3.57830E+000	9	...........
	31	0.426667	9.26178E-001	2.81212E-004	0.00000E+000	2.60452E-004	1.68088E-001	9.26493E-001	3.57830E+000	9	...........
	32	0.44	9.29618E-001	2.82175E-004	0.00000E+000	2.62315E-004	1.68088E-001	9.29898E-001	3.57830E+000	9	...........
	33	0.453333	9.32880E-001	2.82205E-004	0.00000E+000	2.63263E-004	1.68088E-001	9.33185E-001	3.57830E+000	9	...........
	34	0.466667	9.36060E-001	2.82316E-004	0.00000E+000	2.64265E-004	1.68088E-001	9.36379E-001	3.57830E+000	9	...........
	35	0.48	9.39129E-001	2.81046E-004	0.00000E+000	2.63938E-004	1.68088E-001	9.39444E-001	3.57830E+000	9	...........
	36	0.493333	9.42062E-001	2.82398E-004	0.00000E+000	2.66037E-004	1.68088E-001	9.42358E-001	3.57830E+000	9	...........
	37	0.506667	9.44867E-001	2.82430E-004	0.00000E+000	2.66858E-004	1.68088E-001	9.45185E-001	3.57830E+000	9	...........
	38	0.52	9.47643E-001	2.81220E-004	0.00000E+000	2.66496E-004	1.68088E-001	9.47955E-001	3.57830E+000	9	...........
	39	0.533333	9.50315E-001	2.80961E-004	0.00000E+000	2.67001E-004	1.68088E-001	9.50595E-001	3.57830E+000	9	...........
	40	0.546667	9.52871E-001	2.80996E-004	0.00000E+000	2.67753E-004	1.68088E-001	9.53196E-001	3.57830E+000	9	...........
	41	0.56	9.55353E-001	2.81814E-004	0.00000E+000	2.69232E-004	1.68088E-001	9.55663E-001	3.57830E+000	9	...........
	42	0.573333	9.57775E-001	2.80492E-004	0.00000E+000	2.68648E-004	1.68088E-001	9.58115E-001	3.57830E+000	9	...........
	43	0.586667	9.60110E-001	2.82152E-004	0.00000E+000	2.70897E-004	1.68088E-001	9.60454E-001	3.57830E+000	9	...........
	44	0.6	9.62347E-001	2.81690E-004	0.00000E+000	2.71083E-004	1.68088E-001	9.62705E-001	3.57830E+000	9	...........
	45	0.613333	9.64524E-001	2.81153E-004	0.00000E+000	2.71179E-004	1.68088E-001	9.64923E-001	3.57830E+000	9	...........
	46	0.626667	9.66647E-001	2.82010E-004	0.00000E+000	2.72604E-004	1.68088E-001	9.67015E-001	3.57830E+000	9	...........
	47	0.64	9.68731E-001	2.81254E-004	0.00000E+000	2.72460E-004	1.68088E-001	9.69100E-001	3.57830E+000	9	...........
	48	0.653333	9.70749E-001	2.80658E-004	0.00000E+000	2.72449E-004	1.68088E-001	9.71144E-001	3.57830E+000	9	...........
	49	0.666667	9.72763E-001	2.81185E-004	0.00000E+000	2.73526E-004	1.68088E-001	9.73134E-001	3.57830E+000	9	...........
	50	0.68	9.74685E-001	2.80712E-004	0.00000E+000	2.73605E-004	1.68088E-001	9.75053E-001	3.57830E+000	9	...........
	51	0.693333	9.76567E-001	2.80641E-004	0.00000E+000	2.74065E-004	1.68088E-001	9.76950E-001	3.57830E+000	9	...........
	52	0.706667	9.78406E-001	2.80288E-004	0.00000E+000	2.74235E-004	1.68088E-001	9.78763E-001	3.57830E+000	9	...........
	53	0.72	9.80167E-001	2.80502E-004	0.00000E+000	2.74939E-004	1.68088E-001	9.80525E-001	3.57830E+000	9	...........
	54	0.733333	9.81908E-001	2.81780E-004	0.00000E+000	2.76682E-004	1.68088E-001	9.82256E-001	3.57830E+000	9	...........
	55	0.746667	9.83621E-001	2.80934E-004	0.00000E+000	2.76332E-004	1.68088E-001	9.84010E-001	3.57830E+000	9	...........
	56	0.76	9.85328E-001	2.80312E-004	0.00000E+000	2.76199E-004	1.68088E-001	9.85716E-001	3.57830E+000	9	...........
	57	0.773333	9.86946E-001	2.81503E-004	0.00000E+000	2.77829E-004	1.68088E-001	9.87327E-001	3.57830E+000	9	...........
	58	0.786667	9.88568E-001	2.81517E-004	0.00000E+000	2.78299E-004	1.68088E-001	9.88955E-001	3.57830E+000	9	...........
	59	0.8	9.90161E-001	2.80917E-004	0.00000E+000	2.78153E-004	1.68088E-001	9.90532E-001	3.57830E+000	9	...........
	60	0.813333	9.91750E-001	2.80780E-004	0.00000E+000	2.78464E-004	1.68088E-001	9.92124E-001	3.57830E+000	9	...........
	61	0.826667	9.93309E-001	2.81085E-004	0.00000E+000	2.79204E-004	1.68088E-001	9.93706E-001	3.57830E+000	9	...........
	62	0.84	9.94868E-001	2.81006E-004	0.00000E+000	2.79564E-004	1.68088E-001	9.95220E-001	3.57830E+000	9	...........
	63	0.853333	9.96356E-001	2.80837E-004	0.00000E+000	2.79813E-004	1.68088E-001	9.96710E-001	3.57830E+000	9	...........
	64	0.866667	9.97775E-001	2.81130E-004	0.00000E+000	2.80505E-004	1.68088E-001	9.98156E-001	3.57830E+000	9	...........
	65	0.88	9.99215E-001	2.81630E-004	0.00000E+000	2.81408E-004	1.68088E-001	9.99599E-001	3.57830E+000	9	...........
	66	0.883333	1.00010E+000	2.78789E-004	0.00000E+000	2.78816E-004	1.68088E-001	1.00049E+000	3.57830E+000	9	...........
STARTTIMEOFFSET	QUANT	1605.488	Start Time Offset (s)
