EXPLAIN
TAG	PWR800_CHARGE
TITLE	LABEL	PWR Cyclic Charge Discharge (Cell) - Charge Step	Test &Identifier
DATE	LABEL	7-7-2017	Date
TIME	LABEL	15:43:53	Time
NOTES	NOTES	3	&Notes...
	supercap test cell
	2.8mg
	6M KOH
PSTAT	PSTAT	IFC5000-01520	Potentiostat
CAPACITY	QUANT	1.00000E-003	Capacity (A-hr)
CELLTYPE	SELECTOR	1	&Cell Type
WORKINGCONNECTION	SELECTOR	0	&Working Lead
MAXCHARGETIME	VARIABLEANDUNITS	1.00000E+002	s	1.00000E+002	second(s)	Max &Charge Time
CHARGECURRENT	QUANT	2.80000E-004	&Charge Current (A) 
VOLTAGEFINISH	TWOPARAM	F	1.00000E-003	3.60000E+003	&Voltage Finish	 I (A) < 	Max Time(s)
SAMPLETIME	QUANT	1.00000E-002	Sa&mple Period (s)
CHARGESTOPAT1	MULTIPARAM	4	1.00000E+000	Charge Stop At &1	Voltage > Limit	V
CHARGESTOPAT2	MULTIPARAM	0	0.00000E+000	Charge Stop At &2	None	N/A
AESBHCSELECTOR	TOGGLE	F	Save Both Half Cells
IRCOMP	TOGGLE	F	IR &Measure
EOC	QUANT	0	Open Circuit (V)
SEQUENCER	TOGGLE	TRUE	Run as Sequence
PSTATMODEL	IQUANT	53	Pstat Model
PSTATSECTION	LABEL	IFC5000-01520	Pstat Section
PSTATSERIALNO	LABEL	01520	Pstat Serial Number
CTRLMODE	IQUANT	0	Control Mode
ELECTROMETER	IQUANT	1	RE=0 or CS=1
IESTAB	IQUANT	0	I/E Stability
CASPEED	IQUANT	4	Control Amp Speed
CONVENTION	IQUANT	1	Current Convention
ICHRANGE	IQUANT	2	Ich Range
ICHRANGEMODE	TOGGLE	T	Ich Auto Range
ICHOFFSETENABLE	TOGGLE	F	Ich Offset Enable
ICHOFFSET	QUANT	0	Ich Offset (V)
ICHFILTER	IQUANT	1	Ich Filter
VCHRANGE	IQUANT	2	Vch Range
VCHRANGEMODE	TOGGLE	T	Vch Auto Range
VCHOFFSETENABLE	TOGGLE	F	Vch Offset Enable
VCHOFFSET	QUANT	0	Vch Offset (V)
VCHFILTER	IQUANT	1	Vch Filter
IERANGELOWERLIMIT	IQUANT	9	I/E Range Lower Limit
IERANGEMODE	TOGGLE	F	I/E AutoRange
IERANGE	IQUANT	9	I/E Range
ACHSELECT	IQUANT	1	Ach Select
ACHRANGE	IQUANT	2	Ach Range
ACHOFFSETENABLE	TOGGLE	F	Ach Offset Enable
ACHOFFSET	QUANT	0	Ach Offset (V)
ACHFILTER	IQUANT	1	Ach Filter
CABLEID	IQUANT	14	Cable ID
DCCALDATE	LABEL	5-7-2017	DC Calibration Date
ACCALDATE	LABEL	12/3/2015	AC Calibration Date
FRAMEWORKVERSION	QUANT	7.01	Framework Version
INSTRUMENTVERSION	LABEL	4.00	Instrument Version
CURVE	TABLE	132
	Pt	T	Vf	Im	Vu	Pwr	Sig	Ach	Temp	IERange	Over
	#	s	V	A	V	W	V	V	deg C	#	bits
	0	0.013333	5.71659E-001	2.81208E-004	0.00000E+000	1.60755E-004	1.68088E-001	5.71937E-001	3.57860E+000	9	...........
	1	0.026667	6.00019E-001	2.80797E-004	0.00000E+000	1.68484E-004	1.68088E-001	6.00298E-001	3.57860E+000	9	...........
	2	0.04	6.23814E-001	2.80066E-004	0.00000E+000	1.74709E-004	1.68088E-001	6.24062E-001	3.57860E+000	9	...........
	3	0.053333	6.44204E-001	2.80775E-004	0.00000E+000	1.80877E-004	1.68088E-001	6.44449E-001	3.57860E+000	9	...........
	4	0.066667	6.62087E-001	2.81038E-004	0.00000E+000	1.86072E-004	1.68088E-001	6.62344E-001	3.57860E+000	9	...........
	5	0.08	6.77965E-001	2.81434E-004	0.00000E+000	1.90802E-004	1.68088E-001	6.78209E-001	3.57860E+000	9	...........
	6	0.093333	6.92230E-001	2.80599E-004	0.00000E+000	1.94239E-004	1.68088E-001	6.92473E-001	3.57860E+000	9	...........
	7	0.106667	7.05108E-001	2.81074E-004	0.00000E+000	1.98188E-004	1.68088E-001	7.05359E-001	3.57860E+000	9	...........
	8	0.12	7.16860E-001	2.80743E-004	0.00000E+000	2.01253E-004	1.68088E-001	7.17121E-001	3.57860E+000	9	...........
	9	0.133333	7.27644E-001	2.80330E-004	0.00000E+000	2.03981E-004	1.68088E-001	7.27904E-001	3.57860E+000	9	...........
	10	0.146667	7.37570E-001	2.81148E-004	0.00000E+000	2.07367E-004	1.68088E-001	7.37855E-001	3.57860E+000	9	...........
	11	0.16	7.46760E-001	2.81959E-004	0.00000E+000	2.10555E-004	1.68088E-001	7.47069E-001	3.57860E+000	9	...........
	12	0.173333	7.55311E-001	2.81045E-004	0.00000E+000	2.12276E-004	1.68088E-001	7.55631E-001	3.57860E+000	9	...........
	13	0.186667	7.63259E-001	2.80793E-004	0.00000E+000	2.14318E-004	1.68088E-001	7.63557E-001	3.57860E+000	9	...........
	14	0.2	7.70756E-001	2.80598E-004	0.00000E+000	2.16273E-004	1.68088E-001	7.71060E-001	3.57860E+000	9	...........
	15	0.213333	7.77736E-001	2.80768E-004	0.00000E+000	2.18363E-004	1.68088E-001	7.78050E-001	3.57860E+000	9	...........
	16	0.226667	7.84341E-001	2.81742E-004	0.00000E+000	2.20982E-004	1.68088E-001	7.84650E-001	3.57860E+000	9	...........
	17	0.24	7.90575E-001	2.81194E-004	0.00000E+000	2.22305E-004	1.68088E-001	7.90895E-001	3.57860E+000	9	...........
	18	0.253333	7.96502E-001	2.80928E-004	0.00000E+000	2.23760E-004	1.68088E-001	7.96812E-001	3.57860E+000	9	...........
	19	0.266667	8.02088E-001	2.80899E-004	0.00000E+000	2.25306E-004	1.68088E-001	8.02407E-001	3.57860E+000	9	...........
	20	0.28	8.07396E-001	2.81367E-004	0.00000E+000	2.27175E-004	1.68088E-001	8.07741E-001	3.57860E+000	9	...........
	21	0.293333	8.12473E-001	2.81409E-004	0.00000E+000	2.28637E-004	1.68088E-001	8.12815E-001	3.57860E+000	9	...........
	22	0.306667	8.17303E-001	2.81397E-004	0.00000E+000	2.29987E-004	1.68088E-001	8.17658E-001	3.57860E+000	9	...........
	23	0.32	8.21903E-001	2.80455E-004	0.00000E+000	2.30507E-004	1.68088E-001	8.22246E-001	3.57860E+000	9	...........
	24	0.333333	8.26259E-001	2.80952E-004	0.00000E+000	2.32139E-004	1.68088E-001	8.26605E-001	3.57860E+000	9	...........
	25	0.346667	8.30446E-001	2.81186E-004	0.00000E+000	2.33509E-004	1.68088E-001	8.30790E-001	3.57860E+000	9	...........
	26	0.36	8.34426E-001	2.80827E-004	0.00000E+000	2.34330E-004	1.68088E-001	8.34800E-001	3.57860E+000	9	...........
	27	0.373333	8.38287E-001	2.81234E-004	0.00000E+000	2.35755E-004	1.68088E-001	8.38662E-001	3.57860E+000	9	...........
	28	0.386667	8.42010E-001	2.80874E-004	0.00000E+000	2.36499E-004	1.68088E-001	8.42383E-001	3.57860E+000	9	...........
	29	0.4	8.45633E-001	2.81373E-004	0.00000E+000	2.37938E-004	1.68088E-001	8.46004E-001	3.57860E+000	9	...........
	30	0.413333	8.49048E-001	2.81739E-004	0.00000E+000	2.39210E-004	1.68088E-001	8.49442E-001	3.57860E+000	9	...........
	31	0.426667	8.52405E-001	2.80812E-004	0.00000E+000	2.39365E-004	1.68088E-001	8.52762E-001	3.57860E+000	9	...........
	32	0.44	8.55605E-001	2.81351E-004	0.00000E+000	2.40726E-004	1.68088E-001	8.55971E-001	3.57860E+000	9	...........
	33	0.453333	8.58698E-001	2.80398E-004	0.00000E+000	2.40777E-004	1.68088E-001	8.59084E-001	3.57860E+000	9	...........
	34	0.466667	8.61749E-001	2.81125E-004	0.00000E+000	2.42259E-004	1.68088E-001	8.62127E-001	3.57860E+000	9	...........
	35	0.48	8.64631E-001	2.81619E-004	0.00000E+000	2.43497E-004	1.68088E-001	8.65029E-001	3.57860E+000	9	...........
	36	0.493333	8.67472E-001	2.80484E-004	0.00000E+000	2.43312E-004	1.68088E-001	8.67881E-001	3.57860E+000	9	...........
	37	0.506667	8.70264E-001	2.81504E-004	0.00000E+000	2.44983E-004	1.68088E-001	8.70662E-001	3.57860E+000	9	...........
	38	0.52	8.72934E-001	2.80773E-004	0.00000E+000	2.45096E-004	1.68088E-001	8.73317E-001	3.57860E+000	9	...........
	39	0.533333	8.75536E-001	2.80909E-004	0.00000E+000	2.45946E-004	1.68088E-001	8.75897E-001	3.57860E+000	9	...........
	40	0.546667	8.78041E-001	2.81263E-004	0.00000E+000	2.46960E-004	1.68088E-001	8.78378E-001	3.57860E+000	9	...........
	41	0.56	8.80513E-001	2.79978E-004	0.00000E+000	2.46524E-004	1.68088E-001	8.80866E-001	3.57860E+000	9	...........
	42	0.573333	8.82949E-001	2.81144E-004	0.00000E+000	2.48236E-004	1.68088E-001	8.83289E-001	3.57860E+000	9	...........
	43	0.586667	8.85299E-001	2.80970E-004	0.00000E+000	2.48742E-004	1.68088E-001	8.85658E-001	3.58050E+000	9	...........
	44	0.6	8.87623E-001	2.81586E-004	0.00000E+000	2.49942E-004	1.68088E-001	8.88009E-001	3.58050E+000	9	...........
	45	0.613333	8.89870E-001	2.81264E-004	0.00000E+000	2.50288E-004	1.68088E-001	8.90232E-001	3.58050E+000	9	...........
	46	0.626667	8.92019E-001	2.80968E-004	0.00000E+000	2.50629E-004	1.68088E-001	8.92363E-001	3.58050E+000	9	...........
	47	0.64	8.94136E-001	2.81158E-004	0.00000E+000	2.51393E-004	1.68088E-001	8.94528E-001	3.58050E+000	9	...........
	48	0.653333	8.96244E-001	2.81401E-004	0.00000E+000	2.52204E-004	1.68088E-001	8.96649E-001	3.58050E+000	9	...........
	49	0.666667	8.98313E-001	2.80711E-004	0.00000E+000	2.52166E-004	1.68088E-001	8.98725E-001	3.58050E+000	9	...........
	50	0.68	9.00329E-001	2.80940E-004	0.00000E+000	2.52938E-004	1.68088E-001	9.00753E-001	3.58050E+000	9	...........
	51	0.693333	9.02349E-001	2.81562E-004	0.00000E+000	2.54067E-004	1.68088E-001	9.02744E-001	3.58050E+000	9	...........
	52	0.706667	9.04279E-001	2.80683E-004	0.00000E+000	2.53816E-004	1.68088E-001	9.04662E-001	3.58050E+000	9	...........
	53	0.72	9.06160E-001	2.81609E-004	0.00000E+000	2.55183E-004	1.68088E-001	9.06548E-001	3.58050E+000	9	...........
	54	0.733333	9.08065E-001	2.81301E-004	0.00000E+000	2.55440E-004	1.68088E-001	9.08464E-001	3.58050E+000	9	...........
	55	0.746667	9.09940E-001	2.81703E-004	0.00000E+000	2.56333E-004	1.68088E-001	9.10322E-001	3.58050E+000	9	...........
	56	0.76	9.11775E-001	2.81845E-004	0.00000E+000	2.56979E-004	1.68088E-001	9.12135E-001	3.58050E+000	9	...........
	57	0.773333	9.13542E-001	2.81478E-004	0.00000E+000	2.57142E-004	1.68088E-001	9.13944E-001	3.58050E+000	9	...........
	58	0.786667	9.15322E-001	2.81401E-004	0.00000E+000	2.57573E-004	1.68088E-001	9.15724E-001	3.58050E+000	9	...........
	59	0.8	9.17012E-001	2.81240E-004	0.00000E+000	2.57900E-004	1.68088E-001	9.17423E-001	3.58050E+000	9	...........
	60	0.813333	9.18681E-001	2.79996E-004	0.00000E+000	2.57227E-004	1.68088E-001	9.19078E-001	3.58050E+000	9	...........
	61	0.826667	9.20379E-001	2.81701E-004	0.00000E+000	2.59272E-004	1.68088E-001	9.20760E-001	3.58050E+000	9	...........
	62	0.84	9.21997E-001	2.80556E-004	0.00000E+000	2.58672E-004	1.68088E-001	9.22339E-001	3.58050E+000	9	...........
	63	0.853333	9.23620E-001	2.81670E-004	0.00000E+000	2.60156E-004	1.68088E-001	9.23955E-001	3.58050E+000	9	...........
	64	0.866667	9.25195E-001	2.80896E-004	0.00000E+000	2.59883E-004	1.68088E-001	9.25525E-001	3.58050E+000	9	...........
	65	0.88	9.26735E-001	2.81180E-004	0.00000E+000	2.60580E-004	1.68088E-001	9.27072E-001	3.58050E+000	9	...........
	66	0.893333	9.28303E-001	2.80519E-004	0.00000E+000	2.60407E-004	1.68088E-001	9.28622E-001	3.58050E+000	9	...........
	67	0.906667	9.29835E-001	2.81691E-004	0.00000E+000	2.61926E-004	1.68088E-001	9.30164E-001	3.58050E+000	9	...........
	68	0.92	9.31338E-001	2.82120E-004	0.00000E+000	2.62749E-004	1.68088E-001	9.31687E-001	3.58050E+000	9	...........
	69	0.933333	9.32785E-001	2.80552E-004	0.00000E+000	2.61695E-004	1.68088E-001	9.33144E-001	3.58050E+000	9	...........
	70	0.946667	9.34225E-001	2.81474E-004	0.00000E+000	2.62960E-004	1.68088E-001	9.34584E-001	3.58050E+000	9	...........
	71	0.96	9.35633E-001	2.80696E-004	0.00000E+000	2.62629E-004	1.68088E-001	9.36007E-001	3.58050E+000	9	...........
	72	0.97333	9.37033E-001	2.80635E-004	0.00000E+000	2.62964E-004	1.68088E-001	9.37428E-001	3.58050E+000	9	...........
	73	0.98667	9.38448E-001	2.81109E-004	0.00000E+000	2.63806E-004	1.68088E-001	9.38815E-001	3.58050E+000	9	...........
	74	1	9.39853E-001	2.80917E-004	0.00000E+000	2.64020E-004	1.68088E-001	9.40215E-001	3.58050E+000	9	...........
	75	1.01333	9.41241E-001	2.80643E-004	0.00000E+000	2.64152E-004	1.68088E-001	9.41570E-001	3.58050E+000	9	...........
	76	1.02667	9.42624E-001	2.80935E-004	0.00000E+000	2.64816E-004	1.68088E-001	9.42983E-001	3.58050E+000	9	...........
	77	1.04	9.43965E-001	2.81344E-004	0.00000E+000	2.65579E-004	1.68088E-001	9.44316E-001	3.58050E+000	9	...........
	78	1.05333	9.45260E-001	2.81063E-004	0.00000E+000	2.65677E-004	1.68088E-001	9.45625E-001	3.58050E+000	9	...........
	79	1.06667	9.46611E-001	2.80813E-004	0.00000E+000	2.65820E-004	1.68088E-001	9.46945E-001	3.58050E+000	9	...........
	80	1.08	9.47922E-001	2.80710E-004	0.00000E+000	2.66091E-004	1.68088E-001	9.48245E-001	3.58050E+000	9	...........
	81	1.09333	9.49227E-001	2.80881E-004	0.00000E+000	2.66620E-004	1.68088E-001	9.49546E-001	3.58050E+000	9	...........
	82	1.10667	9.50481E-001	2.81392E-004	0.00000E+000	2.67458E-004	1.68088E-001	9.50804E-001	3.58050E+000	9	...........
	83	1.12	9.51766E-001	2.80459E-004	0.00000E+000	2.66932E-004	1.68088E-001	9.52114E-001	3.58050E+000	9	...........
	84	1.13333	9.53005E-001	2.80599E-004	0.00000E+000	2.67412E-004	1.68088E-001	9.53370E-001	3.58050E+000	9	...........
	85	1.14667	9.54265E-001	2.80966E-004	0.00000E+000	2.68116E-004	1.68088E-001	9.54601E-001	3.58050E+000	9	...........
	86	1.16	9.55468E-001	2.80338E-004	0.00000E+000	2.67854E-004	1.68088E-001	9.55831E-001	3.58050E+000	9	...........
	87	1.17333	9.56700E-001	2.80516E-004	0.00000E+000	2.68369E-004	1.68088E-001	9.57058E-001	3.58050E+000	9	...........
	88	1.18667	9.57899E-001	2.81901E-004	0.00000E+000	2.70033E-004	1.68088E-001	9.58265E-001	3.58050E+000	9	...........
	89	1.2	9.59122E-001	2.81609E-004	0.00000E+000	2.70097E-004	1.68088E-001	9.59496E-001	3.58050E+000	9	...........
	90	1.21333	9.60271E-001	2.80971E-004	0.00000E+000	2.69808E-004	1.68088E-001	9.60643E-001	3.58050E+000	9	...........
	91	1.22667	9.61422E-001	2.80564E-004	0.00000E+000	2.69740E-004	1.68088E-001	9.61769E-001	3.58050E+000	9	...........
	92	1.24	9.62573E-001	2.80731E-004	0.00000E+000	2.70225E-004	1.68088E-001	9.62936E-001	3.58050E+000	9	...........
	93	1.25333	9.63698E-001	2.81379E-004	0.00000E+000	2.71165E-004	1.68088E-001	9.64075E-001	3.58050E+000	9	...........
	94	1.26667	9.64827E-001	2.80546E-004	0.00000E+000	2.70678E-004	1.68088E-001	9.65208E-001	3.58050E+000	9	...........
	95	1.28	9.65930E-001	2.81380E-004	0.00000E+000	2.71794E-004	1.68088E-001	9.66318E-001	3.58050E+000	9	...........
	96	1.29333	9.67013E-001	2.80842E-004	0.00000E+000	2.71578E-004	1.68088E-001	9.67403E-001	3.58050E+000	9	...........
	97	1.30667	9.68138E-001	2.81528E-004	0.00000E+000	2.72558E-004	1.68088E-001	9.68531E-001	3.58050E+000	9	...........
	98	1.32	9.69228E-001	2.81229E-004	0.00000E+000	2.72576E-004	1.68088E-001	9.69605E-001	3.58050E+000	9	...........
	99	1.33333	9.70270E-001	2.80890E-004	0.00000E+000	2.72539E-004	1.68088E-001	9.70684E-001	3.58050E+000	9	...........
	100	1.34667	9.71323E-001	2.82855E-004	0.00000E+000	2.74743E-004	1.68088E-001	9.71730E-001	3.58050E+000	9	...........
	101	1.36	9.72426E-001	2.80989E-004	0.00000E+000	2.73241E-004	1.68088E-001	9.72824E-001	3.58050E+000	9	...........
	102	1.37333	9.73499E-001	2.81367E-004	0.00000E+000	2.73910E-004	1.68088E-001	9.73850E-001	3.58050E+000	9	...........
	103	1.38667	9.74514E-001	2.80828E-004	0.00000E+000	2.73671E-004	1.68088E-001	9.74885E-001	3.58050E+000	9	...........
	104	1.4	9.75546E-001	2.80451E-004	0.00000E+000	2.73593E-004	1.68088E-001	9.75925E-001	3.58050E+000	9	...........
	105	1.41333	9.76551E-001	2.81246E-004	0.00000E+000	2.74651E-004	1.68088E-001	9.76950E-001	3.58050E+000	9	...........
	106	1.42667	9.77588E-001	2.81405E-004	0.00000E+000	2.75099E-004	1.68088E-001	9.77965E-001	3.58050E+000	9	...........
	107	1.44	9.78547E-001	2.80923E-004	0.00000E+000	2.74896E-004	1.68088E-001	9.78910E-001	3.58050E+000	9	...........
	108	1.45333	9.79543E-001	2.81370E-004	0.00000E+000	2.75614E-004	1.68088E-001	9.79908E-001	3.58050E+000	9	...........
	109	1.46667	9.80563E-001	2.80948E-004	0.00000E+000	2.75487E-004	1.68088E-001	9.80930E-001	3.58050E+000	9	...........
	110	1.48	9.81544E-001	2.80654E-004	0.00000E+000	2.75475E-004	1.68088E-001	9.81916E-001	3.58050E+000	9	...........
	111	1.49333	9.82530E-001	2.81134E-004	0.00000E+000	2.76222E-004	1.68088E-001	9.82901E-001	3.58050E+000	9	...........
	112	1.50667	9.83495E-001	2.81265E-004	0.00000E+000	2.76623E-004	1.68088E-001	9.83862E-001	3.58050E+000	9	...........
	113	1.52	9.84459E-001	2.81468E-004	0.00000E+000	2.77094E-004	1.68088E-001	9.84855E-001	3.58050E+000	9	...........
	114	1.53333	9.85409E-001	2.80860E-004	0.00000E+000	2.76762E-004	1.68088E-001	9.85796E-001	3.58050E+000	9	...........
	115	1.54667	9.86322E-001	2.81362E-004	0.00000E+000	2.77513E-004	1.68088E-001	9.86721E-001	3.58050E+000	9	...........
	116	1.56	9.87256E-001	2.81212E-004	0.00000E+000	2.77628E-004	1.68088E-001	9.87644E-001	3.58050E+000	9	...........
	117	1.57333	9.88182E-001	2.80204E-004	0.00000E+000	2.76893E-004	1.68088E-001	9.88566E-001	3.58050E+000	9	...........
	118	1.58667	9.89123E-001	2.81209E-004	0.00000E+000	2.78150E-004	1.68088E-001	9.89525E-001	3.57870E+000	9	...........
	119	1.6	9.90045E-001	2.80928E-004	0.00000E+000	2.78132E-004	1.68088E-001	9.90441E-001	3.57870E+000	9	...........
	120	1.61333	9.90939E-001	2.81362E-004	0.00000E+000	2.78812E-004	1.68088E-001	9.91374E-001	3.57870E+000	9	...........
	121	1.62667	9.91836E-001	2.81479E-004	0.00000E+000	2.79181E-004	1.68088E-001	9.92247E-001	3.57870E+000	9	...........
	122	1.64	9.92686E-001	2.80493E-004	0.00000E+000	2.78441E-004	1.68088E-001	9.93109E-001	3.57870E+000	9	...........
	123	1.65333	9.93582E-001	2.81405E-004	0.00000E+000	2.79600E-004	1.68088E-001	9.94004E-001	3.57870E+000	9	...........
	124	1.66667	9.94435E-001	2.81037E-004	0.00000E+000	2.79473E-004	1.68088E-001	9.94854E-001	3.57870E+000	9	...........
	125	1.68	9.95353E-001	2.80397E-004	0.00000E+000	2.79094E-004	1.68088E-001	9.95729E-001	3.57870E+000	9	...........
	126	1.69333	9.96231E-001	2.81411E-004	0.00000E+000	2.80350E-004	1.68088E-001	9.96611E-001	3.57870E+000	9	...........
	127	1.70667	9.97052E-001	2.80972E-004	0.00000E+000	2.80144E-004	1.68088E-001	9.97472E-001	3.57870E+000	9	...........
	128	1.72	9.97898E-001	2.81230E-004	0.00000E+000	2.80639E-004	1.68088E-001	9.98294E-001	3.57870E+000	9	...........
	129	1.73333	9.98712E-001	2.81185E-004	0.00000E+000	2.80822E-004	1.68088E-001	9.99125E-001	3.57870E+000	9	...........
	130	1.74667	9.99540E-001	2.79993E-004	0.00000E+000	2.79864E-004	1.68088E-001	9.99942E-001	3.57870E+000	9	...........
	131	1.74833	1.00005E+000	2.79619E-004	0.00000E+000	2.79632E-004	1.68088E-001	1.00044E+000	3.57870E+000	9	...........
STARTTIMEOFFSET	QUANT	388.6468	Start Time Offset (s)
