EXPLAIN
TAG	PWR800_CHARGE
TITLE	LABEL	PWR Cyclic Charge Discharge (Cell) - Charge Step	Test &Identifier
DATE	LABEL	7-7-2017	Date
TIME	LABEL	15:56:51	Time
NOTES	NOTES	3	&Notes...
	supercap test cell
	2.8mg
	6M KOH
PSTAT	PSTAT	IFC5000-01520	Potentiostat
CAPACITY	QUANT	1.00000E-003	Capacity (A-hr)
CELLTYPE	SELECTOR	1	&Cell Type
WORKINGCONNECTION	SELECTOR	0	&Working Lead
MAXCHARGETIME	VARIABLEANDUNITS	1.00000E+002	s	1.00000E+002	second(s)	Max &Charge Time
CHARGECURRENT	QUANT	2.80000E-004	&Charge Current (A) 
VOLTAGEFINISH	TWOPARAM	F	1.00000E-003	3.60000E+003	&Voltage Finish	 I (A) < 	Max Time(s)
SAMPLETIME	QUANT	1.00000E-002	Sa&mple Period (s)
CHARGESTOPAT1	MULTIPARAM	4	1.00000E+000	Charge Stop At &1	Voltage > Limit	V
CHARGESTOPAT2	MULTIPARAM	0	0.00000E+000	Charge Stop At &2	None	N/A
AESBHCSELECTOR	TOGGLE	F	Save Both Half Cells
IRCOMP	TOGGLE	F	IR &Measure
EOC	QUANT	0	Open Circuit (V)
SEQUENCER	TOGGLE	TRUE	Run as Sequence
PSTATMODEL	IQUANT	53	Pstat Model
PSTATSECTION	LABEL	IFC5000-01520	Pstat Section
PSTATSERIALNO	LABEL	01520	Pstat Serial Number
CTRLMODE	IQUANT	0	Control Mode
ELECTROMETER	IQUANT	1	RE=0 or CS=1
IESTAB	IQUANT	0	I/E Stability
CASPEED	IQUANT	4	Control Amp Speed
CONVENTION	IQUANT	1	Current Convention
ICHRANGE	IQUANT	2	Ich Range
ICHRANGEMODE	TOGGLE	T	Ich Auto Range
ICHOFFSETENABLE	TOGGLE	F	Ich Offset Enable
ICHOFFSET	QUANT	0	Ich Offset (V)
ICHFILTER	IQUANT	1	Ich Filter
VCHRANGE	IQUANT	2	Vch Range
VCHRANGEMODE	TOGGLE	T	Vch Auto Range
VCHOFFSETENABLE	TOGGLE	F	Vch Offset Enable
VCHOFFSET	QUANT	0	Vch Offset (V)
VCHFILTER	IQUANT	1	Vch Filter
IERANGELOWERLIMIT	IQUANT	9	I/E Range Lower Limit
IERANGEMODE	TOGGLE	F	I/E AutoRange
IERANGE	IQUANT	9	I/E Range
ACHSELECT	IQUANT	1	Ach Select
ACHRANGE	IQUANT	2	Ach Range
ACHOFFSETENABLE	TOGGLE	F	Ach Offset Enable
ACHOFFSET	QUANT	0	Ach Offset (V)
ACHFILTER	IQUANT	1	Ach Filter
CABLEID	IQUANT	14	Cable ID
DCCALDATE	LABEL	5-7-2017	DC Calibration Date
ACCALDATE	LABEL	12/3/2015	AC Calibration Date
FRAMEWORKVERSION	QUANT	7.01	Framework Version
INSTRUMENTVERSION	LABEL	4.00	Instrument Version
CURVE	TABLE	87
	Pt	T	Vf	Im	Vu	Pwr	Sig	Ach	Temp	IERange	Over
	#	s	V	A	V	W	V	V	deg C	#	bits
	0	0.013333	5.93785E-001	2.80130E-004	0.00000E+000	1.66337E-004	1.68088E-001	5.94038E-001	3.57800E+000	9	...........
	1	0.026667	6.23149E-001	2.81453E-004	0.00000E+000	1.75387E-004	1.68088E-001	6.23396E-001	3.57800E+000	9	...........
	2	0.04	6.48095E-001	2.81422E-004	0.00000E+000	1.82388E-004	1.68088E-001	6.48352E-001	3.57800E+000	9	...........
	3	0.053333	6.69827E-001	2.81396E-004	0.00000E+000	1.88487E-004	1.68088E-001	6.70082E-001	3.57800E+000	9	...........
	4	0.066667	6.89057E-001	2.80989E-004	0.00000E+000	1.93617E-004	1.68088E-001	6.89329E-001	3.57800E+000	9	...........
	5	0.08	7.06324E-001	2.81628E-004	0.00000E+000	1.98921E-004	1.68088E-001	7.06605E-001	3.57800E+000	9	...........
	6	0.093333	7.21979E-001	2.81167E-004	0.00000E+000	2.02997E-004	1.68088E-001	7.22250E-001	3.57800E+000	9	...........
	7	0.106667	7.36221E-001	2.82305E-004	0.00000E+000	2.07839E-004	1.68088E-001	7.36463E-001	3.57800E+000	9	...........
	8	0.12	7.49300E-001	2.81260E-004	0.00000E+000	2.10748E-004	1.68088E-001	7.49541E-001	3.57800E+000	9	...........
	9	0.133333	7.61358E-001	2.80994E-004	0.00000E+000	2.13937E-004	1.68088E-001	7.61612E-001	3.57800E+000	9	...........
	10	0.146667	7.72512E-001	2.81399E-004	0.00000E+000	2.17384E-004	1.68088E-001	7.72797E-001	3.57800E+000	9	...........
	11	0.16	7.82849E-001	2.81805E-004	0.00000E+000	2.20611E-004	1.68088E-001	7.83125E-001	3.57800E+000	9	...........
	12	0.173333	7.92493E-001	2.81466E-004	0.00000E+000	2.23060E-004	1.68088E-001	7.92712E-001	3.57800E+000	9	...........
	13	0.186667	8.01429E-001	2.82054E-004	0.00000E+000	2.26046E-004	1.68088E-001	8.01683E-001	3.57800E+000	9	...........
	14	0.2	8.09817E-001	2.80218E-004	0.00000E+000	2.26925E-004	1.68088E-001	8.10065E-001	3.57800E+000	9	...........
	15	0.213333	8.17727E-001	2.81336E-004	0.00000E+000	2.30056E-004	1.68088E-001	8.17990E-001	3.57800E+000	9	...........
	16	0.226667	8.25131E-001	2.80371E-004	0.00000E+000	2.31343E-004	1.68088E-001	8.25411E-001	3.57800E+000	9	...........
	17	0.24	8.32054E-001	2.81355E-004	0.00000E+000	2.34103E-004	1.68088E-001	8.32368E-001	3.57800E+000	9	...........
	18	0.253333	8.38594E-001	2.81529E-004	0.00000E+000	2.36089E-004	1.68088E-001	8.38906E-001	3.57800E+000	9	...........
	19	0.266667	8.44784E-001	2.80974E-004	0.00000E+000	2.37362E-004	1.68088E-001	8.45093E-001	3.57800E+000	9	...........
	20	0.28	8.50668E-001	2.81809E-004	0.00000E+000	2.39726E-004	1.68088E-001	8.50986E-001	3.57800E+000	9	...........
	21	0.293333	8.56225E-001	2.80717E-004	0.00000E+000	2.40357E-004	1.68088E-001	8.56577E-001	3.57800E+000	9	...........
	22	0.306667	8.61522E-001	2.81235E-004	0.00000E+000	2.42290E-004	1.68088E-001	8.61821E-001	3.57800E+000	9	...........
	23	0.32	8.66530E-001	2.81687E-004	0.00000E+000	2.44090E-004	1.68088E-001	8.66844E-001	3.57800E+000	9	...........
	24	0.333333	8.71341E-001	2.82432E-004	0.00000E+000	2.46094E-004	1.68088E-001	8.71667E-001	3.57800E+000	9	...........
	25	0.346667	8.75908E-001	2.81213E-004	0.00000E+000	2.46316E-004	1.68088E-001	8.76218E-001	3.57800E+000	9	...........
	26	0.36	8.80239E-001	2.80491E-004	0.00000E+000	2.46899E-004	1.68088E-001	8.80548E-001	3.57800E+000	9	...........
	27	0.373333	8.84410E-001	2.81599E-004	0.00000E+000	2.49049E-004	1.68088E-001	8.84727E-001	3.57800E+000	9	...........
	28	0.386667	8.88369E-001	2.80919E-004	0.00000E+000	2.49560E-004	1.68088E-001	8.88722E-001	3.57800E+000	9	...........
	29	0.4	8.92196E-001	2.81064E-004	0.00000E+000	2.50764E-004	1.68088E-001	8.92533E-001	3.57800E+000	9	...........
	30	0.413333	8.95830E-001	2.81202E-004	0.00000E+000	2.51909E-004	1.68088E-001	8.96209E-001	3.57800E+000	9	...........
	31	0.426667	8.99345E-001	2.80989E-004	0.00000E+000	2.52706E-004	1.68088E-001	8.99733E-001	3.57800E+000	9	...........
	32	0.44	9.02704E-001	2.81102E-004	0.00000E+000	2.53752E-004	1.68088E-001	9.03112E-001	3.57800E+000	9	...........
	33	0.453333	9.05919E-001	2.81669E-004	0.00000E+000	2.55169E-004	1.68088E-001	9.06317E-001	3.57800E+000	9	...........
	34	0.466667	9.09069E-001	2.81197E-004	0.00000E+000	2.55627E-004	1.68088E-001	9.09482E-001	3.57800E+000	9	...........
	35	0.48	9.12045E-001	2.80843E-004	0.00000E+000	2.56141E-004	1.68088E-001	9.12463E-001	3.57800E+000	9	...........
	36	0.493333	9.14955E-001	2.80952E-004	0.00000E+000	2.57059E-004	1.68088E-001	9.15372E-001	3.57800E+000	9	...........
	37	0.506667	9.17786E-001	2.81762E-004	0.00000E+000	2.58597E-004	1.68088E-001	9.18202E-001	3.57800E+000	9	...........
	38	0.52	9.20560E-001	2.80976E-004	0.00000E+000	2.58656E-004	1.68088E-001	9.20938E-001	3.57800E+000	9	...........
	39	0.533333	9.23268E-001	2.81686E-004	0.00000E+000	2.60071E-004	1.68088E-001	9.23620E-001	3.57800E+000	9	...........
	40	0.546667	9.25834E-001	2.81240E-004	0.00000E+000	2.60381E-004	1.68088E-001	9.26219E-001	3.57800E+000	9	...........
	41	0.56	9.28338E-001	2.81311E-004	0.00000E+000	2.61151E-004	1.68088E-001	9.28694E-001	3.57800E+000	9	...........
	42	0.573333	9.30720E-001	2.80828E-004	0.00000E+000	2.61373E-004	1.68088E-001	9.31083E-001	3.57800E+000	9	...........
	43	0.586667	9.33056E-001	2.81392E-004	0.00000E+000	2.62555E-004	1.68088E-001	9.33409E-001	3.57800E+000	9	...........
	44	0.6	9.35322E-001	2.82126E-004	0.00000E+000	2.63879E-004	1.68088E-001	9.35682E-001	3.57800E+000	9	...........
	45	0.613333	9.37550E-001	2.81723E-004	0.00000E+000	2.64130E-004	1.68088E-001	9.37920E-001	3.57800E+000	9	...........
	46	0.626667	9.39725E-001	2.81584E-004	0.00000E+000	2.64611E-004	1.68088E-001	9.40085E-001	3.57800E+000	9	...........
	47	0.64	9.41843E-001	2.81140E-004	0.00000E+000	2.64790E-004	1.68088E-001	9.42170E-001	3.57800E+000	9	...........
	48	0.653333	9.43913E-001	2.80694E-004	0.00000E+000	2.64951E-004	1.68088E-001	9.44276E-001	3.57800E+000	9	...........
	49	0.666667	9.45966E-001	2.80787E-004	0.00000E+000	2.65615E-004	1.68088E-001	9.46331E-001	3.57800E+000	9	...........
	50	0.68	9.48023E-001	2.81291E-004	0.00000E+000	2.66670E-004	1.68088E-001	9.48365E-001	3.57800E+000	9	...........
	51	0.693333	9.49956E-001	2.80792E-004	0.00000E+000	2.66740E-004	1.68088E-001	9.50324E-001	3.57800E+000	9	...........
	52	0.706667	9.51890E-001	2.81651E-004	0.00000E+000	2.68101E-004	1.68088E-001	9.52250E-001	3.57800E+000	9	...........
	53	0.72	9.53789E-001	2.80705E-004	0.00000E+000	2.67734E-004	1.68088E-001	9.54120E-001	3.57800E+000	9	...........
	54	0.733333	9.55585E-001	2.80463E-004	0.00000E+000	2.68006E-004	1.68088E-001	9.55931E-001	3.57800E+000	9	...........
	55	0.746667	9.57346E-001	2.81270E-004	0.00000E+000	2.69273E-004	1.68088E-001	9.57704E-001	3.57800E+000	9	...........
	56	0.76	9.59081E-001	2.81971E-004	0.00000E+000	2.70433E-004	1.68088E-001	9.59453E-001	3.57800E+000	9	...........
	57	0.773333	9.60803E-001	2.81550E-004	0.00000E+000	2.70514E-004	1.68088E-001	9.61175E-001	3.57800E+000	9	...........
	58	0.786667	9.62490E-001	2.80455E-004	0.00000E+000	2.69935E-004	1.68088E-001	9.62844E-001	3.57800E+000	9	...........
	59	0.8	9.64092E-001	2.80856E-004	0.00000E+000	2.70771E-004	1.68088E-001	9.64454E-001	3.57800E+000	9	...........
	60	0.813333	9.65716E-001	2.80168E-004	0.00000E+000	2.70562E-004	1.68088E-001	9.66050E-001	3.57800E+000	9	...........
	61	0.826667	9.67300E-001	2.81092E-004	0.00000E+000	2.71900E-004	1.68088E-001	9.67663E-001	3.57800E+000	9	...........
	62	0.84	9.68887E-001	2.80786E-004	0.00000E+000	2.72050E-004	1.68088E-001	9.69229E-001	3.57800E+000	9	...........
	63	0.853333	9.70423E-001	2.81150E-004	0.00000E+000	2.72835E-004	1.68088E-001	9.70836E-001	3.57800E+000	9	...........
	64	0.866667	9.71978E-001	2.81946E-004	0.00000E+000	2.74046E-004	1.68088E-001	9.72355E-001	3.57800E+000	9	...........
	65	0.88	9.73493E-001	2.82290E-004	0.00000E+000	2.74807E-004	1.68088E-001	9.73838E-001	3.57800E+000	9	...........
	66	0.893333	9.74962E-001	2.80469E-004	0.00000E+000	2.73446E-004	1.68088E-001	9.75296E-001	3.57800E+000	9	...........
	67	0.906667	9.76407E-001	2.80690E-004	0.00000E+000	2.74067E-004	1.68088E-001	9.76765E-001	3.57800E+000	9	...........
	68	0.92	9.77804E-001	2.80742E-004	0.00000E+000	2.74510E-004	1.68088E-001	9.78169E-001	3.57800E+000	9	...........
	69	0.933333	9.79212E-001	2.80957E-004	0.00000E+000	2.75117E-004	1.68088E-001	9.79549E-001	3.57800E+000	9	...........
	70	0.946667	9.80581E-001	2.81297E-004	0.00000E+000	2.75835E-004	1.68088E-001	9.80906E-001	3.57800E+000	9	...........
	71	0.96	9.81954E-001	2.81455E-004	0.00000E+000	2.76376E-004	1.68088E-001	9.82285E-001	3.57800E+000	9	...........
	72	0.97333	9.83264E-001	2.81069E-004	0.00000E+000	2.76365E-004	1.68088E-001	9.83612E-001	3.57800E+000	9	...........
	73	0.98667	9.84599E-001	2.80953E-004	0.00000E+000	2.76626E-004	1.68088E-001	9.84967E-001	3.57800E+000	9	...........
	74	1	9.85900E-001	2.81479E-004	0.00000E+000	2.77510E-004	1.68088E-001	9.86297E-001	3.57796E+000	9	...........
	75	1.01333	9.87184E-001	2.80400E-004	0.00000E+000	2.76806E-004	1.68088E-001	9.87579E-001	3.57770E+000	9	...........
	76	1.02667	9.88504E-001	2.81273E-004	0.00000E+000	2.78040E-004	1.68088E-001	9.88875E-001	3.57770E+000	9	...........
	77	1.04	9.89781E-001	2.80635E-004	0.00000E+000	2.77767E-004	1.68088E-001	9.90142E-001	3.57770E+000	9	...........
	78	1.05333	9.91069E-001	2.81000E-004	0.00000E+000	2.78491E-004	1.68088E-001	9.91417E-001	3.57770E+000	9	...........
	79	1.06667	9.92322E-001	2.80693E-004	0.00000E+000	2.78538E-004	1.68088E-001	9.92675E-001	3.57770E+000	9	...........
	80	1.08	9.93536E-001	2.81825E-004	0.00000E+000	2.80004E-004	1.68088E-001	9.93922E-001	3.57770E+000	9	...........
	81	1.09333	9.94748E-001	2.81056E-004	0.00000E+000	2.79580E-004	1.68088E-001	9.95126E-001	3.57770E+000	9	...........
	82	1.10667	9.95927E-001	2.81310E-004	0.00000E+000	2.80164E-004	1.68088E-001	9.96322E-001	3.57770E+000	9	...........
	83	1.12	9.97092E-001	2.81809E-004	0.00000E+000	2.80989E-004	1.68088E-001	9.97505E-001	3.57770E+000	9	...........
	84	1.13333	9.98264E-001	2.81834E-004	0.00000E+000	2.81344E-004	1.68088E-001	9.98670E-001	3.57770E+000	9	...........
	85	1.14667	9.99387E-001	2.81845E-004	0.00000E+000	2.81672E-004	1.68088E-001	9.99792E-001	3.57770E+000	9	...........
	86	1.14833	1.00003E+000	2.80277E-004	0.00000E+000	2.80284E-004	1.68088E-001	1.00045E+000	3.57770E+000	9	...........
STARTTIMEOFFSET	QUANT	974.398	Start Time Offset (s)
