EXPLAIN
TAG	PWR800_CHARGE
TITLE	LABEL	PWR Cyclic Charge Discharge (Cell) - Charge Step	Test &Identifier
DATE	LABEL	7-7-2017	Date
TIME	LABEL	16:22:42	Time
NOTES	NOTES	3	&Notes...
	supercap test cell
	2.8mg
	6M KOH
PSTAT	PSTAT	IFC5000-01520	Potentiostat
CAPACITY	QUANT	1.00000E-003	Capacity (A-hr)
CELLTYPE	SELECTOR	1	&Cell Type
WORKINGCONNECTION	SELECTOR	0	&Working Lead
MAXCHARGETIME	VARIABLEANDUNITS	1.00000E+002	s	1.00000E+002	second(s)	Max &Charge Time
CHARGECURRENT	QUANT	2.80000E-004	&Charge Current (A) 
VOLTAGEFINISH	TWOPARAM	F	1.00000E-003	3.60000E+003	&Voltage Finish	 I (A) < 	Max Time(s)
SAMPLETIME	QUANT	1.00000E-002	Sa&mple Period (s)
CHARGESTOPAT1	MULTIPARAM	4	1.00000E+000	Charge Stop At &1	Voltage > Limit	V
CHARGESTOPAT2	MULTIPARAM	0	0.00000E+000	Charge Stop At &2	None	N/A
AESBHCSELECTOR	TOGGLE	F	Save Both Half Cells
IRCOMP	TOGGLE	F	IR &Measure
EOC	QUANT	0	Open Circuit (V)
SEQUENCER	TOGGLE	TRUE	Run as Sequence
PSTATMODEL	IQUANT	53	Pstat Model
PSTATSECTION	LABEL	IFC5000-01520	Pstat Section
PSTATSERIALNO	LABEL	01520	Pstat Serial Number
CTRLMODE	IQUANT	0	Control Mode
ELECTROMETER	IQUANT	1	RE=0 or CS=1
IESTAB	IQUANT	0	I/E Stability
CASPEED	IQUANT	4	Control Amp Speed
CONVENTION	IQUANT	1	Current Convention
ICHRANGE	IQUANT	2	Ich Range
ICHRANGEMODE	TOGGLE	T	Ich Auto Range
ICHOFFSETENABLE	TOGGLE	F	Ich Offset Enable
ICHOFFSET	QUANT	0	Ich Offset (V)
ICHFILTER	IQUANT	1	Ich Filter
VCHRANGE	IQUANT	2	Vch Range
VCHRANGEMODE	TOGGLE	T	Vch Auto Range
VCHOFFSETENABLE	TOGGLE	F	Vch Offset Enable
VCHOFFSET	QUANT	0	Vch Offset (V)
VCHFILTER	IQUANT	1	Vch Filter
IERANGELOWERLIMIT	IQUANT	9	I/E Range Lower Limit
IERANGEMODE	TOGGLE	F	I/E AutoRange
IERANGE	IQUANT	9	I/E Range
ACHSELECT	IQUANT	1	Ach Select
ACHRANGE	IQUANT	2	Ach Range
ACHOFFSETENABLE	TOGGLE	F	Ach Offset Enable
ACHOFFSET	QUANT	0	Ach Offset (V)
ACHFILTER	IQUANT	1	Ach Filter
CABLEID	IQUANT	14	Cable ID
DCCALDATE	LABEL	5-7-2017	DC Calibration Date
ACCALDATE	LABEL	12/3/2015	AC Calibration Date
FRAMEWORKVERSION	QUANT	7.01	Framework Version
INSTRUMENTVERSION	LABEL	4.00	Instrument Version
CURVE	TABLE	58
	Pt	T	Vf	Im	Vu	Pwr	Sig	Ach	Temp	IERange	Over
	#	s	V	A	V	W	V	V	deg C	#	bits
	0	0.013333	6.11850E-001	2.80706E-004	0.00000E+000	1.71750E-004	1.68088E-001	6.12096E-001	3.57850E+000	9	...........
	1	0.026667	6.42263E-001	2.80178E-004	0.00000E+000	1.79948E-004	1.68088E-001	6.42524E-001	3.57850E+000	9	...........
	2	0.04	6.68507E-001	2.81404E-004	0.00000E+000	1.88121E-004	1.68088E-001	6.68755E-001	3.57850E+000	9	...........
	3	0.053333	6.91611E-001	2.81242E-004	0.00000E+000	1.94510E-004	1.68088E-001	6.91872E-001	3.57850E+000	9	...........
	4	0.066667	7.12333E-001	2.81532E-004	0.00000E+000	2.00544E-004	1.68088E-001	7.12588E-001	3.57850E+000	9	...........
	5	0.08	7.31073E-001	2.81718E-004	0.00000E+000	2.05956E-004	1.68088E-001	7.31298E-001	3.57850E+000	9	...........
	6	0.093333	7.48113E-001	2.81325E-004	0.00000E+000	2.10463E-004	1.68088E-001	7.48372E-001	3.57850E+000	9	...........
	7	0.106667	7.63736E-001	2.80715E-004	0.00000E+000	2.14392E-004	1.68088E-001	7.64015E-001	3.57850E+000	9	...........
	8	0.12	7.78104E-001	2.81835E-004	0.00000E+000	2.19297E-004	1.68088E-001	7.78375E-001	3.57850E+000	9	...........
	9	0.133333	7.91386E-001	2.81006E-004	0.00000E+000	2.22385E-004	1.68088E-001	7.91649E-001	3.57850E+000	9	...........
	10	0.146667	8.03627E-001	2.81681E-004	0.00000E+000	2.26366E-004	1.68088E-001	8.03930E-001	3.57850E+000	9	...........
	11	0.16	8.15056E-001	2.80520E-004	0.00000E+000	2.28640E-004	1.68088E-001	8.15353E-001	3.57850E+000	9	...........
	12	0.173333	8.25664E-001	2.80940E-004	0.00000E+000	2.31962E-004	1.68088E-001	8.25948E-001	3.57850E+000	9	...........
	13	0.186667	8.35499E-001	2.80756E-004	0.00000E+000	2.34572E-004	1.68088E-001	8.35818E-001	3.57850E+000	9	...........
	14	0.2	8.44721E-001	2.80991E-004	0.00000E+000	2.37359E-004	1.68088E-001	8.45041E-001	3.57850E+000	9	...........
	15	0.213333	8.53348E-001	2.81606E-004	0.00000E+000	2.40308E-004	1.68088E-001	8.53662E-001	3.57850E+000	9	...........
	16	0.226667	8.61420E-001	2.81278E-004	0.00000E+000	2.42299E-004	1.68088E-001	8.61713E-001	3.57850E+000	9	...........
	17	0.24	8.68959E-001	2.81244E-004	0.00000E+000	2.44389E-004	1.68088E-001	8.69266E-001	3.57850E+000	9	...........
	18	0.253333	8.76103E-001	2.81215E-004	0.00000E+000	2.46373E-004	1.68088E-001	8.76424E-001	3.57850E+000	9	...........
	19	0.266667	8.82749E-001	2.80401E-004	0.00000E+000	2.47524E-004	1.68088E-001	8.83098E-001	3.57850E+000	9	...........
	20	0.28	8.89084E-001	2.81569E-004	0.00000E+000	2.50338E-004	1.68088E-001	8.89408E-001	3.57850E+000	9	...........
	21	0.293333	8.95027E-001	2.80035E-004	0.00000E+000	2.50639E-004	1.68088E-001	8.95365E-001	3.57850E+000	9	...........
	22	0.306667	9.00652E-001	2.80820E-004	0.00000E+000	2.52921E-004	1.68088E-001	9.01000E-001	3.57850E+000	9	...........
	23	0.32	9.05921E-001	2.82054E-004	0.00000E+000	2.55518E-004	1.68088E-001	9.06270E-001	3.57850E+000	9	...........
	24	0.333333	9.10954E-001	2.81494E-004	0.00000E+000	2.56428E-004	1.68088E-001	9.11272E-001	3.57850E+000	9	...........
	25	0.346667	9.15689E-001	2.81030E-004	0.00000E+000	2.57336E-004	1.68088E-001	9.16039E-001	3.57850E+000	9	...........
	26	0.36	9.20249E-001	2.81635E-004	0.00000E+000	2.59174E-004	1.68088E-001	9.20573E-001	3.57850E+000	9	...........
	27	0.373333	9.24596E-001	2.81325E-004	0.00000E+000	2.60112E-004	1.68088E-001	9.24865E-001	3.57850E+000	9	...........
	28	0.386667	9.28666E-001	2.80870E-004	0.00000E+000	2.60834E-004	1.68088E-001	9.28957E-001	3.57855E+000	9	...........
	29	0.4	9.32541E-001	2.79951E-004	0.00000E+000	2.61066E-004	1.68088E-001	9.32833E-001	3.57890E+000	9	...........
	30	0.413333	9.36265E-001	2.81129E-004	0.00000E+000	2.63212E-004	1.68088E-001	9.36586E-001	3.57890E+000	9	...........
	31	0.426667	9.39828E-001	2.81792E-004	0.00000E+000	2.64836E-004	1.68088E-001	9.40141E-001	3.57890E+000	9	...........
	32	0.44	9.43174E-001	2.80705E-004	0.00000E+000	2.64754E-004	1.68088E-001	9.43501E-001	3.57890E+000	9	...........
	33	0.453333	9.46455E-001	2.81073E-004	0.00000E+000	2.66023E-004	1.68088E-001	9.46803E-001	3.57890E+000	9	...........
	34	0.466667	9.49589E-001	2.81253E-004	0.00000E+000	2.67075E-004	1.68088E-001	9.49891E-001	3.57890E+000	9	...........
	35	0.48	9.52573E-001	2.80915E-004	0.00000E+000	2.67592E-004	1.68088E-001	9.52879E-001	3.57890E+000	9	...........
	36	0.493333	9.55440E-001	2.81014E-004	0.00000E+000	2.68492E-004	1.68088E-001	9.55766E-001	3.57890E+000	9	...........
	37	0.506667	9.58267E-001	2.81035E-004	0.00000E+000	2.69306E-004	1.68088E-001	9.58573E-001	3.57890E+000	9	...........
	38	0.52	9.60943E-001	2.81441E-004	0.00000E+000	2.70449E-004	1.68088E-001	9.61296E-001	3.57890E+000	9	...........
	39	0.533333	9.63518E-001	2.81941E-004	0.00000E+000	2.71655E-004	1.68088E-001	9.63881E-001	3.57890E+000	9	...........
	40	0.546667	9.66020E-001	2.82336E-004	0.00000E+000	2.72742E-004	1.68088E-001	9.66384E-001	3.57890E+000	9	...........
	41	0.56	9.68427E-001	2.81308E-004	0.00000E+000	2.72426E-004	1.68088E-001	9.68776E-001	3.57890E+000	9	...........
	42	0.573333	9.70737E-001	2.81073E-004	0.00000E+000	2.72848E-004	1.68088E-001	9.71126E-001	3.57890E+000	9	...........
	43	0.586667	9.73099E-001	2.80752E-004	0.00000E+000	2.73200E-004	1.68088E-001	9.73439E-001	3.57890E+000	9	...........
	44	0.6	9.75328E-001	2.80967E-004	0.00000E+000	2.74035E-004	1.68088E-001	9.75661E-001	3.57890E+000	9	...........
	45	0.613333	9.77495E-001	2.80472E-004	0.00000E+000	2.74160E-004	1.68088E-001	9.77824E-001	3.57890E+000	9	...........
	46	0.626667	9.79617E-001	2.80730E-004	0.00000E+000	2.75008E-004	1.68088E-001	9.79955E-001	3.57890E+000	9	...........
	47	0.64	9.81645E-001	2.81345E-004	0.00000E+000	2.76181E-004	1.68088E-001	9.81951E-001	3.57890E+000	9	...........
	48	0.653333	9.83594E-001	2.80953E-004	0.00000E+000	2.76344E-004	1.68088E-001	9.83937E-001	3.57890E+000	9	...........
	49	0.666667	9.85492E-001	2.80999E-004	0.00000E+000	2.76922E-004	1.68088E-001	9.85864E-001	3.57890E+000	9	...........
	50	0.68	9.87395E-001	2.80817E-004	0.00000E+000	2.77277E-004	1.68088E-001	9.87736E-001	3.57890E+000	9	...........
	51	0.693333	9.89270E-001	2.82199E-004	0.00000E+000	2.79171E-004	1.68088E-001	9.89596E-001	3.57890E+000	9	...........
	52	0.706667	9.91018E-001	2.81592E-004	0.00000E+000	2.79063E-004	1.68088E-001	9.91381E-001	3.57890E+000	9	...........
	53	0.72	9.92773E-001	2.81274E-004	0.00000E+000	2.79242E-004	1.68088E-001	9.93147E-001	3.57890E+000	9	...........
	54	0.733333	9.94508E-001	2.81473E-004	0.00000E+000	2.79927E-004	1.68088E-001	9.94875E-001	3.57890E+000	9	...........
	55	0.746667	9.96196E-001	2.81803E-004	0.00000E+000	2.80731E-004	1.68088E-001	9.96571E-001	3.57890E+000	9	...........
	56	0.76	9.97825E-001	2.80962E-004	0.00000E+000	2.80351E-004	1.68088E-001	9.98199E-001	3.57890E+000	9	...........
	57	0.773333	9.99428E-001	2.80300E-004	0.00000E+000	2.80140E-004	1.68088E-001	9.99769E-001	3.57890E+000	9	...........
STARTTIMEOFFSET	QUANT	2027.147	Start Time Offset (s)
