EXPLAIN
TAG	PWR800_CHARGE
TITLE	LABEL	PWR Cyclic Charge Discharge (Cell) - Charge Step	Test &Identifier
DATE	LABEL	7-7-2017	Date
TIME	LABEL	16:17:05	Time
NOTES	NOTES	3	&Notes...
	supercap test cell
	2.8mg
	6M KOH
PSTAT	PSTAT	IFC5000-01520	Potentiostat
CAPACITY	QUANT	1.00000E-003	Capacity (A-hr)
CELLTYPE	SELECTOR	1	&Cell Type
WORKINGCONNECTION	SELECTOR	0	&Working Lead
MAXCHARGETIME	VARIABLEANDUNITS	1.00000E+002	s	1.00000E+002	second(s)	Max &Charge Time
CHARGECURRENT	QUANT	2.80000E-004	&Charge Current (A) 
VOLTAGEFINISH	TWOPARAM	F	1.00000E-003	3.60000E+003	&Voltage Finish	 I (A) < 	Max Time(s)
SAMPLETIME	QUANT	1.00000E-002	Sa&mple Period (s)
CHARGESTOPAT1	MULTIPARAM	4	1.00000E+000	Charge Stop At &1	Voltage > Limit	V
CHARGESTOPAT2	MULTIPARAM	0	0.00000E+000	Charge Stop At &2	None	N/A
AESBHCSELECTOR	TOGGLE	F	Save Both Half Cells
IRCOMP	TOGGLE	F	IR &Measure
EOC	QUANT	0	Open Circuit (V)
SEQUENCER	TOGGLE	TRUE	Run as Sequence
PSTATMODEL	IQUANT	53	Pstat Model
PSTATSECTION	LABEL	IFC5000-01520	Pstat Section
PSTATSERIALNO	LABEL	01520	Pstat Serial Number
CTRLMODE	IQUANT	0	Control Mode
ELECTROMETER	IQUANT	1	RE=0 or CS=1
IESTAB	IQUANT	0	I/E Stability
CASPEED	IQUANT	4	Control Amp Speed
CONVENTION	IQUANT	1	Current Convention
ICHRANGE	IQUANT	2	Ich Range
ICHRANGEMODE	TOGGLE	T	Ich Auto Range
ICHOFFSETENABLE	TOGGLE	F	Ich Offset Enable
ICHOFFSET	QUANT	0	Ich Offset (V)
ICHFILTER	IQUANT	1	Ich Filter
VCHRANGE	IQUANT	2	Vch Range
VCHRANGEMODE	TOGGLE	T	Vch Auto Range
VCHOFFSETENABLE	TOGGLE	F	Vch Offset Enable
VCHOFFSET	QUANT	0	Vch Offset (V)
VCHFILTER	IQUANT	1	Vch Filter
IERANGELOWERLIMIT	IQUANT	9	I/E Range Lower Limit
IERANGEMODE	TOGGLE	F	I/E AutoRange
IERANGE	IQUANT	9	I/E Range
ACHSELECT	IQUANT	1	Ach Select
ACHRANGE	IQUANT	2	Ach Range
ACHOFFSETENABLE	TOGGLE	F	Ach Offset Enable
ACHOFFSET	QUANT	0	Ach Offset (V)
ACHFILTER	IQUANT	1	Ach Filter
CABLEID	IQUANT	14	Cable ID
DCCALDATE	LABEL	5-7-2017	DC Calibration Date
ACCALDATE	LABEL	12/3/2015	AC Calibration Date
FRAMEWORKVERSION	QUANT	7.01	Framework Version
INSTRUMENTVERSION	LABEL	4.00	Instrument Version
CURVE	TABLE	62
	Pt	T	Vf	Im	Vu	Pwr	Sig	Ach	Temp	IERange	Over
	#	s	V	A	V	W	V	V	deg C	#	bits
	0	0.013333	6.04750E-001	2.79765E-004	0.00000E+000	1.69188E-004	1.68088E-001	6.05007E-001	3.57730E+000	9	...........
	1	0.026667	6.35297E-001	2.79638E-004	0.00000E+000	1.77654E-004	1.68088E-001	6.35552E-001	3.57730E+000	9	...........
	2	0.04	6.61606E-001	2.82199E-004	0.00000E+000	1.86705E-004	1.68088E-001	6.61849E-001	3.57730E+000	9	...........
	3	0.053333	6.84747E-001	2.81656E-004	0.00000E+000	1.92863E-004	1.68088E-001	6.84984E-001	3.57730E+000	9	...........
	4	0.066667	7.05395E-001	2.81111E-004	0.00000E+000	1.98294E-004	1.68088E-001	7.05637E-001	3.57730E+000	9	...........
	5	0.08	7.24088E-001	2.81149E-004	0.00000E+000	2.03577E-004	1.68088E-001	7.24356E-001	3.57730E+000	9	...........
	6	0.093333	7.41100E-001	2.80511E-004	0.00000E+000	2.07886E-004	1.68088E-001	7.41355E-001	3.57730E+000	9	...........
	7	0.106667	7.56680E-001	2.81262E-004	0.00000E+000	2.12825E-004	1.68088E-001	7.56932E-001	3.57730E+000	9	...........
	8	0.12	7.70991E-001	2.81866E-004	0.00000E+000	2.17316E-004	1.68088E-001	7.71300E-001	3.57730E+000	9	...........
	9	0.133333	7.84241E-001	2.81166E-004	0.00000E+000	2.20502E-004	1.68088E-001	7.84529E-001	3.57730E+000	9	...........
	10	0.146667	7.96487E-001	2.80453E-004	0.00000E+000	2.23377E-004	1.68088E-001	7.96780E-001	3.57730E+000	9	...........
	11	0.16	8.07840E-001	2.81824E-004	0.00000E+000	2.27669E-004	1.68088E-001	8.08133E-001	3.57730E+000	9	...........
	12	0.173333	8.18404E-001	2.81135E-004	0.00000E+000	2.30082E-004	1.68088E-001	8.18711E-001	3.57730E+000	9	...........
	13	0.186667	8.28240E-001	2.81025E-004	0.00000E+000	2.32756E-004	1.68088E-001	8.28556E-001	3.57730E+000	9	...........
	14	0.2	8.37423E-001	2.80863E-004	0.00000E+000	2.35201E-004	1.68088E-001	8.37743E-001	3.57730E+000	9	...........
	15	0.213333	8.46047E-001	2.80091E-004	0.00000E+000	2.36970E-004	1.68088E-001	8.46382E-001	3.57730E+000	9	...........
	16	0.226667	8.54097E-001	2.81764E-004	0.00000E+000	2.40654E-004	1.68088E-001	8.54447E-001	3.57730E+000	9	...........
	17	0.24	8.61635E-001	2.79693E-004	0.00000E+000	2.40993E-004	1.68088E-001	8.61979E-001	3.57730E+000	9	...........
	18	0.253333	8.68758E-001	2.80982E-004	0.00000E+000	2.44106E-004	1.68088E-001	8.69111E-001	3.57730E+000	9	...........
	19	0.266667	8.75482E-001	2.81796E-004	0.00000E+000	2.46708E-004	1.68088E-001	8.75828E-001	3.57730E+000	9	...........
	20	0.28	8.81769E-001	2.81901E-004	0.00000E+000	2.48572E-004	1.68088E-001	8.82132E-001	3.57730E+000	9	...........
	21	0.293333	8.87751E-001	2.80936E-004	0.00000E+000	2.49401E-004	1.68088E-001	8.88114E-001	3.57730E+000	9	...........
	22	0.306667	8.93355E-001	2.80931E-004	0.00000E+000	2.50972E-004	1.68088E-001	8.93724E-001	3.57730E+000	9	...........
	23	0.32	8.98684E-001	2.82365E-004	0.00000E+000	2.53757E-004	1.68088E-001	8.99045E-001	3.57740E+000	9	...........
	24	0.333333	9.03703E-001	2.80397E-004	0.00000E+000	2.53396E-004	1.68088E-001	9.04070E-001	3.57770E+000	9	...........
	25	0.346667	9.08501E-001	2.80830E-004	0.00000E+000	2.55135E-004	1.68088E-001	9.08843E-001	3.57770E+000	9	...........
	26	0.36	9.13058E-001	2.81297E-004	0.00000E+000	2.56840E-004	1.68088E-001	9.13419E-001	3.57770E+000	9	...........
	27	0.373333	9.17433E-001	2.82046E-004	0.00000E+000	2.58759E-004	1.68088E-001	9.17783E-001	3.57770E+000	9	...........
	28	0.386667	9.21621E-001	2.80002E-004	0.00000E+000	2.58056E-004	1.68088E-001	9.21945E-001	3.57770E+000	9	...........
	29	0.4	9.25591E-001	2.82115E-004	0.00000E+000	2.61123E-004	1.68088E-001	9.25892E-001	3.57770E+000	9	...........
	30	0.413333	9.29361E-001	2.81584E-004	0.00000E+000	2.61693E-004	1.68088E-001	9.29640E-001	3.57770E+000	9	...........
	31	0.426667	9.32912E-001	2.81425E-004	0.00000E+000	2.62545E-004	1.68088E-001	9.33223E-001	3.57770E+000	9	...........
	32	0.44	9.36351E-001	2.80344E-004	0.00000E+000	2.62500E-004	1.68088E-001	9.36677E-001	3.57770E+000	9	...........
	33	0.453333	9.39647E-001	2.81007E-004	0.00000E+000	2.64048E-004	1.68088E-001	9.39999E-001	3.57770E+000	9	...........
	34	0.466667	9.42851E-001	2.80432E-004	0.00000E+000	2.64406E-004	1.68088E-001	9.43164E-001	3.57770E+000	9	...........
	35	0.48	9.45954E-001	2.80727E-004	0.00000E+000	2.65555E-004	1.68088E-001	9.46290E-001	3.57770E+000	9	...........
	36	0.493333	9.48930E-001	2.81144E-004	0.00000E+000	2.66786E-004	1.68088E-001	9.49251E-001	3.57770E+000	9	...........
	37	0.506667	9.51741E-001	2.82590E-004	0.00000E+000	2.68952E-004	1.68088E-001	9.52104E-001	3.57770E+000	9	...........
	38	0.52	9.54485E-001	2.81270E-004	0.00000E+000	2.68468E-004	1.68088E-001	9.54830E-001	3.57770E+000	9	...........
	39	0.533333	9.57103E-001	2.80783E-004	0.00000E+000	2.68739E-004	1.68088E-001	9.57454E-001	3.57770E+000	9	...........
	40	0.546667	9.59671E-001	2.80727E-004	0.00000E+000	2.69406E-004	1.68088E-001	9.60015E-001	3.57770E+000	9	...........
	41	0.56	9.62119E-001	2.80562E-004	0.00000E+000	2.69934E-004	1.68088E-001	9.62480E-001	3.57770E+000	9	...........
	42	0.573333	9.64510E-001	2.81006E-004	0.00000E+000	2.71034E-004	1.68088E-001	9.64891E-001	3.57770E+000	9	...........
	43	0.586667	9.66858E-001	2.81121E-004	0.00000E+000	2.71804E-004	1.68088E-001	9.67208E-001	3.57770E+000	9	...........
	44	0.6	9.69110E-001	2.80364E-004	0.00000E+000	2.71703E-004	1.68088E-001	9.69481E-001	3.57770E+000	9	...........
	45	0.613333	9.71348E-001	2.82386E-004	0.00000E+000	2.74295E-004	1.68088E-001	9.71721E-001	3.57770E+000	9	...........
	46	0.626667	9.73493E-001	2.80400E-004	0.00000E+000	2.72967E-004	1.68088E-001	9.73835E-001	3.57770E+000	9	...........
	47	0.64	9.75554E-001	2.82399E-004	0.00000E+000	2.75496E-004	1.68088E-001	9.75911E-001	3.57770E+000	9	...........
	48	0.653333	9.77602E-001	2.82097E-004	0.00000E+000	2.75779E-004	1.68088E-001	9.77941E-001	3.57770E+000	9	...........
	49	0.666667	9.79545E-001	2.81694E-004	0.00000E+000	2.75932E-004	1.68088E-001	9.79891E-001	3.57770E+000	9	...........
	50	0.68	9.81473E-001	2.81065E-004	0.00000E+000	2.75857E-004	1.68088E-001	9.81779E-001	3.57770E+000	9	...........
	51	0.693333	9.83315E-001	2.81896E-004	0.00000E+000	2.77193E-004	1.68088E-001	9.83644E-001	3.57770E+000	9	...........
	52	0.706667	9.85101E-001	2.81561E-004	0.00000E+000	2.77366E-004	1.68088E-001	9.85446E-001	3.57770E+000	9	...........
	53	0.72	9.86901E-001	2.80288E-004	0.00000E+000	2.76616E-004	1.68088E-001	9.87277E-001	3.57770E+000	9	...........
	54	0.733333	9.88658E-001	2.80628E-004	0.00000E+000	2.77445E-004	1.68088E-001	9.89011E-001	3.57770E+000	9	...........
	55	0.746667	9.90335E-001	2.79506E-004	0.00000E+000	2.76805E-004	1.68088E-001	9.90711E-001	3.57770E+000	9	...........
	56	0.76	9.92018E-001	2.82765E-004	0.00000E+000	2.80508E-004	1.68088E-001	9.92376E-001	3.57770E+000	9	...........
	57	0.773333	9.93642E-001	2.80297E-004	0.00000E+000	2.78515E-004	1.68088E-001	9.94022E-001	3.57770E+000	9	...........
	58	0.786667	9.95262E-001	2.80894E-004	0.00000E+000	2.79563E-004	1.68088E-001	9.95616E-001	3.57770E+000	9	...........
	59	0.8	9.96811E-001	2.79375E-004	0.00000E+000	2.78484E-004	1.68088E-001	9.97207E-001	3.57770E+000	9	...........
	60	0.813333	9.98372E-001	2.80517E-004	0.00000E+000	2.80060E-004	1.68088E-001	9.98781E-001	3.57770E+000	9	...........
	61	0.821667	9.99630E-001	2.81881E-004	0.00000E+000	2.81776E-004	1.68088E-001	1.00001E+000	3.57770E+000	9	...........
STARTTIMEOFFSET	QUANT	1808.319	Start Time Offset (s)
