EXPLAIN
TAG	PWR800_CHARGE
TITLE	LABEL	PWR Cyclic Charge Discharge (Cell) - Charge Step	Test &Identifier
DATE	LABEL	7-7-2017	Date
TIME	LABEL	16:14:11	Time
NOTES	NOTES	3	&Notes...
	supercap test cell
	2.8mg
	6M KOH
PSTAT	PSTAT	IFC5000-01520	Potentiostat
CAPACITY	QUANT	1.00000E-003	Capacity (A-hr)
CELLTYPE	SELECTOR	1	&Cell Type
WORKINGCONNECTION	SELECTOR	0	&Working Lead
MAXCHARGETIME	VARIABLEANDUNITS	1.00000E+002	s	1.00000E+002	second(s)	Max &Charge Time
CHARGECURRENT	QUANT	2.80000E-004	&Charge Current (A) 
VOLTAGEFINISH	TWOPARAM	F	1.00000E-003	3.60000E+003	&Voltage Finish	 I (A) < 	Max Time(s)
SAMPLETIME	QUANT	1.00000E-002	Sa&mple Period (s)
CHARGESTOPAT1	MULTIPARAM	4	1.00000E+000	Charge Stop At &1	Voltage > Limit	V
CHARGESTOPAT2	MULTIPARAM	0	0.00000E+000	Charge Stop At &2	None	N/A
AESBHCSELECTOR	TOGGLE	F	Save Both Half Cells
IRCOMP	TOGGLE	F	IR &Measure
EOC	QUANT	0	Open Circuit (V)
SEQUENCER	TOGGLE	TRUE	Run as Sequence
PSTATMODEL	IQUANT	53	Pstat Model
PSTATSECTION	LABEL	IFC5000-01520	Pstat Section
PSTATSERIALNO	LABEL	01520	Pstat Serial Number
CTRLMODE	IQUANT	0	Control Mode
ELECTROMETER	IQUANT	1	RE=0 or CS=1
IESTAB	IQUANT	0	I/E Stability
CASPEED	IQUANT	4	Control Amp Speed
CONVENTION	IQUANT	1	Current Convention
ICHRANGE	IQUANT	2	Ich Range
ICHRANGEMODE	TOGGLE	T	Ich Auto Range
ICHOFFSETENABLE	TOGGLE	F	Ich Offset Enable
ICHOFFSET	QUANT	0	Ich Offset (V)
ICHFILTER	IQUANT	1	Ich Filter
VCHRANGE	IQUANT	2	Vch Range
VCHRANGEMODE	TOGGLE	T	Vch Auto Range
VCHOFFSETENABLE	TOGGLE	F	Vch Offset Enable
VCHOFFSET	QUANT	0	Vch Offset (V)
VCHFILTER	IQUANT	1	Vch Filter
IERANGELOWERLIMIT	IQUANT	9	I/E Range Lower Limit
IERANGEMODE	TOGGLE	F	I/E AutoRange
IERANGE	IQUANT	9	I/E Range
ACHSELECT	IQUANT	1	Ach Select
ACHRANGE	IQUANT	2	Ach Range
ACHOFFSETENABLE	TOGGLE	F	Ach Offset Enable
ACHOFFSET	QUANT	0	Ach Offset (V)
ACHFILTER	IQUANT	1	Ach Filter
CABLEID	IQUANT	14	Cable ID
DCCALDATE	LABEL	5-7-2017	DC Calibration Date
ACCALDATE	LABEL	12/3/2015	AC Calibration Date
FRAMEWORKVERSION	QUANT	7.01	Framework Version
INSTRUMENTVERSION	LABEL	4.00	Instrument Version
CURVE	TABLE	65
	Pt	T	Vf	Im	Vu	Pwr	Sig	Ach	Temp	IERange	Over
	#	s	V	A	V	W	V	V	deg C	#	bits
	0	0.013333	6.08224E-001	2.81570E-004	0.00000E+000	1.71258E-004	1.68088E-001	6.08485E-001	3.57755E+000	9	...........
	1	0.026667	6.38219E-001	2.81224E-004	0.00000E+000	1.79482E-004	1.68088E-001	6.38471E-001	3.57770E+000	9	...........
	2	0.04	6.63959E-001	2.81900E-004	0.00000E+000	1.87170E-004	1.68088E-001	6.64198E-001	3.57770E+000	9	...........
	3	0.053333	6.86584E-001	2.81698E-004	0.00000E+000	1.93409E-004	1.68088E-001	6.86835E-001	3.57770E+000	9	...........
	4	0.066667	7.06729E-001	2.80082E-004	0.00000E+000	1.97942E-004	1.68088E-001	7.07005E-001	3.57770E+000	9	...........
	5	0.08	7.24959E-001	2.80487E-004	0.00000E+000	2.03341E-004	1.68088E-001	7.25231E-001	3.57770E+000	9	...........
	6	0.093333	7.41524E-001	2.81050E-004	0.00000E+000	2.08406E-004	1.68088E-001	7.41804E-001	3.57770E+000	9	...........
	7	0.106667	7.56719E-001	2.81750E-004	0.00000E+000	2.13206E-004	1.68088E-001	7.56987E-001	3.57770E+000	9	...........
	8	0.12	7.70648E-001	2.80165E-004	0.00000E+000	2.15908E-004	1.68088E-001	7.70954E-001	3.57770E+000	9	...........
	9	0.133333	7.83511E-001	2.81511E-004	0.00000E+000	2.20567E-004	1.68088E-001	7.83809E-001	3.57770E+000	9	...........
	10	0.146667	7.95435E-001	2.80703E-004	0.00000E+000	2.23281E-004	1.68088E-001	7.95745E-001	3.57770E+000	9	...........
	11	0.16	8.06470E-001	2.80728E-004	0.00000E+000	2.26399E-004	1.68088E-001	8.06747E-001	3.57770E+000	9	...........
	12	0.173333	8.16753E-001	2.81153E-004	0.00000E+000	2.29633E-004	1.68088E-001	8.17056E-001	3.57770E+000	9	...........
	13	0.186667	8.26334E-001	2.80838E-004	0.00000E+000	2.32066E-004	1.68088E-001	8.26631E-001	3.57770E+000	9	...........
	14	0.2	8.35284E-001	2.81205E-004	0.00000E+000	2.34886E-004	1.68088E-001	8.35570E-001	3.57770E+000	9	...........
	15	0.213333	8.43687E-001	2.81673E-004	0.00000E+000	2.37644E-004	1.68088E-001	8.43973E-001	3.57770E+000	9	...........
	16	0.226667	8.51560E-001	2.80510E-004	0.00000E+000	2.38871E-004	1.68088E-001	8.51876E-001	3.57770E+000	9	...........
	17	0.24	8.58944E-001	2.81241E-004	0.00000E+000	2.41570E-004	1.68088E-001	8.59254E-001	3.57770E+000	9	...........
	18	0.253333	8.65841E-001	2.81414E-004	0.00000E+000	2.43660E-004	1.68088E-001	8.66187E-001	3.57770E+000	9	...........
	19	0.266667	8.72440E-001	2.80596E-004	0.00000E+000	2.44803E-004	1.68088E-001	8.72789E-001	3.57770E+000	9	...........
	20	0.28	8.78615E-001	2.81883E-004	0.00000E+000	2.47666E-004	1.68088E-001	8.78971E-001	3.57770E+000	9	...........
	21	0.293333	8.84430E-001	2.81301E-004	0.00000E+000	2.48791E-004	1.68088E-001	8.84806E-001	3.57770E+000	9	...........
	22	0.306667	8.89929E-001	2.80185E-004	0.00000E+000	2.49345E-004	1.68088E-001	8.90289E-001	3.57770E+000	9	...........
	23	0.32	8.95136E-001	2.81126E-004	0.00000E+000	2.51646E-004	1.68088E-001	8.95507E-001	3.57770E+000	9	...........
	24	0.333333	9.00089E-001	2.81569E-004	0.00000E+000	2.53437E-004	1.68088E-001	9.00458E-001	3.57770E+000	9	...........
	25	0.346667	9.04790E-001	2.81029E-004	0.00000E+000	2.54272E-004	1.68088E-001	9.05174E-001	3.57770E+000	9	...........
	26	0.36	9.09284E-001	2.80504E-004	0.00000E+000	2.55058E-004	1.68088E-001	9.09634E-001	3.57770E+000	9	...........
	27	0.373333	9.13562E-001	2.81391E-004	0.00000E+000	2.57068E-004	1.68088E-001	9.13928E-001	3.57770E+000	9	...........
	28	0.386667	9.17644E-001	2.81031E-004	0.00000E+000	2.57887E-004	1.68088E-001	9.18003E-001	3.57770E+000	9	...........
	29	0.4	9.21555E-001	2.81045E-004	0.00000E+000	2.58998E-004	1.68088E-001	9.21887E-001	3.57770E+000	9	...........
	30	0.413333	9.25273E-001	2.80743E-004	0.00000E+000	2.59764E-004	1.68088E-001	9.25584E-001	3.57770E+000	9	...........
	31	0.426667	9.28836E-001	2.80989E-004	0.00000E+000	2.60992E-004	1.68088E-001	9.29116E-001	3.57770E+000	9	...........
	32	0.44	9.32213E-001	2.80986E-004	0.00000E+000	2.61939E-004	1.68088E-001	9.32514E-001	3.57770E+000	9	...........
	33	0.453333	9.35458E-001	2.82012E-004	0.00000E+000	2.63810E-004	1.68088E-001	9.35779E-001	3.57770E+000	9	...........
	34	0.466667	9.38630E-001	2.81338E-004	0.00000E+000	2.64072E-004	1.68088E-001	9.38939E-001	3.57770E+000	9	...........
	35	0.48	9.41649E-001	2.81435E-004	0.00000E+000	2.65013E-004	1.68088E-001	9.41969E-001	3.57770E+000	9	...........
	36	0.493333	9.44571E-001	2.81139E-004	0.00000E+000	2.65555E-004	1.68088E-001	9.44915E-001	3.57770E+000	9	...........
	37	0.506667	9.47443E-001	2.81931E-004	0.00000E+000	2.67113E-004	1.68088E-001	9.47773E-001	3.57770E+000	9	...........
	38	0.52	9.50179E-001	2.83324E-004	0.00000E+000	2.69208E-004	1.68088E-001	9.50505E-001	3.57770E+000	9	...........
	39	0.533333	9.52805E-001	2.81054E-004	0.00000E+000	2.67790E-004	1.68088E-001	9.53131E-001	3.57770E+000	9	...........
	40	0.546667	9.55352E-001	2.81553E-004	0.00000E+000	2.68983E-004	1.68088E-001	9.55683E-001	3.57770E+000	9	...........
	41	0.56	9.57822E-001	2.81327E-004	0.00000E+000	2.69461E-004	1.68088E-001	9.58163E-001	3.57770E+000	9	...........
	42	0.573333	9.60229E-001	2.80527E-004	0.00000E+000	2.69370E-004	1.68088E-001	9.60549E-001	3.57770E+000	9	...........
	43	0.586667	9.62533E-001	2.80895E-004	0.00000E+000	2.70371E-004	1.68088E-001	9.62865E-001	3.57770E+000	9	...........
	44	0.6	9.64758E-001	2.81822E-004	0.00000E+000	2.71890E-004	1.68088E-001	9.65079E-001	3.57770E+000	9	...........
	45	0.613333	9.66980E-001	2.81785E-004	0.00000E+000	2.72480E-004	1.68088E-001	9.67276E-001	3.57770E+000	9	...........
	46	0.626667	9.69112E-001	2.81413E-004	0.00000E+000	2.72721E-004	1.68088E-001	9.69419E-001	3.57770E+000	9	...........
	47	0.64	9.71174E-001	2.82148E-004	0.00000E+000	2.74015E-004	1.68088E-001	9.71509E-001	3.57770E+000	9	...........
	48	0.653333	9.73239E-001	2.81470E-004	0.00000E+000	2.73938E-004	1.68088E-001	9.73524E-001	3.57770E+000	9	...........
	49	0.666667	9.75166E-001	2.81300E-004	0.00000E+000	2.74314E-004	1.68088E-001	9.75495E-001	3.57770E+000	9	...........
	50	0.68	9.77054E-001	2.81771E-004	0.00000E+000	2.75306E-004	1.68088E-001	9.77414E-001	3.57770E+000	9	...........
	51	0.693333	9.78966E-001	2.79897E-004	0.00000E+000	2.74009E-004	1.68088E-001	9.79306E-001	3.57770E+000	9	...........
	52	0.706667	9.80798E-001	2.81544E-004	0.00000E+000	2.76138E-004	1.68088E-001	9.81151E-001	3.57770E+000	9	...........
	53	0.72	9.82548E-001	2.82043E-004	0.00000E+000	2.77121E-004	1.68088E-001	9.82915E-001	3.57770E+000	9	...........
	54	0.733333	9.84305E-001	2.81495E-004	0.00000E+000	2.77077E-004	1.68088E-001	9.84681E-001	3.57770E+000	9	...........
	55	0.746667	9.86015E-001	2.82066E-004	0.00000E+000	2.78121E-004	1.68088E-001	9.86406E-001	3.57770E+000	9	...........
	56	0.76	9.87702E-001	2.79737E-004	0.00000E+000	2.76297E-004	1.68088E-001	9.88091E-001	3.57770E+000	9	...........
	57	0.773333	9.89367E-001	2.81648E-004	0.00000E+000	2.78654E-004	1.68088E-001	9.89754E-001	3.57770E+000	9	...........
	58	0.786667	9.90991E-001	2.80269E-004	0.00000E+000	2.77744E-004	1.68088E-001	9.91359E-001	3.57770E+000	9	...........
	59	0.8	9.92552E-001	2.81138E-004	0.00000E+000	2.79044E-004	1.68088E-001	9.92931E-001	3.57770E+000	9	...........
	60	0.813333	9.94100E-001	2.81104E-004	0.00000E+000	2.79446E-004	1.68088E-001	9.94469E-001	3.57770E+000	9	...........
	61	0.826667	9.95654E-001	2.80353E-004	0.00000E+000	2.79135E-004	1.68088E-001	9.95996E-001	3.57770E+000	9	...........
	62	0.84	9.97156E-001	2.81254E-004	0.00000E+000	2.80455E-004	1.68088E-001	9.97525E-001	3.57770E+000	9	...........
	63	0.853333	9.98657E-001	2.81444E-004	0.00000E+000	2.81066E-004	1.68088E-001	9.99000E-001	3.57770E+000	9	...........
	64	0.86	9.99758E-001	2.81429E-004	0.00000E+000	2.81361E-004	1.68088E-001	1.00008E+000	3.57770E+000	9	...........
STARTTIMEOFFSET	QUANT	1691.67	Start Time Offset (s)
