EXPLAIN
TAG	PWR800_CHARGE
TITLE	LABEL	PWR Cyclic Charge Discharge (Cell) - Charge Step	Test &Identifier
DATE	LABEL	7-7-2017	Date
TIME	LABEL	15:41:50	Time
NOTES	NOTES	3	&Notes...
	supercap test cell
	2.8mg
	6M KOH
PSTAT	PSTAT	IFC5000-01520	Potentiostat
CAPACITY	QUANT	1.00000E-003	Capacity (A-hr)
CELLTYPE	SELECTOR	1	&Cell Type
WORKINGCONNECTION	SELECTOR	0	&Working Lead
MAXCHARGETIME	VARIABLEANDUNITS	1.00000E+002	s	1.00000E+002	second(s)	Max &Charge Time
CHARGECURRENT	QUANT	2.80000E-004	&Charge Current (A) 
VOLTAGEFINISH	TWOPARAM	F	1.00000E-003	3.60000E+003	&Voltage Finish	 I (A) < 	Max Time(s)
SAMPLETIME	QUANT	1.00000E-002	Sa&mple Period (s)
CHARGESTOPAT1	MULTIPARAM	4	1.00000E+000	Charge Stop At &1	Voltage > Limit	V
CHARGESTOPAT2	MULTIPARAM	0	0.00000E+000	Charge Stop At &2	None	N/A
AESBHCSELECTOR	TOGGLE	F	Save Both Half Cells
IRCOMP	TOGGLE	F	IR &Measure
EOC	QUANT	0	Open Circuit (V)
SEQUENCER	TOGGLE	TRUE	Run as Sequence
PSTATMODEL	IQUANT	53	Pstat Model
PSTATSECTION	LABEL	IFC5000-01520	Pstat Section
PSTATSERIALNO	LABEL	01520	Pstat Serial Number
CTRLMODE	IQUANT	0	Control Mode
ELECTROMETER	IQUANT	1	RE=0 or CS=1
IESTAB	IQUANT	0	I/E Stability
CASPEED	IQUANT	4	Control Amp Speed
CONVENTION	IQUANT	1	Current Convention
ICHRANGE	IQUANT	2	Ich Range
ICHRANGEMODE	TOGGLE	T	Ich Auto Range
ICHOFFSETENABLE	TOGGLE	F	Ich Offset Enable
ICHOFFSET	QUANT	0	Ich Offset (V)
ICHFILTER	IQUANT	1	Ich Filter
VCHRANGE	IQUANT	2	Vch Range
VCHRANGEMODE	TOGGLE	T	Vch Auto Range
VCHOFFSETENABLE	TOGGLE	F	Vch Offset Enable
VCHOFFSET	QUANT	0	Vch Offset (V)
VCHFILTER	IQUANT	1	Vch Filter
IERANGELOWERLIMIT	IQUANT	9	I/E Range Lower Limit
IERANGEMODE	TOGGLE	F	I/E AutoRange
IERANGE	IQUANT	9	I/E Range
ACHSELECT	IQUANT	1	Ach Select
ACHRANGE	IQUANT	2	Ach Range
ACHOFFSETENABLE	TOGGLE	F	Ach Offset Enable
ACHOFFSET	QUANT	0	Ach Offset (V)
ACHFILTER	IQUANT	1	Ach Filter
CABLEID	IQUANT	14	Cable ID
DCCALDATE	LABEL	5-7-2017	DC Calibration Date
ACCALDATE	LABEL	12/3/2015	AC Calibration Date
FRAMEWORKVERSION	QUANT	7.01	Framework Version
INSTRUMENTVERSION	LABEL	4.00	Instrument Version
CURVE	TABLE	144
	Pt	T	Vf	Im	Vu	Pwr	Sig	Ach	Temp	IERange	Over
	#	s	V	A	V	W	V	V	deg C	#	bits
	0	0.013333	5.65532E-001	2.81219E-004	0.00000E+000	1.59038E-004	1.68088E-001	5.65790E-001	3.57840E+000	9	...........
	1	0.026667	5.93636E-001	2.80504E-004	0.00000E+000	1.66517E-004	1.68088E-001	5.93950E-001	3.57840E+000	9	...........
	2	0.04	6.17136E-001	2.81227E-004	0.00000E+000	1.73555E-004	1.68088E-001	6.17431E-001	3.57840E+000	9	...........
	3	0.053333	6.37244E-001	2.81389E-004	0.00000E+000	1.79313E-004	1.68088E-001	6.37537E-001	3.57840E+000	9	...........
	4	0.066667	6.54782E-001	2.80366E-004	0.00000E+000	1.83578E-004	1.68088E-001	6.55099E-001	3.57840E+000	9	...........
	5	0.08	6.70380E-001	2.81716E-004	0.00000E+000	1.88857E-004	1.68088E-001	6.70682E-001	3.57840E+000	9	...........
	6	0.093333	6.84317E-001	2.80729E-004	0.00000E+000	1.92108E-004	1.68088E-001	6.84603E-001	3.57840E+000	9	...........
	7	0.106667	6.96891E-001	2.81259E-004	0.00000E+000	1.96007E-004	1.68088E-001	6.97183E-001	3.57840E+000	9	...........
	8	0.12	7.08377E-001	2.81719E-004	0.00000E+000	1.99563E-004	1.68088E-001	7.08671E-001	3.57840E+000	9	...........
	9	0.133333	7.18888E-001	2.81047E-004	0.00000E+000	2.02041E-004	1.68088E-001	7.19211E-001	3.57840E+000	9	...........
	10	0.146667	7.28599E-001	2.81326E-004	0.00000E+000	2.04974E-004	1.68088E-001	7.28883E-001	3.57840E+000	9	...........
	11	0.16	7.37523E-001	2.80355E-004	0.00000E+000	2.06768E-004	1.68088E-001	7.37815E-001	3.57840E+000	9	...........
	12	0.173333	7.45906E-001	2.81411E-004	0.00000E+000	2.09906E-004	1.68088E-001	7.46188E-001	3.57840E+000	9	...........
	13	0.186667	7.53621E-001	2.81700E-004	0.00000E+000	2.12295E-004	1.68088E-001	7.53937E-001	3.57840E+000	9	...........
	14	0.2	7.60900E-001	2.80907E-004	0.00000E+000	2.13743E-004	1.68088E-001	7.61211E-001	3.57840E+000	9	...........
	15	0.213333	7.67764E-001	2.82035E-004	0.00000E+000	2.16536E-004	1.68088E-001	7.68086E-001	3.57840E+000	9	...........
	16	0.226667	7.74220E-001	2.81329E-004	0.00000E+000	2.17811E-004	1.68088E-001	7.74539E-001	3.57840E+000	9	...........
	17	0.24	7.80269E-001	2.81497E-004	0.00000E+000	2.19643E-004	1.68088E-001	7.80597E-001	3.57840E+000	9	...........
	18	0.253333	7.85983E-001	2.80134E-004	0.00000E+000	2.20181E-004	1.68088E-001	7.86325E-001	3.57840E+000	9	...........
	19	0.266667	7.91406E-001	2.81803E-004	0.00000E+000	2.23021E-004	1.68088E-001	7.91734E-001	3.57840E+000	9	...........
	20	0.28	7.96576E-001	2.81244E-004	0.00000E+000	2.24032E-004	1.68088E-001	7.96897E-001	3.57840E+000	9	...........
	21	0.293333	8.01506E-001	2.81518E-004	0.00000E+000	2.25638E-004	1.68088E-001	8.01811E-001	3.57840E+000	9	...........
	22	0.306667	8.06173E-001	2.81626E-004	0.00000E+000	2.27040E-004	1.68088E-001	8.06487E-001	3.57840E+000	9	...........
	23	0.32	8.10606E-001	2.81310E-004	0.00000E+000	2.28031E-004	1.68088E-001	8.10925E-001	3.57840E+000	9	...........
	24	0.333333	8.14903E-001	2.80699E-004	0.00000E+000	2.28742E-004	1.68088E-001	8.15221E-001	3.57840E+000	9	...........
	25	0.346667	8.19062E-001	2.81105E-004	0.00000E+000	2.30243E-004	1.68088E-001	8.19385E-001	3.57840E+000	9	...........
	26	0.36	8.23007E-001	2.80608E-004	0.00000E+000	2.30943E-004	1.68088E-001	8.23346E-001	3.57840E+000	9	...........
	27	0.373333	8.26787E-001	2.81362E-004	0.00000E+000	2.32626E-004	1.68088E-001	8.27123E-001	3.57840E+000	9	...........
	28	0.386667	8.30428E-001	2.81861E-004	0.00000E+000	2.34065E-004	1.68088E-001	8.30761E-001	3.57840E+000	9	...........
	29	0.4	8.33917E-001	2.80699E-004	0.00000E+000	2.34080E-004	1.68088E-001	8.34292E-001	3.57840E+000	9	...........
	30	0.413333	8.37325E-001	2.80860E-004	0.00000E+000	2.35171E-004	1.68088E-001	8.37678E-001	3.57840E+000	9	...........
	31	0.426667	8.40585E-001	2.80397E-004	0.00000E+000	2.35697E-004	1.68088E-001	8.40973E-001	3.57840E+000	9	...........
	32	0.44	8.43795E-001	2.81921E-004	0.00000E+000	2.37884E-004	1.68088E-001	8.44164E-001	3.57840E+000	9	...........
	33	0.453333	8.46864E-001	2.80007E-004	0.00000E+000	2.37128E-004	1.68088E-001	8.47238E-001	3.57840E+000	9	...........
	34	0.466667	8.49864E-001	2.80613E-004	0.00000E+000	2.38483E-004	1.68088E-001	8.50217E-001	3.57840E+000	9	...........
	35	0.48	8.52762E-001	2.81939E-004	0.00000E+000	2.40427E-004	1.68088E-001	8.53106E-001	3.57840E+000	9	...........
	36	0.493333	8.55573E-001	2.81604E-004	0.00000E+000	2.40933E-004	1.68088E-001	8.55932E-001	3.57840E+000	9	...........
	37	0.506667	8.58312E-001	2.81273E-004	0.00000E+000	2.41420E-004	1.68088E-001	8.58712E-001	3.57840E+000	9	...........
	38	0.52	8.61036E-001	2.80316E-004	0.00000E+000	2.41362E-004	1.68088E-001	8.61394E-001	3.57840E+000	9	...........
	39	0.533333	8.63628E-001	2.81180E-004	0.00000E+000	2.42835E-004	1.68088E-001	8.63996E-001	3.57840E+000	9	...........
	40	0.546667	8.66173E-001	2.81538E-004	0.00000E+000	2.43860E-004	1.68088E-001	8.66534E-001	3.57840E+000	9	...........
	41	0.56	8.68646E-001	2.81265E-004	0.00000E+000	2.44320E-004	1.68088E-001	8.69024E-001	3.57840E+000	9	...........
	42	0.573333	8.71086E-001	2.81951E-004	0.00000E+000	2.45604E-004	1.68088E-001	8.71452E-001	3.57840E+000	9	...........
	43	0.586667	8.73463E-001	2.81032E-004	0.00000E+000	2.45471E-004	1.68088E-001	8.73813E-001	3.57840E+000	9	...........
	44	0.6	8.75718E-001	2.81171E-004	0.00000E+000	2.46226E-004	1.68088E-001	8.76101E-001	3.57840E+000	9	...........
	45	0.613333	8.77972E-001	2.81224E-004	0.00000E+000	2.46907E-004	1.68088E-001	8.78337E-001	3.57840E+000	9	...........
	46	0.626667	8.80165E-001	2.80423E-004	0.00000E+000	2.46819E-004	1.68088E-001	8.80539E-001	3.57840E+000	9	...........
	47	0.64	8.82293E-001	2.81091E-004	0.00000E+000	2.48004E-004	1.68088E-001	8.82669E-001	3.57840E+000	9	...........
	48	0.653333	8.84395E-001	2.80975E-004	0.00000E+000	2.48493E-004	1.68088E-001	8.84759E-001	3.57840E+000	9	...........
	49	0.666667	8.86475E-001	2.81707E-004	0.00000E+000	2.49726E-004	1.68088E-001	8.86854E-001	3.57840E+000	9	...........
	50	0.68	8.88527E-001	2.80979E-004	0.00000E+000	2.49658E-004	1.68088E-001	8.88893E-001	3.57840E+000	9	...........
	51	0.693333	8.90513E-001	2.81330E-004	0.00000E+000	2.50528E-004	1.68088E-001	8.90889E-001	3.57840E+000	9	...........
	52	0.706667	8.92474E-001	2.81251E-004	0.00000E+000	2.51009E-004	1.68088E-001	8.92842E-001	3.57840E+000	9	...........
	53	0.72	8.94406E-001	2.81455E-004	0.00000E+000	2.51735E-004	1.68088E-001	8.94789E-001	3.57840E+000	9	...........
	54	0.733333	8.96338E-001	2.81385E-004	0.00000E+000	2.52216E-004	1.68088E-001	8.96720E-001	3.57840E+000	9	...........
	55	0.746667	8.98205E-001	2.81407E-004	0.00000E+000	2.52761E-004	1.68088E-001	8.98582E-001	3.57840E+000	9	...........
	56	0.76	9.00035E-001	2.80951E-004	0.00000E+000	2.52866E-004	1.68088E-001	9.00389E-001	3.57840E+000	9	...........
	57	0.773333	9.01822E-001	2.80880E-004	0.00000E+000	2.53304E-004	1.68088E-001	9.02214E-001	3.57840E+000	9	...........
	58	0.786667	9.03575E-001	2.81727E-004	0.00000E+000	2.54562E-004	1.68088E-001	9.03960E-001	3.57840E+000	9	...........
	59	0.8	9.05313E-001	2.80870E-004	0.00000E+000	2.54275E-004	1.68088E-001	9.05679E-001	3.57840E+000	9	...........
	60	0.813333	9.07029E-001	2.80295E-004	0.00000E+000	2.54236E-004	1.68088E-001	9.07408E-001	3.57840E+000	9	...........
	61	0.826667	9.08749E-001	2.81225E-004	0.00000E+000	2.55563E-004	1.68088E-001	9.09104E-001	3.57840E+000	9	...........
	62	0.84	9.10407E-001	2.80921E-004	0.00000E+000	2.55752E-004	1.68088E-001	9.10752E-001	3.57840E+000	9	...........
	63	0.853333	9.12049E-001	2.81169E-004	0.00000E+000	2.56440E-004	1.68088E-001	9.12395E-001	3.57840E+000	9	...........
	64	0.866667	9.13624E-001	2.81091E-004	0.00000E+000	2.56811E-004	1.68088E-001	9.14010E-001	3.57840E+000	9	...........
	65	0.88	9.15223E-001	2.81238E-004	0.00000E+000	2.57395E-004	1.68088E-001	9.15595E-001	3.57840E+000	9	...........
	66	0.893333	9.16765E-001	2.80714E-004	0.00000E+000	2.57349E-004	1.68088E-001	9.17172E-001	3.57840E+000	9	...........
	67	0.906667	9.18315E-001	2.80399E-004	0.00000E+000	2.57495E-004	1.68088E-001	9.18693E-001	3.57840E+000	9	...........
	68	0.92	9.19849E-001	2.80516E-004	0.00000E+000	2.58032E-004	1.68088E-001	9.20234E-001	3.57840E+000	9	...........
	69	0.933333	9.21418E-001	2.80765E-004	0.00000E+000	2.58702E-004	1.68088E-001	9.21764E-001	3.57840E+000	9	...........
	70	0.946667	9.22899E-001	2.81454E-004	0.00000E+000	2.59754E-004	1.68088E-001	9.23235E-001	3.57868E+000	9	...........
	71	0.96	9.24356E-001	2.81065E-004	0.00000E+000	2.59804E-004	1.68088E-001	9.24670E-001	3.57950E+000	9	...........
	72	0.97333	9.25795E-001	2.80533E-004	0.00000E+000	2.59716E-004	1.68088E-001	9.26132E-001	3.57950E+000	9	...........
	73	0.98667	9.27227E-001	2.81220E-004	0.00000E+000	2.60755E-004	1.68088E-001	9.27569E-001	3.57950E+000	9	...........
	74	1	9.28666E-001	2.80691E-004	0.00000E+000	2.60668E-004	1.68088E-001	9.28991E-001	3.57950E+000	9	...........
	75	1.01333	9.30054E-001	2.81156E-004	0.00000E+000	2.61491E-004	1.68088E-001	9.30379E-001	3.57950E+000	9	...........
	76	1.02667	9.31429E-001	2.81304E-004	0.00000E+000	2.62015E-004	1.68088E-001	9.31759E-001	3.57950E+000	9	...........
	77	1.04	9.32782E-001	2.81014E-004	0.00000E+000	2.62125E-004	1.68088E-001	9.33127E-001	3.57950E+000	9	...........
	78	1.05333	9.34112E-001	2.80876E-004	0.00000E+000	2.62370E-004	1.68088E-001	9.34479E-001	3.57950E+000	9	...........
	79	1.06667	9.35423E-001	2.80604E-004	0.00000E+000	2.62484E-004	1.68088E-001	9.35787E-001	3.57950E+000	9	...........
	80	1.08	9.36733E-001	2.81324E-004	0.00000E+000	2.63526E-004	1.68088E-001	9.37088E-001	3.57950E+000	9	...........
	81	1.09333	9.38017E-001	2.80762E-004	0.00000E+000	2.63359E-004	1.68088E-001	9.38375E-001	3.57950E+000	9	...........
	82	1.10667	9.39289E-001	2.81134E-004	0.00000E+000	2.64066E-004	1.68088E-001	9.39663E-001	3.57950E+000	9	...........
	83	1.12	9.40563E-001	2.81307E-004	0.00000E+000	2.64586E-004	1.68088E-001	9.40919E-001	3.57950E+000	9	...........
	84	1.13333	9.41850E-001	2.80848E-004	0.00000E+000	2.64517E-004	1.68088E-001	9.42198E-001	3.57950E+000	9	...........
	85	1.14667	9.43120E-001	2.81514E-004	0.00000E+000	2.65501E-004	1.68088E-001	9.43469E-001	3.57950E+000	9	...........
	86	1.16	9.44322E-001	2.80586E-004	0.00000E+000	2.64963E-004	1.68088E-001	9.44709E-001	3.57950E+000	9	...........
	87	1.17333	9.45516E-001	2.81061E-004	0.00000E+000	2.65747E-004	1.68088E-001	9.45913E-001	3.57950E+000	9	...........
	88	1.18667	9.46739E-001	2.80869E-004	0.00000E+000	2.65910E-004	1.68088E-001	9.47098E-001	3.57950E+000	9	...........
	89	1.2	9.47942E-001	2.81072E-004	0.00000E+000	2.66440E-004	1.68088E-001	9.48290E-001	3.57950E+000	9	...........
	90	1.21333	9.49141E-001	2.81601E-004	0.00000E+000	2.67279E-004	1.68088E-001	9.49468E-001	3.57950E+000	9	...........
	91	1.22667	9.50356E-001	2.81467E-004	0.00000E+000	2.67494E-004	1.68088E-001	9.50688E-001	3.57950E+000	9	...........
	92	1.24	9.51538E-001	2.81621E-004	0.00000E+000	2.67973E-004	1.68088E-001	9.51896E-001	3.57950E+000	9	...........
	93	1.25333	9.52720E-001	2.81914E-004	0.00000E+000	2.68585E-004	1.68088E-001	9.53063E-001	3.57950E+000	9	...........
	94	1.26667	9.53809E-001	2.80316E-004	0.00000E+000	2.67368E-004	1.68088E-001	9.54174E-001	3.57950E+000	9	...........
	95	1.28	9.54989E-001	2.81402E-004	0.00000E+000	2.68736E-004	1.68088E-001	9.55339E-001	3.57950E+000	9	...........
	96	1.29333	9.56135E-001	2.81035E-004	0.00000E+000	2.68707E-004	1.68088E-001	9.56500E-001	3.57950E+000	9	...........
	97	1.30667	9.57240E-001	2.81454E-004	0.00000E+000	2.69420E-004	1.68088E-001	9.57626E-001	3.57950E+000	9	...........
	98	1.32	9.58351E-001	2.82952E-004	0.00000E+000	2.71167E-004	1.68088E-001	9.58735E-001	3.57950E+000	9	...........
	99	1.33333	9.59470E-001	2.81532E-004	0.00000E+000	2.70121E-004	1.68088E-001	9.59836E-001	3.57950E+000	9	...........
	100	1.34667	9.60520E-001	2.81451E-004	0.00000E+000	2.70340E-004	1.68088E-001	9.60914E-001	3.57950E+000	9	...........
	101	1.36	9.61579E-001	2.80325E-004	0.00000E+000	2.69555E-004	1.68088E-001	9.61968E-001	3.57950E+000	9	...........
	102	1.37333	9.62632E-001	2.81192E-004	0.00000E+000	2.70684E-004	1.68088E-001	9.63044E-001	3.57950E+000	9	...........
	103	1.38667	9.63698E-001	2.80745E-004	0.00000E+000	2.70553E-004	1.68088E-001	9.64130E-001	3.57950E+000	9	...........
	104	1.4	9.64758E-001	2.80926E-004	0.00000E+000	2.71026E-004	1.68088E-001	9.65166E-001	3.57950E+000	9	...........
	105	1.41333	9.65787E-001	2.81062E-004	0.00000E+000	2.71446E-004	1.68088E-001	9.66189E-001	3.57950E+000	9	...........
	106	1.42667	9.66840E-001	2.81477E-004	0.00000E+000	2.72144E-004	1.68088E-001	9.67244E-001	3.57950E+000	9	...........
	107	1.44	9.67889E-001	2.80324E-004	0.00000E+000	2.71323E-004	1.68088E-001	9.68288E-001	3.57950E+000	9	...........
	108	1.45333	9.68918E-001	2.81812E-004	0.00000E+000	2.73053E-004	1.68088E-001	9.69306E-001	3.57950E+000	9	...........
	109	1.46667	9.69919E-001	2.80453E-004	0.00000E+000	2.72017E-004	1.68088E-001	9.70314E-001	3.57950E+000	9	...........
	110	1.48	9.70868E-001	2.80264E-004	0.00000E+000	2.72099E-004	1.68088E-001	9.71295E-001	3.57950E+000	9	...........
	111	1.49333	9.71878E-001	2.80484E-004	0.00000E+000	2.72597E-004	1.68088E-001	9.72294E-001	3.57950E+000	9	...........
	112	1.50667	9.72915E-001	2.80853E-004	0.00000E+000	2.73246E-004	1.68088E-001	9.73274E-001	3.57950E+000	9	...........
	113	1.52	9.73904E-001	2.81180E-004	0.00000E+000	2.73843E-004	1.68088E-001	9.74276E-001	3.57950E+000	9	...........
	114	1.53333	9.74897E-001	2.81063E-004	0.00000E+000	2.74007E-004	1.68088E-001	9.75273E-001	3.57950E+000	9	...........
	115	1.54667	9.75843E-001	2.81332E-004	0.00000E+000	2.74535E-004	1.68088E-001	9.76221E-001	3.57950E+000	9	...........
	116	1.56	9.76802E-001	2.81683E-004	0.00000E+000	2.75148E-004	1.68088E-001	9.77184E-001	3.57950E+000	9	...........
	117	1.57333	9.77740E-001	2.80752E-004	0.00000E+000	2.74503E-004	1.68088E-001	9.78126E-001	3.57950E+000	9	...........
	118	1.58667	9.78658E-001	2.80774E-004	0.00000E+000	2.74782E-004	1.68088E-001	9.79031E-001	3.57950E+000	9	...........
	119	1.6	9.79578E-001	2.81667E-004	0.00000E+000	2.75915E-004	1.68088E-001	9.79954E-001	3.57950E+000	9	...........
	120	1.61333	9.80469E-001	2.81186E-004	0.00000E+000	2.75694E-004	1.68088E-001	9.80815E-001	3.57950E+000	9	...........
	121	1.62667	9.81379E-001	2.81554E-004	0.00000E+000	2.76312E-004	1.68088E-001	9.81695E-001	3.57950E+000	9	...........
	122	1.64	9.82257E-001	2.80768E-004	0.00000E+000	2.75786E-004	1.68088E-001	9.82601E-001	3.57950E+000	9	...........
	123	1.65333	9.83161E-001	2.81681E-004	0.00000E+000	2.76937E-004	1.68088E-001	9.83514E-001	3.57950E+000	9	...........
	124	1.66667	9.84071E-001	2.81422E-004	0.00000E+000	2.76940E-004	1.68088E-001	9.84427E-001	3.57950E+000	9	...........
	125	1.68	9.84972E-001	2.81000E-004	0.00000E+000	2.76777E-004	1.68088E-001	9.85346E-001	3.57950E+000	9	...........
	126	1.69333	9.85840E-001	2.80667E-004	0.00000E+000	2.76692E-004	1.68088E-001	9.86232E-001	3.57950E+000	9	...........
	127	1.70667	9.86699E-001	2.81772E-004	0.00000E+000	2.78024E-004	1.68088E-001	9.87082E-001	3.57950E+000	9	...........
	128	1.72	9.87548E-001	2.80796E-004	0.00000E+000	2.77299E-004	1.68088E-001	9.87946E-001	3.57950E+000	9	...........
	129	1.73333	9.88424E-001	2.80932E-004	0.00000E+000	2.77680E-004	1.68088E-001	9.88770E-001	3.57950E+000	9	...........
	130	1.74667	9.89242E-001	2.81617E-004	0.00000E+000	2.78587E-004	1.68088E-001	9.89626E-001	3.57950E+000	9	...........
	131	1.76	9.90074E-001	2.81577E-004	0.00000E+000	2.78782E-004	1.68088E-001	9.90469E-001	3.57950E+000	9	...........
	132	1.77333	9.90894E-001	2.81274E-004	0.00000E+000	2.78713E-004	1.68088E-001	9.91302E-001	3.57950E+000	9	...........
	133	1.78667	9.91709E-001	2.81124E-004	0.00000E+000	2.78793E-004	1.68088E-001	9.92124E-001	3.57950E+000	9	...........
	134	1.8	9.92551E-001	2.81204E-004	0.00000E+000	2.79110E-004	1.68088E-001	9.92969E-001	3.57950E+000	9	...........
	135	1.81333	9.93311E-001	2.81042E-004	0.00000E+000	2.79162E-004	1.68088E-001	9.93745E-001	3.57950E+000	9	...........
	136	1.82667	9.94114E-001	2.80854E-004	0.00000E+000	2.79201E-004	1.68088E-001	9.94545E-001	3.57950E+000	9	...........
	137	1.84	9.94957E-001	2.81327E-004	0.00000E+000	2.79909E-004	1.68088E-001	9.95355E-001	3.57950E+000	9	...........
	138	1.85333	9.95761E-001	2.81146E-004	0.00000E+000	2.79954E-004	1.68088E-001	9.96161E-001	3.57950E+000	9	...........
	139	1.86667	9.96545E-001	2.81148E-004	0.00000E+000	2.80177E-004	1.68088E-001	9.96959E-001	3.57950E+000	9	...........
	140	1.88	9.97313E-001	2.81377E-004	0.00000E+000	2.80621E-004	1.68088E-001	9.97752E-001	3.57950E+000	9	...........
	141	1.89333	9.98154E-001	2.81478E-004	0.00000E+000	2.80959E-004	1.68088E-001	9.98536E-001	3.57950E+000	9	...........
	142	1.90667	9.98951E-001	2.80623E-004	0.00000E+000	2.80329E-004	1.68088E-001	9.99372E-001	3.57950E+000	9	...........
	143	1.91833	9.99709E-001	2.81604E-004	0.00000E+000	2.81522E-004	1.68088E-001	1.00013E+000	3.57950E+000	9	...........
STARTTIMEOFFSET	QUANT	290.2734	Start Time Offset (s)
