EXPLAIN
TAG	PWR800_CHARGE
TITLE	LABEL	PWR Cyclic Charge Discharge (Cell) - Charge Step	Test &Identifier
DATE	LABEL	7-7-2017	Date
TIME	LABEL	16:04:31	Time
NOTES	NOTES	3	&Notes...
	supercap test cell
	2.8mg
	6M KOH
PSTAT	PSTAT	IFC5000-01520	Potentiostat
CAPACITY	QUANT	1.00000E-003	Capacity (A-hr)
CELLTYPE	SELECTOR	1	&Cell Type
WORKINGCONNECTION	SELECTOR	0	&Working Lead
MAXCHARGETIME	VARIABLEANDUNITS	1.00000E+002	s	1.00000E+002	second(s)	Max &Charge Time
CHARGECURRENT	QUANT	2.80000E-004	&Charge Current (A) 
VOLTAGEFINISH	TWOPARAM	F	1.00000E-003	3.60000E+003	&Voltage Finish	 I (A) < 	Max Time(s)
SAMPLETIME	QUANT	1.00000E-002	Sa&mple Period (s)
CHARGESTOPAT1	MULTIPARAM	4	1.00000E+000	Charge Stop At &1	Voltage > Limit	V
CHARGESTOPAT2	MULTIPARAM	0	0.00000E+000	Charge Stop At &2	None	N/A
AESBHCSELECTOR	TOGGLE	F	Save Both Half Cells
IRCOMP	TOGGLE	F	IR &Measure
EOC	QUANT	0	Open Circuit (V)
SEQUENCER	TOGGLE	TRUE	Run as Sequence
PSTATMODEL	IQUANT	53	Pstat Model
PSTATSECTION	LABEL	IFC5000-01520	Pstat Section
PSTATSERIALNO	LABEL	01520	Pstat Serial Number
CTRLMODE	IQUANT	0	Control Mode
ELECTROMETER	IQUANT	1	RE=0 or CS=1
IESTAB	IQUANT	0	I/E Stability
CASPEED	IQUANT	4	Control Amp Speed
CONVENTION	IQUANT	1	Current Convention
ICHRANGE	IQUANT	2	Ich Range
ICHRANGEMODE	TOGGLE	T	Ich Auto Range
ICHOFFSETENABLE	TOGGLE	F	Ich Offset Enable
ICHOFFSET	QUANT	0	Ich Offset (V)
ICHFILTER	IQUANT	1	Ich Filter
VCHRANGE	IQUANT	2	Vch Range
VCHRANGEMODE	TOGGLE	T	Vch Auto Range
VCHOFFSETENABLE	TOGGLE	F	Vch Offset Enable
VCHOFFSET	QUANT	0	Vch Offset (V)
VCHFILTER	IQUANT	1	Vch Filter
IERANGELOWERLIMIT	IQUANT	9	I/E Range Lower Limit
IERANGEMODE	TOGGLE	F	I/E AutoRange
IERANGE	IQUANT	9	I/E Range
ACHSELECT	IQUANT	1	Ach Select
ACHRANGE	IQUANT	2	Ach Range
ACHOFFSETENABLE	TOGGLE	F	Ach Offset Enable
ACHOFFSET	QUANT	0	Ach Offset (V)
ACHFILTER	IQUANT	1	Ach Filter
CABLEID	IQUANT	14	Cable ID
DCCALDATE	LABEL	5-7-2017	DC Calibration Date
ACCALDATE	LABEL	12/3/2015	AC Calibration Date
FRAMEWORKVERSION	QUANT	7.01	Framework Version
INSTRUMENTVERSION	LABEL	4.00	Instrument Version
CURVE	TABLE	73
	Pt	T	Vf	Im	Vu	Pwr	Sig	Ach	Temp	IERange	Over
	#	s	V	A	V	W	V	V	deg C	#	bits
	0	0.013333	6.07930E-001	2.82152E-004	0.00000E+000	1.71529E-004	1.68088E-001	6.08216E-001	3.57750E+000	9	...........
	1	0.026667	6.37259E-001	2.81480E-004	0.00000E+000	1.79376E-004	1.68088E-001	6.37529E-001	3.57750E+000	9	...........
	2	0.04	6.62274E-001	2.81487E-004	0.00000E+000	1.86421E-004	1.68088E-001	6.62565E-001	3.57750E+000	9	...........
	3	0.053333	6.84152E-001	2.80364E-004	0.00000E+000	1.91811E-004	1.68088E-001	6.84442E-001	3.57750E+000	9	...........
	4	0.066667	7.03614E-001	2.81069E-004	0.00000E+000	1.97764E-004	1.68088E-001	7.03910E-001	3.57750E+000	9	...........
	5	0.08	7.21124E-001	2.81875E-004	0.00000E+000	2.03267E-004	1.68088E-001	7.21411E-001	3.57750E+000	9	...........
	6	0.093333	7.37016E-001	2.81521E-004	0.00000E+000	2.07486E-004	1.68088E-001	7.37316E-001	3.57750E+000	9	...........
	7	0.106667	7.51535E-001	2.80846E-004	0.00000E+000	2.11066E-004	1.68088E-001	7.51832E-001	3.57766E+000	9	...........
	8	0.12	7.64845E-001	2.81041E-004	0.00000E+000	2.14953E-004	1.68088E-001	7.65159E-001	3.57780E+000	9	...........
	9	0.133333	7.77164E-001	2.81040E-004	0.00000E+000	2.18414E-004	1.68088E-001	7.77477E-001	3.57780E+000	9	...........
	10	0.146667	7.88530E-001	2.80798E-004	0.00000E+000	2.21418E-004	1.68088E-001	7.88837E-001	3.57780E+000	9	...........
	11	0.16	7.99096E-001	2.81572E-004	0.00000E+000	2.25003E-004	1.68088E-001	7.99397E-001	3.57780E+000	9	...........
	12	0.173333	8.08898E-001	2.82207E-004	0.00000E+000	2.28276E-004	1.68088E-001	8.09218E-001	3.57780E+000	9	...........
	13	0.186667	8.18064E-001	2.82101E-004	0.00000E+000	2.30777E-004	1.68088E-001	8.18425E-001	3.57780E+000	9	...........
	14	0.2	8.26662E-001	2.82154E-004	0.00000E+000	2.33246E-004	1.68088E-001	8.27005E-001	3.57780E+000	9	...........
	15	0.213333	8.34696E-001	2.79737E-004	0.00000E+000	2.33496E-004	1.68088E-001	8.35051E-001	3.57780E+000	9	...........
	16	0.226667	8.42241E-001	2.81728E-004	0.00000E+000	2.37283E-004	1.68088E-001	8.42582E-001	3.57780E+000	9	...........
	17	0.24	8.49332E-001	2.80614E-004	0.00000E+000	2.38334E-004	1.68088E-001	8.49682E-001	3.57780E+000	9	...........
	18	0.253333	8.56012E-001	2.82968E-004	0.00000E+000	2.42224E-004	1.68088E-001	8.56381E-001	3.57780E+000	9	...........
	19	0.266667	8.62335E-001	2.80963E-004	0.00000E+000	2.42284E-004	1.68088E-001	8.62689E-001	3.57780E+000	9	...........
	20	0.28	8.68299E-001	2.80519E-004	0.00000E+000	2.43574E-004	1.68088E-001	8.68648E-001	3.57780E+000	9	...........
	21	0.293333	8.73932E-001	2.81158E-004	0.00000E+000	2.45713E-004	1.68088E-001	8.74278E-001	3.57780E+000	9	...........
	22	0.306667	8.79239E-001	2.80596E-004	0.00000E+000	2.46711E-004	1.68088E-001	8.79584E-001	3.57780E+000	9	...........
	23	0.32	8.84298E-001	2.81177E-004	0.00000E+000	2.48645E-004	1.68088E-001	8.84657E-001	3.57780E+000	9	...........
	24	0.333333	8.89090E-001	2.81278E-004	0.00000E+000	2.50082E-004	1.68088E-001	8.89454E-001	3.57780E+000	9	...........
	25	0.346667	8.93667E-001	2.81443E-004	0.00000E+000	2.51516E-004	1.68088E-001	8.94024E-001	3.57780E+000	9	...........
	26	0.36	8.98055E-001	2.81577E-004	0.00000E+000	2.52872E-004	1.68088E-001	8.98397E-001	3.57780E+000	9	...........
	27	0.373333	9.02225E-001	2.81851E-004	0.00000E+000	2.54293E-004	1.68088E-001	9.02574E-001	3.57780E+000	9	...........
	28	0.386667	9.06210E-001	2.80629E-004	0.00000E+000	2.54309E-004	1.68088E-001	9.06555E-001	3.57780E+000	9	...........
	29	0.4	9.10051E-001	2.80144E-004	0.00000E+000	2.54945E-004	1.68088E-001	9.10380E-001	3.57780E+000	9	...........
	30	0.413333	9.13734E-001	2.80668E-004	0.00000E+000	2.56456E-004	1.68088E-001	9.14060E-001	3.57780E+000	9	...........
	31	0.426667	9.17218E-001	2.81098E-004	0.00000E+000	2.57828E-004	1.68088E-001	9.17582E-001	3.57780E+000	9	...........
	32	0.44	9.20620E-001	2.81343E-004	0.00000E+000	2.59010E-004	1.68088E-001	9.20969E-001	3.57780E+000	9	...........
	33	0.453333	9.23905E-001	2.80692E-004	0.00000E+000	2.59333E-004	1.68088E-001	9.24225E-001	3.57780E+000	9	...........
	34	0.466667	9.27022E-001	2.81647E-004	0.00000E+000	2.61093E-004	1.68088E-001	9.27364E-001	3.57780E+000	9	...........
	35	0.48	9.30051E-001	2.81302E-004	0.00000E+000	2.61626E-004	1.68088E-001	9.30369E-001	3.57780E+000	9	...........
	36	0.493333	9.32964E-001	2.81379E-004	0.00000E+000	2.62517E-004	1.68088E-001	9.33297E-001	3.57780E+000	9	...........
	37	0.506667	9.35731E-001	2.80660E-004	0.00000E+000	2.62622E-004	1.68088E-001	9.36069E-001	3.57780E+000	9	...........
	38	0.52	9.38420E-001	2.81505E-004	0.00000E+000	2.64170E-004	1.68088E-001	9.38756E-001	3.57780E+000	9	...........
	39	0.533333	9.41037E-001	2.80495E-004	0.00000E+000	2.63956E-004	1.68088E-001	9.41361E-001	3.57780E+000	9	...........
	40	0.546667	9.43578E-001	2.80434E-004	0.00000E+000	2.64612E-004	1.68088E-001	9.43923E-001	3.57780E+000	9	...........
	41	0.56	9.46074E-001	2.80202E-004	0.00000E+000	2.65092E-004	1.68088E-001	9.46439E-001	3.57780E+000	9	...........
	42	0.573333	9.48497E-001	2.81441E-004	0.00000E+000	2.66946E-004	1.68088E-001	9.48845E-001	3.57780E+000	9	...........
	43	0.586667	9.50878E-001	2.81238E-004	0.00000E+000	2.67423E-004	1.68088E-001	9.51224E-001	3.57780E+000	9	...........
	44	0.6	9.53139E-001	2.81915E-004	0.00000E+000	2.68704E-004	1.68088E-001	9.53521E-001	3.57780E+000	9	...........
	45	0.613333	9.55373E-001	2.80228E-004	0.00000E+000	2.67722E-004	1.68088E-001	9.55744E-001	3.57780E+000	9	...........
	46	0.626667	9.57517E-001	2.81902E-004	0.00000E+000	2.69926E-004	1.68088E-001	9.57889E-001	3.57780E+000	9	...........
	47	0.64	9.59586E-001	2.80500E-004	0.00000E+000	2.69164E-004	1.68088E-001	9.60001E-001	3.57780E+000	9	...........
	48	0.653333	9.61631E-001	2.81098E-004	0.00000E+000	2.70313E-004	1.68088E-001	9.62029E-001	3.57780E+000	9	...........
	49	0.666667	9.63625E-001	2.80077E-004	0.00000E+000	2.69889E-004	1.68088E-001	9.64026E-001	3.57780E+000	9	...........
	50	0.68	9.65530E-001	2.80032E-004	0.00000E+000	2.70379E-004	1.68088E-001	9.65945E-001	3.57780E+000	9	...........
	51	0.693333	9.67447E-001	2.81782E-004	0.00000E+000	2.72609E-004	1.68088E-001	9.67846E-001	3.57780E+000	9	...........
	52	0.706667	9.69291E-001	2.81544E-004	0.00000E+000	2.72898E-004	1.68088E-001	9.69701E-001	3.57780E+000	9	...........
	53	0.72	9.71093E-001	2.81773E-004	0.00000E+000	2.73628E-004	1.68088E-001	9.71511E-001	3.57780E+000	9	...........
	54	0.733333	9.72902E-001	2.81155E-004	0.00000E+000	2.73537E-004	1.68088E-001	9.73299E-001	3.57780E+000	9	...........
	55	0.746667	9.74668E-001	2.80873E-004	0.00000E+000	2.73758E-004	1.68088E-001	9.75029E-001	3.57780E+000	9	...........
	56	0.76	9.76376E-001	2.80278E-004	0.00000E+000	2.73657E-004	1.68088E-001	9.76789E-001	3.57780E+000	9	...........
	57	0.773333	9.78064E-001	2.81503E-004	0.00000E+000	2.75328E-004	1.68088E-001	9.78439E-001	3.57780E+000	9	...........
	58	0.786667	9.79719E-001	2.80439E-004	0.00000E+000	2.74751E-004	1.68088E-001	9.80050E-001	3.57780E+000	9	...........
	59	0.8	9.81299E-001	2.79951E-004	0.00000E+000	2.74716E-004	1.68088E-001	9.81644E-001	3.57780E+000	9	...........
	60	0.813333	9.82857E-001	2.81486E-004	0.00000E+000	2.76660E-004	1.68088E-001	9.83220E-001	3.57780E+000	9	...........
	61	0.826667	9.84400E-001	2.80632E-004	0.00000E+000	2.76255E-004	1.68088E-001	9.84779E-001	3.57780E+000	9	...........
	62	0.84	9.85932E-001	2.81515E-004	0.00000E+000	2.77555E-004	1.68088E-001	9.86310E-001	3.57780E+000	9	...........
	63	0.853333	9.87408E-001	2.81183E-004	0.00000E+000	2.77642E-004	1.68088E-001	9.87800E-001	3.57780E+000	9	...........
	64	0.866667	9.88936E-001	2.81068E-004	0.00000E+000	2.77958E-004	1.68088E-001	9.89300E-001	3.57780E+000	9	...........
	65	0.88	9.90360E-001	2.82070E-004	0.00000E+000	2.79351E-004	1.68088E-001	9.90735E-001	3.57780E+000	9	...........
	66	0.893333	9.91764E-001	2.80715E-004	0.00000E+000	2.78403E-004	1.68088E-001	9.92145E-001	3.57780E+000	9	...........
	67	0.906667	9.93168E-001	2.81043E-004	0.00000E+000	2.79123E-004	1.68088E-001	9.93580E-001	3.57780E+000	9	...........
	68	0.92	9.94553E-001	2.79992E-004	0.00000E+000	2.78466E-004	1.68088E-001	9.94932E-001	3.57780E+000	9	...........
	69	0.933333	9.95892E-001	2.81036E-004	0.00000E+000	2.79881E-004	1.68088E-001	9.96291E-001	3.57780E+000	9	...........
	70	0.946667	9.97257E-001	2.81169E-004	0.00000E+000	2.80398E-004	1.68088E-001	9.97685E-001	3.57780E+000	9	...........
	71	0.96	9.98574E-001	2.81513E-004	0.00000E+000	2.81111E-004	1.68088E-001	9.98965E-001	3.57780E+000	9	...........
	72	0.97	9.99744E-001	2.81843E-004	0.00000E+000	2.81771E-004	1.68088E-001	1.00013E+000	3.57780E+000	9	...........
STARTTIMEOFFSET	QUANT	1298.461	Start Time Offset (s)
