EXPLAIN
TAG	PWR800_CHARGE
TITLE	LABEL	PWR Cyclic Charge Discharge (Cell) - Charge Step	Test &Identifier
DATE	LABEL	7-7-2017	Date
TIME	LABEL	15:56:30	Time
NOTES	NOTES	3	&Notes...
	supercap test cell
	2.8mg
	6M KOH
PSTAT	PSTAT	IFC5000-01520	Potentiostat
CAPACITY	QUANT	1.00000E-003	Capacity (A-hr)
CELLTYPE	SELECTOR	1	&Cell Type
WORKINGCONNECTION	SELECTOR	0	&Working Lead
MAXCHARGETIME	VARIABLEANDUNITS	1.00000E+002	s	1.00000E+002	second(s)	Max &Charge Time
CHARGECURRENT	QUANT	2.80000E-004	&Charge Current (A) 
VOLTAGEFINISH	TWOPARAM	F	1.00000E-003	3.60000E+003	&Voltage Finish	 I (A) < 	Max Time(s)
SAMPLETIME	QUANT	1.00000E-002	Sa&mple Period (s)
CHARGESTOPAT1	MULTIPARAM	4	1.00000E+000	Charge Stop At &1	Voltage > Limit	V
CHARGESTOPAT2	MULTIPARAM	0	0.00000E+000	Charge Stop At &2	None	N/A
AESBHCSELECTOR	TOGGLE	F	Save Both Half Cells
IRCOMP	TOGGLE	F	IR &Measure
EOC	QUANT	0	Open Circuit (V)
SEQUENCER	TOGGLE	TRUE	Run as Sequence
PSTATMODEL	IQUANT	53	Pstat Model
PSTATSECTION	LABEL	IFC5000-01520	Pstat Section
PSTATSERIALNO	LABEL	01520	Pstat Serial Number
CTRLMODE	IQUANT	0	Control Mode
ELECTROMETER	IQUANT	1	RE=0 or CS=1
IESTAB	IQUANT	0	I/E Stability
CASPEED	IQUANT	4	Control Amp Speed
CONVENTION	IQUANT	1	Current Convention
ICHRANGE	IQUANT	2	Ich Range
ICHRANGEMODE	TOGGLE	T	Ich Auto Range
ICHOFFSETENABLE	TOGGLE	F	Ich Offset Enable
ICHOFFSET	QUANT	0	Ich Offset (V)
ICHFILTER	IQUANT	1	Ich Filter
VCHRANGE	IQUANT	2	Vch Range
VCHRANGEMODE	TOGGLE	T	Vch Auto Range
VCHOFFSETENABLE	TOGGLE	F	Vch Offset Enable
VCHOFFSET	QUANT	0	Vch Offset (V)
VCHFILTER	IQUANT	1	Vch Filter
IERANGELOWERLIMIT	IQUANT	9	I/E Range Lower Limit
IERANGEMODE	TOGGLE	F	I/E AutoRange
IERANGE	IQUANT	9	I/E Range
ACHSELECT	IQUANT	1	Ach Select
ACHRANGE	IQUANT	2	Ach Range
ACHOFFSETENABLE	TOGGLE	F	Ach Offset Enable
ACHOFFSET	QUANT	0	Ach Offset (V)
ACHFILTER	IQUANT	1	Ach Filter
CABLEID	IQUANT	14	Cable ID
DCCALDATE	LABEL	5-7-2017	DC Calibration Date
ACCALDATE	LABEL	12/3/2015	AC Calibration Date
FRAMEWORKVERSION	QUANT	7.01	Framework Version
INSTRUMENTVERSION	LABEL	4.00	Instrument Version
CURVE	TABLE	87
	Pt	T	Vf	Im	Vu	Pwr	Sig	Ach	Temp	IERange	Over
	#	s	V	A	V	W	V	V	deg C	#	bits
	0	0.013333	5.93645E-001	2.81252E-004	0.00000E+000	1.66964E-004	1.68088E-001	5.93951E-001	3.57760E+000	9	...........
	1	0.026667	6.23028E-001	2.81373E-004	0.00000E+000	1.75303E-004	1.68088E-001	6.23334E-001	3.57760E+000	9	...........
	2	0.04	6.47948E-001	2.80388E-004	0.00000E+000	1.81677E-004	1.68088E-001	6.48252E-001	3.57760E+000	9	...........
	3	0.053333	6.69674E-001	2.80850E-004	0.00000E+000	1.88078E-004	1.68088E-001	6.69969E-001	3.57760E+000	9	...........
	4	0.066667	6.88891E-001	2.80794E-004	0.00000E+000	1.93436E-004	1.68088E-001	6.89182E-001	3.57760E+000	9	...........
	5	0.08	7.06134E-001	2.80743E-004	0.00000E+000	1.98242E-004	1.68088E-001	7.06420E-001	3.57760E+000	9	...........
	6	0.093333	7.21757E-001	2.81125E-004	0.00000E+000	2.02904E-004	1.68088E-001	7.22030E-001	3.57860E+000	9	...........
	7	0.106667	7.35947E-001	2.80546E-004	0.00000E+000	2.06467E-004	1.68088E-001	7.36235E-001	3.57860E+000	9	...........
	8	0.12	7.49016E-001	2.80938E-004	0.00000E+000	2.10427E-004	1.68088E-001	7.49304E-001	3.57860E+000	9	...........
	9	0.133333	7.61009E-001	2.80075E-004	0.00000E+000	2.13140E-004	1.68088E-001	7.61285E-001	3.57860E+000	9	...........
	10	0.146667	7.72106E-001	2.81713E-004	0.00000E+000	2.17512E-004	1.68088E-001	7.72392E-001	3.57860E+000	9	...........
	11	0.16	7.82392E-001	2.81515E-004	0.00000E+000	2.20255E-004	1.68088E-001	7.82677E-001	3.57860E+000	9	...........
	12	0.173333	7.91990E-001	2.81519E-004	0.00000E+000	2.22960E-004	1.68088E-001	7.92271E-001	3.57860E+000	9	...........
	13	0.186667	8.00952E-001	2.81135E-004	0.00000E+000	2.25175E-004	1.68088E-001	8.01238E-001	3.57860E+000	9	...........
	14	0.2	8.09332E-001	2.81370E-004	0.00000E+000	2.27722E-004	1.68088E-001	8.09628E-001	3.57860E+000	9	...........
	15	0.213333	8.17151E-001	2.81268E-004	0.00000E+000	2.29838E-004	1.68088E-001	8.17488E-001	3.57860E+000	9	...........
	16	0.226667	8.24561E-001	2.81335E-004	0.00000E+000	2.31978E-004	1.68088E-001	8.24875E-001	3.57860E+000	9	...........
	17	0.24	8.31501E-001	2.81262E-004	0.00000E+000	2.33869E-004	1.68088E-001	8.31831E-001	3.57860E+000	9	...........
	18	0.253333	8.38014E-001	2.81457E-004	0.00000E+000	2.35864E-004	1.68088E-001	8.38343E-001	3.57860E+000	9	...........
	19	0.266667	8.44225E-001	2.81184E-004	0.00000E+000	2.37382E-004	1.68088E-001	8.44558E-001	3.57860E+000	9	...........
	20	0.28	8.50119E-001	2.81110E-004	0.00000E+000	2.38977E-004	1.68088E-001	8.50432E-001	3.57860E+000	9	...........
	21	0.293333	8.55654E-001	2.80962E-004	0.00000E+000	2.40406E-004	1.68088E-001	8.55978E-001	3.57860E+000	9	...........
	22	0.306667	8.60965E-001	2.82226E-004	0.00000E+000	2.42987E-004	1.68088E-001	8.61247E-001	3.57860E+000	9	...........
	23	0.32	8.65948E-001	2.80869E-004	0.00000E+000	2.43218E-004	1.68088E-001	8.66254E-001	3.57860E+000	9	...........
	24	0.333333	8.70730E-001	2.81724E-004	0.00000E+000	2.45306E-004	1.68088E-001	8.71021E-001	3.57860E+000	9	...........
	25	0.346667	8.75295E-001	2.80996E-004	0.00000E+000	2.45954E-004	1.68088E-001	8.75592E-001	3.57860E+000	9	...........
	26	0.36	8.79645E-001	2.81363E-004	0.00000E+000	2.47499E-004	1.68088E-001	8.79923E-001	3.57860E+000	9	...........
	27	0.373333	8.83806E-001	2.81201E-004	0.00000E+000	2.48527E-004	1.68088E-001	8.84108E-001	3.57860E+000	9	...........
	28	0.386667	8.87778E-001	2.81496E-004	0.00000E+000	2.49906E-004	1.68088E-001	8.88116E-001	3.57860E+000	9	...........
	29	0.4	8.91608E-001	2.80897E-004	0.00000E+000	2.50450E-004	1.68088E-001	8.91929E-001	3.57860E+000	9	...........
	30	0.413333	8.95257E-001	2.81391E-004	0.00000E+000	2.51917E-004	1.68088E-001	8.95593E-001	3.57860E+000	9	...........
	31	0.426667	8.98775E-001	2.81266E-004	0.00000E+000	2.52795E-004	1.68088E-001	8.99119E-001	3.57860E+000	9	...........
	32	0.44	9.02154E-001	2.80531E-004	0.00000E+000	2.53082E-004	1.68088E-001	9.02498E-001	3.57860E+000	9	...........
	33	0.453333	9.05366E-001	2.81917E-004	0.00000E+000	2.55238E-004	1.68088E-001	9.05747E-001	3.57860E+000	9	...........
	34	0.466667	9.08550E-001	2.82148E-004	0.00000E+000	2.56346E-004	1.68088E-001	9.08922E-001	3.57860E+000	9	...........
	35	0.48	9.11575E-001	2.81263E-004	0.00000E+000	2.56392E-004	1.68088E-001	9.11914E-001	3.57860E+000	9	...........
	36	0.493333	9.14454E-001	2.81457E-004	0.00000E+000	2.57379E-004	1.68088E-001	9.14827E-001	3.57860E+000	9	...........
	37	0.506667	9.17265E-001	2.81216E-004	0.00000E+000	2.57950E-004	1.68088E-001	9.17645E-001	3.57860E+000	9	...........
	38	0.52	9.19999E-001	2.81696E-004	0.00000E+000	2.59160E-004	1.68088E-001	9.20334E-001	3.57860E+000	9	...........
	39	0.533333	9.22705E-001	2.80090E-004	0.00000E+000	2.58440E-004	1.68088E-001	9.23008E-001	3.57860E+000	9	...........
	40	0.546667	9.25256E-001	2.81046E-004	0.00000E+000	2.60039E-004	1.68088E-001	9.25573E-001	3.57860E+000	9	...........
	41	0.56	9.27744E-001	2.80915E-004	0.00000E+000	2.60617E-004	1.68088E-001	9.28055E-001	3.57860E+000	9	...........
	42	0.573333	9.30149E-001	2.80705E-004	0.00000E+000	2.61098E-004	1.68088E-001	9.30465E-001	3.57860E+000	9	...........
	43	0.586667	9.32506E-001	2.81608E-004	0.00000E+000	2.62601E-004	1.68088E-001	9.32820E-001	3.57860E+000	9	...........
	44	0.6	9.34762E-001	2.80724E-004	0.00000E+000	2.62410E-004	1.68088E-001	9.35083E-001	3.57860E+000	9	...........
	45	0.613333	9.36998E-001	2.80986E-004	0.00000E+000	2.63283E-004	1.68088E-001	9.37329E-001	3.57860E+000	9	...........
	46	0.626667	9.39171E-001	2.81039E-004	0.00000E+000	2.63943E-004	1.68088E-001	9.39510E-001	3.57860E+000	9	...........
	47	0.64	9.41273E-001	2.80803E-004	0.00000E+000	2.64313E-004	1.68088E-001	9.41594E-001	3.57860E+000	9	...........
	48	0.653333	9.43298E-001	2.81992E-004	0.00000E+000	2.66002E-004	1.68088E-001	9.43673E-001	3.57860E+000	9	...........
	49	0.666667	9.45316E-001	2.80895E-004	0.00000E+000	2.65534E-004	1.68088E-001	9.45714E-001	3.57860E+000	9	...........
	50	0.68	9.47362E-001	2.82192E-004	0.00000E+000	2.67338E-004	1.68088E-001	9.47696E-001	3.57860E+000	9	...........
	51	0.693333	9.49292E-001	2.81219E-004	0.00000E+000	2.66959E-004	1.68088E-001	9.49670E-001	3.57860E+000	9	...........
	52	0.706667	9.51194E-001	2.80232E-004	0.00000E+000	2.66555E-004	1.68088E-001	9.51569E-001	3.57860E+000	9	...........
	53	0.72	9.53049E-001	2.81358E-004	0.00000E+000	2.68147E-004	1.68088E-001	9.53425E-001	3.57860E+000	9	...........
	54	0.733333	9.54851E-001	2.81077E-004	0.00000E+000	2.68387E-004	1.68088E-001	9.55201E-001	3.57860E+000	9	...........
	55	0.746667	9.56634E-001	2.81429E-004	0.00000E+000	2.69225E-004	1.68088E-001	9.56999E-001	3.57860E+000	9	...........
	56	0.76	9.58379E-001	2.80657E-004	0.00000E+000	2.68976E-004	1.68088E-001	9.58754E-001	3.57860E+000	9	...........
	57	0.773333	9.60097E-001	2.81175E-004	0.00000E+000	2.69956E-004	1.68088E-001	9.60483E-001	3.57860E+000	9	...........
	58	0.786667	9.61751E-001	2.80987E-004	0.00000E+000	2.70239E-004	1.68088E-001	9.62150E-001	3.57860E+000	9	...........
	59	0.8	9.63384E-001	2.82017E-004	0.00000E+000	2.71691E-004	1.68088E-001	9.63771E-001	3.57860E+000	9	...........
	60	0.813333	9.64997E-001	2.81561E-004	0.00000E+000	2.71705E-004	1.68088E-001	9.65385E-001	3.57860E+000	9	...........
	61	0.826667	9.66604E-001	2.81627E-004	0.00000E+000	2.72222E-004	1.68088E-001	9.66984E-001	3.57860E+000	9	...........
	62	0.84	9.68152E-001	2.80937E-004	0.00000E+000	2.71989E-004	1.68088E-001	9.68556E-001	3.57860E+000	9	...........
	63	0.853333	9.69665E-001	2.81624E-004	0.00000E+000	2.73081E-004	1.68088E-001	9.70079E-001	3.57860E+000	9	...........
	64	0.866667	9.71177E-001	2.82347E-004	0.00000E+000	2.74209E-004	1.68088E-001	9.71611E-001	3.57860E+000	9	...........
	65	0.88	9.72725E-001	2.80814E-004	0.00000E+000	2.73154E-004	1.68088E-001	9.73104E-001	3.57860E+000	9	...........
	66	0.893333	9.74186E-001	2.81916E-004	0.00000E+000	2.74639E-004	1.68088E-001	9.74568E-001	3.57860E+000	9	...........
	67	0.906667	9.75640E-001	2.80111E-004	0.00000E+000	2.73288E-004	1.68088E-001	9.75993E-001	3.57860E+000	9	...........
	68	0.92	9.77078E-001	2.80942E-004	0.00000E+000	2.74502E-004	1.68088E-001	9.77424E-001	3.57860E+000	9	...........
	69	0.933333	9.78493E-001	2.81612E-004	0.00000E+000	2.75555E-004	1.68088E-001	9.78860E-001	3.57860E+000	9	...........
	70	0.946667	9.79906E-001	2.80442E-004	0.00000E+000	2.74807E-004	1.68088E-001	9.80245E-001	3.57860E+000	9	...........
	71	0.96	9.81238E-001	2.82146E-004	0.00000E+000	2.76853E-004	1.68088E-001	9.81575E-001	3.57860E+000	9	...........
	72	0.97333	9.82581E-001	2.82627E-004	0.00000E+000	2.77703E-004	1.68088E-001	9.82929E-001	3.57860E+000	9	...........
	73	0.98667	9.83886E-001	2.81998E-004	0.00000E+000	2.77454E-004	1.68088E-001	9.84274E-001	3.57860E+000	9	...........
	74	1	9.85229E-001	2.79653E-004	0.00000E+000	2.75522E-004	1.68088E-001	9.85575E-001	3.57860E+000	9	...........
	75	1.01333	9.86495E-001	2.82100E-004	0.00000E+000	2.78291E-004	1.68088E-001	9.86856E-001	3.57860E+000	9	...........
	76	1.02667	9.87764E-001	2.80721E-004	0.00000E+000	2.77286E-004	1.68088E-001	9.88145E-001	3.57860E+000	9	...........
	77	1.04	9.89058E-001	2.82130E-004	0.00000E+000	2.79043E-004	1.68088E-001	9.89447E-001	3.57860E+000	9	...........
	78	1.05333	9.90301E-001	2.81905E-004	0.00000E+000	2.79170E-004	1.68088E-001	9.90672E-001	3.57860E+000	9	...........
	79	1.06667	9.91520E-001	2.81924E-004	0.00000E+000	2.79534E-004	1.68088E-001	9.91889E-001	3.57860E+000	9	...........
	80	1.08	9.92732E-001	2.81427E-004	0.00000E+000	2.79382E-004	1.68088E-001	9.93101E-001	3.57860E+000	9	...........
	81	1.09333	9.93953E-001	2.80992E-004	0.00000E+000	2.79293E-004	1.68088E-001	9.94321E-001	3.57790E+000	9	...........
	82	1.10667	9.95114E-001	2.80590E-004	0.00000E+000	2.79219E-004	1.68088E-001	9.95434E-001	3.57790E+000	9	...........
	83	1.12	9.96248E-001	2.80996E-004	0.00000E+000	2.79942E-004	1.68088E-001	9.96595E-001	3.57790E+000	9	...........
	84	1.13333	9.97396E-001	2.80832E-004	0.00000E+000	2.80101E-004	1.68088E-001	9.97755E-001	3.57790E+000	9	...........
	85	1.14667	9.98557E-001	2.81165E-004	0.00000E+000	2.80759E-004	1.68088E-001	9.98902E-001	3.57790E+000	9	...........
	86	1.15833	9.99604E-001	2.80652E-004	0.00000E+000	2.80541E-004	1.68088E-001	9.99966E-001	3.57790E+000	9	...........
STARTTIMEOFFSET	QUANT	959.232	Start Time Offset (s)
