EXPLAIN
TAG	PWR800_CHARGE
TITLE	LABEL	PWR Cyclic Charge Discharge (Cell) - Charge Step	Test &Identifier
DATE	LABEL	7-7-2017	Date
TIME	LABEL	16:24:28	Time
NOTES	NOTES	3	&Notes...
	supercap test cell
	2.8mg
	6M KOH
PSTAT	PSTAT	IFC5000-01520	Potentiostat
CAPACITY	QUANT	1.00000E-003	Capacity (A-hr)
CELLTYPE	SELECTOR	1	&Cell Type
WORKINGCONNECTION	SELECTOR	0	&Working Lead
MAXCHARGETIME	VARIABLEANDUNITS	1.00000E+002	s	1.00000E+002	second(s)	Max &Charge Time
CHARGECURRENT	QUANT	2.80000E-004	&Charge Current (A) 
VOLTAGEFINISH	TWOPARAM	F	1.00000E-003	3.60000E+003	&Voltage Finish	 I (A) < 	Max Time(s)
SAMPLETIME	QUANT	1.00000E-002	Sa&mple Period (s)
CHARGESTOPAT1	MULTIPARAM	4	1.00000E+000	Charge Stop At &1	Voltage > Limit	V
CHARGESTOPAT2	MULTIPARAM	0	0.00000E+000	Charge Stop At &2	None	N/A
AESBHCSELECTOR	TOGGLE	F	Save Both Half Cells
IRCOMP	TOGGLE	F	IR &Measure
EOC	QUANT	0	Open Circuit (V)
SEQUENCER	TOGGLE	TRUE	Run as Sequence
PSTATMODEL	IQUANT	53	Pstat Model
PSTATSECTION	LABEL	IFC5000-01520	Pstat Section
PSTATSERIALNO	LABEL	01520	Pstat Serial Number
CTRLMODE	IQUANT	0	Control Mode
ELECTROMETER	IQUANT	1	RE=0 or CS=1
IESTAB	IQUANT	0	I/E Stability
CASPEED	IQUANT	4	Control Amp Speed
CONVENTION	IQUANT	1	Current Convention
ICHRANGE	IQUANT	2	Ich Range
ICHRANGEMODE	TOGGLE	T	Ich Auto Range
ICHOFFSETENABLE	TOGGLE	F	Ich Offset Enable
ICHOFFSET	QUANT	0	Ich Offset (V)
ICHFILTER	IQUANT	1	Ich Filter
VCHRANGE	IQUANT	2	Vch Range
VCHRANGEMODE	TOGGLE	T	Vch Auto Range
VCHOFFSETENABLE	TOGGLE	F	Vch Offset Enable
VCHOFFSET	QUANT	0	Vch Offset (V)
VCHFILTER	IQUANT	1	Vch Filter
IERANGELOWERLIMIT	IQUANT	9	I/E Range Lower Limit
IERANGEMODE	TOGGLE	F	I/E AutoRange
IERANGE	IQUANT	9	I/E Range
ACHSELECT	IQUANT	1	Ach Select
ACHRANGE	IQUANT	2	Ach Range
ACHOFFSETENABLE	TOGGLE	F	Ach Offset Enable
ACHOFFSET	QUANT	0	Ach Offset (V)
ACHFILTER	IQUANT	1	Ach Filter
CABLEID	IQUANT	14	Cable ID
DCCALDATE	LABEL	5-7-2017	DC Calibration Date
ACCALDATE	LABEL	12/3/2015	AC Calibration Date
FRAMEWORKVERSION	QUANT	7.01	Framework Version
INSTRUMENTVERSION	LABEL	4.00	Instrument Version
CURVE	TABLE	57
	Pt	T	Vf	Im	Vu	Pwr	Sig	Ach	Temp	IERange	Over
	#	s	V	A	V	W	V	V	deg C	#	bits
	0	0.013333	6.14899E-001	2.81093E-004	0.00000E+000	1.72844E-004	1.68088E-001	6.15152E-001	3.57880E+000	9	...........
	1	0.026667	6.45269E-001	2.81264E-004	0.00000E+000	1.81491E-004	1.68088E-001	6.45507E-001	3.57880E+000	9	...........
	2	0.04	6.71455E-001	2.81395E-004	0.00000E+000	1.88944E-004	1.68088E-001	6.71718E-001	3.57880E+000	9	...........
	3	0.053333	6.94547E-001	2.81569E-004	0.00000E+000	1.95563E-004	1.68088E-001	6.94822E-001	3.57880E+000	9	...........
	4	0.066667	7.15253E-001	2.81618E-004	0.00000E+000	2.01428E-004	1.68088E-001	7.15528E-001	3.57880E+000	9	...........
	5	0.08	7.33961E-001	2.80496E-004	0.00000E+000	2.05873E-004	1.68088E-001	7.34264E-001	3.57880E+000	9	...........
	6	0.093333	7.51039E-001	2.80916E-004	0.00000E+000	2.10979E-004	1.68088E-001	7.51318E-001	3.57880E+000	9	...........
	7	0.106667	7.66632E-001	2.81870E-004	0.00000E+000	2.16091E-004	1.68088E-001	7.66920E-001	3.57880E+000	9	...........
	8	0.12	7.81026E-001	2.79708E-004	0.00000E+000	2.18459E-004	1.68088E-001	7.81297E-001	3.57880E+000	9	...........
	9	0.133333	7.94326E-001	2.81143E-004	0.00000E+000	2.23319E-004	1.68088E-001	7.94595E-001	3.57880E+000	9	...........
	10	0.146667	8.06601E-001	2.80431E-004	0.00000E+000	2.26196E-004	1.68088E-001	8.06915E-001	3.57880E+000	9	...........
	11	0.16	8.18019E-001	2.81034E-004	0.00000E+000	2.29891E-004	1.68088E-001	8.18323E-001	3.57880E+000	9	...........
	12	0.173333	8.28625E-001	2.81151E-004	0.00000E+000	2.32969E-004	1.68088E-001	8.28945E-001	3.57880E+000	9	...........
	13	0.186667	8.38479E-001	2.82058E-004	0.00000E+000	2.36499E-004	1.68088E-001	8.38811E-001	3.57880E+000	9	...........
	14	0.2	8.47702E-001	2.80440E-004	0.00000E+000	2.37729E-004	1.68088E-001	8.48052E-001	3.57880E+000	9	...........
	15	0.213333	8.56274E-001	2.81865E-004	0.00000E+000	2.41354E-004	1.68088E-001	8.56643E-001	3.57880E+000	9	...........
	16	0.226667	8.64340E-001	2.81291E-004	0.00000E+000	2.43131E-004	1.68088E-001	8.64699E-001	3.57880E+000	9	...........
	17	0.24	8.71919E-001	2.80812E-004	0.00000E+000	2.44845E-004	1.68088E-001	8.72251E-001	3.57880E+000	9	...........
	18	0.253333	8.78993E-001	2.81914E-004	0.00000E+000	2.47800E-004	1.68088E-001	8.79356E-001	3.57880E+000	9	...........
	19	0.266667	8.85680E-001	2.81418E-004	0.00000E+000	2.49246E-004	1.68088E-001	8.86009E-001	3.57880E+000	9	...........
	20	0.28	8.91921E-001	2.81570E-004	0.00000E+000	2.51138E-004	1.68088E-001	8.92255E-001	3.57880E+000	9	...........
	21	0.293333	8.97834E-001	2.82547E-004	0.00000E+000	2.53681E-004	1.68088E-001	8.98158E-001	3.57880E+000	9	...........
	22	0.306667	9.03389E-001	2.81554E-004	0.00000E+000	2.54353E-004	1.68088E-001	9.03744E-001	3.57880E+000	9	...........
	23	0.32	9.08669E-001	2.82378E-004	0.00000E+000	2.56588E-004	1.68088E-001	9.09007E-001	3.57880E+000	9	...........
	24	0.333333	9.13680E-001	2.81792E-004	0.00000E+000	2.57468E-004	1.68088E-001	9.13990E-001	3.57880E+000	9	...........
	25	0.346667	9.18431E-001	2.80235E-004	0.00000E+000	2.57377E-004	1.68088E-001	9.18745E-001	3.57880E+000	9	...........
	26	0.36	9.23013E-001	2.80453E-004	0.00000E+000	2.58862E-004	1.68088E-001	9.23258E-001	3.57880E+000	9	...........
	27	0.373333	9.27274E-001	2.81637E-004	0.00000E+000	2.61154E-004	1.68088E-001	9.27550E-001	3.57880E+000	9	...........
	28	0.386667	9.31314E-001	2.80966E-004	0.00000E+000	2.61668E-004	1.68088E-001	9.31607E-001	3.57880E+000	9	...........
	29	0.4	9.35156E-001	2.80590E-004	0.00000E+000	2.62395E-004	1.68088E-001	9.35486E-001	3.57880E+000	9	...........
	30	0.413333	9.38830E-001	2.80265E-004	0.00000E+000	2.63121E-004	1.68088E-001	9.39181E-001	3.57880E+000	9	...........
	31	0.426667	9.42401E-001	2.81119E-004	0.00000E+000	2.64927E-004	1.68088E-001	9.42739E-001	3.57880E+000	9	...........
	32	0.44	9.45810E-001	2.81103E-004	0.00000E+000	2.65870E-004	1.68088E-001	9.46166E-001	3.57880E+000	9	...........
	33	0.453333	9.49090E-001	2.80997E-004	0.00000E+000	2.66691E-004	1.68088E-001	9.49426E-001	3.57880E+000	9	...........
	34	0.466667	9.52212E-001	2.81071E-004	0.00000E+000	2.67639E-004	1.68088E-001	9.52565E-001	3.57880E+000	9	...........
	35	0.48	9.55242E-001	2.81402E-004	0.00000E+000	2.68807E-004	1.68088E-001	9.55576E-001	3.57880E+000	9	...........
	36	0.493333	9.58139E-001	2.81824E-004	0.00000E+000	2.70027E-004	1.68088E-001	9.58473E-001	3.57880E+000	9	...........
	37	0.506667	9.60940E-001	2.81578E-004	0.00000E+000	2.70580E-004	1.68088E-001	9.61291E-001	3.57880E+000	9	...........
	38	0.52	9.63630E-001	2.80315E-004	0.00000E+000	2.70120E-004	1.68088E-001	9.63994E-001	3.57880E+000	9	...........
	39	0.533333	9.66220E-001	2.80458E-004	0.00000E+000	2.70984E-004	1.68088E-001	9.66563E-001	3.57880E+000	9	...........
	40	0.546667	9.68699E-001	2.80648E-004	0.00000E+000	2.71864E-004	1.68088E-001	9.69011E-001	3.57880E+000	9	...........
	41	0.56	9.71085E-001	2.82274E-004	0.00000E+000	2.74113E-004	1.68088E-001	9.71438E-001	3.57880E+000	9	...........
	42	0.573333	9.73446E-001	2.80338E-004	0.00000E+000	2.72894E-004	1.68088E-001	9.73773E-001	3.57880E+000	9	...........
	43	0.586667	9.75717E-001	2.80687E-004	0.00000E+000	2.73871E-004	1.68088E-001	9.76051E-001	3.57880E+000	9	...........
	44	0.6	9.77922E-001	2.80100E-004	0.00000E+000	2.73916E-004	1.68088E-001	9.78241E-001	3.57880E+000	9	...........
	45	0.613333	9.80056E-001	2.80155E-004	0.00000E+000	2.74568E-004	1.68088E-001	9.80341E-001	3.57880E+000	9	...........
	46	0.626667	9.82137E-001	2.81975E-004	0.00000E+000	2.76938E-004	1.68088E-001	9.82451E-001	3.57990E+000	9	...........
	47	0.64	9.84156E-001	2.80748E-004	0.00000E+000	2.76300E-004	1.68088E-001	9.84499E-001	3.58100E+000	9	...........
	48	0.653333	9.86120E-001	2.81444E-004	0.00000E+000	2.77537E-004	1.68088E-001	9.86472E-001	3.58100E+000	9	...........
	49	0.666667	9.88053E-001	2.81543E-004	0.00000E+000	2.78179E-004	1.68088E-001	9.88374E-001	3.58100E+000	9	...........
	50	0.68	9.89954E-001	2.81054E-004	0.00000E+000	2.78231E-004	1.68088E-001	9.90289E-001	3.58100E+000	9	...........
	51	0.693333	9.91783E-001	2.79897E-004	0.00000E+000	2.77597E-004	1.68088E-001	9.92095E-001	3.58100E+000	9	...........
	52	0.706667	9.93541E-001	2.81762E-004	0.00000E+000	2.79942E-004	1.68088E-001	9.93876E-001	3.58100E+000	9	...........
	53	0.72	9.95256E-001	2.80476E-004	0.00000E+000	2.79145E-004	1.68088E-001	9.95584E-001	3.58100E+000	9	...........
	54	0.733333	9.96916E-001	2.81661E-004	0.00000E+000	2.80792E-004	1.68088E-001	9.97297E-001	3.58100E+000	9	...........
	55	0.746667	9.98602E-001	2.81104E-004	0.00000E+000	2.80711E-004	1.68088E-001	9.98960E-001	3.58100E+000	9	...........
	56	0.753333	9.99821E-001	2.81159E-004	0.00000E+000	2.81108E-004	1.68088E-001	1.00018E+000	3.58100E+000	9	...........
STARTTIMEOFFSET	QUANT	2095.287	Start Time Offset (s)
