EXPLAIN
TAG	PWR800_CHARGE
TITLE	LABEL	PWR Cyclic Charge Discharge (Cell) - Charge Step	Test &Identifier
DATE	LABEL	7-7-2017	Date
TIME	LABEL	16:00:08	Time
NOTES	NOTES	3	&Notes...
	supercap test cell
	2.8mg
	6M KOH
PSTAT	PSTAT	IFC5000-01520	Potentiostat
CAPACITY	QUANT	1.00000E-003	Capacity (A-hr)
CELLTYPE	SELECTOR	1	&Cell Type
WORKINGCONNECTION	SELECTOR	0	&Working Lead
MAXCHARGETIME	VARIABLEANDUNITS	1.00000E+002	s	1.00000E+002	second(s)	Max &Charge Time
CHARGECURRENT	QUANT	2.80000E-004	&Charge Current (A) 
VOLTAGEFINISH	TWOPARAM	F	1.00000E-003	3.60000E+003	&Voltage Finish	 I (A) < 	Max Time(s)
SAMPLETIME	QUANT	1.00000E-002	Sa&mple Period (s)
CHARGESTOPAT1	MULTIPARAM	4	1.00000E+000	Charge Stop At &1	Voltage > Limit	V
CHARGESTOPAT2	MULTIPARAM	0	0.00000E+000	Charge Stop At &2	None	N/A
AESBHCSELECTOR	TOGGLE	F	Save Both Half Cells
IRCOMP	TOGGLE	F	IR &Measure
EOC	QUANT	0	Open Circuit (V)
SEQUENCER	TOGGLE	TRUE	Run as Sequence
PSTATMODEL	IQUANT	53	Pstat Model
PSTATSECTION	LABEL	IFC5000-01520	Pstat Section
PSTATSERIALNO	LABEL	01520	Pstat Serial Number
CTRLMODE	IQUANT	0	Control Mode
ELECTROMETER	IQUANT	1	RE=0 or CS=1
IESTAB	IQUANT	0	I/E Stability
CASPEED	IQUANT	4	Control Amp Speed
CONVENTION	IQUANT	1	Current Convention
ICHRANGE	IQUANT	2	Ich Range
ICHRANGEMODE	TOGGLE	T	Ich Auto Range
ICHOFFSETENABLE	TOGGLE	F	Ich Offset Enable
ICHOFFSET	QUANT	0	Ich Offset (V)
ICHFILTER	IQUANT	1	Ich Filter
VCHRANGE	IQUANT	2	Vch Range
VCHRANGEMODE	TOGGLE	T	Vch Auto Range
VCHOFFSETENABLE	TOGGLE	F	Vch Offset Enable
VCHOFFSET	QUANT	0	Vch Offset (V)
VCHFILTER	IQUANT	1	Vch Filter
IERANGELOWERLIMIT	IQUANT	9	I/E Range Lower Limit
IERANGEMODE	TOGGLE	F	I/E AutoRange
IERANGE	IQUANT	9	I/E Range
ACHSELECT	IQUANT	1	Ach Select
ACHRANGE	IQUANT	2	Ach Range
ACHOFFSETENABLE	TOGGLE	F	Ach Offset Enable
ACHOFFSET	QUANT	0	Ach Offset (V)
ACHFILTER	IQUANT	1	Ach Filter
CABLEID	IQUANT	14	Cable ID
DCCALDATE	LABEL	5-7-2017	DC Calibration Date
ACCALDATE	LABEL	12/3/2015	AC Calibration Date
FRAMEWORKVERSION	QUANT	7.01	Framework Version
INSTRUMENTVERSION	LABEL	4.00	Instrument Version
CURVE	TABLE	79
	Pt	T	Vf	Im	Vu	Pwr	Sig	Ach	Temp	IERange	Over
	#	s	V	A	V	W	V	V	deg C	#	bits
	0	0.013333	6.20394E-001	2.82176E-004	0.00000E+000	1.75061E-004	1.68088E-001	6.20667E-001	3.57850E+000	9	...........
	1	0.026667	6.48589E-001	2.81060E-004	0.00000E+000	1.82292E-004	1.68088E-001	6.48829E-001	3.57850E+000	9	...........
	2	0.04	6.72514E-001	2.82745E-004	0.00000E+000	1.90150E-004	1.68088E-001	6.72740E-001	3.57850E+000	9	...........
	3	0.053333	6.93246E-001	2.81647E-004	0.00000E+000	1.95251E-004	1.68088E-001	6.93515E-001	3.57850E+000	9	...........
	4	0.066667	7.11611E-001	2.81000E-004	0.00000E+000	1.99963E-004	1.68088E-001	7.11896E-001	3.57850E+000	9	...........
	5	0.08	7.28124E-001	2.80389E-004	0.00000E+000	2.04158E-004	1.68088E-001	7.28405E-001	3.57850E+000	9	...........
	6	0.093333	7.43050E-001	2.81584E-004	0.00000E+000	2.09231E-004	1.68088E-001	7.43344E-001	3.57850E+000	9	...........
	7	0.106667	7.56661E-001	2.80816E-004	0.00000E+000	2.12482E-004	1.68088E-001	7.56950E-001	3.57850E+000	9	...........
	8	0.12	7.69136E-001	2.81178E-004	0.00000E+000	2.16264E-004	1.68088E-001	7.69440E-001	3.57850E+000	9	...........
	9	0.133333	7.80626E-001	2.81720E-004	0.00000E+000	2.19918E-004	1.68088E-001	7.80956E-001	3.57850E+000	9	...........
	10	0.146667	7.91239E-001	2.81657E-004	0.00000E+000	2.22858E-004	1.68088E-001	7.91531E-001	3.57850E+000	9	...........
	11	0.16	8.01048E-001	2.81337E-004	0.00000E+000	2.25364E-004	1.68088E-001	8.01353E-001	3.57850E+000	9	...........
	12	0.173333	8.10230E-001	2.81715E-004	0.00000E+000	2.28254E-004	1.68088E-001	8.10532E-001	3.57850E+000	9	...........
	13	0.186667	8.18775E-001	2.82051E-004	0.00000E+000	2.30937E-004	1.68088E-001	8.19096E-001	3.57850E+000	9	...........
	14	0.2	8.26782E-001	2.80730E-004	0.00000E+000	2.32103E-004	1.68088E-001	8.27090E-001	3.57850E+000	9	...........
	15	0.213333	8.34255E-001	2.83060E-004	0.00000E+000	2.36144E-004	1.68088E-001	8.34598E-001	3.57850E+000	9	...........
	16	0.226667	8.41295E-001	2.81843E-004	0.00000E+000	2.37113E-004	1.68088E-001	8.41651E-001	3.57850E+000	9	...........
	17	0.24	8.47956E-001	2.82582E-004	0.00000E+000	2.39617E-004	1.68088E-001	8.48321E-001	3.57850E+000	9	...........
	18	0.253333	8.54215E-001	2.82288E-004	0.00000E+000	2.41135E-004	1.68088E-001	8.54559E-001	3.57850E+000	9	...........
	19	0.266667	8.60103E-001	2.81711E-004	0.00000E+000	2.42300E-004	1.68088E-001	8.60458E-001	3.57850E+000	9	...........
	20	0.28	8.65660E-001	2.81376E-004	0.00000E+000	2.43576E-004	1.68088E-001	8.66014E-001	3.57850E+000	9	...........
	21	0.293333	8.70983E-001	2.80718E-004	0.00000E+000	2.44501E-004	1.68088E-001	8.71339E-001	3.57850E+000	9	...........
	22	0.306667	8.75999E-001	2.81303E-004	0.00000E+000	2.46421E-004	1.68088E-001	8.76328E-001	3.57850E+000	9	...........
	23	0.32	8.80749E-001	2.80359E-004	0.00000E+000	2.46926E-004	1.68088E-001	8.81082E-001	3.57850E+000	9	...........
	24	0.333333	8.85301E-001	2.79891E-004	0.00000E+000	2.47787E-004	1.68088E-001	8.85618E-001	3.57850E+000	9	...........
	25	0.346667	8.89649E-001	2.81152E-004	0.00000E+000	2.50127E-004	1.68088E-001	8.89946E-001	3.57850E+000	9	...........
	26	0.36	8.93755E-001	2.80043E-004	0.00000E+000	2.50290E-004	1.68088E-001	8.94073E-001	3.57850E+000	9	...........
	27	0.373333	8.97718E-001	2.80911E-004	0.00000E+000	2.52179E-004	1.68088E-001	8.98064E-001	3.57850E+000	9	...........
	28	0.386667	9.01498E-001	2.80268E-004	0.00000E+000	2.52661E-004	1.68088E-001	9.01839E-001	3.57850E+000	9	...........
	29	0.4	9.05116E-001	2.81118E-004	0.00000E+000	2.54444E-004	1.68088E-001	9.05480E-001	3.57850E+000	9	...........
	30	0.413333	9.08646E-001	2.79821E-004	0.00000E+000	2.54258E-004	1.68088E-001	9.08994E-001	3.57850E+000	9	...........
	31	0.426667	9.11960E-001	2.81246E-004	0.00000E+000	2.56485E-004	1.68088E-001	9.12317E-001	3.57850E+000	9	...........
	32	0.44	9.15185E-001	2.80602E-004	0.00000E+000	2.56803E-004	1.68088E-001	9.15558E-001	3.57893E+000	9	...........
	33	0.453333	9.18291E-001	2.81317E-004	0.00000E+000	2.58331E-004	1.68088E-001	9.18688E-001	3.58190E+000	9	...........
	34	0.466667	9.21357E-001	2.81160E-004	0.00000E+000	2.59048E-004	1.68088E-001	9.21692E-001	3.58190E+000	9	...........
	35	0.48	9.24271E-001	2.80332E-004	0.00000E+000	2.59103E-004	1.68088E-001	9.24580E-001	3.58190E+000	9	...........
	36	0.493333	9.27079E-001	2.81397E-004	0.00000E+000	2.60877E-004	1.68088E-001	9.27400E-001	3.58190E+000	9	...........
	37	0.506667	9.29773E-001	2.80677E-004	0.00000E+000	2.60966E-004	1.68088E-001	9.30067E-001	3.58190E+000	9	...........
	38	0.52	9.32397E-001	2.81224E-004	0.00000E+000	2.62213E-004	1.68088E-001	9.32705E-001	3.58190E+000	9	...........
	39	0.533333	9.34932E-001	2.81946E-004	0.00000E+000	2.63601E-004	1.68088E-001	9.35218E-001	3.58190E+000	9	...........
	40	0.546667	9.37369E-001	2.80491E-004	0.00000E+000	2.62923E-004	1.68088E-001	9.37647E-001	3.58190E+000	9	...........
	41	0.56	9.39769E-001	2.81143E-004	0.00000E+000	2.64209E-004	1.68088E-001	9.40045E-001	3.58190E+000	9	...........
	42	0.573333	9.42105E-001	2.80783E-004	0.00000E+000	2.64527E-004	1.68088E-001	9.42393E-001	3.58190E+000	9	...........
	43	0.586667	9.44343E-001	2.82018E-004	0.00000E+000	2.66322E-004	1.68088E-001	9.44663E-001	3.58190E+000	9	...........
	44	0.6	9.46537E-001	2.80235E-004	0.00000E+000	2.65253E-004	1.68088E-001	9.46889E-001	3.58190E+000	9	...........
	45	0.613333	9.48658E-001	2.81831E-004	0.00000E+000	2.67361E-004	1.68088E-001	9.48985E-001	3.58190E+000	9	...........
	46	0.626667	9.50728E-001	2.81238E-004	0.00000E+000	2.67381E-004	1.68088E-001	9.51069E-001	3.58190E+000	9	...........
	47	0.64	9.52751E-001	2.81666E-004	0.00000E+000	2.68358E-004	1.68088E-001	9.53079E-001	3.58190E+000	9	...........
	48	0.653333	9.54717E-001	2.80670E-004	0.00000E+000	2.67960E-004	1.68088E-001	9.55055E-001	3.58190E+000	9	...........
	49	0.666667	9.56646E-001	2.80562E-004	0.00000E+000	2.68398E-004	1.68088E-001	9.56998E-001	3.58190E+000	9	...........
	50	0.68	9.58543E-001	2.81416E-004	0.00000E+000	2.69749E-004	1.68088E-001	9.58910E-001	3.58190E+000	9	...........
	51	0.693333	9.60433E-001	2.81548E-004	0.00000E+000	2.70408E-004	1.68088E-001	9.60779E-001	3.58190E+000	9	...........
	52	0.706667	9.62262E-001	2.82061E-004	0.00000E+000	2.71416E-004	1.68088E-001	9.62616E-001	3.58190E+000	9	...........
	53	0.72	9.64022E-001	2.81388E-004	0.00000E+000	2.71264E-004	1.68088E-001	9.64395E-001	3.58190E+000	9	...........
	54	0.733333	9.65758E-001	2.81378E-004	0.00000E+000	2.71744E-004	1.68088E-001	9.66126E-001	3.58190E+000	9	...........
	55	0.746667	9.67485E-001	2.81492E-004	0.00000E+000	2.72339E-004	1.68088E-001	9.67849E-001	3.58190E+000	9	...........
	56	0.76	9.69158E-001	2.80812E-004	0.00000E+000	2.72151E-004	1.68088E-001	9.69570E-001	3.58190E+000	9	...........
	57	0.773333	9.70789E-001	2.80887E-004	0.00000E+000	2.72682E-004	1.68088E-001	9.71221E-001	3.58190E+000	9	...........
	58	0.786667	9.72460E-001	2.80621E-004	0.00000E+000	2.72893E-004	1.68088E-001	9.72872E-001	3.58190E+000	9	...........
	59	0.8	9.74044E-001	2.81660E-004	0.00000E+000	2.74349E-004	1.68088E-001	9.74444E-001	3.58190E+000	9	...........
	60	0.813333	9.75580E-001	2.80194E-004	0.00000E+000	2.73351E-004	1.68088E-001	9.75985E-001	3.58190E+000	9	...........
	61	0.826667	9.77100E-001	2.82048E-004	0.00000E+000	2.75589E-004	1.68088E-001	9.77506E-001	3.58190E+000	9	...........
	62	0.84	9.78583E-001	2.80630E-004	0.00000E+000	2.74620E-004	1.68088E-001	9.78975E-001	3.58190E+000	9	...........
	63	0.853333	9.80067E-001	2.80519E-004	0.00000E+000	2.74927E-004	1.68088E-001	9.80449E-001	3.58190E+000	9	...........
	64	0.866667	9.81522E-001	2.81390E-004	0.00000E+000	2.76190E-004	1.68088E-001	9.81902E-001	3.58190E+000	9	...........
	65	0.88	9.82948E-001	2.80601E-004	0.00000E+000	2.75816E-004	1.68088E-001	9.83349E-001	3.58190E+000	9	...........
	66	0.893333	9.84381E-001	2.81267E-004	0.00000E+000	2.76874E-004	1.68088E-001	9.84792E-001	3.58190E+000	9	...........
	67	0.906667	9.85800E-001	2.80967E-004	0.00000E+000	2.76977E-004	1.68088E-001	9.86207E-001	3.58190E+000	9	...........
	68	0.92	9.87180E-001	2.82785E-004	0.00000E+000	2.79160E-004	1.68088E-001	9.87574E-001	3.58190E+000	9	...........
	69	0.933333	9.88518E-001	2.81405E-004	0.00000E+000	2.78174E-004	1.68088E-001	9.88914E-001	3.58190E+000	9	...........
	70	0.946667	9.89891E-001	2.82463E-004	0.00000E+000	2.79608E-004	1.68088E-001	9.90256E-001	3.58190E+000	9	...........
	71	0.96	9.91180E-001	2.80911E-004	0.00000E+000	2.78433E-004	1.68088E-001	9.91562E-001	3.58190E+000	9	...........
	72	0.97333	9.92447E-001	2.81747E-004	0.00000E+000	2.79619E-004	1.68088E-001	9.92820E-001	3.58190E+000	9	...........
	73	0.98667	9.93737E-001	2.81472E-004	0.00000E+000	2.79709E-004	1.68088E-001	9.94096E-001	3.58190E+000	9	...........
	74	1	9.95049E-001	2.80465E-004	0.00000E+000	2.79076E-004	1.68088E-001	9.95367E-001	3.58190E+000	9	...........
	75	1.01333	9.96311E-001	2.80571E-004	0.00000E+000	2.79536E-004	1.68088E-001	9.96645E-001	3.58190E+000	9	...........
	76	1.02667	9.97545E-001	2.81121E-004	0.00000E+000	2.80431E-004	1.68088E-001	9.97900E-001	3.58190E+000	9	...........
	77	1.04	9.98768E-001	2.81215E-004	0.00000E+000	2.80868E-004	1.68088E-001	9.99135E-001	3.58190E+000	9	...........
	78	1.04833	9.99772E-001	2.79904E-004	0.00000E+000	2.79840E-004	1.68088E-001	1.00011E+000	3.58190E+000	9	...........
STARTTIMEOFFSET	QUANT	1114.997	Start Time Offset (s)
