EXPLAIN
TAG	PWR800_CHARGE
TITLE	LABEL	PWR Cyclic Charge Discharge (Cell) - Charge Step	Test &Identifier
DATE	LABEL	7-7-2017	Date
TIME	LABEL	16:14:37	Time
NOTES	NOTES	3	&Notes...
	supercap test cell
	2.8mg
	6M KOH
PSTAT	PSTAT	IFC5000-01520	Potentiostat
CAPACITY	QUANT	1.00000E-003	Capacity (A-hr)
CELLTYPE	SELECTOR	1	&Cell Type
WORKINGCONNECTION	SELECTOR	0	&Working Lead
MAXCHARGETIME	VARIABLEANDUNITS	1.00000E+002	s	1.00000E+002	second(s)	Max &Charge Time
CHARGECURRENT	QUANT	2.80000E-004	&Charge Current (A) 
VOLTAGEFINISH	TWOPARAM	F	1.00000E-003	3.60000E+003	&Voltage Finish	 I (A) < 	Max Time(s)
SAMPLETIME	QUANT	1.00000E-002	Sa&mple Period (s)
CHARGESTOPAT1	MULTIPARAM	4	1.00000E+000	Charge Stop At &1	Voltage > Limit	V
CHARGESTOPAT2	MULTIPARAM	0	0.00000E+000	Charge Stop At &2	None	N/A
AESBHCSELECTOR	TOGGLE	F	Save Both Half Cells
IRCOMP	TOGGLE	F	IR &Measure
EOC	QUANT	0	Open Circuit (V)
SEQUENCER	TOGGLE	TRUE	Run as Sequence
PSTATMODEL	IQUANT	53	Pstat Model
PSTATSECTION	LABEL	IFC5000-01520	Pstat Section
PSTATSERIALNO	LABEL	01520	Pstat Serial Number
CTRLMODE	IQUANT	0	Control Mode
ELECTROMETER	IQUANT	1	RE=0 or CS=1
IESTAB	IQUANT	0	I/E Stability
CASPEED	IQUANT	4	Control Amp Speed
CONVENTION	IQUANT	1	Current Convention
ICHRANGE	IQUANT	2	Ich Range
ICHRANGEMODE	TOGGLE	T	Ich Auto Range
ICHOFFSETENABLE	TOGGLE	F	Ich Offset Enable
ICHOFFSET	QUANT	0	Ich Offset (V)
ICHFILTER	IQUANT	1	Ich Filter
VCHRANGE	IQUANT	2	Vch Range
VCHRANGEMODE	TOGGLE	T	Vch Auto Range
VCHOFFSETENABLE	TOGGLE	F	Vch Offset Enable
VCHOFFSET	QUANT	0	Vch Offset (V)
VCHFILTER	IQUANT	1	Vch Filter
IERANGELOWERLIMIT	IQUANT	9	I/E Range Lower Limit
IERANGEMODE	TOGGLE	F	I/E AutoRange
IERANGE	IQUANT	9	I/E Range
ACHSELECT	IQUANT	1	Ach Select
ACHRANGE	IQUANT	2	Ach Range
ACHOFFSETENABLE	TOGGLE	F	Ach Offset Enable
ACHOFFSET	QUANT	0	Ach Offset (V)
ACHFILTER	IQUANT	1	Ach Filter
CABLEID	IQUANT	14	Cable ID
DCCALDATE	LABEL	5-7-2017	DC Calibration Date
ACCALDATE	LABEL	12/3/2015	AC Calibration Date
FRAMEWORKVERSION	QUANT	7.01	Framework Version
INSTRUMENTVERSION	LABEL	4.00	Instrument Version
CURVE	TABLE	64
	Pt	T	Vf	Im	Vu	Pwr	Sig	Ach	Temp	IERange	Over
	#	s	V	A	V	W	V	V	deg C	#	bits
	0	0.013333	6.08836E-001	2.80360E-004	0.00000E+000	1.70694E-004	1.68088E-001	6.09127E-001	3.57730E+000	9	...........
	1	0.026667	6.38868E-001	2.80536E-004	0.00000E+000	1.79225E-004	1.68088E-001	6.39142E-001	3.57730E+000	9	...........
	2	0.04	6.64657E-001	2.81267E-004	0.00000E+000	1.86946E-004	1.68088E-001	6.64952E-001	3.57730E+000	9	...........
	3	0.053333	6.87315E-001	2.80757E-004	0.00000E+000	1.92969E-004	1.68088E-001	6.87579E-001	3.57730E+000	9	...........
	4	0.066667	7.07558E-001	2.81191E-004	0.00000E+000	1.98959E-004	1.68088E-001	7.07834E-001	3.57730E+000	9	...........
	5	0.08	7.25878E-001	2.81398E-004	0.00000E+000	2.04261E-004	1.68088E-001	7.26124E-001	3.57730E+000	9	...........
	6	0.093333	7.42446E-001	2.80558E-004	0.00000E+000	2.08299E-004	1.68088E-001	7.42736E-001	3.57730E+000	9	...........
	7	0.106667	7.57668E-001	2.81727E-004	0.00000E+000	2.13456E-004	1.68088E-001	7.57934E-001	3.57730E+000	9	...........
	8	0.12	7.71643E-001	2.81541E-004	0.00000E+000	2.17249E-004	1.68088E-001	7.71926E-001	3.57730E+000	9	...........
	9	0.133333	7.84530E-001	2.82207E-004	0.00000E+000	2.21400E-004	1.68088E-001	7.84795E-001	3.57730E+000	9	...........
	10	0.146667	7.96475E-001	2.83218E-004	0.00000E+000	2.25576E-004	1.68088E-001	7.96758E-001	3.57730E+000	9	...........
	11	0.16	8.07536E-001	2.81731E-004	0.00000E+000	2.27508E-004	1.68088E-001	8.07838E-001	3.57730E+000	9	...........
	12	0.173333	8.17837E-001	2.80994E-004	0.00000E+000	2.29807E-004	1.68088E-001	8.18160E-001	3.57730E+000	9	...........
	13	0.186667	8.27437E-001	2.80098E-004	0.00000E+000	2.31763E-004	1.68088E-001	8.27762E-001	3.57730E+000	9	...........
	14	0.2	8.36391E-001	2.81718E-004	0.00000E+000	2.35626E-004	1.68088E-001	8.36720E-001	3.57730E+000	9	...........
	15	0.213333	8.44805E-001	2.80702E-004	0.00000E+000	2.37139E-004	1.68088E-001	8.45141E-001	3.57730E+000	9	...........
	16	0.226667	8.52704E-001	2.81397E-004	0.00000E+000	2.39949E-004	1.68088E-001	8.53019E-001	3.57730E+000	9	...........
	17	0.24	8.60108E-001	2.82602E-004	0.00000E+000	2.43068E-004	1.68088E-001	8.60451E-001	3.57730E+000	9	...........
	18	0.253333	8.67084E-001	2.80667E-004	0.00000E+000	2.43362E-004	1.68088E-001	8.67399E-001	3.57730E+000	9	...........
	19	0.266667	8.73627E-001	2.80823E-004	0.00000E+000	2.45335E-004	1.68088E-001	8.73956E-001	3.57730E+000	9	...........
	20	0.28	8.79793E-001	2.82258E-004	0.00000E+000	2.48328E-004	1.68088E-001	8.80121E-001	3.57730E+000	9	...........
	21	0.293333	8.85625E-001	2.80995E-004	0.00000E+000	2.48856E-004	1.68088E-001	8.85960E-001	3.57730E+000	9	...........
	22	0.306667	8.91157E-001	2.80075E-004	0.00000E+000	2.49591E-004	1.68088E-001	8.91472E-001	3.57730E+000	9	...........
	23	0.32	8.96392E-001	2.80496E-004	0.00000E+000	2.51434E-004	1.68088E-001	8.96728E-001	3.57744E+000	9	...........
	24	0.333333	9.01367E-001	2.80211E-004	0.00000E+000	2.52573E-004	1.68088E-001	9.01690E-001	3.57840E+000	9	...........
	25	0.346667	9.06074E-001	2.79788E-004	0.00000E+000	2.53509E-004	1.68088E-001	9.06402E-001	3.57840E+000	9	...........
	26	0.36	9.10563E-001	2.81096E-004	0.00000E+000	2.55956E-004	1.68088E-001	9.10887E-001	3.57840E+000	9	...........
	27	0.373333	9.14808E-001	2.81037E-004	0.00000E+000	2.57095E-004	1.68088E-001	9.15139E-001	3.57840E+000	9	...........
	28	0.386667	9.18855E-001	2.81468E-004	0.00000E+000	2.58628E-004	1.68088E-001	9.19238E-001	3.57840E+000	9	...........
	29	0.4	9.22835E-001	2.80371E-004	0.00000E+000	2.58736E-004	1.68088E-001	9.23138E-001	3.57840E+000	9	...........
	30	0.413333	9.26520E-001	2.81003E-004	0.00000E+000	2.60355E-004	1.68088E-001	9.26848E-001	3.57840E+000	9	...........
	31	0.426667	9.30069E-001	2.80231E-004	0.00000E+000	2.60634E-004	1.68088E-001	9.30387E-001	3.57840E+000	9	...........
	32	0.44	9.33471E-001	2.82442E-004	0.00000E+000	2.63652E-004	1.68088E-001	9.33818E-001	3.57840E+000	9	...........
	33	0.453333	9.36773E-001	2.81018E-004	0.00000E+000	2.63250E-004	1.68088E-001	9.37114E-001	3.57840E+000	9	...........
	34	0.466667	9.39870E-001	2.80825E-004	0.00000E+000	2.63939E-004	1.68088E-001	9.40220E-001	3.57840E+000	9	...........
	35	0.48	9.42867E-001	2.80707E-004	0.00000E+000	2.64670E-004	1.68088E-001	9.43193E-001	3.57840E+000	9	...........
	36	0.493333	9.45767E-001	2.81683E-004	0.00000E+000	2.66406E-004	1.68088E-001	9.46083E-001	3.57840E+000	9	...........
	37	0.506667	9.48585E-001	2.81745E-004	0.00000E+000	2.67259E-004	1.68088E-001	9.48870E-001	3.57840E+000	9	...........
	38	0.52	9.51264E-001	2.81275E-004	0.00000E+000	2.67567E-004	1.68088E-001	9.51566E-001	3.57840E+000	9	...........
	39	0.533333	9.53914E-001	2.80781E-004	0.00000E+000	2.67841E-004	1.68088E-001	9.54198E-001	3.57840E+000	9	...........
	40	0.546667	9.56434E-001	2.81471E-004	0.00000E+000	2.69208E-004	1.68088E-001	9.56735E-001	3.57840E+000	9	...........
	41	0.56	9.58858E-001	2.81283E-004	0.00000E+000	2.69710E-004	1.68088E-001	9.59138E-001	3.57840E+000	9	...........
	42	0.573333	9.61208E-001	2.80222E-004	0.00000E+000	2.69351E-004	1.68088E-001	9.61505E-001	3.57840E+000	9	...........
	43	0.586667	9.63506E-001	2.81355E-004	0.00000E+000	2.71088E-004	1.68088E-001	9.63813E-001	3.57840E+000	9	...........
	44	0.6	9.65727E-001	2.80205E-004	0.00000E+000	2.70602E-004	1.68088E-001	9.66029E-001	3.57840E+000	9	...........
	45	0.613333	9.67893E-001	2.81624E-004	0.00000E+000	2.72582E-004	1.68088E-001	9.68195E-001	3.57840E+000	9	...........
	46	0.626667	9.70001E-001	2.81668E-004	0.00000E+000	2.73218E-004	1.68088E-001	9.70351E-001	3.57840E+000	9	...........
	47	0.64	9.72103E-001	2.81105E-004	0.00000E+000	2.73263E-004	1.68088E-001	9.72456E-001	3.57840E+000	9	...........
	48	0.653333	9.74176E-001	2.81264E-004	0.00000E+000	2.74001E-004	1.68088E-001	9.74474E-001	3.57840E+000	9	...........
	49	0.666667	9.76111E-001	2.81181E-004	0.00000E+000	2.74464E-004	1.68088E-001	9.76406E-001	3.57840E+000	9	...........
	50	0.68	9.78015E-001	2.82018E-004	0.00000E+000	2.75818E-004	1.68088E-001	9.78334E-001	3.57840E+000	9	...........
	51	0.693333	9.79872E-001	2.80369E-004	0.00000E+000	2.74726E-004	1.68088E-001	9.80179E-001	3.57840E+000	9	...........
	52	0.706667	9.81692E-001	2.83183E-004	0.00000E+000	2.77998E-004	1.68088E-001	9.81987E-001	3.57840E+000	9	...........
	53	0.72	9.83455E-001	2.81048E-004	0.00000E+000	2.76398E-004	1.68088E-001	9.83789E-001	3.57840E+000	9	...........
	54	0.733333	9.85202E-001	2.81696E-004	0.00000E+000	2.77528E-004	1.68088E-001	9.85539E-001	3.57840E+000	9	...........
	55	0.746667	9.86881E-001	2.81639E-004	0.00000E+000	2.77944E-004	1.68088E-001	9.87259E-001	3.57840E+000	9	...........
	56	0.76	9.88598E-001	2.79669E-004	0.00000E+000	2.76480E-004	1.68088E-001	9.88962E-001	3.57840E+000	9	...........
	57	0.773333	9.90221E-001	2.81881E-004	0.00000E+000	2.79124E-004	1.68088E-001	9.90571E-001	3.57840E+000	9	...........
	58	0.786667	9.91790E-001	2.80495E-004	0.00000E+000	2.78192E-004	1.68088E-001	9.92160E-001	3.57840E+000	9	...........
	59	0.8	9.93414E-001	2.81300E-004	0.00000E+000	2.79448E-004	1.68088E-001	9.93762E-001	3.57840E+000	9	...........
	60	0.813333	9.94954E-001	2.82132E-004	0.00000E+000	2.80708E-004	1.68088E-001	9.95279E-001	3.57840E+000	9	...........
	61	0.826667	9.96478E-001	2.79492E-004	0.00000E+000	2.78507E-004	1.68088E-001	9.96844E-001	3.57840E+000	9	...........
	62	0.84	9.97982E-001	2.81706E-004	0.00000E+000	2.81137E-004	1.68088E-001	9.98360E-001	3.57840E+000	9	...........
	63	0.853333	9.99457E-001	2.81277E-004	0.00000E+000	2.81125E-004	1.68088E-001	9.99821E-001	3.57840E+000	9	...........
STARTTIMEOFFSET	QUANT	1709.535	Start Time Offset (s)
