EXPLAIN
TAG	PWR800_CHARGE
TITLE	LABEL	PWR Cyclic Charge Discharge (Cell) - Charge Step	Test &Identifier
DATE	LABEL	7-7-2017	Date
TIME	LABEL	16:13:09	Time
NOTES	NOTES	3	&Notes...
	supercap test cell
	2.8mg
	6M KOH
PSTAT	PSTAT	IFC5000-01520	Potentiostat
CAPACITY	QUANT	1.00000E-003	Capacity (A-hr)
CELLTYPE	SELECTOR	1	&Cell Type
WORKINGCONNECTION	SELECTOR	0	&Working Lead
MAXCHARGETIME	VARIABLEANDUNITS	1.00000E+002	s	1.00000E+002	second(s)	Max &Charge Time
CHARGECURRENT	QUANT	2.80000E-004	&Charge Current (A) 
VOLTAGEFINISH	TWOPARAM	F	1.00000E-003	3.60000E+003	&Voltage Finish	 I (A) < 	Max Time(s)
SAMPLETIME	QUANT	1.00000E-002	Sa&mple Period (s)
CHARGESTOPAT1	MULTIPARAM	4	1.00000E+000	Charge Stop At &1	Voltage > Limit	V
CHARGESTOPAT2	MULTIPARAM	0	0.00000E+000	Charge Stop At &2	None	N/A
AESBHCSELECTOR	TOGGLE	F	Save Both Half Cells
IRCOMP	TOGGLE	F	IR &Measure
EOC	QUANT	0	Open Circuit (V)
SEQUENCER	TOGGLE	TRUE	Run as Sequence
PSTATMODEL	IQUANT	53	Pstat Model
PSTATSECTION	LABEL	IFC5000-01520	Pstat Section
PSTATSERIALNO	LABEL	01520	Pstat Serial Number
CTRLMODE	IQUANT	0	Control Mode
ELECTROMETER	IQUANT	1	RE=0 or CS=1
IESTAB	IQUANT	0	I/E Stability
CASPEED	IQUANT	4	Control Amp Speed
CONVENTION	IQUANT	1	Current Convention
ICHRANGE	IQUANT	2	Ich Range
ICHRANGEMODE	TOGGLE	T	Ich Auto Range
ICHOFFSETENABLE	TOGGLE	F	Ich Offset Enable
ICHOFFSET	QUANT	0	Ich Offset (V)
ICHFILTER	IQUANT	1	Ich Filter
VCHRANGE	IQUANT	2	Vch Range
VCHRANGEMODE	TOGGLE	T	Vch Auto Range
VCHOFFSETENABLE	TOGGLE	F	Vch Offset Enable
VCHOFFSET	QUANT	0	Vch Offset (V)
VCHFILTER	IQUANT	1	Vch Filter
IERANGELOWERLIMIT	IQUANT	9	I/E Range Lower Limit
IERANGEMODE	TOGGLE	F	I/E AutoRange
IERANGE	IQUANT	9	I/E Range
ACHSELECT	IQUANT	1	Ach Select
ACHRANGE	IQUANT	2	Ach Range
ACHOFFSETENABLE	TOGGLE	F	Ach Offset Enable
ACHOFFSET	QUANT	0	Ach Offset (V)
ACHFILTER	IQUANT	1	Ach Filter
CABLEID	IQUANT	14	Cable ID
DCCALDATE	LABEL	5-7-2017	DC Calibration Date
ACCALDATE	LABEL	12/3/2015	AC Calibration Date
FRAMEWORKVERSION	QUANT	7.01	Framework Version
INSTRUMENTVERSION	LABEL	4.00	Instrument Version
CURVE	TABLE	66
	Pt	T	Vf	Im	Vu	Pwr	Sig	Ach	Temp	IERange	Over
	#	s	V	A	V	W	V	V	deg C	#	bits
	0	0.013333	6.12502E-001	2.80791E-004	0.00000E+000	1.71985E-004	1.68088E-001	6.12774E-001	3.57870E+000	9	...........
	1	0.026667	6.42051E-001	2.81387E-004	0.00000E+000	1.80665E-004	1.68088E-001	6.42344E-001	3.57870E+000	9	...........
	2	0.04	6.67407E-001	2.81696E-004	0.00000E+000	1.88006E-004	1.68088E-001	6.67688E-001	3.57870E+000	9	...........
	3	0.053333	6.89630E-001	2.80829E-004	0.00000E+000	1.93668E-004	1.68088E-001	6.89912E-001	3.57870E+000	9	...........
	4	0.066667	7.09504E-001	2.80928E-004	0.00000E+000	1.99320E-004	1.68088E-001	7.09783E-001	3.57870E+000	9	...........
	5	0.08	7.27430E-001	2.80472E-004	0.00000E+000	2.04024E-004	1.68088E-001	7.27704E-001	3.57870E+000	9	...........
	6	0.093333	7.43700E-001	2.80167E-004	0.00000E+000	2.08360E-004	1.68088E-001	7.44004E-001	3.57870E+000	9	...........
	7	0.106667	7.58599E-001	2.81742E-004	0.00000E+000	2.13729E-004	1.68088E-001	7.58904E-001	3.57870E+000	9	...........
	8	0.12	7.72296E-001	2.81737E-004	0.00000E+000	2.17584E-004	1.68088E-001	7.72605E-001	3.57870E+000	9	...........
	9	0.133333	7.84914E-001	2.81110E-004	0.00000E+000	2.20647E-004	1.68088E-001	7.85236E-001	3.57870E+000	9	...........
	10	0.146667	7.96625E-001	2.82115E-004	0.00000E+000	2.24740E-004	1.68088E-001	7.96937E-001	3.57870E+000	9	...........
	11	0.16	8.07477E-001	2.80012E-004	0.00000E+000	2.26104E-004	1.68088E-001	8.07796E-001	3.57870E+000	9	...........
	12	0.173333	8.17569E-001	2.81830E-004	0.00000E+000	2.30415E-004	1.68088E-001	8.17910E-001	3.57870E+000	9	...........
	13	0.186667	8.26985E-001	2.81766E-004	0.00000E+000	2.33016E-004	1.68088E-001	8.27316E-001	3.57870E+000	9	...........
	14	0.2	8.35770E-001	2.81268E-004	0.00000E+000	2.35075E-004	1.68088E-001	8.36128E-001	3.57870E+000	9	...........
	15	0.213333	8.43997E-001	2.80424E-004	0.00000E+000	2.36677E-004	1.68088E-001	8.44371E-001	3.57870E+000	9	...........
	16	0.226667	8.51758E-001	2.80919E-004	0.00000E+000	2.39275E-004	1.68088E-001	8.52118E-001	3.57870E+000	9	...........
	17	0.24	8.59026E-001	2.81877E-004	0.00000E+000	2.42140E-004	1.68088E-001	8.59411E-001	3.57870E+000	9	...........
	18	0.253333	8.65824E-001	2.81541E-004	0.00000E+000	2.43765E-004	1.68088E-001	8.66229E-001	3.57870E+000	9	...........
	19	0.266667	8.72283E-001	2.80124E-004	0.00000E+000	2.44347E-004	1.68088E-001	8.72667E-001	3.57870E+000	9	...........
	20	0.28	8.78357E-001	2.80916E-004	0.00000E+000	2.46744E-004	1.68088E-001	8.78737E-001	3.57870E+000	9	...........
	21	0.293333	8.84092E-001	2.79886E-004	0.00000E+000	2.47445E-004	1.68088E-001	8.84469E-001	3.57870E+000	9	...........
	22	0.306667	8.89520E-001	2.81454E-004	0.00000E+000	2.50359E-004	1.68088E-001	8.89885E-001	3.57870E+000	9	...........
	23	0.32	8.94670E-001	2.81809E-004	0.00000E+000	2.52126E-004	1.68088E-001	8.95054E-001	3.57870E+000	9	...........
	24	0.333333	8.99611E-001	2.81659E-004	0.00000E+000	2.53383E-004	1.68088E-001	8.99970E-001	3.57870E+000	9	...........
	25	0.346667	9.04266E-001	2.81288E-004	0.00000E+000	2.54359E-004	1.68088E-001	9.04649E-001	3.57870E+000	9	...........
	26	0.36	9.08692E-001	2.80878E-004	0.00000E+000	2.55232E-004	1.68088E-001	9.09052E-001	3.57870E+000	9	...........
	27	0.373333	9.12911E-001	2.82899E-004	0.00000E+000	2.58261E-004	1.68088E-001	9.13248E-001	3.57870E+000	9	...........
	28	0.386667	9.16900E-001	2.81767E-004	0.00000E+000	2.58352E-004	1.68088E-001	9.17237E-001	3.57870E+000	9	...........
	29	0.4	9.20759E-001	2.80367E-004	0.00000E+000	2.58150E-004	1.68088E-001	9.21067E-001	3.57870E+000	9	...........
	30	0.413333	9.24429E-001	2.82225E-004	0.00000E+000	2.60898E-004	1.68088E-001	9.24724E-001	3.57870E+000	9	...........
	31	0.426667	9.27908E-001	2.80640E-004	0.00000E+000	2.60408E-004	1.68088E-001	9.28222E-001	3.57870E+000	9	...........
	32	0.44	9.31298E-001	2.81351E-004	0.00000E+000	2.62022E-004	1.68088E-001	9.31604E-001	3.57870E+000	9	...........
	33	0.453333	9.34547E-001	2.82141E-004	0.00000E+000	2.63674E-004	1.68088E-001	9.34894E-001	3.57870E+000	9	...........
	34	0.466667	9.37637E-001	2.81933E-004	0.00000E+000	2.64350E-004	1.68088E-001	9.37989E-001	3.57870E+000	9	...........
	35	0.48	9.40620E-001	2.80939E-004	0.00000E+000	2.64257E-004	1.68088E-001	9.40956E-001	3.57870E+000	9	...........
	36	0.493333	9.43500E-001	2.80700E-004	0.00000E+000	2.64841E-004	1.68088E-001	9.43859E-001	3.57870E+000	9	...........
	37	0.506667	9.46339E-001	2.82178E-004	0.00000E+000	2.67036E-004	1.68088E-001	9.46690E-001	3.57870E+000	9	...........
	38	0.52	9.49056E-001	2.81961E-004	0.00000E+000	2.67597E-004	1.68088E-001	9.49404E-001	3.57870E+000	9	...........
	39	0.533333	9.51679E-001	2.81202E-004	0.00000E+000	2.67614E-004	1.68088E-001	9.52036E-001	3.57870E+000	9	...........
	40	0.546667	9.54233E-001	2.81595E-004	0.00000E+000	2.68707E-004	1.68088E-001	9.54573E-001	3.57870E+000	9	...........
	41	0.56	9.56680E-001	2.80103E-004	0.00000E+000	2.67969E-004	1.68088E-001	9.57013E-001	3.57870E+000	9	...........
	42	0.573333	9.59058E-001	2.80649E-004	0.00000E+000	2.69159E-004	1.68088E-001	9.59404E-001	3.57870E+000	9	...........
	43	0.586667	9.61352E-001	2.80654E-004	0.00000E+000	2.69807E-004	1.68088E-001	9.61724E-001	3.57870E+000	9	...........
	44	0.6	9.63595E-001	2.80457E-004	0.00000E+000	2.70247E-004	1.68088E-001	9.63968E-001	3.57870E+000	9	...........
	45	0.613333	9.65805E-001	2.81013E-004	0.00000E+000	2.71403E-004	1.68088E-001	9.66149E-001	3.57870E+000	9	...........
	46	0.626667	9.67919E-001	2.81959E-004	0.00000E+000	2.72913E-004	1.68088E-001	9.68298E-001	3.57870E+000	9	...........
	47	0.64	9.69979E-001	2.80778E-004	0.00000E+000	2.72349E-004	1.68088E-001	9.70359E-001	3.57870E+000	9	...........
	48	0.653333	9.72011E-001	2.82123E-004	0.00000E+000	2.74227E-004	1.68088E-001	9.72416E-001	3.57870E+000	9	...........
	49	0.666667	9.74029E-001	2.81260E-004	0.00000E+000	2.73955E-004	1.68088E-001	9.74389E-001	3.57870E+000	9	...........
	50	0.68	9.75913E-001	2.80792E-004	0.00000E+000	2.74028E-004	1.68088E-001	9.76281E-001	3.57870E+000	9	...........
	51	0.693333	9.77772E-001	2.80766E-004	0.00000E+000	2.74525E-004	1.68088E-001	9.78142E-001	3.57870E+000	9	...........
	52	0.706667	9.79577E-001	2.80820E-004	0.00000E+000	2.75085E-004	1.68088E-001	9.79923E-001	3.57870E+000	9	...........
	53	0.72	9.81348E-001	2.80914E-004	0.00000E+000	2.75674E-004	1.68088E-001	9.81714E-001	3.57870E+000	9	...........
	54	0.733333	9.83087E-001	2.80372E-004	0.00000E+000	2.75630E-004	1.68088E-001	9.83436E-001	3.57870E+000	9	...........
	55	0.746667	9.84777E-001	2.81005E-004	0.00000E+000	2.76728E-004	1.68088E-001	9.85151E-001	3.57870E+000	9	...........
	56	0.76	9.86428E-001	2.81472E-004	0.00000E+000	2.77652E-004	1.68088E-001	9.86827E-001	3.57870E+000	9	...........
	57	0.773333	9.88060E-001	2.80621E-004	0.00000E+000	2.77270E-004	1.68088E-001	9.88425E-001	3.57870E+000	9	...........
	58	0.786667	9.89638E-001	2.80112E-004	0.00000E+000	2.77210E-004	1.68088E-001	9.89986E-001	3.57870E+000	9	...........
	59	0.8	9.91194E-001	2.81988E-004	0.00000E+000	2.79505E-004	1.68088E-001	9.91545E-001	3.57870E+000	9	...........
	60	0.813333	9.92731E-001	2.81150E-004	0.00000E+000	2.79106E-004	1.68088E-001	9.93084E-001	3.57870E+000	9	...........
	61	0.826667	9.94253E-001	2.80956E-004	0.00000E+000	2.79342E-004	1.68088E-001	9.94579E-001	3.57870E+000	9	...........
	62	0.84	9.95726E-001	2.80486E-004	0.00000E+000	2.79287E-004	1.68088E-001	9.96057E-001	3.57870E+000	9	...........
	63	0.853333	9.97226E-001	2.81271E-004	0.00000E+000	2.80491E-004	1.68088E-001	9.97561E-001	3.57870E+000	9	...........
	64	0.866667	9.98672E-001	2.81061E-004	0.00000E+000	2.80687E-004	1.68088E-001	9.99020E-001	3.57870E+000	9	...........
	65	0.873333	9.99771E-001	2.81192E-004	0.00000E+000	2.81127E-004	1.68088E-001	1.00009E+000	3.57870E+000	9	...........
STARTTIMEOFFSET	QUANT	1650.46	Start Time Offset (s)
