EXPLAIN
TAG	PWR800_CHARGE
TITLE	LABEL	PWR Cyclic Charge Discharge (Cell) - Charge Step	Test &Identifier
DATE	LABEL	7-7-2017	Date
TIME	LABEL	16:20:28	Time
NOTES	NOTES	3	&Notes...
	supercap test cell
	2.8mg
	6M KOH
PSTAT	PSTAT	IFC5000-01520	Potentiostat
CAPACITY	QUANT	1.00000E-003	Capacity (A-hr)
CELLTYPE	SELECTOR	1	&Cell Type
WORKINGCONNECTION	SELECTOR	0	&Working Lead
MAXCHARGETIME	VARIABLEANDUNITS	1.00000E+002	s	1.00000E+002	second(s)	Max &Charge Time
CHARGECURRENT	QUANT	2.80000E-004	&Charge Current (A) 
VOLTAGEFINISH	TWOPARAM	F	1.00000E-003	3.60000E+003	&Voltage Finish	 I (A) < 	Max Time(s)
SAMPLETIME	QUANT	1.00000E-002	Sa&mple Period (s)
CHARGESTOPAT1	MULTIPARAM	4	1.00000E+000	Charge Stop At &1	Voltage > Limit	V
CHARGESTOPAT2	MULTIPARAM	0	0.00000E+000	Charge Stop At &2	None	N/A
AESBHCSELECTOR	TOGGLE	F	Save Both Half Cells
IRCOMP	TOGGLE	F	IR &Measure
EOC	QUANT	0	Open Circuit (V)
SEQUENCER	TOGGLE	TRUE	Run as Sequence
PSTATMODEL	IQUANT	53	Pstat Model
PSTATSECTION	LABEL	IFC5000-01520	Pstat Section
PSTATSERIALNO	LABEL	01520	Pstat Serial Number
CTRLMODE	IQUANT	0	Control Mode
ELECTROMETER	IQUANT	1	RE=0 or CS=1
IESTAB	IQUANT	0	I/E Stability
CASPEED	IQUANT	4	Control Amp Speed
CONVENTION	IQUANT	1	Current Convention
ICHRANGE	IQUANT	2	Ich Range
ICHRANGEMODE	TOGGLE	T	Ich Auto Range
ICHOFFSETENABLE	TOGGLE	F	Ich Offset Enable
ICHOFFSET	QUANT	0	Ich Offset (V)
ICHFILTER	IQUANT	1	Ich Filter
VCHRANGE	IQUANT	2	Vch Range
VCHRANGEMODE	TOGGLE	T	Vch Auto Range
VCHOFFSETENABLE	TOGGLE	F	Vch Offset Enable
VCHOFFSET	QUANT	0	Vch Offset (V)
VCHFILTER	IQUANT	1	Vch Filter
IERANGELOWERLIMIT	IQUANT	9	I/E Range Lower Limit
IERANGEMODE	TOGGLE	F	I/E AutoRange
IERANGE	IQUANT	9	I/E Range
ACHSELECT	IQUANT	1	Ach Select
ACHRANGE	IQUANT	2	Ach Range
ACHOFFSETENABLE	TOGGLE	F	Ach Offset Enable
ACHOFFSET	QUANT	0	Ach Offset (V)
ACHFILTER	IQUANT	1	Ach Filter
CABLEID	IQUANT	14	Cable ID
DCCALDATE	LABEL	5-7-2017	DC Calibration Date
ACCALDATE	LABEL	12/3/2015	AC Calibration Date
FRAMEWORKVERSION	QUANT	7.01	Framework Version
INSTRUMENTVERSION	LABEL	4.00	Instrument Version
CURVE	TABLE	60
	Pt	T	Vf	Im	Vu	Pwr	Sig	Ach	Temp	IERange	Over
	#	s	V	A	V	W	V	V	deg C	#	bits
	0	0.013333	6.10511E-001	2.81105E-004	0.00000E+000	1.71618E-004	1.68088E-001	6.10739E-001	3.58030E+000	9	...........
	1	0.026667	6.40881E-001	2.81171E-004	0.00000E+000	1.80197E-004	1.68088E-001	6.41107E-001	3.58030E+000	9	...........
	2	0.04	6.67022E-001	2.80459E-004	0.00000E+000	1.87073E-004	1.68088E-001	6.67258E-001	3.58030E+000	9	...........
	3	0.053333	6.90074E-001	2.80783E-004	0.00000E+000	1.93761E-004	1.68088E-001	6.90324E-001	3.58030E+000	9	...........
	4	0.066667	7.10665E-001	2.82264E-004	0.00000E+000	2.00595E-004	1.68088E-001	7.10920E-001	3.58030E+000	9	...........
	5	0.08	7.29312E-001	2.80424E-004	0.00000E+000	2.04517E-004	1.68088E-001	7.29583E-001	3.58030E+000	9	...........
	6	0.093333	7.46253E-001	2.80172E-004	0.00000E+000	2.09079E-004	1.68088E-001	7.46538E-001	3.58030E+000	9	...........
	7	0.106667	7.61763E-001	2.81001E-004	0.00000E+000	2.14056E-004	1.68088E-001	7.62036E-001	3.58030E+000	9	...........
	8	0.12	7.76052E-001	2.81096E-004	0.00000E+000	2.18145E-004	1.68088E-001	7.76319E-001	3.58030E+000	9	...........
	9	0.133333	7.89231E-001	2.81460E-004	0.00000E+000	2.22137E-004	1.68088E-001	7.89491E-001	3.58030E+000	9	...........
	10	0.146667	8.01444E-001	2.80482E-004	0.00000E+000	2.24791E-004	1.68088E-001	8.01723E-001	3.58030E+000	9	...........
	11	0.16	8.12756E-001	2.80462E-004	0.00000E+000	2.27947E-004	1.68088E-001	8.13051E-001	3.58030E+000	9	...........
	12	0.173333	8.23291E-001	2.81822E-004	0.00000E+000	2.32022E-004	1.68088E-001	8.23612E-001	3.58030E+000	9	...........
	13	0.186667	8.33066E-001	2.79708E-004	0.00000E+000	2.33015E-004	1.68088E-001	8.33388E-001	3.58030E+000	9	...........
	14	0.2	8.42201E-001	2.80729E-004	0.00000E+000	2.36431E-004	1.68088E-001	8.42521E-001	3.58030E+000	9	...........
	15	0.213333	8.50783E-001	2.81440E-004	0.00000E+000	2.39444E-004	1.68088E-001	8.51094E-001	3.58030E+000	9	...........
	16	0.226667	8.58775E-001	2.80791E-004	0.00000E+000	2.41136E-004	1.68088E-001	8.59138E-001	3.58030E+000	9	...........
	17	0.24	8.66295E-001	2.81497E-004	0.00000E+000	2.43860E-004	1.68088E-001	8.66651E-001	3.58030E+000	9	...........
	18	0.253333	8.73370E-001	2.80465E-004	0.00000E+000	2.44950E-004	1.68088E-001	8.73731E-001	3.58030E+000	9	...........
	19	0.266667	8.80039E-001	2.81720E-004	0.00000E+000	2.47925E-004	1.68088E-001	8.80364E-001	3.58030E+000	9	...........
	20	0.28	8.86293E-001	2.80977E-004	0.00000E+000	2.49028E-004	1.68088E-001	8.86612E-001	3.58030E+000	9	...........
	21	0.293333	8.92144E-001	2.82705E-004	0.00000E+000	2.52213E-004	1.68088E-001	8.92496E-001	3.58030E+000	9	...........
	22	0.306667	8.97731E-001	2.80099E-004	0.00000E+000	2.51453E-004	1.68088E-001	8.98082E-001	3.58030E+000	9	...........
	23	0.32	9.02966E-001	2.80665E-004	0.00000E+000	2.53431E-004	1.68088E-001	9.03319E-001	3.58030E+000	9	...........
	24	0.333333	9.07972E-001	2.80756E-004	0.00000E+000	2.54919E-004	1.68088E-001	9.08320E-001	3.58030E+000	9	...........
	25	0.346667	9.12710E-001	2.81076E-004	0.00000E+000	2.56541E-004	1.68088E-001	9.13040E-001	3.58030E+000	9	...........
	26	0.36	9.17187E-001	2.81437E-004	0.00000E+000	2.58130E-004	1.68088E-001	9.17538E-001	3.58030E+000	9	...........
	27	0.373333	9.21518E-001	2.81097E-004	0.00000E+000	2.59036E-004	1.68088E-001	9.21860E-001	3.58030E+000	9	...........
	28	0.386667	9.25607E-001	2.80292E-004	0.00000E+000	2.59440E-004	1.68088E-001	9.25947E-001	3.58030E+000	9	...........
	29	0.4	9.29526E-001	2.80351E-004	0.00000E+000	2.60594E-004	1.68088E-001	9.29854E-001	3.58030E+000	9	...........
	30	0.413333	9.33254E-001	2.80671E-004	0.00000E+000	2.61937E-004	1.68088E-001	9.33610E-001	3.58030E+000	9	...........
	31	0.426667	9.36851E-001	2.81197E-004	0.00000E+000	2.63440E-004	1.68088E-001	9.37220E-001	3.58030E+000	9	...........
	32	0.44	9.40260E-001	2.81531E-004	0.00000E+000	2.64712E-004	1.68088E-001	9.40615E-001	3.58030E+000	9	...........
	33	0.453333	9.43530E-001	2.80786E-004	0.00000E+000	2.64930E-004	1.68088E-001	9.43868E-001	3.58030E+000	9	...........
	34	0.466667	9.46695E-001	2.80997E-004	0.00000E+000	2.66019E-004	1.68088E-001	9.47050E-001	3.58030E+000	9	...........
	35	0.48	9.49756E-001	2.79949E-004	0.00000E+000	2.65883E-004	1.68088E-001	9.50108E-001	3.58030E+000	9	...........
	36	0.493333	9.52684E-001	2.81046E-004	0.00000E+000	2.67748E-004	1.68088E-001	9.53039E-001	3.57888E+000	9	...........
	37	0.506667	9.55482E-001	2.81566E-004	0.00000E+000	2.69031E-004	1.68088E-001	9.55824E-001	3.57810E+000	9	...........
	38	0.52	9.58178E-001	2.81700E-004	0.00000E+000	2.69919E-004	1.68088E-001	9.58539E-001	3.57810E+000	9	...........
	39	0.533333	9.60823E-001	2.81043E-004	0.00000E+000	2.70032E-004	1.68088E-001	9.61170E-001	3.57810E+000	9	...........
	40	0.546667	9.63289E-001	2.80493E-004	0.00000E+000	2.70196E-004	1.68088E-001	9.63696E-001	3.57810E+000	9	...........
	41	0.56	9.65752E-001	2.80171E-004	0.00000E+000	2.70576E-004	1.68088E-001	9.66143E-001	3.57810E+000	9	...........
	42	0.573333	9.68134E-001	2.82164E-004	0.00000E+000	2.73173E-004	1.68088E-001	9.68524E-001	3.57810E+000	9	...........
	43	0.586667	9.70414E-001	2.80706E-004	0.00000E+000	2.72401E-004	1.68088E-001	9.70843E-001	3.57810E+000	9	...........
	44	0.6	9.72686E-001	2.82703E-004	0.00000E+000	2.74981E-004	1.68088E-001	9.73061E-001	3.57810E+000	9	...........
	45	0.613333	9.74864E-001	2.81624E-004	0.00000E+000	2.74545E-004	1.68088E-001	9.75220E-001	3.57810E+000	9	...........
	46	0.626667	9.76956E-001	2.82307E-004	0.00000E+000	2.75801E-004	1.68088E-001	9.77304E-001	3.57810E+000	9	...........
	47	0.64	9.78989E-001	2.80968E-004	0.00000E+000	2.75065E-004	1.68088E-001	9.79329E-001	3.57810E+000	9	...........
	48	0.653333	9.80968E-001	2.81859E-004	0.00000E+000	2.76494E-004	1.68088E-001	9.81325E-001	3.57810E+000	9	...........
	49	0.666667	9.82883E-001	2.81648E-004	0.00000E+000	2.76827E-004	1.68088E-001	9.83242E-001	3.57810E+000	9	...........
	50	0.68	9.84750E-001	2.80238E-004	0.00000E+000	2.75964E-004	1.68088E-001	9.85125E-001	3.57810E+000	9	...........
	51	0.693333	9.86616E-001	2.80731E-004	0.00000E+000	2.76974E-004	1.68088E-001	9.86979E-001	3.57810E+000	9	...........
	52	0.706667	9.88436E-001	2.80987E-004	0.00000E+000	2.77737E-004	1.68088E-001	9.88791E-001	3.57810E+000	9	...........
	53	0.72	9.90211E-001	2.81585E-004	0.00000E+000	2.78828E-004	1.68088E-001	9.90560E-001	3.57810E+000	9	...........
	54	0.733333	9.91951E-001	2.80687E-004	0.00000E+000	2.78427E-004	1.68088E-001	9.92311E-001	3.57810E+000	9	...........
	55	0.746667	9.93677E-001	2.82172E-004	0.00000E+000	2.80388E-004	1.68088E-001	9.94057E-001	3.57810E+000	9	...........
	56	0.76	9.95371E-001	2.81771E-004	0.00000E+000	2.80467E-004	1.68088E-001	9.95735E-001	3.57810E+000	9	...........
	57	0.773333	9.96995E-001	2.81466E-004	0.00000E+000	2.80620E-004	1.68088E-001	9.97374E-001	3.57810E+000	9	...........
	58	0.786667	9.98610E-001	2.80069E-004	0.00000E+000	2.79680E-004	1.68088E-001	9.98961E-001	3.57810E+000	9	...........
	59	0.793333	9.99821E-001	2.80183E-004	0.00000E+000	2.80133E-004	1.68088E-001	1.00015E+000	3.57810E+000	9	...........
STARTTIMEOFFSET	QUANT	1941.125	Start Time Offset (s)
