EXPLAIN
TAG	PWR800_CHARGE
TITLE	LABEL	PWR Cyclic Charge Discharge (Cell) - Charge Step	Test &Identifier
DATE	LABEL	7-7-2017	Date
TIME	LABEL	15:58:51	Time
NOTES	NOTES	3	&Notes...
	supercap test cell
	2.8mg
	6M KOH
PSTAT	PSTAT	IFC5000-01520	Potentiostat
CAPACITY	QUANT	1.00000E-003	Capacity (A-hr)
CELLTYPE	SELECTOR	1	&Cell Type
WORKINGCONNECTION	SELECTOR	0	&Working Lead
MAXCHARGETIME	VARIABLEANDUNITS	1.00000E+002	s	1.00000E+002	second(s)	Max &Charge Time
CHARGECURRENT	QUANT	2.80000E-004	&Charge Current (A) 
VOLTAGEFINISH	TWOPARAM	F	1.00000E-003	3.60000E+003	&Voltage Finish	 I (A) < 	Max Time(s)
SAMPLETIME	QUANT	1.00000E-002	Sa&mple Period (s)
CHARGESTOPAT1	MULTIPARAM	4	1.00000E+000	Charge Stop At &1	Voltage > Limit	V
CHARGESTOPAT2	MULTIPARAM	0	0.00000E+000	Charge Stop At &2	None	N/A
AESBHCSELECTOR	TOGGLE	F	Save Both Half Cells
IRCOMP	TOGGLE	F	IR &Measure
EOC	QUANT	0	Open Circuit (V)
SEQUENCER	TOGGLE	TRUE	Run as Sequence
PSTATMODEL	IQUANT	53	Pstat Model
PSTATSECTION	LABEL	IFC5000-01520	Pstat Section
PSTATSERIALNO	LABEL	01520	Pstat Serial Number
CTRLMODE	IQUANT	0	Control Mode
ELECTROMETER	IQUANT	1	RE=0 or CS=1
IESTAB	IQUANT	0	I/E Stability
CASPEED	IQUANT	4	Control Amp Speed
CONVENTION	IQUANT	1	Current Convention
ICHRANGE	IQUANT	2	Ich Range
ICHRANGEMODE	TOGGLE	T	Ich Auto Range
ICHOFFSETENABLE	TOGGLE	F	Ich Offset Enable
ICHOFFSET	QUANT	0	Ich Offset (V)
ICHFILTER	IQUANT	1	Ich Filter
VCHRANGE	IQUANT	2	Vch Range
VCHRANGEMODE	TOGGLE	T	Vch Auto Range
VCHOFFSETENABLE	TOGGLE	F	Vch Offset Enable
VCHOFFSET	QUANT	0	Vch Offset (V)
VCHFILTER	IQUANT	1	Vch Filter
IERANGELOWERLIMIT	IQUANT	9	I/E Range Lower Limit
IERANGEMODE	TOGGLE	F	I/E AutoRange
IERANGE	IQUANT	9	I/E Range
ACHSELECT	IQUANT	1	Ach Select
ACHRANGE	IQUANT	2	Ach Range
ACHOFFSETENABLE	TOGGLE	F	Ach Offset Enable
ACHOFFSET	QUANT	0	Ach Offset (V)
ACHFILTER	IQUANT	1	Ach Filter
CABLEID	IQUANT	14	Cable ID
DCCALDATE	LABEL	5-7-2017	DC Calibration Date
ACCALDATE	LABEL	12/3/2015	AC Calibration Date
FRAMEWORKVERSION	QUANT	7.01	Framework Version
INSTRUMENTVERSION	LABEL	4.00	Instrument Version
CURVE	TABLE	82
	Pt	T	Vf	Im	Vu	Pwr	Sig	Ach	Temp	IERange	Over
	#	s	V	A	V	W	V	V	deg C	#	bits
	0	0.013333	5.95311E-001	2.80491E-004	0.00000E+000	1.66979E-004	1.68088E-001	5.95625E-001	3.57820E+000	9	...........
	1	0.026667	6.24811E-001	2.81049E-004	0.00000E+000	1.75603E-004	1.68088E-001	6.25092E-001	3.57820E+000	9	...........
	2	0.04	6.49937E-001	2.81782E-004	0.00000E+000	1.83140E-004	1.68088E-001	6.50212E-001	3.57820E+000	9	...........
	3	0.053333	6.71877E-001	2.81072E-004	0.00000E+000	1.88846E-004	1.68088E-001	6.72165E-001	3.57820E+000	9	...........
	4	0.066667	6.91319E-001	2.81918E-004	0.00000E+000	1.94895E-004	1.68088E-001	6.91628E-001	3.57820E+000	9	...........
	5	0.08	7.08811E-001	2.80789E-004	0.00000E+000	1.99026E-004	1.68088E-001	7.09109E-001	3.57820E+000	9	...........
	6	0.093333	7.24684E-001	2.80531E-004	0.00000E+000	2.03297E-004	1.68088E-001	7.24948E-001	3.57820E+000	9	...........
	7	0.106667	7.39155E-001	2.80568E-004	0.00000E+000	2.07383E-004	1.68088E-001	7.39428E-001	3.57820E+000	9	...........
	8	0.12	7.52438E-001	2.81215E-004	0.00000E+000	2.11597E-004	1.68088E-001	7.52702E-001	3.57820E+000	9	...........
	9	0.133333	7.64650E-001	2.80845E-004	0.00000E+000	2.14748E-004	1.68088E-001	7.64941E-001	3.57820E+000	9	...........
	10	0.146667	7.75966E-001	2.80637E-004	0.00000E+000	2.17764E-004	1.68088E-001	7.76249E-001	3.57820E+000	9	...........
	11	0.16	7.86452E-001	2.82407E-004	0.00000E+000	2.22099E-004	1.68088E-001	7.86744E-001	3.57820E+000	9	...........
	12	0.173333	7.96227E-001	2.81385E-004	0.00000E+000	2.24046E-004	1.68088E-001	7.96540E-001	3.57820E+000	9	...........
	13	0.186667	8.05357E-001	2.81768E-004	0.00000E+000	2.26924E-004	1.68088E-001	8.05661E-001	3.57820E+000	9	...........
	14	0.2	8.13875E-001	2.81416E-004	0.00000E+000	2.29037E-004	1.68088E-001	8.14188E-001	3.57820E+000	9	...........
	15	0.213333	8.21910E-001	2.81875E-004	0.00000E+000	2.31676E-004	1.68088E-001	8.22230E-001	3.57820E+000	9	...........
	16	0.226667	8.29363E-001	2.80781E-004	0.00000E+000	2.32870E-004	1.68088E-001	8.29697E-001	3.57820E+000	9	...........
	17	0.24	8.36429E-001	2.82178E-004	0.00000E+000	2.36022E-004	1.68088E-001	8.36758E-001	3.57820E+000	9	...........
	18	0.253333	8.43082E-001	2.81625E-004	0.00000E+000	2.37433E-004	1.68088E-001	8.43439E-001	3.57820E+000	9	...........
	19	0.266667	8.49383E-001	2.81041E-004	0.00000E+000	2.38711E-004	1.68088E-001	8.49737E-001	3.57820E+000	9	...........
	20	0.28	8.55330E-001	2.81924E-004	0.00000E+000	2.41138E-004	1.68088E-001	8.55673E-001	3.57820E+000	9	...........
	21	0.293333	8.60972E-001	2.81738E-004	0.00000E+000	2.42568E-004	1.68088E-001	8.61331E-001	3.57820E+000	9	...........
	22	0.306667	8.66300E-001	2.81875E-004	0.00000E+000	2.44189E-004	1.68088E-001	8.66659E-001	3.57820E+000	9	...........
	23	0.32	8.71392E-001	2.80997E-004	0.00000E+000	2.44859E-004	1.68088E-001	8.71744E-001	3.57820E+000	9	...........
	24	0.333333	8.76217E-001	2.81703E-004	0.00000E+000	2.46833E-004	1.68088E-001	8.76578E-001	3.57820E+000	9	...........
	25	0.346667	8.80852E-001	2.80408E-004	0.00000E+000	2.46998E-004	1.68088E-001	8.81213E-001	3.57820E+000	9	...........
	26	0.36	8.85254E-001	2.80641E-004	0.00000E+000	2.48438E-004	1.68088E-001	8.85592E-001	3.57820E+000	9	...........
	27	0.373333	8.89449E-001	2.80770E-004	0.00000E+000	2.49731E-004	1.68088E-001	8.89778E-001	3.57820E+000	9	...........
	28	0.386667	8.93463E-001	2.82286E-004	0.00000E+000	2.52212E-004	1.68088E-001	8.93795E-001	3.57820E+000	9	...........
	29	0.4	8.97277E-001	2.81822E-004	0.00000E+000	2.52873E-004	1.68088E-001	8.97608E-001	3.57820E+000	9	...........
	30	0.413333	9.00919E-001	2.82106E-004	0.00000E+000	2.54154E-004	1.68088E-001	9.01228E-001	3.57820E+000	9	...........
	31	0.426667	9.04463E-001	2.81870E-004	0.00000E+000	2.54941E-004	1.68088E-001	9.04765E-001	3.57820E+000	9	...........
	32	0.44	9.07883E-001	2.81038E-004	0.00000E+000	2.55149E-004	1.68088E-001	9.08177E-001	3.57820E+000	9	...........
	33	0.453333	9.11143E-001	2.80270E-004	0.00000E+000	2.55366E-004	1.68088E-001	9.11447E-001	3.57820E+000	9	...........
	34	0.466667	9.14263E-001	2.81168E-004	0.00000E+000	2.57061E-004	1.68088E-001	9.14574E-001	3.57820E+000	9	...........
	35	0.48	9.17305E-001	2.80912E-004	0.00000E+000	2.57682E-004	1.68088E-001	9.17620E-001	3.57820E+000	9	...........
	36	0.493333	9.20255E-001	2.80804E-004	0.00000E+000	2.58412E-004	1.68088E-001	9.20549E-001	3.57820E+000	9	...........
	37	0.506667	9.23116E-001	2.80159E-004	0.00000E+000	2.58620E-004	1.68088E-001	9.23390E-001	3.57820E+000	9	...........
	38	0.52	9.25842E-001	2.80916E-004	0.00000E+000	2.60084E-004	1.68088E-001	9.26170E-001	3.57820E+000	9	...........
	39	0.533333	9.28517E-001	2.80406E-004	0.00000E+000	2.60362E-004	1.68088E-001	9.28818E-001	3.57820E+000	9	...........
	40	0.546667	9.31061E-001	2.81446E-004	0.00000E+000	2.62043E-004	1.68088E-001	9.31360E-001	3.57820E+000	9	...........
	41	0.56	9.33538E-001	2.80368E-004	0.00000E+000	2.61734E-004	1.68088E-001	9.33868E-001	3.57820E+000	9	...........
	42	0.573333	9.35966E-001	2.81321E-004	0.00000E+000	2.63307E-004	1.68088E-001	9.36335E-001	3.57820E+000	9	...........
	43	0.586667	9.38368E-001	2.80166E-004	0.00000E+000	2.62899E-004	1.68088E-001	9.38721E-001	3.57820E+000	9	...........
	44	0.6	9.40684E-001	2.82075E-004	0.00000E+000	2.65344E-004	1.68088E-001	9.41019E-001	3.57820E+000	9	...........
	45	0.613333	9.42917E-001	2.81233E-004	0.00000E+000	2.65179E-004	1.68088E-001	9.43290E-001	3.57820E+000	9	...........
	46	0.626667	9.45076E-001	2.81475E-004	0.00000E+000	2.66015E-004	1.68088E-001	9.45461E-001	3.57820E+000	9	...........
	47	0.64	9.47247E-001	2.80965E-004	0.00000E+000	2.66143E-004	1.68088E-001	9.47594E-001	3.57820E+000	9	...........
	48	0.653333	9.49315E-001	2.80971E-004	0.00000E+000	2.66730E-004	1.68088E-001	9.49666E-001	3.57820E+000	9	...........
	49	0.666667	9.51298E-001	2.81677E-004	0.00000E+000	2.67959E-004	1.68088E-001	9.51664E-001	3.57820E+000	9	...........
	50	0.68	9.53255E-001	2.80508E-004	0.00000E+000	2.67396E-004	1.68088E-001	9.53635E-001	3.57820E+000	9	...........
	51	0.693333	9.55188E-001	2.80737E-004	0.00000E+000	2.68156E-004	1.68088E-001	9.55553E-001	3.57820E+000	9	...........
	52	0.706667	9.57089E-001	2.80994E-004	0.00000E+000	2.68936E-004	1.68088E-001	9.57443E-001	3.57820E+000	9	...........
	53	0.72	9.58932E-001	2.81420E-004	0.00000E+000	2.69863E-004	1.68088E-001	9.59301E-001	3.57820E+000	9	...........
	54	0.733333	9.60740E-001	2.81097E-004	0.00000E+000	2.70061E-004	1.68088E-001	9.61130E-001	3.57820E+000	9	...........
	55	0.746667	9.62501E-001	2.80423E-004	0.00000E+000	2.69907E-004	1.68088E-001	9.62881E-001	3.57820E+000	9	...........
	56	0.76	9.64220E-001	2.81218E-004	0.00000E+000	2.71156E-004	1.68088E-001	9.64631E-001	3.57820E+000	9	...........
	57	0.773333	9.65883E-001	2.80982E-004	0.00000E+000	2.71396E-004	1.68088E-001	9.66286E-001	3.57820E+000	9	...........
	58	0.786667	9.67520E-001	2.80347E-004	0.00000E+000	2.71241E-004	1.68088E-001	9.67916E-001	3.57820E+000	9	...........
	59	0.8	9.69170E-001	2.81552E-004	0.00000E+000	2.72872E-004	1.68088E-001	9.69583E-001	3.57820E+000	9	...........
	60	0.813333	9.70775E-001	2.81375E-004	0.00000E+000	2.73152E-004	1.68088E-001	9.71203E-001	3.57820E+000	9	...........
	61	0.826667	9.72435E-001	2.81216E-004	0.00000E+000	2.73464E-004	1.68088E-001	9.72801E-001	3.57870E+000	9	...........
	62	0.84	9.74036E-001	2.81785E-004	0.00000E+000	2.74469E-004	1.68088E-001	9.74391E-001	3.57900E+000	9	...........
	63	0.853333	9.75576E-001	2.80892E-004	0.00000E+000	2.74031E-004	1.68088E-001	9.75913E-001	3.57900E+000	9	...........
	64	0.866667	9.77111E-001	2.81395E-004	0.00000E+000	2.74954E-004	1.68088E-001	9.77440E-001	3.57900E+000	9	...........
	65	0.88	9.78582E-001	2.80976E-004	0.00000E+000	2.74958E-004	1.68088E-001	9.78890E-001	3.57900E+000	9	...........
	66	0.893333	9.80041E-001	2.79715E-004	0.00000E+000	2.74132E-004	1.68088E-001	9.80366E-001	3.57900E+000	9	...........
	67	0.906667	9.81499E-001	2.80670E-004	0.00000E+000	2.75477E-004	1.68088E-001	9.81825E-001	3.57900E+000	9	...........
	68	0.92	9.82948E-001	2.80857E-004	0.00000E+000	2.76068E-004	1.68088E-001	9.83262E-001	3.57900E+000	9	...........
	69	0.933333	9.84319E-001	2.81495E-004	0.00000E+000	2.77081E-004	1.68088E-001	9.84657E-001	3.57900E+000	9	...........
	70	0.946667	9.85709E-001	2.81085E-004	0.00000E+000	2.77068E-004	1.68088E-001	9.86057E-001	3.57900E+000	9	...........
	71	0.96	9.87046E-001	2.80813E-004	0.00000E+000	2.77175E-004	1.68088E-001	9.87390E-001	3.57900E+000	9	...........
	72	0.97333	9.88370E-001	2.81575E-004	0.00000E+000	2.78301E-004	1.68088E-001	9.88701E-001	3.57900E+000	9	...........
	73	0.98667	9.89690E-001	2.80971E-004	0.00000E+000	2.78074E-004	1.68088E-001	9.90025E-001	3.57900E+000	9	...........
	74	1	9.90974E-001	2.80819E-004	0.00000E+000	2.78284E-004	1.68088E-001	9.91335E-001	3.57900E+000	9	...........
	75	1.01333	9.92227E-001	2.81107E-004	0.00000E+000	2.78922E-004	1.68088E-001	9.92597E-001	3.57900E+000	9	...........
	76	1.02667	9.93480E-001	2.81688E-004	0.00000E+000	2.79851E-004	1.68088E-001	9.93861E-001	3.57900E+000	9	...........
	77	1.04	9.94729E-001	2.81557E-004	0.00000E+000	2.80073E-004	1.68088E-001	9.95099E-001	3.57900E+000	9	...........
	78	1.05333	9.95987E-001	2.82452E-004	0.00000E+000	2.81318E-004	1.68088E-001	9.96364E-001	3.57900E+000	9	...........
	79	1.06667	9.97169E-001	2.82082E-004	0.00000E+000	2.81283E-004	1.68088E-001	9.97597E-001	3.57900E+000	9	...........
	80	1.08	9.98377E-001	2.81426E-004	0.00000E+000	2.80969E-004	1.68088E-001	9.98772E-001	3.57900E+000	9	...........
	81	1.09333	9.99535E-001	2.81022E-004	0.00000E+000	2.80891E-004	1.68088E-001	9.99951E-001	3.57900E+000	9	...........
STARTTIMEOFFSET	QUANT	1060.592	Start Time Offset (s)
