EXPLAIN
TAG	PWR800_CHARGE
TITLE	LABEL	PWR Cyclic Charge Discharge (Cell) - Charge Step	Test &Identifier
DATE	LABEL	7-7-2017	Date
TIME	LABEL	15:59:03	Time
NOTES	NOTES	3	&Notes...
	supercap test cell
	2.8mg
	6M KOH
PSTAT	PSTAT	IFC5000-01520	Potentiostat
CAPACITY	QUANT	1.00000E-003	Capacity (A-hr)
CELLTYPE	SELECTOR	1	&Cell Type
WORKINGCONNECTION	SELECTOR	0	&Working Lead
MAXCHARGETIME	VARIABLEANDUNITS	1.00000E+002	s	1.00000E+002	second(s)	Max &Charge Time
CHARGECURRENT	QUANT	2.80000E-004	&Charge Current (A) 
VOLTAGEFINISH	TWOPARAM	F	1.00000E-003	3.60000E+003	&Voltage Finish	 I (A) < 	Max Time(s)
SAMPLETIME	QUANT	1.00000E-002	Sa&mple Period (s)
CHARGESTOPAT1	MULTIPARAM	4	1.00000E+000	Charge Stop At &1	Voltage > Limit	V
CHARGESTOPAT2	MULTIPARAM	0	0.00000E+000	Charge Stop At &2	None	N/A
AESBHCSELECTOR	TOGGLE	F	Save Both Half Cells
IRCOMP	TOGGLE	F	IR &Measure
EOC	QUANT	0	Open Circuit (V)
SEQUENCER	TOGGLE	TRUE	Run as Sequence
PSTATMODEL	IQUANT	53	Pstat Model
PSTATSECTION	LABEL	IFC5000-01520	Pstat Section
PSTATSERIALNO	LABEL	01520	Pstat Serial Number
CTRLMODE	IQUANT	0	Control Mode
ELECTROMETER	IQUANT	1	RE=0 or CS=1
IESTAB	IQUANT	0	I/E Stability
CASPEED	IQUANT	4	Control Amp Speed
CONVENTION	IQUANT	1	Current Convention
ICHRANGE	IQUANT	2	Ich Range
ICHRANGEMODE	TOGGLE	T	Ich Auto Range
ICHOFFSETENABLE	TOGGLE	F	Ich Offset Enable
ICHOFFSET	QUANT	0	Ich Offset (V)
ICHFILTER	IQUANT	1	Ich Filter
VCHRANGE	IQUANT	2	Vch Range
VCHRANGEMODE	TOGGLE	T	Vch Auto Range
VCHOFFSETENABLE	TOGGLE	F	Vch Offset Enable
VCHOFFSET	QUANT	0	Vch Offset (V)
VCHFILTER	IQUANT	1	Vch Filter
IERANGELOWERLIMIT	IQUANT	9	I/E Range Lower Limit
IERANGEMODE	TOGGLE	F	I/E AutoRange
IERANGE	IQUANT	9	I/E Range
ACHSELECT	IQUANT	1	Ach Select
ACHRANGE	IQUANT	2	Ach Range
ACHOFFSETENABLE	TOGGLE	F	Ach Offset Enable
ACHOFFSET	QUANT	0	Ach Offset (V)
ACHFILTER	IQUANT	1	Ach Filter
CABLEID	IQUANT	14	Cable ID
DCCALDATE	LABEL	5-7-2017	DC Calibration Date
ACCALDATE	LABEL	12/3/2015	AC Calibration Date
FRAMEWORKVERSION	QUANT	7.01	Framework Version
INSTRUMENTVERSION	LABEL	4.00	Instrument Version
CURVE	TABLE	82
	Pt	T	Vf	Im	Vu	Pwr	Sig	Ach	Temp	IERange	Over
	#	s	V	A	V	W	V	V	deg C	#	bits
	0	0.013333	5.95809E-001	2.80700E-004	0.00000E+000	1.67244E-004	1.68088E-001	5.96120E-001	3.58010E+000	9	...........
	1	0.026667	6.25345E-001	2.80661E-004	0.00000E+000	1.75510E-004	1.68088E-001	6.25601E-001	3.58010E+000	9	...........
	2	0.04	6.50462E-001	2.80964E-004	0.00000E+000	1.82756E-004	1.68088E-001	6.50753E-001	3.58010E+000	9	...........
	3	0.053333	6.72424E-001	2.81923E-004	0.00000E+000	1.89572E-004	1.68088E-001	6.72707E-001	3.58010E+000	9	...........
	4	0.066667	6.91865E-001	2.81023E-004	0.00000E+000	1.94430E-004	1.68088E-001	6.92158E-001	3.58010E+000	9	...........
	5	0.08	7.09331E-001	2.80387E-004	0.00000E+000	1.98887E-004	1.68088E-001	7.09664E-001	3.58010E+000	9	...........
	6	0.093333	7.25219E-001	2.80156E-004	0.00000E+000	2.03175E-004	1.68088E-001	7.25500E-001	3.58010E+000	9	...........
	7	0.106667	7.39686E-001	2.81603E-004	0.00000E+000	2.08298E-004	1.68088E-001	7.39979E-001	3.58010E+000	9	...........
	8	0.12	7.52965E-001	2.82866E-004	0.00000E+000	2.12988E-004	1.68088E-001	7.53244E-001	3.58010E+000	9	...........
	9	0.133333	7.65189E-001	2.80404E-004	0.00000E+000	2.14562E-004	1.68088E-001	7.65476E-001	3.58010E+000	9	...........
	10	0.146667	7.76525E-001	2.82164E-004	0.00000E+000	2.19107E-004	1.68088E-001	7.76816E-001	3.58010E+000	9	...........
	11	0.16	7.86990E-001	2.81203E-004	0.00000E+000	2.21304E-004	1.68088E-001	7.87300E-001	3.58010E+000	9	...........
	12	0.173333	7.96796E-001	2.82449E-004	0.00000E+000	2.25055E-004	1.68088E-001	7.97103E-001	3.58010E+000	9	...........
	13	0.186667	8.05891E-001	2.80462E-004	0.00000E+000	2.26021E-004	1.68088E-001	8.06175E-001	3.58010E+000	9	...........
	14	0.2	8.14390E-001	2.79794E-004	0.00000E+000	2.27861E-004	1.68088E-001	8.14706E-001	3.58010E+000	9	...........
	15	0.213333	8.22385E-001	2.81298E-004	0.00000E+000	2.31336E-004	1.68088E-001	8.22711E-001	3.58010E+000	9	...........
	16	0.226667	8.29887E-001	2.81440E-004	0.00000E+000	2.33563E-004	1.68088E-001	8.30205E-001	3.58010E+000	9	...........
	17	0.24	8.36917E-001	2.80516E-004	0.00000E+000	2.34768E-004	1.68088E-001	8.37268E-001	3.58010E+000	9	...........
	18	0.253333	8.43619E-001	2.80970E-004	0.00000E+000	2.37032E-004	1.68088E-001	8.43983E-001	3.58010E+000	9	...........
	19	0.266667	8.49931E-001	2.81236E-004	0.00000E+000	2.39031E-004	1.68088E-001	8.50294E-001	3.57800E+000	9	...........
	20	0.28	8.55887E-001	2.81017E-004	0.00000E+000	2.40519E-004	1.68088E-001	8.56239E-001	3.57800E+000	9	...........
	21	0.293333	8.61517E-001	2.80565E-004	0.00000E+000	2.41711E-004	1.68088E-001	8.61893E-001	3.57800E+000	9	...........
	22	0.306667	8.66863E-001	2.81246E-004	0.00000E+000	2.43802E-004	1.68088E-001	8.67233E-001	3.57800E+000	9	...........
	23	0.32	8.71985E-001	2.82000E-004	0.00000E+000	2.45900E-004	1.68088E-001	8.72351E-001	3.57800E+000	9	...........
	24	0.333333	8.76840E-001	2.81899E-004	0.00000E+000	2.47181E-004	1.68088E-001	8.77188E-001	3.57800E+000	9	...........
	25	0.346667	8.81455E-001	2.80312E-004	0.00000E+000	2.47082E-004	1.68088E-001	8.81818E-001	3.57800E+000	9	...........
	26	0.36	8.85875E-001	2.81396E-004	0.00000E+000	2.49282E-004	1.68088E-001	8.86213E-001	3.57800E+000	9	...........
	27	0.373333	8.90078E-001	2.81010E-004	0.00000E+000	2.50120E-004	1.68088E-001	8.90406E-001	3.57800E+000	9	...........
	28	0.386667	8.94102E-001	2.81584E-004	0.00000E+000	2.51764E-004	1.68088E-001	8.94458E-001	3.57800E+000	9	...........
	29	0.4	8.97962E-001	2.81649E-004	0.00000E+000	2.52910E-004	1.68088E-001	8.98315E-001	3.57800E+000	9	...........
	30	0.413333	9.01643E-001	2.80771E-004	0.00000E+000	2.53155E-004	1.68088E-001	9.02018E-001	3.57800E+000	9	...........
	31	0.426667	9.05205E-001	2.81693E-004	0.00000E+000	2.54990E-004	1.68088E-001	9.05573E-001	3.57800E+000	9	...........
	32	0.44	9.08638E-001	2.81920E-004	0.00000E+000	2.56164E-004	1.68088E-001	9.08974E-001	3.57800E+000	9	...........
	33	0.453333	9.11901E-001	2.80848E-004	0.00000E+000	2.56106E-004	1.68088E-001	9.12265E-001	3.57800E+000	9	...........
	34	0.466667	9.15085E-001	2.80714E-004	0.00000E+000	2.56877E-004	1.68088E-001	9.15422E-001	3.57800E+000	9	...........
	35	0.48	9.18102E-001	2.80884E-004	0.00000E+000	2.57880E-004	1.68088E-001	9.18452E-001	3.57800E+000	9	...........
	36	0.493333	9.21086E-001	2.80330E-004	0.00000E+000	2.58208E-004	1.68088E-001	9.21392E-001	3.57800E+000	9	...........
	37	0.506667	9.23917E-001	2.80468E-004	0.00000E+000	2.59129E-004	1.68088E-001	9.24225E-001	3.57800E+000	9	...........
	38	0.52	9.26658E-001	2.81162E-004	0.00000E+000	2.60541E-004	1.68088E-001	9.26983E-001	3.57800E+000	9	...........
	39	0.533333	9.29312E-001	2.80910E-004	0.00000E+000	2.61053E-004	1.68088E-001	9.29642E-001	3.57800E+000	9	...........
	40	0.546667	9.31890E-001	2.80118E-004	0.00000E+000	2.61039E-004	1.68088E-001	9.32214E-001	3.57800E+000	9	...........
	41	0.56	9.34350E-001	2.80810E-004	0.00000E+000	2.62375E-004	1.68088E-001	9.34702E-001	3.57800E+000	9	...........
	42	0.573333	9.36773E-001	2.80388E-004	0.00000E+000	2.62659E-004	1.68088E-001	9.37129E-001	3.57800E+000	9	...........
	43	0.586667	9.39125E-001	2.80950E-004	0.00000E+000	2.63847E-004	1.68088E-001	9.39470E-001	3.57800E+000	9	...........
	44	0.6	9.41426E-001	2.81542E-004	0.00000E+000	2.65051E-004	1.68088E-001	9.41754E-001	3.57800E+000	9	...........
	45	0.613333	9.43661E-001	2.80962E-004	0.00000E+000	2.65133E-004	1.68088E-001	9.44010E-001	3.57800E+000	9	...........
	46	0.626667	9.45835E-001	2.80762E-004	0.00000E+000	2.65554E-004	1.68088E-001	9.46206E-001	3.57800E+000	9	...........
	47	0.64	9.48007E-001	2.80870E-004	0.00000E+000	2.66267E-004	1.68088E-001	9.48348E-001	3.57800E+000	9	...........
	48	0.653333	9.50060E-001	2.80158E-004	0.00000E+000	2.66167E-004	1.68088E-001	9.50410E-001	3.57800E+000	9	...........
	49	0.666667	9.52073E-001	2.80217E-004	0.00000E+000	2.66787E-004	1.68088E-001	9.52454E-001	3.57800E+000	9	...........
	50	0.68	9.54048E-001	2.80495E-004	0.00000E+000	2.67606E-004	1.68088E-001	9.54399E-001	3.57800E+000	9	...........
	51	0.693333	9.56012E-001	2.82216E-004	0.00000E+000	2.69802E-004	1.68088E-001	9.56359E-001	3.57800E+000	9	...........
	52	0.706667	9.57898E-001	2.82049E-004	0.00000E+000	2.70174E-004	1.68088E-001	9.58258E-001	3.57800E+000	9	...........
	53	0.72	9.59706E-001	2.81320E-004	0.00000E+000	2.69985E-004	1.68088E-001	9.60066E-001	3.57800E+000	9	...........
	54	0.733333	9.61529E-001	2.80780E-004	0.00000E+000	2.69979E-004	1.68088E-001	9.61908E-001	3.57800E+000	9	...........
	55	0.746667	9.63285E-001	2.81190E-004	0.00000E+000	2.70866E-004	1.68088E-001	9.63671E-001	3.57800E+000	9	...........
	56	0.76	9.65041E-001	2.80957E-004	0.00000E+000	2.71135E-004	1.68088E-001	9.65418E-001	3.57800E+000	9	...........
	57	0.773333	9.66736E-001	2.80104E-004	0.00000E+000	2.70787E-004	1.68088E-001	9.67118E-001	3.57800E+000	9	...........
	58	0.786667	9.68431E-001	2.81113E-004	0.00000E+000	2.72238E-004	1.68088E-001	9.68818E-001	3.57800E+000	9	...........
	59	0.8	9.70071E-001	2.80888E-004	0.00000E+000	2.72481E-004	1.68088E-001	9.70470E-001	3.57800E+000	9	...........
	60	0.813333	9.71694E-001	2.80919E-004	0.00000E+000	2.72967E-004	1.68088E-001	9.72126E-001	3.57800E+000	9	...........
	61	0.826667	9.73347E-001	2.82183E-004	0.00000E+000	2.74662E-004	1.68088E-001	9.73729E-001	3.57800E+000	9	...........
	62	0.84	9.74914E-001	2.82071E-004	0.00000E+000	2.74995E-004	1.68088E-001	9.75300E-001	3.57800E+000	9	...........
	63	0.853333	9.76447E-001	2.81283E-004	0.00000E+000	2.74658E-004	1.68088E-001	9.76851E-001	3.57800E+000	9	...........
	64	0.866667	9.77962E-001	2.80078E-004	0.00000E+000	2.73906E-004	1.68088E-001	9.78354E-001	3.57800E+000	9	...........
	65	0.88	9.79455E-001	2.80905E-004	0.00000E+000	2.75134E-004	1.68088E-001	9.79826E-001	3.57800E+000	9	...........
	66	0.893333	9.80922E-001	2.80824E-004	0.00000E+000	2.75466E-004	1.68088E-001	9.81289E-001	3.57800E+000	9	...........
	67	0.906667	9.82343E-001	2.81031E-004	0.00000E+000	2.76069E-004	1.68088E-001	9.82713E-001	3.57800E+000	9	...........
	68	0.92	9.83766E-001	2.80262E-004	0.00000E+000	2.75712E-004	1.68088E-001	9.84136E-001	3.57800E+000	9	...........
	69	0.933333	9.85146E-001	2.81573E-004	0.00000E+000	2.77391E-004	1.68088E-001	9.85536E-001	3.57800E+000	9	...........
	70	0.946667	9.86520E-001	2.80348E-004	0.00000E+000	2.76569E-004	1.68088E-001	9.86911E-001	3.57800E+000	9	...........
	71	0.96	9.87864E-001	2.81674E-004	0.00000E+000	2.78256E-004	1.68088E-001	9.88265E-001	3.57800E+000	9	...........
	72	0.97333	9.89235E-001	2.81503E-004	0.00000E+000	2.78473E-004	1.68088E-001	9.89611E-001	3.57800E+000	9	...........
	73	0.98667	9.90507E-001	2.81548E-004	0.00000E+000	2.78876E-004	1.68088E-001	9.90879E-001	3.57800E+000	9	...........
	74	1	9.91794E-001	2.81100E-004	0.00000E+000	2.78794E-004	1.68088E-001	9.92165E-001	3.57800E+000	9	...........
	75	1.01333	9.93066E-001	2.81959E-004	0.00000E+000	2.80004E-004	1.68088E-001	9.93437E-001	3.57800E+000	9	...........
	76	1.02667	9.94328E-001	2.81942E-004	0.00000E+000	2.80343E-004	1.68088E-001	9.94704E-001	3.57800E+000	9	...........
	77	1.04	9.95599E-001	2.81233E-004	0.00000E+000	2.79995E-004	1.68088E-001	9.95969E-001	3.57800E+000	9	...........
	78	1.05333	9.96826E-001	2.80857E-004	0.00000E+000	2.79966E-004	1.68088E-001	9.97194E-001	3.57800E+000	9	...........
	79	1.06667	9.98044E-001	2.81005E-004	0.00000E+000	2.80456E-004	1.68088E-001	9.98437E-001	3.57800E+000	9	...........
	80	1.08	9.99272E-001	2.81163E-004	0.00000E+000	2.80958E-004	1.68088E-001	9.99641E-001	3.57800E+000	9	...........
	81	1.08333	1.00002E+000	2.80206E-004	0.00000E+000	2.80211E-004	1.68088E-001	1.00038E+000	3.57800E+000	9	...........
STARTTIMEOFFSET	QUANT	1068.772	Start Time Offset (s)
