EXPLAIN
TAG	PWR800_CHARGE
TITLE	LABEL	PWR Cyclic Charge Discharge (Cell) - Charge Step	Test &Identifier
DATE	LABEL	7-7-2017	Date
TIME	LABEL	16:17:22	Time
NOTES	NOTES	3	&Notes...
	supercap test cell
	2.8mg
	6M KOH
PSTAT	PSTAT	IFC5000-01520	Potentiostat
CAPACITY	QUANT	1.00000E-003	Capacity (A-hr)
CELLTYPE	SELECTOR	1	&Cell Type
WORKINGCONNECTION	SELECTOR	0	&Working Lead
MAXCHARGETIME	VARIABLEANDUNITS	1.00000E+002	s	1.00000E+002	second(s)	Max &Charge Time
CHARGECURRENT	QUANT	2.80000E-004	&Charge Current (A) 
VOLTAGEFINISH	TWOPARAM	F	1.00000E-003	3.60000E+003	&Voltage Finish	 I (A) < 	Max Time(s)
SAMPLETIME	QUANT	1.00000E-002	Sa&mple Period (s)
CHARGESTOPAT1	MULTIPARAM	4	1.00000E+000	Charge Stop At &1	Voltage > Limit	V
CHARGESTOPAT2	MULTIPARAM	0	0.00000E+000	Charge Stop At &2	None	N/A
AESBHCSELECTOR	TOGGLE	F	Save Both Half Cells
IRCOMP	TOGGLE	F	IR &Measure
EOC	QUANT	0	Open Circuit (V)
SEQUENCER	TOGGLE	TRUE	Run as Sequence
PSTATMODEL	IQUANT	53	Pstat Model
PSTATSECTION	LABEL	IFC5000-01520	Pstat Section
PSTATSERIALNO	LABEL	01520	Pstat Serial Number
CTRLMODE	IQUANT	0	Control Mode
ELECTROMETER	IQUANT	1	RE=0 or CS=1
IESTAB	IQUANT	0	I/E Stability
CASPEED	IQUANT	4	Control Amp Speed
CONVENTION	IQUANT	1	Current Convention
ICHRANGE	IQUANT	2	Ich Range
ICHRANGEMODE	TOGGLE	T	Ich Auto Range
ICHOFFSETENABLE	TOGGLE	F	Ich Offset Enable
ICHOFFSET	QUANT	0	Ich Offset (V)
ICHFILTER	IQUANT	1	Ich Filter
VCHRANGE	IQUANT	2	Vch Range
VCHRANGEMODE	TOGGLE	T	Vch Auto Range
VCHOFFSETENABLE	TOGGLE	F	Vch Offset Enable
VCHOFFSET	QUANT	0	Vch Offset (V)
VCHFILTER	IQUANT	1	Vch Filter
IERANGELOWERLIMIT	IQUANT	9	I/E Range Lower Limit
IERANGEMODE	TOGGLE	F	I/E AutoRange
IERANGE	IQUANT	9	I/E Range
ACHSELECT	IQUANT	1	Ach Select
ACHRANGE	IQUANT	2	Ach Range
ACHOFFSETENABLE	TOGGLE	F	Ach Offset Enable
ACHOFFSET	QUANT	0	Ach Offset (V)
ACHFILTER	IQUANT	1	Ach Filter
CABLEID	IQUANT	14	Cable ID
DCCALDATE	LABEL	5-7-2017	DC Calibration Date
ACCALDATE	LABEL	12/3/2015	AC Calibration Date
FRAMEWORKVERSION	QUANT	7.01	Framework Version
INSTRUMENTVERSION	LABEL	4.00	Instrument Version
CURVE	TABLE	62
	Pt	T	Vf	Im	Vu	Pwr	Sig	Ach	Temp	IERange	Over
	#	s	V	A	V	W	V	V	deg C	#	bits
	0	0.013333	6.08683E-001	2.81716E-004	0.00000E+000	1.71476E-004	1.68088E-001	6.08936E-001	3.57760E+000	9	...........
	1	0.026667	6.38958E-001	2.81007E-004	0.00000E+000	1.79552E-004	1.68088E-001	6.39223E-001	3.57760E+000	9	...........
	2	0.04	6.64995E-001	2.81077E-004	0.00000E+000	1.86915E-004	1.68088E-001	6.65245E-001	3.57760E+000	9	...........
	3	0.053333	6.87908E-001	2.80387E-004	0.00000E+000	1.92880E-004	1.68088E-001	6.88178E-001	3.57760E+000	9	...........
	4	0.066667	7.08390E-001	2.80726E-004	0.00000E+000	1.98863E-004	1.68088E-001	7.08656E-001	3.57760E+000	9	...........
	5	0.08	7.26949E-001	2.81405E-004	0.00000E+000	2.04567E-004	1.68088E-001	7.27196E-001	3.57760E+000	9	...........
	6	0.093333	7.43780E-001	2.81535E-004	0.00000E+000	2.09400E-004	1.68088E-001	7.44045E-001	3.57760E+000	9	...........
	7	0.106667	7.59216E-001	2.82000E-004	0.00000E+000	2.14099E-004	1.68088E-001	7.59500E-001	3.57760E+000	9	...........
	8	0.12	7.73392E-001	2.81814E-004	0.00000E+000	2.17953E-004	1.68088E-001	7.73715E-001	3.57760E+000	9	...........
	9	0.133333	7.86490E-001	2.80283E-004	0.00000E+000	2.20440E-004	1.68088E-001	7.86781E-001	3.57760E+000	9	...........
	10	0.146667	7.98629E-001	2.80819E-004	0.00000E+000	2.24270E-004	1.68088E-001	7.98925E-001	3.57760E+000	9	...........
	11	0.16	8.09846E-001	2.80757E-004	0.00000E+000	2.27370E-004	1.68088E-001	8.10178E-001	3.57760E+000	9	...........
	12	0.173333	8.20306E-001	2.81690E-004	0.00000E+000	2.31072E-004	1.68088E-001	8.20642E-001	3.57760E+000	9	...........
	13	0.186667	8.30073E-001	2.80333E-004	0.00000E+000	2.32697E-004	1.68088E-001	8.30410E-001	3.57760E+000	9	...........
	14	0.2	8.39177E-001	2.81512E-004	0.00000E+000	2.36238E-004	1.68088E-001	8.39537E-001	3.57760E+000	9	...........
	15	0.213333	8.47711E-001	2.80434E-004	0.00000E+000	2.37727E-004	1.68088E-001	8.48061E-001	3.57760E+000	9	...........
	16	0.226667	8.55716E-001	2.80787E-004	0.00000E+000	2.40274E-004	1.68088E-001	8.56074E-001	3.57760E+000	9	...........
	17	0.24	8.63228E-001	2.81291E-004	0.00000E+000	2.42818E-004	1.68088E-001	8.63557E-001	3.57760E+000	9	...........
	18	0.253333	8.70309E-001	2.80607E-004	0.00000E+000	2.44215E-004	1.68088E-001	8.70618E-001	3.57760E+000	9	...........
	19	0.266667	8.76949E-001	2.80740E-004	0.00000E+000	2.46194E-004	1.68088E-001	8.77258E-001	3.57760E+000	9	...........
	20	0.28	8.83193E-001	2.80567E-004	0.00000E+000	2.47795E-004	1.68088E-001	8.83517E-001	3.57760E+000	9	...........
	21	0.293333	8.89089E-001	2.80633E-004	0.00000E+000	2.49508E-004	1.68088E-001	8.89404E-001	3.57760E+000	9	...........
	22	0.306667	8.94653E-001	2.81317E-004	0.00000E+000	2.51681E-004	1.68088E-001	8.94979E-001	3.57760E+000	9	...........
	23	0.32	8.99925E-001	2.81109E-004	0.00000E+000	2.52977E-004	1.68088E-001	9.00237E-001	3.57760E+000	9	...........
	24	0.333333	9.04927E-001	2.80939E-004	0.00000E+000	2.54229E-004	1.68088E-001	9.05267E-001	3.57760E+000	9	...........
	25	0.346667	9.09724E-001	2.81246E-004	0.00000E+000	2.55856E-004	1.68088E-001	9.10029E-001	3.57760E+000	9	...........
	26	0.36	9.14209E-001	2.81329E-004	0.00000E+000	2.57194E-004	1.68088E-001	9.14540E-001	3.57760E+000	9	...........
	27	0.373333	9.18505E-001	2.80540E-004	0.00000E+000	2.57677E-004	1.68088E-001	9.18833E-001	3.57760E+000	9	...........
	28	0.386667	9.22670E-001	2.81578E-004	0.00000E+000	2.59804E-004	1.68088E-001	9.22954E-001	3.57760E+000	9	...........
	29	0.4	9.26551E-001	2.81426E-004	0.00000E+000	2.60756E-004	1.68088E-001	9.26858E-001	3.57760E+000	9	...........
	30	0.413333	9.30312E-001	2.80504E-004	0.00000E+000	2.60956E-004	1.68088E-001	9.30618E-001	3.57760E+000	9	...........
	31	0.426667	9.33894E-001	2.80515E-004	0.00000E+000	2.61971E-004	1.68088E-001	9.34219E-001	3.57760E+000	9	...........
	32	0.44	9.37310E-001	2.80452E-004	0.00000E+000	2.62871E-004	1.68088E-001	9.37639E-001	3.57760E+000	9	...........
	33	0.453333	9.40590E-001	2.80669E-004	0.00000E+000	2.63994E-004	1.68088E-001	9.40934E-001	3.57760E+000	9	...........
	34	0.466667	9.43739E-001	2.80275E-004	0.00000E+000	2.64506E-004	1.68088E-001	9.44080E-001	3.57760E+000	9	...........
	35	0.48	9.46793E-001	2.82220E-004	0.00000E+000	2.67204E-004	1.68088E-001	9.47124E-001	3.57760E+000	9	...........
	36	0.493333	9.49721E-001	2.81531E-004	0.00000E+000	2.67375E-004	1.68088E-001	9.50079E-001	3.57760E+000	9	...........
	37	0.506667	9.52560E-001	2.82066E-004	0.00000E+000	2.68685E-004	1.68088E-001	9.52924E-001	3.57760E+000	9	...........
	38	0.52	9.55266E-001	2.81245E-004	0.00000E+000	2.68664E-004	1.68088E-001	9.55616E-001	3.57760E+000	9	...........
	39	0.533333	9.57888E-001	2.80926E-004	0.00000E+000	2.69096E-004	1.68088E-001	9.58253E-001	3.57760E+000	9	...........
	40	0.546667	9.60398E-001	2.81825E-004	0.00000E+000	2.70664E-004	1.68088E-001	9.60760E-001	3.57760E+000	9	...........
	41	0.56	9.62832E-001	2.79995E-004	0.00000E+000	2.69588E-004	1.68088E-001	9.63215E-001	3.57760E+000	9	...........
	42	0.573333	9.65192E-001	2.81659E-004	0.00000E+000	2.71855E-004	1.68088E-001	9.65569E-001	3.57760E+000	9	...........
	43	0.586667	9.67489E-001	2.81764E-004	0.00000E+000	2.72603E-004	1.68088E-001	9.67855E-001	3.57760E+000	9	...........
	44	0.6	9.69710E-001	2.82277E-004	0.00000E+000	2.73726E-004	1.68088E-001	9.70076E-001	3.57760E+000	9	...........
	45	0.613333	9.71878E-001	2.81805E-004	0.00000E+000	2.73880E-004	1.68088E-001	9.72285E-001	3.57760E+000	9	...........
	46	0.626667	9.74053E-001	2.80669E-004	0.00000E+000	2.73386E-004	1.68088E-001	9.74405E-001	3.57760E+000	9	...........
	47	0.64	9.76130E-001	2.81375E-004	0.00000E+000	2.74659E-004	1.68088E-001	9.76485E-001	3.57760E+000	9	...........
	48	0.653333	9.78143E-001	2.80001E-004	0.00000E+000	2.73881E-004	1.68088E-001	9.78524E-001	3.57760E+000	9	...........
	49	0.666667	9.80135E-001	2.81432E-004	0.00000E+000	2.75841E-004	1.68088E-001	9.80488E-001	3.57760E+000	9	...........
	50	0.68	9.82073E-001	2.82641E-004	0.00000E+000	2.77574E-004	1.68088E-001	9.82424E-001	3.57760E+000	9	...........
	51	0.693333	9.83911E-001	2.81811E-004	0.00000E+000	2.77277E-004	1.68088E-001	9.84280E-001	3.57760E+000	9	...........
	52	0.706667	9.85713E-001	2.80842E-004	0.00000E+000	2.76830E-004	1.68088E-001	9.86094E-001	3.57760E+000	9	...........
	53	0.72	9.87476E-001	2.80326E-004	0.00000E+000	2.76815E-004	1.68088E-001	9.87859E-001	3.57760E+000	9	...........
	54	0.733333	9.89270E-001	2.80626E-004	0.00000E+000	2.77615E-004	1.68088E-001	9.89629E-001	3.57760E+000	9	...........
	55	0.746667	9.90986E-001	2.81749E-004	0.00000E+000	2.79210E-004	1.68088E-001	9.91339E-001	3.57760E+000	9	...........
	56	0.76	9.92632E-001	2.80905E-004	0.00000E+000	2.78836E-004	1.68088E-001	9.93009E-001	3.57760E+000	9	...........
	57	0.773333	9.94266E-001	2.81293E-004	0.00000E+000	2.79680E-004	1.68088E-001	9.94642E-001	3.57760E+000	9	...........
	58	0.786667	9.95873E-001	2.81961E-004	0.00000E+000	2.80797E-004	1.68088E-001	9.96230E-001	3.57760E+000	9	...........
	59	0.8	9.97430E-001	2.81374E-004	0.00000E+000	2.80651E-004	1.68088E-001	9.97822E-001	3.57760E+000	9	...........
	60	0.813333	9.98949E-001	2.80617E-004	0.00000E+000	2.80322E-004	1.68088E-001	9.99350E-001	3.57760E+000	9	...........
	61	0.816667	9.99926E-001	2.82198E-004	0.00000E+000	2.82177E-004	1.68088E-001	1.00029E+000	3.57760E+000	9	...........
STARTTIMEOFFSET	QUANT	1819.237	Start Time Offset (s)
