EXPLAIN
TAG	PWR800_CHARGE
TITLE	LABEL	PWR Cyclic Charge Discharge (Cell) - Charge Step	Test &Identifier
DATE	LABEL	7-7-2017	Date
TIME	LABEL	15:57:09	Time
NOTES	NOTES	3	&Notes...
	supercap test cell
	2.8mg
	6M KOH
PSTAT	PSTAT	IFC5000-01520	Potentiostat
CAPACITY	QUANT	1.00000E-003	Capacity (A-hr)
CELLTYPE	SELECTOR	1	&Cell Type
WORKINGCONNECTION	SELECTOR	0	&Working Lead
MAXCHARGETIME	VARIABLEANDUNITS	1.00000E+002	s	1.00000E+002	second(s)	Max &Charge Time
CHARGECURRENT	QUANT	2.80000E-004	&Charge Current (A) 
VOLTAGEFINISH	TWOPARAM	F	1.00000E-003	3.60000E+003	&Voltage Finish	 I (A) < 	Max Time(s)
SAMPLETIME	QUANT	1.00000E-002	Sa&mple Period (s)
CHARGESTOPAT1	MULTIPARAM	4	1.00000E+000	Charge Stop At &1	Voltage > Limit	V
CHARGESTOPAT2	MULTIPARAM	0	0.00000E+000	Charge Stop At &2	None	N/A
AESBHCSELECTOR	TOGGLE	F	Save Both Half Cells
IRCOMP	TOGGLE	F	IR &Measure
EOC	QUANT	0	Open Circuit (V)
SEQUENCER	TOGGLE	TRUE	Run as Sequence
PSTATMODEL	IQUANT	53	Pstat Model
PSTATSECTION	LABEL	IFC5000-01520	Pstat Section
PSTATSERIALNO	LABEL	01520	Pstat Serial Number
CTRLMODE	IQUANT	0	Control Mode
ELECTROMETER	IQUANT	1	RE=0 or CS=1
IESTAB	IQUANT	0	I/E Stability
CASPEED	IQUANT	4	Control Amp Speed
CONVENTION	IQUANT	1	Current Convention
ICHRANGE	IQUANT	2	Ich Range
ICHRANGEMODE	TOGGLE	T	Ich Auto Range
ICHOFFSETENABLE	TOGGLE	F	Ich Offset Enable
ICHOFFSET	QUANT	0	Ich Offset (V)
ICHFILTER	IQUANT	1	Ich Filter
VCHRANGE	IQUANT	2	Vch Range
VCHRANGEMODE	TOGGLE	T	Vch Auto Range
VCHOFFSETENABLE	TOGGLE	F	Vch Offset Enable
VCHOFFSET	QUANT	0	Vch Offset (V)
VCHFILTER	IQUANT	1	Vch Filter
IERANGELOWERLIMIT	IQUANT	9	I/E Range Lower Limit
IERANGEMODE	TOGGLE	F	I/E AutoRange
IERANGE	IQUANT	9	I/E Range
ACHSELECT	IQUANT	1	Ach Select
ACHRANGE	IQUANT	2	Ach Range
ACHOFFSETENABLE	TOGGLE	F	Ach Offset Enable
ACHOFFSET	QUANT	0	Ach Offset (V)
ACHFILTER	IQUANT	1	Ach Filter
CABLEID	IQUANT	14	Cable ID
DCCALDATE	LABEL	5-7-2017	DC Calibration Date
ACCALDATE	LABEL	12/3/2015	AC Calibration Date
FRAMEWORKVERSION	QUANT	7.01	Framework Version
INSTRUMENTVERSION	LABEL	4.00	Instrument Version
CURVE	TABLE	86
	Pt	T	Vf	Im	Vu	Pwr	Sig	Ach	Temp	IERange	Over
	#	s	V	A	V	W	V	V	deg C	#	bits
	0	0.013333	5.93933E-001	2.80840E-004	0.00000E+000	1.66800E-004	1.68088E-001	5.94238E-001	3.57900E+000	9	...........
	1	0.026667	6.23308E-001	2.81401E-004	0.00000E+000	1.75400E-004	1.68088E-001	6.23594E-001	3.57900E+000	9	...........
	2	0.04	6.48275E-001	2.81546E-004	0.00000E+000	1.82519E-004	1.68088E-001	6.48561E-001	3.57900E+000	9	...........
	3	0.053333	6.70042E-001	2.81197E-004	0.00000E+000	1.88414E-004	1.68088E-001	6.70345E-001	3.57900E+000	9	...........
	4	0.066667	6.89332E-001	2.80862E-004	0.00000E+000	1.93607E-004	1.68088E-001	6.89639E-001	3.57900E+000	9	...........
	5	0.08	7.06651E-001	2.81366E-004	0.00000E+000	1.98828E-004	1.68088E-001	7.06962E-001	3.57900E+000	9	...........
	6	0.093333	7.22356E-001	2.81390E-004	0.00000E+000	2.03264E-004	1.68088E-001	7.22676E-001	3.57900E+000	9	...........
	7	0.106667	7.36635E-001	2.81472E-004	0.00000E+000	2.07342E-004	1.68088E-001	7.36966E-001	3.57900E+000	9	...........
	8	0.12	7.49755E-001	2.80680E-004	0.00000E+000	2.10441E-004	1.68088E-001	7.50081E-001	3.57900E+000	9	...........
	9	0.133333	7.61874E-001	2.81455E-004	0.00000E+000	2.14434E-004	1.68088E-001	7.62192E-001	3.57900E+000	9	...........
	10	0.146667	7.73076E-001	2.81404E-004	0.00000E+000	2.17547E-004	1.68088E-001	7.73391E-001	3.57900E+000	9	...........
	11	0.16	7.83467E-001	2.81870E-004	0.00000E+000	2.20836E-004	1.68088E-001	7.83790E-001	3.57900E+000	9	...........
	12	0.173333	7.93142E-001	2.81245E-004	0.00000E+000	2.23067E-004	1.68088E-001	7.93464E-001	3.57900E+000	9	...........
	13	0.186667	8.02174E-001	2.80284E-004	0.00000E+000	2.24837E-004	1.68088E-001	8.02468E-001	3.57900E+000	9	...........
	14	0.2	8.10590E-001	2.81522E-004	0.00000E+000	2.28199E-004	1.68088E-001	8.10927E-001	3.57900E+000	9	...........
	15	0.213333	8.18533E-001	2.81651E-004	0.00000E+000	2.30541E-004	1.68088E-001	8.18846E-001	3.57900E+000	9	...........
	16	0.226667	8.25954E-001	2.82098E-004	0.00000E+000	2.33000E-004	1.68088E-001	8.26270E-001	3.57900E+000	9	...........
	17	0.24	8.32941E-001	2.80919E-004	0.00000E+000	2.33989E-004	1.68088E-001	8.33268E-001	3.57897E+000	9	...........
	18	0.253333	8.39554E-001	2.80075E-004	0.00000E+000	2.35138E-004	1.68088E-001	8.39875E-001	3.57800E+000	9	...........
	19	0.266667	8.45824E-001	2.80868E-004	0.00000E+000	2.37565E-004	1.68088E-001	8.46126E-001	3.57800E+000	9	...........
	20	0.28	8.51730E-001	2.80899E-004	0.00000E+000	2.39250E-004	1.68088E-001	8.52042E-001	3.57800E+000	9	...........
	21	0.293333	8.57277E-001	2.81838E-004	0.00000E+000	2.41613E-004	1.68088E-001	8.57602E-001	3.57800E+000	9	...........
	22	0.306667	8.62580E-001	2.80722E-004	0.00000E+000	2.42145E-004	1.68088E-001	8.62896E-001	3.57800E+000	9	...........
	23	0.32	8.67597E-001	2.81004E-004	0.00000E+000	2.43799E-004	1.68088E-001	8.67943E-001	3.57800E+000	9	...........
	24	0.333333	8.72416E-001	2.81242E-004	0.00000E+000	2.45360E-004	1.68088E-001	8.72762E-001	3.57800E+000	9	...........
	25	0.346667	8.76966E-001	2.80220E-004	0.00000E+000	2.45743E-004	1.68088E-001	8.77321E-001	3.57800E+000	9	...........
	26	0.36	8.81322E-001	2.81616E-004	0.00000E+000	2.48194E-004	1.68088E-001	8.81678E-001	3.57800E+000	9	...........
	27	0.373333	8.85486E-001	2.80382E-004	0.00000E+000	2.48275E-004	1.68088E-001	8.85848E-001	3.57800E+000	9	...........
	28	0.386667	8.89466E-001	2.81673E-004	0.00000E+000	2.50539E-004	1.68088E-001	8.89831E-001	3.57800E+000	9	...........
	29	0.4	8.93259E-001	2.81038E-004	0.00000E+000	2.51039E-004	1.68088E-001	8.93640E-001	3.57800E+000	9	...........
	30	0.413333	8.96994E-001	2.81040E-004	0.00000E+000	2.52091E-004	1.68088E-001	8.97364E-001	3.57800E+000	9	...........
	31	0.426667	9.00518E-001	2.80931E-004	0.00000E+000	2.52984E-004	1.68088E-001	9.00869E-001	3.57800E+000	9	...........
	32	0.44	9.03868E-001	2.81181E-004	0.00000E+000	2.54151E-004	1.68088E-001	9.04250E-001	3.57800E+000	9	...........
	33	0.453333	9.07145E-001	2.80967E-004	0.00000E+000	2.54878E-004	1.68088E-001	9.07498E-001	3.57800E+000	9	...........
	34	0.466667	9.10335E-001	2.81652E-004	0.00000E+000	2.56398E-004	1.68088E-001	9.10654E-001	3.57800E+000	9	...........
	35	0.48	9.13362E-001	2.81250E-004	0.00000E+000	2.56883E-004	1.68088E-001	9.13690E-001	3.57800E+000	9	...........
	36	0.493333	9.16329E-001	2.80443E-004	0.00000E+000	2.56978E-004	1.68088E-001	9.16628E-001	3.57800E+000	9	...........
	37	0.506667	9.19144E-001	2.81389E-004	0.00000E+000	2.58637E-004	1.68088E-001	9.19483E-001	3.57800E+000	9	...........
	38	0.52	9.21937E-001	2.81274E-004	0.00000E+000	2.59317E-004	1.68088E-001	9.22235E-001	3.57800E+000	9	...........
	39	0.533333	9.24578E-001	2.80707E-004	0.00000E+000	2.59536E-004	1.68088E-001	9.24863E-001	3.57800E+000	9	...........
	40	0.546667	9.27144E-001	2.81196E-004	0.00000E+000	2.60709E-004	1.68088E-001	9.27444E-001	3.57800E+000	9	...........
	41	0.56	9.29634E-001	2.81128E-004	0.00000E+000	2.61346E-004	1.68088E-001	9.29919E-001	3.57800E+000	9	...........
	42	0.573333	9.32080E-001	2.80953E-004	0.00000E+000	2.61871E-004	1.68088E-001	9.32390E-001	3.57800E+000	9	...........
	43	0.586667	9.34394E-001	2.81289E-004	0.00000E+000	2.62835E-004	1.68088E-001	9.34717E-001	3.57800E+000	9	...........
	44	0.6	9.36681E-001	2.81550E-004	0.00000E+000	2.63723E-004	1.68088E-001	9.37034E-001	3.57800E+000	9	...........
	45	0.613333	9.38917E-001	2.81349E-004	0.00000E+000	2.64164E-004	1.68088E-001	9.39266E-001	3.57800E+000	9	...........
	46	0.626667	9.41087E-001	2.81552E-004	0.00000E+000	2.64965E-004	1.68088E-001	9.41451E-001	3.57800E+000	9	...........
	47	0.64	9.43205E-001	2.81994E-004	0.00000E+000	2.65978E-004	1.68088E-001	9.43558E-001	3.57800E+000	9	...........
	48	0.653333	9.45292E-001	2.81338E-004	0.00000E+000	2.65946E-004	1.68088E-001	9.45669E-001	3.57800E+000	9	...........
	49	0.666667	9.47387E-001	2.81123E-004	0.00000E+000	2.66332E-004	1.68088E-001	9.47718E-001	3.57800E+000	9	...........
	50	0.68	9.49301E-001	2.81399E-004	0.00000E+000	2.67133E-004	1.68088E-001	9.49681E-001	3.57800E+000	9	...........
	51	0.693333	9.51277E-001	2.81433E-004	0.00000E+000	2.67720E-004	1.68088E-001	9.51646E-001	3.57800E+000	9	...........
	52	0.706667	9.53174E-001	2.82051E-004	0.00000E+000	2.68844E-004	1.68088E-001	9.53539E-001	3.57800E+000	9	...........
	53	0.72	9.55018E-001	2.81196E-004	0.00000E+000	2.68547E-004	1.68088E-001	9.55364E-001	3.57800E+000	9	...........
	54	0.733333	9.56824E-001	2.81031E-004	0.00000E+000	2.68898E-004	1.68088E-001	9.57188E-001	3.57800E+000	9	...........
	55	0.746667	9.58637E-001	2.80862E-004	0.00000E+000	2.69244E-004	1.68088E-001	9.58978E-001	3.57800E+000	9	...........
	56	0.76	9.60381E-001	2.81823E-004	0.00000E+000	2.70658E-004	1.68088E-001	9.60765E-001	3.57800E+000	9	...........
	57	0.773333	9.62076E-001	2.80525E-004	0.00000E+000	2.69886E-004	1.68088E-001	9.62458E-001	3.57800E+000	9	...........
	58	0.786667	9.63739E-001	2.81771E-004	0.00000E+000	2.71554E-004	1.68088E-001	9.64119E-001	3.57800E+000	9	...........
	59	0.8	9.65399E-001	2.81727E-004	0.00000E+000	2.71980E-004	1.68088E-001	9.65786E-001	3.57800E+000	9	...........
	60	0.813333	9.67071E-001	2.80990E-004	0.00000E+000	2.71737E-004	1.68088E-001	9.67431E-001	3.57800E+000	9	...........
	61	0.826667	9.68661E-001	2.81954E-004	0.00000E+000	2.73117E-004	1.68088E-001	9.69050E-001	3.57800E+000	9	...........
	62	0.84	9.70245E-001	2.81389E-004	0.00000E+000	2.73016E-004	1.68088E-001	9.70624E-001	3.57800E+000	9	...........
	63	0.853333	9.71831E-001	2.81519E-004	0.00000E+000	2.73589E-004	1.68088E-001	9.72233E-001	3.57800E+000	9	...........
	64	0.866667	9.73371E-001	2.80409E-004	0.00000E+000	2.72942E-004	1.68088E-001	9.73740E-001	3.57800E+000	9	...........
	65	0.88	9.74868E-001	2.83093E-004	0.00000E+000	2.75979E-004	1.68088E-001	9.75208E-001	3.57800E+000	9	...........
	66	0.893333	9.76310E-001	2.80973E-004	0.00000E+000	2.74317E-004	1.68088E-001	9.76658E-001	3.57800E+000	9	...........
	67	0.906667	9.77734E-001	2.80772E-004	0.00000E+000	2.74520E-004	1.68088E-001	9.78100E-001	3.57800E+000	9	...........
	68	0.92	9.79172E-001	2.80468E-004	0.00000E+000	2.74626E-004	1.68088E-001	9.79515E-001	3.57800E+000	9	...........
	69	0.933333	9.80535E-001	2.81243E-004	0.00000E+000	2.75769E-004	1.68088E-001	9.80876E-001	3.57800E+000	9	...........
	70	0.946667	9.81894E-001	2.81358E-004	0.00000E+000	2.76263E-004	1.68088E-001	9.82217E-001	3.57800E+000	9	...........
	71	0.96	9.83226E-001	2.81485E-004	0.00000E+000	2.76763E-004	1.68088E-001	9.83569E-001	3.57800E+000	9	...........
	72	0.97333	9.84525E-001	2.81695E-004	0.00000E+000	2.77336E-004	1.68088E-001	9.84908E-001	3.57800E+000	9	...........
	73	0.98667	9.85888E-001	2.81455E-004	0.00000E+000	2.77484E-004	1.68088E-001	9.86259E-001	3.57800E+000	9	...........
	74	1	9.87208E-001	2.81538E-004	0.00000E+000	2.77936E-004	1.68088E-001	9.87607E-001	3.57800E+000	9	...........
	75	1.01333	9.88571E-001	2.81738E-004	0.00000E+000	2.78518E-004	1.68088E-001	9.88920E-001	3.57800E+000	9	...........
	76	1.02667	9.89822E-001	2.81522E-004	0.00000E+000	2.78657E-004	1.68088E-001	9.90200E-001	3.57800E+000	9	...........
	77	1.04	9.91089E-001	2.81111E-004	0.00000E+000	2.78606E-004	1.68088E-001	9.91464E-001	3.57800E+000	9	...........
	78	1.05333	9.92334E-001	2.80231E-004	0.00000E+000	2.78083E-004	1.68088E-001	9.92729E-001	3.57800E+000	9	...........
	79	1.06667	9.93577E-001	2.80804E-004	0.00000E+000	2.79001E-004	1.68088E-001	9.93981E-001	3.57800E+000	9	...........
	80	1.08	9.94784E-001	2.81977E-004	0.00000E+000	2.80507E-004	1.68088E-001	9.95180E-001	3.57800E+000	9	...........
	81	1.09333	9.95973E-001	2.80663E-004	0.00000E+000	2.79532E-004	1.68088E-001	9.96365E-001	3.57800E+000	9	...........
	82	1.10667	9.97140E-001	2.81473E-004	0.00000E+000	2.80668E-004	1.68088E-001	9.97549E-001	3.57800E+000	9	...........
	83	1.12	9.98303E-001	2.80974E-004	0.00000E+000	2.80497E-004	1.68088E-001	9.98695E-001	3.57800E+000	9	...........
	84	1.13333	9.99443E-001	2.81360E-004	0.00000E+000	2.81203E-004	1.68088E-001	9.99831E-001	3.57800E+000	9	...........
	85	1.135	1.00006E+000	2.79960E-004	0.00000E+000	2.79976E-004	1.68088E-001	1.00046E+000	3.57800E+000	9	...........
STARTTIMEOFFSET	QUANT	987.275	Start Time Offset (s)
