EXPLAIN
TAG	PWR800_CHARGE
TITLE	LABEL	PWR Cyclic Charge Discharge (Cell) - Charge Step	Test &Identifier
DATE	LABEL	7-7-2017	Date
TIME	LABEL	15:59:25	Time
NOTES	NOTES	3	&Notes...
	supercap test cell
	2.8mg
	6M KOH
PSTAT	PSTAT	IFC5000-01520	Potentiostat
CAPACITY	QUANT	1.00000E-003	Capacity (A-hr)
CELLTYPE	SELECTOR	1	&Cell Type
WORKINGCONNECTION	SELECTOR	0	&Working Lead
MAXCHARGETIME	VARIABLEANDUNITS	1.00000E+002	s	1.00000E+002	second(s)	Max &Charge Time
CHARGECURRENT	QUANT	2.80000E-004	&Charge Current (A) 
VOLTAGEFINISH	TWOPARAM	F	1.00000E-003	3.60000E+003	&Voltage Finish	 I (A) < 	Max Time(s)
SAMPLETIME	QUANT	1.00000E-002	Sa&mple Period (s)
CHARGESTOPAT1	MULTIPARAM	4	1.00000E+000	Charge Stop At &1	Voltage > Limit	V
CHARGESTOPAT2	MULTIPARAM	0	0.00000E+000	Charge Stop At &2	None	N/A
AESBHCSELECTOR	TOGGLE	F	Save Both Half Cells
IRCOMP	TOGGLE	F	IR &Measure
EOC	QUANT	0	Open Circuit (V)
SEQUENCER	TOGGLE	TRUE	Run as Sequence
PSTATMODEL	IQUANT	53	Pstat Model
PSTATSECTION	LABEL	IFC5000-01520	Pstat Section
PSTATSERIALNO	LABEL	01520	Pstat Serial Number
CTRLMODE	IQUANT	0	Control Mode
ELECTROMETER	IQUANT	1	RE=0 or CS=1
IESTAB	IQUANT	0	I/E Stability
CASPEED	IQUANT	4	Control Amp Speed
CONVENTION	IQUANT	1	Current Convention
ICHRANGE	IQUANT	2	Ich Range
ICHRANGEMODE	TOGGLE	T	Ich Auto Range
ICHOFFSETENABLE	TOGGLE	F	Ich Offset Enable
ICHOFFSET	QUANT	0	Ich Offset (V)
ICHFILTER	IQUANT	1	Ich Filter
VCHRANGE	IQUANT	2	Vch Range
VCHRANGEMODE	TOGGLE	T	Vch Auto Range
VCHOFFSETENABLE	TOGGLE	F	Vch Offset Enable
VCHOFFSET	QUANT	0	Vch Offset (V)
VCHFILTER	IQUANT	1	Vch Filter
IERANGELOWERLIMIT	IQUANT	9	I/E Range Lower Limit
IERANGEMODE	TOGGLE	F	I/E AutoRange
IERANGE	IQUANT	9	I/E Range
ACHSELECT	IQUANT	1	Ach Select
ACHRANGE	IQUANT	2	Ach Range
ACHOFFSETENABLE	TOGGLE	F	Ach Offset Enable
ACHOFFSET	QUANT	0	Ach Offset (V)
ACHFILTER	IQUANT	1	Ach Filter
CABLEID	IQUANT	14	Cable ID
DCCALDATE	LABEL	5-7-2017	DC Calibration Date
ACCALDATE	LABEL	12/3/2015	AC Calibration Date
FRAMEWORKVERSION	QUANT	7.01	Framework Version
INSTRUMENTVERSION	LABEL	4.00	Instrument Version
CURVE	TABLE	81
	Pt	T	Vf	Im	Vu	Pwr	Sig	Ach	Temp	IERange	Over
	#	s	V	A	V	W	V	V	deg C	#	bits
	0	0.013333	5.96593E-001	2.80199E-004	0.00000E+000	1.67165E-004	1.68088E-001	5.96856E-001	3.57890E+000	9	...........
	1	0.026667	6.26135E-001	2.81122E-004	0.00000E+000	1.76020E-004	1.68088E-001	6.26383E-001	3.57890E+000	9	...........
	2	0.04	6.51278E-001	2.81159E-004	0.00000E+000	1.83112E-004	1.68088E-001	6.51551E-001	3.57890E+000	9	...........
	3	0.053333	6.73236E-001	2.81308E-004	0.00000E+000	1.89387E-004	1.68088E-001	6.73499E-001	3.57890E+000	9	...........
	4	0.066667	6.92712E-001	2.80696E-004	0.00000E+000	1.94442E-004	1.68088E-001	6.92979E-001	3.57890E+000	9	...........
	5	0.08	7.10211E-001	2.81444E-004	0.00000E+000	1.99885E-004	1.68088E-001	7.10496E-001	3.57890E+000	9	...........
	6	0.093333	7.26122E-001	2.80196E-004	0.00000E+000	2.03456E-004	1.68088E-001	7.26390E-001	3.57890E+000	9	...........
	7	0.106667	7.40593E-001	2.80420E-004	0.00000E+000	2.07677E-004	1.68088E-001	7.40869E-001	3.57890E+000	9	...........
	8	0.12	7.53896E-001	2.81370E-004	0.00000E+000	2.12124E-004	1.68088E-001	7.54179E-001	3.57890E+000	9	...........
	9	0.133333	7.66160E-001	2.82415E-004	0.00000E+000	2.16375E-004	1.68088E-001	7.66444E-001	3.57890E+000	9	...........
	10	0.146667	7.77509E-001	2.81791E-004	0.00000E+000	2.19095E-004	1.68088E-001	7.77811E-001	3.57890E+000	9	...........
	11	0.16	7.88016E-001	2.80887E-004	0.00000E+000	2.21343E-004	1.68088E-001	7.88311E-001	3.57890E+000	9	...........
	12	0.173333	7.97813E-001	2.80668E-004	0.00000E+000	2.23920E-004	1.68088E-001	7.98108E-001	3.57890E+000	9	...........
	13	0.186667	8.06927E-001	2.80627E-004	0.00000E+000	2.26446E-004	1.68088E-001	8.07230E-001	3.57890E+000	9	...........
	14	0.2	8.15454E-001	2.80743E-004	0.00000E+000	2.28933E-004	1.68088E-001	8.15756E-001	3.57890E+000	9	...........
	15	0.213333	8.23511E-001	2.82339E-004	0.00000E+000	2.32509E-004	1.68088E-001	8.23816E-001	3.57890E+000	9	...........
	16	0.226667	8.31032E-001	2.82551E-004	0.00000E+000	2.34809E-004	1.68088E-001	8.31336E-001	3.57890E+000	9	...........
	17	0.24	8.38106E-001	2.81441E-004	0.00000E+000	2.35877E-004	1.68088E-001	8.38419E-001	3.57890E+000	9	...........
	18	0.253333	8.44784E-001	2.80482E-004	0.00000E+000	2.36947E-004	1.68088E-001	8.45119E-001	3.57890E+000	9	...........
	19	0.266667	8.51083E-001	2.81346E-004	0.00000E+000	2.39449E-004	1.68088E-001	8.51422E-001	3.57890E+000	9	...........
	20	0.28	8.57027E-001	2.80368E-004	0.00000E+000	2.40283E-004	1.68088E-001	8.57371E-001	3.57890E+000	9	...........
	21	0.293333	8.62677E-001	2.81246E-004	0.00000E+000	2.42624E-004	1.68088E-001	8.63016E-001	3.57890E+000	9	...........
	22	0.306667	8.68050E-001	2.80337E-004	0.00000E+000	2.43346E-004	1.68088E-001	8.68388E-001	3.57890E+000	9	...........
	23	0.32	8.73152E-001	2.81102E-004	0.00000E+000	2.45445E-004	1.68088E-001	8.73498E-001	3.57890E+000	9	...........
	24	0.333333	8.78007E-001	2.80875E-004	0.00000E+000	2.46610E-004	1.68088E-001	8.78339E-001	3.57890E+000	9	...........
	25	0.346667	8.82590E-001	2.80744E-004	0.00000E+000	2.47782E-004	1.68088E-001	8.82946E-001	3.57890E+000	9	...........
	26	0.36	8.86981E-001	2.81152E-004	0.00000E+000	2.49377E-004	1.68088E-001	8.87326E-001	3.57890E+000	9	...........
	27	0.373333	8.91172E-001	2.80461E-004	0.00000E+000	2.49939E-004	1.68088E-001	8.91510E-001	3.57890E+000	9	...........
	28	0.386667	8.95189E-001	2.81417E-004	0.00000E+000	2.51921E-004	1.68088E-001	8.95542E-001	3.57890E+000	9	...........
	29	0.4	8.99016E-001	2.81031E-004	0.00000E+000	2.52652E-004	1.68088E-001	8.99362E-001	3.57890E+000	9	...........
	30	0.413333	9.02679E-001	2.80852E-004	0.00000E+000	2.53519E-004	1.68088E-001	9.03020E-001	3.57890E+000	9	...........
	31	0.426667	9.06213E-001	2.80076E-004	0.00000E+000	2.53808E-004	1.68088E-001	9.06570E-001	3.57890E+000	9	...........
	32	0.44	9.09631E-001	2.81063E-004	0.00000E+000	2.55663E-004	1.68088E-001	9.09940E-001	3.57852E+000	9	...........
	33	0.453333	9.12874E-001	2.80607E-004	0.00000E+000	2.56159E-004	1.68088E-001	9.13218E-001	3.57840E+000	9	...........
	34	0.466667	9.16004E-001	2.80557E-004	0.00000E+000	2.56992E-004	1.68088E-001	9.16363E-001	3.57840E+000	9	...........
	35	0.48	9.19056E-001	2.81544E-004	0.00000E+000	2.58755E-004	1.68088E-001	9.19400E-001	3.57840E+000	9	...........
	36	0.493333	9.22037E-001	2.80242E-004	0.00000E+000	2.58393E-004	1.68088E-001	9.22317E-001	3.57840E+000	9	...........
	37	0.506667	9.24843E-001	2.80891E-004	0.00000E+000	2.59780E-004	1.68088E-001	9.25175E-001	3.57840E+000	9	...........
	38	0.52	9.27589E-001	2.80992E-004	0.00000E+000	2.60645E-004	1.68088E-001	9.27919E-001	3.57840E+000	9	...........
	39	0.533333	9.30254E-001	2.79792E-004	0.00000E+000	2.60277E-004	1.68088E-001	9.30583E-001	3.57840E+000	9	...........
	40	0.546667	9.32851E-001	2.80321E-004	0.00000E+000	2.61498E-004	1.68088E-001	9.33190E-001	3.57840E+000	9	...........
	41	0.56	9.35325E-001	2.81655E-004	0.00000E+000	2.63438E-004	1.68088E-001	9.35672E-001	3.57840E+000	9	...........
	42	0.573333	9.37738E-001	2.80253E-004	0.00000E+000	2.62804E-004	1.68088E-001	9.38103E-001	3.57840E+000	9	...........
	43	0.586667	9.40093E-001	2.81895E-004	0.00000E+000	2.65008E-004	1.68088E-001	9.40465E-001	3.57840E+000	9	...........
	44	0.6	9.42364E-001	2.80658E-004	0.00000E+000	2.64482E-004	1.68088E-001	9.42724E-001	3.57840E+000	9	...........
	45	0.613333	9.44598E-001	2.81401E-004	0.00000E+000	2.65811E-004	1.68088E-001	9.44980E-001	3.57840E+000	9	...........
	46	0.626667	9.46814E-001	2.81122E-004	0.00000E+000	2.66170E-004	1.68088E-001	9.47189E-001	3.57840E+000	9	...........
	47	0.64	9.48933E-001	2.81688E-004	0.00000E+000	2.67303E-004	1.68088E-001	9.49294E-001	3.57840E+000	9	...........
	48	0.653333	9.50982E-001	2.81405E-004	0.00000E+000	2.67611E-004	1.68088E-001	9.51336E-001	3.57840E+000	9	...........
	49	0.666667	9.52989E-001	2.82144E-004	0.00000E+000	2.68880E-004	1.68088E-001	9.53368E-001	3.57840E+000	9	...........
	50	0.68	9.54964E-001	2.82346E-004	0.00000E+000	2.69631E-004	1.68088E-001	9.55325E-001	3.57840E+000	9	...........
	51	0.693333	9.56875E-001	2.82077E-004	0.00000E+000	2.69913E-004	1.68088E-001	9.57241E-001	3.57840E+000	9	...........
	52	0.706667	9.58747E-001	2.80367E-004	0.00000E+000	2.68801E-004	1.68088E-001	9.59115E-001	3.57840E+000	9	...........
	53	0.72	9.60584E-001	2.80220E-004	0.00000E+000	2.69175E-004	1.68088E-001	9.60955E-001	3.57840E+000	9	...........
	54	0.733333	9.62392E-001	2.81096E-004	0.00000E+000	2.70525E-004	1.68088E-001	9.62750E-001	3.57840E+000	9	...........
	55	0.746667	9.64175E-001	2.80812E-004	0.00000E+000	2.70752E-004	1.68088E-001	9.64559E-001	3.57840E+000	9	...........
	56	0.76	9.65913E-001	2.81172E-004	0.00000E+000	2.71588E-004	1.68088E-001	9.66284E-001	3.57840E+000	9	...........
	57	0.773333	9.67594E-001	2.80803E-004	0.00000E+000	2.71704E-004	1.68088E-001	9.67990E-001	3.57840E+000	9	...........
	58	0.786667	9.69240E-001	2.81400E-004	0.00000E+000	2.72744E-004	1.68088E-001	9.69625E-001	3.57840E+000	9	...........
	59	0.8	9.70830E-001	2.81622E-004	0.00000E+000	2.73407E-004	1.68088E-001	9.71244E-001	3.57840E+000	9	...........
	60	0.813333	9.72433E-001	2.80813E-004	0.00000E+000	2.73072E-004	1.68088E-001	9.72830E-001	3.57840E+000	9	...........
	61	0.826667	9.74028E-001	2.81180E-004	0.00000E+000	2.73878E-004	1.68088E-001	9.74408E-001	3.57840E+000	9	...........
	62	0.84	9.75607E-001	2.82440E-004	0.00000E+000	2.75551E-004	1.68088E-001	9.75970E-001	3.57840E+000	9	...........
	63	0.853333	9.77124E-001	2.81830E-004	0.00000E+000	2.75382E-004	1.68088E-001	9.77453E-001	3.57840E+000	9	...........
	64	0.866667	9.78571E-001	2.79965E-004	0.00000E+000	2.73965E-004	1.68088E-001	9.78928E-001	3.57840E+000	9	...........
	65	0.88	9.80060E-001	2.80832E-004	0.00000E+000	2.75233E-004	1.68088E-001	9.80401E-001	3.57840E+000	9	...........
	66	0.893333	9.81523E-001	2.80328E-004	0.00000E+000	2.75149E-004	1.68088E-001	9.81870E-001	3.57840E+000	9	...........
	67	0.906667	9.82961E-001	2.81736E-004	0.00000E+000	2.76935E-004	1.68088E-001	9.83305E-001	3.57840E+000	9	...........
	68	0.92	9.84383E-001	2.80160E-004	0.00000E+000	2.75785E-004	1.68088E-001	9.84745E-001	3.57840E+000	9	...........
	69	0.933333	9.85746E-001	2.81708E-004	0.00000E+000	2.77692E-004	1.68088E-001	9.86135E-001	3.57840E+000	9	...........
	70	0.946667	9.87095E-001	2.81140E-004	0.00000E+000	2.77512E-004	1.68088E-001	9.87492E-001	3.57840E+000	9	...........
	71	0.96	9.88454E-001	2.81236E-004	0.00000E+000	2.77989E-004	1.68088E-001	9.88839E-001	3.57840E+000	9	...........
	72	0.97333	9.89780E-001	2.80611E-004	0.00000E+000	2.77743E-004	1.68088E-001	9.90197E-001	3.57840E+000	9	...........
	73	0.98667	9.91071E-001	2.81549E-004	0.00000E+000	2.79035E-004	1.68088E-001	9.91464E-001	3.57840E+000	9	...........
	74	1	9.92347E-001	2.81444E-004	0.00000E+000	2.79290E-004	1.68088E-001	9.92737E-001	3.57840E+000	9	...........
	75	1.01333	9.93592E-001	2.81914E-004	0.00000E+000	2.80108E-004	1.68088E-001	9.93992E-001	3.57840E+000	9	...........
	76	1.02667	9.94834E-001	2.80124E-004	0.00000E+000	2.78677E-004	1.68088E-001	9.95191E-001	3.57840E+000	9	...........
	77	1.04	9.96061E-001	2.82017E-004	0.00000E+000	2.80906E-004	1.68088E-001	9.96421E-001	3.57840E+000	9	...........
	78	1.05333	9.97280E-001	2.81021E-004	0.00000E+000	2.80257E-004	1.68088E-001	9.97654E-001	3.57840E+000	9	...........
	79	1.06667	9.98464E-001	2.81410E-004	0.00000E+000	2.80977E-004	1.68088E-001	9.98834E-001	3.57840E+000	9	...........
	80	1.07833	9.99584E-001	2.80928E-004	0.00000E+000	2.80812E-004	1.68088E-001	9.99957E-001	3.57840E+000	9	...........
STARTTIMEOFFSET	QUANT	1085	Start Time Offset (s)
