EXPLAIN
TAG	PWR800_CHARGE
TITLE	LABEL	PWR Cyclic Charge Discharge (Cell) - Charge Step	Test &Identifier
DATE	LABEL	7-7-2017	Date
TIME	LABEL	16:15:40	Time
NOTES	NOTES	3	&Notes...
	supercap test cell
	2.8mg
	6M KOH
PSTAT	PSTAT	IFC5000-01520	Potentiostat
CAPACITY	QUANT	1.00000E-003	Capacity (A-hr)
CELLTYPE	SELECTOR	1	&Cell Type
WORKINGCONNECTION	SELECTOR	0	&Working Lead
MAXCHARGETIME	VARIABLEANDUNITS	1.00000E+002	s	1.00000E+002	second(s)	Max &Charge Time
CHARGECURRENT	QUANT	2.80000E-004	&Charge Current (A) 
VOLTAGEFINISH	TWOPARAM	F	1.00000E-003	3.60000E+003	&Voltage Finish	 I (A) < 	Max Time(s)
SAMPLETIME	QUANT	1.00000E-002	Sa&mple Period (s)
CHARGESTOPAT1	MULTIPARAM	4	1.00000E+000	Charge Stop At &1	Voltage > Limit	V
CHARGESTOPAT2	MULTIPARAM	0	0.00000E+000	Charge Stop At &2	None	N/A
AESBHCSELECTOR	TOGGLE	F	Save Both Half Cells
IRCOMP	TOGGLE	F	IR &Measure
EOC	QUANT	0	Open Circuit (V)
SEQUENCER	TOGGLE	TRUE	Run as Sequence
PSTATMODEL	IQUANT	53	Pstat Model
PSTATSECTION	LABEL	IFC5000-01520	Pstat Section
PSTATSERIALNO	LABEL	01520	Pstat Serial Number
CTRLMODE	IQUANT	0	Control Mode
ELECTROMETER	IQUANT	1	RE=0 or CS=1
IESTAB	IQUANT	0	I/E Stability
CASPEED	IQUANT	4	Control Amp Speed
CONVENTION	IQUANT	1	Current Convention
ICHRANGE	IQUANT	2	Ich Range
ICHRANGEMODE	TOGGLE	T	Ich Auto Range
ICHOFFSETENABLE	TOGGLE	F	Ich Offset Enable
ICHOFFSET	QUANT	0	Ich Offset (V)
ICHFILTER	IQUANT	1	Ich Filter
VCHRANGE	IQUANT	2	Vch Range
VCHRANGEMODE	TOGGLE	T	Vch Auto Range
VCHOFFSETENABLE	TOGGLE	F	Vch Offset Enable
VCHOFFSET	QUANT	0	Vch Offset (V)
VCHFILTER	IQUANT	1	Vch Filter
IERANGELOWERLIMIT	IQUANT	9	I/E Range Lower Limit
IERANGEMODE	TOGGLE	F	I/E AutoRange
IERANGE	IQUANT	9	I/E Range
ACHSELECT	IQUANT	1	Ach Select
ACHRANGE	IQUANT	2	Ach Range
ACHOFFSETENABLE	TOGGLE	F	Ach Offset Enable
ACHOFFSET	QUANT	0	Ach Offset (V)
ACHFILTER	IQUANT	1	Ach Filter
CABLEID	IQUANT	14	Cable ID
DCCALDATE	LABEL	5-7-2017	DC Calibration Date
ACCALDATE	LABEL	12/3/2015	AC Calibration Date
FRAMEWORKVERSION	QUANT	7.01	Framework Version
INSTRUMENTVERSION	LABEL	4.00	Instrument Version
CURVE	TABLE	64
	Pt	T	Vf	Im	Vu	Pwr	Sig	Ach	Temp	IERange	Over
	#	s	V	A	V	W	V	V	deg C	#	bits
	0	0.013333	6.07941E-001	2.79877E-004	0.00000E+000	1.70149E-004	1.68088E-001	6.08188E-001	3.57880E+000	9	...........
	1	0.026667	6.38165E-001	2.81344E-004	0.00000E+000	1.79544E-004	1.68088E-001	6.38389E-001	3.57880E+000	9	...........
	2	0.04	6.64104E-001	2.80690E-004	0.00000E+000	1.86407E-004	1.68088E-001	6.64340E-001	3.57880E+000	9	...........
	3	0.053333	6.86938E-001	2.81371E-004	0.00000E+000	1.93284E-004	1.68088E-001	6.87180E-001	3.57880E+000	9	...........
	4	0.066667	7.07304E-001	2.81623E-004	0.00000E+000	1.99193E-004	1.68088E-001	7.07541E-001	3.57880E+000	9	...........
	5	0.08	7.25723E-001	2.80648E-004	0.00000E+000	2.03673E-004	1.68088E-001	7.25960E-001	3.57880E+000	9	...........
	6	0.093333	7.42456E-001	2.81925E-004	0.00000E+000	2.09317E-004	1.68088E-001	7.42723E-001	3.57880E+000	9	...........
	7	0.106667	7.57808E-001	2.79882E-004	0.00000E+000	2.12097E-004	1.68088E-001	7.58072E-001	3.57880E+000	9	...........
	8	0.12	7.71913E-001	2.81449E-004	0.00000E+000	2.17254E-004	1.68088E-001	7.72185E-001	3.57880E+000	9	...........
	9	0.133333	7.84918E-001	2.80578E-004	0.00000E+000	2.20231E-004	1.68088E-001	7.85169E-001	3.57880E+000	9	...........
	10	0.146667	7.96956E-001	2.80679E-004	0.00000E+000	2.23689E-004	1.68088E-001	7.97231E-001	3.57880E+000	9	...........
	11	0.16	8.08126E-001	2.80458E-004	0.00000E+000	2.26646E-004	1.68088E-001	8.08390E-001	3.57880E+000	9	...........
	12	0.173333	8.18529E-001	2.81497E-004	0.00000E+000	2.30414E-004	1.68088E-001	8.18813E-001	3.57880E+000	9	...........
	13	0.186667	8.28229E-001	2.80201E-004	0.00000E+000	2.32071E-004	1.68088E-001	8.28527E-001	3.57880E+000	9	...........
	14	0.2	8.37302E-001	2.80889E-004	0.00000E+000	2.35189E-004	1.68088E-001	8.37597E-001	3.57880E+000	9	...........
	15	0.213333	8.45771E-001	2.81673E-004	0.00000E+000	2.38231E-004	1.68088E-001	8.46098E-001	3.57880E+000	9	...........
	16	0.226667	8.53682E-001	2.80499E-004	0.00000E+000	2.39457E-004	1.68088E-001	8.54012E-001	3.57880E+000	9	...........
	17	0.24	8.61137E-001	2.81090E-004	0.00000E+000	2.42057E-004	1.68088E-001	8.61489E-001	3.57880E+000	9	...........
	18	0.253333	8.68181E-001	2.80713E-004	0.00000E+000	2.43709E-004	1.68088E-001	8.68503E-001	3.57880E+000	9	...........
	19	0.266667	8.74798E-001	2.80806E-004	0.00000E+000	2.45649E-004	1.68088E-001	8.75134E-001	3.57880E+000	9	...........
	20	0.28	8.81035E-001	2.80975E-004	0.00000E+000	2.47549E-004	1.68088E-001	8.81401E-001	3.57880E+000	9	...........
	21	0.293333	8.86904E-001	2.81099E-004	0.00000E+000	2.49308E-004	1.68088E-001	8.87282E-001	3.57880E+000	9	...........
	22	0.306667	8.92414E-001	2.80887E-004	0.00000E+000	2.50667E-004	1.68088E-001	8.92794E-001	3.57880E+000	9	...........
	23	0.32	8.97611E-001	2.79486E-004	0.00000E+000	2.50870E-004	1.68088E-001	8.97984E-001	3.57880E+000	9	...........
	24	0.333333	9.02554E-001	2.82249E-004	0.00000E+000	2.54745E-004	1.68088E-001	9.02937E-001	3.57880E+000	9	...........
	25	0.346667	9.07233E-001	2.80558E-004	0.00000E+000	2.54532E-004	1.68088E-001	9.07630E-001	3.57880E+000	9	...........
	26	0.36	9.11743E-001	2.80140E-004	0.00000E+000	2.55415E-004	1.68088E-001	9.12089E-001	3.57880E+000	9	...........
	27	0.373333	9.15979E-001	2.80756E-004	0.00000E+000	2.57167E-004	1.68088E-001	9.16348E-001	3.57880E+000	9	...........
	28	0.386667	9.20121E-001	2.81879E-004	0.00000E+000	2.59362E-004	1.68088E-001	9.20457E-001	3.57880E+000	9	...........
	29	0.4	9.24070E-001	2.80572E-004	0.00000E+000	2.59268E-004	1.68088E-001	9.24373E-001	3.57880E+000	9	...........
	30	0.413333	9.27756E-001	2.81414E-004	0.00000E+000	2.61083E-004	1.68088E-001	9.28079E-001	3.57880E+000	9	...........
	31	0.426667	9.31299E-001	2.81391E-004	0.00000E+000	2.62059E-004	1.68088E-001	9.31614E-001	3.57880E+000	9	...........
	32	0.44	9.34717E-001	2.82007E-004	0.00000E+000	2.63596E-004	1.68088E-001	9.35052E-001	3.57880E+000	9	...........
	33	0.453333	9.37963E-001	2.80894E-004	0.00000E+000	2.63468E-004	1.68088E-001	9.38323E-001	3.57880E+000	9	...........
	34	0.466667	9.41108E-001	2.81491E-004	0.00000E+000	2.64913E-004	1.68088E-001	9.41445E-001	3.57880E+000	9	...........
	35	0.48	9.44122E-001	2.80350E-004	0.00000E+000	2.64685E-004	1.68088E-001	9.44441E-001	3.57880E+000	9	...........
	36	0.493333	9.47091E-001	2.80017E-004	0.00000E+000	2.65201E-004	1.68088E-001	9.47415E-001	3.57880E+000	9	...........
	37	0.506667	9.49913E-001	2.81360E-004	0.00000E+000	2.67267E-004	1.68088E-001	9.50253E-001	3.57880E+000	9	...........
	38	0.52	9.52639E-001	2.82219E-004	0.00000E+000	2.68853E-004	1.68088E-001	9.52975E-001	3.57880E+000	9	...........
	39	0.533333	9.55269E-001	2.81172E-004	0.00000E+000	2.68595E-004	1.68088E-001	9.55586E-001	3.57880E+000	9	...........
	40	0.546667	9.57807E-001	2.81294E-004	0.00000E+000	2.69425E-004	1.68088E-001	9.58139E-001	3.57880E+000	9	...........
	41	0.56	9.60248E-001	2.79793E-004	0.00000E+000	2.68670E-004	1.68088E-001	9.60595E-001	3.57880E+000	9	...........
	42	0.573333	9.62605E-001	2.81801E-004	0.00000E+000	2.71263E-004	1.68088E-001	9.62954E-001	3.57880E+000	9	...........
	43	0.586667	9.64912E-001	2.80747E-004	0.00000E+000	2.70896E-004	1.68088E-001	9.65275E-001	3.57880E+000	9	...........
	44	0.6	9.67140E-001	2.81192E-004	0.00000E+000	2.71952E-004	1.68088E-001	9.67494E-001	3.57880E+000	9	...........
	45	0.613333	9.69308E-001	2.82672E-004	0.00000E+000	2.73997E-004	1.68088E-001	9.69671E-001	3.57880E+000	9	...........
	46	0.626667	9.71458E-001	2.80902E-004	0.00000E+000	2.72885E-004	1.68088E-001	9.71843E-001	3.57880E+000	9	...........
	47	0.64	9.73595E-001	2.82225E-004	0.00000E+000	2.74773E-004	1.68088E-001	9.73950E-001	3.57880E+000	9	...........
	48	0.653333	9.75587E-001	2.81321E-004	0.00000E+000	2.74453E-004	1.68088E-001	9.75951E-001	3.57880E+000	9	...........
	49	0.666667	9.77519E-001	2.82098E-004	0.00000E+000	2.75756E-004	1.68088E-001	9.77903E-001	3.57880E+000	9	...........
	50	0.68	9.79447E-001	2.82744E-004	0.00000E+000	2.76933E-004	1.68088E-001	9.79783E-001	3.57880E+000	9	...........
	51	0.693333	9.81295E-001	2.82007E-004	0.00000E+000	2.76732E-004	1.68088E-001	9.81650E-001	3.57880E+000	9	...........
	52	0.706667	9.83105E-001	2.81839E-004	0.00000E+000	2.77077E-004	1.68088E-001	9.83484E-001	3.57880E+000	9	...........
	53	0.72	9.84905E-001	2.81898E-004	0.00000E+000	2.77643E-004	1.68088E-001	9.85291E-001	3.57880E+000	9	...........
	54	0.733333	9.86636E-001	2.80889E-004	0.00000E+000	2.77135E-004	1.68088E-001	9.87029E-001	3.57880E+000	9	...........
	55	0.746667	9.88334E-001	2.79939E-004	0.00000E+000	2.76673E-004	1.68088E-001	9.88727E-001	3.57880E+000	9	...........
	56	0.76	9.90021E-001	2.82605E-004	0.00000E+000	2.79785E-004	1.68088E-001	9.90367E-001	3.57880E+000	9	...........
	57	0.773333	9.91625E-001	2.80825E-004	0.00000E+000	2.78473E-004	1.68088E-001	9.91967E-001	3.57880E+000	9	...........
	58	0.786667	9.93190E-001	2.81068E-004	0.00000E+000	2.79154E-004	1.68088E-001	9.93566E-001	3.57880E+000	9	...........
	59	0.8	9.94737E-001	2.81072E-004	0.00000E+000	2.79593E-004	1.68088E-001	9.95102E-001	3.57880E+000	9	...........
	60	0.813333	9.96295E-001	2.82333E-004	0.00000E+000	2.81287E-004	1.68088E-001	9.96634E-001	3.57880E+000	9	...........
	61	0.826667	9.97798E-001	2.81253E-004	0.00000E+000	2.80634E-004	1.68088E-001	9.98152E-001	3.57880E+000	9	...........
	62	0.84	9.99303E-001	2.81173E-004	0.00000E+000	2.80977E-004	1.68088E-001	9.99656E-001	3.57880E+000	9	...........
	63	0.841667	1.00013E+000	2.82311E-004	0.00000E+000	2.82347E-004	1.68088E-001	1.00048E+000	3.57880E+000	9	...........
STARTTIMEOFFSET	QUANT	1751.366	Start Time Offset (s)
