EXPLAIN
TAG	PWR800_CHARGE
TITLE	LABEL	PWR Cyclic Charge Discharge (Cell) - Charge Step	Test &Identifier
DATE	LABEL	7-7-2017	Date
TIME	LABEL	15:43:07	Time
NOTES	NOTES	3	&Notes...
	supercap test cell
	2.8mg
	6M KOH
PSTAT	PSTAT	IFC5000-01520	Potentiostat
CAPACITY	QUANT	1.00000E-003	Capacity (A-hr)
CELLTYPE	SELECTOR	1	&Cell Type
WORKINGCONNECTION	SELECTOR	0	&Working Lead
MAXCHARGETIME	VARIABLEANDUNITS	1.00000E+002	s	1.00000E+002	second(s)	Max &Charge Time
CHARGECURRENT	QUANT	2.80000E-004	&Charge Current (A) 
VOLTAGEFINISH	TWOPARAM	F	1.00000E-003	3.60000E+003	&Voltage Finish	 I (A) < 	Max Time(s)
SAMPLETIME	QUANT	1.00000E-002	Sa&mple Period (s)
CHARGESTOPAT1	MULTIPARAM	4	1.00000E+000	Charge Stop At &1	Voltage > Limit	V
CHARGESTOPAT2	MULTIPARAM	0	0.00000E+000	Charge Stop At &2	None	N/A
AESBHCSELECTOR	TOGGLE	F	Save Both Half Cells
IRCOMP	TOGGLE	F	IR &Measure
EOC	QUANT	0	Open Circuit (V)
SEQUENCER	TOGGLE	TRUE	Run as Sequence
PSTATMODEL	IQUANT	53	Pstat Model
PSTATSECTION	LABEL	IFC5000-01520	Pstat Section
PSTATSERIALNO	LABEL	01520	Pstat Serial Number
CTRLMODE	IQUANT	0	Control Mode
ELECTROMETER	IQUANT	1	RE=0 or CS=1
IESTAB	IQUANT	0	I/E Stability
CASPEED	IQUANT	4	Control Amp Speed
CONVENTION	IQUANT	1	Current Convention
ICHRANGE	IQUANT	2	Ich Range
ICHRANGEMODE	TOGGLE	T	Ich Auto Range
ICHOFFSETENABLE	TOGGLE	F	Ich Offset Enable
ICHOFFSET	QUANT	0	Ich Offset (V)
ICHFILTER	IQUANT	1	Ich Filter
VCHRANGE	IQUANT	2	Vch Range
VCHRANGEMODE	TOGGLE	T	Vch Auto Range
VCHOFFSETENABLE	TOGGLE	F	Vch Offset Enable
VCHOFFSET	QUANT	0	Vch Offset (V)
VCHFILTER	IQUANT	1	Vch Filter
IERANGELOWERLIMIT	IQUANT	9	I/E Range Lower Limit
IERANGEMODE	TOGGLE	F	I/E AutoRange
IERANGE	IQUANT	9	I/E Range
ACHSELECT	IQUANT	1	Ach Select
ACHRANGE	IQUANT	2	Ach Range
ACHOFFSETENABLE	TOGGLE	F	Ach Offset Enable
ACHOFFSET	QUANT	0	Ach Offset (V)
ACHFILTER	IQUANT	1	Ach Filter
CABLEID	IQUANT	14	Cable ID
DCCALDATE	LABEL	5-7-2017	DC Calibration Date
ACCALDATE	LABEL	12/3/2015	AC Calibration Date
FRAMEWORKVERSION	QUANT	7.01	Framework Version
INSTRUMENTVERSION	LABEL	4.00	Instrument Version
CURVE	TABLE	138
	Pt	T	Vf	Im	Vu	Pwr	Sig	Ach	Temp	IERange	Over
	#	s	V	A	V	W	V	V	deg C	#	bits
	0	0.013333	5.70499E-001	2.81416E-004	0.00000E+000	1.60547E-004	1.68088E-001	5.70778E-001	3.57910E+000	9	...........
	1	0.026667	5.98575E-001	2.80652E-004	0.00000E+000	1.67991E-004	1.68088E-001	5.98873E-001	3.57910E+000	9	...........
	2	0.04	6.22064E-001	2.81193E-004	0.00000E+000	1.74920E-004	1.68088E-001	6.22348E-001	3.57910E+000	9	...........
	3	0.053333	6.42193E-001	2.80894E-004	0.00000E+000	1.80388E-004	1.68088E-001	6.42461E-001	3.57910E+000	9	...........
	4	0.066667	6.59800E-001	2.80053E-004	0.00000E+000	1.84779E-004	1.68088E-001	6.60082E-001	3.57910E+000	9	...........
	5	0.08	6.75419E-001	2.80979E-004	0.00000E+000	1.89779E-004	1.68088E-001	6.75699E-001	3.57910E+000	9	...........
	6	0.093333	6.89397E-001	2.81847E-004	0.00000E+000	1.94305E-004	1.68088E-001	6.89698E-001	3.57910E+000	9	...........
	7	0.106667	7.02048E-001	2.81404E-004	0.00000E+000	1.97560E-004	1.68088E-001	7.02375E-001	3.57910E+000	9	...........
	8	0.12	7.13575E-001	2.80943E-004	0.00000E+000	2.00474E-004	1.68088E-001	7.13885E-001	3.57910E+000	9	...........
	9	0.133333	7.24173E-001	2.80357E-004	0.00000E+000	2.03027E-004	1.68088E-001	7.24481E-001	3.57910E+000	9	...........
	10	0.146667	7.33901E-001	2.81329E-004	0.00000E+000	2.06468E-004	1.68088E-001	7.34219E-001	3.57910E+000	9	...........
	11	0.16	7.42939E-001	2.80957E-004	0.00000E+000	2.08734E-004	1.68088E-001	7.43253E-001	3.57910E+000	9	...........
	12	0.173333	7.51332E-001	2.80815E-004	0.00000E+000	2.10985E-004	1.68088E-001	7.51635E-001	3.57910E+000	9	...........
	13	0.186667	7.59158E-001	2.80697E-004	0.00000E+000	2.13093E-004	1.68088E-001	7.59486E-001	3.57910E+000	9	...........
	14	0.2	7.66487E-001	2.81249E-004	0.00000E+000	2.15574E-004	1.68088E-001	7.66822E-001	3.57910E+000	9	...........
	15	0.213333	7.73380E-001	2.81147E-004	0.00000E+000	2.17433E-004	1.68088E-001	7.73704E-001	3.57910E+000	9	...........
	16	0.226667	7.79865E-001	2.80828E-004	0.00000E+000	2.19008E-004	1.68088E-001	7.80175E-001	3.57910E+000	9	...........
	17	0.24	7.85982E-001	2.80899E-004	0.00000E+000	2.20782E-004	1.68088E-001	7.86264E-001	3.57910E+000	9	...........
	18	0.253333	7.91803E-001	2.81339E-004	0.00000E+000	2.22765E-004	1.68088E-001	7.92097E-001	3.57910E+000	9	...........
	19	0.266667	7.97325E-001	2.81470E-004	0.00000E+000	2.24423E-004	1.68088E-001	7.97577E-001	3.57910E+000	9	...........
	20	0.28	8.02517E-001	2.81677E-004	0.00000E+000	2.26051E-004	1.68088E-001	8.02805E-001	3.57910E+000	9	...........
	21	0.293333	8.07476E-001	2.81427E-004	0.00000E+000	2.27246E-004	1.68088E-001	8.07780E-001	3.57910E+000	9	...........
	22	0.306667	8.12210E-001	2.80661E-004	0.00000E+000	2.27955E-004	1.68088E-001	8.12535E-001	3.57883E+000	9	...........
	23	0.32	8.16751E-001	2.81313E-004	0.00000E+000	2.29762E-004	1.68088E-001	8.17095E-001	3.57880E+000	9	...........
	24	0.333333	8.21109E-001	2.80672E-004	0.00000E+000	2.30462E-004	1.68088E-001	8.21440E-001	3.57880E+000	9	...........
	25	0.346667	8.25254E-001	2.81099E-004	0.00000E+000	2.31978E-004	1.68088E-001	8.25601E-001	3.57880E+000	9	...........
	26	0.36	8.29207E-001	2.80599E-004	0.00000E+000	2.32675E-004	1.68088E-001	8.29552E-001	3.57880E+000	9	...........
	27	0.373333	8.33041E-001	2.81824E-004	0.00000E+000	2.34771E-004	1.68088E-001	8.33388E-001	3.57880E+000	9	...........
	28	0.386667	8.36709E-001	2.81517E-004	0.00000E+000	2.35548E-004	1.68088E-001	8.37093E-001	3.57880E+000	9	...........
	29	0.4	8.40267E-001	2.81326E-004	0.00000E+000	2.36389E-004	1.68088E-001	8.40623E-001	3.57880E+000	9	...........
	30	0.413333	8.43702E-001	2.81050E-004	0.00000E+000	2.37123E-004	1.68088E-001	8.44047E-001	3.57880E+000	9	...........
	31	0.426667	8.47011E-001	2.81453E-004	0.00000E+000	2.38394E-004	1.68088E-001	8.47377E-001	3.57880E+000	9	...........
	32	0.44	8.50209E-001	2.82024E-004	0.00000E+000	2.39780E-004	1.68088E-001	8.50549E-001	3.57880E+000	9	...........
	33	0.453333	8.53288E-001	2.81482E-004	0.00000E+000	2.40185E-004	1.68088E-001	8.53601E-001	3.57880E+000	9	...........
	34	0.466667	8.56225E-001	2.80911E-004	0.00000E+000	2.40523E-004	1.68088E-001	8.56598E-001	3.57880E+000	9	...........
	35	0.48	8.59138E-001	2.80973E-004	0.00000E+000	2.41395E-004	1.68088E-001	8.59498E-001	3.57880E+000	9	...........
	36	0.493333	8.61954E-001	2.80749E-004	0.00000E+000	2.41993E-004	1.68088E-001	8.62324E-001	3.57880E+000	9	...........
	37	0.506667	8.64680E-001	2.81565E-004	0.00000E+000	2.43463E-004	1.68088E-001	8.65056E-001	3.57880E+000	9	...........
	38	0.52	8.67381E-001	2.81236E-004	0.00000E+000	2.43938E-004	1.68088E-001	8.67733E-001	3.57880E+000	9	...........
	39	0.533333	8.70013E-001	2.81463E-004	0.00000E+000	2.44876E-004	1.68088E-001	8.70379E-001	3.57880E+000	9	...........
	40	0.546667	8.72520E-001	2.81354E-004	0.00000E+000	2.45487E-004	1.68088E-001	8.72878E-001	3.57880E+000	9	...........
	41	0.56	8.74974E-001	2.81107E-004	0.00000E+000	2.45962E-004	1.68088E-001	8.75332E-001	3.57880E+000	9	...........
	42	0.573333	8.77387E-001	2.81376E-004	0.00000E+000	2.46876E-004	1.68088E-001	8.77748E-001	3.57880E+000	9	...........
	43	0.586667	8.79748E-001	2.81074E-004	0.00000E+000	2.47274E-004	1.68088E-001	8.80083E-001	3.57880E+000	9	...........
	44	0.6	8.82034E-001	2.80693E-004	0.00000E+000	2.47581E-004	1.68088E-001	8.82387E-001	3.57880E+000	9	...........
	45	0.613333	8.84313E-001	2.80941E-004	0.00000E+000	2.48440E-004	1.68088E-001	8.84670E-001	3.57880E+000	9	...........
	46	0.626667	8.86482E-001	2.80911E-004	0.00000E+000	2.49022E-004	1.68088E-001	8.86824E-001	3.57880E+000	9	...........
	47	0.64	8.88599E-001	2.80778E-004	0.00000E+000	2.49499E-004	1.68088E-001	8.88962E-001	3.57880E+000	9	...........
	48	0.653333	8.90697E-001	2.81471E-004	0.00000E+000	2.50705E-004	1.68088E-001	8.91078E-001	3.57880E+000	9	...........
	49	0.666667	8.92740E-001	2.81071E-004	0.00000E+000	2.50923E-004	1.68088E-001	8.93128E-001	3.57880E+000	9	...........
	50	0.68	8.94763E-001	2.81635E-004	0.00000E+000	2.51996E-004	1.68088E-001	8.95194E-001	3.57880E+000	9	...........
	51	0.693333	8.96744E-001	2.80792E-004	0.00000E+000	2.51798E-004	1.68088E-001	8.97132E-001	3.57880E+000	9	...........
	52	0.706667	8.98687E-001	2.80173E-004	0.00000E+000	2.51788E-004	1.68088E-001	8.99070E-001	3.57880E+000	9	...........
	53	0.72	9.00587E-001	2.81187E-004	0.00000E+000	2.53233E-004	1.68088E-001	9.00955E-001	3.57880E+000	9	...........
	54	0.733333	9.02467E-001	2.81551E-004	0.00000E+000	2.54091E-004	1.68088E-001	9.02867E-001	3.57880E+000	9	...........
	55	0.746667	9.04356E-001	2.81524E-004	0.00000E+000	2.54598E-004	1.68088E-001	9.04733E-001	3.57880E+000	9	...........
	56	0.76	9.06178E-001	2.81169E-004	0.00000E+000	2.54789E-004	1.68088E-001	9.06553E-001	3.57880E+000	9	...........
	57	0.773333	9.08003E-001	2.80944E-004	0.00000E+000	2.55098E-004	1.68088E-001	9.08395E-001	3.57880E+000	9	...........
	58	0.786667	9.09798E-001	2.80693E-004	0.00000E+000	2.55374E-004	1.68088E-001	9.10184E-001	3.57880E+000	9	...........
	59	0.8	9.11528E-001	2.81875E-004	0.00000E+000	2.56937E-004	1.68088E-001	9.11914E-001	3.57880E+000	9	...........
	60	0.813333	9.13249E-001	2.80986E-004	0.00000E+000	2.56610E-004	1.68088E-001	9.13610E-001	3.57880E+000	9	...........
	61	0.826667	9.14932E-001	2.81224E-004	0.00000E+000	2.57301E-004	1.68088E-001	9.15325E-001	3.57880E+000	9	...........
	62	0.84	9.16580E-001	2.80788E-004	0.00000E+000	2.57364E-004	1.68088E-001	9.16980E-001	3.57880E+000	9	...........
	63	0.853333	9.18178E-001	2.80947E-004	0.00000E+000	2.57959E-004	1.68088E-001	9.18594E-001	3.57880E+000	9	...........
	64	0.866667	9.19820E-001	2.80613E-004	0.00000E+000	2.58113E-004	1.68088E-001	9.20194E-001	3.57880E+000	9	...........
	65	0.88	9.21456E-001	2.80452E-004	0.00000E+000	2.58424E-004	1.68088E-001	9.21810E-001	3.57880E+000	9	...........
	66	0.893333	9.23041E-001	2.81860E-004	0.00000E+000	2.60168E-004	1.68088E-001	9.23382E-001	3.57880E+000	9	...........
	67	0.906667	9.24551E-001	2.80921E-004	0.00000E+000	2.59726E-004	1.68088E-001	9.24912E-001	3.57880E+000	9	...........
	68	0.92	9.26012E-001	2.81329E-004	0.00000E+000	2.60515E-004	1.68088E-001	9.26410E-001	3.57880E+000	9	...........
	69	0.933333	9.27534E-001	2.81649E-004	0.00000E+000	2.61239E-004	1.68088E-001	9.27905E-001	3.57880E+000	9	...........
	70	0.946667	9.28992E-001	2.81054E-004	0.00000E+000	2.61097E-004	1.68088E-001	9.29344E-001	3.57880E+000	9	...........
	71	0.96	9.30439E-001	2.81216E-004	0.00000E+000	2.61654E-004	1.68088E-001	9.30804E-001	3.57880E+000	9	...........
	72	0.97333	9.31910E-001	2.80740E-004	0.00000E+000	2.61624E-004	1.68088E-001	9.32259E-001	3.57880E+000	9	...........
	73	0.98667	9.33315E-001	2.81458E-004	0.00000E+000	2.62689E-004	1.68088E-001	9.33685E-001	3.57880E+000	9	...........
	74	1	9.34711E-001	2.81362E-004	0.00000E+000	2.62992E-004	1.68088E-001	9.35085E-001	3.57880E+000	9	...........
	75	1.01333	9.36111E-001	2.81069E-004	0.00000E+000	2.63112E-004	1.68088E-001	9.36469E-001	3.57880E+000	9	...........
	76	1.02667	9.37475E-001	2.81161E-004	0.00000E+000	2.63581E-004	1.68088E-001	9.37845E-001	3.57880E+000	9	...........
	77	1.04	9.38806E-001	2.81078E-004	0.00000E+000	2.63878E-004	1.68088E-001	9.39190E-001	3.57880E+000	9	...........
	78	1.05333	9.40170E-001	2.80771E-004	0.00000E+000	2.63972E-004	1.68088E-001	9.40554E-001	3.57880E+000	9	...........
	79	1.06667	9.41489E-001	2.81348E-004	0.00000E+000	2.64886E-004	1.68088E-001	9.41843E-001	3.57880E+000	9	...........
	80	1.08	9.42794E-001	2.80356E-004	0.00000E+000	2.64318E-004	1.68088E-001	9.43139E-001	3.57880E+000	9	...........
	81	1.09333	9.44089E-001	2.80629E-004	0.00000E+000	2.64939E-004	1.68088E-001	9.44426E-001	3.57880E+000	9	...........
	82	1.10667	9.45358E-001	2.81300E-004	0.00000E+000	2.65930E-004	1.68088E-001	9.45720E-001	3.57880E+000	9	...........
	83	1.12	9.46678E-001	2.81018E-004	0.00000E+000	2.66033E-004	1.68088E-001	9.47024E-001	3.57880E+000	9	...........
	84	1.13333	9.47926E-001	2.80290E-004	0.00000E+000	2.65694E-004	1.68088E-001	9.48266E-001	3.57880E+000	9	...........
	85	1.14667	9.49180E-001	2.81528E-004	0.00000E+000	2.67221E-004	1.68088E-001	9.49523E-001	3.57880E+000	9	...........
	86	1.16	9.50390E-001	2.81176E-004	0.00000E+000	2.67227E-004	1.68088E-001	9.50743E-001	3.57880E+000	9	...........
	87	1.17333	9.51638E-001	2.81630E-004	0.00000E+000	2.68009E-004	1.68088E-001	9.52011E-001	3.57880E+000	9	...........
	88	1.18667	9.52856E-001	2.81824E-004	0.00000E+000	2.68538E-004	1.68088E-001	9.53230E-001	3.57880E+000	9	...........
	89	1.2	9.54040E-001	2.81070E-004	0.00000E+000	2.68152E-004	1.68088E-001	9.54401E-001	3.57880E+000	9	...........
	90	1.21333	9.55212E-001	2.81402E-004	0.00000E+000	2.68799E-004	1.68088E-001	9.55589E-001	3.57880E+000	9	...........
	91	1.22667	9.56419E-001	2.81510E-004	0.00000E+000	2.69241E-004	1.68088E-001	9.56795E-001	3.57880E+000	9	...........
	92	1.24	9.57610E-001	2.81246E-004	0.00000E+000	2.69324E-004	1.68088E-001	9.57969E-001	3.57880E+000	9	...........
	93	1.25333	9.58745E-001	2.81414E-004	0.00000E+000	2.69804E-004	1.68088E-001	9.59158E-001	3.57880E+000	9	...........
	94	1.26667	9.59906E-001	2.80477E-004	0.00000E+000	2.69232E-004	1.68088E-001	9.60278E-001	3.57880E+000	9	...........
	95	1.28	9.61027E-001	2.81040E-004	0.00000E+000	2.70087E-004	1.68088E-001	9.61420E-001	3.57880E+000	9	...........
	96	1.29333	9.62181E-001	2.81312E-004	0.00000E+000	2.70673E-004	1.68088E-001	9.62564E-001	3.57880E+000	9	...........
	97	1.30667	9.63270E-001	2.81604E-004	0.00000E+000	2.71261E-004	1.68088E-001	9.63689E-001	3.57817E+000	9	...........
	98	1.32	9.64400E-001	2.81550E-004	0.00000E+000	2.71527E-004	1.68088E-001	9.64793E-001	3.57810E+000	9	...........
	99	1.33333	9.65531E-001	2.81141E-004	0.00000E+000	2.71450E-004	1.68088E-001	9.65936E-001	3.57810E+000	9	...........
	100	1.34667	9.66585E-001	2.81532E-004	0.00000E+000	2.72124E-004	1.68088E-001	9.66995E-001	3.57810E+000	9	...........
	101	1.36	9.67670E-001	2.81584E-004	0.00000E+000	2.72480E-004	1.68088E-001	9.68054E-001	3.57810E+000	9	...........
	102	1.37333	9.68684E-001	2.80990E-004	0.00000E+000	2.72190E-004	1.68088E-001	9.69093E-001	3.57810E+000	9	...........
	103	1.38667	9.69734E-001	2.80385E-004	0.00000E+000	2.71899E-004	1.68088E-001	9.70105E-001	3.57810E+000	9	...........
	104	1.4	9.70758E-001	2.81210E-004	0.00000E+000	2.72986E-004	1.68088E-001	9.71159E-001	3.57810E+000	9	...........
	105	1.41333	9.71787E-001	2.81364E-004	0.00000E+000	2.73426E-004	1.68088E-001	9.72183E-001	3.57810E+000	9	...........
	106	1.42667	9.72861E-001	2.81243E-004	0.00000E+000	2.73610E-004	1.68088E-001	9.73214E-001	3.57810E+000	9	...........
	107	1.44	9.73858E-001	2.80817E-004	0.00000E+000	2.73476E-004	1.68088E-001	9.74186E-001	3.57810E+000	9	...........
	108	1.45333	9.74839E-001	2.80324E-004	0.00000E+000	2.73271E-004	1.68088E-001	9.75210E-001	3.57810E+000	9	...........
	109	1.46667	9.75821E-001	2.81053E-004	0.00000E+000	2.74258E-004	1.68088E-001	9.76173E-001	3.57810E+000	9	...........
	110	1.48	9.76794E-001	2.80446E-004	0.00000E+000	2.73938E-004	1.68088E-001	9.77175E-001	3.57810E+000	9	...........
	111	1.49333	9.77768E-001	2.81462E-004	0.00000E+000	2.75204E-004	1.68088E-001	9.78140E-001	3.57810E+000	9	...........
	112	1.50667	9.78712E-001	2.81436E-004	0.00000E+000	2.75444E-004	1.68088E-001	9.79084E-001	3.57810E+000	9	...........
	113	1.52	9.79650E-001	2.81111E-004	0.00000E+000	2.75390E-004	1.68088E-001	9.80024E-001	3.57810E+000	9	...........
	114	1.53333	9.80604E-001	2.80959E-004	0.00000E+000	2.75509E-004	1.68088E-001	9.80964E-001	3.57810E+000	9	...........
	115	1.54667	9.81532E-001	2.80708E-004	0.00000E+000	2.75524E-004	1.68088E-001	9.81886E-001	3.57810E+000	9	...........
	116	1.56	9.82458E-001	2.81866E-004	0.00000E+000	2.76922E-004	1.68088E-001	9.82835E-001	3.57810E+000	9	...........
	117	1.57333	9.83362E-001	2.80696E-004	0.00000E+000	2.76026E-004	1.68088E-001	9.83719E-001	3.57810E+000	9	...........
	118	1.58667	9.84270E-001	2.80343E-004	0.00000E+000	2.75933E-004	1.68088E-001	9.84661E-001	3.57810E+000	9	...........
	119	1.6	9.85171E-001	2.80961E-004	0.00000E+000	2.76794E-004	1.68088E-001	9.85581E-001	3.57810E+000	9	...........
	120	1.61333	9.86041E-001	2.80878E-004	0.00000E+000	2.76957E-004	1.68088E-001	9.86444E-001	3.57810E+000	9	...........
	121	1.62667	9.86917E-001	2.80962E-004	0.00000E+000	2.77286E-004	1.68088E-001	9.87306E-001	3.57810E+000	9	...........
	122	1.64	9.87819E-001	2.81196E-004	0.00000E+000	2.77771E-004	1.68088E-001	9.88210E-001	3.57810E+000	9	...........
	123	1.65333	9.88717E-001	2.81102E-004	0.00000E+000	2.77931E-004	1.68088E-001	9.89075E-001	3.57810E+000	9	...........
	124	1.66667	9.89611E-001	2.81060E-004	0.00000E+000	2.78140E-004	1.68088E-001	9.89987E-001	3.57810E+000	9	...........
	125	1.68	9.90485E-001	2.81551E-004	0.00000E+000	2.78872E-004	1.68088E-001	9.90887E-001	3.57810E+000	9	...........
	126	1.69333	9.91363E-001	2.81416E-004	0.00000E+000	2.78985E-004	1.68088E-001	9.91754E-001	3.57810E+000	9	...........
	127	1.70667	9.92204E-001	2.80837E-004	0.00000E+000	2.78647E-004	1.68088E-001	9.92607E-001	3.57810E+000	9	...........
	128	1.72	9.93033E-001	2.81339E-004	0.00000E+000	2.79379E-004	1.68088E-001	9.93435E-001	3.57810E+000	9	...........
	129	1.73333	9.93847E-001	2.81525E-004	0.00000E+000	2.79793E-004	1.68088E-001	9.94235E-001	3.57810E+000	9	...........
	130	1.74667	9.94642E-001	2.80959E-004	0.00000E+000	2.79453E-004	1.68088E-001	9.95029E-001	3.57810E+000	9	...........
	131	1.76	9.95464E-001	2.80408E-004	0.00000E+000	2.79137E-004	1.68088E-001	9.95832E-001	3.57810E+000	9	...........
	132	1.77333	9.96276E-001	2.81035E-004	0.00000E+000	2.79988E-004	1.68088E-001	9.96644E-001	3.57810E+000	9	...........
	133	1.78667	9.97066E-001	2.81242E-004	0.00000E+000	2.80417E-004	1.68088E-001	9.97480E-001	3.57810E+000	9	...........
	134	1.8	9.97901E-001	2.80898E-004	0.00000E+000	2.80309E-004	1.68088E-001	9.98306E-001	3.57810E+000	9	...........
	135	1.81333	9.98743E-001	2.81262E-004	0.00000E+000	2.80908E-004	1.68088E-001	9.99140E-001	3.57810E+000	9	...........
	136	1.82667	9.99575E-001	2.80901E-004	0.00000E+000	2.80782E-004	1.68088E-001	9.99956E-001	3.57810E+000	9	...........
	137	1.82833	1.00003E+000	2.81536E-004	0.00000E+000	2.81543E-004	1.68088E-001	1.00043E+000	3.57810E+000	9	...........
STARTTIMEOFFSET	QUANT	352.4801	Start Time Offset (s)
