EXPLAIN
TAG	PWR800_CHARGE
TITLE	LABEL	PWR Cyclic Charge Discharge (Cell) - Charge Step	Test &Identifier
DATE	LABEL	7-7-2017	Date
TIME	LABEL	16:24:01	Time
NOTES	NOTES	3	&Notes...
	supercap test cell
	2.8mg
	6M KOH
PSTAT	PSTAT	IFC5000-01520	Potentiostat
CAPACITY	QUANT	1.00000E-003	Capacity (A-hr)
CELLTYPE	SELECTOR	1	&Cell Type
WORKINGCONNECTION	SELECTOR	0	&Working Lead
MAXCHARGETIME	VARIABLEANDUNITS	1.00000E+002	s	1.00000E+002	second(s)	Max &Charge Time
CHARGECURRENT	QUANT	2.80000E-004	&Charge Current (A) 
VOLTAGEFINISH	TWOPARAM	F	1.00000E-003	3.60000E+003	&Voltage Finish	 I (A) < 	Max Time(s)
SAMPLETIME	QUANT	1.00000E-002	Sa&mple Period (s)
CHARGESTOPAT1	MULTIPARAM	4	1.00000E+000	Charge Stop At &1	Voltage > Limit	V
CHARGESTOPAT2	MULTIPARAM	0	0.00000E+000	Charge Stop At &2	None	N/A
AESBHCSELECTOR	TOGGLE	F	Save Both Half Cells
IRCOMP	TOGGLE	F	IR &Measure
EOC	QUANT	0	Open Circuit (V)
SEQUENCER	TOGGLE	TRUE	Run as Sequence
PSTATMODEL	IQUANT	53	Pstat Model
PSTATSECTION	LABEL	IFC5000-01520	Pstat Section
PSTATSERIALNO	LABEL	01520	Pstat Serial Number
CTRLMODE	IQUANT	0	Control Mode
ELECTROMETER	IQUANT	1	RE=0 or CS=1
IESTAB	IQUANT	0	I/E Stability
CASPEED	IQUANT	4	Control Amp Speed
CONVENTION	IQUANT	1	Current Convention
ICHRANGE	IQUANT	2	Ich Range
ICHRANGEMODE	TOGGLE	T	Ich Auto Range
ICHOFFSETENABLE	TOGGLE	F	Ich Offset Enable
ICHOFFSET	QUANT	0	Ich Offset (V)
ICHFILTER	IQUANT	1	Ich Filter
VCHRANGE	IQUANT	2	Vch Range
VCHRANGEMODE	TOGGLE	T	Vch Auto Range
VCHOFFSETENABLE	TOGGLE	F	Vch Offset Enable
VCHOFFSET	QUANT	0	Vch Offset (V)
VCHFILTER	IQUANT	1	Vch Filter
IERANGELOWERLIMIT	IQUANT	9	I/E Range Lower Limit
IERANGEMODE	TOGGLE	F	I/E AutoRange
IERANGE	IQUANT	9	I/E Range
ACHSELECT	IQUANT	1	Ach Select
ACHRANGE	IQUANT	2	Ach Range
ACHOFFSETENABLE	TOGGLE	F	Ach Offset Enable
ACHOFFSET	QUANT	0	Ach Offset (V)
ACHFILTER	IQUANT	1	Ach Filter
CABLEID	IQUANT	14	Cable ID
DCCALDATE	LABEL	5-7-2017	DC Calibration Date
ACCALDATE	LABEL	12/3/2015	AC Calibration Date
FRAMEWORKVERSION	QUANT	7.01	Framework Version
INSTRUMENTVERSION	LABEL	4.00	Instrument Version
CURVE	TABLE	57
	Pt	T	Vf	Im	Vu	Pwr	Sig	Ach	Temp	IERange	Over
	#	s	V	A	V	W	V	V	deg C	#	bits
	0	0.013333	6.10616E-001	2.81355E-004	0.00000E+000	1.71800E-004	1.68088E-001	6.10869E-001	3.57730E+000	9	...........
	1	0.026667	6.41282E-001	2.80391E-004	0.00000E+000	1.79810E-004	1.68088E-001	6.41532E-001	3.57730E+000	9	...........
	2	0.04	6.67717E-001	2.80496E-004	0.00000E+000	1.87292E-004	1.68088E-001	6.67988E-001	3.57730E+000	9	...........
	3	0.053333	6.91037E-001	2.80215E-004	0.00000E+000	1.93639E-004	1.68088E-001	6.91282E-001	3.57730E+000	9	...........
	4	0.066667	7.11900E-001	2.81632E-004	0.00000E+000	2.00493E-004	1.68088E-001	7.12150E-001	3.57730E+000	9	...........
	5	0.08	7.30778E-001	2.81082E-004	0.00000E+000	2.05409E-004	1.68088E-001	7.31041E-001	3.57730E+000	9	...........
	6	0.093333	7.47963E-001	2.81018E-004	0.00000E+000	2.10191E-004	1.68088E-001	7.48210E-001	3.57730E+000	9	...........
	7	0.106667	7.63704E-001	2.80706E-004	0.00000E+000	2.14377E-004	1.68088E-001	7.63977E-001	3.57730E+000	9	...........
	8	0.12	7.78208E-001	2.81541E-004	0.00000E+000	2.19097E-004	1.68088E-001	7.78440E-001	3.57730E+000	9	...........
	9	0.133333	7.91627E-001	2.80433E-004	0.00000E+000	2.21999E-004	1.68088E-001	7.91832E-001	3.57730E+000	9	...........
	10	0.146667	8.04031E-001	2.81294E-004	0.00000E+000	2.26169E-004	1.68088E-001	8.04277E-001	3.57730E+000	9	...........
	11	0.16	8.15507E-001	2.81268E-004	0.00000E+000	2.29376E-004	1.68088E-001	8.15797E-001	3.57730E+000	9	...........
	12	0.173333	8.26246E-001	2.81650E-004	0.00000E+000	2.32712E-004	1.68088E-001	8.26532E-001	3.57730E+000	9	...........
	13	0.186667	8.36209E-001	2.80875E-004	0.00000E+000	2.34870E-004	1.68088E-001	8.36510E-001	3.57730E+000	9	...........
	14	0.2	8.45535E-001	2.81230E-004	0.00000E+000	2.37790E-004	1.68088E-001	8.45829E-001	3.57730E+000	9	...........
	15	0.213333	8.54236E-001	2.79732E-004	0.00000E+000	2.38957E-004	1.68088E-001	8.54527E-001	3.57730E+000	9	...........
	16	0.226667	8.62393E-001	2.80626E-004	0.00000E+000	2.42010E-004	1.68088E-001	8.62698E-001	3.57730E+000	9	...........
	17	0.24	8.70083E-001	2.80825E-004	0.00000E+000	2.44341E-004	1.68088E-001	8.70366E-001	3.57730E+000	9	...........
	18	0.253333	8.77262E-001	2.80984E-004	0.00000E+000	2.46496E-004	1.68088E-001	8.77538E-001	3.57730E+000	9	...........
	19	0.266667	8.83976E-001	2.81506E-004	0.00000E+000	2.48844E-004	1.68088E-001	8.84294E-001	3.57730E+000	9	...........
	20	0.28	8.90309E-001	2.80707E-004	0.00000E+000	2.49916E-004	1.68088E-001	8.90628E-001	3.57730E+000	9	...........
	21	0.293333	8.96299E-001	2.82031E-004	0.00000E+000	2.52784E-004	1.68088E-001	8.96647E-001	3.57730E+000	9	...........
	22	0.306667	9.01942E-001	2.80437E-004	0.00000E+000	2.52938E-004	1.68088E-001	9.02299E-001	3.57730E+000	9	...........
	23	0.32	9.07277E-001	2.81130E-004	0.00000E+000	2.55063E-004	1.68088E-001	9.07609E-001	3.57730E+000	9	...........
	24	0.333333	9.12326E-001	2.80568E-004	0.00000E+000	2.55969E-004	1.68088E-001	9.12653E-001	3.57730E+000	9	...........
	25	0.346667	9.17092E-001	2.80672E-004	0.00000E+000	2.57402E-004	1.68088E-001	9.17457E-001	3.57730E+000	9	...........
	26	0.36	9.21700E-001	2.81777E-004	0.00000E+000	2.59714E-004	1.68088E-001	9.22003E-001	3.57745E+000	9	...........
	27	0.373333	9.26011E-001	2.80558E-004	0.00000E+000	2.59800E-004	1.68088E-001	9.26323E-001	3.57770E+000	9	...........
	28	0.386667	9.30094E-001	2.80891E-004	0.00000E+000	2.61255E-004	1.68088E-001	9.30403E-001	3.57770E+000	9	...........
	29	0.4	9.34049E-001	2.82313E-004	0.00000E+000	2.63694E-004	1.68088E-001	9.34345E-001	3.57770E+000	9	...........
	30	0.413333	9.37804E-001	2.81641E-004	0.00000E+000	2.64124E-004	1.68088E-001	9.38129E-001	3.57770E+000	9	...........
	31	0.426667	9.41407E-001	2.80453E-004	0.00000E+000	2.64021E-004	1.68088E-001	9.41736E-001	3.57770E+000	9	...........
	32	0.44	9.44827E-001	2.81847E-004	0.00000E+000	2.66297E-004	1.68088E-001	9.45165E-001	3.57770E+000	9	...........
	33	0.453333	9.48167E-001	2.81145E-004	0.00000E+000	2.66572E-004	1.68088E-001	9.48481E-001	3.57770E+000	9	...........
	34	0.466667	9.51275E-001	2.81826E-004	0.00000E+000	2.68095E-004	1.68088E-001	9.51624E-001	3.57770E+000	9	...........
	35	0.48	9.54285E-001	2.81289E-004	0.00000E+000	2.68430E-004	1.68088E-001	9.54620E-001	3.57770E+000	9	...........
	36	0.493333	9.57178E-001	2.81544E-004	0.00000E+000	2.69488E-004	1.68088E-001	9.57525E-001	3.57770E+000	9	...........
	37	0.506667	9.59976E-001	2.81869E-004	0.00000E+000	2.70588E-004	1.68088E-001	9.60331E-001	3.57770E+000	9	...........
	38	0.52	9.62665E-001	2.80269E-004	0.00000E+000	2.69805E-004	1.68088E-001	9.63038E-001	3.57770E+000	9	...........
	39	0.533333	9.65257E-001	2.81587E-004	0.00000E+000	2.71804E-004	1.68088E-001	9.65634E-001	3.57770E+000	9	...........
	40	0.546667	9.67729E-001	2.82058E-004	0.00000E+000	2.72955E-004	1.68088E-001	9.68114E-001	3.57770E+000	9	...........
	41	0.56	9.70173E-001	2.79177E-004	0.00000E+000	2.70850E-004	1.68088E-001	9.70560E-001	3.57770E+000	9	...........
	42	0.573333	9.72552E-001	2.79777E-004	0.00000E+000	2.72098E-004	1.68088E-001	9.72958E-001	3.57770E+000	9	...........
	43	0.586667	9.74882E-001	2.80924E-004	0.00000E+000	2.73868E-004	1.68088E-001	9.75254E-001	3.57770E+000	9	...........
	44	0.6	9.77089E-001	2.81160E-004	0.00000E+000	2.74718E-004	1.68088E-001	9.77463E-001	3.57770E+000	9	...........
	45	0.613333	9.79271E-001	2.80726E-004	0.00000E+000	2.74907E-004	1.68088E-001	9.79629E-001	3.57770E+000	9	...........
	46	0.626667	9.81373E-001	2.81129E-004	0.00000E+000	2.75893E-004	1.68088E-001	9.81727E-001	3.57770E+000	9	...........
	47	0.64	9.83420E-001	2.81348E-004	0.00000E+000	2.76683E-004	1.68088E-001	9.83794E-001	3.57770E+000	9	...........
	48	0.653333	9.85426E-001	2.81034E-004	0.00000E+000	2.76938E-004	1.68088E-001	9.85814E-001	3.57770E+000	9	...........
	49	0.666667	9.87369E-001	2.82248E-004	0.00000E+000	2.78683E-004	1.68088E-001	9.87770E-001	3.57770E+000	9	...........
	50	0.68	9.89265E-001	2.80637E-004	0.00000E+000	2.77624E-004	1.68088E-001	9.89612E-001	3.57770E+000	9	...........
	51	0.693333	9.91109E-001	2.81042E-004	0.00000E+000	2.78543E-004	1.68088E-001	9.91450E-001	3.57770E+000	9	...........
	52	0.706667	9.92875E-001	2.80586E-004	0.00000E+000	2.78586E-004	1.68088E-001	9.93232E-001	3.57770E+000	9	...........
	53	0.72	9.94664E-001	2.80518E-004	0.00000E+000	2.79021E-004	1.68088E-001	9.95021E-001	3.57770E+000	9	...........
	54	0.733333	9.96378E-001	2.81698E-004	0.00000E+000	2.80678E-004	1.68088E-001	9.96736E-001	3.57770E+000	9	...........
	55	0.746667	9.98104E-001	2.80921E-004	0.00000E+000	2.80388E-004	1.68088E-001	9.98449E-001	3.57770E+000	9	...........
	56	0.756667	9.99559E-001	2.81983E-004	0.00000E+000	2.81859E-004	1.68088E-001	9.99921E-001	3.57770E+000	9	...........
STARTTIMEOFFSET	QUANT	2078.032	Start Time Offset (s)
