EXPLAIN
TAG	PWR800_CHARGE
TITLE	LABEL	PWR Cyclic Charge Discharge (Cell) - Charge Step	Test &Identifier
DATE	LABEL	7-7-2017	Date
TIME	LABEL	15:53:40	Time
NOTES	NOTES	3	&Notes...
	supercap test cell
	2.8mg
	6M KOH
PSTAT	PSTAT	IFC5000-01520	Potentiostat
CAPACITY	QUANT	1.00000E-003	Capacity (A-hr)
CELLTYPE	SELECTOR	1	&Cell Type
WORKINGCONNECTION	SELECTOR	0	&Working Lead
MAXCHARGETIME	VARIABLEANDUNITS	1.00000E+002	s	1.00000E+002	second(s)	Max &Charge Time
CHARGECURRENT	QUANT	2.80000E-004	&Charge Current (A) 
VOLTAGEFINISH	TWOPARAM	F	1.00000E-003	3.60000E+003	&Voltage Finish	 I (A) < 	Max Time(s)
SAMPLETIME	QUANT	1.00000E-002	Sa&mple Period (s)
CHARGESTOPAT1	MULTIPARAM	4	1.00000E+000	Charge Stop At &1	Voltage > Limit	V
CHARGESTOPAT2	MULTIPARAM	0	0.00000E+000	Charge Stop At &2	None	N/A
AESBHCSELECTOR	TOGGLE	F	Save Both Half Cells
IRCOMP	TOGGLE	F	IR &Measure
EOC	QUANT	0	Open Circuit (V)
SEQUENCER	TOGGLE	TRUE	Run as Sequence
PSTATMODEL	IQUANT	53	Pstat Model
PSTATSECTION	LABEL	IFC5000-01520	Pstat Section
PSTATSERIALNO	LABEL	01520	Pstat Serial Number
CTRLMODE	IQUANT	0	Control Mode
ELECTROMETER	IQUANT	1	RE=0 or CS=1
IESTAB	IQUANT	0	I/E Stability
CASPEED	IQUANT	4	Control Amp Speed
CONVENTION	IQUANT	1	Current Convention
ICHRANGE	IQUANT	2	Ich Range
ICHRANGEMODE	TOGGLE	T	Ich Auto Range
ICHOFFSETENABLE	TOGGLE	F	Ich Offset Enable
ICHOFFSET	QUANT	0	Ich Offset (V)
ICHFILTER	IQUANT	1	Ich Filter
VCHRANGE	IQUANT	2	Vch Range
VCHRANGEMODE	TOGGLE	T	Vch Auto Range
VCHOFFSETENABLE	TOGGLE	F	Vch Offset Enable
VCHOFFSET	QUANT	0	Vch Offset (V)
VCHFILTER	IQUANT	1	Vch Filter
IERANGELOWERLIMIT	IQUANT	9	I/E Range Lower Limit
IERANGEMODE	TOGGLE	F	I/E AutoRange
IERANGE	IQUANT	9	I/E Range
ACHSELECT	IQUANT	1	Ach Select
ACHRANGE	IQUANT	2	Ach Range
ACHOFFSETENABLE	TOGGLE	F	Ach Offset Enable
ACHOFFSET	QUANT	0	Ach Offset (V)
ACHFILTER	IQUANT	1	Ach Filter
CABLEID	IQUANT	14	Cable ID
DCCALDATE	LABEL	5-7-2017	DC Calibration Date
ACCALDATE	LABEL	12/3/2015	AC Calibration Date
FRAMEWORKVERSION	QUANT	7.01	Framework Version
INSTRUMENTVERSION	LABEL	4.00	Instrument Version
CURVE	TABLE	94
	Pt	T	Vf	Im	Vu	Pwr	Sig	Ach	Temp	IERange	Over
	#	s	V	A	V	W	V	V	deg C	#	bits
	0	0.013333	5.89689E-001	2.81357E-004	0.00000E+000	1.65913E-004	1.68088E-001	5.89965E-001	3.57820E+000	9	...........
	1	0.026667	6.18916E-001	2.81690E-004	0.00000E+000	1.74343E-004	1.68088E-001	6.19171E-001	3.57820E+000	9	...........
	2	0.04	6.43686E-001	2.81513E-004	0.00000E+000	1.81206E-004	1.68088E-001	6.43958E-001	3.57820E+000	9	...........
	3	0.053333	6.65215E-001	2.81223E-004	0.00000E+000	1.87074E-004	1.68088E-001	6.65464E-001	3.57820E+000	9	...........
	4	0.066667	6.84244E-001	2.80537E-004	0.00000E+000	1.91956E-004	1.68088E-001	6.84518E-001	3.57820E+000	9	...........
	5	0.08	7.01283E-001	2.81062E-004	0.00000E+000	1.97104E-004	1.68088E-001	7.01558E-001	3.57820E+000	9	...........
	6	0.093333	7.16681E-001	2.81550E-004	0.00000E+000	2.01782E-004	1.68088E-001	7.16953E-001	3.57820E+000	9	...........
	7	0.106667	7.30715E-001	2.82329E-004	0.00000E+000	2.06302E-004	1.68088E-001	7.31013E-001	3.57820E+000	9	...........
	8	0.12	7.43576E-001	2.80920E-004	0.00000E+000	2.08885E-004	1.68088E-001	7.43870E-001	3.57820E+000	9	...........
	9	0.133333	7.55451E-001	2.80544E-004	0.00000E+000	2.11937E-004	1.68088E-001	7.55727E-001	3.57820E+000	9	...........
	10	0.146667	7.66413E-001	2.81711E-004	0.00000E+000	2.15907E-004	1.68088E-001	7.66705E-001	3.57820E+000	9	...........
	11	0.16	7.76570E-001	2.81885E-004	0.00000E+000	2.18903E-004	1.68088E-001	7.76867E-001	3.57820E+000	9	...........
	12	0.173333	7.85993E-001	2.81482E-004	0.00000E+000	2.21243E-004	1.68088E-001	7.86307E-001	3.57820E+000	9	...........
	13	0.186667	7.94818E-001	2.80625E-004	0.00000E+000	2.23046E-004	1.68088E-001	7.95135E-001	3.57820E+000	9	...........
	14	0.2	8.03071E-001	2.80269E-004	0.00000E+000	2.25076E-004	1.68088E-001	8.03392E-001	3.57820E+000	9	...........
	15	0.213333	8.10796E-001	2.81327E-004	0.00000E+000	2.28099E-004	1.68088E-001	8.11158E-001	3.57820E+000	9	...........
	16	0.226667	8.18079E-001	2.81181E-004	0.00000E+000	2.30029E-004	1.68088E-001	8.18436E-001	3.57820E+000	9	...........
	17	0.24	8.24943E-001	2.80877E-004	0.00000E+000	2.31708E-004	1.68088E-001	8.25298E-001	3.57820E+000	9	...........
	18	0.253333	8.31380E-001	2.81508E-004	0.00000E+000	2.34040E-004	1.68088E-001	8.31731E-001	3.57820E+000	9	...........
	19	0.266667	8.37487E-001	2.81238E-004	0.00000E+000	2.35533E-004	1.68088E-001	8.37830E-001	3.57820E+000	9	...........
	20	0.28	8.43278E-001	2.80637E-004	0.00000E+000	2.36655E-004	1.68088E-001	8.43628E-001	3.57820E+000	9	...........
	21	0.293333	8.48753E-001	2.80842E-004	0.00000E+000	2.38365E-004	1.68088E-001	8.49107E-001	3.57820E+000	9	...........
	22	0.306667	8.53958E-001	2.81682E-004	0.00000E+000	2.40544E-004	1.68088E-001	8.54301E-001	3.57820E+000	9	...........
	23	0.32	8.58915E-001	2.80920E-004	0.00000E+000	2.41286E-004	1.68088E-001	8.59264E-001	3.57820E+000	9	...........
	24	0.333333	8.63648E-001	2.81659E-004	0.00000E+000	2.43254E-004	1.68088E-001	8.63988E-001	3.57820E+000	9	...........
	25	0.346667	8.68152E-001	2.80532E-004	0.00000E+000	2.43545E-004	1.68088E-001	8.68496E-001	3.57820E+000	9	...........
	26	0.36	8.72468E-001	2.81970E-004	0.00000E+000	2.46010E-004	1.68088E-001	8.72811E-001	3.57820E+000	9	...........
	27	0.373333	8.76559E-001	2.80429E-004	0.00000E+000	2.45813E-004	1.68088E-001	8.76896E-001	3.57820E+000	9	...........
	28	0.386667	8.80493E-001	2.81088E-004	0.00000E+000	2.47496E-004	1.68088E-001	8.80814E-001	3.57820E+000	9	...........
	29	0.4	8.84266E-001	2.80599E-004	0.00000E+000	2.48124E-004	1.68088E-001	8.84571E-001	3.57820E+000	9	...........
	30	0.413333	8.87875E-001	2.82474E-004	0.00000E+000	2.50802E-004	1.68088E-001	8.88206E-001	3.57820E+000	9	...........
	31	0.426667	8.91375E-001	2.81099E-004	0.00000E+000	2.50565E-004	1.68088E-001	8.91709E-001	3.57820E+000	9	...........
	32	0.44	8.94740E-001	2.81378E-004	0.00000E+000	2.51760E-004	1.68088E-001	8.95103E-001	3.57820E+000	9	...........
	33	0.453333	8.98030E-001	2.80612E-004	0.00000E+000	2.51997E-004	1.68088E-001	8.98382E-001	3.57820E+000	9	...........
	34	0.466667	9.01186E-001	2.80372E-004	0.00000E+000	2.52667E-004	1.68088E-001	9.01525E-001	3.57820E+000	9	...........
	35	0.48	9.04242E-001	2.81499E-004	0.00000E+000	2.54543E-004	1.68088E-001	9.04614E-001	3.57820E+000	9	...........
	36	0.493333	9.07168E-001	2.81497E-004	0.00000E+000	2.55365E-004	1.68088E-001	9.07539E-001	3.57820E+000	9	...........
	37	0.506667	9.10009E-001	2.81275E-004	0.00000E+000	2.55963E-004	1.68088E-001	9.10325E-001	3.57820E+000	9	...........
	38	0.52	9.12739E-001	2.80806E-004	0.00000E+000	2.56303E-004	1.68088E-001	9.13072E-001	3.57820E+000	9	...........
	39	0.533333	9.15358E-001	2.81273E-004	0.00000E+000	2.57466E-004	1.68088E-001	9.15734E-001	3.57820E+000	9	...........
	40	0.546667	9.17926E-001	2.81732E-004	0.00000E+000	2.58609E-004	1.68088E-001	9.18278E-001	3.57820E+000	9	...........
	41	0.56	9.20454E-001	2.80537E-004	0.00000E+000	2.58221E-004	1.68088E-001	9.20775E-001	3.57820E+000	9	...........
	42	0.573333	9.22878E-001	2.81360E-004	0.00000E+000	2.59661E-004	1.68088E-001	9.23210E-001	3.57820E+000	9	...........
	43	0.586667	9.25252E-001	2.81461E-004	0.00000E+000	2.60422E-004	1.68088E-001	9.25578E-001	3.57820E+000	9	...........
	44	0.6	9.27518E-001	2.80526E-004	0.00000E+000	2.60193E-004	1.68088E-001	9.27849E-001	3.57820E+000	9	...........
	45	0.613333	9.29721E-001	2.81685E-004	0.00000E+000	2.61888E-004	1.68088E-001	9.30062E-001	3.57820E+000	9	...........
	46	0.626667	9.31873E-001	2.80921E-004	0.00000E+000	2.61783E-004	1.68088E-001	9.32223E-001	3.57820E+000	9	...........
	47	0.64	9.33975E-001	2.80312E-004	0.00000E+000	2.61804E-004	1.68088E-001	9.34333E-001	3.57820E+000	9	...........
	48	0.653333	9.36041E-001	2.81872E-004	0.00000E+000	2.63844E-004	1.68088E-001	9.36401E-001	3.57820E+000	9	...........
	49	0.666667	9.38064E-001	2.80813E-004	0.00000E+000	2.63420E-004	1.68088E-001	9.38423E-001	3.57820E+000	9	...........
	50	0.68	9.40060E-001	2.80939E-004	0.00000E+000	2.64099E-004	1.68088E-001	9.40428E-001	3.57820E+000	9	...........
	51	0.693333	9.42033E-001	2.80819E-004	0.00000E+000	2.64541E-004	1.68088E-001	9.42394E-001	3.57820E+000	9	...........
	52	0.706667	9.43909E-001	2.80577E-004	0.00000E+000	2.64839E-004	1.68088E-001	9.44266E-001	3.57820E+000	9	...........
	53	0.72	9.45767E-001	2.79564E-004	0.00000E+000	2.64403E-004	1.68088E-001	9.46110E-001	3.57820E+000	9	...........
	54	0.733333	9.47612E-001	2.80807E-004	0.00000E+000	2.66096E-004	1.68088E-001	9.47926E-001	3.57820E+000	9	...........
	55	0.746667	9.49397E-001	2.81202E-004	0.00000E+000	2.66973E-004	1.68088E-001	9.49734E-001	3.57820E+000	9	...........
	56	0.76	9.51154E-001	2.80881E-004	0.00000E+000	2.67162E-004	1.68088E-001	9.51469E-001	3.57820E+000	9	...........
	57	0.773333	9.52889E-001	2.81847E-004	0.00000E+000	2.68569E-004	1.68088E-001	9.53211E-001	3.57820E+000	9	...........
	58	0.786667	9.54614E-001	2.81806E-004	0.00000E+000	2.69016E-004	1.68088E-001	9.54936E-001	3.57820E+000	9	...........
	59	0.8	9.56274E-001	2.81437E-004	0.00000E+000	2.69131E-004	1.68088E-001	9.56581E-001	3.57820E+000	9	...........
	60	0.813333	9.57908E-001	2.81114E-004	0.00000E+000	2.69281E-004	1.68088E-001	9.58220E-001	3.57820E+000	9	...........
	61	0.826667	9.59521E-001	2.80724E-004	0.00000E+000	2.69361E-004	1.68088E-001	9.59828E-001	3.57820E+000	9	...........
	62	0.84	9.61059E-001	2.80570E-004	0.00000E+000	2.69644E-004	1.68088E-001	9.61420E-001	3.57820E+000	9	...........
	63	0.853333	9.62588E-001	2.81403E-004	0.00000E+000	2.70876E-004	1.68088E-001	9.62956E-001	3.57820E+000	9	...........
	64	0.866667	9.64120E-001	2.81393E-004	0.00000E+000	2.71297E-004	1.68088E-001	9.64468E-001	3.57851E+000	9	...........
	65	0.88	9.65627E-001	2.81425E-004	0.00000E+000	2.71752E-004	1.68088E-001	9.65963E-001	3.57920E+000	9	...........
	66	0.893333	9.67101E-001	2.80910E-004	0.00000E+000	2.71668E-004	1.68088E-001	9.67444E-001	3.57920E+000	9	...........
	67	0.906667	9.68566E-001	2.80597E-004	0.00000E+000	2.71777E-004	1.68088E-001	9.68904E-001	3.57920E+000	9	...........
	68	0.92	9.70015E-001	2.81213E-004	0.00000E+000	2.72781E-004	1.68088E-001	9.70341E-001	3.57920E+000	9	...........
	69	0.933333	9.71440E-001	2.81498E-004	0.00000E+000	2.73459E-004	1.68088E-001	9.71794E-001	3.57920E+000	9	...........
	70	0.946667	9.72870E-001	2.80927E-004	0.00000E+000	2.73306E-004	1.68088E-001	9.73189E-001	3.57920E+000	9	...........
	71	0.96	9.74249E-001	2.81287E-004	0.00000E+000	2.74043E-004	1.68088E-001	9.74518E-001	3.57920E+000	9	...........
	72	0.97333	9.75571E-001	2.82029E-004	0.00000E+000	2.75139E-004	1.68088E-001	9.75864E-001	3.57920E+000	9	...........
	73	0.98667	9.76874E-001	2.81262E-004	0.00000E+000	2.74757E-004	1.68088E-001	9.77160E-001	3.57920E+000	9	...........
	74	1	9.78159E-001	2.80960E-004	0.00000E+000	2.74823E-004	1.68088E-001	9.78463E-001	3.57920E+000	9	...........
	75	1.01333	9.79432E-001	2.80290E-004	0.00000E+000	2.74525E-004	1.68088E-001	9.79743E-001	3.57920E+000	9	...........
	76	1.02667	9.80719E-001	2.81802E-004	0.00000E+000	2.76369E-004	1.68088E-001	9.81046E-001	3.57920E+000	9	...........
	77	1.04	9.81999E-001	2.80973E-004	0.00000E+000	2.75915E-004	1.68088E-001	9.82324E-001	3.57920E+000	9	...........
	78	1.05333	9.83247E-001	2.81945E-004	0.00000E+000	2.77222E-004	1.68088E-001	9.83591E-001	3.57920E+000	9	...........
	79	1.06667	9.84459E-001	2.82091E-004	0.00000E+000	2.77707E-004	1.68088E-001	9.84829E-001	3.57920E+000	9	...........
	80	1.08	9.85690E-001	2.81637E-004	0.00000E+000	2.77606E-004	1.68088E-001	9.86080E-001	3.57920E+000	9	...........
	81	1.09333	9.86909E-001	2.81273E-004	0.00000E+000	2.77591E-004	1.68088E-001	9.87297E-001	3.57920E+000	9	...........
	82	1.10667	9.88122E-001	2.81246E-004	0.00000E+000	2.77905E-004	1.68088E-001	9.88501E-001	3.57920E+000	9	...........
	83	1.12	9.89317E-001	2.81635E-004	0.00000E+000	2.78626E-004	1.68088E-001	9.89690E-001	3.57920E+000	9	...........
	84	1.13333	9.90483E-001	2.80433E-004	0.00000E+000	2.77764E-004	1.68088E-001	9.90847E-001	3.57920E+000	9	...........
	85	1.14667	9.91640E-001	2.81320E-004	0.00000E+000	2.78968E-004	1.68088E-001	9.92001E-001	3.57920E+000	9	...........
	86	1.16	9.92761E-001	2.80365E-004	0.00000E+000	2.78335E-004	1.68088E-001	9.93159E-001	3.57920E+000	9	...........
	87	1.17333	9.93909E-001	2.82110E-004	0.00000E+000	2.80391E-004	1.68088E-001	9.94294E-001	3.57920E+000	9	...........
	88	1.18667	9.95043E-001	2.80861E-004	0.00000E+000	2.79468E-004	1.68088E-001	9.95410E-001	3.57920E+000	9	...........
	89	1.2	9.96178E-001	2.81746E-004	0.00000E+000	2.80669E-004	1.68088E-001	9.96535E-001	3.57920E+000	9	...........
	90	1.21333	9.97289E-001	2.81382E-004	0.00000E+000	2.80619E-004	1.68088E-001	9.97682E-001	3.57920E+000	9	...........
	91	1.22667	9.98407E-001	2.80965E-004	0.00000E+000	2.80517E-004	1.68088E-001	9.98786E-001	3.57920E+000	9	...........
	92	1.24	9.99490E-001	2.81040E-004	0.00000E+000	2.80896E-004	1.68088E-001	9.99872E-001	3.57920E+000	9	...........
	93	1.24167	1.00002E+000	2.79210E-004	0.00000E+000	2.79215E-004	1.68088E-001	1.00051E+000	3.57920E+000	9	...........
STARTTIMEOFFSET	QUANT	836.5352	Start Time Offset (s)
