EXPLAIN
TAG	PWR800_CHARGE
TITLE	LABEL	PWR Cyclic Charge Discharge (Cell) - Charge Step	Test &Identifier
DATE	LABEL	7-7-2017	Date
TIME	LABEL	16:01:43	Time
NOTES	NOTES	3	&Notes...
	supercap test cell
	2.8mg
	6M KOH
PSTAT	PSTAT	IFC5000-01520	Potentiostat
CAPACITY	QUANT	1.00000E-003	Capacity (A-hr)
CELLTYPE	SELECTOR	1	&Cell Type
WORKINGCONNECTION	SELECTOR	0	&Working Lead
MAXCHARGETIME	VARIABLEANDUNITS	1.00000E+002	s	1.00000E+002	second(s)	Max &Charge Time
CHARGECURRENT	QUANT	2.80000E-004	&Charge Current (A) 
VOLTAGEFINISH	TWOPARAM	F	1.00000E-003	3.60000E+003	&Voltage Finish	 I (A) < 	Max Time(s)
SAMPLETIME	QUANT	1.00000E-002	Sa&mple Period (s)
CHARGESTOPAT1	MULTIPARAM	4	1.00000E+000	Charge Stop At &1	Voltage > Limit	V
CHARGESTOPAT2	MULTIPARAM	0	0.00000E+000	Charge Stop At &2	None	N/A
AESBHCSELECTOR	TOGGLE	F	Save Both Half Cells
IRCOMP	TOGGLE	F	IR &Measure
EOC	QUANT	0	Open Circuit (V)
SEQUENCER	TOGGLE	TRUE	Run as Sequence
PSTATMODEL	IQUANT	53	Pstat Model
PSTATSECTION	LABEL	IFC5000-01520	Pstat Section
PSTATSERIALNO	LABEL	01520	Pstat Serial Number
CTRLMODE	IQUANT	0	Control Mode
ELECTROMETER	IQUANT	1	RE=0 or CS=1
IESTAB	IQUANT	0	I/E Stability
CASPEED	IQUANT	4	Control Amp Speed
CONVENTION	IQUANT	1	Current Convention
ICHRANGE	IQUANT	2	Ich Range
ICHRANGEMODE	TOGGLE	T	Ich Auto Range
ICHOFFSETENABLE	TOGGLE	F	Ich Offset Enable
ICHOFFSET	QUANT	0	Ich Offset (V)
ICHFILTER	IQUANT	1	Ich Filter
VCHRANGE	IQUANT	2	Vch Range
VCHRANGEMODE	TOGGLE	T	Vch Auto Range
VCHOFFSETENABLE	TOGGLE	F	Vch Offset Enable
VCHOFFSET	QUANT	0	Vch Offset (V)
VCHFILTER	IQUANT	1	Vch Filter
IERANGELOWERLIMIT	IQUANT	9	I/E Range Lower Limit
IERANGEMODE	TOGGLE	F	I/E AutoRange
IERANGE	IQUANT	9	I/E Range
ACHSELECT	IQUANT	1	Ach Select
ACHRANGE	IQUANT	2	Ach Range
ACHOFFSETENABLE	TOGGLE	F	Ach Offset Enable
ACHOFFSET	QUANT	0	Ach Offset (V)
ACHFILTER	IQUANT	1	Ach Filter
CABLEID	IQUANT	14	Cable ID
DCCALDATE	LABEL	5-7-2017	DC Calibration Date
ACCALDATE	LABEL	12/3/2015	AC Calibration Date
FRAMEWORKVERSION	QUANT	7.01	Framework Version
INSTRUMENTVERSION	LABEL	4.00	Instrument Version
CURVE	TABLE	77
	Pt	T	Vf	Im	Vu	Pwr	Sig	Ach	Temp	IERange	Over
	#	s	V	A	V	W	V	V	deg C	#	bits
	0	0.013333	6.03459E-001	2.81117E-004	0.00000E+000	1.69643E-004	1.68088E-001	6.03752E-001	3.57890E+000	9	...........
	1	0.026667	6.32734E-001	2.80751E-004	0.00000E+000	1.77641E-004	1.68088E-001	6.33001E-001	3.57890E+000	9	...........
	2	0.04	6.57663E-001	2.80757E-004	0.00000E+000	1.84644E-004	1.68088E-001	6.57956E-001	3.57890E+000	9	...........
	3	0.053333	6.79458E-001	2.80451E-004	0.00000E+000	1.90555E-004	1.68088E-001	6.79745E-001	3.57890E+000	9	...........
	4	0.066667	6.98808E-001	2.81276E-004	0.00000E+000	1.96558E-004	1.68088E-001	6.99089E-001	3.57890E+000	9	...........
	5	0.08	7.16212E-001	2.80543E-004	0.00000E+000	2.00928E-004	1.68088E-001	7.16485E-001	3.57890E+000	9	...........
	6	0.093333	7.31992E-001	2.80931E-004	0.00000E+000	2.05640E-004	1.68088E-001	7.32296E-001	3.57890E+000	9	...........
	7	0.106667	7.46411E-001	2.80620E-004	0.00000E+000	2.09458E-004	1.68088E-001	7.46701E-001	3.57890E+000	9	...........
	8	0.12	7.59658E-001	2.81686E-004	0.00000E+000	2.13985E-004	1.68088E-001	7.59941E-001	3.57890E+000	9	...........
	9	0.133333	7.71863E-001	2.80611E-004	0.00000E+000	2.16593E-004	1.68088E-001	7.72172E-001	3.57890E+000	9	...........
	10	0.146667	7.83182E-001	2.81488E-004	0.00000E+000	2.20456E-004	1.68088E-001	7.83489E-001	3.57890E+000	9	...........
	11	0.16	7.93682E-001	2.80387E-004	0.00000E+000	2.22538E-004	1.68088E-001	7.93972E-001	3.57890E+000	9	...........
	12	0.173333	8.03440E-001	2.81842E-004	0.00000E+000	2.26443E-004	1.68088E-001	8.03727E-001	3.57890E+000	9	...........
	13	0.186667	8.12533E-001	2.83152E-004	0.00000E+000	2.30070E-004	1.68088E-001	8.12816E-001	3.57890E+000	9	...........
	14	0.2	8.21059E-001	2.82126E-004	0.00000E+000	2.31642E-004	1.68088E-001	8.21357E-001	3.57890E+000	9	...........
	15	0.213333	8.29044E-001	2.82035E-004	0.00000E+000	2.33819E-004	1.68088E-001	8.29330E-001	3.57890E+000	9	...........
	16	0.226667	8.36523E-001	2.81705E-004	0.00000E+000	2.35652E-004	1.68088E-001	8.36817E-001	3.57890E+000	9	...........
	17	0.24	8.43626E-001	2.81340E-004	0.00000E+000	2.37346E-004	1.68088E-001	8.43885E-001	3.57890E+000	9	...........
	18	0.253333	8.50312E-001	2.81416E-004	0.00000E+000	2.39291E-004	1.68088E-001	8.50601E-001	3.57890E+000	9	...........
	19	0.266667	8.56549E-001	2.81338E-004	0.00000E+000	2.40980E-004	1.68088E-001	8.56872E-001	3.57890E+000	9	...........
	20	0.28	8.62511E-001	2.81981E-004	0.00000E+000	2.43211E-004	1.68088E-001	8.62846E-001	3.57890E+000	9	...........
	21	0.293333	8.68130E-001	2.81347E-004	0.00000E+000	2.44246E-004	1.68088E-001	8.68462E-001	3.57890E+000	9	...........
	22	0.306667	8.73474E-001	2.82819E-004	0.00000E+000	2.47035E-004	1.68088E-001	8.73789E-001	3.57890E+000	9	...........
	23	0.32	8.78510E-001	2.80842E-004	0.00000E+000	2.46722E-004	1.68088E-001	8.78831E-001	3.57890E+000	9	...........
	24	0.333333	8.83328E-001	2.81788E-004	0.00000E+000	2.48911E-004	1.68088E-001	8.83677E-001	3.57890E+000	9	...........
	25	0.346667	8.87912E-001	2.81404E-004	0.00000E+000	2.49862E-004	1.68088E-001	8.88263E-001	3.57890E+000	9	...........
	26	0.36	8.92269E-001	2.80857E-004	0.00000E+000	2.50600E-004	1.68088E-001	8.92618E-001	3.57890E+000	9	...........
	27	0.373333	8.96415E-001	2.81527E-004	0.00000E+000	2.52365E-004	1.68088E-001	8.96805E-001	3.57890E+000	9	...........
	28	0.386667	9.00398E-001	2.80639E-004	0.00000E+000	2.52686E-004	1.68088E-001	9.00775E-001	3.57890E+000	9	...........
	29	0.4	9.04202E-001	2.81118E-004	0.00000E+000	2.54187E-004	1.68088E-001	9.04599E-001	3.57890E+000	9	...........
	30	0.413333	9.07887E-001	2.80001E-004	0.00000E+000	2.54209E-004	1.68088E-001	9.08253E-001	3.57890E+000	9	...........
	31	0.426667	9.11371E-001	2.80774E-004	0.00000E+000	2.55889E-004	1.68088E-001	9.11742E-001	3.57869E+000	9	...........
	32	0.44	9.14731E-001	2.81045E-004	0.00000E+000	2.57080E-004	1.68088E-001	9.15097E-001	3.57860E+000	9	...........
	33	0.453333	9.17933E-001	2.82808E-004	0.00000E+000	2.59599E-004	1.68088E-001	9.18334E-001	3.57860E+000	9	...........
	34	0.466667	9.21117E-001	2.81551E-004	0.00000E+000	2.59342E-004	1.68088E-001	9.21435E-001	3.57860E+000	9	...........
	35	0.48	9.24130E-001	2.80785E-004	0.00000E+000	2.59482E-004	1.68088E-001	9.24452E-001	3.57860E+000	9	...........
	36	0.493333	9.27033E-001	2.81179E-004	0.00000E+000	2.60663E-004	1.68088E-001	9.27358E-001	3.57860E+000	9	...........
	37	0.506667	9.29865E-001	2.80526E-004	0.00000E+000	2.60851E-004	1.68088E-001	9.30185E-001	3.57860E+000	9	...........
	38	0.52	9.32595E-001	2.82299E-004	0.00000E+000	2.63271E-004	1.68088E-001	9.32928E-001	3.57860E+000	9	...........
	39	0.533333	9.35268E-001	2.81859E-004	0.00000E+000	2.63614E-004	1.68088E-001	9.35589E-001	3.57860E+000	9	...........
	40	0.546667	9.37822E-001	2.81334E-004	0.00000E+000	2.63841E-004	1.68088E-001	9.38153E-001	3.57860E+000	9	...........
	41	0.56	9.40254E-001	2.81180E-004	0.00000E+000	2.64381E-004	1.68088E-001	9.40610E-001	3.57860E+000	9	...........
	42	0.573333	9.42667E-001	2.81941E-004	0.00000E+000	2.65777E-004	1.68088E-001	9.42968E-001	3.57860E+000	9	...........
	43	0.586667	9.44953E-001	2.81512E-004	0.00000E+000	2.66015E-004	1.68088E-001	9.45314E-001	3.57860E+000	9	...........
	44	0.6	9.47250E-001	2.82085E-004	0.00000E+000	2.67205E-004	1.68088E-001	9.47595E-001	3.57860E+000	9	...........
	45	0.613333	9.49482E-001	2.81500E-004	0.00000E+000	2.67280E-004	1.68088E-001	9.49851E-001	3.57860E+000	9	...........
	46	0.626667	9.51647E-001	2.81136E-004	0.00000E+000	2.67542E-004	1.68088E-001	9.52004E-001	3.57860E+000	9	...........
	47	0.64	9.53768E-001	2.81007E-004	0.00000E+000	2.68016E-004	1.68088E-001	9.54123E-001	3.57860E+000	9	...........
	48	0.653333	9.55811E-001	2.81021E-004	0.00000E+000	2.68603E-004	1.68088E-001	9.56184E-001	3.57860E+000	9	...........
	49	0.666667	9.57808E-001	2.82081E-004	0.00000E+000	2.70179E-004	1.68088E-001	9.58183E-001	3.57860E+000	9	...........
	50	0.68	9.59754E-001	2.81956E-004	0.00000E+000	2.70608E-004	1.68088E-001	9.60159E-001	3.57860E+000	9	...........
	51	0.693333	9.61646E-001	2.82100E-004	0.00000E+000	2.71281E-004	1.68088E-001	9.62046E-001	3.57860E+000	9	...........
	52	0.706667	9.63539E-001	2.81374E-004	0.00000E+000	2.71115E-004	1.68088E-001	9.63924E-001	3.57860E+000	9	...........
	53	0.72	9.65366E-001	2.81670E-004	0.00000E+000	2.71915E-004	1.68088E-001	9.65750E-001	3.57860E+000	9	...........
	54	0.733333	9.67158E-001	2.82011E-004	0.00000E+000	2.72749E-004	1.68088E-001	9.67548E-001	3.57860E+000	9	...........
	55	0.746667	9.68895E-001	2.81415E-004	0.00000E+000	2.72661E-004	1.68088E-001	9.69289E-001	3.57860E+000	9	...........
	56	0.76	9.70586E-001	2.81413E-004	0.00000E+000	2.73135E-004	1.68088E-001	9.71024E-001	3.57860E+000	9	...........
	57	0.773333	9.72325E-001	2.81484E-004	0.00000E+000	2.73693E-004	1.68088E-001	9.72741E-001	3.57860E+000	9	...........
	58	0.786667	9.74065E-001	2.80851E-004	0.00000E+000	2.73567E-004	1.68088E-001	9.74424E-001	3.57860E+000	9	...........
	59	0.8	9.75686E-001	2.81557E-004	0.00000E+000	2.74711E-004	1.68088E-001	9.76054E-001	3.57860E+000	9	...........
	60	0.813333	9.77271E-001	2.82068E-004	0.00000E+000	2.75657E-004	1.68088E-001	9.77638E-001	3.57860E+000	9	...........
	61	0.826667	9.78803E-001	2.80780E-004	0.00000E+000	2.74829E-004	1.68088E-001	9.79171E-001	3.57860E+000	9	...........
	62	0.84	9.80319E-001	2.81051E-004	0.00000E+000	2.75520E-004	1.68088E-001	9.80674E-001	3.57860E+000	9	...........
	63	0.853333	9.81809E-001	2.82219E-004	0.00000E+000	2.77085E-004	1.68088E-001	9.82165E-001	3.57860E+000	9	...........
	64	0.866667	9.83277E-001	2.80357E-004	0.00000E+000	2.75669E-004	1.68088E-001	9.83660E-001	3.57860E+000	9	...........
	65	0.88	9.84753E-001	2.82614E-004	0.00000E+000	2.78305E-004	1.68088E-001	9.85131E-001	3.57860E+000	9	...........
	66	0.893333	9.86181E-001	2.80993E-004	0.00000E+000	2.77110E-004	1.68088E-001	9.86581E-001	3.57860E+000	9	...........
	67	0.906667	9.87566E-001	2.80769E-004	0.00000E+000	2.77278E-004	1.68088E-001	9.87951E-001	3.57860E+000	9	...........
	68	0.92	9.88953E-001	2.81569E-004	0.00000E+000	2.78459E-004	1.68088E-001	9.89326E-001	3.57860E+000	9	...........
	69	0.933333	9.90331E-001	2.80373E-004	0.00000E+000	2.77662E-004	1.68088E-001	9.90692E-001	3.57860E+000	9	...........
	70	0.946667	9.91687E-001	2.81363E-004	0.00000E+000	2.79024E-004	1.68088E-001	9.92079E-001	3.57860E+000	9	...........
	71	0.96	9.93032E-001	2.81164E-004	0.00000E+000	2.79205E-004	1.68088E-001	9.93455E-001	3.57860E+000	9	...........
	72	0.97333	9.94416E-001	2.81909E-004	0.00000E+000	2.80335E-004	1.68088E-001	9.94775E-001	3.57860E+000	9	...........
	73	0.98667	9.95714E-001	2.80116E-004	0.00000E+000	2.78915E-004	1.68088E-001	9.96066E-001	3.57860E+000	9	...........
	74	1	9.96981E-001	2.80786E-004	0.00000E+000	2.79938E-004	1.68088E-001	9.97355E-001	3.57860E+000	9	...........
	75	1.01333	9.98270E-001	2.80340E-004	0.00000E+000	2.79855E-004	1.68088E-001	9.98617E-001	3.57860E+000	9	...........
	76	1.02667	9.99538E-001	2.80612E-004	0.00000E+000	2.80482E-004	1.68088E-001	9.99906E-001	3.57860E+000	9	...........
STARTTIMEOFFSET	QUANT	1181.878	Start Time Offset (s)
