EXPLAIN
TAG	PWR800_CHARGE
TITLE	LABEL	PWR Cyclic Charge Discharge (Cell) - Charge Step	Test &Identifier
DATE	LABEL	7-7-2017	Date
TIME	LABEL	15:51:19	Time
NOTES	NOTES	3	&Notes...
	supercap test cell
	2.8mg
	6M KOH
PSTAT	PSTAT	IFC5000-01520	Potentiostat
CAPACITY	QUANT	1.00000E-003	Capacity (A-hr)
CELLTYPE	SELECTOR	1	&Cell Type
WORKINGCONNECTION	SELECTOR	0	&Working Lead
MAXCHARGETIME	VARIABLEANDUNITS	1.00000E+002	s	1.00000E+002	second(s)	Max &Charge Time
CHARGECURRENT	QUANT	2.80000E-004	&Charge Current (A) 
VOLTAGEFINISH	TWOPARAM	F	1.00000E-003	3.60000E+003	&Voltage Finish	 I (A) < 	Max Time(s)
SAMPLETIME	QUANT	1.00000E-002	Sa&mple Period (s)
CHARGESTOPAT1	MULTIPARAM	4	1.00000E+000	Charge Stop At &1	Voltage > Limit	V
CHARGESTOPAT2	MULTIPARAM	0	0.00000E+000	Charge Stop At &2	None	N/A
AESBHCSELECTOR	TOGGLE	F	Save Both Half Cells
IRCOMP	TOGGLE	F	IR &Measure
EOC	QUANT	0	Open Circuit (V)
SEQUENCER	TOGGLE	TRUE	Run as Sequence
PSTATMODEL	IQUANT	53	Pstat Model
PSTATSECTION	LABEL	IFC5000-01520	Pstat Section
PSTATSERIALNO	LABEL	01520	Pstat Serial Number
CTRLMODE	IQUANT	0	Control Mode
ELECTROMETER	IQUANT	1	RE=0 or CS=1
IESTAB	IQUANT	0	I/E Stability
CASPEED	IQUANT	4	Control Amp Speed
CONVENTION	IQUANT	1	Current Convention
ICHRANGE	IQUANT	2	Ich Range
ICHRANGEMODE	TOGGLE	T	Ich Auto Range
ICHOFFSETENABLE	TOGGLE	F	Ich Offset Enable
ICHOFFSET	QUANT	0	Ich Offset (V)
ICHFILTER	IQUANT	1	Ich Filter
VCHRANGE	IQUANT	2	Vch Range
VCHRANGEMODE	TOGGLE	T	Vch Auto Range
VCHOFFSETENABLE	TOGGLE	F	Vch Offset Enable
VCHOFFSET	QUANT	0	Vch Offset (V)
VCHFILTER	IQUANT	1	Vch Filter
IERANGELOWERLIMIT	IQUANT	9	I/E Range Lower Limit
IERANGEMODE	TOGGLE	F	I/E AutoRange
IERANGE	IQUANT	9	I/E Range
ACHSELECT	IQUANT	1	Ach Select
ACHRANGE	IQUANT	2	Ach Range
ACHOFFSETENABLE	TOGGLE	F	Ach Offset Enable
ACHOFFSET	QUANT	0	Ach Offset (V)
ACHFILTER	IQUANT	1	Ach Filter
CABLEID	IQUANT	14	Cable ID
DCCALDATE	LABEL	5-7-2017	DC Calibration Date
ACCALDATE	LABEL	12/3/2015	AC Calibration Date
FRAMEWORKVERSION	QUANT	7.01	Framework Version
INSTRUMENTVERSION	LABEL	4.00	Instrument Version
CURVE	TABLE	101
	Pt	T	Vf	Im	Vu	Pwr	Sig	Ach	Temp	IERange	Over
	#	s	V	A	V	W	V	V	deg C	#	bits
	0	0.013333	5.85977E-001	2.81007E-004	0.00000E+000	1.64664E-004	1.68088E-001	5.86273E-001	3.57930E+000	9	...........
	1	0.026667	6.14962E-001	2.81170E-004	0.00000E+000	1.72909E-004	1.68088E-001	6.15237E-001	3.57930E+000	9	...........
	2	0.04	6.39468E-001	2.80463E-004	0.00000E+000	1.79347E-004	1.68088E-001	6.39718E-001	3.57930E+000	9	...........
	3	0.053333	6.60699E-001	2.80802E-004	0.00000E+000	1.85526E-004	1.68088E-001	6.60968E-001	3.57930E+000	9	...........
	4	0.066667	6.79455E-001	2.80955E-004	0.00000E+000	1.90897E-004	1.68088E-001	6.79732E-001	3.57930E+000	9	...........
	5	0.08	6.96206E-001	2.81814E-004	0.00000E+000	1.96201E-004	1.68088E-001	6.96472E-001	3.57930E+000	9	...........
	6	0.093333	7.11339E-001	2.81634E-004	0.00000E+000	2.00337E-004	1.68088E-001	7.11613E-001	3.57930E+000	9	...........
	7	0.106667	7.25102E-001	2.81897E-004	0.00000E+000	2.04404E-004	1.68088E-001	7.25406E-001	3.57930E+000	9	...........
	8	0.12	7.37665E-001	2.80995E-004	0.00000E+000	2.07280E-004	1.68088E-001	7.37998E-001	3.57930E+000	9	...........
	9	0.133333	7.49291E-001	2.80589E-004	0.00000E+000	2.10243E-004	1.68088E-001	7.49585E-001	3.57930E+000	9	...........
	10	0.146667	7.60004E-001	2.81533E-004	0.00000E+000	2.13966E-004	1.68088E-001	7.60284E-001	3.57930E+000	9	...........
	11	0.16	7.69953E-001	2.80838E-004	0.00000E+000	2.16232E-004	1.68088E-001	7.70270E-001	3.57930E+000	9	...........
	12	0.173333	7.79224E-001	2.80815E-004	0.00000E+000	2.18818E-004	1.68088E-001	7.79557E-001	3.57930E+000	9	...........
	13	0.186667	7.87875E-001	2.80930E-004	0.00000E+000	2.21338E-004	1.68088E-001	7.88167E-001	3.57930E+000	9	...........
	14	0.2	7.96009E-001	2.80985E-004	0.00000E+000	2.23666E-004	1.68088E-001	7.96286E-001	3.57930E+000	9	...........
	15	0.213333	8.03602E-001	2.81980E-004	0.00000E+000	2.26599E-004	1.68088E-001	8.03892E-001	3.57930E+000	9	...........
	16	0.226667	8.10701E-001	2.81344E-004	0.00000E+000	2.28086E-004	1.68088E-001	8.11000E-001	3.57930E+000	9	...........
	17	0.24	8.17427E-001	2.80959E-004	0.00000E+000	2.29663E-004	1.68088E-001	8.17721E-001	3.57930E+000	9	...........
	18	0.253333	8.23738E-001	2.81750E-004	0.00000E+000	2.32089E-004	1.68088E-001	8.24051E-001	3.57930E+000	9	...........
	19	0.266667	8.29712E-001	2.80783E-004	0.00000E+000	2.32969E-004	1.68088E-001	8.30007E-001	3.57930E+000	9	...........
	20	0.28	8.35385E-001	2.81156E-004	0.00000E+000	2.34874E-004	1.68088E-001	8.35716E-001	3.57930E+000	9	...........
	21	0.293333	8.40781E-001	2.81594E-004	0.00000E+000	2.36759E-004	1.68088E-001	8.41118E-001	3.57930E+000	9	...........
	22	0.306667	8.45915E-001	2.82045E-004	0.00000E+000	2.38586E-004	1.68088E-001	8.46271E-001	3.57930E+000	9	...........
	23	0.32	8.50806E-001	2.81244E-004	0.00000E+000	2.39284E-004	1.68088E-001	8.51171E-001	3.57930E+000	9	...........
	24	0.333333	8.55460E-001	2.81437E-004	0.00000E+000	2.40758E-004	1.68088E-001	8.55812E-001	3.57930E+000	9	...........
	25	0.346667	8.59909E-001	2.81843E-004	0.00000E+000	2.42359E-004	1.68088E-001	8.60262E-001	3.57877E+000	9	...........
	26	0.36	8.64141E-001	2.80817E-004	0.00000E+000	2.42665E-004	1.68088E-001	8.64507E-001	3.57860E+000	9	...........
	27	0.373333	8.68241E-001	2.80228E-004	0.00000E+000	2.43306E-004	1.68088E-001	8.68581E-001	3.57860E+000	9	...........
	28	0.386667	8.72139E-001	2.81591E-004	0.00000E+000	2.45586E-004	1.68088E-001	8.72501E-001	3.57860E+000	9	...........
	29	0.4	8.75886E-001	2.81770E-004	0.00000E+000	2.46799E-004	1.68088E-001	8.76248E-001	3.57860E+000	9	...........
	30	0.413333	8.79471E-001	2.81151E-004	0.00000E+000	2.47265E-004	1.68088E-001	8.79851E-001	3.57860E+000	9	...........
	31	0.426667	8.82940E-001	2.80871E-004	0.00000E+000	2.47992E-004	1.68088E-001	8.83317E-001	3.57860E+000	9	...........
	32	0.44	8.86246E-001	2.81459E-004	0.00000E+000	2.49442E-004	1.68088E-001	8.86647E-001	3.57860E+000	9	...........
	33	0.453333	8.89473E-001	2.81523E-004	0.00000E+000	2.50407E-004	1.68088E-001	8.89849E-001	3.57860E+000	9	...........
	34	0.466667	8.92579E-001	2.80166E-004	0.00000E+000	2.50070E-004	1.68088E-001	8.92934E-001	3.57860E+000	9	...........
	35	0.48	8.95585E-001	2.81110E-004	0.00000E+000	2.51758E-004	1.68088E-001	8.95977E-001	3.57860E+000	9	...........
	36	0.493333	8.98510E-001	2.80305E-004	0.00000E+000	2.51857E-004	1.68088E-001	8.98910E-001	3.57860E+000	9	...........
	37	0.506667	9.01361E-001	2.81233E-004	0.00000E+000	2.53492E-004	1.68088E-001	9.01745E-001	3.57860E+000	9	...........
	38	0.52	9.04076E-001	2.80699E-004	0.00000E+000	2.53773E-004	1.68088E-001	9.04477E-001	3.57860E+000	9	...........
	39	0.533333	9.06713E-001	2.80767E-004	0.00000E+000	2.54575E-004	1.68088E-001	9.07119E-001	3.57860E+000	9	...........
	40	0.546667	9.09325E-001	2.81932E-004	0.00000E+000	2.56367E-004	1.68088E-001	9.09677E-001	3.57860E+000	9	...........
	41	0.56	9.11811E-001	2.80988E-004	0.00000E+000	2.56208E-004	1.68088E-001	9.12199E-001	3.57860E+000	9	...........
	42	0.573333	9.14219E-001	2.80821E-004	0.00000E+000	2.56732E-004	1.68088E-001	9.14594E-001	3.57860E+000	9	...........
	43	0.586667	9.16585E-001	2.81249E-004	0.00000E+000	2.57789E-004	1.68088E-001	9.16952E-001	3.57860E+000	9	...........
	44	0.6	9.18886E-001	2.80795E-004	0.00000E+000	2.58019E-004	1.68088E-001	9.19248E-001	3.57860E+000	9	...........
	45	0.613333	9.21192E-001	2.80572E-004	0.00000E+000	2.58461E-004	1.68088E-001	9.21518E-001	3.57860E+000	9	...........
	46	0.626667	9.23418E-001	2.81692E-004	0.00000E+000	2.60119E-004	1.68088E-001	9.23737E-001	3.57860E+000	9	...........
	47	0.64	9.25565E-001	2.81318E-004	0.00000E+000	2.60378E-004	1.68088E-001	9.25890E-001	3.57860E+000	9	...........
	48	0.653333	9.27651E-001	2.81031E-004	0.00000E+000	2.60699E-004	1.68088E-001	9.27973E-001	3.57860E+000	9	...........
	49	0.666667	9.29658E-001	2.80629E-004	0.00000E+000	2.60889E-004	1.68088E-001	9.29994E-001	3.57860E+000	9	...........
	50	0.68	9.31627E-001	2.81465E-004	0.00000E+000	2.62220E-004	1.68088E-001	9.31960E-001	3.57860E+000	9	...........
	51	0.693333	9.33556E-001	2.81142E-004	0.00000E+000	2.62462E-004	1.68088E-001	9.33888E-001	3.57860E+000	9	...........
	52	0.706667	9.35475E-001	2.80677E-004	0.00000E+000	2.62566E-004	1.68088E-001	9.35842E-001	3.57860E+000	9	...........
	53	0.72	9.37322E-001	2.81573E-004	0.00000E+000	2.63925E-004	1.68088E-001	9.37687E-001	3.57860E+000	9	...........
	54	0.733333	9.39129E-001	2.81270E-004	0.00000E+000	2.64149E-004	1.68088E-001	9.39505E-001	3.57860E+000	9	...........
	55	0.746667	9.40935E-001	2.82345E-004	0.00000E+000	2.65669E-004	1.68088E-001	9.41275E-001	3.57860E+000	9	...........
	56	0.76	9.42674E-001	2.80473E-004	0.00000E+000	2.64394E-004	1.68088E-001	9.43034E-001	3.57860E+000	9	...........
	57	0.773333	9.44387E-001	2.81412E-004	0.00000E+000	2.65762E-004	1.68088E-001	9.44746E-001	3.57860E+000	9	...........
	58	0.786667	9.46060E-001	2.81244E-004	0.00000E+000	2.66074E-004	1.68088E-001	9.46429E-001	3.57860E+000	9	...........
	59	0.8	9.47728E-001	2.81257E-004	0.00000E+000	2.66555E-004	1.68088E-001	9.48094E-001	3.57860E+000	9	...........
	60	0.813333	9.49346E-001	2.80871E-004	0.00000E+000	2.66644E-004	1.68088E-001	9.49696E-001	3.57860E+000	9	...........
	61	0.826667	9.50952E-001	2.81154E-004	0.00000E+000	2.67364E-004	1.68088E-001	9.51309E-001	3.57860E+000	9	...........
	62	0.84	9.52530E-001	2.81496E-004	0.00000E+000	2.68133E-004	1.68088E-001	9.52890E-001	3.57860E+000	9	...........
	63	0.853333	9.54053E-001	2.81720E-004	0.00000E+000	2.68776E-004	1.68088E-001	9.54404E-001	3.57860E+000	9	...........
	64	0.866667	9.55623E-001	2.81553E-004	0.00000E+000	2.69059E-004	1.68088E-001	9.55960E-001	3.57860E+000	9	...........
	65	0.88	9.57130E-001	2.81051E-004	0.00000E+000	2.69003E-004	1.68088E-001	9.57478E-001	3.57860E+000	9	...........
	66	0.893333	9.58651E-001	2.81169E-004	0.00000E+000	2.69543E-004	1.68088E-001	9.59000E-001	3.57860E+000	9	...........
	67	0.906667	9.60145E-001	2.80782E-004	0.00000E+000	2.69592E-004	1.68088E-001	9.60500E-001	3.57860E+000	9	...........
	68	0.92	9.61533E-001	2.80903E-004	0.00000E+000	2.70098E-004	1.68088E-001	9.61919E-001	3.57860E+000	9	...........
	69	0.933333	9.62935E-001	2.81193E-004	0.00000E+000	2.70770E-004	1.68088E-001	9.63326E-001	3.57860E+000	9	...........
	70	0.946667	9.64352E-001	2.80220E-004	0.00000E+000	2.70230E-004	1.68088E-001	9.64748E-001	3.57860E+000	9	...........
	71	0.96	9.65762E-001	2.80836E-004	0.00000E+000	2.71220E-004	1.68088E-001	9.66135E-001	3.57860E+000	9	...........
	72	0.97333	9.67109E-001	2.81020E-004	0.00000E+000	2.71777E-004	1.68088E-001	9.67470E-001	3.57860E+000	9	...........
	73	0.98667	9.68426E-001	2.81564E-004	0.00000E+000	2.72674E-004	1.68088E-001	9.68796E-001	3.57860E+000	9	...........
	74	1	9.69777E-001	2.81428E-004	0.00000E+000	2.72923E-004	1.68088E-001	9.70145E-001	3.57860E+000	9	...........
	75	1.01333	9.71142E-001	2.81700E-004	0.00000E+000	2.73571E-004	1.68088E-001	9.71530E-001	3.57860E+000	9	...........
	76	1.02667	9.72478E-001	2.80712E-004	0.00000E+000	2.72986E-004	1.68088E-001	9.72859E-001	3.57860E+000	9	...........
	77	1.04	9.73773E-001	2.81475E-004	0.00000E+000	2.74093E-004	1.68088E-001	9.74135E-001	3.57860E+000	9	...........
	78	1.05333	9.75048E-001	2.80918E-004	0.00000E+000	2.73908E-004	1.68088E-001	9.75400E-001	3.57860E+000	9	...........
	79	1.06667	9.76300E-001	2.81404E-004	0.00000E+000	2.74735E-004	1.68088E-001	9.76675E-001	3.57860E+000	9	...........
	80	1.08	9.77526E-001	2.81488E-004	0.00000E+000	2.75162E-004	1.68088E-001	9.77934E-001	3.57860E+000	9	...........
	81	1.09333	9.78758E-001	2.81831E-004	0.00000E+000	2.75844E-004	1.68088E-001	9.79101E-001	3.57860E+000	9	...........
	82	1.10667	9.79964E-001	2.81522E-004	0.00000E+000	2.75881E-004	1.68088E-001	9.80281E-001	3.57860E+000	9	...........
	83	1.12	9.81137E-001	2.80979E-004	0.00000E+000	2.75679E-004	1.68088E-001	9.81443E-001	3.57860E+000	9	...........
	84	1.13333	9.82342E-001	2.81683E-004	0.00000E+000	2.76709E-004	1.68088E-001	9.82649E-001	3.57860E+000	9	...........
	85	1.14667	9.83546E-001	2.80458E-004	0.00000E+000	2.75844E-004	1.68088E-001	9.83854E-001	3.57860E+000	9	...........
	86	1.16	9.84708E-001	2.80462E-004	0.00000E+000	2.76173E-004	1.68088E-001	9.85064E-001	3.57860E+000	9	...........
	87	1.17333	9.85852E-001	2.80976E-004	0.00000E+000	2.77001E-004	1.68088E-001	9.86210E-001	3.57860E+000	9	...........
	88	1.18667	9.87006E-001	2.81688E-004	0.00000E+000	2.78028E-004	1.68088E-001	9.87381E-001	3.57860E+000	9	...........
	89	1.2	9.88124E-001	2.81115E-004	0.00000E+000	2.77776E-004	1.68088E-001	9.88480E-001	3.57860E+000	9	...........
	90	1.21333	9.89222E-001	2.81706E-004	0.00000E+000	2.78669E-004	1.68088E-001	9.89559E-001	3.57860E+000	9	...........
	91	1.22667	9.90330E-001	2.80785E-004	0.00000E+000	2.78069E-004	1.68088E-001	9.90680E-001	3.57860E+000	9	...........
	92	1.24	9.91388E-001	2.80730E-004	0.00000E+000	2.78313E-004	1.68088E-001	9.91757E-001	3.57860E+000	9	...........
	93	1.25333	9.92473E-001	2.80949E-004	0.00000E+000	2.78835E-004	1.68088E-001	9.92839E-001	3.57860E+000	9	...........
	94	1.26667	9.93570E-001	2.81077E-004	0.00000E+000	2.79270E-004	1.68088E-001	9.93920E-001	3.57860E+000	9	...........
	95	1.28	9.94645E-001	2.81146E-004	0.00000E+000	2.79641E-004	1.68088E-001	9.94996E-001	3.57860E+000	9	...........
	96	1.29333	9.95681E-001	2.81698E-004	0.00000E+000	2.80482E-004	1.68088E-001	9.96035E-001	3.57860E+000	9	...........
	97	1.30667	9.96722E-001	2.80707E-004	0.00000E+000	2.79787E-004	1.68088E-001	9.97094E-001	3.57860E+000	9	...........
	98	1.32	9.97769E-001	2.81036E-004	0.00000E+000	2.80409E-004	1.68088E-001	9.98135E-001	3.57860E+000	9	...........
	99	1.33333	9.98791E-001	2.80355E-004	0.00000E+000	2.80016E-004	1.68088E-001	9.99150E-001	3.57860E+000	9	...........
	100	1.345	9.99742E-001	2.81179E-004	0.00000E+000	2.81106E-004	1.68088E-001	1.00015E+000	3.57810E+000	9	...........
STARTTIMEOFFSET	QUANT	732.8152	Start Time Offset (s)
