EXPLAIN
TAG	PWR800_CHARGE
TITLE	LABEL	PWR Cyclic Charge Discharge (Cell) - Charge Step	Test &Identifier
DATE	LABEL	7-7-2017	Date
TIME	LABEL	15:39:30	Time
NOTES	NOTES	3	&Notes...
	supercap test cell
	2.8mg
	6M KOH
PSTAT	PSTAT	IFC5000-01520	Potentiostat
CAPACITY	QUANT	1.00000E-003	Capacity (A-hr)
CELLTYPE	SELECTOR	1	&Cell Type
WORKINGCONNECTION	SELECTOR	0	&Working Lead
MAXCHARGETIME	VARIABLEANDUNITS	1.00000E+002	s	1.00000E+002	second(s)	Max &Charge Time
CHARGECURRENT	QUANT	2.80000E-004	&Charge Current (A) 
VOLTAGEFINISH	TWOPARAM	F	1.00000E-003	3.60000E+003	&Voltage Finish	 I (A) < 	Max Time(s)
SAMPLETIME	QUANT	1.00000E-002	Sa&mple Period (s)
CHARGESTOPAT1	MULTIPARAM	4	1.00000E+000	Charge Stop At &1	Voltage > Limit	V
CHARGESTOPAT2	MULTIPARAM	0	0.00000E+000	Charge Stop At &2	None	N/A
AESBHCSELECTOR	TOGGLE	F	Save Both Half Cells
IRCOMP	TOGGLE	F	IR &Measure
EOC	QUANT	0	Open Circuit (V)
SEQUENCER	TOGGLE	TRUE	Run as Sequence
PSTATMODEL	IQUANT	53	Pstat Model
PSTATSECTION	LABEL	IFC5000-01520	Pstat Section
PSTATSERIALNO	LABEL	01520	Pstat Serial Number
CTRLMODE	IQUANT	0	Control Mode
ELECTROMETER	IQUANT	1	RE=0 or CS=1
IESTAB	IQUANT	0	I/E Stability
CASPEED	IQUANT	4	Control Amp Speed
CONVENTION	IQUANT	1	Current Convention
ICHRANGE	IQUANT	2	Ich Range
ICHRANGEMODE	TOGGLE	T	Ich Auto Range
ICHOFFSETENABLE	TOGGLE	F	Ich Offset Enable
ICHOFFSET	QUANT	0	Ich Offset (V)
ICHFILTER	IQUANT	1	Ich Filter
VCHRANGE	IQUANT	2	Vch Range
VCHRANGEMODE	TOGGLE	T	Vch Auto Range
VCHOFFSETENABLE	TOGGLE	F	Vch Offset Enable
VCHOFFSET	QUANT	0	Vch Offset (V)
VCHFILTER	IQUANT	1	Vch Filter
IERANGELOWERLIMIT	IQUANT	9	I/E Range Lower Limit
IERANGEMODE	TOGGLE	F	I/E AutoRange
IERANGE	IQUANT	9	I/E Range
ACHSELECT	IQUANT	1	Ach Select
ACHRANGE	IQUANT	2	Ach Range
ACHOFFSETENABLE	TOGGLE	F	Ach Offset Enable
ACHOFFSET	QUANT	0	Ach Offset (V)
ACHFILTER	IQUANT	1	Ach Filter
CABLEID	IQUANT	14	Cable ID
DCCALDATE	LABEL	5-7-2017	DC Calibration Date
ACCALDATE	LABEL	12/3/2015	AC Calibration Date
FRAMEWORKVERSION	QUANT	7.01	Framework Version
INSTRUMENTVERSION	LABEL	4.00	Instrument Version
CURVE	TABLE	167
	Pt	T	Vf	Im	Vu	Pwr	Sig	Ach	Temp	IERange	Over
	#	s	V	A	V	W	V	V	deg C	#	bits
	0	0.013333	5.66147E-001	2.81080E-004	0.00000E+000	1.59133E-004	1.68088E-001	5.66428E-001	3.57840E+000	9	...........
	1	0.026667	5.93156E-001	2.80796E-004	0.00000E+000	1.66556E-004	1.68088E-001	5.93465E-001	3.57840E+000	9	...........
	2	0.04	6.15546E-001	2.80953E-004	0.00000E+000	1.72940E-004	1.68088E-001	6.15832E-001	3.57840E+000	9	...........
	3	0.053333	6.34576E-001	2.81276E-004	0.00000E+000	1.78491E-004	1.68088E-001	6.34868E-001	3.57840E+000	9	...........
	4	0.066667	6.51138E-001	2.81477E-004	0.00000E+000	1.83281E-004	1.68088E-001	6.51438E-001	3.57840E+000	9	...........
	5	0.08	6.65739E-001	2.81176E-004	0.00000E+000	1.87190E-004	1.68088E-001	6.66042E-001	3.57840E+000	9	...........
	6	0.093333	6.78814E-001	2.81053E-004	0.00000E+000	1.90783E-004	1.68088E-001	6.79085E-001	3.57840E+000	9	...........
	7	0.106667	6.90548E-001	2.81122E-004	0.00000E+000	1.94128E-004	1.68088E-001	6.90847E-001	3.57840E+000	9	...........
	8	0.12	7.01222E-001	2.80517E-004	0.00000E+000	1.96704E-004	1.68088E-001	7.01539E-001	3.57840E+000	9	...........
	9	0.133333	7.10974E-001	2.80671E-004	0.00000E+000	1.99550E-004	1.68088E-001	7.11304E-001	3.57840E+000	9	...........
	10	0.146667	7.19983E-001	2.81005E-004	0.00000E+000	2.02319E-004	1.68088E-001	7.20284E-001	3.57840E+000	9	...........
	11	0.16	7.28283E-001	2.80482E-004	0.00000E+000	2.04271E-004	1.68088E-001	7.28581E-001	3.57840E+000	9	...........
	12	0.173333	7.35991E-001	2.81206E-004	0.00000E+000	2.06965E-004	1.68088E-001	7.36298E-001	3.57840E+000	9	...........
	13	0.186667	7.43192E-001	2.80597E-004	0.00000E+000	2.08538E-004	1.68088E-001	7.43486E-001	3.57840E+000	9	...........
	14	0.2	7.49952E-001	2.80743E-004	0.00000E+000	2.10544E-004	1.68088E-001	7.50221E-001	3.57840E+000	9	...........
	15	0.213333	7.56292E-001	2.81165E-004	0.00000E+000	2.12643E-004	1.68088E-001	7.56576E-001	3.57840E+000	9	...........
	16	0.226667	7.62276E-001	2.81809E-004	0.00000E+000	2.14816E-004	1.68088E-001	7.62546E-001	3.57840E+000	9	...........
	17	0.24	7.67898E-001	2.81503E-004	0.00000E+000	2.16166E-004	1.68088E-001	7.68207E-001	3.57840E+000	9	...........
	18	0.253333	7.73275E-001	2.81189E-004	0.00000E+000	2.17436E-004	1.68088E-001	7.73572E-001	3.57840E+000	9	...........
	19	0.266667	7.78344E-001	2.81389E-004	0.00000E+000	2.19017E-004	1.68088E-001	7.78650E-001	3.57840E+000	9	...........
	20	0.28	7.83193E-001	2.80912E-004	0.00000E+000	2.20008E-004	1.68088E-001	7.83466E-001	3.57840E+000	9	...........
	21	0.293333	7.87785E-001	2.80380E-004	0.00000E+000	2.20879E-004	1.68088E-001	7.88067E-001	3.57840E+000	9	...........
	22	0.306667	7.92168E-001	2.81322E-004	0.00000E+000	2.22854E-004	1.68088E-001	7.92472E-001	3.57840E+000	9	...........
	23	0.32	7.96397E-001	2.81071E-004	0.00000E+000	2.23844E-004	1.68088E-001	7.96694E-001	3.57840E+000	9	...........
	24	0.333333	8.00445E-001	2.82129E-004	0.00000E+000	2.25828E-004	1.68088E-001	8.00747E-001	3.57840E+000	9	...........
	25	0.346667	8.04301E-001	2.81184E-004	0.00000E+000	2.26156E-004	1.68088E-001	8.04646E-001	3.57840E+000	9	...........
	26	0.36	8.08041E-001	2.80564E-004	0.00000E+000	2.26707E-004	1.68088E-001	8.08357E-001	3.57840E+000	9	...........
	27	0.373333	8.11618E-001	2.81548E-004	0.00000E+000	2.28510E-004	1.68088E-001	8.11938E-001	3.57840E+000	9	...........
	28	0.386667	8.15066E-001	2.80569E-004	0.00000E+000	2.28682E-004	1.68088E-001	8.15388E-001	3.57840E+000	9	...........
	29	0.4	8.18410E-001	2.80926E-004	0.00000E+000	2.29913E-004	1.68088E-001	8.18737E-001	3.57840E+000	9	...........
	30	0.413333	8.21624E-001	2.80603E-004	0.00000E+000	2.30550E-004	1.68088E-001	8.21960E-001	3.57840E+000	9	...........
	31	0.426667	8.24720E-001	2.82001E-004	0.00000E+000	2.32572E-004	1.68088E-001	8.25047E-001	3.57840E+000	9	...........
	32	0.44	8.27731E-001	2.80929E-004	0.00000E+000	2.32534E-004	1.68088E-001	8.28053E-001	3.57840E+000	9	...........
	33	0.453333	8.30652E-001	2.81195E-004	0.00000E+000	2.33575E-004	1.68088E-001	8.30966E-001	3.57840E+000	9	...........
	34	0.466667	8.33491E-001	2.81146E-004	0.00000E+000	2.34333E-004	1.68088E-001	8.33838E-001	3.57840E+000	9	...........
	35	0.48	8.36273E-001	2.80764E-004	0.00000E+000	2.34795E-004	1.68088E-001	8.36640E-001	3.57840E+000	9	...........
	36	0.493333	8.38968E-001	2.80530E-004	0.00000E+000	2.35356E-004	1.68088E-001	8.39315E-001	3.57840E+000	9	...........
	37	0.506667	8.41576E-001	2.81371E-004	0.00000E+000	2.36795E-004	1.68088E-001	8.41921E-001	3.57840E+000	9	...........
	38	0.52	8.44132E-001	2.81064E-004	0.00000E+000	2.37255E-004	1.68088E-001	8.44503E-001	3.57840E+000	9	...........
	39	0.533333	8.46613E-001	2.81280E-004	0.00000E+000	2.38136E-004	1.68088E-001	8.46978E-001	3.57840E+000	9	...........
	40	0.546667	8.49029E-001	2.81377E-004	0.00000E+000	2.38898E-004	1.68088E-001	8.49406E-001	3.57840E+000	9	...........
	41	0.56	8.51404E-001	2.81965E-004	0.00000E+000	2.40066E-004	1.68088E-001	8.51758E-001	3.57840E+000	9	...........
	42	0.573333	8.53728E-001	2.80329E-004	0.00000E+000	2.39325E-004	1.68088E-001	8.54076E-001	3.57940E+000	9	...........
	43	0.586667	8.56012E-001	2.80865E-004	0.00000E+000	2.40423E-004	1.68088E-001	8.56389E-001	3.58250E+000	9	...........
	44	0.6	8.58244E-001	2.81264E-004	0.00000E+000	2.41393E-004	1.68088E-001	8.58628E-001	3.58250E+000	9	...........
	45	0.613333	8.60441E-001	2.80705E-004	0.00000E+000	2.41530E-004	1.68088E-001	8.60827E-001	3.58250E+000	9	...........
	46	0.626667	8.62558E-001	2.80679E-004	0.00000E+000	2.42102E-004	1.68088E-001	8.62916E-001	3.58250E+000	9	...........
	47	0.64	8.64635E-001	2.80943E-004	0.00000E+000	2.42913E-004	1.68088E-001	8.65027E-001	3.58250E+000	9	...........
	48	0.653333	8.66693E-001	2.81045E-004	0.00000E+000	2.43580E-004	1.68088E-001	8.67083E-001	3.58250E+000	9	...........
	49	0.666667	8.68704E-001	2.81520E-004	0.00000E+000	2.44558E-004	1.68088E-001	8.69086E-001	3.58250E+000	9	...........
	50	0.68	8.70688E-001	2.81325E-004	0.00000E+000	2.44947E-004	1.68088E-001	8.71059E-001	3.58250E+000	9	...........
	51	0.693333	8.72633E-001	2.80999E-004	0.00000E+000	2.45209E-004	1.68088E-001	8.72992E-001	3.58250E+000	9	...........
	52	0.706667	8.74516E-001	2.80562E-004	0.00000E+000	2.45356E-004	1.68088E-001	8.74907E-001	3.58250E+000	9	...........
	53	0.72	8.76354E-001	2.81288E-004	0.00000E+000	2.46508E-004	1.68088E-001	8.76729E-001	3.58250E+000	9	...........
	54	0.733333	8.78172E-001	2.81233E-004	0.00000E+000	2.46971E-004	1.68088E-001	8.78524E-001	3.58250E+000	9	...........
	55	0.746667	8.79995E-001	2.80985E-004	0.00000E+000	2.47265E-004	1.68088E-001	8.80351E-001	3.58250E+000	9	...........
	56	0.76	8.81762E-001	2.81038E-004	0.00000E+000	2.47808E-004	1.68088E-001	8.82163E-001	3.58250E+000	9	...........
	57	0.773333	8.83563E-001	2.81388E-004	0.00000E+000	2.48624E-004	1.68088E-001	8.83937E-001	3.58250E+000	9	...........
	58	0.786667	8.85310E-001	2.81520E-004	0.00000E+000	2.49233E-004	1.68088E-001	8.85680E-001	3.58250E+000	9	...........
	59	0.8	8.87004E-001	2.80881E-004	0.00000E+000	2.49143E-004	1.68088E-001	8.87392E-001	3.58250E+000	9	...........
	60	0.813333	8.88681E-001	2.81224E-004	0.00000E+000	2.49919E-004	1.68088E-001	8.89040E-001	3.58250E+000	9	...........
	61	0.826667	8.90338E-001	2.81482E-004	0.00000E+000	2.50614E-004	1.68088E-001	8.90682E-001	3.58250E+000	9	...........
	62	0.84	8.91927E-001	2.81358E-004	0.00000E+000	2.50951E-004	1.68088E-001	8.92321E-001	3.58250E+000	9	...........
	63	0.853333	8.93590E-001	2.81489E-004	0.00000E+000	2.51536E-004	1.68088E-001	8.93977E-001	3.58250E+000	9	...........
	64	0.866667	8.95191E-001	2.80967E-004	0.00000E+000	2.51519E-004	1.68088E-001	8.95623E-001	3.58250E+000	9	...........
	65	0.88	8.96785E-001	2.81045E-004	0.00000E+000	2.52037E-004	1.68088E-001	8.97167E-001	3.58250E+000	9	...........
	66	0.893333	8.98336E-001	2.81515E-004	0.00000E+000	2.52895E-004	1.68088E-001	8.98715E-001	3.58250E+000	9	...........
	67	0.906667	8.99882E-001	2.80072E-004	0.00000E+000	2.52031E-004	1.68088E-001	9.00223E-001	3.58250E+000	9	...........
	68	0.92	9.01405E-001	2.81758E-004	0.00000E+000	2.53978E-004	1.68088E-001	9.01752E-001	3.58250E+000	9	...........
	69	0.933333	9.02896E-001	2.80907E-004	0.00000E+000	2.53630E-004	1.68088E-001	9.03265E-001	3.58250E+000	9	...........
	70	0.946667	9.04349E-001	2.80730E-004	0.00000E+000	2.53878E-004	1.68088E-001	9.04729E-001	3.58250E+000	9	...........
	71	0.96	9.05829E-001	2.81722E-004	0.00000E+000	2.55192E-004	1.68088E-001	9.06189E-001	3.58250E+000	9	...........
	72	0.97333	9.07281E-001	2.80567E-004	0.00000E+000	2.54553E-004	1.68088E-001	9.07630E-001	3.58250E+000	9	...........
	73	0.98667	9.08697E-001	2.81087E-004	0.00000E+000	2.55423E-004	1.68088E-001	9.09054E-001	3.58250E+000	9	...........
	74	1	9.10109E-001	2.82005E-004	0.00000E+000	2.56655E-004	1.68088E-001	9.10468E-001	3.58250E+000	9	...........
	75	1.01333	9.11490E-001	2.81035E-004	0.00000E+000	2.56160E-004	1.68088E-001	9.11854E-001	3.58250E+000	9	...........
	76	1.02667	9.12873E-001	2.80847E-004	0.00000E+000	2.56378E-004	1.68088E-001	9.13260E-001	3.58250E+000	9	...........
	77	1.04	9.14248E-001	2.81202E-004	0.00000E+000	2.57089E-004	1.68088E-001	9.14627E-001	3.58250E+000	9	...........
	78	1.05333	9.15606E-001	2.81291E-004	0.00000E+000	2.57552E-004	1.68088E-001	9.15982E-001	3.58250E+000	9	...........
	79	1.06667	9.16929E-001	2.80327E-004	0.00000E+000	2.57040E-004	1.68088E-001	9.17292E-001	3.58250E+000	9	...........
	80	1.08	9.18235E-001	2.80744E-004	0.00000E+000	2.57789E-004	1.68088E-001	9.18583E-001	3.58250E+000	9	...........
	81	1.09333	9.19546E-001	2.81854E-004	0.00000E+000	2.59177E-004	1.68088E-001	9.19917E-001	3.58250E+000	9	...........
	82	1.10667	9.20881E-001	2.81326E-004	0.00000E+000	2.59068E-004	1.68088E-001	9.21223E-001	3.58250E+000	9	...........
	83	1.12	9.22163E-001	2.80838E-004	0.00000E+000	2.58978E-004	1.68088E-001	9.22533E-001	3.58250E+000	9	...........
	84	1.13333	9.23467E-001	2.80582E-004	0.00000E+000	2.59108E-004	1.68088E-001	9.23815E-001	3.58250E+000	9	...........
	85	1.14667	9.24713E-001	2.81146E-004	0.00000E+000	2.59979E-004	1.68088E-001	9.25065E-001	3.58250E+000	9	...........
	86	1.16	9.25947E-001	2.80655E-004	0.00000E+000	2.59872E-004	1.68088E-001	9.26292E-001	3.58250E+000	9	...........
	87	1.17333	9.27178E-001	2.81606E-004	0.00000E+000	2.61098E-004	1.68088E-001	9.27548E-001	3.58250E+000	9	...........
	88	1.18667	9.28401E-001	2.80699E-004	0.00000E+000	2.60601E-004	1.68088E-001	9.28747E-001	3.58250E+000	9	...........
	89	1.2	9.29650E-001	2.81102E-004	0.00000E+000	2.61327E-004	1.68088E-001	9.29995E-001	3.58250E+000	9	...........
	90	1.21333	9.30852E-001	2.81178E-004	0.00000E+000	2.61735E-004	1.68088E-001	9.31212E-001	3.58250E+000	9	...........
	91	1.22667	9.32055E-001	2.81301E-004	0.00000E+000	2.62188E-004	1.68088E-001	9.32418E-001	3.58250E+000	9	...........
	92	1.24	9.33229E-001	2.81062E-004	0.00000E+000	2.62295E-004	1.68088E-001	9.33614E-001	3.58250E+000	9	...........
	93	1.25333	9.34426E-001	2.81567E-004	0.00000E+000	2.63103E-004	1.68088E-001	9.34779E-001	3.58250E+000	9	...........
	94	1.26667	9.35580E-001	2.81319E-004	0.00000E+000	2.63196E-004	1.68088E-001	9.35924E-001	3.58250E+000	9	...........
	95	1.28	9.36673E-001	2.82087E-004	0.00000E+000	2.64223E-004	1.68088E-001	9.37045E-001	3.58250E+000	9	...........
	96	1.29333	9.37836E-001	2.81177E-004	0.00000E+000	2.63698E-004	1.68088E-001	9.38184E-001	3.58250E+000	9	...........
	97	1.30667	9.38992E-001	2.81371E-004	0.00000E+000	2.64205E-004	1.68088E-001	9.39334E-001	3.58250E+000	9	...........
	98	1.32	9.40114E-001	2.81545E-004	0.00000E+000	2.64684E-004	1.68088E-001	9.40479E-001	3.58250E+000	9	...........
	99	1.33333	9.41227E-001	2.80713E-004	0.00000E+000	2.64214E-004	1.68088E-001	9.41584E-001	3.58250E+000	9	...........
	100	1.34667	9.42347E-001	2.80797E-004	0.00000E+000	2.64608E-004	1.68088E-001	9.42694E-001	3.58250E+000	9	...........
	101	1.36	9.43439E-001	2.81166E-004	0.00000E+000	2.65263E-004	1.68088E-001	9.43778E-001	3.58250E+000	9	...........
	102	1.37333	9.44526E-001	2.80925E-004	0.00000E+000	2.65341E-004	1.68088E-001	9.44875E-001	3.58250E+000	9	...........
	103	1.38667	9.45590E-001	2.81442E-004	0.00000E+000	2.66129E-004	1.68088E-001	9.45974E-001	3.58250E+000	9	...........
	104	1.4	9.46696E-001	2.81042E-004	0.00000E+000	2.66061E-004	1.68088E-001	9.47045E-001	3.58250E+000	9	...........
	105	1.41333	9.47778E-001	2.80600E-004	0.00000E+000	2.65947E-004	1.68088E-001	9.48106E-001	3.58250E+000	9	...........
	106	1.42667	9.48836E-001	2.80704E-004	0.00000E+000	2.66342E-004	1.68088E-001	9.49191E-001	3.58250E+000	9	...........
	107	1.44	9.49872E-001	2.81232E-004	0.00000E+000	2.67134E-004	1.68088E-001	9.50233E-001	3.58250E+000	9	...........
	108	1.45333	9.50907E-001	2.80723E-004	0.00000E+000	2.66941E-004	1.68088E-001	9.51259E-001	3.58250E+000	9	...........
	109	1.46667	9.51953E-001	2.80619E-004	0.00000E+000	2.67136E-004	1.68088E-001	9.52315E-001	3.58250E+000	9	...........
	110	1.48	9.52959E-001	2.81121E-004	0.00000E+000	2.67897E-004	1.68088E-001	9.53338E-001	3.58250E+000	9	...........
	111	1.49333	9.53968E-001	2.81410E-004	0.00000E+000	2.68456E-004	1.68088E-001	9.54326E-001	3.58250E+000	9	...........
	112	1.50667	9.54953E-001	2.80473E-004	0.00000E+000	2.67839E-004	1.68088E-001	9.55318E-001	3.58250E+000	9	...........
	113	1.52	9.55990E-001	2.80233E-004	0.00000E+000	2.67900E-004	1.68088E-001	9.56335E-001	3.58250E+000	9	...........
	114	1.53333	9.57003E-001	2.80866E-004	0.00000E+000	2.68789E-004	1.68088E-001	9.57351E-001	3.58250E+000	9	...........
	115	1.54667	9.58002E-001	2.80657E-004	0.00000E+000	2.68870E-004	1.68088E-001	9.58358E-001	3.58250E+000	9	...........
	116	1.56	9.58958E-001	2.81089E-004	0.00000E+000	2.69552E-004	1.68088E-001	9.59326E-001	3.58250E+000	9	...........
	117	1.57333	9.59929E-001	2.81595E-004	0.00000E+000	2.70311E-004	1.68088E-001	9.60283E-001	3.58143E+000	9	...........
	118	1.58667	9.60879E-001	2.81441E-004	0.00000E+000	2.70431E-004	1.68088E-001	9.61261E-001	3.57810E+000	9	...........
	119	1.6	9.61818E-001	2.81606E-004	0.00000E+000	2.70853E-004	1.68088E-001	9.62216E-001	3.57810E+000	9	...........
	120	1.61333	9.62749E-001	2.81123E-004	0.00000E+000	2.70651E-004	1.68088E-001	9.63143E-001	3.57810E+000	9	...........
	121	1.62667	9.63681E-001	2.80897E-004	0.00000E+000	2.70695E-004	1.68088E-001	9.64076E-001	3.57810E+000	9	...........
	122	1.64	9.64595E-001	2.81283E-004	0.00000E+000	2.71324E-004	1.68088E-001	9.65021E-001	3.57810E+000	9	...........
	123	1.65333	9.65570E-001	2.81677E-004	0.00000E+000	2.71979E-004	1.68088E-001	9.65951E-001	3.57810E+000	9	...........
	124	1.66667	9.66465E-001	2.81342E-004	0.00000E+000	2.71907E-004	1.68088E-001	9.66855E-001	3.57810E+000	9	...........
	125	1.68	9.67389E-001	2.81133E-004	0.00000E+000	2.71964E-004	1.68088E-001	9.67771E-001	3.57810E+000	9	...........
	126	1.69333	9.68322E-001	2.80961E-004	0.00000E+000	2.72060E-004	1.68088E-001	9.68708E-001	3.57810E+000	9	...........
	127	1.70667	9.69190E-001	2.80123E-004	0.00000E+000	2.71492E-004	1.68088E-001	9.69589E-001	3.57810E+000	9	...........
	128	1.72	9.70069E-001	2.81293E-004	0.00000E+000	2.72873E-004	1.68088E-001	9.70479E-001	3.57810E+000	9	...........
	129	1.73333	9.70933E-001	2.81987E-004	0.00000E+000	2.73790E-004	1.68088E-001	9.71364E-001	3.57810E+000	9	...........
	130	1.74667	9.71822E-001	2.80850E-004	0.00000E+000	2.72936E-004	1.68088E-001	9.72260E-001	3.57810E+000	9	...........
	131	1.76	9.72760E-001	2.81038E-004	0.00000E+000	2.73382E-004	1.68088E-001	9.73144E-001	3.57810E+000	9	...........
	132	1.77333	9.73621E-001	2.80021E-004	0.00000E+000	2.72634E-004	1.68088E-001	9.74021E-001	3.57810E+000	9	...........
	133	1.78667	9.74505E-001	2.81000E-004	0.00000E+000	2.73836E-004	1.68088E-001	9.74890E-001	3.57810E+000	9	...........
	134	1.8	9.75384E-001	2.81068E-004	0.00000E+000	2.74149E-004	1.68088E-001	9.75765E-001	3.57810E+000	9	...........
	135	1.81333	9.76245E-001	2.81421E-004	0.00000E+000	2.74736E-004	1.68088E-001	9.76647E-001	3.57810E+000	9	...........
	136	1.82667	9.77075E-001	2.82145E-004	0.00000E+000	2.75677E-004	1.68088E-001	9.77479E-001	3.57810E+000	9	...........
	137	1.84	9.77912E-001	2.80863E-004	0.00000E+000	2.74659E-004	1.68088E-001	9.78334E-001	3.57810E+000	9	...........
	138	1.85333	9.78762E-001	2.80623E-004	0.00000E+000	2.74663E-004	1.68088E-001	9.79181E-001	3.57810E+000	9	...........
	139	1.86667	9.79565E-001	2.81148E-004	0.00000E+000	2.75403E-004	1.68088E-001	9.79983E-001	3.57810E+000	9	...........
	140	1.88	9.80379E-001	2.81180E-004	0.00000E+000	2.75663E-004	1.68088E-001	9.80801E-001	3.57810E+000	9	...........
	141	1.89333	9.81203E-001	2.81343E-004	0.00000E+000	2.76055E-004	1.68088E-001	9.81623E-001	3.57810E+000	9	...........
	142	1.90667	9.82014E-001	2.80860E-004	0.00000E+000	2.75808E-004	1.68088E-001	9.82396E-001	3.57810E+000	9	...........
	143	1.92	9.82808E-001	2.80652E-004	0.00000E+000	2.75827E-004	1.68088E-001	9.83230E-001	3.57810E+000	9	...........
	144	1.93333	9.83616E-001	2.81387E-004	0.00000E+000	2.76777E-004	1.68088E-001	9.84022E-001	3.57810E+000	9	...........
	145	1.94667	9.84402E-001	2.80873E-004	0.00000E+000	2.76492E-004	1.68088E-001	9.84824E-001	3.57810E+000	9	...........
	146	1.96	9.85263E-001	2.81427E-004	0.00000E+000	2.77280E-004	1.68088E-001	9.85655E-001	3.57810E+000	9	...........
	147	1.97333	9.86052E-001	2.81440E-004	0.00000E+000	2.77514E-004	1.68088E-001	9.86460E-001	3.57810E+000	9	...........
	148	1.98667	9.86829E-001	2.80954E-004	0.00000E+000	2.77254E-004	1.68088E-001	9.87226E-001	3.57810E+000	9	...........
	149	2	9.87624E-001	2.80972E-004	0.00000E+000	2.77495E-004	1.68088E-001	9.88022E-001	3.57810E+000	9	...........
	150	2.01333	9.88415E-001	2.80993E-004	0.00000E+000	2.77738E-004	1.68088E-001	9.88801E-001	3.57810E+000	9	...........
	151	2.02667	9.89197E-001	2.81568E-004	0.00000E+000	2.78526E-004	1.68088E-001	9.89562E-001	3.57810E+000	9	...........
	152	2.04	9.89957E-001	2.81820E-004	0.00000E+000	2.78990E-004	1.68088E-001	9.90348E-001	3.57810E+000	9	...........
	153	2.05333	9.90720E-001	2.80882E-004	0.00000E+000	2.78276E-004	1.68088E-001	9.91097E-001	3.57810E+000	9	...........
	154	2.06667	9.91467E-001	2.80808E-004	0.00000E+000	2.78412E-004	1.68088E-001	9.91862E-001	3.57810E+000	9	...........
	155	2.08	9.92169E-001	2.81354E-004	0.00000E+000	2.79151E-004	1.68088E-001	9.92580E-001	3.57810E+000	9	...........
	156	2.09333	9.92927E-001	2.80755E-004	0.00000E+000	2.78770E-004	1.68088E-001	9.93335E-001	3.57810E+000	9	...........
	157	2.10667	9.93672E-001	2.81885E-004	0.00000E+000	2.80101E-004	1.68088E-001	9.94107E-001	3.57810E+000	9	...........
	158	2.12	9.94378E-001	2.81090E-004	0.00000E+000	2.79509E-004	1.68088E-001	9.94816E-001	3.57810E+000	9	...........
	159	2.13333	9.95113E-001	2.80458E-004	0.00000E+000	2.79088E-004	1.68088E-001	9.95527E-001	3.57810E+000	9	...........
	160	2.14667	9.95839E-001	2.80433E-004	0.00000E+000	2.79267E-004	1.68088E-001	9.96244E-001	3.57810E+000	9	...........
	161	2.16	9.96545E-001	2.81186E-004	0.00000E+000	2.80214E-004	1.68088E-001	9.96971E-001	3.57810E+000	9	...........
	162	2.17333	9.97270E-001	2.81160E-004	0.00000E+000	2.80392E-004	1.68088E-001	9.97705E-001	3.57810E+000	9	...........
	163	2.18667	9.97984E-001	2.81376E-004	0.00000E+000	2.80809E-004	1.68088E-001	9.98360E-001	3.57810E+000	9	...........
	164	2.2	9.98683E-001	2.81464E-004	0.00000E+000	2.81093E-004	1.68088E-001	9.99097E-001	3.57810E+000	9	...........
	165	2.21333	9.99370E-001	2.80790E-004	0.00000E+000	2.80613E-004	1.68088E-001	9.99789E-001	3.57810E+000	9	...........
	166	2.22	9.99923E-001	2.81961E-004	0.00000E+000	2.81939E-004	1.68088E-001	1.00029E+000	3.57810E+000	9	...........
STARTTIMEOFFSET	QUANT	177.12	Start Time Offset (s)
