EXPLAIN
TAG	PWR800_CHARGE
TITLE	LABEL	PWR Cyclic Charge Discharge (Cell) - Charge Step	Test &Identifier
DATE	LABEL	7-7-2017	Date
TIME	LABEL	16:12:17	Time
NOTES	NOTES	3	&Notes...
	supercap test cell
	2.8mg
	6M KOH
PSTAT	PSTAT	IFC5000-01520	Potentiostat
CAPACITY	QUANT	1.00000E-003	Capacity (A-hr)
CELLTYPE	SELECTOR	1	&Cell Type
WORKINGCONNECTION	SELECTOR	0	&Working Lead
MAXCHARGETIME	VARIABLEANDUNITS	1.00000E+002	s	1.00000E+002	second(s)	Max &Charge Time
CHARGECURRENT	QUANT	2.80000E-004	&Charge Current (A) 
VOLTAGEFINISH	TWOPARAM	F	1.00000E-003	3.60000E+003	&Voltage Finish	 I (A) < 	Max Time(s)
SAMPLETIME	QUANT	1.00000E-002	Sa&mple Period (s)
CHARGESTOPAT1	MULTIPARAM	4	1.00000E+000	Charge Stop At &1	Voltage > Limit	V
CHARGESTOPAT2	MULTIPARAM	0	0.00000E+000	Charge Stop At &2	None	N/A
AESBHCSELECTOR	TOGGLE	F	Save Both Half Cells
IRCOMP	TOGGLE	F	IR &Measure
EOC	QUANT	0	Open Circuit (V)
SEQUENCER	TOGGLE	TRUE	Run as Sequence
PSTATMODEL	IQUANT	53	Pstat Model
PSTATSECTION	LABEL	IFC5000-01520	Pstat Section
PSTATSERIALNO	LABEL	01520	Pstat Serial Number
CTRLMODE	IQUANT	0	Control Mode
ELECTROMETER	IQUANT	1	RE=0 or CS=1
IESTAB	IQUANT	0	I/E Stability
CASPEED	IQUANT	4	Control Amp Speed
CONVENTION	IQUANT	1	Current Convention
ICHRANGE	IQUANT	2	Ich Range
ICHRANGEMODE	TOGGLE	T	Ich Auto Range
ICHOFFSETENABLE	TOGGLE	F	Ich Offset Enable
ICHOFFSET	QUANT	0	Ich Offset (V)
ICHFILTER	IQUANT	1	Ich Filter
VCHRANGE	IQUANT	2	Vch Range
VCHRANGEMODE	TOGGLE	T	Vch Auto Range
VCHOFFSETENABLE	TOGGLE	F	Vch Offset Enable
VCHOFFSET	QUANT	0	Vch Offset (V)
VCHFILTER	IQUANT	1	Vch Filter
IERANGELOWERLIMIT	IQUANT	9	I/E Range Lower Limit
IERANGEMODE	TOGGLE	F	I/E AutoRange
IERANGE	IQUANT	9	I/E Range
ACHSELECT	IQUANT	1	Ach Select
ACHRANGE	IQUANT	2	Ach Range
ACHOFFSETENABLE	TOGGLE	F	Ach Offset Enable
ACHOFFSET	QUANT	0	Ach Offset (V)
ACHFILTER	IQUANT	1	Ach Filter
CABLEID	IQUANT	14	Cable ID
DCCALDATE	LABEL	5-7-2017	DC Calibration Date
ACCALDATE	LABEL	12/3/2015	AC Calibration Date
FRAMEWORKVERSION	QUANT	7.01	Framework Version
INSTRUMENTVERSION	LABEL	4.00	Instrument Version
CURVE	TABLE	67
	Pt	T	Vf	Im	Vu	Pwr	Sig	Ach	Temp	IERange	Over
	#	s	V	A	V	W	V	V	deg C	#	bits
	0	0.013333	6.05384E-001	2.81952E-004	0.00000E+000	1.70689E-004	1.68088E-001	6.05688E-001	3.57870E+000	9	...........
	1	0.026667	6.35391E-001	2.80839E-004	0.00000E+000	1.78442E-004	1.68088E-001	6.35667E-001	3.57870E+000	9	...........
	2	0.04	6.61136E-001	2.82089E-004	0.00000E+000	1.86499E-004	1.68088E-001	6.61410E-001	3.57870E+000	9	...........
	3	0.053333	6.83742E-001	2.81000E-004	0.00000E+000	1.92132E-004	1.68088E-001	6.84004E-001	3.57870E+000	9	...........
	4	0.066667	7.03892E-001	2.80868E-004	0.00000E+000	1.97701E-004	1.68088E-001	7.04155E-001	3.57870E+000	9	...........
	5	0.08	7.22081E-001	2.80925E-004	0.00000E+000	2.02851E-004	1.68088E-001	7.22365E-001	3.57870E+000	9	...........
	6	0.093333	7.38627E-001	2.80828E-004	0.00000E+000	2.07427E-004	1.68088E-001	7.38900E-001	3.57870E+000	9	...........
	7	0.106667	7.53778E-001	2.80389E-004	0.00000E+000	2.11351E-004	1.68088E-001	7.54055E-001	3.57870E+000	9	...........
	8	0.12	7.67719E-001	2.80511E-004	0.00000E+000	2.15353E-004	1.68088E-001	7.67985E-001	3.57870E+000	9	...........
	9	0.133333	7.80552E-001	2.81830E-004	0.00000E+000	2.19983E-004	1.68088E-001	7.80852E-001	3.57870E+000	9	...........
	10	0.146667	7.92473E-001	2.80535E-004	0.00000E+000	2.22317E-004	1.68088E-001	7.92759E-001	3.57870E+000	9	...........
	11	0.16	8.03515E-001	2.81246E-004	0.00000E+000	2.25985E-004	1.68088E-001	8.03822E-001	3.57870E+000	9	...........
	12	0.173333	8.13761E-001	2.80070E-004	0.00000E+000	2.27910E-004	1.68088E-001	8.14101E-001	3.57870E+000	9	...........
	13	0.186667	8.23366E-001	2.80671E-004	0.00000E+000	2.31095E-004	1.68088E-001	8.23692E-001	3.57870E+000	9	...........
	14	0.2	8.32310E-001	2.81101E-004	0.00000E+000	2.33963E-004	1.68088E-001	8.32653E-001	3.57870E+000	9	...........
	15	0.213333	8.40695E-001	2.81059E-004	0.00000E+000	2.36284E-004	1.68088E-001	8.41037E-001	3.57870E+000	9	...........
	16	0.226667	8.48601E-001	2.81152E-004	0.00000E+000	2.38586E-004	1.68088E-001	8.48939E-001	3.57870E+000	9	...........
	17	0.24	8.55989E-001	2.81206E-004	0.00000E+000	2.40710E-004	1.68088E-001	8.56332E-001	3.57870E+000	9	...........
	18	0.253333	8.62949E-001	2.81919E-004	0.00000E+000	2.43282E-004	1.68088E-001	8.63294E-001	3.57870E+000	9	...........
	19	0.266667	8.69523E-001	2.82707E-004	0.00000E+000	2.45820E-004	1.68088E-001	8.69858E-001	3.57870E+000	9	...........
	20	0.28	8.75741E-001	2.80505E-004	0.00000E+000	2.45650E-004	1.68088E-001	8.76056E-001	3.57870E+000	9	...........
	21	0.293333	8.81559E-001	2.80608E-004	0.00000E+000	2.47373E-004	1.68088E-001	8.81914E-001	3.57870E+000	9	...........
	22	0.306667	8.87098E-001	2.81028E-004	0.00000E+000	2.49300E-004	1.68088E-001	8.87438E-001	3.57870E+000	9	...........
	23	0.32	8.92311E-001	2.80572E-004	0.00000E+000	2.50358E-004	1.68088E-001	8.92655E-001	3.57870E+000	9	...........
	24	0.333333	8.97286E-001	2.81215E-004	0.00000E+000	2.52330E-004	1.68088E-001	8.97637E-001	3.57870E+000	9	...........
	25	0.346667	9.01995E-001	2.82328E-004	0.00000E+000	2.54658E-004	1.68088E-001	9.02343E-001	3.57870E+000	9	...........
	26	0.36	9.06500E-001	2.81353E-004	0.00000E+000	2.55047E-004	1.68088E-001	9.06852E-001	3.57870E+000	9	...........
	27	0.373333	9.10806E-001	2.82327E-004	0.00000E+000	2.57145E-004	1.68088E-001	9.11137E-001	3.57870E+000	9	...........
	28	0.386667	9.14938E-001	2.81443E-004	0.00000E+000	2.57503E-004	1.68088E-001	9.15272E-001	3.57870E+000	9	...........
	29	0.4	9.18849E-001	2.81044E-004	0.00000E+000	2.58237E-004	1.68088E-001	9.19182E-001	3.57870E+000	9	...........
	30	0.413333	9.22669E-001	2.82086E-004	0.00000E+000	2.60272E-004	1.68088E-001	9.22935E-001	3.57855E+000	9	...........
	31	0.426667	9.26210E-001	2.81796E-004	0.00000E+000	2.61002E-004	1.68088E-001	9.26490E-001	3.57810E+000	9	...........
	32	0.44	9.29604E-001	2.81037E-004	0.00000E+000	2.61253E-004	1.68088E-001	9.29894E-001	3.57810E+000	9	...........
	33	0.453333	9.32880E-001	2.81290E-004	0.00000E+000	2.62410E-004	1.68088E-001	9.33185E-001	3.57810E+000	9	...........
	34	0.466667	9.36049E-001	2.80820E-004	0.00000E+000	2.62861E-004	1.68088E-001	9.36349E-001	3.57810E+000	9	...........
	35	0.48	9.39077E-001	2.80766E-004	0.00000E+000	2.63661E-004	1.68088E-001	9.39361E-001	3.57810E+000	9	...........
	36	0.493333	9.42005E-001	2.81484E-004	0.00000E+000	2.65159E-004	1.68088E-001	9.42286E-001	3.57810E+000	9	...........
	37	0.506667	9.44839E-001	2.81393E-004	0.00000E+000	2.65871E-004	1.68088E-001	9.45128E-001	3.57810E+000	9	...........
	38	0.52	9.47572E-001	2.80820E-004	0.00000E+000	2.66097E-004	1.68088E-001	9.47841E-001	3.57810E+000	9	...........
	39	0.533333	9.50211E-001	2.82193E-004	0.00000E+000	2.68143E-004	1.68088E-001	9.50490E-001	3.57810E+000	9	...........
	40	0.546667	9.52744E-001	2.80552E-004	0.00000E+000	2.67294E-004	1.68088E-001	9.53056E-001	3.57810E+000	9	...........
	41	0.56	9.55196E-001	2.80987E-004	0.00000E+000	2.68397E-004	1.68088E-001	9.55509E-001	3.57810E+000	9	...........
	42	0.573333	9.57585E-001	2.80711E-004	0.00000E+000	2.68804E-004	1.68088E-001	9.57926E-001	3.57810E+000	9	...........
	43	0.586667	9.59956E-001	2.81154E-004	0.00000E+000	2.69896E-004	1.68088E-001	9.60311E-001	3.57810E+000	9	...........
	44	0.6	9.62235E-001	2.80356E-004	0.00000E+000	2.69769E-004	1.68088E-001	9.62590E-001	3.57810E+000	9	...........
	45	0.613333	9.64417E-001	2.82018E-004	0.00000E+000	2.71983E-004	1.68088E-001	9.64823E-001	3.57810E+000	9	...........
	46	0.626667	9.66581E-001	2.80882E-004	0.00000E+000	2.71496E-004	1.68088E-001	9.66961E-001	3.57810E+000	9	...........
	47	0.64	9.68673E-001	2.81046E-004	0.00000E+000	2.72242E-004	1.68088E-001	9.69049E-001	3.57810E+000	9	...........
	48	0.653333	9.70673E-001	2.79484E-004	0.00000E+000	2.71288E-004	1.68088E-001	9.71046E-001	3.57810E+000	9	...........
	49	0.666667	9.72697E-001	2.81324E-004	0.00000E+000	2.73643E-004	1.68088E-001	9.73045E-001	3.57810E+000	9	...........
	50	0.68	9.74643E-001	2.82363E-004	0.00000E+000	2.75203E-004	1.68088E-001	9.74968E-001	3.57810E+000	9	...........
	51	0.693333	9.76531E-001	2.81673E-004	0.00000E+000	2.75063E-004	1.68088E-001	9.76850E-001	3.57810E+000	9	...........
	52	0.706667	9.78343E-001	2.80085E-004	0.00000E+000	2.74020E-004	1.68088E-001	9.78678E-001	3.57810E+000	9	...........
	53	0.72	9.80126E-001	2.81447E-004	0.00000E+000	2.75854E-004	1.68088E-001	9.80444E-001	3.57810E+000	9	...........
	54	0.733333	9.81852E-001	2.81286E-004	0.00000E+000	2.76181E-004	1.68088E-001	9.82183E-001	3.57810E+000	9	...........
	55	0.746667	9.83544E-001	2.79827E-004	0.00000E+000	2.75222E-004	1.68088E-001	9.83922E-001	3.57810E+000	9	...........
	56	0.76	9.85253E-001	2.81165E-004	0.00000E+000	2.77019E-004	1.68088E-001	9.85601E-001	3.57810E+000	9	...........
	57	0.773333	9.86922E-001	2.82056E-004	0.00000E+000	2.78367E-004	1.68088E-001	9.87284E-001	3.57810E+000	9	...........
	58	0.786667	9.88554E-001	2.81200E-004	0.00000E+000	2.77982E-004	1.68088E-001	9.88887E-001	3.57810E+000	9	...........
	59	0.8	9.90167E-001	2.80925E-004	0.00000E+000	2.78163E-004	1.68088E-001	9.90495E-001	3.57810E+000	9	...........
	60	0.813333	9.91738E-001	2.81533E-004	0.00000E+000	2.79207E-004	1.68088E-001	9.92091E-001	3.57810E+000	9	...........
	61	0.826667	9.93274E-001	2.79533E-004	0.00000E+000	2.77653E-004	1.68088E-001	9.93650E-001	3.57810E+000	9	...........
	62	0.84	9.94813E-001	2.81720E-004	0.00000E+000	2.80259E-004	1.68088E-001	9.95172E-001	3.57810E+000	9	...........
	63	0.853333	9.96268E-001	2.81413E-004	0.00000E+000	2.80363E-004	1.68088E-001	9.96641E-001	3.57810E+000	9	...........
	64	0.866667	9.97746E-001	2.80127E-004	0.00000E+000	2.79496E-004	1.68088E-001	9.98122E-001	3.57810E+000	9	...........
	65	0.88	9.99198E-001	2.79643E-004	0.00000E+000	2.79418E-004	1.68088E-001	9.99575E-001	3.57810E+000	9	...........
	66	0.883333	1.00011E+000	2.80002E-004	0.00000E+000	2.80033E-004	1.68088E-001	1.00052E+000	3.57810E+000	9	...........
STARTTIMEOFFSET	QUANT	1615.493	Start Time Offset (s)
