EXPLAIN
TAG	PWR800_CHARGE
TITLE	LABEL	PWR Cyclic Charge Discharge (Cell) - Charge Step	Test &Identifier
DATE	LABEL	7-7-2017	Date
TIME	LABEL	16:00:45	Time
NOTES	NOTES	3	&Notes...
	supercap test cell
	2.8mg
	6M KOH
PSTAT	PSTAT	IFC5000-01520	Potentiostat
CAPACITY	QUANT	1.00000E-003	Capacity (A-hr)
CELLTYPE	SELECTOR	1	&Cell Type
WORKINGCONNECTION	SELECTOR	0	&Working Lead
MAXCHARGETIME	VARIABLEANDUNITS	1.00000E+002	s	1.00000E+002	second(s)	Max &Charge Time
CHARGECURRENT	QUANT	2.80000E-004	&Charge Current (A) 
VOLTAGEFINISH	TWOPARAM	F	1.00000E-003	3.60000E+003	&Voltage Finish	 I (A) < 	Max Time(s)
SAMPLETIME	QUANT	1.00000E-002	Sa&mple Period (s)
CHARGESTOPAT1	MULTIPARAM	4	1.00000E+000	Charge Stop At &1	Voltage > Limit	V
CHARGESTOPAT2	MULTIPARAM	0	0.00000E+000	Charge Stop At &2	None	N/A
AESBHCSELECTOR	TOGGLE	F	Save Both Half Cells
IRCOMP	TOGGLE	F	IR &Measure
EOC	QUANT	0	Open Circuit (V)
SEQUENCER	TOGGLE	TRUE	Run as Sequence
PSTATMODEL	IQUANT	53	Pstat Model
PSTATSECTION	LABEL	IFC5000-01520	Pstat Section
PSTATSERIALNO	LABEL	01520	Pstat Serial Number
CTRLMODE	IQUANT	0	Control Mode
ELECTROMETER	IQUANT	1	RE=0 or CS=1
IESTAB	IQUANT	0	I/E Stability
CASPEED	IQUANT	4	Control Amp Speed
CONVENTION	IQUANT	1	Current Convention
ICHRANGE	IQUANT	2	Ich Range
ICHRANGEMODE	TOGGLE	T	Ich Auto Range
ICHOFFSETENABLE	TOGGLE	F	Ich Offset Enable
ICHOFFSET	QUANT	0	Ich Offset (V)
ICHFILTER	IQUANT	1	Ich Filter
VCHRANGE	IQUANT	2	Vch Range
VCHRANGEMODE	TOGGLE	T	Vch Auto Range
VCHOFFSETENABLE	TOGGLE	F	Vch Offset Enable
VCHOFFSET	QUANT	0	Vch Offset (V)
VCHFILTER	IQUANT	1	Vch Filter
IERANGELOWERLIMIT	IQUANT	9	I/E Range Lower Limit
IERANGEMODE	TOGGLE	F	I/E AutoRange
IERANGE	IQUANT	9	I/E Range
ACHSELECT	IQUANT	1	Ach Select
ACHRANGE	IQUANT	2	Ach Range
ACHOFFSETENABLE	TOGGLE	F	Ach Offset Enable
ACHOFFSET	QUANT	0	Ach Offset (V)
ACHFILTER	IQUANT	1	Ach Filter
CABLEID	IQUANT	14	Cable ID
DCCALDATE	LABEL	5-7-2017	DC Calibration Date
ACCALDATE	LABEL	12/3/2015	AC Calibration Date
FRAMEWORKVERSION	QUANT	7.01	Framework Version
INSTRUMENTVERSION	LABEL	4.00	Instrument Version
CURVE	TABLE	79
	Pt	T	Vf	Im	Vu	Pwr	Sig	Ach	Temp	IERange	Over
	#	s	V	A	V	W	V	V	deg C	#	bits
	0	0.013333	5.98539E-001	2.80297E-004	0.00000E+000	1.67769E-004	1.68088E-001	5.98823E-001	3.57870E+000	9	...........
	1	0.026667	6.28100E-001	2.81469E-004	0.00000E+000	1.76791E-004	1.68088E-001	6.28352E-001	3.57870E+000	9	...........
	2	0.04	6.53244E-001	2.82385E-004	0.00000E+000	1.84466E-004	1.68088E-001	6.53504E-001	3.57870E+000	9	...........
	3	0.053333	6.75270E-001	2.81780E-004	0.00000E+000	1.90277E-004	1.68088E-001	6.75524E-001	3.57870E+000	9	...........
	4	0.066667	6.94768E-001	2.82598E-004	0.00000E+000	1.96340E-004	1.68088E-001	6.95038E-001	3.57870E+000	9	...........
	5	0.08	7.12303E-001	2.80746E-004	0.00000E+000	1.99976E-004	1.68088E-001	7.12581E-001	3.57870E+000	9	...........
	6	0.093333	7.28238E-001	2.81026E-004	0.00000E+000	2.04654E-004	1.68088E-001	7.28499E-001	3.57870E+000	9	...........
	7	0.106667	7.42730E-001	2.81034E-004	0.00000E+000	2.08732E-004	1.68088E-001	7.43040E-001	3.57870E+000	9	...........
	8	0.12	7.56055E-001	2.80206E-004	0.00000E+000	2.11851E-004	1.68088E-001	7.56357E-001	3.57870E+000	9	...........
	9	0.133333	7.68343E-001	2.80828E-004	0.00000E+000	2.15772E-004	1.68088E-001	7.68632E-001	3.57870E+000	9	...........
	10	0.146667	7.79690E-001	2.81673E-004	0.00000E+000	2.19618E-004	1.68088E-001	7.79987E-001	3.57870E+000	9	...........
	11	0.16	7.90227E-001	2.80625E-004	0.00000E+000	2.21758E-004	1.68088E-001	7.90536E-001	3.57870E+000	9	...........
	12	0.173333	8.00048E-001	2.80456E-004	0.00000E+000	2.24379E-004	1.68088E-001	8.00344E-001	3.57870E+000	9	...........
	13	0.186667	8.09175E-001	2.80999E-004	0.00000E+000	2.27378E-004	1.68088E-001	8.09521E-001	3.57870E+000	9	...........
	14	0.2	8.17724E-001	2.80430E-004	0.00000E+000	2.29314E-004	1.68088E-001	8.18082E-001	3.57870E+000	9	...........
	15	0.213333	8.25757E-001	2.80830E-004	0.00000E+000	2.31898E-004	1.68088E-001	8.26126E-001	3.57870E+000	9	...........
	16	0.226667	8.33286E-001	2.81458E-004	0.00000E+000	2.34535E-004	1.68088E-001	8.33628E-001	3.57870E+000	9	...........
	17	0.24	8.40326E-001	2.80312E-004	0.00000E+000	2.35553E-004	1.68088E-001	8.40681E-001	3.57870E+000	9	...........
	18	0.253333	8.47044E-001	2.82367E-004	0.00000E+000	2.39178E-004	1.68088E-001	8.47364E-001	3.57870E+000	9	...........
	19	0.266667	8.53346E-001	2.80607E-004	0.00000E+000	2.39455E-004	1.68088E-001	8.53662E-001	3.57870E+000	9	...........
	20	0.28	8.59304E-001	2.81325E-004	0.00000E+000	2.41744E-004	1.68088E-001	8.59631E-001	3.57870E+000	9	...........
	21	0.293333	8.64946E-001	2.80605E-004	0.00000E+000	2.42708E-004	1.68088E-001	8.65262E-001	3.57870E+000	9	...........
	22	0.306667	8.70322E-001	2.80800E-004	0.00000E+000	2.44387E-004	1.68088E-001	8.70668E-001	3.57870E+000	9	...........
	23	0.32	8.75416E-001	2.81368E-004	0.00000E+000	2.46314E-004	1.68088E-001	8.75753E-001	3.57870E+000	9	...........
	24	0.333333	8.80235E-001	2.81614E-004	0.00000E+000	2.47886E-004	1.68088E-001	8.80573E-001	3.57870E+000	9	...........
	25	0.346667	8.84866E-001	2.81156E-004	0.00000E+000	2.48786E-004	1.68088E-001	8.85208E-001	3.57870E+000	9	...........
	26	0.36	8.89239E-001	2.80255E-004	0.00000E+000	2.49214E-004	1.68088E-001	8.89575E-001	3.57870E+000	9	...........
	27	0.373333	8.93384E-001	2.81553E-004	0.00000E+000	2.51535E-004	1.68088E-001	8.93770E-001	3.57870E+000	9	...........
	28	0.386667	8.97403E-001	2.81054E-004	0.00000E+000	2.52219E-004	1.68088E-001	8.97774E-001	3.57870E+000	9	...........
	29	0.4	9.01247E-001	2.82074E-004	0.00000E+000	2.54219E-004	1.68088E-001	9.01618E-001	3.57870E+000	9	...........
	30	0.413333	9.04892E-001	2.81125E-004	0.00000E+000	2.54388E-004	1.68088E-001	9.05280E-001	3.57870E+000	9	...........
	31	0.426667	9.08447E-001	2.80622E-004	0.00000E+000	2.54930E-004	1.68088E-001	9.08838E-001	3.57870E+000	9	...........
	32	0.44	9.11836E-001	2.79859E-004	0.00000E+000	2.55186E-004	1.68088E-001	9.12209E-001	3.57870E+000	9	...........
	33	0.453333	9.15091E-001	2.80664E-004	0.00000E+000	2.56833E-004	1.68088E-001	9.15453E-001	3.57870E+000	9	...........
	34	0.466667	9.18221E-001	2.80422E-004	0.00000E+000	2.57489E-004	1.68088E-001	9.18600E-001	3.57870E+000	9	...........
	35	0.48	9.21307E-001	2.81871E-004	0.00000E+000	2.59690E-004	1.68088E-001	9.21638E-001	3.57870E+000	9	...........
	36	0.493333	9.24234E-001	2.81342E-004	0.00000E+000	2.60026E-004	1.68088E-001	9.24537E-001	3.57870E+000	9	...........
	37	0.506667	9.27027E-001	2.80746E-004	0.00000E+000	2.60259E-004	1.68088E-001	9.27361E-001	3.57870E+000	9	...........
	38	0.52	9.29769E-001	2.81236E-004	0.00000E+000	2.61484E-004	1.68088E-001	9.30069E-001	3.57870E+000	9	...........
	39	0.533333	9.32361E-001	2.83394E-004	0.00000E+000	2.64226E-004	1.68088E-001	9.32705E-001	3.57870E+000	9	...........
	40	0.546667	9.34901E-001	2.81193E-004	0.00000E+000	2.62887E-004	1.68088E-001	9.35259E-001	3.57870E+000	9	...........
	41	0.56	9.37412E-001	2.80976E-004	0.00000E+000	2.63390E-004	1.68088E-001	9.37764E-001	3.57870E+000	9	...........
	42	0.573333	9.39804E-001	2.81268E-004	0.00000E+000	2.64337E-004	1.68088E-001	9.40136E-001	3.57870E+000	9	...........
	43	0.586667	9.42160E-001	2.80740E-004	0.00000E+000	2.64502E-004	1.68088E-001	9.42493E-001	3.57870E+000	9	...........
	44	0.6	9.44440E-001	2.81242E-004	0.00000E+000	2.65616E-004	1.68088E-001	9.44804E-001	3.57870E+000	9	...........
	45	0.613333	9.46699E-001	2.81242E-004	0.00000E+000	2.66251E-004	1.68088E-001	9.47069E-001	3.57870E+000	9	...........
	46	0.626667	9.48911E-001	2.81305E-004	0.00000E+000	2.66934E-004	1.68088E-001	9.49263E-001	3.57870E+000	9	...........
	47	0.64	9.51020E-001	2.81296E-004	0.00000E+000	2.67518E-004	1.68088E-001	9.51404E-001	3.57870E+000	9	...........
	48	0.653333	9.53110E-001	2.80904E-004	0.00000E+000	2.67733E-004	1.68088E-001	9.53511E-001	3.57870E+000	9	...........
	49	0.666667	9.55159E-001	2.80715E-004	0.00000E+000	2.68127E-004	1.68088E-001	9.55553E-001	3.57870E+000	9	...........
	50	0.68	9.57174E-001	2.80724E-004	0.00000E+000	2.68702E-004	1.68088E-001	9.57534E-001	3.57870E+000	9	...........
	51	0.693333	9.59126E-001	2.80537E-004	0.00000E+000	2.69070E-004	1.68088E-001	9.59518E-001	3.57870E+000	9	...........
	52	0.706667	9.61012E-001	2.81258E-004	0.00000E+000	2.70292E-004	1.68088E-001	9.61416E-001	3.57870E+000	9	...........
	53	0.72	9.62870E-001	2.81588E-004	0.00000E+000	2.71132E-004	1.68088E-001	9.63251E-001	3.57870E+000	9	...........
	54	0.733333	9.64598E-001	2.80595E-004	0.00000E+000	2.70661E-004	1.68088E-001	9.64991E-001	3.57870E+000	9	...........
	55	0.746667	9.66361E-001	2.80855E-004	0.00000E+000	2.71408E-004	1.68088E-001	9.66726E-001	3.57870E+000	9	...........
	56	0.76	9.68063E-001	2.80722E-004	0.00000E+000	2.71757E-004	1.68088E-001	9.68448E-001	3.57870E+000	9	...........
	57	0.773333	9.69754E-001	2.81512E-004	0.00000E+000	2.72997E-004	1.68088E-001	9.70146E-001	3.57870E+000	9	...........
	58	0.786667	9.71435E-001	2.80557E-004	0.00000E+000	2.72543E-004	1.68088E-001	9.71878E-001	3.57870E+000	9	...........
	59	0.8	9.73179E-001	2.81586E-004	0.00000E+000	2.74033E-004	1.68088E-001	9.73550E-001	3.57870E+000	9	...........
	60	0.813333	9.74807E-001	2.81325E-004	0.00000E+000	2.74238E-004	1.68088E-001	9.75183E-001	3.57870E+000	9	...........
	61	0.826667	9.76417E-001	2.79597E-004	0.00000E+000	2.73003E-004	1.68088E-001	9.76776E-001	3.57870E+000	9	...........
	62	0.84	9.77982E-001	2.80609E-004	0.00000E+000	2.74431E-004	1.68088E-001	9.78346E-001	3.57870E+000	9	...........
	63	0.853333	9.79517E-001	2.81833E-004	0.00000E+000	2.76060E-004	1.68088E-001	9.79870E-001	3.57870E+000	9	...........
	64	0.866667	9.80985E-001	2.80953E-004	0.00000E+000	2.75611E-004	1.68088E-001	9.81353E-001	3.57870E+000	9	...........
	65	0.88	9.82476E-001	2.81370E-004	0.00000E+000	2.76439E-004	1.68088E-001	9.82827E-001	3.57870E+000	9	...........
	66	0.893333	9.83888E-001	2.80954E-004	0.00000E+000	2.76427E-004	1.68088E-001	9.84249E-001	3.57870E+000	9	...........
	67	0.906667	9.85309E-001	2.80344E-004	0.00000E+000	2.76225E-004	1.68088E-001	9.85691E-001	3.57870E+000	9	...........
	68	0.92	9.86750E-001	2.81131E-004	0.00000E+000	2.77406E-004	1.68088E-001	9.87115E-001	3.57870E+000	9	...........
	69	0.933333	9.88132E-001	2.80947E-004	0.00000E+000	2.77613E-004	1.68088E-001	9.88517E-001	3.57870E+000	9	...........
	70	0.946667	9.89511E-001	2.81651E-004	0.00000E+000	2.78697E-004	1.68088E-001	9.89861E-001	3.57870E+000	9	...........
	71	0.96	9.90830E-001	2.82148E-004	0.00000E+000	2.79561E-004	1.68088E-001	9.91185E-001	3.57870E+000	9	...........
	72	0.97333	9.92113E-001	2.81218E-004	0.00000E+000	2.79000E-004	1.68088E-001	9.92474E-001	3.57842E+000	9	...........
	73	0.98667	9.93385E-001	2.81648E-004	0.00000E+000	2.79785E-004	1.68088E-001	9.93749E-001	3.57760E+000	9	...........
	74	1	9.94644E-001	2.81314E-004	0.00000E+000	2.79807E-004	1.68088E-001	9.95029E-001	3.57760E+000	9	...........
	75	1.01333	9.95930E-001	2.81471E-004	0.00000E+000	2.80325E-004	1.68088E-001	9.96301E-001	3.57760E+000	9	...........
	76	1.02667	9.97185E-001	2.80256E-004	0.00000E+000	2.79467E-004	1.68088E-001	9.97570E-001	3.57760E+000	9	...........
	77	1.04	9.98425E-001	2.79799E-004	0.00000E+000	2.79358E-004	1.68088E-001	9.98794E-001	3.57760E+000	9	...........
	78	1.05333	9.99612E-001	2.80228E-004	0.00000E+000	2.80119E-004	1.68088E-001	9.99994E-001	3.57760E+000	9	...........
STARTTIMEOFFSET	QUANT	1140.738	Start Time Offset (s)
