EXPLAIN
TAG	PWR800_CHARGE
TITLE	LABEL	PWR Cyclic Charge Discharge (Cell) - Charge Step	Test &Identifier
DATE	LABEL	7-7-2017	Date
TIME	LABEL	16:18:37	Time
NOTES	NOTES	3	&Notes...
	supercap test cell
	2.8mg
	6M KOH
PSTAT	PSTAT	IFC5000-01520	Potentiostat
CAPACITY	QUANT	1.00000E-003	Capacity (A-hr)
CELLTYPE	SELECTOR	1	&Cell Type
WORKINGCONNECTION	SELECTOR	0	&Working Lead
MAXCHARGETIME	VARIABLEANDUNITS	1.00000E+002	s	1.00000E+002	second(s)	Max &Charge Time
CHARGECURRENT	QUANT	2.80000E-004	&Charge Current (A) 
VOLTAGEFINISH	TWOPARAM	F	1.00000E-003	3.60000E+003	&Voltage Finish	 I (A) < 	Max Time(s)
SAMPLETIME	QUANT	1.00000E-002	Sa&mple Period (s)
CHARGESTOPAT1	MULTIPARAM	4	1.00000E+000	Charge Stop At &1	Voltage > Limit	V
CHARGESTOPAT2	MULTIPARAM	0	0.00000E+000	Charge Stop At &2	None	N/A
AESBHCSELECTOR	TOGGLE	F	Save Both Half Cells
IRCOMP	TOGGLE	F	IR &Measure
EOC	QUANT	0	Open Circuit (V)
SEQUENCER	TOGGLE	TRUE	Run as Sequence
PSTATMODEL	IQUANT	53	Pstat Model
PSTATSECTION	LABEL	IFC5000-01520	Pstat Section
PSTATSERIALNO	LABEL	01520	Pstat Serial Number
CTRLMODE	IQUANT	0	Control Mode
ELECTROMETER	IQUANT	1	RE=0 or CS=1
IESTAB	IQUANT	0	I/E Stability
CASPEED	IQUANT	4	Control Amp Speed
CONVENTION	IQUANT	1	Current Convention
ICHRANGE	IQUANT	2	Ich Range
ICHRANGEMODE	TOGGLE	T	Ich Auto Range
ICHOFFSETENABLE	TOGGLE	F	Ich Offset Enable
ICHOFFSET	QUANT	0	Ich Offset (V)
ICHFILTER	IQUANT	1	Ich Filter
VCHRANGE	IQUANT	2	Vch Range
VCHRANGEMODE	TOGGLE	T	Vch Auto Range
VCHOFFSETENABLE	TOGGLE	F	Vch Offset Enable
VCHOFFSET	QUANT	0	Vch Offset (V)
VCHFILTER	IQUANT	1	Vch Filter
IERANGELOWERLIMIT	IQUANT	9	I/E Range Lower Limit
IERANGEMODE	TOGGLE	F	I/E AutoRange
IERANGE	IQUANT	9	I/E Range
ACHSELECT	IQUANT	1	Ach Select
ACHRANGE	IQUANT	2	Ach Range
ACHOFFSETENABLE	TOGGLE	F	Ach Offset Enable
ACHOFFSET	QUANT	0	Ach Offset (V)
ACHFILTER	IQUANT	1	Ach Filter
CABLEID	IQUANT	14	Cable ID
DCCALDATE	LABEL	5-7-2017	DC Calibration Date
ACCALDATE	LABEL	12/3/2015	AC Calibration Date
FRAMEWORKVERSION	QUANT	7.01	Framework Version
INSTRUMENTVERSION	LABEL	4.00	Instrument Version
CURVE	TABLE	61
	Pt	T	Vf	Im	Vu	Pwr	Sig	Ach	Temp	IERange	Over
	#	s	V	A	V	W	V	V	deg C	#	bits
	0	0.013333	6.14032E-001	2.80451E-004	0.00000E+000	1.72206E-004	1.68088E-001	6.14288E-001	3.57800E+000	9	...........
	1	0.026667	6.44022E-001	2.80949E-004	0.00000E+000	1.80937E-004	1.68088E-001	6.44269E-001	3.57800E+000	9	...........
	2	0.04	6.69830E-001	2.80805E-004	0.00000E+000	1.88092E-004	1.68088E-001	6.70070E-001	3.57800E+000	9	...........
	3	0.053333	6.92536E-001	2.80718E-004	0.00000E+000	1.94407E-004	1.68088E-001	6.92782E-001	3.57800E+000	9	...........
	4	0.066667	7.12810E-001	2.81241E-004	0.00000E+000	2.00471E-004	1.68088E-001	7.13083E-001	3.57800E+000	9	...........
	5	0.08	7.31189E-001	2.81357E-004	0.00000E+000	2.05725E-004	1.68088E-001	7.31440E-001	3.57800E+000	9	...........
	6	0.093333	7.47889E-001	2.81718E-004	0.00000E+000	2.10694E-004	1.68088E-001	7.48152E-001	3.57800E+000	9	...........
	7	0.106667	7.63143E-001	2.81219E-004	0.00000E+000	2.14610E-004	1.68088E-001	7.63424E-001	3.57800E+000	9	...........
	8	0.12	7.77212E-001	2.80014E-004	0.00000E+000	2.17630E-004	1.68088E-001	7.77502E-001	3.57800E+000	9	...........
	9	0.133333	7.90168E-001	2.81040E-004	0.00000E+000	2.22069E-004	1.68088E-001	7.90467E-001	3.57800E+000	9	...........
	10	0.146667	8.02199E-001	2.79812E-004	0.00000E+000	2.24465E-004	1.68088E-001	8.02498E-001	3.57835E+000	9	...........
	11	0.16	8.13338E-001	2.81211E-004	0.00000E+000	2.28719E-004	1.68088E-001	8.13630E-001	3.57870E+000	9	...........
	12	0.173333	8.23746E-001	2.81250E-004	0.00000E+000	2.31679E-004	1.68088E-001	8.24046E-001	3.57870E+000	9	...........
	13	0.186667	8.33374E-001	2.80715E-004	0.00000E+000	2.33940E-004	1.68088E-001	8.33677E-001	3.57870E+000	9	...........
	14	0.2	8.42386E-001	2.81227E-004	0.00000E+000	2.36902E-004	1.68088E-001	8.42702E-001	3.57870E+000	9	...........
	15	0.213333	8.50847E-001	2.80930E-004	0.00000E+000	2.39029E-004	1.68088E-001	8.51167E-001	3.57870E+000	9	...........
	16	0.226667	8.58746E-001	2.80980E-004	0.00000E+000	2.41291E-004	1.68088E-001	8.59064E-001	3.57870E+000	9	...........
	17	0.24	8.66170E-001	2.81193E-004	0.00000E+000	2.43561E-004	1.68088E-001	8.66499E-001	3.57870E+000	9	...........
	18	0.253333	8.73185E-001	2.80230E-004	0.00000E+000	2.44693E-004	1.68088E-001	8.73528E-001	3.57870E+000	9	...........
	19	0.266667	8.79743E-001	2.81042E-004	0.00000E+000	2.47245E-004	1.68088E-001	8.80089E-001	3.57870E+000	9	...........
	20	0.28	8.85929E-001	2.81063E-004	0.00000E+000	2.49002E-004	1.68088E-001	8.86277E-001	3.57870E+000	9	...........
	21	0.293333	8.91725E-001	2.80852E-004	0.00000E+000	2.50443E-004	1.68088E-001	8.92080E-001	3.57870E+000	9	...........
	22	0.306667	8.97238E-001	2.82211E-004	0.00000E+000	2.53210E-004	1.68088E-001	8.97580E-001	3.57870E+000	9	...........
	23	0.32	9.02462E-001	2.80774E-004	0.00000E+000	2.53388E-004	1.68088E-001	9.02803E-001	3.57870E+000	9	...........
	24	0.333333	9.07431E-001	2.81559E-004	0.00000E+000	2.55495E-004	1.68088E-001	9.07757E-001	3.57870E+000	9	...........
	25	0.346667	9.12125E-001	2.79290E-004	0.00000E+000	2.54748E-004	1.68088E-001	9.12473E-001	3.57870E+000	9	...........
	26	0.36	9.16593E-001	2.81746E-004	0.00000E+000	2.58246E-004	1.68088E-001	9.16968E-001	3.57870E+000	9	...........
	27	0.373333	9.20884E-001	2.82544E-004	0.00000E+000	2.60191E-004	1.68088E-001	9.21224E-001	3.57870E+000	9	...........
	28	0.386667	9.24985E-001	2.81315E-004	0.00000E+000	2.60212E-004	1.68088E-001	9.25299E-001	3.57870E+000	9	...........
	29	0.4	9.28838E-001	2.80662E-004	0.00000E+000	2.60689E-004	1.68088E-001	9.29152E-001	3.57870E+000	9	...........
	30	0.413333	9.32552E-001	2.80502E-004	0.00000E+000	2.61583E-004	1.68088E-001	9.32875E-001	3.57870E+000	9	...........
	31	0.426667	9.36116E-001	2.81184E-004	0.00000E+000	2.63220E-004	1.68088E-001	9.36444E-001	3.57870E+000	9	...........
	32	0.44	9.39504E-001	2.81918E-004	0.00000E+000	2.64863E-004	1.68088E-001	9.39850E-001	3.57870E+000	9	...........
	33	0.453333	9.42770E-001	2.81234E-004	0.00000E+000	2.65139E-004	1.68088E-001	9.43104E-001	3.57870E+000	9	...........
	34	0.466667	9.45925E-001	2.81072E-004	0.00000E+000	2.65873E-004	1.68088E-001	9.46260E-001	3.57870E+000	9	...........
	35	0.48	9.48986E-001	2.82474E-004	0.00000E+000	2.68064E-004	1.68088E-001	9.49321E-001	3.57870E+000	9	...........
	36	0.493333	9.51868E-001	2.80675E-004	0.00000E+000	2.67166E-004	1.68088E-001	9.52191E-001	3.57870E+000	9	...........
	37	0.506667	9.54652E-001	2.80430E-004	0.00000E+000	2.67713E-004	1.68088E-001	9.54964E-001	3.57870E+000	9	...........
	38	0.52	9.57349E-001	2.81255E-004	0.00000E+000	2.69260E-004	1.68088E-001	9.57665E-001	3.57870E+000	9	...........
	39	0.533333	9.59925E-001	2.81574E-004	0.00000E+000	2.70290E-004	1.68088E-001	9.60259E-001	3.57870E+000	9	...........
	40	0.546667	9.62405E-001	2.80724E-004	0.00000E+000	2.70170E-004	1.68088E-001	9.62755E-001	3.57870E+000	9	...........
	41	0.56	9.64828E-001	2.80537E-004	0.00000E+000	2.70670E-004	1.68088E-001	9.65166E-001	3.57870E+000	9	...........
	42	0.573333	9.67185E-001	2.81766E-004	0.00000E+000	2.72520E-004	1.68088E-001	9.67534E-001	3.57870E+000	9	...........
	43	0.586667	9.69511E-001	2.82106E-004	0.00000E+000	2.73505E-004	1.68088E-001	9.69871E-001	3.57870E+000	9	...........
	44	0.6	9.71774E-001	2.79279E-004	0.00000E+000	2.71396E-004	1.68088E-001	9.72149E-001	3.57870E+000	9	...........
	45	0.613333	9.73990E-001	2.80651E-004	0.00000E+000	2.73351E-004	1.68088E-001	9.74333E-001	3.57870E+000	9	...........
	46	0.626667	9.76088E-001	2.79926E-004	0.00000E+000	2.73233E-004	1.68088E-001	9.76445E-001	3.57870E+000	9	...........
	47	0.64	9.78129E-001	2.81427E-004	0.00000E+000	2.75272E-004	1.68088E-001	9.78490E-001	3.57870E+000	9	...........
	48	0.653333	9.80155E-001	2.81005E-004	0.00000E+000	2.75429E-004	1.68088E-001	9.80463E-001	3.57870E+000	9	...........
	49	0.666667	9.82071E-001	2.80797E-004	0.00000E+000	2.75762E-004	1.68088E-001	9.82408E-001	3.57870E+000	9	...........
	50	0.68	9.83988E-001	2.80508E-004	0.00000E+000	2.76017E-004	1.68088E-001	9.84316E-001	3.57870E+000	9	...........
	51	0.693333	9.85871E-001	2.81702E-004	0.00000E+000	2.77722E-004	1.68088E-001	9.86205E-001	3.57870E+000	9	...........
	52	0.706667	9.87677E-001	2.81506E-004	0.00000E+000	2.78036E-004	1.68088E-001	9.88017E-001	3.57870E+000	9	...........
	53	0.72	9.89452E-001	2.80293E-004	0.00000E+000	2.77336E-004	1.68088E-001	9.89775E-001	3.57870E+000	9	...........
	54	0.733333	9.91138E-001	2.82364E-004	0.00000E+000	2.79862E-004	1.68088E-001	9.91506E-001	3.57870E+000	9	...........
	55	0.746667	9.92820E-001	2.80899E-004	0.00000E+000	2.78882E-004	1.68088E-001	9.93170E-001	3.57870E+000	9	...........
	56	0.76	9.94489E-001	2.81935E-004	0.00000E+000	2.80381E-004	1.68088E-001	9.94846E-001	3.57870E+000	9	...........
	57	0.773333	9.96132E-001	2.80152E-004	0.00000E+000	2.79069E-004	1.68088E-001	9.96477E-001	3.57870E+000	9	...........
	58	0.786667	9.97764E-001	2.80775E-004	0.00000E+000	2.80147E-004	1.68088E-001	9.98122E-001	3.57870E+000	9	...........
	59	0.8	9.99288E-001	2.80837E-004	0.00000E+000	2.80637E-004	1.68088E-001	9.99655E-001	3.57870E+000	9	...........
	60	0.801667	1.00014E+000	2.80219E-004	0.00000E+000	2.80257E-004	1.68088E-001	1.00048E+000	3.57870E+000	9	...........
STARTTIMEOFFSET	QUANT	1868.37	Start Time Offset (s)
