EXPLAIN
TAG	PWR800_CHARGE
TITLE	LABEL	PWR Cyclic Charge Discharge (Cell) - Charge Step	Test &Identifier
DATE	LABEL	7-7-2017	Date
TIME	LABEL	15:48:45	Time
NOTES	NOTES	3	&Notes...
	supercap test cell
	2.8mg
	6M KOH
PSTAT	PSTAT	IFC5000-01520	Potentiostat
CAPACITY	QUANT	1.00000E-003	Capacity (A-hr)
CELLTYPE	SELECTOR	1	&Cell Type
WORKINGCONNECTION	SELECTOR	0	&Working Lead
MAXCHARGETIME	VARIABLEANDUNITS	1.00000E+002	s	1.00000E+002	second(s)	Max &Charge Time
CHARGECURRENT	QUANT	2.80000E-004	&Charge Current (A) 
VOLTAGEFINISH	TWOPARAM	F	1.00000E-003	3.60000E+003	&Voltage Finish	 I (A) < 	Max Time(s)
SAMPLETIME	QUANT	1.00000E-002	Sa&mple Period (s)
CHARGESTOPAT1	MULTIPARAM	4	1.00000E+000	Charge Stop At &1	Voltage > Limit	V
CHARGESTOPAT2	MULTIPARAM	0	0.00000E+000	Charge Stop At &2	None	N/A
AESBHCSELECTOR	TOGGLE	F	Save Both Half Cells
IRCOMP	TOGGLE	F	IR &Measure
EOC	QUANT	0	Open Circuit (V)
SEQUENCER	TOGGLE	TRUE	Run as Sequence
PSTATMODEL	IQUANT	53	Pstat Model
PSTATSECTION	LABEL	IFC5000-01520	Pstat Section
PSTATSERIALNO	LABEL	01520	Pstat Serial Number
CTRLMODE	IQUANT	0	Control Mode
ELECTROMETER	IQUANT	1	RE=0 or CS=1
IESTAB	IQUANT	0	I/E Stability
CASPEED	IQUANT	4	Control Amp Speed
CONVENTION	IQUANT	1	Current Convention
ICHRANGE	IQUANT	2	Ich Range
ICHRANGEMODE	TOGGLE	T	Ich Auto Range
ICHOFFSETENABLE	TOGGLE	F	Ich Offset Enable
ICHOFFSET	QUANT	0	Ich Offset (V)
ICHFILTER	IQUANT	1	Ich Filter
VCHRANGE	IQUANT	2	Vch Range
VCHRANGEMODE	TOGGLE	T	Vch Auto Range
VCHOFFSETENABLE	TOGGLE	F	Vch Offset Enable
VCHOFFSET	QUANT	0	Vch Offset (V)
VCHFILTER	IQUANT	1	Vch Filter
IERANGELOWERLIMIT	IQUANT	9	I/E Range Lower Limit
IERANGEMODE	TOGGLE	F	I/E AutoRange
IERANGE	IQUANT	9	I/E Range
ACHSELECT	IQUANT	1	Ach Select
ACHRANGE	IQUANT	2	Ach Range
ACHOFFSETENABLE	TOGGLE	F	Ach Offset Enable
ACHOFFSET	QUANT	0	Ach Offset (V)
ACHFILTER	IQUANT	1	Ach Filter
CABLEID	IQUANT	14	Cable ID
DCCALDATE	LABEL	5-7-2017	DC Calibration Date
ACCALDATE	LABEL	12/3/2015	AC Calibration Date
FRAMEWORKVERSION	QUANT	7.01	Framework Version
INSTRUMENTVERSION	LABEL	4.00	Instrument Version
CURVE	TABLE	109
	Pt	T	Vf	Im	Vu	Pwr	Sig	Ach	Temp	IERange	Over
	#	s	V	A	V	W	V	V	deg C	#	bits
	0	0.013333	5.91838E-001	2.81255E-004	0.00000E+000	1.66458E-004	1.68088E-001	5.92115E-001	3.57910E+000	9	...........
	1	0.026667	6.19933E-001	2.81371E-004	0.00000E+000	1.74431E-004	1.68088E-001	6.20216E-001	3.57910E+000	9	...........
	2	0.04	6.43579E-001	2.80455E-004	0.00000E+000	1.80495E-004	1.68088E-001	6.43837E-001	3.57910E+000	9	...........
	3	0.053333	6.64008E-001	2.80580E-004	0.00000E+000	1.86308E-004	1.68088E-001	6.64235E-001	3.57910E+000	9	...........
	4	0.066667	6.81957E-001	2.81361E-004	0.00000E+000	1.91876E-004	1.68088E-001	6.82188E-001	3.57910E+000	9	...........
	5	0.08	6.97966E-001	2.80977E-004	0.00000E+000	1.96112E-004	1.68088E-001	6.98200E-001	3.57910E+000	9	...........
	6	0.093333	7.12397E-001	2.81435E-004	0.00000E+000	2.00493E-004	1.68088E-001	7.12665E-001	3.57910E+000	9	...........
	7	0.106667	7.25507E-001	2.81234E-004	0.00000E+000	2.04037E-004	1.68088E-001	7.25755E-001	3.57910E+000	9	...........
	8	0.12	7.37448E-001	2.80248E-004	0.00000E+000	2.06668E-004	1.68088E-001	7.37719E-001	3.57910E+000	9	...........
	9	0.133333	7.48452E-001	2.80800E-004	0.00000E+000	2.10165E-004	1.68088E-001	7.48744E-001	3.57910E+000	9	...........
	10	0.146667	7.58653E-001	2.81637E-004	0.00000E+000	2.13665E-004	1.68088E-001	7.58950E-001	3.57910E+000	9	...........
	11	0.16	7.68090E-001	2.80727E-004	0.00000E+000	2.15624E-004	1.68088E-001	7.68406E-001	3.57910E+000	9	...........
	12	0.173333	7.76897E-001	2.81914E-004	0.00000E+000	2.19018E-004	1.68088E-001	7.77192E-001	3.57910E+000	9	...........
	13	0.186667	7.85105E-001	2.81048E-004	0.00000E+000	2.20652E-004	1.68088E-001	7.85385E-001	3.57910E+000	9	...........
	14	0.2	7.92761E-001	2.81145E-004	0.00000E+000	2.22881E-004	1.68088E-001	7.93061E-001	3.57910E+000	9	...........
	15	0.213333	7.99975E-001	2.81041E-004	0.00000E+000	2.24826E-004	1.68088E-001	8.00240E-001	3.57910E+000	9	...........
	16	0.226667	8.06715E-001	2.80087E-004	0.00000E+000	2.25951E-004	1.68088E-001	8.07015E-001	3.57910E+000	9	...........
	17	0.24	8.13044E-001	2.81255E-004	0.00000E+000	2.28673E-004	1.68088E-001	8.13397E-001	3.57910E+000	9	...........
	18	0.253333	8.19075E-001	2.81585E-004	0.00000E+000	2.30639E-004	1.68088E-001	8.19410E-001	3.57910E+000	9	...........
	19	0.266667	8.24803E-001	2.82060E-004	0.00000E+000	2.32644E-004	1.68088E-001	8.25150E-001	3.57910E+000	9	...........
	20	0.28	8.30202E-001	2.81142E-004	0.00000E+000	2.33405E-004	1.68088E-001	8.30560E-001	3.57910E+000	9	...........
	21	0.293333	8.35349E-001	2.81318E-004	0.00000E+000	2.34999E-004	1.68088E-001	8.35717E-001	3.57910E+000	9	...........
	22	0.306667	8.40236E-001	2.81253E-004	0.00000E+000	2.36319E-004	1.68088E-001	8.40602E-001	3.57910E+000	9	...........
	23	0.32	8.44921E-001	2.80392E-004	0.00000E+000	2.36909E-004	1.68088E-001	8.45282E-001	3.57910E+000	9	...........
	24	0.333333	8.49370E-001	2.81551E-004	0.00000E+000	2.39141E-004	1.68088E-001	8.49733E-001	3.57910E+000	9	...........
	25	0.346667	8.53637E-001	2.81894E-004	0.00000E+000	2.40635E-004	1.68088E-001	8.53999E-001	3.57910E+000	9	...........
	26	0.36	8.57733E-001	2.81724E-004	0.00000E+000	2.41644E-004	1.68088E-001	8.58127E-001	3.57910E+000	9	...........
	27	0.373333	8.61655E-001	2.81681E-004	0.00000E+000	2.42711E-004	1.68088E-001	8.62026E-001	3.57901E+000	9	...........
	28	0.386667	8.65425E-001	2.81424E-004	0.00000E+000	2.43552E-004	1.68088E-001	8.65799E-001	3.57870E+000	9	...........
	29	0.4	8.69051E-001	2.81631E-004	0.00000E+000	2.44751E-004	1.68088E-001	8.69408E-001	3.57870E+000	9	...........
	30	0.413333	8.72505E-001	2.81340E-004	0.00000E+000	2.45470E-004	1.68088E-001	8.72877E-001	3.57870E+000	9	...........
	31	0.426667	8.75860E-001	2.80812E-004	0.00000E+000	2.45952E-004	1.68088E-001	8.76238E-001	3.57870E+000	9	...........
	32	0.44	8.79081E-001	2.81396E-004	0.00000E+000	2.47370E-004	1.68088E-001	8.79447E-001	3.57870E+000	9	...........
	33	0.453333	8.82217E-001	2.80299E-004	0.00000E+000	2.47285E-004	1.68088E-001	8.82582E-001	3.57870E+000	9	...........
	34	0.466667	8.85271E-001	2.80762E-004	0.00000E+000	2.48550E-004	1.68088E-001	8.85617E-001	3.57870E+000	9	...........
	35	0.48	8.88176E-001	2.81360E-004	0.00000E+000	2.49897E-004	1.68088E-001	8.88515E-001	3.57870E+000	9	...........
	36	0.493333	8.90967E-001	2.80801E-004	0.00000E+000	2.50185E-004	1.68088E-001	8.91329E-001	3.57870E+000	9	...........
	37	0.506667	8.93705E-001	2.81002E-004	0.00000E+000	2.51133E-004	1.68088E-001	8.94075E-001	3.57870E+000	9	...........
	38	0.52	8.96410E-001	2.81224E-004	0.00000E+000	2.52092E-004	1.68088E-001	8.96765E-001	3.57870E+000	9	...........
	39	0.533333	8.98976E-001	2.81225E-004	0.00000E+000	2.52815E-004	1.68088E-001	8.99355E-001	3.57870E+000	9	...........
	40	0.546667	9.01510E-001	2.81055E-004	0.00000E+000	2.53374E-004	1.68088E-001	9.01857E-001	3.57870E+000	9	...........
	41	0.56	9.03916E-001	2.80613E-004	0.00000E+000	2.53650E-004	1.68088E-001	9.04290E-001	3.57870E+000	9	...........
	42	0.573333	9.06288E-001	2.81294E-004	0.00000E+000	2.54933E-004	1.68088E-001	9.06662E-001	3.57870E+000	9	...........
	43	0.586667	9.08592E-001	2.80893E-004	0.00000E+000	2.55217E-004	1.68088E-001	9.08972E-001	3.57870E+000	9	...........
	44	0.6	9.10846E-001	2.81012E-004	0.00000E+000	2.55958E-004	1.68088E-001	9.11200E-001	3.57870E+000	9	...........
	45	0.613333	9.13031E-001	2.81173E-004	0.00000E+000	2.56720E-004	1.68088E-001	9.13399E-001	3.57870E+000	9	...........
	46	0.626667	9.15212E-001	2.80699E-004	0.00000E+000	2.56899E-004	1.68088E-001	9.15597E-001	3.57870E+000	9	...........
	47	0.64	9.17324E-001	2.81782E-004	0.00000E+000	2.58485E-004	1.68088E-001	9.17715E-001	3.57870E+000	9	...........
	48	0.653333	9.19375E-001	2.80833E-004	0.00000E+000	2.58191E-004	1.68088E-001	9.19769E-001	3.57870E+000	9	...........
	49	0.666667	9.21465E-001	2.81486E-004	0.00000E+000	2.59379E-004	1.68088E-001	9.21800E-001	3.57870E+000	9	...........
	50	0.68	9.23451E-001	2.80431E-004	0.00000E+000	2.58965E-004	1.68088E-001	9.23793E-001	3.57870E+000	9	...........
	51	0.693333	9.25376E-001	2.80404E-004	0.00000E+000	2.59479E-004	1.68088E-001	9.25725E-001	3.57870E+000	9	...........
	52	0.706667	9.27300E-001	2.80750E-004	0.00000E+000	2.60340E-004	1.68088E-001	9.27654E-001	3.57870E+000	9	...........
	53	0.72	9.29156E-001	2.80822E-004	0.00000E+000	2.60928E-004	1.68088E-001	9.29490E-001	3.57870E+000	9	...........
	54	0.733333	9.31006E-001	2.81581E-004	0.00000E+000	2.62153E-004	1.68088E-001	9.31356E-001	3.57870E+000	9	...........
	55	0.746667	9.32791E-001	2.80807E-004	0.00000E+000	2.61935E-004	1.68088E-001	9.33164E-001	3.57870E+000	9	...........
	56	0.76	9.34563E-001	2.81536E-004	0.00000E+000	2.63113E-004	1.68088E-001	9.34922E-001	3.57870E+000	9	...........
	57	0.773333	9.36260E-001	2.80836E-004	0.00000E+000	2.62935E-004	1.68088E-001	9.36620E-001	3.57870E+000	9	...........
	58	0.786667	9.37928E-001	2.80837E-004	0.00000E+000	2.63405E-004	1.68088E-001	9.38286E-001	3.57870E+000	9	...........
	59	0.8	9.39584E-001	2.81520E-004	0.00000E+000	2.64512E-004	1.68088E-001	9.39933E-001	3.57870E+000	9	...........
	60	0.813333	9.41213E-001	2.80931E-004	0.00000E+000	2.64416E-004	1.68088E-001	9.41530E-001	3.57870E+000	9	...........
	61	0.826667	9.42795E-001	2.80885E-004	0.00000E+000	2.64817E-004	1.68088E-001	9.43106E-001	3.57870E+000	9	...........
	62	0.84	9.44369E-001	2.81793E-004	0.00000E+000	2.66117E-004	1.68088E-001	9.44685E-001	3.57870E+000	9	...........
	63	0.853333	9.45944E-001	2.81014E-004	0.00000E+000	2.65823E-004	1.68088E-001	9.46261E-001	3.57870E+000	9	...........
	64	0.866667	9.47503E-001	2.80584E-004	0.00000E+000	2.65855E-004	1.68088E-001	9.47805E-001	3.57870E+000	9	...........
	65	0.88	9.49018E-001	2.82044E-004	0.00000E+000	2.67665E-004	1.68088E-001	9.49346E-001	3.57870E+000	9	...........
	66	0.893333	9.50533E-001	2.80618E-004	0.00000E+000	2.66736E-004	1.68088E-001	9.50858E-001	3.57870E+000	9	...........
	67	0.906667	9.52017E-001	2.81285E-004	0.00000E+000	2.67788E-004	1.68088E-001	9.52369E-001	3.57870E+000	9	...........
	68	0.92	9.53468E-001	2.81547E-004	0.00000E+000	2.68446E-004	1.68088E-001	9.53809E-001	3.57870E+000	9	...........
	69	0.933333	9.54868E-001	2.81610E-004	0.00000E+000	2.68900E-004	1.68088E-001	9.55193E-001	3.57870E+000	9	...........
	70	0.946667	9.56264E-001	2.81631E-004	0.00000E+000	2.69313E-004	1.68088E-001	9.56594E-001	3.57870E+000	9	...........
	71	0.96	9.57667E-001	2.81003E-004	0.00000E+000	2.69108E-004	1.68088E-001	9.58021E-001	3.57870E+000	9	...........
	72	0.97333	9.59071E-001	2.80543E-004	0.00000E+000	2.69060E-004	1.68088E-001	9.59416E-001	3.57870E+000	9	...........
	73	0.98667	9.60435E-001	2.81583E-004	0.00000E+000	2.70442E-004	1.68088E-001	9.60796E-001	3.57870E+000	9	...........
	74	1	9.61786E-001	2.80193E-004	0.00000E+000	2.69485E-004	1.68088E-001	9.62176E-001	3.57870E+000	9	...........
	75	1.01333	9.63139E-001	2.82146E-004	0.00000E+000	2.71746E-004	1.68088E-001	9.63531E-001	3.57870E+000	9	...........
	76	1.02667	9.64445E-001	2.80636E-004	0.00000E+000	2.70658E-004	1.68088E-001	9.64838E-001	3.57870E+000	9	...........
	77	1.04	9.65740E-001	2.81217E-004	0.00000E+000	2.71582E-004	1.68088E-001	9.66128E-001	3.57870E+000	9	...........
	78	1.05333	9.67004E-001	2.81391E-004	0.00000E+000	2.72106E-004	1.68088E-001	9.67394E-001	3.57870E+000	9	...........
	79	1.06667	9.68238E-001	2.80699E-004	0.00000E+000	2.71784E-004	1.68088E-001	9.68623E-001	3.57870E+000	9	...........
	80	1.08	9.69482E-001	2.80749E-004	0.00000E+000	2.72181E-004	1.68088E-001	9.69886E-001	3.57870E+000	9	...........
	81	1.09333	9.70730E-001	2.80357E-004	0.00000E+000	2.72151E-004	1.68088E-001	9.71176E-001	3.57870E+000	9	...........
	82	1.10667	9.71992E-001	2.81663E-004	0.00000E+000	2.73774E-004	1.68088E-001	9.72411E-001	3.57870E+000	9	...........
	83	1.12	9.73249E-001	2.80508E-004	0.00000E+000	2.73004E-004	1.68088E-001	9.73626E-001	3.57870E+000	9	...........
	84	1.13333	9.74427E-001	2.81020E-004	0.00000E+000	2.73833E-004	1.68088E-001	9.74800E-001	3.57870E+000	9	...........
	85	1.14667	9.75598E-001	2.80928E-004	0.00000E+000	2.74073E-004	1.68088E-001	9.75989E-001	3.57870E+000	9	...........
	86	1.16	9.76749E-001	2.80925E-004	0.00000E+000	2.74393E-004	1.68088E-001	9.77143E-001	3.57870E+000	9	...........
	87	1.17333	9.77890E-001	2.80424E-004	0.00000E+000	2.74224E-004	1.68088E-001	9.78290E-001	3.57870E+000	9	...........
	88	1.18667	9.79042E-001	2.80448E-004	0.00000E+000	2.74570E-004	1.68088E-001	9.79444E-001	3.57870E+000	9	...........
	89	1.2	9.80207E-001	2.81738E-004	0.00000E+000	2.76162E-004	1.68088E-001	9.80583E-001	3.57870E+000	9	...........
	90	1.21333	9.81350E-001	2.81110E-004	0.00000E+000	2.75867E-004	1.68088E-001	9.81719E-001	3.57870E+000	9	...........
	91	1.22667	9.82523E-001	2.81632E-004	0.00000E+000	2.76710E-004	1.68088E-001	9.82886E-001	3.57870E+000	9	...........
	92	1.24	9.83622E-001	2.80909E-004	0.00000E+000	2.76308E-004	1.68088E-001	9.84026E-001	3.57870E+000	9	...........
	93	1.25333	9.84697E-001	2.81231E-004	0.00000E+000	2.76928E-004	1.68088E-001	9.85111E-001	3.57870E+000	9	...........
	94	1.26667	9.85783E-001	2.80847E-004	0.00000E+000	2.76854E-004	1.68088E-001	9.86202E-001	3.57870E+000	9	...........
	95	1.28	9.86882E-001	2.80802E-004	0.00000E+000	2.77119E-004	1.68088E-001	9.87294E-001	3.57870E+000	9	...........
	96	1.29333	9.87965E-001	2.80810E-004	0.00000E+000	2.77430E-004	1.68088E-001	9.88342E-001	3.57870E+000	9	...........
	97	1.30667	9.89023E-001	2.81926E-004	0.00000E+000	2.78832E-004	1.68088E-001	9.89424E-001	3.57870E+000	9	...........
	98	1.32	9.90109E-001	2.81570E-004	0.00000E+000	2.78785E-004	1.68088E-001	9.90487E-001	3.57870E+000	9	...........
	99	1.33333	9.91133E-001	2.80835E-004	0.00000E+000	2.78344E-004	1.68088E-001	9.91520E-001	3.57870E+000	9	...........
	100	1.34667	9.92152E-001	2.81364E-004	0.00000E+000	2.79156E-004	1.68088E-001	9.92535E-001	3.57870E+000	9	...........
	101	1.36	9.93151E-001	2.81534E-004	0.00000E+000	2.79605E-004	1.68088E-001	9.93554E-001	3.57870E+000	9	...........
	102	1.37333	9.94145E-001	2.80697E-004	0.00000E+000	2.79054E-004	1.68088E-001	9.94542E-001	3.57863E+000	9	...........
	103	1.38667	9.95170E-001	2.81785E-004	0.00000E+000	2.80424E-004	1.68088E-001	9.95541E-001	3.57840E+000	9	...........
	104	1.4	9.96131E-001	2.81049E-004	0.00000E+000	2.79962E-004	1.68088E-001	9.96521E-001	3.57840E+000	9	...........
	105	1.41333	9.97104E-001	2.81152E-004	0.00000E+000	2.80338E-004	1.68088E-001	9.97514E-001	3.57840E+000	9	...........
	106	1.42667	9.98103E-001	2.80284E-004	0.00000E+000	2.79753E-004	1.68088E-001	9.98472E-001	3.57840E+000	9	...........
	107	1.44	9.99022E-001	2.80341E-004	0.00000E+000	2.80066E-004	1.68088E-001	9.99404E-001	3.57840E+000	9	...........
	108	1.45	9.99819E-001	2.80755E-004	0.00000E+000	2.80704E-004	1.68088E-001	1.00021E+000	3.57840E+000	9	...........
STARTTIMEOFFSET	QUANT	616.1167	Start Time Offset (s)
