EXPLAIN
TAG	PWR800_CHARGE
TITLE	LABEL	PWR Cyclic Charge Discharge (Cell) - Charge Step	Test &Identifier
DATE	LABEL	7-7-2017	Date
TIME	LABEL	16:23:19	Time
NOTES	NOTES	3	&Notes...
	supercap test cell
	2.8mg
	6M KOH
PSTAT	PSTAT	IFC5000-01520	Potentiostat
CAPACITY	QUANT	1.00000E-003	Capacity (A-hr)
CELLTYPE	SELECTOR	1	&Cell Type
WORKINGCONNECTION	SELECTOR	0	&Working Lead
MAXCHARGETIME	VARIABLEANDUNITS	1.00000E+002	s	1.00000E+002	second(s)	Max &Charge Time
CHARGECURRENT	QUANT	2.80000E-004	&Charge Current (A) 
VOLTAGEFINISH	TWOPARAM	F	1.00000E-003	3.60000E+003	&Voltage Finish	 I (A) < 	Max Time(s)
SAMPLETIME	QUANT	1.00000E-002	Sa&mple Period (s)
CHARGESTOPAT1	MULTIPARAM	4	1.00000E+000	Charge Stop At &1	Voltage > Limit	V
CHARGESTOPAT2	MULTIPARAM	0	0.00000E+000	Charge Stop At &2	None	N/A
AESBHCSELECTOR	TOGGLE	F	Save Both Half Cells
IRCOMP	TOGGLE	F	IR &Measure
EOC	QUANT	0	Open Circuit (V)
SEQUENCER	TOGGLE	TRUE	Run as Sequence
PSTATMODEL	IQUANT	53	Pstat Model
PSTATSECTION	LABEL	IFC5000-01520	Pstat Section
PSTATSERIALNO	LABEL	01520	Pstat Serial Number
CTRLMODE	IQUANT	0	Control Mode
ELECTROMETER	IQUANT	1	RE=0 or CS=1
IESTAB	IQUANT	0	I/E Stability
CASPEED	IQUANT	4	Control Amp Speed
CONVENTION	IQUANT	1	Current Convention
ICHRANGE	IQUANT	2	Ich Range
ICHRANGEMODE	TOGGLE	T	Ich Auto Range
ICHOFFSETENABLE	TOGGLE	F	Ich Offset Enable
ICHOFFSET	QUANT	0	Ich Offset (V)
ICHFILTER	IQUANT	1	Ich Filter
VCHRANGE	IQUANT	2	Vch Range
VCHRANGEMODE	TOGGLE	T	Vch Auto Range
VCHOFFSETENABLE	TOGGLE	F	Vch Offset Enable
VCHOFFSET	QUANT	0	Vch Offset (V)
VCHFILTER	IQUANT	1	Vch Filter
IERANGELOWERLIMIT	IQUANT	9	I/E Range Lower Limit
IERANGEMODE	TOGGLE	F	I/E AutoRange
IERANGE	IQUANT	9	I/E Range
ACHSELECT	IQUANT	1	Ach Select
ACHRANGE	IQUANT	2	Ach Range
ACHOFFSETENABLE	TOGGLE	F	Ach Offset Enable
ACHOFFSET	QUANT	0	Ach Offset (V)
ACHFILTER	IQUANT	1	Ach Filter
CABLEID	IQUANT	14	Cable ID
DCCALDATE	LABEL	5-7-2017	DC Calibration Date
ACCALDATE	LABEL	12/3/2015	AC Calibration Date
FRAMEWORKVERSION	QUANT	7.01	Framework Version
INSTRUMENTVERSION	LABEL	4.00	Instrument Version
CURVE	TABLE	58
	Pt	T	Vf	Im	Vu	Pwr	Sig	Ach	Temp	IERange	Over
	#	s	V	A	V	W	V	V	deg C	#	bits
	0	0.013333	6.14151E-001	2.80504E-004	0.00000E+000	1.72272E-004	1.68088E-001	6.14407E-001	3.57770E+000	9	...........
	1	0.026667	6.44482E-001	2.81602E-004	0.00000E+000	1.81488E-004	1.68088E-001	6.44751E-001	3.57770E+000	9	...........
	2	0.04	6.70623E-001	2.80422E-004	0.00000E+000	1.88057E-004	1.68088E-001	6.70875E-001	3.57770E+000	9	...........
	3	0.053333	6.93649E-001	2.81363E-004	0.00000E+000	1.95167E-004	1.68088E-001	6.93915E-001	3.57770E+000	9	...........
	4	0.066667	7.14255E-001	2.81304E-004	0.00000E+000	2.00923E-004	1.68088E-001	7.14510E-001	3.57770E+000	9	...........
	5	0.08	7.32906E-001	2.81678E-004	0.00000E+000	2.06444E-004	1.68088E-001	7.33148E-001	3.57770E+000	9	...........
	6	0.093333	7.49856E-001	2.80023E-004	0.00000E+000	2.09977E-004	1.68088E-001	7.50126E-001	3.57807E+000	9	...........
	7	0.106667	7.65397E-001	2.80597E-004	0.00000E+000	2.14768E-004	1.68088E-001	7.65662E-001	3.57820E+000	9	...........
	8	0.12	7.79702E-001	2.80502E-004	0.00000E+000	2.18708E-004	1.68088E-001	7.79985E-001	3.57820E+000	9	...........
	9	0.133333	7.92891E-001	2.81461E-004	0.00000E+000	2.23168E-004	1.68088E-001	7.93176E-001	3.57820E+000	9	...........
	10	0.146667	8.05158E-001	2.82288E-004	0.00000E+000	2.27286E-004	1.68088E-001	8.05425E-001	3.57820E+000	9	...........
	11	0.16	8.16472E-001	2.79979E-004	0.00000E+000	2.28595E-004	1.68088E-001	8.16770E-001	3.57820E+000	9	...........
	12	0.173333	8.26993E-001	2.80173E-004	0.00000E+000	2.31701E-004	1.68088E-001	8.27296E-001	3.57820E+000	9	...........
	13	0.186667	8.36793E-001	2.81168E-004	0.00000E+000	2.35279E-004	1.68088E-001	8.37138E-001	3.57820E+000	9	...........
	14	0.2	8.46003E-001	2.79462E-004	0.00000E+000	2.36426E-004	1.68088E-001	8.46327E-001	3.57820E+000	9	...........
	15	0.213333	8.54585E-001	2.80153E-004	0.00000E+000	2.39415E-004	1.68088E-001	8.54921E-001	3.57820E+000	9	...........
	16	0.226667	8.62619E-001	2.79929E-004	0.00000E+000	2.41472E-004	1.68088E-001	8.62988E-001	3.57820E+000	9	...........
	17	0.24	8.70168E-001	2.81777E-004	0.00000E+000	2.45194E-004	1.68088E-001	8.70538E-001	3.57820E+000	9	...........
	18	0.253333	8.77262E-001	2.81440E-004	0.00000E+000	2.46896E-004	1.68088E-001	8.77614E-001	3.57820E+000	9	...........
	19	0.266667	8.83933E-001	2.80954E-004	0.00000E+000	2.48345E-004	1.68088E-001	8.84237E-001	3.57820E+000	9	...........
	20	0.28	8.90163E-001	2.80715E-004	0.00000E+000	2.49882E-004	1.68088E-001	8.90492E-001	3.57820E+000	9	...........
	21	0.293333	8.96038E-001	2.81247E-004	0.00000E+000	2.52008E-004	1.68088E-001	8.96360E-001	3.57820E+000	9	...........
	22	0.306667	9.01585E-001	2.81527E-004	0.00000E+000	2.53821E-004	1.68088E-001	9.01918E-001	3.57820E+000	9	...........
	23	0.32	9.06833E-001	2.81440E-004	0.00000E+000	2.55219E-004	1.68088E-001	9.07157E-001	3.57820E+000	9	...........
	24	0.333333	9.11797E-001	2.81440E-004	0.00000E+000	2.56616E-004	1.68088E-001	9.12140E-001	3.57820E+000	9	...........
	25	0.346667	9.16509E-001	2.80189E-004	0.00000E+000	2.56795E-004	1.68088E-001	9.16880E-001	3.57820E+000	9	...........
	26	0.36	9.21066E-001	2.81506E-004	0.00000E+000	2.59285E-004	1.68088E-001	9.21390E-001	3.57820E+000	9	...........
	27	0.373333	9.25311E-001	2.81552E-004	0.00000E+000	2.60523E-004	1.68088E-001	9.25630E-001	3.57820E+000	9	...........
	28	0.386667	9.29391E-001	2.81616E-004	0.00000E+000	2.61731E-004	1.68088E-001	9.29713E-001	3.57820E+000	9	...........
	29	0.4	9.33244E-001	2.81501E-004	0.00000E+000	2.62709E-004	1.68088E-001	9.33593E-001	3.57820E+000	9	...........
	30	0.413333	9.36958E-001	2.80992E-004	0.00000E+000	2.63277E-004	1.68088E-001	9.37308E-001	3.57820E+000	9	...........
	31	0.426667	9.40523E-001	2.80479E-004	0.00000E+000	2.63797E-004	1.68088E-001	9.40856E-001	3.57820E+000	9	...........
	32	0.44	9.43912E-001	2.82210E-004	0.00000E+000	2.66381E-004	1.68088E-001	9.44238E-001	3.57820E+000	9	...........
	33	0.453333	9.47213E-001	2.83286E-004	0.00000E+000	2.68332E-004	1.68088E-001	9.47546E-001	3.57820E+000	9	...........
	34	0.466667	9.50354E-001	2.80240E-004	0.00000E+000	2.66327E-004	1.68088E-001	9.50693E-001	3.57820E+000	9	...........
	35	0.48	9.53315E-001	2.81096E-004	0.00000E+000	2.67973E-004	1.68088E-001	9.53658E-001	3.57820E+000	9	...........
	36	0.493333	9.56244E-001	2.80648E-004	0.00000E+000	2.68368E-004	1.68088E-001	9.56573E-001	3.57820E+000	9	...........
	37	0.506667	9.59050E-001	2.80129E-004	0.00000E+000	2.68658E-004	1.68088E-001	9.59403E-001	3.57820E+000	9	...........
	38	0.52	9.61747E-001	2.81273E-004	0.00000E+000	2.70514E-004	1.68088E-001	9.62113E-001	3.57820E+000	9	...........
	39	0.533333	9.64317E-001	2.81199E-004	0.00000E+000	2.71165E-004	1.68088E-001	9.64696E-001	3.57820E+000	9	...........
	40	0.546667	9.66821E-001	2.82546E-004	0.00000E+000	2.73172E-004	1.68088E-001	9.67218E-001	3.57820E+000	9	...........
	41	0.56	9.69265E-001	2.79737E-004	0.00000E+000	2.71140E-004	1.68088E-001	9.69605E-001	3.57820E+000	9	...........
	42	0.573333	9.71611E-001	2.81881E-004	0.00000E+000	2.73878E-004	1.68088E-001	9.71995E-001	3.57820E+000	9	...........
	43	0.586667	9.73911E-001	2.81427E-004	0.00000E+000	2.74085E-004	1.68088E-001	9.74285E-001	3.57820E+000	9	...........
	44	0.6	9.76143E-001	2.81091E-004	0.00000E+000	2.74385E-004	1.68088E-001	9.76498E-001	3.57820E+000	9	...........
	45	0.613333	9.78297E-001	2.81138E-004	0.00000E+000	2.75036E-004	1.68088E-001	9.78643E-001	3.57820E+000	9	...........
	46	0.626667	9.80390E-001	2.81475E-004	0.00000E+000	2.75956E-004	1.68088E-001	9.80767E-001	3.57820E+000	9	...........
	47	0.64	9.82408E-001	2.81307E-004	0.00000E+000	2.76358E-004	1.68088E-001	9.82792E-001	3.57820E+000	9	...........
	48	0.653333	9.84384E-001	2.81373E-004	0.00000E+000	2.76979E-004	1.68088E-001	9.84755E-001	3.57820E+000	9	...........
	49	0.666667	9.86316E-001	2.80946E-004	0.00000E+000	2.77102E-004	1.68088E-001	9.86697E-001	3.57820E+000	9	...........
	50	0.68	9.88228E-001	2.81651E-004	0.00000E+000	2.78336E-004	1.68088E-001	9.88581E-001	3.57820E+000	9	...........
	51	0.693333	9.90087E-001	2.81745E-004	0.00000E+000	2.78952E-004	1.68088E-001	9.90414E-001	3.57820E+000	9	...........
	52	0.706667	9.91877E-001	2.81620E-004	0.00000E+000	2.79332E-004	1.68088E-001	9.92241E-001	3.57820E+000	9	...........
	53	0.72	9.93635E-001	2.80139E-004	0.00000E+000	2.78355E-004	1.68088E-001	9.94007E-001	3.57820E+000	9	...........
	54	0.733333	9.95332E-001	2.79516E-004	0.00000E+000	2.78211E-004	1.68088E-001	9.95674E-001	3.57820E+000	9	...........
	55	0.746667	9.97017E-001	2.81717E-004	0.00000E+000	2.80877E-004	1.68088E-001	9.97372E-001	3.57820E+000	9	...........
	56	0.76	9.98668E-001	2.80675E-004	0.00000E+000	2.80301E-004	1.68088E-001	9.99032E-001	3.57820E+000	9	...........
	57	0.766667	9.99873E-001	2.79579E-004	0.00000E+000	2.79544E-004	1.68088E-001	1.00022E+000	3.57820E+000	9	...........
STARTTIMEOFFSET	QUANT	2050.516	Start Time Offset (s)
