EXPLAIN
TAG	PWR800_CHARGE
TITLE	LABEL	PWR Cyclic Charge Discharge (Cell) - Charge Step	Test &Identifier
DATE	LABEL	7-7-2017	Date
TIME	LABEL	16:17:48	Time
NOTES	NOTES	3	&Notes...
	supercap test cell
	2.8mg
	6M KOH
PSTAT	PSTAT	IFC5000-01520	Potentiostat
CAPACITY	QUANT	1.00000E-003	Capacity (A-hr)
CELLTYPE	SELECTOR	1	&Cell Type
WORKINGCONNECTION	SELECTOR	0	&Working Lead
MAXCHARGETIME	VARIABLEANDUNITS	1.00000E+002	s	1.00000E+002	second(s)	Max &Charge Time
CHARGECURRENT	QUANT	2.80000E-004	&Charge Current (A) 
VOLTAGEFINISH	TWOPARAM	F	1.00000E-003	3.60000E+003	&Voltage Finish	 I (A) < 	Max Time(s)
SAMPLETIME	QUANT	1.00000E-002	Sa&mple Period (s)
CHARGESTOPAT1	MULTIPARAM	4	1.00000E+000	Charge Stop At &1	Voltage > Limit	V
CHARGESTOPAT2	MULTIPARAM	0	0.00000E+000	Charge Stop At &2	None	N/A
AESBHCSELECTOR	TOGGLE	F	Save Both Half Cells
IRCOMP	TOGGLE	F	IR &Measure
EOC	QUANT	0	Open Circuit (V)
SEQUENCER	TOGGLE	TRUE	Run as Sequence
PSTATMODEL	IQUANT	53	Pstat Model
PSTATSECTION	LABEL	IFC5000-01520	Pstat Section
PSTATSERIALNO	LABEL	01520	Pstat Serial Number
CTRLMODE	IQUANT	0	Control Mode
ELECTROMETER	IQUANT	1	RE=0 or CS=1
IESTAB	IQUANT	0	I/E Stability
CASPEED	IQUANT	4	Control Amp Speed
CONVENTION	IQUANT	1	Current Convention
ICHRANGE	IQUANT	2	Ich Range
ICHRANGEMODE	TOGGLE	T	Ich Auto Range
ICHOFFSETENABLE	TOGGLE	F	Ich Offset Enable
ICHOFFSET	QUANT	0	Ich Offset (V)
ICHFILTER	IQUANT	1	Ich Filter
VCHRANGE	IQUANT	2	Vch Range
VCHRANGEMODE	TOGGLE	T	Vch Auto Range
VCHOFFSETENABLE	TOGGLE	F	Vch Offset Enable
VCHOFFSET	QUANT	0	Vch Offset (V)
VCHFILTER	IQUANT	1	Vch Filter
IERANGELOWERLIMIT	IQUANT	9	I/E Range Lower Limit
IERANGEMODE	TOGGLE	F	I/E AutoRange
IERANGE	IQUANT	9	I/E Range
ACHSELECT	IQUANT	1	Ach Select
ACHRANGE	IQUANT	2	Ach Range
ACHOFFSETENABLE	TOGGLE	F	Ach Offset Enable
ACHOFFSET	QUANT	0	Ach Offset (V)
ACHFILTER	IQUANT	1	Ach Filter
CABLEID	IQUANT	14	Cable ID
DCCALDATE	LABEL	5-7-2017	DC Calibration Date
ACCALDATE	LABEL	12/3/2015	AC Calibration Date
FRAMEWORKVERSION	QUANT	7.01	Framework Version
INSTRUMENTVERSION	LABEL	4.00	Instrument Version
CURVE	TABLE	61
	Pt	T	Vf	Im	Vu	Pwr	Sig	Ach	Temp	IERange	Over
	#	s	V	A	V	W	V	V	deg C	#	bits
	0	0.013333	6.07326E-001	2.80676E-004	0.00000E+000	1.70462E-004	1.68088E-001	6.07603E-001	3.57870E+000	9	...........
	1	0.026667	6.37821E-001	2.80284E-004	0.00000E+000	1.78771E-004	1.68088E-001	6.38088E-001	3.57870E+000	9	...........
	2	0.04	6.64053E-001	2.79943E-004	0.00000E+000	1.85897E-004	1.68088E-001	6.64324E-001	3.57870E+000	9	...........
	3	0.053333	6.87143E-001	2.79826E-004	0.00000E+000	1.92280E-004	1.68088E-001	6.87402E-001	3.57870E+000	9	...........
	4	0.066667	7.07793E-001	2.81571E-004	0.00000E+000	1.99294E-004	1.68088E-001	7.08059E-001	3.57870E+000	9	...........
	5	0.08	7.26442E-001	2.81668E-004	0.00000E+000	2.04616E-004	1.68088E-001	7.26708E-001	3.57870E+000	9	...........
	6	0.093333	7.43410E-001	2.81707E-004	0.00000E+000	2.09423E-004	1.68088E-001	7.43674E-001	3.57870E+000	9	...........
	7	0.106667	7.58922E-001	2.81066E-004	0.00000E+000	2.13307E-004	1.68088E-001	7.59216E-001	3.57870E+000	9	...........
	8	0.12	7.73232E-001	2.81734E-004	0.00000E+000	2.17846E-004	1.68088E-001	7.73520E-001	3.57870E+000	9	...........
	9	0.133333	7.86390E-001	2.80392E-004	0.00000E+000	2.20497E-004	1.68088E-001	7.86687E-001	3.57870E+000	9	...........
	10	0.146667	7.98618E-001	2.81570E-004	0.00000E+000	2.24867E-004	1.68088E-001	7.98911E-001	3.57870E+000	9	...........
	11	0.16	8.09912E-001	2.80741E-004	0.00000E+000	2.27375E-004	1.68088E-001	8.10243E-001	3.57870E+000	9	...........
	12	0.173333	8.20435E-001	2.80751E-004	0.00000E+000	2.30338E-004	1.68088E-001	8.20771E-001	3.57870E+000	9	...........
	13	0.186667	8.30270E-001	2.81365E-004	0.00000E+000	2.33609E-004	1.68088E-001	8.30585E-001	3.57870E+000	9	...........
	14	0.2	8.39457E-001	2.81541E-004	0.00000E+000	2.36341E-004	1.68088E-001	8.39783E-001	3.57870E+000	9	...........
	15	0.213333	8.48091E-001	2.81328E-004	0.00000E+000	2.38592E-004	1.68088E-001	8.48452E-001	3.57870E+000	9	...........
	16	0.226667	8.56095E-001	2.81361E-004	0.00000E+000	2.40872E-004	1.68088E-001	8.56444E-001	3.57870E+000	9	...........
	17	0.24	8.63653E-001	2.82372E-004	0.00000E+000	2.43872E-004	1.68088E-001	8.63979E-001	3.57870E+000	9	...........
	18	0.253333	8.70771E-001	2.82478E-004	0.00000E+000	2.45973E-004	1.68088E-001	8.71122E-001	3.57870E+000	9	...........
	19	0.266667	8.77449E-001	2.81028E-004	0.00000E+000	2.46588E-004	1.68088E-001	8.77774E-001	3.57870E+000	9	...........
	20	0.28	8.83732E-001	2.82203E-004	0.00000E+000	2.49391E-004	1.68088E-001	8.84069E-001	3.57870E+000	9	...........
	21	0.293333	8.89673E-001	2.79802E-004	0.00000E+000	2.48932E-004	1.68088E-001	8.90006E-001	3.57870E+000	9	...........
	22	0.306667	8.95244E-001	2.80635E-004	0.00000E+000	2.51236E-004	1.68088E-001	8.95597E-001	3.57870E+000	9	...........
	23	0.32	9.00537E-001	2.81594E-004	0.00000E+000	2.53586E-004	1.68088E-001	9.00890E-001	3.57870E+000	9	...........
	24	0.333333	9.05557E-001	2.81347E-004	0.00000E+000	2.54776E-004	1.68088E-001	9.05923E-001	3.57870E+000	9	...........
	25	0.346667	9.10347E-001	2.81302E-004	0.00000E+000	2.56083E-004	1.68088E-001	9.10673E-001	3.57870E+000	9	...........
	26	0.36	9.14878E-001	2.81561E-004	0.00000E+000	2.57594E-004	1.68088E-001	9.15222E-001	3.57870E+000	9	...........
	27	0.373333	9.19215E-001	2.81708E-004	0.00000E+000	2.58950E-004	1.68088E-001	9.19540E-001	3.57870E+000	9	...........
	28	0.386667	9.23375E-001	2.81394E-004	0.00000E+000	2.59832E-004	1.68088E-001	9.23667E-001	3.57870E+000	9	...........
	29	0.4	9.27319E-001	2.81619E-004	0.00000E+000	2.61151E-004	1.68088E-001	9.27599E-001	3.57870E+000	9	...........
	30	0.413333	9.31047E-001	2.80606E-004	0.00000E+000	2.61258E-004	1.68088E-001	9.31344E-001	3.57870E+000	9	...........
	31	0.426667	9.34636E-001	2.82956E-004	0.00000E+000	2.64461E-004	1.68088E-001	9.34939E-001	3.57870E+000	9	...........
	32	0.44	9.38046E-001	2.81635E-004	0.00000E+000	2.64186E-004	1.68088E-001	9.38351E-001	3.57870E+000	9	...........
	33	0.453333	9.41348E-001	2.80228E-004	0.00000E+000	2.63792E-004	1.68088E-001	9.41630E-001	3.57870E+000	9	...........
	34	0.466667	9.44464E-001	2.80949E-004	0.00000E+000	2.65346E-004	1.68088E-001	9.44766E-001	3.57870E+000	9	...........
	35	0.48	9.47514E-001	2.82444E-004	0.00000E+000	2.67620E-004	1.68088E-001	9.47805E-001	3.57870E+000	9	...........
	36	0.493333	9.50426E-001	2.82309E-004	0.00000E+000	2.68314E-004	1.68088E-001	9.50731E-001	3.57870E+000	9	...........
	37	0.506667	9.53230E-001	2.82116E-004	0.00000E+000	2.68921E-004	1.68088E-001	9.53521E-001	3.57870E+000	9	...........
	38	0.52	9.55946E-001	2.80729E-004	0.00000E+000	2.68362E-004	1.68088E-001	9.56241E-001	3.57870E+000	9	...........
	39	0.533333	9.58586E-001	2.81509E-004	0.00000E+000	2.69850E-004	1.68088E-001	9.58889E-001	3.57870E+000	9	...........
	40	0.546667	9.61125E-001	2.82829E-004	0.00000E+000	2.71834E-004	1.68088E-001	9.61458E-001	3.57870E+000	9	...........
	41	0.56	9.63544E-001	2.80956E-004	0.00000E+000	2.70714E-004	1.68088E-001	9.63894E-001	3.57870E+000	9	...........
	42	0.573333	9.65887E-001	2.81296E-004	0.00000E+000	2.71700E-004	1.68088E-001	9.66244E-001	3.57870E+000	9	...........
	43	0.586667	9.68197E-001	2.81532E-004	0.00000E+000	2.72578E-004	1.68088E-001	9.68553E-001	3.57870E+000	9	...........
	44	0.6	9.70424E-001	2.81672E-004	0.00000E+000	2.73341E-004	1.68088E-001	9.70800E-001	3.57870E+000	9	...........
	45	0.613333	9.72628E-001	2.80906E-004	0.00000E+000	2.73218E-004	1.68088E-001	9.72989E-001	3.57870E+000	9	...........
	46	0.626667	9.74784E-001	2.80892E-004	0.00000E+000	2.73809E-004	1.68088E-001	9.75112E-001	3.57870E+000	9	...........
	47	0.64	9.76861E-001	2.81275E-004	0.00000E+000	2.74767E-004	1.68088E-001	9.77200E-001	3.57870E+000	9	...........
	48	0.653333	9.78889E-001	2.81275E-004	0.00000E+000	2.75337E-004	1.68088E-001	9.79231E-001	3.57870E+000	9	...........
	49	0.666667	9.80849E-001	2.81259E-004	0.00000E+000	2.75872E-004	1.68088E-001	9.81204E-001	3.57870E+000	9	...........
	50	0.68	9.82775E-001	2.82635E-004	0.00000E+000	2.77766E-004	1.68088E-001	9.83141E-001	3.57870E+000	9	...........
	51	0.693333	9.84633E-001	2.80971E-004	0.00000E+000	2.76653E-004	1.68088E-001	9.85007E-001	3.57870E+000	9	...........
	52	0.706667	9.86481E-001	2.80838E-004	0.00000E+000	2.77041E-004	1.68088E-001	9.86850E-001	3.57870E+000	9	...........
	53	0.72	9.88240E-001	2.80115E-004	0.00000E+000	2.76821E-004	1.68088E-001	9.88614E-001	3.57870E+000	9	...........
	54	0.733333	9.90009E-001	2.81697E-004	0.00000E+000	2.78883E-004	1.68088E-001	9.90379E-001	3.57870E+000	9	...........
	55	0.746667	9.91684E-001	2.81863E-004	0.00000E+000	2.79519E-004	1.68088E-001	9.92041E-001	3.57870E+000	9	...........
	56	0.76	9.93322E-001	2.79977E-004	0.00000E+000	2.78107E-004	1.68088E-001	9.93690E-001	3.57870E+000	9	...........
	57	0.773333	9.94985E-001	2.80757E-004	0.00000E+000	2.79350E-004	1.68088E-001	9.95330E-001	3.57870E+000	9	...........
	58	0.786667	9.96597E-001	2.80917E-004	0.00000E+000	2.79961E-004	1.68088E-001	9.96957E-001	3.57870E+000	9	...........
	59	0.8	9.98198E-001	2.80489E-004	0.00000E+000	2.79983E-004	1.68088E-001	9.98575E-001	3.57870E+000	9	...........
	60	0.81	9.99556E-001	2.81248E-004	0.00000E+000	2.81123E-004	1.68088E-001	9.99941E-001	3.57870E+000	9	...........
STARTTIMEOFFSET	QUANT	1836.236	Start Time Offset (s)
