EXPLAIN
TAG	PWR800_CHARGE
TITLE	LABEL	PWR Cyclic Charge Discharge (Cell) - Charge Step	Test &Identifier
DATE	LABEL	7-7-2017	Date
TIME	LABEL	15:44:38	Time
NOTES	NOTES	3	&Notes...
	supercap test cell
	2.8mg
	6M KOH
PSTAT	PSTAT	IFC5000-01520	Potentiostat
CAPACITY	QUANT	1.00000E-003	Capacity (A-hr)
CELLTYPE	SELECTOR	1	&Cell Type
WORKINGCONNECTION	SELECTOR	0	&Working Lead
MAXCHARGETIME	VARIABLEANDUNITS	1.00000E+002	s	1.00000E+002	second(s)	Max &Charge Time
CHARGECURRENT	QUANT	2.80000E-004	&Charge Current (A) 
VOLTAGEFINISH	TWOPARAM	F	1.00000E-003	3.60000E+003	&Voltage Finish	 I (A) < 	Max Time(s)
SAMPLETIME	QUANT	1.00000E-002	Sa&mple Period (s)
CHARGESTOPAT1	MULTIPARAM	4	1.00000E+000	Charge Stop At &1	Voltage > Limit	V
CHARGESTOPAT2	MULTIPARAM	0	0.00000E+000	Charge Stop At &2	None	N/A
AESBHCSELECTOR	TOGGLE	F	Save Both Half Cells
IRCOMP	TOGGLE	F	IR &Measure
EOC	QUANT	0	Open Circuit (V)
SEQUENCER	TOGGLE	TRUE	Run as Sequence
PSTATMODEL	IQUANT	53	Pstat Model
PSTATSECTION	LABEL	IFC5000-01520	Pstat Section
PSTATSERIALNO	LABEL	01520	Pstat Serial Number
CTRLMODE	IQUANT	0	Control Mode
ELECTROMETER	IQUANT	1	RE=0 or CS=1
IESTAB	IQUANT	0	I/E Stability
CASPEED	IQUANT	4	Control Amp Speed
CONVENTION	IQUANT	1	Current Convention
ICHRANGE	IQUANT	2	Ich Range
ICHRANGEMODE	TOGGLE	T	Ich Auto Range
ICHOFFSETENABLE	TOGGLE	F	Ich Offset Enable
ICHOFFSET	QUANT	0	Ich Offset (V)
ICHFILTER	IQUANT	1	Ich Filter
VCHRANGE	IQUANT	2	Vch Range
VCHRANGEMODE	TOGGLE	T	Vch Auto Range
VCHOFFSETENABLE	TOGGLE	F	Vch Offset Enable
VCHOFFSET	QUANT	0	Vch Offset (V)
VCHFILTER	IQUANT	1	Vch Filter
IERANGELOWERLIMIT	IQUANT	9	I/E Range Lower Limit
IERANGEMODE	TOGGLE	F	I/E AutoRange
IERANGE	IQUANT	9	I/E Range
ACHSELECT	IQUANT	1	Ach Select
ACHRANGE	IQUANT	2	Ach Range
ACHOFFSETENABLE	TOGGLE	F	Ach Offset Enable
ACHOFFSET	QUANT	0	Ach Offset (V)
ACHFILTER	IQUANT	1	Ach Filter
CABLEID	IQUANT	14	Cable ID
DCCALDATE	LABEL	5-7-2017	DC Calibration Date
ACCALDATE	LABEL	12/3/2015	AC Calibration Date
FRAMEWORKVERSION	QUANT	7.01	Framework Version
INSTRUMENTVERSION	LABEL	4.00	Instrument Version
CURVE	TABLE	127
	Pt	T	Vf	Im	Vu	Pwr	Sig	Ach	Temp	IERange	Over
	#	s	V	A	V	W	V	V	deg C	#	bits
	0	0.013333	5.74189E-001	2.80564E-004	0.00000E+000	1.61096E-004	1.68088E-001	5.74452E-001	3.57840E+000	9	...........
	1	0.026667	6.02622E-001	2.81420E-004	0.00000E+000	1.69590E-004	1.68088E-001	6.02904E-001	3.57840E+000	9	...........
	2	0.04	6.26450E-001	2.80056E-004	0.00000E+000	1.75441E-004	1.68088E-001	6.26723E-001	3.57840E+000	9	...........
	3	0.053333	6.46954E-001	2.81019E-004	0.00000E+000	1.81806E-004	1.68088E-001	6.47248E-001	3.57840E+000	9	...........
	4	0.066667	6.64947E-001	2.81669E-004	0.00000E+000	1.87295E-004	1.68088E-001	6.65235E-001	3.57840E+000	9	...........
	5	0.08	6.80907E-001	2.80729E-004	0.00000E+000	1.91150E-004	1.68088E-001	6.81198E-001	3.57840E+000	9	...........
	6	0.093333	6.95260E-001	2.80580E-004	0.00000E+000	1.95076E-004	1.68088E-001	6.95528E-001	3.57840E+000	9	...........
	7	0.106667	7.08217E-001	2.81816E-004	0.00000E+000	1.99587E-004	1.68088E-001	7.08480E-001	3.57840E+000	9	...........
	8	0.12	7.20083E-001	2.80350E-004	0.00000E+000	2.01875E-004	1.68088E-001	7.20336E-001	3.57840E+000	9	...........
	9	0.133333	7.30937E-001	2.81315E-004	0.00000E+000	2.05623E-004	1.68088E-001	7.31196E-001	3.57840E+000	9	...........
	10	0.146667	7.40978E-001	2.81296E-004	0.00000E+000	2.08434E-004	1.68088E-001	7.41230E-001	3.57840E+000	9	...........
	11	0.16	7.50247E-001	2.81093E-004	0.00000E+000	2.10889E-004	1.68088E-001	7.50480E-001	3.57840E+000	9	...........
	12	0.173333	7.58878E-001	2.81208E-004	0.00000E+000	2.13402E-004	1.68088E-001	7.59137E-001	3.57840E+000	9	...........
	13	0.186667	7.66917E-001	2.80598E-004	0.00000E+000	2.15195E-004	1.68088E-001	7.67174E-001	3.57840E+000	9	...........
	14	0.2	7.74444E-001	2.80704E-004	0.00000E+000	2.17390E-004	1.68088E-001	7.74711E-001	3.57840E+000	9	...........
	15	0.213333	7.81545E-001	2.81296E-004	0.00000E+000	2.19846E-004	1.68088E-001	7.81799E-001	3.57840E+000	9	...........
	16	0.226667	7.88188E-001	2.80604E-004	0.00000E+000	2.21169E-004	1.68088E-001	7.88440E-001	3.57840E+000	9	...........
	17	0.24	7.94463E-001	2.80823E-004	0.00000E+000	2.23103E-004	1.68088E-001	7.94755E-001	3.57840E+000	9	...........
	18	0.253333	8.00372E-001	2.80555E-004	0.00000E+000	2.24549E-004	1.68088E-001	8.00676E-001	3.57840E+000	9	...........
	19	0.266667	8.05997E-001	2.80898E-004	0.00000E+000	2.26403E-004	1.68088E-001	8.06302E-001	3.57840E+000	9	...........
	20	0.28	8.11360E-001	2.80662E-004	0.00000E+000	2.27718E-004	1.68088E-001	8.11651E-001	3.57840E+000	9	...........
	21	0.293333	8.16433E-001	2.79946E-004	0.00000E+000	2.28557E-004	1.68088E-001	8.16737E-001	3.57840E+000	9	...........
	22	0.306667	8.21276E-001	2.80781E-004	0.00000E+000	2.30599E-004	1.68088E-001	8.21568E-001	3.57840E+000	9	...........
	23	0.32	8.25914E-001	2.80840E-004	0.00000E+000	2.31950E-004	1.68088E-001	8.26202E-001	3.57840E+000	9	...........
	24	0.333333	8.30323E-001	2.81298E-004	0.00000E+000	2.33568E-004	1.68088E-001	8.30595E-001	3.57840E+000	9	...........
	25	0.346667	8.34571E-001	2.80173E-004	0.00000E+000	2.33824E-004	1.68088E-001	8.34836E-001	3.57840E+000	9	...........
	26	0.36	8.38594E-001	2.80999E-004	0.00000E+000	2.35644E-004	1.68088E-001	8.38870E-001	3.57840E+000	9	...........
	27	0.373333	8.42502E-001	2.81435E-004	0.00000E+000	2.37109E-004	1.68088E-001	8.42776E-001	3.57840E+000	9	...........
	28	0.386667	8.46263E-001	2.81672E-004	0.00000E+000	2.38369E-004	1.68088E-001	8.46555E-001	3.57840E+000	9	...........
	29	0.4	8.49878E-001	2.80725E-004	0.00000E+000	2.38582E-004	1.68088E-001	8.50197E-001	3.57840E+000	9	...........
	30	0.413333	8.53351E-001	2.80794E-004	0.00000E+000	2.39616E-004	1.68088E-001	8.53673E-001	3.57840E+000	9	...........
	31	0.426667	8.56723E-001	2.82005E-004	0.00000E+000	2.41600E-004	1.68088E-001	8.57051E-001	3.57840E+000	9	...........
	32	0.44	8.59953E-001	2.80769E-004	0.00000E+000	2.41448E-004	1.68088E-001	8.60292E-001	3.57840E+000	9	...........
	33	0.453333	8.63103E-001	2.81124E-004	0.00000E+000	2.42639E-004	1.68088E-001	8.63438E-001	3.57840E+000	9	...........
	34	0.466667	8.66134E-001	2.80511E-004	0.00000E+000	2.42960E-004	1.68088E-001	8.66494E-001	3.57840E+000	9	...........
	35	0.48	8.69123E-001	2.81333E-004	0.00000E+000	2.44512E-004	1.68088E-001	8.69474E-001	3.57840E+000	9	...........
	36	0.493333	8.72004E-001	2.81449E-004	0.00000E+000	2.45425E-004	1.68088E-001	8.72363E-001	3.57840E+000	9	...........
	37	0.506667	8.74758E-001	2.80526E-004	0.00000E+000	2.45393E-004	1.68088E-001	8.75156E-001	3.57840E+000	9	...........
	38	0.52	8.77457E-001	2.81329E-004	0.00000E+000	2.46854E-004	1.68088E-001	8.77831E-001	3.57840E+000	9	...........
	39	0.533333	8.80060E-001	2.80433E-004	0.00000E+000	2.46798E-004	1.68088E-001	8.80437E-001	3.57840E+000	9	...........
	40	0.546667	8.82625E-001	2.81099E-004	0.00000E+000	2.48105E-004	1.68088E-001	8.82983E-001	3.57840E+000	9	...........
	41	0.56	8.85137E-001	2.80584E-004	0.00000E+000	2.48356E-004	1.68088E-001	8.85489E-001	3.57840E+000	9	...........
	42	0.573333	8.87554E-001	2.81591E-004	0.00000E+000	2.49927E-004	1.68088E-001	8.87906E-001	3.57840E+000	9	...........
	43	0.586667	8.89897E-001	2.81797E-004	0.00000E+000	2.50770E-004	1.68088E-001	8.90245E-001	3.57840E+000	9	...........
	44	0.6	8.92166E-001	2.81476E-004	0.00000E+000	2.51124E-004	1.68088E-001	8.92527E-001	3.57840E+000	9	...........
	45	0.613333	8.94407E-001	2.81477E-004	0.00000E+000	2.51755E-004	1.68088E-001	8.94759E-001	3.57840E+000	9	...........
	46	0.626667	8.96633E-001	2.80678E-004	0.00000E+000	2.51665E-004	1.68088E-001	8.96979E-001	3.57840E+000	9	...........
	47	0.64	8.98770E-001	2.81247E-004	0.00000E+000	2.52776E-004	1.68088E-001	8.99105E-001	3.57840E+000	9	...........
	48	0.653333	9.00891E-001	2.80865E-004	0.00000E+000	2.53028E-004	1.68088E-001	9.01227E-001	3.57840E+000	9	...........
	49	0.666667	9.02950E-001	2.80919E-004	0.00000E+000	2.53656E-004	1.68088E-001	9.03300E-001	3.57840E+000	9	...........
	50	0.68	9.04955E-001	2.80765E-004	0.00000E+000	2.54079E-004	1.68088E-001	9.05335E-001	3.57852E+000	9	...........
	51	0.693333	9.06927E-001	2.80363E-004	0.00000E+000	2.54268E-004	1.68088E-001	9.07300E-001	3.57940E+000	9	...........
	52	0.706667	9.08895E-001	2.81092E-004	0.00000E+000	2.55483E-004	1.68088E-001	9.09264E-001	3.57940E+000	9	...........
	53	0.72	9.10816E-001	2.80423E-004	0.00000E+000	2.55414E-004	1.68088E-001	9.11137E-001	3.57940E+000	9	...........
	54	0.733333	9.12674E-001	2.81457E-004	0.00000E+000	2.56878E-004	1.68088E-001	9.12993E-001	3.57940E+000	9	...........
	55	0.746667	9.14501E-001	2.82138E-004	0.00000E+000	2.58015E-004	1.68088E-001	9.14825E-001	3.57940E+000	9	...........
	56	0.76	9.16263E-001	2.80276E-004	0.00000E+000	2.56807E-004	1.68088E-001	9.16608E-001	3.57940E+000	9	...........
	57	0.773333	9.18019E-001	2.80595E-004	0.00000E+000	2.57592E-004	1.68088E-001	9.18379E-001	3.57940E+000	9	...........
	58	0.786667	9.19791E-001	2.81780E-004	0.00000E+000	2.59178E-004	1.68088E-001	9.20127E-001	3.57940E+000	9	...........
	59	0.8	9.21563E-001	2.80882E-004	0.00000E+000	2.58851E-004	1.68088E-001	9.21884E-001	3.57940E+000	9	...........
	60	0.813333	9.23241E-001	2.80643E-004	0.00000E+000	2.59101E-004	1.68088E-001	9.23579E-001	3.57940E+000	9	...........
	61	0.826667	9.24876E-001	2.81096E-004	0.00000E+000	2.59979E-004	1.68088E-001	9.25237E-001	3.57940E+000	9	...........
	62	0.84	9.26475E-001	2.80896E-004	0.00000E+000	2.60243E-004	1.68088E-001	9.26814E-001	3.57940E+000	9	...........
	63	0.853333	9.28073E-001	2.81512E-004	0.00000E+000	2.61263E-004	1.68088E-001	9.28420E-001	3.57940E+000	9	...........
	64	0.866667	9.29668E-001	2.80340E-004	0.00000E+000	2.60623E-004	1.68088E-001	9.30014E-001	3.57940E+000	9	...........
	65	0.88	9.31207E-001	2.81018E-004	0.00000E+000	2.61686E-004	1.68088E-001	9.31548E-001	3.57940E+000	9	...........
	66	0.893333	9.32717E-001	2.81469E-004	0.00000E+000	2.62531E-004	1.68088E-001	9.33073E-001	3.57940E+000	9	...........
	67	0.906667	9.34182E-001	2.80730E-004	0.00000E+000	2.62253E-004	1.68088E-001	9.34545E-001	3.57940E+000	9	...........
	68	0.92	9.35666E-001	2.80056E-004	0.00000E+000	2.62039E-004	1.68088E-001	9.36029E-001	3.57940E+000	9	...........
	69	0.933333	9.37137E-001	2.81488E-004	0.00000E+000	2.63792E-004	1.68088E-001	9.37508E-001	3.57940E+000	9	...........
	70	0.946667	9.38547E-001	2.80930E-004	0.00000E+000	2.63666E-004	1.68088E-001	9.38930E-001	3.57940E+000	9	...........
	71	0.96	9.39980E-001	2.81625E-004	0.00000E+000	2.64722E-004	1.68088E-001	9.40361E-001	3.57940E+000	9	...........
	72	0.97333	9.41416E-001	2.80692E-004	0.00000E+000	2.64248E-004	1.68088E-001	9.41780E-001	3.57940E+000	9	...........
	73	0.98667	9.42830E-001	2.79878E-004	0.00000E+000	2.63877E-004	1.68088E-001	9.43196E-001	3.57940E+000	9	...........
	74	1	9.44187E-001	2.81088E-004	0.00000E+000	2.65399E-004	1.68088E-001	9.44564E-001	3.57940E+000	9	...........
	75	1.01333	9.45546E-001	2.81402E-004	0.00000E+000	2.66079E-004	1.68088E-001	9.45941E-001	3.57940E+000	9	...........
	76	1.02667	9.46920E-001	2.80622E-004	0.00000E+000	2.65727E-004	1.68088E-001	9.47275E-001	3.57940E+000	9	...........
	77	1.04	9.48281E-001	2.80415E-004	0.00000E+000	2.65912E-004	1.68088E-001	9.48640E-001	3.57940E+000	9	...........
	78	1.05333	9.49585E-001	2.81586E-004	0.00000E+000	2.67390E-004	1.68088E-001	9.49951E-001	3.57940E+000	9	...........
	79	1.06667	9.50874E-001	2.80621E-004	0.00000E+000	2.66835E-004	1.68088E-001	9.51234E-001	3.57940E+000	9	...........
	80	1.08	9.52158E-001	2.81618E-004	0.00000E+000	2.68145E-004	1.68088E-001	9.52498E-001	3.57940E+000	9	...........
	81	1.09333	9.53465E-001	2.81086E-004	0.00000E+000	2.68005E-004	1.68088E-001	9.53789E-001	3.57940E+000	9	...........
	82	1.10667	9.54724E-001	2.81073E-004	0.00000E+000	2.68347E-004	1.68088E-001	9.55048E-001	3.57940E+000	9	...........
	83	1.12	9.55925E-001	2.81780E-004	0.00000E+000	2.69360E-004	1.68088E-001	9.56271E-001	3.57940E+000	9	...........
	84	1.13333	9.57150E-001	2.80825E-004	0.00000E+000	2.68792E-004	1.68088E-001	9.57484E-001	3.57940E+000	9	...........
	85	1.14667	9.58367E-001	2.81302E-004	0.00000E+000	2.69591E-004	1.68088E-001	9.58705E-001	3.57940E+000	9	...........
	86	1.16	9.59555E-001	2.81463E-004	0.00000E+000	2.70079E-004	1.68088E-001	9.59921E-001	3.57940E+000	9	...........
	87	1.17333	9.60755E-001	2.81216E-004	0.00000E+000	2.70180E-004	1.68088E-001	9.61119E-001	3.57940E+000	9	...........
	88	1.18667	9.61926E-001	2.81524E-004	0.00000E+000	2.70805E-004	1.68088E-001	9.62308E-001	3.57940E+000	9	...........
	89	1.2	9.63111E-001	2.81565E-004	0.00000E+000	2.71178E-004	1.68088E-001	9.63506E-001	3.57940E+000	9	...........
	90	1.21333	9.64290E-001	2.80356E-004	0.00000E+000	2.70345E-004	1.68088E-001	9.64690E-001	3.57940E+000	9	...........
	91	1.22667	9.65416E-001	2.80766E-004	0.00000E+000	2.71056E-004	1.68088E-001	9.65818E-001	3.57940E+000	9	...........
	92	1.24	9.66607E-001	2.81291E-004	0.00000E+000	2.71898E-004	1.68088E-001	9.67006E-001	3.57940E+000	9	...........
	93	1.25333	9.67705E-001	2.80289E-004	0.00000E+000	2.71237E-004	1.68088E-001	9.68115E-001	3.57940E+000	9	...........
	94	1.26667	9.68807E-001	2.81504E-004	0.00000E+000	2.72723E-004	1.68088E-001	9.69229E-001	3.57940E+000	9	...........
	95	1.28	9.69896E-001	2.80907E-004	0.00000E+000	2.72451E-004	1.68088E-001	9.70319E-001	3.57940E+000	9	...........
	96	1.29333	9.70977E-001	2.80450E-004	0.00000E+000	2.72310E-004	1.68088E-001	9.71385E-001	3.57940E+000	9	...........
	97	1.30667	9.72099E-001	2.80880E-004	0.00000E+000	2.73044E-004	1.68088E-001	9.72486E-001	3.57940E+000	9	...........
	98	1.32	9.73204E-001	2.81387E-004	0.00000E+000	2.73847E-004	1.68088E-001	9.73539E-001	3.57940E+000	9	...........
	99	1.33333	9.74279E-001	2.80582E-004	0.00000E+000	2.73366E-004	1.68088E-001	9.74614E-001	3.57940E+000	9	...........
	100	1.34667	9.75324E-001	2.81525E-004	0.00000E+000	2.74578E-004	1.68088E-001	9.75688E-001	3.57940E+000	9	...........
	101	1.36	9.76357E-001	2.81561E-004	0.00000E+000	2.74904E-004	1.68088E-001	9.76713E-001	3.57940E+000	9	...........
	102	1.37333	9.77385E-001	2.81193E-004	0.00000E+000	2.74834E-004	1.68088E-001	9.77747E-001	3.57940E+000	9	...........
	103	1.38667	9.78354E-001	2.80737E-004	0.00000E+000	2.74660E-004	1.68088E-001	9.78736E-001	3.57940E+000	9	...........
	104	1.4	9.79413E-001	2.81743E-004	0.00000E+000	2.75943E-004	1.68088E-001	9.79795E-001	3.57940E+000	9	...........
	105	1.41333	9.80401E-001	2.81016E-004	0.00000E+000	2.75508E-004	1.68088E-001	9.80774E-001	3.57940E+000	9	...........
	106	1.42667	9.81399E-001	2.81134E-004	0.00000E+000	2.75904E-004	1.68088E-001	9.81795E-001	3.57940E+000	9	...........
	107	1.44	9.82406E-001	2.81411E-004	0.00000E+000	2.76459E-004	1.68088E-001	9.82772E-001	3.57940E+000	9	...........
	108	1.45333	9.83365E-001	2.81120E-004	0.00000E+000	2.76444E-004	1.68088E-001	9.83749E-001	3.57940E+000	9	...........
	109	1.46667	9.84347E-001	2.81382E-004	0.00000E+000	2.76977E-004	1.68088E-001	9.84750E-001	3.57940E+000	9	...........
	110	1.48	9.85308E-001	2.81459E-004	0.00000E+000	2.77323E-004	1.68088E-001	9.85709E-001	3.57940E+000	9	...........
	111	1.49333	9.86267E-001	2.80760E-004	0.00000E+000	2.76904E-004	1.68088E-001	9.86676E-001	3.57940E+000	9	...........
	112	1.50667	9.87203E-001	2.80023E-004	0.00000E+000	2.76439E-004	1.68088E-001	9.87615E-001	3.57940E+000	9	...........
	113	1.52	9.88135E-001	2.80537E-004	0.00000E+000	2.77208E-004	1.68088E-001	9.88534E-001	3.57940E+000	9	...........
	114	1.53333	9.89087E-001	2.80196E-004	0.00000E+000	2.77138E-004	1.68088E-001	9.89472E-001	3.57940E+000	9	...........
	115	1.54667	9.90020E-001	2.81122E-004	0.00000E+000	2.78316E-004	1.68088E-001	9.90414E-001	3.57940E+000	9	...........
	116	1.56	9.90944E-001	2.80843E-004	0.00000E+000	2.78300E-004	1.68088E-001	9.91331E-001	3.57940E+000	9	...........
	117	1.57333	9.91852E-001	2.81290E-004	0.00000E+000	2.78998E-004	1.68088E-001	9.92261E-001	3.57940E+000	9	...........
	118	1.58667	9.92767E-001	2.80672E-004	0.00000E+000	2.78642E-004	1.68088E-001	9.93174E-001	3.57940E+000	9	...........
	119	1.6	9.93666E-001	2.81064E-004	0.00000E+000	2.79284E-004	1.68088E-001	9.94089E-001	3.57940E+000	9	...........
	120	1.61333	9.94577E-001	2.81607E-004	0.00000E+000	2.80079E-004	1.68088E-001	9.94981E-001	3.57940E+000	9	...........
	121	1.62667	9.95482E-001	2.81440E-004	0.00000E+000	2.80168E-004	1.68088E-001	9.95860E-001	3.57940E+000	9	...........
	122	1.64	9.96365E-001	2.80940E-004	0.00000E+000	2.79918E-004	1.68088E-001	9.96737E-001	3.57940E+000	9	...........
	123	1.65333	9.97234E-001	2.81856E-004	0.00000E+000	2.81076E-004	1.68088E-001	9.97642E-001	3.57940E+000	9	...........
	124	1.66667	9.98134E-001	2.81217E-004	0.00000E+000	2.80692E-004	1.68088E-001	9.98489E-001	3.57940E+000	9	...........
	125	1.68	9.98984E-001	2.81248E-004	0.00000E+000	2.80963E-004	1.68088E-001	9.99356E-001	3.57922E+000	9	...........
	126	1.69	9.99711E-001	2.80534E-004	0.00000E+000	2.80453E-004	1.68088E-001	1.00008E+000	3.57800E+000	9	...........
STARTTIMEOFFSET	QUANT	423.7118	Start Time Offset (s)
