EXPLAIN
TAG	PWR800_CHARGE
TITLE	LABEL	PWR Cyclic Charge Discharge (Cell) - Charge Step	Test &Identifier
DATE	LABEL	7-7-2017	Date
TIME	LABEL	15:50:12	Time
NOTES	NOTES	3	&Notes...
	supercap test cell
	2.8mg
	6M KOH
PSTAT	PSTAT	IFC5000-01520	Potentiostat
CAPACITY	QUANT	1.00000E-003	Capacity (A-hr)
CELLTYPE	SELECTOR	1	&Cell Type
WORKINGCONNECTION	SELECTOR	0	&Working Lead
MAXCHARGETIME	VARIABLEANDUNITS	1.00000E+002	s	1.00000E+002	second(s)	Max &Charge Time
CHARGECURRENT	QUANT	2.80000E-004	&Charge Current (A) 
VOLTAGEFINISH	TWOPARAM	F	1.00000E-003	3.60000E+003	&Voltage Finish	 I (A) < 	Max Time(s)
SAMPLETIME	QUANT	1.00000E-002	Sa&mple Period (s)
CHARGESTOPAT1	MULTIPARAM	4	1.00000E+000	Charge Stop At &1	Voltage > Limit	V
CHARGESTOPAT2	MULTIPARAM	0	0.00000E+000	Charge Stop At &2	None	N/A
AESBHCSELECTOR	TOGGLE	F	Save Both Half Cells
IRCOMP	TOGGLE	F	IR &Measure
EOC	QUANT	0	Open Circuit (V)
SEQUENCER	TOGGLE	TRUE	Run as Sequence
PSTATMODEL	IQUANT	53	Pstat Model
PSTATSECTION	LABEL	IFC5000-01520	Pstat Section
PSTATSERIALNO	LABEL	01520	Pstat Serial Number
CTRLMODE	IQUANT	0	Control Mode
ELECTROMETER	IQUANT	1	RE=0 or CS=1
IESTAB	IQUANT	0	I/E Stability
CASPEED	IQUANT	4	Control Amp Speed
CONVENTION	IQUANT	1	Current Convention
ICHRANGE	IQUANT	2	Ich Range
ICHRANGEMODE	TOGGLE	T	Ich Auto Range
ICHOFFSETENABLE	TOGGLE	F	Ich Offset Enable
ICHOFFSET	QUANT	0	Ich Offset (V)
ICHFILTER	IQUANT	1	Ich Filter
VCHRANGE	IQUANT	2	Vch Range
VCHRANGEMODE	TOGGLE	T	Vch Auto Range
VCHOFFSETENABLE	TOGGLE	F	Vch Offset Enable
VCHOFFSET	QUANT	0	Vch Offset (V)
VCHFILTER	IQUANT	1	Vch Filter
IERANGELOWERLIMIT	IQUANT	9	I/E Range Lower Limit
IERANGEMODE	TOGGLE	F	I/E AutoRange
IERANGE	IQUANT	9	I/E Range
ACHSELECT	IQUANT	1	Ach Select
ACHRANGE	IQUANT	2	Ach Range
ACHOFFSETENABLE	TOGGLE	F	Ach Offset Enable
ACHOFFSET	QUANT	0	Ach Offset (V)
ACHFILTER	IQUANT	1	Ach Filter
CABLEID	IQUANT	14	Cable ID
DCCALDATE	LABEL	5-7-2017	DC Calibration Date
ACCALDATE	LABEL	12/3/2015	AC Calibration Date
FRAMEWORKVERSION	QUANT	7.01	Framework Version
INSTRUMENTVERSION	LABEL	4.00	Instrument Version
CURVE	TABLE	104
	Pt	T	Vf	Im	Vu	Pwr	Sig	Ach	Temp	IERange	Over
	#	s	V	A	V	W	V	V	deg C	#	bits
	0	0.013333	5.88249E-001	2.81648E-004	0.00000E+000	1.65679E-004	1.68088E-001	5.88560E-001	3.57850E+000	9	...........
	1	0.026667	6.16831E-001	2.80406E-004	0.00000E+000	1.72963E-004	1.68088E-001	6.17104E-001	3.57850E+000	9	...........
	2	0.04	6.40930E-001	2.80442E-004	0.00000E+000	1.79743E-004	1.68088E-001	6.41216E-001	3.57850E+000	9	...........
	3	0.053333	6.61830E-001	2.81030E-004	0.00000E+000	1.85994E-004	1.68088E-001	6.62112E-001	3.57850E+000	9	...........
	4	0.066667	6.80234E-001	2.80707E-004	0.00000E+000	1.90947E-004	1.68088E-001	6.80538E-001	3.57850E+000	9	...........
	5	0.08	6.96663E-001	2.81240E-004	0.00000E+000	1.95929E-004	1.68088E-001	6.96960E-001	3.57850E+000	9	...........
	6	0.093333	7.11484E-001	2.81410E-004	0.00000E+000	2.00219E-004	1.68088E-001	7.11784E-001	3.57850E+000	9	...........
	7	0.106667	7.24969E-001	2.80997E-004	0.00000E+000	2.03714E-004	1.68088E-001	7.25270E-001	3.57850E+000	9	...........
	8	0.12	7.37299E-001	2.80462E-004	0.00000E+000	2.06784E-004	1.68088E-001	7.37593E-001	3.57850E+000	9	...........
	9	0.133333	7.48671E-001	2.81726E-004	0.00000E+000	2.10920E-004	1.68088E-001	7.48973E-001	3.57850E+000	9	...........
	10	0.146667	7.59157E-001	2.81146E-004	0.00000E+000	2.13434E-004	1.68088E-001	7.59459E-001	3.57850E+000	9	...........
	11	0.16	7.68909E-001	2.81417E-004	0.00000E+000	2.16384E-004	1.68088E-001	7.69221E-001	3.57850E+000	9	...........
	12	0.173333	7.77960E-001	2.81324E-004	0.00000E+000	2.18859E-004	1.68088E-001	7.78275E-001	3.57850E+000	9	...........
	13	0.186667	7.86393E-001	2.81828E-004	0.00000E+000	2.21628E-004	1.68088E-001	7.86714E-001	3.57850E+000	9	...........
	14	0.2	7.94316E-001	2.81264E-004	0.00000E+000	2.23412E-004	1.68088E-001	7.94634E-001	3.57850E+000	9	...........
	15	0.213333	8.01785E-001	2.80335E-004	0.00000E+000	2.24769E-004	1.68088E-001	8.02091E-001	3.57850E+000	9	...........
	16	0.226667	8.08755E-001	2.80255E-004	0.00000E+000	2.26658E-004	1.68088E-001	8.09065E-001	3.57850E+000	9	...........
	17	0.24	8.15327E-001	2.80257E-004	0.00000E+000	2.28501E-004	1.68088E-001	8.15656E-001	3.57850E+000	9	...........
	18	0.253333	8.21569E-001	2.81118E-004	0.00000E+000	2.30958E-004	1.68088E-001	8.21870E-001	3.57850E+000	9	...........
	19	0.266667	8.27438E-001	2.81815E-004	0.00000E+000	2.33185E-004	1.68088E-001	8.27752E-001	3.57850E+000	9	...........
	20	0.28	8.32997E-001	2.80816E-004	0.00000E+000	2.33919E-004	1.68088E-001	8.33345E-001	3.57850E+000	9	...........
	21	0.293333	8.38281E-001	2.81845E-004	0.00000E+000	2.36266E-004	1.68088E-001	8.38617E-001	3.57850E+000	9	...........
	22	0.306667	8.43364E-001	2.81633E-004	0.00000E+000	2.37519E-004	1.68088E-001	8.43693E-001	3.57850E+000	9	...........
	23	0.32	8.48155E-001	2.81046E-004	0.00000E+000	2.38371E-004	1.68088E-001	8.48513E-001	3.57850E+000	9	...........
	24	0.333333	8.52732E-001	2.81239E-004	0.00000E+000	2.39821E-004	1.68088E-001	8.53052E-001	3.57850E+000	9	...........
	25	0.346667	8.57071E-001	2.81057E-004	0.00000E+000	2.40886E-004	1.68088E-001	8.57417E-001	3.57850E+000	9	...........
	26	0.36	8.61256E-001	2.79893E-004	0.00000E+000	2.41059E-004	1.68088E-001	8.61581E-001	3.57850E+000	9	...........
	27	0.373333	8.65242E-001	2.80812E-004	0.00000E+000	2.42970E-004	1.68088E-001	8.65578E-001	3.57850E+000	9	...........
	28	0.386667	8.69111E-001	2.81514E-004	0.00000E+000	2.44667E-004	1.68088E-001	8.69421E-001	3.57850E+000	9	...........
	29	0.4	8.72793E-001	2.81562E-004	0.00000E+000	2.45745E-004	1.68088E-001	8.73117E-001	3.57850E+000	9	...........
	30	0.413333	8.76342E-001	2.81880E-004	0.00000E+000	2.47023E-004	1.68088E-001	8.76669E-001	3.57850E+000	9	...........
	31	0.426667	8.79792E-001	2.81152E-004	0.00000E+000	2.47355E-004	1.68088E-001	8.80103E-001	3.57850E+000	9	...........
	32	0.44	8.83104E-001	2.81579E-004	0.00000E+000	2.48664E-004	1.68088E-001	8.83449E-001	3.57850E+000	9	...........
	33	0.453333	8.86294E-001	2.80711E-004	0.00000E+000	2.48792E-004	1.68088E-001	8.86635E-001	3.57850E+000	9	...........
	34	0.466667	8.89333E-001	2.80606E-004	0.00000E+000	2.49552E-004	1.68088E-001	8.89667E-001	3.57850E+000	9	...........
	35	0.48	8.92296E-001	2.80492E-004	0.00000E+000	2.50282E-004	1.68088E-001	8.92645E-001	3.57850E+000	9	...........
	36	0.493333	8.95192E-001	2.80991E-004	0.00000E+000	2.51541E-004	1.68088E-001	8.95554E-001	3.57850E+000	9	...........
	37	0.506667	8.97990E-001	2.80450E-004	0.00000E+000	2.51841E-004	1.68088E-001	8.98327E-001	3.57850E+000	9	...........
	38	0.52	9.00699E-001	2.81414E-004	0.00000E+000	2.53469E-004	1.68088E-001	9.01035E-001	3.57850E+000	9	...........
	39	0.533333	9.03307E-001	2.81719E-004	0.00000E+000	2.54479E-004	1.68088E-001	9.03647E-001	3.57850E+000	9	...........
	40	0.546667	9.05869E-001	2.81427E-004	0.00000E+000	2.54936E-004	1.68088E-001	9.06207E-001	3.57850E+000	9	...........
	41	0.56	9.08351E-001	2.81167E-004	0.00000E+000	2.55398E-004	1.68088E-001	9.08704E-001	3.57850E+000	9	...........
	42	0.573333	9.10794E-001	2.81476E-004	0.00000E+000	2.56367E-004	1.68088E-001	9.11143E-001	3.57850E+000	9	...........
	43	0.586667	9.13121E-001	2.81204E-004	0.00000E+000	2.56774E-004	1.68088E-001	9.13483E-001	3.57891E+000	9	...........
	44	0.6	9.15442E-001	2.80956E-004	0.00000E+000	2.57199E-004	1.68088E-001	9.15803E-001	3.58070E+000	9	...........
	45	0.613333	9.17658E-001	2.80871E-004	0.00000E+000	2.57744E-004	1.68088E-001	9.18009E-001	3.58070E+000	9	...........
	46	0.626667	9.19833E-001	2.81395E-004	0.00000E+000	2.58836E-004	1.68088E-001	9.20165E-001	3.58070E+000	9	...........
	47	0.64	9.22026E-001	2.81390E-004	0.00000E+000	2.59449E-004	1.68088E-001	9.22312E-001	3.58070E+000	9	...........
	48	0.653333	9.24087E-001	2.81146E-004	0.00000E+000	2.59803E-004	1.68088E-001	9.24380E-001	3.58070E+000	9	...........
	49	0.666667	9.26109E-001	2.81553E-004	0.00000E+000	2.60749E-004	1.68088E-001	9.26413E-001	3.58070E+000	9	...........
	50	0.68	9.28111E-001	2.81642E-004	0.00000E+000	2.61395E-004	1.68088E-001	9.28416E-001	3.58070E+000	9	...........
	51	0.693333	9.30050E-001	2.81391E-004	0.00000E+000	2.61708E-004	1.68088E-001	9.30338E-001	3.58070E+000	9	...........
	52	0.706667	9.31930E-001	2.80953E-004	0.00000E+000	2.61829E-004	1.68088E-001	9.32243E-001	3.58070E+000	9	...........
	53	0.72	9.33807E-001	2.81244E-004	0.00000E+000	2.62627E-004	1.68088E-001	9.34140E-001	3.58070E+000	9	...........
	54	0.733333	9.35656E-001	2.80862E-004	0.00000E+000	2.62790E-004	1.68088E-001	9.35992E-001	3.58070E+000	9	...........
	55	0.746667	9.37437E-001	2.81246E-004	0.00000E+000	2.63650E-004	1.68088E-001	9.37783E-001	3.58070E+000	9	...........
	56	0.76	9.39202E-001	2.80890E-004	0.00000E+000	2.63812E-004	1.68088E-001	9.39576E-001	3.58070E+000	9	...........
	57	0.773333	9.40958E-001	2.81178E-004	0.00000E+000	2.64577E-004	1.68088E-001	9.41305E-001	3.58070E+000	9	...........
	58	0.786667	9.42676E-001	2.81481E-004	0.00000E+000	2.65345E-004	1.68088E-001	9.43011E-001	3.58070E+000	9	...........
	59	0.8	9.44314E-001	2.81440E-004	0.00000E+000	2.65768E-004	1.68088E-001	9.44659E-001	3.58070E+000	9	...........
	60	0.813333	9.45980E-001	2.81219E-004	0.00000E+000	2.66027E-004	1.68088E-001	9.46344E-001	3.58070E+000	9	...........
	61	0.826667	9.47598E-001	2.81371E-004	0.00000E+000	2.66627E-004	1.68088E-001	9.47966E-001	3.58070E+000	9	...........
	62	0.84	9.49187E-001	2.81518E-004	0.00000E+000	2.67213E-004	1.68088E-001	9.49581E-001	3.58070E+000	9	...........
	63	0.853333	9.50789E-001	2.81504E-004	0.00000E+000	2.67651E-004	1.68088E-001	9.51164E-001	3.58070E+000	9	...........
	64	0.866667	9.52313E-001	2.81848E-004	0.00000E+000	2.68408E-004	1.68088E-001	9.52691E-001	3.58070E+000	9	...........
	65	0.88	9.53840E-001	2.81699E-004	0.00000E+000	2.68696E-004	1.68088E-001	9.54186E-001	3.58070E+000	9	...........
	66	0.893333	9.55289E-001	2.81568E-004	0.00000E+000	2.68979E-004	1.68088E-001	9.55643E-001	3.58070E+000	9	...........
	67	0.906667	9.56745E-001	2.80791E-004	0.00000E+000	2.68645E-004	1.68088E-001	9.57093E-001	3.58070E+000	9	...........
	68	0.92	9.58218E-001	2.80402E-004	0.00000E+000	2.68686E-004	1.68088E-001	9.58578E-001	3.58070E+000	9	...........
	69	0.933333	9.59677E-001	2.81002E-004	0.00000E+000	2.69672E-004	1.68088E-001	9.60031E-001	3.58070E+000	9	...........
	70	0.946667	9.61085E-001	2.80506E-004	0.00000E+000	2.69591E-004	1.68088E-001	9.61450E-001	3.58070E+000	9	...........
	71	0.96	9.62462E-001	2.80889E-004	0.00000E+000	2.70345E-004	1.68088E-001	9.62866E-001	3.58070E+000	9	...........
	72	0.97333	9.63818E-001	2.81916E-004	0.00000E+000	2.71716E-004	1.68088E-001	9.64219E-001	3.58070E+000	9	...........
	73	0.98667	9.65189E-001	2.81566E-004	0.00000E+000	2.71764E-004	1.68088E-001	9.65586E-001	3.58070E+000	9	...........
	74	1	9.66517E-001	2.81091E-004	0.00000E+000	2.71679E-004	1.68088E-001	9.66908E-001	3.58070E+000	9	...........
	75	1.01333	9.67865E-001	2.81537E-004	0.00000E+000	2.72490E-004	1.68088E-001	9.68244E-001	3.58070E+000	9	...........
	76	1.02667	9.69175E-001	2.81545E-004	0.00000E+000	2.72866E-004	1.68088E-001	9.69559E-001	3.58070E+000	9	...........
	77	1.04	9.70485E-001	2.80918E-004	0.00000E+000	2.72627E-004	1.68088E-001	9.70878E-001	3.58070E+000	9	...........
	78	1.05333	9.71776E-001	2.81797E-004	0.00000E+000	2.73844E-004	1.68088E-001	9.72212E-001	3.58070E+000	9	...........
	79	1.06667	9.73091E-001	2.81466E-004	0.00000E+000	2.73892E-004	1.68088E-001	9.73454E-001	3.58070E+000	9	...........
	80	1.08	9.74278E-001	2.80331E-004	0.00000E+000	2.73121E-004	1.68088E-001	9.74650E-001	3.58070E+000	9	...........
	81	1.09333	9.75494E-001	2.81341E-004	0.00000E+000	2.74446E-004	1.68088E-001	9.75854E-001	3.58070E+000	9	...........
	82	1.10667	9.76700E-001	2.80895E-004	0.00000E+000	2.74350E-004	1.68088E-001	9.77090E-001	3.58070E+000	9	...........
	83	1.12	9.77925E-001	2.80906E-004	0.00000E+000	2.74705E-004	1.68088E-001	9.78278E-001	3.58070E+000	9	...........
	84	1.13333	9.79107E-001	2.82005E-004	0.00000E+000	2.76113E-004	1.68088E-001	9.79471E-001	3.58070E+000	9	...........
	85	1.14667	9.80294E-001	2.80762E-004	0.00000E+000	2.75229E-004	1.68088E-001	9.80653E-001	3.58070E+000	9	...........
	86	1.16	9.81468E-001	2.82298E-004	0.00000E+000	2.77067E-004	1.68088E-001	9.81855E-001	3.58070E+000	9	...........
	87	1.17333	9.82622E-001	2.81071E-004	0.00000E+000	2.76187E-004	1.68088E-001	9.82999E-001	3.58070E+000	9	...........
	88	1.18667	9.83719E-001	2.81847E-004	0.00000E+000	2.77258E-004	1.68088E-001	9.84119E-001	3.58070E+000	9	...........
	89	1.2	9.84838E-001	2.81339E-004	0.00000E+000	2.77073E-004	1.68088E-001	9.85227E-001	3.58070E+000	9	...........
	90	1.21333	9.85925E-001	2.81307E-004	0.00000E+000	2.77347E-004	1.68088E-001	9.86339E-001	3.58070E+000	9	...........
	91	1.22667	9.87022E-001	2.82071E-004	0.00000E+000	2.78411E-004	1.68088E-001	9.87416E-001	3.58070E+000	9	...........
	92	1.24	9.88133E-001	2.80708E-004	0.00000E+000	2.77377E-004	1.68088E-001	9.88516E-001	3.58070E+000	9	...........
	93	1.25333	9.89231E-001	2.80894E-004	0.00000E+000	2.77869E-004	1.68088E-001	9.89580E-001	3.58070E+000	9	...........
	94	1.26667	9.90319E-001	2.80854E-004	0.00000E+000	2.78135E-004	1.68088E-001	9.90675E-001	3.58070E+000	9	...........
	95	1.28	9.91370E-001	2.81150E-004	0.00000E+000	2.78724E-004	1.68088E-001	9.91719E-001	3.58070E+000	9	...........
	96	1.29333	9.92438E-001	2.80605E-004	0.00000E+000	2.78483E-004	1.68088E-001	9.92799E-001	3.58070E+000	9	...........
	97	1.30667	9.93466E-001	2.81134E-004	0.00000E+000	2.79297E-004	1.68088E-001	9.93845E-001	3.58070E+000	9	...........
	98	1.32	9.94519E-001	2.81148E-004	0.00000E+000	2.79607E-004	1.68088E-001	9.94895E-001	3.58070E+000	9	...........
	99	1.33333	9.95598E-001	2.81216E-004	0.00000E+000	2.79978E-004	1.68088E-001	9.95947E-001	3.58070E+000	9	...........
	100	1.34667	9.96612E-001	2.80589E-004	0.00000E+000	2.79638E-004	1.68088E-001	9.97000E-001	3.58070E+000	9	...........
	101	1.36	9.97626E-001	2.80964E-004	0.00000E+000	2.80297E-004	1.68088E-001	9.98024E-001	3.58070E+000	9	...........
	102	1.37333	9.98646E-001	2.80671E-004	0.00000E+000	2.80291E-004	1.68088E-001	9.99030E-001	3.58070E+000	9	...........
	103	1.38667	9.99642E-001	2.80548E-004	0.00000E+000	2.80448E-004	1.68088E-001	1.00001E+000	3.58070E+000	9	...........
STARTTIMEOFFSET	QUANT	682.0951	Start Time Offset (s)
