EXPLAIN
TAG	PWR800_CHARGE
TITLE	LABEL	PWR Cyclic Charge Discharge (Cell) - Charge Step	Test &Identifier
DATE	LABEL	7-7-2017	Date
TIME	LABEL	16:22:45	Time
NOTES	NOTES	3	&Notes...
	supercap test cell
	2.8mg
	6M KOH
PSTAT	PSTAT	IFC5000-01520	Potentiostat
CAPACITY	QUANT	1.00000E-003	Capacity (A-hr)
CELLTYPE	SELECTOR	1	&Cell Type
WORKINGCONNECTION	SELECTOR	0	&Working Lead
MAXCHARGETIME	VARIABLEANDUNITS	1.00000E+002	s	1.00000E+002	second(s)	Max &Charge Time
CHARGECURRENT	QUANT	2.80000E-004	&Charge Current (A) 
VOLTAGEFINISH	TWOPARAM	F	1.00000E-003	3.60000E+003	&Voltage Finish	 I (A) < 	Max Time(s)
SAMPLETIME	QUANT	1.00000E-002	Sa&mple Period (s)
CHARGESTOPAT1	MULTIPARAM	4	1.00000E+000	Charge Stop At &1	Voltage > Limit	V
CHARGESTOPAT2	MULTIPARAM	0	0.00000E+000	Charge Stop At &2	None	N/A
AESBHCSELECTOR	TOGGLE	F	Save Both Half Cells
IRCOMP	TOGGLE	F	IR &Measure
EOC	QUANT	0	Open Circuit (V)
SEQUENCER	TOGGLE	TRUE	Run as Sequence
PSTATMODEL	IQUANT	53	Pstat Model
PSTATSECTION	LABEL	IFC5000-01520	Pstat Section
PSTATSERIALNO	LABEL	01520	Pstat Serial Number
CTRLMODE	IQUANT	0	Control Mode
ELECTROMETER	IQUANT	1	RE=0 or CS=1
IESTAB	IQUANT	0	I/E Stability
CASPEED	IQUANT	4	Control Amp Speed
CONVENTION	IQUANT	1	Current Convention
ICHRANGE	IQUANT	2	Ich Range
ICHRANGEMODE	TOGGLE	T	Ich Auto Range
ICHOFFSETENABLE	TOGGLE	F	Ich Offset Enable
ICHOFFSET	QUANT	0	Ich Offset (V)
ICHFILTER	IQUANT	1	Ich Filter
VCHRANGE	IQUANT	2	Vch Range
VCHRANGEMODE	TOGGLE	T	Vch Auto Range
VCHOFFSETENABLE	TOGGLE	F	Vch Offset Enable
VCHOFFSET	QUANT	0	Vch Offset (V)
VCHFILTER	IQUANT	1	Vch Filter
IERANGELOWERLIMIT	IQUANT	9	I/E Range Lower Limit
IERANGEMODE	TOGGLE	F	I/E AutoRange
IERANGE	IQUANT	9	I/E Range
ACHSELECT	IQUANT	1	Ach Select
ACHRANGE	IQUANT	2	Ach Range
ACHOFFSETENABLE	TOGGLE	F	Ach Offset Enable
ACHOFFSET	QUANT	0	Ach Offset (V)
ACHFILTER	IQUANT	1	Ach Filter
CABLEID	IQUANT	14	Cable ID
DCCALDATE	LABEL	5-7-2017	DC Calibration Date
ACCALDATE	LABEL	12/3/2015	AC Calibration Date
FRAMEWORKVERSION	QUANT	7.01	Framework Version
INSTRUMENTVERSION	LABEL	4.00	Instrument Version
CURVE	TABLE	58
	Pt	T	Vf	Im	Vu	Pwr	Sig	Ach	Temp	IERange	Over
	#	s	V	A	V	W	V	V	deg C	#	bits
	0	0.013333	6.10727E-001	2.81528E-004	0.00000E+000	1.71937E-004	1.68088E-001	6.10978E-001	3.57780E+000	9	...........
	1	0.026667	6.41330E-001	2.80380E-004	0.00000E+000	1.79816E-004	1.68088E-001	6.41573E-001	3.57780E+000	9	...........
	2	0.04	6.67678E-001	2.80533E-004	0.00000E+000	1.87306E-004	1.68088E-001	6.67910E-001	3.57780E+000	9	...........
	3	0.053333	6.90896E-001	2.80976E-004	0.00000E+000	1.94125E-004	1.68088E-001	6.91144E-001	3.57780E+000	9	...........
	4	0.066667	7.11643E-001	2.80228E-004	0.00000E+000	1.99422E-004	1.68088E-001	7.11906E-001	3.57780E+000	9	...........
	5	0.08	7.30450E-001	2.80458E-004	0.00000E+000	2.04861E-004	1.68088E-001	7.30705E-001	3.57780E+000	9	...........
	6	0.093333	7.47568E-001	2.80548E-004	0.00000E+000	2.09729E-004	1.68088E-001	7.47794E-001	3.57780E+000	9	...........
	7	0.106667	7.63254E-001	2.80460E-004	0.00000E+000	2.14062E-004	1.68088E-001	7.63481E-001	3.57780E+000	9	...........
	8	0.12	7.77659E-001	2.81194E-004	0.00000E+000	2.18673E-004	1.68088E-001	7.77892E-001	3.57780E+000	9	...........
	9	0.133333	7.90958E-001	2.81465E-004	0.00000E+000	2.22627E-004	1.68088E-001	7.91203E-001	3.57795E+000	9	...........
	10	0.146667	8.03260E-001	2.80325E-004	0.00000E+000	2.25174E-004	1.68088E-001	8.03526E-001	3.57800E+000	9	...........
	11	0.16	8.14684E-001	2.80385E-004	0.00000E+000	2.28426E-004	1.68088E-001	8.14957E-001	3.57800E+000	9	...........
	12	0.173333	8.25325E-001	2.82065E-004	0.00000E+000	2.32795E-004	1.68088E-001	8.25615E-001	3.57800E+000	9	...........
	13	0.186667	8.35224E-001	2.81530E-004	0.00000E+000	2.35141E-004	1.68088E-001	8.35532E-001	3.57800E+000	9	...........
	14	0.2	8.44457E-001	2.81409E-004	0.00000E+000	2.37638E-004	1.68088E-001	8.44769E-001	3.57800E+000	9	...........
	15	0.213333	8.53097E-001	2.79999E-004	0.00000E+000	2.38866E-004	1.68088E-001	8.53433E-001	3.57800E+000	9	...........
	16	0.226667	8.61197E-001	2.81193E-004	0.00000E+000	2.42163E-004	1.68088E-001	8.61522E-001	3.57800E+000	9	...........
	17	0.24	8.68759E-001	2.80733E-004	0.00000E+000	2.43890E-004	1.68088E-001	8.69098E-001	3.57800E+000	9	...........
	18	0.253333	8.75886E-001	2.80106E-004	0.00000E+000	2.45341E-004	1.68088E-001	8.76218E-001	3.57800E+000	9	...........
	19	0.266667	8.82566E-001	2.80774E-004	0.00000E+000	2.47802E-004	1.68088E-001	8.82897E-001	3.57800E+000	9	...........
	20	0.28	8.88877E-001	2.81373E-004	0.00000E+000	2.50106E-004	1.68088E-001	8.89214E-001	3.57800E+000	9	...........
	21	0.293333	8.94828E-001	2.81224E-004	0.00000E+000	2.51647E-004	1.68088E-001	8.95173E-001	3.57800E+000	9	...........
	22	0.306667	9.00417E-001	2.81117E-004	0.00000E+000	2.53122E-004	1.68088E-001	9.00762E-001	3.57800E+000	9	...........
	23	0.32	9.05710E-001	2.80441E-004	0.00000E+000	2.53998E-004	1.68088E-001	9.06037E-001	3.57800E+000	9	...........
	24	0.333333	9.10717E-001	2.81105E-004	0.00000E+000	2.56007E-004	1.68088E-001	9.11047E-001	3.57800E+000	9	...........
	25	0.346667	9.15469E-001	2.82236E-004	0.00000E+000	2.58378E-004	1.68088E-001	9.15819E-001	3.57800E+000	9	...........
	26	0.36	9.20013E-001	2.82406E-004	0.00000E+000	2.59817E-004	1.68088E-001	9.20337E-001	3.57800E+000	9	...........
	27	0.373333	9.24308E-001	2.80530E-004	0.00000E+000	2.59296E-004	1.68088E-001	9.24607E-001	3.57800E+000	9	...........
	28	0.386667	9.28368E-001	2.80360E-004	0.00000E+000	2.60278E-004	1.68088E-001	9.28679E-001	3.57800E+000	9	...........
	29	0.4	9.32262E-001	2.81540E-004	0.00000E+000	2.62469E-004	1.68088E-001	9.32594E-001	3.57800E+000	9	...........
	30	0.413333	9.35980E-001	2.80911E-004	0.00000E+000	2.62927E-004	1.68088E-001	9.36315E-001	3.57800E+000	9	...........
	31	0.426667	9.39544E-001	2.81570E-004	0.00000E+000	2.64547E-004	1.68088E-001	9.39860E-001	3.57800E+000	9	...........
	32	0.44	9.42950E-001	2.82122E-004	0.00000E+000	2.66027E-004	1.68088E-001	9.43250E-001	3.57800E+000	9	...........
	33	0.453333	9.46180E-001	2.81466E-004	0.00000E+000	2.66317E-004	1.68088E-001	9.46508E-001	3.57800E+000	9	...........
	34	0.466667	9.49362E-001	2.79347E-004	0.00000E+000	2.65201E-004	1.68088E-001	9.49656E-001	3.57800E+000	9	...........
	35	0.48	9.52356E-001	2.81609E-004	0.00000E+000	2.68192E-004	1.68088E-001	9.52688E-001	3.57800E+000	9	...........
	36	0.493333	9.55269E-001	2.82133E-004	0.00000E+000	2.69513E-004	1.68088E-001	9.55585E-001	3.57800E+000	9	...........
	37	0.506667	9.58052E-001	2.81217E-004	0.00000E+000	2.69420E-004	1.68088E-001	9.58404E-001	3.57800E+000	9	...........
	38	0.52	9.60729E-001	2.80935E-004	0.00000E+000	2.69902E-004	1.68088E-001	9.61078E-001	3.57800E+000	9	...........
	39	0.533333	9.63344E-001	2.81421E-004	0.00000E+000	2.71105E-004	1.68088E-001	9.63686E-001	3.57800E+000	9	...........
	40	0.546667	9.65851E-001	2.80688E-004	0.00000E+000	2.71102E-004	1.68088E-001	9.66210E-001	3.57800E+000	9	...........
	41	0.56	9.68273E-001	2.80960E-004	0.00000E+000	2.72046E-004	1.68088E-001	9.68618E-001	3.57800E+000	9	...........
	42	0.573333	9.70639E-001	2.80846E-004	0.00000E+000	2.72600E-004	1.68088E-001	9.71034E-001	3.57800E+000	9	...........
	43	0.586667	9.72969E-001	2.80922E-004	0.00000E+000	2.73328E-004	1.68088E-001	9.73333E-001	3.57800E+000	9	...........
	44	0.6	9.75211E-001	2.82494E-004	0.00000E+000	2.75491E-004	1.68088E-001	9.75545E-001	3.57800E+000	9	...........
	45	0.613333	9.77373E-001	2.81554E-004	0.00000E+000	2.75184E-004	1.68088E-001	9.77680E-001	3.57800E+000	9	...........
	46	0.626667	9.79465E-001	2.81517E-004	0.00000E+000	2.75736E-004	1.68088E-001	9.79764E-001	3.57800E+000	9	...........
	47	0.64	9.81470E-001	2.81307E-004	0.00000E+000	2.76094E-004	1.68088E-001	9.81765E-001	3.57800E+000	9	...........
	48	0.653333	9.83467E-001	2.81028E-004	0.00000E+000	2.76382E-004	1.68088E-001	9.83779E-001	3.57800E+000	9	...........
	49	0.666667	9.85387E-001	2.82442E-004	0.00000E+000	2.78315E-004	1.68088E-001	9.85722E-001	3.57800E+000	9	...........
	50	0.68	9.87270E-001	2.81913E-004	0.00000E+000	2.78324E-004	1.68088E-001	9.87601E-001	3.57800E+000	9	...........
	51	0.693333	9.89126E-001	2.82320E-004	0.00000E+000	2.79250E-004	1.68088E-001	9.89459E-001	3.57800E+000	9	...........
	52	0.706667	9.90940E-001	2.82233E-004	0.00000E+000	2.79676E-004	1.68088E-001	9.91276E-001	3.57800E+000	9	...........
	53	0.72	9.92693E-001	2.81611E-004	0.00000E+000	2.79553E-004	1.68088E-001	9.93036E-001	3.57800E+000	9	...........
	54	0.733333	9.94416E-001	2.80484E-004	0.00000E+000	2.78918E-004	1.68088E-001	9.94764E-001	3.57800E+000	9	...........
	55	0.746667	9.96123E-001	2.81193E-004	0.00000E+000	2.80103E-004	1.68088E-001	9.96456E-001	3.57800E+000	9	...........
	56	0.76	9.97784E-001	2.81011E-004	0.00000E+000	2.80388E-004	1.68088E-001	9.98165E-001	3.57800E+000	9	...........
	57	0.773333	9.99400E-001	2.82254E-004	0.00000E+000	2.82084E-004	1.68088E-001	9.99780E-001	3.57800E+000	9	...........
STARTTIMEOFFSET	QUANT	2028.619	Start Time Offset (s)
