EXPLAIN
TAG	PWR800_CHARGE
TITLE	LABEL	PWR Cyclic Charge Discharge (Cell) - Charge Step	Test &Identifier
DATE	LABEL	7-7-2017	Date
TIME	LABEL	15:59:34	Time
NOTES	NOTES	3	&Notes...
	supercap test cell
	2.8mg
	6M KOH
PSTAT	PSTAT	IFC5000-01520	Potentiostat
CAPACITY	QUANT	1.00000E-003	Capacity (A-hr)
CELLTYPE	SELECTOR	1	&Cell Type
WORKINGCONNECTION	SELECTOR	0	&Working Lead
MAXCHARGETIME	VARIABLEANDUNITS	1.00000E+002	s	1.00000E+002	second(s)	Max &Charge Time
CHARGECURRENT	QUANT	2.80000E-004	&Charge Current (A) 
VOLTAGEFINISH	TWOPARAM	F	1.00000E-003	3.60000E+003	&Voltage Finish	 I (A) < 	Max Time(s)
SAMPLETIME	QUANT	1.00000E-002	Sa&mple Period (s)
CHARGESTOPAT1	MULTIPARAM	4	1.00000E+000	Charge Stop At &1	Voltage > Limit	V
CHARGESTOPAT2	MULTIPARAM	0	0.00000E+000	Charge Stop At &2	None	N/A
AESBHCSELECTOR	TOGGLE	F	Save Both Half Cells
IRCOMP	TOGGLE	F	IR &Measure
EOC	QUANT	0	Open Circuit (V)
SEQUENCER	TOGGLE	TRUE	Run as Sequence
PSTATMODEL	IQUANT	53	Pstat Model
PSTATSECTION	LABEL	IFC5000-01520	Pstat Section
PSTATSERIALNO	LABEL	01520	Pstat Serial Number
CTRLMODE	IQUANT	0	Control Mode
ELECTROMETER	IQUANT	1	RE=0 or CS=1
IESTAB	IQUANT	0	I/E Stability
CASPEED	IQUANT	4	Control Amp Speed
CONVENTION	IQUANT	1	Current Convention
ICHRANGE	IQUANT	2	Ich Range
ICHRANGEMODE	TOGGLE	T	Ich Auto Range
ICHOFFSETENABLE	TOGGLE	F	Ich Offset Enable
ICHOFFSET	QUANT	0	Ich Offset (V)
ICHFILTER	IQUANT	1	Ich Filter
VCHRANGE	IQUANT	2	Vch Range
VCHRANGEMODE	TOGGLE	T	Vch Auto Range
VCHOFFSETENABLE	TOGGLE	F	Vch Offset Enable
VCHOFFSET	QUANT	0	Vch Offset (V)
VCHFILTER	IQUANT	1	Vch Filter
IERANGELOWERLIMIT	IQUANT	9	I/E Range Lower Limit
IERANGEMODE	TOGGLE	F	I/E AutoRange
IERANGE	IQUANT	9	I/E Range
ACHSELECT	IQUANT	1	Ach Select
ACHRANGE	IQUANT	2	Ach Range
ACHOFFSETENABLE	TOGGLE	F	Ach Offset Enable
ACHOFFSET	QUANT	0	Ach Offset (V)
ACHFILTER	IQUANT	1	Ach Filter
CABLEID	IQUANT	14	Cable ID
DCCALDATE	LABEL	5-7-2017	DC Calibration Date
ACCALDATE	LABEL	12/3/2015	AC Calibration Date
FRAMEWORKVERSION	QUANT	7.01	Framework Version
INSTRUMENTVERSION	LABEL	4.00	Instrument Version
CURVE	TABLE	80
	Pt	T	Vf	Im	Vu	Pwr	Sig	Ach	Temp	IERange	Over
	#	s	V	A	V	W	V	V	deg C	#	bits
	0	0.013333	5.93495E-001	2.80996E-004	0.00000E+000	1.66770E-004	1.68088E-001	5.93778E-001	3.57890E+000	9	...........
	1	0.026667	6.23401E-001	2.81335E-004	0.00000E+000	1.75384E-004	1.68088E-001	6.23667E-001	3.57890E+000	9	...........
	2	0.04	6.48870E-001	2.81493E-004	0.00000E+000	1.82652E-004	1.68088E-001	6.49126E-001	3.57890E+000	9	...........
	3	0.053333	6.71083E-001	2.80930E-004	0.00000E+000	1.88528E-004	1.68088E-001	6.71339E-001	3.57890E+000	9	...........
	4	0.066667	6.90792E-001	2.81027E-004	0.00000E+000	1.94131E-004	1.68088E-001	6.91074E-001	3.57890E+000	9	...........
	5	0.08	7.08522E-001	2.80865E-004	0.00000E+000	1.98999E-004	1.68088E-001	7.08794E-001	3.57890E+000	9	...........
	6	0.093333	7.24625E-001	2.81314E-004	0.00000E+000	2.03847E-004	1.68088E-001	7.24906E-001	3.57890E+000	9	...........
	7	0.106667	7.39272E-001	2.80530E-004	0.00000E+000	2.07388E-004	1.68088E-001	7.39561E-001	3.57890E+000	9	...........
	8	0.12	7.52735E-001	2.80345E-004	0.00000E+000	2.11025E-004	1.68088E-001	7.53009E-001	3.57890E+000	9	...........
	9	0.133333	7.65144E-001	2.81602E-004	0.00000E+000	2.15466E-004	1.68088E-001	7.65429E-001	3.57890E+000	9	...........
	10	0.146667	7.76612E-001	2.81661E-004	0.00000E+000	2.18741E-004	1.68088E-001	7.76907E-001	3.57890E+000	9	...........
	11	0.16	7.87237E-001	2.81625E-004	0.00000E+000	2.21706E-004	1.68088E-001	7.87571E-001	3.57890E+000	9	...........
	12	0.173333	7.97195E-001	2.80767E-004	0.00000E+000	2.23826E-004	1.68088E-001	7.97493E-001	3.57890E+000	9	...........
	13	0.186667	8.06427E-001	2.80672E-004	0.00000E+000	2.26341E-004	1.68088E-001	8.06720E-001	3.57890E+000	9	...........
	14	0.2	8.15054E-001	2.81847E-004	0.00000E+000	2.29721E-004	1.68088E-001	8.15367E-001	3.57890E+000	9	...........
	15	0.213333	8.23184E-001	2.81420E-004	0.00000E+000	2.31661E-004	1.68088E-001	8.23491E-001	3.57890E+000	9	...........
	16	0.226667	8.30786E-001	2.81302E-004	0.00000E+000	2.33702E-004	1.68088E-001	8.31088E-001	3.57890E+000	9	...........
	17	0.24	8.37894E-001	2.81372E-004	0.00000E+000	2.35760E-004	1.68088E-001	8.38233E-001	3.57890E+000	9	...........
	18	0.253333	8.44620E-001	2.82142E-004	0.00000E+000	2.38303E-004	1.68088E-001	8.44957E-001	3.57890E+000	9	...........
	19	0.266667	8.50965E-001	2.80352E-004	0.00000E+000	2.38570E-004	1.68088E-001	8.51298E-001	3.57890E+000	9	...........
	20	0.28	8.56911E-001	2.80559E-004	0.00000E+000	2.40414E-004	1.68088E-001	8.57272E-001	3.57890E+000	9	...........
	21	0.293333	8.62600E-001	2.80044E-004	0.00000E+000	2.41566E-004	1.68088E-001	8.62964E-001	3.57890E+000	9	...........
	22	0.306667	8.68019E-001	2.81405E-004	0.00000E+000	2.44265E-004	1.68088E-001	8.68403E-001	3.57890E+000	9	...........
	23	0.32	8.73172E-001	2.82655E-004	0.00000E+000	2.46806E-004	1.68088E-001	8.73539E-001	3.57890E+000	9	...........
	24	0.333333	8.78031E-001	2.81802E-004	0.00000E+000	2.47431E-004	1.68088E-001	8.78389E-001	3.57890E+000	9	...........
	25	0.346667	8.82679E-001	2.81640E-004	0.00000E+000	2.48598E-004	1.68088E-001	8.83037E-001	3.57890E+000	9	...........
	26	0.36	8.87098E-001	2.82199E-004	0.00000E+000	2.50339E-004	1.68088E-001	8.87470E-001	3.57890E+000	9	...........
	27	0.373333	8.91316E-001	2.80608E-004	0.00000E+000	2.50111E-004	1.68088E-001	8.91662E-001	3.57890E+000	9	...........
	28	0.386667	8.95357E-001	2.81453E-004	0.00000E+000	2.52001E-004	1.68088E-001	8.95702E-001	3.57890E+000	9	...........
	29	0.4	8.99236E-001	2.81533E-004	0.00000E+000	2.53164E-004	1.68088E-001	8.99564E-001	3.57890E+000	9	...........
	30	0.413333	9.02958E-001	2.82565E-004	0.00000E+000	2.55144E-004	1.68088E-001	9.03293E-001	3.57890E+000	9	...........
	31	0.426667	9.06501E-001	2.81519E-004	0.00000E+000	2.55197E-004	1.68088E-001	9.06855E-001	3.57890E+000	9	...........
	32	0.44	9.09969E-001	2.80291E-004	0.00000E+000	2.55056E-004	1.68088E-001	9.10282E-001	3.57890E+000	9	...........
	33	0.453333	9.13229E-001	2.80826E-004	0.00000E+000	2.56459E-004	1.68088E-001	9.13600E-001	3.57890E+000	9	...........
	34	0.466667	9.16395E-001	2.80595E-004	0.00000E+000	2.57136E-004	1.68088E-001	9.16747E-001	3.57890E+000	9	...........
	35	0.48	9.19465E-001	2.80753E-004	0.00000E+000	2.58143E-004	1.68088E-001	9.19770E-001	3.57890E+000	9	...........
	36	0.493333	9.22497E-001	2.81991E-004	0.00000E+000	2.60136E-004	1.68088E-001	9.22768E-001	3.57890E+000	9	...........
	37	0.506667	9.25353E-001	2.80514E-004	0.00000E+000	2.59574E-004	1.68088E-001	9.25633E-001	3.57890E+000	9	...........
	38	0.52	9.28137E-001	2.80116E-004	0.00000E+000	2.59986E-004	1.68088E-001	9.28419E-001	3.57890E+000	9	...........
	39	0.533333	9.30830E-001	2.81362E-004	0.00000E+000	2.61900E-004	1.68088E-001	9.31105E-001	3.57890E+000	9	...........
	40	0.546667	9.33420E-001	2.81664E-004	0.00000E+000	2.62911E-004	1.68088E-001	9.33721E-001	3.57890E+000	9	...........
	41	0.56	9.35927E-001	2.81386E-004	0.00000E+000	2.63357E-004	1.68088E-001	9.36269E-001	3.57890E+000	9	...........
	42	0.573333	9.38343E-001	2.81556E-004	0.00000E+000	2.64196E-004	1.68088E-001	9.38708E-001	3.57890E+000	9	...........
	43	0.586667	9.40703E-001	2.81595E-004	0.00000E+000	2.64897E-004	1.68088E-001	9.41058E-001	3.57890E+000	9	...........
	44	0.6	9.43010E-001	2.81889E-004	0.00000E+000	2.65824E-004	1.68088E-001	9.43376E-001	3.57890E+000	9	...........
	45	0.613333	9.45252E-001	2.81217E-004	0.00000E+000	2.65821E-004	1.68088E-001	9.45625E-001	3.57890E+000	9	...........
	46	0.626667	9.47474E-001	2.81560E-004	0.00000E+000	2.66771E-004	1.68088E-001	9.47849E-001	3.57890E+000	9	...........
	47	0.64	9.49627E-001	2.80378E-004	0.00000E+000	2.66255E-004	1.68088E-001	9.50000E-001	3.57890E+000	9	...........
	48	0.653333	9.51658E-001	2.80333E-004	0.00000E+000	2.66782E-004	1.68088E-001	9.52058E-001	3.57890E+000	9	...........
	49	0.666667	9.53689E-001	2.82614E-004	0.00000E+000	2.69526E-004	1.68088E-001	9.54055E-001	3.57890E+000	9	...........
	50	0.68	9.55642E-001	2.81548E-004	0.00000E+000	2.69059E-004	1.68088E-001	9.56011E-001	3.57890E+000	9	...........
	51	0.693333	9.57595E-001	2.82275E-004	0.00000E+000	2.70306E-004	1.68088E-001	9.57960E-001	3.57890E+000	9	...........
	52	0.706667	9.59506E-001	2.80573E-004	0.00000E+000	2.69212E-004	1.68088E-001	9.59906E-001	3.57890E+000	9	...........
	53	0.72	9.61393E-001	2.81508E-004	0.00000E+000	2.70639E-004	1.68088E-001	9.61774E-001	3.57890E+000	9	...........
	54	0.733333	9.63205E-001	2.81334E-004	0.00000E+000	2.70982E-004	1.68088E-001	9.63608E-001	3.57890E+000	9	...........
	55	0.746667	9.64968E-001	2.79952E-004	0.00000E+000	2.70145E-004	1.68088E-001	9.65386E-001	3.57900E+000	9	...........
	56	0.76	9.66714E-001	2.80592E-004	0.00000E+000	2.71252E-004	1.68088E-001	9.67096E-001	3.57900E+000	9	...........
	57	0.773333	9.68377E-001	2.80637E-004	0.00000E+000	2.71762E-004	1.68088E-001	9.68765E-001	3.57900E+000	9	...........
	58	0.786667	9.70005E-001	2.80412E-004	0.00000E+000	2.72001E-004	1.68088E-001	9.70365E-001	3.57900E+000	9	...........
	59	0.8	9.71636E-001	2.80844E-004	0.00000E+000	2.72878E-004	1.68088E-001	9.71994E-001	3.57900E+000	9	...........
	60	0.813333	9.73299E-001	2.80434E-004	0.00000E+000	2.72946E-004	1.68088E-001	9.73609E-001	3.57900E+000	9	...........
	61	0.826667	9.74898E-001	2.81039E-004	0.00000E+000	2.73984E-004	1.68088E-001	9.75218E-001	3.57900E+000	9	...........
	62	0.84	9.76471E-001	2.80122E-004	0.00000E+000	2.73531E-004	1.68088E-001	9.76806E-001	3.57900E+000	9	...........
	63	0.853333	9.78005E-001	2.80304E-004	0.00000E+000	2.74139E-004	1.68088E-001	9.78375E-001	3.57900E+000	9	...........
	64	0.866667	9.79533E-001	2.80904E-004	0.00000E+000	2.75155E-004	1.68088E-001	9.79836E-001	3.57900E+000	9	...........
	65	0.88	9.80962E-001	2.81746E-004	0.00000E+000	2.76382E-004	1.68088E-001	9.81319E-001	3.57900E+000	9	...........
	66	0.893333	9.82416E-001	2.81501E-004	0.00000E+000	2.76551E-004	1.68088E-001	9.82780E-001	3.57900E+000	9	...........
	67	0.906667	9.83833E-001	2.80616E-004	0.00000E+000	2.76079E-004	1.68088E-001	9.84214E-001	3.57900E+000	9	...........
	68	0.92	9.85286E-001	2.80225E-004	0.00000E+000	2.76102E-004	1.68088E-001	9.85677E-001	3.57900E+000	9	...........
	69	0.933333	9.86684E-001	2.81520E-004	0.00000E+000	2.77771E-004	1.68088E-001	9.87091E-001	3.57900E+000	9	...........
	70	0.946667	9.88062E-001	2.81067E-004	0.00000E+000	2.77711E-004	1.68088E-001	9.88464E-001	3.57900E+000	9	...........
	71	0.96	9.89420E-001	2.80358E-004	0.00000E+000	2.77392E-004	1.68088E-001	9.89812E-001	3.57900E+000	9	...........
	72	0.97333	9.90775E-001	2.81491E-004	0.00000E+000	2.78894E-004	1.68088E-001	9.91161E-001	3.57900E+000	9	...........
	73	0.98667	9.92082E-001	2.81850E-004	0.00000E+000	2.79619E-004	1.68088E-001	9.92477E-001	3.57900E+000	9	...........
	74	1	9.93340E-001	2.80785E-004	0.00000E+000	2.78914E-004	1.68088E-001	9.93752E-001	3.57900E+000	9	...........
	75	1.01333	9.94632E-001	2.82121E-004	0.00000E+000	2.80607E-004	1.68088E-001	9.95040E-001	3.57900E+000	9	...........
	76	1.02667	9.95905E-001	2.81291E-004	0.00000E+000	2.80139E-004	1.68088E-001	9.96280E-001	3.57900E+000	9	...........
	77	1.04	9.97132E-001	2.81302E-004	0.00000E+000	2.80496E-004	1.68088E-001	9.97550E-001	3.57900E+000	9	...........
	78	1.05333	9.98389E-001	2.81345E-004	0.00000E+000	2.80892E-004	1.68088E-001	9.98785E-001	3.57900E+000	9	...........
	79	1.065	9.99549E-001	2.81262E-004	0.00000E+000	2.81135E-004	1.68088E-001	9.99930E-001	3.57900E+000	9	...........
STARTTIMEOFFSET	QUANT	1091.049	Start Time Offset (s)
