EXPLAIN
TAG	PWR800_CHARGE
TITLE	LABEL	PWR Cyclic Charge Discharge (Cell) - Charge Step	Test &Identifier
DATE	LABEL	7-7-2017	Date
TIME	LABEL	16:17:29	Time
NOTES	NOTES	3	&Notes...
	supercap test cell
	2.8mg
	6M KOH
PSTAT	PSTAT	IFC5000-01520	Potentiostat
CAPACITY	QUANT	1.00000E-003	Capacity (A-hr)
CELLTYPE	SELECTOR	1	&Cell Type
WORKINGCONNECTION	SELECTOR	0	&Working Lead
MAXCHARGETIME	VARIABLEANDUNITS	1.00000E+002	s	1.00000E+002	second(s)	Max &Charge Time
CHARGECURRENT	QUANT	2.80000E-004	&Charge Current (A) 
VOLTAGEFINISH	TWOPARAM	F	1.00000E-003	3.60000E+003	&Voltage Finish	 I (A) < 	Max Time(s)
SAMPLETIME	QUANT	1.00000E-002	Sa&mple Period (s)
CHARGESTOPAT1	MULTIPARAM	4	1.00000E+000	Charge Stop At &1	Voltage > Limit	V
CHARGESTOPAT2	MULTIPARAM	0	0.00000E+000	Charge Stop At &2	None	N/A
AESBHCSELECTOR	TOGGLE	F	Save Both Half Cells
IRCOMP	TOGGLE	F	IR &Measure
EOC	QUANT	0	Open Circuit (V)
SEQUENCER	TOGGLE	TRUE	Run as Sequence
PSTATMODEL	IQUANT	53	Pstat Model
PSTATSECTION	LABEL	IFC5000-01520	Pstat Section
PSTATSERIALNO	LABEL	01520	Pstat Serial Number
CTRLMODE	IQUANT	0	Control Mode
ELECTROMETER	IQUANT	1	RE=0 or CS=1
IESTAB	IQUANT	0	I/E Stability
CASPEED	IQUANT	4	Control Amp Speed
CONVENTION	IQUANT	1	Current Convention
ICHRANGE	IQUANT	2	Ich Range
ICHRANGEMODE	TOGGLE	T	Ich Auto Range
ICHOFFSETENABLE	TOGGLE	F	Ich Offset Enable
ICHOFFSET	QUANT	0	Ich Offset (V)
ICHFILTER	IQUANT	1	Ich Filter
VCHRANGE	IQUANT	2	Vch Range
VCHRANGEMODE	TOGGLE	T	Vch Auto Range
VCHOFFSETENABLE	TOGGLE	F	Vch Offset Enable
VCHOFFSET	QUANT	0	Vch Offset (V)
VCHFILTER	IQUANT	1	Vch Filter
IERANGELOWERLIMIT	IQUANT	9	I/E Range Lower Limit
IERANGEMODE	TOGGLE	F	I/E AutoRange
IERANGE	IQUANT	9	I/E Range
ACHSELECT	IQUANT	1	Ach Select
ACHRANGE	IQUANT	2	Ach Range
ACHOFFSETENABLE	TOGGLE	F	Ach Offset Enable
ACHOFFSET	QUANT	0	Ach Offset (V)
ACHFILTER	IQUANT	1	Ach Filter
CABLEID	IQUANT	14	Cable ID
DCCALDATE	LABEL	5-7-2017	DC Calibration Date
ACCALDATE	LABEL	12/3/2015	AC Calibration Date
FRAMEWORKVERSION	QUANT	7.01	Framework Version
INSTRUMENTVERSION	LABEL	4.00	Instrument Version
CURVE	TABLE	62
	Pt	T	Vf	Im	Vu	Pwr	Sig	Ach	Temp	IERange	Over
	#	s	V	A	V	W	V	V	deg C	#	bits
	0	0.013333	6.06861E-001	2.79293E-004	0.00000E+000	1.69492E-004	1.68088E-001	6.07102E-001	3.57850E+000	9	...........
	1	0.026667	6.37312E-001	2.80397E-004	0.00000E+000	1.78700E-004	1.68088E-001	6.37546E-001	3.57850E+000	9	...........
	2	0.04	6.63493E-001	2.80681E-004	0.00000E+000	1.86230E-004	1.68088E-001	6.63724E-001	3.57850E+000	9	...........
	3	0.053333	6.86534E-001	2.82132E-004	0.00000E+000	1.93693E-004	1.68088E-001	6.86784E-001	3.57850E+000	9	...........
	4	0.066667	7.07114E-001	2.80008E-004	0.00000E+000	1.97998E-004	1.68088E-001	7.07385E-001	3.57850E+000	9	...........
	5	0.08	7.25765E-001	2.80972E-004	0.00000E+000	2.03920E-004	1.68088E-001	7.26003E-001	3.57850E+000	9	...........
	6	0.093333	7.42662E-001	2.79918E-004	0.00000E+000	2.07884E-004	1.68088E-001	7.42944E-001	3.57850E+000	9	...........
	7	0.106667	7.58174E-001	2.80022E-004	0.00000E+000	2.12305E-004	1.68088E-001	7.58435E-001	3.57850E+000	9	...........
	8	0.12	7.72442E-001	2.80870E-004	0.00000E+000	2.16956E-004	1.68088E-001	7.72731E-001	3.57850E+000	9	...........
	9	0.133333	7.85617E-001	2.81351E-004	0.00000E+000	2.21034E-004	1.68088E-001	7.85909E-001	3.57850E+000	9	...........
	10	0.146667	7.97848E-001	2.81105E-004	0.00000E+000	2.24279E-004	1.68088E-001	7.98151E-001	3.57850E+000	9	...........
	11	0.16	8.09184E-001	2.81879E-004	0.00000E+000	2.28092E-004	1.68088E-001	8.09486E-001	3.57850E+000	9	...........
	12	0.173333	8.19727E-001	2.81455E-004	0.00000E+000	2.30717E-004	1.68088E-001	8.20035E-001	3.57850E+000	9	...........
	13	0.186667	8.29504E-001	2.81151E-004	0.00000E+000	2.33216E-004	1.68088E-001	8.29806E-001	3.57850E+000	9	...........
	14	0.2	8.38668E-001	2.80407E-004	0.00000E+000	2.35169E-004	1.68088E-001	8.38989E-001	3.57850E+000	9	...........
	15	0.213333	8.47268E-001	2.79709E-004	0.00000E+000	2.36989E-004	1.68088E-001	8.47588E-001	3.57850E+000	9	...........
	16	0.226667	8.55275E-001	2.81081E-004	0.00000E+000	2.40402E-004	1.68088E-001	8.55597E-001	3.57850E+000	9	...........
	17	0.24	8.62820E-001	2.80032E-004	0.00000E+000	2.41618E-004	1.68088E-001	8.63149E-001	3.57850E+000	9	...........
	18	0.253333	8.69960E-001	2.81375E-004	0.00000E+000	2.44785E-004	1.68088E-001	8.70263E-001	3.57850E+000	9	...........
	19	0.266667	8.76610E-001	2.81374E-004	0.00000E+000	2.46656E-004	1.68088E-001	8.76933E-001	3.57850E+000	9	...........
	20	0.28	8.82918E-001	2.81995E-004	0.00000E+000	2.48979E-004	1.68088E-001	8.83221E-001	3.57850E+000	9	...........
	21	0.293333	8.88805E-001	2.81294E-004	0.00000E+000	2.50015E-004	1.68088E-001	8.89133E-001	3.57850E+000	9	...........
	22	0.306667	8.94387E-001	2.80333E-004	0.00000E+000	2.50727E-004	1.68088E-001	8.94745E-001	3.57850E+000	9	...........
	23	0.32	8.99686E-001	2.80042E-004	0.00000E+000	2.51950E-004	1.68088E-001	9.00024E-001	3.57850E+000	9	...........
	24	0.333333	9.04712E-001	2.81585E-004	0.00000E+000	2.54753E-004	1.68088E-001	9.05048E-001	3.57850E+000	9	...........
	25	0.346667	9.09503E-001	2.81106E-004	0.00000E+000	2.55667E-004	1.68088E-001	9.09854E-001	3.57850E+000	9	...........
	26	0.36	9.14041E-001	2.81138E-004	0.00000E+000	2.56971E-004	1.68088E-001	9.14395E-001	3.57850E+000	9	...........
	27	0.373333	9.18318E-001	2.81290E-004	0.00000E+000	2.58314E-004	1.68088E-001	9.18672E-001	3.57850E+000	9	...........
	28	0.386667	9.22505E-001	2.81499E-004	0.00000E+000	2.59684E-004	1.68088E-001	9.22815E-001	3.57850E+000	9	...........
	29	0.4	9.26436E-001	2.80584E-004	0.00000E+000	2.59944E-004	1.68088E-001	9.26750E-001	3.57850E+000	9	...........
	30	0.413333	9.30186E-001	2.81921E-004	0.00000E+000	2.62239E-004	1.68088E-001	9.30498E-001	3.57850E+000	9	...........
	31	0.426667	9.33753E-001	2.82393E-004	0.00000E+000	2.63685E-004	1.68088E-001	9.34094E-001	3.57850E+000	9	...........
	32	0.44	9.37168E-001	2.80147E-004	0.00000E+000	2.62545E-004	1.68088E-001	9.37487E-001	3.57850E+000	9	...........
	33	0.453333	9.40415E-001	2.79671E-004	0.00000E+000	2.63007E-004	1.68088E-001	9.40735E-001	3.57850E+000	9	...........
	34	0.466667	9.43540E-001	2.81275E-004	0.00000E+000	2.65394E-004	1.68088E-001	9.43875E-001	3.57850E+000	9	...........
	35	0.48	9.46565E-001	2.81570E-004	0.00000E+000	2.66524E-004	1.68088E-001	9.46926E-001	3.57850E+000	9	...........
	36	0.493333	9.49532E-001	2.80349E-004	0.00000E+000	2.66200E-004	1.68088E-001	9.49853E-001	3.57850E+000	9	...........
	37	0.506667	9.52315E-001	2.81506E-004	0.00000E+000	2.68082E-004	1.68088E-001	9.52650E-001	3.57850E+000	9	...........
	38	0.52	9.55026E-001	2.80856E-004	0.00000E+000	2.68225E-004	1.68088E-001	9.55350E-001	3.57850E+000	9	...........
	39	0.533333	9.57678E-001	2.81618E-004	0.00000E+000	2.69699E-004	1.68088E-001	9.57970E-001	3.57850E+000	9	...........
	40	0.546667	9.60224E-001	2.80149E-004	0.00000E+000	2.69006E-004	1.68088E-001	9.60551E-001	3.57850E+000	9	...........
	41	0.56	9.62701E-001	2.80547E-004	0.00000E+000	2.70083E-004	1.68088E-001	9.63031E-001	3.57850E+000	9	...........
	42	0.573333	9.65083E-001	2.82026E-004	0.00000E+000	2.72179E-004	1.68088E-001	9.65420E-001	3.57850E+000	9	...........
	43	0.586667	9.67405E-001	2.80896E-004	0.00000E+000	2.71740E-004	1.68088E-001	9.67711E-001	3.57850E+000	9	...........
	44	0.6	9.69664E-001	2.81158E-004	0.00000E+000	2.72628E-004	1.68088E-001	9.69988E-001	3.57850E+000	9	...........
	45	0.613333	9.71842E-001	2.81430E-004	0.00000E+000	2.73506E-004	1.68088E-001	9.72191E-001	3.57850E+000	9	...........
	46	0.626667	9.73971E-001	2.81416E-004	0.00000E+000	2.74091E-004	1.68088E-001	9.74271E-001	3.57850E+000	9	...........
	47	0.64	9.76015E-001	2.80606E-004	0.00000E+000	2.73876E-004	1.68088E-001	9.76297E-001	3.57850E+000	9	...........
	48	0.653333	9.77950E-001	2.81501E-004	0.00000E+000	2.75294E-004	1.68088E-001	9.78296E-001	3.57850E+000	9	...........
	49	0.666667	9.79932E-001	2.81529E-004	0.00000E+000	2.75880E-004	1.68088E-001	9.80244E-001	3.57850E+000	9	...........
	50	0.68	9.81871E-001	2.82871E-004	0.00000E+000	2.77743E-004	1.68088E-001	9.82215E-001	3.57850E+000	9	...........
	51	0.693333	9.83728E-001	2.81196E-004	0.00000E+000	2.76620E-004	1.68088E-001	9.84064E-001	3.57850E+000	9	...........
	52	0.706667	9.85518E-001	2.79716E-004	0.00000E+000	2.75665E-004	1.68088E-001	9.85856E-001	3.57850E+000	9	...........
	53	0.72	9.87320E-001	2.81388E-004	0.00000E+000	2.77820E-004	1.68088E-001	9.87626E-001	3.57850E+000	9	...........
	54	0.733333	9.89083E-001	2.81385E-004	0.00000E+000	2.78313E-004	1.68088E-001	9.89394E-001	3.57850E+000	9	...........
	55	0.746667	9.90791E-001	2.81415E-004	0.00000E+000	2.78823E-004	1.68088E-001	9.91112E-001	3.57850E+000	9	...........
	56	0.76	9.92458E-001	2.80228E-004	0.00000E+000	2.78115E-004	1.68088E-001	9.92824E-001	3.57850E+000	9	...........
	57	0.773333	9.94063E-001	2.81274E-004	0.00000E+000	2.79604E-004	1.68088E-001	9.94420E-001	3.57850E+000	9	...........
	58	0.786667	9.95639E-001	2.81118E-004	0.00000E+000	2.79892E-004	1.68088E-001	9.95987E-001	3.57850E+000	9	...........
	59	0.8	9.97207E-001	2.80198E-004	0.00000E+000	2.79415E-004	1.68088E-001	9.97561E-001	3.57850E+000	9	...........
	60	0.813333	9.98788E-001	2.80628E-004	0.00000E+000	2.80288E-004	1.68088E-001	9.99129E-001	3.57850E+000	9	...........
	61	0.818333	9.99839E-001	2.80938E-004	0.00000E+000	2.80893E-004	1.68088E-001	1.00017E+000	3.57850E+000	9	...........
STARTTIMEOFFSET	QUANT	1823.891	Start Time Offset (s)
