EXPLAIN
TAG	PWR800_CHARGE
TITLE	LABEL	PWR Cyclic Charge Discharge (Cell) - Charge Step	Test &Identifier
DATE	LABEL	7-7-2017	Date
TIME	LABEL	15:51:16	Time
NOTES	NOTES	3	&Notes...
	supercap test cell
	2.8mg
	6M KOH
PSTAT	PSTAT	IFC5000-01520	Potentiostat
CAPACITY	QUANT	1.00000E-003	Capacity (A-hr)
CELLTYPE	SELECTOR	1	&Cell Type
WORKINGCONNECTION	SELECTOR	0	&Working Lead
MAXCHARGETIME	VARIABLEANDUNITS	1.00000E+002	s	1.00000E+002	second(s)	Max &Charge Time
CHARGECURRENT	QUANT	2.80000E-004	&Charge Current (A) 
VOLTAGEFINISH	TWOPARAM	F	1.00000E-003	3.60000E+003	&Voltage Finish	 I (A) < 	Max Time(s)
SAMPLETIME	QUANT	1.00000E-002	Sa&mple Period (s)
CHARGESTOPAT1	MULTIPARAM	4	1.00000E+000	Charge Stop At &1	Voltage > Limit	V
CHARGESTOPAT2	MULTIPARAM	0	0.00000E+000	Charge Stop At &2	None	N/A
AESBHCSELECTOR	TOGGLE	F	Save Both Half Cells
IRCOMP	TOGGLE	F	IR &Measure
EOC	QUANT	0	Open Circuit (V)
SEQUENCER	TOGGLE	TRUE	Run as Sequence
PSTATMODEL	IQUANT	53	Pstat Model
PSTATSECTION	LABEL	IFC5000-01520	Pstat Section
PSTATSERIALNO	LABEL	01520	Pstat Serial Number
CTRLMODE	IQUANT	0	Control Mode
ELECTROMETER	IQUANT	1	RE=0 or CS=1
IESTAB	IQUANT	0	I/E Stability
CASPEED	IQUANT	4	Control Amp Speed
CONVENTION	IQUANT	1	Current Convention
ICHRANGE	IQUANT	2	Ich Range
ICHRANGEMODE	TOGGLE	T	Ich Auto Range
ICHOFFSETENABLE	TOGGLE	F	Ich Offset Enable
ICHOFFSET	QUANT	0	Ich Offset (V)
ICHFILTER	IQUANT	1	Ich Filter
VCHRANGE	IQUANT	2	Vch Range
VCHRANGEMODE	TOGGLE	T	Vch Auto Range
VCHOFFSETENABLE	TOGGLE	F	Vch Offset Enable
VCHOFFSET	QUANT	0	Vch Offset (V)
VCHFILTER	IQUANT	1	Vch Filter
IERANGELOWERLIMIT	IQUANT	9	I/E Range Lower Limit
IERANGEMODE	TOGGLE	F	I/E AutoRange
IERANGE	IQUANT	9	I/E Range
ACHSELECT	IQUANT	1	Ach Select
ACHRANGE	IQUANT	2	Ach Range
ACHOFFSETENABLE	TOGGLE	F	Ach Offset Enable
ACHOFFSET	QUANT	0	Ach Offset (V)
ACHFILTER	IQUANT	1	Ach Filter
CABLEID	IQUANT	14	Cable ID
DCCALDATE	LABEL	5-7-2017	DC Calibration Date
ACCALDATE	LABEL	12/3/2015	AC Calibration Date
FRAMEWORKVERSION	QUANT	7.01	Framework Version
INSTRUMENTVERSION	LABEL	4.00	Instrument Version
CURVE	TABLE	101
	Pt	T	Vf	Im	Vu	Pwr	Sig	Ach	Temp	IERange	Over
	#	s	V	A	V	W	V	V	deg C	#	bits
	0	0.013333	5.87555E-001	2.80557E-004	0.00000E+000	1.64843E-004	1.68088E-001	5.87812E-001	3.57860E+000	9	...........
	1	0.026667	6.16441E-001	2.80531E-004	0.00000E+000	1.72931E-004	1.68088E-001	6.16703E-001	3.57860E+000	9	...........
	2	0.04	6.40850E-001	2.80995E-004	0.00000E+000	1.80075E-004	1.68088E-001	6.41121E-001	3.57860E+000	9	...........
	3	0.053333	6.62027E-001	2.81294E-004	0.00000E+000	1.86224E-004	1.68088E-001	6.62314E-001	3.57860E+000	9	...........
	4	0.066667	6.80702E-001	2.80821E-004	0.00000E+000	1.91155E-004	1.68088E-001	6.80987E-001	3.57860E+000	9	...........
	5	0.08	6.97409E-001	2.80886E-004	0.00000E+000	1.95892E-004	1.68088E-001	6.97704E-001	3.57860E+000	9	...........
	6	0.093333	7.12475E-001	2.81315E-004	0.00000E+000	2.00430E-004	1.68088E-001	7.12765E-001	3.57860E+000	9	...........
	7	0.106667	7.26194E-001	2.81169E-004	0.00000E+000	2.04183E-004	1.68088E-001	7.26494E-001	3.57860E+000	9	...........
	8	0.12	7.38751E-001	2.81183E-004	0.00000E+000	2.07724E-004	1.68088E-001	7.39019E-001	3.57860E+000	9	...........
	9	0.133333	7.50292E-001	2.80682E-004	0.00000E+000	2.10594E-004	1.68088E-001	7.50566E-001	3.57860E+000	9	...........
	10	0.146667	7.60950E-001	2.81060E-004	0.00000E+000	2.13872E-004	1.68088E-001	7.61219E-001	3.57860E+000	9	...........
	11	0.16	7.70855E-001	2.82808E-004	0.00000E+000	2.18004E-004	1.68088E-001	7.71149E-001	3.57860E+000	9	...........
	12	0.173333	7.80073E-001	2.80611E-004	0.00000E+000	2.18897E-004	1.68088E-001	7.80379E-001	3.57860E+000	9	...........
	13	0.186667	7.88655E-001	2.81671E-004	0.00000E+000	2.22141E-004	1.68088E-001	7.88955E-001	3.57860E+000	9	...........
	14	0.2	7.96726E-001	2.80441E-004	0.00000E+000	2.23434E-004	1.68088E-001	7.97033E-001	3.57860E+000	9	...........
	15	0.213333	8.04284E-001	2.80619E-004	0.00000E+000	2.25697E-004	1.68088E-001	8.04611E-001	3.57860E+000	9	...........
	16	0.226667	8.11365E-001	2.82098E-004	0.00000E+000	2.28885E-004	1.68088E-001	8.11682E-001	3.57860E+000	9	...........
	17	0.24	8.18040E-001	2.80321E-004	0.00000E+000	2.29314E-004	1.68088E-001	8.18352E-001	3.57860E+000	9	...........
	18	0.253333	8.24369E-001	2.80469E-004	0.00000E+000	2.31210E-004	1.68088E-001	8.24701E-001	3.57860E+000	9	...........
	19	0.266667	8.30363E-001	2.80474E-004	0.00000E+000	2.32895E-004	1.68088E-001	8.30683E-001	3.57860E+000	9	...........
	20	0.28	8.35997E-001	2.81178E-004	0.00000E+000	2.35064E-004	1.68088E-001	8.36348E-001	3.57860E+000	9	...........
	21	0.293333	8.41379E-001	2.80509E-004	0.00000E+000	2.36015E-004	1.68088E-001	8.41732E-001	3.57860E+000	9	...........
	22	0.306667	8.46551E-001	2.80542E-004	0.00000E+000	2.37493E-004	1.68088E-001	8.46893E-001	3.57860E+000	9	...........
	23	0.32	8.51417E-001	2.82106E-004	0.00000E+000	2.40190E-004	1.68088E-001	8.51797E-001	3.57860E+000	9	...........
	24	0.333333	8.56038E-001	2.80542E-004	0.00000E+000	2.40154E-004	1.68088E-001	8.56414E-001	3.57860E+000	9	...........
	25	0.346667	8.60486E-001	2.81348E-004	0.00000E+000	2.42096E-004	1.68088E-001	8.60838E-001	3.57860E+000	9	...........
	26	0.36	8.64686E-001	2.81247E-004	0.00000E+000	2.43190E-004	1.68088E-001	8.65071E-001	3.57860E+000	9	...........
	27	0.373333	8.68736E-001	2.80936E-004	0.00000E+000	2.44059E-004	1.68088E-001	8.69098E-001	3.57860E+000	9	...........
	28	0.386667	8.72636E-001	2.81879E-004	0.00000E+000	2.45977E-004	1.68088E-001	8.72992E-001	3.57860E+000	9	...........
	29	0.4	8.76370E-001	2.81950E-004	0.00000E+000	2.47093E-004	1.68088E-001	8.76721E-001	3.57860E+000	9	...........
	30	0.413333	8.79959E-001	2.80744E-004	0.00000E+000	2.47043E-004	1.68088E-001	8.80297E-001	3.57860E+000	9	...........
	31	0.426667	8.83418E-001	2.82224E-004	0.00000E+000	2.49322E-004	1.68088E-001	8.83767E-001	3.57860E+000	9	...........
	32	0.44	8.86744E-001	2.81057E-004	0.00000E+000	2.49226E-004	1.68088E-001	8.87082E-001	3.57860E+000	9	...........
	33	0.453333	8.89934E-001	2.80539E-004	0.00000E+000	2.49661E-004	1.68088E-001	8.90287E-001	3.57860E+000	9	...........
	34	0.466667	8.93038E-001	2.80925E-004	0.00000E+000	2.50877E-004	1.68088E-001	8.93387E-001	3.57860E+000	9	...........
	35	0.48	8.96043E-001	2.81833E-004	0.00000E+000	2.52534E-004	1.68088E-001	8.96425E-001	3.57860E+000	9	...........
	36	0.493333	8.98939E-001	2.80482E-004	0.00000E+000	2.52136E-004	1.68088E-001	8.99305E-001	3.57860E+000	9	...........
	37	0.506667	9.01728E-001	2.80661E-004	0.00000E+000	2.53080E-004	1.68088E-001	9.02105E-001	3.57860E+000	9	...........
	38	0.52	9.04436E-001	2.80914E-004	0.00000E+000	2.54068E-004	1.68088E-001	9.04824E-001	3.57860E+000	9	...........
	39	0.533333	9.07073E-001	2.81257E-004	0.00000E+000	2.55120E-004	1.68088E-001	9.07449E-001	3.57860E+000	9	...........
	40	0.546667	9.09643E-001	2.80920E-004	0.00000E+000	2.55537E-004	1.68088E-001	9.10003E-001	3.57860E+000	9	...........
	41	0.56	9.12097E-001	2.81128E-004	0.00000E+000	2.56416E-004	1.68088E-001	9.12457E-001	3.57860E+000	9	...........
	42	0.573333	9.14512E-001	2.80996E-004	0.00000E+000	2.56974E-004	1.68088E-001	9.14908E-001	3.57860E+000	9	...........
	43	0.586667	9.16868E-001	2.80875E-004	0.00000E+000	2.57525E-004	1.68088E-001	9.17253E-001	3.57860E+000	9	...........
	44	0.6	9.19167E-001	2.81678E-004	0.00000E+000	2.58910E-004	1.68088E-001	9.19542E-001	3.57860E+000	9	...........
	45	0.613333	9.21504E-001	2.81354E-004	0.00000E+000	2.59269E-004	1.68088E-001	9.21832E-001	3.57860E+000	9	...........
	46	0.626667	9.23657E-001	2.80435E-004	0.00000E+000	2.59026E-004	1.68088E-001	9.23987E-001	3.57860E+000	9	...........
	47	0.64	9.25775E-001	2.81354E-004	0.00000E+000	2.60471E-004	1.68088E-001	9.26110E-001	3.57860E+000	9	...........
	48	0.653333	9.27893E-001	2.81351E-004	0.00000E+000	2.61064E-004	1.68088E-001	9.28219E-001	3.57925E+000	9	...........
	49	0.666667	9.29913E-001	2.80591E-004	0.00000E+000	2.60925E-004	1.68088E-001	9.30268E-001	3.57990E+000	9	...........
	50	0.68	9.31916E-001	2.81437E-004	0.00000E+000	2.62275E-004	1.68088E-001	9.32252E-001	3.57990E+000	9	...........
	51	0.693333	9.33875E-001	2.81496E-004	0.00000E+000	2.62882E-004	1.68088E-001	9.34222E-001	3.57990E+000	9	...........
	52	0.706667	9.35775E-001	2.81146E-004	0.00000E+000	2.63089E-004	1.68088E-001	9.36095E-001	3.57990E+000	9	...........
	53	0.72	9.37648E-001	2.81248E-004	0.00000E+000	2.63712E-004	1.68088E-001	9.37988E-001	3.57990E+000	9	...........
	54	0.733333	9.39481E-001	2.81113E-004	0.00000E+000	2.64100E-004	1.68088E-001	9.39835E-001	3.57990E+000	9	...........
	55	0.746667	9.41309E-001	2.81897E-004	0.00000E+000	2.65353E-004	1.68088E-001	9.41661E-001	3.57990E+000	9	...........
	56	0.76	9.43101E-001	2.81287E-004	0.00000E+000	2.65282E-004	1.68088E-001	9.43446E-001	3.57990E+000	9	...........
	57	0.773333	9.44811E-001	2.82032E-004	0.00000E+000	2.66467E-004	1.68088E-001	9.45170E-001	3.57990E+000	9	...........
	58	0.786667	9.46529E-001	2.82159E-004	0.00000E+000	2.67071E-004	1.68088E-001	9.46904E-001	3.57990E+000	9	...........
	59	0.8	9.48236E-001	2.80934E-004	0.00000E+000	2.66391E-004	1.68088E-001	9.48596E-001	3.57990E+000	9	...........
	60	0.813333	9.49902E-001	2.81744E-004	0.00000E+000	2.67629E-004	1.68088E-001	9.50270E-001	3.57990E+000	9	...........
	61	0.826667	9.51527E-001	2.82058E-004	0.00000E+000	2.68385E-004	1.68088E-001	9.51919E-001	3.57990E+000	9	...........
	62	0.84	9.53122E-001	2.81127E-004	0.00000E+000	2.67949E-004	1.68088E-001	9.53499E-001	3.57990E+000	9	...........
	63	0.853333	9.54675E-001	2.81009E-004	0.00000E+000	2.68272E-004	1.68088E-001	9.55055E-001	3.57990E+000	9	...........
	64	0.866667	9.56210E-001	2.80979E-004	0.00000E+000	2.68675E-004	1.68088E-001	9.56593E-001	3.57990E+000	9	...........
	65	0.88	9.57717E-001	2.81235E-004	0.00000E+000	2.69343E-004	1.68088E-001	9.58110E-001	3.57990E+000	9	...........
	66	0.893333	9.59216E-001	2.81161E-004	0.00000E+000	2.69694E-004	1.68088E-001	9.59583E-001	3.57990E+000	9	...........
	67	0.906667	9.60653E-001	2.80530E-004	0.00000E+000	2.69492E-004	1.68088E-001	9.61046E-001	3.57990E+000	9	...........
	68	0.92	9.62071E-001	2.81593E-004	0.00000E+000	2.70912E-004	1.68088E-001	9.62470E-001	3.57990E+000	9	...........
	69	0.933333	9.63474E-001	2.81049E-004	0.00000E+000	2.70784E-004	1.68088E-001	9.63851E-001	3.57990E+000	9	...........
	70	0.946667	9.64873E-001	2.80621E-004	0.00000E+000	2.70764E-004	1.68088E-001	9.65210E-001	3.57990E+000	9	...........
	71	0.96	9.66221E-001	2.81057E-004	0.00000E+000	2.71564E-004	1.68088E-001	9.66576E-001	3.57990E+000	9	...........
	72	0.97333	9.67545E-001	2.81633E-004	0.00000E+000	2.72492E-004	1.68088E-001	9.67936E-001	3.57990E+000	9	...........
	73	0.98667	9.68907E-001	2.81398E-004	0.00000E+000	2.72649E-004	1.68088E-001	9.69310E-001	3.57990E+000	9	...........
	74	1	9.70243E-001	2.80568E-004	0.00000E+000	2.72219E-004	1.68088E-001	9.70663E-001	3.57990E+000	9	...........
	75	1.01333	9.71561E-001	2.81053E-004	0.00000E+000	2.73060E-004	1.68088E-001	9.71988E-001	3.57990E+000	9	...........
	76	1.02667	9.72925E-001	2.81061E-004	0.00000E+000	2.73451E-004	1.68088E-001	9.73306E-001	3.57990E+000	9	...........
	77	1.04	9.74244E-001	2.81715E-004	0.00000E+000	2.74459E-004	1.68088E-001	9.74616E-001	3.57990E+000	9	...........
	78	1.05333	9.75501E-001	2.81209E-004	0.00000E+000	2.74319E-004	1.68088E-001	9.75881E-001	3.57990E+000	9	...........
	79	1.06667	9.76720E-001	2.80582E-004	0.00000E+000	2.74050E-004	1.68088E-001	9.77101E-001	3.57990E+000	9	...........
	80	1.08	9.77943E-001	2.81515E-004	0.00000E+000	2.75305E-004	1.68088E-001	9.78345E-001	3.57990E+000	9	...........
	81	1.09333	9.79170E-001	2.81558E-004	0.00000E+000	2.75693E-004	1.68088E-001	9.79520E-001	3.57990E+000	9	...........
	82	1.10667	9.80361E-001	2.81128E-004	0.00000E+000	2.75607E-004	1.68088E-001	9.80726E-001	3.57990E+000	9	...........
	83	1.12	9.81544E-001	2.80980E-004	0.00000E+000	2.75795E-004	1.68088E-001	9.81947E-001	3.57990E+000	9	...........
	84	1.13333	9.82711E-001	2.80941E-004	0.00000E+000	2.76084E-004	1.68088E-001	9.83096E-001	3.57990E+000	9	...........
	85	1.14667	9.83844E-001	2.80554E-004	0.00000E+000	2.76022E-004	1.68088E-001	9.84239E-001	3.57990E+000	9	...........
	86	1.16	9.84983E-001	2.80864E-004	0.00000E+000	2.76646E-004	1.68088E-001	9.85382E-001	3.57990E+000	9	...........
	87	1.17333	9.86115E-001	2.81357E-004	0.00000E+000	2.77450E-004	1.68088E-001	9.86500E-001	3.57990E+000	9	...........
	88	1.18667	9.87230E-001	2.80990E-004	0.00000E+000	2.77402E-004	1.68088E-001	9.87636E-001	3.57990E+000	9	...........
	89	1.2	9.88400E-001	2.81314E-004	0.00000E+000	2.78051E-004	1.68088E-001	9.88786E-001	3.57990E+000	9	...........
	90	1.21333	9.89501E-001	2.80550E-004	0.00000E+000	2.77605E-004	1.68088E-001	9.89885E-001	3.57990E+000	9	...........
	91	1.22667	9.90581E-001	2.81923E-004	0.00000E+000	2.79268E-004	1.68088E-001	9.90986E-001	3.57990E+000	9	...........
	92	1.24	9.91669E-001	2.81050E-004	0.00000E+000	2.78709E-004	1.68088E-001	9.92066E-001	3.57990E+000	9	...........
	93	1.25333	9.92705E-001	2.81710E-004	0.00000E+000	2.79655E-004	1.68088E-001	9.93121E-001	3.57990E+000	9	...........
	94	1.26667	9.93741E-001	2.80589E-004	0.00000E+000	2.78832E-004	1.68088E-001	9.94154E-001	3.57990E+000	9	...........
	95	1.28	9.94822E-001	2.81667E-004	0.00000E+000	2.80208E-004	1.68088E-001	9.95227E-001	3.57990E+000	9	...........
	96	1.29333	9.95882E-001	2.81466E-004	0.00000E+000	2.80307E-004	1.68088E-001	9.96271E-001	3.57990E+000	9	...........
	97	1.30667	9.96894E-001	2.80751E-004	0.00000E+000	2.79879E-004	1.68088E-001	9.97301E-001	3.57990E+000	9	...........
	98	1.32	9.97953E-001	2.81546E-004	0.00000E+000	2.80970E-004	1.68088E-001	9.98342E-001	3.57990E+000	9	...........
	99	1.33333	9.98963E-001	2.81504E-004	0.00000E+000	2.81213E-004	1.68088E-001	9.99365E-001	3.57990E+000	9	...........
	100	1.34167	9.99784E-001	2.80367E-004	0.00000E+000	2.80307E-004	1.68088E-001	1.00016E+000	3.57990E+000	9	...........
STARTTIMEOFFSET	QUANT	730.3169	Start Time Offset (s)
