EXPLAIN
TAG	PWR800_CHARGE
TITLE	LABEL	PWR Cyclic Charge Discharge (Cell) - Charge Step	Test &Identifier
DATE	LABEL	7-7-2017	Date
TIME	LABEL	16:03:48	Time
NOTES	NOTES	3	&Notes...
	supercap test cell
	2.8mg
	6M KOH
PSTAT	PSTAT	IFC5000-01520	Potentiostat
CAPACITY	QUANT	1.00000E-003	Capacity (A-hr)
CELLTYPE	SELECTOR	1	&Cell Type
WORKINGCONNECTION	SELECTOR	0	&Working Lead
MAXCHARGETIME	VARIABLEANDUNITS	1.00000E+002	s	1.00000E+002	second(s)	Max &Charge Time
CHARGECURRENT	QUANT	2.80000E-004	&Charge Current (A) 
VOLTAGEFINISH	TWOPARAM	F	1.00000E-003	3.60000E+003	&Voltage Finish	 I (A) < 	Max Time(s)
SAMPLETIME	QUANT	1.00000E-002	Sa&mple Period (s)
CHARGESTOPAT1	MULTIPARAM	4	1.00000E+000	Charge Stop At &1	Voltage > Limit	V
CHARGESTOPAT2	MULTIPARAM	0	0.00000E+000	Charge Stop At &2	None	N/A
AESBHCSELECTOR	TOGGLE	F	Save Both Half Cells
IRCOMP	TOGGLE	F	IR &Measure
EOC	QUANT	0	Open Circuit (V)
SEQUENCER	TOGGLE	TRUE	Run as Sequence
PSTATMODEL	IQUANT	53	Pstat Model
PSTATSECTION	LABEL	IFC5000-01520	Pstat Section
PSTATSERIALNO	LABEL	01520	Pstat Serial Number
CTRLMODE	IQUANT	0	Control Mode
ELECTROMETER	IQUANT	1	RE=0 or CS=1
IESTAB	IQUANT	0	I/E Stability
CASPEED	IQUANT	4	Control Amp Speed
CONVENTION	IQUANT	1	Current Convention
ICHRANGE	IQUANT	2	Ich Range
ICHRANGEMODE	TOGGLE	T	Ich Auto Range
ICHOFFSETENABLE	TOGGLE	F	Ich Offset Enable
ICHOFFSET	QUANT	0	Ich Offset (V)
ICHFILTER	IQUANT	1	Ich Filter
VCHRANGE	IQUANT	2	Vch Range
VCHRANGEMODE	TOGGLE	T	Vch Auto Range
VCHOFFSETENABLE	TOGGLE	F	Vch Offset Enable
VCHOFFSET	QUANT	0	Vch Offset (V)
VCHFILTER	IQUANT	1	Vch Filter
IERANGELOWERLIMIT	IQUANT	9	I/E Range Lower Limit
IERANGEMODE	TOGGLE	F	I/E AutoRange
IERANGE	IQUANT	9	I/E Range
ACHSELECT	IQUANT	1	Ach Select
ACHRANGE	IQUANT	2	Ach Range
ACHOFFSETENABLE	TOGGLE	F	Ach Offset Enable
ACHOFFSET	QUANT	0	Ach Offset (V)
ACHFILTER	IQUANT	1	Ach Filter
CABLEID	IQUANT	14	Cable ID
DCCALDATE	LABEL	5-7-2017	DC Calibration Date
ACCALDATE	LABEL	12/3/2015	AC Calibration Date
FRAMEWORKVERSION	QUANT	7.01	Framework Version
INSTRUMENTVERSION	LABEL	4.00	Instrument Version
CURVE	TABLE	74
	Pt	T	Vf	Im	Vu	Pwr	Sig	Ach	Temp	IERange	Over
	#	s	V	A	V	W	V	V	deg C	#	bits
	0	0.013333	5.97534E-001	2.81333E-004	0.00000E+000	1.68106E-004	1.68088E-001	5.97850E-001	3.57880E+000	9	...........
	1	0.026667	6.27581E-001	2.80868E-004	0.00000E+000	1.76267E-004	1.68088E-001	6.27836E-001	3.57880E+000	9	...........
	2	0.04	6.53172E-001	2.80093E-004	0.00000E+000	1.82949E-004	1.68088E-001	6.53462E-001	3.57880E+000	9	...........
	3	0.053333	6.75596E-001	2.80395E-004	0.00000E+000	1.89434E-004	1.68088E-001	6.75889E-001	3.57880E+000	9	...........
	4	0.066667	6.95526E-001	2.82306E-004	0.00000E+000	1.96351E-004	1.68088E-001	6.95800E-001	3.57880E+000	9	...........
	5	0.08	7.13420E-001	2.82262E-004	0.00000E+000	2.01371E-004	1.68088E-001	7.13721E-001	3.57880E+000	9	...........
	6	0.093333	7.29725E-001	2.80516E-004	0.00000E+000	2.04699E-004	1.68088E-001	7.30001E-001	3.57880E+000	9	...........
	7	0.106667	7.44577E-001	2.81214E-004	0.00000E+000	2.09385E-004	1.68088E-001	7.44866E-001	3.57880E+000	9	...........
	8	0.12	7.58225E-001	2.80412E-004	0.00000E+000	2.12615E-004	1.68088E-001	7.58520E-001	3.57880E+000	9	...........
	9	0.133333	7.70836E-001	2.80978E-004	0.00000E+000	2.16588E-004	1.68088E-001	7.71129E-001	3.57880E+000	9	...........
	10	0.146667	7.82501E-001	2.81817E-004	0.00000E+000	2.20522E-004	1.68088E-001	7.82812E-001	3.57880E+000	9	...........
	11	0.16	7.93360E-001	2.81396E-004	0.00000E+000	2.23248E-004	1.68088E-001	7.93650E-001	3.57880E+000	9	...........
	12	0.173333	8.03425E-001	2.80638E-004	0.00000E+000	2.25471E-004	1.68088E-001	8.03753E-001	3.57880E+000	9	...........
	13	0.186667	8.12839E-001	2.82059E-004	0.00000E+000	2.29268E-004	1.68088E-001	8.13168E-001	3.57880E+000	9	...........
	14	0.2	8.21674E-001	2.81109E-004	0.00000E+000	2.30980E-004	1.68088E-001	8.22023E-001	3.57880E+000	9	...........
	15	0.213333	8.29914E-001	2.80814E-004	0.00000E+000	2.33051E-004	1.68088E-001	8.30248E-001	3.57880E+000	9	...........
	16	0.226667	8.37642E-001	2.80473E-004	0.00000E+000	2.34936E-004	1.68088E-001	8.38002E-001	3.57880E+000	9	...........
	17	0.24	8.44931E-001	2.81081E-004	0.00000E+000	2.37494E-004	1.68088E-001	8.45317E-001	3.57880E+000	9	...........
	18	0.253333	8.51804E-001	2.81308E-004	0.00000E+000	2.39619E-004	1.68088E-001	8.52166E-001	3.57880E+000	9	...........
	19	0.266667	8.58286E-001	2.82572E-004	0.00000E+000	2.42528E-004	1.68088E-001	8.58639E-001	3.57880E+000	9	...........
	20	0.28	8.64392E-001	2.80763E-004	0.00000E+000	2.42689E-004	1.68088E-001	8.64754E-001	3.57880E+000	9	...........
	21	0.293333	8.70181E-001	2.80513E-004	0.00000E+000	2.44097E-004	1.68088E-001	8.70551E-001	3.57880E+000	9	...........
	22	0.306667	8.75698E-001	2.81727E-004	0.00000E+000	2.46708E-004	1.68088E-001	8.76017E-001	3.57880E+000	9	...........
	23	0.32	8.80886E-001	2.82199E-004	0.00000E+000	2.48585E-004	1.68088E-001	8.81238E-001	3.57880E+000	9	...........
	24	0.333333	8.85834E-001	2.82204E-004	0.00000E+000	2.49985E-004	1.68088E-001	8.86203E-001	3.57880E+000	9	...........
	25	0.346667	8.90496E-001	2.81452E-004	0.00000E+000	2.50632E-004	1.68088E-001	8.90842E-001	3.57880E+000	9	...........
	26	0.36	8.94932E-001	2.81239E-004	0.00000E+000	2.51690E-004	1.68088E-001	8.95300E-001	3.57880E+000	9	...........
	27	0.373333	8.99205E-001	2.81270E-004	0.00000E+000	2.52919E-004	1.68088E-001	8.99555E-001	3.57880E+000	9	...........
	28	0.386667	9.03258E-001	2.80178E-004	0.00000E+000	2.53073E-004	1.68088E-001	9.03625E-001	3.57880E+000	9	...........
	29	0.4	9.07155E-001	2.80763E-004	0.00000E+000	2.54695E-004	1.68088E-001	9.07510E-001	3.57880E+000	9	...........
	30	0.413333	9.10904E-001	2.81099E-004	0.00000E+000	2.56054E-004	1.68088E-001	9.11239E-001	3.57880E+000	9	...........
	31	0.426667	9.14493E-001	2.81470E-004	0.00000E+000	2.57402E-004	1.68088E-001	9.14854E-001	3.57880E+000	9	...........
	32	0.44	9.17949E-001	2.81664E-004	0.00000E+000	2.58553E-004	1.68088E-001	9.18288E-001	3.57880E+000	9	...........
	33	0.453333	9.21327E-001	2.80689E-004	0.00000E+000	2.58606E-004	1.68088E-001	9.21648E-001	3.57880E+000	9	...........
	34	0.466667	9.24539E-001	2.81743E-004	0.00000E+000	2.60483E-004	1.68088E-001	9.24867E-001	3.57880E+000	9	...........
	35	0.48	9.27606E-001	2.81050E-004	0.00000E+000	2.60704E-004	1.68088E-001	9.27952E-001	3.57880E+000	9	...........
	36	0.493333	9.30538E-001	2.81236E-004	0.00000E+000	2.61700E-004	1.68088E-001	9.30870E-001	3.57880E+000	9	...........
	37	0.506667	9.33375E-001	2.82290E-004	0.00000E+000	2.63483E-004	1.68088E-001	9.33722E-001	3.57880E+000	9	...........
	38	0.52	9.36155E-001	2.80192E-004	0.00000E+000	2.62303E-004	1.68088E-001	9.36498E-001	3.57880E+000	9	...........
	39	0.533333	9.38847E-001	2.80853E-004	0.00000E+000	2.63678E-004	1.68088E-001	9.39211E-001	3.57880E+000	9	...........
	40	0.546667	9.41436E-001	2.82035E-004	0.00000E+000	2.65518E-004	1.68088E-001	9.41771E-001	3.57885E+000	9	...........
	41	0.56	9.43915E-001	2.80203E-004	0.00000E+000	2.64488E-004	1.68088E-001	9.44290E-001	3.57900E+000	9	...........
	42	0.573333	9.46362E-001	2.81293E-004	0.00000E+000	2.66205E-004	1.68088E-001	9.46724E-001	3.57900E+000	9	...........
	43	0.586667	9.48752E-001	2.81493E-004	0.00000E+000	2.67067E-004	1.68088E-001	9.49083E-001	3.57900E+000	9	...........
	44	0.6	9.51057E-001	2.82489E-004	0.00000E+000	2.68663E-004	1.68088E-001	9.51388E-001	3.57900E+000	9	...........
	45	0.613333	9.53270E-001	2.80550E-004	0.00000E+000	2.67440E-004	1.68088E-001	9.53609E-001	3.57900E+000	9	...........
	46	0.626667	9.55433E-001	2.81653E-004	0.00000E+000	2.69101E-004	1.68088E-001	9.55789E-001	3.57900E+000	9	...........
	47	0.64	9.57523E-001	2.80891E-004	0.00000E+000	2.68959E-004	1.68088E-001	9.57874E-001	3.57900E+000	9	...........
	48	0.653333	9.59572E-001	2.81343E-004	0.00000E+000	2.69969E-004	1.68088E-001	9.59936E-001	3.57900E+000	9	...........
	49	0.666667	9.61586E-001	2.80302E-004	0.00000E+000	2.69535E-004	1.68088E-001	9.61963E-001	3.57900E+000	9	...........
	50	0.68	9.63556E-001	2.80924E-004	0.00000E+000	2.70686E-004	1.68088E-001	9.63950E-001	3.57900E+000	9	...........
	51	0.693333	9.65493E-001	2.82400E-004	0.00000E+000	2.72656E-004	1.68088E-001	9.65891E-001	3.57900E+000	9	...........
	52	0.706667	9.67365E-001	2.80976E-004	0.00000E+000	2.71807E-004	1.68088E-001	9.67743E-001	3.57900E+000	9	...........
	53	0.72	9.69167E-001	2.80094E-004	0.00000E+000	2.71458E-004	1.68088E-001	9.69550E-001	3.57900E+000	9	...........
	54	0.733333	9.70959E-001	2.81888E-004	0.00000E+000	2.73702E-004	1.68088E-001	9.71373E-001	3.57900E+000	9	...........
	55	0.746667	9.72767E-001	2.81055E-004	0.00000E+000	2.73401E-004	1.68088E-001	9.73156E-001	3.57900E+000	9	...........
	56	0.76	9.74535E-001	2.81540E-004	0.00000E+000	2.74371E-004	1.68088E-001	9.74880E-001	3.57900E+000	9	...........
	57	0.773333	9.76236E-001	2.80675E-004	0.00000E+000	2.74005E-004	1.68088E-001	9.76604E-001	3.57900E+000	9	...........
	58	0.786667	9.77913E-001	2.80954E-004	0.00000E+000	2.74749E-004	1.68088E-001	9.78268E-001	3.57900E+000	9	...........
	59	0.8	9.79530E-001	2.81758E-004	0.00000E+000	2.75990E-004	1.68088E-001	9.79881E-001	3.57900E+000	9	...........
	60	0.813333	9.81088E-001	2.80987E-004	0.00000E+000	2.75673E-004	1.68088E-001	9.81466E-001	3.57900E+000	9	...........
	61	0.826667	9.82677E-001	2.80382E-004	0.00000E+000	2.75525E-004	1.68088E-001	9.83020E-001	3.57900E+000	9	...........
	62	0.84	9.84166E-001	2.80128E-004	0.00000E+000	2.75693E-004	1.68088E-001	9.84560E-001	3.57900E+000	9	...........
	63	0.853333	9.85681E-001	2.80873E-004	0.00000E+000	2.76851E-004	1.68088E-001	9.86066E-001	3.57900E+000	9	...........
	64	0.866667	9.87136E-001	2.80916E-004	0.00000E+000	2.77302E-004	1.68088E-001	9.87532E-001	3.57900E+000	9	...........
	65	0.88	9.88626E-001	2.81488E-004	0.00000E+000	2.78286E-004	1.68088E-001	9.88996E-001	3.57900E+000	9	...........
	66	0.893333	9.90082E-001	2.81099E-004	0.00000E+000	2.78311E-004	1.68088E-001	9.90439E-001	3.57900E+000	9	...........
	67	0.906667	9.91458E-001	2.81064E-004	0.00000E+000	2.78663E-004	1.68088E-001	9.91837E-001	3.57900E+000	9	...........
	68	0.92	9.92861E-001	2.83231E-004	0.00000E+000	2.81209E-004	1.68088E-001	9.93242E-001	3.57900E+000	9	...........
	69	0.933333	9.94234E-001	2.81722E-004	0.00000E+000	2.80098E-004	1.68088E-001	9.94651E-001	3.57900E+000	9	...........
	70	0.946667	9.95608E-001	2.81130E-004	0.00000E+000	2.79896E-004	1.68088E-001	9.96005E-001	3.57900E+000	9	...........
	71	0.96	9.96930E-001	2.82566E-004	0.00000E+000	2.81699E-004	1.68088E-001	9.97362E-001	3.57900E+000	9	...........
	72	0.97333	9.98324E-001	2.80204E-004	0.00000E+000	2.79735E-004	1.68088E-001	9.98754E-001	3.57900E+000	9	...........
	73	0.985	9.99570E-001	2.80132E-004	0.00000E+000	2.80011E-004	1.68088E-001	9.99993E-001	3.57900E+000	9	...........
STARTTIMEOFFSET	QUANT	1268.844	Start Time Offset (s)
