EXPLAIN
TAG	PWR800_CHARGE
TITLE	LABEL	PWR Cyclic Charge Discharge (Cell) - Charge Step	Test &Identifier
DATE	LABEL	7-7-2017	Date
TIME	LABEL	16:08:43	Time
NOTES	NOTES	3	&Notes...
	supercap test cell
	2.8mg
	6M KOH
PSTAT	PSTAT	IFC5000-01520	Potentiostat
CAPACITY	QUANT	1.00000E-003	Capacity (A-hr)
CELLTYPE	SELECTOR	1	&Cell Type
WORKINGCONNECTION	SELECTOR	0	&Working Lead
MAXCHARGETIME	VARIABLEANDUNITS	1.00000E+002	s	1.00000E+002	second(s)	Max &Charge Time
CHARGECURRENT	QUANT	2.80000E-004	&Charge Current (A) 
VOLTAGEFINISH	TWOPARAM	F	1.00000E-003	3.60000E+003	&Voltage Finish	 I (A) < 	Max Time(s)
SAMPLETIME	QUANT	1.00000E-002	Sa&mple Period (s)
CHARGESTOPAT1	MULTIPARAM	4	1.00000E+000	Charge Stop At &1	Voltage > Limit	V
CHARGESTOPAT2	MULTIPARAM	0	0.00000E+000	Charge Stop At &2	None	N/A
AESBHCSELECTOR	TOGGLE	F	Save Both Half Cells
IRCOMP	TOGGLE	F	IR &Measure
EOC	QUANT	0	Open Circuit (V)
SEQUENCER	TOGGLE	TRUE	Run as Sequence
PSTATMODEL	IQUANT	53	Pstat Model
PSTATSECTION	LABEL	IFC5000-01520	Pstat Section
PSTATSERIALNO	LABEL	01520	Pstat Serial Number
CTRLMODE	IQUANT	0	Control Mode
ELECTROMETER	IQUANT	1	RE=0 or CS=1
IESTAB	IQUANT	0	I/E Stability
CASPEED	IQUANT	4	Control Amp Speed
CONVENTION	IQUANT	1	Current Convention
ICHRANGE	IQUANT	2	Ich Range
ICHRANGEMODE	TOGGLE	T	Ich Auto Range
ICHOFFSETENABLE	TOGGLE	F	Ich Offset Enable
ICHOFFSET	QUANT	0	Ich Offset (V)
ICHFILTER	IQUANT	1	Ich Filter
VCHRANGE	IQUANT	2	Vch Range
VCHRANGEMODE	TOGGLE	T	Vch Auto Range
VCHOFFSETENABLE	TOGGLE	F	Vch Offset Enable
VCHOFFSET	QUANT	0	Vch Offset (V)
VCHFILTER	IQUANT	1	Vch Filter
IERANGELOWERLIMIT	IQUANT	9	I/E Range Lower Limit
IERANGEMODE	TOGGLE	F	I/E AutoRange
IERANGE	IQUANT	9	I/E Range
ACHSELECT	IQUANT	1	Ach Select
ACHRANGE	IQUANT	2	Ach Range
ACHOFFSETENABLE	TOGGLE	F	Ach Offset Enable
ACHOFFSET	QUANT	0	Ach Offset (V)
ACHFILTER	IQUANT	1	Ach Filter
CABLEID	IQUANT	14	Cable ID
DCCALDATE	LABEL	5-7-2017	DC Calibration Date
ACCALDATE	LABEL	12/3/2015	AC Calibration Date
FRAMEWORKVERSION	QUANT	7.01	Framework Version
INSTRUMENTVERSION	LABEL	4.00	Instrument Version
CURVE	TABLE	70
	Pt	T	Vf	Im	Vu	Pwr	Sig	Ach	Temp	IERange	Over
	#	s	V	A	V	W	V	V	deg C	#	bits
	0	0.013333	6.02379E-001	2.80824E-004	0.00000E+000	1.69163E-004	1.68088E-001	6.02687E-001	3.57870E+000	9	...........
	1	0.026667	6.32423E-001	2.81237E-004	0.00000E+000	1.77860E-004	1.68088E-001	6.32676E-001	3.57870E+000	9	...........
	2	0.04	6.58103E-001	2.82408E-004	0.00000E+000	1.85854E-004	1.68088E-001	6.58373E-001	3.57870E+000	9	...........
	3	0.053333	6.80634E-001	2.81396E-004	0.00000E+000	1.91528E-004	1.68088E-001	6.80907E-001	3.57870E+000	9	...........
	4	0.066667	7.00683E-001	2.82200E-004	0.00000E+000	1.97733E-004	1.68088E-001	7.00968E-001	3.57870E+000	9	...........
	5	0.08	7.18755E-001	2.81628E-004	0.00000E+000	2.02422E-004	1.68088E-001	7.19044E-001	3.57870E+000	9	...........
	6	0.093333	7.35166E-001	2.80928E-004	0.00000E+000	2.06529E-004	1.68088E-001	7.35451E-001	3.57870E+000	9	...........
	7	0.106667	7.50177E-001	2.80808E-004	0.00000E+000	2.10656E-004	1.68088E-001	7.50469E-001	3.57870E+000	9	...........
	8	0.12	7.63981E-001	2.81071E-004	0.00000E+000	2.14733E-004	1.68088E-001	7.64281E-001	3.57870E+000	9	...........
	9	0.133333	7.76725E-001	2.81677E-004	0.00000E+000	2.18786E-004	1.68088E-001	7.77012E-001	3.57870E+000	9	...........
	10	0.146667	7.88518E-001	2.81194E-004	0.00000E+000	2.21726E-004	1.68088E-001	7.88819E-001	3.57870E+000	9	...........
	11	0.16	7.99493E-001	2.81191E-004	0.00000E+000	2.24810E-004	1.68088E-001	7.99760E-001	3.57870E+000	9	...........
	12	0.173333	8.09643E-001	2.80682E-004	0.00000E+000	2.27253E-004	1.68088E-001	8.09956E-001	3.57870E+000	9	...........
	13	0.186667	8.19158E-001	2.81200E-004	0.00000E+000	2.30347E-004	1.68088E-001	8.19463E-001	3.57870E+000	9	...........
	14	0.2	8.28071E-001	2.81366E-004	0.00000E+000	2.32991E-004	1.68088E-001	8.28347E-001	3.57870E+000	9	...........
	15	0.213333	8.36381E-001	2.82314E-004	0.00000E+000	2.36122E-004	1.68088E-001	8.36680E-001	3.57870E+000	9	...........
	16	0.226667	8.44198E-001	2.81522E-004	0.00000E+000	2.37661E-004	1.68088E-001	8.44514E-001	3.57870E+000	9	...........
	17	0.24	8.51520E-001	2.81576E-004	0.00000E+000	2.39768E-004	1.68088E-001	8.51873E-001	3.57870E+000	9	...........
	18	0.253333	8.58402E-001	2.82021E-004	0.00000E+000	2.42088E-004	1.68088E-001	8.58766E-001	3.57870E+000	9	...........
	19	0.266667	8.64889E-001	2.81385E-004	0.00000E+000	2.43366E-004	1.68088E-001	8.65236E-001	3.57870E+000	9	...........
	20	0.28	8.71041E-001	2.81716E-004	0.00000E+000	2.45386E-004	1.68088E-001	8.71351E-001	3.57870E+000	9	...........
	21	0.293333	8.76846E-001	2.81964E-004	0.00000E+000	2.47239E-004	1.68088E-001	8.77164E-001	3.57870E+000	9	...........
	22	0.306667	8.82378E-001	2.81245E-004	0.00000E+000	2.48164E-004	1.68088E-001	8.82686E-001	3.57870E+000	9	...........
	23	0.32	8.87561E-001	2.81795E-004	0.00000E+000	2.50110E-004	1.68088E-001	8.87915E-001	3.57870E+000	9	...........
	24	0.333333	8.92538E-001	2.81375E-004	0.00000E+000	2.51138E-004	1.68088E-001	8.92872E-001	3.57870E+000	9	...........
	25	0.346667	8.97246E-001	2.80743E-004	0.00000E+000	2.51895E-004	1.68088E-001	8.97617E-001	3.57870E+000	9	...........
	26	0.36	9.01730E-001	2.79942E-004	0.00000E+000	2.52432E-004	1.68088E-001	9.02115E-001	3.57870E+000	9	...........
	27	0.373333	9.06006E-001	2.82506E-004	0.00000E+000	2.55952E-004	1.68088E-001	9.06398E-001	3.57870E+000	9	...........
	28	0.386667	9.10102E-001	2.79889E-004	0.00000E+000	2.54727E-004	1.68088E-001	9.10460E-001	3.57870E+000	9	...........
	29	0.4	9.14017E-001	2.80890E-004	0.00000E+000	2.56738E-004	1.68088E-001	9.14402E-001	3.57870E+000	9	...........
	30	0.413333	9.17754E-001	2.82062E-004	0.00000E+000	2.58863E-004	1.68088E-001	9.18143E-001	3.57870E+000	9	...........
	31	0.426667	9.21393E-001	2.81364E-004	0.00000E+000	2.59247E-004	1.68088E-001	9.21754E-001	3.57870E+000	9	...........
	32	0.44	9.24858E-001	2.81084E-004	0.00000E+000	2.59962E-004	1.68088E-001	9.25198E-001	3.57870E+000	9	...........
	33	0.453333	9.28189E-001	2.80220E-004	0.00000E+000	2.60097E-004	1.68088E-001	9.28543E-001	3.57870E+000	9	...........
	34	0.466667	9.31344E-001	2.81250E-004	0.00000E+000	2.61941E-004	1.68088E-001	9.31698E-001	3.57870E+000	9	...........
	35	0.48	9.34383E-001	2.80677E-004	0.00000E+000	2.62260E-004	1.68088E-001	9.34779E-001	3.57870E+000	9	...........
	36	0.493333	9.37324E-001	2.81862E-004	0.00000E+000	2.64196E-004	1.68088E-001	9.37713E-001	3.57870E+000	9	...........
	37	0.506667	9.40123E-001	2.80975E-004	0.00000E+000	2.64151E-004	1.68088E-001	9.40535E-001	3.57870E+000	9	...........
	38	0.52	9.42905E-001	2.81235E-004	0.00000E+000	2.65177E-004	1.68088E-001	9.43276E-001	3.57870E+000	9	...........
	39	0.533333	9.45555E-001	2.79870E-004	0.00000E+000	2.64632E-004	1.68088E-001	9.45968E-001	3.57870E+000	9	...........
	40	0.546667	9.48208E-001	2.80356E-004	0.00000E+000	2.65836E-004	1.68088E-001	9.48576E-001	3.57870E+000	9	...........
	41	0.56	9.50695E-001	2.80778E-004	0.00000E+000	2.66935E-004	1.68088E-001	9.51073E-001	3.57870E+000	9	...........
	42	0.573333	9.53107E-001	2.81850E-004	0.00000E+000	2.68634E-004	1.68088E-001	9.53463E-001	3.57870E+000	9	...........
	43	0.586667	9.55438E-001	2.82399E-004	0.00000E+000	2.69815E-004	1.68088E-001	9.55794E-001	3.57833E+000	9	...........
	44	0.6	9.57659E-001	2.81840E-004	0.00000E+000	2.69907E-004	1.68088E-001	9.58041E-001	3.57810E+000	9	...........
	45	0.613333	9.59849E-001	2.80767E-004	0.00000E+000	2.69494E-004	1.68088E-001	9.60230E-001	3.57810E+000	9	...........
	46	0.626667	9.61987E-001	2.81906E-004	0.00000E+000	2.71189E-004	1.68088E-001	9.62359E-001	3.57810E+000	9	...........
	47	0.64	9.64063E-001	2.80031E-004	0.00000E+000	2.69968E-004	1.68088E-001	9.64456E-001	3.57810E+000	9	...........
	48	0.653333	9.66127E-001	2.81310E-004	0.00000E+000	2.71781E-004	1.68088E-001	9.66503E-001	3.57810E+000	9	...........
	49	0.666667	9.68112E-001	2.82480E-004	0.00000E+000	2.73472E-004	1.68088E-001	9.68508E-001	3.57810E+000	9	...........
	50	0.68	9.70055E-001	2.80387E-004	0.00000E+000	2.71990E-004	1.68088E-001	9.70446E-001	3.57810E+000	9	...........
	51	0.693333	9.71966E-001	2.80708E-004	0.00000E+000	2.72839E-004	1.68088E-001	9.72370E-001	3.57810E+000	9	...........
	52	0.706667	9.73865E-001	2.79436E-004	0.00000E+000	2.72133E-004	1.68088E-001	9.74245E-001	3.57810E+000	9	...........
	53	0.72	9.75665E-001	2.82835E-004	0.00000E+000	2.75952E-004	1.68088E-001	9.76050E-001	3.57810E+000	9	...........
	54	0.733333	9.77429E-001	2.80158E-004	0.00000E+000	2.73835E-004	1.68088E-001	9.77810E-001	3.57810E+000	9	...........
	55	0.746667	9.79178E-001	2.81069E-004	0.00000E+000	2.75217E-004	1.68088E-001	9.79551E-001	3.57810E+000	9	...........
	56	0.76	9.80896E-001	2.81489E-004	0.00000E+000	2.76111E-004	1.68088E-001	9.81278E-001	3.57810E+000	9	...........
	57	0.773333	9.82583E-001	2.81298E-004	0.00000E+000	2.76399E-004	1.68088E-001	9.82969E-001	3.57810E+000	9	...........
	58	0.786667	9.84276E-001	2.81979E-004	0.00000E+000	2.77545E-004	1.68088E-001	9.84660E-001	3.57810E+000	9	...........
	59	0.8	9.85891E-001	2.81102E-004	0.00000E+000	2.77136E-004	1.68088E-001	9.86301E-001	3.57810E+000	9	...........
	60	0.813333	9.87488E-001	2.80489E-004	0.00000E+000	2.76979E-004	1.68088E-001	9.87884E-001	3.57810E+000	9	...........
	61	0.826667	9.89056E-001	2.81402E-004	0.00000E+000	2.78323E-004	1.68088E-001	9.89439E-001	3.57810E+000	9	...........
	62	0.84	9.90555E-001	2.81043E-004	0.00000E+000	2.78388E-004	1.68088E-001	9.90941E-001	3.57810E+000	9	...........
	63	0.853333	9.92036E-001	2.82345E-004	0.00000E+000	2.80097E-004	1.68088E-001	9.92435E-001	3.57810E+000	9	...........
	64	0.866667	9.93475E-001	2.80313E-004	0.00000E+000	2.78483E-004	1.68088E-001	9.93889E-001	3.57810E+000	9	...........
	65	0.88	9.94910E-001	2.80520E-004	0.00000E+000	2.79092E-004	1.68088E-001	9.95317E-001	3.57810E+000	9	...........
	66	0.893333	9.96315E-001	2.80890E-004	0.00000E+000	2.79855E-004	1.68088E-001	9.96744E-001	3.57810E+000	9	...........
	67	0.906667	9.97741E-001	2.81005E-004	0.00000E+000	2.80371E-004	1.68088E-001	9.98156E-001	3.57810E+000	9	...........
	68	0.92	9.99101E-001	2.80904E-004	0.00000E+000	2.80652E-004	1.68088E-001	9.99519E-001	3.57810E+000	9	...........
	69	0.923333	9.99961E-001	2.80923E-004	0.00000E+000	2.80912E-004	1.68088E-001	1.00037E+000	3.57810E+000	9	...........
STARTTIMEOFFSET	QUANT	1472.717	Start Time Offset (s)
