EXPLAIN
TAG	PWR800_CHARGE
TITLE	LABEL	PWR Cyclic Charge Discharge (Cell) - Charge Step	Test &Identifier
DATE	LABEL	7-7-2017	Date
TIME	LABEL	16:13:31	Time
NOTES	NOTES	3	&Notes...
	supercap test cell
	2.8mg
	6M KOH
PSTAT	PSTAT	IFC5000-01520	Potentiostat
CAPACITY	QUANT	1.00000E-003	Capacity (A-hr)
CELLTYPE	SELECTOR	1	&Cell Type
WORKINGCONNECTION	SELECTOR	0	&Working Lead
MAXCHARGETIME	VARIABLEANDUNITS	1.00000E+002	s	1.00000E+002	second(s)	Max &Charge Time
CHARGECURRENT	QUANT	2.80000E-004	&Charge Current (A) 
VOLTAGEFINISH	TWOPARAM	F	1.00000E-003	3.60000E+003	&Voltage Finish	 I (A) < 	Max Time(s)
SAMPLETIME	QUANT	1.00000E-002	Sa&mple Period (s)
CHARGESTOPAT1	MULTIPARAM	4	1.00000E+000	Charge Stop At &1	Voltage > Limit	V
CHARGESTOPAT2	MULTIPARAM	0	0.00000E+000	Charge Stop At &2	None	N/A
AESBHCSELECTOR	TOGGLE	F	Save Both Half Cells
IRCOMP	TOGGLE	F	IR &Measure
EOC	QUANT	0	Open Circuit (V)
SEQUENCER	TOGGLE	TRUE	Run as Sequence
PSTATMODEL	IQUANT	53	Pstat Model
PSTATSECTION	LABEL	IFC5000-01520	Pstat Section
PSTATSERIALNO	LABEL	01520	Pstat Serial Number
CTRLMODE	IQUANT	0	Control Mode
ELECTROMETER	IQUANT	1	RE=0 or CS=1
IESTAB	IQUANT	0	I/E Stability
CASPEED	IQUANT	4	Control Amp Speed
CONVENTION	IQUANT	1	Current Convention
ICHRANGE	IQUANT	2	Ich Range
ICHRANGEMODE	TOGGLE	T	Ich Auto Range
ICHOFFSETENABLE	TOGGLE	F	Ich Offset Enable
ICHOFFSET	QUANT	0	Ich Offset (V)
ICHFILTER	IQUANT	1	Ich Filter
VCHRANGE	IQUANT	2	Vch Range
VCHRANGEMODE	TOGGLE	T	Vch Auto Range
VCHOFFSETENABLE	TOGGLE	F	Vch Offset Enable
VCHOFFSET	QUANT	0	Vch Offset (V)
VCHFILTER	IQUANT	1	Vch Filter
IERANGELOWERLIMIT	IQUANT	9	I/E Range Lower Limit
IERANGEMODE	TOGGLE	F	I/E AutoRange
IERANGE	IQUANT	9	I/E Range
ACHSELECT	IQUANT	1	Ach Select
ACHRANGE	IQUANT	2	Ach Range
ACHOFFSETENABLE	TOGGLE	F	Ach Offset Enable
ACHOFFSET	QUANT	0	Ach Offset (V)
ACHFILTER	IQUANT	1	Ach Filter
CABLEID	IQUANT	14	Cable ID
DCCALDATE	LABEL	5-7-2017	DC Calibration Date
ACCALDATE	LABEL	12/3/2015	AC Calibration Date
FRAMEWORKVERSION	QUANT	7.01	Framework Version
INSTRUMENTVERSION	LABEL	4.00	Instrument Version
CURVE	TABLE	66
	Pt	T	Vf	Im	Vu	Pwr	Sig	Ach	Temp	IERange	Over
	#	s	V	A	V	W	V	V	deg C	#	bits
	0	0.013333	6.17028E-001	2.82079E-004	0.00000E+000	1.74050E-004	1.68088E-001	6.17292E-001	3.57880E+000	9	...........
	1	0.026667	6.45490E-001	2.81401E-004	0.00000E+000	1.81642E-004	1.68088E-001	6.45731E-001	3.57880E+000	9	...........
	2	0.04	6.70133E-001	2.80830E-004	0.00000E+000	1.88194E-004	1.68088E-001	6.70372E-001	3.57880E+000	9	...........
	3	0.053333	6.91916E-001	2.81409E-004	0.00000E+000	1.94711E-004	1.68088E-001	6.92155E-001	3.57880E+000	9	...........
	4	0.066667	7.11412E-001	2.80981E-004	0.00000E+000	1.99894E-004	1.68088E-001	7.11666E-001	3.57880E+000	9	...........
	5	0.08	7.29060E-001	2.79956E-004	0.00000E+000	2.04105E-004	1.68088E-001	7.29333E-001	3.57880E+000	9	...........
	6	0.093333	7.45187E-001	2.82646E-004	0.00000E+000	2.10624E-004	1.68088E-001	7.45438E-001	3.57880E+000	9	...........
	7	0.106667	7.59921E-001	2.80648E-004	0.00000E+000	2.13270E-004	1.68088E-001	7.60206E-001	3.57880E+000	9	...........
	8	0.12	7.73511E-001	2.80796E-004	0.00000E+000	2.17199E-004	1.68088E-001	7.73804E-001	3.57880E+000	9	...........
	9	0.133333	7.86028E-001	2.81677E-004	0.00000E+000	2.21406E-004	1.68088E-001	7.86321E-001	3.57880E+000	9	...........
	10	0.146667	7.97674E-001	2.80185E-004	0.00000E+000	2.23497E-004	1.68088E-001	7.97948E-001	3.57880E+000	9	...........
	11	0.16	8.08453E-001	2.80507E-004	0.00000E+000	2.26777E-004	1.68088E-001	8.08723E-001	3.57880E+000	9	...........
	12	0.173333	8.18523E-001	2.80538E-004	0.00000E+000	2.29626E-004	1.68088E-001	8.18790E-001	3.57880E+000	9	...........
	13	0.186667	8.27916E-001	2.82056E-004	0.00000E+000	2.33518E-004	1.68088E-001	8.28156E-001	3.57880E+000	9	...........
	14	0.2	8.36651E-001	2.81995E-004	0.00000E+000	2.35931E-004	1.68088E-001	8.36940E-001	3.57880E+000	9	...........
	15	0.213333	8.44877E-001	2.80200E-004	0.00000E+000	2.36735E-004	1.68088E-001	8.45181E-001	3.57880E+000	9	...........
	16	0.226667	8.52588E-001	2.81531E-004	0.00000E+000	2.40029E-004	1.68088E-001	8.52886E-001	3.57880E+000	9	...........
	17	0.24	8.59845E-001	2.81099E-004	0.00000E+000	2.41702E-004	1.68088E-001	8.60144E-001	3.57880E+000	9	...........
	18	0.253333	8.66643E-001	2.81556E-004	0.00000E+000	2.44008E-004	1.68088E-001	8.66983E-001	3.57880E+000	9	...........
	19	0.266667	8.73110E-001	2.80674E-004	0.00000E+000	2.45059E-004	1.68088E-001	8.73443E-001	3.57880E+000	9	...........
	20	0.28	8.79179E-001	2.81337E-004	0.00000E+000	2.47345E-004	1.68088E-001	8.79499E-001	3.57880E+000	9	...........
	21	0.293333	8.84911E-001	2.80668E-004	0.00000E+000	2.48366E-004	1.68088E-001	8.85262E-001	3.57880E+000	9	...........
	22	0.306667	8.90332E-001	2.81274E-004	0.00000E+000	2.50427E-004	1.68088E-001	8.90670E-001	3.57880E+000	9	...........
	23	0.32	8.95451E-001	2.81590E-004	0.00000E+000	2.52150E-004	1.68088E-001	8.95783E-001	3.57880E+000	9	...........
	24	0.333333	9.00314E-001	2.82296E-004	0.00000E+000	2.54155E-004	1.68088E-001	9.00659E-001	3.57880E+000	9	...........
	25	0.346667	9.04912E-001	2.81411E-004	0.00000E+000	2.54652E-004	1.68088E-001	9.05270E-001	3.57880E+000	9	...........
	26	0.36	9.09285E-001	2.80792E-004	0.00000E+000	2.55320E-004	1.68088E-001	9.09630E-001	3.57880E+000	9	...........
	27	0.373333	9.13497E-001	2.80678E-004	0.00000E+000	2.56399E-004	1.68088E-001	9.13849E-001	3.57880E+000	9	...........
	28	0.386667	9.17487E-001	2.80847E-004	0.00000E+000	2.57673E-004	1.68088E-001	9.17829E-001	3.57880E+000	9	...........
	29	0.4	9.21348E-001	2.82488E-004	0.00000E+000	2.60270E-004	1.68088E-001	9.21674E-001	3.57880E+000	9	...........
	30	0.413333	9.25003E-001	2.81213E-004	0.00000E+000	2.60123E-004	1.68088E-001	9.25318E-001	3.57880E+000	9	...........
	31	0.426667	9.28508E-001	2.82019E-004	0.00000E+000	2.61857E-004	1.68088E-001	9.28840E-001	3.57880E+000	9	...........
	32	0.44	9.31860E-001	2.80700E-004	0.00000E+000	2.61573E-004	1.68088E-001	9.32195E-001	3.57880E+000	9	...........
	33	0.453333	9.35072E-001	2.80602E-004	0.00000E+000	2.62383E-004	1.68088E-001	9.35425E-001	3.57880E+000	9	...........
	34	0.466667	9.38139E-001	2.81013E-004	0.00000E+000	2.63629E-004	1.68088E-001	9.38500E-001	3.57880E+000	9	...........
	35	0.48	9.41124E-001	2.81032E-004	0.00000E+000	2.64486E-004	1.68088E-001	9.41471E-001	3.57880E+000	9	...........
	36	0.493333	9.43964E-001	2.82528E-004	0.00000E+000	2.66696E-004	1.68088E-001	9.44314E-001	3.57880E+000	9	...........
	37	0.506667	9.46795E-001	2.81327E-004	0.00000E+000	2.66359E-004	1.68088E-001	9.47123E-001	3.57880E+000	9	...........
	38	0.52	9.49477E-001	2.81197E-004	0.00000E+000	2.66990E-004	1.68088E-001	9.49785E-001	3.57880E+000	9	...........
	39	0.533333	9.52048E-001	2.81129E-004	0.00000E+000	2.67649E-004	1.68088E-001	9.52391E-001	3.57880E+000	9	...........
	40	0.546667	9.54564E-001	2.81037E-004	0.00000E+000	2.68268E-004	1.68088E-001	9.54903E-001	3.57880E+000	9	...........
	41	0.56	9.56981E-001	2.80155E-004	0.00000E+000	2.68103E-004	1.68088E-001	9.57319E-001	3.57880E+000	9	...........
	42	0.573333	9.59346E-001	2.82070E-004	0.00000E+000	2.70603E-004	1.68088E-001	9.59679E-001	3.57880E+000	9	...........
	43	0.586667	9.61603E-001	2.82908E-004	0.00000E+000	2.72045E-004	1.68088E-001	9.61978E-001	3.57880E+000	9	...........
	44	0.6	9.63820E-001	2.81323E-004	0.00000E+000	2.71145E-004	1.68088E-001	9.64201E-001	3.57880E+000	9	...........
	45	0.613333	9.65932E-001	2.81883E-004	0.00000E+000	2.72280E-004	1.68088E-001	9.66299E-001	3.57880E+000	9	...........
	46	0.626667	9.67999E-001	2.81386E-004	0.00000E+000	2.72381E-004	1.68088E-001	9.68369E-001	3.58132E+000	9	...........
	47	0.64	9.70075E-001	2.81251E-004	0.00000E+000	2.72835E-004	1.68088E-001	9.70418E-001	3.58160E+000	9	...........
	48	0.653333	9.72117E-001	2.80787E-004	0.00000E+000	2.72957E-004	1.68088E-001	9.72456E-001	3.58160E+000	9	...........
	49	0.666667	9.74129E-001	2.81608E-004	0.00000E+000	2.74322E-004	1.68088E-001	9.74428E-001	3.58160E+000	9	...........
	50	0.68	9.76033E-001	2.81567E-004	0.00000E+000	2.74819E-004	1.68088E-001	9.76338E-001	3.58160E+000	9	...........
	51	0.693333	9.77880E-001	2.79967E-004	0.00000E+000	2.73774E-004	1.68088E-001	9.78221E-001	3.58160E+000	9	...........
	52	0.706667	9.79711E-001	2.81396E-004	0.00000E+000	2.75687E-004	1.68088E-001	9.80035E-001	3.58160E+000	9	...........
	53	0.72	9.81494E-001	2.80498E-004	0.00000E+000	2.75307E-004	1.68088E-001	9.81838E-001	3.58160E+000	9	...........
	54	0.733333	9.83240E-001	2.82402E-004	0.00000E+000	2.77668E-004	1.68088E-001	9.83572E-001	3.58160E+000	9	...........
	55	0.746667	9.84917E-001	2.80419E-004	0.00000E+000	2.76189E-004	1.68088E-001	9.85307E-001	3.58160E+000	9	...........
	56	0.76	9.86616E-001	2.80994E-004	0.00000E+000	2.77233E-004	1.68088E-001	9.86972E-001	3.58160E+000	9	...........
	57	0.773333	9.88240E-001	2.81803E-004	0.00000E+000	2.78490E-004	1.68088E-001	9.88601E-001	3.58160E+000	9	...........
	58	0.786667	9.89862E-001	2.81489E-004	0.00000E+000	2.78635E-004	1.68088E-001	9.90194E-001	3.58160E+000	9	...........
	59	0.8	9.91409E-001	2.81471E-004	0.00000E+000	2.79053E-004	1.68088E-001	9.91719E-001	3.58160E+000	9	...........
	60	0.813333	9.92925E-001	2.81561E-004	0.00000E+000	2.79569E-004	1.68088E-001	9.93235E-001	3.58160E+000	9	...........
	61	0.826667	9.94446E-001	2.81411E-004	0.00000E+000	2.79848E-004	1.68088E-001	9.94775E-001	3.58160E+000	9	...........
	62	0.84	9.95957E-001	2.81220E-004	0.00000E+000	2.80083E-004	1.68088E-001	9.96284E-001	3.58160E+000	9	...........
	63	0.853333	9.97431E-001	2.81451E-004	0.00000E+000	2.80728E-004	1.68088E-001	9.97791E-001	3.58160E+000	9	...........
	64	0.866667	9.98883E-001	2.79365E-004	0.00000E+000	2.79053E-004	1.68088E-001	9.99244E-001	3.58160E+000	9	...........
	65	0.871667	9.99859E-001	2.80358E-004	0.00000E+000	2.80318E-004	1.68088E-001	1.00024E+000	3.58160E+000	9	...........
STARTTIMEOFFSET	QUANT	1665.325	Start Time Offset (s)
