EXPLAIN
TAG	PWR800_CHARGE
TITLE	LABEL	PWR Cyclic Charge Discharge (Cell) - Charge Step	Test &Identifier
DATE	LABEL	7-7-2017	Date
TIME	LABEL	16:03:27	Time
NOTES	NOTES	3	&Notes...
	supercap test cell
	2.8mg
	6M KOH
PSTAT	PSTAT	IFC5000-01520	Potentiostat
CAPACITY	QUANT	1.00000E-003	Capacity (A-hr)
CELLTYPE	SELECTOR	1	&Cell Type
WORKINGCONNECTION	SELECTOR	0	&Working Lead
MAXCHARGETIME	VARIABLEANDUNITS	1.00000E+002	s	1.00000E+002	second(s)	Max &Charge Time
CHARGECURRENT	QUANT	2.80000E-004	&Charge Current (A) 
VOLTAGEFINISH	TWOPARAM	F	1.00000E-003	3.60000E+003	&Voltage Finish	 I (A) < 	Max Time(s)
SAMPLETIME	QUANT	1.00000E-002	Sa&mple Period (s)
CHARGESTOPAT1	MULTIPARAM	4	1.00000E+000	Charge Stop At &1	Voltage > Limit	V
CHARGESTOPAT2	MULTIPARAM	0	0.00000E+000	Charge Stop At &2	None	N/A
AESBHCSELECTOR	TOGGLE	F	Save Both Half Cells
IRCOMP	TOGGLE	F	IR &Measure
EOC	QUANT	0	Open Circuit (V)
SEQUENCER	TOGGLE	TRUE	Run as Sequence
PSTATMODEL	IQUANT	53	Pstat Model
PSTATSECTION	LABEL	IFC5000-01520	Pstat Section
PSTATSERIALNO	LABEL	01520	Pstat Serial Number
CTRLMODE	IQUANT	0	Control Mode
ELECTROMETER	IQUANT	1	RE=0 or CS=1
IESTAB	IQUANT	0	I/E Stability
CASPEED	IQUANT	4	Control Amp Speed
CONVENTION	IQUANT	1	Current Convention
ICHRANGE	IQUANT	2	Ich Range
ICHRANGEMODE	TOGGLE	T	Ich Auto Range
ICHOFFSETENABLE	TOGGLE	F	Ich Offset Enable
ICHOFFSET	QUANT	0	Ich Offset (V)
ICHFILTER	IQUANT	1	Ich Filter
VCHRANGE	IQUANT	2	Vch Range
VCHRANGEMODE	TOGGLE	T	Vch Auto Range
VCHOFFSETENABLE	TOGGLE	F	Vch Offset Enable
VCHOFFSET	QUANT	0	Vch Offset (V)
VCHFILTER	IQUANT	1	Vch Filter
IERANGELOWERLIMIT	IQUANT	9	I/E Range Lower Limit
IERANGEMODE	TOGGLE	F	I/E AutoRange
IERANGE	IQUANT	9	I/E Range
ACHSELECT	IQUANT	1	Ach Select
ACHRANGE	IQUANT	2	Ach Range
ACHOFFSETENABLE	TOGGLE	F	Ach Offset Enable
ACHOFFSET	QUANT	0	Ach Offset (V)
ACHFILTER	IQUANT	1	Ach Filter
CABLEID	IQUANT	14	Cable ID
DCCALDATE	LABEL	5-7-2017	DC Calibration Date
ACCALDATE	LABEL	12/3/2015	AC Calibration Date
FRAMEWORKVERSION	QUANT	7.01	Framework Version
INSTRUMENTVERSION	LABEL	4.00	Instrument Version
CURVE	TABLE	75
	Pt	T	Vf	Im	Vu	Pwr	Sig	Ach	Temp	IERange	Over
	#	s	V	A	V	W	V	V	deg C	#	bits
	0	0.013333	6.01805E-001	2.82052E-004	0.00000E+000	1.69741E-004	1.68088E-001	6.02076E-001	3.57870E+000	9	...........
	1	0.026667	6.31449E-001	2.81787E-004	0.00000E+000	1.77934E-004	1.68088E-001	6.31682E-001	3.57870E+000	9	...........
	2	0.04	6.56703E-001	2.81372E-004	0.00000E+000	1.84778E-004	1.68088E-001	6.56952E-001	3.57870E+000	9	...........
	3	0.053333	6.78790E-001	2.81830E-004	0.00000E+000	1.91303E-004	1.68088E-001	6.79038E-001	3.57870E+000	9	...........
	4	0.066667	6.98411E-001	2.81926E-004	0.00000E+000	1.96900E-004	1.68088E-001	6.98668E-001	3.57870E+000	9	...........
	5	0.08	7.16086E-001	2.81543E-004	0.00000E+000	2.01609E-004	1.68088E-001	7.16340E-001	3.57870E+000	9	...........
	6	0.093333	7.32135E-001	2.82147E-004	0.00000E+000	2.06570E-004	1.68088E-001	7.32410E-001	3.57870E+000	9	...........
	7	0.106667	7.46806E-001	2.81138E-004	0.00000E+000	2.09955E-004	1.68088E-001	7.47075E-001	3.57870E+000	9	...........
	8	0.12	7.60260E-001	2.82195E-004	0.00000E+000	2.14542E-004	1.68088E-001	7.60522E-001	3.57870E+000	9	...........
	9	0.133333	7.72671E-001	2.82054E-004	0.00000E+000	2.17935E-004	1.68088E-001	7.72995E-001	3.57870E+000	9	...........
	10	0.146667	7.84174E-001	2.79999E-004	0.00000E+000	2.19568E-004	1.68088E-001	7.84481E-001	3.57870E+000	9	...........
	11	0.16	7.94835E-001	2.81171E-004	0.00000E+000	2.23485E-004	1.68088E-001	7.95145E-001	3.57870E+000	9	...........
	12	0.173333	8.04746E-001	2.80001E-004	0.00000E+000	2.25330E-004	1.68088E-001	8.05063E-001	3.57870E+000	9	...........
	13	0.186667	8.14011E-001	2.81064E-004	0.00000E+000	2.28789E-004	1.68088E-001	8.14365E-001	3.57870E+000	9	...........
	14	0.2	8.22728E-001	2.80768E-004	0.00000E+000	2.30996E-004	1.68088E-001	8.23061E-001	3.57870E+000	9	...........
	15	0.213333	8.30842E-001	2.81332E-004	0.00000E+000	2.33742E-004	1.68088E-001	8.31178E-001	3.57870E+000	9	...........
	16	0.226667	8.38458E-001	2.81198E-004	0.00000E+000	2.35773E-004	1.68088E-001	8.38786E-001	3.57870E+000	9	...........
	17	0.24	8.45638E-001	2.81644E-004	0.00000E+000	2.38169E-004	1.68088E-001	8.45963E-001	3.57870E+000	9	...........
	18	0.253333	8.52384E-001	2.81664E-004	0.00000E+000	2.40086E-004	1.68088E-001	8.52727E-001	3.57870E+000	9	...........
	19	0.266667	8.58789E-001	2.81386E-004	0.00000E+000	2.41651E-004	1.68088E-001	8.59117E-001	3.57870E+000	9	...........
	20	0.28	8.64801E-001	2.82155E-004	0.00000E+000	2.44008E-004	1.68088E-001	8.65126E-001	3.57870E+000	9	...........
	21	0.293333	8.70502E-001	2.80309E-004	0.00000E+000	2.44010E-004	1.68088E-001	8.70828E-001	3.57870E+000	9	...........
	22	0.306667	8.75924E-001	2.80594E-004	0.00000E+000	2.45779E-004	1.68088E-001	8.76248E-001	3.57870E+000	9	...........
	23	0.32	8.81070E-001	2.80988E-004	0.00000E+000	2.47570E-004	1.68088E-001	8.81388E-001	3.57870E+000	9	...........
	24	0.333333	8.85955E-001	2.79636E-004	0.00000E+000	2.47745E-004	1.68088E-001	8.86276E-001	3.57870E+000	9	...........
	25	0.346667	8.90579E-001	2.81790E-004	0.00000E+000	2.50956E-004	1.68088E-001	8.90913E-001	3.57870E+000	9	...........
	26	0.36	8.94987E-001	2.81165E-004	0.00000E+000	2.51639E-004	1.68088E-001	8.95345E-001	3.57870E+000	9	...........
	27	0.373333	8.99206E-001	2.81822E-004	0.00000E+000	2.53416E-004	1.68088E-001	8.99564E-001	3.57870E+000	9	...........
	28	0.386667	9.03210E-001	2.81590E-004	0.00000E+000	2.54335E-004	1.68088E-001	9.03572E-001	3.57870E+000	9	...........
	29	0.4	9.07063E-001	2.81305E-004	0.00000E+000	2.55162E-004	1.68088E-001	9.07447E-001	3.57870E+000	9	...........
	30	0.413333	9.10796E-001	2.81088E-004	0.00000E+000	2.56013E-004	1.68088E-001	9.11115E-001	3.57870E+000	9	...........
	31	0.426667	9.14329E-001	2.81417E-004	0.00000E+000	2.57308E-004	1.68088E-001	9.14699E-001	3.57870E+000	9	...........
	32	0.44	9.17734E-001	2.81426E-004	0.00000E+000	2.58275E-004	1.68088E-001	9.18113E-001	3.57870E+000	9	...........
	33	0.453333	9.21087E-001	2.81266E-004	0.00000E+000	2.59070E-004	1.68088E-001	9.21414E-001	3.57870E+000	9	...........
	34	0.466667	9.24228E-001	2.80452E-004	0.00000E+000	2.59202E-004	1.68088E-001	9.24547E-001	3.57870E+000	9	...........
	35	0.48	9.27238E-001	2.80997E-004	0.00000E+000	2.60551E-004	1.68088E-001	9.27570E-001	3.57870E+000	9	...........
	36	0.493333	9.30131E-001	2.81139E-004	0.00000E+000	2.61496E-004	1.68088E-001	9.30459E-001	3.57870E+000	9	...........
	37	0.506667	9.32959E-001	2.81179E-004	0.00000E+000	2.62329E-004	1.68088E-001	9.33298E-001	3.57870E+000	9	...........
	38	0.52	9.35676E-001	2.81176E-004	0.00000E+000	2.63090E-004	1.68088E-001	9.36018E-001	3.57870E+000	9	...........
	39	0.533333	9.38289E-001	2.82572E-004	0.00000E+000	2.65135E-004	1.68088E-001	9.38658E-001	3.57870E+000	9	...........
	40	0.546667	9.40843E-001	2.80657E-004	0.00000E+000	2.64055E-004	1.68088E-001	9.41190E-001	3.57870E+000	9	...........
	41	0.56	9.43325E-001	2.80497E-004	0.00000E+000	2.64600E-004	1.68088E-001	9.43645E-001	3.57870E+000	9	...........
	42	0.573333	9.45765E-001	2.80785E-004	0.00000E+000	2.65556E-004	1.68088E-001	9.46086E-001	3.57870E+000	9	...........
	43	0.586667	9.48169E-001	2.80973E-004	0.00000E+000	2.66410E-004	1.68088E-001	9.48454E-001	3.57870E+000	9	...........
	44	0.6	9.50463E-001	2.80897E-004	0.00000E+000	2.66982E-004	1.68088E-001	9.50766E-001	3.57870E+000	9	...........
	45	0.613333	9.52685E-001	2.82316E-004	0.00000E+000	2.68958E-004	1.68088E-001	9.53000E-001	3.57870E+000	9	...........
	46	0.626667	9.54828E-001	2.81680E-004	0.00000E+000	2.68956E-004	1.68088E-001	9.55156E-001	3.57870E+000	9	...........
	47	0.64	9.56918E-001	2.81157E-004	0.00000E+000	2.69045E-004	1.68088E-001	9.57230E-001	3.57870E+000	9	...........
	48	0.653333	9.58933E-001	2.80395E-004	0.00000E+000	2.68880E-004	1.68088E-001	9.59304E-001	3.57870E+000	9	...........
	49	0.666667	9.60954E-001	2.80615E-004	0.00000E+000	2.69658E-004	1.68088E-001	9.61315E-001	3.57870E+000	9	...........
	50	0.68	9.62911E-001	2.82137E-004	0.00000E+000	2.71673E-004	1.68088E-001	9.63279E-001	3.57870E+000	9	...........
	51	0.693333	9.64832E-001	2.79935E-004	0.00000E+000	2.70091E-004	1.68088E-001	9.65198E-001	3.57870E+000	9	...........
	52	0.706667	9.66739E-001	2.82056E-004	0.00000E+000	2.72674E-004	1.68088E-001	9.67110E-001	3.57870E+000	9	...........
	53	0.72	9.68622E-001	2.81740E-004	0.00000E+000	2.72899E-004	1.68088E-001	9.68983E-001	3.57870E+000	9	...........
	54	0.733333	9.70423E-001	2.81074E-004	0.00000E+000	2.72761E-004	1.68088E-001	9.70800E-001	3.57870E+000	9	...........
	55	0.746667	9.72178E-001	2.80248E-004	0.00000E+000	2.72451E-004	1.68088E-001	9.72569E-001	3.57870E+000	9	...........
	56	0.76	9.73971E-001	2.81757E-004	0.00000E+000	2.74423E-004	1.68088E-001	9.74319E-001	3.57870E+000	9	...........
	57	0.773333	9.75667E-001	2.81294E-004	0.00000E+000	2.74449E-004	1.68088E-001	9.76022E-001	3.57870E+000	9	...........
	58	0.786667	9.77349E-001	2.81166E-004	0.00000E+000	2.74797E-004	1.68088E-001	9.77691E-001	3.57870E+000	9	...........
	59	0.8	9.79011E-001	2.80912E-004	0.00000E+000	2.75016E-004	1.68088E-001	9.79344E-001	3.57870E+000	9	...........
	60	0.813333	9.80619E-001	2.80957E-004	0.00000E+000	2.75512E-004	1.68088E-001	9.80954E-001	3.57870E+000	9	...........
	61	0.826667	9.82203E-001	2.81301E-004	0.00000E+000	2.76295E-004	1.68088E-001	9.82549E-001	3.57870E+000	9	...........
	62	0.84	9.83744E-001	2.81810E-004	0.00000E+000	2.77229E-004	1.68088E-001	9.84106E-001	3.57872E+000	9	...........
	63	0.853333	9.85248E-001	2.80457E-004	0.00000E+000	2.76320E-004	1.68088E-001	9.85615E-001	3.57890E+000	9	...........
	64	0.866667	9.86695E-001	2.81853E-004	0.00000E+000	2.78103E-004	1.68088E-001	9.87070E-001	3.57890E+000	9	...........
	65	0.88	9.88154E-001	2.80733E-004	0.00000E+000	2.77408E-004	1.68088E-001	9.88519E-001	3.57890E+000	9	...........
	66	0.893333	9.89616E-001	2.80486E-004	0.00000E+000	2.77573E-004	1.68088E-001	9.89954E-001	3.57890E+000	9	...........
	67	0.906667	9.91008E-001	2.82243E-004	0.00000E+000	2.79705E-004	1.68088E-001	9.91350E-001	3.57890E+000	9	...........
	68	0.92	9.92386E-001	2.81763E-004	0.00000E+000	2.79617E-004	1.68088E-001	9.92749E-001	3.57890E+000	9	...........
	69	0.933333	9.93756E-001	2.82346E-004	0.00000E+000	2.80583E-004	1.68088E-001	9.94145E-001	3.57890E+000	9	...........
	70	0.946667	9.95097E-001	2.81005E-004	0.00000E+000	2.79628E-004	1.68088E-001	9.95460E-001	3.57890E+000	9	...........
	71	0.96	9.96426E-001	2.80837E-004	0.00000E+000	2.79833E-004	1.68088E-001	9.96791E-001	3.57890E+000	9	...........
	72	0.97333	9.97756E-001	2.80489E-004	0.00000E+000	2.79859E-004	1.68088E-001	9.98117E-001	3.57890E+000	9	...........
	73	0.98667	9.99052E-001	2.82126E-004	0.00000E+000	2.81859E-004	1.68088E-001	9.99424E-001	3.57890E+000	9	...........
	74	0.99167	9.99936E-001	2.81144E-004	0.00000E+000	2.81126E-004	1.68088E-001	1.00032E+000	3.57890E+000	9	...........
STARTTIMEOFFSET	QUANT	1253.881	Start Time Offset (s)
