EXPLAIN
TAG	PWR800_CHARGE
TITLE	LABEL	PWR Cyclic Charge Discharge (Cell) - Charge Step	Test &Identifier
DATE	LABEL	7-7-2017	Date
TIME	LABEL	16:19:28	Time
NOTES	NOTES	3	&Notes...
	supercap test cell
	2.8mg
	6M KOH
PSTAT	PSTAT	IFC5000-01520	Potentiostat
CAPACITY	QUANT	1.00000E-003	Capacity (A-hr)
CELLTYPE	SELECTOR	1	&Cell Type
WORKINGCONNECTION	SELECTOR	0	&Working Lead
MAXCHARGETIME	VARIABLEANDUNITS	1.00000E+002	s	1.00000E+002	second(s)	Max &Charge Time
CHARGECURRENT	QUANT	2.80000E-004	&Charge Current (A) 
VOLTAGEFINISH	TWOPARAM	F	1.00000E-003	3.60000E+003	&Voltage Finish	 I (A) < 	Max Time(s)
SAMPLETIME	QUANT	1.00000E-002	Sa&mple Period (s)
CHARGESTOPAT1	MULTIPARAM	4	1.00000E+000	Charge Stop At &1	Voltage > Limit	V
CHARGESTOPAT2	MULTIPARAM	0	0.00000E+000	Charge Stop At &2	None	N/A
AESBHCSELECTOR	TOGGLE	F	Save Both Half Cells
IRCOMP	TOGGLE	F	IR &Measure
EOC	QUANT	0	Open Circuit (V)
SEQUENCER	TOGGLE	TRUE	Run as Sequence
PSTATMODEL	IQUANT	53	Pstat Model
PSTATSECTION	LABEL	IFC5000-01520	Pstat Section
PSTATSERIALNO	LABEL	01520	Pstat Serial Number
CTRLMODE	IQUANT	0	Control Mode
ELECTROMETER	IQUANT	1	RE=0 or CS=1
IESTAB	IQUANT	0	I/E Stability
CASPEED	IQUANT	4	Control Amp Speed
CONVENTION	IQUANT	1	Current Convention
ICHRANGE	IQUANT	2	Ich Range
ICHRANGEMODE	TOGGLE	T	Ich Auto Range
ICHOFFSETENABLE	TOGGLE	F	Ich Offset Enable
ICHOFFSET	QUANT	0	Ich Offset (V)
ICHFILTER	IQUANT	1	Ich Filter
VCHRANGE	IQUANT	2	Vch Range
VCHRANGEMODE	TOGGLE	T	Vch Auto Range
VCHOFFSETENABLE	TOGGLE	F	Vch Offset Enable
VCHOFFSET	QUANT	0	Vch Offset (V)
VCHFILTER	IQUANT	1	Vch Filter
IERANGELOWERLIMIT	IQUANT	9	I/E Range Lower Limit
IERANGEMODE	TOGGLE	F	I/E AutoRange
IERANGE	IQUANT	9	I/E Range
ACHSELECT	IQUANT	1	Ach Select
ACHRANGE	IQUANT	2	Ach Range
ACHOFFSETENABLE	TOGGLE	F	Ach Offset Enable
ACHOFFSET	QUANT	0	Ach Offset (V)
ACHFILTER	IQUANT	1	Ach Filter
CABLEID	IQUANT	14	Cable ID
DCCALDATE	LABEL	5-7-2017	DC Calibration Date
ACCALDATE	LABEL	12/3/2015	AC Calibration Date
FRAMEWORKVERSION	QUANT	7.01	Framework Version
INSTRUMENTVERSION	LABEL	4.00	Instrument Version
CURVE	TABLE	61
	Pt	T	Vf	Im	Vu	Pwr	Sig	Ach	Temp	IERange	Over
	#	s	V	A	V	W	V	V	deg C	#	bits
	0	0.013333	6.06708E-001	2.80176E-004	0.00000E+000	1.69985E-004	1.68088E-001	6.06947E-001	3.57730E+000	9	...........
	1	0.026667	6.37343E-001	2.82337E-004	0.00000E+000	1.79946E-004	1.68088E-001	6.37567E-001	3.57730E+000	9	...........
	2	0.04	6.63724E-001	2.80062E-004	0.00000E+000	1.85884E-004	1.68088E-001	6.63952E-001	3.57730E+000	9	...........
	3	0.053333	6.86943E-001	2.81286E-004	0.00000E+000	1.93227E-004	1.68088E-001	6.87183E-001	3.57730E+000	9	...........
	4	0.066667	7.07680E-001	2.80876E-004	0.00000E+000	1.98771E-004	1.68088E-001	7.07945E-001	3.57730E+000	9	...........
	5	0.08	7.26476E-001	2.81154E-004	0.00000E+000	2.04252E-004	1.68088E-001	7.26735E-001	3.57730E+000	9	...........
	6	0.093333	7.43557E-001	2.82008E-004	0.00000E+000	2.09689E-004	1.68088E-001	7.43829E-001	3.57730E+000	9	...........
	7	0.106667	7.59213E-001	2.80580E-004	0.00000E+000	2.13020E-004	1.68088E-001	7.59482E-001	3.57730E+000	9	...........
	8	0.12	7.73591E-001	2.81164E-004	0.00000E+000	2.17506E-004	1.68088E-001	7.73875E-001	3.57730E+000	9	...........
	9	0.133333	7.86867E-001	2.81425E-004	0.00000E+000	2.21444E-004	1.68088E-001	7.87159E-001	3.57730E+000	9	...........
	10	0.146667	7.99166E-001	2.80873E-004	0.00000E+000	2.24464E-004	1.68088E-001	7.99461E-001	3.57730E+000	9	...........
	11	0.16	8.10542E-001	2.82057E-004	0.00000E+000	2.28619E-004	1.68088E-001	8.10841E-001	3.57760E+000	9	...........
	12	0.173333	8.21140E-001	2.80250E-004	0.00000E+000	2.30124E-004	1.68088E-001	8.21435E-001	3.57770E+000	9	...........
	13	0.186667	8.31027E-001	2.80396E-004	0.00000E+000	2.33017E-004	1.68088E-001	8.31318E-001	3.57770E+000	9	...........
	14	0.2	8.40237E-001	2.80594E-004	0.00000E+000	2.35765E-004	1.68088E-001	8.40552E-001	3.57770E+000	9	...........
	15	0.213333	8.48908E-001	2.81576E-004	0.00000E+000	2.39032E-004	1.68088E-001	8.49228E-001	3.57770E+000	9	...........
	16	0.226667	8.56969E-001	2.81343E-004	0.00000E+000	2.41102E-004	1.68088E-001	8.57309E-001	3.57770E+000	9	...........
	17	0.24	8.64588E-001	2.80678E-004	0.00000E+000	2.42671E-004	1.68088E-001	8.64907E-001	3.57770E+000	9	...........
	18	0.253333	8.71716E-001	2.80950E-004	0.00000E+000	2.44909E-004	1.68088E-001	8.72062E-001	3.57770E+000	9	...........
	19	0.266667	8.78406E-001	2.81156E-004	0.00000E+000	2.46970E-004	1.68088E-001	8.78749E-001	3.57770E+000	9	...........
	20	0.28	8.84741E-001	2.80593E-004	0.00000E+000	2.48252E-004	1.68088E-001	8.85052E-001	3.57770E+000	9	...........
	21	0.293333	8.90673E-001	2.80517E-004	0.00000E+000	2.49849E-004	1.68088E-001	8.90989E-001	3.57770E+000	9	...........
	22	0.306667	8.96281E-001	2.81269E-004	0.00000E+000	2.52096E-004	1.68088E-001	8.96623E-001	3.57770E+000	9	...........
	23	0.32	9.01600E-001	2.80860E-004	0.00000E+000	2.53223E-004	1.68088E-001	9.01923E-001	3.57770E+000	9	...........
	24	0.333333	9.06614E-001	2.80613E-004	0.00000E+000	2.54407E-004	1.68088E-001	9.06953E-001	3.57770E+000	9	...........
	25	0.346667	9.11407E-001	2.82093E-004	0.00000E+000	2.57102E-004	1.68088E-001	9.11735E-001	3.57770E+000	9	...........
	26	0.36	9.15935E-001	2.81242E-004	0.00000E+000	2.57599E-004	1.68088E-001	9.16307E-001	3.57770E+000	9	...........
	27	0.373333	9.20263E-001	2.81423E-004	0.00000E+000	2.58983E-004	1.68088E-001	9.20604E-001	3.57770E+000	9	...........
	28	0.386667	9.24414E-001	2.81868E-004	0.00000E+000	2.60563E-004	1.68088E-001	9.24729E-001	3.57770E+000	9	...........
	29	0.4	9.28350E-001	2.81710E-004	0.00000E+000	2.61525E-004	1.68088E-001	9.28674E-001	3.57770E+000	9	...........
	30	0.413333	9.32117E-001	2.80953E-004	0.00000E+000	2.61881E-004	1.68088E-001	9.32418E-001	3.57770E+000	9	...........
	31	0.426667	9.35715E-001	2.80947E-004	0.00000E+000	2.62886E-004	1.68088E-001	9.36029E-001	3.57770E+000	9	...........
	32	0.44	9.39134E-001	2.81122E-004	0.00000E+000	2.64011E-004	1.68088E-001	9.39441E-001	3.57770E+000	9	...........
	33	0.453333	9.42400E-001	2.79480E-004	0.00000E+000	2.63382E-004	1.68088E-001	9.42729E-001	3.57770E+000	9	...........
	34	0.466667	9.45556E-001	2.81764E-004	0.00000E+000	2.66424E-004	1.68088E-001	9.45890E-001	3.57770E+000	9	...........
	35	0.48	9.48633E-001	2.80694E-004	0.00000E+000	2.66276E-004	1.68088E-001	9.48959E-001	3.57770E+000	9	...........
	36	0.493333	9.51557E-001	2.80787E-004	0.00000E+000	2.67184E-004	1.68088E-001	9.51889E-001	3.57770E+000	9	...........
	37	0.506667	9.54379E-001	2.81022E-004	0.00000E+000	2.68202E-004	1.68088E-001	9.54720E-001	3.57770E+000	9	...........
	38	0.52	9.57076E-001	2.82599E-004	0.00000E+000	2.70469E-004	1.68088E-001	9.57416E-001	3.57770E+000	9	...........
	39	0.533333	9.59689E-001	2.80582E-004	0.00000E+000	2.69272E-004	1.68088E-001	9.60054E-001	3.57770E+000	9	...........
	40	0.546667	9.62220E-001	2.81122E-004	0.00000E+000	2.70501E-004	1.68088E-001	9.62588E-001	3.57770E+000	9	...........
	41	0.56	9.64663E-001	2.81358E-004	0.00000E+000	2.71415E-004	1.68088E-001	9.65034E-001	3.57770E+000	9	...........
	42	0.573333	9.67034E-001	2.80374E-004	0.00000E+000	2.71131E-004	1.68088E-001	9.67398E-001	3.57770E+000	9	...........
	43	0.586667	9.69350E-001	2.82589E-004	0.00000E+000	2.73928E-004	1.68088E-001	9.69730E-001	3.57770E+000	9	...........
	44	0.6	9.71616E-001	2.81660E-004	0.00000E+000	2.73665E-004	1.68088E-001	9.71995E-001	3.57770E+000	9	...........
	45	0.613333	9.73829E-001	2.80252E-004	0.00000E+000	2.72918E-004	1.68088E-001	9.74179E-001	3.57770E+000	9	...........
	46	0.626667	9.75938E-001	2.80925E-004	0.00000E+000	2.74166E-004	1.68088E-001	9.76281E-001	3.57770E+000	9	...........
	47	0.64	9.77988E-001	2.81346E-004	0.00000E+000	2.75153E-004	1.68088E-001	9.78355E-001	3.57770E+000	9	...........
	48	0.653333	9.80005E-001	2.80814E-004	0.00000E+000	2.75199E-004	1.68088E-001	9.80341E-001	3.57770E+000	9	...........
	49	0.666667	9.81968E-001	2.80605E-004	0.00000E+000	2.75545E-004	1.68088E-001	9.82328E-001	3.57770E+000	9	...........
	50	0.68	9.83888E-001	2.80524E-004	0.00000E+000	2.76004E-004	1.68088E-001	9.84256E-001	3.57770E+000	9	...........
	51	0.693333	9.85748E-001	2.81418E-004	0.00000E+000	2.77407E-004	1.68088E-001	9.86102E-001	3.57770E+000	9	...........
	52	0.706667	9.87579E-001	2.80760E-004	0.00000E+000	2.77272E-004	1.68088E-001	9.87945E-001	3.57770E+000	9	...........
	53	0.72	9.89380E-001	2.79638E-004	0.00000E+000	2.76669E-004	1.68088E-001	9.89731E-001	3.57770E+000	9	...........
	54	0.733333	9.91107E-001	2.82074E-004	0.00000E+000	2.79566E-004	1.68088E-001	9.91485E-001	3.57770E+000	9	...........
	55	0.746667	9.92798E-001	2.81385E-004	0.00000E+000	2.79358E-004	1.68088E-001	9.93176E-001	3.57770E+000	9	...........
	56	0.76	9.94484E-001	2.82859E-004	0.00000E+000	2.81299E-004	1.68088E-001	9.94845E-001	3.57770E+000	9	...........
	57	0.773333	9.96090E-001	2.80408E-004	0.00000E+000	2.79312E-004	1.68088E-001	9.96455E-001	3.57770E+000	9	...........
	58	0.786667	9.97704E-001	2.80617E-004	0.00000E+000	2.79972E-004	1.68088E-001	9.98096E-001	3.57770E+000	9	...........
	59	0.8	9.99302E-001	2.80979E-004	0.00000E+000	2.80783E-004	1.68088E-001	9.99660E-001	3.57770E+000	9	...........
	60	0.801667	1.00016E+000	2.83594E-004	0.00000E+000	2.83639E-004	1.68088E-001	1.00051E+000	3.57770E+000	9	...........
STARTTIMEOFFSET	QUANT	1901.801	Start Time Offset (s)
