EXPLAIN
TAG	PWR800_CHARGE
TITLE	LABEL	PWR Cyclic Charge Discharge (Cell) - Charge Step	Test &Identifier
DATE	LABEL	7-7-2017	Date
TIME	LABEL	16:11:23	Time
NOTES	NOTES	3	&Notes...
	supercap test cell
	2.8mg
	6M KOH
PSTAT	PSTAT	IFC5000-01520	Potentiostat
CAPACITY	QUANT	1.00000E-003	Capacity (A-hr)
CELLTYPE	SELECTOR	1	&Cell Type
WORKINGCONNECTION	SELECTOR	0	&Working Lead
MAXCHARGETIME	VARIABLEANDUNITS	1.00000E+002	s	1.00000E+002	second(s)	Max &Charge Time
CHARGECURRENT	QUANT	2.80000E-004	&Charge Current (A) 
VOLTAGEFINISH	TWOPARAM	F	1.00000E-003	3.60000E+003	&Voltage Finish	 I (A) < 	Max Time(s)
SAMPLETIME	QUANT	1.00000E-002	Sa&mple Period (s)
CHARGESTOPAT1	MULTIPARAM	4	1.00000E+000	Charge Stop At &1	Voltage > Limit	V
CHARGESTOPAT2	MULTIPARAM	0	0.00000E+000	Charge Stop At &2	None	N/A
AESBHCSELECTOR	TOGGLE	F	Save Both Half Cells
IRCOMP	TOGGLE	F	IR &Measure
EOC	QUANT	0	Open Circuit (V)
SEQUENCER	TOGGLE	TRUE	Run as Sequence
PSTATMODEL	IQUANT	53	Pstat Model
PSTATSECTION	LABEL	IFC5000-01520	Pstat Section
PSTATSERIALNO	LABEL	01520	Pstat Serial Number
CTRLMODE	IQUANT	0	Control Mode
ELECTROMETER	IQUANT	1	RE=0 or CS=1
IESTAB	IQUANT	0	I/E Stability
CASPEED	IQUANT	4	Control Amp Speed
CONVENTION	IQUANT	1	Current Convention
ICHRANGE	IQUANT	2	Ich Range
ICHRANGEMODE	TOGGLE	T	Ich Auto Range
ICHOFFSETENABLE	TOGGLE	F	Ich Offset Enable
ICHOFFSET	QUANT	0	Ich Offset (V)
ICHFILTER	IQUANT	1	Ich Filter
VCHRANGE	IQUANT	2	Vch Range
VCHRANGEMODE	TOGGLE	T	Vch Auto Range
VCHOFFSETENABLE	TOGGLE	F	Vch Offset Enable
VCHOFFSET	QUANT	0	Vch Offset (V)
VCHFILTER	IQUANT	1	Vch Filter
IERANGELOWERLIMIT	IQUANT	9	I/E Range Lower Limit
IERANGEMODE	TOGGLE	F	I/E AutoRange
IERANGE	IQUANT	9	I/E Range
ACHSELECT	IQUANT	1	Ach Select
ACHRANGE	IQUANT	2	Ach Range
ACHOFFSETENABLE	TOGGLE	F	Ach Offset Enable
ACHOFFSET	QUANT	0	Ach Offset (V)
ACHFILTER	IQUANT	1	Ach Filter
CABLEID	IQUANT	14	Cable ID
DCCALDATE	LABEL	5-7-2017	DC Calibration Date
ACCALDATE	LABEL	12/3/2015	AC Calibration Date
FRAMEWORKVERSION	QUANT	7.01	Framework Version
INSTRUMENTVERSION	LABEL	4.00	Instrument Version
CURVE	TABLE	66
	Pt	T	Vf	Im	Vu	Pwr	Sig	Ach	Temp	IERange	Over
	#	s	V	A	V	W	V	V	deg C	#	bits
	0	0.013333	6.32832E-001	2.81036E-004	0.00000E+000	1.77848E-004	1.68088E-001	6.33079E-001	3.57750E+000	9	...........
	1	0.026667	6.61081E-001	2.81710E-004	0.00000E+000	1.86233E-004	1.68088E-001	6.61342E-001	3.57750E+000	9	...........
	2	0.04	6.85171E-001	2.81148E-004	0.00000E+000	1.92635E-004	1.68088E-001	6.85444E-001	3.57750E+000	9	...........
	3	0.053333	7.06264E-001	2.80536E-004	0.00000E+000	1.98132E-004	1.68088E-001	7.06539E-001	3.57750E+000	9	...........
	4	0.066667	7.25029E-001	2.81786E-004	0.00000E+000	2.04303E-004	1.68088E-001	7.25329E-001	3.57750E+000	9	...........
	5	0.08	7.41874E-001	2.82334E-004	0.00000E+000	2.09456E-004	1.68088E-001	7.42173E-001	3.57750E+000	9	...........
	6	0.093333	7.57210E-001	2.80650E-004	0.00000E+000	2.12511E-004	1.68088E-001	7.57487E-001	3.57750E+000	9	...........
	7	0.106667	7.71190E-001	2.81422E-004	0.00000E+000	2.17030E-004	1.68088E-001	7.71447E-001	3.57750E+000	9	...........
	8	0.12	7.84026E-001	2.80825E-004	0.00000E+000	2.20174E-004	1.68088E-001	7.84281E-001	3.57829E+000	9	...........
	9	0.133333	7.95893E-001	2.79859E-004	0.00000E+000	2.22738E-004	1.68088E-001	7.96146E-001	3.57840E+000	9	...........
	10	0.146667	8.06838E-001	2.81190E-004	0.00000E+000	2.26875E-004	1.68088E-001	8.07111E-001	3.57840E+000	9	...........
	11	0.16	8.16985E-001	2.81088E-004	0.00000E+000	2.29644E-004	1.68088E-001	8.17266E-001	3.57840E+000	9	...........
	12	0.173333	8.26422E-001	2.80150E-004	0.00000E+000	2.31522E-004	1.68088E-001	8.26727E-001	3.57840E+000	9	...........
	13	0.186667	8.35196E-001	2.80719E-004	0.00000E+000	2.34455E-004	1.68088E-001	8.35516E-001	3.57840E+000	9	...........
	14	0.2	8.43419E-001	2.81556E-004	0.00000E+000	2.37469E-004	1.68088E-001	8.43718E-001	3.57840E+000	9	...........
	15	0.213333	8.51122E-001	2.82321E-004	0.00000E+000	2.40290E-004	1.68088E-001	8.51439E-001	3.57840E+000	9	...........
	16	0.226667	8.58361E-001	2.79922E-004	0.00000E+000	2.40274E-004	1.68088E-001	8.58684E-001	3.57840E+000	9	...........
	17	0.24	8.65185E-001	2.81310E-004	0.00000E+000	2.43385E-004	1.68088E-001	8.65514E-001	3.57840E+000	9	...........
	18	0.253333	8.71596E-001	2.82802E-004	0.00000E+000	2.46489E-004	1.68088E-001	8.71934E-001	3.57840E+000	9	...........
	19	0.266667	8.77623E-001	2.81307E-004	0.00000E+000	2.46881E-004	1.68088E-001	8.77941E-001	3.57840E+000	9	...........
	20	0.28	8.83323E-001	2.82012E-004	0.00000E+000	2.49108E-004	1.68088E-001	8.83657E-001	3.57840E+000	9	...........
	21	0.293333	8.88664E-001	2.81520E-004	0.00000E+000	2.50177E-004	1.68088E-001	8.89004E-001	3.57840E+000	9	...........
	22	0.306667	8.93728E-001	2.81266E-004	0.00000E+000	2.51375E-004	1.68088E-001	8.94064E-001	3.57840E+000	9	...........
	23	0.32	8.98575E-001	2.81546E-004	0.00000E+000	2.52990E-004	1.68088E-001	8.98907E-001	3.57840E+000	9	...........
	24	0.333333	9.03115E-001	2.81621E-004	0.00000E+000	2.54336E-004	1.68088E-001	9.03483E-001	3.57840E+000	9	...........
	25	0.346667	9.07528E-001	2.80452E-004	0.00000E+000	2.54518E-004	1.68088E-001	9.07858E-001	3.57840E+000	9	...........
	26	0.36	9.11678E-001	2.80573E-004	0.00000E+000	2.55792E-004	1.68088E-001	9.12054E-001	3.57840E+000	9	...........
	27	0.373333	9.15656E-001	2.81316E-004	0.00000E+000	2.57589E-004	1.68088E-001	9.16033E-001	3.57840E+000	9	...........
	28	0.386667	9.19493E-001	2.80868E-004	0.00000E+000	2.58256E-004	1.68088E-001	9.19850E-001	3.57840E+000	9	...........
	29	0.4	9.23193E-001	2.81550E-004	0.00000E+000	2.59925E-004	1.68088E-001	9.23510E-001	3.57840E+000	9	...........
	30	0.413333	9.26665E-001	2.80177E-004	0.00000E+000	2.59630E-004	1.68088E-001	9.26999E-001	3.57840E+000	9	...........
	31	0.426667	9.29955E-001	2.81203E-004	0.00000E+000	2.61507E-004	1.68088E-001	9.30278E-001	3.57840E+000	9	...........
	32	0.44	9.33151E-001	2.81293E-004	0.00000E+000	2.62489E-004	1.68088E-001	9.33469E-001	3.57840E+000	9	...........
	33	0.453333	9.36206E-001	2.79729E-004	0.00000E+000	2.61884E-004	1.68088E-001	9.36541E-001	3.57840E+000	9	...........
	34	0.466667	9.39144E-001	2.81103E-004	0.00000E+000	2.63996E-004	1.68088E-001	9.39505E-001	3.57840E+000	9	...........
	35	0.48	9.42040E-001	2.81542E-004	0.00000E+000	2.65224E-004	1.68088E-001	9.42364E-001	3.57840E+000	9	...........
	36	0.493333	9.44787E-001	2.81492E-004	0.00000E+000	2.65950E-004	1.68088E-001	9.45134E-001	3.57840E+000	9	...........
	37	0.506667	9.47512E-001	2.81446E-004	0.00000E+000	2.66673E-004	1.68088E-001	9.47833E-001	3.57840E+000	9	...........
	38	0.52	9.50083E-001	2.81428E-004	0.00000E+000	2.67380E-004	1.68088E-001	9.50419E-001	3.57840E+000	9	...........
	39	0.533333	9.52573E-001	2.81621E-004	0.00000E+000	2.68265E-004	1.68088E-001	9.52905E-001	3.57840E+000	9	...........
	40	0.546667	9.55034E-001	2.82594E-004	0.00000E+000	2.69887E-004	1.68088E-001	9.55320E-001	3.57840E+000	9	...........
	41	0.56	9.57346E-001	2.80329E-004	0.00000E+000	2.68372E-004	1.68088E-001	9.57666E-001	3.57840E+000	9	...........
	42	0.573333	9.59611E-001	2.81612E-004	0.00000E+000	2.70238E-004	1.68088E-001	9.59938E-001	3.57840E+000	9	...........
	43	0.586667	9.61801E-001	2.80382E-004	0.00000E+000	2.69672E-004	1.68088E-001	9.62178E-001	3.57840E+000	9	...........
	44	0.6	9.63956E-001	2.81245E-004	0.00000E+000	2.71108E-004	1.68088E-001	9.64314E-001	3.57840E+000	9	...........
	45	0.613333	9.66056E-001	2.80267E-004	0.00000E+000	2.70753E-004	1.68088E-001	9.66401E-001	3.57840E+000	9	...........
	46	0.626667	9.68120E-001	2.80895E-004	0.00000E+000	2.71940E-004	1.68088E-001	9.68465E-001	3.57840E+000	9	...........
	47	0.64	9.70096E-001	2.80393E-004	0.00000E+000	2.72008E-004	1.68088E-001	9.70495E-001	3.57840E+000	9	...........
	48	0.653333	9.72059E-001	2.80414E-004	0.00000E+000	2.72579E-004	1.68088E-001	9.72459E-001	3.57840E+000	9	...........
	49	0.666667	9.73990E-001	2.81989E-004	0.00000E+000	2.74654E-004	1.68088E-001	9.74321E-001	3.57840E+000	9	...........
	50	0.68	9.75818E-001	2.81516E-004	0.00000E+000	2.74708E-004	1.68088E-001	9.76150E-001	3.57840E+000	9	...........
	51	0.693333	9.77609E-001	2.80502E-004	0.00000E+000	2.74221E-004	1.68088E-001	9.77939E-001	3.57840E+000	9	...........
	52	0.706667	9.79402E-001	2.81011E-004	0.00000E+000	2.75222E-004	1.68088E-001	9.79690E-001	3.57840E+000	9	...........
	53	0.72	9.81124E-001	2.81060E-004	0.00000E+000	2.75754E-004	1.68088E-001	9.81415E-001	3.57840E+000	9	...........
	54	0.733333	9.82790E-001	2.80548E-004	0.00000E+000	2.75720E-004	1.68088E-001	9.83080E-001	3.57840E+000	9	...........
	55	0.746667	9.84467E-001	2.80696E-004	0.00000E+000	2.76336E-004	1.68088E-001	9.84779E-001	3.57840E+000	9	...........
	56	0.76	9.86088E-001	2.81238E-004	0.00000E+000	2.77325E-004	1.68088E-001	9.86409E-001	3.57840E+000	9	...........
	57	0.773333	9.87668E-001	2.82033E-004	0.00000E+000	2.78555E-004	1.68088E-001	9.88029E-001	3.57840E+000	9	...........
	58	0.786667	9.89280E-001	2.81429E-004	0.00000E+000	2.78412E-004	1.68088E-001	9.89621E-001	3.57840E+000	9	...........
	59	0.8	9.90848E-001	2.80182E-004	0.00000E+000	2.77618E-004	1.68088E-001	9.91189E-001	3.57840E+000	9	...........
	60	0.813333	9.92348E-001	2.82160E-004	0.00000E+000	2.80001E-004	1.68088E-001	9.92724E-001	3.57840E+000	9	...........
	61	0.826667	9.93851E-001	2.82052E-004	0.00000E+000	2.80318E-004	1.68088E-001	9.94235E-001	3.57840E+000	9	...........
	62	0.84	9.95353E-001	2.81819E-004	0.00000E+000	2.80509E-004	1.68088E-001	9.95721E-001	3.57840E+000	9	...........
	63	0.853333	9.96816E-001	2.81102E-004	0.00000E+000	2.80207E-004	1.68088E-001	9.97210E-001	3.57840E+000	9	...........
	64	0.866667	9.98238E-001	2.80001E-004	0.00000E+000	2.79508E-004	1.68088E-001	9.98620E-001	3.57840E+000	9	...........
	65	0.878333	9.99570E-001	2.81057E-004	0.00000E+000	2.80936E-004	1.68088E-001	9.99920E-001	3.57840E+000	9	...........
STARTTIMEOFFSET	QUANT	1578.662	Start Time Offset (s)
