EXPLAIN
TAG	PWR800_CHARGE
TITLE	LABEL	PWR Cyclic Charge Discharge (Cell) - Charge Step	Test &Identifier
DATE	LABEL	7-7-2017	Date
TIME	LABEL	15:43:12	Time
NOTES	NOTES	3	&Notes...
	supercap test cell
	2.8mg
	6M KOH
PSTAT	PSTAT	IFC5000-01520	Potentiostat
CAPACITY	QUANT	1.00000E-003	Capacity (A-hr)
CELLTYPE	SELECTOR	1	&Cell Type
WORKINGCONNECTION	SELECTOR	0	&Working Lead
MAXCHARGETIME	VARIABLEANDUNITS	1.00000E+002	s	1.00000E+002	second(s)	Max &Charge Time
CHARGECURRENT	QUANT	2.80000E-004	&Charge Current (A) 
VOLTAGEFINISH	TWOPARAM	F	1.00000E-003	3.60000E+003	&Voltage Finish	 I (A) < 	Max Time(s)
SAMPLETIME	QUANT	1.00000E-002	Sa&mple Period (s)
CHARGESTOPAT1	MULTIPARAM	4	1.00000E+000	Charge Stop At &1	Voltage > Limit	V
CHARGESTOPAT2	MULTIPARAM	0	0.00000E+000	Charge Stop At &2	None	N/A
AESBHCSELECTOR	TOGGLE	F	Save Both Half Cells
IRCOMP	TOGGLE	F	IR &Measure
EOC	QUANT	0	Open Circuit (V)
SEQUENCER	TOGGLE	TRUE	Run as Sequence
PSTATMODEL	IQUANT	53	Pstat Model
PSTATSECTION	LABEL	IFC5000-01520	Pstat Section
PSTATSERIALNO	LABEL	01520	Pstat Serial Number
CTRLMODE	IQUANT	0	Control Mode
ELECTROMETER	IQUANT	1	RE=0 or CS=1
IESTAB	IQUANT	0	I/E Stability
CASPEED	IQUANT	4	Control Amp Speed
CONVENTION	IQUANT	1	Current Convention
ICHRANGE	IQUANT	2	Ich Range
ICHRANGEMODE	TOGGLE	T	Ich Auto Range
ICHOFFSETENABLE	TOGGLE	F	Ich Offset Enable
ICHOFFSET	QUANT	0	Ich Offset (V)
ICHFILTER	IQUANT	1	Ich Filter
VCHRANGE	IQUANT	2	Vch Range
VCHRANGEMODE	TOGGLE	T	Vch Auto Range
VCHOFFSETENABLE	TOGGLE	F	Vch Offset Enable
VCHOFFSET	QUANT	0	Vch Offset (V)
VCHFILTER	IQUANT	1	Vch Filter
IERANGELOWERLIMIT	IQUANT	9	I/E Range Lower Limit
IERANGEMODE	TOGGLE	F	I/E AutoRange
IERANGE	IQUANT	9	I/E Range
ACHSELECT	IQUANT	1	Ach Select
ACHRANGE	IQUANT	2	Ach Range
ACHOFFSETENABLE	TOGGLE	F	Ach Offset Enable
ACHOFFSET	QUANT	0	Ach Offset (V)
ACHFILTER	IQUANT	1	Ach Filter
CABLEID	IQUANT	14	Cable ID
DCCALDATE	LABEL	5-7-2017	DC Calibration Date
ACCALDATE	LABEL	12/3/2015	AC Calibration Date
FRAMEWORKVERSION	QUANT	7.01	Framework Version
INSTRUMENTVERSION	LABEL	4.00	Instrument Version
CURVE	TABLE	138
	Pt	T	Vf	Im	Vu	Pwr	Sig	Ach	Temp	IERange	Over
	#	s	V	A	V	W	V	V	deg C	#	bits
	0	0.013333	5.71872E-001	2.81011E-004	0.00000E+000	1.60702E-004	1.68088E-001	5.72161E-001	3.57860E+000	9	...........
	1	0.026667	5.99787E-001	2.81352E-004	0.00000E+000	1.68751E-004	1.68088E-001	6.00130E-001	3.57860E+000	9	...........
	2	0.04	6.23194E-001	2.81274E-004	0.00000E+000	1.75288E-004	1.68088E-001	6.23502E-001	3.57860E+000	9	...........
	3	0.053333	6.43252E-001	2.80939E-004	0.00000E+000	1.80714E-004	1.68088E-001	6.43542E-001	3.57860E+000	9	...........
	4	0.066667	6.60762E-001	2.80364E-004	0.00000E+000	1.85254E-004	1.68088E-001	6.61075E-001	3.57860E+000	9	...........
	5	0.08	6.76330E-001	2.80863E-004	0.00000E+000	1.89956E-004	1.68088E-001	6.76620E-001	3.57860E+000	9	...........
	6	0.093333	6.90255E-001	2.80880E-004	0.00000E+000	1.93879E-004	1.68088E-001	6.90528E-001	3.57850E+000	9	...........
	7	0.106667	7.02865E-001	2.80925E-004	0.00000E+000	1.97452E-004	1.68088E-001	7.03157E-001	3.57850E+000	9	...........
	8	0.12	7.14399E-001	2.81537E-004	0.00000E+000	2.01130E-004	1.68088E-001	7.14679E-001	3.57850E+000	9	...........
	9	0.133333	7.24953E-001	2.81009E-004	0.00000E+000	2.03718E-004	1.68088E-001	7.25233E-001	3.57850E+000	9	...........
	10	0.146667	7.34630E-001	2.82541E-004	0.00000E+000	2.07563E-004	1.68088E-001	7.34969E-001	3.57850E+000	9	...........
	11	0.16	7.43648E-001	2.81174E-004	0.00000E+000	2.09094E-004	1.68088E-001	7.43951E-001	3.57850E+000	9	...........
	12	0.173333	7.52029E-001	2.80588E-004	0.00000E+000	2.11010E-004	1.68088E-001	7.52342E-001	3.57850E+000	9	...........
	13	0.186667	7.59829E-001	2.81322E-004	0.00000E+000	2.13757E-004	1.68088E-001	7.60135E-001	3.57850E+000	9	...........
	14	0.2	7.67146E-001	2.80326E-004	0.00000E+000	2.15051E-004	1.68088E-001	7.67471E-001	3.57850E+000	9	...........
	15	0.213333	7.74025E-001	2.81162E-004	0.00000E+000	2.17626E-004	1.68088E-001	7.74350E-001	3.57850E+000	9	...........
	16	0.226667	7.80474E-001	2.80952E-004	0.00000E+000	2.19276E-004	1.68088E-001	7.80810E-001	3.57850E+000	9	...........
	17	0.24	7.86572E-001	2.81131E-004	0.00000E+000	2.21130E-004	1.68088E-001	7.86895E-001	3.57850E+000	9	...........
	18	0.253333	7.92333E-001	2.81086E-004	0.00000E+000	2.22713E-004	1.68088E-001	7.92661E-001	3.57850E+000	9	...........
	19	0.266667	7.97813E-001	2.80748E-004	0.00000E+000	2.23984E-004	1.68088E-001	7.98125E-001	3.57850E+000	9	...........
	20	0.28	8.02988E-001	2.81526E-004	0.00000E+000	2.26062E-004	1.68088E-001	8.03312E-001	3.57850E+000	9	...........
	21	0.293333	8.07918E-001	2.80949E-004	0.00000E+000	2.26984E-004	1.68088E-001	8.08268E-001	3.57850E+000	9	...........
	22	0.306667	8.12618E-001	2.80928E-004	0.00000E+000	2.28287E-004	1.68088E-001	8.12975E-001	3.57850E+000	9	...........
	23	0.32	8.17158E-001	2.80927E-004	0.00000E+000	2.29562E-004	1.68088E-001	8.17525E-001	3.57850E+000	9	...........
	24	0.333333	8.21510E-001	2.81272E-004	0.00000E+000	2.31068E-004	1.68088E-001	8.21862E-001	3.57850E+000	9	...........
	25	0.346667	8.25659E-001	2.81569E-004	0.00000E+000	2.32480E-004	1.68088E-001	8.26016E-001	3.57850E+000	9	...........
	26	0.36	8.29602E-001	2.81188E-004	0.00000E+000	2.33274E-004	1.68088E-001	8.29952E-001	3.57850E+000	9	...........
	27	0.373333	8.33428E-001	2.80931E-004	0.00000E+000	2.34136E-004	1.68088E-001	8.33786E-001	3.57850E+000	9	...........
	28	0.386667	8.37081E-001	2.81859E-004	0.00000E+000	2.35939E-004	1.68088E-001	8.37467E-001	3.57850E+000	9	...........
	29	0.4	8.40618E-001	2.81095E-004	0.00000E+000	2.36294E-004	1.68088E-001	8.40983E-001	3.57850E+000	9	...........
	30	0.413333	8.44087E-001	2.81186E-004	0.00000E+000	2.37345E-004	1.68088E-001	8.44443E-001	3.57850E+000	9	...........
	31	0.426667	8.47407E-001	2.80750E-004	0.00000E+000	2.37910E-004	1.68088E-001	8.47761E-001	3.57850E+000	9	...........
	32	0.44	8.50608E-001	2.80869E-004	0.00000E+000	2.38909E-004	1.68088E-001	8.50957E-001	3.57850E+000	9	...........
	33	0.453333	8.53704E-001	2.81711E-004	0.00000E+000	2.40498E-004	1.68088E-001	8.54046E-001	3.57850E+000	9	...........
	34	0.466667	8.56663E-001	2.80672E-004	0.00000E+000	2.40441E-004	1.68088E-001	8.57033E-001	3.57850E+000	9	...........
	35	0.48	8.59569E-001	2.81266E-004	0.00000E+000	2.41767E-004	1.68088E-001	8.59936E-001	3.57850E+000	9	...........
	36	0.493333	8.62356E-001	2.80305E-004	0.00000E+000	2.41723E-004	1.68088E-001	8.62706E-001	3.57850E+000	9	...........
	37	0.506667	8.65056E-001	2.81318E-004	0.00000E+000	2.43356E-004	1.68088E-001	8.65409E-001	3.57850E+000	9	...........
	38	0.52	8.67732E-001	2.81234E-004	0.00000E+000	2.44035E-004	1.68088E-001	8.68064E-001	3.57850E+000	9	...........
	39	0.533333	8.70329E-001	2.81067E-004	0.00000E+000	2.44621E-004	1.68088E-001	8.70678E-001	3.57850E+000	9	...........
	40	0.546667	8.72910E-001	2.80832E-004	0.00000E+000	2.45142E-004	1.68088E-001	8.73254E-001	3.57850E+000	9	...........
	41	0.56	8.75359E-001	2.80176E-004	0.00000E+000	2.45255E-004	1.68088E-001	8.75719E-001	3.57850E+000	9	...........
	42	0.573333	8.77746E-001	2.81247E-004	0.00000E+000	2.46864E-004	1.68088E-001	8.78087E-001	3.57850E+000	9	...........
	43	0.586667	8.80075E-001	2.81863E-004	0.00000E+000	2.48061E-004	1.68088E-001	8.80433E-001	3.57850E+000	9	...........
	44	0.6	8.82360E-001	2.81099E-004	0.00000E+000	2.48031E-004	1.68088E-001	8.82701E-001	3.57850E+000	9	...........
	45	0.613333	8.84607E-001	2.80349E-004	0.00000E+000	2.47999E-004	1.68088E-001	8.84952E-001	3.57850E+000	9	...........
	46	0.626667	8.86808E-001	2.81875E-004	0.00000E+000	2.49969E-004	1.68088E-001	8.87163E-001	3.57850E+000	9	...........
	47	0.64	8.88946E-001	2.81170E-004	0.00000E+000	2.49945E-004	1.68088E-001	8.89307E-001	3.57850E+000	9	...........
	48	0.653333	8.91024E-001	2.82134E-004	0.00000E+000	2.51388E-004	1.68088E-001	8.91378E-001	3.57850E+000	9	...........
	49	0.666667	8.93058E-001	2.81215E-004	0.00000E+000	2.51141E-004	1.68088E-001	8.93418E-001	3.57850E+000	9	...........
	50	0.68	8.95064E-001	2.80801E-004	0.00000E+000	2.51335E-004	1.68088E-001	8.95454E-001	3.57850E+000	9	...........
	51	0.693333	8.97053E-001	2.80367E-004	0.00000E+000	2.51504E-004	1.68088E-001	8.97425E-001	3.57850E+000	9	...........
	52	0.706667	8.99011E-001	2.80722E-004	0.00000E+000	2.52372E-004	1.68088E-001	8.99387E-001	3.57850E+000	9	...........
	53	0.72	9.00901E-001	2.81600E-004	0.00000E+000	2.53694E-004	1.68088E-001	9.01282E-001	3.57850E+000	9	...........
	54	0.733333	9.02760E-001	2.81457E-004	0.00000E+000	2.54088E-004	1.68088E-001	9.03133E-001	3.57850E+000	9	...........
	55	0.746667	9.04580E-001	2.80801E-004	0.00000E+000	2.54007E-004	1.68088E-001	9.04982E-001	3.57850E+000	9	...........
	56	0.76	9.06411E-001	2.80844E-004	0.00000E+000	2.54560E-004	1.68088E-001	9.06788E-001	3.57850E+000	9	...........
	57	0.773333	9.08236E-001	2.80920E-004	0.00000E+000	2.55142E-004	1.68088E-001	9.08615E-001	3.57850E+000	9	...........
	58	0.786667	9.10034E-001	2.80913E-004	0.00000E+000	2.55640E-004	1.68088E-001	9.10369E-001	3.57850E+000	9	...........
	59	0.8	9.11752E-001	2.80952E-004	0.00000E+000	2.56159E-004	1.68088E-001	9.12103E-001	3.57850E+000	9	...........
	60	0.813333	9.13443E-001	2.80484E-004	0.00000E+000	2.56207E-004	1.68088E-001	9.13794E-001	3.57850E+000	9	...........
	61	0.826667	9.15121E-001	2.80681E-004	0.00000E+000	2.56857E-004	1.68088E-001	9.15510E-001	3.57850E+000	9	...........
	62	0.84	9.16783E-001	2.81140E-004	0.00000E+000	2.57744E-004	1.68088E-001	9.17154E-001	3.57850E+000	9	...........
	63	0.853333	9.18386E-001	2.80851E-004	0.00000E+000	2.57930E-004	1.68088E-001	9.18785E-001	3.57850E+000	9	...........
	64	0.866667	9.19985E-001	2.80725E-004	0.00000E+000	2.58263E-004	1.68088E-001	9.20382E-001	3.57850E+000	9	...........
	65	0.88	9.21648E-001	2.81476E-004	0.00000E+000	2.59422E-004	1.68088E-001	9.21973E-001	3.57850E+000	9	...........
	66	0.893333	9.23191E-001	2.81791E-004	0.00000E+000	2.60147E-004	1.68088E-001	9.23538E-001	3.57850E+000	9	...........
	67	0.906667	9.24723E-001	2.81539E-004	0.00000E+000	2.60345E-004	1.68088E-001	9.25082E-001	3.57850E+000	9	...........
	68	0.92	9.26285E-001	2.80275E-004	0.00000E+000	2.59615E-004	1.68088E-001	9.26647E-001	3.57850E+000	9	...........
	69	0.933333	9.27782E-001	2.81810E-004	0.00000E+000	2.61458E-004	1.68088E-001	9.28149E-001	3.57850E+000	9	...........
	70	0.946667	9.29239E-001	2.81980E-004	0.00000E+000	2.62026E-004	1.68088E-001	9.29589E-001	3.57850E+000	9	...........
	71	0.96	9.30680E-001	2.81298E-004	0.00000E+000	2.61799E-004	1.68088E-001	9.31019E-001	3.57850E+000	9	...........
	72	0.97333	9.32110E-001	2.80755E-004	0.00000E+000	2.61695E-004	1.68088E-001	9.32440E-001	3.57850E+000	9	...........
	73	0.98667	9.33490E-001	2.81031E-004	0.00000E+000	2.62340E-004	1.68088E-001	9.33832E-001	3.57850E+000	9	...........
	74	1	9.34868E-001	2.80322E-004	0.00000E+000	2.62064E-004	1.68088E-001	9.35193E-001	3.57850E+000	9	...........
	75	1.01333	9.36259E-001	2.80928E-004	0.00000E+000	2.63022E-004	1.68088E-001	9.36583E-001	3.57850E+000	9	...........
	76	1.02667	9.37633E-001	2.80869E-004	0.00000E+000	2.63352E-004	1.68088E-001	9.37963E-001	3.57850E+000	9	...........
	77	1.04	9.38953E-001	2.80862E-004	0.00000E+000	2.63716E-004	1.68088E-001	9.39309E-001	3.57850E+000	9	...........
	78	1.05333	9.40278E-001	2.80696E-004	0.00000E+000	2.63932E-004	1.68088E-001	9.40613E-001	3.57850E+000	9	...........
	79	1.06667	9.41604E-001	2.81571E-004	0.00000E+000	2.65129E-004	1.68088E-001	9.41931E-001	3.57850E+000	9	...........
	80	1.08	9.42859E-001	2.80617E-004	0.00000E+000	2.64582E-004	1.68088E-001	9.43193E-001	3.57850E+000	9	...........
	81	1.09333	9.44100E-001	2.81260E-004	0.00000E+000	2.65537E-004	1.68088E-001	9.44451E-001	3.57800E+000	9	...........
	82	1.10667	9.45370E-001	2.81221E-004	0.00000E+000	2.65858E-004	1.68088E-001	9.45721E-001	3.57800E+000	9	...........
	83	1.12	9.46630E-001	2.81197E-004	0.00000E+000	2.66190E-004	1.68088E-001	9.46998E-001	3.57800E+000	9	...........
	84	1.13333	9.47907E-001	2.81252E-004	0.00000E+000	2.66601E-004	1.68088E-001	9.48268E-001	3.57800E+000	9	...........
	85	1.14667	9.49156E-001	2.82554E-004	0.00000E+000	2.68187E-004	1.68088E-001	9.49476E-001	3.57800E+000	9	...........
	86	1.16	9.50353E-001	2.80395E-004	0.00000E+000	2.66474E-004	1.68088E-001	9.50678E-001	3.57800E+000	9	...........
	87	1.17333	9.51543E-001	2.80319E-004	0.00000E+000	2.66735E-004	1.68088E-001	9.51888E-001	3.57800E+000	9	...........
	88	1.18667	9.52742E-001	2.81065E-004	0.00000E+000	2.67782E-004	1.68088E-001	9.53088E-001	3.57800E+000	9	...........
	89	1.2	9.53915E-001	2.81741E-004	0.00000E+000	2.68757E-004	1.68088E-001	9.54250E-001	3.57800E+000	9	...........
	90	1.21333	9.55091E-001	2.81101E-004	0.00000E+000	2.68477E-004	1.68088E-001	9.55424E-001	3.57800E+000	9	...........
	91	1.22667	9.56247E-001	2.81102E-004	0.00000E+000	2.68803E-004	1.68088E-001	9.56596E-001	3.57800E+000	9	...........
	92	1.24	9.57392E-001	2.80917E-004	0.00000E+000	2.68947E-004	1.68088E-001	9.57739E-001	3.57800E+000	9	...........
	93	1.25333	9.58524E-001	2.81565E-004	0.00000E+000	2.69887E-004	1.68088E-001	9.58890E-001	3.57800E+000	9	...........
	94	1.26667	9.59641E-001	2.81749E-004	0.00000E+000	2.70378E-004	1.68088E-001	9.60010E-001	3.57800E+000	9	...........
	95	1.28	9.60761E-001	2.80929E-004	0.00000E+000	2.69906E-004	1.68088E-001	9.61144E-001	3.57800E+000	9	...........
	96	1.29333	9.61886E-001	2.81403E-004	0.00000E+000	2.70678E-004	1.68088E-001	9.62244E-001	3.57800E+000	9	...........
	97	1.30667	9.62991E-001	2.80884E-004	0.00000E+000	2.70488E-004	1.68088E-001	9.63346E-001	3.57800E+000	9	...........
	98	1.32	9.64114E-001	2.80120E-004	0.00000E+000	2.70067E-004	1.68088E-001	9.64449E-001	3.57800E+000	9	...........
	99	1.33333	9.65179E-001	2.80393E-004	0.00000E+000	2.70629E-004	1.68088E-001	9.65518E-001	3.57800E+000	9	...........
	100	1.34667	9.66284E-001	2.81773E-004	0.00000E+000	2.72273E-004	1.68088E-001	9.66614E-001	3.57800E+000	9	...........
	101	1.36	9.67354E-001	2.80973E-004	0.00000E+000	2.71800E-004	1.68088E-001	9.67711E-001	3.57800E+000	9	...........
	102	1.37333	9.68411E-001	2.81211E-004	0.00000E+000	2.72327E-004	1.68088E-001	9.68801E-001	3.57800E+000	9	...........
	103	1.38667	9.69473E-001	2.80943E-004	0.00000E+000	2.72367E-004	1.68088E-001	9.69831E-001	3.57800E+000	9	...........
	104	1.4	9.70458E-001	2.80980E-004	0.00000E+000	2.72680E-004	1.68088E-001	9.70859E-001	3.57800E+000	9	...........
	105	1.41333	9.71478E-001	2.80612E-004	0.00000E+000	2.72608E-004	1.68088E-001	9.71921E-001	3.57800E+000	9	...........
	106	1.42667	9.72595E-001	2.81071E-004	0.00000E+000	2.73368E-004	1.68088E-001	9.72986E-001	3.57800E+000	9	...........
	107	1.44	9.73623E-001	2.81717E-004	0.00000E+000	2.74286E-004	1.68088E-001	9.73991E-001	3.57800E+000	9	...........
	108	1.45333	9.74552E-001	2.80890E-004	0.00000E+000	2.73742E-004	1.68088E-001	9.74953E-001	3.57800E+000	9	...........
	109	1.46667	9.75561E-001	2.81709E-004	0.00000E+000	2.74824E-004	1.68088E-001	9.75944E-001	3.57800E+000	9	...........
	110	1.48	9.76502E-001	2.80919E-004	0.00000E+000	2.74318E-004	1.68088E-001	9.76894E-001	3.57800E+000	9	...........
	111	1.49333	9.77445E-001	2.81477E-004	0.00000E+000	2.75129E-004	1.68088E-001	9.77841E-001	3.57800E+000	9	...........
	112	1.50667	9.78449E-001	2.81616E-004	0.00000E+000	2.75547E-004	1.68088E-001	9.78829E-001	3.57800E+000	9	...........
	113	1.52	9.79433E-001	2.80866E-004	0.00000E+000	2.75089E-004	1.68088E-001	9.79785E-001	3.57800E+000	9	...........
	114	1.53333	9.80385E-001	2.81104E-004	0.00000E+000	2.75591E-004	1.68088E-001	9.80718E-001	3.57800E+000	9	...........
	115	1.54667	9.81315E-001	2.80923E-004	0.00000E+000	2.75674E-004	1.68088E-001	9.81638E-001	3.57800E+000	9	...........
	116	1.56	9.82274E-001	2.81689E-004	0.00000E+000	2.76696E-004	1.68088E-001	9.82562E-001	3.57800E+000	9	...........
	117	1.57333	9.83181E-001	2.81610E-004	0.00000E+000	2.76873E-004	1.68088E-001	9.83504E-001	3.57800E+000	9	...........
	118	1.58667	9.84084E-001	2.81276E-004	0.00000E+000	2.76799E-004	1.68088E-001	9.84434E-001	3.57800E+000	9	...........
	119	1.6	9.84984E-001	2.81348E-004	0.00000E+000	2.77124E-004	1.68088E-001	9.85349E-001	3.57800E+000	9	...........
	120	1.61333	9.85898E-001	2.81030E-004	0.00000E+000	2.77067E-004	1.68088E-001	9.86297E-001	3.57800E+000	9	...........
	121	1.62667	9.86809E-001	2.80424E-004	0.00000E+000	2.76725E-004	1.68088E-001	9.87191E-001	3.57800E+000	9	...........
	122	1.64	9.87703E-001	2.81871E-004	0.00000E+000	2.78405E-004	1.68088E-001	9.88132E-001	3.57800E+000	9	...........
	123	1.65333	9.88639E-001	2.80652E-004	0.00000E+000	2.77464E-004	1.68088E-001	9.89029E-001	3.57800E+000	9	...........
	124	1.66667	9.89538E-001	2.81130E-004	0.00000E+000	2.78189E-004	1.68088E-001	9.89923E-001	3.57800E+000	9	...........
	125	1.68	9.90440E-001	2.81345E-004	0.00000E+000	2.78655E-004	1.68088E-001	9.90809E-001	3.57800E+000	9	...........
	126	1.69333	9.91285E-001	2.81717E-004	0.00000E+000	2.79262E-004	1.68088E-001	9.91675E-001	3.57800E+000	9	...........
	127	1.70667	9.92107E-001	2.81515E-004	0.00000E+000	2.79293E-004	1.68088E-001	9.92514E-001	3.57800E+000	9	...........
	128	1.72	9.92962E-001	2.81101E-004	0.00000E+000	2.79123E-004	1.68088E-001	9.93381E-001	3.57800E+000	9	...........
	129	1.73333	9.93850E-001	2.81152E-004	0.00000E+000	2.79423E-004	1.68088E-001	9.94254E-001	3.57800E+000	9	...........
	130	1.74667	9.94708E-001	2.81131E-004	0.00000E+000	2.79644E-004	1.68088E-001	9.95110E-001	3.57800E+000	9	...........
	131	1.76	9.95507E-001	2.80797E-004	0.00000E+000	2.79535E-004	1.68088E-001	9.95942E-001	3.57800E+000	9	...........
	132	1.77333	9.96337E-001	2.81532E-004	0.00000E+000	2.80500E-004	1.68088E-001	9.96749E-001	3.57800E+000	9	...........
	133	1.78667	9.97170E-001	2.81498E-004	0.00000E+000	2.80702E-004	1.68088E-001	9.97589E-001	3.57800E+000	9	...........
	134	1.8	9.97978E-001	2.81097E-004	0.00000E+000	2.80529E-004	1.68088E-001	9.98387E-001	3.57800E+000	9	...........
	135	1.81333	9.98764E-001	2.80341E-004	0.00000E+000	2.79994E-004	1.68088E-001	9.99166E-001	3.57800E+000	9	...........
	136	1.82667	9.99517E-001	2.81711E-004	0.00000E+000	2.81575E-004	1.68088E-001	9.99936E-001	3.57800E+000	9	...........
	137	1.83	9.99976E-001	2.81748E-004	0.00000E+000	2.81741E-004	1.68088E-001	1.00042E+000	3.57800E+000	9	...........
STARTTIMEOFFSET	QUANT	355.8401	Start Time Offset (s)
