EXPLAIN
TAG	PWR800_CHARGE
TITLE	LABEL	PWR Cyclic Charge Discharge (Cell) - Charge Step	Test &Identifier
DATE	LABEL	7-7-2017	Date
TIME	LABEL	16:16:58	Time
NOTES	NOTES	3	&Notes...
	supercap test cell
	2.8mg
	6M KOH
PSTAT	PSTAT	IFC5000-01520	Potentiostat
CAPACITY	QUANT	1.00000E-003	Capacity (A-hr)
CELLTYPE	SELECTOR	1	&Cell Type
WORKINGCONNECTION	SELECTOR	0	&Working Lead
MAXCHARGETIME	VARIABLEANDUNITS	1.00000E+002	s	1.00000E+002	second(s)	Max &Charge Time
CHARGECURRENT	QUANT	2.80000E-004	&Charge Current (A) 
VOLTAGEFINISH	TWOPARAM	F	1.00000E-003	3.60000E+003	&Voltage Finish	 I (A) < 	Max Time(s)
SAMPLETIME	QUANT	1.00000E-002	Sa&mple Period (s)
CHARGESTOPAT1	MULTIPARAM	4	1.00000E+000	Charge Stop At &1	Voltage > Limit	V
CHARGESTOPAT2	MULTIPARAM	0	0.00000E+000	Charge Stop At &2	None	N/A
AESBHCSELECTOR	TOGGLE	F	Save Both Half Cells
IRCOMP	TOGGLE	F	IR &Measure
EOC	QUANT	0	Open Circuit (V)
SEQUENCER	TOGGLE	TRUE	Run as Sequence
PSTATMODEL	IQUANT	53	Pstat Model
PSTATSECTION	LABEL	IFC5000-01520	Pstat Section
PSTATSERIALNO	LABEL	01520	Pstat Serial Number
CTRLMODE	IQUANT	0	Control Mode
ELECTROMETER	IQUANT	1	RE=0 or CS=1
IESTAB	IQUANT	0	I/E Stability
CASPEED	IQUANT	4	Control Amp Speed
CONVENTION	IQUANT	1	Current Convention
ICHRANGE	IQUANT	2	Ich Range
ICHRANGEMODE	TOGGLE	T	Ich Auto Range
ICHOFFSETENABLE	TOGGLE	F	Ich Offset Enable
ICHOFFSET	QUANT	0	Ich Offset (V)
ICHFILTER	IQUANT	1	Ich Filter
VCHRANGE	IQUANT	2	Vch Range
VCHRANGEMODE	TOGGLE	T	Vch Auto Range
VCHOFFSETENABLE	TOGGLE	F	Vch Offset Enable
VCHOFFSET	QUANT	0	Vch Offset (V)
VCHFILTER	IQUANT	1	Vch Filter
IERANGELOWERLIMIT	IQUANT	9	I/E Range Lower Limit
IERANGEMODE	TOGGLE	F	I/E AutoRange
IERANGE	IQUANT	9	I/E Range
ACHSELECT	IQUANT	1	Ach Select
ACHRANGE	IQUANT	2	Ach Range
ACHOFFSETENABLE	TOGGLE	F	Ach Offset Enable
ACHOFFSET	QUANT	0	Ach Offset (V)
ACHFILTER	IQUANT	1	Ach Filter
CABLEID	IQUANT	14	Cable ID
DCCALDATE	LABEL	5-7-2017	DC Calibration Date
ACCALDATE	LABEL	12/3/2015	AC Calibration Date
FRAMEWORKVERSION	QUANT	7.01	Framework Version
INSTRUMENTVERSION	LABEL	4.00	Instrument Version
CURVE	TABLE	62
	Pt	T	Vf	Im	Vu	Pwr	Sig	Ach	Temp	IERange	Over
	#	s	V	A	V	W	V	V	deg C	#	bits
	0	0.013333	6.06529E-001	2.79268E-004	0.00000E+000	1.69384E-004	1.68088E-001	6.06798E-001	3.57730E+000	9	...........
	1	0.026667	6.36893E-001	2.80046E-004	0.00000E+000	1.78359E-004	1.68088E-001	6.37166E-001	3.57730E+000	9	...........
	2	0.04	6.63051E-001	2.79626E-004	0.00000E+000	1.85406E-004	1.68088E-001	6.63309E-001	3.57730E+000	9	...........
	3	0.053333	6.86071E-001	2.81617E-004	0.00000E+000	1.93209E-004	1.68088E-001	6.86328E-001	3.57730E+000	9	...........
	4	0.066667	7.06613E-001	2.79244E-004	0.00000E+000	1.97317E-004	1.68088E-001	7.06875E-001	3.57730E+000	9	...........
	5	0.08	7.25221E-001	2.81374E-004	0.00000E+000	2.04058E-004	1.68088E-001	7.25483E-001	3.57730E+000	9	...........
	6	0.093333	7.42101E-001	2.81114E-004	0.00000E+000	2.08615E-004	1.68088E-001	7.42398E-001	3.57730E+000	9	...........
	7	0.106667	7.57611E-001	2.81145E-004	0.00000E+000	2.12999E-004	1.68088E-001	7.57892E-001	3.57730E+000	9	...........
	8	0.12	7.71883E-001	2.81334E-004	0.00000E+000	2.17157E-004	1.68088E-001	7.72156E-001	3.57730E+000	9	...........
	9	0.133333	7.85037E-001	2.80478E-004	0.00000E+000	2.20186E-004	1.68088E-001	7.85316E-001	3.57730E+000	9	...........
	10	0.146667	7.97255E-001	2.79982E-004	0.00000E+000	2.23217E-004	1.68088E-001	7.97545E-001	3.57730E+000	9	...........
	11	0.16	8.08531E-001	2.80457E-004	0.00000E+000	2.26759E-004	1.68088E-001	8.08825E-001	3.57730E+000	9	...........
	12	0.173333	8.19074E-001	2.80501E-004	0.00000E+000	2.29751E-004	1.68088E-001	8.19382E-001	3.57730E+000	9	...........
	13	0.186667	8.28884E-001	2.80099E-004	0.00000E+000	2.32170E-004	1.68088E-001	8.29201E-001	3.57730E+000	9	...........
	14	0.2	8.37991E-001	2.80095E-004	0.00000E+000	2.34717E-004	1.68088E-001	8.38333E-001	3.57730E+000	9	...........
	15	0.213333	8.46599E-001	2.80488E-004	0.00000E+000	2.37461E-004	1.68088E-001	8.46928E-001	3.57730E+000	9	...........
	16	0.226667	8.54617E-001	2.80722E-004	0.00000E+000	2.39910E-004	1.68088E-001	8.54966E-001	3.57730E+000	9	...........
	17	0.24	8.62190E-001	2.81513E-004	0.00000E+000	2.42718E-004	1.68088E-001	8.62532E-001	3.57730E+000	9	...........
	18	0.253333	8.69291E-001	2.82215E-004	0.00000E+000	2.45327E-004	1.68088E-001	8.69636E-001	3.57730E+000	9	...........
	19	0.266667	8.75968E-001	2.82124E-004	0.00000E+000	2.47132E-004	1.68088E-001	8.76323E-001	3.57730E+000	9	...........
	20	0.28	8.82260E-001	2.80788E-004	0.00000E+000	2.47728E-004	1.68088E-001	8.82599E-001	3.57730E+000	9	...........
	21	0.293333	8.88187E-001	2.80629E-004	0.00000E+000	2.49251E-004	1.68088E-001	8.88516E-001	3.57730E+000	9	...........
	22	0.306667	8.93771E-001	2.81210E-004	0.00000E+000	2.51337E-004	1.68088E-001	8.94130E-001	3.57730E+000	9	...........
	23	0.32	8.99092E-001	2.80468E-004	0.00000E+000	2.52167E-004	1.68088E-001	8.99418E-001	3.57730E+000	9	...........
	24	0.333333	9.04116E-001	2.80285E-004	0.00000E+000	2.53410E-004	1.68088E-001	9.04438E-001	3.57730E+000	9	...........
	25	0.346667	9.08896E-001	2.81465E-004	0.00000E+000	2.55822E-004	1.68088E-001	9.09233E-001	3.57756E+000	9	...........
	26	0.36	9.13425E-001	2.79625E-004	0.00000E+000	2.55416E-004	1.68088E-001	9.13740E-001	3.57770E+000	9	...........
	27	0.373333	9.17722E-001	2.81096E-004	0.00000E+000	2.57968E-004	1.68088E-001	9.18047E-001	3.57770E+000	9	...........
	28	0.386667	9.21905E-001	2.81060E-004	0.00000E+000	2.59110E-004	1.68088E-001	9.22188E-001	3.57770E+000	9	...........
	29	0.4	9.25829E-001	2.80291E-004	0.00000E+000	2.59501E-004	1.68088E-001	9.26080E-001	3.57770E+000	9	...........
	30	0.413333	9.29540E-001	2.80837E-004	0.00000E+000	2.61049E-004	1.68088E-001	9.29798E-001	3.57770E+000	9	...........
	31	0.426667	9.33074E-001	2.82320E-004	0.00000E+000	2.63426E-004	1.68088E-001	9.33380E-001	3.57770E+000	9	...........
	32	0.44	9.36505E-001	2.81554E-004	0.00000E+000	2.63677E-004	1.68088E-001	9.36808E-001	3.57770E+000	9	...........
	33	0.453333	9.39760E-001	2.81564E-004	0.00000E+000	2.64602E-004	1.68088E-001	9.40094E-001	3.57770E+000	9	...........
	34	0.466667	9.42936E-001	2.81352E-004	0.00000E+000	2.65297E-004	1.68088E-001	9.43231E-001	3.57770E+000	9	...........
	35	0.48	9.45997E-001	2.80138E-004	0.00000E+000	2.65009E-004	1.68088E-001	9.46309E-001	3.57770E+000	9	...........
	36	0.493333	9.48946E-001	2.80364E-004	0.00000E+000	2.66050E-004	1.68088E-001	9.49278E-001	3.57770E+000	9	...........
	37	0.506667	9.51754E-001	2.81115E-004	0.00000E+000	2.67552E-004	1.68088E-001	9.52119E-001	3.57770E+000	9	...........
	38	0.52	9.54532E-001	2.80447E-004	0.00000E+000	2.67696E-004	1.68088E-001	9.54875E-001	3.57770E+000	9	...........
	39	0.533333	9.57159E-001	2.81420E-004	0.00000E+000	2.69364E-004	1.68088E-001	9.57505E-001	3.57770E+000	9	...........
	40	0.546667	9.59721E-001	2.80763E-004	0.00000E+000	2.69454E-004	1.68088E-001	9.60064E-001	3.57770E+000	9	...........
	41	0.56	9.62227E-001	2.81514E-004	0.00000E+000	2.70880E-004	1.68088E-001	9.62566E-001	3.57770E+000	9	...........
	42	0.573333	9.64584E-001	2.81150E-004	0.00000E+000	2.71193E-004	1.68088E-001	9.64954E-001	3.57770E+000	9	...........
	43	0.586667	9.66938E-001	2.81169E-004	0.00000E+000	2.71873E-004	1.68088E-001	9.67269E-001	3.57770E+000	9	...........
	44	0.6	9.69183E-001	2.81126E-004	0.00000E+000	2.72463E-004	1.68088E-001	9.69514E-001	3.57770E+000	9	...........
	45	0.613333	9.71337E-001	2.81866E-004	0.00000E+000	2.73787E-004	1.68088E-001	9.71701E-001	3.57770E+000	9	...........
	46	0.626667	9.73539E-001	2.81252E-004	0.00000E+000	2.73810E-004	1.68088E-001	9.73840E-001	3.57770E+000	9	...........
	47	0.64	9.75626E-001	2.81526E-004	0.00000E+000	2.74664E-004	1.68088E-001	9.75959E-001	3.57770E+000	9	...........
	48	0.653333	9.77616E-001	2.79572E-004	0.00000E+000	2.73314E-004	1.68088E-001	9.77954E-001	3.57770E+000	9	...........
	49	0.666667	9.79631E-001	2.81389E-004	0.00000E+000	2.75657E-004	1.68088E-001	9.79949E-001	3.57770E+000	9	...........
	50	0.68	9.81574E-001	2.83409E-004	0.00000E+000	2.78187E-004	1.68088E-001	9.81902E-001	3.57770E+000	9	...........
	51	0.693333	9.83454E-001	2.81354E-004	0.00000E+000	2.76699E-004	1.68088E-001	9.83795E-001	3.57770E+000	9	...........
	52	0.706667	9.85308E-001	2.80588E-004	0.00000E+000	2.76465E-004	1.68088E-001	9.85670E-001	3.57770E+000	9	...........
	53	0.72	9.87099E-001	2.81101E-004	0.00000E+000	2.77475E-004	1.68088E-001	9.87459E-001	3.57770E+000	9	...........
	54	0.733333	9.88876E-001	2.80894E-004	0.00000E+000	2.77769E-004	1.68088E-001	9.89254E-001	3.57770E+000	9	...........
	55	0.746667	9.90593E-001	2.83291E-004	0.00000E+000	2.80626E-004	1.68088E-001	9.90961E-001	3.57770E+000	9	...........
	56	0.76	9.92261E-001	2.81493E-004	0.00000E+000	2.79314E-004	1.68088E-001	9.92655E-001	3.57770E+000	9	...........
	57	0.773333	9.93933E-001	2.80729E-004	0.00000E+000	2.79026E-004	1.68088E-001	9.94332E-001	3.57770E+000	9	...........
	58	0.786667	9.95543E-001	2.82163E-004	0.00000E+000	2.80905E-004	1.68088E-001	9.95910E-001	3.57770E+000	9	...........
	59	0.8	9.97101E-001	2.81188E-004	0.00000E+000	2.80373E-004	1.68088E-001	9.97482E-001	3.57770E+000	9	...........
	60	0.813333	9.98643E-001	2.80157E-004	0.00000E+000	2.79777E-004	1.68088E-001	9.99004E-001	3.57770E+000	9	...........
	61	0.82	9.99776E-001	2.80513E-004	0.00000E+000	2.80450E-004	1.68088E-001	1.00015E+000	3.57770E+000	9	...........
STARTTIMEOFFSET	QUANT	1803.643	Start Time Offset (s)
