EXPLAIN
TAG	PWR800_CHARGE
TITLE	LABEL	PWR Cyclic Charge Discharge (Cell) - Charge Step	Test &Identifier
DATE	LABEL	7-7-2017	Date
TIME	LABEL	15:39:20	Time
NOTES	NOTES	3	&Notes...
	supercap test cell
	2.8mg
	6M KOH
PSTAT	PSTAT	IFC5000-01520	Potentiostat
CAPACITY	QUANT	1.00000E-003	Capacity (A-hr)
CELLTYPE	SELECTOR	1	&Cell Type
WORKINGCONNECTION	SELECTOR	0	&Working Lead
MAXCHARGETIME	VARIABLEANDUNITS	1.00000E+002	s	1.00000E+002	second(s)	Max &Charge Time
CHARGECURRENT	QUANT	2.80000E-004	&Charge Current (A) 
VOLTAGEFINISH	TWOPARAM	F	1.00000E-003	3.60000E+003	&Voltage Finish	 I (A) < 	Max Time(s)
SAMPLETIME	QUANT	1.00000E-002	Sa&mple Period (s)
CHARGESTOPAT1	MULTIPARAM	4	1.00000E+000	Charge Stop At &1	Voltage > Limit	V
CHARGESTOPAT2	MULTIPARAM	0	0.00000E+000	Charge Stop At &2	None	N/A
AESBHCSELECTOR	TOGGLE	F	Save Both Half Cells
IRCOMP	TOGGLE	F	IR &Measure
EOC	QUANT	0	Open Circuit (V)
SEQUENCER	TOGGLE	TRUE	Run as Sequence
PSTATMODEL	IQUANT	53	Pstat Model
PSTATSECTION	LABEL	IFC5000-01520	Pstat Section
PSTATSERIALNO	LABEL	01520	Pstat Serial Number
CTRLMODE	IQUANT	0	Control Mode
ELECTROMETER	IQUANT	1	RE=0 or CS=1
IESTAB	IQUANT	0	I/E Stability
CASPEED	IQUANT	4	Control Amp Speed
CONVENTION	IQUANT	1	Current Convention
ICHRANGE	IQUANT	2	Ich Range
ICHRANGEMODE	TOGGLE	T	Ich Auto Range
ICHOFFSETENABLE	TOGGLE	F	Ich Offset Enable
ICHOFFSET	QUANT	0	Ich Offset (V)
ICHFILTER	IQUANT	1	Ich Filter
VCHRANGE	IQUANT	2	Vch Range
VCHRANGEMODE	TOGGLE	T	Vch Auto Range
VCHOFFSETENABLE	TOGGLE	F	Vch Offset Enable
VCHOFFSET	QUANT	0	Vch Offset (V)
VCHFILTER	IQUANT	1	Vch Filter
IERANGELOWERLIMIT	IQUANT	9	I/E Range Lower Limit
IERANGEMODE	TOGGLE	F	I/E AutoRange
IERANGE	IQUANT	9	I/E Range
ACHSELECT	IQUANT	1	Ach Select
ACHRANGE	IQUANT	2	Ach Range
ACHOFFSETENABLE	TOGGLE	F	Ach Offset Enable
ACHOFFSET	QUANT	0	Ach Offset (V)
ACHFILTER	IQUANT	1	Ach Filter
CABLEID	IQUANT	14	Cable ID
DCCALDATE	LABEL	5-7-2017	DC Calibration Date
ACCALDATE	LABEL	12/3/2015	AC Calibration Date
FRAMEWORKVERSION	QUANT	7.01	Framework Version
INSTRUMENTVERSION	LABEL	4.00	Instrument Version
CURVE	TABLE	169
	Pt	T	Vf	Im	Vu	Pwr	Sig	Ach	Temp	IERange	Over
	#	s	V	A	V	W	V	V	deg C	#	bits
	0	0.013333	5.56626E-001	2.80621E-004	0.00000E+000	1.56201E-004	1.68088E-001	5.56899E-001	3.57840E+000	9	...........
	1	0.026667	5.84086E-001	2.80744E-004	0.00000E+000	1.63979E-004	1.68088E-001	5.84373E-001	3.57840E+000	9	...........
	2	0.04	6.06894E-001	2.80988E-004	0.00000E+000	1.70530E-004	1.68088E-001	6.07186E-001	3.57840E+000	9	...........
	3	0.053333	6.26384E-001	2.81326E-004	0.00000E+000	1.76218E-004	1.68088E-001	6.26638E-001	3.57840E+000	9	...........
	4	0.066667	6.43340E-001	2.79958E-004	0.00000E+000	1.80109E-004	1.68088E-001	6.43569E-001	3.57840E+000	9	...........
	5	0.08	6.58287E-001	2.80997E-004	0.00000E+000	1.84977E-004	1.68088E-001	6.58514E-001	3.57840E+000	9	...........
	6	0.093333	6.71677E-001	2.81193E-004	0.00000E+000	1.88871E-004	1.68088E-001	6.71917E-001	3.57840E+000	9	...........
	7	0.106667	6.83737E-001	2.80553E-004	0.00000E+000	1.91825E-004	1.68088E-001	6.83999E-001	3.57840E+000	9	...........
	8	0.12	6.94674E-001	2.80544E-004	0.00000E+000	1.94887E-004	1.68088E-001	6.94947E-001	3.57840E+000	9	...........
	9	0.133333	7.04723E-001	2.81304E-004	0.00000E+000	1.98242E-004	1.68088E-001	7.05003E-001	3.57840E+000	9	...........
	10	0.146667	7.13964E-001	2.80422E-004	0.00000E+000	2.00211E-004	1.68088E-001	7.14269E-001	3.57840E+000	9	...........
	11	0.16	7.22563E-001	2.80817E-004	0.00000E+000	2.02908E-004	1.68088E-001	7.22848E-001	3.57840E+000	9	...........
	12	0.173333	7.30490E-001	2.80498E-004	0.00000E+000	2.04901E-004	1.68088E-001	7.30810E-001	3.57840E+000	9	...........
	13	0.186667	7.37893E-001	2.81258E-004	0.00000E+000	2.07538E-004	1.68088E-001	7.38186E-001	3.57840E+000	9	...........
	14	0.2	7.44820E-001	2.80912E-004	0.00000E+000	2.09229E-004	1.68088E-001	7.45128E-001	3.57840E+000	9	...........
	15	0.213333	7.51294E-001	2.81642E-004	0.00000E+000	2.11596E-004	1.68088E-001	7.51606E-001	3.57840E+000	9	...........
	16	0.226667	7.57411E-001	2.80789E-004	0.00000E+000	2.12673E-004	1.68088E-001	7.57719E-001	3.57840E+000	9	...........
	17	0.24	7.63196E-001	2.80084E-004	0.00000E+000	2.13759E-004	1.68088E-001	7.63509E-001	3.57840E+000	9	...........
	18	0.253333	7.68672E-001	2.81325E-004	0.00000E+000	2.16247E-004	1.68088E-001	7.68994E-001	3.57840E+000	9	...........
	19	0.266667	7.73869E-001	2.81487E-004	0.00000E+000	2.17834E-004	1.68088E-001	7.74190E-001	3.57840E+000	9	...........
	20	0.28	7.78817E-001	2.81563E-004	0.00000E+000	2.19286E-004	1.68088E-001	7.79137E-001	3.57840E+000	9	...........
	21	0.293333	7.83540E-001	2.80242E-004	0.00000E+000	2.19581E-004	1.68088E-001	7.83877E-001	3.57840E+000	9	...........
	22	0.306667	7.88050E-001	2.81387E-004	0.00000E+000	2.21747E-004	1.68088E-001	7.88370E-001	3.57840E+000	9	...........
	23	0.32	7.92374E-001	2.80680E-004	0.00000E+000	2.22404E-004	1.68088E-001	7.92702E-001	3.57840E+000	9	...........
	24	0.333333	7.96517E-001	2.81200E-004	0.00000E+000	2.23981E-004	1.68088E-001	7.96837E-001	3.57840E+000	9	...........
	25	0.346667	8.00480E-001	2.80351E-004	0.00000E+000	2.24415E-004	1.68088E-001	8.00787E-001	3.57840E+000	9	...........
	26	0.36	8.04285E-001	2.80439E-004	0.00000E+000	2.25553E-004	1.68088E-001	8.04618E-001	3.57840E+000	9	...........
	27	0.373333	8.07966E-001	2.80643E-004	0.00000E+000	2.26750E-004	1.68088E-001	8.08301E-001	3.57840E+000	9	...........
	28	0.386667	8.11495E-001	2.81784E-004	0.00000E+000	2.28666E-004	1.68088E-001	8.11821E-001	3.57840E+000	9	...........
	29	0.4	8.14886E-001	2.80662E-004	0.00000E+000	2.28707E-004	1.68088E-001	8.15235E-001	3.57840E+000	9	...........
	30	0.413333	8.18201E-001	2.80711E-004	0.00000E+000	2.29678E-004	1.68088E-001	8.18557E-001	3.57840E+000	9	...........
	31	0.426667	8.21376E-001	2.81273E-004	0.00000E+000	2.31031E-004	1.68088E-001	8.21715E-001	3.57840E+000	9	...........
	32	0.44	8.24446E-001	2.80671E-004	0.00000E+000	2.31398E-004	1.68088E-001	8.24775E-001	3.57840E+000	9	...........
	33	0.453333	8.27408E-001	2.81338E-004	0.00000E+000	2.32781E-004	1.68088E-001	8.27721E-001	3.57840E+000	9	...........
	34	0.466667	8.30316E-001	2.80714E-004	0.00000E+000	2.33081E-004	1.68088E-001	8.30606E-001	3.57840E+000	9	...........
	35	0.48	8.33159E-001	2.80705E-004	0.00000E+000	2.33872E-004	1.68088E-001	8.33456E-001	3.57840E+000	9	...........
	36	0.493333	8.35869E-001	2.81983E-004	0.00000E+000	2.35701E-004	1.68088E-001	8.36180E-001	3.57840E+000	9	...........
	37	0.506667	8.38543E-001	2.81436E-004	0.00000E+000	2.35996E-004	1.68088E-001	8.38849E-001	3.57885E+000	9	...........
	38	0.52	8.41166E-001	2.80582E-004	0.00000E+000	2.36016E-004	1.68088E-001	8.41479E-001	3.57910E+000	9	...........
	39	0.533333	8.43740E-001	2.81097E-004	0.00000E+000	2.37173E-004	1.68088E-001	8.44062E-001	3.57910E+000	9	...........
	40	0.546667	8.46254E-001	2.80810E-004	0.00000E+000	2.37636E-004	1.68088E-001	8.46557E-001	3.57910E+000	9	...........
	41	0.56	8.48680E-001	2.81121E-004	0.00000E+000	2.38582E-004	1.68088E-001	8.49021E-001	3.57910E+000	9	...........
	42	0.573333	8.51061E-001	2.80561E-004	0.00000E+000	2.38774E-004	1.68088E-001	8.51371E-001	3.57910E+000	9	...........
	43	0.586667	8.53341E-001	2.81635E-004	0.00000E+000	2.40330E-004	1.68088E-001	8.53673E-001	3.57910E+000	9	...........
	44	0.6	8.55555E-001	2.80365E-004	0.00000E+000	2.39867E-004	1.68088E-001	8.55912E-001	3.57910E+000	9	...........
	45	0.613333	8.57776E-001	2.81291E-004	0.00000E+000	2.41285E-004	1.68088E-001	8.58131E-001	3.57910E+000	9	...........
	46	0.626667	8.59971E-001	2.80961E-004	0.00000E+000	2.41618E-004	1.68088E-001	8.60337E-001	3.57910E+000	9	...........
	47	0.64	8.62099E-001	2.81552E-004	0.00000E+000	2.42726E-004	1.68088E-001	8.62436E-001	3.57910E+000	9	...........
	48	0.653333	8.64141E-001	2.80867E-004	0.00000E+000	2.42708E-004	1.68088E-001	8.64511E-001	3.57910E+000	9	...........
	49	0.666667	8.66178E-001	2.80888E-004	0.00000E+000	2.43299E-004	1.68088E-001	8.66527E-001	3.57910E+000	9	...........
	50	0.68	8.68170E-001	2.81069E-004	0.00000E+000	2.44016E-004	1.68088E-001	8.68512E-001	3.57910E+000	9	...........
	51	0.693333	8.70144E-001	2.80888E-004	0.00000E+000	2.44413E-004	1.68088E-001	8.70479E-001	3.57910E+000	9	...........
	52	0.706667	8.72129E-001	2.80756E-004	0.00000E+000	2.44856E-004	1.68088E-001	8.72463E-001	3.57910E+000	9	...........
	53	0.72	8.74009E-001	2.81221E-004	0.00000E+000	2.45790E-004	1.68088E-001	8.74364E-001	3.57910E+000	9	...........
	54	0.733333	8.75850E-001	2.81466E-004	0.00000E+000	2.46522E-004	1.68088E-001	8.76191E-001	3.57910E+000	9	...........
	55	0.746667	8.77671E-001	2.81324E-004	0.00000E+000	2.46910E-004	1.68088E-001	8.78011E-001	3.57910E+000	9	...........
	56	0.76	8.79510E-001	2.80990E-004	0.00000E+000	2.47133E-004	1.68088E-001	8.79856E-001	3.57910E+000	9	...........
	57	0.773333	8.81353E-001	2.80731E-004	0.00000E+000	2.47424E-004	1.68088E-001	8.81717E-001	3.57910E+000	9	...........
	58	0.786667	8.83198E-001	2.80632E-004	0.00000E+000	2.47854E-004	1.68088E-001	8.83562E-001	3.57910E+000	9	...........
	59	0.8	8.84941E-001	2.81424E-004	0.00000E+000	2.49044E-004	1.68088E-001	8.85313E-001	3.57910E+000	9	...........
	60	0.813333	8.86648E-001	2.81536E-004	0.00000E+000	2.49623E-004	1.68088E-001	8.87017E-001	3.57910E+000	9	...........
	61	0.826667	8.88322E-001	2.80866E-004	0.00000E+000	2.49499E-004	1.68088E-001	8.88678E-001	3.57910E+000	9	...........
	62	0.84	8.89977E-001	2.80356E-004	0.00000E+000	2.49511E-004	1.68088E-001	8.90329E-001	3.57910E+000	9	...........
	63	0.853333	8.91606E-001	2.80720E-004	0.00000E+000	2.50292E-004	1.68088E-001	8.91958E-001	3.57910E+000	9	...........
	64	0.866667	8.93232E-001	2.81280E-004	0.00000E+000	2.51249E-004	1.68088E-001	8.93575E-001	3.57910E+000	9	...........
	65	0.88	8.94832E-001	2.81420E-004	0.00000E+000	2.51824E-004	1.68088E-001	8.95223E-001	3.57910E+000	9	...........
	66	0.893333	8.96470E-001	2.81088E-004	0.00000E+000	2.51987E-004	1.68088E-001	8.96815E-001	3.57910E+000	9	...........
	67	0.906667	8.98010E-001	2.80880E-004	0.00000E+000	2.52233E-004	1.68088E-001	8.98357E-001	3.57910E+000	9	...........
	68	0.92	8.99526E-001	2.81332E-004	0.00000E+000	2.53065E-004	1.68088E-001	8.99894E-001	3.57910E+000	9	...........
	69	0.933333	9.01072E-001	2.81866E-004	0.00000E+000	2.53982E-004	1.68088E-001	9.01437E-001	3.57910E+000	9	...........
	70	0.946667	9.02539E-001	2.81449E-004	0.00000E+000	2.54019E-004	1.68088E-001	9.02935E-001	3.57910E+000	9	...........
	71	0.96	9.03999E-001	2.81375E-004	0.00000E+000	2.54363E-004	1.68088E-001	9.04403E-001	3.57910E+000	9	...........
	72	0.97333	9.05444E-001	2.81011E-004	0.00000E+000	2.54439E-004	1.68088E-001	9.05855E-001	3.57910E+000	9	...........
	73	0.98667	9.06868E-001	2.80353E-004	0.00000E+000	2.54243E-004	1.68088E-001	9.07305E-001	3.57910E+000	9	...........
	74	1	9.08350E-001	2.80798E-004	0.00000E+000	2.55063E-004	1.68088E-001	9.08758E-001	3.57910E+000	9	...........
	75	1.01333	9.09794E-001	2.81787E-004	0.00000E+000	2.56368E-004	1.68088E-001	9.10173E-001	3.57910E+000	9	...........
	76	1.02667	9.11142E-001	2.81444E-004	0.00000E+000	2.56435E-004	1.68088E-001	9.11550E-001	3.57910E+000	9	...........
	77	1.04	9.12522E-001	2.82154E-004	0.00000E+000	2.57471E-004	1.68088E-001	9.12914E-001	3.57910E+000	9	...........
	78	1.05333	9.13882E-001	2.81461E-004	0.00000E+000	2.57222E-004	1.68088E-001	9.14284E-001	3.57910E+000	9	...........
	79	1.06667	9.15247E-001	2.81443E-004	0.00000E+000	2.57590E-004	1.68088E-001	9.15642E-001	3.57910E+000	9	...........
	80	1.08	9.16586E-001	2.81041E-004	0.00000E+000	2.57598E-004	1.68088E-001	9.16994E-001	3.57910E+000	9	...........
	81	1.09333	9.17908E-001	2.81346E-004	0.00000E+000	2.58250E-004	1.68088E-001	9.18302E-001	3.57910E+000	9	...........
	82	1.10667	9.19211E-001	2.81219E-004	0.00000E+000	2.58500E-004	1.68088E-001	9.19557E-001	3.57910E+000	9	...........
	83	1.12	9.20553E-001	2.80944E-004	0.00000E+000	2.58624E-004	1.68088E-001	9.20900E-001	3.57910E+000	9	...........
	84	1.13333	9.21877E-001	2.80428E-004	0.00000E+000	2.58520E-004	1.68088E-001	9.22174E-001	3.57910E+000	9	...........
	85	1.14667	9.23145E-001	2.80527E-004	0.00000E+000	2.58967E-004	1.68088E-001	9.23465E-001	3.57910E+000	9	...........
	86	1.16	9.24424E-001	2.80860E-004	0.00000E+000	2.59633E-004	1.68088E-001	9.24742E-001	3.57910E+000	9	...........
	87	1.17333	9.25676E-001	2.81193E-004	0.00000E+000	2.60294E-004	1.68088E-001	9.26020E-001	3.57910E+000	9	...........
	88	1.18667	9.26962E-001	2.81394E-004	0.00000E+000	2.60841E-004	1.68088E-001	9.27304E-001	3.57910E+000	9	...........
	89	1.2	9.28226E-001	2.81711E-004	0.00000E+000	2.61491E-004	1.68088E-001	9.28545E-001	3.57910E+000	9	...........
	90	1.21333	9.29437E-001	2.80875E-004	0.00000E+000	2.61056E-004	1.68088E-001	9.29757E-001	3.57910E+000	9	...........
	91	1.22667	9.30633E-001	2.80772E-004	0.00000E+000	2.61296E-004	1.68088E-001	9.30949E-001	3.57910E+000	9	...........
	92	1.24	9.31820E-001	2.81045E-004	0.00000E+000	2.61883E-004	1.68088E-001	9.32149E-001	3.57910E+000	9	...........
	93	1.25333	9.32975E-001	2.80453E-004	0.00000E+000	2.61656E-004	1.68088E-001	9.33320E-001	3.57910E+000	9	...........
	94	1.26667	9.34175E-001	2.81587E-004	0.00000E+000	2.63051E-004	1.68088E-001	9.34529E-001	3.57910E+000	9	...........
	95	1.28	9.35330E-001	2.82183E-004	0.00000E+000	2.63934E-004	1.68088E-001	9.35689E-001	3.57910E+000	9	...........
	96	1.29333	9.36440E-001	2.81433E-004	0.00000E+000	2.63545E-004	1.68088E-001	9.36828E-001	3.57910E+000	9	...........
	97	1.30667	9.37610E-001	2.82231E-004	0.00000E+000	2.64622E-004	1.68088E-001	9.37981E-001	3.57910E+000	9	...........
	98	1.32	9.38735E-001	2.81022E-004	0.00000E+000	2.63805E-004	1.68088E-001	9.39106E-001	3.57910E+000	9	...........
	99	1.33333	9.39866E-001	2.82074E-004	0.00000E+000	2.65112E-004	1.68088E-001	9.40268E-001	3.57910E+000	9	...........
	100	1.34667	9.41017E-001	2.81184E-004	0.00000E+000	2.64598E-004	1.68088E-001	9.41371E-001	3.57910E+000	9	...........
	101	1.36	9.42092E-001	2.80501E-004	0.00000E+000	2.64258E-004	1.68088E-001	9.42469E-001	3.57910E+000	9	...........
	102	1.37333	9.43191E-001	2.82104E-004	0.00000E+000	2.66078E-004	1.68088E-001	9.43559E-001	3.57910E+000	9	...........
	103	1.38667	9.44310E-001	2.81221E-004	0.00000E+000	2.65560E-004	1.68088E-001	9.44660E-001	3.57910E+000	9	...........
	104	1.4	9.45357E-001	2.80704E-004	0.00000E+000	2.65366E-004	1.68088E-001	9.45744E-001	3.57910E+000	9	...........
	105	1.41333	9.46456E-001	2.82311E-004	0.00000E+000	2.67195E-004	1.68088E-001	9.46809E-001	3.57910E+000	9	...........
	106	1.42667	9.47534E-001	2.80523E-004	0.00000E+000	2.65805E-004	1.68088E-001	9.47876E-001	3.57910E+000	9	...........
	107	1.44	9.48558E-001	2.80875E-004	0.00000E+000	2.66426E-004	1.68088E-001	9.48923E-001	3.57910E+000	9	...........
	108	1.45333	9.49584E-001	2.81181E-004	0.00000E+000	2.67005E-004	1.68088E-001	9.49939E-001	3.57910E+000	9	...........
	109	1.46667	9.50605E-001	2.80565E-004	0.00000E+000	2.66706E-004	1.68088E-001	9.50959E-001	3.57910E+000	9	...........
	110	1.48	9.51651E-001	2.81368E-004	0.00000E+000	2.67764E-004	1.68088E-001	9.51990E-001	3.57910E+000	9	...........
	111	1.49333	9.52655E-001	2.80851E-004	0.00000E+000	2.67554E-004	1.68088E-001	9.53014E-001	3.57910E+000	9	...........
	112	1.50667	9.53653E-001	2.81925E-004	0.00000E+000	2.68859E-004	1.68088E-001	9.54020E-001	3.57865E+000	9	...........
	113	1.52	9.54666E-001	2.80893E-004	0.00000E+000	2.68159E-004	1.68088E-001	9.55035E-001	3.57840E+000	9	...........
	114	1.53333	9.55658E-001	2.81015E-004	0.00000E+000	2.68554E-004	1.68088E-001	9.56005E-001	3.57840E+000	9	...........
	115	1.54667	9.56632E-001	2.80598E-004	0.00000E+000	2.68429E-004	1.68088E-001	9.56995E-001	3.57840E+000	9	...........
	116	1.56	9.57624E-001	2.81124E-004	0.00000E+000	2.69211E-004	1.68088E-001	9.58001E-001	3.57840E+000	9	...........
	117	1.57333	9.58566E-001	2.81412E-004	0.00000E+000	2.69752E-004	1.68088E-001	9.58980E-001	3.57840E+000	9	...........
	118	1.58667	9.59511E-001	2.81186E-004	0.00000E+000	2.69801E-004	1.68088E-001	9.59920E-001	3.57840E+000	9	...........
	119	1.6	9.60445E-001	2.80860E-004	0.00000E+000	2.69750E-004	1.68088E-001	9.60838E-001	3.57840E+000	9	...........
	120	1.61333	9.61366E-001	2.81016E-004	0.00000E+000	2.70159E-004	1.68088E-001	9.61759E-001	3.57840E+000	9	...........
	121	1.62667	9.62288E-001	2.80901E-004	0.00000E+000	2.70308E-004	1.68088E-001	9.62696E-001	3.57840E+000	9	...........
	122	1.64	9.63197E-001	2.81087E-004	0.00000E+000	2.70742E-004	1.68088E-001	9.63605E-001	3.57840E+000	9	...........
	123	1.65333	9.64089E-001	2.80821E-004	0.00000E+000	2.70736E-004	1.68088E-001	9.64501E-001	3.57840E+000	9	...........
	124	1.66667	9.64992E-001	2.81199E-004	0.00000E+000	2.71355E-004	1.68088E-001	9.65401E-001	3.57840E+000	9	...........
	125	1.68	9.65870E-001	2.81031E-004	0.00000E+000	2.71440E-004	1.68088E-001	9.66278E-001	3.57840E+000	9	...........
	126	1.69333	9.66766E-001	2.81239E-004	0.00000E+000	2.71892E-004	1.68088E-001	9.67183E-001	3.57840E+000	9	...........
	127	1.70667	9.67633E-001	2.80991E-004	0.00000E+000	2.71896E-004	1.68088E-001	9.68060E-001	3.57840E+000	9	...........
	128	1.72	9.68552E-001	2.80713E-004	0.00000E+000	2.71885E-004	1.68088E-001	9.68954E-001	3.57840E+000	9	...........
	129	1.73333	9.69481E-001	2.80506E-004	0.00000E+000	2.71946E-004	1.68088E-001	9.69874E-001	3.57840E+000	9	...........
	130	1.74667	9.70365E-001	2.81525E-004	0.00000E+000	2.73182E-004	1.68088E-001	9.70773E-001	3.57840E+000	9	...........
	131	1.76	9.71194E-001	2.81125E-004	0.00000E+000	2.73027E-004	1.68088E-001	9.71625E-001	3.57840E+000	9	...........
	132	1.77333	9.72048E-001	2.80622E-004	0.00000E+000	2.72778E-004	1.68088E-001	9.72464E-001	3.57840E+000	9	...........
	133	1.78667	9.72981E-001	2.81707E-004	0.00000E+000	2.74095E-004	1.68088E-001	9.73368E-001	3.57840E+000	9	...........
	134	1.8	9.73850E-001	2.80676E-004	0.00000E+000	2.73337E-004	1.68088E-001	9.74196E-001	3.57840E+000	9	...........
	135	1.81333	9.74713E-001	2.81072E-004	0.00000E+000	2.73965E-004	1.68088E-001	9.75099E-001	3.57840E+000	9	...........
	136	1.82667	9.75569E-001	2.81015E-004	0.00000E+000	2.74149E-004	1.68088E-001	9.75928E-001	3.57840E+000	9	...........
	137	1.84	9.76432E-001	2.81909E-004	0.00000E+000	2.75265E-004	1.68088E-001	9.76804E-001	3.57840E+000	9	...........
	138	1.85333	9.77279E-001	2.80687E-004	0.00000E+000	2.74309E-004	1.68088E-001	9.77638E-001	3.57840E+000	9	...........
	139	1.86667	9.78082E-001	2.80873E-004	0.00000E+000	2.74717E-004	1.68088E-001	9.78478E-001	3.57840E+000	9	...........
	140	1.88	9.78898E-001	2.81056E-004	0.00000E+000	2.75126E-004	1.68088E-001	9.79265E-001	3.57840E+000	9	...........
	141	1.89333	9.79702E-001	2.81112E-004	0.00000E+000	2.75406E-004	1.68088E-001	9.80059E-001	3.57840E+000	9	...........
	142	1.90667	9.80510E-001	2.80733E-004	0.00000E+000	2.75262E-004	1.68088E-001	9.80870E-001	3.57840E+000	9	...........
	143	1.92	9.81328E-001	2.81803E-004	0.00000E+000	2.76542E-004	1.68088E-001	9.81711E-001	3.57840E+000	9	...........
	144	1.93333	9.82166E-001	2.80680E-004	0.00000E+000	2.75675E-004	1.68088E-001	9.82538E-001	3.57840E+000	9	...........
	145	1.94667	9.82969E-001	2.81052E-004	0.00000E+000	2.76266E-004	1.68088E-001	9.83337E-001	3.57840E+000	9	...........
	146	1.96	9.83778E-001	2.81145E-004	0.00000E+000	2.76584E-004	1.68088E-001	9.84159E-001	3.57840E+000	9	...........
	147	1.97333	9.84548E-001	2.80752E-004	0.00000E+000	2.76414E-004	1.68088E-001	9.84961E-001	3.57840E+000	9	...........
	148	1.98667	9.85349E-001	2.80916E-004	0.00000E+000	2.76800E-004	1.68088E-001	9.85732E-001	3.57840E+000	9	...........
	149	2	9.86097E-001	2.81151E-004	0.00000E+000	2.77242E-004	1.68088E-001	9.86514E-001	3.57840E+000	9	...........
	150	2.01333	9.86861E-001	2.80912E-004	0.00000E+000	2.77221E-004	1.68088E-001	9.87241E-001	3.57840E+000	9	...........
	151	2.02667	9.87610E-001	2.81192E-004	0.00000E+000	2.77708E-004	1.68088E-001	9.87997E-001	3.57840E+000	9	...........
	152	2.04	9.88409E-001	2.81125E-004	0.00000E+000	2.77867E-004	1.68088E-001	9.88789E-001	3.57840E+000	9	...........
	153	2.05333	9.89202E-001	2.80973E-004	0.00000E+000	2.77939E-004	1.68088E-001	9.89596E-001	3.57840E+000	9	...........
	154	2.06667	9.89965E-001	2.80665E-004	0.00000E+000	2.77848E-004	1.68088E-001	9.90365E-001	3.57840E+000	9	...........
	155	2.08	9.90736E-001	2.81561E-004	0.00000E+000	2.78952E-004	1.68088E-001	9.91085E-001	3.57840E+000	9	...........
	156	2.09333	9.91492E-001	2.80989E-004	0.00000E+000	2.78598E-004	1.68088E-001	9.91904E-001	3.57840E+000	9	...........
	157	2.10667	9.92203E-001	2.80963E-004	0.00000E+000	2.78772E-004	1.68088E-001	9.92606E-001	3.57840E+000	9	...........
	158	2.12	9.92931E-001	2.81226E-004	0.00000E+000	2.79238E-004	1.68088E-001	9.93317E-001	3.57840E+000	9	...........
	159	2.13333	9.93677E-001	2.80704E-004	0.00000E+000	2.78930E-004	1.68088E-001	9.94057E-001	3.57840E+000	9	...........
	160	2.14667	9.94423E-001	2.80509E-004	0.00000E+000	2.78945E-004	1.68088E-001	9.94787E-001	3.57840E+000	9	...........
	161	2.16	9.95157E-001	2.81572E-004	0.00000E+000	2.80208E-004	1.68088E-001	9.95476E-001	3.57840E+000	9	...........
	162	2.17333	9.95880E-001	2.81656E-004	0.00000E+000	2.80495E-004	1.68088E-001	9.96227E-001	3.57840E+000	9	...........
	163	2.18667	9.96595E-001	2.81261E-004	0.00000E+000	2.80303E-004	1.68088E-001	9.96947E-001	3.57840E+000	9	...........
	164	2.2	9.97330E-001	2.81423E-004	0.00000E+000	2.80672E-004	1.68088E-001	9.97702E-001	3.57840E+000	9	...........
	165	2.21333	9.98097E-001	2.80699E-004	0.00000E+000	2.80165E-004	1.68088E-001	9.98444E-001	3.57840E+000	9	...........
	166	2.22667	9.98793E-001	2.81436E-004	0.00000E+000	2.81096E-004	1.68088E-001	9.99155E-001	3.57840E+000	9	...........
	167	2.24	9.99487E-001	2.80648E-004	0.00000E+000	2.80504E-004	1.68088E-001	9.99892E-001	3.57840E+000	9	...........
	168	2.245	9.99956E-001	2.80569E-004	0.00000E+000	2.80557E-004	1.68088E-001	1.00037E+000	3.57840E+000	9	...........
STARTTIMEOFFSET	QUANT	169.0017	Start Time Offset (s)
