EXPLAIN
TAG	PWR800_CHARGE
TITLE	LABEL	PWR Cyclic Charge Discharge (Cell) - Charge Step	Test &Identifier
DATE	LABEL	7-7-2017	Date
TIME	LABEL	15:54:27	Time
NOTES	NOTES	3	&Notes...
	supercap test cell
	2.8mg
	6M KOH
PSTAT	PSTAT	IFC5000-01520	Potentiostat
CAPACITY	QUANT	1.00000E-003	Capacity (A-hr)
CELLTYPE	SELECTOR	1	&Cell Type
WORKINGCONNECTION	SELECTOR	0	&Working Lead
MAXCHARGETIME	VARIABLEANDUNITS	1.00000E+002	s	1.00000E+002	second(s)	Max &Charge Time
CHARGECURRENT	QUANT	2.80000E-004	&Charge Current (A) 
VOLTAGEFINISH	TWOPARAM	F	1.00000E-003	3.60000E+003	&Voltage Finish	 I (A) < 	Max Time(s)
SAMPLETIME	QUANT	1.00000E-002	Sa&mple Period (s)
CHARGESTOPAT1	MULTIPARAM	4	1.00000E+000	Charge Stop At &1	Voltage > Limit	V
CHARGESTOPAT2	MULTIPARAM	0	0.00000E+000	Charge Stop At &2	None	N/A
AESBHCSELECTOR	TOGGLE	F	Save Both Half Cells
IRCOMP	TOGGLE	F	IR &Measure
EOC	QUANT	0	Open Circuit (V)
SEQUENCER	TOGGLE	TRUE	Run as Sequence
PSTATMODEL	IQUANT	53	Pstat Model
PSTATSECTION	LABEL	IFC5000-01520	Pstat Section
PSTATSERIALNO	LABEL	01520	Pstat Serial Number
CTRLMODE	IQUANT	0	Control Mode
ELECTROMETER	IQUANT	1	RE=0 or CS=1
IESTAB	IQUANT	0	I/E Stability
CASPEED	IQUANT	4	Control Amp Speed
CONVENTION	IQUANT	1	Current Convention
ICHRANGE	IQUANT	2	Ich Range
ICHRANGEMODE	TOGGLE	T	Ich Auto Range
ICHOFFSETENABLE	TOGGLE	F	Ich Offset Enable
ICHOFFSET	QUANT	0	Ich Offset (V)
ICHFILTER	IQUANT	1	Ich Filter
VCHRANGE	IQUANT	2	Vch Range
VCHRANGEMODE	TOGGLE	T	Vch Auto Range
VCHOFFSETENABLE	TOGGLE	F	Vch Offset Enable
VCHOFFSET	QUANT	0	Vch Offset (V)
VCHFILTER	IQUANT	1	Vch Filter
IERANGELOWERLIMIT	IQUANT	9	I/E Range Lower Limit
IERANGEMODE	TOGGLE	F	I/E AutoRange
IERANGE	IQUANT	9	I/E Range
ACHSELECT	IQUANT	1	Ach Select
ACHRANGE	IQUANT	2	Ach Range
ACHOFFSETENABLE	TOGGLE	F	Ach Offset Enable
ACHOFFSET	QUANT	0	Ach Offset (V)
ACHFILTER	IQUANT	1	Ach Filter
CABLEID	IQUANT	14	Cable ID
DCCALDATE	LABEL	5-7-2017	DC Calibration Date
ACCALDATE	LABEL	12/3/2015	AC Calibration Date
FRAMEWORKVERSION	QUANT	7.01	Framework Version
INSTRUMENTVERSION	LABEL	4.00	Instrument Version
CURVE	TABLE	91
	Pt	T	Vf	Im	Vu	Pwr	Sig	Ach	Temp	IERange	Over
	#	s	V	A	V	W	V	V	deg C	#	bits
	0	0.013333	5.94149E-001	2.80939E-004	0.00000E+000	1.66919E-004	1.68088E-001	5.94435E-001	3.57780E+000	9	...........
	1	0.026667	6.23174E-001	2.81214E-004	0.00000E+000	1.75245E-004	1.68088E-001	6.23429E-001	3.57780E+000	9	...........
	2	0.04	6.47777E-001	2.82115E-004	0.00000E+000	1.82748E-004	1.68088E-001	6.48037E-001	3.57780E+000	9	...........
	3	0.053333	6.69187E-001	2.80514E-004	0.00000E+000	1.87716E-004	1.68088E-001	6.69424E-001	3.57780E+000	9	...........
	4	0.066667	6.88088E-001	2.81405E-004	0.00000E+000	1.93632E-004	1.68088E-001	6.88382E-001	3.57780E+000	9	...........
	5	0.08	7.05063E-001	2.80966E-004	0.00000E+000	1.98099E-004	1.68088E-001	7.05345E-001	3.57780E+000	9	...........
	6	0.093333	7.20415E-001	2.81525E-004	0.00000E+000	2.02815E-004	1.68088E-001	7.20685E-001	3.57780E+000	9	...........
	7	0.106667	7.34379E-001	2.81841E-004	0.00000E+000	2.06978E-004	1.68088E-001	7.34654E-001	3.57780E+000	9	...........
	8	0.12	7.47185E-001	2.81941E-004	0.00000E+000	2.10662E-004	1.68088E-001	7.47481E-001	3.57780E+000	9	...........
	9	0.133333	7.58989E-001	2.80765E-004	0.00000E+000	2.13097E-004	1.68088E-001	7.59262E-001	3.57780E+000	9	...........
	10	0.146667	7.69926E-001	2.80950E-004	0.00000E+000	2.16311E-004	1.68088E-001	7.70202E-001	3.57780E+000	9	...........
	11	0.16	7.80035E-001	2.81802E-004	0.00000E+000	2.19816E-004	1.68088E-001	7.80332E-001	3.57780E+000	9	...........
	12	0.173333	7.89468E-001	2.81913E-004	0.00000E+000	2.22561E-004	1.68088E-001	7.89755E-001	3.57780E+000	9	...........
	13	0.186667	7.98255E-001	2.81165E-004	0.00000E+000	2.24441E-004	1.68088E-001	7.98543E-001	3.57780E+000	9	...........
	14	0.2	8.06448E-001	2.80487E-004	0.00000E+000	2.26198E-004	1.68088E-001	8.06737E-001	3.57780E+000	9	...........
	15	0.213333	8.14149E-001	2.81121E-004	0.00000E+000	2.28874E-004	1.68088E-001	8.14465E-001	3.57780E+000	9	...........
	16	0.226667	8.21459E-001	2.82344E-004	0.00000E+000	2.31934E-004	1.68088E-001	8.21761E-001	3.57780E+000	9	...........
	17	0.24	8.28271E-001	2.81830E-004	0.00000E+000	2.33431E-004	1.68088E-001	8.28590E-001	3.57780E+000	9	...........
	18	0.253333	8.34716E-001	2.80622E-004	0.00000E+000	2.34240E-004	1.68088E-001	8.35027E-001	3.57780E+000	9	...........
	19	0.266667	8.40805E-001	2.81366E-004	0.00000E+000	2.36574E-004	1.68088E-001	8.41118E-001	3.57780E+000	9	...........
	20	0.28	8.46611E-001	2.81603E-004	0.00000E+000	2.38408E-004	1.68088E-001	8.46902E-001	3.57780E+000	9	...........
	21	0.293333	8.52065E-001	2.81522E-004	0.00000E+000	2.39875E-004	1.68088E-001	8.52377E-001	3.57780E+000	9	...........
	22	0.306667	8.57231E-001	2.80989E-004	0.00000E+000	2.40872E-004	1.68088E-001	8.57554E-001	3.57780E+000	9	...........
	23	0.32	8.62213E-001	2.81799E-004	0.00000E+000	2.42971E-004	1.68088E-001	8.62521E-001	3.57780E+000	9	...........
	24	0.333333	8.66919E-001	2.80723E-004	0.00000E+000	2.43364E-004	1.68088E-001	8.67274E-001	3.57780E+000	9	...........
	25	0.346667	8.71427E-001	2.81597E-004	0.00000E+000	2.45391E-004	1.68088E-001	8.71768E-001	3.57780E+000	9	...........
	26	0.36	8.75690E-001	2.81001E-004	0.00000E+000	2.46070E-004	1.68088E-001	8.76026E-001	3.57780E+000	9	...........
	27	0.373333	8.79765E-001	2.81292E-004	0.00000E+000	2.47471E-004	1.68088E-001	8.80066E-001	3.57780E+000	9	...........
	28	0.386667	8.83682E-001	2.81947E-004	0.00000E+000	2.49152E-004	1.68088E-001	8.83970E-001	3.57780E+000	9	...........
	29	0.4	8.87394E-001	2.81145E-004	0.00000E+000	2.49487E-004	1.68088E-001	8.87697E-001	3.57780E+000	9	...........
	30	0.413333	8.90994E-001	2.81630E-004	0.00000E+000	2.50930E-004	1.68088E-001	8.91308E-001	3.57780E+000	9	...........
	31	0.426667	8.94448E-001	2.81350E-004	0.00000E+000	2.51653E-004	1.68088E-001	8.94794E-001	3.57780E+000	9	...........
	32	0.44	8.97810E-001	2.81027E-004	0.00000E+000	2.52309E-004	1.68088E-001	8.98153E-001	3.57780E+000	9	...........
	33	0.453333	9.01036E-001	2.81809E-004	0.00000E+000	2.53920E-004	1.68088E-001	9.01390E-001	3.57780E+000	9	...........
	34	0.466667	9.04088E-001	2.81717E-004	0.00000E+000	2.54697E-004	1.68088E-001	9.04468E-001	3.57780E+000	9	...........
	35	0.48	9.07109E-001	2.81383E-004	0.00000E+000	2.55245E-004	1.68088E-001	9.07462E-001	3.57780E+000	9	...........
	36	0.493333	9.10038E-001	2.80952E-004	0.00000E+000	2.55677E-004	1.68088E-001	9.10368E-001	3.57780E+000	9	...........
	37	0.506667	9.12848E-001	2.81634E-004	0.00000E+000	2.57089E-004	1.68088E-001	9.13152E-001	3.57780E+000	9	...........
	38	0.52	9.15556E-001	2.80544E-004	0.00000E+000	2.56854E-004	1.68088E-001	9.15902E-001	3.57780E+000	9	...........
	39	0.533333	9.18195E-001	2.80534E-004	0.00000E+000	2.57585E-004	1.68088E-001	9.18518E-001	3.57850E+000	9	...........
	40	0.546667	9.20765E-001	2.80851E-004	0.00000E+000	2.58598E-004	1.68088E-001	9.21072E-001	3.57850E+000	9	...........
	41	0.56	9.23270E-001	2.80854E-004	0.00000E+000	2.59304E-004	1.68088E-001	9.23578E-001	3.57850E+000	9	...........
	42	0.573333	9.25665E-001	2.81088E-004	0.00000E+000	2.60193E-004	1.68088E-001	9.25963E-001	3.57850E+000	9	...........
	43	0.586667	9.27984E-001	2.80898E-004	0.00000E+000	2.60669E-004	1.68088E-001	9.28302E-001	3.57850E+000	9	...........
	44	0.6	9.30250E-001	2.81002E-004	0.00000E+000	2.61402E-004	1.68088E-001	9.30555E-001	3.57850E+000	9	...........
	45	0.613333	9.32464E-001	2.82085E-004	0.00000E+000	2.63034E-004	1.68088E-001	9.32778E-001	3.57850E+000	9	...........
	46	0.626667	9.34636E-001	2.81602E-004	0.00000E+000	2.63196E-004	1.68088E-001	9.34959E-001	3.57850E+000	9	...........
	47	0.64	9.36750E-001	2.81631E-004	0.00000E+000	2.63817E-004	1.68088E-001	9.37087E-001	3.57850E+000	9	...........
	48	0.653333	9.38828E-001	2.81237E-004	0.00000E+000	2.64033E-004	1.68088E-001	9.39181E-001	3.57850E+000	9	...........
	49	0.666667	9.40843E-001	2.81633E-004	0.00000E+000	2.64972E-004	1.68088E-001	9.41181E-001	3.57850E+000	9	...........
	50	0.68	9.42797E-001	2.80197E-004	0.00000E+000	2.64169E-004	1.68088E-001	9.43154E-001	3.57850E+000	9	...........
	51	0.693333	9.44744E-001	2.80505E-004	0.00000E+000	2.65006E-004	1.68088E-001	9.45084E-001	3.57850E+000	9	...........
	52	0.706667	9.46685E-001	2.80812E-004	0.00000E+000	2.65840E-004	1.68088E-001	9.47028E-001	3.57850E+000	9	...........
	53	0.72	9.48562E-001	2.81464E-004	0.00000E+000	2.66986E-004	1.68088E-001	9.48889E-001	3.57850E+000	9	...........
	54	0.733333	9.50380E-001	2.80787E-004	0.00000E+000	2.66854E-004	1.68088E-001	9.50723E-001	3.57850E+000	9	...........
	55	0.746667	9.52143E-001	2.80934E-004	0.00000E+000	2.67489E-004	1.68088E-001	9.52499E-001	3.57850E+000	9	...........
	56	0.76	9.53914E-001	2.81280E-004	0.00000E+000	2.68317E-004	1.68088E-001	9.54255E-001	3.57850E+000	9	...........
	57	0.773333	9.55625E-001	2.80680E-004	0.00000E+000	2.68225E-004	1.68088E-001	9.55985E-001	3.57850E+000	9	...........
	58	0.786667	9.57304E-001	2.80973E-004	0.00000E+000	2.68977E-004	1.68088E-001	9.57671E-001	3.57850E+000	9	...........
	59	0.8	9.58987E-001	2.81836E-004	0.00000E+000	2.70277E-004	1.68088E-001	9.59361E-001	3.57850E+000	9	...........
	60	0.813333	9.60626E-001	2.80674E-004	0.00000E+000	2.69623E-004	1.68088E-001	9.61006E-001	3.57850E+000	9	...........
	61	0.826667	9.62197E-001	2.80894E-004	0.00000E+000	2.70275E-004	1.68088E-001	9.62574E-001	3.57850E+000	9	...........
	62	0.84	9.63774E-001	2.80515E-004	0.00000E+000	2.70353E-004	1.68088E-001	9.64126E-001	3.57850E+000	9	...........
	63	0.853333	9.65306E-001	2.81518E-004	0.00000E+000	2.71751E-004	1.68088E-001	9.65665E-001	3.57850E+000	9	...........
	64	0.866667	9.66840E-001	2.81728E-004	0.00000E+000	2.72386E-004	1.68088E-001	9.67215E-001	3.57850E+000	9	...........
	65	0.88	9.68351E-001	2.80974E-004	0.00000E+000	2.72081E-004	1.68088E-001	9.68718E-001	3.57850E+000	9	...........
	66	0.893333	9.69802E-001	2.80704E-004	0.00000E+000	2.72228E-004	1.68088E-001	9.70150E-001	3.57850E+000	9	...........
	67	0.906667	9.71243E-001	2.81535E-004	0.00000E+000	2.73439E-004	1.68088E-001	9.71641E-001	3.57850E+000	9	...........
	68	0.92	9.72766E-001	2.81120E-004	0.00000E+000	2.73464E-004	1.68088E-001	9.73093E-001	3.57850E+000	9	...........
	69	0.933333	9.74173E-001	2.81361E-004	0.00000E+000	2.74094E-004	1.68088E-001	9.74496E-001	3.57850E+000	9	...........
	70	0.946667	9.75541E-001	2.80483E-004	0.00000E+000	2.73623E-004	1.68088E-001	9.75866E-001	3.57850E+000	9	...........
	71	0.96	9.76897E-001	2.81212E-004	0.00000E+000	2.74715E-004	1.68088E-001	9.77260E-001	3.57850E+000	9	...........
	72	0.97333	9.78259E-001	2.81017E-004	0.00000E+000	2.74907E-004	1.68088E-001	9.78643E-001	3.57850E+000	9	...........
	73	0.98667	9.79631E-001	2.81255E-004	0.00000E+000	2.75527E-004	1.68088E-001	9.79968E-001	3.57850E+000	9	...........
	74	1	9.80940E-001	2.81346E-004	0.00000E+000	2.75984E-004	1.68088E-001	9.81289E-001	3.57850E+000	9	...........
	75	1.01333	9.82217E-001	2.81534E-004	0.00000E+000	2.76527E-004	1.68088E-001	9.82589E-001	3.57850E+000	9	...........
	76	1.02667	9.83500E-001	2.81088E-004	0.00000E+000	2.76450E-004	1.68088E-001	9.83871E-001	3.57850E+000	9	...........
	77	1.04	9.84743E-001	2.81264E-004	0.00000E+000	2.76973E-004	1.68088E-001	9.85115E-001	3.57850E+000	9	...........
	78	1.05333	9.85980E-001	2.81476E-004	0.00000E+000	2.77530E-004	1.68088E-001	9.86364E-001	3.57850E+000	9	...........
	79	1.06667	9.87243E-001	2.80851E-004	0.00000E+000	2.77268E-004	1.68088E-001	9.87590E-001	3.57850E+000	9	...........
	80	1.08	9.88469E-001	2.80791E-004	0.00000E+000	2.77553E-004	1.68088E-001	9.88790E-001	3.57850E+000	9	...........
	81	1.09333	9.89683E-001	2.80950E-004	0.00000E+000	2.78052E-004	1.68088E-001	9.89984E-001	3.57850E+000	9	...........
	82	1.10667	9.90850E-001	2.80799E-004	0.00000E+000	2.78230E-004	1.68088E-001	9.91156E-001	3.57850E+000	9	...........
	83	1.12	9.91982E-001	2.81139E-004	0.00000E+000	2.78885E-004	1.68088E-001	9.92321E-001	3.57850E+000	9	...........
	84	1.13333	9.93152E-001	2.81243E-004	0.00000E+000	2.79317E-004	1.68088E-001	9.93495E-001	3.57850E+000	9	...........
	85	1.14667	9.94315E-001	2.80596E-004	0.00000E+000	2.79001E-004	1.68088E-001	9.94666E-001	3.57850E+000	9	...........
	86	1.16	9.95451E-001	2.81795E-004	0.00000E+000	2.80513E-004	1.68088E-001	9.95804E-001	3.57850E+000	9	...........
	87	1.17333	9.96536E-001	2.80416E-004	0.00000E+000	2.79444E-004	1.68088E-001	9.96907E-001	3.57850E+000	9	...........
	88	1.18667	9.97626E-001	2.81349E-004	0.00000E+000	2.80681E-004	1.68088E-001	9.97995E-001	3.57850E+000	9	...........
	89	1.2	9.98731E-001	2.80275E-004	0.00000E+000	2.79919E-004	1.68088E-001	9.99124E-001	3.57850E+000	9	...........
	90	1.21	9.99679E-001	2.81247E-004	0.00000E+000	2.81157E-004	1.68088E-001	1.00008E+000	3.57850E+000	9	...........
STARTTIMEOFFSET	QUANT	870.8885	Start Time Offset (s)
