EXPLAIN
TAG	PWR800_CHARGE
TITLE	LABEL	PWR Cyclic Charge Discharge (Cell) - Charge Step	Test &Identifier
DATE	LABEL	7-7-2017	Date
TIME	LABEL	16:16:11	Time
NOTES	NOTES	3	&Notes...
	supercap test cell
	2.8mg
	6M KOH
PSTAT	PSTAT	IFC5000-01520	Potentiostat
CAPACITY	QUANT	1.00000E-003	Capacity (A-hr)
CELLTYPE	SELECTOR	1	&Cell Type
WORKINGCONNECTION	SELECTOR	0	&Working Lead
MAXCHARGETIME	VARIABLEANDUNITS	1.00000E+002	s	1.00000E+002	second(s)	Max &Charge Time
CHARGECURRENT	QUANT	2.80000E-004	&Charge Current (A) 
VOLTAGEFINISH	TWOPARAM	F	1.00000E-003	3.60000E+003	&Voltage Finish	 I (A) < 	Max Time(s)
SAMPLETIME	QUANT	1.00000E-002	Sa&mple Period (s)
CHARGESTOPAT1	MULTIPARAM	4	1.00000E+000	Charge Stop At &1	Voltage > Limit	V
CHARGESTOPAT2	MULTIPARAM	0	0.00000E+000	Charge Stop At &2	None	N/A
AESBHCSELECTOR	TOGGLE	F	Save Both Half Cells
IRCOMP	TOGGLE	F	IR &Measure
EOC	QUANT	0	Open Circuit (V)
SEQUENCER	TOGGLE	TRUE	Run as Sequence
PSTATMODEL	IQUANT	53	Pstat Model
PSTATSECTION	LABEL	IFC5000-01520	Pstat Section
PSTATSERIALNO	LABEL	01520	Pstat Serial Number
CTRLMODE	IQUANT	0	Control Mode
ELECTROMETER	IQUANT	1	RE=0 or CS=1
IESTAB	IQUANT	0	I/E Stability
CASPEED	IQUANT	4	Control Amp Speed
CONVENTION	IQUANT	1	Current Convention
ICHRANGE	IQUANT	2	Ich Range
ICHRANGEMODE	TOGGLE	T	Ich Auto Range
ICHOFFSETENABLE	TOGGLE	F	Ich Offset Enable
ICHOFFSET	QUANT	0	Ich Offset (V)
ICHFILTER	IQUANT	1	Ich Filter
VCHRANGE	IQUANT	2	Vch Range
VCHRANGEMODE	TOGGLE	T	Vch Auto Range
VCHOFFSETENABLE	TOGGLE	F	Vch Offset Enable
VCHOFFSET	QUANT	0	Vch Offset (V)
VCHFILTER	IQUANT	1	Vch Filter
IERANGELOWERLIMIT	IQUANT	9	I/E Range Lower Limit
IERANGEMODE	TOGGLE	F	I/E AutoRange
IERANGE	IQUANT	9	I/E Range
ACHSELECT	IQUANT	1	Ach Select
ACHRANGE	IQUANT	2	Ach Range
ACHOFFSETENABLE	TOGGLE	F	Ach Offset Enable
ACHOFFSET	QUANT	0	Ach Offset (V)
ACHFILTER	IQUANT	1	Ach Filter
CABLEID	IQUANT	14	Cable ID
DCCALDATE	LABEL	5-7-2017	DC Calibration Date
ACCALDATE	LABEL	12/3/2015	AC Calibration Date
FRAMEWORKVERSION	QUANT	7.01	Framework Version
INSTRUMENTVERSION	LABEL	4.00	Instrument Version
CURVE	TABLE	63
	Pt	T	Vf	Im	Vu	Pwr	Sig	Ach	Temp	IERange	Over
	#	s	V	A	V	W	V	V	deg C	#	bits
	0	0.013333	6.07206E-001	2.80374E-004	0.00000E+000	1.70245E-004	1.68088E-001	6.07446E-001	3.57870E+000	9	...........
	1	0.026667	6.37471E-001	2.79311E-004	0.00000E+000	1.78053E-004	1.68088E-001	6.37714E-001	3.57870E+000	9	...........
	2	0.04	6.63478E-001	2.80743E-004	0.00000E+000	1.86267E-004	1.68088E-001	6.63708E-001	3.57870E+000	9	...........
	3	0.053333	6.86323E-001	2.79688E-004	0.00000E+000	1.91956E-004	1.68088E-001	6.86585E-001	3.57870E+000	9	...........
	4	0.066667	7.06765E-001	2.81337E-004	0.00000E+000	1.98839E-004	1.68088E-001	7.07005E-001	3.57870E+000	9	...........
	5	0.08	7.25197E-001	2.80285E-004	0.00000E+000	2.03262E-004	1.68088E-001	7.25469E-001	3.57870E+000	9	...........
	6	0.093333	7.41956E-001	2.81533E-004	0.00000E+000	2.08885E-004	1.68088E-001	7.42246E-001	3.57870E+000	9	...........
	7	0.106667	7.57346E-001	2.80403E-004	0.00000E+000	2.12362E-004	1.68088E-001	7.57636E-001	3.57870E+000	9	...........
	8	0.12	7.71508E-001	2.81196E-004	0.00000E+000	2.16945E-004	1.68088E-001	7.71781E-001	3.57870E+000	9	...........
	9	0.133333	7.84509E-001	2.81176E-004	0.00000E+000	2.20585E-004	1.68088E-001	7.84802E-001	3.57870E+000	9	...........
	10	0.146667	7.96590E-001	2.81859E-004	0.00000E+000	2.24526E-004	1.68088E-001	7.96884E-001	3.57870E+000	9	...........
	11	0.16	8.07797E-001	2.80780E-004	0.00000E+000	2.26814E-004	1.68088E-001	8.08100E-001	3.57870E+000	9	...........
	12	0.173333	8.18194E-001	2.80921E-004	0.00000E+000	2.29848E-004	1.68088E-001	8.18517E-001	3.57870E+000	9	...........
	13	0.186667	8.27874E-001	2.79976E-004	0.00000E+000	2.31785E-004	1.68088E-001	8.28197E-001	3.57870E+000	9	...........
	14	0.2	8.36969E-001	2.80960E-004	0.00000E+000	2.35155E-004	1.68088E-001	8.37260E-001	3.57870E+000	9	...........
	15	0.213333	8.45511E-001	2.81087E-004	0.00000E+000	2.37662E-004	1.68088E-001	8.45802E-001	3.57870E+000	9	...........
	16	0.226667	8.53463E-001	2.80071E-004	0.00000E+000	2.39030E-004	1.68088E-001	8.53774E-001	3.57870E+000	9	...........
	17	0.24	8.60961E-001	2.80464E-004	0.00000E+000	2.41468E-004	1.68088E-001	8.61268E-001	3.57870E+000	9	...........
	18	0.253333	8.67988E-001	2.80294E-004	0.00000E+000	2.43292E-004	1.68088E-001	8.68299E-001	3.57870E+000	9	...........
	19	0.266667	8.74600E-001	2.81013E-004	0.00000E+000	2.45774E-004	1.68088E-001	8.74922E-001	3.57870E+000	9	...........
	20	0.28	8.80844E-001	2.80117E-004	0.00000E+000	2.46739E-004	1.68088E-001	8.81184E-001	3.57870E+000	9	...........
	21	0.293333	8.86742E-001	2.81553E-004	0.00000E+000	2.49665E-004	1.68088E-001	8.87074E-001	3.57870E+000	9	...........
	22	0.306667	8.92317E-001	2.80623E-004	0.00000E+000	2.50405E-004	1.68088E-001	8.92655E-001	3.57870E+000	9	...........
	23	0.32	8.97619E-001	2.82044E-004	0.00000E+000	2.53168E-004	1.68088E-001	8.97967E-001	3.57870E+000	9	...........
	24	0.333333	9.02584E-001	2.81055E-004	0.00000E+000	2.53676E-004	1.68088E-001	9.02950E-001	3.57870E+000	9	...........
	25	0.346667	9.07277E-001	2.81517E-004	0.00000E+000	2.55414E-004	1.68088E-001	9.07638E-001	3.57870E+000	9	...........
	26	0.36	9.11798E-001	2.83518E-004	0.00000E+000	2.58512E-004	1.68088E-001	9.12087E-001	3.57870E+000	9	...........
	27	0.373333	9.16039E-001	2.80294E-004	0.00000E+000	2.56760E-004	1.68088E-001	9.16344E-001	3.57870E+000	9	...........
	28	0.386667	9.20120E-001	2.80354E-004	0.00000E+000	2.57960E-004	1.68088E-001	9.20414E-001	3.57870E+000	9	...........
	29	0.4	9.24080E-001	2.80895E-004	0.00000E+000	2.59570E-004	1.68088E-001	9.24320E-001	3.57870E+000	9	...........
	30	0.413333	9.27778E-001	2.80352E-004	0.00000E+000	2.60105E-004	1.68088E-001	9.28062E-001	3.57870E+000	9	...........
	31	0.426667	9.31353E-001	2.80989E-004	0.00000E+000	2.61700E-004	1.68088E-001	9.31643E-001	3.57870E+000	9	...........
	32	0.44	9.34786E-001	2.80454E-004	0.00000E+000	2.62165E-004	1.68088E-001	9.35107E-001	3.57870E+000	9	...........
	33	0.453333	9.38093E-001	2.82682E-004	0.00000E+000	2.65182E-004	1.68088E-001	9.38416E-001	3.57870E+000	9	...........
	34	0.466667	9.41242E-001	2.81158E-004	0.00000E+000	2.64637E-004	1.68088E-001	9.41586E-001	3.57870E+000	9	...........
	35	0.48	9.44295E-001	2.81217E-004	0.00000E+000	2.65552E-004	1.68088E-001	9.44631E-001	3.57870E+000	9	...........
	36	0.493333	9.47277E-001	2.80770E-004	0.00000E+000	2.65967E-004	1.68088E-001	9.47605E-001	3.57870E+000	9	...........
	37	0.506667	9.50098E-001	2.79775E-004	0.00000E+000	2.65813E-004	1.68088E-001	9.50440E-001	3.57870E+000	9	...........
	38	0.52	9.52825E-001	2.80654E-004	0.00000E+000	2.67414E-004	1.68088E-001	9.53165E-001	3.57870E+000	9	...........
	39	0.533333	9.55428E-001	2.82083E-004	0.00000E+000	2.69510E-004	1.68088E-001	9.55784E-001	3.57870E+000	9	...........
	40	0.546667	9.57978E-001	2.81371E-004	0.00000E+000	2.69547E-004	1.68088E-001	9.58325E-001	3.57870E+000	9	...........
	41	0.56	9.60431E-001	2.80449E-004	0.00000E+000	2.69352E-004	1.68088E-001	9.60790E-001	3.57870E+000	9	...........
	42	0.573333	9.62840E-001	2.80800E-004	0.00000E+000	2.70366E-004	1.68088E-001	9.63201E-001	3.57870E+000	9	...........
	43	0.586667	9.65172E-001	2.82363E-004	0.00000E+000	2.72529E-004	1.68088E-001	9.65543E-001	3.57870E+000	9	...........
	44	0.6	9.67396E-001	2.81291E-004	0.00000E+000	2.72120E-004	1.68088E-001	9.67789E-001	3.57870E+000	9	...........
	45	0.613333	9.69594E-001	2.80406E-004	0.00000E+000	2.71880E-004	1.68088E-001	9.69958E-001	3.57870E+000	9	...........
	46	0.626667	9.71706E-001	2.80887E-004	0.00000E+000	2.72939E-004	1.68088E-001	9.72096E-001	3.57870E+000	9	...........
	47	0.64	9.73771E-001	2.80521E-004	0.00000E+000	2.73163E-004	1.68088E-001	9.74159E-001	3.57870E+000	9	...........
	48	0.653333	9.75830E-001	2.82313E-004	0.00000E+000	2.75489E-004	1.68088E-001	9.76194E-001	3.57870E+000	9	...........
	49	0.666667	9.77780E-001	2.81324E-004	0.00000E+000	2.75073E-004	1.68088E-001	9.78146E-001	3.57870E+000	9	...........
	50	0.68	9.79711E-001	2.81113E-004	0.00000E+000	2.75409E-004	1.68088E-001	9.80049E-001	3.57870E+000	9	...........
	51	0.693333	9.81562E-001	2.82320E-004	0.00000E+000	2.77115E-004	1.68088E-001	9.81909E-001	3.57870E+000	9	...........
	52	0.706667	9.83389E-001	2.79950E-004	0.00000E+000	2.75300E-004	1.68088E-001	9.83757E-001	3.57870E+000	9	...........
	53	0.72	9.85179E-001	2.79873E-004	0.00000E+000	2.75725E-004	1.68088E-001	9.85557E-001	3.57870E+000	9	...........
	54	0.733333	9.86929E-001	2.82147E-004	0.00000E+000	2.78459E-004	1.68088E-001	9.87305E-001	3.57870E+000	9	...........
	55	0.746667	9.88654E-001	2.80713E-004	0.00000E+000	2.77528E-004	1.68088E-001	9.89025E-001	3.57870E+000	9	...........
	56	0.76	9.90316E-001	2.80919E-004	0.00000E+000	2.78199E-004	1.68088E-001	9.90687E-001	3.57870E+000	9	...........
	57	0.773333	9.91941E-001	2.81569E-004	0.00000E+000	2.79300E-004	1.68088E-001	9.92319E-001	3.57870E+000	9	...........
	58	0.786667	9.93542E-001	2.80737E-004	0.00000E+000	2.78924E-004	1.68088E-001	9.93885E-001	3.57870E+000	9	...........
	59	0.8	9.95130E-001	2.79870E-004	0.00000E+000	2.78507E-004	1.68088E-001	9.95467E-001	3.57870E+000	9	...........
	60	0.813333	9.96681E-001	2.80381E-004	0.00000E+000	2.79451E-004	1.68088E-001	9.97035E-001	3.57870E+000	9	...........
	61	0.826667	9.98225E-001	2.81844E-004	0.00000E+000	2.81344E-004	1.68088E-001	9.98582E-001	3.57870E+000	9	...........
	62	0.838333	9.99633E-001	2.80413E-004	0.00000E+000	2.80310E-004	1.68088E-001	9.99972E-001	3.57870E+000	9	...........
STARTTIMEOFFSET	QUANT	1772.093	Start Time Offset (s)
