EXPLAIN
TAG	PWR800_CHARGE
TITLE	LABEL	PWR Cyclic Charge Discharge (Cell) - Charge Step	Test &Identifier
DATE	LABEL	7-7-2017	Date
TIME	LABEL	16:24:33	Time
NOTES	NOTES	3	&Notes...
	supercap test cell
	2.8mg
	6M KOH
PSTAT	PSTAT	IFC5000-01520	Potentiostat
CAPACITY	QUANT	1.00000E-003	Capacity (A-hr)
CELLTYPE	SELECTOR	1	&Cell Type
WORKINGCONNECTION	SELECTOR	0	&Working Lead
MAXCHARGETIME	VARIABLEANDUNITS	1.00000E+002	s	1.00000E+002	second(s)	Max &Charge Time
CHARGECURRENT	QUANT	2.80000E-004	&Charge Current (A) 
VOLTAGEFINISH	TWOPARAM	F	1.00000E-003	3.60000E+003	&Voltage Finish	 I (A) < 	Max Time(s)
SAMPLETIME	QUANT	1.00000E-002	Sa&mple Period (s)
CHARGESTOPAT1	MULTIPARAM	4	1.00000E+000	Charge Stop At &1	Voltage > Limit	V
CHARGESTOPAT2	MULTIPARAM	0	0.00000E+000	Charge Stop At &2	None	N/A
AESBHCSELECTOR	TOGGLE	F	Save Both Half Cells
IRCOMP	TOGGLE	F	IR &Measure
EOC	QUANT	0	Open Circuit (V)
SEQUENCER	TOGGLE	TRUE	Run as Sequence
PSTATMODEL	IQUANT	53	Pstat Model
PSTATSECTION	LABEL	IFC5000-01520	Pstat Section
PSTATSERIALNO	LABEL	01520	Pstat Serial Number
CTRLMODE	IQUANT	0	Control Mode
ELECTROMETER	IQUANT	1	RE=0 or CS=1
IESTAB	IQUANT	0	I/E Stability
CASPEED	IQUANT	4	Control Amp Speed
CONVENTION	IQUANT	1	Current Convention
ICHRANGE	IQUANT	2	Ich Range
ICHRANGEMODE	TOGGLE	T	Ich Auto Range
ICHOFFSETENABLE	TOGGLE	F	Ich Offset Enable
ICHOFFSET	QUANT	0	Ich Offset (V)
ICHFILTER	IQUANT	1	Ich Filter
VCHRANGE	IQUANT	2	Vch Range
VCHRANGEMODE	TOGGLE	T	Vch Auto Range
VCHOFFSETENABLE	TOGGLE	F	Vch Offset Enable
VCHOFFSET	QUANT	0	Vch Offset (V)
VCHFILTER	IQUANT	1	Vch Filter
IERANGELOWERLIMIT	IQUANT	9	I/E Range Lower Limit
IERANGEMODE	TOGGLE	F	I/E AutoRange
IERANGE	IQUANT	9	I/E Range
ACHSELECT	IQUANT	1	Ach Select
ACHRANGE	IQUANT	2	Ach Range
ACHOFFSETENABLE	TOGGLE	F	Ach Offset Enable
ACHOFFSET	QUANT	0	Ach Offset (V)
ACHFILTER	IQUANT	1	Ach Filter
CABLEID	IQUANT	14	Cable ID
DCCALDATE	LABEL	5-7-2017	DC Calibration Date
ACCALDATE	LABEL	12/3/2015	AC Calibration Date
FRAMEWORKVERSION	QUANT	7.01	Framework Version
INSTRUMENTVERSION	LABEL	4.00	Instrument Version
CURVE	TABLE	57
	Pt	T	Vf	Im	Vu	Pwr	Sig	Ach	Temp	IERange	Over
	#	s	V	A	V	W	V	V	deg C	#	bits
	0	0.013333	6.10253E-001	2.79886E-004	0.00000E+000	1.70802E-004	1.68088E-001	6.10479E-001	3.57800E+000	9	...........
	1	0.026667	6.41003E-001	2.81280E-004	0.00000E+000	1.80302E-004	1.68088E-001	6.41228E-001	3.57800E+000	9	...........
	2	0.04	6.67534E-001	2.80743E-004	0.00000E+000	1.87406E-004	1.68088E-001	6.67760E-001	3.57800E+000	9	...........
	3	0.053333	6.90892E-001	2.80145E-004	0.00000E+000	1.93550E-004	1.68088E-001	6.91138E-001	3.57800E+000	9	...........
	4	0.066667	7.11843E-001	2.80546E-004	0.00000E+000	1.99705E-004	1.68088E-001	7.12091E-001	3.57800E+000	9	...........
	5	0.08	7.30832E-001	2.81178E-004	0.00000E+000	2.05494E-004	1.68088E-001	7.31070E-001	3.57800E+000	9	...........
	6	0.093333	7.48113E-001	2.80290E-004	0.00000E+000	2.09688E-004	1.68088E-001	7.48344E-001	3.57800E+000	9	...........
	7	0.106667	7.63915E-001	2.80567E-004	0.00000E+000	2.14329E-004	1.68088E-001	7.64185E-001	3.57800E+000	9	...........
	8	0.12	7.78499E-001	2.80671E-004	0.00000E+000	2.18502E-004	1.68088E-001	7.78755E-001	3.57815E+000	9	...........
	9	0.133333	7.91932E-001	2.81022E-004	0.00000E+000	2.22550E-004	1.68088E-001	7.92204E-001	3.57840E+000	9	...........
	10	0.146667	8.04367E-001	2.80043E-004	0.00000E+000	2.25257E-004	1.68088E-001	8.04640E-001	3.57840E+000	9	...........
	11	0.16	8.15869E-001	2.80070E-004	0.00000E+000	2.28500E-004	1.68088E-001	8.16162E-001	3.57840E+000	9	...........
	12	0.173333	8.26597E-001	2.81691E-004	0.00000E+000	2.32845E-004	1.68088E-001	8.26885E-001	3.57840E+000	9	...........
	13	0.186667	8.36579E-001	2.81021E-004	0.00000E+000	2.35096E-004	1.68088E-001	8.36901E-001	3.57840E+000	9	...........
	14	0.2	8.45929E-001	2.80537E-004	0.00000E+000	2.37314E-004	1.68088E-001	8.46237E-001	3.57840E+000	9	...........
	15	0.213333	8.54644E-001	2.80530E-004	0.00000E+000	2.39753E-004	1.68088E-001	8.54972E-001	3.57840E+000	9	...........
	16	0.226667	8.62782E-001	2.81536E-004	0.00000E+000	2.42904E-004	1.68088E-001	8.63102E-001	3.57840E+000	9	...........
	17	0.24	8.70476E-001	2.81189E-004	0.00000E+000	2.44768E-004	1.68088E-001	8.70777E-001	3.57840E+000	9	...........
	18	0.253333	8.77652E-001	2.81150E-004	0.00000E+000	2.46752E-004	1.68088E-001	8.77994E-001	3.57840E+000	9	...........
	19	0.266667	8.84408E-001	2.80593E-004	0.00000E+000	2.48159E-004	1.68088E-001	8.84750E-001	3.57840E+000	9	...........
	20	0.28	8.90746E-001	2.80776E-004	0.00000E+000	2.50100E-004	1.68088E-001	8.91099E-001	3.57840E+000	9	...........
	21	0.293333	8.96703E-001	2.81553E-004	0.00000E+000	2.52470E-004	1.68088E-001	8.97075E-001	3.57840E+000	9	...........
	22	0.306667	9.02375E-001	2.81311E-004	0.00000E+000	2.53848E-004	1.68088E-001	9.02723E-001	3.57840E+000	9	...........
	23	0.32	9.07717E-001	2.80987E-004	0.00000E+000	2.55056E-004	1.68088E-001	9.08052E-001	3.57840E+000	9	...........
	24	0.333333	9.12758E-001	2.81937E-004	0.00000E+000	2.57340E-004	1.68088E-001	9.13089E-001	3.57840E+000	9	...........
	25	0.346667	9.17572E-001	2.81867E-004	0.00000E+000	2.58633E-004	1.68088E-001	9.17919E-001	3.57840E+000	9	...........
	26	0.36	9.22156E-001	2.80389E-004	0.00000E+000	2.58562E-004	1.68088E-001	9.22469E-001	3.57840E+000	9	...........
	27	0.373333	9.26478E-001	2.81313E-004	0.00000E+000	2.60630E-004	1.68088E-001	9.26779E-001	3.57840E+000	9	...........
	28	0.386667	9.30598E-001	2.80811E-004	0.00000E+000	2.61322E-004	1.68088E-001	9.30883E-001	3.57840E+000	9	...........
	29	0.4	9.34512E-001	2.81228E-004	0.00000E+000	2.62811E-004	1.68088E-001	9.34814E-001	3.57840E+000	9	...........
	30	0.413333	9.38262E-001	2.81710E-004	0.00000E+000	2.64318E-004	1.68088E-001	9.38555E-001	3.57840E+000	9	...........
	31	0.426667	9.41818E-001	2.81839E-004	0.00000E+000	2.65441E-004	1.68088E-001	9.42104E-001	3.57840E+000	9	...........
	32	0.44	9.45256E-001	2.82531E-004	0.00000E+000	2.67064E-004	1.68088E-001	9.45574E-001	3.57840E+000	9	...........
	33	0.453333	9.48568E-001	2.81535E-004	0.00000E+000	2.67055E-004	1.68088E-001	9.48898E-001	3.57840E+000	9	...........
	34	0.466667	9.51702E-001	2.81205E-004	0.00000E+000	2.67624E-004	1.68088E-001	9.52024E-001	3.57840E+000	9	...........
	35	0.48	9.54706E-001	2.81436E-004	0.00000E+000	2.68688E-004	1.68088E-001	9.55006E-001	3.57840E+000	9	...........
	36	0.493333	9.57578E-001	2.79979E-004	0.00000E+000	2.68102E-004	1.68088E-001	9.57925E-001	3.57840E+000	9	...........
	37	0.506667	9.60414E-001	2.82585E-004	0.00000E+000	2.71398E-004	1.68088E-001	9.60754E-001	3.57840E+000	9	...........
	38	0.52	9.63084E-001	2.82594E-004	0.00000E+000	2.72162E-004	1.68088E-001	9.63439E-001	3.57840E+000	9	...........
	39	0.533333	9.65652E-001	2.81016E-004	0.00000E+000	2.71364E-004	1.68088E-001	9.66020E-001	3.57840E+000	9	...........
	40	0.546667	9.68194E-001	2.82642E-004	0.00000E+000	2.73653E-004	1.68088E-001	9.68538E-001	3.57840E+000	9	...........
	41	0.56	9.70636E-001	2.81364E-004	0.00000E+000	2.73102E-004	1.68088E-001	9.71025E-001	3.57840E+000	9	...........
	42	0.573333	9.73055E-001	2.81921E-004	0.00000E+000	2.74325E-004	1.68088E-001	9.73405E-001	3.57840E+000	9	...........
	43	0.586667	9.75348E-001	2.81297E-004	0.00000E+000	2.74363E-004	1.68088E-001	9.75685E-001	3.57840E+000	9	...........
	44	0.6	9.77559E-001	2.79775E-004	0.00000E+000	2.73497E-004	1.68088E-001	9.77909E-001	3.57840E+000	9	...........
	45	0.613333	9.79760E-001	2.81451E-004	0.00000E+000	2.75755E-004	1.68088E-001	9.80100E-001	3.57840E+000	9	...........
	46	0.626667	9.81858E-001	2.80630E-004	0.00000E+000	2.75539E-004	1.68088E-001	9.82203E-001	3.57840E+000	9	...........
	47	0.64	9.83896E-001	2.81669E-004	0.00000E+000	2.77133E-004	1.68088E-001	9.84249E-001	3.57840E+000	9	...........
	48	0.653333	9.85898E-001	2.81539E-004	0.00000E+000	2.77569E-004	1.68088E-001	9.86232E-001	3.57840E+000	9	...........
	49	0.666667	9.87832E-001	2.81988E-004	0.00000E+000	2.78557E-004	1.68088E-001	9.88157E-001	3.57840E+000	9	...........
	50	0.68	9.89771E-001	2.81214E-004	0.00000E+000	2.78337E-004	1.68088E-001	9.90049E-001	3.57840E+000	9	...........
	51	0.693333	9.91583E-001	2.80939E-004	0.00000E+000	2.78574E-004	1.68088E-001	9.91906E-001	3.57840E+000	9	...........
	52	0.706667	9.93366E-001	2.81988E-004	0.00000E+000	2.80117E-004	1.68088E-001	9.93710E-001	3.57840E+000	9	...........
	53	0.72	9.95123E-001	2.80738E-004	0.00000E+000	2.79368E-004	1.68088E-001	9.95422E-001	3.57840E+000	9	...........
	54	0.733333	9.96847E-001	2.82673E-004	0.00000E+000	2.81782E-004	1.68088E-001	9.97136E-001	3.57840E+000	9	...........
	55	0.746667	9.98552E-001	2.80895E-004	0.00000E+000	2.80488E-004	1.68088E-001	9.98824E-001	3.57840E+000	9	...........
	56	0.753333	9.99768E-001	2.82928E-004	0.00000E+000	2.82862E-004	1.68088E-001	1.00009E+000	3.57840E+000	9	...........
STARTTIMEOFFSET	QUANT	2098.147	Start Time Offset (s)
