EXPLAIN
TAG	PWR800_CHARGE
TITLE	LABEL	PWR Cyclic Charge Discharge (Cell) - Charge Step	Test &Identifier
DATE	LABEL	7-7-2017	Date
TIME	LABEL	15:45:29	Time
NOTES	NOTES	3	&Notes...
	supercap test cell
	2.8mg
	6M KOH
PSTAT	PSTAT	IFC5000-01520	Potentiostat
CAPACITY	QUANT	1.00000E-003	Capacity (A-hr)
CELLTYPE	SELECTOR	1	&Cell Type
WORKINGCONNECTION	SELECTOR	0	&Working Lead
MAXCHARGETIME	VARIABLEANDUNITS	1.00000E+002	s	1.00000E+002	second(s)	Max &Charge Time
CHARGECURRENT	QUANT	2.80000E-004	&Charge Current (A) 
VOLTAGEFINISH	TWOPARAM	F	1.00000E-003	3.60000E+003	&Voltage Finish	 I (A) < 	Max Time(s)
SAMPLETIME	QUANT	1.00000E-002	Sa&mple Period (s)
CHARGESTOPAT1	MULTIPARAM	4	1.00000E+000	Charge Stop At &1	Voltage > Limit	V
CHARGESTOPAT2	MULTIPARAM	0	0.00000E+000	Charge Stop At &2	None	N/A
AESBHCSELECTOR	TOGGLE	F	Save Both Half Cells
IRCOMP	TOGGLE	F	IR &Measure
EOC	QUANT	0	Open Circuit (V)
SEQUENCER	TOGGLE	TRUE	Run as Sequence
PSTATMODEL	IQUANT	53	Pstat Model
PSTATSECTION	LABEL	IFC5000-01520	Pstat Section
PSTATSERIALNO	LABEL	01520	Pstat Serial Number
CTRLMODE	IQUANT	0	Control Mode
ELECTROMETER	IQUANT	1	RE=0 or CS=1
IESTAB	IQUANT	0	I/E Stability
CASPEED	IQUANT	4	Control Amp Speed
CONVENTION	IQUANT	1	Current Convention
ICHRANGE	IQUANT	2	Ich Range
ICHRANGEMODE	TOGGLE	T	Ich Auto Range
ICHOFFSETENABLE	TOGGLE	F	Ich Offset Enable
ICHOFFSET	QUANT	0	Ich Offset (V)
ICHFILTER	IQUANT	1	Ich Filter
VCHRANGE	IQUANT	2	Vch Range
VCHRANGEMODE	TOGGLE	T	Vch Auto Range
VCHOFFSETENABLE	TOGGLE	F	Vch Offset Enable
VCHOFFSET	QUANT	0	Vch Offset (V)
VCHFILTER	IQUANT	1	Vch Filter
IERANGELOWERLIMIT	IQUANT	9	I/E Range Lower Limit
IERANGEMODE	TOGGLE	F	I/E AutoRange
IERANGE	IQUANT	9	I/E Range
ACHSELECT	IQUANT	1	Ach Select
ACHRANGE	IQUANT	2	Ach Range
ACHOFFSETENABLE	TOGGLE	F	Ach Offset Enable
ACHOFFSET	QUANT	0	Ach Offset (V)
ACHFILTER	IQUANT	1	Ach Filter
CABLEID	IQUANT	14	Cable ID
DCCALDATE	LABEL	5-7-2017	DC Calibration Date
ACCALDATE	LABEL	12/3/2015	AC Calibration Date
FRAMEWORKVERSION	QUANT	7.01	Framework Version
INSTRUMENTVERSION	LABEL	4.00	Instrument Version
CURVE	TABLE	124
	Pt	T	Vf	Im	Vu	Pwr	Sig	Ach	Temp	IERange	Over
	#	s	V	A	V	W	V	V	deg C	#	bits
	0	0.013333	5.77276E-001	2.80658E-004	0.00000E+000	1.62017E-004	1.68088E-001	5.77563E-001	3.57840E+000	9	...........
	1	0.026667	6.05549E-001	2.81533E-004	0.00000E+000	1.70482E-004	1.68088E-001	6.05830E-001	3.57840E+000	9	...........
	2	0.04	6.29291E-001	2.80981E-004	0.00000E+000	1.76819E-004	1.68088E-001	6.29574E-001	3.57840E+000	9	...........
	3	0.053333	6.49727E-001	2.81041E-004	0.00000E+000	1.82600E-004	1.68088E-001	6.50023E-001	3.57840E+000	9	...........
	4	0.066667	6.67664E-001	2.80008E-004	0.00000E+000	1.86952E-004	1.68088E-001	6.67954E-001	3.57840E+000	9	...........
	5	0.08	6.83597E-001	2.81374E-004	0.00000E+000	1.92346E-004	1.68088E-001	6.83880E-001	3.57840E+000	9	...........
	6	0.093333	6.97919E-001	2.80879E-004	0.00000E+000	1.96031E-004	1.68088E-001	6.98179E-001	3.57840E+000	9	...........
	7	0.106667	7.10857E-001	2.81559E-004	0.00000E+000	2.00148E-004	1.68088E-001	7.11146E-001	3.57840E+000	9	...........
	8	0.12	7.22746E-001	2.80459E-004	0.00000E+000	2.02701E-004	1.68088E-001	7.23020E-001	3.57840E+000	9	...........
	9	0.133333	7.33621E-001	2.81364E-004	0.00000E+000	2.06415E-004	1.68088E-001	7.33918E-001	3.57840E+000	9	...........
	10	0.146667	7.43673E-001	2.81078E-004	0.00000E+000	2.09030E-004	1.68088E-001	7.43964E-001	3.57840E+000	9	...........
	11	0.16	7.52978E-001	2.80689E-004	0.00000E+000	2.11353E-004	1.68088E-001	7.53263E-001	3.57840E+000	9	...........
	12	0.173333	7.61648E-001	2.81130E-004	0.00000E+000	2.14122E-004	1.68088E-001	7.61932E-001	3.57840E+000	9	...........
	13	0.186667	7.69751E-001	2.80854E-004	0.00000E+000	2.16188E-004	1.68088E-001	7.70061E-001	3.57840E+000	9	...........
	14	0.2	7.77330E-001	2.81117E-004	0.00000E+000	2.18521E-004	1.68088E-001	7.77640E-001	3.57840E+000	9	...........
	15	0.213333	7.84461E-001	2.81169E-004	0.00000E+000	2.20566E-004	1.68088E-001	7.84756E-001	3.57840E+000	9	...........
	16	0.226667	7.91159E-001	2.80949E-004	0.00000E+000	2.22275E-004	1.68088E-001	7.91462E-001	3.57840E+000	9	...........
	17	0.24	7.97477E-001	2.81198E-004	0.00000E+000	2.24249E-004	1.68088E-001	7.97776E-001	3.57840E+000	9	...........
	18	0.253333	8.03445E-001	2.80558E-004	0.00000E+000	2.25413E-004	1.68088E-001	8.03746E-001	3.57840E+000	9	...........
	19	0.266667	8.09055E-001	2.81042E-004	0.00000E+000	2.27378E-004	1.68088E-001	8.09370E-001	3.57840E+000	9	...........
	20	0.28	8.14419E-001	2.80925E-004	0.00000E+000	2.28791E-004	1.68088E-001	8.14751E-001	3.57840E+000	9	...........
	21	0.293333	8.19513E-001	2.81342E-004	0.00000E+000	2.30563E-004	1.68088E-001	8.19850E-001	3.57840E+000	9	...........
	22	0.306667	8.24347E-001	2.81144E-004	0.00000E+000	2.31760E-004	1.68088E-001	8.24670E-001	3.57840E+000	9	...........
	23	0.32	8.28933E-001	2.81296E-004	0.00000E+000	2.33176E-004	1.68088E-001	8.29266E-001	3.57840E+000	9	...........
	24	0.333333	8.33353E-001	2.81900E-004	0.00000E+000	2.34923E-004	1.68088E-001	8.33700E-001	3.57840E+000	9	...........
	25	0.346667	8.37595E-001	2.81330E-004	0.00000E+000	2.35641E-004	1.68088E-001	8.37945E-001	3.57840E+000	9	...........
	26	0.36	8.41670E-001	2.80697E-004	0.00000E+000	2.36254E-004	1.68088E-001	8.42018E-001	3.57840E+000	9	...........
	27	0.373333	8.45609E-001	2.80167E-004	0.00000E+000	2.36911E-004	1.68088E-001	8.45957E-001	3.57840E+000	9	...........
	28	0.386667	8.49329E-001	2.80890E-004	0.00000E+000	2.38568E-004	1.68088E-001	8.49682E-001	3.57840E+000	9	...........
	29	0.4	8.52930E-001	2.81479E-004	0.00000E+000	2.40082E-004	1.68088E-001	8.53276E-001	3.57840E+000	9	...........
	30	0.413333	8.56414E-001	2.80524E-004	0.00000E+000	2.40245E-004	1.68088E-001	8.56779E-001	3.57840E+000	9	...........
	31	0.426667	8.59798E-001	2.80591E-004	0.00000E+000	2.41251E-004	1.68088E-001	8.60126E-001	3.57840E+000	9	...........
	32	0.44	8.63013E-001	2.80616E-004	0.00000E+000	2.42175E-004	1.68088E-001	8.63352E-001	3.57840E+000	9	...........
	33	0.453333	8.66086E-001	2.80160E-004	0.00000E+000	2.42643E-004	1.68088E-001	8.66432E-001	3.57840E+000	9	...........
	34	0.466667	8.69098E-001	2.81214E-004	0.00000E+000	2.44402E-004	1.68088E-001	8.69441E-001	3.57840E+000	9	...........
	35	0.48	8.72040E-001	2.80094E-004	0.00000E+000	2.44253E-004	1.68088E-001	8.72373E-001	3.57840E+000	9	...........
	36	0.493333	8.74889E-001	2.80249E-004	0.00000E+000	2.45187E-004	1.68088E-001	8.75219E-001	3.57840E+000	9	...........
	37	0.506667	8.77622E-001	2.81422E-004	0.00000E+000	2.46982E-004	1.68088E-001	8.77963E-001	3.57840E+000	9	...........
	38	0.52	8.80272E-001	2.80712E-004	0.00000E+000	2.47102E-004	1.68088E-001	8.80614E-001	3.57840E+000	9	...........
	39	0.533333	8.82927E-001	2.80872E-004	0.00000E+000	2.47989E-004	1.68088E-001	8.83269E-001	3.57840E+000	9	...........
	40	0.546667	8.85461E-001	2.80426E-004	0.00000E+000	2.48306E-004	1.68088E-001	8.85800E-001	3.57840E+000	9	...........
	41	0.56	8.87920E-001	2.80540E-004	0.00000E+000	2.49097E-004	1.68088E-001	8.88272E-001	3.57840E+000	9	...........
	42	0.573333	8.90316E-001	2.80011E-004	0.00000E+000	2.49299E-004	1.68088E-001	8.90659E-001	3.57840E+000	9	...........
	43	0.586667	8.92693E-001	2.80880E-004	0.00000E+000	2.50740E-004	1.68088E-001	8.93068E-001	3.57840E+000	9	...........
	44	0.6	8.94977E-001	2.80495E-004	0.00000E+000	2.51037E-004	1.68088E-001	8.95362E-001	3.57840E+000	9	...........
	45	0.613333	8.97184E-001	2.81630E-004	0.00000E+000	2.52674E-004	1.68088E-001	8.97552E-001	3.57840E+000	9	...........
	46	0.626667	8.99333E-001	2.80380E-004	0.00000E+000	2.52155E-004	1.68088E-001	8.99700E-001	3.57840E+000	9	...........
	47	0.64	9.01483E-001	2.81116E-004	0.00000E+000	2.53421E-004	1.68088E-001	9.01869E-001	3.57840E+000	9	...........
	48	0.653333	9.03579E-001	2.80762E-004	0.00000E+000	2.53690E-004	1.68088E-001	9.03959E-001	3.57840E+000	9	...........
	49	0.666667	9.05637E-001	2.80421E-004	0.00000E+000	2.53960E-004	1.68088E-001	9.06014E-001	3.57865E+000	9	...........
	50	0.68	9.07641E-001	2.80674E-004	0.00000E+000	2.54751E-004	1.68088E-001	9.08024E-001	3.57940E+000	9	...........
	51	0.693333	9.09611E-001	2.80989E-004	0.00000E+000	2.55591E-004	1.68088E-001	9.09930E-001	3.57940E+000	9	...........
	52	0.706667	9.11531E-001	2.80532E-004	0.00000E+000	2.55714E-004	1.68088E-001	9.11878E-001	3.57940E+000	9	...........
	53	0.72	9.13405E-001	2.80682E-004	0.00000E+000	2.56377E-004	1.68088E-001	9.13785E-001	3.57940E+000	9	...........
	54	0.733333	9.15242E-001	2.80742E-004	0.00000E+000	2.56947E-004	1.68088E-001	9.15605E-001	3.57940E+000	9	...........
	55	0.746667	9.17034E-001	2.80755E-004	0.00000E+000	2.57462E-004	1.68088E-001	9.17429E-001	3.57940E+000	9	...........
	56	0.76	9.18844E-001	2.81635E-004	0.00000E+000	2.58778E-004	1.68088E-001	9.19213E-001	3.57940E+000	9	...........
	57	0.773333	9.20647E-001	2.81095E-004	0.00000E+000	2.58789E-004	1.68088E-001	9.21002E-001	3.57940E+000	9	...........
	58	0.786667	9.22442E-001	2.80696E-004	0.00000E+000	2.58926E-004	1.68088E-001	9.22770E-001	3.57940E+000	9	...........
	59	0.8	9.24150E-001	2.81013E-004	0.00000E+000	2.59698E-004	1.68088E-001	9.24460E-001	3.57940E+000	9	...........
	60	0.813333	9.25861E-001	2.80992E-004	0.00000E+000	2.60159E-004	1.68088E-001	9.26178E-001	3.57940E+000	9	...........
	61	0.826667	9.27556E-001	2.80738E-004	0.00000E+000	2.60400E-004	1.68088E-001	9.27864E-001	3.57940E+000	9	...........
	62	0.84	9.29197E-001	2.80894E-004	0.00000E+000	2.61006E-004	1.68088E-001	9.29485E-001	3.57940E+000	9	...........
	63	0.853333	9.30794E-001	2.81351E-004	0.00000E+000	2.61880E-004	1.68088E-001	9.31098E-001	3.57940E+000	9	...........
	64	0.866667	9.32385E-001	2.81328E-004	0.00000E+000	2.62306E-004	1.68088E-001	9.32688E-001	3.57940E+000	9	...........
	65	0.88	9.33957E-001	2.80875E-004	0.00000E+000	2.62325E-004	1.68088E-001	9.34268E-001	3.57940E+000	9	...........
	66	0.893333	9.35455E-001	2.80894E-004	0.00000E+000	2.62764E-004	1.68088E-001	9.35805E-001	3.57940E+000	9	...........
	67	0.906667	9.36970E-001	2.80947E-004	0.00000E+000	2.63239E-004	1.68088E-001	9.37334E-001	3.57940E+000	9	...........
	68	0.92	9.38473E-001	2.81467E-004	0.00000E+000	2.64149E-004	1.68088E-001	9.38859E-001	3.57940E+000	9	...........
	69	0.933333	9.39933E-001	2.81482E-004	0.00000E+000	2.64574E-004	1.68088E-001	9.40303E-001	3.57940E+000	9	...........
	70	0.946667	9.41372E-001	2.80497E-004	0.00000E+000	2.64052E-004	1.68088E-001	9.41733E-001	3.57940E+000	9	...........
	71	0.96	9.42795E-001	2.81361E-004	0.00000E+000	2.65265E-004	1.68088E-001	9.43143E-001	3.57940E+000	9	...........
	72	0.97333	9.44185E-001	2.81064E-004	0.00000E+000	2.65376E-004	1.68088E-001	9.44561E-001	3.57940E+000	9	...........
	73	0.98667	9.45568E-001	2.81292E-004	0.00000E+000	2.65981E-004	1.68088E-001	9.45989E-001	3.57940E+000	9	...........
	74	1	9.46996E-001	2.80740E-004	0.00000E+000	2.65860E-004	1.68088E-001	9.47376E-001	3.57940E+000	9	...........
	75	1.01333	9.48367E-001	2.80956E-004	0.00000E+000	2.66450E-004	1.68088E-001	9.48741E-001	3.57940E+000	9	...........
	76	1.02667	9.49719E-001	2.81620E-004	0.00000E+000	2.67460E-004	1.68088E-001	9.50114E-001	3.57940E+000	9	...........
	77	1.04	9.51042E-001	2.80624E-004	0.00000E+000	2.66885E-004	1.68088E-001	9.51414E-001	3.57940E+000	9	...........
	78	1.05333	9.52326E-001	2.81247E-004	0.00000E+000	2.67839E-004	1.68088E-001	9.52724E-001	3.57940E+000	9	...........
	79	1.06667	9.53625E-001	2.80919E-004	0.00000E+000	2.67891E-004	1.68088E-001	9.54009E-001	3.57940E+000	9	...........
	80	1.08	9.54916E-001	2.81007E-004	0.00000E+000	2.68338E-004	1.68088E-001	9.55294E-001	3.57940E+000	9	...........
	81	1.09333	9.56214E-001	2.81185E-004	0.00000E+000	2.68873E-004	1.68088E-001	9.56570E-001	3.57940E+000	9	...........
	82	1.10667	9.57465E-001	2.81067E-004	0.00000E+000	2.69112E-004	1.68088E-001	9.57846E-001	3.57940E+000	9	...........
	83	1.12	9.58759E-001	2.81122E-004	0.00000E+000	2.69528E-004	1.68088E-001	9.59146E-001	3.57940E+000	9	...........
	84	1.13333	9.60026E-001	2.80407E-004	0.00000E+000	2.69198E-004	1.68088E-001	9.60394E-001	3.57940E+000	9	...........
	85	1.14667	9.61234E-001	2.81735E-004	0.00000E+000	2.70813E-004	1.68088E-001	9.61598E-001	3.57940E+000	9	...........
	86	1.16	9.62435E-001	2.80779E-004	0.00000E+000	2.70232E-004	1.68088E-001	9.62783E-001	3.57940E+000	9	...........
	87	1.17333	9.63613E-001	2.81417E-004	0.00000E+000	2.71177E-004	1.68088E-001	9.63983E-001	3.57940E+000	9	...........
	88	1.18667	9.64770E-001	2.80531E-004	0.00000E+000	2.70648E-004	1.68088E-001	9.65165E-001	3.57940E+000	9	...........
	89	1.2	9.65977E-001	2.81002E-004	0.00000E+000	2.71442E-004	1.68088E-001	9.66343E-001	3.57940E+000	9	...........
	90	1.21333	9.67146E-001	2.80655E-004	0.00000E+000	2.71435E-004	1.68088E-001	9.67524E-001	3.57940E+000	9	...........
	91	1.22667	9.68298E-001	2.80998E-004	0.00000E+000	2.72090E-004	1.68088E-001	9.68664E-001	3.57940E+000	9	...........
	92	1.24	9.69427E-001	2.80536E-004	0.00000E+000	2.71959E-004	1.68088E-001	9.69798E-001	3.57940E+000	9	...........
	93	1.25333	9.70560E-001	2.81022E-004	0.00000E+000	2.72749E-004	1.68088E-001	9.70964E-001	3.57940E+000	9	...........
	94	1.26667	9.71648E-001	2.80961E-004	0.00000E+000	2.72995E-004	1.68088E-001	9.72046E-001	3.57940E+000	9	...........
	95	1.28	9.72815E-001	2.80392E-004	0.00000E+000	2.72769E-004	1.68088E-001	9.73170E-001	3.57940E+000	9	...........
	96	1.29333	9.73950E-001	2.81259E-004	0.00000E+000	2.73932E-004	1.68088E-001	9.74291E-001	3.57940E+000	9	...........
	97	1.30667	9.75047E-001	2.80711E-004	0.00000E+000	2.73706E-004	1.68088E-001	9.75421E-001	3.57940E+000	9	...........
	98	1.32	9.76143E-001	2.81466E-004	0.00000E+000	2.74751E-004	1.68088E-001	9.76498E-001	3.57940E+000	9	...........
	99	1.33333	9.77213E-001	2.81168E-004	0.00000E+000	2.74761E-004	1.68088E-001	9.77591E-001	3.57940E+000	9	...........
	100	1.34667	9.78285E-001	2.81165E-004	0.00000E+000	2.75059E-004	1.68088E-001	9.78671E-001	3.57940E+000	9	...........
	101	1.36	9.79367E-001	2.81131E-004	0.00000E+000	2.75331E-004	1.68088E-001	9.79718E-001	3.57940E+000	9	...........
	102	1.37333	9.80369E-001	2.81119E-004	0.00000E+000	2.75600E-004	1.68088E-001	9.80743E-001	3.57940E+000	9	...........
	103	1.38667	9.81379E-001	2.81122E-004	0.00000E+000	2.75887E-004	1.68088E-001	9.81765E-001	3.57940E+000	9	...........
	104	1.4	9.82447E-001	2.80527E-004	0.00000E+000	2.75603E-004	1.68088E-001	9.82809E-001	3.57940E+000	9	...........
	105	1.41333	9.83456E-001	2.80673E-004	0.00000E+000	2.76030E-004	1.68088E-001	9.83842E-001	3.57940E+000	9	...........
	106	1.42667	9.84430E-001	2.81564E-004	0.00000E+000	2.77180E-004	1.68088E-001	9.84857E-001	3.57940E+000	9	...........
	107	1.44	9.85428E-001	2.81723E-004	0.00000E+000	2.77618E-004	1.68088E-001	9.85839E-001	3.57940E+000	9	...........
	108	1.45333	9.86440E-001	2.81156E-004	0.00000E+000	2.77344E-004	1.68088E-001	9.86841E-001	3.57940E+000	9	...........
	109	1.46667	9.87409E-001	2.80737E-004	0.00000E+000	2.77202E-004	1.68088E-001	9.87800E-001	3.57940E+000	9	...........
	110	1.48	9.88399E-001	2.81116E-004	0.00000E+000	2.77855E-004	1.68088E-001	9.88780E-001	3.57940E+000	9	...........
	111	1.49333	9.89350E-001	2.80368E-004	0.00000E+000	2.77382E-004	1.68088E-001	9.89750E-001	3.57940E+000	9	...........
	112	1.50667	9.90304E-001	2.80494E-004	0.00000E+000	2.77774E-004	1.68088E-001	9.90666E-001	3.57940E+000	9	...........
	113	1.52	9.91212E-001	2.80745E-004	0.00000E+000	2.78278E-004	1.68088E-001	9.91577E-001	3.57940E+000	9	...........
	114	1.53333	9.92108E-001	2.81054E-004	0.00000E+000	2.78836E-004	1.68088E-001	9.92495E-001	3.57940E+000	9	...........
	115	1.54667	9.93017E-001	2.81610E-004	0.00000E+000	2.79643E-004	1.68088E-001	9.93411E-001	3.57940E+000	9	...........
	116	1.56	9.93956E-001	2.80955E-004	0.00000E+000	2.79257E-004	1.68088E-001	9.94344E-001	3.57940E+000	9	...........
	117	1.57333	9.94887E-001	2.81432E-004	0.00000E+000	2.79992E-004	1.68088E-001	9.95262E-001	3.57940E+000	9	...........
	118	1.58667	9.95772E-001	2.80778E-004	0.00000E+000	2.79591E-004	1.68088E-001	9.96147E-001	3.57940E+000	9	...........
	119	1.6	9.96659E-001	2.80764E-004	0.00000E+000	2.79826E-004	1.68088E-001	9.97045E-001	3.57940E+000	9	...........
	120	1.61333	9.97514E-001	2.80851E-004	0.00000E+000	2.80153E-004	1.68088E-001	9.97930E-001	3.57940E+000	9	...........
	121	1.62667	9.98427E-001	2.81740E-004	0.00000E+000	2.81297E-004	1.68088E-001	9.98810E-001	3.57940E+000	9	...........
	122	1.64	9.99296E-001	2.81861E-004	0.00000E+000	2.81662E-004	1.68088E-001	9.99682E-001	3.57940E+000	9	...........
	123	1.64667	9.99919E-001	2.81386E-004	0.00000E+000	2.81363E-004	1.68088E-001	1.00033E+000	3.57940E+000	9	...........
STARTTIMEOFFSET	QUANT	463.9651	Start Time Offset (s)
