EXPLAIN
TAG	PWR800_CHARGE
TITLE	LABEL	PWR Cyclic Charge Discharge (Cell) - Charge Step	Test &Identifier
DATE	LABEL	7-7-2017	Date
TIME	LABEL	15:38:50	Time
NOTES	NOTES	3	&Notes...
	supercap test cell
	2.8mg
	6M KOH
PSTAT	PSTAT	IFC5000-01520	Potentiostat
CAPACITY	QUANT	1.00000E-003	Capacity (A-hr)
CELLTYPE	SELECTOR	1	&Cell Type
WORKINGCONNECTION	SELECTOR	0	&Working Lead
MAXCHARGETIME	VARIABLEANDUNITS	1.00000E+002	s	1.00000E+002	second(s)	Max &Charge Time
CHARGECURRENT	QUANT	2.80000E-004	&Charge Current (A) 
VOLTAGEFINISH	TWOPARAM	F	1.00000E-003	3.60000E+003	&Voltage Finish	 I (A) < 	Max Time(s)
SAMPLETIME	QUANT	1.00000E-002	Sa&mple Period (s)
CHARGESTOPAT1	MULTIPARAM	4	1.00000E+000	Charge Stop At &1	Voltage > Limit	V
CHARGESTOPAT2	MULTIPARAM	0	0.00000E+000	Charge Stop At &2	None	N/A
AESBHCSELECTOR	TOGGLE	F	Save Both Half Cells
IRCOMP	TOGGLE	F	IR &Measure
EOC	QUANT	0	Open Circuit (V)
SEQUENCER	TOGGLE	TRUE	Run as Sequence
PSTATMODEL	IQUANT	53	Pstat Model
PSTATSECTION	LABEL	IFC5000-01520	Pstat Section
PSTATSERIALNO	LABEL	01520	Pstat Serial Number
CTRLMODE	IQUANT	0	Control Mode
ELECTROMETER	IQUANT	1	RE=0 or CS=1
IESTAB	IQUANT	0	I/E Stability
CASPEED	IQUANT	4	Control Amp Speed
CONVENTION	IQUANT	1	Current Convention
ICHRANGE	IQUANT	2	Ich Range
ICHRANGEMODE	TOGGLE	T	Ich Auto Range
ICHOFFSETENABLE	TOGGLE	F	Ich Offset Enable
ICHOFFSET	QUANT	0	Ich Offset (V)
ICHFILTER	IQUANT	1	Ich Filter
VCHRANGE	IQUANT	2	Vch Range
VCHRANGEMODE	TOGGLE	T	Vch Auto Range
VCHOFFSETENABLE	TOGGLE	F	Vch Offset Enable
VCHOFFSET	QUANT	0	Vch Offset (V)
VCHFILTER	IQUANT	1	Vch Filter
IERANGELOWERLIMIT	IQUANT	9	I/E Range Lower Limit
IERANGEMODE	TOGGLE	F	I/E AutoRange
IERANGE	IQUANT	9	I/E Range
ACHSELECT	IQUANT	1	Ach Select
ACHRANGE	IQUANT	2	Ach Range
ACHOFFSETENABLE	TOGGLE	F	Ach Offset Enable
ACHOFFSET	QUANT	0	Ach Offset (V)
ACHFILTER	IQUANT	1	Ach Filter
CABLEID	IQUANT	14	Cable ID
DCCALDATE	LABEL	5-7-2017	DC Calibration Date
ACCALDATE	LABEL	12/3/2015	AC Calibration Date
FRAMEWORKVERSION	QUANT	7.01	Framework Version
INSTRUMENTVERSION	LABEL	4.00	Instrument Version
CURVE	TABLE	174
	Pt	T	Vf	Im	Vu	Pwr	Sig	Ach	Temp	IERange	Over
	#	s	V	A	V	W	V	V	deg C	#	bits
	0	0.013333	5.57644E-001	2.80750E-004	0.00000E+000	1.56559E-004	1.68088E-001	5.57886E-001	3.57870E+000	9	...........
	1	0.026667	5.84904E-001	2.80379E-004	0.00000E+000	1.63995E-004	1.68088E-001	5.85153E-001	3.57870E+000	9	...........
	2	0.04	6.07468E-001	2.81367E-004	0.00000E+000	1.70922E-004	1.68088E-001	6.07760E-001	3.57870E+000	9	...........
	3	0.053333	6.26711E-001	2.80071E-004	0.00000E+000	1.75523E-004	1.68088E-001	6.26984E-001	3.57870E+000	9	...........
	4	0.066667	6.43420E-001	2.81056E-004	0.00000E+000	1.80837E-004	1.68088E-001	6.43704E-001	3.57870E+000	9	...........
	5	0.08	6.58115E-001	2.80299E-004	0.00000E+000	1.84469E-004	1.68088E-001	6.58418E-001	3.57870E+000	9	...........
	6	0.093333	6.71284E-001	2.80945E-004	0.00000E+000	1.88594E-004	1.68088E-001	6.71582E-001	3.57870E+000	9	...........
	7	0.106667	6.83141E-001	2.82019E-004	0.00000E+000	1.92659E-004	1.68088E-001	6.83450E-001	3.57870E+000	9	...........
	8	0.12	6.93898E-001	2.81309E-004	0.00000E+000	1.95199E-004	1.68088E-001	6.94195E-001	3.57870E+000	9	...........
	9	0.133333	7.03730E-001	2.81000E-004	0.00000E+000	1.97748E-004	1.68088E-001	7.04028E-001	3.57870E+000	9	...........
	10	0.146667	7.12757E-001	2.81192E-004	0.00000E+000	2.00422E-004	1.68088E-001	7.13076E-001	3.57870E+000	9	...........
	11	0.16	7.21189E-001	2.80812E-004	0.00000E+000	2.02518E-004	1.68088E-001	7.21468E-001	3.57870E+000	9	...........
	12	0.173333	7.28925E-001	2.81143E-004	0.00000E+000	2.04932E-004	1.68088E-001	7.29223E-001	3.57870E+000	9	...........
	13	0.186667	7.36177E-001	2.80764E-004	0.00000E+000	2.06692E-004	1.68088E-001	7.36480E-001	3.57870E+000	9	...........
	14	0.2	7.42965E-001	2.80768E-004	0.00000E+000	2.08601E-004	1.68088E-001	7.43273E-001	3.57870E+000	9	...........
	15	0.213333	7.49356E-001	2.80967E-004	0.00000E+000	2.10544E-004	1.68088E-001	7.49651E-001	3.57870E+000	9	...........
	16	0.226667	7.55399E-001	2.80687E-004	0.00000E+000	2.12030E-004	1.68088E-001	7.55695E-001	3.57870E+000	9	...........
	17	0.24	7.61101E-001	2.80314E-004	0.00000E+000	2.13347E-004	1.68088E-001	7.61372E-001	3.57870E+000	9	...........
	18	0.253333	7.66508E-001	2.81759E-004	0.00000E+000	2.15970E-004	1.68088E-001	7.66786E-001	3.57870E+000	9	...........
	19	0.266667	7.71633E-001	2.80577E-004	0.00000E+000	2.16503E-004	1.68088E-001	7.71922E-001	3.57870E+000	9	...........
	20	0.28	7.76487E-001	2.81860E-004	0.00000E+000	2.18860E-004	1.68088E-001	7.76761E-001	3.57870E+000	9	...........
	21	0.293333	7.81080E-001	2.80375E-004	0.00000E+000	2.18995E-004	1.68088E-001	7.81365E-001	3.57870E+000	9	...........
	22	0.306667	7.85505E-001	2.81492E-004	0.00000E+000	2.21113E-004	1.68088E-001	7.85777E-001	3.57870E+000	9	...........
	23	0.32	7.89720E-001	2.81091E-004	0.00000E+000	2.21983E-004	1.68088E-001	7.90001E-001	3.57870E+000	9	...........
	24	0.333333	7.93806E-001	2.80468E-004	0.00000E+000	2.22637E-004	1.68088E-001	7.94086E-001	3.57870E+000	9	...........
	25	0.346667	7.97706E-001	2.81051E-004	0.00000E+000	2.24196E-004	1.68088E-001	7.98002E-001	3.57870E+000	9	...........
	26	0.36	8.01483E-001	2.81716E-004	0.00000E+000	2.25790E-004	1.68088E-001	8.01798E-001	3.57870E+000	9	...........
	27	0.373333	8.05105E-001	2.80602E-004	0.00000E+000	2.25914E-004	1.68088E-001	8.05408E-001	3.57870E+000	9	...........
	28	0.386667	8.08583E-001	2.80441E-004	0.00000E+000	2.26760E-004	1.68088E-001	8.08903E-001	3.57870E+000	9	...........
	29	0.4	8.11908E-001	2.79866E-004	0.00000E+000	2.27225E-004	1.68088E-001	8.12261E-001	3.57870E+000	9	...........
	30	0.413333	8.15154E-001	2.81648E-004	0.00000E+000	2.29587E-004	1.68088E-001	8.15495E-001	3.57870E+000	9	...........
	31	0.426667	8.18316E-001	2.80781E-004	0.00000E+000	2.29768E-004	1.68088E-001	8.18667E-001	3.57870E+000	9	...........
	32	0.44	8.21371E-001	2.80881E-004	0.00000E+000	2.30708E-004	1.68088E-001	8.21722E-001	3.57870E+000	9	...........
	33	0.453333	8.24281E-001	2.81233E-004	0.00000E+000	2.31815E-004	1.68088E-001	8.24652E-001	3.57870E+000	9	...........
	34	0.466667	8.27130E-001	2.81065E-004	0.00000E+000	2.32477E-004	1.68088E-001	8.27477E-001	3.57870E+000	9	...........
	35	0.48	8.29894E-001	2.80984E-004	0.00000E+000	2.33187E-004	1.68088E-001	8.30263E-001	3.57870E+000	9	...........
	36	0.493333	8.32587E-001	2.81185E-004	0.00000E+000	2.34111E-004	1.68088E-001	8.32965E-001	3.57870E+000	9	...........
	37	0.506667	8.35220E-001	2.80444E-004	0.00000E+000	2.34232E-004	1.68088E-001	8.35595E-001	3.57870E+000	9	...........
	38	0.52	8.37772E-001	2.81401E-004	0.00000E+000	2.35750E-004	1.68088E-001	8.38132E-001	3.57870E+000	9	...........
	39	0.533333	8.40281E-001	2.81536E-004	0.00000E+000	2.36569E-004	1.68088E-001	8.40647E-001	3.57870E+000	9	...........
	40	0.546667	8.42704E-001	2.80330E-004	0.00000E+000	2.36235E-004	1.68088E-001	8.43058E-001	3.57870E+000	9	...........
	41	0.56	8.45146E-001	2.81496E-004	0.00000E+000	2.37905E-004	1.68088E-001	8.45498E-001	3.57870E+000	9	...........
	42	0.573333	8.47497E-001	2.81320E-004	0.00000E+000	2.38418E-004	1.68088E-001	8.47836E-001	3.58150E+000	9	...........
	43	0.586667	8.49780E-001	2.80941E-004	0.00000E+000	2.38738E-004	1.68088E-001	8.50141E-001	3.58150E+000	9	...........
	44	0.6	8.52051E-001	2.81794E-004	0.00000E+000	2.40103E-004	1.68088E-001	8.52407E-001	3.58150E+000	9	...........
	45	0.613333	8.54263E-001	2.81042E-004	0.00000E+000	2.40084E-004	1.68088E-001	8.54607E-001	3.58150E+000	9	...........
	46	0.626667	8.56428E-001	2.81430E-004	0.00000E+000	2.41025E-004	1.68088E-001	8.56754E-001	3.58150E+000	9	...........
	47	0.64	8.58511E-001	2.81116E-004	0.00000E+000	2.41341E-004	1.68088E-001	8.58868E-001	3.58150E+000	9	...........
	48	0.653333	8.60592E-001	2.80807E-004	0.00000E+000	2.41661E-004	1.68088E-001	8.60918E-001	3.58150E+000	9	...........
	49	0.666667	8.62658E-001	2.81536E-004	0.00000E+000	2.42869E-004	1.68088E-001	8.62979E-001	3.58150E+000	9	...........
	50	0.68	8.64601E-001	2.81140E-004	0.00000E+000	2.43074E-004	1.68088E-001	8.64953E-001	3.58150E+000	9	...........
	51	0.693333	8.66570E-001	2.80806E-004	0.00000E+000	2.43339E-004	1.68088E-001	8.66914E-001	3.58150E+000	9	...........
	52	0.706667	8.68487E-001	2.81635E-004	0.00000E+000	2.44596E-004	1.68088E-001	8.68838E-001	3.58150E+000	9	...........
	53	0.72	8.70413E-001	2.80541E-004	0.00000E+000	2.44186E-004	1.68088E-001	8.70728E-001	3.58150E+000	9	...........
	54	0.733333	8.72273E-001	2.80494E-004	0.00000E+000	2.44667E-004	1.68088E-001	8.72588E-001	3.58150E+000	9	...........
	55	0.746667	8.74034E-001	2.82175E-004	0.00000E+000	2.46631E-004	1.68088E-001	8.74379E-001	3.58150E+000	9	...........
	56	0.76	8.75826E-001	2.81937E-004	0.00000E+000	2.46928E-004	1.68088E-001	8.76159E-001	3.58150E+000	9	...........
	57	0.773333	8.77613E-001	2.81073E-004	0.00000E+000	2.46674E-004	1.68088E-001	8.77939E-001	3.58150E+000	9	...........
	58	0.786667	8.79344E-001	2.80099E-004	0.00000E+000	2.46303E-004	1.68088E-001	8.79672E-001	3.58150E+000	9	...........
	59	0.8	8.81053E-001	2.81429E-004	0.00000E+000	2.47954E-004	1.68088E-001	8.81387E-001	3.58150E+000	9	...........
	60	0.813333	8.82739E-001	2.81616E-004	0.00000E+000	2.48593E-004	1.68088E-001	8.83098E-001	3.58150E+000	9	...........
	61	0.826667	8.84395E-001	2.81658E-004	0.00000E+000	2.49096E-004	1.68088E-001	8.84776E-001	3.58150E+000	9	...........
	62	0.84	8.86003E-001	2.81538E-004	0.00000E+000	2.49443E-004	1.68088E-001	8.86387E-001	3.58150E+000	9	...........
	63	0.853333	8.87616E-001	2.81085E-004	0.00000E+000	2.49495E-004	1.68088E-001	8.88002E-001	3.58150E+000	9	...........
	64	0.866667	8.89221E-001	2.81971E-004	0.00000E+000	2.50735E-004	1.68088E-001	8.89579E-001	3.58150E+000	9	...........
	65	0.88	8.90788E-001	2.81777E-004	0.00000E+000	2.51004E-004	1.68088E-001	8.91167E-001	3.58150E+000	9	...........
	66	0.893333	8.92324E-001	2.81778E-004	0.00000E+000	2.51438E-004	1.68088E-001	8.92703E-001	3.58150E+000	9	...........
	67	0.906667	8.93839E-001	2.81741E-004	0.00000E+000	2.51831E-004	1.68088E-001	8.94210E-001	3.58150E+000	9	...........
	68	0.92	8.95336E-001	2.80988E-004	0.00000E+000	2.51578E-004	1.68088E-001	8.95775E-001	3.58150E+000	9	...........
	69	0.933333	8.96864E-001	2.81113E-004	0.00000E+000	2.52120E-004	1.68088E-001	8.97250E-001	3.58150E+000	9	...........
	70	0.946667	8.98353E-001	2.80999E-004	0.00000E+000	2.52437E-004	1.68088E-001	8.98787E-001	3.58150E+000	9	...........
	71	0.96	8.99827E-001	2.81501E-004	0.00000E+000	2.53302E-004	1.68088E-001	9.00240E-001	3.58150E+000	9	...........
	72	0.97333	9.01302E-001	2.81310E-004	0.00000E+000	2.53545E-004	1.68088E-001	9.01707E-001	3.58150E+000	9	...........
	73	0.98667	9.02731E-001	2.81479E-004	0.00000E+000	2.54100E-004	1.68088E-001	9.03143E-001	3.58150E+000	9	...........
	74	1	9.04162E-001	2.80499E-004	0.00000E+000	2.53617E-004	1.68088E-001	9.04555E-001	3.58150E+000	9	...........
	75	1.01333	9.05586E-001	2.81096E-004	0.00000E+000	2.54557E-004	1.68088E-001	9.05939E-001	3.58150E+000	9	...........
	76	1.02667	9.06964E-001	2.80430E-004	0.00000E+000	2.54340E-004	1.68088E-001	9.07314E-001	3.58150E+000	9	...........
	77	1.04	9.08351E-001	2.81529E-004	0.00000E+000	2.55728E-004	1.68088E-001	9.08692E-001	3.58150E+000	9	...........
	78	1.05333	9.09735E-001	2.82032E-004	0.00000E+000	2.56574E-004	1.68088E-001	9.10059E-001	3.58150E+000	9	...........
	79	1.06667	9.11069E-001	2.81267E-004	0.00000E+000	2.56254E-004	1.68088E-001	9.11418E-001	3.58150E+000	9	...........
	80	1.08	9.12437E-001	2.80838E-004	0.00000E+000	2.56247E-004	1.68088E-001	9.12769E-001	3.58150E+000	9	...........
	81	1.09333	9.13777E-001	2.80503E-004	0.00000E+000	2.56317E-004	1.68088E-001	9.14124E-001	3.58150E+000	9	...........
	82	1.10667	9.15085E-001	2.81848E-004	0.00000E+000	2.57915E-004	1.68088E-001	9.15417E-001	3.58150E+000	9	...........
	83	1.12	9.16380E-001	2.81878E-004	0.00000E+000	2.58308E-004	1.68088E-001	9.16732E-001	3.58150E+000	9	...........
	84	1.13333	9.17663E-001	2.82104E-004	0.00000E+000	2.58876E-004	1.68088E-001	9.18023E-001	3.58150E+000	9	...........
	85	1.14667	9.18939E-001	2.80384E-004	0.00000E+000	2.57656E-004	1.68088E-001	9.19304E-001	3.58150E+000	9	...........
	86	1.16	9.20192E-001	2.81719E-004	0.00000E+000	2.59236E-004	1.68088E-001	9.20578E-001	3.58150E+000	9	...........
	87	1.17333	9.21522E-001	2.80345E-004	0.00000E+000	2.58344E-004	1.68088E-001	9.21858E-001	3.58150E+000	9	...........
	88	1.18667	9.22745E-001	2.80533E-004	0.00000E+000	2.58861E-004	1.68088E-001	9.23108E-001	3.58150E+000	9	...........
	89	1.2	9.23980E-001	2.81078E-004	0.00000E+000	2.59711E-004	1.68088E-001	9.24335E-001	3.58150E+000	9	...........
	90	1.21333	9.25183E-001	2.81245E-004	0.00000E+000	2.60203E-004	1.68088E-001	9.25529E-001	3.58150E+000	9	...........
	91	1.22667	9.26386E-001	2.81305E-004	0.00000E+000	2.60598E-004	1.68088E-001	9.26730E-001	3.58150E+000	9	...........
	92	1.24	9.27553E-001	2.80891E-004	0.00000E+000	2.60541E-004	1.68088E-001	9.27927E-001	3.58150E+000	9	...........
	93	1.25333	9.28721E-001	2.81267E-004	0.00000E+000	2.61218E-004	1.68088E-001	9.29073E-001	3.58150E+000	9	...........
	94	1.26667	9.29875E-001	2.81544E-004	0.00000E+000	2.61801E-004	1.68088E-001	9.30218E-001	3.58150E+000	9	...........
	95	1.28	9.31061E-001	2.81296E-004	0.00000E+000	2.61904E-004	1.68088E-001	9.31388E-001	3.58150E+000	9	...........
	96	1.29333	9.32206E-001	2.82277E-004	0.00000E+000	2.63140E-004	1.68088E-001	9.32540E-001	3.58150E+000	9	...........
	97	1.30667	9.33346E-001	2.81220E-004	0.00000E+000	2.62476E-004	1.68088E-001	9.33697E-001	3.58150E+000	9	...........
	98	1.32	9.34496E-001	2.80314E-004	0.00000E+000	2.61952E-004	1.68088E-001	9.34838E-001	3.58150E+000	9	...........
	99	1.33333	9.35640E-001	2.81798E-004	0.00000E+000	2.63662E-004	1.68088E-001	9.35974E-001	3.58150E+000	9	...........
	100	1.34667	9.36795E-001	2.81569E-004	0.00000E+000	2.63773E-004	1.68088E-001	9.37130E-001	3.58150E+000	9	...........
	101	1.36	9.37881E-001	2.81548E-004	0.00000E+000	2.64059E-004	1.68088E-001	9.38230E-001	3.58150E+000	9	...........
	102	1.37333	9.38983E-001	2.81302E-004	0.00000E+000	2.64138E-004	1.68088E-001	9.39349E-001	3.58150E+000	9	...........
	103	1.38667	9.40078E-001	2.80914E-004	0.00000E+000	2.64081E-004	1.68088E-001	9.40444E-001	3.58150E+000	9	...........
	104	1.4	9.41143E-001	2.80840E-004	0.00000E+000	2.64310E-004	1.68088E-001	9.41495E-001	3.58150E+000	9	...........
	105	1.41333	9.42212E-001	2.81411E-004	0.00000E+000	2.65149E-004	1.68088E-001	9.42550E-001	3.58150E+000	9	...........
	106	1.42667	9.43255E-001	2.80814E-004	0.00000E+000	2.64879E-004	1.68088E-001	9.43608E-001	3.58150E+000	9	...........
	107	1.44	9.44294E-001	2.81997E-004	0.00000E+000	2.66288E-004	1.68088E-001	9.44681E-001	3.58150E+000	9	...........
	108	1.45333	9.45338E-001	2.80816E-004	0.00000E+000	2.65466E-004	1.68088E-001	9.45715E-001	3.58150E+000	9	...........
	109	1.46667	9.46406E-001	2.81245E-004	0.00000E+000	2.66172E-004	1.68088E-001	9.46789E-001	3.58150E+000	9	...........
	110	1.48	9.47465E-001	2.81204E-004	0.00000E+000	2.66431E-004	1.68088E-001	9.47805E-001	3.58150E+000	9	...........
	111	1.49333	9.48438E-001	2.81807E-004	0.00000E+000	2.67276E-004	1.68088E-001	9.48798E-001	3.58150E+000	9	...........
	112	1.50667	9.49436E-001	2.81670E-004	0.00000E+000	2.67428E-004	1.68088E-001	9.49821E-001	3.58150E+000	9	...........
	113	1.52	9.50450E-001	2.80945E-004	0.00000E+000	2.67024E-004	1.68088E-001	9.50836E-001	3.58150E+000	9	...........
	114	1.53333	9.51407E-001	2.80956E-004	0.00000E+000	2.67304E-004	1.68088E-001	9.51800E-001	3.58150E+000	9	...........
	115	1.54667	9.52396E-001	2.80689E-004	0.00000E+000	2.67327E-004	1.68088E-001	9.52799E-001	3.58150E+000	9	...........
	116	1.56	9.53419E-001	2.80888E-004	0.00000E+000	2.67804E-004	1.68088E-001	9.53805E-001	3.58150E+000	9	...........
	117	1.57333	9.54399E-001	2.81147E-004	0.00000E+000	2.68327E-004	1.68088E-001	9.54780E-001	3.57900E+000	9	...........
	118	1.58667	9.55350E-001	2.80929E-004	0.00000E+000	2.68386E-004	1.68088E-001	9.55728E-001	3.57900E+000	9	...........
	119	1.6	9.56294E-001	2.81943E-004	0.00000E+000	2.69620E-004	1.68088E-001	9.56686E-001	3.57900E+000	9	...........
	120	1.61333	9.57241E-001	2.80853E-004	0.00000E+000	2.68844E-004	1.68088E-001	9.57630E-001	3.57900E+000	9	...........
	121	1.62667	9.58179E-001	2.81260E-004	0.00000E+000	2.69497E-004	1.68088E-001	9.58583E-001	3.57900E+000	9	...........
	122	1.64	9.59140E-001	2.80271E-004	0.00000E+000	2.68819E-004	1.68088E-001	9.59550E-001	3.57900E+000	9	...........
	123	1.65333	9.60105E-001	2.80460E-004	0.00000E+000	2.69272E-004	1.68088E-001	9.60498E-001	3.57900E+000	9	...........
	124	1.66667	9.61045E-001	2.81501E-004	0.00000E+000	2.70536E-004	1.68088E-001	9.61425E-001	3.57900E+000	9	...........
	125	1.68	9.62002E-001	2.80792E-004	0.00000E+000	2.70122E-004	1.68088E-001	9.62399E-001	3.57900E+000	9	...........
	126	1.69333	9.62964E-001	2.81180E-004	0.00000E+000	2.70767E-004	1.68088E-001	9.63348E-001	3.57900E+000	9	...........
	127	1.70667	9.63906E-001	2.80744E-004	0.00000E+000	2.70611E-004	1.68088E-001	9.64299E-001	3.57900E+000	9	...........
	128	1.72	9.64807E-001	2.80792E-004	0.00000E+000	2.70910E-004	1.68088E-001	9.65211E-001	3.57900E+000	9	...........
	129	1.73333	9.65692E-001	2.81255E-004	0.00000E+000	2.71606E-004	1.68088E-001	9.66080E-001	3.57900E+000	9	...........
	130	1.74667	9.66566E-001	2.81859E-004	0.00000E+000	2.72435E-004	1.68088E-001	9.66966E-001	3.57900E+000	9	...........
	131	1.76	9.67485E-001	2.81099E-004	0.00000E+000	2.71959E-004	1.68088E-001	9.67866E-001	3.57900E+000	9	...........
	132	1.77333	9.68392E-001	2.81149E-004	0.00000E+000	2.72263E-004	1.68088E-001	9.68793E-001	3.57900E+000	9	...........
	133	1.78667	9.69296E-001	2.81299E-004	0.00000E+000	2.72662E-004	1.68088E-001	9.69681E-001	3.57900E+000	9	...........
	134	1.8	9.70179E-001	2.80817E-004	0.00000E+000	2.72443E-004	1.68088E-001	9.70575E-001	3.57900E+000	9	...........
	135	1.81333	9.71037E-001	2.81621E-004	0.00000E+000	2.73464E-004	1.68088E-001	9.71450E-001	3.57900E+000	9	...........
	136	1.82667	9.71912E-001	2.81139E-004	0.00000E+000	2.73242E-004	1.68088E-001	9.72347E-001	3.57900E+000	9	...........
	137	1.84	9.72791E-001	2.81172E-004	0.00000E+000	2.73522E-004	1.68088E-001	9.73196E-001	3.57900E+000	9	...........
	138	1.85333	9.73659E-001	2.81414E-004	0.00000E+000	2.74001E-004	1.68088E-001	9.74041E-001	3.57900E+000	9	...........
	139	1.86667	9.74480E-001	2.80519E-004	0.00000E+000	2.73360E-004	1.68088E-001	9.74843E-001	3.57900E+000	9	...........
	140	1.88	9.75289E-001	2.80934E-004	0.00000E+000	2.73991E-004	1.68088E-001	9.75670E-001	3.57900E+000	9	...........
	141	1.89333	9.76100E-001	2.81867E-004	0.00000E+000	2.75130E-004	1.68088E-001	9.76453E-001	3.57900E+000	9	...........
	142	1.90667	9.76906E-001	2.80683E-004	0.00000E+000	2.74201E-004	1.68088E-001	9.77264E-001	3.57900E+000	9	...........
	143	1.92	9.77715E-001	2.81701E-004	0.00000E+000	2.75424E-004	1.68088E-001	9.78095E-001	3.57900E+000	9	...........
	144	1.93333	9.78519E-001	2.80507E-004	0.00000E+000	2.74482E-004	1.68088E-001	9.78890E-001	3.57900E+000	9	...........
	145	1.94667	9.79308E-001	2.81048E-004	0.00000E+000	2.75233E-004	1.68088E-001	9.79669E-001	3.57900E+000	9	...........
	146	1.96	9.80090E-001	2.81436E-004	0.00000E+000	2.75832E-004	1.68088E-001	9.80443E-001	3.57900E+000	9	...........
	147	1.97333	9.80854E-001	2.80484E-004	0.00000E+000	2.75114E-004	1.68088E-001	9.81218E-001	3.57900E+000	9	...........
	148	1.98667	9.81629E-001	2.80988E-004	0.00000E+000	2.75826E-004	1.68088E-001	9.81999E-001	3.57900E+000	9	...........
	149	2	9.82426E-001	2.80370E-004	0.00000E+000	2.75443E-004	1.68088E-001	9.82777E-001	3.57900E+000	9	...........
	150	2.01333	9.83169E-001	2.80849E-004	0.00000E+000	2.76122E-004	1.68088E-001	9.83512E-001	3.57900E+000	9	...........
	151	2.02667	9.83915E-001	2.80950E-004	0.00000E+000	2.76431E-004	1.68088E-001	9.84279E-001	3.57900E+000	9	...........
	152	2.04	9.84663E-001	2.80908E-004	0.00000E+000	2.76600E-004	1.68088E-001	9.85052E-001	3.57900E+000	9	...........
	153	2.05333	9.85456E-001	2.81388E-004	0.00000E+000	2.77295E-004	1.68088E-001	9.85854E-001	3.57900E+000	9	...........
	154	2.06667	9.86236E-001	2.80667E-004	0.00000E+000	2.76804E-004	1.68088E-001	9.86619E-001	3.57900E+000	9	...........
	155	2.08	9.86986E-001	2.80631E-004	0.00000E+000	2.76979E-004	1.68088E-001	9.87356E-001	3.57900E+000	9	...........
	156	2.09333	9.87699E-001	2.81412E-004	0.00000E+000	2.77950E-004	1.68088E-001	9.88089E-001	3.57900E+000	9	...........
	157	2.10667	9.88471E-001	2.81455E-004	0.00000E+000	2.78210E-004	1.68088E-001	9.88805E-001	3.57900E+000	9	...........
	158	2.12	9.89206E-001	2.80836E-004	0.00000E+000	2.77804E-004	1.68088E-001	9.89560E-001	3.57900E+000	9	...........
	159	2.13333	9.89942E-001	2.81401E-004	0.00000E+000	2.78571E-004	1.68088E-001	9.90320E-001	3.57900E+000	9	...........
	160	2.14667	9.90665E-001	2.81839E-004	0.00000E+000	2.79208E-004	1.68088E-001	9.91032E-001	3.57900E+000	9	...........
	161	2.16	9.91404E-001	2.80472E-004	0.00000E+000	2.78061E-004	1.68088E-001	9.91776E-001	3.57900E+000	9	...........
	162	2.17333	9.92109E-001	2.80500E-004	0.00000E+000	2.78287E-004	1.68088E-001	9.92516E-001	3.57900E+000	9	...........
	163	2.18667	9.92860E-001	2.80797E-004	0.00000E+000	2.78792E-004	1.68088E-001	9.93255E-001	3.57900E+000	9	...........
	164	2.2	9.93610E-001	2.81018E-004	0.00000E+000	2.79222E-004	1.68088E-001	9.93992E-001	3.57900E+000	9	...........
	165	2.21333	9.94326E-001	2.80945E-004	0.00000E+000	2.79351E-004	1.68088E-001	9.94732E-001	3.57900E+000	9	...........
	166	2.22667	9.95034E-001	2.81030E-004	0.00000E+000	2.79635E-004	1.68088E-001	9.95399E-001	3.57900E+000	9	...........
	167	2.24	9.95716E-001	2.82070E-004	0.00000E+000	2.80862E-004	1.68088E-001	9.96116E-001	3.57900E+000	9	...........
	168	2.25333	9.96390E-001	2.80217E-004	0.00000E+000	2.79205E-004	1.68088E-001	9.96771E-001	3.57900E+000	9	...........
	169	2.26667	9.97045E-001	2.80378E-004	0.00000E+000	2.79550E-004	1.68088E-001	9.97474E-001	3.57900E+000	9	...........
	170	2.28	9.97706E-001	2.80984E-004	0.00000E+000	2.80339E-004	1.68088E-001	9.98140E-001	3.57900E+000	9	...........
	171	2.29333	9.98384E-001	2.81364E-004	0.00000E+000	2.80909E-004	1.68088E-001	9.98796E-001	3.57900E+000	9	...........
	172	2.30667	9.99097E-001	2.81500E-004	0.00000E+000	2.81246E-004	1.68088E-001	9.99495E-001	3.57900E+000	9	...........
	173	2.31833	9.99743E-001	2.81431E-004	0.00000E+000	2.81359E-004	1.68088E-001	1.00016E+000	3.57900E+000	9	...........
STARTTIMEOFFSET	QUANT	144.2017	Start Time Offset (s)
