EXPLAIN
TAG	PWR800_CHARGE
TITLE	LABEL	PWR Cyclic Charge Discharge (Cell) - Charge Step	Test &Identifier
DATE	LABEL	7-7-2017	Date
TIME	LABEL	16:02:08	Time
NOTES	NOTES	3	&Notes...
	supercap test cell
	2.8mg
	6M KOH
PSTAT	PSTAT	IFC5000-01520	Potentiostat
CAPACITY	QUANT	1.00000E-003	Capacity (A-hr)
CELLTYPE	SELECTOR	1	&Cell Type
WORKINGCONNECTION	SELECTOR	0	&Working Lead
MAXCHARGETIME	VARIABLEANDUNITS	1.00000E+002	s	1.00000E+002	second(s)	Max &Charge Time
CHARGECURRENT	QUANT	2.80000E-004	&Charge Current (A) 
VOLTAGEFINISH	TWOPARAM	F	1.00000E-003	3.60000E+003	&Voltage Finish	 I (A) < 	Max Time(s)
SAMPLETIME	QUANT	1.00000E-002	Sa&mple Period (s)
CHARGESTOPAT1	MULTIPARAM	4	1.00000E+000	Charge Stop At &1	Voltage > Limit	V
CHARGESTOPAT2	MULTIPARAM	0	0.00000E+000	Charge Stop At &2	None	N/A
AESBHCSELECTOR	TOGGLE	F	Save Both Half Cells
IRCOMP	TOGGLE	F	IR &Measure
EOC	QUANT	0	Open Circuit (V)
SEQUENCER	TOGGLE	TRUE	Run as Sequence
PSTATMODEL	IQUANT	53	Pstat Model
PSTATSECTION	LABEL	IFC5000-01520	Pstat Section
PSTATSERIALNO	LABEL	01520	Pstat Serial Number
CTRLMODE	IQUANT	0	Control Mode
ELECTROMETER	IQUANT	1	RE=0 or CS=1
IESTAB	IQUANT	0	I/E Stability
CASPEED	IQUANT	4	Control Amp Speed
CONVENTION	IQUANT	1	Current Convention
ICHRANGE	IQUANT	2	Ich Range
ICHRANGEMODE	TOGGLE	T	Ich Auto Range
ICHOFFSETENABLE	TOGGLE	F	Ich Offset Enable
ICHOFFSET	QUANT	0	Ich Offset (V)
ICHFILTER	IQUANT	1	Ich Filter
VCHRANGE	IQUANT	2	Vch Range
VCHRANGEMODE	TOGGLE	T	Vch Auto Range
VCHOFFSETENABLE	TOGGLE	F	Vch Offset Enable
VCHOFFSET	QUANT	0	Vch Offset (V)
VCHFILTER	IQUANT	1	Vch Filter
IERANGELOWERLIMIT	IQUANT	9	I/E Range Lower Limit
IERANGEMODE	TOGGLE	F	I/E AutoRange
IERANGE	IQUANT	9	I/E Range
ACHSELECT	IQUANT	1	Ach Select
ACHRANGE	IQUANT	2	Ach Range
ACHOFFSETENABLE	TOGGLE	F	Ach Offset Enable
ACHOFFSET	QUANT	0	Ach Offset (V)
ACHFILTER	IQUANT	1	Ach Filter
CABLEID	IQUANT	14	Cable ID
DCCALDATE	LABEL	5-7-2017	DC Calibration Date
ACCALDATE	LABEL	12/3/2015	AC Calibration Date
FRAMEWORKVERSION	QUANT	7.01	Framework Version
INSTRUMENTVERSION	LABEL	4.00	Instrument Version
CURVE	TABLE	77
	Pt	T	Vf	Im	Vu	Pwr	Sig	Ach	Temp	IERange	Over
	#	s	V	A	V	W	V	V	deg C	#	bits
	0	0.013333	6.01870E-001	2.81628E-004	0.00000E+000	1.69504E-004	1.68088E-001	6.02172E-001	3.57880E+000	9	...........
	1	0.026667	6.31389E-001	2.81451E-004	0.00000E+000	1.77705E-004	1.68088E-001	6.31671E-001	3.57880E+000	9	...........
	2	0.04	6.56505E-001	2.82365E-004	0.00000E+000	1.85374E-004	1.68088E-001	6.56826E-001	3.57880E+000	9	...........
	3	0.053333	6.78475E-001	2.81019E-004	0.00000E+000	1.90664E-004	1.68088E-001	6.78769E-001	3.57880E+000	9	...........
	4	0.066667	6.97957E-001	2.82342E-004	0.00000E+000	1.97063E-004	1.68088E-001	6.98272E-001	3.57880E+000	9	...........
	5	0.08	7.15528E-001	2.81323E-004	0.00000E+000	2.01295E-004	1.68088E-001	7.15846E-001	3.57880E+000	9	...........
	6	0.093333	7.31472E-001	2.82005E-004	0.00000E+000	2.06278E-004	1.68088E-001	7.31783E-001	3.57880E+000	9	...........
	7	0.106667	7.46011E-001	2.81913E-004	0.00000E+000	2.10310E-004	1.68088E-001	7.46323E-001	3.57880E+000	9	...........
	8	0.12	7.59366E-001	2.80827E-004	0.00000E+000	2.13251E-004	1.68088E-001	7.59676E-001	3.57880E+000	9	...........
	9	0.133333	7.71689E-001	2.81290E-004	0.00000E+000	2.17068E-004	1.68088E-001	7.72002E-001	3.57880E+000	9	...........
	10	0.146667	7.83051E-001	2.81327E-004	0.00000E+000	2.20294E-004	1.68088E-001	7.83352E-001	3.57880E+000	9	...........
	11	0.16	7.93608E-001	2.82018E-004	0.00000E+000	2.23812E-004	1.68088E-001	7.93932E-001	3.57880E+000	9	...........
	12	0.173333	8.03438E-001	2.81338E-004	0.00000E+000	2.26038E-004	1.68088E-001	8.03757E-001	3.57880E+000	9	...........
	13	0.186667	8.12609E-001	2.81215E-004	0.00000E+000	2.28518E-004	1.68088E-001	8.12920E-001	3.57880E+000	9	...........
	14	0.2	8.21234E-001	2.81303E-004	0.00000E+000	2.31016E-004	1.68088E-001	8.21548E-001	3.57880E+000	9	...........
	15	0.213333	8.29230E-001	2.80757E-004	0.00000E+000	2.32813E-004	1.68088E-001	8.29546E-001	3.57880E+000	9	...........
	16	0.226667	8.36802E-001	2.81235E-004	0.00000E+000	2.35338E-004	1.68088E-001	8.37128E-001	3.57880E+000	9	...........
	17	0.24	8.43946E-001	2.81421E-004	0.00000E+000	2.37504E-004	1.68088E-001	8.44275E-001	3.57880E+000	9	...........
	18	0.253333	8.50646E-001	2.81344E-004	0.00000E+000	2.39324E-004	1.68088E-001	8.50957E-001	3.57880E+000	9	...........
	19	0.266667	8.56949E-001	2.80732E-004	0.00000E+000	2.40573E-004	1.68088E-001	8.57288E-001	3.57880E+000	9	...........
	20	0.28	8.62939E-001	2.82198E-004	0.00000E+000	2.43520E-004	1.68088E-001	8.63258E-001	3.57880E+000	9	...........
	21	0.293333	8.68609E-001	2.81687E-004	0.00000E+000	2.44676E-004	1.68088E-001	8.68926E-001	3.57880E+000	9	...........
	22	0.306667	8.74001E-001	2.81209E-004	0.00000E+000	2.45776E-004	1.68088E-001	8.74326E-001	3.57880E+000	9	...........
	23	0.32	8.79108E-001	2.81753E-004	0.00000E+000	2.47692E-004	1.68088E-001	8.79412E-001	3.57880E+000	9	...........
	24	0.333333	8.83949E-001	2.80954E-004	0.00000E+000	2.48349E-004	1.68088E-001	8.84278E-001	3.57880E+000	9	...........
	25	0.346667	8.88526E-001	2.79651E-004	0.00000E+000	2.48477E-004	1.68088E-001	8.88875E-001	3.57880E+000	9	...........
	26	0.36	8.92931E-001	2.80950E-004	0.00000E+000	2.50869E-004	1.68088E-001	8.93283E-001	3.57880E+000	9	...........
	27	0.373333	8.97141E-001	2.80878E-004	0.00000E+000	2.51987E-004	1.68088E-001	8.97500E-001	3.57880E+000	9	...........
	28	0.386667	9.01114E-001	2.79298E-004	0.00000E+000	2.51679E-004	1.68088E-001	9.01489E-001	3.57880E+000	9	...........
	29	0.4	9.04937E-001	2.81255E-004	0.00000E+000	2.54519E-004	1.68088E-001	9.05327E-001	3.57880E+000	9	...........
	30	0.413333	9.08611E-001	2.81246E-004	0.00000E+000	2.55543E-004	1.68088E-001	9.08999E-001	3.57880E+000	9	...........
	31	0.426667	9.12172E-001	2.80614E-004	0.00000E+000	2.55968E-004	1.68088E-001	9.12514E-001	3.57880E+000	9	...........
	32	0.44	9.15576E-001	2.81839E-004	0.00000E+000	2.58045E-004	1.68088E-001	9.15935E-001	3.57820E+000	9	...........
	33	0.453333	9.18846E-001	2.81472E-004	0.00000E+000	2.58630E-004	1.68088E-001	9.19210E-001	3.57820E+000	9	...........
	34	0.466667	9.22047E-001	2.80777E-004	0.00000E+000	2.58890E-004	1.68088E-001	9.22364E-001	3.57820E+000	9	...........
	35	0.48	9.25066E-001	2.80808E-004	0.00000E+000	2.59766E-004	1.68088E-001	9.25372E-001	3.57820E+000	9	...........
	36	0.493333	9.27994E-001	2.80912E-004	0.00000E+000	2.60684E-004	1.68088E-001	9.28319E-001	3.57820E+000	9	...........
	37	0.506667	9.30793E-001	2.81500E-004	0.00000E+000	2.62018E-004	1.68088E-001	9.31110E-001	3.57820E+000	9	...........
	38	0.52	9.33536E-001	2.81563E-004	0.00000E+000	2.62849E-004	1.68088E-001	9.33865E-001	3.57820E+000	9	...........
	39	0.533333	9.36216E-001	2.81152E-004	0.00000E+000	2.63219E-004	1.68088E-001	9.36562E-001	3.57820E+000	9	...........
	40	0.546667	9.38788E-001	2.80913E-004	0.00000E+000	2.63718E-004	1.68088E-001	9.39140E-001	3.57820E+000	9	...........
	41	0.56	9.41276E-001	2.81187E-004	0.00000E+000	2.64674E-004	1.68088E-001	9.41610E-001	3.57820E+000	9	...........
	42	0.573333	9.43666E-001	2.81167E-004	0.00000E+000	2.65328E-004	1.68088E-001	9.44005E-001	3.57820E+000	9	...........
	43	0.586667	9.46041E-001	2.82286E-004	0.00000E+000	2.67054E-004	1.68088E-001	9.46380E-001	3.57820E+000	9	...........
	44	0.6	9.48354E-001	2.81578E-004	0.00000E+000	2.67036E-004	1.68088E-001	9.48683E-001	3.57820E+000	9	...........
	45	0.613333	9.50547E-001	2.80635E-004	0.00000E+000	2.66756E-004	1.68088E-001	9.50874E-001	3.57820E+000	9	...........
	46	0.626667	9.52692E-001	2.81791E-004	0.00000E+000	2.68460E-004	1.68088E-001	9.53021E-001	3.57820E+000	9	...........
	47	0.64	9.54726E-001	2.82245E-004	0.00000E+000	2.69467E-004	1.68088E-001	9.55043E-001	3.57820E+000	9	...........
	48	0.653333	9.56736E-001	2.81330E-004	0.00000E+000	2.69159E-004	1.68088E-001	9.57071E-001	3.57820E+000	9	...........
	49	0.666667	9.58727E-001	2.80925E-004	0.00000E+000	2.69331E-004	1.68088E-001	9.59083E-001	3.57820E+000	9	...........
	50	0.68	9.60670E-001	2.81860E-004	0.00000E+000	2.70774E-004	1.68088E-001	9.61035E-001	3.57820E+000	9	...........
	51	0.693333	9.62535E-001	2.80185E-004	0.00000E+000	2.69688E-004	1.68088E-001	9.62928E-001	3.57820E+000	9	...........
	52	0.706667	9.64393E-001	2.81601E-004	0.00000E+000	2.71574E-004	1.68088E-001	9.64790E-001	3.57820E+000	9	...........
	53	0.72	9.66227E-001	2.82167E-004	0.00000E+000	2.72638E-004	1.68088E-001	9.66604E-001	3.57820E+000	9	...........
	54	0.733333	9.67997E-001	2.80671E-004	0.00000E+000	2.71689E-004	1.68088E-001	9.68353E-001	3.57820E+000	9	...........
	55	0.746667	9.69744E-001	2.80084E-004	0.00000E+000	2.71610E-004	1.68088E-001	9.70133E-001	3.57820E+000	9	...........
	56	0.76	9.71472E-001	2.80469E-004	0.00000E+000	2.72468E-004	1.68088E-001	9.71866E-001	3.57820E+000	9	...........
	57	0.773333	9.73247E-001	2.81680E-004	0.00000E+000	2.74144E-004	1.68088E-001	9.73605E-001	3.57820E+000	9	...........
	58	0.786667	9.74923E-001	2.80513E-004	0.00000E+000	2.73478E-004	1.68088E-001	9.75284E-001	3.57820E+000	9	...........
	59	0.8	9.76536E-001	2.80458E-004	0.00000E+000	2.73878E-004	1.68088E-001	9.76925E-001	3.57820E+000	9	...........
	60	0.813333	9.78137E-001	2.80802E-004	0.00000E+000	2.74663E-004	1.68088E-001	9.78515E-001	3.57820E+000	9	...........
	61	0.826667	9.79692E-001	2.81051E-004	0.00000E+000	2.75344E-004	1.68088E-001	9.80055E-001	3.57820E+000	9	...........
	62	0.84	9.81239E-001	2.80865E-004	0.00000E+000	2.75595E-004	1.68088E-001	9.81604E-001	3.57820E+000	9	...........
	63	0.853333	9.82763E-001	2.80788E-004	0.00000E+000	2.75948E-004	1.68088E-001	9.83112E-001	3.57820E+000	9	...........
	64	0.866667	9.84243E-001	2.80856E-004	0.00000E+000	2.76431E-004	1.68088E-001	9.84582E-001	3.57820E+000	9	...........
	65	0.88	9.85744E-001	2.80913E-004	0.00000E+000	2.76908E-004	1.68088E-001	9.86076E-001	3.57820E+000	9	...........
	66	0.893333	9.87180E-001	2.81041E-004	0.00000E+000	2.77438E-004	1.68088E-001	9.87551E-001	3.57820E+000	9	...........
	67	0.906667	9.88627E-001	2.81030E-004	0.00000E+000	2.77834E-004	1.68088E-001	9.88971E-001	3.57820E+000	9	...........
	68	0.92	9.90045E-001	2.81527E-004	0.00000E+000	2.78725E-004	1.68088E-001	9.90411E-001	3.57820E+000	9	...........
	69	0.933333	9.91415E-001	2.81122E-004	0.00000E+000	2.78709E-004	1.68088E-001	9.91779E-001	3.57820E+000	9	...........
	70	0.946667	9.92763E-001	2.81971E-004	0.00000E+000	2.79931E-004	1.68088E-001	9.93129E-001	3.57820E+000	9	...........
	71	0.96	9.94094E-001	2.82080E-004	0.00000E+000	2.80414E-004	1.68088E-001	9.94436E-001	3.57820E+000	9	...........
	72	0.97333	9.95411E-001	2.80982E-004	0.00000E+000	2.79693E-004	1.68088E-001	9.95746E-001	3.57820E+000	9	...........
	73	0.98667	9.96721E-001	2.81628E-004	0.00000E+000	2.80705E-004	1.68088E-001	9.97074E-001	3.57820E+000	9	...........
	74	1	9.98035E-001	2.81290E-004	0.00000E+000	2.80737E-004	1.68088E-001	9.98389E-001	3.57820E+000	9	...........
	75	1.01333	9.99327E-001	2.81377E-004	0.00000E+000	2.81188E-004	1.68088E-001	9.99682E-001	3.57820E+000	9	...........
	76	1.015	1.00004E+000	2.80502E-004	0.00000E+000	2.80512E-004	1.68088E-001	1.00039E+000	3.57820E+000	9	...........
STARTTIMEOFFSET	QUANT	1199.276	Start Time Offset (s)
