EXPLAIN
TAG	PWR800_CHARGE
TITLE	LABEL	PWR Cyclic Charge Discharge (Cell) - Charge Step	Test &Identifier
DATE	LABEL	7-7-2017	Date
TIME	LABEL	16:17:36	Time
NOTES	NOTES	3	&Notes...
	supercap test cell
	2.8mg
	6M KOH
PSTAT	PSTAT	IFC5000-01520	Potentiostat
CAPACITY	QUANT	1.00000E-003	Capacity (A-hr)
CELLTYPE	SELECTOR	1	&Cell Type
WORKINGCONNECTION	SELECTOR	0	&Working Lead
MAXCHARGETIME	VARIABLEANDUNITS	1.00000E+002	s	1.00000E+002	second(s)	Max &Charge Time
CHARGECURRENT	QUANT	2.80000E-004	&Charge Current (A) 
VOLTAGEFINISH	TWOPARAM	F	1.00000E-003	3.60000E+003	&Voltage Finish	 I (A) < 	Max Time(s)
SAMPLETIME	QUANT	1.00000E-002	Sa&mple Period (s)
CHARGESTOPAT1	MULTIPARAM	4	1.00000E+000	Charge Stop At &1	Voltage > Limit	V
CHARGESTOPAT2	MULTIPARAM	0	0.00000E+000	Charge Stop At &2	None	N/A
AESBHCSELECTOR	TOGGLE	F	Save Both Half Cells
IRCOMP	TOGGLE	F	IR &Measure
EOC	QUANT	0	Open Circuit (V)
SEQUENCER	TOGGLE	TRUE	Run as Sequence
PSTATMODEL	IQUANT	53	Pstat Model
PSTATSECTION	LABEL	IFC5000-01520	Pstat Section
PSTATSERIALNO	LABEL	01520	Pstat Serial Number
CTRLMODE	IQUANT	0	Control Mode
ELECTROMETER	IQUANT	1	RE=0 or CS=1
IESTAB	IQUANT	0	I/E Stability
CASPEED	IQUANT	4	Control Amp Speed
CONVENTION	IQUANT	1	Current Convention
ICHRANGE	IQUANT	2	Ich Range
ICHRANGEMODE	TOGGLE	T	Ich Auto Range
ICHOFFSETENABLE	TOGGLE	F	Ich Offset Enable
ICHOFFSET	QUANT	0	Ich Offset (V)
ICHFILTER	IQUANT	1	Ich Filter
VCHRANGE	IQUANT	2	Vch Range
VCHRANGEMODE	TOGGLE	T	Vch Auto Range
VCHOFFSETENABLE	TOGGLE	F	Vch Offset Enable
VCHOFFSET	QUANT	0	Vch Offset (V)
VCHFILTER	IQUANT	1	Vch Filter
IERANGELOWERLIMIT	IQUANT	9	I/E Range Lower Limit
IERANGEMODE	TOGGLE	F	I/E AutoRange
IERANGE	IQUANT	9	I/E Range
ACHSELECT	IQUANT	1	Ach Select
ACHRANGE	IQUANT	2	Ach Range
ACHOFFSETENABLE	TOGGLE	F	Ach Offset Enable
ACHOFFSET	QUANT	0	Ach Offset (V)
ACHFILTER	IQUANT	1	Ach Filter
CABLEID	IQUANT	14	Cable ID
DCCALDATE	LABEL	5-7-2017	DC Calibration Date
ACCALDATE	LABEL	12/3/2015	AC Calibration Date
FRAMEWORKVERSION	QUANT	7.01	Framework Version
INSTRUMENTVERSION	LABEL	4.00	Instrument Version
CURVE	TABLE	61
	Pt	T	Vf	Im	Vu	Pwr	Sig	Ach	Temp	IERange	Over
	#	s	V	A	V	W	V	V	deg C	#	bits
	0	0.013333	6.09773E-001	2.81714E-004	0.00000E+000	1.71782E-004	1.68088E-001	6.10033E-001	3.57880E+000	9	...........
	1	0.026667	6.40034E-001	2.80858E-004	0.00000E+000	1.79759E-004	1.68088E-001	6.40286E-001	3.57880E+000	9	...........
	2	0.04	6.66035E-001	2.81243E-004	0.00000E+000	1.87318E-004	1.68088E-001	6.66277E-001	3.57880E+000	9	...........
	3	0.053333	6.88914E-001	2.81943E-004	0.00000E+000	1.94234E-004	1.68088E-001	6.89168E-001	3.57880E+000	9	...........
	4	0.066667	7.09356E-001	2.80019E-004	0.00000E+000	1.98633E-004	1.68088E-001	7.09623E-001	3.57880E+000	9	...........
	5	0.08	7.27854E-001	2.81339E-004	0.00000E+000	2.04774E-004	1.68088E-001	7.28111E-001	3.57880E+000	9	...........
	6	0.093333	7.44665E-001	2.80901E-004	0.00000E+000	2.09177E-004	1.68088E-001	7.44900E-001	3.57880E+000	9	...........
	7	0.106667	7.60042E-001	2.80584E-004	0.00000E+000	2.13256E-004	1.68088E-001	7.60280E-001	3.57880E+000	9	...........
	8	0.12	7.74163E-001	2.80430E-004	0.00000E+000	2.17099E-004	1.68088E-001	7.74450E-001	3.57880E+000	9	...........
	9	0.133333	7.87230E-001	2.82364E-004	0.00000E+000	2.22285E-004	1.68088E-001	7.87457E-001	3.57880E+000	9	...........
	10	0.146667	7.99298E-001	2.79651E-004	0.00000E+000	2.23524E-004	1.68088E-001	7.99525E-001	3.57880E+000	9	...........
	11	0.16	8.10477E-001	2.80521E-004	0.00000E+000	2.27356E-004	1.68088E-001	8.10742E-001	3.57880E+000	9	...........
	12	0.173333	8.20937E-001	2.81687E-004	0.00000E+000	2.31247E-004	1.68088E-001	8.21223E-001	3.57880E+000	9	...........
	13	0.186667	8.30695E-001	2.81076E-004	0.00000E+000	2.33489E-004	1.68088E-001	8.30952E-001	3.57880E+000	9	...........
	14	0.2	8.39757E-001	2.80234E-004	0.00000E+000	2.35329E-004	1.68088E-001	8.40059E-001	3.57880E+000	9	...........
	15	0.213333	8.48275E-001	2.82538E-004	0.00000E+000	2.39670E-004	1.68088E-001	8.48609E-001	3.57880E+000	9	...........
	16	0.226667	8.56238E-001	2.80674E-004	0.00000E+000	2.40324E-004	1.68088E-001	8.56573E-001	3.57880E+000	9	...........
	17	0.24	8.63743E-001	2.79711E-004	0.00000E+000	2.41599E-004	1.68088E-001	8.64066E-001	3.57880E+000	9	...........
	18	0.253333	8.70803E-001	2.81089E-004	0.00000E+000	2.44773E-004	1.68088E-001	8.71119E-001	3.57880E+000	9	...........
	19	0.266667	8.77412E-001	2.81060E-004	0.00000E+000	2.46605E-004	1.68088E-001	8.77749E-001	3.57880E+000	9	...........
	20	0.28	8.83661E-001	2.80783E-004	0.00000E+000	2.48117E-004	1.68088E-001	8.84014E-001	3.57880E+000	9	...........
	21	0.293333	8.89571E-001	2.81576E-004	0.00000E+000	2.50482E-004	1.68088E-001	8.89898E-001	3.57880E+000	9	...........
	22	0.306667	8.95146E-001	2.80945E-004	0.00000E+000	2.51487E-004	1.68088E-001	8.95498E-001	3.57880E+000	9	...........
	23	0.32	9.00393E-001	2.82222E-004	0.00000E+000	2.54111E-004	1.68088E-001	9.00733E-001	3.57880E+000	9	...........
	24	0.333333	9.05367E-001	2.83106E-004	0.00000E+000	2.56315E-004	1.68088E-001	9.05697E-001	3.57880E+000	9	...........
	25	0.346667	9.10109E-001	2.81615E-004	0.00000E+000	2.56300E-004	1.68088E-001	9.10450E-001	3.57880E+000	9	...........
	26	0.36	9.14636E-001	2.80561E-004	0.00000E+000	2.56611E-004	1.68088E-001	9.14964E-001	3.57880E+000	9	...........
	27	0.373333	9.18929E-001	2.81095E-004	0.00000E+000	2.58306E-004	1.68088E-001	9.19250E-001	3.57880E+000	9	...........
	28	0.386667	9.23066E-001	2.80924E-004	0.00000E+000	2.59312E-004	1.68088E-001	9.23337E-001	3.57880E+000	9	...........
	29	0.4	9.26959E-001	2.80445E-004	0.00000E+000	2.59961E-004	1.68088E-001	9.27264E-001	3.57880E+000	9	...........
	30	0.413333	9.30684E-001	2.80918E-004	0.00000E+000	2.61446E-004	1.68088E-001	9.30988E-001	3.57880E+000	9	...........
	31	0.426667	9.34255E-001	2.81187E-004	0.00000E+000	2.62700E-004	1.68088E-001	9.34544E-001	3.57880E+000	9	...........
	32	0.44	9.37668E-001	2.81284E-004	0.00000E+000	2.63751E-004	1.68088E-001	9.37943E-001	3.57880E+000	9	...........
	33	0.453333	9.40928E-001	2.80965E-004	0.00000E+000	2.64368E-004	1.68088E-001	9.41214E-001	3.57880E+000	9	...........
	34	0.466667	9.44047E-001	2.81466E-004	0.00000E+000	2.65717E-004	1.68088E-001	9.44349E-001	3.57880E+000	9	...........
	35	0.48	9.47128E-001	2.81524E-004	0.00000E+000	2.66639E-004	1.68088E-001	9.47419E-001	3.57880E+000	9	...........
	36	0.493333	9.50038E-001	2.80163E-004	0.00000E+000	2.66165E-004	1.68088E-001	9.50346E-001	3.57880E+000	9	...........
	37	0.506667	9.52916E-001	2.80872E-004	0.00000E+000	2.67647E-004	1.68088E-001	9.53205E-001	3.57880E+000	9	...........
	38	0.52	9.55631E-001	2.81698E-004	0.00000E+000	2.69200E-004	1.68088E-001	9.55931E-001	3.57880E+000	9	...........
	39	0.533333	9.58232E-001	2.81488E-004	0.00000E+000	2.69731E-004	1.68088E-001	9.58576E-001	3.57880E+000	9	...........
	40	0.546667	9.60804E-001	2.82006E-004	0.00000E+000	2.70952E-004	1.68088E-001	9.61149E-001	3.57880E+000	9	...........
	41	0.56	9.63272E-001	2.82136E-004	0.00000E+000	2.71774E-004	1.68088E-001	9.63605E-001	3.57880E+000	9	...........
	42	0.573333	9.65651E-001	2.81829E-004	0.00000E+000	2.72148E-004	1.68088E-001	9.66003E-001	3.57880E+000	9	...........
	43	0.586667	9.67943E-001	2.80793E-004	0.00000E+000	2.71791E-004	1.68088E-001	9.68301E-001	3.57880E+000	9	...........
	44	0.6	9.70165E-001	2.80942E-004	0.00000E+000	2.72560E-004	1.68088E-001	9.70543E-001	3.57880E+000	9	...........
	45	0.613333	9.72373E-001	2.81557E-004	0.00000E+000	2.73778E-004	1.68088E-001	9.72768E-001	3.57880E+000	9	...........
	46	0.626667	9.74535E-001	2.82681E-004	0.00000E+000	2.75482E-004	1.68088E-001	9.74868E-001	3.57880E+000	9	...........
	47	0.64	9.76562E-001	2.81401E-004	0.00000E+000	2.74806E-004	1.68088E-001	9.76908E-001	3.57880E+000	9	...........
	48	0.653333	9.78574E-001	2.81329E-004	0.00000E+000	2.75302E-004	1.68088E-001	9.78926E-001	3.57880E+000	9	...........
	49	0.666667	9.80531E-001	2.81527E-004	0.00000E+000	2.76046E-004	1.68088E-001	9.80884E-001	3.57880E+000	9	...........
	50	0.68	9.82407E-001	2.81061E-004	0.00000E+000	2.76116E-004	1.68088E-001	9.82749E-001	3.57880E+000	9	...........
	51	0.693333	9.84268E-001	2.81799E-004	0.00000E+000	2.77366E-004	1.68088E-001	9.84620E-001	3.57880E+000	9	...........
	52	0.706667	9.86116E-001	2.81094E-004	0.00000E+000	2.77191E-004	1.68088E-001	9.86464E-001	3.57880E+000	9	...........
	53	0.72	9.87930E-001	2.80628E-004	0.00000E+000	2.77241E-004	1.68088E-001	9.88261E-001	3.57880E+000	9	...........
	54	0.733333	9.89646E-001	2.80445E-004	0.00000E+000	2.77541E-004	1.68088E-001	9.89969E-001	3.57880E+000	9	...........
	55	0.746667	9.91302E-001	2.80906E-004	0.00000E+000	2.78463E-004	1.68088E-001	9.91629E-001	3.57880E+000	9	...........
	56	0.76	9.92961E-001	2.80465E-004	0.00000E+000	2.78490E-004	1.68088E-001	9.93296E-001	3.57880E+000	9	...........
	57	0.773333	9.94618E-001	2.81095E-004	0.00000E+000	2.79582E-004	1.68088E-001	9.94969E-001	3.57880E+000	9	...........
	58	0.786667	9.96206E-001	2.80811E-004	0.00000E+000	2.79745E-004	1.68088E-001	9.96565E-001	3.57880E+000	9	...........
	59	0.8	9.97830E-001	2.80855E-004	0.00000E+000	2.80246E-004	1.68088E-001	9.98172E-001	3.57880E+000	9	...........
	60	0.813333	9.99345E-001	2.80705E-004	0.00000E+000	2.80521E-004	1.68088E-001	9.99724E-001	3.57880E+000	9	...........
STARTTIMEOFFSET	QUANT	1828.541	Start Time Offset (s)
