EXPLAIN
TAG	PWR800_CHARGE
TITLE	LABEL	PWR Cyclic Charge Discharge (Cell) - Charge Step	Test &Identifier
DATE	LABEL	7-7-2017	Date
TIME	LABEL	15:37:14	Time
NOTES	NOTES	3	&Notes...
	supercap test cell
	2.8mg
	6M KOH
PSTAT	PSTAT	IFC5000-01520	Potentiostat
CAPACITY	QUANT	1.00000E-003	Capacity (A-hr)
CELLTYPE	SELECTOR	1	&Cell Type
WORKINGCONNECTION	SELECTOR	0	&Working Lead
MAXCHARGETIME	VARIABLEANDUNITS	1.00000E+002	s	1.00000E+002	second(s)	Max &Charge Time
CHARGECURRENT	QUANT	2.80000E-004	&Charge Current (A) 
VOLTAGEFINISH	TWOPARAM	F	1.00000E-003	3.60000E+003	&Voltage Finish	 I (A) < 	Max Time(s)
SAMPLETIME	QUANT	1.00000E-002	Sa&mple Period (s)
CHARGESTOPAT1	MULTIPARAM	4	1.00000E+000	Charge Stop At &1	Voltage > Limit	V
CHARGESTOPAT2	MULTIPARAM	0	0.00000E+000	Charge Stop At &2	None	N/A
AESBHCSELECTOR	TOGGLE	F	Save Both Half Cells
IRCOMP	TOGGLE	F	IR &Measure
EOC	QUANT	0	Open Circuit (V)
SEQUENCER	TOGGLE	TRUE	Run as Sequence
PSTATMODEL	IQUANT	53	Pstat Model
PSTATSECTION	LABEL	IFC5000-01520	Pstat Section
PSTATSERIALNO	LABEL	01520	Pstat Serial Number
CTRLMODE	IQUANT	0	Control Mode
ELECTROMETER	IQUANT	1	RE=0 or CS=1
IESTAB	IQUANT	0	I/E Stability
CASPEED	IQUANT	4	Control Amp Speed
CONVENTION	IQUANT	1	Current Convention
ICHRANGE	IQUANT	2	Ich Range
ICHRANGEMODE	TOGGLE	T	Ich Auto Range
ICHOFFSETENABLE	TOGGLE	F	Ich Offset Enable
ICHOFFSET	QUANT	0	Ich Offset (V)
ICHFILTER	IQUANT	1	Ich Filter
VCHRANGE	IQUANT	2	Vch Range
VCHRANGEMODE	TOGGLE	T	Vch Auto Range
VCHOFFSETENABLE	TOGGLE	F	Vch Offset Enable
VCHOFFSET	QUANT	0	Vch Offset (V)
VCHFILTER	IQUANT	1	Vch Filter
IERANGELOWERLIMIT	IQUANT	9	I/E Range Lower Limit
IERANGEMODE	TOGGLE	F	I/E AutoRange
IERANGE	IQUANT	9	I/E Range
ACHSELECT	IQUANT	1	Ach Select
ACHRANGE	IQUANT	2	Ach Range
ACHOFFSETENABLE	TOGGLE	F	Ach Offset Enable
ACHOFFSET	QUANT	0	Ach Offset (V)
ACHFILTER	IQUANT	1	Ach Filter
CABLEID	IQUANT	14	Cable ID
DCCALDATE	LABEL	5-7-2017	DC Calibration Date
ACCALDATE	LABEL	12/3/2015	AC Calibration Date
FRAMEWORKVERSION	QUANT	7.01	Framework Version
INSTRUMENTVERSION	LABEL	4.00	Instrument Version
CURVE	TABLE	201
	Pt	T	Vf	Im	Vu	Pwr	Sig	Ach	Temp	IERange	Over
	#	s	V	A	V	W	V	V	deg C	#	bits
	0	0.013333	5.47618E-001	2.81612E-004	0.00000E+000	1.54216E-004	1.68088E-001	5.47891E-001	3.57850E+000	9	...........
	1	0.026667	5.74381E-001	2.81080E-004	0.00000E+000	1.61447E-004	1.68088E-001	5.74661E-001	3.57850E+000	9	...........
	2	0.04	5.96488E-001	2.81376E-004	0.00000E+000	1.67838E-004	1.68088E-001	5.96786E-001	3.57850E+000	9	...........
	3	0.053333	6.15331E-001	2.81364E-004	0.00000E+000	1.73132E-004	1.68088E-001	6.15609E-001	3.57850E+000	9	...........
	4	0.066667	6.31654E-001	2.81610E-004	0.00000E+000	1.77880E-004	1.68088E-001	6.31959E-001	3.57850E+000	9	...........
	5	0.08	6.46064E-001	2.81474E-004	0.00000E+000	1.81850E-004	1.68088E-001	6.46366E-001	3.57850E+000	9	...........
	6	0.093333	6.58921E-001	2.81337E-004	0.00000E+000	1.85379E-004	1.68088E-001	6.59217E-001	3.57850E+000	9	...........
	7	0.106667	6.70479E-001	2.80963E-004	0.00000E+000	1.88380E-004	1.68088E-001	6.70775E-001	3.57850E+000	9	...........
	8	0.12	6.80988E-001	2.81301E-004	0.00000E+000	1.91563E-004	1.68088E-001	6.81258E-001	3.57850E+000	9	...........
	9	0.133333	6.90549E-001	2.81156E-004	0.00000E+000	1.94152E-004	1.68088E-001	6.90828E-001	3.57850E+000	9	...........
	10	0.146667	6.99361E-001	2.81382E-004	0.00000E+000	1.96787E-004	1.68088E-001	6.99656E-001	3.57850E+000	9	...........
	11	0.16	7.07477E-001	2.80800E-004	0.00000E+000	1.98660E-004	1.68088E-001	7.07788E-001	3.57850E+000	9	...........
	12	0.173333	7.15077E-001	2.81460E-004	0.00000E+000	2.01265E-004	1.68088E-001	7.15345E-001	3.57850E+000	9	...........
	13	0.186667	7.22158E-001	2.81364E-004	0.00000E+000	2.03189E-004	1.68088E-001	7.22401E-001	3.57850E+000	9	...........
	14	0.2	7.28752E-001	2.81631E-004	0.00000E+000	2.05239E-004	1.68088E-001	7.29018E-001	3.57850E+000	9	...........
	15	0.213333	7.34923E-001	2.80742E-004	0.00000E+000	2.06324E-004	1.68088E-001	7.35164E-001	3.57850E+000	9	...........
	16	0.226667	7.40731E-001	2.81502E-004	0.00000E+000	2.08518E-004	1.68088E-001	7.41038E-001	3.57850E+000	9	...........
	17	0.24	7.46282E-001	2.81051E-004	0.00000E+000	2.09744E-004	1.68088E-001	7.46538E-001	3.57850E+000	9	...........
	18	0.253333	7.51474E-001	2.80309E-004	0.00000E+000	2.10645E-004	1.68088E-001	7.51735E-001	3.57850E+000	9	...........
	19	0.266667	7.56481E-001	2.81551E-004	0.00000E+000	2.12988E-004	1.68088E-001	7.56736E-001	3.57850E+000	9	...........
	20	0.28	7.61219E-001	2.81693E-004	0.00000E+000	2.14430E-004	1.68088E-001	7.61464E-001	3.57850E+000	9	...........
	21	0.293333	7.65763E-001	2.81167E-004	0.00000E+000	2.15307E-004	1.68088E-001	7.66050E-001	3.57850E+000	9	...........
	22	0.306667	7.70100E-001	2.81117E-004	0.00000E+000	2.16488E-004	1.68088E-001	7.70396E-001	3.57850E+000	9	...........
	23	0.32	7.74220E-001	2.81365E-004	0.00000E+000	2.17838E-004	1.68088E-001	7.74521E-001	3.57850E+000	9	...........
	24	0.333333	7.78173E-001	2.80733E-004	0.00000E+000	2.18459E-004	1.68088E-001	7.78441E-001	3.57850E+000	9	...........
	25	0.346667	7.81985E-001	2.80693E-004	0.00000E+000	2.19498E-004	1.68088E-001	7.82237E-001	3.57850E+000	9	...........
	26	0.36	7.85592E-001	2.81000E-004	0.00000E+000	2.20751E-004	1.68088E-001	7.85830E-001	3.57850E+000	9	...........
	27	0.373333	7.89088E-001	2.82074E-004	0.00000E+000	2.22582E-004	1.68088E-001	7.89361E-001	3.57850E+000	9	...........
	28	0.386667	7.92537E-001	2.80879E-004	0.00000E+000	2.22607E-004	1.68088E-001	7.92804E-001	3.57850E+000	9	...........
	29	0.4	7.95827E-001	2.81151E-004	0.00000E+000	2.23748E-004	1.68088E-001	7.96107E-001	3.57850E+000	9	...........
	30	0.413333	7.98989E-001	2.81374E-004	0.00000E+000	2.24815E-004	1.68088E-001	7.99266E-001	3.57850E+000	9	...........
	31	0.426667	8.02059E-001	2.80943E-004	0.00000E+000	2.25333E-004	1.68088E-001	8.02351E-001	3.57850E+000	9	...........
	32	0.44	8.05015E-001	2.81269E-004	0.00000E+000	2.26426E-004	1.68088E-001	8.05353E-001	3.57850E+000	9	...........
	33	0.453333	8.07898E-001	2.81130E-004	0.00000E+000	2.27125E-004	1.68088E-001	8.08217E-001	3.57850E+000	9	...........
	34	0.466667	8.10670E-001	2.80939E-004	0.00000E+000	2.27749E-004	1.68088E-001	8.10976E-001	3.57850E+000	9	...........
	35	0.48	8.13395E-001	2.81732E-004	0.00000E+000	2.29159E-004	1.68088E-001	8.13690E-001	3.57850E+000	9	...........
	36	0.493333	8.16024E-001	2.81514E-004	0.00000E+000	2.29722E-004	1.68088E-001	8.16351E-001	3.57850E+000	9	...........
	37	0.506667	8.18650E-001	2.81002E-004	0.00000E+000	2.30043E-004	1.68088E-001	8.18947E-001	3.57850E+000	9	...........
	38	0.52	8.21216E-001	2.81243E-004	0.00000E+000	2.30961E-004	1.68088E-001	8.21497E-001	3.57850E+000	9	...........
	39	0.533333	8.23671E-001	2.81672E-004	0.00000E+000	2.32005E-004	1.68088E-001	8.23988E-001	3.57850E+000	9	...........
	40	0.546667	8.26079E-001	2.81319E-004	0.00000E+000	2.32392E-004	1.68088E-001	8.26377E-001	3.57850E+000	9	...........
	41	0.56	8.28408E-001	2.81711E-004	0.00000E+000	2.33371E-004	1.68088E-001	8.28728E-001	3.57850E+000	9	...........
	42	0.573333	8.30722E-001	2.80903E-004	0.00000E+000	2.33353E-004	1.68088E-001	8.31060E-001	3.57850E+000	9	...........
	43	0.586667	8.32978E-001	2.81757E-004	0.00000E+000	2.34697E-004	1.68088E-001	8.33330E-001	3.57850E+000	9	...........
	44	0.6	8.35199E-001	2.82060E-004	0.00000E+000	2.35576E-004	1.68088E-001	8.35573E-001	3.57850E+000	9	...........
	45	0.613333	8.37355E-001	2.81186E-004	0.00000E+000	2.35452E-004	1.68088E-001	8.37697E-001	3.57850E+000	9	...........
	46	0.626667	8.39447E-001	2.80830E-004	0.00000E+000	2.35742E-004	1.68088E-001	8.39737E-001	3.57850E+000	9	...........
	47	0.64	8.41541E-001	2.80807E-004	0.00000E+000	2.36311E-004	1.68088E-001	8.41843E-001	3.57850E+000	9	...........
	48	0.653333	8.43594E-001	2.81455E-004	0.00000E+000	2.37434E-004	1.68088E-001	8.43941E-001	3.57850E+000	9	...........
	49	0.666667	8.45641E-001	2.81176E-004	0.00000E+000	2.37774E-004	1.68088E-001	8.45982E-001	3.57850E+000	9	...........
	50	0.68	8.47642E-001	2.81126E-004	0.00000E+000	2.38294E-004	1.68088E-001	8.48006E-001	3.57850E+000	9	...........
	51	0.693333	8.49562E-001	2.81558E-004	0.00000E+000	2.39201E-004	1.68088E-001	8.49912E-001	3.57850E+000	9	...........
	52	0.706667	8.51441E-001	2.81013E-004	0.00000E+000	2.39266E-004	1.68088E-001	8.51801E-001	3.57850E+000	9	...........
	53	0.72	8.53253E-001	2.80776E-004	0.00000E+000	2.39573E-004	1.68088E-001	8.53608E-001	3.57850E+000	9	...........
	54	0.733333	8.55086E-001	2.81414E-004	0.00000E+000	2.40633E-004	1.68088E-001	8.55429E-001	3.57850E+000	9	...........
	55	0.746667	8.56913E-001	2.81072E-004	0.00000E+000	2.40854E-004	1.68088E-001	8.57278E-001	3.57917E+000	9	...........
	56	0.76	8.58660E-001	2.81294E-004	0.00000E+000	2.41536E-004	1.68088E-001	8.59036E-001	3.57940E+000	9	...........
	57	0.773333	8.60429E-001	2.81425E-004	0.00000E+000	2.42147E-004	1.68088E-001	8.60783E-001	3.57940E+000	9	...........
	58	0.786667	8.62148E-001	2.81528E-004	0.00000E+000	2.42719E-004	1.68088E-001	8.62513E-001	3.57940E+000	9	...........
	59	0.8	8.63811E-001	2.80911E-004	0.00000E+000	2.42654E-004	1.68088E-001	8.64176E-001	3.57940E+000	9	...........
	60	0.813333	8.65471E-001	2.81464E-004	0.00000E+000	2.43599E-004	1.68088E-001	8.65836E-001	3.57940E+000	9	...........
	61	0.826667	8.67119E-001	2.80717E-004	0.00000E+000	2.43415E-004	1.68088E-001	8.67467E-001	3.57940E+000	9	...........
	62	0.84	8.68698E-001	2.81601E-004	0.00000E+000	2.44626E-004	1.68088E-001	8.69057E-001	3.57940E+000	9	...........
	63	0.853333	8.70281E-001	2.82092E-004	0.00000E+000	2.45499E-004	1.68088E-001	8.70617E-001	3.57940E+000	9	...........
	64	0.866667	8.71846E-001	2.81244E-004	0.00000E+000	2.45202E-004	1.68088E-001	8.72174E-001	3.57940E+000	9	...........
	65	0.88	8.73425E-001	2.81335E-004	0.00000E+000	2.45725E-004	1.68088E-001	8.73746E-001	3.57940E+000	9	...........
	66	0.893333	8.74939E-001	2.81427E-004	0.00000E+000	2.46232E-004	1.68088E-001	8.75296E-001	3.57940E+000	9	...........
	67	0.906667	8.76482E-001	2.80791E-004	0.00000E+000	2.46108E-004	1.68088E-001	8.76813E-001	3.57940E+000	9	...........
	68	0.92	8.78002E-001	2.80464E-004	0.00000E+000	2.46248E-004	1.68088E-001	8.78339E-001	3.57940E+000	9	...........
	69	0.933333	8.79525E-001	2.80987E-004	0.00000E+000	2.47135E-004	1.68088E-001	8.79864E-001	3.57940E+000	9	...........
	70	0.946667	8.80961E-001	2.80854E-004	0.00000E+000	2.47422E-004	1.68088E-001	8.81316E-001	3.57940E+000	9	...........
	71	0.96	8.82386E-001	2.81655E-004	0.00000E+000	2.48528E-004	1.68088E-001	8.82740E-001	3.57940E+000	9	...........
	72	0.97333	8.83814E-001	2.81038E-004	0.00000E+000	2.48385E-004	1.68088E-001	8.84127E-001	3.57940E+000	9	...........
	73	0.98667	8.85194E-001	2.81021E-004	0.00000E+000	2.48758E-004	1.68088E-001	8.85524E-001	3.57940E+000	9	...........
	74	1	8.86615E-001	2.82037E-004	0.00000E+000	2.50058E-004	1.68088E-001	8.86958E-001	3.57940E+000	9	...........
	75	1.01333	8.88036E-001	2.81196E-004	0.00000E+000	2.49712E-004	1.68088E-001	8.88374E-001	3.57940E+000	9	...........
	76	1.02667	8.89368E-001	2.80840E-004	0.00000E+000	2.49770E-004	1.68088E-001	8.89718E-001	3.57940E+000	9	...........
	77	1.04	8.90739E-001	2.81583E-004	0.00000E+000	2.50817E-004	1.68088E-001	8.91097E-001	3.57940E+000	9	...........
	78	1.05333	8.92120E-001	2.80799E-004	0.00000E+000	2.50506E-004	1.68088E-001	8.92467E-001	3.57940E+000	9	...........
	79	1.06667	8.93478E-001	2.81436E-004	0.00000E+000	2.51457E-004	1.68088E-001	8.93845E-001	3.57940E+000	9	...........
	80	1.08	8.94801E-001	2.80961E-004	0.00000E+000	2.51404E-004	1.68088E-001	8.95205E-001	3.57940E+000	9	...........
	81	1.09333	8.96173E-001	2.81476E-004	0.00000E+000	2.52251E-004	1.68088E-001	8.96538E-001	3.57940E+000	9	...........
	82	1.10667	8.97437E-001	2.80955E-004	0.00000E+000	2.52140E-004	1.68088E-001	8.97807E-001	3.57940E+000	9	...........
	83	1.12	8.98714E-001	2.80863E-004	0.00000E+000	2.52415E-004	1.68088E-001	8.99069E-001	3.57940E+000	9	...........
	84	1.13333	8.99988E-001	2.81569E-004	0.00000E+000	2.53409E-004	1.68088E-001	9.00363E-001	3.57940E+000	9	...........
	85	1.14667	9.01260E-001	2.81432E-004	0.00000E+000	2.53643E-004	1.68088E-001	9.01648E-001	3.57940E+000	9	...........
	86	1.16	9.02516E-001	2.80825E-004	0.00000E+000	2.53449E-004	1.68088E-001	9.02897E-001	3.57940E+000	9	...........
	87	1.17333	9.03724E-001	2.81371E-004	0.00000E+000	2.54282E-004	1.68088E-001	9.04099E-001	3.57940E+000	9	...........
	88	1.18667	9.04916E-001	2.81680E-004	0.00000E+000	2.54896E-004	1.68088E-001	9.05279E-001	3.57940E+000	9	...........
	89	1.2	9.06110E-001	2.82024E-004	0.00000E+000	2.55545E-004	1.68088E-001	9.06484E-001	3.57940E+000	9	...........
	90	1.21333	9.07283E-001	2.81519E-004	0.00000E+000	2.55417E-004	1.68088E-001	9.07688E-001	3.57940E+000	9	...........
	91	1.22667	9.08500E-001	2.81002E-004	0.00000E+000	2.55291E-004	1.68088E-001	9.08877E-001	3.57940E+000	9	...........
	92	1.24	9.09708E-001	2.81249E-004	0.00000E+000	2.55855E-004	1.68088E-001	9.10065E-001	3.57940E+000	9	...........
	93	1.25333	9.10873E-001	2.81303E-004	0.00000E+000	2.56232E-004	1.68088E-001	9.11244E-001	3.57940E+000	9	...........
	94	1.26667	9.12084E-001	2.80618E-004	0.00000E+000	2.55947E-004	1.68088E-001	9.12448E-001	3.57940E+000	9	...........
	95	1.28	9.13250E-001	2.81502E-004	0.00000E+000	2.57082E-004	1.68088E-001	9.13633E-001	3.57940E+000	9	...........
	96	1.29333	9.14412E-001	2.81793E-004	0.00000E+000	2.57675E-004	1.68088E-001	9.14788E-001	3.57940E+000	9	...........
	97	1.30667	9.15581E-001	2.81137E-004	0.00000E+000	2.57403E-004	1.68088E-001	9.15983E-001	3.57940E+000	9	...........
	98	1.32	9.16710E-001	2.81543E-004	0.00000E+000	2.58093E-004	1.68088E-001	9.17109E-001	3.57940E+000	9	...........
	99	1.33333	9.17838E-001	2.81040E-004	0.00000E+000	2.57949E-004	1.68088E-001	9.18235E-001	3.57940E+000	9	...........
	100	1.34667	9.18917E-001	2.81590E-004	0.00000E+000	2.58758E-004	1.68088E-001	9.19315E-001	3.57940E+000	9	...........
	101	1.36	9.20055E-001	2.80851E-004	0.00000E+000	2.58399E-004	1.68088E-001	9.20455E-001	3.57940E+000	9	...........
	102	1.37333	9.21256E-001	2.80706E-004	0.00000E+000	2.58602E-004	1.68088E-001	9.21588E-001	3.57940E+000	9	...........
	103	1.38667	9.22325E-001	2.80639E-004	0.00000E+000	2.58840E-004	1.68088E-001	9.22673E-001	3.57940E+000	9	...........
	104	1.4	9.23351E-001	2.80746E-004	0.00000E+000	2.59227E-004	1.68088E-001	9.23718E-001	3.57940E+000	9	...........
	105	1.41333	9.24427E-001	2.80816E-004	0.00000E+000	2.59594E-004	1.68088E-001	9.24777E-001	3.57940E+000	9	...........
	106	1.42667	9.25493E-001	2.80652E-004	0.00000E+000	2.59742E-004	1.68088E-001	9.25850E-001	3.57940E+000	9	...........
	107	1.44	9.26543E-001	2.80913E-004	0.00000E+000	2.60278E-004	1.68088E-001	9.26913E-001	3.57940E+000	9	...........
	108	1.45333	9.27588E-001	2.81288E-004	0.00000E+000	2.60919E-004	1.68088E-001	9.27952E-001	3.57940E+000	9	...........
	109	1.46667	9.28638E-001	2.81864E-004	0.00000E+000	2.61750E-004	1.68088E-001	9.28975E-001	3.57940E+000	9	...........
	110	1.48	9.29653E-001	2.81522E-004	0.00000E+000	2.61718E-004	1.68088E-001	9.29977E-001	3.57940E+000	9	...........
	111	1.49333	9.30625E-001	2.81140E-004	0.00000E+000	2.61636E-004	1.68088E-001	9.30949E-001	3.57940E+000	9	...........
	112	1.50667	9.31632E-001	2.81313E-004	0.00000E+000	2.62080E-004	1.68088E-001	9.31963E-001	3.57940E+000	9	...........
	113	1.52	9.32656E-001	2.81726E-004	0.00000E+000	2.62754E-004	1.68088E-001	9.32994E-001	3.57940E+000	9	...........
	114	1.53333	9.33670E-001	2.81131E-004	0.00000E+000	2.62484E-004	1.68088E-001	9.34000E-001	3.57940E+000	9	...........
	115	1.54667	9.34666E-001	2.80857E-004	0.00000E+000	2.62508E-004	1.68088E-001	9.35018E-001	3.57940E+000	9	...........
	116	1.56	9.35692E-001	2.80994E-004	0.00000E+000	2.62924E-004	1.68088E-001	9.36048E-001	3.57940E+000	9	...........
	117	1.57333	9.36664E-001	2.80418E-004	0.00000E+000	2.62657E-004	1.68088E-001	9.37033E-001	3.57940E+000	9	...........
	118	1.58667	9.37670E-001	2.81101E-004	0.00000E+000	2.63580E-004	1.68088E-001	9.38053E-001	3.57940E+000	9	...........
	119	1.6	9.38637E-001	2.81283E-004	0.00000E+000	2.64022E-004	1.68088E-001	9.39004E-001	3.57940E+000	9	...........
	120	1.61333	9.39585E-001	2.80982E-004	0.00000E+000	2.64007E-004	1.68088E-001	9.39959E-001	3.57940E+000	9	...........
	121	1.62667	9.40572E-001	2.82060E-004	0.00000E+000	2.65297E-004	1.68088E-001	9.40949E-001	3.57940E+000	9	...........
	122	1.64	9.41548E-001	2.80997E-004	0.00000E+000	2.64572E-004	1.68088E-001	9.41925E-001	3.57940E+000	9	...........
	123	1.65333	9.42504E-001	2.81221E-004	0.00000E+000	2.65052E-004	1.68088E-001	9.42865E-001	3.57940E+000	9	...........
	124	1.66667	9.43420E-001	2.81289E-004	0.00000E+000	2.65374E-004	1.68088E-001	9.43769E-001	3.57940E+000	9	...........
	125	1.68	9.44370E-001	2.81228E-004	0.00000E+000	2.65584E-004	1.68088E-001	9.44735E-001	3.57940E+000	9	...........
	126	1.69333	9.45280E-001	2.81269E-004	0.00000E+000	2.65878E-004	1.68088E-001	9.45668E-001	3.57940E+000	9	...........
	127	1.70667	9.46200E-001	2.81244E-004	0.00000E+000	2.66113E-004	1.68088E-001	9.46589E-001	3.57940E+000	9	...........
	128	1.72	9.47148E-001	2.81658E-004	0.00000E+000	2.66771E-004	1.68088E-001	9.47505E-001	3.57940E+000	9	...........
	129	1.73333	9.48037E-001	2.81195E-004	0.00000E+000	2.66583E-004	1.68088E-001	9.48408E-001	3.57940E+000	9	...........
	130	1.74667	9.48965E-001	2.82209E-004	0.00000E+000	2.67806E-004	1.68088E-001	9.49320E-001	3.57835E+000	9	...........
	131	1.76	9.49894E-001	2.81014E-004	0.00000E+000	2.66933E-004	1.68088E-001	9.50245E-001	3.57800E+000	9	...........
	132	1.77333	9.50792E-001	2.81609E-004	0.00000E+000	2.67751E-004	1.68088E-001	9.51154E-001	3.57800E+000	9	...........
	133	1.78667	9.51642E-001	2.81167E-004	0.00000E+000	2.67570E-004	1.68088E-001	9.52031E-001	3.57800E+000	9	...........
	134	1.8	9.52547E-001	2.80981E-004	0.00000E+000	2.67648E-004	1.68088E-001	9.52928E-001	3.57800E+000	9	...........
	135	1.81333	9.53430E-001	2.81035E-004	0.00000E+000	2.67947E-004	1.68088E-001	9.53795E-001	3.57800E+000	9	...........
	136	1.82667	9.54259E-001	2.80719E-004	0.00000E+000	2.67879E-004	1.68088E-001	9.54641E-001	3.57800E+000	9	...........
	137	1.84	9.55113E-001	2.80641E-004	0.00000E+000	2.68044E-004	1.68088E-001	9.55473E-001	3.57800E+000	9	...........
	138	1.85333	9.55963E-001	2.80867E-004	0.00000E+000	2.68498E-004	1.68088E-001	9.56339E-001	3.57800E+000	9	...........
	139	1.86667	9.56833E-001	2.82603E-004	0.00000E+000	2.70403E-004	1.68088E-001	9.57196E-001	3.57800E+000	9	...........
	140	1.88	9.57678E-001	2.81543E-004	0.00000E+000	2.69627E-004	1.68088E-001	9.58049E-001	3.57800E+000	9	...........
	141	1.89333	9.58496E-001	2.81677E-004	0.00000E+000	2.69987E-004	1.68088E-001	9.58893E-001	3.57800E+000	9	...........
	142	1.90667	9.59326E-001	2.80967E-004	0.00000E+000	2.69539E-004	1.68088E-001	9.59698E-001	3.57800E+000	9	...........
	143	1.92	9.60180E-001	2.81236E-004	0.00000E+000	2.70037E-004	1.68088E-001	9.60553E-001	3.57800E+000	9	...........
	144	1.93333	9.60977E-001	2.81413E-004	0.00000E+000	2.70431E-004	1.68088E-001	9.61373E-001	3.57800E+000	9	...........
	145	1.94667	9.61781E-001	2.81116E-004	0.00000E+000	2.70372E-004	1.68088E-001	9.62178E-001	3.57800E+000	9	...........
	146	1.96	9.62610E-001	2.81214E-004	0.00000E+000	2.70699E-004	1.68088E-001	9.63001E-001	3.57800E+000	9	...........
	147	1.97333	9.63395E-001	2.81362E-004	0.00000E+000	2.71062E-004	1.68088E-001	9.63795E-001	3.57800E+000	9	...........
	148	1.98667	9.64175E-001	2.80870E-004	0.00000E+000	2.70808E-004	1.68088E-001	9.64564E-001	3.57800E+000	9	...........
	149	2	9.64984E-001	2.81786E-004	0.00000E+000	2.71919E-004	1.68088E-001	9.65381E-001	3.57800E+000	9	...........
	150	2.01333	9.65802E-001	2.81341E-004	0.00000E+000	2.71720E-004	1.68088E-001	9.66179E-001	3.57800E+000	9	...........
	151	2.02667	9.66586E-001	2.80834E-004	0.00000E+000	2.71450E-004	1.68088E-001	9.66965E-001	3.57800E+000	9	...........
	152	2.04	9.67388E-001	2.80948E-004	0.00000E+000	2.71786E-004	1.68088E-001	9.67760E-001	3.57800E+000	9	...........
	153	2.05333	9.68183E-001	2.81332E-004	0.00000E+000	2.72380E-004	1.68088E-001	9.68566E-001	3.57800E+000	9	...........
	154	2.06667	9.68965E-001	2.80993E-004	0.00000E+000	2.72272E-004	1.68088E-001	9.69333E-001	3.57800E+000	9	...........
	155	2.08	9.69732E-001	2.80814E-004	0.00000E+000	2.72314E-004	1.68088E-001	9.70088E-001	3.57800E+000	9	...........
	156	2.09333	9.70471E-001	2.81302E-004	0.00000E+000	2.72996E-004	1.68088E-001	9.70866E-001	3.57800E+000	9	...........
	157	2.10667	9.71259E-001	2.80830E-004	0.00000E+000	2.72759E-004	1.68088E-001	9.71671E-001	3.57800E+000	9	...........
	158	2.12	9.72047E-001	2.81517E-004	0.00000E+000	2.73648E-004	1.68088E-001	9.72449E-001	3.57800E+000	9	...........
	159	2.13333	9.72897E-001	2.81836E-004	0.00000E+000	2.74197E-004	1.68088E-001	9.73260E-001	3.57800E+000	9	...........
	160	2.14667	9.73649E-001	2.80194E-004	0.00000E+000	2.72810E-004	1.68088E-001	9.74019E-001	3.57800E+000	9	...........
	161	2.16	9.74384E-001	2.81419E-004	0.00000E+000	2.74210E-004	1.68088E-001	9.74768E-001	3.57800E+000	9	...........
	162	2.17333	9.75141E-001	2.81037E-004	0.00000E+000	2.74050E-004	1.68088E-001	9.75516E-001	3.57800E+000	9	...........
	163	2.18667	9.75886E-001	2.80999E-004	0.00000E+000	2.74223E-004	1.68088E-001	9.76263E-001	3.57800E+000	9	...........
	164	2.2	9.76592E-001	2.81389E-004	0.00000E+000	2.74802E-004	1.68088E-001	9.76976E-001	3.57800E+000	9	...........
	165	2.21333	9.77336E-001	2.81311E-004	0.00000E+000	2.74935E-004	1.68088E-001	9.77704E-001	3.57800E+000	9	...........
	166	2.22667	9.78059E-001	2.81061E-004	0.00000E+000	2.74894E-004	1.68088E-001	9.78445E-001	3.57800E+000	9	...........
	167	2.24	9.78801E-001	2.81652E-004	0.00000E+000	2.75682E-004	1.68088E-001	9.79164E-001	3.57800E+000	9	...........
	168	2.25333	9.79480E-001	2.81315E-004	0.00000E+000	2.75542E-004	1.68088E-001	9.79834E-001	3.57800E+000	9	...........
	169	2.26667	9.80217E-001	2.81192E-004	0.00000E+000	2.75629E-004	1.68088E-001	9.80571E-001	3.57800E+000	9	...........
	170	2.28	9.80891E-001	2.81236E-004	0.00000E+000	2.75862E-004	1.68088E-001	9.81268E-001	3.57800E+000	9	...........
	171	2.29333	9.81583E-001	2.80577E-004	0.00000E+000	2.75410E-004	1.68088E-001	9.81946E-001	3.57800E+000	9	...........
	172	2.30667	9.82308E-001	2.80948E-004	0.00000E+000	2.75978E-004	1.68088E-001	9.82647E-001	3.57800E+000	9	...........
	173	2.32	9.82966E-001	2.81931E-004	0.00000E+000	2.77128E-004	1.68088E-001	9.83341E-001	3.57800E+000	9	...........
	174	2.33333	9.83602E-001	2.80987E-004	0.00000E+000	2.76379E-004	1.68088E-001	9.83994E-001	3.57800E+000	9	...........
	175	2.34667	9.84296E-001	2.80711E-004	0.00000E+000	2.76302E-004	1.68088E-001	9.84694E-001	3.57800E+000	9	...........
	176	2.36	9.85004E-001	2.81766E-004	0.00000E+000	2.77541E-004	1.68088E-001	9.85411E-001	3.57800E+000	9	...........
	177	2.37333	9.85692E-001	2.81284E-004	0.00000E+000	2.77259E-004	1.68088E-001	9.86102E-001	3.57800E+000	9	...........
	178	2.38667	9.86346E-001	2.81497E-004	0.00000E+000	2.77654E-004	1.68088E-001	9.86734E-001	3.57800E+000	9	...........
	179	2.4	9.86982E-001	2.80670E-004	0.00000E+000	2.77016E-004	1.68088E-001	9.87395E-001	3.57800E+000	9	...........
	180	2.41333	9.87613E-001	2.80381E-004	0.00000E+000	2.76908E-004	1.68088E-001	9.88035E-001	3.57800E+000	9	...........
	181	2.42667	9.88303E-001	2.80929E-004	0.00000E+000	2.77643E-004	1.68088E-001	9.88669E-001	3.57800E+000	9	...........
	182	2.44	9.88957E-001	2.81311E-004	0.00000E+000	2.78204E-004	1.68088E-001	9.89327E-001	3.57800E+000	9	...........
	183	2.45333	9.89567E-001	2.81753E-004	0.00000E+000	2.78814E-004	1.68088E-001	9.89957E-001	3.57800E+000	9	...........
	184	2.46667	9.90229E-001	2.81046E-004	0.00000E+000	2.78300E-004	1.68088E-001	9.90611E-001	3.57800E+000	9	...........
	185	2.48	9.90886E-001	2.81374E-004	0.00000E+000	2.78810E-004	1.68088E-001	9.91257E-001	3.57800E+000	9	...........
	186	2.49333	9.91484E-001	2.80755E-004	0.00000E+000	2.78364E-004	1.68088E-001	9.91856E-001	3.57800E+000	9	...........
	187	2.50667	9.92104E-001	2.81056E-004	0.00000E+000	2.78837E-004	1.68088E-001	9.92485E-001	3.57800E+000	9	...........
	188	2.52	9.92745E-001	2.81706E-004	0.00000E+000	2.79662E-004	1.68088E-001	9.93109E-001	3.57800E+000	9	...........
	189	2.53333	9.93371E-001	2.81525E-004	0.00000E+000	2.79659E-004	1.68088E-001	9.93767E-001	3.57800E+000	9	...........
	190	2.54667	9.93969E-001	2.81124E-004	0.00000E+000	2.79429E-004	1.68088E-001	9.94380E-001	3.57800E+000	9	...........
	191	2.56	9.94597E-001	2.80657E-004	0.00000E+000	2.79141E-004	1.68088E-001	9.94969E-001	3.57800E+000	9	...........
	192	2.57333	9.95191E-001	2.80921E-004	0.00000E+000	2.79570E-004	1.68088E-001	9.95565E-001	3.57800E+000	9	...........
	193	2.58667	9.95787E-001	2.81748E-004	0.00000E+000	2.80561E-004	1.68088E-001	9.96175E-001	3.57800E+000	9	...........
	194	2.6	9.96417E-001	2.81206E-004	0.00000E+000	2.80199E-004	1.68088E-001	9.96787E-001	3.57800E+000	9	...........
	195	2.61333	9.96995E-001	2.80905E-004	0.00000E+000	2.80061E-004	1.68088E-001	9.97404E-001	3.57800E+000	9	...........
	196	2.62667	9.97591E-001	2.81339E-004	0.00000E+000	2.80661E-004	1.68088E-001	9.97990E-001	3.57800E+000	9	...........
	197	2.64	9.98208E-001	2.80651E-004	0.00000E+000	2.80148E-004	1.68088E-001	9.98576E-001	3.57800E+000	9	...........
	198	2.65333	9.98808E-001	2.81199E-004	0.00000E+000	2.80864E-004	1.68088E-001	9.99187E-001	3.57800E+000	9	...........
	199	2.66667	9.99398E-001	2.81486E-004	0.00000E+000	2.81316E-004	1.68088E-001	9.99766E-001	3.57800E+000	9	...........
	200	2.67667	9.99893E-001	2.81886E-004	0.00000E+000	2.81856E-004	1.68088E-001	1.00030E+000	3.57800E+000	9	...........
STARTTIMEOFFSET	QUANT	64.06667	Start Time Offset (s)
