EXPLAIN
TAG	PWR800_CHARGE
TITLE	LABEL	PWR Cyclic Charge Discharge (Cell) - Charge Step	Test &Identifier
DATE	LABEL	7-7-2017	Date
TIME	LABEL	16:04:44	Time
NOTES	NOTES	3	&Notes...
	supercap test cell
	2.8mg
	6M KOH
PSTAT	PSTAT	IFC5000-01520	Potentiostat
CAPACITY	QUANT	1.00000E-003	Capacity (A-hr)
CELLTYPE	SELECTOR	1	&Cell Type
WORKINGCONNECTION	SELECTOR	0	&Working Lead
MAXCHARGETIME	VARIABLEANDUNITS	1.00000E+002	s	1.00000E+002	second(s)	Max &Charge Time
CHARGECURRENT	QUANT	2.80000E-004	&Charge Current (A) 
VOLTAGEFINISH	TWOPARAM	F	1.00000E-003	3.60000E+003	&Voltage Finish	 I (A) < 	Max Time(s)
SAMPLETIME	QUANT	1.00000E-002	Sa&mple Period (s)
CHARGESTOPAT1	MULTIPARAM	4	1.00000E+000	Charge Stop At &1	Voltage > Limit	V
CHARGESTOPAT2	MULTIPARAM	0	0.00000E+000	Charge Stop At &2	None	N/A
AESBHCSELECTOR	TOGGLE	F	Save Both Half Cells
IRCOMP	TOGGLE	F	IR &Measure
EOC	QUANT	0	Open Circuit (V)
SEQUENCER	TOGGLE	TRUE	Run as Sequence
PSTATMODEL	IQUANT	53	Pstat Model
PSTATSECTION	LABEL	IFC5000-01520	Pstat Section
PSTATSERIALNO	LABEL	01520	Pstat Serial Number
CTRLMODE	IQUANT	0	Control Mode
ELECTROMETER	IQUANT	1	RE=0 or CS=1
IESTAB	IQUANT	0	I/E Stability
CASPEED	IQUANT	4	Control Amp Speed
CONVENTION	IQUANT	1	Current Convention
ICHRANGE	IQUANT	2	Ich Range
ICHRANGEMODE	TOGGLE	T	Ich Auto Range
ICHOFFSETENABLE	TOGGLE	F	Ich Offset Enable
ICHOFFSET	QUANT	0	Ich Offset (V)
ICHFILTER	IQUANT	1	Ich Filter
VCHRANGE	IQUANT	2	Vch Range
VCHRANGEMODE	TOGGLE	T	Vch Auto Range
VCHOFFSETENABLE	TOGGLE	F	Vch Offset Enable
VCHOFFSET	QUANT	0	Vch Offset (V)
VCHFILTER	IQUANT	1	Vch Filter
IERANGELOWERLIMIT	IQUANT	9	I/E Range Lower Limit
IERANGEMODE	TOGGLE	F	I/E AutoRange
IERANGE	IQUANT	9	I/E Range
ACHSELECT	IQUANT	1	Ach Select
ACHRANGE	IQUANT	2	Ach Range
ACHOFFSETENABLE	TOGGLE	F	Ach Offset Enable
ACHOFFSET	QUANT	0	Ach Offset (V)
ACHFILTER	IQUANT	1	Ach Filter
CABLEID	IQUANT	14	Cable ID
DCCALDATE	LABEL	5-7-2017	DC Calibration Date
ACCALDATE	LABEL	12/3/2015	AC Calibration Date
FRAMEWORKVERSION	QUANT	7.01	Framework Version
INSTRUMENTVERSION	LABEL	4.00	Instrument Version
CURVE	TABLE	73
	Pt	T	Vf	Im	Vu	Pwr	Sig	Ach	Temp	IERange	Over
	#	s	V	A	V	W	V	V	deg C	#	bits
	0	0.013333	6.13603E-001	2.80647E-004	0.00000E+000	1.72206E-004	1.68088E-001	6.13871E-001	3.57780E+000	9	...........
	1	0.026667	6.42501E-001	2.80212E-004	0.00000E+000	1.80036E-004	1.68088E-001	6.42741E-001	3.57780E+000	9	...........
	2	0.04	6.67186E-001	2.82507E-004	0.00000E+000	1.88484E-004	1.68088E-001	6.67415E-001	3.57780E+000	9	...........
	3	0.053333	6.88760E-001	2.80657E-004	0.00000E+000	1.93306E-004	1.68088E-001	6.89002E-001	3.57780E+000	9	...........
	4	0.066667	7.07942E-001	2.80910E-004	0.00000E+000	1.98868E-004	1.68088E-001	7.08196E-001	3.57780E+000	9	...........
	5	0.08	7.25261E-001	2.81062E-004	0.00000E+000	2.03843E-004	1.68088E-001	7.25500E-001	3.57780E+000	9	...........
	6	0.093333	7.40920E-001	2.82298E-004	0.00000E+000	2.09161E-004	1.68088E-001	7.41166E-001	3.57780E+000	9	...........
	7	0.106667	7.55228E-001	2.80864E-004	0.00000E+000	2.12116E-004	1.68088E-001	7.55511E-001	3.57780E+000	9	...........
	8	0.12	7.68384E-001	2.81801E-004	0.00000E+000	2.16532E-004	1.68088E-001	7.68687E-001	3.57780E+000	9	...........
	9	0.133333	7.80511E-001	2.80419E-004	0.00000E+000	2.18870E-004	1.68088E-001	7.80810E-001	3.57780E+000	9	...........
	10	0.146667	7.91747E-001	2.81533E-004	0.00000E+000	2.22902E-004	1.68088E-001	7.92031E-001	3.57780E+000	9	...........
	11	0.16	8.02164E-001	2.81082E-004	0.00000E+000	2.25474E-004	1.68088E-001	8.02460E-001	3.57780E+000	9	...........
	12	0.173333	8.11823E-001	2.81441E-004	0.00000E+000	2.28480E-004	1.68088E-001	8.12118E-001	3.57780E+000	9	...........
	13	0.186667	8.20882E-001	2.80307E-004	0.00000E+000	2.30099E-004	1.68088E-001	8.21202E-001	3.57780E+000	9	...........
	14	0.2	8.29360E-001	2.80520E-004	0.00000E+000	2.32652E-004	1.68088E-001	8.29653E-001	3.57780E+000	9	...........
	15	0.213333	8.37291E-001	2.81513E-004	0.00000E+000	2.35708E-004	1.68088E-001	8.37627E-001	3.57780E+000	9	...........
	16	0.226667	8.44725E-001	2.80689E-004	0.00000E+000	2.37105E-004	1.68088E-001	8.45052E-001	3.57780E+000	9	...........
	17	0.24	8.51743E-001	2.81632E-004	0.00000E+000	2.39878E-004	1.68088E-001	8.52083E-001	3.57780E+000	9	...........
	18	0.253333	8.58325E-001	2.82578E-004	0.00000E+000	2.42543E-004	1.68088E-001	8.58694E-001	3.57780E+000	9	...........
	19	0.266667	8.64565E-001	2.80986E-004	0.00000E+000	2.42930E-004	1.68088E-001	8.64897E-001	3.57780E+000	9	...........
	20	0.28	8.70458E-001	2.80146E-004	0.00000E+000	2.43855E-004	1.68088E-001	8.70823E-001	3.57780E+000	9	...........
	21	0.293333	8.75999E-001	2.79566E-004	0.00000E+000	2.44899E-004	1.68088E-001	8.76373E-001	3.57780E+000	9	...........
	22	0.306667	8.81276E-001	2.80921E-004	0.00000E+000	2.47569E-004	1.68088E-001	8.81628E-001	3.57780E+000	9	...........
	23	0.32	8.86258E-001	2.80689E-004	0.00000E+000	2.48762E-004	1.68088E-001	8.86637E-001	3.57780E+000	9	...........
	24	0.333333	8.91008E-001	2.81240E-004	0.00000E+000	2.50587E-004	1.68088E-001	8.91368E-001	3.57780E+000	9	...........
	25	0.346667	8.95505E-001	2.80836E-004	0.00000E+000	2.51490E-004	1.68088E-001	8.95883E-001	3.57780E+000	9	...........
	26	0.36	8.99848E-001	2.81457E-004	0.00000E+000	2.53268E-004	1.68088E-001	9.00232E-001	3.57780E+000	9	...........
	27	0.373333	9.04009E-001	2.81092E-004	0.00000E+000	2.54110E-004	1.68088E-001	9.04392E-001	3.57780E+000	9	...........
	28	0.386667	9.07957E-001	2.82427E-004	0.00000E+000	2.56431E-004	1.68088E-001	9.08357E-001	3.57780E+000	9	...........
	29	0.4	9.11753E-001	2.80989E-004	0.00000E+000	2.56192E-004	1.68088E-001	9.12132E-001	3.57780E+000	9	...........
	30	0.413333	9.15387E-001	2.81081E-004	0.00000E+000	2.57298E-004	1.68088E-001	9.15789E-001	3.57780E+000	9	...........
	31	0.426667	9.18857E-001	2.80658E-004	0.00000E+000	2.57885E-004	1.68088E-001	9.19269E-001	3.57780E+000	9	...........
	32	0.44	9.22270E-001	2.80218E-004	0.00000E+000	2.58436E-004	1.68088E-001	9.22577E-001	3.57780E+000	9	...........
	33	0.453333	9.25447E-001	2.81595E-004	0.00000E+000	2.60601E-004	1.68088E-001	9.25765E-001	3.57780E+000	9	...........
	34	0.466667	9.28520E-001	2.80906E-004	0.00000E+000	2.60827E-004	1.68088E-001	9.28830E-001	3.57780E+000	9	...........
	35	0.48	9.31520E-001	2.81040E-004	0.00000E+000	2.61794E-004	1.68088E-001	9.31829E-001	3.57780E+000	9	...........
	36	0.493333	9.34396E-001	2.81851E-004	0.00000E+000	2.63361E-004	1.68088E-001	9.34729E-001	3.57780E+000	9	...........
	37	0.506667	9.37162E-001	2.81140E-004	0.00000E+000	2.63473E-004	1.68088E-001	9.37530E-001	3.57780E+000	9	...........
	38	0.52	9.39844E-001	2.82429E-004	0.00000E+000	2.65439E-004	1.68088E-001	9.40194E-001	3.57780E+000	9	...........
	39	0.533333	9.42416E-001	2.80301E-004	0.00000E+000	2.64160E-004	1.68088E-001	9.42768E-001	3.57780E+000	9	...........
	40	0.546667	9.44968E-001	2.80694E-004	0.00000E+000	2.65247E-004	1.68088E-001	9.45320E-001	3.57780E+000	9	...........
	41	0.56	9.47427E-001	2.81115E-004	0.00000E+000	2.66336E-004	1.68088E-001	9.47783E-001	3.57780E+000	9	...........
	42	0.573333	9.49775E-001	2.82011E-004	0.00000E+000	2.67847E-004	1.68088E-001	9.50123E-001	3.57780E+000	9	...........
	43	0.586667	9.52030E-001	2.80587E-004	0.00000E+000	2.67127E-004	1.68088E-001	9.52415E-001	3.57780E+000	9	...........
	44	0.6	9.54273E-001	2.80428E-004	0.00000E+000	2.67605E-004	1.68088E-001	9.54611E-001	3.57780E+000	9	...........
	45	0.613333	9.56432E-001	2.81269E-004	0.00000E+000	2.69015E-004	1.68088E-001	9.56796E-001	3.57780E+000	9	...........
	46	0.626667	9.58548E-001	2.81910E-004	0.00000E+000	2.70224E-004	1.68088E-001	9.58920E-001	3.57780E+000	9	...........
	47	0.64	9.60623E-001	2.81843E-004	0.00000E+000	2.70745E-004	1.68088E-001	9.61016E-001	3.57780E+000	9	...........
	48	0.653333	9.62644E-001	2.80307E-004	0.00000E+000	2.69836E-004	1.68088E-001	9.63024E-001	3.57780E+000	9	...........
	49	0.666667	9.64614E-001	2.81245E-004	0.00000E+000	2.71293E-004	1.68088E-001	9.65000E-001	3.57780E+000	9	...........
	50	0.68	9.66540E-001	2.81241E-004	0.00000E+000	2.71831E-004	1.68088E-001	9.66878E-001	3.57780E+000	9	...........
	51	0.693333	9.68376E-001	2.81728E-004	0.00000E+000	2.72819E-004	1.68088E-001	9.68768E-001	3.57780E+000	9	...........
	52	0.706667	9.70211E-001	2.81161E-004	0.00000E+000	2.72785E-004	1.68088E-001	9.70618E-001	3.57780E+000	9	...........
	53	0.72	9.72048E-001	2.82275E-004	0.00000E+000	2.74385E-004	1.68088E-001	9.72468E-001	3.57780E+000	9	...........
	54	0.733333	9.73864E-001	2.79977E-004	0.00000E+000	2.72660E-004	1.68088E-001	9.74218E-001	3.57780E+000	9	...........
	55	0.746667	9.75573E-001	2.80621E-004	0.00000E+000	2.73766E-004	1.68088E-001	9.75920E-001	3.57780E+000	9	...........
	56	0.76	9.77258E-001	2.81328E-004	0.00000E+000	2.74930E-004	1.68088E-001	9.77619E-001	3.57780E+000	9	...........
	57	0.773333	9.78916E-001	2.81960E-004	0.00000E+000	2.76015E-004	1.68088E-001	9.79270E-001	3.57780E+000	9	...........
	58	0.786667	9.80538E-001	2.81531E-004	0.00000E+000	2.76051E-004	1.68088E-001	9.80919E-001	3.57780E+000	9	...........
	59	0.8	9.82142E-001	2.82365E-004	0.00000E+000	2.77323E-004	1.68088E-001	9.82501E-001	3.57780E+000	9	...........
	60	0.813333	9.83688E-001	2.81166E-004	0.00000E+000	2.76579E-004	1.68088E-001	9.84072E-001	3.57780E+000	9	...........
	61	0.826667	9.85192E-001	2.80130E-004	0.00000E+000	2.75982E-004	1.68088E-001	9.85589E-001	3.57780E+000	9	...........
	62	0.84	9.86730E-001	2.81023E-004	0.00000E+000	2.77294E-004	1.68088E-001	9.87139E-001	3.57780E+000	9	...........
	63	0.853333	9.88217E-001	2.80434E-004	0.00000E+000	2.77130E-004	1.68088E-001	9.88594E-001	3.57780E+000	9	...........
	64	0.866667	9.89703E-001	2.82264E-004	0.00000E+000	2.79358E-004	1.68088E-001	9.90065E-001	3.57780E+000	9	...........
	65	0.88	9.91147E-001	2.79476E-004	0.00000E+000	2.77002E-004	1.68088E-001	9.91531E-001	3.57780E+000	9	...........
	66	0.893333	9.92545E-001	2.81282E-004	0.00000E+000	2.79184E-004	1.68088E-001	9.92934E-001	3.57780E+000	9	...........
	67	0.906667	9.93921E-001	2.80289E-004	0.00000E+000	2.78585E-004	1.68088E-001	9.94331E-001	3.57855E+000	9	...........
	68	0.92	9.95338E-001	2.81344E-004	0.00000E+000	2.80032E-004	1.68088E-001	9.95706E-001	3.57880E+000	9	...........
	69	0.933333	9.96654E-001	2.79827E-004	0.00000E+000	2.78891E-004	1.68088E-001	9.97081E-001	3.57880E+000	9	...........
	70	0.946667	9.98009E-001	2.81501E-004	0.00000E+000	2.80941E-004	1.68088E-001	9.98421E-001	3.57880E+000	9	...........
	71	0.96	9.99343E-001	2.81078E-004	0.00000E+000	2.80894E-004	1.68088E-001	9.99732E-001	3.57880E+000	9	...........
	72	0.96167	1.00010E+000	2.80094E-004	0.00000E+000	2.80121E-004	1.68088E-001	1.00044E+000	3.57880E+000	9	...........
STARTTIMEOFFSET	QUANT	1307.613	Start Time Offset (s)
