EXPLAIN
TAG	PWR800_CHARGE
TITLE	LABEL	PWR Cyclic Charge Discharge (Cell) - Charge Step	Test &Identifier
DATE	LABEL	7-7-2017	Date
TIME	LABEL	15:37:20	Time
NOTES	NOTES	3	&Notes...
	supercap test cell
	2.8mg
	6M KOH
PSTAT	PSTAT	IFC5000-01520	Potentiostat
CAPACITY	QUANT	1.00000E-003	Capacity (A-hr)
CELLTYPE	SELECTOR	1	&Cell Type
WORKINGCONNECTION	SELECTOR	0	&Working Lead
MAXCHARGETIME	VARIABLEANDUNITS	1.00000E+002	s	1.00000E+002	second(s)	Max &Charge Time
CHARGECURRENT	QUANT	2.80000E-004	&Charge Current (A) 
VOLTAGEFINISH	TWOPARAM	F	1.00000E-003	3.60000E+003	&Voltage Finish	 I (A) < 	Max Time(s)
SAMPLETIME	QUANT	1.00000E-002	Sa&mple Period (s)
CHARGESTOPAT1	MULTIPARAM	4	1.00000E+000	Charge Stop At &1	Voltage > Limit	V
CHARGESTOPAT2	MULTIPARAM	0	0.00000E+000	Charge Stop At &2	None	N/A
AESBHCSELECTOR	TOGGLE	F	Save Both Half Cells
IRCOMP	TOGGLE	F	IR &Measure
EOC	QUANT	0	Open Circuit (V)
SEQUENCER	TOGGLE	TRUE	Run as Sequence
PSTATMODEL	IQUANT	53	Pstat Model
PSTATSECTION	LABEL	IFC5000-01520	Pstat Section
PSTATSERIALNO	LABEL	01520	Pstat Serial Number
CTRLMODE	IQUANT	0	Control Mode
ELECTROMETER	IQUANT	1	RE=0 or CS=1
IESTAB	IQUANT	0	I/E Stability
CASPEED	IQUANT	4	Control Amp Speed
CONVENTION	IQUANT	1	Current Convention
ICHRANGE	IQUANT	2	Ich Range
ICHRANGEMODE	TOGGLE	T	Ich Auto Range
ICHOFFSETENABLE	TOGGLE	F	Ich Offset Enable
ICHOFFSET	QUANT	0	Ich Offset (V)
ICHFILTER	IQUANT	1	Ich Filter
VCHRANGE	IQUANT	2	Vch Range
VCHRANGEMODE	TOGGLE	T	Vch Auto Range
VCHOFFSETENABLE	TOGGLE	F	Vch Offset Enable
VCHOFFSET	QUANT	0	Vch Offset (V)
VCHFILTER	IQUANT	1	Vch Filter
IERANGELOWERLIMIT	IQUANT	9	I/E Range Lower Limit
IERANGEMODE	TOGGLE	F	I/E AutoRange
IERANGE	IQUANT	9	I/E Range
ACHSELECT	IQUANT	1	Ach Select
ACHRANGE	IQUANT	2	Ach Range
ACHOFFSETENABLE	TOGGLE	F	Ach Offset Enable
ACHOFFSET	QUANT	0	Ach Offset (V)
ACHFILTER	IQUANT	1	Ach Filter
CABLEID	IQUANT	14	Cable ID
DCCALDATE	LABEL	5-7-2017	DC Calibration Date
ACCALDATE	LABEL	12/3/2015	AC Calibration Date
FRAMEWORKVERSION	QUANT	7.01	Framework Version
INSTRUMENTVERSION	LABEL	4.00	Instrument Version
CURVE	TABLE	199
	Pt	T	Vf	Im	Vu	Pwr	Sig	Ach	Temp	IERange	Over
	#	s	V	A	V	W	V	V	deg C	#	bits
	0	0.013333	5.49113E-001	2.80521E-004	0.00000E+000	1.54038E-004	1.68088E-001	5.49409E-001	3.57910E+000	9	...........
	1	0.026667	5.75787E-001	2.81118E-004	0.00000E+000	1.61864E-004	1.68088E-001	5.76082E-001	3.57910E+000	9	...........
	2	0.04	5.97856E-001	2.80341E-004	0.00000E+000	1.67603E-004	1.68088E-001	5.98157E-001	3.57910E+000	9	...........
	3	0.053333	6.16637E-001	2.80753E-004	0.00000E+000	1.73123E-004	1.68088E-001	6.16916E-001	3.57910E+000	9	...........
	4	0.066667	6.32889E-001	2.81646E-004	0.00000E+000	1.78251E-004	1.68088E-001	6.33182E-001	3.57910E+000	9	...........
	5	0.08	6.47242E-001	2.81392E-004	0.00000E+000	1.82129E-004	1.68088E-001	6.47508E-001	3.57910E+000	9	...........
	6	0.093333	6.59975E-001	2.81807E-004	0.00000E+000	1.85985E-004	1.68088E-001	6.60227E-001	3.57910E+000	9	...........
	7	0.106667	6.71493E-001	2.80767E-004	0.00000E+000	1.88533E-004	1.68088E-001	6.71737E-001	3.57884E+000	9	...........
	8	0.12	6.81926E-001	2.80929E-004	0.00000E+000	1.91573E-004	1.68088E-001	6.82219E-001	3.57870E+000	9	...........
	9	0.133333	6.91473E-001	2.80951E-004	0.00000E+000	1.94270E-004	1.68088E-001	6.91783E-001	3.57870E+000	9	...........
	10	0.146667	7.00287E-001	2.81954E-004	0.00000E+000	1.97448E-004	1.68088E-001	7.00585E-001	3.57870E+000	9	...........
	11	0.16	7.08439E-001	2.81663E-004	0.00000E+000	1.99541E-004	1.68088E-001	7.08755E-001	3.57870E+000	9	...........
	12	0.173333	7.16047E-001	2.80756E-004	0.00000E+000	2.01035E-004	1.68088E-001	7.16330E-001	3.57870E+000	9	...........
	13	0.186667	7.23084E-001	2.80984E-004	0.00000E+000	2.03175E-004	1.68088E-001	7.23356E-001	3.57870E+000	9	...........
	14	0.2	7.29659E-001	2.81345E-004	0.00000E+000	2.05286E-004	1.68088E-001	7.29974E-001	3.57870E+000	9	...........
	15	0.213333	7.35833E-001	2.81341E-004	0.00000E+000	2.07020E-004	1.68088E-001	7.36150E-001	3.57870E+000	9	...........
	16	0.226667	7.41668E-001	2.81302E-004	0.00000E+000	2.08633E-004	1.68088E-001	7.41968E-001	3.57870E+000	9	...........
	17	0.24	7.47139E-001	2.81886E-004	0.00000E+000	2.10608E-004	1.68088E-001	7.47430E-001	3.57870E+000	9	...........
	18	0.253333	7.52319E-001	2.80808E-004	0.00000E+000	2.11258E-004	1.68088E-001	7.52620E-001	3.57870E+000	9	...........
	19	0.266667	7.57308E-001	2.81138E-004	0.00000E+000	2.12908E-004	1.68088E-001	7.57559E-001	3.57870E+000	9	...........
	20	0.28	7.62008E-001	2.81413E-004	0.00000E+000	2.14439E-004	1.68088E-001	7.62272E-001	3.57870E+000	9	...........
	21	0.293333	7.66508E-001	2.80700E-004	0.00000E+000	2.15159E-004	1.68088E-001	7.66795E-001	3.57870E+000	9	...........
	22	0.306667	7.70835E-001	2.81175E-004	0.00000E+000	2.16740E-004	1.68088E-001	7.71104E-001	3.57870E+000	9	...........
	23	0.32	7.74958E-001	2.80757E-004	0.00000E+000	2.17575E-004	1.68088E-001	7.75209E-001	3.57870E+000	9	...........
	24	0.333333	7.78909E-001	2.81631E-004	0.00000E+000	2.19365E-004	1.68088E-001	7.79174E-001	3.57870E+000	9	...........
	25	0.346667	7.82688E-001	2.81062E-004	0.00000E+000	2.19984E-004	1.68088E-001	7.82944E-001	3.57870E+000	9	...........
	26	0.36	7.86293E-001	2.81116E-004	0.00000E+000	2.21039E-004	1.68088E-001	7.86554E-001	3.57870E+000	9	...........
	27	0.373333	7.89773E-001	2.81086E-004	0.00000E+000	2.21994E-004	1.68088E-001	7.90082E-001	3.57870E+000	9	...........
	28	0.386667	7.93215E-001	2.81110E-004	0.00000E+000	2.22980E-004	1.68088E-001	7.93512E-001	3.57870E+000	9	...........
	29	0.4	7.96487E-001	2.81049E-004	0.00000E+000	2.23852E-004	1.68088E-001	7.96761E-001	3.57870E+000	9	...........
	30	0.413333	7.99632E-001	2.81227E-004	0.00000E+000	2.24878E-004	1.68088E-001	7.99923E-001	3.57870E+000	9	...........
	31	0.426667	8.02711E-001	2.80916E-004	0.00000E+000	2.25494E-004	1.68088E-001	8.03000E-001	3.57870E+000	9	...........
	32	0.44	8.05685E-001	2.80547E-004	0.00000E+000	2.26033E-004	1.68088E-001	8.06006E-001	3.57870E+000	9	...........
	33	0.453333	8.08590E-001	2.81479E-004	0.00000E+000	2.27602E-004	1.68088E-001	8.08912E-001	3.57870E+000	9	...........
	34	0.466667	8.11394E-001	2.81324E-004	0.00000E+000	2.28265E-004	1.68088E-001	8.11725E-001	3.57870E+000	9	...........
	35	0.48	8.14154E-001	2.81504E-004	0.00000E+000	2.29188E-004	1.68088E-001	8.14500E-001	3.57870E+000	9	...........
	36	0.493333	8.16788E-001	2.81198E-004	0.00000E+000	2.29679E-004	1.68088E-001	8.17160E-001	3.57870E+000	9	...........
	37	0.506667	8.19380E-001	2.81360E-004	0.00000E+000	2.30541E-004	1.68088E-001	8.19743E-001	3.57870E+000	9	...........
	38	0.52	8.21928E-001	2.79905E-004	0.00000E+000	2.30062E-004	1.68088E-001	8.22280E-001	3.57870E+000	9	...........
	39	0.533333	8.24409E-001	2.81213E-004	0.00000E+000	2.31834E-004	1.68088E-001	8.24760E-001	3.57870E+000	9	...........
	40	0.546667	8.26796E-001	2.81166E-004	0.00000E+000	2.32467E-004	1.68088E-001	8.27117E-001	3.57870E+000	9	...........
	41	0.56	8.29137E-001	2.80918E-004	0.00000E+000	2.32919E-004	1.68088E-001	8.29486E-001	3.57870E+000	9	...........
	42	0.573333	8.31444E-001	2.81106E-004	0.00000E+000	2.33724E-004	1.68088E-001	8.31783E-001	3.57870E+000	9	...........
	43	0.586667	8.33660E-001	2.81084E-004	0.00000E+000	2.34328E-004	1.68088E-001	8.34006E-001	3.57870E+000	9	...........
	44	0.6	8.35822E-001	2.81585E-004	0.00000E+000	2.35355E-004	1.68088E-001	8.36202E-001	3.57870E+000	9	...........
	45	0.613333	8.37992E-001	2.80703E-004	0.00000E+000	2.35227E-004	1.68088E-001	8.38368E-001	3.57870E+000	9	...........
	46	0.626667	8.40096E-001	2.80738E-004	0.00000E+000	2.35846E-004	1.68088E-001	8.40436E-001	3.57870E+000	9	...........
	47	0.64	8.42159E-001	2.81628E-004	0.00000E+000	2.37176E-004	1.68088E-001	8.42510E-001	3.57870E+000	9	...........
	48	0.653333	8.44251E-001	2.81334E-004	0.00000E+000	2.37516E-004	1.68088E-001	8.44583E-001	3.57870E+000	9	...........
	49	0.666667	8.46253E-001	2.80410E-004	0.00000E+000	2.37298E-004	1.68088E-001	8.46572E-001	3.57870E+000	9	...........
	50	0.68	8.48217E-001	2.81513E-004	0.00000E+000	2.38784E-004	1.68088E-001	8.48566E-001	3.57870E+000	9	...........
	51	0.693333	8.50124E-001	2.81416E-004	0.00000E+000	2.39239E-004	1.68088E-001	8.50456E-001	3.57870E+000	9	...........
	52	0.706667	8.52004E-001	2.81843E-004	0.00000E+000	2.40131E-004	1.68088E-001	8.52347E-001	3.57870E+000	9	...........
	53	0.72	8.53824E-001	2.81506E-004	0.00000E+000	2.40356E-004	1.68088E-001	8.54159E-001	3.57870E+000	9	...........
	54	0.733333	8.55666E-001	2.81514E-004	0.00000E+000	2.40882E-004	1.68088E-001	8.56028E-001	3.57870E+000	9	...........
	55	0.746667	8.57502E-001	2.81254E-004	0.00000E+000	2.41176E-004	1.68088E-001	8.57858E-001	3.57870E+000	9	...........
	56	0.76	8.59272E-001	2.81596E-004	0.00000E+000	2.41968E-004	1.68088E-001	8.59629E-001	3.57870E+000	9	...........
	57	0.773333	8.61086E-001	2.81254E-004	0.00000E+000	2.42184E-004	1.68088E-001	8.61403E-001	3.57870E+000	9	...........
	58	0.786667	8.62774E-001	2.80963E-004	0.00000E+000	2.42407E-004	1.68088E-001	8.63113E-001	3.57870E+000	9	...........
	59	0.8	8.64413E-001	2.80986E-004	0.00000E+000	2.42888E-004	1.68088E-001	8.64753E-001	3.57870E+000	9	...........
	60	0.813333	8.66048E-001	2.80575E-004	0.00000E+000	2.42991E-004	1.68088E-001	8.66384E-001	3.57870E+000	9	...........
	61	0.826667	8.67695E-001	2.81263E-004	0.00000E+000	2.44050E-004	1.68088E-001	8.68013E-001	3.57870E+000	9	...........
	62	0.84	8.69361E-001	2.80167E-004	0.00000E+000	2.43566E-004	1.68088E-001	8.69669E-001	3.57870E+000	9	...........
	63	0.853333	8.70971E-001	2.81170E-004	0.00000E+000	2.44891E-004	1.68088E-001	8.71277E-001	3.57870E+000	9	...........
	64	0.866667	8.72545E-001	2.82025E-004	0.00000E+000	2.46080E-004	1.68088E-001	8.72888E-001	3.57870E+000	9	...........
	65	0.88	8.74116E-001	2.80543E-004	0.00000E+000	2.45227E-004	1.68088E-001	8.74451E-001	3.57870E+000	9	...........
	66	0.893333	8.75665E-001	2.81237E-004	0.00000E+000	2.46269E-004	1.68088E-001	8.76023E-001	3.57870E+000	9	...........
	67	0.906667	8.77216E-001	2.81192E-004	0.00000E+000	2.46666E-004	1.68088E-001	8.77552E-001	3.57870E+000	9	...........
	68	0.92	8.78691E-001	2.80913E-004	0.00000E+000	2.46835E-004	1.68088E-001	8.79027E-001	3.57870E+000	9	...........
	69	0.933333	8.80184E-001	2.80928E-004	0.00000E+000	2.47269E-004	1.68088E-001	8.80524E-001	3.57870E+000	9	...........
	70	0.946667	8.81677E-001	2.81230E-004	0.00000E+000	2.47955E-004	1.68088E-001	8.82027E-001	3.57870E+000	9	...........
	71	0.96	8.83147E-001	2.81253E-004	0.00000E+000	2.48388E-004	1.68088E-001	8.83496E-001	3.57870E+000	9	...........
	72	0.97333	8.84591E-001	2.81608E-004	0.00000E+000	2.49108E-004	1.68088E-001	8.84915E-001	3.57870E+000	9	...........
	73	0.98667	8.86001E-001	2.81215E-004	0.00000E+000	2.49157E-004	1.68088E-001	8.86354E-001	3.57870E+000	9	...........
	74	1	8.87393E-001	2.81291E-004	0.00000E+000	2.49616E-004	1.68088E-001	8.87743E-001	3.57870E+000	9	...........
	75	1.01333	8.88766E-001	2.81613E-004	0.00000E+000	2.50288E-004	1.68088E-001	8.89111E-001	3.57870E+000	9	...........
	76	1.02667	8.90190E-001	2.80839E-004	0.00000E+000	2.50000E-004	1.68088E-001	8.90507E-001	3.57870E+000	9	...........
	77	1.04	8.91540E-001	2.81542E-004	0.00000E+000	2.51006E-004	1.68088E-001	8.91892E-001	3.57870E+000	9	...........
	78	1.05333	8.92905E-001	2.81312E-004	0.00000E+000	2.51185E-004	1.68088E-001	8.93259E-001	3.57870E+000	9	...........
	79	1.06667	8.94201E-001	2.80771E-004	0.00000E+000	2.51066E-004	1.68088E-001	8.94603E-001	3.57870E+000	9	...........
	80	1.08	8.95520E-001	2.81285E-004	0.00000E+000	2.51896E-004	1.68088E-001	8.95939E-001	3.57870E+000	9	...........
	81	1.09333	8.96843E-001	2.81444E-004	0.00000E+000	2.52411E-004	1.68088E-001	8.97214E-001	3.57870E+000	9	...........
	82	1.10667	8.98095E-001	2.81901E-004	0.00000E+000	2.53174E-004	1.68088E-001	8.98484E-001	3.57857E+000	9	...........
	83	1.12	8.99355E-001	2.81673E-004	0.00000E+000	2.53324E-004	1.68088E-001	8.99714E-001	3.57850E+000	9	...........
	84	1.13333	9.00621E-001	2.81377E-004	0.00000E+000	2.53414E-004	1.68088E-001	9.01012E-001	3.57850E+000	9	...........
	85	1.14667	9.01911E-001	2.81454E-004	0.00000E+000	2.53847E-004	1.68088E-001	9.02262E-001	3.57850E+000	9	...........
	86	1.16	9.03176E-001	2.81151E-004	0.00000E+000	2.53929E-004	1.68088E-001	9.03542E-001	3.57850E+000	9	...........
	87	1.17333	9.04426E-001	2.80871E-004	0.00000E+000	2.54027E-004	1.68088E-001	9.04770E-001	3.57850E+000	9	...........
	88	1.18667	9.05700E-001	2.80907E-004	0.00000E+000	2.54418E-004	1.68088E-001	9.06035E-001	3.57850E+000	9	...........
	89	1.2	9.06944E-001	2.80944E-004	0.00000E+000	2.54800E-004	1.68088E-001	9.07322E-001	3.57850E+000	9	...........
	90	1.21333	9.08205E-001	2.80631E-004	0.00000E+000	2.54871E-004	1.68088E-001	9.08578E-001	3.57850E+000	9	...........
	91	1.22667	9.09408E-001	2.81125E-004	0.00000E+000	2.55657E-004	1.68088E-001	9.09742E-001	3.57850E+000	9	...........
	92	1.24	9.10599E-001	2.81668E-004	0.00000E+000	2.56487E-004	1.68088E-001	9.10939E-001	3.57850E+000	9	...........
	93	1.25333	9.11796E-001	2.80690E-004	0.00000E+000	2.55932E-004	1.68088E-001	9.12109E-001	3.57850E+000	9	...........
	94	1.26667	9.12958E-001	2.80876E-004	0.00000E+000	2.56428E-004	1.68088E-001	9.13303E-001	3.57850E+000	9	...........
	95	1.28	9.14152E-001	2.81425E-004	0.00000E+000	2.57265E-004	1.68088E-001	9.14504E-001	3.57850E+000	9	...........
	96	1.29333	9.15297E-001	2.81229E-004	0.00000E+000	2.57409E-004	1.68088E-001	9.15662E-001	3.57850E+000	9	...........
	97	1.30667	9.16404E-001	2.81576E-004	0.00000E+000	2.58038E-004	1.68088E-001	9.16794E-001	3.57850E+000	9	...........
	98	1.32	9.17551E-001	2.81886E-004	0.00000E+000	2.58644E-004	1.68088E-001	9.17940E-001	3.57850E+000	9	...........
	99	1.33333	9.18707E-001	2.80624E-004	0.00000E+000	2.57811E-004	1.68088E-001	9.19069E-001	3.57850E+000	9	...........
	100	1.34667	9.19848E-001	2.80817E-004	0.00000E+000	2.58309E-004	1.68088E-001	9.20244E-001	3.57850E+000	9	...........
	101	1.36	9.21028E-001	2.81034E-004	0.00000E+000	2.58840E-004	1.68088E-001	9.21343E-001	3.57850E+000	9	...........
	102	1.37333	9.22115E-001	2.81088E-004	0.00000E+000	2.59195E-004	1.68088E-001	9.22449E-001	3.57850E+000	9	...........
	103	1.38667	9.23206E-001	2.80918E-004	0.00000E+000	2.59345E-004	1.68088E-001	9.23520E-001	3.57850E+000	9	...........
	104	1.4	9.24231E-001	2.80901E-004	0.00000E+000	2.59617E-004	1.68088E-001	9.24558E-001	3.57850E+000	9	...........
	105	1.41333	9.25243E-001	2.81111E-004	0.00000E+000	2.60096E-004	1.68088E-001	9.25590E-001	3.57850E+000	9	...........
	106	1.42667	9.26279E-001	2.81220E-004	0.00000E+000	2.60488E-004	1.68088E-001	9.26639E-001	3.57850E+000	9	...........
	107	1.44	9.27328E-001	2.80573E-004	0.00000E+000	2.60183E-004	1.68088E-001	9.27695E-001	3.57850E+000	9	...........
	108	1.45333	9.28388E-001	2.81167E-004	0.00000E+000	2.61032E-004	1.68088E-001	9.28739E-001	3.57850E+000	9	...........
	109	1.46667	9.29456E-001	2.81639E-004	0.00000E+000	2.61771E-004	1.68088E-001	9.29784E-001	3.57850E+000	9	...........
	110	1.48	9.30510E-001	2.81186E-004	0.00000E+000	2.61646E-004	1.68088E-001	9.30844E-001	3.57850E+000	9	...........
	111	1.49333	9.31549E-001	2.81562E-004	0.00000E+000	2.62289E-004	1.68088E-001	9.31886E-001	3.57850E+000	9	...........
	112	1.50667	9.32551E-001	2.80321E-004	0.00000E+000	2.61414E-004	1.68088E-001	9.32909E-001	3.57850E+000	9	...........
	113	1.52	9.33569E-001	2.81666E-004	0.00000E+000	2.62955E-004	1.68088E-001	9.33937E-001	3.57850E+000	9	...........
	114	1.53333	9.34596E-001	2.80875E-004	0.00000E+000	2.62505E-004	1.68088E-001	9.34963E-001	3.57850E+000	9	...........
	115	1.54667	9.35650E-001	2.80915E-004	0.00000E+000	2.62838E-004	1.68088E-001	9.35994E-001	3.57850E+000	9	...........
	116	1.56	9.36669E-001	2.81596E-004	0.00000E+000	2.63762E-004	1.68088E-001	9.37023E-001	3.57850E+000	9	...........
	117	1.57333	9.37650E-001	2.81272E-004	0.00000E+000	2.63735E-004	1.68088E-001	9.38041E-001	3.57850E+000	9	...........
	118	1.58667	9.38628E-001	2.80857E-004	0.00000E+000	2.63621E-004	1.68088E-001	9.39005E-001	3.57850E+000	9	...........
	119	1.6	9.39625E-001	2.81409E-004	0.00000E+000	2.64419E-004	1.68088E-001	9.40005E-001	3.57850E+000	9	...........
	120	1.61333	9.40627E-001	2.81470E-004	0.00000E+000	2.64758E-004	1.68088E-001	9.41011E-001	3.57850E+000	9	...........
	121	1.62667	9.41596E-001	2.80702E-004	0.00000E+000	2.64308E-004	1.68088E-001	9.41956E-001	3.57850E+000	9	...........
	122	1.64	9.42546E-001	2.80847E-004	0.00000E+000	2.64711E-004	1.68088E-001	9.42931E-001	3.57850E+000	9	...........
	123	1.65333	9.43439E-001	2.80661E-004	0.00000E+000	2.64786E-004	1.68088E-001	9.43844E-001	3.57850E+000	9	...........
	124	1.66667	9.44395E-001	2.81363E-004	0.00000E+000	2.65718E-004	1.68088E-001	9.44799E-001	3.57850E+000	9	...........
	125	1.68	9.45367E-001	2.81467E-004	0.00000E+000	2.66090E-004	1.68088E-001	9.45779E-001	3.57850E+000	9	...........
	126	1.69333	9.46337E-001	2.81146E-004	0.00000E+000	2.66059E-004	1.68088E-001	9.46753E-001	3.57850E+000	9	...........
	127	1.70667	9.47309E-001	2.81283E-004	0.00000E+000	2.66462E-004	1.68088E-001	9.47701E-001	3.57850E+000	9	...........
	128	1.72	9.48251E-001	2.81074E-004	0.00000E+000	2.66529E-004	1.68088E-001	9.48640E-001	3.57850E+000	9	...........
	129	1.73333	9.49197E-001	2.81430E-004	0.00000E+000	2.67133E-004	1.68088E-001	9.49610E-001	3.57850E+000	9	...........
	130	1.74667	9.50124E-001	2.81372E-004	0.00000E+000	2.67338E-004	1.68088E-001	9.50504E-001	3.57850E+000	9	...........
	131	1.76	9.50995E-001	2.81592E-004	0.00000E+000	2.67793E-004	1.68088E-001	9.51426E-001	3.57850E+000	9	...........
	132	1.77333	9.51918E-001	2.81816E-004	0.00000E+000	2.68266E-004	1.68088E-001	9.52304E-001	3.57850E+000	9	...........
	133	1.78667	9.52805E-001	2.81425E-004	0.00000E+000	2.68143E-004	1.68088E-001	9.53183E-001	3.57850E+000	9	...........
	134	1.8	9.53686E-001	2.81420E-004	0.00000E+000	2.68387E-004	1.68088E-001	9.54044E-001	3.57850E+000	9	...........
	135	1.81333	9.54527E-001	2.81547E-004	0.00000E+000	2.68744E-004	1.68088E-001	9.54888E-001	3.57850E+000	9	...........
	136	1.82667	9.55382E-001	2.80745E-004	0.00000E+000	2.68219E-004	1.68088E-001	9.55746E-001	3.57850E+000	9	...........
	137	1.84	9.56257E-001	2.81739E-004	0.00000E+000	2.69415E-004	1.68088E-001	9.56633E-001	3.57850E+000	9	...........
	138	1.85333	9.57145E-001	2.81153E-004	0.00000E+000	2.69105E-004	1.68088E-001	9.57529E-001	3.57850E+000	9	...........
	139	1.86667	9.57976E-001	2.81128E-004	0.00000E+000	2.69314E-004	1.68088E-001	9.58378E-001	3.57850E+000	9	...........
	140	1.88	9.58790E-001	2.80829E-004	0.00000E+000	2.69256E-004	1.68088E-001	9.59206E-001	3.57850E+000	9	...........
	141	1.89333	9.59632E-001	2.81224E-004	0.00000E+000	2.69872E-004	1.68088E-001	9.60024E-001	3.57850E+000	9	...........
	142	1.90667	9.60468E-001	2.81561E-004	0.00000E+000	2.70430E-004	1.68088E-001	9.60880E-001	3.57850E+000	9	...........
	143	1.92	9.61237E-001	2.81149E-004	0.00000E+000	2.70251E-004	1.68088E-001	9.61646E-001	3.57850E+000	9	...........
	144	1.93333	9.62073E-001	2.81046E-004	0.00000E+000	2.70387E-004	1.68088E-001	9.62471E-001	3.57850E+000	9	...........
	145	1.94667	9.62880E-001	2.81131E-004	0.00000E+000	2.70696E-004	1.68088E-001	9.63301E-001	3.57850E+000	9	...........
	146	1.96	9.63693E-001	2.81254E-004	0.00000E+000	2.71043E-004	1.68088E-001	9.64101E-001	3.57850E+000	9	...........
	147	1.97333	9.64509E-001	2.81152E-004	0.00000E+000	2.71174E-004	1.68088E-001	9.64890E-001	3.57850E+000	9	...........
	148	1.98667	9.65297E-001	2.81267E-004	0.00000E+000	2.71506E-004	1.68088E-001	9.65680E-001	3.57850E+000	9	...........
	149	2	9.66129E-001	2.81295E-004	0.00000E+000	2.71767E-004	1.68088E-001	9.66493E-001	3.57850E+000	9	...........
	150	2.01333	9.66940E-001	2.81029E-004	0.00000E+000	2.71739E-004	1.68088E-001	9.67284E-001	3.57850E+000	9	...........
	151	2.02667	9.67747E-001	2.81067E-004	0.00000E+000	2.72002E-004	1.68088E-001	9.68093E-001	3.57850E+000	9	...........
	152	2.04	9.68511E-001	2.81155E-004	0.00000E+000	2.72302E-004	1.68088E-001	9.68873E-001	3.57850E+000	9	...........
	153	2.05333	9.69306E-001	2.80625E-004	0.00000E+000	2.72012E-004	1.68088E-001	9.69666E-001	3.57850E+000	9	...........
	154	2.06667	9.70077E-001	2.81510E-004	0.00000E+000	2.73086E-004	1.68088E-001	9.70469E-001	3.57850E+000	9	...........
	155	2.08	9.70860E-001	2.80950E-004	0.00000E+000	2.72763E-004	1.68088E-001	9.71259E-001	3.57850E+000	9	...........
	156	2.09333	9.71621E-001	2.81398E-004	0.00000E+000	2.73412E-004	1.68088E-001	9.72049E-001	3.57850E+000	9	...........
	157	2.10667	9.72428E-001	2.81101E-004	0.00000E+000	2.73351E-004	1.68088E-001	9.72848E-001	3.57818E+000	9	...........
	158	2.12	9.73257E-001	2.81566E-004	0.00000E+000	2.74036E-004	1.68088E-001	9.73635E-001	3.57800E+000	9	...........
	159	2.13333	9.74054E-001	2.81131E-004	0.00000E+000	2.73837E-004	1.68088E-001	9.74428E-001	3.57800E+000	9	...........
	160	2.14667	9.74813E-001	2.81147E-004	0.00000E+000	2.74066E-004	1.68088E-001	9.75198E-001	3.57800E+000	9	...........
	161	2.16	9.75574E-001	2.80539E-004	0.00000E+000	2.73686E-004	1.68088E-001	9.75944E-001	3.57800E+000	9	...........
	162	2.17333	9.76306E-001	2.80726E-004	0.00000E+000	2.74075E-004	1.68088E-001	9.76708E-001	3.57800E+000	9	...........
	163	2.18667	9.77045E-001	2.80564E-004	0.00000E+000	2.74123E-004	1.68088E-001	9.77425E-001	3.57800E+000	9	...........
	164	2.2	9.77770E-001	2.81307E-004	0.00000E+000	2.75053E-004	1.68088E-001	9.78128E-001	3.57800E+000	9	...........
	165	2.21333	9.78497E-001	2.81253E-004	0.00000E+000	2.75206E-004	1.68088E-001	9.78830E-001	3.57800E+000	9	...........
	166	2.22667	9.79227E-001	2.80740E-004	0.00000E+000	2.74908E-004	1.68088E-001	9.79524E-001	3.57800E+000	9	...........
	167	2.24	9.79934E-001	2.81387E-004	0.00000E+000	2.75740E-004	1.68088E-001	9.80283E-001	3.57800E+000	9	...........
	168	2.25333	9.80654E-001	2.81324E-004	0.00000E+000	2.75882E-004	1.68088E-001	9.81004E-001	3.57800E+000	9	...........
	169	2.26667	9.81343E-001	2.81388E-004	0.00000E+000	2.76138E-004	1.68088E-001	9.81705E-001	3.57800E+000	9	...........
	170	2.28	9.82016E-001	2.81054E-004	0.00000E+000	2.76000E-004	1.68088E-001	9.82395E-001	3.57800E+000	9	...........
	171	2.29333	9.82725E-001	2.81380E-004	0.00000E+000	2.76520E-004	1.68088E-001	9.83125E-001	3.57800E+000	9	...........
	172	2.30667	9.83437E-001	2.81772E-004	0.00000E+000	2.77105E-004	1.68088E-001	9.83826E-001	3.57800E+000	9	...........
	173	2.32	9.84118E-001	2.81195E-004	0.00000E+000	2.76729E-004	1.68088E-001	9.84544E-001	3.57800E+000	9	...........
	174	2.33333	9.84828E-001	2.81561E-004	0.00000E+000	2.77289E-004	1.68088E-001	9.85239E-001	3.57800E+000	9	...........
	175	2.34667	9.85486E-001	2.81139E-004	0.00000E+000	2.77058E-004	1.68088E-001	9.85900E-001	3.57800E+000	9	...........
	176	2.36	9.86142E-001	2.80965E-004	0.00000E+000	2.77071E-004	1.68088E-001	9.86570E-001	3.57800E+000	9	...........
	177	2.37333	9.86835E-001	2.80812E-004	0.00000E+000	2.77115E-004	1.68088E-001	9.87246E-001	3.57800E+000	9	...........
	178	2.38667	9.87489E-001	2.81078E-004	0.00000E+000	2.77562E-004	1.68088E-001	9.87906E-001	3.57800E+000	9	...........
	179	2.4	9.88158E-001	2.80676E-004	0.00000E+000	2.77352E-004	1.68088E-001	9.88585E-001	3.57800E+000	9	...........
	180	2.41333	9.88857E-001	2.81069E-004	0.00000E+000	2.77937E-004	1.68088E-001	9.89262E-001	3.57800E+000	9	...........
	181	2.42667	9.89532E-001	2.81710E-004	0.00000E+000	2.78761E-004	1.68088E-001	9.89909E-001	3.57800E+000	9	...........
	182	2.44	9.90155E-001	2.81956E-004	0.00000E+000	2.79180E-004	1.68088E-001	9.90567E-001	3.57800E+000	9	...........
	183	2.45333	9.90800E-001	2.81350E-004	0.00000E+000	2.78762E-004	1.68088E-001	9.91195E-001	3.57800E+000	9	...........
	184	2.46667	9.91438E-001	2.81670E-004	0.00000E+000	2.79258E-004	1.68088E-001	9.91809E-001	3.57800E+000	9	...........
	185	2.48	9.92057E-001	2.80843E-004	0.00000E+000	2.78612E-004	1.68088E-001	9.92444E-001	3.57800E+000	9	...........
	186	2.49333	9.92685E-001	2.81484E-004	0.00000E+000	2.79424E-004	1.68088E-001	9.93082E-001	3.57800E+000	9	...........
	187	2.50667	9.93342E-001	2.81142E-004	0.00000E+000	2.79270E-004	1.68088E-001	9.93729E-001	3.57800E+000	9	...........
	188	2.52	9.93976E-001	2.81239E-004	0.00000E+000	2.79545E-004	1.68088E-001	9.94369E-001	3.57800E+000	9	...........
	189	2.53333	9.94597E-001	2.80847E-004	0.00000E+000	2.79330E-004	1.68088E-001	9.95002E-001	3.57800E+000	9	...........
	190	2.54667	9.95207E-001	2.81011E-004	0.00000E+000	2.79664E-004	1.68088E-001	9.95576E-001	3.57800E+000	9	...........
	191	2.56	9.95848E-001	2.80890E-004	0.00000E+000	2.79724E-004	1.68088E-001	9.96222E-001	3.57800E+000	9	...........
	192	2.57333	9.96501E-001	2.81734E-004	0.00000E+000	2.80748E-004	1.68088E-001	9.96872E-001	3.57800E+000	9	...........
	193	2.58667	9.97139E-001	2.81483E-004	0.00000E+000	2.80677E-004	1.68088E-001	9.97560E-001	3.57800E+000	9	...........
	194	2.6	9.97786E-001	2.81145E-004	0.00000E+000	2.80523E-004	1.68088E-001	9.98180E-001	3.57800E+000	9	...........
	195	2.61333	9.98427E-001	2.80848E-004	0.00000E+000	2.80406E-004	1.68088E-001	9.98807E-001	3.57800E+000	9	...........
	196	2.62667	9.98979E-001	2.80976E-004	0.00000E+000	2.80689E-004	1.68088E-001	9.99376E-001	3.57800E+000	9	...........
	197	2.64	9.99605E-001	2.80781E-004	0.00000E+000	2.80670E-004	1.68088E-001	9.99984E-001	3.57800E+000	9	...........
	198	2.64167	1.00001E+000	2.80936E-004	0.00000E+000	2.80937E-004	1.68088E-001	1.00032E+000	3.57800E+000	9	...........
STARTTIMEOFFSET	QUANT	68.81168	Start Time Offset (s)
