EXPLAIN
TAG	PWR800_CHARGE
TITLE	LABEL	PWR Cyclic Charge Discharge (Cell) - Charge Step	Test &Identifier
DATE	LABEL	7-7-2017	Date
TIME	LABEL	16:07:28	Time
NOTES	NOTES	3	&Notes...
	supercap test cell
	2.8mg
	6M KOH
PSTAT	PSTAT	IFC5000-01520	Potentiostat
CAPACITY	QUANT	1.00000E-003	Capacity (A-hr)
CELLTYPE	SELECTOR	1	&Cell Type
WORKINGCONNECTION	SELECTOR	0	&Working Lead
MAXCHARGETIME	VARIABLEANDUNITS	1.00000E+002	s	1.00000E+002	second(s)	Max &Charge Time
CHARGECURRENT	QUANT	2.80000E-004	&Charge Current (A) 
VOLTAGEFINISH	TWOPARAM	F	1.00000E-003	3.60000E+003	&Voltage Finish	 I (A) < 	Max Time(s)
SAMPLETIME	QUANT	1.00000E-002	Sa&mple Period (s)
CHARGESTOPAT1	MULTIPARAM	4	1.00000E+000	Charge Stop At &1	Voltage > Limit	V
CHARGESTOPAT2	MULTIPARAM	0	0.00000E+000	Charge Stop At &2	None	N/A
AESBHCSELECTOR	TOGGLE	F	Save Both Half Cells
IRCOMP	TOGGLE	F	IR &Measure
EOC	QUANT	0	Open Circuit (V)
SEQUENCER	TOGGLE	TRUE	Run as Sequence
PSTATMODEL	IQUANT	53	Pstat Model
PSTATSECTION	LABEL	IFC5000-01520	Pstat Section
PSTATSERIALNO	LABEL	01520	Pstat Serial Number
CTRLMODE	IQUANT	0	Control Mode
ELECTROMETER	IQUANT	1	RE=0 or CS=1
IESTAB	IQUANT	0	I/E Stability
CASPEED	IQUANT	4	Control Amp Speed
CONVENTION	IQUANT	1	Current Convention
ICHRANGE	IQUANT	2	Ich Range
ICHRANGEMODE	TOGGLE	T	Ich Auto Range
ICHOFFSETENABLE	TOGGLE	F	Ich Offset Enable
ICHOFFSET	QUANT	0	Ich Offset (V)
ICHFILTER	IQUANT	1	Ich Filter
VCHRANGE	IQUANT	2	Vch Range
VCHRANGEMODE	TOGGLE	T	Vch Auto Range
VCHOFFSETENABLE	TOGGLE	F	Vch Offset Enable
VCHOFFSET	QUANT	0	Vch Offset (V)
VCHFILTER	IQUANT	1	Vch Filter
IERANGELOWERLIMIT	IQUANT	9	I/E Range Lower Limit
IERANGEMODE	TOGGLE	F	I/E AutoRange
IERANGE	IQUANT	9	I/E Range
ACHSELECT	IQUANT	1	Ach Select
ACHRANGE	IQUANT	2	Ach Range
ACHOFFSETENABLE	TOGGLE	F	Ach Offset Enable
ACHOFFSET	QUANT	0	Ach Offset (V)
ACHFILTER	IQUANT	1	Ach Filter
CABLEID	IQUANT	14	Cable ID
DCCALDATE	LABEL	5-7-2017	DC Calibration Date
ACCALDATE	LABEL	12/3/2015	AC Calibration Date
FRAMEWORKVERSION	QUANT	7.01	Framework Version
INSTRUMENTVERSION	LABEL	4.00	Instrument Version
CURVE	TABLE	71
	Pt	T	Vf	Im	Vu	Pwr	Sig	Ach	Temp	IERange	Over
	#	s	V	A	V	W	V	V	deg C	#	bits
	0	0.013333	6.31187E-001	2.81114E-004	0.00000E+000	1.77435E-004	1.68088E-001	6.31457E-001	3.57880E+000	9	...........
	1	0.026667	6.59220E-001	2.82148E-004	0.00000E+000	1.85998E-004	1.68088E-001	6.59504E-001	3.57880E+000	9	...........
	2	0.04	6.83083E-001	2.81161E-004	0.00000E+000	1.92056E-004	1.68088E-001	6.83367E-001	3.57880E+000	9	...........
	3	0.053333	7.03864E-001	2.83049E-004	0.00000E+000	1.99228E-004	1.68088E-001	7.04154E-001	3.57880E+000	9	...........
	4	0.066667	7.22313E-001	2.81916E-004	0.00000E+000	2.03632E-004	1.68088E-001	7.22610E-001	3.57880E+000	9	...........
	5	0.08	7.38908E-001	2.80459E-004	0.00000E+000	2.07234E-004	1.68088E-001	7.39186E-001	3.57880E+000	9	...........
	6	0.093333	7.53936E-001	2.80512E-004	0.00000E+000	2.11488E-004	1.68088E-001	7.54216E-001	3.57880E+000	9	...........
	7	0.106667	7.67631E-001	2.80860E-004	0.00000E+000	2.15597E-004	1.68088E-001	7.67936E-001	3.57880E+000	9	...........
	8	0.12	7.80205E-001	2.82102E-004	0.00000E+000	2.20098E-004	1.68088E-001	7.80485E-001	3.57880E+000	9	...........
	9	0.133333	7.91772E-001	2.80763E-004	0.00000E+000	2.22300E-004	1.68088E-001	7.92071E-001	3.57880E+000	9	...........
	10	0.146667	8.02487E-001	2.81920E-004	0.00000E+000	2.26237E-004	1.68088E-001	8.02786E-001	3.57880E+000	9	...........
	11	0.16	8.12374E-001	2.80422E-004	0.00000E+000	2.27808E-004	1.68088E-001	8.12710E-001	3.57880E+000	9	...........
	12	0.173333	8.21604E-001	2.81874E-004	0.00000E+000	2.31589E-004	1.68088E-001	8.21957E-001	3.57880E+000	9	...........
	13	0.186667	8.30211E-001	2.80328E-004	0.00000E+000	2.32731E-004	1.68088E-001	8.30547E-001	3.57880E+000	9	...........
	14	0.2	8.38255E-001	2.80623E-004	0.00000E+000	2.35234E-004	1.68088E-001	8.38582E-001	3.57880E+000	9	...........
	15	0.213333	8.45840E-001	2.80491E-004	0.00000E+000	2.37250E-004	1.68088E-001	8.46197E-001	3.57880E+000	9	...........
	16	0.226667	8.52925E-001	2.81596E-004	0.00000E+000	2.40181E-004	1.68088E-001	8.53294E-001	3.57880E+000	9	...........
	17	0.24	8.59598E-001	2.80912E-004	0.00000E+000	2.41471E-004	1.68088E-001	8.59981E-001	3.57880E+000	9	...........
	18	0.253333	8.65849E-001	2.81509E-004	0.00000E+000	2.43744E-004	1.68088E-001	8.66222E-001	3.57880E+000	9	...........
	19	0.266667	8.71786E-001	2.80729E-004	0.00000E+000	2.44736E-004	1.68088E-001	8.72151E-001	3.57845E+000	9	...........
	20	0.28	8.77388E-001	2.82179E-004	0.00000E+000	2.47580E-004	1.68088E-001	8.77747E-001	3.57810E+000	9	...........
	21	0.293333	8.82694E-001	2.81289E-004	0.00000E+000	2.48292E-004	1.68088E-001	8.83037E-001	3.57810E+000	9	...........
	22	0.306667	8.87683E-001	2.81939E-004	0.00000E+000	2.50272E-004	1.68088E-001	8.88029E-001	3.57810E+000	9	...........
	23	0.32	8.92444E-001	2.81653E-004	0.00000E+000	2.51360E-004	1.68088E-001	8.92790E-001	3.57810E+000	9	...........
	24	0.333333	8.96975E-001	2.81592E-004	0.00000E+000	2.52581E-004	1.68088E-001	8.97290E-001	3.57810E+000	9	...........
	25	0.346667	9.01281E-001	2.81047E-004	0.00000E+000	2.53302E-004	1.68088E-001	9.01627E-001	3.57810E+000	9	...........
	26	0.36	9.05400E-001	2.80818E-004	0.00000E+000	2.54252E-004	1.68088E-001	9.05713E-001	3.57810E+000	9	...........
	27	0.373333	9.09353E-001	2.80955E-004	0.00000E+000	2.55488E-004	1.68088E-001	9.09682E-001	3.57810E+000	9	...........
	28	0.386667	9.13110E-001	2.80801E-004	0.00000E+000	2.56402E-004	1.68088E-001	9.13443E-001	3.57810E+000	9	...........
	29	0.4	9.16715E-001	2.81200E-004	0.00000E+000	2.57781E-004	1.68088E-001	9.17064E-001	3.57810E+000	9	...........
	30	0.413333	9.20202E-001	2.81466E-004	0.00000E+000	2.59005E-004	1.68088E-001	9.20518E-001	3.57810E+000	9	...........
	31	0.426667	9.23545E-001	2.81123E-004	0.00000E+000	2.59630E-004	1.68088E-001	9.23837E-001	3.57810E+000	9	...........
	32	0.44	9.26736E-001	2.81339E-004	0.00000E+000	2.60727E-004	1.68088E-001	9.27052E-001	3.57810E+000	9	...........
	33	0.453333	9.29810E-001	2.81622E-004	0.00000E+000	2.61855E-004	1.68088E-001	9.30127E-001	3.57810E+000	9	...........
	34	0.466667	9.32780E-001	2.81556E-004	0.00000E+000	2.62629E-004	1.68088E-001	9.33100E-001	3.57810E+000	9	...........
	35	0.48	9.35619E-001	2.81807E-004	0.00000E+000	2.63664E-004	1.68088E-001	9.35959E-001	3.57810E+000	9	...........
	36	0.493333	9.38367E-001	2.81068E-004	0.00000E+000	2.63745E-004	1.68088E-001	9.38704E-001	3.57810E+000	9	...........
	37	0.506667	9.41017E-001	2.80552E-004	0.00000E+000	2.64004E-004	1.68088E-001	9.41321E-001	3.57810E+000	9	...........
	38	0.52	9.43606E-001	2.81660E-004	0.00000E+000	2.65776E-004	1.68088E-001	9.43960E-001	3.57810E+000	9	...........
	39	0.533333	9.46159E-001	2.82654E-004	0.00000E+000	2.67435E-004	1.68088E-001	9.46533E-001	3.57810E+000	9	...........
	40	0.546667	9.48627E-001	2.80932E-004	0.00000E+000	2.66500E-004	1.68088E-001	9.48995E-001	3.57810E+000	9	...........
	41	0.56	9.50958E-001	2.81954E-004	0.00000E+000	2.68126E-004	1.68088E-001	9.51331E-001	3.57810E+000	9	...........
	42	0.573333	9.53238E-001	2.80712E-004	0.00000E+000	2.67585E-004	1.68088E-001	9.53618E-001	3.57810E+000	9	...........
	43	0.586667	9.55458E-001	2.80970E-004	0.00000E+000	2.68455E-004	1.68088E-001	9.55829E-001	3.57810E+000	9	...........
	44	0.6	9.57667E-001	2.80931E-004	0.00000E+000	2.69039E-004	1.68088E-001	9.58046E-001	3.57810E+000	9	...........
	45	0.613333	9.59791E-001	2.81001E-004	0.00000E+000	2.69703E-004	1.68088E-001	9.60155E-001	3.57810E+000	9	...........
	46	0.626667	9.61843E-001	2.81582E-004	0.00000E+000	2.70837E-004	1.68088E-001	9.62226E-001	3.57810E+000	9	...........
	47	0.64	9.63813E-001	2.80577E-004	0.00000E+000	2.70424E-004	1.68088E-001	9.64198E-001	3.57810E+000	9	...........
	48	0.653333	9.65751E-001	2.82513E-004	0.00000E+000	2.72837E-004	1.68088E-001	9.66125E-001	3.57810E+000	9	...........
	49	0.666667	9.67682E-001	2.82446E-004	0.00000E+000	2.73318E-004	1.68088E-001	9.68048E-001	3.57810E+000	9	...........
	50	0.68	9.69535E-001	2.80594E-004	0.00000E+000	2.72046E-004	1.68088E-001	9.69908E-001	3.57810E+000	9	...........
	51	0.693333	9.71349E-001	2.82672E-004	0.00000E+000	2.74574E-004	1.68088E-001	9.71766E-001	3.57810E+000	9	...........
	52	0.706667	9.73179E-001	2.82890E-004	0.00000E+000	2.75303E-004	1.68088E-001	9.73566E-001	3.57810E+000	9	...........
	53	0.72	9.74919E-001	2.80936E-004	0.00000E+000	2.73890E-004	1.68088E-001	9.75314E-001	3.57810E+000	9	...........
	54	0.733333	9.76626E-001	2.82350E-004	0.00000E+000	2.75751E-004	1.68088E-001	9.77009E-001	3.57810E+000	9	...........
	55	0.746667	9.78303E-001	2.82347E-004	0.00000E+000	2.76221E-004	1.68088E-001	9.78696E-001	3.57810E+000	9	...........
	56	0.76	9.79945E-001	2.81647E-004	0.00000E+000	2.75999E-004	1.68088E-001	9.80306E-001	3.57810E+000	9	...........
	57	0.773333	9.81552E-001	2.80105E-004	0.00000E+000	2.74938E-004	1.68088E-001	9.81921E-001	3.57810E+000	9	...........
	58	0.786667	9.83142E-001	2.81957E-004	0.00000E+000	2.77204E-004	1.68088E-001	9.83532E-001	3.57810E+000	9	...........
	59	0.8	9.84714E-001	2.81405E-004	0.00000E+000	2.77104E-004	1.68088E-001	9.85099E-001	3.57810E+000	9	...........
	60	0.813333	9.86290E-001	2.82342E-004	0.00000E+000	2.78471E-004	1.68088E-001	9.86666E-001	3.57810E+000	9	...........
	61	0.826667	9.87769E-001	2.81371E-004	0.00000E+000	2.77930E-004	1.68088E-001	9.88181E-001	3.57810E+000	9	...........
	62	0.84	9.89253E-001	2.80855E-004	0.00000E+000	2.77837E-004	1.68088E-001	9.89661E-001	3.57810E+000	9	...........
	63	0.853333	9.90706E-001	2.81507E-004	0.00000E+000	2.78890E-004	1.68088E-001	9.91084E-001	3.57810E+000	9	...........
	64	0.866667	9.92123E-001	2.81633E-004	0.00000E+000	2.79414E-004	1.68088E-001	9.92532E-001	3.57810E+000	9	...........
	65	0.88	9.93542E-001	2.79850E-004	0.00000E+000	2.78043E-004	1.68088E-001	9.93949E-001	3.57810E+000	9	...........
	66	0.893333	9.94972E-001	2.81549E-004	0.00000E+000	2.80134E-004	1.68088E-001	9.95351E-001	3.57810E+000	9	...........
	67	0.906667	9.96342E-001	2.82996E-004	0.00000E+000	2.81961E-004	1.68088E-001	9.96741E-001	3.57810E+000	9	...........
	68	0.92	9.97744E-001	2.82022E-004	0.00000E+000	2.81386E-004	1.68088E-001	9.98147E-001	3.57810E+000	9	...........
	69	0.933333	9.99109E-001	2.82217E-004	0.00000E+000	2.81966E-004	1.68088E-001	9.99530E-001	3.57810E+000	9	...........
	70	0.936667	9.99916E-001	2.80436E-004	0.00000E+000	2.80412E-004	1.68088E-001	1.00036E+000	3.57810E+000	9	...........
STARTTIMEOFFSET	QUANT	1421.557	Start Time Offset (s)
