EXPLAIN
TAG	PWR800_CHARGE
TITLE	LABEL	PWR Cyclic Charge Discharge (Cell) - Charge Step	Test &Identifier
DATE	LABEL	7-7-2017	Date
TIME	LABEL	16:00:02	Time
NOTES	NOTES	3	&Notes...
	supercap test cell
	2.8mg
	6M KOH
PSTAT	PSTAT	IFC5000-01520	Potentiostat
CAPACITY	QUANT	1.00000E-003	Capacity (A-hr)
CELLTYPE	SELECTOR	1	&Cell Type
WORKINGCONNECTION	SELECTOR	0	&Working Lead
MAXCHARGETIME	VARIABLEANDUNITS	1.00000E+002	s	1.00000E+002	second(s)	Max &Charge Time
CHARGECURRENT	QUANT	2.80000E-004	&Charge Current (A) 
VOLTAGEFINISH	TWOPARAM	F	1.00000E-003	3.60000E+003	&Voltage Finish	 I (A) < 	Max Time(s)
SAMPLETIME	QUANT	1.00000E-002	Sa&mple Period (s)
CHARGESTOPAT1	MULTIPARAM	4	1.00000E+000	Charge Stop At &1	Voltage > Limit	V
CHARGESTOPAT2	MULTIPARAM	0	0.00000E+000	Charge Stop At &2	None	N/A
AESBHCSELECTOR	TOGGLE	F	Save Both Half Cells
IRCOMP	TOGGLE	F	IR &Measure
EOC	QUANT	0	Open Circuit (V)
SEQUENCER	TOGGLE	TRUE	Run as Sequence
PSTATMODEL	IQUANT	53	Pstat Model
PSTATSECTION	LABEL	IFC5000-01520	Pstat Section
PSTATSERIALNO	LABEL	01520	Pstat Serial Number
CTRLMODE	IQUANT	0	Control Mode
ELECTROMETER	IQUANT	1	RE=0 or CS=1
IESTAB	IQUANT	0	I/E Stability
CASPEED	IQUANT	4	Control Amp Speed
CONVENTION	IQUANT	1	Current Convention
ICHRANGE	IQUANT	2	Ich Range
ICHRANGEMODE	TOGGLE	T	Ich Auto Range
ICHOFFSETENABLE	TOGGLE	F	Ich Offset Enable
ICHOFFSET	QUANT	0	Ich Offset (V)
ICHFILTER	IQUANT	1	Ich Filter
VCHRANGE	IQUANT	2	Vch Range
VCHRANGEMODE	TOGGLE	T	Vch Auto Range
VCHOFFSETENABLE	TOGGLE	F	Vch Offset Enable
VCHOFFSET	QUANT	0	Vch Offset (V)
VCHFILTER	IQUANT	1	Vch Filter
IERANGELOWERLIMIT	IQUANT	9	I/E Range Lower Limit
IERANGEMODE	TOGGLE	F	I/E AutoRange
IERANGE	IQUANT	9	I/E Range
ACHSELECT	IQUANT	1	Ach Select
ACHRANGE	IQUANT	2	Ach Range
ACHOFFSETENABLE	TOGGLE	F	Ach Offset Enable
ACHOFFSET	QUANT	0	Ach Offset (V)
ACHFILTER	IQUANT	1	Ach Filter
CABLEID	IQUANT	14	Cable ID
DCCALDATE	LABEL	5-7-2017	DC Calibration Date
ACCALDATE	LABEL	12/3/2015	AC Calibration Date
FRAMEWORKVERSION	QUANT	7.01	Framework Version
INSTRUMENTVERSION	LABEL	4.00	Instrument Version
CURVE	TABLE	80
	Pt	T	Vf	Im	Vu	Pwr	Sig	Ach	Temp	IERange	Over
	#	s	V	A	V	W	V	V	deg C	#	bits
	0	0.013333	5.96104E-001	2.80172E-004	0.00000E+000	1.67012E-004	1.68088E-001	5.96407E-001	3.58000E+000	9	...........
	1	0.026667	6.25836E-001	2.82645E-004	0.00000E+000	1.76890E-004	1.68088E-001	6.26106E-001	3.58000E+000	9	...........
	2	0.04	6.51146E-001	2.80626E-004	0.00000E+000	1.82729E-004	1.68088E-001	6.51424E-001	3.58000E+000	9	...........
	3	0.053333	6.73241E-001	2.81279E-004	0.00000E+000	1.89369E-004	1.68088E-001	6.73508E-001	3.58000E+000	9	...........
	4	0.066667	6.92861E-001	2.79685E-004	0.00000E+000	1.93783E-004	1.68088E-001	6.93140E-001	3.58000E+000	9	...........
	5	0.08	7.10490E-001	2.80708E-004	0.00000E+000	1.99441E-004	1.68088E-001	7.10779E-001	3.58000E+000	9	...........
	6	0.093333	7.26501E-001	2.81565E-004	0.00000E+000	2.04557E-004	1.68088E-001	7.26785E-001	3.58000E+000	9	...........
	7	0.106667	7.41130E-001	2.79876E-004	0.00000E+000	2.07425E-004	1.68088E-001	7.41405E-001	3.58000E+000	9	...........
	8	0.12	7.54527E-001	2.82124E-004	0.00000E+000	2.12870E-004	1.68088E-001	7.54802E-001	3.58000E+000	9	...........
	9	0.133333	7.66849E-001	2.81365E-004	0.00000E+000	2.15764E-004	1.68088E-001	7.67176E-001	3.58000E+000	9	...........
	10	0.146667	7.78285E-001	2.80939E-004	0.00000E+000	2.18650E-004	1.68088E-001	7.78595E-001	3.58000E+000	9	...........
	11	0.16	7.88889E-001	2.81741E-004	0.00000E+000	2.22262E-004	1.68088E-001	7.89179E-001	3.58000E+000	9	...........
	12	0.173333	7.98760E-001	2.80765E-004	0.00000E+000	2.24264E-004	1.68088E-001	7.99053E-001	3.58000E+000	9	...........
	13	0.186667	8.07979E-001	2.81794E-004	0.00000E+000	2.27684E-004	1.68088E-001	8.08305E-001	3.58000E+000	9	...........
	14	0.2	8.16616E-001	2.80980E-004	0.00000E+000	2.29453E-004	1.68088E-001	8.16933E-001	3.58000E+000	9	...........
	15	0.213333	8.24719E-001	2.82340E-004	0.00000E+000	2.32851E-004	1.68088E-001	8.25037E-001	3.58000E+000	9	...........
	16	0.226667	8.32304E-001	2.81528E-004	0.00000E+000	2.34317E-004	1.68088E-001	8.32635E-001	3.58000E+000	9	...........
	17	0.24	8.39392E-001	2.81469E-004	0.00000E+000	2.36263E-004	1.68088E-001	8.39738E-001	3.58000E+000	9	...........
	18	0.253333	8.46124E-001	2.82523E-004	0.00000E+000	2.39050E-004	1.68088E-001	8.46467E-001	3.58000E+000	9	...........
	19	0.266667	8.52439E-001	2.82030E-004	0.00000E+000	2.40413E-004	1.68088E-001	8.52788E-001	3.58000E+000	9	...........
	20	0.28	8.58420E-001	2.80779E-004	0.00000E+000	2.41027E-004	1.68088E-001	8.58773E-001	3.57906E+000	9	...........
	21	0.293333	8.64071E-001	2.80538E-004	0.00000E+000	2.42404E-004	1.68088E-001	8.64428E-001	3.57850E+000	9	...........
	22	0.306667	8.69453E-001	2.81494E-004	0.00000E+000	2.44746E-004	1.68088E-001	8.69814E-001	3.57850E+000	9	...........
	23	0.32	8.74556E-001	2.81184E-004	0.00000E+000	2.45911E-004	1.68088E-001	8.74904E-001	3.57850E+000	9	...........
	24	0.333333	8.79400E-001	2.80593E-004	0.00000E+000	2.46753E-004	1.68088E-001	8.79749E-001	3.57850E+000	9	...........
	25	0.346667	8.84033E-001	2.81789E-004	0.00000E+000	2.49111E-004	1.68088E-001	8.84395E-001	3.57850E+000	9	...........
	26	0.36	8.88479E-001	2.82340E-004	0.00000E+000	2.50853E-004	1.68088E-001	8.88811E-001	3.57850E+000	9	...........
	27	0.373333	8.92681E-001	2.81057E-004	0.00000E+000	2.50895E-004	1.68088E-001	8.93044E-001	3.57850E+000	9	...........
	28	0.386667	8.96732E-001	2.81665E-004	0.00000E+000	2.52578E-004	1.68088E-001	8.97100E-001	3.57850E+000	9	...........
	29	0.4	9.00626E-001	2.81385E-004	0.00000E+000	2.53422E-004	1.68088E-001	9.00979E-001	3.57850E+000	9	...........
	30	0.413333	9.04362E-001	2.82245E-004	0.00000E+000	2.55252E-004	1.68088E-001	9.04715E-001	3.57850E+000	9	...........
	31	0.426667	9.07951E-001	2.81236E-004	0.00000E+000	2.55348E-004	1.68088E-001	9.08307E-001	3.57850E+000	9	...........
	32	0.44	9.11367E-001	2.81966E-004	0.00000E+000	2.56975E-004	1.68088E-001	9.11714E-001	3.57850E+000	9	...........
	33	0.453333	9.14672E-001	2.81360E-004	0.00000E+000	2.57352E-004	1.68088E-001	9.15042E-001	3.57850E+000	9	...........
	34	0.466667	9.17837E-001	2.80803E-004	0.00000E+000	2.57732E-004	1.68088E-001	9.18210E-001	3.57850E+000	9	...........
	35	0.48	9.20923E-001	2.81603E-004	0.00000E+000	2.59335E-004	1.68088E-001	9.21290E-001	3.57850E+000	9	...........
	36	0.493333	9.23888E-001	2.80389E-004	0.00000E+000	2.59048E-004	1.68088E-001	9.24235E-001	3.57850E+000	9	...........
	37	0.506667	9.26736E-001	2.81685E-004	0.00000E+000	2.61048E-004	1.68088E-001	9.27102E-001	3.57850E+000	9	...........
	38	0.52	9.29504E-001	2.81135E-004	0.00000E+000	2.61316E-004	1.68088E-001	9.29837E-001	3.57850E+000	9	...........
	39	0.533333	9.32171E-001	2.82688E-004	0.00000E+000	2.63514E-004	1.68088E-001	9.32494E-001	3.57850E+000	9	...........
	40	0.546667	9.34754E-001	2.80491E-004	0.00000E+000	2.62190E-004	1.68088E-001	9.35125E-001	3.57850E+000	9	...........
	41	0.56	9.37233E-001	2.80952E-004	0.00000E+000	2.63318E-004	1.68088E-001	9.37598E-001	3.57850E+000	9	...........
	42	0.573333	9.39650E-001	2.81768E-004	0.00000E+000	2.64763E-004	1.68088E-001	9.40006E-001	3.57850E+000	9	...........
	43	0.586667	9.42028E-001	2.81370E-004	0.00000E+000	2.65059E-004	1.68088E-001	9.42356E-001	3.57850E+000	9	...........
	44	0.6	9.44297E-001	2.81267E-004	0.00000E+000	2.65599E-004	1.68088E-001	9.44654E-001	3.57850E+000	9	...........
	45	0.613333	9.46540E-001	2.81521E-004	0.00000E+000	2.66471E-004	1.68088E-001	9.46886E-001	3.57850E+000	9	...........
	46	0.626667	9.48725E-001	2.81036E-004	0.00000E+000	2.66625E-004	1.68088E-001	9.49080E-001	3.57850E+000	9	...........
	47	0.64	9.50835E-001	2.80806E-004	0.00000E+000	2.67001E-004	1.68088E-001	9.51180E-001	3.57850E+000	9	...........
	48	0.653333	9.52896E-001	2.80177E-004	0.00000E+000	2.66980E-004	1.68088E-001	9.53251E-001	3.57850E+000	9	...........
	49	0.666667	9.54927E-001	2.81544E-004	0.00000E+000	2.68854E-004	1.68088E-001	9.55274E-001	3.57850E+000	9	...........
	50	0.68	9.56900E-001	2.80648E-004	0.00000E+000	2.68552E-004	1.68088E-001	9.57256E-001	3.57850E+000	9	...........
	51	0.693333	9.58831E-001	2.80984E-004	0.00000E+000	2.69416E-004	1.68088E-001	9.59159E-001	3.57850E+000	9	...........
	52	0.706667	9.60734E-001	2.81153E-004	0.00000E+000	2.70114E-004	1.68088E-001	9.61078E-001	3.57850E+000	9	...........
	53	0.72	9.62605E-001	2.81201E-004	0.00000E+000	2.70686E-004	1.68088E-001	9.62948E-001	3.57850E+000	9	...........
	54	0.733333	9.64362E-001	2.81687E-004	0.00000E+000	2.71648E-004	1.68088E-001	9.64730E-001	3.57850E+000	9	...........
	55	0.746667	9.66107E-001	2.82134E-004	0.00000E+000	2.72571E-004	1.68088E-001	9.66431E-001	3.57850E+000	9	...........
	56	0.76	9.67843E-001	2.82682E-004	0.00000E+000	2.73592E-004	1.68088E-001	9.68163E-001	3.57850E+000	9	...........
	57	0.773333	9.69520E-001	2.80841E-004	0.00000E+000	2.72281E-004	1.68088E-001	9.69875E-001	3.57850E+000	9	...........
	58	0.786667	9.71157E-001	2.81580E-004	0.00000E+000	2.73458E-004	1.68088E-001	9.71584E-001	3.57850E+000	9	...........
	59	0.8	9.72858E-001	2.80408E-004	0.00000E+000	2.72798E-004	1.68088E-001	9.73226E-001	3.57850E+000	9	...........
	60	0.813333	9.74495E-001	2.81986E-004	0.00000E+000	2.74794E-004	1.68088E-001	9.74846E-001	3.57850E+000	9	...........
	61	0.826667	9.76095E-001	2.81265E-004	0.00000E+000	2.74541E-004	1.68088E-001	9.76463E-001	3.57850E+000	9	...........
	62	0.84	9.77651E-001	2.81535E-004	0.00000E+000	2.75243E-004	1.68088E-001	9.78036E-001	3.57850E+000	9	...........
	63	0.853333	9.79187E-001	2.81113E-004	0.00000E+000	2.75262E-004	1.68088E-001	9.79578E-001	3.57850E+000	9	...........
	64	0.866667	9.80700E-001	2.81063E-004	0.00000E+000	2.75638E-004	1.68088E-001	9.81090E-001	3.57850E+000	9	...........
	65	0.88	9.82197E-001	2.81177E-004	0.00000E+000	2.76171E-004	1.68088E-001	9.82559E-001	3.57850E+000	9	...........
	66	0.893333	9.83636E-001	2.81752E-004	0.00000E+000	2.77142E-004	1.68088E-001	9.84047E-001	3.57850E+000	9	...........
	67	0.906667	9.85056E-001	2.80872E-004	0.00000E+000	2.76675E-004	1.68088E-001	9.85461E-001	3.57850E+000	9	...........
	68	0.92	9.86455E-001	2.83013E-004	0.00000E+000	2.79180E-004	1.68088E-001	9.86847E-001	3.57850E+000	9	...........
	69	0.933333	9.87797E-001	2.80098E-004	0.00000E+000	2.76680E-004	1.68088E-001	9.88194E-001	3.57850E+000	9	...........
	70	0.946667	9.89158E-001	2.81249E-004	0.00000E+000	2.78200E-004	1.68088E-001	9.89546E-001	3.57850E+000	9	...........
	71	0.96	9.90481E-001	2.81354E-004	0.00000E+000	2.78676E-004	1.68088E-001	9.90875E-001	3.57850E+000	9	...........
	72	0.97333	9.91811E-001	2.80950E-004	0.00000E+000	2.78649E-004	1.68088E-001	9.92226E-001	3.57850E+000	9	...........
	73	0.98667	9.93120E-001	2.81346E-004	0.00000E+000	2.79410E-004	1.68088E-001	9.93512E-001	3.57850E+000	9	...........
	74	1	9.94390E-001	2.80863E-004	0.00000E+000	2.79287E-004	1.68088E-001	9.94811E-001	3.57850E+000	9	...........
	75	1.01333	9.95696E-001	2.80219E-004	0.00000E+000	2.79013E-004	1.68088E-001	9.96081E-001	3.57850E+000	9	...........
	76	1.02667	9.96945E-001	2.81723E-004	0.00000E+000	2.80863E-004	1.68088E-001	9.97355E-001	3.57850E+000	9	...........
	77	1.04	9.98217E-001	2.81625E-004	0.00000E+000	2.81123E-004	1.68088E-001	9.98624E-001	3.57850E+000	9	...........
	78	1.05333	9.99428E-001	2.81443E-004	0.00000E+000	2.81282E-004	1.68088E-001	9.99826E-001	3.57850E+000	9	...........
	79	1.055	1.00014E+000	2.80052E-004	0.00000E+000	2.80090E-004	1.68088E-001	1.00048E+000	3.57850E+000	9	...........
STARTTIMEOFFSET	QUANT	1111.021	Start Time Offset (s)
