EXPLAIN
TAG	PWR800_CHARGE
TITLE	LABEL	PWR Cyclic Charge Discharge (Cell) - Charge Step	Test &Identifier
DATE	LABEL	7-7-2017	Date
TIME	LABEL	15:56:18	Time
NOTES	NOTES	3	&Notes...
	supercap test cell
	2.8mg
	6M KOH
PSTAT	PSTAT	IFC5000-01520	Potentiostat
CAPACITY	QUANT	1.00000E-003	Capacity (A-hr)
CELLTYPE	SELECTOR	1	&Cell Type
WORKINGCONNECTION	SELECTOR	0	&Working Lead
MAXCHARGETIME	VARIABLEANDUNITS	1.00000E+002	s	1.00000E+002	second(s)	Max &Charge Time
CHARGECURRENT	QUANT	2.80000E-004	&Charge Current (A) 
VOLTAGEFINISH	TWOPARAM	F	1.00000E-003	3.60000E+003	&Voltage Finish	 I (A) < 	Max Time(s)
SAMPLETIME	QUANT	1.00000E-002	Sa&mple Period (s)
CHARGESTOPAT1	MULTIPARAM	4	1.00000E+000	Charge Stop At &1	Voltage > Limit	V
CHARGESTOPAT2	MULTIPARAM	0	0.00000E+000	Charge Stop At &2	None	N/A
AESBHCSELECTOR	TOGGLE	F	Save Both Half Cells
IRCOMP	TOGGLE	F	IR &Measure
EOC	QUANT	0	Open Circuit (V)
SEQUENCER	TOGGLE	TRUE	Run as Sequence
PSTATMODEL	IQUANT	53	Pstat Model
PSTATSECTION	LABEL	IFC5000-01520	Pstat Section
PSTATSERIALNO	LABEL	01520	Pstat Serial Number
CTRLMODE	IQUANT	0	Control Mode
ELECTROMETER	IQUANT	1	RE=0 or CS=1
IESTAB	IQUANT	0	I/E Stability
CASPEED	IQUANT	4	Control Amp Speed
CONVENTION	IQUANT	1	Current Convention
ICHRANGE	IQUANT	2	Ich Range
ICHRANGEMODE	TOGGLE	T	Ich Auto Range
ICHOFFSETENABLE	TOGGLE	F	Ich Offset Enable
ICHOFFSET	QUANT	0	Ich Offset (V)
ICHFILTER	IQUANT	1	Ich Filter
VCHRANGE	IQUANT	2	Vch Range
VCHRANGEMODE	TOGGLE	T	Vch Auto Range
VCHOFFSETENABLE	TOGGLE	F	Vch Offset Enable
VCHOFFSET	QUANT	0	Vch Offset (V)
VCHFILTER	IQUANT	1	Vch Filter
IERANGELOWERLIMIT	IQUANT	9	I/E Range Lower Limit
IERANGEMODE	TOGGLE	F	I/E AutoRange
IERANGE	IQUANT	9	I/E Range
ACHSELECT	IQUANT	1	Ach Select
ACHRANGE	IQUANT	2	Ach Range
ACHOFFSETENABLE	TOGGLE	F	Ach Offset Enable
ACHOFFSET	QUANT	0	Ach Offset (V)
ACHFILTER	IQUANT	1	Ach Filter
CABLEID	IQUANT	14	Cable ID
DCCALDATE	LABEL	5-7-2017	DC Calibration Date
ACCALDATE	LABEL	12/3/2015	AC Calibration Date
FRAMEWORKVERSION	QUANT	7.01	Framework Version
INSTRUMENTVERSION	LABEL	4.00	Instrument Version
CURVE	TABLE	87
	Pt	T	Vf	Im	Vu	Pwr	Sig	Ach	Temp	IERange	Over
	#	s	V	A	V	W	V	V	deg C	#	bits
	0	0.013333	5.98776E-001	2.80369E-004	0.00000E+000	1.67878E-004	1.68088E-001	5.99077E-001	3.57760E+000	9	...........
	1	0.026667	6.27768E-001	2.81208E-004	0.00000E+000	1.76533E-004	1.68088E-001	6.28043E-001	3.57760E+000	9	...........
	2	0.04	6.52351E-001	2.81405E-004	0.00000E+000	1.83575E-004	1.68088E-001	6.52642E-001	3.57760E+000	9	...........
	3	0.053333	6.73764E-001	2.80384E-004	0.00000E+000	1.88913E-004	1.68088E-001	6.74049E-001	3.57800E+000	9	...........
	4	0.066667	6.92719E-001	2.80686E-004	0.00000E+000	1.94436E-004	1.68088E-001	6.93023E-001	3.57800E+000	9	...........
	5	0.08	7.09679E-001	2.81674E-004	0.00000E+000	1.99898E-004	1.68088E-001	7.09983E-001	3.57800E+000	9	...........
	6	0.093333	7.25091E-001	2.81476E-004	0.00000E+000	2.04096E-004	1.68088E-001	7.25333E-001	3.57800E+000	9	...........
	7	0.106667	7.39061E-001	2.80757E-004	0.00000E+000	2.07497E-004	1.68088E-001	7.39316E-001	3.57800E+000	9	...........
	8	0.12	7.51909E-001	2.82184E-004	0.00000E+000	2.12177E-004	1.68088E-001	7.52162E-001	3.57800E+000	9	...........
	9	0.133333	7.63712E-001	2.80993E-004	0.00000E+000	2.14598E-004	1.68088E-001	7.63979E-001	3.57800E+000	9	...........
	10	0.146667	7.74641E-001	2.81126E-004	0.00000E+000	2.17772E-004	1.68088E-001	7.74911E-001	3.57800E+000	9	...........
	11	0.16	7.84771E-001	2.80747E-004	0.00000E+000	2.20322E-004	1.68088E-001	7.85041E-001	3.57800E+000	9	...........
	12	0.173333	7.94222E-001	2.82040E-004	0.00000E+000	2.24003E-004	1.68088E-001	7.94495E-001	3.57800E+000	9	...........
	13	0.186667	8.03038E-001	2.81247E-004	0.00000E+000	2.25852E-004	1.68088E-001	8.03332E-001	3.57800E+000	9	...........
	14	0.2	8.11265E-001	2.81725E-004	0.00000E+000	2.28554E-004	1.68088E-001	8.11581E-001	3.57800E+000	9	...........
	15	0.213333	8.18992E-001	2.80631E-004	0.00000E+000	2.29835E-004	1.68088E-001	8.19317E-001	3.57800E+000	9	...........
	16	0.226667	8.26278E-001	2.81945E-004	0.00000E+000	2.32965E-004	1.68088E-001	8.26600E-001	3.57800E+000	9	...........
	17	0.24	8.33113E-001	2.81117E-004	0.00000E+000	2.34202E-004	1.68088E-001	8.33457E-001	3.57800E+000	9	...........
	18	0.253333	8.39554E-001	2.81401E-004	0.00000E+000	2.36252E-004	1.68088E-001	8.39930E-001	3.57800E+000	9	...........
	19	0.266667	8.45674E-001	2.81221E-004	0.00000E+000	2.37821E-004	1.68088E-001	8.46049E-001	3.57800E+000	9	...........
	20	0.28	8.51465E-001	2.80635E-004	0.00000E+000	2.38950E-004	1.68088E-001	8.51831E-001	3.57800E+000	9	...........
	21	0.293333	8.56929E-001	2.81275E-004	0.00000E+000	2.41033E-004	1.68088E-001	8.57328E-001	3.57800E+000	9	...........
	22	0.306667	8.62133E-001	2.80855E-004	0.00000E+000	2.42135E-004	1.68088E-001	8.62493E-001	3.57800E+000	9	...........
	23	0.32	8.67053E-001	2.81400E-004	0.00000E+000	2.43989E-004	1.68088E-001	8.67433E-001	3.57800E+000	9	...........
	24	0.333333	8.71766E-001	2.81561E-004	0.00000E+000	2.45455E-004	1.68088E-001	8.72131E-001	3.57800E+000	9	...........
	25	0.346667	8.76245E-001	2.81753E-004	0.00000E+000	2.46885E-004	1.68088E-001	8.76571E-001	3.57800E+000	9	...........
	26	0.36	8.80513E-001	2.80484E-004	0.00000E+000	2.46970E-004	1.68088E-001	8.80852E-001	3.57800E+000	9	...........
	27	0.373333	8.84663E-001	2.81549E-004	0.00000E+000	2.49076E-004	1.68088E-001	8.84974E-001	3.57800E+000	9	...........
	28	0.386667	8.88586E-001	2.81640E-004	0.00000E+000	2.50261E-004	1.68088E-001	8.88911E-001	3.57800E+000	9	...........
	29	0.4	8.92319E-001	2.81245E-004	0.00000E+000	2.50960E-004	1.68088E-001	8.92639E-001	3.57800E+000	9	...........
	30	0.413333	8.95940E-001	2.81209E-004	0.00000E+000	2.51946E-004	1.68088E-001	8.96254E-001	3.57800E+000	9	...........
	31	0.426667	8.99375E-001	2.81421E-004	0.00000E+000	2.53103E-004	1.68088E-001	8.99692E-001	3.57800E+000	9	...........
	32	0.44	9.02706E-001	2.81122E-004	0.00000E+000	2.53771E-004	1.68088E-001	9.03044E-001	3.57800E+000	9	...........
	33	0.453333	9.05903E-001	2.80222E-004	0.00000E+000	2.53854E-004	1.68088E-001	9.06242E-001	3.57800E+000	9	...........
	34	0.466667	9.08985E-001	2.81111E-004	0.00000E+000	2.55525E-004	1.68088E-001	9.09320E-001	3.57800E+000	9	...........
	35	0.48	9.11965E-001	2.80763E-004	0.00000E+000	2.56046E-004	1.68088E-001	9.12312E-001	3.57800E+000	9	...........
	36	0.493333	9.14877E-001	2.81626E-004	0.00000E+000	2.57654E-004	1.68088E-001	9.15205E-001	3.57800E+000	9	...........
	37	0.506667	9.17667E-001	2.81184E-004	0.00000E+000	2.58033E-004	1.68088E-001	9.18015E-001	3.57800E+000	9	...........
	38	0.52	9.20400E-001	2.81675E-004	0.00000E+000	2.59254E-004	1.68088E-001	9.20747E-001	3.57800E+000	9	...........
	39	0.533333	9.23086E-001	2.81140E-004	0.00000E+000	2.59516E-004	1.68088E-001	9.23415E-001	3.57800E+000	9	...........
	40	0.546667	9.25610E-001	2.80603E-004	0.00000E+000	2.59729E-004	1.68088E-001	9.25915E-001	3.57800E+000	9	...........
	41	0.56	9.28046E-001	2.80846E-004	0.00000E+000	2.60638E-004	1.68088E-001	9.28363E-001	3.57800E+000	9	...........
	42	0.573333	9.30422E-001	2.82026E-004	0.00000E+000	2.62404E-004	1.68088E-001	9.30754E-001	3.57800E+000	9	...........
	43	0.586667	9.32755E-001	2.80549E-004	0.00000E+000	2.61684E-004	1.68088E-001	9.33089E-001	3.57800E+000	9	...........
	44	0.6	9.35038E-001	2.80374E-004	0.00000E+000	2.62160E-004	1.68088E-001	9.35382E-001	3.57800E+000	9	...........
	45	0.613333	9.37258E-001	2.80477E-004	0.00000E+000	2.62879E-004	1.68088E-001	9.37614E-001	3.57800E+000	9	...........
	46	0.626667	9.39457E-001	2.80534E-004	0.00000E+000	2.63550E-004	1.68088E-001	9.39795E-001	3.57800E+000	9	...........
	47	0.64	9.41559E-001	2.80739E-004	0.00000E+000	2.64332E-004	1.68088E-001	9.41899E-001	3.57800E+000	9	...........
	48	0.653333	9.43601E-001	2.81632E-004	0.00000E+000	2.65748E-004	1.68088E-001	9.43973E-001	3.57800E+000	9	...........
	49	0.666667	9.45645E-001	2.81541E-004	0.00000E+000	2.66238E-004	1.68088E-001	9.46024E-001	3.57800E+000	9	...........
	50	0.68	9.47665E-001	2.80622E-004	0.00000E+000	2.65936E-004	1.68088E-001	9.48010E-001	3.57800E+000	9	...........
	51	0.693333	9.49616E-001	2.80291E-004	0.00000E+000	2.66169E-004	1.68088E-001	9.49984E-001	3.57800E+000	9	...........
	52	0.706667	9.51488E-001	2.81113E-004	0.00000E+000	2.67475E-004	1.68088E-001	9.51853E-001	3.57800E+000	9	...........
	53	0.72	9.53351E-001	2.80334E-004	0.00000E+000	2.67257E-004	1.68088E-001	9.53701E-001	3.57800E+000	9	...........
	54	0.733333	9.55123E-001	2.81418E-004	0.00000E+000	2.68789E-004	1.68088E-001	9.55478E-001	3.57800E+000	9	...........
	55	0.746667	9.56883E-001	2.81694E-004	0.00000E+000	2.69548E-004	1.68088E-001	9.57240E-001	3.57800E+000	9	...........
	56	0.76	9.58567E-001	2.80481E-004	0.00000E+000	2.68860E-004	1.68088E-001	9.58960E-001	3.57800E+000	9	...........
	57	0.773333	9.60249E-001	2.81421E-004	0.00000E+000	2.70234E-004	1.68088E-001	9.60624E-001	3.57800E+000	9	...........
	58	0.786667	9.61901E-001	2.81483E-004	0.00000E+000	2.70758E-004	1.68088E-001	9.62264E-001	3.57800E+000	9	...........
	59	0.8	9.63578E-001	2.81770E-004	0.00000E+000	2.71507E-004	1.68088E-001	9.63936E-001	3.57800E+000	9	...........
	60	0.813333	9.65223E-001	2.80502E-004	0.00000E+000	2.70747E-004	1.68088E-001	9.65561E-001	3.57800E+000	9	...........
	61	0.826667	9.66811E-001	2.81006E-004	0.00000E+000	2.71680E-004	1.68088E-001	9.67120E-001	3.57800E+000	9	...........
	62	0.84	9.68351E-001	2.80874E-004	0.00000E+000	2.71985E-004	1.68088E-001	9.68686E-001	3.57800E+000	9	...........
	63	0.853333	9.69927E-001	2.80835E-004	0.00000E+000	2.72389E-004	1.68088E-001	9.70273E-001	3.57800E+000	9	...........
	64	0.866667	9.71459E-001	2.80748E-004	0.00000E+000	2.72735E-004	1.68088E-001	9.71856E-001	3.57800E+000	9	...........
	65	0.88	9.73011E-001	2.81076E-004	0.00000E+000	2.73490E-004	1.68088E-001	9.73349E-001	3.57800E+000	9	...........
	66	0.893333	9.74470E-001	2.80203E-004	0.00000E+000	2.73050E-004	1.68088E-001	9.74804E-001	3.57800E+000	9	...........
	67	0.906667	9.75911E-001	2.80990E-004	0.00000E+000	2.74221E-004	1.68088E-001	9.76245E-001	3.57800E+000	9	...........
	68	0.92	9.77295E-001	2.80952E-004	0.00000E+000	2.74573E-004	1.68088E-001	9.77641E-001	3.57800E+000	9	...........
	69	0.933333	9.78718E-001	2.82091E-004	0.00000E+000	2.76088E-004	1.68088E-001	9.79030E-001	3.57800E+000	9	...........
	70	0.946667	9.80046E-001	2.81395E-004	0.00000E+000	2.75780E-004	1.68088E-001	9.80358E-001	3.57800E+000	9	...........
	71	0.96	9.81393E-001	2.81150E-004	0.00000E+000	2.75919E-004	1.68088E-001	9.81719E-001	3.57800E+000	9	...........
	72	0.97333	9.82712E-001	2.80597E-004	0.00000E+000	2.75746E-004	1.68088E-001	9.83025E-001	3.57800E+000	9	...........
	73	0.98667	9.84001E-001	2.81854E-004	0.00000E+000	2.77344E-004	1.68088E-001	9.84367E-001	3.57800E+000	9	...........
	74	1	9.85284E-001	2.82333E-004	0.00000E+000	2.78178E-004	1.68088E-001	9.85646E-001	3.57800E+000	9	...........
	75	1.01333	9.86556E-001	2.81192E-004	0.00000E+000	2.77412E-004	1.68088E-001	9.86915E-001	3.57800E+000	9	...........
	76	1.02667	9.87813E-001	2.80782E-004	0.00000E+000	2.77360E-004	1.68088E-001	9.88187E-001	3.57800E+000	9	...........
	77	1.04	9.89072E-001	2.80973E-004	0.00000E+000	2.77903E-004	1.68088E-001	9.89422E-001	3.57800E+000	9	...........
	78	1.05333	9.90275E-001	2.81419E-004	0.00000E+000	2.78682E-004	1.68088E-001	9.90635E-001	3.57820E+000	9	...........
	79	1.06667	9.91475E-001	2.81330E-004	0.00000E+000	2.78932E-004	1.68088E-001	9.91835E-001	3.57820E+000	9	...........
	80	1.08	9.92695E-001	2.81655E-004	0.00000E+000	2.79597E-004	1.68088E-001	9.93067E-001	3.57820E+000	9	...........
	81	1.09333	9.93908E-001	2.81137E-004	0.00000E+000	2.79424E-004	1.68088E-001	9.94300E-001	3.57820E+000	9	...........
	82	1.10667	9.95149E-001	2.82861E-004	0.00000E+000	2.81489E-004	1.68088E-001	9.95511E-001	3.57820E+000	9	...........
	83	1.12	9.96331E-001	2.81346E-004	0.00000E+000	2.80314E-004	1.68088E-001	9.96671E-001	3.57820E+000	9	...........
	84	1.13333	9.97503E-001	2.81947E-004	0.00000E+000	2.81243E-004	1.68088E-001	9.97869E-001	3.57820E+000	9	...........
	85	1.14667	9.98607E-001	2.82406E-004	0.00000E+000	2.82012E-004	1.68088E-001	9.99004E-001	3.57820E+000	9	...........
	86	1.15833	9.99642E-001	2.81209E-004	0.00000E+000	2.81109E-004	1.68088E-001	1.00002E+000	3.57820E+000	9	...........
STARTTIMEOFFSET	QUANT	950.555	Start Time Offset (s)
