EXPLAIN
TAG	PWR800_CHARGE
TITLE	LABEL	PWR Cyclic Charge Discharge (Cell) - Charge Step	Test &Identifier
DATE	LABEL	7-7-2017	Date
TIME	LABEL	16:13:14	Time
NOTES	NOTES	3	&Notes...
	supercap test cell
	2.8mg
	6M KOH
PSTAT	PSTAT	IFC5000-01520	Potentiostat
CAPACITY	QUANT	1.00000E-003	Capacity (A-hr)
CELLTYPE	SELECTOR	1	&Cell Type
WORKINGCONNECTION	SELECTOR	0	&Working Lead
MAXCHARGETIME	VARIABLEANDUNITS	1.00000E+002	s	1.00000E+002	second(s)	Max &Charge Time
CHARGECURRENT	QUANT	2.80000E-004	&Charge Current (A) 
VOLTAGEFINISH	TWOPARAM	F	1.00000E-003	3.60000E+003	&Voltage Finish	 I (A) < 	Max Time(s)
SAMPLETIME	QUANT	1.00000E-002	Sa&mple Period (s)
CHARGESTOPAT1	MULTIPARAM	4	1.00000E+000	Charge Stop At &1	Voltage > Limit	V
CHARGESTOPAT2	MULTIPARAM	0	0.00000E+000	Charge Stop At &2	None	N/A
AESBHCSELECTOR	TOGGLE	F	Save Both Half Cells
IRCOMP	TOGGLE	F	IR &Measure
EOC	QUANT	0	Open Circuit (V)
SEQUENCER	TOGGLE	TRUE	Run as Sequence
PSTATMODEL	IQUANT	53	Pstat Model
PSTATSECTION	LABEL	IFC5000-01520	Pstat Section
PSTATSERIALNO	LABEL	01520	Pstat Serial Number
CTRLMODE	IQUANT	0	Control Mode
ELECTROMETER	IQUANT	1	RE=0 or CS=1
IESTAB	IQUANT	0	I/E Stability
CASPEED	IQUANT	4	Control Amp Speed
CONVENTION	IQUANT	1	Current Convention
ICHRANGE	IQUANT	2	Ich Range
ICHRANGEMODE	TOGGLE	T	Ich Auto Range
ICHOFFSETENABLE	TOGGLE	F	Ich Offset Enable
ICHOFFSET	QUANT	0	Ich Offset (V)
ICHFILTER	IQUANT	1	Ich Filter
VCHRANGE	IQUANT	2	Vch Range
VCHRANGEMODE	TOGGLE	T	Vch Auto Range
VCHOFFSETENABLE	TOGGLE	F	Vch Offset Enable
VCHOFFSET	QUANT	0	Vch Offset (V)
VCHFILTER	IQUANT	1	Vch Filter
IERANGELOWERLIMIT	IQUANT	9	I/E Range Lower Limit
IERANGEMODE	TOGGLE	F	I/E AutoRange
IERANGE	IQUANT	9	I/E Range
ACHSELECT	IQUANT	1	Ach Select
ACHRANGE	IQUANT	2	Ach Range
ACHOFFSETENABLE	TOGGLE	F	Ach Offset Enable
ACHOFFSET	QUANT	0	Ach Offset (V)
ACHFILTER	IQUANT	1	Ach Filter
CABLEID	IQUANT	14	Cable ID
DCCALDATE	LABEL	5-7-2017	DC Calibration Date
ACCALDATE	LABEL	12/3/2015	AC Calibration Date
FRAMEWORKVERSION	QUANT	7.01	Framework Version
INSTRUMENTVERSION	LABEL	4.00	Instrument Version
CURVE	TABLE	66
	Pt	T	Vf	Im	Vu	Pwr	Sig	Ach	Temp	IERange	Over
	#	s	V	A	V	W	V	V	deg C	#	bits
	0	0.013333	6.03421E-001	2.80818E-004	0.00000E+000	1.69451E-004	1.68088E-001	6.03667E-001	3.57740E+000	9	...........
	1	0.026667	6.33649E-001	2.80057E-004	0.00000E+000	1.77458E-004	1.68088E-001	6.33898E-001	3.57740E+000	9	...........
	2	0.04	6.59616E-001	2.80596E-004	0.00000E+000	1.85086E-004	1.68088E-001	6.59853E-001	3.57740E+000	9	...........
	3	0.053333	6.82441E-001	2.81139E-004	0.00000E+000	1.91861E-004	1.68088E-001	6.82684E-001	3.57740E+000	9	...........
	4	0.066667	7.02785E-001	2.81680E-004	0.00000E+000	1.97960E-004	1.68088E-001	7.03047E-001	3.57740E+000	9	...........
	5	0.08	7.21187E-001	2.80936E-004	0.00000E+000	2.02607E-004	1.68088E-001	7.21448E-001	3.57740E+000	9	...........
	6	0.093333	7.37899E-001	2.80954E-004	0.00000E+000	2.07316E-004	1.68088E-001	7.38166E-001	3.57740E+000	9	...........
	7	0.106667	7.53221E-001	2.81246E-004	0.00000E+000	2.11840E-004	1.68088E-001	7.53489E-001	3.57740E+000	9	...........
	8	0.12	7.67284E-001	2.81768E-004	0.00000E+000	2.16196E-004	1.68088E-001	7.67570E-001	3.57740E+000	9	...........
	9	0.133333	7.80267E-001	2.81993E-004	0.00000E+000	2.20030E-004	1.68088E-001	7.80556E-001	3.57740E+000	9	...........
	10	0.146667	7.92299E-001	2.81193E-004	0.00000E+000	2.22789E-004	1.68088E-001	7.92574E-001	3.57740E+000	9	...........
	11	0.16	8.03452E-001	2.81397E-004	0.00000E+000	2.26089E-004	1.68088E-001	8.03743E-001	3.57740E+000	9	...........
	12	0.173333	8.13815E-001	2.80763E-004	0.00000E+000	2.28489E-004	1.68088E-001	8.14095E-001	3.57740E+000	9	...........
	13	0.186667	8.23527E-001	2.80902E-004	0.00000E+000	2.31331E-004	1.68088E-001	8.23785E-001	3.57740E+000	9	...........
	14	0.2	8.32577E-001	2.80826E-004	0.00000E+000	2.33809E-004	1.68088E-001	8.32820E-001	3.57740E+000	9	...........
	15	0.213333	8.41057E-001	2.81526E-004	0.00000E+000	2.36780E-004	1.68088E-001	8.41328E-001	3.57740E+000	9	...........
	16	0.226667	8.49034E-001	2.81282E-004	0.00000E+000	2.38818E-004	1.68088E-001	8.49306E-001	3.57740E+000	9	...........
	17	0.24	8.56464E-001	2.79914E-004	0.00000E+000	2.39736E-004	1.68088E-001	8.56777E-001	3.57740E+000	9	...........
	18	0.253333	8.63481E-001	2.81864E-004	0.00000E+000	2.43384E-004	1.68088E-001	8.63804E-001	3.57740E+000	9	...........
	19	0.266667	8.70129E-001	2.81396E-004	0.00000E+000	2.44851E-004	1.68088E-001	8.70423E-001	3.57740E+000	9	...........
	20	0.28	8.76344E-001	2.81619E-004	0.00000E+000	2.46795E-004	1.68088E-001	8.76673E-001	3.57740E+000	9	...........
	21	0.293333	8.82239E-001	2.80844E-004	0.00000E+000	2.47771E-004	1.68088E-001	8.82551E-001	3.57740E+000	9	...........
	22	0.306667	8.87793E-001	2.80851E-004	0.00000E+000	2.49338E-004	1.68088E-001	8.88107E-001	3.57740E+000	9	...........
	23	0.32	8.93062E-001	2.80061E-004	0.00000E+000	2.50112E-004	1.68088E-001	8.93405E-001	3.57740E+000	9	...........
	24	0.333333	8.98080E-001	2.81559E-004	0.00000E+000	2.52862E-004	1.68088E-001	8.98433E-001	3.57740E+000	9	...........
	25	0.346667	9.02810E-001	2.81308E-004	0.00000E+000	2.53967E-004	1.68088E-001	9.03179E-001	3.57740E+000	9	...........
	26	0.36	9.07344E-001	2.81235E-004	0.00000E+000	2.55177E-004	1.68088E-001	9.07697E-001	3.57740E+000	9	...........
	27	0.373333	9.11653E-001	2.82008E-004	0.00000E+000	2.57093E-004	1.68088E-001	9.12010E-001	3.57740E+000	9	...........
	28	0.386667	9.15766E-001	2.80925E-004	0.00000E+000	2.57262E-004	1.68088E-001	9.16155E-001	3.57740E+000	9	...........
	29	0.4	9.19723E-001	2.80598E-004	0.00000E+000	2.58072E-004	1.68088E-001	9.20075E-001	3.57740E+000	9	...........
	30	0.413333	9.23494E-001	2.80118E-004	0.00000E+000	2.58687E-004	1.68088E-001	9.23813E-001	3.57740E+000	9	...........
	31	0.426667	9.27057E-001	2.80457E-004	0.00000E+000	2.60000E-004	1.68088E-001	9.27400E-001	3.57740E+000	9	...........
	32	0.44	9.30519E-001	2.80383E-004	0.00000E+000	2.60902E-004	1.68088E-001	9.30823E-001	3.57740E+000	9	...........
	33	0.453333	9.33764E-001	2.81276E-004	0.00000E+000	2.62646E-004	1.68088E-001	9.34104E-001	3.57740E+000	9	...........
	34	0.466667	9.36903E-001	2.81823E-004	0.00000E+000	2.64041E-004	1.68088E-001	9.37240E-001	3.57740E+000	9	...........
	35	0.48	9.39950E-001	2.81221E-004	0.00000E+000	2.64334E-004	1.68088E-001	9.40274E-001	3.57740E+000	9	...........
	36	0.493333	9.42935E-001	2.82221E-004	0.00000E+000	2.66116E-004	1.68088E-001	9.43261E-001	3.57740E+000	9	...........
	37	0.506667	9.45790E-001	2.81104E-004	0.00000E+000	2.65866E-004	1.68088E-001	9.46115E-001	3.57740E+000	9	...........
	38	0.52	9.48575E-001	2.80766E-004	0.00000E+000	2.66327E-004	1.68088E-001	9.48893E-001	3.57740E+000	9	...........
	39	0.533333	9.51262E-001	2.82626E-004	0.00000E+000	2.68851E-004	1.68088E-001	9.51523E-001	3.57740E+000	9	...........
	40	0.546667	9.53779E-001	2.81294E-004	0.00000E+000	2.68292E-004	1.68088E-001	9.54045E-001	3.57740E+000	9	...........
	41	0.56	9.56192E-001	2.81291E-004	0.00000E+000	2.68968E-004	1.68088E-001	9.56474E-001	3.57740E+000	9	...........
	42	0.573333	9.58559E-001	2.82030E-004	0.00000E+000	2.70342E-004	1.68088E-001	9.58876E-001	3.57740E+000	9	...........
	43	0.586667	9.60898E-001	2.80959E-004	0.00000E+000	2.69972E-004	1.68088E-001	9.61223E-001	3.57740E+000	9	...........
	44	0.6	9.63149E-001	2.81296E-004	0.00000E+000	2.70930E-004	1.68088E-001	9.63509E-001	3.57740E+000	9	...........
	45	0.613333	9.65368E-001	2.81667E-004	0.00000E+000	2.71912E-004	1.68088E-001	9.65729E-001	3.57740E+000	9	...........
	46	0.626667	9.67560E-001	2.81899E-004	0.00000E+000	2.72755E-004	1.68088E-001	9.67913E-001	3.57740E+000	9	...........
	47	0.64	9.69652E-001	2.80697E-004	0.00000E+000	2.72178E-004	1.68088E-001	9.70035E-001	3.57740E+000	9	...........
	48	0.653333	9.71674E-001	2.80452E-004	0.00000E+000	2.72508E-004	1.68088E-001	9.72065E-001	3.57740E+000	9	...........
	49	0.666667	9.73721E-001	2.81227E-004	0.00000E+000	2.73837E-004	1.68088E-001	9.74059E-001	3.57740E+000	9	...........
	50	0.68	9.75656E-001	2.82611E-004	0.00000E+000	2.75731E-004	1.68088E-001	9.76013E-001	3.57740E+000	9	...........
	51	0.693333	9.77539E-001	2.80473E-004	0.00000E+000	2.74173E-004	1.68088E-001	9.77915E-001	3.57740E+000	9	...........
	52	0.706667	9.79408E-001	2.80957E-004	0.00000E+000	2.75172E-004	1.68088E-001	9.79751E-001	3.57740E+000	9	...........
	53	0.72	9.81225E-001	2.81384E-004	0.00000E+000	2.76101E-004	1.68088E-001	9.81586E-001	3.57740E+000	9	...........
	54	0.733333	9.83005E-001	2.82360E-004	0.00000E+000	2.77561E-004	1.68088E-001	9.83321E-001	3.57740E+000	9	...........
	55	0.746667	9.84710E-001	2.81370E-004	0.00000E+000	2.77068E-004	1.68088E-001	9.85070E-001	3.57740E+000	9	...........
	56	0.76	9.86412E-001	2.80276E-004	0.00000E+000	2.76468E-004	1.68088E-001	9.86791E-001	3.57740E+000	9	...........
	57	0.773333	9.88102E-001	2.82549E-004	0.00000E+000	2.79188E-004	1.68088E-001	9.88440E-001	3.57740E+000	9	...........
	58	0.786667	9.89695E-001	2.81366E-004	0.00000E+000	2.78466E-004	1.68088E-001	9.90066E-001	3.57740E+000	9	...........
	59	0.8	9.91288E-001	2.81959E-004	0.00000E+000	2.79502E-004	1.68088E-001	9.91651E-001	3.57740E+000	9	...........
	60	0.813333	9.92851E-001	2.81939E-004	0.00000E+000	2.79923E-004	1.68088E-001	9.93230E-001	3.57854E+000	9	...........
	61	0.826667	9.94410E-001	2.81766E-004	0.00000E+000	2.80191E-004	1.68088E-001	9.94784E-001	3.57870E+000	9	...........
	62	0.84	9.95918E-001	2.80280E-004	0.00000E+000	2.79136E-004	1.68088E-001	9.96271E-001	3.57870E+000	9	...........
	63	0.853333	9.97418E-001	2.80928E-004	0.00000E+000	2.80203E-004	1.68088E-001	9.97795E-001	3.57870E+000	9	...........
	64	0.866667	9.98924E-001	2.80774E-004	0.00000E+000	2.80472E-004	1.68088E-001	9.99267E-001	3.57870E+000	9	...........
	65	0.871667	9.99909E-001	2.79838E-004	0.00000E+000	2.79813E-004	1.68088E-001	1.00027E+000	3.57870E+000	9	...........
STARTTIMEOFFSET	QUANT	1653.745	Start Time Offset (s)
