EXPLAIN
TAG	PWR800_CHARGE
TITLE	LABEL	PWR Cyclic Charge Discharge (Cell) - Charge Step	Test &Identifier
DATE	LABEL	7-7-2017	Date
TIME	LABEL	15:37:25	Time
NOTES	NOTES	3	&Notes...
	supercap test cell
	2.8mg
	6M KOH
PSTAT	PSTAT	IFC5000-01520	Potentiostat
CAPACITY	QUANT	1.00000E-003	Capacity (A-hr)
CELLTYPE	SELECTOR	1	&Cell Type
WORKINGCONNECTION	SELECTOR	0	&Working Lead
MAXCHARGETIME	VARIABLEANDUNITS	1.00000E+002	s	1.00000E+002	second(s)	Max &Charge Time
CHARGECURRENT	QUANT	2.80000E-004	&Charge Current (A) 
VOLTAGEFINISH	TWOPARAM	F	1.00000E-003	3.60000E+003	&Voltage Finish	 I (A) < 	Max Time(s)
SAMPLETIME	QUANT	1.00000E-002	Sa&mple Period (s)
CHARGESTOPAT1	MULTIPARAM	4	1.00000E+000	Charge Stop At &1	Voltage > Limit	V
CHARGESTOPAT2	MULTIPARAM	0	0.00000E+000	Charge Stop At &2	None	N/A
AESBHCSELECTOR	TOGGLE	F	Save Both Half Cells
IRCOMP	TOGGLE	F	IR &Measure
EOC	QUANT	0	Open Circuit (V)
SEQUENCER	TOGGLE	TRUE	Run as Sequence
PSTATMODEL	IQUANT	53	Pstat Model
PSTATSECTION	LABEL	IFC5000-01520	Pstat Section
PSTATSERIALNO	LABEL	01520	Pstat Serial Number
CTRLMODE	IQUANT	0	Control Mode
ELECTROMETER	IQUANT	1	RE=0 or CS=1
IESTAB	IQUANT	0	I/E Stability
CASPEED	IQUANT	4	Control Amp Speed
CONVENTION	IQUANT	1	Current Convention
ICHRANGE	IQUANT	2	Ich Range
ICHRANGEMODE	TOGGLE	T	Ich Auto Range
ICHOFFSETENABLE	TOGGLE	F	Ich Offset Enable
ICHOFFSET	QUANT	0	Ich Offset (V)
ICHFILTER	IQUANT	1	Ich Filter
VCHRANGE	IQUANT	2	Vch Range
VCHRANGEMODE	TOGGLE	T	Vch Auto Range
VCHOFFSETENABLE	TOGGLE	F	Vch Offset Enable
VCHOFFSET	QUANT	0	Vch Offset (V)
VCHFILTER	IQUANT	1	Vch Filter
IERANGELOWERLIMIT	IQUANT	9	I/E Range Lower Limit
IERANGEMODE	TOGGLE	F	I/E AutoRange
IERANGE	IQUANT	9	I/E Range
ACHSELECT	IQUANT	1	Ach Select
ACHRANGE	IQUANT	2	Ach Range
ACHOFFSETENABLE	TOGGLE	F	Ach Offset Enable
ACHOFFSET	QUANT	0	Ach Offset (V)
ACHFILTER	IQUANT	1	Ach Filter
CABLEID	IQUANT	14	Cable ID
DCCALDATE	LABEL	5-7-2017	DC Calibration Date
ACCALDATE	LABEL	12/3/2015	AC Calibration Date
FRAMEWORKVERSION	QUANT	7.01	Framework Version
INSTRUMENTVERSION	LABEL	4.00	Instrument Version
CURVE	TABLE	196
	Pt	T	Vf	Im	Vu	Pwr	Sig	Ach	Temp	IERange	Over
	#	s	V	A	V	W	V	V	deg C	#	bits
	0	0.013333	5.48309E-001	2.81276E-004	0.00000E+000	1.54226E-004	1.68088E-001	5.48542E-001	3.57840E+000	9	...........
	1	0.026667	5.75115E-001	2.81457E-004	0.00000E+000	1.61870E-004	1.68088E-001	5.75345E-001	3.57840E+000	9	...........
	2	0.04	5.97305E-001	2.80837E-004	0.00000E+000	1.67745E-004	1.68088E-001	5.97548E-001	3.57840E+000	9	...........
	3	0.053333	6.16213E-001	2.80226E-004	0.00000E+000	1.72679E-004	1.68088E-001	6.16472E-001	3.57840E+000	9	...........
	4	0.066667	6.32629E-001	2.81368E-004	0.00000E+000	1.78002E-004	1.68088E-001	6.32878E-001	3.57840E+000	9	...........
	5	0.08	6.47101E-001	2.80763E-004	0.00000E+000	1.81682E-004	1.68088E-001	6.47372E-001	3.57840E+000	9	...........
	6	0.093333	6.59993E-001	2.81941E-004	0.00000E+000	1.86079E-004	1.68088E-001	6.60249E-001	3.57840E+000	9	...........
	7	0.106667	6.71620E-001	2.80757E-004	0.00000E+000	1.88562E-004	1.68088E-001	6.71884E-001	3.57840E+000	9	...........
	8	0.12	6.82139E-001	2.80711E-004	0.00000E+000	1.91483E-004	1.68088E-001	6.82413E-001	3.57840E+000	9	...........
	9	0.133333	6.91756E-001	2.81360E-004	0.00000E+000	1.94632E-004	1.68088E-001	6.92024E-001	3.57840E+000	9	...........
	10	0.146667	7.00588E-001	2.80847E-004	0.00000E+000	1.96758E-004	1.68088E-001	7.00863E-001	3.57840E+000	9	...........
	11	0.16	7.08748E-001	2.80996E-004	0.00000E+000	1.99155E-004	1.68088E-001	7.09046E-001	3.57840E+000	9	...........
	12	0.173333	7.16347E-001	2.81421E-004	0.00000E+000	2.01595E-004	1.68088E-001	7.16654E-001	3.57840E+000	9	...........
	13	0.186667	7.23441E-001	2.81070E-004	0.00000E+000	2.03338E-004	1.68088E-001	7.23728E-001	3.57840E+000	9	...........
	14	0.2	7.30061E-001	2.80874E-004	0.00000E+000	2.05055E-004	1.68088E-001	7.30354E-001	3.57840E+000	9	...........
	15	0.213333	7.36272E-001	2.81380E-004	0.00000E+000	2.07173E-004	1.68088E-001	7.36555E-001	3.57840E+000	9	...........
	16	0.226667	7.42139E-001	2.80963E-004	0.00000E+000	2.08513E-004	1.68088E-001	7.42474E-001	3.57840E+000	9	...........
	17	0.24	7.47715E-001	2.81183E-004	0.00000E+000	2.10244E-004	1.68088E-001	7.48000E-001	3.57840E+000	9	...........
	18	0.253333	7.52961E-001	2.81126E-004	0.00000E+000	2.11677E-004	1.68088E-001	7.53271E-001	3.57840E+000	9	...........
	19	0.266667	7.57960E-001	2.80781E-004	0.00000E+000	2.12821E-004	1.68088E-001	7.58276E-001	3.57840E+000	9	...........
	20	0.28	7.62690E-001	2.81335E-004	0.00000E+000	2.14571E-004	1.68088E-001	7.63004E-001	3.57840E+000	9	...........
	21	0.293333	7.67216E-001	2.80974E-004	0.00000E+000	2.15568E-004	1.68088E-001	7.67549E-001	3.57840E+000	9	...........
	22	0.306667	7.71567E-001	2.81239E-004	0.00000E+000	2.16994E-004	1.68088E-001	7.71870E-001	3.57840E+000	9	...........
	23	0.32	7.75722E-001	2.80921E-004	0.00000E+000	2.17917E-004	1.68088E-001	7.76032E-001	3.57840E+000	9	...........
	24	0.333333	7.79701E-001	2.80806E-004	0.00000E+000	2.18945E-004	1.68088E-001	7.80014E-001	3.57840E+000	9	...........
	25	0.346667	7.83536E-001	2.81541E-004	0.00000E+000	2.20597E-004	1.68088E-001	7.83844E-001	3.57840E+000	9	...........
	26	0.36	7.87241E-001	2.81096E-004	0.00000E+000	2.21290E-004	1.68088E-001	7.87565E-001	3.57840E+000	9	...........
	27	0.373333	7.90812E-001	2.80985E-004	0.00000E+000	2.22206E-004	1.68088E-001	7.91147E-001	3.57840E+000	9	...........
	28	0.386667	7.94266E-001	2.81231E-004	0.00000E+000	2.23373E-004	1.68088E-001	7.94582E-001	3.57840E+000	9	...........
	29	0.4	7.97554E-001	2.81500E-004	0.00000E+000	2.24512E-004	1.68088E-001	7.97856E-001	3.57840E+000	9	...........
	30	0.413333	8.00757E-001	2.81460E-004	0.00000E+000	2.25381E-004	1.68088E-001	8.01067E-001	3.57840E+000	9	...........
	31	0.426667	8.03837E-001	2.81287E-004	0.00000E+000	2.26109E-004	1.68088E-001	8.04190E-001	3.57840E+000	9	...........
	32	0.44	8.06846E-001	2.81570E-004	0.00000E+000	2.27184E-004	1.68088E-001	8.07195E-001	3.57840E+000	9	...........
	33	0.453333	8.09737E-001	2.81227E-004	0.00000E+000	2.27720E-004	1.68088E-001	8.10075E-001	3.57840E+000	9	...........
	34	0.466667	8.12557E-001	2.81809E-004	0.00000E+000	2.28986E-004	1.68088E-001	8.12901E-001	3.57840E+000	9	...........
	35	0.48	8.15282E-001	2.81258E-004	0.00000E+000	2.29304E-004	1.68088E-001	8.15650E-001	3.57840E+000	9	...........
	36	0.493333	8.17972E-001	2.81458E-004	0.00000E+000	2.30225E-004	1.68088E-001	8.18320E-001	3.57840E+000	9	...........
	37	0.506667	8.20566E-001	2.81041E-004	0.00000E+000	2.30613E-004	1.68088E-001	8.20930E-001	3.57887E+000	9	...........
	38	0.52	8.23059E-001	2.81060E-004	0.00000E+000	2.31329E-004	1.68088E-001	8.23421E-001	3.57910E+000	9	...........
	39	0.533333	8.25547E-001	2.81025E-004	0.00000E+000	2.31999E-004	1.68088E-001	8.25900E-001	3.57910E+000	9	...........
	40	0.546667	8.27932E-001	2.81199E-004	0.00000E+000	2.32814E-004	1.68088E-001	8.28283E-001	3.57910E+000	9	...........
	41	0.56	8.30275E-001	2.80567E-004	0.00000E+000	2.32947E-004	1.68088E-001	8.30613E-001	3.57910E+000	9	...........
	42	0.573333	8.32615E-001	2.80786E-004	0.00000E+000	2.33786E-004	1.68088E-001	8.32946E-001	3.57910E+000	9	...........
	43	0.586667	8.34844E-001	2.81100E-004	0.00000E+000	2.34675E-004	1.68088E-001	8.35203E-001	3.57910E+000	9	...........
	44	0.6	8.37050E-001	2.80526E-004	0.00000E+000	2.34814E-004	1.68088E-001	8.37392E-001	3.57910E+000	9	...........
	45	0.613333	8.39193E-001	2.81407E-004	0.00000E+000	2.36154E-004	1.68088E-001	8.39541E-001	3.57910E+000	9	...........
	46	0.626667	8.41331E-001	2.80851E-004	0.00000E+000	2.36289E-004	1.68088E-001	8.41691E-001	3.57910E+000	9	...........
	47	0.64	8.43432E-001	2.81549E-004	0.00000E+000	2.37468E-004	1.68088E-001	8.43812E-001	3.57910E+000	9	...........
	48	0.653333	8.45514E-001	2.80788E-004	0.00000E+000	2.37410E-004	1.68088E-001	8.45871E-001	3.57910E+000	9	...........
	49	0.666667	8.47526E-001	2.80371E-004	0.00000E+000	2.37622E-004	1.68088E-001	8.47862E-001	3.57910E+000	9	...........
	50	0.68	8.49480E-001	2.81070E-004	0.00000E+000	2.38763E-004	1.68088E-001	8.49837E-001	3.57910E+000	9	...........
	51	0.693333	8.51419E-001	2.80607E-004	0.00000E+000	2.38914E-004	1.68088E-001	8.51768E-001	3.57910E+000	9	...........
	52	0.706667	8.53296E-001	2.81526E-004	0.00000E+000	2.40225E-004	1.68088E-001	8.53628E-001	3.57910E+000	9	...........
	53	0.72	8.55127E-001	2.81304E-004	0.00000E+000	2.40551E-004	1.68088E-001	8.55458E-001	3.57910E+000	9	...........
	54	0.733333	8.56977E-001	2.81600E-004	0.00000E+000	2.41325E-004	1.68088E-001	8.57313E-001	3.57910E+000	9	...........
	55	0.746667	8.58751E-001	2.80831E-004	0.00000E+000	2.41164E-004	1.68088E-001	8.59117E-001	3.57910E+000	9	...........
	56	0.76	8.60543E-001	2.81371E-004	0.00000E+000	2.42132E-004	1.68088E-001	8.60884E-001	3.57910E+000	9	...........
	57	0.773333	8.62278E-001	2.81761E-004	0.00000E+000	2.42956E-004	1.68088E-001	8.62602E-001	3.57910E+000	9	...........
	58	0.786667	8.63987E-001	2.81373E-004	0.00000E+000	2.43103E-004	1.68088E-001	8.64337E-001	3.57910E+000	9	...........
	59	0.8	8.65701E-001	2.80796E-004	0.00000E+000	2.43085E-004	1.68088E-001	8.66044E-001	3.57910E+000	9	...........
	60	0.813333	8.67364E-001	2.81914E-004	0.00000E+000	2.44522E-004	1.68088E-001	8.67727E-001	3.57910E+000	9	...........
	61	0.826667	8.69049E-001	2.81552E-004	0.00000E+000	2.44683E-004	1.68088E-001	8.69388E-001	3.57910E+000	9	...........
	62	0.84	8.70717E-001	2.81210E-004	0.00000E+000	2.44854E-004	1.68088E-001	8.71034E-001	3.57910E+000	9	...........
	63	0.853333	8.72326E-001	2.80973E-004	0.00000E+000	2.45100E-004	1.68088E-001	8.72632E-001	3.57910E+000	9	...........
	64	0.866667	8.73901E-001	2.80980E-004	0.00000E+000	2.45549E-004	1.68088E-001	8.74238E-001	3.57910E+000	9	...........
	65	0.88	8.75493E-001	2.80715E-004	0.00000E+000	2.45764E-004	1.68088E-001	8.75814E-001	3.57910E+000	9	...........
	66	0.893333	8.77031E-001	2.80862E-004	0.00000E+000	2.46324E-004	1.68088E-001	8.77369E-001	3.57910E+000	9	...........
	67	0.906667	8.78580E-001	2.81649E-004	0.00000E+000	2.47451E-004	1.68088E-001	8.78918E-001	3.57910E+000	9	...........
	68	0.92	8.80123E-001	2.81106E-004	0.00000E+000	2.47408E-004	1.68088E-001	8.80447E-001	3.57910E+000	9	...........
	69	0.933333	8.81602E-001	2.80646E-004	0.00000E+000	2.47418E-004	1.68088E-001	8.81969E-001	3.57910E+000	9	...........
	70	0.946667	8.83098E-001	2.80941E-004	0.00000E+000	2.48098E-004	1.68088E-001	8.83471E-001	3.57910E+000	9	...........
	71	0.96	8.84558E-001	2.81062E-004	0.00000E+000	2.48615E-004	1.68088E-001	8.84922E-001	3.57910E+000	9	...........
	72	0.97333	8.85990E-001	2.80769E-004	0.00000E+000	2.48758E-004	1.68088E-001	8.86352E-001	3.57910E+000	9	...........
	73	0.98667	8.87397E-001	2.80667E-004	0.00000E+000	2.49063E-004	1.68088E-001	8.87752E-001	3.57910E+000	9	...........
	74	1	8.88781E-001	2.81696E-004	0.00000E+000	2.50366E-004	1.68088E-001	8.89140E-001	3.57910E+000	9	...........
	75	1.01333	8.90179E-001	2.80884E-004	0.00000E+000	2.50037E-004	1.68088E-001	8.90514E-001	3.57910E+000	9	...........
	76	1.02667	8.91573E-001	2.81271E-004	0.00000E+000	2.50774E-004	1.68088E-001	8.91944E-001	3.57910E+000	9	...........
	77	1.04	8.92966E-001	2.81650E-004	0.00000E+000	2.51504E-004	1.68088E-001	8.93314E-001	3.57910E+000	9	...........
	78	1.05333	8.94307E-001	2.81570E-004	0.00000E+000	2.51810E-004	1.68088E-001	8.94677E-001	3.57910E+000	9	...........
	79	1.06667	8.95662E-001	2.81457E-004	0.00000E+000	2.52090E-004	1.68088E-001	8.96038E-001	3.57910E+000	9	...........
	80	1.08	8.96999E-001	2.81364E-004	0.00000E+000	2.52383E-004	1.68088E-001	8.97357E-001	3.57910E+000	9	...........
	81	1.09333	8.98320E-001	2.81292E-004	0.00000E+000	2.52690E-004	1.68088E-001	8.98684E-001	3.57910E+000	9	...........
	82	1.10667	8.99641E-001	2.80496E-004	0.00000E+000	2.52346E-004	1.68088E-001	8.99980E-001	3.57910E+000	9	...........
	83	1.12	9.00938E-001	2.80690E-004	0.00000E+000	2.52884E-004	1.68088E-001	9.01317E-001	3.57910E+000	9	...........
	84	1.13333	9.02251E-001	2.81352E-004	0.00000E+000	2.53850E-004	1.68088E-001	9.02602E-001	3.57910E+000	9	...........
	85	1.14667	9.03472E-001	2.81328E-004	0.00000E+000	2.54172E-004	1.68088E-001	9.03863E-001	3.57910E+000	9	...........
	86	1.16	9.04780E-001	2.81522E-004	0.00000E+000	2.54716E-004	1.68088E-001	9.05144E-001	3.57910E+000	9	...........
	87	1.17333	9.05998E-001	2.81357E-004	0.00000E+000	2.54908E-004	1.68088E-001	9.06374E-001	3.57910E+000	9	...........
	88	1.18667	9.07187E-001	2.81230E-004	0.00000E+000	2.55129E-004	1.68088E-001	9.07590E-001	3.57910E+000	9	...........
	89	1.2	9.08402E-001	2.81615E-004	0.00000E+000	2.55820E-004	1.68088E-001	9.08773E-001	3.57910E+000	9	...........
	90	1.21333	9.09593E-001	2.81556E-004	0.00000E+000	2.56101E-004	1.68088E-001	9.09947E-001	3.57910E+000	9	...........
	91	1.22667	9.10778E-001	2.80992E-004	0.00000E+000	2.55921E-004	1.68088E-001	9.11132E-001	3.57910E+000	9	...........
	92	1.24	9.11938E-001	2.81131E-004	0.00000E+000	2.56375E-004	1.68088E-001	9.12304E-001	3.57910E+000	9	...........
	93	1.25333	9.13111E-001	2.81291E-004	0.00000E+000	2.56850E-004	1.68088E-001	9.13460E-001	3.57910E+000	9	...........
	94	1.26667	9.14268E-001	2.81254E-004	0.00000E+000	2.57142E-004	1.68088E-001	9.14649E-001	3.57910E+000	9	...........
	95	1.28	9.15434E-001	2.81720E-004	0.00000E+000	2.57896E-004	1.68088E-001	9.15804E-001	3.57910E+000	9	...........
	96	1.29333	9.16576E-001	2.81669E-004	0.00000E+000	2.58171E-004	1.68088E-001	9.16949E-001	3.57910E+000	9	...........
	97	1.30667	9.17701E-001	2.80881E-004	0.00000E+000	2.57765E-004	1.68088E-001	9.18065E-001	3.57910E+000	9	...........
	98	1.32	9.18829E-001	2.81267E-004	0.00000E+000	2.58436E-004	1.68088E-001	9.19194E-001	3.57910E+000	9	...........
	99	1.33333	9.19991E-001	2.81599E-004	0.00000E+000	2.59069E-004	1.68088E-001	9.20334E-001	3.57910E+000	9	...........
	100	1.34667	9.21184E-001	2.81065E-004	0.00000E+000	2.58912E-004	1.68088E-001	9.21495E-001	3.57910E+000	9	...........
	101	1.36	9.22299E-001	2.81230E-004	0.00000E+000	2.59378E-004	1.68088E-001	9.22598E-001	3.57910E+000	9	...........
	102	1.37333	9.23414E-001	2.81501E-004	0.00000E+000	2.59942E-004	1.68088E-001	9.23695E-001	3.57910E+000	9	...........
	103	1.38667	9.24453E-001	2.81582E-004	0.00000E+000	2.60309E-004	1.68088E-001	9.24720E-001	3.57910E+000	9	...........
	104	1.4	9.25531E-001	2.81332E-004	0.00000E+000	2.60381E-004	1.68088E-001	9.25819E-001	3.57910E+000	9	...........
	105	1.41333	9.26621E-001	2.81355E-004	0.00000E+000	2.60710E-004	1.68088E-001	9.26912E-001	3.57910E+000	9	...........
	106	1.42667	9.27709E-001	2.81507E-004	0.00000E+000	2.61156E-004	1.68088E-001	9.28003E-001	3.57910E+000	9	...........
	107	1.44	9.28808E-001	2.81404E-004	0.00000E+000	2.61371E-004	1.68088E-001	9.29104E-001	3.57910E+000	9	...........
	108	1.45333	9.29870E-001	2.81142E-004	0.00000E+000	2.61425E-004	1.68088E-001	9.30159E-001	3.57910E+000	9	...........
	109	1.46667	9.30899E-001	2.81217E-004	0.00000E+000	2.61785E-004	1.68088E-001	9.31198E-001	3.57910E+000	9	...........
	110	1.48	9.31966E-001	2.81838E-004	0.00000E+000	2.62663E-004	1.68088E-001	9.32289E-001	3.57910E+000	9	...........
	111	1.49333	9.32959E-001	2.81871E-004	0.00000E+000	2.62974E-004	1.68088E-001	9.33319E-001	3.57910E+000	9	...........
	112	1.50667	9.33965E-001	2.81653E-004	0.00000E+000	2.63055E-004	1.68088E-001	9.34329E-001	3.57883E+000	9	...........
	113	1.52	9.34971E-001	2.80750E-004	0.00000E+000	2.62493E-004	1.68088E-001	9.35350E-001	3.57870E+000	9	...........
	114	1.53333	9.35956E-001	2.81468E-004	0.00000E+000	2.63442E-004	1.68088E-001	9.36362E-001	3.57870E+000	9	...........
	115	1.54667	9.36980E-001	2.80844E-004	0.00000E+000	2.63145E-004	1.68088E-001	9.37365E-001	3.57870E+000	9	...........
	116	1.56	9.37978E-001	2.80536E-004	0.00000E+000	2.63136E-004	1.68088E-001	9.38383E-001	3.57870E+000	9	...........
	117	1.57333	9.38986E-001	2.81192E-004	0.00000E+000	2.64035E-004	1.68088E-001	9.39391E-001	3.57870E+000	9	...........
	118	1.58667	9.39944E-001	2.81429E-004	0.00000E+000	2.64528E-004	1.68088E-001	9.40341E-001	3.57870E+000	9	...........
	119	1.6	9.40972E-001	2.80925E-004	0.00000E+000	2.64343E-004	1.68088E-001	9.41333E-001	3.57870E+000	9	...........
	120	1.61333	9.41962E-001	2.80796E-004	0.00000E+000	2.64499E-004	1.68088E-001	9.42358E-001	3.57870E+000	9	...........
	121	1.62667	9.42950E-001	2.80781E-004	0.00000E+000	2.64763E-004	1.68088E-001	9.43324E-001	3.57870E+000	9	...........
	122	1.64	9.43947E-001	2.81265E-004	0.00000E+000	2.65499E-004	1.68088E-001	9.44313E-001	3.57870E+000	9	...........
	123	1.65333	9.44901E-001	2.80278E-004	0.00000E+000	2.64835E-004	1.68088E-001	9.45283E-001	3.57870E+000	9	...........
	124	1.66667	9.45880E-001	2.81474E-004	0.00000E+000	2.66241E-004	1.68088E-001	9.46268E-001	3.57870E+000	9	...........
	125	1.68	9.46889E-001	2.81367E-004	0.00000E+000	2.66423E-004	1.68088E-001	9.47238E-001	3.57870E+000	9	...........
	126	1.69333	9.47841E-001	2.81218E-004	0.00000E+000	2.66550E-004	1.68088E-001	9.48179E-001	3.57870E+000	9	...........
	127	1.70667	9.48768E-001	2.81675E-004	0.00000E+000	2.67245E-004	1.68088E-001	9.49100E-001	3.57870E+000	9	...........
	128	1.72	9.49705E-001	2.80993E-004	0.00000E+000	2.66860E-004	1.68088E-001	9.50056E-001	3.57870E+000	9	...........
	129	1.73333	9.50652E-001	2.81478E-004	0.00000E+000	2.67588E-004	1.68088E-001	9.51014E-001	3.57870E+000	9	...........
	130	1.74667	9.51581E-001	2.81068E-004	0.00000E+000	2.67459E-004	1.68088E-001	9.51954E-001	3.57870E+000	9	...........
	131	1.76	9.52462E-001	2.81582E-004	0.00000E+000	2.68196E-004	1.68088E-001	9.52846E-001	3.57870E+000	9	...........
	132	1.77333	9.53365E-001	2.81285E-004	0.00000E+000	2.68167E-004	1.68088E-001	9.53730E-001	3.57870E+000	9	...........
	133	1.78667	9.54255E-001	2.81155E-004	0.00000E+000	2.68294E-004	1.68088E-001	9.54616E-001	3.57870E+000	9	...........
	134	1.8	9.55133E-001	2.81387E-004	0.00000E+000	2.68762E-004	1.68088E-001	9.55488E-001	3.57870E+000	9	...........
	135	1.81333	9.56001E-001	2.80912E-004	0.00000E+000	2.68552E-004	1.68088E-001	9.56359E-001	3.57870E+000	9	...........
	136	1.82667	9.56898E-001	2.81862E-004	0.00000E+000	2.69713E-004	1.68088E-001	9.57243E-001	3.57870E+000	9	...........
	137	1.84	9.57778E-001	2.81135E-004	0.00000E+000	2.69265E-004	1.68088E-001	9.58108E-001	3.57870E+000	9	...........
	138	1.85333	9.58593E-001	2.80965E-004	0.00000E+000	2.69331E-004	1.68088E-001	9.58949E-001	3.57870E+000	9	...........
	139	1.86667	9.59451E-001	2.81394E-004	0.00000E+000	2.69984E-004	1.68088E-001	9.59809E-001	3.57870E+000	9	...........
	140	1.88	9.60316E-001	2.81635E-004	0.00000E+000	2.70458E-004	1.68088E-001	9.60671E-001	3.57870E+000	9	...........
	141	1.89333	9.61153E-001	2.81508E-004	0.00000E+000	2.70572E-004	1.68088E-001	9.61511E-001	3.57870E+000	9	...........
	142	1.90667	9.61959E-001	2.81268E-004	0.00000E+000	2.70568E-004	1.68088E-001	9.62318E-001	3.57870E+000	9	...........
	143	1.92	9.62797E-001	2.80683E-004	0.00000E+000	2.70241E-004	1.68088E-001	9.63141E-001	3.57870E+000	9	...........
	144	1.93333	9.63653E-001	2.80481E-004	0.00000E+000	2.70287E-004	1.68088E-001	9.64028E-001	3.57870E+000	9	...........
	145	1.94667	9.64460E-001	2.81329E-004	0.00000E+000	2.71331E-004	1.68088E-001	9.64841E-001	3.57870E+000	9	...........
	146	1.96	9.65296E-001	2.81087E-004	0.00000E+000	2.71332E-004	1.68088E-001	9.65683E-001	3.57870E+000	9	...........
	147	1.97333	9.66152E-001	2.81455E-004	0.00000E+000	2.71929E-004	1.68088E-001	9.66500E-001	3.57870E+000	9	...........
	148	1.98667	9.66928E-001	2.81587E-004	0.00000E+000	2.72274E-004	1.68088E-001	9.67293E-001	3.57870E+000	9	...........
	149	2	9.67690E-001	2.81020E-004	0.00000E+000	2.71940E-004	1.68088E-001	9.68058E-001	3.57870E+000	9	...........
	150	2.01333	9.68481E-001	2.81470E-004	0.00000E+000	2.72598E-004	1.68088E-001	9.68866E-001	3.57870E+000	9	...........
	151	2.02667	9.69282E-001	2.81343E-004	0.00000E+000	2.72701E-004	1.68088E-001	9.69665E-001	3.57870E+000	9	...........
	152	2.04	9.70109E-001	2.80707E-004	0.00000E+000	2.72317E-004	1.68088E-001	9.70510E-001	3.57870E+000	9	...........
	153	2.05333	9.70875E-001	2.81068E-004	0.00000E+000	2.72882E-004	1.68088E-001	9.71275E-001	3.57870E+000	9	...........
	154	2.06667	9.71612E-001	2.80766E-004	0.00000E+000	2.72795E-004	1.68088E-001	9.72055E-001	3.57870E+000	9	...........
	155	2.08	9.72440E-001	2.80326E-004	0.00000E+000	2.72600E-004	1.68088E-001	9.72835E-001	3.57870E+000	9	...........
	156	2.09333	9.73255E-001	2.81307E-004	0.00000E+000	2.73783E-004	1.68088E-001	9.73594E-001	3.57870E+000	9	...........
	157	2.10667	9.74020E-001	2.81051E-004	0.00000E+000	2.73750E-004	1.68088E-001	9.74375E-001	3.57870E+000	9	...........
	158	2.12	9.74833E-001	2.81266E-004	0.00000E+000	2.74187E-004	1.68088E-001	9.75190E-001	3.57870E+000	9	...........
	159	2.13333	9.75576E-001	2.80864E-004	0.00000E+000	2.74004E-004	1.68088E-001	9.75920E-001	3.57870E+000	9	...........
	160	2.14667	9.76304E-001	2.81285E-004	0.00000E+000	2.74619E-004	1.68088E-001	9.76690E-001	3.57870E+000	9	...........
	161	2.16	9.77070E-001	2.81684E-004	0.00000E+000	2.75225E-004	1.68088E-001	9.77458E-001	3.57870E+000	9	...........
	162	2.17333	9.77813E-001	2.80710E-004	0.00000E+000	2.74481E-004	1.68088E-001	9.78203E-001	3.57870E+000	9	...........
	163	2.18667	9.78582E-001	2.80951E-004	0.00000E+000	2.74934E-004	1.68088E-001	9.78944E-001	3.57870E+000	9	...........
	164	2.2	9.79332E-001	2.81783E-004	0.00000E+000	2.75959E-004	1.68088E-001	9.79656E-001	3.57870E+000	9	...........
	165	2.21333	9.79997E-001	2.81371E-004	0.00000E+000	2.75743E-004	1.68088E-001	9.80349E-001	3.57870E+000	9	...........
	166	2.22667	9.80704E-001	2.80870E-004	0.00000E+000	2.75450E-004	1.68088E-001	9.81050E-001	3.57870E+000	9	...........
	167	2.24	9.81424E-001	2.81819E-004	0.00000E+000	2.76584E-004	1.68088E-001	9.81795E-001	3.57870E+000	9	...........
	168	2.25333	9.82176E-001	2.80706E-004	0.00000E+000	2.75703E-004	1.68088E-001	9.82535E-001	3.57870E+000	9	...........
	169	2.26667	9.82858E-001	2.80775E-004	0.00000E+000	2.75962E-004	1.68088E-001	9.83239E-001	3.57870E+000	9	...........
	170	2.28	9.83546E-001	2.81077E-004	0.00000E+000	2.76452E-004	1.68088E-001	9.83922E-001	3.57870E+000	9	...........
	171	2.29333	9.84223E-001	2.81032E-004	0.00000E+000	2.76599E-004	1.68088E-001	9.84625E-001	3.57870E+000	9	...........
	172	2.30667	9.84930E-001	2.81170E-004	0.00000E+000	2.76933E-004	1.68088E-001	9.85327E-001	3.57870E+000	9	...........
	173	2.32	9.85582E-001	2.81734E-004	0.00000E+000	2.77672E-004	1.68088E-001	9.85982E-001	3.57870E+000	9	...........
	174	2.33333	9.86255E-001	2.81343E-004	0.00000E+000	2.77476E-004	1.68088E-001	9.86658E-001	3.57870E+000	9	...........
	175	2.34667	9.86969E-001	2.81155E-004	0.00000E+000	2.77492E-004	1.68088E-001	9.87370E-001	3.57870E+000	9	...........
	176	2.36	9.87640E-001	2.81004E-004	0.00000E+000	2.77531E-004	1.68088E-001	9.88051E-001	3.57870E+000	9	...........
	177	2.37333	9.88339E-001	2.81529E-004	0.00000E+000	2.78247E-004	1.68088E-001	9.88724E-001	3.57870E+000	9	...........
	178	2.38667	9.89024E-001	2.81683E-004	0.00000E+000	2.78591E-004	1.68088E-001	9.89387E-001	3.57870E+000	9	...........
	179	2.4	9.89663E-001	2.81299E-004	0.00000E+000	2.78392E-004	1.68088E-001	9.90056E-001	3.57870E+000	9	...........
	180	2.41333	9.90327E-001	2.81379E-004	0.00000E+000	2.78658E-004	1.68088E-001	9.90690E-001	3.57870E+000	9	...........
	181	2.42667	9.90956E-001	2.80764E-004	0.00000E+000	2.78225E-004	1.68088E-001	9.91327E-001	3.57870E+000	9	...........
	182	2.44	9.91595E-001	2.81176E-004	0.00000E+000	2.78813E-004	1.68088E-001	9.91989E-001	3.57870E+000	9	...........
	183	2.45333	9.92261E-001	2.81502E-004	0.00000E+000	2.79324E-004	1.68088E-001	9.92625E-001	3.57870E+000	9	...........
	184	2.46667	9.92897E-001	2.81317E-004	0.00000E+000	2.79319E-004	1.68088E-001	9.93309E-001	3.57870E+000	9	...........
	185	2.48	9.93594E-001	2.81526E-004	0.00000E+000	2.79723E-004	1.68088E-001	9.93976E-001	3.57870E+000	9	...........
	186	2.49333	9.94268E-001	2.81534E-004	0.00000E+000	2.79920E-004	1.68088E-001	9.94636E-001	3.57870E+000	9	...........
	187	2.50667	9.94904E-001	2.81170E-004	0.00000E+000	2.79737E-004	1.68088E-001	9.95261E-001	3.57823E+000	9	...........
	188	2.52	9.95529E-001	2.80614E-004	0.00000E+000	2.79359E-004	1.68088E-001	9.95889E-001	3.57800E+000	9	...........
	189	2.53333	9.96175E-001	2.81300E-004	0.00000E+000	2.80224E-004	1.68088E-001	9.96549E-001	3.57800E+000	9	...........
	190	2.54667	9.96781E-001	2.81497E-004	0.00000E+000	2.80591E-004	1.68088E-001	9.97194E-001	3.57800E+000	9	...........
	191	2.56	9.97415E-001	2.80394E-004	0.00000E+000	2.79669E-004	1.68088E-001	9.97825E-001	3.57800E+000	9	...........
	192	2.57333	9.98064E-001	2.81146E-004	0.00000E+000	2.80602E-004	1.68088E-001	9.98461E-001	3.57800E+000	9	...........
	193	2.58667	9.98693E-001	2.81394E-004	0.00000E+000	2.81026E-004	1.68088E-001	9.99111E-001	3.57800E+000	9	...........
	194	2.6	9.99314E-001	2.81202E-004	0.00000E+000	2.81010E-004	1.68088E-001	9.99720E-001	3.57800E+000	9	...........
	195	2.61	9.99811E-001	2.81016E-004	0.00000E+000	2.80963E-004	1.68088E-001	1.00026E+000	3.57800E+000	9	...........
STARTTIMEOFFSET	QUANT	73.49335	Start Time Offset (s)
