EXPLAIN
TAG	PWR800_CHARGE
TITLE	LABEL	PWR Cyclic Charge Discharge (Cell) - Charge Step	Test &Identifier
DATE	LABEL	7-7-2017	Date
TIME	LABEL	15:50:53	Time
NOTES	NOTES	3	&Notes...
	supercap test cell
	2.8mg
	6M KOH
PSTAT	PSTAT	IFC5000-01520	Potentiostat
CAPACITY	QUANT	1.00000E-003	Capacity (A-hr)
CELLTYPE	SELECTOR	1	&Cell Type
WORKINGCONNECTION	SELECTOR	0	&Working Lead
MAXCHARGETIME	VARIABLEANDUNITS	1.00000E+002	s	1.00000E+002	second(s)	Max &Charge Time
CHARGECURRENT	QUANT	2.80000E-004	&Charge Current (A) 
VOLTAGEFINISH	TWOPARAM	F	1.00000E-003	3.60000E+003	&Voltage Finish	 I (A) < 	Max Time(s)
SAMPLETIME	QUANT	1.00000E-002	Sa&mple Period (s)
CHARGESTOPAT1	MULTIPARAM	4	1.00000E+000	Charge Stop At &1	Voltage > Limit	V
CHARGESTOPAT2	MULTIPARAM	0	0.00000E+000	Charge Stop At &2	None	N/A
AESBHCSELECTOR	TOGGLE	F	Save Both Half Cells
IRCOMP	TOGGLE	F	IR &Measure
EOC	QUANT	0	Open Circuit (V)
SEQUENCER	TOGGLE	TRUE	Run as Sequence
PSTATMODEL	IQUANT	53	Pstat Model
PSTATSECTION	LABEL	IFC5000-01520	Pstat Section
PSTATSERIALNO	LABEL	01520	Pstat Serial Number
CTRLMODE	IQUANT	0	Control Mode
ELECTROMETER	IQUANT	1	RE=0 or CS=1
IESTAB	IQUANT	0	I/E Stability
CASPEED	IQUANT	4	Control Amp Speed
CONVENTION	IQUANT	1	Current Convention
ICHRANGE	IQUANT	2	Ich Range
ICHRANGEMODE	TOGGLE	T	Ich Auto Range
ICHOFFSETENABLE	TOGGLE	F	Ich Offset Enable
ICHOFFSET	QUANT	0	Ich Offset (V)
ICHFILTER	IQUANT	1	Ich Filter
VCHRANGE	IQUANT	2	Vch Range
VCHRANGEMODE	TOGGLE	T	Vch Auto Range
VCHOFFSETENABLE	TOGGLE	F	Vch Offset Enable
VCHOFFSET	QUANT	0	Vch Offset (V)
VCHFILTER	IQUANT	1	Vch Filter
IERANGELOWERLIMIT	IQUANT	9	I/E Range Lower Limit
IERANGEMODE	TOGGLE	F	I/E AutoRange
IERANGE	IQUANT	9	I/E Range
ACHSELECT	IQUANT	1	Ach Select
ACHRANGE	IQUANT	2	Ach Range
ACHOFFSETENABLE	TOGGLE	F	Ach Offset Enable
ACHOFFSET	QUANT	0	Ach Offset (V)
ACHFILTER	IQUANT	1	Ach Filter
CABLEID	IQUANT	14	Cable ID
DCCALDATE	LABEL	5-7-2017	DC Calibration Date
ACCALDATE	LABEL	12/3/2015	AC Calibration Date
FRAMEWORKVERSION	QUANT	7.01	Framework Version
INSTRUMENTVERSION	LABEL	4.00	Instrument Version
CURVE	TABLE	102
	Pt	T	Vf	Im	Vu	Pwr	Sig	Ach	Temp	IERange	Over
	#	s	V	A	V	W	V	V	deg C	#	bits
	0	0.013333	5.86895E-001	2.81225E-004	0.00000E+000	1.65050E-004	1.68088E-001	5.87166E-001	3.57860E+000	9	...........
	1	0.026667	6.15834E-001	2.80435E-004	0.00000E+000	1.72702E-004	1.68088E-001	6.16131E-001	3.57860E+000	9	...........
	2	0.04	6.40314E-001	2.80860E-004	0.00000E+000	1.79838E-004	1.68088E-001	6.40599E-001	3.57860E+000	9	...........
	3	0.053333	6.61516E-001	2.81224E-004	0.00000E+000	1.86034E-004	1.68088E-001	6.61809E-001	3.57860E+000	9	...........
	4	0.066667	6.80222E-001	2.81469E-004	0.00000E+000	1.91461E-004	1.68088E-001	6.80514E-001	3.57860E+000	9	...........
	5	0.08	6.96963E-001	2.81067E-004	0.00000E+000	1.95893E-004	1.68088E-001	6.97262E-001	3.57860E+000	9	...........
	6	0.093333	7.12037E-001	2.81020E-004	0.00000E+000	2.00097E-004	1.68088E-001	7.12328E-001	3.57860E+000	9	...........
	7	0.106667	7.25783E-001	2.80967E-004	0.00000E+000	2.03921E-004	1.68088E-001	7.26058E-001	3.57860E+000	9	...........
	8	0.12	7.38311E-001	2.80714E-004	0.00000E+000	2.07254E-004	1.68088E-001	7.38596E-001	3.57860E+000	9	...........
	9	0.133333	7.49885E-001	2.81382E-004	0.00000E+000	2.11004E-004	1.68088E-001	7.50183E-001	3.57860E+000	9	...........
	10	0.146667	7.60564E-001	2.81416E-004	0.00000E+000	2.14035E-004	1.68088E-001	7.60835E-001	3.57860E+000	9	...........
	11	0.16	7.70446E-001	2.81152E-004	0.00000E+000	2.16613E-004	1.68088E-001	7.70745E-001	3.57860E+000	9	...........
	12	0.173333	7.79658E-001	2.81801E-004	0.00000E+000	2.19709E-004	1.68088E-001	7.79956E-001	3.57860E+000	9	...........
	13	0.186667	7.88219E-001	2.80088E-004	0.00000E+000	2.20770E-004	1.68088E-001	7.88524E-001	3.57860E+000	9	...........
	14	0.2	7.96292E-001	2.80980E-004	0.00000E+000	2.23742E-004	1.68088E-001	7.96574E-001	3.57860E+000	9	...........
	15	0.213333	8.03835E-001	2.81125E-004	0.00000E+000	2.25978E-004	1.68088E-001	8.04132E-001	3.57860E+000	9	...........
	16	0.226667	8.10947E-001	2.80856E-004	0.00000E+000	2.27760E-004	1.68088E-001	8.11256E-001	3.57860E+000	9	...........
	17	0.24	8.17624E-001	2.81420E-004	0.00000E+000	2.30096E-004	1.68088E-001	8.17981E-001	3.57860E+000	9	...........
	18	0.253333	8.23966E-001	2.81202E-004	0.00000E+000	2.31701E-004	1.68088E-001	8.24280E-001	3.57860E+000	9	...........
	19	0.266667	8.29923E-001	2.80824E-004	0.00000E+000	2.33062E-004	1.68088E-001	8.30242E-001	3.57860E+000	9	...........
	20	0.28	8.35574E-001	2.82235E-004	0.00000E+000	2.35828E-004	1.68088E-001	8.35928E-001	3.57860E+000	9	...........
	21	0.293333	8.40958E-001	2.81039E-004	0.00000E+000	2.36342E-004	1.68088E-001	8.41317E-001	3.57860E+000	9	...........
	22	0.306667	8.46122E-001	2.81926E-004	0.00000E+000	2.38544E-004	1.68088E-001	8.46481E-001	3.57860E+000	9	...........
	23	0.32	8.50983E-001	2.81145E-004	0.00000E+000	2.39250E-004	1.68088E-001	8.51352E-001	3.57860E+000	9	...........
	24	0.333333	8.55644E-001	2.80607E-004	0.00000E+000	2.40100E-004	1.68088E-001	8.55999E-001	3.57860E+000	9	...........
	25	0.346667	8.60088E-001	2.80819E-004	0.00000E+000	2.41529E-004	1.68088E-001	8.60444E-001	3.57860E+000	9	...........
	26	0.36	8.64300E-001	2.80941E-004	0.00000E+000	2.42817E-004	1.68088E-001	8.64668E-001	3.57860E+000	9	...........
	27	0.373333	8.68419E-001	2.80209E-004	0.00000E+000	2.43339E-004	1.68088E-001	8.68767E-001	3.57860E+000	9	...........
	28	0.386667	8.72310E-001	2.80956E-004	0.00000E+000	2.45081E-004	1.68088E-001	8.72648E-001	3.57860E+000	9	...........
	29	0.4	8.76041E-001	2.81134E-004	0.00000E+000	2.46285E-004	1.68088E-001	8.76389E-001	3.57860E+000	9	...........
	30	0.413333	8.79637E-001	2.81115E-004	0.00000E+000	2.47279E-004	1.68088E-001	8.79959E-001	3.57860E+000	9	...........
	31	0.426667	8.83095E-001	2.81242E-004	0.00000E+000	2.48363E-004	1.68088E-001	8.83437E-001	3.57860E+000	9	...........
	32	0.44	8.86452E-001	2.81556E-004	0.00000E+000	2.49585E-004	1.68088E-001	8.86782E-001	3.57860E+000	9	...........
	33	0.453333	8.89661E-001	2.81449E-004	0.00000E+000	2.50395E-004	1.68088E-001	8.89977E-001	3.57860E+000	9	...........
	34	0.466667	8.92733E-001	2.80631E-004	0.00000E+000	2.50529E-004	1.68088E-001	8.93073E-001	3.57860E+000	9	...........
	35	0.48	8.95736E-001	2.80218E-004	0.00000E+000	2.51001E-004	1.68088E-001	8.96102E-001	3.57860E+000	9	...........
	36	0.493333	8.98642E-001	2.81359E-004	0.00000E+000	2.52841E-004	1.68088E-001	8.98994E-001	3.57860E+000	9	...........
	37	0.506667	9.01411E-001	2.81254E-004	0.00000E+000	2.53526E-004	1.68088E-001	9.01795E-001	3.57860E+000	9	...........
	38	0.52	9.04144E-001	2.81557E-004	0.00000E+000	2.54568E-004	1.68088E-001	9.04522E-001	3.57860E+000	9	...........
	39	0.533333	9.06763E-001	2.81731E-004	0.00000E+000	2.55463E-004	1.68088E-001	9.07174E-001	3.57860E+000	9	...........
	40	0.546667	9.09325E-001	2.81703E-004	0.00000E+000	2.56160E-004	1.68088E-001	9.09684E-001	3.57860E+000	9	...........
	41	0.56	9.11781E-001	2.82093E-004	0.00000E+000	2.57207E-004	1.68088E-001	9.12152E-001	3.57860E+000	9	...........
	42	0.573333	9.14204E-001	2.81048E-004	0.00000E+000	2.56935E-004	1.68088E-001	9.14584E-001	3.57860E+000	9	...........
	43	0.586667	9.16530E-001	2.81718E-004	0.00000E+000	2.58203E-004	1.68088E-001	9.16945E-001	3.57860E+000	9	...........
	44	0.6	9.18847E-001	2.80485E-004	0.00000E+000	2.57723E-004	1.68088E-001	9.19238E-001	3.57860E+000	9	...........
	45	0.613333	9.21112E-001	2.80569E-004	0.00000E+000	2.58435E-004	1.68088E-001	9.21464E-001	3.57860E+000	9	...........
	46	0.626667	9.23269E-001	2.80413E-004	0.00000E+000	2.58896E-004	1.68088E-001	9.23640E-001	3.57860E+000	9	...........
	47	0.64	9.25396E-001	2.81582E-004	0.00000E+000	2.60574E-004	1.68088E-001	9.25740E-001	3.57860E+000	9	...........
	48	0.653333	9.27504E-001	2.80860E-004	0.00000E+000	2.60498E-004	1.68088E-001	9.27858E-001	3.57860E+000	9	...........
	49	0.666667	9.29560E-001	2.80672E-004	0.00000E+000	2.60901E-004	1.68088E-001	9.29928E-001	3.57860E+000	9	...........
	50	0.68	9.31563E-001	2.81750E-004	0.00000E+000	2.62468E-004	1.68088E-001	9.31903E-001	3.57860E+000	9	...........
	51	0.693333	9.33466E-001	2.81220E-004	0.00000E+000	2.62509E-004	1.68088E-001	9.33846E-001	3.57860E+000	9	...........
	52	0.706667	9.35353E-001	2.81231E-004	0.00000E+000	2.63051E-004	1.68088E-001	9.35724E-001	3.57860E+000	9	...........
	53	0.72	9.37228E-001	2.80967E-004	0.00000E+000	2.63330E-004	1.68088E-001	9.37596E-001	3.57860E+000	9	...........
	54	0.733333	9.39049E-001	2.80822E-004	0.00000E+000	2.63706E-004	1.68088E-001	9.39430E-001	3.57860E+000	9	...........
	55	0.746667	9.40852E-001	2.80330E-004	0.00000E+000	2.63749E-004	1.68088E-001	9.41203E-001	3.57860E+000	9	...........
	56	0.76	9.42592E-001	2.81765E-004	0.00000E+000	2.65589E-004	1.68088E-001	9.42953E-001	3.57860E+000	9	...........
	57	0.773333	9.44333E-001	2.81543E-004	0.00000E+000	2.65870E-004	1.68088E-001	9.44694E-001	3.57860E+000	9	...........
	58	0.786667	9.46030E-001	2.81336E-004	0.00000E+000	2.66152E-004	1.68088E-001	9.46421E-001	3.57860E+000	9	...........
	59	0.8	9.47729E-001	2.81227E-004	0.00000E+000	2.66527E-004	1.68088E-001	9.48114E-001	3.57860E+000	9	...........
	60	0.813333	9.49374E-001	2.81319E-004	0.00000E+000	2.67077E-004	1.68088E-001	9.49734E-001	3.57860E+000	9	...........
	61	0.826667	9.51038E-001	2.80971E-004	0.00000E+000	2.67214E-004	1.68088E-001	9.51406E-001	3.57860E+000	9	...........
	62	0.84	9.52626E-001	2.81228E-004	0.00000E+000	2.67905E-004	1.68088E-001	9.53004E-001	3.57860E+000	9	...........
	63	0.853333	9.54232E-001	2.81380E-004	0.00000E+000	2.68502E-004	1.68088E-001	9.54561E-001	3.57860E+000	9	...........
	64	0.866667	9.55766E-001	2.81208E-004	0.00000E+000	2.68769E-004	1.68088E-001	9.56108E-001	3.57860E+000	9	...........
	65	0.88	9.57270E-001	2.80767E-004	0.00000E+000	2.68770E-004	1.68088E-001	9.57591E-001	3.57860E+000	9	...........
	66	0.893333	9.58724E-001	2.82046E-004	0.00000E+000	2.70405E-004	1.68088E-001	9.59099E-001	3.57860E+000	9	...........
	67	0.906667	9.60215E-001	2.80973E-004	0.00000E+000	2.69795E-004	1.68088E-001	9.60558E-001	3.57860E+000	9	...........
	68	0.92	9.61661E-001	2.81674E-004	0.00000E+000	2.70875E-004	1.68088E-001	9.62045E-001	3.57860E+000	9	...........
	69	0.933333	9.63101E-001	2.80940E-004	0.00000E+000	2.70573E-004	1.68088E-001	9.63475E-001	3.57860E+000	9	...........
	70	0.946667	9.64484E-001	2.80426E-004	0.00000E+000	2.70467E-004	1.68088E-001	9.64853E-001	3.57860E+000	9	...........
	71	0.96	9.65826E-001	2.81633E-004	0.00000E+000	2.72008E-004	1.68088E-001	9.66179E-001	3.57860E+000	9	...........
	72	0.97333	9.67190E-001	2.81642E-004	0.00000E+000	2.72401E-004	1.68088E-001	9.67531E-001	3.57860E+000	9	...........
	73	0.98667	9.68522E-001	2.81146E-004	0.00000E+000	2.72296E-004	1.68088E-001	9.68871E-001	3.57860E+000	9	...........
	74	1	9.69847E-001	2.80360E-004	0.00000E+000	2.71907E-004	1.68088E-001	9.70235E-001	3.57807E+000	9	...........
	75	1.01333	9.71175E-001	2.80699E-004	0.00000E+000	2.72608E-004	1.68088E-001	9.71541E-001	3.57790E+000	9	...........
	76	1.02667	9.72458E-001	2.81096E-004	0.00000E+000	2.73354E-004	1.68088E-001	9.72811E-001	3.57790E+000	9	...........
	77	1.04	9.73731E-001	2.81452E-004	0.00000E+000	2.74059E-004	1.68088E-001	9.74046E-001	3.57790E+000	9	...........
	78	1.05333	9.74986E-001	2.81265E-004	0.00000E+000	2.74229E-004	1.68088E-001	9.75331E-001	3.57790E+000	9	...........
	79	1.06667	9.76232E-001	2.80697E-004	0.00000E+000	2.74025E-004	1.68088E-001	9.76576E-001	3.57790E+000	9	...........
	80	1.08	9.77485E-001	2.81240E-004	0.00000E+000	2.74908E-004	1.68088E-001	9.77839E-001	3.57790E+000	9	...........
	81	1.09333	9.78693E-001	2.81287E-004	0.00000E+000	2.75293E-004	1.68088E-001	9.79060E-001	3.57790E+000	9	...........
	82	1.10667	9.79925E-001	2.81046E-004	0.00000E+000	2.75404E-004	1.68088E-001	9.80281E-001	3.57790E+000	9	...........
	83	1.12	9.81100E-001	2.80426E-004	0.00000E+000	2.75126E-004	1.68088E-001	9.81468E-001	3.57790E+000	9	...........
	84	1.13333	9.82284E-001	2.81680E-004	0.00000E+000	2.76689E-004	1.68088E-001	9.82627E-001	3.57790E+000	9	...........
	85	1.14667	9.83436E-001	2.81472E-004	0.00000E+000	2.76810E-004	1.68088E-001	9.83814E-001	3.57790E+000	9	...........
	86	1.16	9.84610E-001	2.81393E-004	0.00000E+000	2.77062E-004	1.68088E-001	9.84992E-001	3.57790E+000	9	...........
	87	1.17333	9.85752E-001	2.80780E-004	0.00000E+000	2.76780E-004	1.68088E-001	9.86125E-001	3.57790E+000	9	...........
	88	1.18667	9.86881E-001	2.80838E-004	0.00000E+000	2.77153E-004	1.68088E-001	9.87267E-001	3.57790E+000	9	...........
	89	1.2	9.88004E-001	2.81180E-004	0.00000E+000	2.77807E-004	1.68088E-001	9.88411E-001	3.57790E+000	9	...........
	90	1.21333	9.89116E-001	2.80894E-004	0.00000E+000	2.77837E-004	1.68088E-001	9.89489E-001	3.57790E+000	9	...........
	91	1.22667	9.90186E-001	2.81192E-004	0.00000E+000	2.78432E-004	1.68088E-001	9.90581E-001	3.57790E+000	9	...........
	92	1.24	9.91234E-001	2.82549E-004	0.00000E+000	2.80073E-004	1.68088E-001	9.91636E-001	3.57790E+000	9	...........
	93	1.25333	9.92281E-001	2.82170E-004	0.00000E+000	2.79992E-004	1.68088E-001	9.92684E-001	3.57790E+000	9	...........
	94	1.26667	9.93319E-001	2.81097E-004	0.00000E+000	2.79219E-004	1.68088E-001	9.93735E-001	3.57790E+000	9	...........
	95	1.28	9.94345E-001	2.81643E-004	0.00000E+000	2.80050E-004	1.68088E-001	9.94740E-001	3.57790E+000	9	...........
	96	1.29333	9.95391E-001	2.81266E-004	0.00000E+000	2.79969E-004	1.68088E-001	9.95790E-001	3.57790E+000	9	...........
	97	1.30667	9.96441E-001	2.81489E-004	0.00000E+000	2.80487E-004	1.68088E-001	9.96817E-001	3.57790E+000	9	...........
	98	1.32	9.97438E-001	2.81046E-004	0.00000E+000	2.80326E-004	1.68088E-001	9.97841E-001	3.57790E+000	9	...........
	99	1.33333	9.98409E-001	2.81112E-004	0.00000E+000	2.80665E-004	1.68088E-001	9.98831E-001	3.57790E+000	9	...........
	100	1.34667	9.99383E-001	2.81076E-004	0.00000E+000	2.80903E-004	1.68088E-001	9.99789E-001	3.57790E+000	9	...........
	101	1.35	1.00001E+000	2.80644E-004	0.00000E+000	2.80646E-004	1.68088E-001	1.00044E+000	3.57790E+000	9	...........
STARTTIMEOFFSET	QUANT	712.6935	Start Time Offset (s)
