EXPLAIN
TAG	PWR800_CHARGE
TITLE	LABEL	PWR Cyclic Charge Discharge (Cell) - Charge Step	Test &Identifier
DATE	LABEL	7-7-2017	Date
TIME	LABEL	15:37:53	Time
NOTES	NOTES	3	&Notes...
	supercap test cell
	2.8mg
	6M KOH
PSTAT	PSTAT	IFC5000-01520	Potentiostat
CAPACITY	QUANT	1.00000E-003	Capacity (A-hr)
CELLTYPE	SELECTOR	1	&Cell Type
WORKINGCONNECTION	SELECTOR	0	&Working Lead
MAXCHARGETIME	VARIABLEANDUNITS	1.00000E+002	s	1.00000E+002	second(s)	Max &Charge Time
CHARGECURRENT	QUANT	2.80000E-004	&Charge Current (A) 
VOLTAGEFINISH	TWOPARAM	F	1.00000E-003	3.60000E+003	&Voltage Finish	 I (A) < 	Max Time(s)
SAMPLETIME	QUANT	1.00000E-002	Sa&mple Period (s)
CHARGESTOPAT1	MULTIPARAM	4	1.00000E+000	Charge Stop At &1	Voltage > Limit	V
CHARGESTOPAT2	MULTIPARAM	0	0.00000E+000	Charge Stop At &2	None	N/A
AESBHCSELECTOR	TOGGLE	F	Save Both Half Cells
IRCOMP	TOGGLE	F	IR &Measure
EOC	QUANT	0	Open Circuit (V)
SEQUENCER	TOGGLE	TRUE	Run as Sequence
PSTATMODEL	IQUANT	53	Pstat Model
PSTATSECTION	LABEL	IFC5000-01520	Pstat Section
PSTATSERIALNO	LABEL	01520	Pstat Serial Number
CTRLMODE	IQUANT	0	Control Mode
ELECTROMETER	IQUANT	1	RE=0 or CS=1
IESTAB	IQUANT	0	I/E Stability
CASPEED	IQUANT	4	Control Amp Speed
CONVENTION	IQUANT	1	Current Convention
ICHRANGE	IQUANT	2	Ich Range
ICHRANGEMODE	TOGGLE	T	Ich Auto Range
ICHOFFSETENABLE	TOGGLE	F	Ich Offset Enable
ICHOFFSET	QUANT	0	Ich Offset (V)
ICHFILTER	IQUANT	1	Ich Filter
VCHRANGE	IQUANT	2	Vch Range
VCHRANGEMODE	TOGGLE	T	Vch Auto Range
VCHOFFSETENABLE	TOGGLE	F	Vch Offset Enable
VCHOFFSET	QUANT	0	Vch Offset (V)
VCHFILTER	IQUANT	1	Vch Filter
IERANGELOWERLIMIT	IQUANT	9	I/E Range Lower Limit
IERANGEMODE	TOGGLE	F	I/E AutoRange
IERANGE	IQUANT	9	I/E Range
ACHSELECT	IQUANT	1	Ach Select
ACHRANGE	IQUANT	2	Ach Range
ACHOFFSETENABLE	TOGGLE	F	Ach Offset Enable
ACHOFFSET	QUANT	0	Ach Offset (V)
ACHFILTER	IQUANT	1	Ach Filter
CABLEID	IQUANT	14	Cable ID
DCCALDATE	LABEL	5-7-2017	DC Calibration Date
ACCALDATE	LABEL	12/3/2015	AC Calibration Date
FRAMEWORKVERSION	QUANT	7.01	Framework Version
INSTRUMENTVERSION	LABEL	4.00	Instrument Version
CURVE	TABLE	189
	Pt	T	Vf	Im	Vu	Pwr	Sig	Ach	Temp	IERange	Over
	#	s	V	A	V	W	V	V	deg C	#	bits
	0	0.013333	5.58665E-001	2.81156E-004	0.00000E+000	1.57072E-004	1.68088E-001	5.58915E-001	3.57850E+000	9	...........
	1	0.026667	5.85293E-001	2.81424E-004	0.00000E+000	1.64716E-004	1.68088E-001	5.85566E-001	3.57850E+000	9	...........
	2	0.04	6.07275E-001	2.81434E-004	0.00000E+000	1.70908E-004	1.68088E-001	6.07553E-001	3.57850E+000	9	...........
	3	0.053333	6.25959E-001	2.81450E-004	0.00000E+000	1.76176E-004	1.68088E-001	6.26223E-001	3.57850E+000	9	...........
	4	0.066667	6.42092E-001	2.81850E-004	0.00000E+000	1.80974E-004	1.68088E-001	6.42362E-001	3.57850E+000	9	...........
	5	0.08	6.56328E-001	2.80969E-004	0.00000E+000	1.84408E-004	1.68088E-001	6.56578E-001	3.57850E+000	9	...........
	6	0.093333	6.69037E-001	2.81044E-004	0.00000E+000	1.88029E-004	1.68088E-001	6.69304E-001	3.57850E+000	9	...........
	7	0.106667	6.80422E-001	2.81369E-004	0.00000E+000	1.91450E-004	1.68088E-001	6.80718E-001	3.57850E+000	9	...........
	8	0.12	6.90784E-001	2.81263E-004	0.00000E+000	1.94292E-004	1.68088E-001	6.91063E-001	3.57850E+000	9	...........
	9	0.133333	7.00248E-001	2.82051E-004	0.00000E+000	1.97506E-004	1.68088E-001	7.00553E-001	3.57850E+000	9	...........
	10	0.146667	7.08977E-001	2.80474E-004	0.00000E+000	1.98850E-004	1.68088E-001	7.09283E-001	3.57850E+000	9	...........
	11	0.16	7.17054E-001	2.80267E-004	0.00000E+000	2.00966E-004	1.68088E-001	7.17329E-001	3.57850E+000	9	...........
	12	0.173333	7.24530E-001	2.80968E-004	0.00000E+000	2.03570E-004	1.68088E-001	7.24795E-001	3.57850E+000	9	...........
	13	0.186667	7.31433E-001	2.80982E-004	0.00000E+000	2.05520E-004	1.68088E-001	7.31741E-001	3.57876E+000	9	...........
	14	0.2	7.37929E-001	2.81169E-004	0.00000E+000	2.07483E-004	1.68088E-001	7.38196E-001	3.57920E+000	9	...........
	15	0.213333	7.44063E-001	2.81302E-004	0.00000E+000	2.09307E-004	1.68088E-001	7.44349E-001	3.57920E+000	9	...........
	16	0.226667	7.49795E-001	2.81115E-004	0.00000E+000	2.10778E-004	1.68088E-001	7.50106E-001	3.57920E+000	9	...........
	17	0.24	7.55239E-001	2.80946E-004	0.00000E+000	2.12181E-004	1.68088E-001	7.55551E-001	3.57920E+000	9	...........
	18	0.253333	7.60414E-001	2.80982E-004	0.00000E+000	2.13663E-004	1.68088E-001	7.60700E-001	3.57920E+000	9	...........
	19	0.266667	7.65271E-001	2.81626E-004	0.00000E+000	2.15520E-004	1.68088E-001	7.65601E-001	3.57920E+000	9	...........
	20	0.28	7.69940E-001	2.80793E-004	0.00000E+000	2.16194E-004	1.68088E-001	7.70239E-001	3.57920E+000	9	...........
	21	0.293333	7.74386E-001	2.81028E-004	0.00000E+000	2.17625E-004	1.68088E-001	7.74675E-001	3.57920E+000	9	...........
	22	0.306667	7.78598E-001	2.81962E-004	0.00000E+000	2.19535E-004	1.68088E-001	7.78917E-001	3.57920E+000	9	...........
	23	0.32	7.82684E-001	2.81943E-004	0.00000E+000	2.20672E-004	1.68088E-001	7.83011E-001	3.57920E+000	9	...........
	24	0.333333	7.86606E-001	2.81166E-004	0.00000E+000	2.21167E-004	1.68088E-001	7.86927E-001	3.57920E+000	9	...........
	25	0.346667	7.90339E-001	2.81223E-004	0.00000E+000	2.22261E-004	1.68088E-001	7.90705E-001	3.57920E+000	9	...........
	26	0.36	7.93984E-001	2.81137E-004	0.00000E+000	2.23218E-004	1.68088E-001	7.94346E-001	3.57920E+000	9	...........
	27	0.373333	7.97460E-001	2.81180E-004	0.00000E+000	2.24230E-004	1.68088E-001	7.97797E-001	3.57920E+000	9	...........
	28	0.386667	8.00809E-001	2.81153E-004	0.00000E+000	2.25150E-004	1.68088E-001	8.01157E-001	3.57920E+000	9	...........
	29	0.4	8.04034E-001	2.81195E-004	0.00000E+000	2.26090E-004	1.68088E-001	8.04370E-001	3.57920E+000	9	...........
	30	0.413333	8.07139E-001	2.81327E-004	0.00000E+000	2.27070E-004	1.68088E-001	8.07488E-001	3.57920E+000	9	...........
	31	0.426667	8.10180E-001	2.80765E-004	0.00000E+000	2.27470E-004	1.68088E-001	8.10507E-001	3.57920E+000	9	...........
	32	0.44	8.13151E-001	2.80317E-004	0.00000E+000	2.27940E-004	1.68088E-001	8.13497E-001	3.57920E+000	9	...........
	33	0.453333	8.16013E-001	2.81672E-004	0.00000E+000	2.29848E-004	1.68088E-001	8.16373E-001	3.57920E+000	9	...........
	34	0.466667	8.18843E-001	2.81062E-004	0.00000E+000	2.30145E-004	1.68088E-001	8.19187E-001	3.57920E+000	9	...........
	35	0.48	8.21559E-001	2.81206E-004	0.00000E+000	2.31028E-004	1.68088E-001	8.21918E-001	3.57920E+000	9	...........
	36	0.493333	8.24209E-001	2.81295E-004	0.00000E+000	2.31846E-004	1.68088E-001	8.24536E-001	3.57920E+000	9	...........
	37	0.506667	8.26754E-001	2.81225E-004	0.00000E+000	2.32504E-004	1.68088E-001	8.27082E-001	3.57920E+000	9	...........
	38	0.52	8.29265E-001	2.81007E-004	0.00000E+000	2.33030E-004	1.68088E-001	8.29581E-001	3.57920E+000	9	...........
	39	0.533333	8.31700E-001	2.80870E-004	0.00000E+000	2.33600E-004	1.68088E-001	8.32040E-001	3.57920E+000	9	...........
	40	0.546667	8.34062E-001	2.81532E-004	0.00000E+000	2.34815E-004	1.68088E-001	8.34396E-001	3.57920E+000	9	...........
	41	0.56	8.36381E-001	2.80159E-004	0.00000E+000	2.34320E-004	1.68088E-001	8.36726E-001	3.57920E+000	9	...........
	42	0.573333	8.38656E-001	2.81582E-004	0.00000E+000	2.36150E-004	1.68088E-001	8.39008E-001	3.57920E+000	9	...........
	43	0.586667	8.40907E-001	2.81424E-004	0.00000E+000	2.36652E-004	1.68088E-001	8.41231E-001	3.57920E+000	9	...........
	44	0.6	8.43107E-001	2.80716E-004	0.00000E+000	2.36673E-004	1.68088E-001	8.43443E-001	3.57920E+000	9	...........
	45	0.613333	8.45343E-001	2.81442E-004	0.00000E+000	2.37915E-004	1.68088E-001	8.45671E-001	3.57920E+000	9	...........
	46	0.626667	8.47461E-001	2.81206E-004	0.00000E+000	2.38311E-004	1.68088E-001	8.47798E-001	3.57920E+000	9	...........
	47	0.64	8.49530E-001	2.80753E-004	0.00000E+000	2.38508E-004	1.68088E-001	8.49866E-001	3.57920E+000	9	...........
	48	0.653333	8.51526E-001	2.80888E-004	0.00000E+000	2.39183E-004	1.68088E-001	8.51864E-001	3.57920E+000	9	...........
	49	0.666667	8.53474E-001	2.80219E-004	0.00000E+000	2.39160E-004	1.68088E-001	8.53829E-001	3.57920E+000	9	...........
	50	0.68	8.55410E-001	2.81746E-004	0.00000E+000	2.41009E-004	1.68088E-001	8.55783E-001	3.57920E+000	9	...........
	51	0.693333	8.57345E-001	2.80831E-004	0.00000E+000	2.40769E-004	1.68088E-001	8.57696E-001	3.57920E+000	9	...........
	52	0.706667	8.59206E-001	2.81252E-004	0.00000E+000	2.41654E-004	1.68088E-001	8.59566E-001	3.57920E+000	9	...........
	53	0.72	8.61103E-001	2.81643E-004	0.00000E+000	2.42524E-004	1.68088E-001	8.61436E-001	3.57920E+000	9	...........
	54	0.733333	8.62915E-001	2.81480E-004	0.00000E+000	2.42894E-004	1.68088E-001	8.63243E-001	3.57920E+000	9	...........
	55	0.746667	8.64696E-001	2.80960E-004	0.00000E+000	2.42945E-004	1.68088E-001	8.65036E-001	3.57920E+000	9	...........
	56	0.76	8.66462E-001	2.81100E-004	0.00000E+000	2.43563E-004	1.68088E-001	8.66808E-001	3.57920E+000	9	...........
	57	0.773333	8.68194E-001	2.80938E-004	0.00000E+000	2.43908E-004	1.68088E-001	8.68519E-001	3.57920E+000	9	...........
	58	0.786667	8.69938E-001	2.80921E-004	0.00000E+000	2.44384E-004	1.68088E-001	8.70269E-001	3.57920E+000	9	...........
	59	0.8	8.71604E-001	2.80609E-004	0.00000E+000	2.44580E-004	1.68088E-001	8.71943E-001	3.57920E+000	9	...........
	60	0.813333	8.73265E-001	2.81074E-004	0.00000E+000	2.45452E-004	1.68088E-001	8.73606E-001	3.57920E+000	9	...........
	61	0.826667	8.74879E-001	2.81521E-004	0.00000E+000	2.46297E-004	1.68088E-001	8.75232E-001	3.57920E+000	9	...........
	62	0.84	8.76499E-001	2.80850E-004	0.00000E+000	2.46165E-004	1.68088E-001	8.76876E-001	3.57920E+000	9	...........
	63	0.853333	8.78110E-001	2.81614E-004	0.00000E+000	2.47288E-004	1.68088E-001	8.78469E-001	3.57920E+000	9	...........
	64	0.866667	8.79700E-001	2.80495E-004	0.00000E+000	2.46751E-004	1.68088E-001	8.80059E-001	3.57920E+000	9	...........
	65	0.88	8.81266E-001	2.81403E-004	0.00000E+000	2.47991E-004	1.68088E-001	8.81624E-001	3.57920E+000	9	...........
	66	0.893333	8.82848E-001	2.81118E-004	0.00000E+000	2.48184E-004	1.68088E-001	8.83198E-001	3.57920E+000	9	...........
	67	0.906667	8.84346E-001	2.82221E-004	0.00000E+000	2.49581E-004	1.68088E-001	8.84702E-001	3.57920E+000	9	...........
	68	0.92	8.85870E-001	2.80932E-004	0.00000E+000	2.48870E-004	1.68088E-001	8.86194E-001	3.57920E+000	9	...........
	69	0.933333	8.87367E-001	2.81781E-004	0.00000E+000	2.50043E-004	1.68088E-001	8.87693E-001	3.57920E+000	9	...........
	70	0.946667	8.88887E-001	2.81631E-004	0.00000E+000	2.50338E-004	1.68088E-001	8.89216E-001	3.57920E+000	9	...........
	71	0.96	8.90377E-001	2.81510E-004	0.00000E+000	2.50650E-004	1.68088E-001	8.90693E-001	3.57920E+000	9	...........
	72	0.97333	8.91792E-001	2.80727E-004	0.00000E+000	2.50350E-004	1.68088E-001	8.92134E-001	3.57920E+000	9	...........
	73	0.98667	8.93232E-001	2.81893E-004	0.00000E+000	2.51796E-004	1.68088E-001	8.93570E-001	3.57920E+000	9	...........
	74	1	8.94650E-001	2.81077E-004	0.00000E+000	2.51466E-004	1.68088E-001	8.95008E-001	3.57920E+000	9	...........
	75	1.01333	8.96035E-001	2.81728E-004	0.00000E+000	2.52439E-004	1.68088E-001	8.96412E-001	3.57920E+000	9	...........
	76	1.02667	8.97399E-001	2.80868E-004	0.00000E+000	2.52051E-004	1.68088E-001	8.97770E-001	3.57920E+000	9	...........
	77	1.04	8.98735E-001	2.80949E-004	0.00000E+000	2.52499E-004	1.68088E-001	8.99110E-001	3.57920E+000	9	...........
	78	1.05333	9.00088E-001	2.81245E-004	0.00000E+000	2.53145E-004	1.68088E-001	9.00453E-001	3.57920E+000	9	...........
	79	1.06667	9.01398E-001	2.81663E-004	0.00000E+000	2.53890E-004	1.68088E-001	9.01792E-001	3.57920E+000	9	...........
	80	1.08	9.02745E-001	2.81019E-004	0.00000E+000	2.53688E-004	1.68088E-001	9.03132E-001	3.57920E+000	9	...........
	81	1.09333	9.04009E-001	2.80175E-004	0.00000E+000	2.53281E-004	1.68088E-001	9.04414E-001	3.57920E+000	9	...........
	82	1.10667	9.05280E-001	2.80839E-004	0.00000E+000	2.54238E-004	1.68088E-001	9.05654E-001	3.57920E+000	9	...........
	83	1.12	9.06533E-001	2.80691E-004	0.00000E+000	2.54455E-004	1.68088E-001	9.06943E-001	3.57920E+000	9	...........
	84	1.13333	9.07823E-001	2.80142E-004	0.00000E+000	2.54319E-004	1.68088E-001	9.08209E-001	3.57920E+000	9	...........
	85	1.14667	9.09060E-001	2.81246E-004	0.00000E+000	2.55670E-004	1.68088E-001	9.09427E-001	3.57920E+000	9	...........
	86	1.16	9.10303E-001	2.81360E-004	0.00000E+000	2.56122E-004	1.68088E-001	9.10657E-001	3.57920E+000	9	...........
	87	1.17333	9.11513E-001	2.80322E-004	0.00000E+000	2.55517E-004	1.68088E-001	9.11857E-001	3.57920E+000	9	...........
	88	1.18667	9.12758E-001	2.81111E-004	0.00000E+000	2.56586E-004	1.68088E-001	9.13095E-001	3.57901E+000	9	...........
	89	1.2	9.14029E-001	2.81503E-004	0.00000E+000	2.57302E-004	1.68088E-001	9.14353E-001	3.57870E+000	9	...........
	90	1.21333	9.15213E-001	2.80410E-004	0.00000E+000	2.56635E-004	1.68088E-001	9.15557E-001	3.57870E+000	9	...........
	91	1.22667	9.16403E-001	2.81053E-004	0.00000E+000	2.57558E-004	1.68088E-001	9.16763E-001	3.57870E+000	9	...........
	92	1.24	9.17569E-001	2.81077E-004	0.00000E+000	2.57908E-004	1.68088E-001	9.17937E-001	3.57870E+000	9	...........
	93	1.25333	9.18747E-001	2.81209E-004	0.00000E+000	2.58360E-004	1.68088E-001	9.19079E-001	3.57870E+000	9	...........
	94	1.26667	9.19900E-001	2.81282E-004	0.00000E+000	2.58751E-004	1.68088E-001	9.20245E-001	3.57870E+000	9	...........
	95	1.28	9.21116E-001	2.80433E-004	0.00000E+000	2.58312E-004	1.68088E-001	9.21425E-001	3.57870E+000	9	...........
	96	1.29333	9.22272E-001	2.82095E-004	0.00000E+000	2.60169E-004	1.68088E-001	9.22572E-001	3.57870E+000	9	...........
	97	1.30667	9.23386E-001	2.81031E-004	0.00000E+000	2.59501E-004	1.68088E-001	9.23690E-001	3.57870E+000	9	...........
	98	1.32	9.24518E-001	2.81022E-004	0.00000E+000	2.59810E-004	1.68088E-001	9.24824E-001	3.57870E+000	9	...........
	99	1.33333	9.25625E-001	2.81586E-004	0.00000E+000	2.60643E-004	1.68088E-001	9.25954E-001	3.57870E+000	9	...........
	100	1.34667	9.26735E-001	2.81593E-004	0.00000E+000	2.60962E-004	1.68088E-001	9.27085E-001	3.57870E+000	9	...........
	101	1.36	9.27869E-001	2.81138E-004	0.00000E+000	2.60859E-004	1.68088E-001	9.28182E-001	3.57870E+000	9	...........
	102	1.37333	9.28975E-001	2.80931E-004	0.00000E+000	2.60978E-004	1.68088E-001	9.29255E-001	3.57870E+000	9	...........
	103	1.38667	9.30045E-001	2.81006E-004	0.00000E+000	2.61349E-004	1.68088E-001	9.30360E-001	3.57870E+000	9	...........
	104	1.4	9.31119E-001	2.80642E-004	0.00000E+000	2.61311E-004	1.68088E-001	9.31400E-001	3.57870E+000	9	...........
	105	1.41333	9.32175E-001	2.80318E-004	0.00000E+000	2.61305E-004	1.68088E-001	9.32462E-001	3.57870E+000	9	...........
	106	1.42667	9.33254E-001	2.80200E-004	0.00000E+000	2.61498E-004	1.68088E-001	9.33578E-001	3.57870E+000	9	...........
	107	1.44	9.34363E-001	2.80236E-004	0.00000E+000	2.61843E-004	1.68088E-001	9.34687E-001	3.57870E+000	9	...........
	108	1.45333	9.35420E-001	2.80915E-004	0.00000E+000	2.62773E-004	1.68088E-001	9.35743E-001	3.57870E+000	9	...........
	109	1.46667	9.36460E-001	2.81727E-004	0.00000E+000	2.63826E-004	1.68088E-001	9.36806E-001	3.57870E+000	9	...........
	110	1.48	9.37470E-001	2.81608E-004	0.00000E+000	2.63999E-004	1.68088E-001	9.37810E-001	3.57870E+000	9	...........
	111	1.49333	9.38488E-001	2.81325E-004	0.00000E+000	2.64020E-004	1.68088E-001	9.38844E-001	3.57870E+000	9	...........
	112	1.50667	9.39500E-001	2.80670E-004	0.00000E+000	2.63689E-004	1.68088E-001	9.39849E-001	3.57870E+000	9	...........
	113	1.52	9.40507E-001	2.80666E-004	0.00000E+000	2.63968E-004	1.68088E-001	9.40866E-001	3.57870E+000	9	...........
	114	1.53333	9.41497E-001	2.80430E-004	0.00000E+000	2.64024E-004	1.68088E-001	9.41845E-001	3.57870E+000	9	...........
	115	1.54667	9.42496E-001	2.81490E-004	0.00000E+000	2.65303E-004	1.68088E-001	9.42839E-001	3.57870E+000	9	...........
	116	1.56	9.43463E-001	2.81138E-004	0.00000E+000	2.65243E-004	1.68088E-001	9.43816E-001	3.57870E+000	9	...........
	117	1.57333	9.44452E-001	2.81922E-004	0.00000E+000	2.66262E-004	1.68088E-001	9.44809E-001	3.57870E+000	9	...........
	118	1.58667	9.45393E-001	2.80645E-004	0.00000E+000	2.65320E-004	1.68088E-001	9.45773E-001	3.57870E+000	9	...........
	119	1.6	9.46407E-001	2.80731E-004	0.00000E+000	2.65686E-004	1.68088E-001	9.46788E-001	3.57870E+000	9	...........
	120	1.61333	9.47474E-001	2.81293E-004	0.00000E+000	2.66518E-004	1.68088E-001	9.47790E-001	3.57870E+000	9	...........
	121	1.62667	9.48402E-001	2.80593E-004	0.00000E+000	2.66115E-004	1.68088E-001	9.48756E-001	3.57870E+000	9	...........
	122	1.64	9.49322E-001	2.81451E-004	0.00000E+000	2.67188E-004	1.68088E-001	9.49699E-001	3.57870E+000	9	...........
	123	1.65333	9.50289E-001	2.81264E-004	0.00000E+000	2.67282E-004	1.68088E-001	9.50646E-001	3.57870E+000	9	...........
	124	1.66667	9.51250E-001	2.81288E-004	0.00000E+000	2.67575E-004	1.68088E-001	9.51606E-001	3.57870E+000	9	...........
	125	1.68	9.52160E-001	2.81384E-004	0.00000E+000	2.67922E-004	1.68088E-001	9.52510E-001	3.57870E+000	9	...........
	126	1.69333	9.53061E-001	2.81565E-004	0.00000E+000	2.68349E-004	1.68088E-001	9.53406E-001	3.57870E+000	9	...........
	127	1.70667	9.53953E-001	2.81318E-004	0.00000E+000	2.68364E-004	1.68088E-001	9.54309E-001	3.57870E+000	9	...........
	128	1.72	9.54872E-001	2.81062E-004	0.00000E+000	2.68378E-004	1.68088E-001	9.55211E-001	3.57870E+000	9	...........
	129	1.73333	9.55761E-001	2.81744E-004	0.00000E+000	2.69280E-004	1.68088E-001	9.56144E-001	3.57870E+000	9	...........
	130	1.74667	9.56649E-001	2.81432E-004	0.00000E+000	2.69231E-004	1.68088E-001	9.57004E-001	3.57870E+000	9	...........
	131	1.76	9.57555E-001	2.81213E-004	0.00000E+000	2.69277E-004	1.68088E-001	9.57916E-001	3.57870E+000	9	...........
	132	1.77333	9.58451E-001	2.80866E-004	0.00000E+000	2.69196E-004	1.68088E-001	9.58825E-001	3.57870E+000	9	...........
	133	1.78667	9.59333E-001	2.80645E-004	0.00000E+000	2.69232E-004	1.68088E-001	9.59718E-001	3.57870E+000	9	...........
	134	1.8	9.60224E-001	2.80553E-004	0.00000E+000	2.69394E-004	1.68088E-001	9.60600E-001	3.57870E+000	9	...........
	135	1.81333	9.61118E-001	2.81160E-004	0.00000E+000	2.70228E-004	1.68088E-001	9.61500E-001	3.57870E+000	9	...........
	136	1.82667	9.61994E-001	2.81435E-004	0.00000E+000	2.70739E-004	1.68088E-001	9.62386E-001	3.57870E+000	9	...........
	137	1.84	9.62825E-001	2.81637E-004	0.00000E+000	2.71167E-004	1.68088E-001	9.63231E-001	3.57870E+000	9	...........
	138	1.85333	9.63684E-001	2.81864E-004	0.00000E+000	2.71628E-004	1.68088E-001	9.64085E-001	3.57870E+000	9	...........
	139	1.86667	9.64538E-001	2.81533E-004	0.00000E+000	2.71549E-004	1.68088E-001	9.64901E-001	3.57870E+000	9	...........
	140	1.88	9.65383E-001	2.81275E-004	0.00000E+000	2.71538E-004	1.68088E-001	9.65730E-001	3.57870E+000	9	...........
	141	1.89333	9.66249E-001	2.80682E-004	0.00000E+000	2.71209E-004	1.68088E-001	9.66594E-001	3.57870E+000	9	...........
	142	1.90667	9.67105E-001	2.81264E-004	0.00000E+000	2.72012E-004	1.68088E-001	9.67436E-001	3.57870E+000	9	...........
	143	1.92	9.67912E-001	2.81692E-004	0.00000E+000	2.72653E-004	1.68088E-001	9.68266E-001	3.57870E+000	9	...........
	144	1.93333	9.68698E-001	2.81596E-004	0.00000E+000	2.72782E-004	1.68088E-001	9.69058E-001	3.57870E+000	9	...........
	145	1.94667	9.69486E-001	2.81507E-004	0.00000E+000	2.72917E-004	1.68088E-001	9.69860E-001	3.57870E+000	9	...........
	146	1.96	9.70264E-001	2.81213E-004	0.00000E+000	2.72851E-004	1.68088E-001	9.70675E-001	3.57870E+000	9	...........
	147	1.97333	9.71072E-001	2.80865E-004	0.00000E+000	2.72740E-004	1.68088E-001	9.71480E-001	3.57870E+000	9	...........
	148	1.98667	9.71872E-001	2.80285E-004	0.00000E+000	2.72402E-004	1.68088E-001	9.72305E-001	3.57870E+000	9	...........
	149	2	9.72753E-001	2.80995E-004	0.00000E+000	2.73339E-004	1.68088E-001	9.73131E-001	3.57870E+000	9	...........
	150	2.01333	9.73561E-001	2.81571E-004	0.00000E+000	2.74127E-004	1.68088E-001	9.73935E-001	3.57870E+000	9	...........
	151	2.02667	9.74365E-001	2.80895E-004	0.00000E+000	2.73694E-004	1.68088E-001	9.74731E-001	3.57870E+000	9	...........
	152	2.04	9.75159E-001	2.81389E-004	0.00000E+000	2.74399E-004	1.68088E-001	9.75523E-001	3.57870E+000	9	...........
	153	2.05333	9.75942E-001	2.81758E-004	0.00000E+000	2.74979E-004	1.68088E-001	9.76301E-001	3.57870E+000	9	...........
	154	2.06667	9.76692E-001	2.81661E-004	0.00000E+000	2.75096E-004	1.68088E-001	9.77070E-001	3.57870E+000	9	...........
	155	2.08	9.77488E-001	2.80679E-004	0.00000E+000	2.74361E-004	1.68088E-001	9.77864E-001	3.57870E+000	9	...........
	156	2.09333	9.78209E-001	2.81532E-004	0.00000E+000	2.75397E-004	1.68088E-001	9.78590E-001	3.57870E+000	9	...........
	157	2.10667	9.78957E-001	2.81454E-004	0.00000E+000	2.75532E-004	1.68088E-001	9.79315E-001	3.57870E+000	9	...........
	158	2.12	9.79705E-001	2.80869E-004	0.00000E+000	2.75169E-004	1.68088E-001	9.80061E-001	3.57870E+000	9	...........
	159	2.13333	9.80454E-001	2.81416E-004	0.00000E+000	2.75915E-004	1.68088E-001	9.80811E-001	3.57870E+000	9	...........
	160	2.14667	9.81190E-001	2.81290E-004	0.00000E+000	2.75999E-004	1.68088E-001	9.81589E-001	3.57870E+000	9	...........
	161	2.16	9.81918E-001	2.81326E-004	0.00000E+000	2.76239E-004	1.68088E-001	9.82302E-001	3.57870E+000	9	...........
	162	2.17333	9.82685E-001	2.81543E-004	0.00000E+000	2.76668E-004	1.68088E-001	9.83081E-001	3.57870E+000	9	...........
	163	2.18667	9.83474E-001	2.80973E-004	0.00000E+000	2.76330E-004	1.68088E-001	9.83861E-001	3.57847E+000	9	...........
	164	2.2	9.84226E-001	2.81177E-004	0.00000E+000	2.76742E-004	1.68088E-001	9.84629E-001	3.57810E+000	9	...........
	165	2.21333	9.84932E-001	2.81174E-004	0.00000E+000	2.76937E-004	1.68088E-001	9.85357E-001	3.57810E+000	9	...........
	166	2.22667	9.85691E-001	2.80731E-004	0.00000E+000	2.76714E-004	1.68088E-001	9.86094E-001	3.57810E+000	9	...........
	167	2.24	9.86399E-001	2.81096E-004	0.00000E+000	2.77273E-004	1.68088E-001	9.86827E-001	3.57810E+000	9	...........
	168	2.25333	9.87101E-001	2.80941E-004	0.00000E+000	2.77317E-004	1.68088E-001	9.87535E-001	3.57810E+000	9	...........
	169	2.26667	9.87820E-001	2.81287E-004	0.00000E+000	2.77861E-004	1.68088E-001	9.88246E-001	3.57810E+000	9	...........
	170	2.28	9.88538E-001	2.82357E-004	0.00000E+000	2.79120E-004	1.68088E-001	9.88947E-001	3.57810E+000	9	...........
	171	2.29333	9.89236E-001	2.80839E-004	0.00000E+000	2.77816E-004	1.68088E-001	9.89661E-001	3.57810E+000	9	...........
	172	2.30667	9.89965E-001	2.81155E-004	0.00000E+000	2.78334E-004	1.68088E-001	9.90372E-001	3.57810E+000	9	...........
	173	2.32	9.90645E-001	2.80628E-004	0.00000E+000	2.78003E-004	1.68088E-001	9.91067E-001	3.57810E+000	9	...........
	174	2.33333	9.91355E-001	2.80944E-004	0.00000E+000	2.78515E-004	1.68088E-001	9.91755E-001	3.57810E+000	9	...........
	175	2.34667	9.92019E-001	2.81004E-004	0.00000E+000	2.78762E-004	1.68088E-001	9.92424E-001	3.57810E+000	9	...........
	176	2.36	9.92681E-001	2.81156E-004	0.00000E+000	2.79099E-004	1.68088E-001	9.93085E-001	3.57810E+000	9	...........
	177	2.37333	9.93336E-001	2.81769E-004	0.00000E+000	2.79891E-004	1.68088E-001	9.93749E-001	3.57810E+000	9	...........
	178	2.38667	9.93970E-001	2.81523E-004	0.00000E+000	2.79826E-004	1.68088E-001	9.94385E-001	3.57810E+000	9	...........
	179	2.4	9.94628E-001	2.81771E-004	0.00000E+000	2.80257E-004	1.68088E-001	9.95029E-001	3.57810E+000	9	...........
	180	2.41333	9.95291E-001	2.81411E-004	0.00000E+000	2.80085E-004	1.68088E-001	9.95692E-001	3.57810E+000	9	...........
	181	2.42667	9.95903E-001	2.80706E-004	0.00000E+000	2.79556E-004	1.68088E-001	9.96280E-001	3.57810E+000	9	...........
	182	2.44	9.96498E-001	2.81595E-004	0.00000E+000	2.80609E-004	1.68088E-001	9.96917E-001	3.57810E+000	9	...........
	183	2.45333	9.97148E-001	2.80101E-004	0.00000E+000	2.79302E-004	1.68088E-001	9.97566E-001	3.57810E+000	9	...........
	184	2.46667	9.97811E-001	2.80971E-004	0.00000E+000	2.80356E-004	1.68088E-001	9.98212E-001	3.57810E+000	9	...........
	185	2.48	9.98452E-001	2.81865E-004	0.00000E+000	2.81429E-004	1.68088E-001	9.98852E-001	3.57810E+000	9	...........
	186	2.49333	9.99086E-001	2.81184E-004	0.00000E+000	2.80926E-004	1.68088E-001	9.99486E-001	3.57810E+000	9	...........
	187	2.50667	9.99667E-001	2.80849E-004	0.00000E+000	2.80756E-004	1.68088E-001	1.00005E+000	3.57810E+000	9	...........
	188	2.51	1.00001E+000	2.81748E-004	0.00000E+000	2.81751E-004	1.68088E-001	1.00040E+000	3.57810E+000	9	...........
STARTTIMEOFFSET	QUANT	96.3934	Start Time Offset (s)
