EXPLAIN
TAG	PWR800_CHARGE
TITLE	LABEL	PWR Cyclic Charge Discharge (Cell) - Charge Step	Test &Identifier
DATE	LABEL	7-7-2017	Date
TIME	LABEL	16:04:54	Time
NOTES	NOTES	3	&Notes...
	supercap test cell
	2.8mg
	6M KOH
PSTAT	PSTAT	IFC5000-01520	Potentiostat
CAPACITY	QUANT	1.00000E-003	Capacity (A-hr)
CELLTYPE	SELECTOR	1	&Cell Type
WORKINGCONNECTION	SELECTOR	0	&Working Lead
MAXCHARGETIME	VARIABLEANDUNITS	1.00000E+002	s	1.00000E+002	second(s)	Max &Charge Time
CHARGECURRENT	QUANT	2.80000E-004	&Charge Current (A) 
VOLTAGEFINISH	TWOPARAM	F	1.00000E-003	3.60000E+003	&Voltage Finish	 I (A) < 	Max Time(s)
SAMPLETIME	QUANT	1.00000E-002	Sa&mple Period (s)
CHARGESTOPAT1	MULTIPARAM	4	1.00000E+000	Charge Stop At &1	Voltage > Limit	V
CHARGESTOPAT2	MULTIPARAM	0	0.00000E+000	Charge Stop At &2	None	N/A
AESBHCSELECTOR	TOGGLE	F	Save Both Half Cells
IRCOMP	TOGGLE	F	IR &Measure
EOC	QUANT	0	Open Circuit (V)
SEQUENCER	TOGGLE	TRUE	Run as Sequence
PSTATMODEL	IQUANT	53	Pstat Model
PSTATSECTION	LABEL	IFC5000-01520	Pstat Section
PSTATSERIALNO	LABEL	01520	Pstat Serial Number
CTRLMODE	IQUANT	0	Control Mode
ELECTROMETER	IQUANT	1	RE=0 or CS=1
IESTAB	IQUANT	0	I/E Stability
CASPEED	IQUANT	4	Control Amp Speed
CONVENTION	IQUANT	1	Current Convention
ICHRANGE	IQUANT	2	Ich Range
ICHRANGEMODE	TOGGLE	T	Ich Auto Range
ICHOFFSETENABLE	TOGGLE	F	Ich Offset Enable
ICHOFFSET	QUANT	0	Ich Offset (V)
ICHFILTER	IQUANT	1	Ich Filter
VCHRANGE	IQUANT	2	Vch Range
VCHRANGEMODE	TOGGLE	T	Vch Auto Range
VCHOFFSETENABLE	TOGGLE	F	Vch Offset Enable
VCHOFFSET	QUANT	0	Vch Offset (V)
VCHFILTER	IQUANT	1	Vch Filter
IERANGELOWERLIMIT	IQUANT	9	I/E Range Lower Limit
IERANGEMODE	TOGGLE	F	I/E AutoRange
IERANGE	IQUANT	9	I/E Range
ACHSELECT	IQUANT	1	Ach Select
ACHRANGE	IQUANT	2	Ach Range
ACHOFFSETENABLE	TOGGLE	F	Ach Offset Enable
ACHOFFSET	QUANT	0	Ach Offset (V)
ACHFILTER	IQUANT	1	Ach Filter
CABLEID	IQUANT	14	Cable ID
DCCALDATE	LABEL	5-7-2017	DC Calibration Date
ACCALDATE	LABEL	12/3/2015	AC Calibration Date
FRAMEWORKVERSION	QUANT	7.01	Framework Version
INSTRUMENTVERSION	LABEL	4.00	Instrument Version
CURVE	TABLE	73
	Pt	T	Vf	Im	Vu	Pwr	Sig	Ach	Temp	IERange	Over
	#	s	V	A	V	W	V	V	deg C	#	bits
	0	0.013333	5.99723E-001	2.81358E-004	0.00000E+000	1.68737E-004	1.68088E-001	6.00007E-001	3.57890E+000	9	...........
	1	0.026667	6.29682E-001	2.81713E-004	0.00000E+000	1.77389E-004	1.68088E-001	6.29942E-001	3.57890E+000	9	...........
	2	0.04	6.55271E-001	2.81388E-004	0.00000E+000	1.84385E-004	1.68088E-001	6.55541E-001	3.57890E+000	9	...........
	3	0.053333	6.77681E-001	2.81890E-004	0.00000E+000	1.91031E-004	1.68088E-001	6.77939E-001	3.57890E+000	9	...........
	4	0.066667	6.97607E-001	2.82120E-004	0.00000E+000	1.96809E-004	1.68088E-001	6.97874E-001	3.57890E+000	9	...........
	5	0.08	7.15558E-001	2.80508E-004	0.00000E+000	2.00720E-004	1.68088E-001	7.15835E-001	3.57890E+000	9	...........
	6	0.093333	7.31863E-001	2.82526E-004	0.00000E+000	2.06770E-004	1.68088E-001	7.32133E-001	3.57890E+000	9	...........
	7	0.106667	7.46775E-001	2.81349E-004	0.00000E+000	2.10105E-004	1.68088E-001	7.47064E-001	3.57890E+000	9	...........
	8	0.12	7.60474E-001	2.81042E-004	0.00000E+000	2.13725E-004	1.68088E-001	7.60755E-001	3.57890E+000	9	...........
	9	0.133333	7.73118E-001	2.80891E-004	0.00000E+000	2.17162E-004	1.68088E-001	7.73415E-001	3.57890E+000	9	...........
	10	0.146667	7.84810E-001	2.80549E-004	0.00000E+000	2.20178E-004	1.68088E-001	7.85097E-001	3.57890E+000	9	...........
	11	0.16	7.95669E-001	2.80214E-004	0.00000E+000	2.22957E-004	1.68088E-001	7.95962E-001	3.57890E+000	9	...........
	12	0.173333	8.05753E-001	2.81080E-004	0.00000E+000	2.26481E-004	1.68088E-001	8.06076E-001	3.57890E+000	9	...........
	13	0.186667	8.15190E-001	2.80866E-004	0.00000E+000	2.28959E-004	1.68088E-001	8.15545E-001	3.57890E+000	9	...........
	14	0.2	8.24036E-001	2.81702E-004	0.00000E+000	2.32133E-004	1.68088E-001	8.24367E-001	3.57890E+000	9	...........
	15	0.213333	8.32253E-001	2.82331E-004	0.00000E+000	2.34970E-004	1.68088E-001	8.32578E-001	3.57890E+000	9	...........
	16	0.226667	8.40012E-001	2.81403E-004	0.00000E+000	2.36382E-004	1.68088E-001	8.40331E-001	3.57890E+000	9	...........
	17	0.24	8.47323E-001	2.80874E-004	0.00000E+000	2.37991E-004	1.68088E-001	8.47676E-001	3.57890E+000	9	...........
	18	0.253333	8.54162E-001	2.81011E-004	0.00000E+000	2.40029E-004	1.68088E-001	8.54526E-001	3.57890E+000	9	...........
	19	0.266667	8.60633E-001	2.81419E-004	0.00000E+000	2.42199E-004	1.68088E-001	8.61031E-001	3.57890E+000	9	...........
	20	0.28	8.66773E-001	2.80557E-004	0.00000E+000	2.43180E-004	1.68088E-001	8.67156E-001	3.57890E+000	9	...........
	21	0.293333	8.72611E-001	2.81717E-004	0.00000E+000	2.45829E-004	1.68088E-001	8.72967E-001	3.57890E+000	9	...........
	22	0.306667	8.78045E-001	2.81327E-004	0.00000E+000	2.47018E-004	1.68088E-001	8.78408E-001	3.57890E+000	9	...........
	23	0.32	8.83235E-001	2.80554E-004	0.00000E+000	2.47795E-004	1.68088E-001	8.83598E-001	3.57890E+000	9	...........
	24	0.333333	8.88153E-001	2.80925E-004	0.00000E+000	2.49505E-004	1.68088E-001	8.88507E-001	3.57890E+000	9	...........
	25	0.346667	8.92830E-001	2.82258E-004	0.00000E+000	2.52008E-004	1.68088E-001	8.93179E-001	3.57890E+000	9	...........
	26	0.36	8.97283E-001	2.82372E-004	0.00000E+000	2.53368E-004	1.68088E-001	8.97642E-001	3.57890E+000	9	...........
	27	0.373333	9.01531E-001	2.80729E-004	0.00000E+000	2.53086E-004	1.68088E-001	9.01909E-001	3.57890E+000	9	...........
	28	0.386667	9.05614E-001	2.81450E-004	0.00000E+000	2.54885E-004	1.68088E-001	9.05993E-001	3.57868E+000	9	...........
	29	0.4	9.09544E-001	2.80245E-004	0.00000E+000	2.54895E-004	1.68088E-001	9.09917E-001	3.57830E+000	9	...........
	30	0.413333	9.13264E-001	2.81166E-004	0.00000E+000	2.56779E-004	1.68088E-001	9.13632E-001	3.57830E+000	9	...........
	31	0.426667	9.16826E-001	2.80644E-004	0.00000E+000	2.57302E-004	1.68088E-001	9.17217E-001	3.57830E+000	9	...........
	32	0.44	9.20284E-001	2.80110E-004	0.00000E+000	2.57781E-004	1.68088E-001	9.20643E-001	3.57830E+000	9	...........
	33	0.453333	9.23634E-001	2.81488E-004	0.00000E+000	2.59992E-004	1.68088E-001	9.23929E-001	3.57830E+000	9	...........
	34	0.466667	9.26765E-001	2.79467E-004	0.00000E+000	2.59000E-004	1.68088E-001	9.27098E-001	3.57830E+000	9	...........
	35	0.48	9.29866E-001	2.80903E-004	0.00000E+000	2.61203E-004	1.68088E-001	9.30177E-001	3.57830E+000	9	...........
	36	0.493333	9.32822E-001	2.81156E-004	0.00000E+000	2.62269E-004	1.68088E-001	9.33142E-001	3.57830E+000	9	...........
	37	0.506667	9.35627E-001	2.80978E-004	0.00000E+000	2.62891E-004	1.68088E-001	9.35974E-001	3.57830E+000	9	...........
	38	0.52	9.38368E-001	2.81707E-004	0.00000E+000	2.64345E-004	1.68088E-001	9.38726E-001	3.57830E+000	9	...........
	39	0.533333	9.41012E-001	2.82219E-004	0.00000E+000	2.65572E-004	1.68088E-001	9.41341E-001	3.57830E+000	9	...........
	40	0.546667	9.43526E-001	2.82721E-004	0.00000E+000	2.66755E-004	1.68088E-001	9.43879E-001	3.57830E+000	9	...........
	41	0.56	9.46032E-001	2.79952E-004	0.00000E+000	2.64844E-004	1.68088E-001	9.46404E-001	3.57830E+000	9	...........
	42	0.573333	9.48492E-001	2.80552E-004	0.00000E+000	2.66102E-004	1.68088E-001	9.48841E-001	3.57830E+000	9	...........
	43	0.586667	9.50840E-001	2.80899E-004	0.00000E+000	2.67090E-004	1.68088E-001	9.51186E-001	3.57830E+000	9	...........
	44	0.6	9.53139E-001	2.81226E-004	0.00000E+000	2.68048E-004	1.68088E-001	9.53518E-001	3.57830E+000	9	...........
	45	0.613333	9.55375E-001	2.81587E-004	0.00000E+000	2.69021E-004	1.68088E-001	9.55730E-001	3.57830E+000	9	...........
	46	0.626667	9.57532E-001	2.82323E-004	0.00000E+000	2.70334E-004	1.68088E-001	9.57898E-001	3.57830E+000	9	...........
	47	0.64	9.59625E-001	2.81509E-004	0.00000E+000	2.70143E-004	1.68088E-001	9.60018E-001	3.57830E+000	9	...........
	48	0.653333	9.61697E-001	2.82014E-004	0.00000E+000	2.71212E-004	1.68088E-001	9.62060E-001	3.57830E+000	9	...........
	49	0.666667	9.63711E-001	2.81968E-004	0.00000E+000	2.71736E-004	1.68088E-001	9.64099E-001	3.57830E+000	9	...........
	50	0.68	9.65667E-001	2.81593E-004	0.00000E+000	2.71925E-004	1.68088E-001	9.66030E-001	3.57830E+000	9	...........
	51	0.693333	9.67575E-001	2.80680E-004	0.00000E+000	2.71579E-004	1.68088E-001	9.67919E-001	3.57830E+000	9	...........
	52	0.706667	9.69442E-001	2.81400E-004	0.00000E+000	2.72801E-004	1.68088E-001	9.69790E-001	3.57830E+000	9	...........
	53	0.72	9.71254E-001	2.82032E-004	0.00000E+000	2.73924E-004	1.68088E-001	9.71650E-001	3.57830E+000	9	...........
	54	0.733333	9.73067E-001	2.80580E-004	0.00000E+000	2.73024E-004	1.68088E-001	9.73444E-001	3.57830E+000	9	...........
	55	0.746667	9.74842E-001	2.80677E-004	0.00000E+000	2.73616E-004	1.68088E-001	9.75220E-001	3.57830E+000	9	...........
	56	0.76	9.76591E-001	2.82582E-004	0.00000E+000	2.75967E-004	1.68088E-001	9.77003E-001	3.57830E+000	9	...........
	57	0.773333	9.78273E-001	2.82471E-004	0.00000E+000	2.76334E-004	1.68088E-001	9.78675E-001	3.57830E+000	9	...........
	58	0.786667	9.79959E-001	2.81351E-004	0.00000E+000	2.75713E-004	1.68088E-001	9.80330E-001	3.57830E+000	9	...........
	59	0.8	9.81586E-001	2.82255E-004	0.00000E+000	2.77057E-004	1.68088E-001	9.81975E-001	3.57830E+000	9	...........
	60	0.813333	9.83182E-001	2.81330E-004	0.00000E+000	2.76599E-004	1.68088E-001	9.83572E-001	3.57830E+000	9	...........
	61	0.826667	9.84767E-001	2.81287E-004	0.00000E+000	2.77002E-004	1.68088E-001	9.85187E-001	3.57830E+000	9	...........
	62	0.84	9.86315E-001	2.80733E-004	0.00000E+000	2.76892E-004	1.68088E-001	9.86722E-001	3.57830E+000	9	...........
	63	0.853333	9.87829E-001	2.80494E-004	0.00000E+000	2.77080E-004	1.68088E-001	9.88250E-001	3.57830E+000	9	...........
	64	0.866667	9.89312E-001	2.81320E-004	0.00000E+000	2.78313E-004	1.68088E-001	9.89716E-001	3.57830E+000	9	...........
	65	0.88	9.90749E-001	2.80788E-004	0.00000E+000	2.78190E-004	1.68088E-001	9.91144E-001	3.57830E+000	9	...........
	66	0.893333	9.92148E-001	2.80875E-004	0.00000E+000	2.78670E-004	1.68088E-001	9.92562E-001	3.57830E+000	9	...........
	67	0.906667	9.93570E-001	2.79820E-004	0.00000E+000	2.78020E-004	1.68088E-001	9.93970E-001	3.57830E+000	9	...........
	68	0.92	9.94977E-001	2.81350E-004	0.00000E+000	2.79937E-004	1.68088E-001	9.95351E-001	3.57830E+000	9	...........
	69	0.933333	9.96351E-001	2.81738E-004	0.00000E+000	2.80710E-004	1.68088E-001	9.96730E-001	3.57830E+000	9	...........
	70	0.946667	9.97703E-001	2.81534E-004	0.00000E+000	2.80887E-004	1.68088E-001	9.98081E-001	3.57830E+000	9	...........
	71	0.96	9.99043E-001	2.82256E-004	0.00000E+000	2.81986E-004	1.68088E-001	9.99420E-001	3.57830E+000	9	...........
	72	0.965	9.99946E-001	2.83203E-004	0.00000E+000	2.83187E-004	1.68088E-001	1.00028E+000	3.57830E+000	9	...........
STARTTIMEOFFSET	QUANT	1314.903	Start Time Offset (s)
