EXPLAIN
TAG	PWR800_CHARGE
TITLE	LABEL	PWR Cyclic Charge Discharge (Cell) - Charge Step	Test &Identifier
DATE	LABEL	7-7-2017	Date
TIME	LABEL	16:18:32	Time
NOTES	NOTES	3	&Notes...
	supercap test cell
	2.8mg
	6M KOH
PSTAT	PSTAT	IFC5000-01520	Potentiostat
CAPACITY	QUANT	1.00000E-003	Capacity (A-hr)
CELLTYPE	SELECTOR	1	&Cell Type
WORKINGCONNECTION	SELECTOR	0	&Working Lead
MAXCHARGETIME	VARIABLEANDUNITS	1.00000E+002	s	1.00000E+002	second(s)	Max &Charge Time
CHARGECURRENT	QUANT	2.80000E-004	&Charge Current (A) 
VOLTAGEFINISH	TWOPARAM	F	1.00000E-003	3.60000E+003	&Voltage Finish	 I (A) < 	Max Time(s)
SAMPLETIME	QUANT	1.00000E-002	Sa&mple Period (s)
CHARGESTOPAT1	MULTIPARAM	4	1.00000E+000	Charge Stop At &1	Voltage > Limit	V
CHARGESTOPAT2	MULTIPARAM	0	0.00000E+000	Charge Stop At &2	None	N/A
AESBHCSELECTOR	TOGGLE	F	Save Both Half Cells
IRCOMP	TOGGLE	F	IR &Measure
EOC	QUANT	0	Open Circuit (V)
SEQUENCER	TOGGLE	TRUE	Run as Sequence
PSTATMODEL	IQUANT	53	Pstat Model
PSTATSECTION	LABEL	IFC5000-01520	Pstat Section
PSTATSERIALNO	LABEL	01520	Pstat Serial Number
CTRLMODE	IQUANT	0	Control Mode
ELECTROMETER	IQUANT	1	RE=0 or CS=1
IESTAB	IQUANT	0	I/E Stability
CASPEED	IQUANT	4	Control Amp Speed
CONVENTION	IQUANT	1	Current Convention
ICHRANGE	IQUANT	2	Ich Range
ICHRANGEMODE	TOGGLE	T	Ich Auto Range
ICHOFFSETENABLE	TOGGLE	F	Ich Offset Enable
ICHOFFSET	QUANT	0	Ich Offset (V)
ICHFILTER	IQUANT	1	Ich Filter
VCHRANGE	IQUANT	2	Vch Range
VCHRANGEMODE	TOGGLE	T	Vch Auto Range
VCHOFFSETENABLE	TOGGLE	F	Vch Offset Enable
VCHOFFSET	QUANT	0	Vch Offset (V)
VCHFILTER	IQUANT	1	Vch Filter
IERANGELOWERLIMIT	IQUANT	9	I/E Range Lower Limit
IERANGEMODE	TOGGLE	F	I/E AutoRange
IERANGE	IQUANT	9	I/E Range
ACHSELECT	IQUANT	1	Ach Select
ACHRANGE	IQUANT	2	Ach Range
ACHOFFSETENABLE	TOGGLE	F	Ach Offset Enable
ACHOFFSET	QUANT	0	Ach Offset (V)
ACHFILTER	IQUANT	1	Ach Filter
CABLEID	IQUANT	14	Cable ID
DCCALDATE	LABEL	5-7-2017	DC Calibration Date
ACCALDATE	LABEL	12/3/2015	AC Calibration Date
FRAMEWORKVERSION	QUANT	7.01	Framework Version
INSTRUMENTVERSION	LABEL	4.00	Instrument Version
CURVE	TABLE	61
	Pt	T	Vf	Im	Vu	Pwr	Sig	Ach	Temp	IERange	Over
	#	s	V	A	V	W	V	V	deg C	#	bits
	0	0.013333	6.09794E-001	2.81388E-004	0.00000E+000	1.71589E-004	1.68088E-001	6.10066E-001	3.57740E+000	9	...........
	1	0.026667	6.40128E-001	2.80600E-004	0.00000E+000	1.79620E-004	1.68088E-001	6.40417E-001	3.57740E+000	9	...........
	2	0.04	6.66251E-001	2.81198E-004	0.00000E+000	1.87349E-004	1.68088E-001	6.66514E-001	3.57740E+000	9	...........
	3	0.053333	6.89240E-001	2.81158E-004	0.00000E+000	1.93785E-004	1.68088E-001	6.89535E-001	3.57740E+000	9	...........
	4	0.066667	7.09800E-001	2.82211E-004	0.00000E+000	2.00313E-004	1.68088E-001	7.10078E-001	3.57740E+000	9	...........
	5	0.08	7.28391E-001	2.80389E-004	0.00000E+000	2.04232E-004	1.68088E-001	7.28673E-001	3.57740E+000	9	...........
	6	0.093333	7.45296E-001	2.80876E-004	0.00000E+000	2.09336E-004	1.68088E-001	7.45580E-001	3.57740E+000	9	...........
	7	0.106667	7.60746E-001	2.81624E-004	0.00000E+000	2.14245E-004	1.68088E-001	7.61071E-001	3.57740E+000	9	...........
	8	0.12	7.75037E-001	2.80786E-004	0.00000E+000	2.17619E-004	1.68088E-001	7.75335E-001	3.57740E+000	9	...........
	9	0.133333	7.88199E-001	2.82364E-004	0.00000E+000	2.22559E-004	1.68088E-001	7.88515E-001	3.57740E+000	9	...........
	10	0.146667	8.00373E-001	2.82348E-004	0.00000E+000	2.25984E-004	1.68088E-001	8.00686E-001	3.57740E+000	9	...........
	11	0.16	8.11664E-001	2.81517E-004	0.00000E+000	2.28497E-004	1.68088E-001	8.11987E-001	3.57740E+000	9	...........
	12	0.173333	8.22190E-001	2.81742E-004	0.00000E+000	2.31646E-004	1.68088E-001	8.22518E-001	3.57740E+000	9	...........
	13	0.186667	8.31951E-001	2.80543E-004	0.00000E+000	2.33398E-004	1.68088E-001	8.32281E-001	3.57740E+000	9	...........
	14	0.2	8.41055E-001	2.81396E-004	0.00000E+000	2.36670E-004	1.68088E-001	8.41388E-001	3.57740E+000	9	...........
	15	0.213333	8.49614E-001	2.80829E-004	0.00000E+000	2.38597E-004	1.68088E-001	8.49948E-001	3.57740E+000	9	...........
	16	0.226667	8.57606E-001	2.81129E-004	0.00000E+000	2.41098E-004	1.68088E-001	8.57947E-001	3.57740E+000	9	...........
	17	0.24	8.65122E-001	2.81175E-004	0.00000E+000	2.43251E-004	1.68088E-001	8.65439E-001	3.57740E+000	9	...........
	18	0.253333	8.72214E-001	2.82394E-004	0.00000E+000	2.46308E-004	1.68088E-001	8.72518E-001	3.57740E+000	9	...........
	19	0.266667	8.78851E-001	2.79599E-004	0.00000E+000	2.45726E-004	1.68088E-001	8.79147E-001	3.57740E+000	9	...........
	20	0.28	8.85125E-001	2.81546E-004	0.00000E+000	2.49203E-004	1.68088E-001	8.85429E-001	3.57740E+000	9	...........
	21	0.293333	8.91016E-001	2.81632E-004	0.00000E+000	2.50938E-004	1.68088E-001	8.91335E-001	3.57740E+000	9	...........
	22	0.306667	8.96590E-001	2.80932E-004	0.00000E+000	2.51881E-004	1.68088E-001	8.96938E-001	3.57740E+000	9	...........
	23	0.32	9.01886E-001	2.81178E-004	0.00000E+000	2.53591E-004	1.68088E-001	9.02215E-001	3.57740E+000	9	...........
	24	0.333333	9.06853E-001	2.81584E-004	0.00000E+000	2.55355E-004	1.68088E-001	9.07217E-001	3.57740E+000	9	...........
	25	0.346667	9.11627E-001	2.80846E-004	0.00000E+000	2.56027E-004	1.68088E-001	9.11965E-001	3.57740E+000	9	...........
	26	0.36	9.16130E-001	2.81353E-004	0.00000E+000	2.57756E-004	1.68088E-001	9.16485E-001	3.57740E+000	9	...........
	27	0.373333	9.20465E-001	2.81918E-004	0.00000E+000	2.59496E-004	1.68088E-001	9.20774E-001	3.57740E+000	9	...........
	28	0.386667	9.24592E-001	2.80844E-004	0.00000E+000	2.59666E-004	1.68088E-001	9.24878E-001	3.57740E+000	9	...........
	29	0.4	9.28468E-001	2.81166E-004	0.00000E+000	2.61054E-004	1.68088E-001	9.28787E-001	3.57740E+000	9	...........
	30	0.413333	9.32221E-001	2.80708E-004	0.00000E+000	2.61682E-004	1.68088E-001	9.32520E-001	3.57740E+000	9	...........
	31	0.426667	9.35766E-001	2.80941E-004	0.00000E+000	2.62895E-004	1.68088E-001	9.36112E-001	3.57740E+000	9	...........
	32	0.44	9.39191E-001	2.81179E-004	0.00000E+000	2.64081E-004	1.68088E-001	9.39536E-001	3.57740E+000	9	...........
	33	0.453333	9.42455E-001	2.81647E-004	0.00000E+000	2.65440E-004	1.68088E-001	9.42790E-001	3.57740E+000	9	...........
	34	0.466667	9.45587E-001	2.81702E-004	0.00000E+000	2.66374E-004	1.68088E-001	9.45959E-001	3.57740E+000	9	...........
	35	0.48	9.48687E-001	2.81577E-004	0.00000E+000	2.67129E-004	1.68088E-001	9.49014E-001	3.57740E+000	9	...........
	36	0.493333	9.51568E-001	2.80758E-004	0.00000E+000	2.67161E-004	1.68088E-001	9.51935E-001	3.57740E+000	9	...........
	37	0.506667	9.54347E-001	2.81129E-004	0.00000E+000	2.68295E-004	1.68088E-001	9.54711E-001	3.57740E+000	9	...........
	38	0.52	9.57031E-001	2.82416E-004	0.00000E+000	2.70281E-004	1.68088E-001	9.57389E-001	3.57740E+000	9	...........
	39	0.533333	9.59654E-001	2.81007E-004	0.00000E+000	2.69670E-004	1.68088E-001	9.60041E-001	3.57740E+000	9	...........
	40	0.546667	9.62180E-001	2.80126E-004	0.00000E+000	2.69532E-004	1.68088E-001	9.62569E-001	3.57740E+000	9	...........
	41	0.56	9.64594E-001	2.81536E-004	0.00000E+000	2.71568E-004	1.68088E-001	9.64975E-001	3.57740E+000	9	...........
	42	0.573333	9.66949E-001	2.81920E-004	0.00000E+000	2.72602E-004	1.68088E-001	9.67286E-001	3.57740E+000	9	...........
	43	0.586667	9.69211E-001	2.81734E-004	0.00000E+000	2.73059E-004	1.68088E-001	9.69566E-001	3.57740E+000	9	...........
	44	0.6	9.71452E-001	2.80051E-004	0.00000E+000	2.72056E-004	1.68088E-001	9.71829E-001	3.57740E+000	9	...........
	45	0.613333	9.73675E-001	2.80265E-004	0.00000E+000	2.72887E-004	1.68088E-001	9.74015E-001	3.57740E+000	9	...........
	46	0.626667	9.75810E-001	2.79949E-004	0.00000E+000	2.73177E-004	1.68088E-001	9.76113E-001	3.57740E+000	9	...........
	47	0.64	9.77840E-001	2.81609E-004	0.00000E+000	2.75368E-004	1.68088E-001	9.78210E-001	3.57740E+000	9	...........
	48	0.653333	9.79855E-001	2.81142E-004	0.00000E+000	2.75478E-004	1.68088E-001	9.80186E-001	3.57740E+000	9	...........
	49	0.666667	9.81787E-001	2.81006E-004	0.00000E+000	2.75888E-004	1.68088E-001	9.82153E-001	3.57740E+000	9	...........
	50	0.68	9.83712E-001	2.81451E-004	0.00000E+000	2.76867E-004	1.68088E-001	9.84102E-001	3.57740E+000	9	...........
	51	0.693333	9.85603E-001	2.81422E-004	0.00000E+000	2.77371E-004	1.68088E-001	9.85985E-001	3.57740E+000	9	...........
	52	0.706667	9.87435E-001	2.80769E-004	0.00000E+000	2.77241E-004	1.68088E-001	9.87817E-001	3.57740E+000	9	...........
	53	0.72	9.89223E-001	2.81076E-004	0.00000E+000	2.78047E-004	1.68088E-001	9.89581E-001	3.57740E+000	9	...........
	54	0.733333	9.90898E-001	2.81221E-004	0.00000E+000	2.78661E-004	1.68088E-001	9.91280E-001	3.57740E+000	9	...........
	55	0.746667	9.92552E-001	2.79851E-004	0.00000E+000	2.77767E-004	1.68088E-001	9.92921E-001	3.57740E+000	9	...........
	56	0.76	9.94241E-001	2.80421E-004	0.00000E+000	2.78806E-004	1.68088E-001	9.94606E-001	3.57740E+000	9	...........
	57	0.773333	9.95857E-001	2.81595E-004	0.00000E+000	2.80428E-004	1.68088E-001	9.96217E-001	3.57740E+000	9	...........
	58	0.786667	9.97438E-001	2.81036E-004	0.00000E+000	2.80315E-004	1.68088E-001	9.97827E-001	3.57740E+000	9	...........
	59	0.8	9.99039E-001	2.81059E-004	0.00000E+000	2.80789E-004	1.68088E-001	9.99390E-001	3.57740E+000	9	...........
	60	0.803333	1.00001E+000	2.81752E-004	0.00000E+000	2.81754E-004	1.68088E-001	1.00040E+000	3.57740E+000	9	...........
STARTTIMEOFFSET	QUANT	1865.319	Start Time Offset (s)
