EXPLAIN
TAG	PWR800_CHARGE
TITLE	LABEL	PWR Cyclic Charge Discharge (Cell) - Charge Step	Test &Identifier
DATE	LABEL	7-7-2017	Date
TIME	LABEL	15:51:50	Time
NOTES	NOTES	3	&Notes...
	supercap test cell
	2.8mg
	6M KOH
PSTAT	PSTAT	IFC5000-01520	Potentiostat
CAPACITY	QUANT	1.00000E-003	Capacity (A-hr)
CELLTYPE	SELECTOR	1	&Cell Type
WORKINGCONNECTION	SELECTOR	0	&Working Lead
MAXCHARGETIME	VARIABLEANDUNITS	1.00000E+002	s	1.00000E+002	second(s)	Max &Charge Time
CHARGECURRENT	QUANT	2.80000E-004	&Charge Current (A) 
VOLTAGEFINISH	TWOPARAM	F	1.00000E-003	3.60000E+003	&Voltage Finish	 I (A) < 	Max Time(s)
SAMPLETIME	QUANT	1.00000E-002	Sa&mple Period (s)
CHARGESTOPAT1	MULTIPARAM	4	1.00000E+000	Charge Stop At &1	Voltage > Limit	V
CHARGESTOPAT2	MULTIPARAM	0	0.00000E+000	Charge Stop At &2	None	N/A
AESBHCSELECTOR	TOGGLE	F	Save Both Half Cells
IRCOMP	TOGGLE	F	IR &Measure
EOC	QUANT	0	Open Circuit (V)
SEQUENCER	TOGGLE	TRUE	Run as Sequence
PSTATMODEL	IQUANT	53	Pstat Model
PSTATSECTION	LABEL	IFC5000-01520	Pstat Section
PSTATSERIALNO	LABEL	01520	Pstat Serial Number
CTRLMODE	IQUANT	0	Control Mode
ELECTROMETER	IQUANT	1	RE=0 or CS=1
IESTAB	IQUANT	0	I/E Stability
CASPEED	IQUANT	4	Control Amp Speed
CONVENTION	IQUANT	1	Current Convention
ICHRANGE	IQUANT	2	Ich Range
ICHRANGEMODE	TOGGLE	T	Ich Auto Range
ICHOFFSETENABLE	TOGGLE	F	Ich Offset Enable
ICHOFFSET	QUANT	0	Ich Offset (V)
ICHFILTER	IQUANT	1	Ich Filter
VCHRANGE	IQUANT	2	Vch Range
VCHRANGEMODE	TOGGLE	T	Vch Auto Range
VCHOFFSETENABLE	TOGGLE	F	Vch Offset Enable
VCHOFFSET	QUANT	0	Vch Offset (V)
VCHFILTER	IQUANT	1	Vch Filter
IERANGELOWERLIMIT	IQUANT	9	I/E Range Lower Limit
IERANGEMODE	TOGGLE	F	I/E AutoRange
IERANGE	IQUANT	9	I/E Range
ACHSELECT	IQUANT	1	Ach Select
ACHRANGE	IQUANT	2	Ach Range
ACHOFFSETENABLE	TOGGLE	F	Ach Offset Enable
ACHOFFSET	QUANT	0	Ach Offset (V)
ACHFILTER	IQUANT	1	Ach Filter
CABLEID	IQUANT	14	Cable ID
DCCALDATE	LABEL	5-7-2017	DC Calibration Date
ACCALDATE	LABEL	12/3/2015	AC Calibration Date
FRAMEWORKVERSION	QUANT	7.01	Framework Version
INSTRUMENTVERSION	LABEL	4.00	Instrument Version
CURVE	TABLE	99
	Pt	T	Vf	Im	Vu	Pwr	Sig	Ach	Temp	IERange	Over
	#	s	V	A	V	W	V	V	deg C	#	bits
	0	0.013333	5.91790E-001	2.80575E-004	0.00000E+000	1.66042E-004	1.68088E-001	5.92071E-001	3.57830E+000	9	...........
	1	0.026667	6.20537E-001	2.81411E-004	0.00000E+000	1.74626E-004	1.68088E-001	6.20804E-001	3.57830E+000	9	...........
	2	0.04	6.44840E-001	2.81602E-004	0.00000E+000	1.81588E-004	1.68088E-001	6.45121E-001	3.57830E+000	9	...........
	3	0.053333	6.65930E-001	2.81076E-004	0.00000E+000	1.87177E-004	1.68088E-001	6.66203E-001	3.57830E+000	9	...........
	4	0.066667	6.84553E-001	2.80538E-004	0.00000E+000	1.92043E-004	1.68088E-001	6.84845E-001	3.57830E+000	9	...........
	5	0.08	7.01211E-001	2.80713E-004	0.00000E+000	1.96839E-004	1.68088E-001	7.01505E-001	3.57830E+000	9	...........
	6	0.093333	7.16246E-001	2.81655E-004	0.00000E+000	2.01734E-004	1.68088E-001	7.16539E-001	3.57830E+000	9	...........
	7	0.106667	7.29951E-001	2.80729E-004	0.00000E+000	2.04919E-004	1.68088E-001	7.30244E-001	3.57830E+000	9	...........
	8	0.12	7.42465E-001	2.81254E-004	0.00000E+000	2.08821E-004	1.68088E-001	7.42749E-001	3.57830E+000	9	...........
	9	0.133333	7.53953E-001	2.81260E-004	0.00000E+000	2.12056E-004	1.68088E-001	7.54240E-001	3.57830E+000	9	...........
	10	0.146667	7.64590E-001	2.81027E-004	0.00000E+000	2.14871E-004	1.68088E-001	7.64891E-001	3.57830E+000	9	...........
	11	0.16	7.74446E-001	2.80782E-004	0.00000E+000	2.17451E-004	1.68088E-001	7.74735E-001	3.57830E+000	9	...........
	12	0.173333	7.83601E-001	2.80207E-004	0.00000E+000	2.19571E-004	1.68088E-001	7.83892E-001	3.57830E+000	9	...........
	13	0.186667	7.92143E-001	2.81018E-004	0.00000E+000	2.22606E-004	1.68088E-001	7.92462E-001	3.57830E+000	9	...........
	14	0.2	8.00136E-001	2.81140E-004	0.00000E+000	2.24950E-004	1.68088E-001	8.00445E-001	3.57830E+000	9	...........
	15	0.213333	8.07631E-001	2.81089E-004	0.00000E+000	2.27016E-004	1.68088E-001	8.07947E-001	3.57830E+000	9	...........
	16	0.226667	8.14700E-001	2.80978E-004	0.00000E+000	2.28913E-004	1.68088E-001	8.14998E-001	3.57830E+000	9	...........
	17	0.24	8.21375E-001	2.80643E-004	0.00000E+000	2.30513E-004	1.68088E-001	8.21666E-001	3.57830E+000	9	...........
	18	0.253333	8.27649E-001	2.81195E-004	0.00000E+000	2.32731E-004	1.68088E-001	8.27958E-001	3.57830E+000	9	...........
	19	0.266667	8.33572E-001	2.80697E-004	0.00000E+000	2.33981E-004	1.68088E-001	8.33916E-001	3.57830E+000	9	...........
	20	0.28	8.39210E-001	2.80888E-004	0.00000E+000	2.35724E-004	1.68088E-001	8.39517E-001	3.57830E+000	9	...........
	21	0.293333	8.44541E-001	2.80892E-004	0.00000E+000	2.37225E-004	1.68088E-001	8.44876E-001	3.57830E+000	9	...........
	22	0.306667	8.49604E-001	2.80723E-004	0.00000E+000	2.38503E-004	1.68088E-001	8.49952E-001	3.57830E+000	9	...........
	23	0.32	8.54441E-001	2.81112E-004	0.00000E+000	2.40193E-004	1.68088E-001	8.54781E-001	3.57830E+000	9	...........
	24	0.333333	8.59044E-001	2.81662E-004	0.00000E+000	2.41960E-004	1.68088E-001	8.59373E-001	3.57830E+000	9	...........
	25	0.346667	8.63384E-001	2.80619E-004	0.00000E+000	2.42282E-004	1.68088E-001	8.63752E-001	3.57830E+000	9	...........
	26	0.36	8.67567E-001	2.80663E-004	0.00000E+000	2.43494E-004	1.68088E-001	8.67931E-001	3.57830E+000	9	...........
	27	0.373333	8.71599E-001	2.81407E-004	0.00000E+000	2.45274E-004	1.68088E-001	8.71961E-001	3.57830E+000	9	...........
	28	0.386667	8.75464E-001	2.81004E-004	0.00000E+000	2.46009E-004	1.68088E-001	8.75813E-001	3.57830E+000	9	...........
	29	0.4	8.79163E-001	2.81279E-004	0.00000E+000	2.47290E-004	1.68088E-001	8.79488E-001	3.57830E+000	9	...........
	30	0.413333	8.82740E-001	2.81074E-004	0.00000E+000	2.48115E-004	1.68088E-001	8.83083E-001	3.57830E+000	9	...........
	31	0.426667	8.86140E-001	2.81162E-004	0.00000E+000	2.49149E-004	1.68088E-001	8.86509E-001	3.57830E+000	9	...........
	32	0.44	8.89401E-001	2.80960E-004	0.00000E+000	2.49886E-004	1.68088E-001	8.89763E-001	3.57830E+000	9	...........
	33	0.453333	8.92574E-001	2.81303E-004	0.00000E+000	2.51084E-004	1.68088E-001	8.92950E-001	3.57830E+000	9	...........
	34	0.466667	8.95655E-001	2.81534E-004	0.00000E+000	2.52157E-004	1.68088E-001	8.96060E-001	3.57830E+000	9	...........
	35	0.48	8.98626E-001	2.81936E-004	0.00000E+000	2.53355E-004	1.68088E-001	8.99014E-001	3.57830E+000	9	...........
	36	0.493333	9.01486E-001	2.81667E-004	0.00000E+000	2.53919E-004	1.68088E-001	9.01865E-001	3.57830E+000	9	...........
	37	0.506667	9.04229E-001	2.81528E-004	0.00000E+000	2.54566E-004	1.68088E-001	9.04630E-001	3.57830E+000	9	...........
	38	0.52	9.06897E-001	2.81486E-004	0.00000E+000	2.55278E-004	1.68088E-001	9.07292E-001	3.57830E+000	9	...........
	39	0.533333	9.09526E-001	2.81025E-004	0.00000E+000	2.55600E-004	1.68088E-001	9.09884E-001	3.57830E+000	9	...........
	40	0.546667	9.12047E-001	2.81105E-004	0.00000E+000	2.56381E-004	1.68088E-001	9.12397E-001	3.57830E+000	9	...........
	41	0.56	9.14488E-001	2.81240E-004	0.00000E+000	2.57190E-004	1.68088E-001	9.14824E-001	3.57830E+000	9	...........
	42	0.573333	9.16875E-001	2.81603E-004	0.00000E+000	2.58195E-004	1.68088E-001	9.17235E-001	3.57830E+000	9	...........
	43	0.586667	9.19214E-001	2.81934E-004	0.00000E+000	2.59157E-004	1.68088E-001	9.19544E-001	3.57830E+000	9	...........
	44	0.6	9.21546E-001	2.81559E-004	0.00000E+000	2.59469E-004	1.68088E-001	9.21824E-001	3.57830E+000	9	...........
	45	0.613333	9.23794E-001	2.81365E-004	0.00000E+000	2.59923E-004	1.68088E-001	9.24072E-001	3.57830E+000	9	...........
	46	0.626667	9.25967E-001	2.80821E-004	0.00000E+000	2.60031E-004	1.68088E-001	9.26270E-001	3.57830E+000	9	...........
	47	0.64	9.28124E-001	2.80690E-004	0.00000E+000	2.60515E-004	1.68088E-001	9.28438E-001	3.58078E+000	9	...........
	48	0.653333	9.30205E-001	2.80614E-004	0.00000E+000	2.61028E-004	1.68088E-001	9.30525E-001	3.58160E+000	9	...........
	49	0.666667	9.32206E-001	2.81165E-004	0.00000E+000	2.62104E-004	1.68088E-001	9.32553E-001	3.58160E+000	9	...........
	50	0.68	9.34217E-001	2.82491E-004	0.00000E+000	2.63908E-004	1.68088E-001	9.34554E-001	3.58160E+000	9	...........
	51	0.693333	9.36125E-001	2.81694E-004	0.00000E+000	2.63701E-004	1.68088E-001	9.36470E-001	3.58160E+000	9	...........
	52	0.706667	9.38021E-001	2.81898E-004	0.00000E+000	2.64426E-004	1.68088E-001	9.38381E-001	3.58160E+000	9	...........
	53	0.72	9.39878E-001	2.80529E-004	0.00000E+000	2.63663E-004	1.68088E-001	9.40231E-001	3.58160E+000	9	...........
	54	0.733333	9.41692E-001	2.81426E-004	0.00000E+000	2.65017E-004	1.68088E-001	9.42038E-001	3.58160E+000	9	...........
	55	0.746667	9.43465E-001	2.81595E-004	0.00000E+000	2.65675E-004	1.68088E-001	9.43824E-001	3.58160E+000	9	...........
	56	0.76	9.45230E-001	2.81660E-004	0.00000E+000	2.66233E-004	1.68088E-001	9.45584E-001	3.58160E+000	9	...........
	57	0.773333	9.46960E-001	2.81962E-004	0.00000E+000	2.67007E-004	1.68088E-001	9.47328E-001	3.58160E+000	9	...........
	58	0.786667	9.48698E-001	2.81556E-004	0.00000E+000	2.67111E-004	1.68088E-001	9.49043E-001	3.58160E+000	9	...........
	59	0.8	9.50400E-001	2.81013E-004	0.00000E+000	2.67075E-004	1.68088E-001	9.50698E-001	3.58160E+000	9	...........
	60	0.813333	9.52065E-001	2.81715E-004	0.00000E+000	2.68211E-004	1.68088E-001	9.52368E-001	3.58160E+000	9	...........
	61	0.826667	9.53700E-001	2.80694E-004	0.00000E+000	2.67698E-004	1.68088E-001	9.53974E-001	3.58160E+000	9	...........
	62	0.84	9.55266E-001	2.80057E-004	0.00000E+000	2.67529E-004	1.68088E-001	9.55551E-001	3.58160E+000	9	...........
	63	0.853333	9.56805E-001	2.81012E-004	0.00000E+000	2.68873E-004	1.68088E-001	9.57135E-001	3.58160E+000	9	...........
	64	0.866667	9.58352E-001	2.80564E-004	0.00000E+000	2.68879E-004	1.68088E-001	9.58694E-001	3.58160E+000	9	...........
	65	0.88	9.59891E-001	2.81948E-004	0.00000E+000	2.70640E-004	1.68088E-001	9.60234E-001	3.58160E+000	9	...........
	66	0.893333	9.61378E-001	2.81551E-004	0.00000E+000	2.70677E-004	1.68088E-001	9.61760E-001	3.58160E+000	9	...........
	67	0.906667	9.62850E-001	2.80078E-004	0.00000E+000	2.69673E-004	1.68088E-001	9.63235E-001	3.58160E+000	9	...........
	68	0.92	9.64325E-001	2.80265E-004	0.00000E+000	2.70266E-004	1.68088E-001	9.64704E-001	3.58160E+000	9	...........
	69	0.933333	9.65731E-001	2.81023E-004	0.00000E+000	2.71393E-004	1.68088E-001	9.66130E-001	3.58160E+000	9	...........
	70	0.946667	9.67118E-001	2.81748E-004	0.00000E+000	2.72484E-004	1.68088E-001	9.67491E-001	3.58160E+000	9	...........
	71	0.96	9.68464E-001	2.81503E-004	0.00000E+000	2.72626E-004	1.68088E-001	9.68875E-001	3.58160E+000	9	...........
	72	0.97333	9.69860E-001	2.82661E-004	0.00000E+000	2.74142E-004	1.68088E-001	9.70259E-001	3.58160E+000	9	...........
	73	0.98667	9.71193E-001	2.82250E-004	0.00000E+000	2.74120E-004	1.68088E-001	9.71610E-001	3.58160E+000	9	...........
	74	1	9.72578E-001	2.81187E-004	0.00000E+000	2.73476E-004	1.68088E-001	9.72908E-001	3.58160E+000	9	...........
	75	1.01333	9.73933E-001	2.81751E-004	0.00000E+000	2.74407E-004	1.68088E-001	9.74244E-001	3.58160E+000	9	...........
	76	1.02667	9.75226E-001	2.81241E-004	0.00000E+000	2.74273E-004	1.68088E-001	9.75575E-001	3.58160E+000	9	...........
	77	1.04	9.76549E-001	2.80932E-004	0.00000E+000	2.74344E-004	1.68088E-001	9.76871E-001	3.58160E+000	9	...........
	78	1.05333	9.77803E-001	2.81308E-004	0.00000E+000	2.75063E-004	1.68088E-001	9.78163E-001	3.58160E+000	9	...........
	79	1.06667	9.79073E-001	2.80910E-004	0.00000E+000	2.75031E-004	1.68088E-001	9.79404E-001	3.58160E+000	9	...........
	80	1.08	9.80292E-001	2.80799E-004	0.00000E+000	2.75265E-004	1.68088E-001	9.80621E-001	3.58160E+000	9	...........
	81	1.09333	9.81497E-001	2.81146E-004	0.00000E+000	2.75944E-004	1.68088E-001	9.81849E-001	3.58160E+000	9	...........
	82	1.10667	9.82708E-001	2.81566E-004	0.00000E+000	2.76697E-004	1.68088E-001	9.83071E-001	3.58160E+000	9	...........
	83	1.12	9.83928E-001	2.80545E-004	0.00000E+000	2.76036E-004	1.68088E-001	9.84264E-001	3.58160E+000	9	...........
	84	1.13333	9.85129E-001	2.80965E-004	0.00000E+000	2.76787E-004	1.68088E-001	9.85519E-001	3.58160E+000	9	...........
	85	1.14667	9.86320E-001	2.81638E-004	0.00000E+000	2.77785E-004	1.68088E-001	9.86701E-001	3.58160E+000	9	...........
	86	1.16	9.87458E-001	2.81352E-004	0.00000E+000	2.77824E-004	1.68088E-001	9.87859E-001	3.58160E+000	9	...........
	87	1.17333	9.88592E-001	2.80723E-004	0.00000E+000	2.77521E-004	1.68088E-001	9.88962E-001	3.58160E+000	9	...........
	88	1.18667	9.89698E-001	2.81372E-004	0.00000E+000	2.78474E-004	1.68088E-001	9.90093E-001	3.58160E+000	9	...........
	89	1.2	9.90803E-001	2.80851E-004	0.00000E+000	2.78268E-004	1.68088E-001	9.91175E-001	3.58160E+000	9	...........
	90	1.21333	9.91879E-001	2.81321E-004	0.00000E+000	2.79037E-004	1.68088E-001	9.92251E-001	3.58160E+000	9	...........
	91	1.22667	9.92935E-001	2.81661E-004	0.00000E+000	2.79671E-004	1.68088E-001	9.93316E-001	3.58160E+000	9	...........
	92	1.24	9.93991E-001	2.81534E-004	0.00000E+000	2.79842E-004	1.68088E-001	9.94356E-001	3.58160E+000	9	...........
	93	1.25333	9.95099E-001	2.81473E-004	0.00000E+000	2.80094E-004	1.68088E-001	9.95442E-001	3.58160E+000	9	...........
	94	1.26667	9.96145E-001	2.81594E-004	0.00000E+000	2.80508E-004	1.68088E-001	9.96506E-001	3.58160E+000	9	...........
	95	1.28	9.97186E-001	2.80930E-004	0.00000E+000	2.80140E-004	1.68088E-001	9.97595E-001	3.58160E+000	9	...........
	96	1.29333	9.98234E-001	2.81416E-004	0.00000E+000	2.80919E-004	1.68088E-001	9.98595E-001	3.58160E+000	9	...........
	97	1.30667	9.99257E-001	2.81002E-004	0.00000E+000	2.80793E-004	1.68088E-001	9.99592E-001	3.58160E+000	9	...........
	98	1.31167	9.99939E-001	2.79910E-004	0.00000E+000	2.79893E-004	1.68088E-001	1.00030E+000	3.58160E+000	9	...........
STARTTIMEOFFSET	QUANT	755.0969	Start Time Offset (s)
