EXPLAIN
TAG	PWR800_CHARGE
TITLE	LABEL	PWR Cyclic Charge Discharge (Cell) - Charge Step	Test &Identifier
DATE	LABEL	7-7-2017	Date
TIME	LABEL	15:36:14	Time
NOTES	NOTES	3	&Notes...
	supercap test cell
	2.8mg
	6M KOH
PSTAT	PSTAT	IFC5000-01520	Potentiostat
CAPACITY	QUANT	1.00000E-003	Capacity (A-hr)
CELLTYPE	SELECTOR	1	&Cell Type
WORKINGCONNECTION	SELECTOR	0	&Working Lead
MAXCHARGETIME	VARIABLEANDUNITS	1.00000E+002	s	1.00000E+002	second(s)	Max &Charge Time
CHARGECURRENT	QUANT	2.80000E-004	&Charge Current (A) 
VOLTAGEFINISH	TWOPARAM	F	1.00000E-003	3.60000E+003	&Voltage Finish	 I (A) < 	Max Time(s)
SAMPLETIME	QUANT	1.00000E-002	Sa&mple Period (s)
CHARGESTOPAT1	MULTIPARAM	4	1.00000E+000	Charge Stop At &1	Voltage > Limit	V
CHARGESTOPAT2	MULTIPARAM	0	0.00000E+000	Charge Stop At &2	None	N/A
AESBHCSELECTOR	TOGGLE	F	Save Both Half Cells
IRCOMP	TOGGLE	F	IR &Measure
EOC	QUANT	0	Open Circuit (V)
SEQUENCER	TOGGLE	TRUE	Run as Sequence
PSTATMODEL	IQUANT	53	Pstat Model
PSTATSECTION	LABEL	IFC5000-01520	Pstat Section
PSTATSERIALNO	LABEL	01520	Pstat Serial Number
CTRLMODE	IQUANT	0	Control Mode
ELECTROMETER	IQUANT	1	RE=0 or CS=1
IESTAB	IQUANT	0	I/E Stability
CASPEED	IQUANT	4	Control Amp Speed
CONVENTION	IQUANT	1	Current Convention
ICHRANGE	IQUANT	2	Ich Range
ICHRANGEMODE	TOGGLE	T	Ich Auto Range
ICHOFFSETENABLE	TOGGLE	F	Ich Offset Enable
ICHOFFSET	QUANT	0	Ich Offset (V)
ICHFILTER	IQUANT	1	Ich Filter
VCHRANGE	IQUANT	2	Vch Range
VCHRANGEMODE	TOGGLE	T	Vch Auto Range
VCHOFFSETENABLE	TOGGLE	F	Vch Offset Enable
VCHOFFSET	QUANT	0	Vch Offset (V)
VCHFILTER	IQUANT	1	Vch Filter
IERANGELOWERLIMIT	IQUANT	9	I/E Range Lower Limit
IERANGEMODE	TOGGLE	F	I/E AutoRange
IERANGE	IQUANT	9	I/E Range
ACHSELECT	IQUANT	1	Ach Select
ACHRANGE	IQUANT	2	Ach Range
ACHOFFSETENABLE	TOGGLE	F	Ach Offset Enable
ACHOFFSET	QUANT	0	Ach Offset (V)
ACHFILTER	IQUANT	1	Ach Filter
CABLEID	IQUANT	14	Cable ID
DCCALDATE	LABEL	5-7-2017	DC Calibration Date
ACCALDATE	LABEL	12/3/2015	AC Calibration Date
FRAMEWORKVERSION	QUANT	7.01	Framework Version
INSTRUMENTVERSION	LABEL	4.00	Instrument Version
CURVE	TABLE	273
	Pt	T	Vf	Im	Vu	Pwr	Sig	Ach	Temp	IERange	Over
	#	s	V	A	V	W	V	V	deg C	#	bits
	0	0.013333	5.55594E-001	2.81906E-004	0.00000E+000	1.56625E-004	1.68088E-001	5.55819E-001	3.57830E+000	9	...........
	1	0.026667	5.80785E-001	2.81216E-004	0.00000E+000	1.63326E-004	1.68088E-001	5.81042E-001	3.57830E+000	9	...........
	2	0.04	6.01452E-001	2.80641E-004	0.00000E+000	1.68792E-004	1.68088E-001	6.01715E-001	3.57830E+000	9	...........
	3	0.053333	6.18993E-001	2.81317E-004	0.00000E+000	1.74133E-004	1.68088E-001	6.19227E-001	3.57830E+000	9	...........
	4	0.066667	6.34143E-001	2.81276E-004	0.00000E+000	1.78369E-004	1.68088E-001	6.34392E-001	3.57830E+000	9	...........
	5	0.08	6.47487E-001	2.81797E-004	0.00000E+000	1.82460E-004	1.68088E-001	6.47737E-001	3.57830E+000	9	...........
	6	0.093333	6.59369E-001	2.81192E-004	0.00000E+000	1.85409E-004	1.68088E-001	6.59623E-001	3.57830E+000	9	...........
	7	0.106667	6.70098E-001	2.80389E-004	0.00000E+000	1.87888E-004	1.68088E-001	6.70334E-001	3.57830E+000	9	...........
	8	0.12	6.79799E-001	2.81195E-004	0.00000E+000	1.91156E-004	1.68088E-001	6.80045E-001	3.57830E+000	9	...........
	9	0.133333	6.88676E-001	2.81089E-004	0.00000E+000	1.93579E-004	1.68088E-001	6.88929E-001	3.57830E+000	9	...........
	10	0.146667	6.96809E-001	2.80693E-004	0.00000E+000	1.95589E-004	1.68088E-001	6.97060E-001	3.57830E+000	9	...........
	11	0.16	7.04310E-001	2.81486E-004	0.00000E+000	1.98253E-004	1.68088E-001	7.04578E-001	3.57830E+000	9	...........
	12	0.173333	7.11281E-001	2.81090E-004	0.00000E+000	1.99934E-004	1.68088E-001	7.11571E-001	3.57830E+000	9	...........
	13	0.186667	7.17855E-001	2.80686E-004	0.00000E+000	2.01492E-004	1.68088E-001	7.18134E-001	3.57830E+000	9	...........
	14	0.2	7.23993E-001	2.80544E-004	0.00000E+000	2.03112E-004	1.68088E-001	7.24270E-001	3.57830E+000	9	...........
	15	0.213333	7.29787E-001	2.81405E-004	0.00000E+000	2.05366E-004	1.68088E-001	7.30066E-001	3.57830E+000	9	...........
	16	0.226667	7.35231E-001	2.81598E-004	0.00000E+000	2.07040E-004	1.68088E-001	7.35501E-001	3.57830E+000	9	...........
	17	0.24	7.40391E-001	2.81254E-004	0.00000E+000	2.08238E-004	1.68088E-001	7.40655E-001	3.57830E+000	9	...........
	18	0.253333	7.45262E-001	2.82583E-004	0.00000E+000	2.10598E-004	1.68088E-001	7.45568E-001	3.57830E+000	9	...........
	19	0.266667	7.49871E-001	2.81492E-004	0.00000E+000	2.11083E-004	1.68088E-001	7.50162E-001	3.57830E+000	9	...........
	20	0.28	7.54269E-001	2.80925E-004	0.00000E+000	2.11893E-004	1.68088E-001	7.54565E-001	3.57830E+000	9	...........
	21	0.293333	7.58472E-001	2.80991E-004	0.00000E+000	2.13124E-004	1.68088E-001	7.58752E-001	3.57830E+000	9	...........
	22	0.306667	7.62442E-001	2.80963E-004	0.00000E+000	2.14218E-004	1.68088E-001	7.62722E-001	3.57830E+000	9	...........
	23	0.32	7.66240E-001	2.81727E-004	0.00000E+000	2.15871E-004	1.68088E-001	7.66555E-001	3.57830E+000	9	...........
	24	0.333333	7.69927E-001	2.81538E-004	0.00000E+000	2.16764E-004	1.68088E-001	7.70219E-001	3.57830E+000	9	...........
	25	0.346667	7.73434E-001	2.81638E-004	0.00000E+000	2.17828E-004	1.68088E-001	7.73707E-001	3.57830E+000	9	...........
	26	0.36	7.76817E-001	2.81396E-004	0.00000E+000	2.18593E-004	1.68088E-001	7.77111E-001	3.57830E+000	9	...........
	27	0.373333	7.80097E-001	2.80838E-004	0.00000E+000	2.19081E-004	1.68088E-001	7.80399E-001	3.57830E+000	9	...........
	28	0.386667	7.83228E-001	2.80765E-004	0.00000E+000	2.19903E-004	1.68088E-001	7.83529E-001	3.57830E+000	9	...........
	29	0.4	7.86273E-001	2.81686E-004	0.00000E+000	2.21482E-004	1.68088E-001	7.86564E-001	3.57830E+000	9	...........
	30	0.413333	7.89221E-001	2.81913E-004	0.00000E+000	2.22491E-004	1.68088E-001	7.89522E-001	3.57830E+000	9	...........
	31	0.426667	7.92053E-001	2.81286E-004	0.00000E+000	2.22793E-004	1.68088E-001	7.92374E-001	3.57830E+000	9	...........
	32	0.44	7.94835E-001	2.81571E-004	0.00000E+000	2.23803E-004	1.68088E-001	7.95128E-001	3.57830E+000	9	...........
	33	0.453333	7.97494E-001	2.80431E-004	0.00000E+000	2.23642E-004	1.68088E-001	7.97763E-001	3.57830E+000	9	...........
	34	0.466667	8.00061E-001	2.81744E-004	0.00000E+000	2.25412E-004	1.68088E-001	8.00357E-001	3.57830E+000	9	...........
	35	0.48	8.02551E-001	2.81736E-004	0.00000E+000	2.26107E-004	1.68088E-001	8.02852E-001	3.57830E+000	9	...........
	36	0.493333	8.05035E-001	2.81712E-004	0.00000E+000	2.26788E-004	1.68088E-001	8.05381E-001	3.57830E+000	9	...........
	37	0.506667	8.07417E-001	2.81013E-004	0.00000E+000	2.26895E-004	1.68088E-001	8.07736E-001	3.57830E+000	9	...........
	38	0.52	8.09724E-001	2.80712E-004	0.00000E+000	2.27299E-004	1.68088E-001	8.10017E-001	3.57830E+000	9	...........
	39	0.533333	8.11954E-001	2.81414E-004	0.00000E+000	2.28495E-004	1.68088E-001	8.12253E-001	3.57830E+000	9	...........
	40	0.546667	8.14109E-001	2.81307E-004	0.00000E+000	2.29014E-004	1.68088E-001	8.14425E-001	3.57830E+000	9	...........
	41	0.56	8.16227E-001	2.81451E-004	0.00000E+000	2.29728E-004	1.68088E-001	8.16527E-001	3.57830E+000	9	...........
	42	0.573333	8.18336E-001	2.81257E-004	0.00000E+000	2.30162E-004	1.68088E-001	8.18637E-001	3.57830E+000	9	...........
	43	0.586667	8.20448E-001	2.81446E-004	0.00000E+000	2.30912E-004	1.68088E-001	8.20706E-001	3.57830E+000	9	...........
	44	0.6	8.22442E-001	2.81372E-004	0.00000E+000	2.31412E-004	1.68088E-001	8.22731E-001	3.57830E+000	9	...........
	45	0.613333	8.24417E-001	2.81298E-004	0.00000E+000	2.31907E-004	1.68088E-001	8.24706E-001	3.57830E+000	9	...........
	46	0.626667	8.26342E-001	2.81153E-004	0.00000E+000	2.32329E-004	1.68088E-001	8.26638E-001	3.57830E+000	9	...........
	47	0.64	8.28239E-001	2.80695E-004	0.00000E+000	2.32482E-004	1.68088E-001	8.28532E-001	3.57830E+000	9	...........
	48	0.653333	8.30077E-001	2.81044E-004	0.00000E+000	2.33288E-004	1.68088E-001	8.30400E-001	3.57830E+000	9	...........
	49	0.666667	8.31890E-001	2.81282E-004	0.00000E+000	2.33995E-004	1.68088E-001	8.32223E-001	3.57830E+000	9	...........
	50	0.68	8.33661E-001	2.80837E-004	0.00000E+000	2.34122E-004	1.68088E-001	8.33991E-001	3.57830E+000	9	...........
	51	0.693333	8.35399E-001	2.80750E-004	0.00000E+000	2.34538E-004	1.68088E-001	8.35710E-001	3.57830E+000	9	...........
	52	0.706667	8.37073E-001	2.81142E-004	0.00000E+000	2.35336E-004	1.68088E-001	8.37405E-001	3.57830E+000	9	...........
	53	0.72	8.38725E-001	2.81003E-004	0.00000E+000	2.35685E-004	1.68088E-001	8.39060E-001	3.57830E+000	9	...........
	54	0.733333	8.40352E-001	2.80680E-004	0.00000E+000	2.35870E-004	1.68088E-001	8.40676E-001	3.57830E+000	9	...........
	55	0.746667	8.41950E-001	2.80846E-004	0.00000E+000	2.36458E-004	1.68088E-001	8.42309E-001	3.57830E+000	9	...........
	56	0.76	8.43554E-001	2.81060E-004	0.00000E+000	2.37089E-004	1.68088E-001	8.43920E-001	3.57830E+000	9	...........
	57	0.773333	8.45133E-001	2.81411E-004	0.00000E+000	2.37829E-004	1.68088E-001	8.45474E-001	3.57830E+000	9	...........
	58	0.786667	8.46663E-001	2.81600E-004	0.00000E+000	2.38421E-004	1.68088E-001	8.47030E-001	3.57830E+000	9	...........
	59	0.8	8.48132E-001	2.81755E-004	0.00000E+000	2.38965E-004	1.68088E-001	8.48498E-001	3.57830E+000	9	...........
	60	0.813333	8.49628E-001	2.80990E-004	0.00000E+000	2.38737E-004	1.68088E-001	8.49982E-001	3.57830E+000	9	...........
	61	0.826667	8.51096E-001	2.81222E-004	0.00000E+000	2.39347E-004	1.68088E-001	8.51438E-001	3.57830E+000	9	...........
	62	0.84	8.52577E-001	2.80820E-004	0.00000E+000	2.39421E-004	1.68088E-001	8.52894E-001	3.57830E+000	9	...........
	63	0.853333	8.53997E-001	2.81187E-004	0.00000E+000	2.40133E-004	1.68088E-001	8.54337E-001	3.57830E+000	9	...........
	64	0.866667	8.55428E-001	2.80866E-004	0.00000E+000	2.40260E-004	1.68088E-001	8.55771E-001	3.57830E+000	9	...........
	65	0.88	8.56832E-001	2.81740E-004	0.00000E+000	2.41404E-004	1.68088E-001	8.57173E-001	3.57830E+000	9	...........
	66	0.893333	8.58244E-001	2.81070E-004	0.00000E+000	2.41227E-004	1.68088E-001	8.58598E-001	3.57860E+000	9	...........
	67	0.906667	8.59612E-001	2.80975E-004	0.00000E+000	2.41530E-004	1.68088E-001	8.59977E-001	3.57950E+000	9	...........
	68	0.92	8.60946E-001	2.80807E-004	0.00000E+000	2.41760E-004	1.68088E-001	8.61283E-001	3.57950E+000	9	...........
	69	0.933333	8.62198E-001	2.81207E-004	0.00000E+000	2.42456E-004	1.68088E-001	8.62531E-001	3.57950E+000	9	...........
	70	0.946667	8.63471E-001	2.81827E-004	0.00000E+000	2.43350E-004	1.68088E-001	8.63818E-001	3.57950E+000	9	...........
	71	0.96	8.64750E-001	2.81023E-004	0.00000E+000	2.43015E-004	1.68088E-001	8.65103E-001	3.57950E+000	9	...........
	72	0.97333	8.66012E-001	2.81335E-004	0.00000E+000	2.43639E-004	1.68088E-001	8.66374E-001	3.57950E+000	9	...........
	73	0.98667	8.67282E-001	2.80848E-004	0.00000E+000	2.43574E-004	1.68088E-001	8.67647E-001	3.57950E+000	9	...........
	74	1	8.68556E-001	2.81153E-004	0.00000E+000	2.44197E-004	1.68088E-001	8.68928E-001	3.57950E+000	9	...........
	75	1.01333	8.69805E-001	2.81777E-004	0.00000E+000	2.45092E-004	1.68088E-001	8.70168E-001	3.57950E+000	9	...........
	76	1.02667	8.71070E-001	2.82061E-004	0.00000E+000	2.45695E-004	1.68088E-001	8.71417E-001	3.57950E+000	9	...........
	77	1.04	8.72281E-001	2.81410E-004	0.00000E+000	2.45468E-004	1.68088E-001	8.72639E-001	3.57950E+000	9	...........
	78	1.05333	8.73453E-001	2.81380E-004	0.00000E+000	2.45773E-004	1.68088E-001	8.73821E-001	3.57950E+000	9	...........
	79	1.06667	8.74627E-001	2.81585E-004	0.00000E+000	2.46282E-004	1.68088E-001	8.74968E-001	3.57950E+000	9	...........
	80	1.08	8.75801E-001	2.81753E-004	0.00000E+000	2.46760E-004	1.68088E-001	8.76148E-001	3.57950E+000	9	...........
	81	1.09333	8.77007E-001	2.82141E-004	0.00000E+000	2.47440E-004	1.68088E-001	8.77348E-001	3.57950E+000	9	...........
	82	1.10667	8.78167E-001	2.80679E-004	0.00000E+000	2.46483E-004	1.68088E-001	8.78513E-001	3.57950E+000	9	...........
	83	1.12	8.79301E-001	2.81451E-004	0.00000E+000	2.47481E-004	1.68088E-001	8.79668E-001	3.57950E+000	9	...........
	84	1.13333	8.80434E-001	2.81023E-004	0.00000E+000	2.47422E-004	1.68088E-001	8.80787E-001	3.57950E+000	9	...........
	85	1.14667	8.81554E-001	2.81236E-004	0.00000E+000	2.47924E-004	1.68088E-001	8.81909E-001	3.57950E+000	9	...........
	86	1.16	8.82649E-001	2.81826E-004	0.00000E+000	2.48754E-004	1.68088E-001	8.82994E-001	3.57950E+000	9	...........
	87	1.17333	8.83753E-001	2.81986E-004	0.00000E+000	2.49206E-004	1.68088E-001	8.84086E-001	3.57950E+000	9	...........
	88	1.18667	8.84862E-001	2.81297E-004	0.00000E+000	2.48909E-004	1.68088E-001	8.85206E-001	3.57950E+000	9	...........
	89	1.2	8.85918E-001	2.80702E-004	0.00000E+000	2.48679E-004	1.68088E-001	8.86272E-001	3.57950E+000	9	...........
	90	1.21333	8.86968E-001	2.81389E-004	0.00000E+000	2.49583E-004	1.68088E-001	8.87337E-001	3.57950E+000	9	...........
	91	1.22667	8.88033E-001	2.80952E-004	0.00000E+000	2.49495E-004	1.68088E-001	8.88388E-001	3.57950E+000	9	...........
	92	1.24	8.89103E-001	2.81347E-004	0.00000E+000	2.50146E-004	1.68088E-001	8.89446E-001	3.57950E+000	9	...........
	93	1.25333	8.90134E-001	2.80423E-004	0.00000E+000	2.49614E-004	1.68088E-001	8.90476E-001	3.57950E+000	9	...........
	94	1.26667	8.91101E-001	2.81476E-004	0.00000E+000	2.50824E-004	1.68088E-001	8.91438E-001	3.57950E+000	9	...........
	95	1.28	8.92114E-001	2.80598E-004	0.00000E+000	2.50325E-004	1.68088E-001	8.92464E-001	3.57950E+000	9	...........
	96	1.29333	8.93143E-001	2.81048E-004	0.00000E+000	2.51016E-004	1.68088E-001	8.93470E-001	3.57950E+000	9	...........
	97	1.30667	8.94141E-001	2.81195E-004	0.00000E+000	2.51428E-004	1.68088E-001	8.94510E-001	3.57950E+000	9	...........
	98	1.32	8.95155E-001	2.81447E-004	0.00000E+000	2.51939E-004	1.68088E-001	8.95539E-001	3.57950E+000	9	...........
	99	1.33333	8.96195E-001	2.80754E-004	0.00000E+000	2.51611E-004	1.68088E-001	8.96548E-001	3.57950E+000	9	...........
	100	1.34667	8.97182E-001	2.81037E-004	0.00000E+000	2.52141E-004	1.68088E-001	8.97532E-001	3.57950E+000	9	...........
	101	1.36	8.98137E-001	2.81162E-004	0.00000E+000	2.52522E-004	1.68088E-001	8.98499E-001	3.57950E+000	9	...........
	102	1.37333	8.99121E-001	2.80474E-004	0.00000E+000	2.52180E-004	1.68088E-001	8.99437E-001	3.57950E+000	9	...........
	103	1.38667	9.00103E-001	2.81328E-004	0.00000E+000	2.53224E-004	1.68088E-001	9.00434E-001	3.57950E+000	9	...........
	104	1.4	9.01049E-001	2.81151E-004	0.00000E+000	2.53331E-004	1.68088E-001	9.01400E-001	3.57950E+000	9	...........
	105	1.41333	9.01999E-001	2.80722E-004	0.00000E+000	2.53211E-004	1.68088E-001	9.02333E-001	3.57950E+000	9	...........
	106	1.42667	9.02933E-001	2.81019E-004	0.00000E+000	2.53741E-004	1.68088E-001	9.03268E-001	3.57950E+000	9	...........
	107	1.44	9.03876E-001	2.81203E-004	0.00000E+000	2.54173E-004	1.68088E-001	9.04215E-001	3.57950E+000	9	...........
	108	1.45333	9.04776E-001	2.81362E-004	0.00000E+000	2.54569E-004	1.68088E-001	9.05163E-001	3.57950E+000	9	...........
	109	1.46667	9.05712E-001	2.81587E-004	0.00000E+000	2.55037E-004	1.68088E-001	9.06067E-001	3.57950E+000	9	...........
	110	1.48	9.06617E-001	2.81559E-004	0.00000E+000	2.55266E-004	1.68088E-001	9.06975E-001	3.57950E+000	9	...........
	111	1.49333	9.07531E-001	2.81052E-004	0.00000E+000	2.55064E-004	1.68088E-001	9.07892E-001	3.57950E+000	9	...........
	112	1.50667	9.08452E-001	2.80528E-004	0.00000E+000	2.54846E-004	1.68088E-001	9.08795E-001	3.57950E+000	9	...........
	113	1.52	9.09363E-001	2.82348E-004	0.00000E+000	2.56757E-004	1.68088E-001	9.09699E-001	3.57950E+000	9	...........
	114	1.53333	9.10253E-001	2.80666E-004	0.00000E+000	2.55477E-004	1.68088E-001	9.10568E-001	3.57950E+000	9	...........
	115	1.54667	9.11106E-001	2.81300E-004	0.00000E+000	2.56294E-004	1.68088E-001	9.11449E-001	3.57950E+000	9	...........
	116	1.56	9.11971E-001	2.80653E-004	0.00000E+000	2.55948E-004	1.68088E-001	9.12320E-001	3.57950E+000	9	...........
	117	1.57333	9.12820E-001	2.81036E-004	0.00000E+000	2.56535E-004	1.68088E-001	9.13197E-001	3.57950E+000	9	...........
	118	1.58667	9.13607E-001	2.81115E-004	0.00000E+000	2.56828E-004	1.68088E-001	9.13985E-001	3.57950E+000	9	...........
	119	1.6	9.14449E-001	2.81892E-004	0.00000E+000	2.57776E-004	1.68088E-001	9.14822E-001	3.57950E+000	9	...........
	120	1.61333	9.15331E-001	2.81062E-004	0.00000E+000	2.57264E-004	1.68088E-001	9.15710E-001	3.57950E+000	9	...........
	121	1.62667	9.16210E-001	2.81368E-004	0.00000E+000	2.57792E-004	1.68088E-001	9.16565E-001	3.57950E+000	9	...........
	122	1.64	9.17065E-001	2.80647E-004	0.00000E+000	2.57372E-004	1.68088E-001	9.17437E-001	3.57950E+000	9	...........
	123	1.65333	9.17884E-001	2.80876E-004	0.00000E+000	2.57812E-004	1.68088E-001	9.18250E-001	3.57950E+000	9	...........
	124	1.66667	9.18717E-001	2.80511E-004	0.00000E+000	2.57710E-004	1.68088E-001	9.19075E-001	3.57950E+000	9	...........
	125	1.68	9.19519E-001	2.80979E-004	0.00000E+000	2.58366E-004	1.68088E-001	9.19860E-001	3.57950E+000	9	...........
	126	1.69333	9.20358E-001	2.80522E-004	0.00000E+000	2.58181E-004	1.68088E-001	9.20683E-001	3.57950E+000	9	...........
	127	1.70667	9.21211E-001	2.80547E-004	0.00000E+000	2.58443E-004	1.68088E-001	9.21498E-001	3.57950E+000	9	...........
	128	1.72	9.21968E-001	2.81291E-004	0.00000E+000	2.59341E-004	1.68088E-001	9.22297E-001	3.57950E+000	9	...........
	129	1.73333	9.22790E-001	2.80490E-004	0.00000E+000	2.58833E-004	1.68088E-001	9.23090E-001	3.57950E+000	9	...........
	130	1.74667	9.23574E-001	2.81378E-004	0.00000E+000	2.59874E-004	1.68088E-001	9.23887E-001	3.57950E+000	9	...........
	131	1.76	9.24364E-001	2.81178E-004	0.00000E+000	2.59911E-004	1.68088E-001	9.24682E-001	3.57950E+000	9	...........
	132	1.77333	9.25168E-001	2.81580E-004	0.00000E+000	2.60508E-004	1.68088E-001	9.25475E-001	3.57950E+000	9	...........
	133	1.78667	9.25972E-001	2.81774E-004	0.00000E+000	2.60915E-004	1.68088E-001	9.26277E-001	3.57950E+000	9	...........
	134	1.8	9.26779E-001	2.81574E-004	0.00000E+000	2.60957E-004	1.68088E-001	9.27117E-001	3.57950E+000	9	...........
	135	1.81333	9.27608E-001	2.81965E-004	0.00000E+000	2.61553E-004	1.68088E-001	9.27935E-001	3.57950E+000	9	...........
	136	1.82667	9.28375E-001	2.81380E-004	0.00000E+000	2.61226E-004	1.68088E-001	9.28707E-001	3.57950E+000	9	...........
	137	1.84	9.29110E-001	2.80963E-004	0.00000E+000	2.61045E-004	1.68088E-001	9.29444E-001	3.57950E+000	9	...........
	138	1.85333	9.29849E-001	2.81242E-004	0.00000E+000	2.61512E-004	1.68088E-001	9.30199E-001	3.57950E+000	9	...........
	139	1.86667	9.30644E-001	2.80962E-004	0.00000E+000	2.61475E-004	1.68088E-001	9.30973E-001	3.57950E+000	9	...........
	140	1.88	9.31391E-001	2.81782E-004	0.00000E+000	2.62449E-004	1.68088E-001	9.31698E-001	3.57950E+000	9	...........
	141	1.89333	9.32138E-001	2.80581E-004	0.00000E+000	2.61541E-004	1.68088E-001	9.32448E-001	3.57912E+000	9	...........
	142	1.90667	9.32852E-001	2.81069E-004	0.00000E+000	2.62196E-004	1.68088E-001	9.33190E-001	3.57800E+000	9	...........
	143	1.92	9.33576E-001	2.81260E-004	0.00000E+000	2.62577E-004	1.68088E-001	9.33901E-001	3.57800E+000	9	...........
	144	1.93333	9.34293E-001	2.80916E-004	0.00000E+000	2.62458E-004	1.68088E-001	9.34633E-001	3.57800E+000	9	...........
	145	1.94667	9.34997E-001	2.80748E-004	0.00000E+000	2.62499E-004	1.68088E-001	9.35335E-001	3.57800E+000	9	...........
	146	1.96	9.35700E-001	2.81613E-004	0.00000E+000	2.63505E-004	1.68088E-001	9.36048E-001	3.57800E+000	9	...........
	147	1.97333	9.36453E-001	2.81091E-004	0.00000E+000	2.63228E-004	1.68088E-001	9.36808E-001	3.57800E+000	9	...........
	148	1.98667	9.37197E-001	2.80817E-004	0.00000E+000	2.63181E-004	1.68088E-001	9.37551E-001	3.57800E+000	9	...........
	149	2	9.37937E-001	2.80225E-004	0.00000E+000	2.62833E-004	1.68088E-001	9.38318E-001	3.57800E+000	9	...........
	150	2.01333	9.38678E-001	2.81675E-004	0.00000E+000	2.64403E-004	1.68088E-001	9.39066E-001	3.57800E+000	9	...........
	151	2.02667	9.39404E-001	2.81628E-004	0.00000E+000	2.64563E-004	1.68088E-001	9.39779E-001	3.57800E+000	9	...........
	152	2.04	9.40086E-001	2.80661E-004	0.00000E+000	2.63845E-004	1.68088E-001	9.40456E-001	3.57800E+000	9	...........
	153	2.05333	9.40780E-001	2.81257E-004	0.00000E+000	2.64601E-004	1.68088E-001	9.41165E-001	3.57800E+000	9	...........
	154	2.06667	9.41491E-001	2.81578E-004	0.00000E+000	2.65103E-004	1.68088E-001	9.41861E-001	3.57800E+000	9	...........
	155	2.08	9.42170E-001	2.80588E-004	0.00000E+000	2.64361E-004	1.68088E-001	9.42518E-001	3.57800E+000	9	...........
	156	2.09333	9.42834E-001	2.81002E-004	0.00000E+000	2.64938E-004	1.68088E-001	9.43195E-001	3.57800E+000	9	...........
	157	2.10667	9.43489E-001	2.80923E-004	0.00000E+000	2.65048E-004	1.68088E-001	9.43860E-001	3.57800E+000	9	...........
	158	2.12	9.44165E-001	2.81076E-004	0.00000E+000	2.65382E-004	1.68088E-001	9.44538E-001	3.57800E+000	9	...........
	159	2.13333	9.44806E-001	2.81471E-004	0.00000E+000	2.65935E-004	1.68088E-001	9.45184E-001	3.57800E+000	9	...........
	160	2.14667	9.45487E-001	2.81255E-004	0.00000E+000	2.65923E-004	1.68088E-001	9.45840E-001	3.57800E+000	9	...........
	161	2.16	9.46175E-001	2.81284E-004	0.00000E+000	2.66143E-004	1.68088E-001	9.46525E-001	3.57800E+000	9	...........
	162	2.17333	9.46903E-001	2.80853E-004	0.00000E+000	2.65941E-004	1.68088E-001	9.47220E-001	3.57800E+000	9	...........
	163	2.18667	9.47517E-001	2.80609E-004	0.00000E+000	2.65882E-004	1.68088E-001	9.47841E-001	3.57800E+000	9	...........
	164	2.2	9.48134E-001	2.81009E-004	0.00000E+000	2.66434E-004	1.68088E-001	9.48478E-001	3.57800E+000	9	...........
	165	2.21333	9.48810E-001	2.81251E-004	0.00000E+000	2.66854E-004	1.68088E-001	9.49131E-001	3.57800E+000	9	...........
	166	2.22667	9.49399E-001	2.81349E-004	0.00000E+000	2.67113E-004	1.68088E-001	9.49773E-001	3.57800E+000	9	...........
	167	2.24	9.50036E-001	2.81292E-004	0.00000E+000	2.67238E-004	1.68088E-001	9.50390E-001	3.57800E+000	9	...........
	168	2.25333	9.50628E-001	2.81089E-004	0.00000E+000	2.67211E-004	1.68088E-001	9.51000E-001	3.57800E+000	9	...........
	169	2.26667	9.51227E-001	2.80592E-004	0.00000E+000	2.66906E-004	1.68088E-001	9.51610E-001	3.57800E+000	9	...........
	170	2.28	9.51846E-001	2.81265E-004	0.00000E+000	2.67721E-004	1.68088E-001	9.52219E-001	3.57800E+000	9	...........
	171	2.29333	9.52398E-001	2.81152E-004	0.00000E+000	2.67769E-004	1.68088E-001	9.52776E-001	3.57800E+000	9	...........
	172	2.30667	9.53056E-001	2.81026E-004	0.00000E+000	2.67834E-004	1.68088E-001	9.53408E-001	3.57800E+000	9	...........
	173	2.32	9.53695E-001	2.81193E-004	0.00000E+000	2.68172E-004	1.68088E-001	9.54030E-001	3.57800E+000	9	...........
	174	2.33333	9.54315E-001	2.80408E-004	0.00000E+000	2.67598E-004	1.68088E-001	9.54655E-001	3.57800E+000	9	...........
	175	2.34667	9.54936E-001	2.80943E-004	0.00000E+000	2.68282E-004	1.68088E-001	9.55286E-001	3.57800E+000	9	...........
	176	2.36	9.55536E-001	2.81693E-004	0.00000E+000	2.69168E-004	1.68088E-001	9.55906E-001	3.57800E+000	9	...........
	177	2.37333	9.56130E-001	2.81281E-004	0.00000E+000	2.68942E-004	1.68088E-001	9.56481E-001	3.57800E+000	9	...........
	178	2.38667	9.56740E-001	2.81476E-004	0.00000E+000	2.69300E-004	1.68088E-001	9.57105E-001	3.57800E+000	9	...........
	179	2.4	9.57308E-001	2.81348E-004	0.00000E+000	2.69337E-004	1.68088E-001	9.57698E-001	3.57800E+000	9	...........
	180	2.41333	9.57877E-001	2.81461E-004	0.00000E+000	2.69605E-004	1.68088E-001	9.58241E-001	3.57800E+000	9	...........
	181	2.42667	9.58472E-001	2.80932E-004	0.00000E+000	2.69266E-004	1.68088E-001	9.58854E-001	3.57800E+000	9	...........
	182	2.44	9.59056E-001	2.81238E-004	0.00000E+000	2.69723E-004	1.68088E-001	9.59450E-001	3.57800E+000	9	...........
	183	2.45333	9.59645E-001	2.81118E-004	0.00000E+000	2.69773E-004	1.68088E-001	9.60023E-001	3.57800E+000	9	...........
	184	2.46667	9.60209E-001	2.81254E-004	0.00000E+000	2.70063E-004	1.68088E-001	9.60594E-001	3.57800E+000	9	...........
	185	2.48	9.60787E-001	2.80927E-004	0.00000E+000	2.69911E-004	1.68088E-001	9.61174E-001	3.57800E+000	9	...........
	186	2.49333	9.61361E-001	2.81285E-004	0.00000E+000	2.70416E-004	1.68088E-001	9.61723E-001	3.57800E+000	9	...........
	187	2.50667	9.61919E-001	2.81552E-004	0.00000E+000	2.70831E-004	1.68088E-001	9.62294E-001	3.57800E+000	9	...........
	188	2.52	9.62460E-001	2.82175E-004	0.00000E+000	2.71582E-004	1.68088E-001	9.62843E-001	3.57800E+000	9	...........
	189	2.53333	9.63064E-001	2.80617E-004	0.00000E+000	2.70252E-004	1.68088E-001	9.63445E-001	3.57800E+000	9	...........
	190	2.54667	9.63589E-001	2.80676E-004	0.00000E+000	2.70456E-004	1.68088E-001	9.63963E-001	3.57800E+000	9	...........
	191	2.56	9.64143E-001	2.81579E-004	0.00000E+000	2.71483E-004	1.68088E-001	9.64526E-001	3.57800E+000	9	...........
	192	2.57333	9.64722E-001	2.81345E-004	0.00000E+000	2.71420E-004	1.68088E-001	9.65115E-001	3.57800E+000	9	...........
	193	2.58667	9.65259E-001	2.80853E-004	0.00000E+000	2.71096E-004	1.68088E-001	9.65668E-001	3.57800E+000	9	...........
	194	2.6	9.65800E-001	2.81353E-004	0.00000E+000	2.71731E-004	1.68088E-001	9.66151E-001	3.57800E+000	9	...........
	195	2.61333	9.66355E-001	2.81130E-004	0.00000E+000	2.71672E-004	1.68088E-001	9.66726E-001	3.57800E+000	9	...........
	196	2.62667	9.66885E-001	2.81180E-004	0.00000E+000	2.71869E-004	1.68088E-001	9.67273E-001	3.57800E+000	9	...........
	197	2.64	9.67460E-001	2.80977E-004	0.00000E+000	2.71834E-004	1.68088E-001	9.67819E-001	3.57800E+000	9	...........
	198	2.65333	9.68013E-001	2.81598E-004	0.00000E+000	2.72591E-004	1.68088E-001	9.68399E-001	3.57800E+000	9	...........
	199	2.66667	9.68524E-001	2.81408E-004	0.00000E+000	2.72550E-004	1.68088E-001	9.68919E-001	3.57800E+000	9	...........
	200	2.68	9.69025E-001	2.80646E-004	0.00000E+000	2.71953E-004	1.68088E-001	9.69404E-001	3.57800E+000	9	...........
	201	2.69333	9.69561E-001	2.81241E-004	0.00000E+000	2.72680E-004	1.68088E-001	9.69934E-001	3.57800E+000	9	...........
	202	2.70667	9.70086E-001	2.81460E-004	0.00000E+000	2.73040E-004	1.68088E-001	9.70464E-001	3.57800E+000	9	...........
	203	2.72	9.70584E-001	2.81392E-004	0.00000E+000	2.73115E-004	1.68088E-001	9.70975E-001	3.57800E+000	9	...........
	204	2.73333	9.71077E-001	2.81432E-004	0.00000E+000	2.73292E-004	1.68088E-001	9.71502E-001	3.57800E+000	9	...........
	205	2.74667	9.71592E-001	2.81233E-004	0.00000E+000	2.73243E-004	1.68088E-001	9.72021E-001	3.57800E+000	9	...........
	206	2.76	9.72129E-001	2.81428E-004	0.00000E+000	2.73585E-004	1.68088E-001	9.72514E-001	3.57800E+000	9	...........
	207	2.77333	9.72677E-001	2.80755E-004	0.00000E+000	2.73084E-004	1.68088E-001	9.73015E-001	3.57800E+000	9	...........
	208	2.78667	9.73176E-001	2.81224E-004	0.00000E+000	2.73681E-004	1.68088E-001	9.73503E-001	3.57800E+000	9	...........
	209	2.8	9.73674E-001	2.81246E-004	0.00000E+000	2.73842E-004	1.68088E-001	9.73988E-001	3.57800E+000	9	...........
	210	2.81333	9.74136E-001	2.81097E-004	0.00000E+000	2.73827E-004	1.68088E-001	9.74470E-001	3.57800E+000	9	...........
	211	2.82667	9.74623E-001	2.80360E-004	0.00000E+000	2.73246E-004	1.68088E-001	9.74971E-001	3.57800E+000	9	...........
	212	2.84	9.75069E-001	2.80051E-004	0.00000E+000	2.73069E-004	1.68088E-001	9.75439E-001	3.57800E+000	9	...........
	213	2.85333	9.75566E-001	2.80498E-004	0.00000E+000	2.73644E-004	1.68088E-001	9.75910E-001	3.57800E+000	9	...........
	214	2.86667	9.76028E-001	2.81128E-004	0.00000E+000	2.74389E-004	1.68088E-001	9.76380E-001	3.57800E+000	9	...........
	215	2.88	9.76477E-001	2.80999E-004	0.00000E+000	2.74389E-004	1.68088E-001	9.76853E-001	3.57800E+000	9	...........
	216	2.89333	9.76926E-001	2.79916E-004	0.00000E+000	2.73457E-004	1.68088E-001	9.77298E-001	3.57805E+000	9	...........
	217	2.90667	9.77410E-001	2.81007E-004	0.00000E+000	2.74660E-004	1.68088E-001	9.77773E-001	3.57820E+000	9	...........
	218	2.92	9.77903E-001	2.81361E-004	0.00000E+000	2.75143E-004	1.68088E-001	9.78281E-001	3.57820E+000	9	...........
	219	2.93333	9.78376E-001	2.81300E-004	0.00000E+000	2.75217E-004	1.68088E-001	9.78766E-001	3.57820E+000	9	...........
	220	2.94667	9.78893E-001	2.81473E-004	0.00000E+000	2.75532E-004	1.68088E-001	9.79244E-001	3.57820E+000	9	...........
	221	2.96	9.79352E-001	2.81667E-004	0.00000E+000	2.75851E-004	1.68088E-001	9.79684E-001	3.57820E+000	9	...........
	222	2.97333	9.79814E-001	2.80597E-004	0.00000E+000	2.74933E-004	1.68088E-001	9.80168E-001	3.57820E+000	9	...........
	223	2.98667	9.80287E-001	2.81412E-004	0.00000E+000	2.75864E-004	1.68088E-001	9.80643E-001	3.57820E+000	9	...........
	224	3	9.80746E-001	2.80844E-004	0.00000E+000	2.75437E-004	1.68088E-001	9.81091E-001	3.57820E+000	9	...........
	225	3.01333	9.81187E-001	2.80755E-004	0.00000E+000	2.75473E-004	1.68088E-001	9.81558E-001	3.57820E+000	9	...........
	226	3.02667	9.81644E-001	2.82131E-004	0.00000E+000	2.76952E-004	1.68088E-001	9.82004E-001	3.57820E+000	9	...........
	227	3.04	9.82098E-001	2.81559E-004	0.00000E+000	2.76518E-004	1.68088E-001	9.82456E-001	3.57820E+000	9	...........
	228	3.05333	9.82552E-001	2.81403E-004	0.00000E+000	2.76493E-004	1.68088E-001	9.82944E-001	3.57820E+000	9	...........
	229	3.06667	9.83027E-001	2.81392E-004	0.00000E+000	2.76616E-004	1.68088E-001	9.83414E-001	3.57820E+000	9	...........
	230	3.08	9.83427E-001	2.81409E-004	0.00000E+000	2.76745E-004	1.68088E-001	9.83849E-001	3.57820E+000	9	...........
	231	3.09333	9.83874E-001	2.80679E-004	0.00000E+000	2.76153E-004	1.68088E-001	9.84256E-001	3.57820E+000	9	...........
	232	3.10667	9.84290E-001	2.81748E-004	0.00000E+000	2.77322E-004	1.68088E-001	9.84712E-001	3.57820E+000	9	...........
	233	3.12	9.84694E-001	2.81175E-004	0.00000E+000	2.76872E-004	1.68088E-001	9.85126E-001	3.57820E+000	9	...........
	234	3.13333	9.85133E-001	2.80796E-004	0.00000E+000	2.76621E-004	1.68088E-001	9.85544E-001	3.57820E+000	9	...........
	235	3.14667	9.85533E-001	2.81212E-004	0.00000E+000	2.77143E-004	1.68088E-001	9.85956E-001	3.57820E+000	9	...........
	236	3.16	9.85960E-001	2.80674E-004	0.00000E+000	2.76733E-004	1.68088E-001	9.86375E-001	3.57820E+000	9	...........
	237	3.17333	9.86410E-001	2.81069E-004	0.00000E+000	2.77249E-004	1.68088E-001	9.86825E-001	3.57820E+000	9	...........
	238	3.18667	9.86822E-001	2.80737E-004	0.00000E+000	2.77037E-004	1.68088E-001	9.87232E-001	3.57820E+000	9	...........
	239	3.2	9.87295E-001	2.81999E-004	0.00000E+000	2.78417E-004	1.68088E-001	9.87671E-001	3.57820E+000	9	...........
	240	3.21333	9.87738E-001	2.81292E-004	0.00000E+000	2.77843E-004	1.68088E-001	9.88110E-001	3.57820E+000	9	...........
	241	3.22667	9.88158E-001	2.80967E-004	0.00000E+000	2.77640E-004	1.68088E-001	9.88521E-001	3.57820E+000	9	...........
	242	3.24	9.88618E-001	2.81817E-004	0.00000E+000	2.78609E-004	1.68088E-001	9.88946E-001	3.57820E+000	9	...........
	243	3.25333	9.89022E-001	2.81319E-004	0.00000E+000	2.78231E-004	1.68088E-001	9.89357E-001	3.57820E+000	9	...........
	244	3.26667	9.89397E-001	2.80215E-004	0.00000E+000	2.77244E-004	1.68088E-001	9.89782E-001	3.57820E+000	9	...........
	245	3.28	9.89787E-001	2.81104E-004	0.00000E+000	2.78234E-004	1.68088E-001	9.90161E-001	3.57820E+000	9	...........
	246	3.29333	9.90226E-001	2.82307E-004	0.00000E+000	2.79548E-004	1.68088E-001	9.90625E-001	3.57820E+000	9	...........
	247	3.30667	9.90639E-001	2.81394E-004	0.00000E+000	2.78760E-004	1.68088E-001	9.91029E-001	3.57820E+000	9	...........
	248	3.32	9.91078E-001	2.81249E-004	0.00000E+000	2.78740E-004	1.68088E-001	9.91482E-001	3.57820E+000	9	...........
	249	3.33333	9.91450E-001	2.81323E-004	0.00000E+000	2.78918E-004	1.68088E-001	9.91845E-001	3.57820E+000	9	...........
	250	3.34667	9.91843E-001	2.81190E-004	0.00000E+000	2.78896E-004	1.68088E-001	9.92237E-001	3.57820E+000	9	...........
	251	3.36	9.92228E-001	2.81527E-004	0.00000E+000	2.79339E-004	1.68088E-001	9.92621E-001	3.57820E+000	9	...........
	252	3.37333	9.92586E-001	2.80922E-004	0.00000E+000	2.78839E-004	1.68088E-001	9.93000E-001	3.57820E+000	9	...........
	253	3.38667	9.92967E-001	2.81099E-004	0.00000E+000	2.79122E-004	1.68088E-001	9.93404E-001	3.57820E+000	9	...........
	254	3.4	9.93382E-001	2.81249E-004	0.00000E+000	2.79388E-004	1.68088E-001	9.93792E-001	3.57820E+000	9	...........
	255	3.41333	9.93750E-001	2.80989E-004	0.00000E+000	2.79233E-004	1.68088E-001	9.94170E-001	3.57820E+000	9	...........
	256	3.42667	9.94145E-001	2.80935E-004	0.00000E+000	2.79290E-004	1.68088E-001	9.94562E-001	3.57820E+000	9	...........
	257	3.44	9.94539E-001	2.80823E-004	0.00000E+000	2.79290E-004	1.68088E-001	9.94929E-001	3.57820E+000	9	...........
	258	3.45333	9.94968E-001	2.80627E-004	0.00000E+000	2.79215E-004	1.68088E-001	9.95331E-001	3.57820E+000	9	...........
	259	3.46667	9.95341E-001	2.81126E-004	0.00000E+000	2.79816E-004	1.68088E-001	9.95715E-001	3.57820E+000	9	...........
	260	3.48	9.95706E-001	2.81047E-004	0.00000E+000	2.79840E-004	1.68088E-001	9.96051E-001	3.57820E+000	9	...........
	261	3.49333	9.96077E-001	2.80603E-004	0.00000E+000	2.79502E-004	1.68088E-001	9.96430E-001	3.57820E+000	9	...........
	262	3.50667	9.96490E-001	2.81000E-004	0.00000E+000	2.80014E-004	1.68088E-001	9.96820E-001	3.57820E+000	9	...........
	263	3.52	9.96844E-001	2.80388E-004	0.00000E+000	2.79503E-004	1.68088E-001	9.97190E-001	3.57820E+000	9	...........
	264	3.53333	9.97195E-001	2.80677E-004	0.00000E+000	2.79890E-004	1.68088E-001	9.97560E-001	3.57820E+000	9	...........
	265	3.54667	9.97564E-001	2.81800E-004	0.00000E+000	2.81114E-004	1.68088E-001	9.97924E-001	3.57820E+000	9	...........
	266	3.56	9.97974E-001	2.81350E-004	0.00000E+000	2.80780E-004	1.68088E-001	9.98309E-001	3.57820E+000	9	...........
	267	3.57333	9.98354E-001	2.80196E-004	0.00000E+000	2.79735E-004	1.68088E-001	9.98697E-001	3.57820E+000	9	...........
	268	3.58667	9.98741E-001	2.80833E-004	0.00000E+000	2.80480E-004	1.68088E-001	9.99085E-001	3.57820E+000	9	...........
	269	3.6	9.99084E-001	2.80931E-004	0.00000E+000	2.80674E-004	1.68088E-001	9.99460E-001	3.57820E+000	9	...........
	270	3.61333	9.99462E-001	2.81274E-004	0.00000E+000	2.81123E-004	1.68088E-001	9.99815E-001	3.57820E+000	9	...........
	271	3.62667	9.99816E-001	2.81435E-004	0.00000E+000	2.81383E-004	1.68088E-001	1.00019E+000	3.57820E+000	9	...........
	272	3.62833	1.00002E+000	2.82194E-004	0.00000E+000	2.82199E-004	1.68088E-001	1.00042E+000	3.57820E+000	9	...........
STARTTIMEOFFSET	QUANT	12.68667	Start Time Offset (s)
