EXPLAIN
TAG	PWR800_CHARGE
TITLE	LABEL	PWR Cyclic Charge Discharge (Cell) - Charge Step	Test &Identifier
DATE	LABEL	7-7-2017	Date
TIME	LABEL	15:45:56	Time
NOTES	NOTES	3	&Notes...
	supercap test cell
	2.8mg
	6M KOH
PSTAT	PSTAT	IFC5000-01520	Potentiostat
CAPACITY	QUANT	1.00000E-003	Capacity (A-hr)
CELLTYPE	SELECTOR	1	&Cell Type
WORKINGCONNECTION	SELECTOR	0	&Working Lead
MAXCHARGETIME	VARIABLEANDUNITS	1.00000E+002	s	1.00000E+002	second(s)	Max &Charge Time
CHARGECURRENT	QUANT	2.80000E-004	&Charge Current (A) 
VOLTAGEFINISH	TWOPARAM	F	1.00000E-003	3.60000E+003	&Voltage Finish	 I (A) < 	Max Time(s)
SAMPLETIME	QUANT	1.00000E-002	Sa&mple Period (s)
CHARGESTOPAT1	MULTIPARAM	4	1.00000E+000	Charge Stop At &1	Voltage > Limit	V
CHARGESTOPAT2	MULTIPARAM	0	0.00000E+000	Charge Stop At &2	None	N/A
AESBHCSELECTOR	TOGGLE	F	Save Both Half Cells
IRCOMP	TOGGLE	F	IR &Measure
EOC	QUANT	0	Open Circuit (V)
SEQUENCER	TOGGLE	TRUE	Run as Sequence
PSTATMODEL	IQUANT	53	Pstat Model
PSTATSECTION	LABEL	IFC5000-01520	Pstat Section
PSTATSERIALNO	LABEL	01520	Pstat Serial Number
CTRLMODE	IQUANT	0	Control Mode
ELECTROMETER	IQUANT	1	RE=0 or CS=1
IESTAB	IQUANT	0	I/E Stability
CASPEED	IQUANT	4	Control Amp Speed
CONVENTION	IQUANT	1	Current Convention
ICHRANGE	IQUANT	2	Ich Range
ICHRANGEMODE	TOGGLE	T	Ich Auto Range
ICHOFFSETENABLE	TOGGLE	F	Ich Offset Enable
ICHOFFSET	QUANT	0	Ich Offset (V)
ICHFILTER	IQUANT	1	Ich Filter
VCHRANGE	IQUANT	2	Vch Range
VCHRANGEMODE	TOGGLE	T	Vch Auto Range
VCHOFFSETENABLE	TOGGLE	F	Vch Offset Enable
VCHOFFSET	QUANT	0	Vch Offset (V)
VCHFILTER	IQUANT	1	Vch Filter
IERANGELOWERLIMIT	IQUANT	9	I/E Range Lower Limit
IERANGEMODE	TOGGLE	F	I/E AutoRange
IERANGE	IQUANT	9	I/E Range
ACHSELECT	IQUANT	1	Ach Select
ACHRANGE	IQUANT	2	Ach Range
ACHOFFSETENABLE	TOGGLE	F	Ach Offset Enable
ACHOFFSET	QUANT	0	Ach Offset (V)
ACHFILTER	IQUANT	1	Ach Filter
CABLEID	IQUANT	14	Cable ID
DCCALDATE	LABEL	5-7-2017	DC Calibration Date
ACCALDATE	LABEL	12/3/2015	AC Calibration Date
FRAMEWORKVERSION	QUANT	7.01	Framework Version
INSTRUMENTVERSION	LABEL	4.00	Instrument Version
CURVE	TABLE	121
	Pt	T	Vf	Im	Vu	Pwr	Sig	Ach	Temp	IERange	Over
	#	s	V	A	V	W	V	V	deg C	#	bits
	0	0.013333	5.76782E-001	2.81276E-004	0.00000E+000	1.62235E-004	1.68088E-001	5.77040E-001	3.57840E+000	9	...........
	1	0.026667	6.05226E-001	2.80078E-004	0.00000E+000	1.69511E-004	1.68088E-001	6.05478E-001	3.57840E+000	9	...........
	2	0.04	6.29136E-001	2.80501E-004	0.00000E+000	1.76473E-004	1.68088E-001	6.29353E-001	3.57840E+000	9	...........
	3	0.053333	6.49772E-001	2.80873E-004	0.00000E+000	1.82503E-004	1.68088E-001	6.50006E-001	3.57840E+000	9	...........
	4	0.066667	6.67896E-001	2.80882E-004	0.00000E+000	1.87600E-004	1.68088E-001	6.68139E-001	3.57840E+000	9	...........
	5	0.08	6.83997E-001	2.81203E-004	0.00000E+000	1.92342E-004	1.68088E-001	6.84270E-001	3.57840E+000	9	...........
	6	0.093333	6.98497E-001	2.80293E-004	0.00000E+000	1.95784E-004	1.68088E-001	6.98762E-001	3.57840E+000	9	...........
	7	0.106667	7.11581E-001	2.80740E-004	0.00000E+000	1.99769E-004	1.68088E-001	7.11886E-001	3.57840E+000	9	...........
	8	0.12	7.23599E-001	2.81070E-004	0.00000E+000	2.03382E-004	1.68088E-001	7.23911E-001	3.57840E+000	9	...........
	9	0.133333	7.34598E-001	2.81547E-004	0.00000E+000	2.06824E-004	1.68088E-001	7.34910E-001	3.57840E+000	9	...........
	10	0.146667	7.44778E-001	2.80345E-004	0.00000E+000	2.08795E-004	1.68088E-001	7.45091E-001	3.57840E+000	9	...........
	11	0.16	7.54195E-001	2.81136E-004	0.00000E+000	2.12031E-004	1.68088E-001	7.54500E-001	3.57840E+000	9	...........
	12	0.173333	7.62931E-001	2.80894E-004	0.00000E+000	2.14303E-004	1.68088E-001	7.63262E-001	3.57840E+000	9	...........
	13	0.186667	7.71109E-001	2.80413E-004	0.00000E+000	2.16229E-004	1.68088E-001	7.71460E-001	3.57840E+000	9	...........
	14	0.2	7.78752E-001	2.80828E-004	0.00000E+000	2.18696E-004	1.68088E-001	7.79115E-001	3.57840E+000	9	...........
	15	0.213333	7.85938E-001	2.81623E-004	0.00000E+000	2.21338E-004	1.68088E-001	7.86280E-001	3.57840E+000	9	...........
	16	0.226667	7.92698E-001	2.81193E-004	0.00000E+000	2.22901E-004	1.68088E-001	7.93076E-001	3.57840E+000	9	...........
	17	0.24	7.99104E-001	2.80899E-004	0.00000E+000	2.24468E-004	1.68088E-001	7.99472E-001	3.57840E+000	9	...........
	18	0.253333	8.05119E-001	2.81080E-004	0.00000E+000	2.26303E-004	1.68088E-001	8.05490E-001	3.57840E+000	9	...........
	19	0.266667	8.10797E-001	2.82111E-004	0.00000E+000	2.28735E-004	1.68088E-001	8.11176E-001	3.57840E+000	9	...........
	20	0.28	8.16238E-001	2.80758E-004	0.00000E+000	2.29166E-004	1.68088E-001	8.16587E-001	3.57840E+000	9	...........
	21	0.293333	8.21421E-001	2.80546E-004	0.00000E+000	2.30446E-004	1.68088E-001	8.21778E-001	3.57840E+000	9	...........
	22	0.306667	8.26328E-001	2.80695E-004	0.00000E+000	2.31946E-004	1.68088E-001	8.26690E-001	3.57840E+000	9	...........
	23	0.32	8.31017E-001	2.80701E-004	0.00000E+000	2.33268E-004	1.68088E-001	8.31382E-001	3.57840E+000	9	...........
	24	0.333333	8.35503E-001	2.80564E-004	0.00000E+000	2.34412E-004	1.68088E-001	8.35877E-001	3.57840E+000	9	...........
	25	0.346667	8.39829E-001	2.81024E-004	0.00000E+000	2.36012E-004	1.68088E-001	8.40166E-001	3.57840E+000	9	...........
	26	0.36	8.43947E-001	2.80827E-004	0.00000E+000	2.37003E-004	1.68088E-001	8.44283E-001	3.57840E+000	9	...........
	27	0.373333	8.47900E-001	2.81065E-004	0.00000E+000	2.38315E-004	1.68088E-001	8.48246E-001	3.57840E+000	9	...........
	28	0.386667	8.51654E-001	2.80334E-004	0.00000E+000	2.38748E-004	1.68088E-001	8.52016E-001	3.57840E+000	9	...........
	29	0.4	8.55270E-001	2.81333E-004	0.00000E+000	2.40615E-004	1.68088E-001	8.55618E-001	3.57840E+000	9	...........
	30	0.413333	8.58743E-001	2.81421E-004	0.00000E+000	2.41668E-004	1.68088E-001	8.59104E-001	3.57840E+000	9	...........
	31	0.426667	8.62126E-001	2.80561E-004	0.00000E+000	2.41879E-004	1.68088E-001	8.62492E-001	3.57840E+000	9	...........
	32	0.44	8.65371E-001	2.81192E-004	0.00000E+000	2.43335E-004	1.68088E-001	8.65751E-001	3.57840E+000	9	...........
	33	0.453333	8.68536E-001	2.80765E-004	0.00000E+000	2.43854E-004	1.68088E-001	8.68911E-001	3.57840E+000	9	...........
	34	0.466667	8.71620E-001	2.81462E-004	0.00000E+000	2.45328E-004	1.68088E-001	8.71993E-001	3.57840E+000	9	...........
	35	0.48	8.74563E-001	2.80882E-004	0.00000E+000	2.45650E-004	1.68088E-001	8.74919E-001	3.57840E+000	9	...........
	36	0.493333	8.77403E-001	2.81470E-004	0.00000E+000	2.46963E-004	1.68088E-001	8.77758E-001	3.57840E+000	9	...........
	37	0.506667	8.80195E-001	2.80238E-004	0.00000E+000	2.46664E-004	1.68088E-001	8.80502E-001	3.57840E+000	9	...........
	38	0.52	8.82959E-001	2.80862E-004	0.00000E+000	2.47989E-004	1.68088E-001	8.83260E-001	3.57840E+000	9	...........
	39	0.533333	8.85595E-001	2.80821E-004	0.00000E+000	2.48694E-004	1.68088E-001	8.85903E-001	3.57840E+000	9	...........
	40	0.546667	8.88173E-001	2.81211E-004	0.00000E+000	2.49764E-004	1.68088E-001	8.88461E-001	3.57840E+000	9	...........
	41	0.56	8.90664E-001	2.80467E-004	0.00000E+000	2.49802E-004	1.68088E-001	8.90964E-001	3.57840E+000	9	...........
	42	0.573333	8.93090E-001	2.81730E-004	0.00000E+000	2.51610E-004	1.68088E-001	8.93393E-001	3.57840E+000	9	...........
	43	0.586667	8.95464E-001	2.80443E-004	0.00000E+000	2.51126E-004	1.68088E-001	8.95780E-001	3.57840E+000	9	...........
	44	0.6	8.97767E-001	2.81635E-004	0.00000E+000	2.52842E-004	1.68088E-001	8.98110E-001	3.57840E+000	9	...........
	45	0.613333	9.00035E-001	2.80633E-004	0.00000E+000	2.52580E-004	1.68088E-001	9.00360E-001	3.57840E+000	9	...........
	46	0.626667	9.02207E-001	2.82124E-004	0.00000E+000	2.54535E-004	1.68088E-001	9.02562E-001	3.57840E+000	9	...........
	47	0.64	9.04366E-001	2.81279E-004	0.00000E+000	2.54379E-004	1.68088E-001	9.04730E-001	3.57840E+000	9	...........
	48	0.653333	9.06450E-001	2.81493E-004	0.00000E+000	2.55159E-004	1.68088E-001	9.06855E-001	3.57840E+000	9	...........
	49	0.666667	9.08521E-001	2.81354E-004	0.00000E+000	2.55616E-004	1.68088E-001	9.08893E-001	3.57840E+000	9	...........
	50	0.68	9.10524E-001	2.81204E-004	0.00000E+000	2.56043E-004	1.68088E-001	9.10857E-001	3.57840E+000	9	...........
	51	0.693333	9.12480E-001	2.81560E-004	0.00000E+000	2.56918E-004	1.68088E-001	9.12822E-001	3.57840E+000	9	...........
	52	0.706667	9.14404E-001	2.81295E-004	0.00000E+000	2.57217E-004	1.68088E-001	9.14765E-001	3.57840E+000	9	...........
	53	0.72	9.16311E-001	2.81499E-004	0.00000E+000	2.57941E-004	1.68088E-001	9.16670E-001	3.57840E+000	9	...........
	54	0.733333	9.18153E-001	2.80814E-004	0.00000E+000	2.57830E-004	1.68088E-001	9.18520E-001	3.57840E+000	9	...........
	55	0.746667	9.20004E-001	2.80621E-004	0.00000E+000	2.58172E-004	1.68088E-001	9.20345E-001	3.57877E+000	9	...........
	56	0.76	9.21850E-001	2.80826E-004	0.00000E+000	2.58880E-004	1.68088E-001	9.22174E-001	3.57940E+000	9	...........
	57	0.773333	9.23622E-001	2.81085E-004	0.00000E+000	2.59616E-004	1.68088E-001	9.23943E-001	3.57940E+000	9	...........
	58	0.786667	9.25376E-001	2.80788E-004	0.00000E+000	2.59834E-004	1.68088E-001	9.25703E-001	3.57940E+000	9	...........
	59	0.8	9.27108E-001	2.81501E-004	0.00000E+000	2.60982E-004	1.68088E-001	9.27428E-001	3.57940E+000	9	...........
	60	0.813333	9.28735E-001	2.80907E-004	0.00000E+000	2.60889E-004	1.68088E-001	9.29068E-001	3.57940E+000	9	...........
	61	0.826667	9.30399E-001	2.81341E-004	0.00000E+000	2.61759E-004	1.68088E-001	9.30714E-001	3.57940E+000	9	...........
	62	0.84	9.32028E-001	2.81721E-004	0.00000E+000	2.62572E-004	1.68088E-001	9.32322E-001	3.57940E+000	9	...........
	63	0.853333	9.33635E-001	2.81328E-004	0.00000E+000	2.62658E-004	1.68088E-001	9.33970E-001	3.57940E+000	9	...........
	64	0.866667	9.35211E-001	2.81565E-004	0.00000E+000	2.63323E-004	1.68088E-001	9.35549E-001	3.57940E+000	9	...........
	65	0.88	9.36741E-001	2.81380E-004	0.00000E+000	2.63581E-004	1.68088E-001	9.37077E-001	3.57940E+000	9	...........
	66	0.893333	9.38272E-001	2.82231E-004	0.00000E+000	2.64809E-004	1.68088E-001	9.38620E-001	3.57940E+000	9	...........
	67	0.906667	9.39753E-001	2.81085E-004	0.00000E+000	2.64150E-004	1.68088E-001	9.40109E-001	3.57940E+000	9	...........
	68	0.92	9.41219E-001	2.80878E-004	0.00000E+000	2.64368E-004	1.68088E-001	9.41553E-001	3.57940E+000	9	...........
	69	0.933333	9.42715E-001	2.80892E-004	0.00000E+000	2.64801E-004	1.68088E-001	9.43023E-001	3.57940E+000	9	...........
	70	0.946667	9.44184E-001	2.80998E-004	0.00000E+000	2.65314E-004	1.68088E-001	9.44553E-001	3.57940E+000	9	...........
	71	0.96	9.45640E-001	2.80786E-004	0.00000E+000	2.65522E-004	1.68088E-001	9.46014E-001	3.57940E+000	9	...........
	72	0.97333	9.47089E-001	2.80986E-004	0.00000E+000	2.66118E-004	1.68088E-001	9.47423E-001	3.57940E+000	9	...........
	73	0.98667	9.48532E-001	2.81307E-004	0.00000E+000	2.66828E-004	1.68088E-001	9.48871E-001	3.57940E+000	9	...........
	74	1	9.49885E-001	2.81596E-004	0.00000E+000	2.67484E-004	1.68088E-001	9.50208E-001	3.57940E+000	9	...........
	75	1.01333	9.51214E-001	2.81576E-004	0.00000E+000	2.67839E-004	1.68088E-001	9.51556E-001	3.57940E+000	9	...........
	76	1.02667	9.52555E-001	2.80669E-004	0.00000E+000	2.67352E-004	1.68088E-001	9.52894E-001	3.57940E+000	9	...........
	77	1.04	9.53869E-001	2.80657E-004	0.00000E+000	2.67710E-004	1.68088E-001	9.54179E-001	3.57940E+000	9	...........
	78	1.05333	9.55192E-001	2.80932E-004	0.00000E+000	2.68344E-004	1.68088E-001	9.55516E-001	3.57940E+000	9	...........
	79	1.06667	9.56539E-001	2.80912E-004	0.00000E+000	2.68703E-004	1.68088E-001	9.56853E-001	3.57940E+000	9	...........
	80	1.08	9.57787E-001	2.81171E-004	0.00000E+000	2.69302E-004	1.68088E-001	9.58150E-001	3.57940E+000	9	...........
	81	1.09333	9.59076E-001	2.81166E-004	0.00000E+000	2.69659E-004	1.68088E-001	9.59436E-001	3.57940E+000	9	...........
	82	1.10667	9.60329E-001	2.81663E-004	0.00000E+000	2.70489E-004	1.68088E-001	9.60688E-001	3.57940E+000	9	...........
	83	1.12	9.61561E-001	2.80975E-004	0.00000E+000	2.70175E-004	1.68088E-001	9.61935E-001	3.57940E+000	9	...........
	84	1.13333	9.62775E-001	2.79989E-004	0.00000E+000	2.69566E-004	1.68088E-001	9.63151E-001	3.57940E+000	9	...........
	85	1.14667	9.63976E-001	2.80727E-004	0.00000E+000	2.70614E-004	1.68088E-001	9.64345E-001	3.57940E+000	9	...........
	86	1.16	9.65149E-001	2.81091E-004	0.00000E+000	2.71295E-004	1.68088E-001	9.65525E-001	3.57940E+000	9	...........
	87	1.17333	9.66386E-001	2.80766E-004	0.00000E+000	2.71328E-004	1.68088E-001	9.66733E-001	3.57940E+000	9	...........
	88	1.18667	9.67560E-001	2.80479E-004	0.00000E+000	2.71381E-004	1.68088E-001	9.67929E-001	3.57940E+000	9	...........
	89	1.2	9.68728E-001	2.80618E-004	0.00000E+000	2.71842E-004	1.68088E-001	9.69100E-001	3.57940E+000	9	...........
	90	1.21333	9.69880E-001	2.81252E-004	0.00000E+000	2.72781E-004	1.68088E-001	9.70255E-001	3.57940E+000	9	...........
	91	1.22667	9.71012E-001	2.80419E-004	0.00000E+000	2.72290E-004	1.68088E-001	9.71416E-001	3.57940E+000	9	...........
	92	1.24	9.72167E-001	2.80424E-004	0.00000E+000	2.72619E-004	1.68088E-001	9.72559E-001	3.57940E+000	9	...........
	93	1.25333	9.73320E-001	2.81689E-004	0.00000E+000	2.74173E-004	1.68088E-001	9.73670E-001	3.57940E+000	9	...........
	94	1.26667	9.74394E-001	2.80350E-004	0.00000E+000	2.73171E-004	1.68088E-001	9.74760E-001	3.57940E+000	9	...........
	95	1.28	9.75498E-001	2.81238E-004	0.00000E+000	2.74347E-004	1.68088E-001	9.75890E-001	3.57940E+000	9	...........
	96	1.29333	9.76619E-001	2.81377E-004	0.00000E+000	2.74798E-004	1.68088E-001	9.77000E-001	3.57940E+000	9	...........
	97	1.30667	9.77709E-001	2.81144E-004	0.00000E+000	2.74877E-004	1.68088E-001	9.78073E-001	3.57940E+000	9	...........
	98	1.32	9.78767E-001	2.80765E-004	0.00000E+000	2.74803E-004	1.68088E-001	9.79154E-001	3.57940E+000	9	...........
	99	1.33333	9.79799E-001	2.80445E-004	0.00000E+000	2.74779E-004	1.68088E-001	9.80173E-001	3.57940E+000	9	...........
	100	1.34667	9.80805E-001	2.80925E-004	0.00000E+000	2.75533E-004	1.68088E-001	9.81191E-001	3.57940E+000	9	...........
	101	1.36	9.81859E-001	2.80398E-004	0.00000E+000	2.75311E-004	1.68088E-001	9.82217E-001	3.57940E+000	9	...........
	102	1.37333	9.82878E-001	2.80835E-004	0.00000E+000	2.76026E-004	1.68088E-001	9.83235E-001	3.57940E+000	9	...........
	103	1.38667	9.83893E-001	2.81117E-004	0.00000E+000	2.76589E-004	1.68088E-001	9.84262E-001	3.57940E+000	9	...........
	104	1.4	9.84882E-001	2.81075E-004	0.00000E+000	2.76826E-004	1.68088E-001	9.85234E-001	3.57940E+000	9	...........
	105	1.41333	9.85857E-001	2.81299E-004	0.00000E+000	2.77321E-004	1.68088E-001	9.86209E-001	3.57940E+000	9	...........
	106	1.42667	9.86851E-001	2.81007E-004	0.00000E+000	2.77313E-004	1.68088E-001	9.87195E-001	3.57940E+000	9	...........
	107	1.44	9.87827E-001	2.80683E-004	0.00000E+000	2.77267E-004	1.68088E-001	9.88207E-001	3.57940E+000	9	...........
	108	1.45333	9.88806E-001	2.81009E-004	0.00000E+000	2.77863E-004	1.68088E-001	9.89169E-001	3.57940E+000	9	...........
	109	1.46667	9.89767E-001	2.81095E-004	0.00000E+000	2.78219E-004	1.68088E-001	9.90141E-001	3.57940E+000	9	...........
	110	1.48	9.90713E-001	2.81384E-004	0.00000E+000	2.78770E-004	1.68088E-001	9.91084E-001	3.57940E+000	9	...........
	111	1.49333	9.91624E-001	2.81655E-004	0.00000E+000	2.79295E-004	1.68088E-001	9.91999E-001	3.57940E+000	9	...........
	112	1.50667	9.92568E-001	2.81396E-004	0.00000E+000	2.79305E-004	1.68088E-001	9.92951E-001	3.57940E+000	9	...........
	113	1.52	9.93515E-001	2.80968E-004	0.00000E+000	2.79146E-004	1.68088E-001	9.93875E-001	3.57940E+000	9	...........
	114	1.53333	9.94406E-001	2.80819E-004	0.00000E+000	2.79248E-004	1.68088E-001	9.94795E-001	3.57940E+000	9	...........
	115	1.54667	9.95346E-001	2.80823E-004	0.00000E+000	2.79516E-004	1.68088E-001	9.95745E-001	3.57940E+000	9	...........
	116	1.56	9.96272E-001	2.80749E-004	0.00000E+000	2.79703E-004	1.68088E-001	9.96662E-001	3.57940E+000	9	...........
	117	1.57333	9.97151E-001	2.79995E-004	0.00000E+000	2.79197E-004	1.68088E-001	9.97591E-001	3.57940E+000	9	...........
	118	1.58667	9.98075E-001	2.80994E-004	0.00000E+000	2.80453E-004	1.68088E-001	9.98466E-001	3.57940E+000	9	...........
	119	1.6	9.98982E-001	2.81192E-004	0.00000E+000	2.80906E-004	1.68088E-001	9.99366E-001	3.57940E+000	9	...........
	120	1.61	9.99791E-001	2.80790E-004	0.00000E+000	2.80731E-004	1.68088E-001	1.00015E+000	3.57940E+000	9	...........
STARTTIMEOFFSET	QUANT	485.0634	Start Time Offset (s)
