EXPLAIN
TAG	PWR800_CHARGE
TITLE	LABEL	PWR Cyclic Charge Discharge (Cell) - Charge Step	Test &Identifier
DATE	LABEL	7-7-2017	Date
TIME	LABEL	15:56:21	Time
NOTES	NOTES	3	&Notes...
	supercap test cell
	2.8mg
	6M KOH
PSTAT	PSTAT	IFC5000-01520	Potentiostat
CAPACITY	QUANT	1.00000E-003	Capacity (A-hr)
CELLTYPE	SELECTOR	1	&Cell Type
WORKINGCONNECTION	SELECTOR	0	&Working Lead
MAXCHARGETIME	VARIABLEANDUNITS	1.00000E+002	s	1.00000E+002	second(s)	Max &Charge Time
CHARGECURRENT	QUANT	2.80000E-004	&Charge Current (A) 
VOLTAGEFINISH	TWOPARAM	F	1.00000E-003	3.60000E+003	&Voltage Finish	 I (A) < 	Max Time(s)
SAMPLETIME	QUANT	1.00000E-002	Sa&mple Period (s)
CHARGESTOPAT1	MULTIPARAM	4	1.00000E+000	Charge Stop At &1	Voltage > Limit	V
CHARGESTOPAT2	MULTIPARAM	0	0.00000E+000	Charge Stop At &2	None	N/A
AESBHCSELECTOR	TOGGLE	F	Save Both Half Cells
IRCOMP	TOGGLE	F	IR &Measure
EOC	QUANT	0	Open Circuit (V)
SEQUENCER	TOGGLE	TRUE	Run as Sequence
PSTATMODEL	IQUANT	53	Pstat Model
PSTATSECTION	LABEL	IFC5000-01520	Pstat Section
PSTATSERIALNO	LABEL	01520	Pstat Serial Number
CTRLMODE	IQUANT	0	Control Mode
ELECTROMETER	IQUANT	1	RE=0 or CS=1
IESTAB	IQUANT	0	I/E Stability
CASPEED	IQUANT	4	Control Amp Speed
CONVENTION	IQUANT	1	Current Convention
ICHRANGE	IQUANT	2	Ich Range
ICHRANGEMODE	TOGGLE	T	Ich Auto Range
ICHOFFSETENABLE	TOGGLE	F	Ich Offset Enable
ICHOFFSET	QUANT	0	Ich Offset (V)
ICHFILTER	IQUANT	1	Ich Filter
VCHRANGE	IQUANT	2	Vch Range
VCHRANGEMODE	TOGGLE	T	Vch Auto Range
VCHOFFSETENABLE	TOGGLE	F	Vch Offset Enable
VCHOFFSET	QUANT	0	Vch Offset (V)
VCHFILTER	IQUANT	1	Vch Filter
IERANGELOWERLIMIT	IQUANT	9	I/E Range Lower Limit
IERANGEMODE	TOGGLE	F	I/E AutoRange
IERANGE	IQUANT	9	I/E Range
ACHSELECT	IQUANT	1	Ach Select
ACHRANGE	IQUANT	2	Ach Range
ACHOFFSETENABLE	TOGGLE	F	Ach Offset Enable
ACHOFFSET	QUANT	0	Ach Offset (V)
ACHFILTER	IQUANT	1	Ach Filter
CABLEID	IQUANT	14	Cable ID
DCCALDATE	LABEL	5-7-2017	DC Calibration Date
ACCALDATE	LABEL	12/3/2015	AC Calibration Date
FRAMEWORKVERSION	QUANT	7.01	Framework Version
INSTRUMENTVERSION	LABEL	4.00	Instrument Version
CURVE	TABLE	87
	Pt	T	Vf	Im	Vu	Pwr	Sig	Ach	Temp	IERange	Over
	#	s	V	A	V	W	V	V	deg C	#	bits
	0	0.013333	5.92264E-001	2.80410E-004	0.00000E+000	1.66077E-004	1.68088E-001	5.92553E-001	3.57760E+000	9	...........
	1	0.026667	6.21664E-001	2.81275E-004	0.00000E+000	1.74859E-004	1.68088E-001	6.21952E-001	3.57760E+000	9	...........
	2	0.04	6.46650E-001	2.81814E-004	0.00000E+000	1.82235E-004	1.68088E-001	6.46914E-001	3.57760E+000	9	...........
	3	0.053333	6.68418E-001	2.80053E-004	0.00000E+000	1.87193E-004	1.68088E-001	6.68660E-001	3.57760E+000	9	...........
	4	0.066667	6.87679E-001	2.80968E-004	0.00000E+000	1.93216E-004	1.68088E-001	6.87955E-001	3.57760E+000	9	...........
	5	0.08	7.04992E-001	2.80748E-004	0.00000E+000	1.97925E-004	1.68088E-001	7.05252E-001	3.57760E+000	9	...........
	6	0.093333	7.20644E-001	2.80039E-004	0.00000E+000	2.01808E-004	1.68088E-001	7.20924E-001	3.57800E+000	9	...........
	7	0.106667	7.34921E-001	2.81753E-004	0.00000E+000	2.07066E-004	1.68088E-001	7.35188E-001	3.57800E+000	9	...........
	8	0.12	7.48018E-001	2.80484E-004	0.00000E+000	2.09807E-004	1.68088E-001	7.48304E-001	3.57800E+000	9	...........
	9	0.133333	7.60095E-001	2.80262E-004	0.00000E+000	2.13025E-004	1.68088E-001	7.60389E-001	3.57800E+000	9	...........
	10	0.146667	7.71286E-001	2.81660E-004	0.00000E+000	2.17240E-004	1.68088E-001	7.71589E-001	3.57800E+000	9	...........
	11	0.16	7.81647E-001	2.80939E-004	0.00000E+000	2.19595E-004	1.68088E-001	7.81956E-001	3.57800E+000	9	...........
	12	0.173333	7.91308E-001	2.80812E-004	0.00000E+000	2.22208E-004	1.68088E-001	7.91606E-001	3.57800E+000	9	...........
	13	0.186667	8.00317E-001	2.81012E-004	0.00000E+000	2.24898E-004	1.68088E-001	8.00621E-001	3.57800E+000	9	...........
	14	0.2	8.08743E-001	2.80767E-004	0.00000E+000	2.27068E-004	1.68088E-001	8.09042E-001	3.57800E+000	9	...........
	15	0.213333	8.16633E-001	2.81699E-004	0.00000E+000	2.30045E-004	1.68088E-001	8.16960E-001	3.57800E+000	9	...........
	16	0.226667	8.24082E-001	2.81150E-004	0.00000E+000	2.31691E-004	1.68088E-001	8.24388E-001	3.57800E+000	9	...........
	17	0.24	8.31021E-001	2.81246E-004	0.00000E+000	2.33721E-004	1.68088E-001	8.31368E-001	3.57800E+000	9	...........
	18	0.253333	8.37586E-001	2.81023E-004	0.00000E+000	2.35381E-004	1.68088E-001	8.37941E-001	3.57800E+000	9	...........
	19	0.266667	8.43822E-001	2.81772E-004	0.00000E+000	2.37766E-004	1.68088E-001	8.44163E-001	3.57800E+000	9	...........
	20	0.28	8.49733E-001	2.80619E-004	0.00000E+000	2.38451E-004	1.68088E-001	8.50076E-001	3.57800E+000	9	...........
	21	0.293333	8.55306E-001	2.82110E-004	0.00000E+000	2.41290E-004	1.68088E-001	8.55661E-001	3.57800E+000	9	...........
	22	0.306667	8.60616E-001	2.81700E-004	0.00000E+000	2.42436E-004	1.68088E-001	8.60942E-001	3.57800E+000	9	...........
	23	0.32	8.65656E-001	2.80987E-004	0.00000E+000	2.43238E-004	1.68088E-001	8.65994E-001	3.57800E+000	9	...........
	24	0.333333	8.70499E-001	2.80838E-004	0.00000E+000	2.44469E-004	1.68088E-001	8.70837E-001	3.57800E+000	9	...........
	25	0.346667	8.75034E-001	2.82250E-004	0.00000E+000	2.46979E-004	1.68088E-001	8.75376E-001	3.57800E+000	9	...........
	26	0.36	8.79374E-001	2.80913E-004	0.00000E+000	2.47027E-004	1.68088E-001	8.79709E-001	3.57800E+000	9	...........
	27	0.373333	8.83523E-001	2.80564E-004	0.00000E+000	2.47884E-004	1.68088E-001	8.83863E-001	3.57800E+000	9	...........
	28	0.386667	8.87536E-001	2.80942E-004	0.00000E+000	2.49346E-004	1.68088E-001	8.87833E-001	3.57800E+000	9	...........
	29	0.4	8.91352E-001	2.80970E-004	0.00000E+000	2.50443E-004	1.68088E-001	8.91678E-001	3.57800E+000	9	...........
	30	0.413333	8.95025E-001	2.80380E-004	0.00000E+000	2.50947E-004	1.68088E-001	8.95363E-001	3.57800E+000	9	...........
	31	0.426667	8.98570E-001	2.81646E-004	0.00000E+000	2.53079E-004	1.68088E-001	8.98914E-001	3.57800E+000	9	...........
	32	0.44	9.01972E-001	2.81270E-004	0.00000E+000	2.53698E-004	1.68088E-001	9.02313E-001	3.57800E+000	9	...........
	33	0.453333	9.05190E-001	2.81113E-004	0.00000E+000	2.54460E-004	1.68088E-001	9.05569E-001	3.57800E+000	9	...........
	34	0.466667	9.08325E-001	2.81891E-004	0.00000E+000	2.56049E-004	1.68088E-001	9.08704E-001	3.57800E+000	9	...........
	35	0.48	9.11362E-001	2.81435E-004	0.00000E+000	2.56489E-004	1.68088E-001	9.11719E-001	3.57800E+000	9	...........
	36	0.493333	9.14286E-001	2.80218E-004	0.00000E+000	2.56199E-004	1.68088E-001	9.14660E-001	3.57800E+000	9	...........
	37	0.506667	9.17140E-001	2.81316E-004	0.00000E+000	2.58006E-004	1.68088E-001	9.17528E-001	3.57800E+000	9	...........
	38	0.52	9.19918E-001	2.81588E-004	0.00000E+000	2.59038E-004	1.68088E-001	9.20278E-001	3.57800E+000	9	...........
	39	0.533333	9.22614E-001	2.81096E-004	0.00000E+000	2.59343E-004	1.68088E-001	9.22930E-001	3.57800E+000	9	...........
	40	0.546667	9.25153E-001	2.81994E-004	0.00000E+000	2.60888E-004	1.68088E-001	9.25488E-001	3.57800E+000	9	...........
	41	0.56	9.27666E-001	2.82270E-004	0.00000E+000	2.61852E-004	1.68088E-001	9.27984E-001	3.57800E+000	9	...........
	42	0.573333	9.30103E-001	2.81288E-004	0.00000E+000	2.61626E-004	1.68088E-001	9.30434E-001	3.57800E+000	9	...........
	43	0.586667	9.32474E-001	2.81164E-004	0.00000E+000	2.62178E-004	1.68088E-001	9.32805E-001	3.57800E+000	9	...........
	44	0.6	9.34796E-001	2.80962E-004	0.00000E+000	2.62642E-004	1.68088E-001	9.35147E-001	3.57800E+000	9	...........
	45	0.613333	9.37049E-001	2.81268E-004	0.00000E+000	2.63562E-004	1.68088E-001	9.37406E-001	3.57800E+000	9	...........
	46	0.626667	9.39207E-001	2.81811E-004	0.00000E+000	2.64679E-004	1.68088E-001	9.39604E-001	3.57800E+000	9	...........
	47	0.64	9.41371E-001	2.81820E-004	0.00000E+000	2.65297E-004	1.68088E-001	9.41735E-001	3.57800E+000	9	...........
	48	0.653333	9.43428E-001	2.81271E-004	0.00000E+000	2.65359E-004	1.68088E-001	9.43781E-001	3.57800E+000	9	...........
	49	0.666667	9.45478E-001	2.81557E-004	0.00000E+000	2.66206E-004	1.68088E-001	9.45846E-001	3.57800E+000	9	...........
	50	0.68	9.47523E-001	2.81268E-004	0.00000E+000	2.66508E-004	1.68088E-001	9.47864E-001	3.57800E+000	9	...........
	51	0.693333	9.49451E-001	2.80385E-004	0.00000E+000	2.66212E-004	1.68088E-001	9.49799E-001	3.57800E+000	9	...........
	52	0.706667	9.51332E-001	2.82108E-004	0.00000E+000	2.68378E-004	1.68088E-001	9.51671E-001	3.57800E+000	9	...........
	53	0.72	9.53196E-001	2.81420E-004	0.00000E+000	2.68249E-004	1.68088E-001	9.53529E-001	3.57800E+000	9	...........
	54	0.733333	9.54959E-001	2.80126E-004	0.00000E+000	2.67509E-004	1.68088E-001	9.55284E-001	3.57800E+000	9	...........
	55	0.746667	9.56723E-001	2.82461E-004	0.00000E+000	2.70237E-004	1.68088E-001	9.57080E-001	3.57800E+000	9	...........
	56	0.76	9.58469E-001	2.80773E-004	0.00000E+000	2.69112E-004	1.68088E-001	9.58839E-001	3.57800E+000	9	...........
	57	0.773333	9.60144E-001	2.81161E-004	0.00000E+000	2.69955E-004	1.68088E-001	9.60516E-001	3.57800E+000	9	...........
	58	0.786667	9.61786E-001	2.80260E-004	0.00000E+000	2.69550E-004	1.68088E-001	9.62196E-001	3.57800E+000	9	...........
	59	0.8	9.63432E-001	2.81582E-004	0.00000E+000	2.71285E-004	1.68088E-001	9.63820E-001	3.57800E+000	9	...........
	60	0.813333	9.65033E-001	2.81506E-004	0.00000E+000	2.71662E-004	1.68088E-001	9.65428E-001	3.57800E+000	9	...........
	61	0.826667	9.66654E-001	2.81267E-004	0.00000E+000	2.71888E-004	1.68088E-001	9.67029E-001	3.57800E+000	9	...........
	62	0.84	9.68217E-001	2.81718E-004	0.00000E+000	2.72764E-004	1.68088E-001	9.68598E-001	3.57800E+000	9	...........
	63	0.853333	9.69760E-001	2.81608E-004	0.00000E+000	2.73092E-004	1.68088E-001	9.70144E-001	3.57800E+000	9	...........
	64	0.866667	9.71259E-001	2.81141E-004	0.00000E+000	2.73061E-004	1.68088E-001	9.71649E-001	3.57800E+000	9	...........
	65	0.88	9.72787E-001	2.81564E-004	0.00000E+000	2.73902E-004	1.68088E-001	9.73134E-001	3.57800E+000	9	...........
	66	0.893333	9.74265E-001	2.81363E-004	0.00000E+000	2.74122E-004	1.68088E-001	9.74606E-001	3.57800E+000	9	...........
	67	0.906667	9.75700E-001	2.81736E-004	0.00000E+000	2.74889E-004	1.68088E-001	9.76040E-001	3.57800E+000	9	...........
	68	0.92	9.77105E-001	2.81238E-004	0.00000E+000	2.74799E-004	1.68088E-001	9.77460E-001	3.57800E+000	9	...........
	69	0.933333	9.78528E-001	2.81393E-004	0.00000E+000	2.75351E-004	1.68088E-001	9.78864E-001	3.57800E+000	9	...........
	70	0.946667	9.79919E-001	2.80760E-004	0.00000E+000	2.75121E-004	1.68088E-001	9.80263E-001	3.57800E+000	9	...........
	71	0.96	9.81260E-001	2.82237E-004	0.00000E+000	2.76948E-004	1.68088E-001	9.81628E-001	3.57800E+000	9	...........
	72	0.97333	9.82621E-001	2.81778E-004	0.00000E+000	2.76881E-004	1.68088E-001	9.82973E-001	3.57800E+000	9	...........
	73	0.98667	9.83960E-001	2.80922E-004	0.00000E+000	2.76416E-004	1.68088E-001	9.84333E-001	3.57800E+000	9	...........
	74	1	9.85283E-001	2.80264E-004	0.00000E+000	2.76139E-004	1.68088E-001	9.85662E-001	3.57800E+000	9	...........
	75	1.01333	9.86574E-001	2.81808E-004	0.00000E+000	2.78024E-004	1.68088E-001	9.86947E-001	3.57800E+000	9	...........
	76	1.02667	9.87842E-001	2.80275E-004	0.00000E+000	2.76867E-004	1.68088E-001	9.88222E-001	3.57800E+000	9	...........
	77	1.04	9.89101E-001	2.81402E-004	0.00000E+000	2.78335E-004	1.68088E-001	9.89468E-001	3.57800E+000	9	...........
	78	1.05333	9.90331E-001	2.80798E-004	0.00000E+000	2.78083E-004	1.68088E-001	9.90707E-001	3.57800E+000	9	...........
	79	1.06667	9.91562E-001	2.82240E-004	0.00000E+000	2.79858E-004	1.68088E-001	9.91930E-001	3.57800E+000	9	...........
	80	1.08	9.92756E-001	2.81578E-004	0.00000E+000	2.79539E-004	1.68088E-001	9.93124E-001	3.57800E+000	9	...........
	81	1.09333	9.93926E-001	2.81159E-004	0.00000E+000	2.79451E-004	1.68088E-001	9.94317E-001	3.57770E+000	9	...........
	82	1.10667	9.95108E-001	2.81716E-004	0.00000E+000	2.80338E-004	1.68088E-001	9.95474E-001	3.57770E+000	9	...........
	83	1.12	9.96277E-001	2.81262E-004	0.00000E+000	2.80215E-004	1.68088E-001	9.96627E-001	3.57770E+000	9	...........
	84	1.13333	9.97430E-001	2.81233E-004	0.00000E+000	2.80510E-004	1.68088E-001	9.97805E-001	3.57770E+000	9	...........
	85	1.14667	9.98600E-001	2.81186E-004	0.00000E+000	2.80792E-004	1.68088E-001	9.98940E-001	3.57770E+000	9	...........
	86	1.15833	9.99673E-001	2.82067E-004	0.00000E+000	2.81975E-004	1.68088E-001	9.99987E-001	3.57770E+000	9	...........
STARTTIMEOFFSET	QUANT	952.729	Start Time Offset (s)
