EXPLAIN
TAG	PWR800_CHARGE
TITLE	LABEL	PWR Cyclic Charge Discharge (Cell) - Charge Step	Test &Identifier
DATE	LABEL	7-7-2017	Date
TIME	LABEL	16:11:07	Time
NOTES	NOTES	3	&Notes...
	supercap test cell
	2.8mg
	6M KOH
PSTAT	PSTAT	IFC5000-01520	Potentiostat
CAPACITY	QUANT	1.00000E-003	Capacity (A-hr)
CELLTYPE	SELECTOR	1	&Cell Type
WORKINGCONNECTION	SELECTOR	0	&Working Lead
MAXCHARGETIME	VARIABLEANDUNITS	1.00000E+002	s	1.00000E+002	second(s)	Max &Charge Time
CHARGECURRENT	QUANT	2.80000E-004	&Charge Current (A) 
VOLTAGEFINISH	TWOPARAM	F	1.00000E-003	3.60000E+003	&Voltage Finish	 I (A) < 	Max Time(s)
SAMPLETIME	QUANT	1.00000E-002	Sa&mple Period (s)
CHARGESTOPAT1	MULTIPARAM	4	1.00000E+000	Charge Stop At &1	Voltage > Limit	V
CHARGESTOPAT2	MULTIPARAM	0	0.00000E+000	Charge Stop At &2	None	N/A
AESBHCSELECTOR	TOGGLE	F	Save Both Half Cells
IRCOMP	TOGGLE	F	IR &Measure
EOC	QUANT	0	Open Circuit (V)
SEQUENCER	TOGGLE	TRUE	Run as Sequence
PSTATMODEL	IQUANT	53	Pstat Model
PSTATSECTION	LABEL	IFC5000-01520	Pstat Section
PSTATSERIALNO	LABEL	01520	Pstat Serial Number
CTRLMODE	IQUANT	0	Control Mode
ELECTROMETER	IQUANT	1	RE=0 or CS=1
IESTAB	IQUANT	0	I/E Stability
CASPEED	IQUANT	4	Control Amp Speed
CONVENTION	IQUANT	1	Current Convention
ICHRANGE	IQUANT	2	Ich Range
ICHRANGEMODE	TOGGLE	T	Ich Auto Range
ICHOFFSETENABLE	TOGGLE	F	Ich Offset Enable
ICHOFFSET	QUANT	0	Ich Offset (V)
ICHFILTER	IQUANT	1	Ich Filter
VCHRANGE	IQUANT	2	Vch Range
VCHRANGEMODE	TOGGLE	T	Vch Auto Range
VCHOFFSETENABLE	TOGGLE	F	Vch Offset Enable
VCHOFFSET	QUANT	0	Vch Offset (V)
VCHFILTER	IQUANT	1	Vch Filter
IERANGELOWERLIMIT	IQUANT	9	I/E Range Lower Limit
IERANGEMODE	TOGGLE	F	I/E AutoRange
IERANGE	IQUANT	9	I/E Range
ACHSELECT	IQUANT	1	Ach Select
ACHRANGE	IQUANT	2	Ach Range
ACHOFFSETENABLE	TOGGLE	F	Ach Offset Enable
ACHOFFSET	QUANT	0	Ach Offset (V)
ACHFILTER	IQUANT	1	Ach Filter
CABLEID	IQUANT	14	Cable ID
DCCALDATE	LABEL	5-7-2017	DC Calibration Date
ACCALDATE	LABEL	12/3/2015	AC Calibration Date
FRAMEWORKVERSION	QUANT	7.01	Framework Version
INSTRUMENTVERSION	LABEL	4.00	Instrument Version
CURVE	TABLE	68
	Pt	T	Vf	Im	Vu	Pwr	Sig	Ach	Temp	IERange	Over
	#	s	V	A	V	W	V	V	deg C	#	bits
	0	0.013333	6.04541E-001	2.80385E-004	0.00000E+000	1.69505E-004	1.68088E-001	6.04816E-001	3.57930E+000	9	...........
	1	0.026667	6.34560E-001	2.80777E-004	0.00000E+000	1.78170E-004	1.68088E-001	6.34834E-001	3.57930E+000	9	...........
	2	0.04	6.60327E-001	2.81160E-004	0.00000E+000	1.85657E-004	1.68088E-001	6.60574E-001	3.57930E+000	9	...........
	3	0.053333	6.82930E-001	2.80842E-004	0.00000E+000	1.91795E-004	1.68088E-001	6.83179E-001	3.57930E+000	9	...........
	4	0.066667	7.03085E-001	2.80712E-004	0.00000E+000	1.97364E-004	1.68088E-001	7.03350E-001	3.57930E+000	9	...........
	5	0.08	7.21260E-001	2.81268E-004	0.00000E+000	2.02867E-004	1.68088E-001	7.21529E-001	3.57930E+000	9	...........
	6	0.093333	7.37785E-001	2.82205E-004	0.00000E+000	2.08206E-004	1.68088E-001	7.38074E-001	3.57930E+000	9	...........
	7	0.106667	7.52945E-001	2.81740E-004	0.00000E+000	2.12135E-004	1.68088E-001	7.53185E-001	3.57930E+000	9	...........
	8	0.12	7.66825E-001	2.80798E-004	0.00000E+000	2.15323E-004	1.68088E-001	7.67099E-001	3.57930E+000	9	...........
	9	0.133333	7.79638E-001	2.81118E-004	0.00000E+000	2.19170E-004	1.68088E-001	7.79931E-001	3.57930E+000	9	...........
	10	0.146667	7.91503E-001	2.80849E-004	0.00000E+000	2.22293E-004	1.68088E-001	7.91795E-001	3.57930E+000	9	...........
	11	0.16	8.02523E-001	2.81707E-004	0.00000E+000	2.26076E-004	1.68088E-001	8.02822E-001	3.57930E+000	9	...........
	12	0.173333	8.12706E-001	2.81144E-004	0.00000E+000	2.28487E-004	1.68088E-001	8.13031E-001	3.57930E+000	9	...........
	13	0.186667	8.22277E-001	2.80887E-004	0.00000E+000	2.30966E-004	1.68088E-001	8.22620E-001	3.57930E+000	9	...........
	14	0.2	8.31224E-001	2.81478E-004	0.00000E+000	2.33972E-004	1.68088E-001	8.31547E-001	3.57930E+000	9	...........
	15	0.213333	8.39558E-001	2.81372E-004	0.00000E+000	2.36228E-004	1.68088E-001	8.39931E-001	3.57930E+000	9	...........
	16	0.226667	8.47437E-001	2.81025E-004	0.00000E+000	2.38151E-004	1.68088E-001	8.47801E-001	3.57930E+000	9	...........
	17	0.24	8.54790E-001	2.79300E-004	0.00000E+000	2.38743E-004	1.68088E-001	8.55159E-001	3.57930E+000	9	...........
	18	0.253333	8.61739E-001	2.79806E-004	0.00000E+000	2.41120E-004	1.68088E-001	8.62098E-001	3.57930E+000	9	...........
	19	0.266667	8.68290E-001	2.80960E-004	0.00000E+000	2.43954E-004	1.68088E-001	8.68663E-001	3.57930E+000	9	...........
	20	0.28	8.74491E-001	2.80997E-004	0.00000E+000	2.45729E-004	1.68088E-001	8.74858E-001	3.57930E+000	9	...........
	21	0.293333	8.80308E-001	2.80019E-004	0.00000E+000	2.46503E-004	1.68088E-001	8.80687E-001	3.57930E+000	9	...........
	22	0.306667	8.85863E-001	2.81303E-004	0.00000E+000	2.49196E-004	1.68088E-001	8.86187E-001	3.57930E+000	9	...........
	23	0.32	8.91071E-001	2.81032E-004	0.00000E+000	2.50420E-004	1.68088E-001	8.91424E-001	3.57930E+000	9	...........
	24	0.333333	8.96019E-001	2.80888E-004	0.00000E+000	2.51681E-004	1.68088E-001	8.96383E-001	3.57930E+000	9	...........
	25	0.346667	9.00717E-001	2.80246E-004	0.00000E+000	2.52422E-004	1.68088E-001	9.01067E-001	3.57930E+000	9	...........
	26	0.36	9.05185E-001	2.80392E-004	0.00000E+000	2.53806E-004	1.68088E-001	9.05538E-001	3.57930E+000	9	...........
	27	0.373333	9.09476E-001	2.81479E-004	0.00000E+000	2.55999E-004	1.68088E-001	9.09808E-001	3.57930E+000	9	...........
	28	0.386667	9.13555E-001	2.79998E-004	0.00000E+000	2.55794E-004	1.68088E-001	9.13904E-001	3.57930E+000	9	...........
	29	0.4	9.17428E-001	2.83288E-004	0.00000E+000	2.59897E-004	1.68088E-001	9.17794E-001	3.57930E+000	9	...........
	30	0.413333	9.21178E-001	2.80713E-004	0.00000E+000	2.58586E-004	1.68088E-001	9.21488E-001	3.57930E+000	9	...........
	31	0.426667	9.24771E-001	2.82570E-004	0.00000E+000	2.61313E-004	1.68088E-001	9.25098E-001	3.57930E+000	9	...........
	32	0.44	9.28181E-001	2.79739E-004	0.00000E+000	2.59649E-004	1.68088E-001	9.28508E-001	3.57820E+000	9	...........
	33	0.453333	9.31454E-001	2.82342E-004	0.00000E+000	2.62989E-004	1.68088E-001	9.31779E-001	3.57820E+000	9	...........
	34	0.466667	9.34606E-001	2.80529E-004	0.00000E+000	2.62184E-004	1.68088E-001	9.34948E-001	3.57820E+000	9	...........
	35	0.48	9.37651E-001	2.79899E-004	0.00000E+000	2.62447E-004	1.68088E-001	9.37986E-001	3.57820E+000	9	...........
	36	0.493333	9.40615E-001	2.81201E-004	0.00000E+000	2.64502E-004	1.68088E-001	9.40951E-001	3.57820E+000	9	...........
	37	0.506667	9.43443E-001	2.80947E-004	0.00000E+000	2.65057E-004	1.68088E-001	9.43804E-001	3.57820E+000	9	...........
	38	0.52	9.46225E-001	2.80986E-004	0.00000E+000	2.65876E-004	1.68088E-001	9.46569E-001	3.57820E+000	9	...........
	39	0.533333	9.48876E-001	2.80609E-004	0.00000E+000	2.66264E-004	1.68088E-001	9.49223E-001	3.57820E+000	9	...........
	40	0.546667	9.51414E-001	2.81413E-004	0.00000E+000	2.67740E-004	1.68088E-001	9.51758E-001	3.57820E+000	9	...........
	41	0.56	9.53910E-001	2.81042E-004	0.00000E+000	2.68089E-004	1.68088E-001	9.54266E-001	3.57820E+000	9	...........
	42	0.573333	9.56304E-001	2.81257E-004	0.00000E+000	2.68967E-004	1.68088E-001	9.56630E-001	3.57820E+000	9	...........
	43	0.586667	9.58587E-001	2.80643E-004	0.00000E+000	2.69021E-004	1.68088E-001	9.58950E-001	3.57820E+000	9	...........
	44	0.6	9.60869E-001	2.81117E-004	0.00000E+000	2.70116E-004	1.68088E-001	9.61215E-001	3.57820E+000	9	...........
	45	0.613333	9.63065E-001	2.80564E-004	0.00000E+000	2.70201E-004	1.68088E-001	9.63426E-001	3.57820E+000	9	...........
	46	0.626667	9.65236E-001	2.80180E-004	0.00000E+000	2.70440E-004	1.68088E-001	9.65586E-001	3.57820E+000	9	...........
	47	0.64	9.67329E-001	2.81801E-004	0.00000E+000	2.72595E-004	1.68088E-001	9.67670E-001	3.57820E+000	9	...........
	48	0.653333	9.69328E-001	2.81041E-004	0.00000E+000	2.72421E-004	1.68088E-001	9.69673E-001	3.57820E+000	9	...........
	49	0.666667	9.71277E-001	2.81426E-004	0.00000E+000	2.73343E-004	1.68088E-001	9.71663E-001	3.57820E+000	9	...........
	50	0.68	9.73289E-001	2.80856E-004	0.00000E+000	2.73354E-004	1.68088E-001	9.73624E-001	3.57820E+000	9	...........
	51	0.693333	9.75183E-001	2.81210E-004	0.00000E+000	2.74231E-004	1.68088E-001	9.75538E-001	3.57820E+000	9	...........
	52	0.706667	9.77029E-001	2.81352E-004	0.00000E+000	2.74889E-004	1.68088E-001	9.77400E-001	3.57820E+000	9	...........
	53	0.72	9.78841E-001	2.80674E-004	0.00000E+000	2.74735E-004	1.68088E-001	9.79201E-001	3.57820E+000	9	...........
	54	0.733333	9.80599E-001	2.81187E-004	0.00000E+000	2.75731E-004	1.68088E-001	9.80978E-001	3.57820E+000	9	...........
	55	0.746667	9.82343E-001	2.80692E-004	0.00000E+000	2.75736E-004	1.68088E-001	9.82690E-001	3.57820E+000	9	...........
	56	0.76	9.84061E-001	2.83149E-004	0.00000E+000	2.78636E-004	1.68088E-001	9.84440E-001	3.57820E+000	9	...........
	57	0.773333	9.85748E-001	2.81602E-004	0.00000E+000	2.77589E-004	1.68088E-001	9.86129E-001	3.57820E+000	9	...........
	58	0.786667	9.87376E-001	2.81437E-004	0.00000E+000	2.77884E-004	1.68088E-001	9.87752E-001	3.57820E+000	9	...........
	59	0.8	9.88976E-001	2.80633E-004	0.00000E+000	2.77540E-004	1.68088E-001	9.89352E-001	3.57820E+000	9	...........
	60	0.813333	9.90544E-001	2.80791E-004	0.00000E+000	2.78136E-004	1.68088E-001	9.90901E-001	3.57820E+000	9	...........
	61	0.826667	9.92087E-001	2.81501E-004	0.00000E+000	2.79274E-004	1.68088E-001	9.92462E-001	3.57820E+000	9	...........
	62	0.84	9.93590E-001	2.81244E-004	0.00000E+000	2.79441E-004	1.68088E-001	9.93966E-001	3.57820E+000	9	...........
	63	0.853333	9.95068E-001	2.80102E-004	0.00000E+000	2.78721E-004	1.68088E-001	9.95429E-001	3.57820E+000	9	...........
	64	0.866667	9.96516E-001	2.80445E-004	0.00000E+000	2.79468E-004	1.68088E-001	9.96895E-001	3.57820E+000	9	...........
	65	0.88	9.97974E-001	2.81279E-004	0.00000E+000	2.80710E-004	1.68088E-001	9.98342E-001	3.57820E+000	9	...........
	66	0.893333	9.99392E-001	2.80993E-004	0.00000E+000	2.80822E-004	1.68088E-001	9.99749E-001	3.57820E+000	9	...........
	67	0.895	1.00022E+000	2.83928E-004	0.00000E+000	2.83989E-004	1.68088E-001	1.00054E+000	3.57820E+000	9	...........
STARTTIMEOFFSET	QUANT	1568.541	Start Time Offset (s)
