EXPLAIN
TAG	PWR800_CHARGE
TITLE	LABEL	PWR Cyclic Charge Discharge (Cell) - Charge Step	Test &Identifier
DATE	LABEL	7-7-2017	Date
TIME	LABEL	15:40:55	Time
NOTES	NOTES	3	&Notes...
	supercap test cell
	2.8mg
	6M KOH
PSTAT	PSTAT	IFC5000-01520	Potentiostat
CAPACITY	QUANT	1.00000E-003	Capacity (A-hr)
CELLTYPE	SELECTOR	1	&Cell Type
WORKINGCONNECTION	SELECTOR	0	&Working Lead
MAXCHARGETIME	VARIABLEANDUNITS	1.00000E+002	s	1.00000E+002	second(s)	Max &Charge Time
CHARGECURRENT	QUANT	2.80000E-004	&Charge Current (A) 
VOLTAGEFINISH	TWOPARAM	F	1.00000E-003	3.60000E+003	&Voltage Finish	 I (A) < 	Max Time(s)
SAMPLETIME	QUANT	1.00000E-002	Sa&mple Period (s)
CHARGESTOPAT1	MULTIPARAM	4	1.00000E+000	Charge Stop At &1	Voltage > Limit	V
CHARGESTOPAT2	MULTIPARAM	0	0.00000E+000	Charge Stop At &2	None	N/A
AESBHCSELECTOR	TOGGLE	F	Save Both Half Cells
IRCOMP	TOGGLE	F	IR &Measure
EOC	QUANT	0	Open Circuit (V)
SEQUENCER	TOGGLE	TRUE	Run as Sequence
PSTATMODEL	IQUANT	53	Pstat Model
PSTATSECTION	LABEL	IFC5000-01520	Pstat Section
PSTATSERIALNO	LABEL	01520	Pstat Serial Number
CTRLMODE	IQUANT	0	Control Mode
ELECTROMETER	IQUANT	1	RE=0 or CS=1
IESTAB	IQUANT	0	I/E Stability
CASPEED	IQUANT	4	Control Amp Speed
CONVENTION	IQUANT	1	Current Convention
ICHRANGE	IQUANT	2	Ich Range
ICHRANGEMODE	TOGGLE	T	Ich Auto Range
ICHOFFSETENABLE	TOGGLE	F	Ich Offset Enable
ICHOFFSET	QUANT	0	Ich Offset (V)
ICHFILTER	IQUANT	1	Ich Filter
VCHRANGE	IQUANT	2	Vch Range
VCHRANGEMODE	TOGGLE	T	Vch Auto Range
VCHOFFSETENABLE	TOGGLE	F	Vch Offset Enable
VCHOFFSET	QUANT	0	Vch Offset (V)
VCHFILTER	IQUANT	1	Vch Filter
IERANGELOWERLIMIT	IQUANT	9	I/E Range Lower Limit
IERANGEMODE	TOGGLE	F	I/E AutoRange
IERANGE	IQUANT	9	I/E Range
ACHSELECT	IQUANT	1	Ach Select
ACHRANGE	IQUANT	2	Ach Range
ACHOFFSETENABLE	TOGGLE	F	Ach Offset Enable
ACHOFFSET	QUANT	0	Ach Offset (V)
ACHFILTER	IQUANT	1	Ach Filter
CABLEID	IQUANT	14	Cable ID
DCCALDATE	LABEL	5-7-2017	DC Calibration Date
ACCALDATE	LABEL	12/3/2015	AC Calibration Date
FRAMEWORKVERSION	QUANT	7.01	Framework Version
INSTRUMENTVERSION	LABEL	4.00	Instrument Version
CURVE	TABLE	154
	Pt	T	Vf	Im	Vu	Pwr	Sig	Ach	Temp	IERange	Over
	#	s	V	A	V	W	V	V	deg C	#	bits
	0	0.013333	5.63627E-001	2.80105E-004	0.00000E+000	1.57875E-004	1.68088E-001	5.63906E-001	3.57840E+000	9	...........
	1	0.026667	5.91444E-001	2.81447E-004	0.00000E+000	1.66460E-004	1.68088E-001	5.91738E-001	3.57840E+000	9	...........
	2	0.04	6.14616E-001	2.81558E-004	0.00000E+000	1.73050E-004	1.68088E-001	6.14891E-001	3.57840E+000	9	...........
	3	0.053333	6.34426E-001	2.81374E-004	0.00000E+000	1.78511E-004	1.68088E-001	6.34682E-001	3.57840E+000	9	...........
	4	0.066667	6.51701E-001	2.81039E-004	0.00000E+000	1.83153E-004	1.68088E-001	6.51943E-001	3.57840E+000	9	...........
	5	0.08	6.66944E-001	2.81482E-004	0.00000E+000	1.87732E-004	1.68088E-001	6.67218E-001	3.57840E+000	9	...........
	6	0.093333	6.80590E-001	2.80832E-004	0.00000E+000	1.91132E-004	1.68088E-001	6.80854E-001	3.57840E+000	9	...........
	7	0.106667	6.92910E-001	2.81082E-004	0.00000E+000	1.94765E-004	1.68088E-001	6.93214E-001	3.57840E+000	9	...........
	8	0.12	7.04118E-001	2.81618E-004	0.00000E+000	1.98292E-004	1.68088E-001	7.04409E-001	3.57840E+000	9	...........
	9	0.133333	7.14368E-001	2.80658E-004	0.00000E+000	2.00493E-004	1.68088E-001	7.14678E-001	3.57840E+000	9	...........
	10	0.146667	7.23880E-001	2.80891E-004	0.00000E+000	2.03331E-004	1.68088E-001	7.24144E-001	3.57840E+000	9	...........
	11	0.16	7.32620E-001	2.80969E-004	0.00000E+000	2.05843E-004	1.68088E-001	7.32916E-001	3.57840E+000	9	...........
	12	0.173333	7.40770E-001	2.80869E-004	0.00000E+000	2.08059E-004	1.68088E-001	7.41041E-001	3.57840E+000	9	...........
	13	0.186667	7.48344E-001	2.81400E-004	0.00000E+000	2.10584E-004	1.68088E-001	7.48643E-001	3.57840E+000	9	...........
	14	0.2	7.55453E-001	2.80907E-004	0.00000E+000	2.12212E-004	1.68088E-001	7.55737E-001	3.57840E+000	9	...........
	15	0.213333	7.62123E-001	2.80423E-004	0.00000E+000	2.13717E-004	1.68088E-001	7.62415E-001	3.57840E+000	9	...........
	16	0.226667	7.68414E-001	2.81982E-004	0.00000E+000	2.16679E-004	1.68088E-001	7.68741E-001	3.57840E+000	9	...........
	17	0.24	7.74353E-001	2.81589E-004	0.00000E+000	2.18049E-004	1.68088E-001	7.74644E-001	3.57840E+000	9	...........
	18	0.253333	7.79953E-001	2.82244E-004	0.00000E+000	2.20137E-004	1.68088E-001	7.80245E-001	3.57840E+000	9	...........
	19	0.266667	7.85230E-001	2.80741E-004	0.00000E+000	2.20446E-004	1.68088E-001	7.85552E-001	3.57840E+000	9	...........
	20	0.28	7.90310E-001	2.81138E-004	0.00000E+000	2.22186E-004	1.68088E-001	7.90641E-001	3.57840E+000	9	...........
	21	0.293333	7.95209E-001	2.80871E-004	0.00000E+000	2.23351E-004	1.68088E-001	7.95466E-001	3.57840E+000	9	...........
	22	0.306667	7.99817E-001	2.80745E-004	0.00000E+000	2.24545E-004	1.68088E-001	8.00103E-001	3.57840E+000	9	...........
	23	0.32	8.04214E-001	2.81208E-004	0.00000E+000	2.26151E-004	1.68088E-001	8.04501E-001	3.57840E+000	9	...........
	24	0.333333	8.08395E-001	2.80910E-004	0.00000E+000	2.27086E-004	1.68088E-001	8.08690E-001	3.57840E+000	9	...........
	25	0.346667	8.12414E-001	2.81430E-004	0.00000E+000	2.28638E-004	1.68088E-001	8.12703E-001	3.57845E+000	9	...........
	26	0.36	8.16272E-001	2.80276E-004	0.00000E+000	2.28781E-004	1.68088E-001	8.16583E-001	3.57880E+000	9	...........
	27	0.373333	8.20038E-001	2.80601E-004	0.00000E+000	2.30104E-004	1.68088E-001	8.20367E-001	3.57880E+000	9	...........
	28	0.386667	8.23640E-001	2.81825E-004	0.00000E+000	2.32123E-004	1.68088E-001	8.23977E-001	3.57880E+000	9	...........
	29	0.4	8.27107E-001	2.81389E-004	0.00000E+000	2.32739E-004	1.68088E-001	8.27436E-001	3.57880E+000	9	...........
	30	0.413333	8.30477E-001	2.81158E-004	0.00000E+000	2.33495E-004	1.68088E-001	8.30816E-001	3.57880E+000	9	...........
	31	0.426667	8.33693E-001	2.81725E-004	0.00000E+000	2.34873E-004	1.68088E-001	8.34063E-001	3.57880E+000	9	...........
	32	0.44	8.36859E-001	2.81227E-004	0.00000E+000	2.35348E-004	1.68088E-001	8.37222E-001	3.57880E+000	9	...........
	33	0.453333	8.39897E-001	2.81249E-004	0.00000E+000	2.36220E-004	1.68088E-001	8.40218E-001	3.57880E+000	9	...........
	34	0.466667	8.42832E-001	2.81113E-004	0.00000E+000	2.36931E-004	1.68088E-001	8.43199E-001	3.57880E+000	9	...........
	35	0.48	8.45718E-001	2.81366E-004	0.00000E+000	2.37956E-004	1.68088E-001	8.46043E-001	3.57880E+000	9	...........
	36	0.493333	8.48489E-001	2.81787E-004	0.00000E+000	2.39093E-004	1.68088E-001	8.48834E-001	3.57880E+000	9	...........
	37	0.506667	8.51206E-001	2.81227E-004	0.00000E+000	2.39382E-004	1.68088E-001	8.51512E-001	3.57880E+000	9	...........
	38	0.52	8.53836E-001	2.81359E-004	0.00000E+000	2.40234E-004	1.68088E-001	8.54171E-001	3.57880E+000	9	...........
	39	0.533333	8.56378E-001	2.81343E-004	0.00000E+000	2.40936E-004	1.68088E-001	8.56743E-001	3.57880E+000	9	...........
	40	0.546667	8.58896E-001	2.81349E-004	0.00000E+000	2.41650E-004	1.68088E-001	8.59243E-001	3.57880E+000	9	...........
	41	0.56	8.61335E-001	2.80960E-004	0.00000E+000	2.42000E-004	1.68088E-001	8.61668E-001	3.57880E+000	9	...........
	42	0.573333	8.63719E-001	2.81297E-004	0.00000E+000	2.42962E-004	1.68088E-001	8.64067E-001	3.57880E+000	9	...........
	43	0.586667	8.66064E-001	2.81442E-004	0.00000E+000	2.43747E-004	1.68088E-001	8.66424E-001	3.57880E+000	9	...........
	44	0.6	8.68376E-001	2.80971E-004	0.00000E+000	2.43989E-004	1.68088E-001	8.68768E-001	3.57880E+000	9	...........
	45	0.613333	8.70631E-001	2.81941E-004	0.00000E+000	2.45467E-004	1.68088E-001	8.70987E-001	3.57880E+000	9	...........
	46	0.626667	8.72768E-001	2.81088E-004	0.00000E+000	2.45324E-004	1.68088E-001	8.73146E-001	3.57880E+000	9	...........
	47	0.64	8.74860E-001	2.81332E-004	0.00000E+000	2.46126E-004	1.68088E-001	8.75241E-001	3.57880E+000	9	...........
	48	0.653333	8.76928E-001	2.80479E-004	0.00000E+000	2.45960E-004	1.68088E-001	8.77296E-001	3.57880E+000	9	...........
	49	0.666667	8.78949E-001	2.81151E-004	0.00000E+000	2.47118E-004	1.68088E-001	8.79336E-001	3.57880E+000	9	...........
	50	0.68	8.80973E-001	2.81391E-004	0.00000E+000	2.47898E-004	1.68088E-001	8.81339E-001	3.57880E+000	9	...........
	51	0.693333	8.82974E-001	2.81435E-004	0.00000E+000	2.48499E-004	1.68088E-001	8.83314E-001	3.57880E+000	9	...........
	52	0.706667	8.84917E-001	2.81178E-004	0.00000E+000	2.48820E-004	1.68088E-001	8.85267E-001	3.57880E+000	9	...........
	53	0.72	8.86813E-001	2.80998E-004	0.00000E+000	2.49193E-004	1.68088E-001	8.87176E-001	3.57880E+000	9	...........
	54	0.733333	8.88676E-001	2.81446E-004	0.00000E+000	2.50114E-004	1.68088E-001	8.89037E-001	3.57880E+000	9	...........
	55	0.746667	8.90514E-001	2.80887E-004	0.00000E+000	2.50134E-004	1.68088E-001	8.90842E-001	3.57880E+000	9	...........
	56	0.76	8.92339E-001	2.80971E-004	0.00000E+000	2.50721E-004	1.68088E-001	8.92636E-001	3.57880E+000	9	...........
	57	0.773333	8.94072E-001	2.81249E-004	0.00000E+000	2.51457E-004	1.68088E-001	8.94380E-001	3.57880E+000	9	...........
	58	0.786667	8.95806E-001	2.81972E-004	0.00000E+000	2.52593E-004	1.68088E-001	8.96120E-001	3.57880E+000	9	...........
	59	0.8	8.97529E-001	2.80406E-004	0.00000E+000	2.51673E-004	1.68088E-001	8.97848E-001	3.57880E+000	9	...........
	60	0.813333	8.99253E-001	2.81613E-004	0.00000E+000	2.53241E-004	1.68088E-001	8.99585E-001	3.57880E+000	9	...........
	61	0.826667	9.00912E-001	2.81169E-004	0.00000E+000	2.53308E-004	1.68088E-001	9.01267E-001	3.57880E+000	9	...........
	62	0.84	9.02547E-001	2.80808E-004	0.00000E+000	2.53443E-004	1.68088E-001	9.02910E-001	3.57880E+000	9	...........
	63	0.853333	9.04178E-001	2.80857E-004	0.00000E+000	2.53945E-004	1.68088E-001	9.04534E-001	3.57880E+000	9	...........
	64	0.866667	9.05781E-001	2.81086E-004	0.00000E+000	2.54602E-004	1.68088E-001	9.06143E-001	3.57880E+000	9	...........
	65	0.88	9.07393E-001	2.81227E-004	0.00000E+000	2.55184E-004	1.68088E-001	9.07763E-001	3.57880E+000	9	...........
	66	0.893333	9.08967E-001	2.80542E-004	0.00000E+000	2.55003E-004	1.68088E-001	9.09302E-001	3.57880E+000	9	...........
	67	0.906667	9.10523E-001	2.81362E-004	0.00000E+000	2.56186E-004	1.68088E-001	9.10864E-001	3.57880E+000	9	...........
	68	0.92	9.12059E-001	2.81342E-004	0.00000E+000	2.56600E-004	1.68088E-001	9.12393E-001	3.57880E+000	9	...........
	69	0.933333	9.13565E-001	2.81318E-004	0.00000E+000	2.57002E-004	1.68088E-001	9.13912E-001	3.57880E+000	9	...........
	70	0.946667	9.15045E-001	2.81325E-004	0.00000E+000	2.57425E-004	1.68088E-001	9.15422E-001	3.57880E+000	9	...........
	71	0.96	9.16520E-001	2.81259E-004	0.00000E+000	2.57779E-004	1.68088E-001	9.16895E-001	3.57880E+000	9	...........
	72	0.97333	9.17909E-001	2.81009E-004	0.00000E+000	2.57940E-004	1.68088E-001	9.18290E-001	3.57880E+000	9	...........
	73	0.98667	9.19294E-001	2.80898E-004	0.00000E+000	2.58228E-004	1.68088E-001	9.19680E-001	3.57880E+000	9	...........
	74	1	9.20760E-001	2.81659E-004	0.00000E+000	2.59340E-004	1.68088E-001	9.21112E-001	3.57880E+000	9	...........
	75	1.01333	9.22160E-001	2.81253E-004	0.00000E+000	2.59361E-004	1.68088E-001	9.22487E-001	3.57880E+000	9	...........
	76	1.02667	9.23534E-001	2.80979E-004	0.00000E+000	2.59494E-004	1.68088E-001	9.23858E-001	3.57880E+000	9	...........
	77	1.04	9.24893E-001	2.81127E-004	0.00000E+000	2.60013E-004	1.68088E-001	9.25227E-001	3.57880E+000	9	...........
	78	1.05333	9.26231E-001	2.81234E-004	0.00000E+000	2.60487E-004	1.68088E-001	9.26584E-001	3.57880E+000	9	...........
	79	1.06667	9.27585E-001	2.81328E-004	0.00000E+000	2.60956E-004	1.68088E-001	9.27935E-001	3.57880E+000	9	...........
	80	1.08	9.28906E-001	2.81165E-004	0.00000E+000	2.61176E-004	1.68088E-001	9.29235E-001	3.57880E+000	9	...........
	81	1.09333	9.30170E-001	2.82212E-004	0.00000E+000	2.62505E-004	1.68088E-001	9.30509E-001	3.57880E+000	9	...........
	82	1.10667	9.31444E-001	2.80868E-004	0.00000E+000	2.61613E-004	1.68088E-001	9.31780E-001	3.57880E+000	9	...........
	83	1.12	9.32730E-001	2.80350E-004	0.00000E+000	2.61491E-004	1.68088E-001	9.33084E-001	3.57880E+000	9	...........
	84	1.13333	9.34005E-001	2.81091E-004	0.00000E+000	2.62540E-004	1.68088E-001	9.34344E-001	3.57880E+000	9	...........
	85	1.14667	9.35253E-001	2.80946E-004	0.00000E+000	2.62756E-004	1.68088E-001	9.35629E-001	3.57880E+000	9	...........
	86	1.16	9.36521E-001	2.80605E-004	0.00000E+000	2.62793E-004	1.68088E-001	9.36894E-001	3.57880E+000	9	...........
	87	1.17333	9.37727E-001	2.80907E-004	0.00000E+000	2.63414E-004	1.68088E-001	9.38099E-001	3.57880E+000	9	...........
	88	1.18667	9.38942E-001	2.80756E-004	0.00000E+000	2.63614E-004	1.68088E-001	9.39321E-001	3.57880E+000	9	...........
	89	1.2	9.40123E-001	2.81793E-004	0.00000E+000	2.64920E-004	1.68088E-001	9.40493E-001	3.57880E+000	9	...........
	90	1.21333	9.41297E-001	2.81551E-004	0.00000E+000	2.65023E-004	1.68088E-001	9.41666E-001	3.57880E+000	9	...........
	91	1.22667	9.42457E-001	2.80212E-004	0.00000E+000	2.64087E-004	1.68088E-001	9.42863E-001	3.57880E+000	9	...........
	92	1.24	9.43660E-001	2.80777E-004	0.00000E+000	2.64958E-004	1.68088E-001	9.44038E-001	3.57880E+000	9	...........
	93	1.25333	9.44858E-001	2.81177E-004	0.00000E+000	2.65673E-004	1.68088E-001	9.45239E-001	3.57880E+000	9	...........
	94	1.26667	9.46054E-001	2.80299E-004	0.00000E+000	2.65178E-004	1.68088E-001	9.46451E-001	3.57880E+000	9	...........
	95	1.28	9.47277E-001	2.81021E-004	0.00000E+000	2.66205E-004	1.68088E-001	9.47645E-001	3.57880E+000	9	...........
	96	1.29333	9.48418E-001	2.80951E-004	0.00000E+000	2.66459E-004	1.68088E-001	9.48786E-001	3.57880E+000	9	...........
	97	1.30667	9.49566E-001	2.80876E-004	0.00000E+000	2.66711E-004	1.68088E-001	9.49903E-001	3.57880E+000	9	...........
	98	1.32	9.50668E-001	2.80616E-004	0.00000E+000	2.66772E-004	1.68088E-001	9.51025E-001	3.57880E+000	9	...........
	99	1.33333	9.51787E-001	2.81603E-004	0.00000E+000	2.68026E-004	1.68088E-001	9.52135E-001	3.57880E+000	9	...........
	100	1.34667	9.52864E-001	2.81600E-004	0.00000E+000	2.68327E-004	1.68088E-001	9.53201E-001	3.57871E+000	9	...........
	101	1.36	9.53954E-001	2.80371E-004	0.00000E+000	2.67461E-004	1.68088E-001	9.54265E-001	3.57810E+000	9	...........
	102	1.37333	9.55031E-001	2.82450E-004	0.00000E+000	2.69749E-004	1.68088E-001	9.55364E-001	3.57810E+000	9	...........
	103	1.38667	9.56097E-001	2.80823E-004	0.00000E+000	2.68494E-004	1.68088E-001	9.56454E-001	3.57810E+000	9	...........
	104	1.4	9.57111E-001	2.80846E-004	0.00000E+000	2.68801E-004	1.68088E-001	9.57468E-001	3.57810E+000	9	...........
	105	1.41333	9.58146E-001	2.80914E-004	0.00000E+000	2.69156E-004	1.68088E-001	9.58515E-001	3.57810E+000	9	...........
	106	1.42667	9.59201E-001	2.80922E-004	0.00000E+000	2.69461E-004	1.68088E-001	9.59588E-001	3.57810E+000	9	...........
	107	1.44	9.60251E-001	2.81312E-004	0.00000E+000	2.70130E-004	1.68088E-001	9.60629E-001	3.57810E+000	9	...........
	108	1.45333	9.61258E-001	2.81046E-004	0.00000E+000	2.70158E-004	1.68088E-001	9.61674E-001	3.57810E+000	9	...........
	109	1.46667	9.62273E-001	2.81391E-004	0.00000E+000	2.70775E-004	1.68088E-001	9.62671E-001	3.57810E+000	9	...........
	110	1.48	9.63291E-001	2.81677E-004	0.00000E+000	2.71337E-004	1.68088E-001	9.63679E-001	3.57810E+000	9	...........
	111	1.49333	9.64267E-001	2.81172E-004	0.00000E+000	2.71125E-004	1.68088E-001	9.64666E-001	3.57810E+000	9	...........
	112	1.50667	9.65216E-001	2.81567E-004	0.00000E+000	2.71773E-004	1.68088E-001	9.65630E-001	3.57810E+000	9	...........
	113	1.52	9.66284E-001	2.81501E-004	0.00000E+000	2.72010E-004	1.68088E-001	9.66664E-001	3.57810E+000	9	...........
	114	1.53333	9.67255E-001	2.80840E-004	0.00000E+000	2.71644E-004	1.68088E-001	9.67653E-001	3.57810E+000	9	...........
	115	1.54667	9.68268E-001	2.81319E-004	0.00000E+000	2.72392E-004	1.68088E-001	9.68675E-001	3.57810E+000	9	...........
	116	1.56	9.69291E-001	2.82341E-004	0.00000E+000	2.73671E-004	1.68088E-001	9.69683E-001	3.57810E+000	9	...........
	117	1.57333	9.70266E-001	2.81070E-004	0.00000E+000	2.72713E-004	1.68088E-001	9.70684E-001	3.57810E+000	9	...........
	118	1.58667	9.71204E-001	2.80269E-004	0.00000E+000	2.72198E-004	1.68088E-001	9.71646E-001	3.57810E+000	9	...........
	119	1.6	9.72202E-001	2.81089E-004	0.00000E+000	2.73275E-004	1.68088E-001	9.72609E-001	3.57810E+000	9	...........
	120	1.61333	9.73179E-001	2.80750E-004	0.00000E+000	2.73220E-004	1.68088E-001	9.73553E-001	3.57810E+000	9	...........
	121	1.62667	9.74103E-001	2.81100E-004	0.00000E+000	2.73820E-004	1.68088E-001	9.74490E-001	3.57810E+000	9	...........
	122	1.64	9.75021E-001	2.80943E-004	0.00000E+000	2.73925E-004	1.68088E-001	9.75418E-001	3.57810E+000	9	...........
	123	1.65333	9.75918E-001	2.81209E-004	0.00000E+000	2.74437E-004	1.68088E-001	9.76288E-001	3.57810E+000	9	...........
	124	1.66667	9.76794E-001	2.81233E-004	0.00000E+000	2.74706E-004	1.68088E-001	9.77180E-001	3.57810E+000	9	...........
	125	1.68	9.77713E-001	2.80620E-004	0.00000E+000	2.74366E-004	1.68088E-001	9.78091E-001	3.57810E+000	9	...........
	126	1.69333	9.78549E-001	2.81136E-004	0.00000E+000	2.75105E-004	1.68088E-001	9.78938E-001	3.57810E+000	9	...........
	127	1.70667	9.79418E-001	2.81098E-004	0.00000E+000	2.75313E-004	1.68088E-001	9.79763E-001	3.57810E+000	9	...........
	128	1.72	9.80236E-001	2.82334E-004	0.00000E+000	2.76754E-004	1.68088E-001	9.80614E-001	3.57810E+000	9	...........
	129	1.73333	9.81085E-001	2.80992E-004	0.00000E+000	2.75677E-004	1.68088E-001	9.81471E-001	3.57810E+000	9	...........
	130	1.74667	9.81959E-001	2.80961E-004	0.00000E+000	2.75892E-004	1.68088E-001	9.82336E-001	3.57810E+000	9	...........
	131	1.76	9.82816E-001	2.80791E-004	0.00000E+000	2.75966E-004	1.68088E-001	9.83199E-001	3.57810E+000	9	...........
	132	1.77333	9.83660E-001	2.81270E-004	0.00000E+000	2.76674E-004	1.68088E-001	9.84041E-001	3.57810E+000	9	...........
	133	1.78667	9.84464E-001	2.81073E-004	0.00000E+000	2.76706E-004	1.68088E-001	9.84875E-001	3.57810E+000	9	...........
	134	1.8	9.85289E-001	2.81102E-004	0.00000E+000	2.76967E-004	1.68088E-001	9.85714E-001	3.57810E+000	9	...........
	135	1.81333	9.86145E-001	2.81500E-004	0.00000E+000	2.77600E-004	1.68088E-001	9.86550E-001	3.57810E+000	9	...........
	136	1.82667	9.86984E-001	2.81067E-004	0.00000E+000	2.77408E-004	1.68088E-001	9.87384E-001	3.57810E+000	9	...........
	137	1.84	9.87777E-001	2.80985E-004	0.00000E+000	2.77550E-004	1.68088E-001	9.88192E-001	3.57810E+000	9	...........
	138	1.85333	9.88634E-001	2.80492E-004	0.00000E+000	2.77304E-004	1.68088E-001	9.89016E-001	3.57810E+000	9	...........
	139	1.86667	9.89446E-001	2.81920E-004	0.00000E+000	2.78945E-004	1.68088E-001	9.89841E-001	3.57810E+000	9	...........
	140	1.88	9.90296E-001	2.81329E-004	0.00000E+000	2.78599E-004	1.68088E-001	9.90670E-001	3.57810E+000	9	...........
	141	1.89333	9.91064E-001	2.80893E-004	0.00000E+000	2.78383E-004	1.68088E-001	9.91449E-001	3.57810E+000	9	...........
	142	1.90667	9.91834E-001	2.80910E-004	0.00000E+000	2.78616E-004	1.68088E-001	9.92221E-001	3.57810E+000	9	...........
	143	1.92	9.92652E-001	2.80989E-004	0.00000E+000	2.78924E-004	1.68088E-001	9.93021E-001	3.57810E+000	9	...........
	144	1.93333	9.93471E-001	2.80965E-004	0.00000E+000	2.79130E-004	1.68088E-001	9.93825E-001	3.57810E+000	9	...........
	145	1.94667	9.94268E-001	2.81564E-004	0.00000E+000	2.79950E-004	1.68088E-001	9.94642E-001	3.57810E+000	9	...........
	146	1.96	9.95077E-001	2.81647E-004	0.00000E+000	2.80261E-004	1.68088E-001	9.95451E-001	3.57810E+000	9	...........
	147	1.97333	9.95889E-001	2.81535E-004	0.00000E+000	2.80377E-004	1.68088E-001	9.96256E-001	3.57810E+000	9	...........
	148	1.98667	9.96667E-001	2.81060E-004	0.00000E+000	2.80123E-004	1.68088E-001	9.97035E-001	3.57810E+000	9	...........
	149	2	9.97428E-001	2.81363E-004	0.00000E+000	2.80639E-004	1.68088E-001	9.97822E-001	3.57810E+000	9	...........
	150	2.01333	9.98190E-001	2.81681E-004	0.00000E+000	2.81171E-004	1.68088E-001	9.98561E-001	3.57810E+000	9	...........
	151	2.02667	9.98927E-001	2.80900E-004	0.00000E+000	2.80599E-004	1.68088E-001	9.99321E-001	3.57810E+000	9	...........
	152	2.04	9.99657E-001	2.80712E-004	0.00000E+000	2.80615E-004	1.68088E-001	1.00003E+000	3.57810E+000	9	...........
	153	2.04167	1.00007E+000	2.81286E-004	0.00000E+000	2.81304E-004	1.68088E-001	1.00046E+000	3.57810E+000	9	...........
STARTTIMEOFFSET	QUANT	246.8733	Start Time Offset (s)
