EXPLAIN
TAG	PWR800_CHARGE
TITLE	LABEL	PWR Cyclic Charge Discharge (Cell) - Charge Step	Test &Identifier
DATE	LABEL	7-7-2017	Date
TIME	LABEL	16:16:49	Time
NOTES	NOTES	3	&Notes...
	supercap test cell
	2.8mg
	6M KOH
PSTAT	PSTAT	IFC5000-01520	Potentiostat
CAPACITY	QUANT	1.00000E-003	Capacity (A-hr)
CELLTYPE	SELECTOR	1	&Cell Type
WORKINGCONNECTION	SELECTOR	0	&Working Lead
MAXCHARGETIME	VARIABLEANDUNITS	1.00000E+002	s	1.00000E+002	second(s)	Max &Charge Time
CHARGECURRENT	QUANT	2.80000E-004	&Charge Current (A) 
VOLTAGEFINISH	TWOPARAM	F	1.00000E-003	3.60000E+003	&Voltage Finish	 I (A) < 	Max Time(s)
SAMPLETIME	QUANT	1.00000E-002	Sa&mple Period (s)
CHARGESTOPAT1	MULTIPARAM	4	1.00000E+000	Charge Stop At &1	Voltage > Limit	V
CHARGESTOPAT2	MULTIPARAM	0	0.00000E+000	Charge Stop At &2	None	N/A
AESBHCSELECTOR	TOGGLE	F	Save Both Half Cells
IRCOMP	TOGGLE	F	IR &Measure
EOC	QUANT	0	Open Circuit (V)
SEQUENCER	TOGGLE	TRUE	Run as Sequence
PSTATMODEL	IQUANT	53	Pstat Model
PSTATSECTION	LABEL	IFC5000-01520	Pstat Section
PSTATSERIALNO	LABEL	01520	Pstat Serial Number
CTRLMODE	IQUANT	0	Control Mode
ELECTROMETER	IQUANT	1	RE=0 or CS=1
IESTAB	IQUANT	0	I/E Stability
CASPEED	IQUANT	4	Control Amp Speed
CONVENTION	IQUANT	1	Current Convention
ICHRANGE	IQUANT	2	Ich Range
ICHRANGEMODE	TOGGLE	T	Ich Auto Range
ICHOFFSETENABLE	TOGGLE	F	Ich Offset Enable
ICHOFFSET	QUANT	0	Ich Offset (V)
ICHFILTER	IQUANT	1	Ich Filter
VCHRANGE	IQUANT	2	Vch Range
VCHRANGEMODE	TOGGLE	T	Vch Auto Range
VCHOFFSETENABLE	TOGGLE	F	Vch Offset Enable
VCHOFFSET	QUANT	0	Vch Offset (V)
VCHFILTER	IQUANT	1	Vch Filter
IERANGELOWERLIMIT	IQUANT	9	I/E Range Lower Limit
IERANGEMODE	TOGGLE	F	I/E AutoRange
IERANGE	IQUANT	9	I/E Range
ACHSELECT	IQUANT	1	Ach Select
ACHRANGE	IQUANT	2	Ach Range
ACHOFFSETENABLE	TOGGLE	F	Ach Offset Enable
ACHOFFSET	QUANT	0	Ach Offset (V)
ACHFILTER	IQUANT	1	Ach Filter
CABLEID	IQUANT	14	Cable ID
DCCALDATE	LABEL	5-7-2017	DC Calibration Date
ACCALDATE	LABEL	12/3/2015	AC Calibration Date
FRAMEWORKVERSION	QUANT	7.01	Framework Version
INSTRUMENTVERSION	LABEL	4.00	Instrument Version
CURVE	TABLE	62
	Pt	T	Vf	Im	Vu	Pwr	Sig	Ach	Temp	IERange	Over
	#	s	V	A	V	W	V	V	deg C	#	bits
	0	0.013333	6.07890E-001	2.80978E-004	0.00000E+000	1.70804E-004	1.68088E-001	6.08133E-001	3.57880E+000	9	...........
	1	0.026667	6.38106E-001	2.79848E-004	0.00000E+000	1.78573E-004	1.68088E-001	6.38347E-001	3.57880E+000	9	...........
	2	0.04	6.64129E-001	2.80416E-004	0.00000E+000	1.86232E-004	1.68088E-001	6.64353E-001	3.57880E+000	9	...........
	3	0.053333	6.87025E-001	2.81101E-004	0.00000E+000	1.93124E-004	1.68088E-001	6.87293E-001	3.57880E+000	9	...........
	4	0.066667	7.07458E-001	2.81350E-004	0.00000E+000	1.99043E-004	1.68088E-001	7.07740E-001	3.57880E+000	9	...........
	5	0.08	7.25940E-001	2.79979E-004	0.00000E+000	2.03248E-004	1.68088E-001	7.26204E-001	3.57880E+000	9	...........
	6	0.093333	7.42722E-001	2.81097E-004	0.00000E+000	2.08777E-004	1.68088E-001	7.43019E-001	3.57880E+000	9	...........
	7	0.106667	7.58095E-001	2.82171E-004	0.00000E+000	2.13913E-004	1.68088E-001	7.58396E-001	3.57880E+000	9	...........
	8	0.12	7.72248E-001	2.81377E-004	0.00000E+000	2.17293E-004	1.68088E-001	7.72576E-001	3.57880E+000	9	...........
	9	0.133333	7.85320E-001	2.81427E-004	0.00000E+000	2.21011E-004	1.68088E-001	7.85637E-001	3.57880E+000	9	...........
	10	0.146667	7.97451E-001	2.81865E-004	0.00000E+000	2.24774E-004	1.68088E-001	7.97775E-001	3.57880E+000	9	...........
	11	0.16	8.08687E-001	2.81535E-004	0.00000E+000	2.27673E-004	1.68088E-001	8.09001E-001	3.57880E+000	9	...........
	12	0.173333	8.19137E-001	2.80823E-004	0.00000E+000	2.30032E-004	1.68088E-001	8.19438E-001	3.57880E+000	9	...........
	13	0.186667	8.28884E-001	2.80782E-004	0.00000E+000	2.32736E-004	1.68088E-001	8.29196E-001	3.57880E+000	9	...........
	14	0.2	8.37981E-001	2.80804E-004	0.00000E+000	2.35309E-004	1.68088E-001	8.38289E-001	3.57880E+000	9	...........
	15	0.213333	8.46557E-001	2.81285E-004	0.00000E+000	2.38123E-004	1.68088E-001	8.46873E-001	3.57880E+000	9	...........
	16	0.226667	8.54539E-001	2.80742E-004	0.00000E+000	2.39905E-004	1.68088E-001	8.54832E-001	3.57880E+000	9	...........
	17	0.24	8.62005E-001	2.80745E-004	0.00000E+000	2.42004E-004	1.68088E-001	8.62339E-001	3.57880E+000	9	...........
	18	0.253333	8.69029E-001	2.81725E-004	0.00000E+000	2.44827E-004	1.68088E-001	8.69379E-001	3.57880E+000	9	...........
	19	0.266667	8.75666E-001	2.81036E-004	0.00000E+000	2.46093E-004	1.68088E-001	8.76028E-001	3.57880E+000	9	...........
	20	0.28	8.81895E-001	2.80832E-004	0.00000E+000	2.47665E-004	1.68088E-001	8.82243E-001	3.57880E+000	9	...........
	21	0.293333	8.87771E-001	2.81484E-004	0.00000E+000	2.49893E-004	1.68088E-001	8.88140E-001	3.57880E+000	9	...........
	22	0.306667	8.93334E-001	2.81698E-004	0.00000E+000	2.51651E-004	1.68088E-001	8.93694E-001	3.57880E+000	9	...........
	23	0.32	8.98584E-001	2.81026E-004	0.00000E+000	2.52526E-004	1.68088E-001	8.98958E-001	3.57880E+000	9	...........
	24	0.333333	9.03568E-001	2.81010E-004	0.00000E+000	2.53911E-004	1.68088E-001	9.03942E-001	3.57880E+000	9	...........
	25	0.346667	9.08336E-001	2.81466E-004	0.00000E+000	2.55666E-004	1.68088E-001	9.08708E-001	3.57880E+000	9	...........
	26	0.36	9.12863E-001	2.81635E-004	0.00000E+000	2.57094E-004	1.68088E-001	9.13220E-001	3.57880E+000	9	...........
	27	0.373333	9.17154E-001	2.82835E-004	0.00000E+000	2.59403E-004	1.68088E-001	9.17485E-001	3.57880E+000	9	...........
	28	0.386667	9.21253E-001	2.81786E-004	0.00000E+000	2.59596E-004	1.68088E-001	9.21563E-001	3.57880E+000	9	...........
	29	0.4	9.25153E-001	2.80723E-004	0.00000E+000	2.59712E-004	1.68088E-001	9.25449E-001	3.57880E+000	9	...........
	30	0.413333	9.28878E-001	2.81091E-004	0.00000E+000	2.61099E-004	1.68088E-001	9.29165E-001	3.57880E+000	9	...........
	31	0.426667	9.32410E-001	2.80039E-004	0.00000E+000	2.61111E-004	1.68088E-001	9.32733E-001	3.57880E+000	9	...........
	32	0.44	9.35829E-001	2.81473E-004	0.00000E+000	2.63411E-004	1.68088E-001	9.36169E-001	3.57880E+000	9	...........
	33	0.453333	9.39068E-001	2.80082E-004	0.00000E+000	2.63016E-004	1.68088E-001	9.39415E-001	3.57880E+000	9	...........
	34	0.466667	9.42216E-001	2.81407E-004	0.00000E+000	2.65146E-004	1.68088E-001	9.42550E-001	3.57880E+000	9	...........
	35	0.48	9.45252E-001	2.81232E-004	0.00000E+000	2.65835E-004	1.68088E-001	9.45594E-001	3.57880E+000	9	...........
	36	0.493333	9.48223E-001	2.81336E-004	0.00000E+000	2.66769E-004	1.68088E-001	9.48551E-001	3.57880E+000	9	...........
	37	0.506667	9.51044E-001	2.80965E-004	0.00000E+000	2.67210E-004	1.68088E-001	9.51373E-001	3.57880E+000	9	...........
	38	0.52	9.53795E-001	2.81244E-004	0.00000E+000	2.68249E-004	1.68088E-001	9.54133E-001	3.57880E+000	9	...........
	39	0.533333	9.56444E-001	2.80608E-004	0.00000E+000	2.68386E-004	1.68088E-001	9.56753E-001	3.57880E+000	9	...........
	40	0.546667	9.58975E-001	2.80765E-004	0.00000E+000	2.69246E-004	1.68088E-001	9.59298E-001	3.57880E+000	9	...........
	41	0.56	9.61439E-001	2.81199E-004	0.00000E+000	2.70356E-004	1.68088E-001	9.61801E-001	3.57880E+000	9	...........
	42	0.573333	9.63831E-001	2.81545E-004	0.00000E+000	2.71362E-004	1.68088E-001	9.64190E-001	3.57880E+000	9	...........
	43	0.586667	9.66128E-001	2.81026E-004	0.00000E+000	2.71507E-004	1.68088E-001	9.66505E-001	3.57880E+000	9	...........
	44	0.6	9.68371E-001	2.81757E-004	0.00000E+000	2.72845E-004	1.68088E-001	9.68744E-001	3.57880E+000	9	...........
	45	0.613333	9.70538E-001	2.80067E-004	0.00000E+000	2.71815E-004	1.68088E-001	9.70949E-001	3.57880E+000	9	...........
	46	0.626667	9.72707E-001	2.79832E-004	0.00000E+000	2.72195E-004	1.68088E-001	9.73069E-001	3.57880E+000	9	...........
	47	0.64	9.74850E-001	2.81858E-004	0.00000E+000	2.74769E-004	1.68088E-001	9.75171E-001	3.57880E+000	9	...........
	48	0.653333	9.76842E-001	2.80530E-004	0.00000E+000	2.74034E-004	1.68088E-001	9.77161E-001	3.57880E+000	9	...........
	49	0.666667	9.78864E-001	2.81489E-004	0.00000E+000	2.75539E-004	1.68088E-001	9.79174E-001	3.57880E+000	9	...........
	50	0.68	9.80815E-001	2.80347E-004	0.00000E+000	2.74969E-004	1.68088E-001	9.81130E-001	3.57880E+000	9	...........
	51	0.693333	9.82720E-001	2.81009E-004	0.00000E+000	2.76153E-004	1.68088E-001	9.83066E-001	3.57880E+000	9	...........
	52	0.706667	9.84559E-001	2.80519E-004	0.00000E+000	2.76187E-004	1.68088E-001	9.84929E-001	3.57880E+000	9	...........
	53	0.72	9.86362E-001	2.80719E-004	0.00000E+000	2.76891E-004	1.68088E-001	9.86744E-001	3.57880E+000	9	...........
	54	0.733333	9.88150E-001	2.79900E-004	0.00000E+000	2.76583E-004	1.68088E-001	9.88492E-001	3.57880E+000	9	...........
	55	0.746667	9.89879E-001	2.81699E-004	0.00000E+000	2.78848E-004	1.68088E-001	9.90213E-001	3.57880E+000	9	...........
	56	0.76	9.91564E-001	2.80309E-004	0.00000E+000	2.77945E-004	1.68088E-001	9.91879E-001	3.57880E+000	9	...........
	57	0.773333	9.93185E-001	2.81030E-004	0.00000E+000	2.79115E-004	1.68088E-001	9.93549E-001	3.57880E+000	9	...........
	58	0.786667	9.94799E-001	2.81298E-004	0.00000E+000	2.79835E-004	1.68088E-001	9.95170E-001	3.57880E+000	9	...........
	59	0.8	9.96377E-001	2.80120E-004	0.00000E+000	2.79105E-004	1.68088E-001	9.96762E-001	3.57880E+000	9	...........
	60	0.813333	9.97962E-001	2.80635E-004	0.00000E+000	2.80062E-004	1.68088E-001	9.98350E-001	3.57880E+000	9	...........
	61	0.826667	9.99485E-001	2.80320E-004	0.00000E+000	2.80175E-004	1.68088E-001	9.99845E-001	3.57880E+000	9	...........
STARTTIMEOFFSET	QUANT	1797.379	Start Time Offset (s)
