EXPLAIN
TAG	PWR800_CHARGE
TITLE	LABEL	PWR Cyclic Charge Discharge (Cell) - Charge Step	Test &Identifier
DATE	LABEL	7-7-2017	Date
TIME	LABEL	15:55:20	Time
NOTES	NOTES	3	&Notes...
	supercap test cell
	2.8mg
	6M KOH
PSTAT	PSTAT	IFC5000-01520	Potentiostat
CAPACITY	QUANT	1.00000E-003	Capacity (A-hr)
CELLTYPE	SELECTOR	1	&Cell Type
WORKINGCONNECTION	SELECTOR	0	&Working Lead
MAXCHARGETIME	VARIABLEANDUNITS	1.00000E+002	s	1.00000E+002	second(s)	Max &Charge Time
CHARGECURRENT	QUANT	2.80000E-004	&Charge Current (A) 
VOLTAGEFINISH	TWOPARAM	F	1.00000E-003	3.60000E+003	&Voltage Finish	 I (A) < 	Max Time(s)
SAMPLETIME	QUANT	1.00000E-002	Sa&mple Period (s)
CHARGESTOPAT1	MULTIPARAM	4	1.00000E+000	Charge Stop At &1	Voltage > Limit	V
CHARGESTOPAT2	MULTIPARAM	0	0.00000E+000	Charge Stop At &2	None	N/A
AESBHCSELECTOR	TOGGLE	F	Save Both Half Cells
IRCOMP	TOGGLE	F	IR &Measure
EOC	QUANT	0	Open Circuit (V)
SEQUENCER	TOGGLE	TRUE	Run as Sequence
PSTATMODEL	IQUANT	53	Pstat Model
PSTATSECTION	LABEL	IFC5000-01520	Pstat Section
PSTATSERIALNO	LABEL	01520	Pstat Serial Number
CTRLMODE	IQUANT	0	Control Mode
ELECTROMETER	IQUANT	1	RE=0 or CS=1
IESTAB	IQUANT	0	I/E Stability
CASPEED	IQUANT	4	Control Amp Speed
CONVENTION	IQUANT	1	Current Convention
ICHRANGE	IQUANT	2	Ich Range
ICHRANGEMODE	TOGGLE	T	Ich Auto Range
ICHOFFSETENABLE	TOGGLE	F	Ich Offset Enable
ICHOFFSET	QUANT	0	Ich Offset (V)
ICHFILTER	IQUANT	1	Ich Filter
VCHRANGE	IQUANT	2	Vch Range
VCHRANGEMODE	TOGGLE	T	Vch Auto Range
VCHOFFSETENABLE	TOGGLE	F	Vch Offset Enable
VCHOFFSET	QUANT	0	Vch Offset (V)
VCHFILTER	IQUANT	1	Vch Filter
IERANGELOWERLIMIT	IQUANT	9	I/E Range Lower Limit
IERANGEMODE	TOGGLE	F	I/E AutoRange
IERANGE	IQUANT	9	I/E Range
ACHSELECT	IQUANT	1	Ach Select
ACHRANGE	IQUANT	2	Ach Range
ACHOFFSETENABLE	TOGGLE	F	Ach Offset Enable
ACHOFFSET	QUANT	0	Ach Offset (V)
ACHFILTER	IQUANT	1	Ach Filter
CABLEID	IQUANT	14	Cable ID
DCCALDATE	LABEL	5-7-2017	DC Calibration Date
ACCALDATE	LABEL	12/3/2015	AC Calibration Date
FRAMEWORKVERSION	QUANT	7.01	Framework Version
INSTRUMENTVERSION	LABEL	4.00	Instrument Version
CURVE	TABLE	89
	Pt	T	Vf	Im	Vu	Pwr	Sig	Ach	Temp	IERange	Over
	#	s	V	A	V	W	V	V	deg C	#	bits
	0	0.013333	5.92675E-001	2.81006E-004	0.00000E+000	1.66546E-004	1.68088E-001	5.92943E-001	3.57810E+000	9	...........
	1	0.026667	6.21890E-001	2.81628E-004	0.00000E+000	1.75142E-004	1.68088E-001	6.22149E-001	3.57810E+000	9	...........
	2	0.04	6.46680E-001	2.81650E-004	0.00000E+000	1.82138E-004	1.68088E-001	6.46948E-001	3.57810E+000	9	...........
	3	0.053333	6.68271E-001	2.81736E-004	0.00000E+000	1.88276E-004	1.68088E-001	6.68539E-001	3.57810E+000	9	...........
	4	0.066667	6.87410E-001	2.81514E-004	0.00000E+000	1.93516E-004	1.68088E-001	6.87689E-001	3.57810E+000	9	...........
	5	0.08	7.04547E-001	2.81209E-004	0.00000E+000	1.98125E-004	1.68088E-001	7.04829E-001	3.57810E+000	9	...........
	6	0.093333	7.20084E-001	2.82056E-004	0.00000E+000	2.03104E-004	1.68088E-001	7.20345E-001	3.57810E+000	9	...........
	7	0.106667	7.34213E-001	2.81046E-004	0.00000E+000	2.06348E-004	1.68088E-001	7.34490E-001	3.57810E+000	9	...........
	8	0.12	7.47194E-001	2.81613E-004	0.00000E+000	2.10419E-004	1.68088E-001	7.47484E-001	3.57810E+000	9	...........
	9	0.133333	7.59154E-001	2.81361E-004	0.00000E+000	2.13596E-004	1.68088E-001	7.59447E-001	3.57810E+000	9	...........
	10	0.146667	7.70199E-001	2.82008E-004	0.00000E+000	2.17202E-004	1.68088E-001	7.70495E-001	3.57810E+000	9	...........
	11	0.16	7.80450E-001	2.80416E-004	0.00000E+000	2.18850E-004	1.68088E-001	7.80721E-001	3.57810E+000	9	...........
	12	0.173333	7.89971E-001	2.81685E-004	0.00000E+000	2.22523E-004	1.68088E-001	7.90244E-001	3.57810E+000	9	...........
	13	0.186667	7.98877E-001	2.80602E-004	0.00000E+000	2.24167E-004	1.68088E-001	7.99152E-001	3.57810E+000	9	...........
	14	0.2	8.07182E-001	2.80751E-004	0.00000E+000	2.26617E-004	1.68088E-001	8.07483E-001	3.57810E+000	9	...........
	15	0.213333	8.15025E-001	2.81615E-004	0.00000E+000	2.29523E-004	1.68088E-001	8.15337E-001	3.57810E+000	9	...........
	16	0.226667	8.22373E-001	2.81620E-004	0.00000E+000	2.31597E-004	1.68088E-001	8.22696E-001	3.57810E+000	9	...........
	17	0.24	8.29257E-001	2.81003E-004	0.00000E+000	2.33024E-004	1.68088E-001	8.29573E-001	3.57810E+000	9	...........
	18	0.253333	8.35755E-001	2.82025E-004	0.00000E+000	2.35704E-004	1.68088E-001	8.36107E-001	3.57810E+000	9	...........
	19	0.266667	8.41931E-001	2.81717E-004	0.00000E+000	2.37186E-004	1.68088E-001	8.42270E-001	3.57810E+000	9	...........
	20	0.28	8.47790E-001	2.80829E-004	0.00000E+000	2.38084E-004	1.68088E-001	8.48076E-001	3.57810E+000	9	...........
	21	0.293333	8.53343E-001	2.81919E-004	0.00000E+000	2.40574E-004	1.68088E-001	8.53629E-001	3.57810E+000	9	...........
	22	0.306667	8.58579E-001	2.80749E-004	0.00000E+000	2.41045E-004	1.68088E-001	8.58887E-001	3.57810E+000	9	...........
	23	0.32	8.63597E-001	2.81054E-004	0.00000E+000	2.42718E-004	1.68088E-001	8.63898E-001	3.57810E+000	9	...........
	24	0.333333	8.68382E-001	2.81047E-004	0.00000E+000	2.44056E-004	1.68088E-001	8.68684E-001	3.57810E+000	9	...........
	25	0.346667	8.72910E-001	2.79760E-004	0.00000E+000	2.44206E-004	1.68088E-001	8.73242E-001	3.57810E+000	9	...........
	26	0.36	8.77251E-001	2.81519E-004	0.00000E+000	2.46963E-004	1.68088E-001	8.77543E-001	3.57810E+000	9	...........
	27	0.373333	8.81380E-001	2.80890E-004	0.00000E+000	2.47571E-004	1.68088E-001	8.81694E-001	3.57810E+000	9	...........
	28	0.386667	8.85352E-001	2.80599E-004	0.00000E+000	2.48429E-004	1.68088E-001	8.85678E-001	3.57810E+000	9	...........
	29	0.4	8.89150E-001	2.81266E-004	0.00000E+000	2.50088E-004	1.68088E-001	8.89467E-001	3.57810E+000	9	...........
	30	0.413333	8.92780E-001	2.81921E-004	0.00000E+000	2.51694E-004	1.68088E-001	8.93109E-001	3.57810E+000	9	...........
	31	0.426667	8.96283E-001	2.80373E-004	0.00000E+000	2.51293E-004	1.68088E-001	8.96619E-001	3.57810E+000	9	...........
	32	0.44	8.99664E-001	2.80795E-004	0.00000E+000	2.52621E-004	1.68088E-001	8.99990E-001	3.57810E+000	9	...........
	33	0.453333	9.02916E-001	2.80570E-004	0.00000E+000	2.53331E-004	1.68088E-001	9.03265E-001	3.57810E+000	9	...........
	34	0.466667	9.06040E-001	2.80725E-004	0.00000E+000	2.54348E-004	1.68088E-001	9.06397E-001	3.57810E+000	9	...........
	35	0.48	9.09100E-001	2.81076E-004	0.00000E+000	2.55526E-004	1.68088E-001	9.09447E-001	3.57810E+000	9	...........
	36	0.493333	9.12033E-001	2.81062E-004	0.00000E+000	2.56338E-004	1.68088E-001	9.12374E-001	3.57810E+000	9	...........
	37	0.506667	9.14857E-001	2.80669E-004	0.00000E+000	2.56772E-004	1.68088E-001	9.15222E-001	3.57810E+000	9	...........
	38	0.52	9.17587E-001	2.80780E-004	0.00000E+000	2.57640E-004	1.68088E-001	9.17969E-001	3.57810E+000	9	...........
	39	0.533333	9.20247E-001	2.81264E-004	0.00000E+000	2.58832E-004	1.68088E-001	9.20604E-001	3.57810E+000	9	...........
	40	0.546667	9.22859E-001	2.81930E-004	0.00000E+000	2.60181E-004	1.68088E-001	9.23187E-001	3.57810E+000	9	...........
	41	0.56	9.25310E-001	2.80787E-004	0.00000E+000	2.59815E-004	1.68088E-001	9.25649E-001	3.57810E+000	9	...........
	42	0.573333	9.27713E-001	2.81106E-004	0.00000E+000	2.60786E-004	1.68088E-001	9.28055E-001	3.57810E+000	9	...........
	43	0.586667	9.30051E-001	2.80144E-004	0.00000E+000	2.60548E-004	1.68088E-001	9.30384E-001	3.57810E+000	9	...........
	44	0.6	9.32344E-001	2.81835E-004	0.00000E+000	2.62767E-004	1.68088E-001	9.32703E-001	3.57810E+000	9	...........
	45	0.613333	9.34586E-001	2.80953E-004	0.00000E+000	2.62575E-004	1.68088E-001	9.34892E-001	3.57810E+000	9	...........
	46	0.626667	9.36734E-001	2.80731E-004	0.00000E+000	2.62971E-004	1.68088E-001	9.37058E-001	3.57810E+000	9	...........
	47	0.64	9.38828E-001	2.81388E-004	0.00000E+000	2.64175E-004	1.68088E-001	9.39159E-001	3.57810E+000	9	...........
	48	0.653333	9.40957E-001	2.81848E-004	0.00000E+000	2.65207E-004	1.68088E-001	9.41274E-001	3.57810E+000	9	...........
	49	0.666667	9.42961E-001	2.80760E-004	0.00000E+000	2.64745E-004	1.68088E-001	9.43293E-001	3.57810E+000	9	...........
	50	0.68	9.44962E-001	2.81018E-004	0.00000E+000	2.65551E-004	1.68088E-001	9.45311E-001	3.57810E+000	9	...........
	51	0.693333	9.46949E-001	2.81177E-004	0.00000E+000	2.66261E-004	1.68088E-001	9.47294E-001	3.57810E+000	9	...........
	52	0.706667	9.48861E-001	2.81624E-004	0.00000E+000	2.67222E-004	1.68088E-001	9.49206E-001	3.57810E+000	9	...........
	53	0.72	9.50727E-001	2.81165E-004	0.00000E+000	2.67311E-004	1.68088E-001	9.51035E-001	3.57810E+000	9	...........
	54	0.733333	9.52556E-001	2.81949E-004	0.00000E+000	2.68573E-004	1.68088E-001	9.52884E-001	3.57810E+000	9	...........
	55	0.746667	9.54345E-001	2.81667E-004	0.00000E+000	2.68808E-004	1.68088E-001	9.54654E-001	3.57810E+000	9	...........
	56	0.76	9.56106E-001	2.80986E-004	0.00000E+000	2.68652E-004	1.68088E-001	9.56424E-001	3.57810E+000	9	...........
	57	0.773333	9.57850E-001	2.80504E-004	0.00000E+000	2.68681E-004	1.68088E-001	9.58179E-001	3.57810E+000	9	...........
	58	0.786667	9.59534E-001	2.81443E-004	0.00000E+000	2.70054E-004	1.68088E-001	9.59868E-001	3.57879E+000	9	...........
	59	0.8	9.61204E-001	2.81379E-004	0.00000E+000	2.70463E-004	1.68088E-001	9.61529E-001	3.57920E+000	9	...........
	60	0.813333	9.62825E-001	2.80765E-004	0.00000E+000	2.70327E-004	1.68088E-001	9.63166E-001	3.57920E+000	9	...........
	61	0.826667	9.64423E-001	2.81425E-004	0.00000E+000	2.71413E-004	1.68088E-001	9.64794E-001	3.57920E+000	9	...........
	62	0.84	9.66011E-001	2.82048E-004	0.00000E+000	2.72462E-004	1.68088E-001	9.66373E-001	3.57920E+000	9	...........
	63	0.853333	9.67577E-001	2.81689E-004	0.00000E+000	2.72556E-004	1.68088E-001	9.67941E-001	3.57920E+000	9	...........
	64	0.866667	9.69110E-001	2.80752E-004	0.00000E+000	2.72080E-004	1.68088E-001	9.69473E-001	3.57920E+000	9	...........
	65	0.88	9.70608E-001	2.81038E-004	0.00000E+000	2.72777E-004	1.68088E-001	9.70995E-001	3.57920E+000	9	...........
	66	0.893333	9.72093E-001	2.81040E-004	0.00000E+000	2.73197E-004	1.68088E-001	9.72498E-001	3.57920E+000	9	...........
	67	0.906667	9.73569E-001	2.81808E-004	0.00000E+000	2.74359E-004	1.68088E-001	9.73920E-001	3.57920E+000	9	...........
	68	0.92	9.74978E-001	2.81135E-004	0.00000E+000	2.74100E-004	1.68088E-001	9.75328E-001	3.57920E+000	9	...........
	69	0.933333	9.76337E-001	2.80302E-004	0.00000E+000	2.73669E-004	1.68088E-001	9.76710E-001	3.57920E+000	9	...........
	70	0.946667	9.77688E-001	2.80901E-004	0.00000E+000	2.74634E-004	1.68088E-001	9.78078E-001	3.57920E+000	9	...........
	71	0.96	9.79056E-001	2.81248E-004	0.00000E+000	2.75358E-004	1.68088E-001	9.79421E-001	3.57920E+000	9	...........
	72	0.97333	9.80380E-001	2.80871E-004	0.00000E+000	2.75360E-004	1.68088E-001	9.80733E-001	3.57920E+000	9	...........
	73	0.98667	9.81688E-001	2.80712E-004	0.00000E+000	2.75571E-004	1.68088E-001	9.82055E-001	3.57920E+000	9	...........
	74	1	9.83011E-001	2.81674E-004	0.00000E+000	2.76889E-004	1.68088E-001	9.83377E-001	3.57920E+000	9	...........
	75	1.01333	9.84305E-001	2.82345E-004	0.00000E+000	2.77914E-004	1.68088E-001	9.84686E-001	3.57920E+000	9	...........
	76	1.02667	9.85554E-001	2.81287E-004	0.00000E+000	2.77223E-004	1.68088E-001	9.85937E-001	3.57920E+000	9	...........
	77	1.04	9.86825E-001	2.80799E-004	0.00000E+000	2.77100E-004	1.68088E-001	9.87177E-001	3.57920E+000	9	...........
	78	1.05333	9.88069E-001	2.81993E-004	0.00000E+000	2.78629E-004	1.68088E-001	9.88424E-001	3.57920E+000	9	...........
	79	1.06667	9.89321E-001	2.80826E-004	0.00000E+000	2.77827E-004	1.68088E-001	9.89650E-001	3.57920E+000	9	...........
	80	1.08	9.90568E-001	2.79754E-004	0.00000E+000	2.77115E-004	1.68088E-001	9.90876E-001	3.57920E+000	9	...........
	81	1.09333	9.91725E-001	2.79950E-004	0.00000E+000	2.77634E-004	1.68088E-001	9.92064E-001	3.57920E+000	9	...........
	82	1.10667	9.92890E-001	2.80862E-004	0.00000E+000	2.78865E-004	1.68088E-001	9.93240E-001	3.57920E+000	9	...........
	83	1.12	9.94081E-001	2.81542E-004	0.00000E+000	2.79876E-004	1.68088E-001	9.94440E-001	3.57920E+000	9	...........
	84	1.13333	9.95244E-001	2.80858E-004	0.00000E+000	2.79523E-004	1.68088E-001	9.95586E-001	3.57920E+000	9	...........
	85	1.14667	9.96358E-001	2.80564E-004	0.00000E+000	2.79542E-004	1.68088E-001	9.96719E-001	3.57920E+000	9	...........
	86	1.16	9.97489E-001	2.81153E-004	0.00000E+000	2.80447E-004	1.68088E-001	9.97867E-001	3.57920E+000	9	...........
	87	1.17333	9.98634E-001	2.81089E-004	0.00000E+000	2.80705E-004	1.68088E-001	9.98994E-001	3.57920E+000	9	...........
	88	1.185	9.99673E-001	2.80807E-004	0.00000E+000	2.80715E-004	1.68088E-001	1.00003E+000	3.57920E+000	9	...........
STARTTIMEOFFSET	QUANT	908.8818	Start Time Offset (s)
