EXPLAIN
TAG	PWR800_CHARGE
TITLE	LABEL	PWR Cyclic Charge Discharge (Cell) - Charge Step	Test &Identifier
DATE	LABEL	7-7-2017	Date
TIME	LABEL	16:24:19	Time
NOTES	NOTES	3	&Notes...
	supercap test cell
	2.8mg
	6M KOH
PSTAT	PSTAT	IFC5000-01520	Potentiostat
CAPACITY	QUANT	1.00000E-003	Capacity (A-hr)
CELLTYPE	SELECTOR	1	&Cell Type
WORKINGCONNECTION	SELECTOR	0	&Working Lead
MAXCHARGETIME	VARIABLEANDUNITS	1.00000E+002	s	1.00000E+002	second(s)	Max &Charge Time
CHARGECURRENT	QUANT	2.80000E-004	&Charge Current (A) 
VOLTAGEFINISH	TWOPARAM	F	1.00000E-003	3.60000E+003	&Voltage Finish	 I (A) < 	Max Time(s)
SAMPLETIME	QUANT	1.00000E-002	Sa&mple Period (s)
CHARGESTOPAT1	MULTIPARAM	4	1.00000E+000	Charge Stop At &1	Voltage > Limit	V
CHARGESTOPAT2	MULTIPARAM	0	0.00000E+000	Charge Stop At &2	None	N/A
AESBHCSELECTOR	TOGGLE	F	Save Both Half Cells
IRCOMP	TOGGLE	F	IR &Measure
EOC	QUANT	0	Open Circuit (V)
SEQUENCER	TOGGLE	TRUE	Run as Sequence
PSTATMODEL	IQUANT	53	Pstat Model
PSTATSECTION	LABEL	IFC5000-01520	Pstat Section
PSTATSERIALNO	LABEL	01520	Pstat Serial Number
CTRLMODE	IQUANT	0	Control Mode
ELECTROMETER	IQUANT	1	RE=0 or CS=1
IESTAB	IQUANT	0	I/E Stability
CASPEED	IQUANT	4	Control Amp Speed
CONVENTION	IQUANT	1	Current Convention
ICHRANGE	IQUANT	2	Ich Range
ICHRANGEMODE	TOGGLE	T	Ich Auto Range
ICHOFFSETENABLE	TOGGLE	F	Ich Offset Enable
ICHOFFSET	QUANT	0	Ich Offset (V)
ICHFILTER	IQUANT	1	Ich Filter
VCHRANGE	IQUANT	2	Vch Range
VCHRANGEMODE	TOGGLE	T	Vch Auto Range
VCHOFFSETENABLE	TOGGLE	F	Vch Offset Enable
VCHOFFSET	QUANT	0	Vch Offset (V)
VCHFILTER	IQUANT	1	Vch Filter
IERANGELOWERLIMIT	IQUANT	9	I/E Range Lower Limit
IERANGEMODE	TOGGLE	F	I/E AutoRange
IERANGE	IQUANT	9	I/E Range
ACHSELECT	IQUANT	1	Ach Select
ACHRANGE	IQUANT	2	Ach Range
ACHOFFSETENABLE	TOGGLE	F	Ach Offset Enable
ACHOFFSET	QUANT	0	Ach Offset (V)
ACHFILTER	IQUANT	1	Ach Filter
CABLEID	IQUANT	14	Cable ID
DCCALDATE	LABEL	5-7-2017	DC Calibration Date
ACCALDATE	LABEL	12/3/2015	AC Calibration Date
FRAMEWORKVERSION	QUANT	7.01	Framework Version
INSTRUMENTVERSION	LABEL	4.00	Instrument Version
CURVE	TABLE	57
	Pt	T	Vf	Im	Vu	Pwr	Sig	Ach	Temp	IERange	Over
	#	s	V	A	V	W	V	V	deg C	#	bits
	0	0.013333	6.09475E-001	2.80676E-004	0.00000E+000	1.71065E-004	1.68088E-001	6.09706E-001	3.57810E+000	9	...........
	1	0.026667	6.40241E-001	2.79920E-004	0.00000E+000	1.79216E-004	1.68088E-001	6.40499E-001	3.57810E+000	9	...........
	2	0.04	6.66833E-001	2.82195E-004	0.00000E+000	1.88177E-004	1.68088E-001	6.67065E-001	3.57810E+000	9	...........
	3	0.053333	6.90213E-001	2.81912E-004	0.00000E+000	1.94579E-004	1.68088E-001	6.90478E-001	3.57810E+000	9	...........
	4	0.066667	7.11184E-001	2.82225E-004	0.00000E+000	2.00714E-004	1.68088E-001	7.11445E-001	3.57810E+000	9	...........
	5	0.08	7.30171E-001	2.80979E-004	0.00000E+000	2.05163E-004	1.68088E-001	7.30405E-001	3.57810E+000	9	...........
	6	0.093333	7.47441E-001	2.80628E-004	0.00000E+000	2.09753E-004	1.68088E-001	7.47691E-001	3.57810E+000	9	...........
	7	0.106667	7.63270E-001	2.81488E-004	0.00000E+000	2.14851E-004	1.68088E-001	7.63514E-001	3.57810E+000	9	...........
	8	0.12	7.77844E-001	2.80701E-004	0.00000E+000	2.18342E-004	1.68088E-001	7.78117E-001	3.57810E+000	9	...........
	9	0.133333	7.91300E-001	2.80828E-004	0.00000E+000	2.22219E-004	1.68088E-001	7.91584E-001	3.57810E+000	9	...........
	10	0.146667	8.03772E-001	2.81013E-004	0.00000E+000	2.25870E-004	1.68088E-001	8.04047E-001	3.57810E+000	9	...........
	11	0.16	8.15305E-001	2.79994E-004	0.00000E+000	2.28280E-004	1.68088E-001	8.15597E-001	3.57810E+000	9	...........
	12	0.173333	8.26075E-001	2.82242E-004	0.00000E+000	2.33153E-004	1.68088E-001	8.26362E-001	3.57810E+000	9	...........
	13	0.186667	8.36059E-001	2.80422E-004	0.00000E+000	2.34449E-004	1.68088E-001	8.36347E-001	3.57810E+000	9	...........
	14	0.2	8.45410E-001	2.80249E-004	0.00000E+000	2.36925E-004	1.68088E-001	8.45717E-001	3.57810E+000	9	...........
	15	0.213333	8.54146E-001	2.81578E-004	0.00000E+000	2.40509E-004	1.68088E-001	8.54441E-001	3.57810E+000	9	...........
	16	0.226667	8.62285E-001	2.80161E-004	0.00000E+000	2.41579E-004	1.68088E-001	8.62639E-001	3.57810E+000	9	...........
	17	0.24	8.69990E-001	2.81266E-004	0.00000E+000	2.44699E-004	1.68088E-001	8.70323E-001	3.57810E+000	9	...........
	18	0.253333	8.77196E-001	2.81570E-004	0.00000E+000	2.46992E-004	1.68088E-001	8.77508E-001	3.57810E+000	9	...........
	19	0.266667	8.83918E-001	2.82389E-004	0.00000E+000	2.49609E-004	1.68088E-001	8.84244E-001	3.57810E+000	9	...........
	20	0.28	8.90257E-001	2.81619E-004	0.00000E+000	2.50713E-004	1.68088E-001	8.90586E-001	3.57810E+000	9	...........
	21	0.293333	8.96254E-001	2.80388E-004	0.00000E+000	2.51298E-004	1.68088E-001	8.96588E-001	3.57810E+000	9	...........
	22	0.306667	9.01935E-001	2.79681E-004	0.00000E+000	2.52254E-004	1.68088E-001	9.02240E-001	3.57810E+000	9	...........
	23	0.32	9.07275E-001	2.82416E-004	0.00000E+000	2.56229E-004	1.68088E-001	9.07607E-001	3.57810E+000	9	...........
	24	0.333333	9.12350E-001	2.80553E-004	0.00000E+000	2.55963E-004	1.68088E-001	9.12687E-001	3.57810E+000	9	...........
	25	0.346667	9.17177E-001	2.81390E-004	0.00000E+000	2.58084E-004	1.68088E-001	9.17514E-001	3.57810E+000	9	...........
	26	0.36	9.21817E-001	2.80940E-004	0.00000E+000	2.58975E-004	1.68088E-001	9.22110E-001	3.57810E+000	9	...........
	27	0.373333	9.26155E-001	2.81407E-004	0.00000E+000	2.60626E-004	1.68088E-001	9.26427E-001	3.57810E+000	9	...........
	28	0.386667	9.30243E-001	2.80321E-004	0.00000E+000	2.60766E-004	1.68088E-001	9.30540E-001	3.57810E+000	9	...........
	29	0.4	9.34179E-001	2.81526E-004	0.00000E+000	2.62996E-004	1.68088E-001	9.34466E-001	3.57810E+000	9	...........
	30	0.413333	9.37902E-001	2.81521E-004	0.00000E+000	2.64039E-004	1.68088E-001	9.38223E-001	3.57810E+000	9	...........
	31	0.426667	9.41482E-001	2.80635E-004	0.00000E+000	2.64212E-004	1.68088E-001	9.41798E-001	3.57810E+000	9	...........
	32	0.44	9.44934E-001	2.81085E-004	0.00000E+000	2.65607E-004	1.68088E-001	9.45243E-001	3.57810E+000	9	...........
	33	0.453333	9.48253E-001	2.80576E-004	0.00000E+000	2.66057E-004	1.68088E-001	9.48564E-001	3.57810E+000	9	...........
	34	0.466667	9.51389E-001	2.81809E-004	0.00000E+000	2.68110E-004	1.68088E-001	9.51706E-001	3.57810E+000	9	...........
	35	0.48	9.54405E-001	2.79761E-004	0.00000E+000	2.67006E-004	1.68088E-001	9.54730E-001	3.57810E+000	9	...........
	36	0.493333	9.57295E-001	2.81415E-004	0.00000E+000	2.69397E-004	1.68088E-001	9.57651E-001	3.57810E+000	9	...........
	37	0.506667	9.60074E-001	2.80029E-004	0.00000E+000	2.68849E-004	1.68088E-001	9.60414E-001	3.57810E+000	9	...........
	38	0.52	9.62742E-001	2.82020E-004	0.00000E+000	2.71513E-004	1.68088E-001	9.63109E-001	3.57810E+000	9	...........
	39	0.533333	9.65347E-001	2.81601E-004	0.00000E+000	2.71843E-004	1.68088E-001	9.65684E-001	3.57810E+000	9	...........
	40	0.546667	9.67899E-001	2.80564E-004	0.00000E+000	2.71557E-004	1.68088E-001	9.68208E-001	3.57810E+000	9	...........
	41	0.56	9.70326E-001	2.80770E-004	0.00000E+000	2.72438E-004	1.68088E-001	9.70649E-001	3.57810E+000	9	...........
	42	0.573333	9.72728E-001	2.81489E-004	0.00000E+000	2.73812E-004	1.68088E-001	9.73065E-001	3.57810E+000	9	...........
	43	0.586667	9.75057E-001	2.81557E-004	0.00000E+000	2.74534E-004	1.68088E-001	9.75380E-001	3.57810E+000	9	...........
	44	0.6	9.77284E-001	2.79479E-004	0.00000E+000	2.73130E-004	1.68088E-001	9.77600E-001	3.57810E+000	9	...........
	45	0.613333	9.79465E-001	2.81521E-004	0.00000E+000	2.75740E-004	1.68088E-001	9.79785E-001	3.57810E+000	9	...........
	46	0.626667	9.81554E-001	2.80739E-004	0.00000E+000	2.75560E-004	1.68088E-001	9.81858E-001	3.57810E+000	9	...........
	47	0.64	9.83590E-001	2.81193E-004	0.00000E+000	2.76579E-004	1.68088E-001	9.83936E-001	3.57810E+000	9	...........
	48	0.653333	9.85581E-001	2.81409E-004	0.00000E+000	2.77351E-004	1.68088E-001	9.85917E-001	3.57810E+000	9	...........
	49	0.666667	9.87499E-001	2.80822E-004	0.00000E+000	2.77311E-004	1.68088E-001	9.87839E-001	3.57810E+000	9	...........
	50	0.68	9.89363E-001	2.80755E-004	0.00000E+000	2.77769E-004	1.68088E-001	9.89707E-001	3.57810E+000	9	...........
	51	0.693333	9.91219E-001	2.80422E-004	0.00000E+000	2.77960E-004	1.68088E-001	9.91549E-001	3.57810E+000	9	...........
	52	0.706667	9.92997E-001	2.81514E-004	0.00000E+000	2.79542E-004	1.68088E-001	9.93317E-001	3.57810E+000	9	...........
	53	0.72	9.94774E-001	2.81224E-004	0.00000E+000	2.79755E-004	1.68088E-001	9.95104E-001	3.57810E+000	9	...........
	54	0.733333	9.96480E-001	2.80419E-004	0.00000E+000	2.79432E-004	1.68088E-001	9.96811E-001	3.57810E+000	9	...........
	55	0.746667	9.98177E-001	2.81200E-004	0.00000E+000	2.80688E-004	1.68088E-001	9.98504E-001	3.57810E+000	9	...........
	56	0.756667	9.99639E-001	2.80720E-004	0.00000E+000	2.80619E-004	1.68088E-001	9.99956E-001	3.57810E+000	9	...........
STARTTIMEOFFSET	QUANT	2089.531	Start Time Offset (s)
