EXPLAIN
TAG	PWR800_CHARGE
TITLE	LABEL	PWR Cyclic Charge Discharge (Cell) - Charge Step	Test &Identifier
DATE	LABEL	7-7-2017	Date
TIME	LABEL	16:05:54	Time
NOTES	NOTES	3	&Notes...
	supercap test cell
	2.8mg
	6M KOH
PSTAT	PSTAT	IFC5000-01520	Potentiostat
CAPACITY	QUANT	1.00000E-003	Capacity (A-hr)
CELLTYPE	SELECTOR	1	&Cell Type
WORKINGCONNECTION	SELECTOR	0	&Working Lead
MAXCHARGETIME	VARIABLEANDUNITS	1.00000E+002	s	1.00000E+002	second(s)	Max &Charge Time
CHARGECURRENT	QUANT	2.80000E-004	&Charge Current (A) 
VOLTAGEFINISH	TWOPARAM	F	1.00000E-003	3.60000E+003	&Voltage Finish	 I (A) < 	Max Time(s)
SAMPLETIME	QUANT	1.00000E-002	Sa&mple Period (s)
CHARGESTOPAT1	MULTIPARAM	4	1.00000E+000	Charge Stop At &1	Voltage > Limit	V
CHARGESTOPAT2	MULTIPARAM	0	0.00000E+000	Charge Stop At &2	None	N/A
AESBHCSELECTOR	TOGGLE	F	Save Both Half Cells
IRCOMP	TOGGLE	F	IR &Measure
EOC	QUANT	0	Open Circuit (V)
SEQUENCER	TOGGLE	TRUE	Run as Sequence
PSTATMODEL	IQUANT	53	Pstat Model
PSTATSECTION	LABEL	IFC5000-01520	Pstat Section
PSTATSERIALNO	LABEL	01520	Pstat Serial Number
CTRLMODE	IQUANT	0	Control Mode
ELECTROMETER	IQUANT	1	RE=0 or CS=1
IESTAB	IQUANT	0	I/E Stability
CASPEED	IQUANT	4	Control Amp Speed
CONVENTION	IQUANT	1	Current Convention
ICHRANGE	IQUANT	2	Ich Range
ICHRANGEMODE	TOGGLE	T	Ich Auto Range
ICHOFFSETENABLE	TOGGLE	F	Ich Offset Enable
ICHOFFSET	QUANT	0	Ich Offset (V)
ICHFILTER	IQUANT	1	Ich Filter
VCHRANGE	IQUANT	2	Vch Range
VCHRANGEMODE	TOGGLE	T	Vch Auto Range
VCHOFFSETENABLE	TOGGLE	F	Vch Offset Enable
VCHOFFSET	QUANT	0	Vch Offset (V)
VCHFILTER	IQUANT	1	Vch Filter
IERANGELOWERLIMIT	IQUANT	9	I/E Range Lower Limit
IERANGEMODE	TOGGLE	F	I/E AutoRange
IERANGE	IQUANT	9	I/E Range
ACHSELECT	IQUANT	1	Ach Select
ACHRANGE	IQUANT	2	Ach Range
ACHOFFSETENABLE	TOGGLE	F	Ach Offset Enable
ACHOFFSET	QUANT	0	Ach Offset (V)
ACHFILTER	IQUANT	1	Ach Filter
CABLEID	IQUANT	14	Cable ID
DCCALDATE	LABEL	5-7-2017	DC Calibration Date
ACCALDATE	LABEL	12/3/2015	AC Calibration Date
FRAMEWORKVERSION	QUANT	7.01	Framework Version
INSTRUMENTVERSION	LABEL	4.00	Instrument Version
CURVE	TABLE	72
	Pt	T	Vf	Im	Vu	Pwr	Sig	Ach	Temp	IERange	Over
	#	s	V	A	V	W	V	V	deg C	#	bits
	0	0.013333	5.99857E-001	2.80346E-004	0.00000E+000	1.68167E-004	1.68088E-001	6.00142E-001	3.57880E+000	9	...........
	1	0.026667	6.29904E-001	2.81206E-004	0.00000E+000	1.77133E-004	1.68088E-001	6.30151E-001	3.57880E+000	9	...........
	2	0.04	6.55587E-001	2.82068E-004	0.00000E+000	1.84920E-004	1.68088E-001	6.55858E-001	3.57880E+000	9	...........
	3	0.053333	6.78087E-001	2.82052E-004	0.00000E+000	1.91256E-004	1.68088E-001	6.78352E-001	3.57880E+000	9	...........
	4	0.066667	6.98086E-001	2.79807E-004	0.00000E+000	1.95329E-004	1.68088E-001	6.98369E-001	3.57880E+000	9	...........
	5	0.08	7.16136E-001	2.81283E-004	0.00000E+000	2.01437E-004	1.68088E-001	7.16429E-001	3.57880E+000	9	...........
	6	0.093333	7.32547E-001	2.81536E-004	0.00000E+000	2.06238E-004	1.68088E-001	7.32804E-001	3.57880E+000	9	...........
	7	0.106667	7.47481E-001	2.81154E-004	0.00000E+000	2.10158E-004	1.68088E-001	7.47789E-001	3.57880E+000	9	...........
	8	0.12	7.61258E-001	2.81601E-004	0.00000E+000	2.14371E-004	1.68088E-001	7.61517E-001	3.57880E+000	9	...........
	9	0.133333	7.73919E-001	2.81684E-004	0.00000E+000	2.18000E-004	1.68088E-001	7.74196E-001	3.57880E+000	9	...........
	10	0.146667	7.85652E-001	2.80527E-004	0.00000E+000	2.20397E-004	1.68088E-001	7.85941E-001	3.57880E+000	9	...........
	11	0.16	7.96573E-001	2.80783E-004	0.00000E+000	2.23665E-004	1.68088E-001	7.96869E-001	3.57880E+000	9	...........
	12	0.173333	8.06697E-001	2.80098E-004	0.00000E+000	2.25954E-004	1.68088E-001	8.06973E-001	3.57880E+000	9	...........
	13	0.186667	8.16146E-001	2.81824E-004	0.00000E+000	2.30010E-004	1.68088E-001	8.16471E-001	3.57880E+000	9	...........
	14	0.2	8.24999E-001	2.81117E-004	0.00000E+000	2.31921E-004	1.68088E-001	8.25315E-001	3.57880E+000	9	...........
	15	0.213333	8.33281E-001	2.81205E-004	0.00000E+000	2.34323E-004	1.68088E-001	8.33592E-001	3.57880E+000	9	...........
	16	0.226667	8.41045E-001	2.81035E-004	0.00000E+000	2.36363E-004	1.68088E-001	8.41354E-001	3.57880E+000	9	...........
	17	0.24	8.48347E-001	2.81333E-004	0.00000E+000	2.38668E-004	1.68088E-001	8.48655E-001	3.57880E+000	9	...........
	18	0.253333	8.55224E-001	2.81737E-004	0.00000E+000	2.40948E-004	1.68088E-001	8.55532E-001	3.57880E+000	9	...........
	19	0.266667	8.61702E-001	2.80935E-004	0.00000E+000	2.42082E-004	1.68088E-001	8.62043E-001	3.57880E+000	9	...........
	20	0.28	8.67832E-001	2.81959E-004	0.00000E+000	2.44693E-004	1.68088E-001	8.68168E-001	3.57880E+000	9	...........
	21	0.293333	8.73608E-001	2.80606E-004	0.00000E+000	2.45140E-004	1.68088E-001	8.73916E-001	3.57880E+000	9	...........
	22	0.306667	8.79066E-001	2.81449E-004	0.00000E+000	2.47413E-004	1.68088E-001	8.79359E-001	3.57880E+000	9	...........
	23	0.32	8.84281E-001	2.81434E-004	0.00000E+000	2.48866E-004	1.68088E-001	8.84591E-001	3.57880E+000	9	...........
	24	0.333333	8.89184E-001	2.80020E-004	0.00000E+000	2.48989E-004	1.68088E-001	8.89499E-001	3.57880E+000	9	...........
	25	0.346667	8.93863E-001	2.79583E-004	0.00000E+000	2.49909E-004	1.68088E-001	8.94203E-001	3.57880E+000	9	...........
	26	0.36	8.98363E-001	2.80611E-004	0.00000E+000	2.52090E-004	1.68088E-001	8.98710E-001	3.57880E+000	9	...........
	27	0.373333	9.02636E-001	2.80677E-004	0.00000E+000	2.53349E-004	1.68088E-001	9.03009E-001	3.57880E+000	9	...........
	28	0.386667	9.06729E-001	2.82112E-004	0.00000E+000	2.55799E-004	1.68088E-001	9.07107E-001	3.57880E+000	9	...........
	29	0.4	9.10662E-001	2.81087E-004	0.00000E+000	2.55975E-004	1.68088E-001	9.11008E-001	3.57880E+000	9	...........
	30	0.413333	9.14372E-001	2.80277E-004	0.00000E+000	2.56278E-004	1.68088E-001	9.14738E-001	3.57880E+000	9	...........
	31	0.426667	9.17956E-001	2.81785E-004	0.00000E+000	2.58666E-004	1.68088E-001	9.18339E-001	3.57880E+000	9	...........
	32	0.44	9.21472E-001	2.83191E-004	0.00000E+000	2.60953E-004	1.68088E-001	9.21803E-001	3.57880E+000	9	...........
	33	0.453333	9.24771E-001	2.81384E-004	0.00000E+000	2.60215E-004	1.68088E-001	9.25103E-001	3.57854E+000	9	...........
	34	0.466667	9.27942E-001	2.81614E-004	0.00000E+000	2.61321E-004	1.68088E-001	9.28305E-001	3.57810E+000	9	...........
	35	0.48	9.30976E-001	2.82080E-004	0.00000E+000	2.62609E-004	1.68088E-001	9.31347E-001	3.57810E+000	9	...........
	36	0.493333	9.33894E-001	2.81962E-004	0.00000E+000	2.63323E-004	1.68088E-001	9.34285E-001	3.57810E+000	9	...........
	37	0.506667	9.36771E-001	2.79872E-004	0.00000E+000	2.62176E-004	1.68088E-001	9.37135E-001	3.57810E+000	9	...........
	38	0.52	9.39527E-001	2.81772E-004	0.00000E+000	2.64733E-004	1.68088E-001	9.39900E-001	3.57810E+000	9	...........
	39	0.533333	9.42196E-001	2.81623E-004	0.00000E+000	2.65344E-004	1.68088E-001	9.42553E-001	3.57810E+000	9	...........
	40	0.546667	9.44774E-001	2.81611E-004	0.00000E+000	2.66059E-004	1.68088E-001	9.45140E-001	3.57810E+000	9	...........
	41	0.56	9.47300E-001	2.81351E-004	0.00000E+000	2.66524E-004	1.68088E-001	9.47660E-001	3.57810E+000	9	...........
	42	0.573333	9.49699E-001	2.81678E-004	0.00000E+000	2.67510E-004	1.68088E-001	9.50088E-001	3.57810E+000	9	...........
	43	0.586667	9.52040E-001	2.81607E-004	0.00000E+000	2.68101E-004	1.68088E-001	9.52421E-001	3.57810E+000	9	...........
	44	0.6	9.54324E-001	2.82015E-004	0.00000E+000	2.69134E-004	1.68088E-001	9.54689E-001	3.57810E+000	9	...........
	45	0.613333	9.56554E-001	2.81559E-004	0.00000E+000	2.69326E-004	1.68088E-001	9.56924E-001	3.57810E+000	9	...........
	46	0.626667	9.58718E-001	2.80550E-004	0.00000E+000	2.68968E-004	1.68088E-001	9.59075E-001	3.57810E+000	9	...........
	47	0.64	9.60823E-001	2.80650E-004	0.00000E+000	2.69655E-004	1.68088E-001	9.61228E-001	3.57810E+000	9	...........
	48	0.653333	9.62874E-001	2.81924E-004	0.00000E+000	2.71458E-004	1.68088E-001	9.63268E-001	3.57810E+000	9	...........
	49	0.666667	9.64867E-001	2.80337E-004	0.00000E+000	2.70487E-004	1.68088E-001	9.65269E-001	3.57810E+000	9	...........
	50	0.68	9.66850E-001	2.80643E-004	0.00000E+000	2.71340E-004	1.68088E-001	9.67236E-001	3.57810E+000	9	...........
	51	0.693333	9.68778E-001	2.80816E-004	0.00000E+000	2.72048E-004	1.68088E-001	9.69158E-001	3.57810E+000	9	...........
	52	0.706667	9.70649E-001	2.82109E-004	0.00000E+000	2.73829E-004	1.68088E-001	9.71084E-001	3.57810E+000	9	...........
	53	0.72	9.72525E-001	2.80985E-004	0.00000E+000	2.73264E-004	1.68088E-001	9.72920E-001	3.57810E+000	9	...........
	54	0.733333	9.74327E-001	2.81159E-004	0.00000E+000	2.73940E-004	1.68088E-001	9.74725E-001	3.57810E+000	9	...........
	55	0.746667	9.76098E-001	2.81070E-004	0.00000E+000	2.74352E-004	1.68088E-001	9.76488E-001	3.57810E+000	9	...........
	56	0.76	9.77794E-001	2.81524E-004	0.00000E+000	2.75273E-004	1.68088E-001	9.78211E-001	3.57810E+000	9	...........
	57	0.773333	9.79496E-001	2.80651E-004	0.00000E+000	2.74897E-004	1.68088E-001	9.79833E-001	3.57810E+000	9	...........
	58	0.786667	9.81133E-001	2.82474E-004	0.00000E+000	2.77145E-004	1.68088E-001	9.81478E-001	3.57810E+000	9	...........
	59	0.8	9.82775E-001	2.81035E-004	0.00000E+000	2.76194E-004	1.68088E-001	9.83109E-001	3.57810E+000	9	...........
	60	0.813333	9.84329E-001	2.80750E-004	0.00000E+000	2.76351E-004	1.68088E-001	9.84707E-001	3.57810E+000	9	...........
	61	0.826667	9.85943E-001	2.81445E-004	0.00000E+000	2.77489E-004	1.68088E-001	9.86301E-001	3.57810E+000	9	...........
	62	0.84	9.87428E-001	2.80728E-004	0.00000E+000	2.77199E-004	1.68088E-001	9.87795E-001	3.57810E+000	9	...........
	63	0.853333	9.88943E-001	2.81216E-004	0.00000E+000	2.78107E-004	1.68088E-001	9.89321E-001	3.57810E+000	9	...........
	64	0.866667	9.90431E-001	2.81642E-004	0.00000E+000	2.78947E-004	1.68088E-001	9.90809E-001	3.57810E+000	9	...........
	65	0.88	9.91859E-001	2.81693E-004	0.00000E+000	2.79400E-004	1.68088E-001	9.92247E-001	3.57810E+000	9	...........
	66	0.893333	9.93265E-001	2.80792E-004	0.00000E+000	2.78901E-004	1.68088E-001	9.93659E-001	3.57810E+000	9	...........
	67	0.906667	9.94677E-001	2.81285E-004	0.00000E+000	2.79787E-004	1.68088E-001	9.95055E-001	3.57810E+000	9	...........
	68	0.92	9.96060E-001	2.80952E-004	0.00000E+000	2.79845E-004	1.68088E-001	9.96456E-001	3.57810E+000	9	...........
	69	0.933333	9.97413E-001	2.82061E-004	0.00000E+000	2.81331E-004	1.68088E-001	9.97841E-001	3.57810E+000	9	...........
	70	0.946667	9.98783E-001	2.79783E-004	0.00000E+000	2.79443E-004	1.68088E-001	9.99174E-001	3.57810E+000	9	...........
	71	0.95333	9.99786E-001	2.81229E-004	0.00000E+000	2.81169E-004	1.68088E-001	1.00019E+000	3.57810E+000	9	...........
STARTTIMEOFFSET	QUANT	1356.663	Start Time Offset (s)
