EXPLAIN
TAG	PWR800_CHARGE
TITLE	LABEL	PWR Cyclic Charge Discharge (Cell) - Charge Step	Test &Identifier
DATE	LABEL	7-7-2017	Date
TIME	LABEL	16:14:50	Time
NOTES	NOTES	3	&Notes...
	supercap test cell
	2.8mg
	6M KOH
PSTAT	PSTAT	IFC5000-01520	Potentiostat
CAPACITY	QUANT	1.00000E-003	Capacity (A-hr)
CELLTYPE	SELECTOR	1	&Cell Type
WORKINGCONNECTION	SELECTOR	0	&Working Lead
MAXCHARGETIME	VARIABLEANDUNITS	1.00000E+002	s	1.00000E+002	second(s)	Max &Charge Time
CHARGECURRENT	QUANT	2.80000E-004	&Charge Current (A) 
VOLTAGEFINISH	TWOPARAM	F	1.00000E-003	3.60000E+003	&Voltage Finish	 I (A) < 	Max Time(s)
SAMPLETIME	QUANT	1.00000E-002	Sa&mple Period (s)
CHARGESTOPAT1	MULTIPARAM	4	1.00000E+000	Charge Stop At &1	Voltage > Limit	V
CHARGESTOPAT2	MULTIPARAM	0	0.00000E+000	Charge Stop At &2	None	N/A
AESBHCSELECTOR	TOGGLE	F	Save Both Half Cells
IRCOMP	TOGGLE	F	IR &Measure
EOC	QUANT	0	Open Circuit (V)
SEQUENCER	TOGGLE	TRUE	Run as Sequence
PSTATMODEL	IQUANT	53	Pstat Model
PSTATSECTION	LABEL	IFC5000-01520	Pstat Section
PSTATSERIALNO	LABEL	01520	Pstat Serial Number
CTRLMODE	IQUANT	0	Control Mode
ELECTROMETER	IQUANT	1	RE=0 or CS=1
IESTAB	IQUANT	0	I/E Stability
CASPEED	IQUANT	4	Control Amp Speed
CONVENTION	IQUANT	1	Current Convention
ICHRANGE	IQUANT	2	Ich Range
ICHRANGEMODE	TOGGLE	T	Ich Auto Range
ICHOFFSETENABLE	TOGGLE	F	Ich Offset Enable
ICHOFFSET	QUANT	0	Ich Offset (V)
ICHFILTER	IQUANT	1	Ich Filter
VCHRANGE	IQUANT	2	Vch Range
VCHRANGEMODE	TOGGLE	T	Vch Auto Range
VCHOFFSETENABLE	TOGGLE	F	Vch Offset Enable
VCHOFFSET	QUANT	0	Vch Offset (V)
VCHFILTER	IQUANT	1	Vch Filter
IERANGELOWERLIMIT	IQUANT	9	I/E Range Lower Limit
IERANGEMODE	TOGGLE	F	I/E AutoRange
IERANGE	IQUANT	9	I/E Range
ACHSELECT	IQUANT	1	Ach Select
ACHRANGE	IQUANT	2	Ach Range
ACHOFFSETENABLE	TOGGLE	F	Ach Offset Enable
ACHOFFSET	QUANT	0	Ach Offset (V)
ACHFILTER	IQUANT	1	Ach Filter
CABLEID	IQUANT	14	Cable ID
DCCALDATE	LABEL	5-7-2017	DC Calibration Date
ACCALDATE	LABEL	12/3/2015	AC Calibration Date
FRAMEWORKVERSION	QUANT	7.01	Framework Version
INSTRUMENTVERSION	LABEL	4.00	Instrument Version
CURVE	TABLE	64
	Pt	T	Vf	Im	Vu	Pwr	Sig	Ach	Temp	IERange	Over
	#	s	V	A	V	W	V	V	deg C	#	bits
	0	0.013333	6.11216E-001	2.82176E-004	0.00000E+000	1.72471E-004	1.68088E-001	6.11459E-001	3.57730E+000	9	...........
	1	0.026667	6.41171E-001	2.81442E-004	0.00000E+000	1.80452E-004	1.68088E-001	6.41426E-001	3.57730E+000	9	...........
	2	0.04	6.66893E-001	2.81613E-004	0.00000E+000	1.87806E-004	1.68088E-001	6.67143E-001	3.57730E+000	9	...........
	3	0.053333	6.89469E-001	2.80851E-004	0.00000E+000	1.93638E-004	1.68088E-001	6.89745E-001	3.57730E+000	9	...........
	4	0.066667	7.09617E-001	2.80725E-004	0.00000E+000	1.99207E-004	1.68088E-001	7.09905E-001	3.57730E+000	9	...........
	5	0.08	7.27813E-001	2.82464E-004	0.00000E+000	2.05581E-004	1.68088E-001	7.28086E-001	3.57730E+000	9	...........
	6	0.093333	7.44373E-001	2.80058E-004	0.00000E+000	2.08468E-004	1.68088E-001	7.44635E-001	3.57730E+000	9	...........
	7	0.106667	7.59481E-001	2.81826E-004	0.00000E+000	2.14042E-004	1.68088E-001	7.59752E-001	3.57730E+000	9	...........
	8	0.12	7.73401E-001	2.82631E-004	0.00000E+000	2.18587E-004	1.68088E-001	7.73690E-001	3.57730E+000	9	...........
	9	0.133333	7.86237E-001	2.82745E-004	0.00000E+000	2.22305E-004	1.68088E-001	7.86519E-001	3.57730E+000	9	...........
	10	0.146667	7.98131E-001	2.81238E-004	0.00000E+000	2.24465E-004	1.68088E-001	7.98400E-001	3.57730E+000	9	...........
	11	0.16	8.09119E-001	2.79841E-004	0.00000E+000	2.26424E-004	1.68088E-001	8.09420E-001	3.57730E+000	9	...........
	12	0.173333	8.19388E-001	2.80758E-004	0.00000E+000	2.30050E-004	1.68088E-001	8.19662E-001	3.57761E+000	9	...........
	13	0.186667	8.28922E-001	2.81742E-004	0.00000E+000	2.33542E-004	1.68088E-001	8.29226E-001	3.57780E+000	9	...........
	14	0.2	8.37814E-001	2.82119E-004	0.00000E+000	2.36363E-004	1.68088E-001	8.38123E-001	3.57780E+000	9	...........
	15	0.213333	8.46147E-001	2.82482E-004	0.00000E+000	2.39021E-004	1.68088E-001	8.46471E-001	3.57780E+000	9	...........
	16	0.226667	8.53992E-001	2.80270E-004	0.00000E+000	2.39348E-004	1.68088E-001	8.54318E-001	3.57780E+000	9	...........
	17	0.24	8.61342E-001	2.81525E-004	0.00000E+000	2.42490E-004	1.68088E-001	8.61674E-001	3.57780E+000	9	...........
	18	0.253333	8.68260E-001	2.79796E-004	0.00000E+000	2.42935E-004	1.68088E-001	8.68581E-001	3.57780E+000	9	...........
	19	0.266667	8.74794E-001	2.81276E-004	0.00000E+000	2.46059E-004	1.68088E-001	8.75128E-001	3.57780E+000	9	...........
	20	0.28	8.80935E-001	2.81090E-004	0.00000E+000	2.47622E-004	1.68088E-001	8.81261E-001	3.57780E+000	9	...........
	21	0.293333	8.86740E-001	2.81051E-004	0.00000E+000	2.49220E-004	1.68088E-001	8.87044E-001	3.57780E+000	9	...........
	22	0.306667	8.92197E-001	2.81775E-004	0.00000E+000	2.51399E-004	1.68088E-001	8.92517E-001	3.57780E+000	9	...........
	23	0.32	8.97422E-001	2.79636E-004	0.00000E+000	2.50952E-004	1.68088E-001	8.97739E-001	3.57780E+000	9	...........
	24	0.333333	9.02364E-001	2.81636E-004	0.00000E+000	2.54138E-004	1.68088E-001	9.02675E-001	3.57780E+000	9	...........
	25	0.346667	9.07017E-001	2.80232E-004	0.00000E+000	2.54175E-004	1.68088E-001	9.07355E-001	3.57780E+000	9	...........
	26	0.36	9.11482E-001	2.81361E-004	0.00000E+000	2.56455E-004	1.68088E-001	9.11808E-001	3.57780E+000	9	...........
	27	0.373333	9.15739E-001	2.81593E-004	0.00000E+000	2.57866E-004	1.68088E-001	9.16074E-001	3.57780E+000	9	...........
	28	0.386667	9.19763E-001	2.80849E-004	0.00000E+000	2.58315E-004	1.68088E-001	9.20122E-001	3.57780E+000	9	...........
	29	0.4	9.23655E-001	2.81001E-004	0.00000E+000	2.59548E-004	1.68088E-001	9.23974E-001	3.57780E+000	9	...........
	30	0.413333	9.27375E-001	2.81759E-004	0.00000E+000	2.61296E-004	1.68088E-001	9.27669E-001	3.57780E+000	9	...........
	31	0.426667	9.30902E-001	2.80248E-004	0.00000E+000	2.60883E-004	1.68088E-001	9.31213E-001	3.57780E+000	9	...........
	32	0.44	9.34289E-001	2.81610E-004	0.00000E+000	2.63105E-004	1.68088E-001	9.34603E-001	3.57780E+000	9	...........
	33	0.453333	9.37520E-001	2.82444E-004	0.00000E+000	2.64797E-004	1.68088E-001	9.37856E-001	3.57780E+000	9	...........
	34	0.466667	9.40649E-001	2.80970E-004	0.00000E+000	2.64294E-004	1.68088E-001	9.40968E-001	3.57780E+000	9	...........
	35	0.48	9.43654E-001	2.80175E-004	0.00000E+000	2.64388E-004	1.68088E-001	9.44003E-001	3.57780E+000	9	...........
	36	0.493333	9.46611E-001	2.81714E-004	0.00000E+000	2.66674E-004	1.68088E-001	9.46924E-001	3.57780E+000	9	...........
	37	0.506667	9.49410E-001	2.79627E-004	0.00000E+000	2.65481E-004	1.68088E-001	9.49729E-001	3.57780E+000	9	...........
	38	0.52	9.52081E-001	2.80892E-004	0.00000E+000	2.67432E-004	1.68088E-001	9.52405E-001	3.57780E+000	9	...........
	39	0.533333	9.54659E-001	2.82789E-004	0.00000E+000	2.69967E-004	1.68088E-001	9.54996E-001	3.57780E+000	9	...........
	40	0.546667	9.57204E-001	2.81761E-004	0.00000E+000	2.69703E-004	1.68088E-001	9.57540E-001	3.57780E+000	9	...........
	41	0.56	9.59672E-001	2.79811E-004	0.00000E+000	2.68527E-004	1.68088E-001	9.60026E-001	3.57780E+000	9	...........
	42	0.573333	9.62001E-001	2.81079E-004	0.00000E+000	2.70399E-004	1.68088E-001	9.62365E-001	3.57780E+000	9	...........
	43	0.586667	9.64280E-001	2.80718E-004	0.00000E+000	2.70691E-004	1.68088E-001	9.64616E-001	3.57780E+000	9	...........
	44	0.6	9.66479E-001	2.82033E-004	0.00000E+000	2.72579E-004	1.68088E-001	9.66851E-001	3.57780E+000	9	...........
	45	0.613333	9.68654E-001	2.80960E-004	0.00000E+000	2.72153E-004	1.68088E-001	9.68991E-001	3.57780E+000	9	...........
	46	0.626667	9.70764E-001	2.81294E-004	0.00000E+000	2.73070E-004	1.68088E-001	9.71123E-001	3.57780E+000	9	...........
	47	0.64	9.72850E-001	2.80039E-004	0.00000E+000	2.72435E-004	1.68088E-001	9.73210E-001	3.57780E+000	9	...........
	48	0.653333	9.74865E-001	2.80965E-004	0.00000E+000	2.73903E-004	1.68088E-001	9.75204E-001	3.57780E+000	9	...........
	49	0.666667	9.76784E-001	2.81229E-004	0.00000E+000	2.74700E-004	1.68088E-001	9.77166E-001	3.57780E+000	9	...........
	50	0.68	9.78708E-001	2.82315E-004	0.00000E+000	2.76304E-004	1.68088E-001	9.79066E-001	3.57780E+000	9	...........
	51	0.693333	9.80573E-001	2.81906E-004	0.00000E+000	2.76429E-004	1.68088E-001	9.80909E-001	3.57780E+000	9	...........
	52	0.706667	9.82390E-001	2.79576E-004	0.00000E+000	2.74652E-004	1.68088E-001	9.82709E-001	3.57780E+000	9	...........
	53	0.72	9.84173E-001	2.81074E-004	0.00000E+000	2.76626E-004	1.68088E-001	9.84496E-001	3.57780E+000	9	...........
	54	0.733333	9.85938E-001	2.81757E-004	0.00000E+000	2.77795E-004	1.68088E-001	9.86261E-001	3.57780E+000	9	...........
	55	0.746667	9.87615E-001	2.81822E-004	0.00000E+000	2.78332E-004	1.68088E-001	9.87957E-001	3.57780E+000	9	...........
	56	0.76	9.89262E-001	2.81667E-004	0.00000E+000	2.78642E-004	1.68088E-001	9.89582E-001	3.57780E+000	9	...........
	57	0.773333	9.90896E-001	2.81584E-004	0.00000E+000	2.79020E-004	1.68088E-001	9.91231E-001	3.57780E+000	9	...........
	58	0.786667	9.92502E-001	2.81195E-004	0.00000E+000	2.79087E-004	1.68088E-001	9.92826E-001	3.57780E+000	9	...........
	59	0.8	9.94034E-001	2.80795E-004	0.00000E+000	2.79120E-004	1.68088E-001	9.94377E-001	3.57780E+000	9	...........
	60	0.813333	9.95589E-001	2.80873E-004	0.00000E+000	2.79634E-004	1.68088E-001	9.95917E-001	3.57780E+000	9	...........
	61	0.826667	9.97104E-001	2.81169E-004	0.00000E+000	2.80355E-004	1.68088E-001	9.97450E-001	3.57780E+000	9	...........
	62	0.84	9.98641E-001	2.81308E-004	0.00000E+000	2.80925E-004	1.68088E-001	9.98981E-001	3.57780E+000	9	...........
	63	0.846667	9.99748E-001	2.80621E-004	0.00000E+000	2.80550E-004	1.68088E-001	1.00005E+000	3.57780E+000	9	...........
STARTTIMEOFFSET	QUANT	1717.602	Start Time Offset (s)
