EXPLAIN
TAG	PWR800_CHARGE
TITLE	LABEL	PWR Cyclic Charge Discharge (Cell) - Charge Step	Test &Identifier
DATE	LABEL	7-7-2017	Date
TIME	LABEL	15:46:19	Time
NOTES	NOTES	3	&Notes...
	supercap test cell
	2.8mg
	6M KOH
PSTAT	PSTAT	IFC5000-01520	Potentiostat
CAPACITY	QUANT	1.00000E-003	Capacity (A-hr)
CELLTYPE	SELECTOR	1	&Cell Type
WORKINGCONNECTION	SELECTOR	0	&Working Lead
MAXCHARGETIME	VARIABLEANDUNITS	1.00000E+002	s	1.00000E+002	second(s)	Max &Charge Time
CHARGECURRENT	QUANT	2.80000E-004	&Charge Current (A) 
VOLTAGEFINISH	TWOPARAM	F	1.00000E-003	3.60000E+003	&Voltage Finish	 I (A) < 	Max Time(s)
SAMPLETIME	QUANT	1.00000E-002	Sa&mple Period (s)
CHARGESTOPAT1	MULTIPARAM	4	1.00000E+000	Charge Stop At &1	Voltage > Limit	V
CHARGESTOPAT2	MULTIPARAM	0	0.00000E+000	Charge Stop At &2	None	N/A
AESBHCSELECTOR	TOGGLE	F	Save Both Half Cells
IRCOMP	TOGGLE	F	IR &Measure
EOC	QUANT	0	Open Circuit (V)
SEQUENCER	TOGGLE	TRUE	Run as Sequence
PSTATMODEL	IQUANT	53	Pstat Model
PSTATSECTION	LABEL	IFC5000-01520	Pstat Section
PSTATSERIALNO	LABEL	01520	Pstat Serial Number
CTRLMODE	IQUANT	0	Control Mode
ELECTROMETER	IQUANT	1	RE=0 or CS=1
IESTAB	IQUANT	0	I/E Stability
CASPEED	IQUANT	4	Control Amp Speed
CONVENTION	IQUANT	1	Current Convention
ICHRANGE	IQUANT	2	Ich Range
ICHRANGEMODE	TOGGLE	T	Ich Auto Range
ICHOFFSETENABLE	TOGGLE	F	Ich Offset Enable
ICHOFFSET	QUANT	0	Ich Offset (V)
ICHFILTER	IQUANT	1	Ich Filter
VCHRANGE	IQUANT	2	Vch Range
VCHRANGEMODE	TOGGLE	T	Vch Auto Range
VCHOFFSETENABLE	TOGGLE	F	Vch Offset Enable
VCHOFFSET	QUANT	0	Vch Offset (V)
VCHFILTER	IQUANT	1	Vch Filter
IERANGELOWERLIMIT	IQUANT	9	I/E Range Lower Limit
IERANGEMODE	TOGGLE	F	I/E AutoRange
IERANGE	IQUANT	9	I/E Range
ACHSELECT	IQUANT	1	Ach Select
ACHRANGE	IQUANT	2	Ach Range
ACHOFFSETENABLE	TOGGLE	F	Ach Offset Enable
ACHOFFSET	QUANT	0	Ach Offset (V)
ACHFILTER	IQUANT	1	Ach Filter
CABLEID	IQUANT	14	Cable ID
DCCALDATE	LABEL	5-7-2017	DC Calibration Date
ACCALDATE	LABEL	12/3/2015	AC Calibration Date
FRAMEWORKVERSION	QUANT	7.01	Framework Version
INSTRUMENTVERSION	LABEL	4.00	Instrument Version
CURVE	TABLE	120
	Pt	T	Vf	Im	Vu	Pwr	Sig	Ach	Temp	IERange	Over
	#	s	V	A	V	W	V	V	deg C	#	bits
	0	0.013333	5.77629E-001	2.80929E-004	0.00000E+000	1.62273E-004	1.68088E-001	5.77872E-001	3.57940E+000	9	...........
	1	0.026667	6.06089E-001	2.80515E-004	0.00000E+000	1.70017E-004	1.68088E-001	6.06351E-001	3.57940E+000	9	...........
	2	0.04	6.30024E-001	2.80836E-004	0.00000E+000	1.76933E-004	1.68088E-001	6.30261E-001	3.57940E+000	9	...........
	3	0.053333	6.50654E-001	2.80409E-004	0.00000E+000	1.82450E-004	1.68088E-001	6.50924E-001	3.57940E+000	9	...........
	4	0.066667	6.68781E-001	2.80717E-004	0.00000E+000	1.87738E-004	1.68088E-001	6.69045E-001	3.57912E+000	9	...........
	5	0.08	6.84895E-001	2.80430E-004	0.00000E+000	1.92065E-004	1.68088E-001	6.85168E-001	3.57830E+000	9	...........
	6	0.093333	6.99391E-001	2.80575E-004	0.00000E+000	1.96232E-004	1.68088E-001	6.99672E-001	3.57830E+000	9	...........
	7	0.106667	7.12549E-001	2.80390E-004	0.00000E+000	1.99791E-004	1.68088E-001	7.12846E-001	3.57830E+000	9	...........
	8	0.12	7.24633E-001	2.81894E-004	0.00000E+000	2.04270E-004	1.68088E-001	7.24896E-001	3.57830E+000	9	...........
	9	0.133333	7.35650E-001	2.81023E-004	0.00000E+000	2.06735E-004	1.68088E-001	7.35951E-001	3.57830E+000	9	...........
	10	0.146667	7.45873E-001	2.81339E-004	0.00000E+000	2.09843E-004	1.68088E-001	7.46174E-001	3.57830E+000	9	...........
	11	0.16	7.55289E-001	2.81177E-004	0.00000E+000	2.12370E-004	1.68088E-001	7.55577E-001	3.57830E+000	9	...........
	12	0.173333	7.64053E-001	2.81439E-004	0.00000E+000	2.15034E-004	1.68088E-001	7.64359E-001	3.57830E+000	9	...........
	13	0.186667	7.72311E-001	2.81069E-004	0.00000E+000	2.17073E-004	1.68088E-001	7.72621E-001	3.57830E+000	9	...........
	14	0.2	7.79971E-001	2.81774E-004	0.00000E+000	2.19776E-004	1.68088E-001	7.80296E-001	3.57830E+000	9	...........
	15	0.213333	7.87199E-001	2.81002E-004	0.00000E+000	2.21205E-004	1.68088E-001	7.87489E-001	3.57830E+000	9	...........
	16	0.226667	7.94004E-001	2.81254E-004	0.00000E+000	2.23317E-004	1.68088E-001	7.94332E-001	3.57830E+000	9	...........
	17	0.24	8.00447E-001	2.81129E-004	0.00000E+000	2.25029E-004	1.68088E-001	8.00752E-001	3.57830E+000	9	...........
	18	0.253333	8.06493E-001	2.81866E-004	0.00000E+000	2.27323E-004	1.68088E-001	8.06820E-001	3.57830E+000	9	...........
	19	0.266667	8.12199E-001	2.81200E-004	0.00000E+000	2.28391E-004	1.68088E-001	8.12513E-001	3.57830E+000	9	...........
	20	0.28	8.17619E-001	2.81701E-004	0.00000E+000	2.30324E-004	1.68088E-001	8.17986E-001	3.57830E+000	9	...........
	21	0.293333	8.22809E-001	2.81415E-004	0.00000E+000	2.31551E-004	1.68088E-001	8.23142E-001	3.57830E+000	9	...........
	22	0.306667	8.27757E-001	2.80769E-004	0.00000E+000	2.32409E-004	1.68088E-001	8.28070E-001	3.57830E+000	9	...........
	23	0.32	8.32389E-001	2.80957E-004	0.00000E+000	2.33866E-004	1.68088E-001	8.32756E-001	3.57830E+000	9	...........
	24	0.333333	8.36867E-001	2.81214E-004	0.00000E+000	2.35339E-004	1.68088E-001	8.37226E-001	3.57830E+000	9	...........
	25	0.346667	8.41182E-001	2.81286E-004	0.00000E+000	2.36613E-004	1.68088E-001	8.41529E-001	3.57830E+000	9	...........
	26	0.36	8.45299E-001	2.80298E-004	0.00000E+000	2.36936E-004	1.68088E-001	8.45654E-001	3.57830E+000	9	...........
	27	0.373333	8.49260E-001	2.81795E-004	0.00000E+000	2.39317E-004	1.68088E-001	8.49617E-001	3.57830E+000	9	...........
	28	0.386667	8.53025E-001	2.81034E-004	0.00000E+000	2.39729E-004	1.68088E-001	8.53371E-001	3.57830E+000	9	...........
	29	0.4	8.56658E-001	2.81619E-004	0.00000E+000	2.41251E-004	1.68088E-001	8.57032E-001	3.57830E+000	9	...........
	30	0.413333	8.60142E-001	2.81202E-004	0.00000E+000	2.41874E-004	1.68088E-001	8.60537E-001	3.57830E+000	9	...........
	31	0.426667	8.63501E-001	2.81488E-004	0.00000E+000	2.43065E-004	1.68088E-001	8.63886E-001	3.57830E+000	9	...........
	32	0.44	8.66748E-001	2.80685E-004	0.00000E+000	2.43283E-004	1.68088E-001	8.67144E-001	3.57830E+000	9	...........
	33	0.453333	8.69939E-001	2.81711E-004	0.00000E+000	2.45071E-004	1.68088E-001	8.70322E-001	3.57830E+000	9	...........
	34	0.466667	8.73002E-001	2.80763E-004	0.00000E+000	2.45106E-004	1.68088E-001	8.73399E-001	3.57830E+000	9	...........
	35	0.48	8.75955E-001	2.80476E-004	0.00000E+000	2.45685E-004	1.68088E-001	8.76346E-001	3.57830E+000	9	...........
	36	0.493333	8.78820E-001	2.80773E-004	0.00000E+000	2.46749E-004	1.68088E-001	8.79181E-001	3.57830E+000	9	...........
	37	0.506667	8.81618E-001	2.81349E-004	0.00000E+000	2.48043E-004	1.68088E-001	8.81994E-001	3.57830E+000	9	...........
	38	0.52	8.84329E-001	2.80901E-004	0.00000E+000	2.48409E-004	1.68088E-001	8.84679E-001	3.57830E+000	9	...........
	39	0.533333	8.86933E-001	2.80432E-004	0.00000E+000	2.48725E-004	1.68088E-001	8.87297E-001	3.57830E+000	9	...........
	40	0.546667	8.89490E-001	2.81173E-004	0.00000E+000	2.50101E-004	1.68088E-001	8.89845E-001	3.57830E+000	9	...........
	41	0.56	8.91994E-001	2.81453E-004	0.00000E+000	2.51055E-004	1.68088E-001	8.92378E-001	3.57830E+000	9	...........
	42	0.573333	8.94410E-001	2.80993E-004	0.00000E+000	2.51323E-004	1.68088E-001	8.94797E-001	3.57830E+000	9	...........
	43	0.586667	8.96810E-001	2.80214E-004	0.00000E+000	2.51298E-004	1.68088E-001	8.97207E-001	3.57830E+000	9	...........
	44	0.6	8.99140E-001	2.81119E-004	0.00000E+000	2.52765E-004	1.68088E-001	8.99520E-001	3.57830E+000	9	...........
	45	0.613333	9.01378E-001	2.81751E-004	0.00000E+000	2.53965E-004	1.68088E-001	9.01784E-001	3.57830E+000	9	...........
	46	0.626667	9.03573E-001	2.80796E-004	0.00000E+000	2.53720E-004	1.68088E-001	9.03965E-001	3.57830E+000	9	...........
	47	0.64	9.05704E-001	2.81229E-004	0.00000E+000	2.54710E-004	1.68088E-001	9.06097E-001	3.57830E+000	9	...........
	48	0.653333	9.07829E-001	2.81649E-004	0.00000E+000	2.55690E-004	1.68088E-001	9.08232E-001	3.57830E+000	9	...........
	49	0.666667	9.09894E-001	2.81577E-004	0.00000E+000	2.56206E-004	1.68088E-001	9.10269E-001	3.57830E+000	9	...........
	50	0.68	9.11943E-001	2.81687E-004	0.00000E+000	2.56882E-004	1.68088E-001	9.12298E-001	3.57830E+000	9	...........
	51	0.693333	9.13927E-001	2.80913E-004	0.00000E+000	2.56734E-004	1.68088E-001	9.14327E-001	3.57830E+000	9	...........
	52	0.706667	9.15874E-001	2.81323E-004	0.00000E+000	2.57657E-004	1.68088E-001	9.16263E-001	3.57830E+000	9	...........
	53	0.72	9.17787E-001	2.81122E-004	0.00000E+000	2.58010E-004	1.68088E-001	9.18163E-001	3.57830E+000	9	...........
	54	0.733333	9.19680E-001	2.81633E-004	0.00000E+000	2.59012E-004	1.68088E-001	9.20029E-001	3.57830E+000	9	...........
	55	0.746667	9.21551E-001	2.81190E-004	0.00000E+000	2.59131E-004	1.68088E-001	9.21872E-001	3.57830E+000	9	...........
	56	0.76	9.23383E-001	2.81521E-004	0.00000E+000	2.59952E-004	1.68088E-001	9.23695E-001	3.57830E+000	9	...........
	57	0.773333	9.25146E-001	2.80771E-004	0.00000E+000	2.59754E-004	1.68088E-001	9.25470E-001	3.57830E+000	9	...........
	58	0.786667	9.26904E-001	2.81026E-004	0.00000E+000	2.60484E-004	1.68088E-001	9.27252E-001	3.57830E+000	9	...........
	59	0.8	9.28618E-001	2.80884E-004	0.00000E+000	2.60834E-004	1.68088E-001	9.28946E-001	3.57830E+000	9	...........
	60	0.813333	9.30279E-001	2.81600E-004	0.00000E+000	2.61967E-004	1.68088E-001	9.30598E-001	3.57830E+000	9	...........
	61	0.826667	9.31907E-001	2.81472E-004	0.00000E+000	2.62306E-004	1.68088E-001	9.32233E-001	3.57830E+000	9	...........
	62	0.84	9.33526E-001	2.80539E-004	0.00000E+000	2.61890E-004	1.68088E-001	9.33877E-001	3.57830E+000	9	...........
	63	0.853333	9.35142E-001	2.81213E-004	0.00000E+000	2.62974E-004	1.68088E-001	9.35490E-001	3.57830E+000	9	...........
	64	0.866667	9.36705E-001	2.80785E-004	0.00000E+000	2.63012E-004	1.68088E-001	9.37075E-001	3.57830E+000	9	...........
	65	0.88	9.38269E-001	2.80542E-004	0.00000E+000	2.63224E-004	1.68088E-001	9.38646E-001	3.57830E+000	9	...........
	66	0.893333	9.39824E-001	2.81118E-004	0.00000E+000	2.64201E-004	1.68088E-001	9.40195E-001	3.57830E+000	9	...........
	67	0.906667	9.41349E-001	2.80379E-004	0.00000E+000	2.63935E-004	1.68088E-001	9.41693E-001	3.57830E+000	9	...........
	68	0.92	9.42802E-001	2.81635E-004	0.00000E+000	2.65526E-004	1.68088E-001	9.43165E-001	3.57830E+000	9	...........
	69	0.933333	9.44238E-001	2.81173E-004	0.00000E+000	2.65494E-004	1.68088E-001	9.44630E-001	3.57830E+000	9	...........
	70	0.946667	9.45687E-001	2.81168E-004	0.00000E+000	2.65897E-004	1.68088E-001	9.46088E-001	3.57830E+000	9	...........
	71	0.96	9.47151E-001	2.81482E-004	0.00000E+000	2.66606E-004	1.68088E-001	9.47529E-001	3.57830E+000	9	...........
	72	0.97333	9.48561E-001	2.82107E-004	0.00000E+000	2.67595E-004	1.68088E-001	9.48928E-001	3.57830E+000	9	...........
	73	0.98667	9.49978E-001	2.81518E-004	0.00000E+000	2.67436E-004	1.68088E-001	9.50340E-001	3.57830E+000	9	...........
	74	1	9.51337E-001	2.81385E-004	0.00000E+000	2.67692E-004	1.68088E-001	9.51716E-001	3.57830E+000	9	...........
	75	1.01333	9.52685E-001	2.80945E-004	0.00000E+000	2.67652E-004	1.68088E-001	9.53076E-001	3.57830E+000	9	...........
	76	1.02667	9.54038E-001	2.80744E-004	0.00000E+000	2.67840E-004	1.68088E-001	9.54399E-001	3.57830E+000	9	...........
	77	1.04	9.55357E-001	2.80818E-004	0.00000E+000	2.68281E-004	1.68088E-001	9.55719E-001	3.57830E+000	9	...........
	78	1.05333	9.56636E-001	2.80666E-004	0.00000E+000	2.68495E-004	1.68088E-001	9.57018E-001	3.57830E+000	9	...........
	79	1.06667	9.57935E-001	2.81269E-004	0.00000E+000	2.69438E-004	1.68088E-001	9.58324E-001	3.57822E+000	9	...........
	80	1.08	9.59226E-001	2.81062E-004	0.00000E+000	2.69602E-004	1.68088E-001	9.59604E-001	3.57800E+000	9	...........
	81	1.09333	9.60509E-001	2.81672E-004	0.00000E+000	2.70549E-004	1.68088E-001	9.60899E-001	3.57800E+000	9	...........
	82	1.10667	9.61776E-001	2.80494E-004	0.00000E+000	2.69772E-004	1.68088E-001	9.62136E-001	3.57800E+000	9	...........
	83	1.12	9.62991E-001	2.80857E-004	0.00000E+000	2.70463E-004	1.68088E-001	9.63376E-001	3.57800E+000	9	...........
	84	1.13333	9.64180E-001	2.80532E-004	0.00000E+000	2.70484E-004	1.68088E-001	9.64561E-001	3.57800E+000	9	...........
	85	1.14667	9.65388E-001	2.80396E-004	0.00000E+000	2.70691E-004	1.68088E-001	9.65758E-001	3.57800E+000	9	...........
	86	1.16	9.66610E-001	2.81502E-004	0.00000E+000	2.72103E-004	1.68088E-001	9.66981E-001	3.57800E+000	9	...........
	87	1.17333	9.67808E-001	2.81617E-004	0.00000E+000	2.72551E-004	1.68088E-001	9.68188E-001	3.57800E+000	9	...........
	88	1.18667	9.68971E-001	2.81142E-004	0.00000E+000	2.72418E-004	1.68088E-001	9.69366E-001	3.57800E+000	9	...........
	89	1.2	9.70129E-001	2.81438E-004	0.00000E+000	2.73031E-004	1.68088E-001	9.70543E-001	3.57800E+000	9	...........
	90	1.21333	9.71250E-001	2.80758E-004	0.00000E+000	2.72687E-004	1.68088E-001	9.71673E-001	3.57800E+000	9	...........
	91	1.22667	9.72397E-001	2.80795E-004	0.00000E+000	2.73044E-004	1.68088E-001	9.72795E-001	3.57800E+000	9	...........
	92	1.24	9.73572E-001	2.81301E-004	0.00000E+000	2.73867E-004	1.68088E-001	9.73905E-001	3.57800E+000	9	...........
	93	1.25333	9.74689E-001	2.81062E-004	0.00000E+000	2.73948E-004	1.68088E-001	9.75024E-001	3.57800E+000	9	...........
	94	1.26667	9.75791E-001	2.81557E-004	0.00000E+000	2.74740E-004	1.68088E-001	9.76131E-001	3.57800E+000	9	...........
	95	1.28	9.76889E-001	2.81841E-004	0.00000E+000	2.75327E-004	1.68088E-001	9.77246E-001	3.57800E+000	9	...........
	96	1.29333	9.77975E-001	2.81372E-004	0.00000E+000	2.75175E-004	1.68088E-001	9.78358E-001	3.57800E+000	9	...........
	97	1.30667	9.79052E-001	2.80070E-004	0.00000E+000	2.74203E-004	1.68088E-001	9.79408E-001	3.57800E+000	9	...........
	98	1.32	9.80127E-001	2.80262E-004	0.00000E+000	2.74692E-004	1.68088E-001	9.80491E-001	3.57800E+000	9	...........
	99	1.33333	9.81164E-001	2.80465E-004	0.00000E+000	2.75182E-004	1.68088E-001	9.81541E-001	3.57800E+000	9	...........
	100	1.34667	9.82217E-001	2.81421E-004	0.00000E+000	2.76417E-004	1.68088E-001	9.82571E-001	3.57800E+000	9	...........
	101	1.36	9.83249E-001	2.81423E-004	0.00000E+000	2.76709E-004	1.68088E-001	9.83616E-001	3.57800E+000	9	...........
	102	1.37333	9.84253E-001	2.81102E-004	0.00000E+000	2.76676E-004	1.68088E-001	9.84670E-001	3.57800E+000	9	...........
	103	1.38667	9.85278E-001	2.80807E-004	0.00000E+000	2.76673E-004	1.68088E-001	9.85662E-001	3.57800E+000	9	...........
	104	1.4	9.86271E-001	2.82029E-004	0.00000E+000	2.78157E-004	1.68088E-001	9.86659E-001	3.57800E+000	9	...........
	105	1.41333	9.87259E-001	2.80567E-004	0.00000E+000	2.76992E-004	1.68088E-001	9.87647E-001	3.57800E+000	9	...........
	106	1.42667	9.88248E-001	2.81753E-004	0.00000E+000	2.78442E-004	1.68088E-001	9.88627E-001	3.57800E+000	9	...........
	107	1.44	9.89232E-001	2.81300E-004	0.00000E+000	2.78271E-004	1.68088E-001	9.89619E-001	3.57800E+000	9	...........
	108	1.45333	9.90214E-001	2.81377E-004	0.00000E+000	2.78624E-004	1.68088E-001	9.90565E-001	3.57800E+000	9	...........
	109	1.46667	9.91150E-001	2.81950E-004	0.00000E+000	2.79455E-004	1.68088E-001	9.91524E-001	3.57800E+000	9	...........
	110	1.48	9.92097E-001	2.81047E-004	0.00000E+000	2.78826E-004	1.68088E-001	9.92455E-001	3.57800E+000	9	...........
	111	1.49333	9.93015E-001	2.80786E-004	0.00000E+000	2.78824E-004	1.68088E-001	9.93374E-001	3.57800E+000	9	...........
	112	1.50667	9.93948E-001	2.80680E-004	0.00000E+000	2.78982E-004	1.68088E-001	9.94314E-001	3.57800E+000	9	...........
	113	1.52	9.94907E-001	2.81597E-004	0.00000E+000	2.80163E-004	1.68088E-001	9.95272E-001	3.57800E+000	9	...........
	114	1.53333	9.95843E-001	2.80523E-004	0.00000E+000	2.79357E-004	1.68088E-001	9.96220E-001	3.57800E+000	9	...........
	115	1.54667	9.96774E-001	2.80673E-004	0.00000E+000	2.79767E-004	1.68088E-001	9.97156E-001	3.57800E+000	9	...........
	116	1.56	9.97681E-001	2.81575E-004	0.00000E+000	2.80922E-004	1.68088E-001	9.98100E-001	3.57800E+000	9	...........
	117	1.57333	9.98595E-001	2.81595E-004	0.00000E+000	2.81200E-004	1.68088E-001	9.98961E-001	3.57800E+000	9	...........
	118	1.58667	9.99491E-001	2.80449E-004	0.00000E+000	2.80306E-004	1.68088E-001	9.99875E-001	3.57800E+000	9	...........
	119	1.58833	1.00001E+000	2.81844E-004	0.00000E+000	2.81846E-004	1.68088E-001	1.00042E+000	3.57800E+000	9	...........
STARTTIMEOFFSET	QUANT	502.815	Start Time Offset (s)
