EXPLAIN
TAG	PWR800_CHARGE
TITLE	LABEL	PWR Cyclic Charge Discharge (Cell) - Charge Step	Test &Identifier
DATE	LABEL	7-7-2017	Date
TIME	LABEL	16:04:28	Time
NOTES	NOTES	3	&Notes...
	supercap test cell
	2.8mg
	6M KOH
PSTAT	PSTAT	IFC5000-01520	Potentiostat
CAPACITY	QUANT	1.00000E-003	Capacity (A-hr)
CELLTYPE	SELECTOR	1	&Cell Type
WORKINGCONNECTION	SELECTOR	0	&Working Lead
MAXCHARGETIME	VARIABLEANDUNITS	1.00000E+002	s	1.00000E+002	second(s)	Max &Charge Time
CHARGECURRENT	QUANT	2.80000E-004	&Charge Current (A) 
VOLTAGEFINISH	TWOPARAM	F	1.00000E-003	3.60000E+003	&Voltage Finish	 I (A) < 	Max Time(s)
SAMPLETIME	QUANT	1.00000E-002	Sa&mple Period (s)
CHARGESTOPAT1	MULTIPARAM	4	1.00000E+000	Charge Stop At &1	Voltage > Limit	V
CHARGESTOPAT2	MULTIPARAM	0	0.00000E+000	Charge Stop At &2	None	N/A
AESBHCSELECTOR	TOGGLE	F	Save Both Half Cells
IRCOMP	TOGGLE	F	IR &Measure
EOC	QUANT	0	Open Circuit (V)
SEQUENCER	TOGGLE	TRUE	Run as Sequence
PSTATMODEL	IQUANT	53	Pstat Model
PSTATSECTION	LABEL	IFC5000-01520	Pstat Section
PSTATSERIALNO	LABEL	01520	Pstat Serial Number
CTRLMODE	IQUANT	0	Control Mode
ELECTROMETER	IQUANT	1	RE=0 or CS=1
IESTAB	IQUANT	0	I/E Stability
CASPEED	IQUANT	4	Control Amp Speed
CONVENTION	IQUANT	1	Current Convention
ICHRANGE	IQUANT	2	Ich Range
ICHRANGEMODE	TOGGLE	T	Ich Auto Range
ICHOFFSETENABLE	TOGGLE	F	Ich Offset Enable
ICHOFFSET	QUANT	0	Ich Offset (V)
ICHFILTER	IQUANT	1	Ich Filter
VCHRANGE	IQUANT	2	Vch Range
VCHRANGEMODE	TOGGLE	T	Vch Auto Range
VCHOFFSETENABLE	TOGGLE	F	Vch Offset Enable
VCHOFFSET	QUANT	0	Vch Offset (V)
VCHFILTER	IQUANT	1	Vch Filter
IERANGELOWERLIMIT	IQUANT	9	I/E Range Lower Limit
IERANGEMODE	TOGGLE	F	I/E AutoRange
IERANGE	IQUANT	9	I/E Range
ACHSELECT	IQUANT	1	Ach Select
ACHRANGE	IQUANT	2	Ach Range
ACHOFFSETENABLE	TOGGLE	F	Ach Offset Enable
ACHOFFSET	QUANT	0	Ach Offset (V)
ACHFILTER	IQUANT	1	Ach Filter
CABLEID	IQUANT	14	Cable ID
DCCALDATE	LABEL	5-7-2017	DC Calibration Date
ACCALDATE	LABEL	12/3/2015	AC Calibration Date
FRAMEWORKVERSION	QUANT	7.01	Framework Version
INSTRUMENTVERSION	LABEL	4.00	Instrument Version
CURVE	TABLE	73
	Pt	T	Vf	Im	Vu	Pwr	Sig	Ach	Temp	IERange	Over
	#	s	V	A	V	W	V	V	deg C	#	bits
	0	0.013333	6.00560E-001	2.80642E-004	0.00000E+000	1.68542E-004	1.68088E-001	6.00836E-001	3.57830E+000	9	...........
	1	0.026667	6.30347E-001	2.79689E-004	0.00000E+000	1.76301E-004	1.68088E-001	6.30597E-001	3.57830E+000	9	...........
	2	0.04	6.55764E-001	2.81133E-004	0.00000E+000	1.84357E-004	1.68088E-001	6.56037E-001	3.57830E+000	9	...........
	3	0.053333	6.78036E-001	2.81402E-004	0.00000E+000	1.90801E-004	1.68088E-001	6.78282E-001	3.57830E+000	9	...........
	4	0.066667	6.97842E-001	2.81334E-004	0.00000E+000	1.96326E-004	1.68088E-001	6.98112E-001	3.57830E+000	9	...........
	5	0.08	7.15657E-001	2.80970E-004	0.00000E+000	2.01078E-004	1.68088E-001	7.15920E-001	3.57830E+000	9	...........
	6	0.093333	7.31844E-001	2.80143E-004	0.00000E+000	2.05021E-004	1.68088E-001	7.32126E-001	3.57830E+000	9	...........
	7	0.106667	7.46664E-001	2.80385E-004	0.00000E+000	2.09354E-004	1.68088E-001	7.46959E-001	3.57830E+000	9	...........
	8	0.12	7.60264E-001	2.80678E-004	0.00000E+000	2.13389E-004	1.68088E-001	7.60556E-001	3.57830E+000	9	...........
	9	0.133333	7.72830E-001	2.82589E-004	0.00000E+000	2.18393E-004	1.68088E-001	7.73139E-001	3.57830E+000	9	...........
	10	0.146667	7.84450E-001	2.81372E-004	0.00000E+000	2.20722E-004	1.68088E-001	7.84737E-001	3.57830E+000	9	...........
	11	0.16	7.95253E-001	2.80717E-004	0.00000E+000	2.23241E-004	1.68088E-001	7.95551E-001	3.57830E+000	9	...........
	12	0.173333	8.05290E-001	2.80111E-004	0.00000E+000	2.25571E-004	1.68088E-001	8.05593E-001	3.57830E+000	9	...........
	13	0.186667	8.14661E-001	2.82130E-004	0.00000E+000	2.29840E-004	1.68088E-001	8.14957E-001	3.57830E+000	9	...........
	14	0.2	8.23448E-001	2.82031E-004	0.00000E+000	2.32238E-004	1.68088E-001	8.23756E-001	3.57830E+000	9	...........
	15	0.213333	8.31635E-001	2.80681E-004	0.00000E+000	2.33424E-004	1.68088E-001	8.31951E-001	3.57830E+000	9	...........
	16	0.226667	8.39334E-001	2.81683E-004	0.00000E+000	2.36426E-004	1.68088E-001	8.39655E-001	3.57830E+000	9	...........
	17	0.24	8.46604E-001	2.81050E-004	0.00000E+000	2.37938E-004	1.68088E-001	8.46902E-001	3.57830E+000	9	...........
	18	0.253333	8.53426E-001	2.80006E-004	0.00000E+000	2.38964E-004	1.68088E-001	8.53744E-001	3.57830E+000	9	...........
	19	0.266667	8.59898E-001	2.80941E-004	0.00000E+000	2.41580E-004	1.68088E-001	8.60222E-001	3.57830E+000	9	...........
	20	0.28	8.65985E-001	2.81036E-004	0.00000E+000	2.43373E-004	1.68088E-001	8.66311E-001	3.57830E+000	9	...........
	21	0.293333	8.71794E-001	2.80359E-004	0.00000E+000	2.44416E-004	1.68088E-001	8.72077E-001	3.57830E+000	9	...........
	22	0.306667	8.77204E-001	2.80004E-004	0.00000E+000	2.45621E-004	1.68088E-001	8.77492E-001	3.57830E+000	9	...........
	23	0.32	8.82363E-001	2.81861E-004	0.00000E+000	2.48703E-004	1.68088E-001	8.82644E-001	3.57830E+000	9	...........
	24	0.333333	8.87286E-001	2.80500E-004	0.00000E+000	2.48884E-004	1.68088E-001	8.87569E-001	3.57830E+000	9	...........
	25	0.346667	8.91937E-001	2.80806E-004	0.00000E+000	2.50462E-004	1.68088E-001	8.92198E-001	3.57830E+000	9	...........
	26	0.36	8.96403E-001	2.81558E-004	0.00000E+000	2.52389E-004	1.68088E-001	8.96697E-001	3.57830E+000	9	...........
	27	0.373333	9.00678E-001	2.81009E-004	0.00000E+000	2.53098E-004	1.68088E-001	9.00963E-001	3.57830E+000	9	...........
	28	0.386667	9.04753E-001	2.81504E-004	0.00000E+000	2.54692E-004	1.68088E-001	9.05052E-001	3.57830E+000	9	...........
	29	0.4	9.08629E-001	2.80748E-004	0.00000E+000	2.55096E-004	1.68088E-001	9.08958E-001	3.57830E+000	9	...........
	30	0.413333	9.12371E-001	2.81220E-004	0.00000E+000	2.56577E-004	1.68088E-001	9.12680E-001	3.57830E+000	9	...........
	31	0.426667	9.15927E-001	2.80851E-004	0.00000E+000	2.57239E-004	1.68088E-001	9.16280E-001	3.57830E+000	9	...........
	32	0.44	9.19394E-001	2.81622E-004	0.00000E+000	2.58922E-004	1.68088E-001	9.19748E-001	3.57830E+000	9	...........
	33	0.453333	9.22776E-001	2.80997E-004	0.00000E+000	2.59297E-004	1.68088E-001	9.23082E-001	3.57830E+000	9	...........
	34	0.466667	9.25936E-001	2.81297E-004	0.00000E+000	2.60463E-004	1.68088E-001	9.26262E-001	3.57830E+000	9	...........
	35	0.48	9.28995E-001	2.80240E-004	0.00000E+000	2.60341E-004	1.68088E-001	9.29327E-001	3.57830E+000	9	...........
	36	0.493333	9.31935E-001	2.81120E-004	0.00000E+000	2.61985E-004	1.68088E-001	9.32267E-001	3.57830E+000	9	...........
	37	0.506667	9.34781E-001	2.81666E-004	0.00000E+000	2.63296E-004	1.68088E-001	9.35130E-001	3.57830E+000	9	...........
	38	0.52	9.37505E-001	2.82719E-004	0.00000E+000	2.65051E-004	1.68088E-001	9.37854E-001	3.57830E+000	9	...........
	39	0.533333	9.40183E-001	2.82031E-004	0.00000E+000	2.65160E-004	1.68088E-001	9.40524E-001	3.57830E+000	9	...........
	40	0.546667	9.42730E-001	2.81340E-004	0.00000E+000	2.65227E-004	1.68088E-001	9.43066E-001	3.57830E+000	9	...........
	41	0.56	9.45188E-001	2.82374E-004	0.00000E+000	2.66897E-004	1.68088E-001	9.45571E-001	3.57830E+000	9	...........
	42	0.573333	9.47650E-001	2.81113E-004	0.00000E+000	2.66397E-004	1.68088E-001	9.48009E-001	3.57830E+000	9	...........
	43	0.586667	9.50024E-001	2.81113E-004	0.00000E+000	2.67064E-004	1.68088E-001	9.50363E-001	3.57830E+000	9	...........
	44	0.6	9.52305E-001	2.80417E-004	0.00000E+000	2.67042E-004	1.68088E-001	9.52664E-001	3.57830E+000	9	...........
	45	0.613333	9.54545E-001	2.81206E-004	0.00000E+000	2.68424E-004	1.68088E-001	9.54908E-001	3.57830E+000	9	...........
	46	0.626667	9.56720E-001	2.80981E-004	0.00000E+000	2.68821E-004	1.68088E-001	9.57090E-001	3.57830E+000	9	...........
	47	0.64	9.58825E-001	2.81319E-004	0.00000E+000	2.69736E-004	1.68088E-001	9.59190E-001	3.57830E+000	9	...........
	48	0.653333	9.60862E-001	2.81219E-004	0.00000E+000	2.70213E-004	1.68088E-001	9.61258E-001	3.57830E+000	9	...........
	49	0.666667	9.62875E-001	2.81487E-004	0.00000E+000	2.71036E-004	1.68088E-001	9.63268E-001	3.57830E+000	9	...........
	50	0.68	9.64813E-001	2.81546E-004	0.00000E+000	2.71639E-004	1.68088E-001	9.65223E-001	3.57830E+000	9	...........
	51	0.693333	9.66736E-001	2.81805E-004	0.00000E+000	2.72431E-004	1.68088E-001	9.67099E-001	3.57830E+000	9	...........
	52	0.706667	9.68581E-001	2.81728E-004	0.00000E+000	2.72877E-004	1.68088E-001	9.68961E-001	3.57830E+000	9	...........
	53	0.72	9.70401E-001	2.82119E-004	0.00000E+000	2.73769E-004	1.68088E-001	9.70799E-001	3.57830E+000	9	...........
	54	0.733333	9.72217E-001	2.80930E-004	0.00000E+000	2.73125E-004	1.68088E-001	9.72620E-001	3.57830E+000	9	...........
	55	0.746667	9.74028E-001	2.81354E-004	0.00000E+000	2.74047E-004	1.68088E-001	9.74383E-001	3.57830E+000	9	...........
	56	0.76	9.75725E-001	2.81045E-004	0.00000E+000	2.74223E-004	1.68088E-001	9.76104E-001	3.57830E+000	9	...........
	57	0.773333	9.77401E-001	2.81355E-004	0.00000E+000	2.74997E-004	1.68088E-001	9.77790E-001	3.57830E+000	9	...........
	58	0.786667	9.79076E-001	2.81508E-004	0.00000E+000	2.75617E-004	1.68088E-001	9.79444E-001	3.57830E+000	9	...........
	59	0.8	9.80679E-001	2.80353E-004	0.00000E+000	2.74936E-004	1.68088E-001	9.81041E-001	3.57843E+000	9	...........
	60	0.813333	9.82262E-001	2.81453E-004	0.00000E+000	2.76461E-004	1.68088E-001	9.82635E-001	3.57880E+000	9	...........
	61	0.826667	9.83828E-001	2.82143E-004	0.00000E+000	2.77580E-004	1.68088E-001	9.84215E-001	3.57880E+000	9	...........
	62	0.84	9.85352E-001	2.81658E-004	0.00000E+000	2.77532E-004	1.68088E-001	9.85747E-001	3.57880E+000	9	...........
	63	0.853333	9.86825E-001	2.81349E-004	0.00000E+000	2.77642E-004	1.68088E-001	9.87234E-001	3.57880E+000	9	...........
	64	0.866667	9.88307E-001	2.81996E-004	0.00000E+000	2.78699E-004	1.68088E-001	9.88717E-001	3.57880E+000	9	...........
	65	0.88	9.89796E-001	2.81261E-004	0.00000E+000	2.78391E-004	1.68088E-001	9.90155E-001	3.57880E+000	9	...........
	66	0.893333	9.91207E-001	2.81524E-004	0.00000E+000	2.79049E-004	1.68088E-001	9.91599E-001	3.57880E+000	9	...........
	67	0.906667	9.92632E-001	2.81115E-004	0.00000E+000	2.79044E-004	1.68088E-001	9.93020E-001	3.57880E+000	9	...........
	68	0.92	9.94025E-001	2.80891E-004	0.00000E+000	2.79212E-004	1.68088E-001	9.94442E-001	3.57880E+000	9	...........
	69	0.933333	9.95434E-001	2.80602E-004	0.00000E+000	2.79321E-004	1.68088E-001	9.95816E-001	3.57880E+000	9	...........
	70	0.946667	9.96804E-001	2.82187E-004	0.00000E+000	2.81285E-004	1.68088E-001	9.97194E-001	3.57880E+000	9	...........
	71	0.96	9.98168E-001	2.81213E-004	0.00000E+000	2.80698E-004	1.68088E-001	9.98519E-001	3.57880E+000	9	...........
	72	0.97333	9.99482E-001	2.80844E-004	0.00000E+000	2.80698E-004	1.68088E-001	9.99849E-001	3.57880E+000	9	...........
STARTTIMEOFFSET	QUANT	1296.625	Start Time Offset (s)
