EXPLAIN
TAG	PWR800_CHARGE
TITLE	LABEL	PWR Cyclic Charge Discharge (Cell) - Charge Step	Test &Identifier
DATE	LABEL	7-7-2017	Date
TIME	LABEL	16:08:13	Time
NOTES	NOTES	3	&Notes...
	supercap test cell
	2.8mg
	6M KOH
PSTAT	PSTAT	IFC5000-01520	Potentiostat
CAPACITY	QUANT	1.00000E-003	Capacity (A-hr)
CELLTYPE	SELECTOR	1	&Cell Type
WORKINGCONNECTION	SELECTOR	0	&Working Lead
MAXCHARGETIME	VARIABLEANDUNITS	1.00000E+002	s	1.00000E+002	second(s)	Max &Charge Time
CHARGECURRENT	QUANT	2.80000E-004	&Charge Current (A) 
VOLTAGEFINISH	TWOPARAM	F	1.00000E-003	3.60000E+003	&Voltage Finish	 I (A) < 	Max Time(s)
SAMPLETIME	QUANT	1.00000E-002	Sa&mple Period (s)
CHARGESTOPAT1	MULTIPARAM	4	1.00000E+000	Charge Stop At &1	Voltage > Limit	V
CHARGESTOPAT2	MULTIPARAM	0	0.00000E+000	Charge Stop At &2	None	N/A
AESBHCSELECTOR	TOGGLE	F	Save Both Half Cells
IRCOMP	TOGGLE	F	IR &Measure
EOC	QUANT	0	Open Circuit (V)
SEQUENCER	TOGGLE	TRUE	Run as Sequence
PSTATMODEL	IQUANT	53	Pstat Model
PSTATSECTION	LABEL	IFC5000-01520	Pstat Section
PSTATSERIALNO	LABEL	01520	Pstat Serial Number
CTRLMODE	IQUANT	0	Control Mode
ELECTROMETER	IQUANT	1	RE=0 or CS=1
IESTAB	IQUANT	0	I/E Stability
CASPEED	IQUANT	4	Control Amp Speed
CONVENTION	IQUANT	1	Current Convention
ICHRANGE	IQUANT	2	Ich Range
ICHRANGEMODE	TOGGLE	T	Ich Auto Range
ICHOFFSETENABLE	TOGGLE	F	Ich Offset Enable
ICHOFFSET	QUANT	0	Ich Offset (V)
ICHFILTER	IQUANT	1	Ich Filter
VCHRANGE	IQUANT	2	Vch Range
VCHRANGEMODE	TOGGLE	T	Vch Auto Range
VCHOFFSETENABLE	TOGGLE	F	Vch Offset Enable
VCHOFFSET	QUANT	0	Vch Offset (V)
VCHFILTER	IQUANT	1	Vch Filter
IERANGELOWERLIMIT	IQUANT	9	I/E Range Lower Limit
IERANGEMODE	TOGGLE	F	I/E AutoRange
IERANGE	IQUANT	9	I/E Range
ACHSELECT	IQUANT	1	Ach Select
ACHRANGE	IQUANT	2	Ach Range
ACHOFFSETENABLE	TOGGLE	F	Ach Offset Enable
ACHOFFSET	QUANT	0	Ach Offset (V)
ACHFILTER	IQUANT	1	Ach Filter
CABLEID	IQUANT	14	Cable ID
DCCALDATE	LABEL	5-7-2017	DC Calibration Date
ACCALDATE	LABEL	12/3/2015	AC Calibration Date
FRAMEWORKVERSION	QUANT	7.01	Framework Version
INSTRUMENTVERSION	LABEL	4.00	Instrument Version
CURVE	TABLE	70
	Pt	T	Vf	Im	Vu	Pwr	Sig	Ach	Temp	IERange	Over
	#	s	V	A	V	W	V	V	deg C	#	bits
	0	0.013333	6.04901E-001	2.80214E-004	0.00000E+000	1.69502E-004	1.68088E-001	6.05145E-001	3.57730E+000	9	...........
	1	0.026667	6.34517E-001	2.80703E-004	0.00000E+000	1.78111E-004	1.68088E-001	6.34719E-001	3.57730E+000	9	...........
	2	0.04	6.59869E-001	2.81400E-004	0.00000E+000	1.85687E-004	1.68088E-001	6.60115E-001	3.57730E+000	9	...........
	3	0.053333	6.82132E-001	2.80999E-004	0.00000E+000	1.91679E-004	1.68088E-001	6.82397E-001	3.57730E+000	9	...........
	4	0.066667	7.01981E-001	2.80520E-004	0.00000E+000	1.96920E-004	1.68088E-001	7.02255E-001	3.57730E+000	9	...........
	5	0.08	7.19922E-001	2.81954E-004	0.00000E+000	2.02985E-004	1.68088E-001	7.20188E-001	3.57730E+000	9	...........
	6	0.093333	7.36204E-001	2.80582E-004	0.00000E+000	2.06566E-004	1.68088E-001	7.36491E-001	3.57730E+000	9	...........
	7	0.106667	7.51092E-001	2.80881E-004	0.00000E+000	2.10968E-004	1.68088E-001	7.51356E-001	3.57730E+000	9	...........
	8	0.12	7.64735E-001	2.80927E-004	0.00000E+000	2.14835E-004	1.68088E-001	7.65046E-001	3.57730E+000	9	...........
	9	0.133333	7.77355E-001	2.82308E-004	0.00000E+000	2.19453E-004	1.68088E-001	7.77642E-001	3.57800E+000	9	...........
	10	0.146667	7.89011E-001	2.81793E-004	0.00000E+000	2.22338E-004	1.68088E-001	7.89324E-001	3.57800E+000	9	...........
	11	0.16	7.99886E-001	2.81304E-004	0.00000E+000	2.25011E-004	1.68088E-001	8.00173E-001	3.57800E+000	9	...........
	12	0.173333	8.09995E-001	2.82260E-004	0.00000E+000	2.28629E-004	1.68088E-001	8.10283E-001	3.57800E+000	9	...........
	13	0.186667	8.19432E-001	2.80874E-004	0.00000E+000	2.30157E-004	1.68088E-001	8.19697E-001	3.57800E+000	9	...........
	14	0.2	8.28259E-001	2.79499E-004	0.00000E+000	2.31497E-004	1.68088E-001	8.28508E-001	3.57800E+000	9	...........
	15	0.213333	8.36497E-001	2.80790E-004	0.00000E+000	2.34880E-004	1.68088E-001	8.36780E-001	3.57800E+000	9	...........
	16	0.226667	8.44238E-001	2.80969E-004	0.00000E+000	2.37205E-004	1.68088E-001	8.44558E-001	3.57800E+000	9	...........
	17	0.24	8.51539E-001	2.81503E-004	0.00000E+000	2.39711E-004	1.68088E-001	8.51846E-001	3.57800E+000	9	...........
	18	0.253333	8.58394E-001	2.80799E-004	0.00000E+000	2.41036E-004	1.68088E-001	8.58718E-001	3.57800E+000	9	...........
	19	0.266667	8.64835E-001	2.81584E-004	0.00000E+000	2.43523E-004	1.68088E-001	8.65183E-001	3.57800E+000	9	...........
	20	0.28	8.70971E-001	2.80831E-004	0.00000E+000	2.44596E-004	1.68088E-001	8.71333E-001	3.57800E+000	9	...........
	21	0.293333	8.76767E-001	2.80408E-004	0.00000E+000	2.45853E-004	1.68088E-001	8.77116E-001	3.57800E+000	9	...........
	22	0.306667	8.82263E-001	2.81366E-004	0.00000E+000	2.48239E-004	1.68088E-001	8.82613E-001	3.57800E+000	9	...........
	23	0.32	8.87423E-001	2.80609E-004	0.00000E+000	2.49019E-004	1.68088E-001	8.87798E-001	3.57800E+000	9	...........
	24	0.333333	8.92329E-001	2.79924E-004	0.00000E+000	2.49784E-004	1.68088E-001	8.92708E-001	3.57800E+000	9	...........
	25	0.346667	8.97037E-001	2.82463E-004	0.00000E+000	2.53380E-004	1.68088E-001	8.97413E-001	3.57800E+000	9	...........
	26	0.36	9.01486E-001	2.81390E-004	0.00000E+000	2.53669E-004	1.68088E-001	9.01884E-001	3.57800E+000	9	...........
	27	0.373333	9.05730E-001	2.81335E-004	0.00000E+000	2.54813E-004	1.68088E-001	9.06155E-001	3.57800E+000	9	...........
	28	0.386667	9.09820E-001	2.79936E-004	0.00000E+000	2.54692E-004	1.68088E-001	9.10180E-001	3.57800E+000	9	...........
	29	0.4	9.13707E-001	2.80182E-004	0.00000E+000	2.56004E-004	1.68088E-001	9.14103E-001	3.57800E+000	9	...........
	30	0.413333	9.17418E-001	2.81332E-004	0.00000E+000	2.58099E-004	1.68088E-001	9.17817E-001	3.57800E+000	9	...........
	31	0.426667	9.21051E-001	2.79993E-004	0.00000E+000	2.57887E-004	1.68088E-001	9.21377E-001	3.57800E+000	9	...........
	32	0.44	9.24494E-001	2.81445E-004	0.00000E+000	2.60194E-004	1.68088E-001	9.24824E-001	3.57800E+000	9	...........
	33	0.453333	9.27764E-001	2.81523E-004	0.00000E+000	2.61187E-004	1.68088E-001	9.28103E-001	3.57800E+000	9	...........
	34	0.466667	9.30957E-001	2.81282E-004	0.00000E+000	2.61861E-004	1.68088E-001	9.31289E-001	3.57800E+000	9	...........
	35	0.48	9.33978E-001	2.79442E-004	0.00000E+000	2.60992E-004	1.68088E-001	9.34363E-001	3.57800E+000	9	...........
	36	0.493333	9.36913E-001	2.82205E-004	0.00000E+000	2.64401E-004	1.68088E-001	9.37311E-001	3.57800E+000	9	...........
	37	0.506667	9.39727E-001	2.80861E-004	0.00000E+000	2.63932E-004	1.68088E-001	9.40121E-001	3.57800E+000	9	...........
	38	0.52	9.42451E-001	2.80557E-004	0.00000E+000	2.64412E-004	1.68088E-001	9.42840E-001	3.57800E+000	9	...........
	39	0.533333	9.45062E-001	2.81030E-004	0.00000E+000	2.65591E-004	1.68088E-001	9.45478E-001	3.57800E+000	9	...........
	40	0.546667	9.47669E-001	2.81616E-004	0.00000E+000	2.66879E-004	1.68088E-001	9.48048E-001	3.57800E+000	9	...........
	41	0.56	9.50153E-001	2.80448E-004	0.00000E+000	2.66468E-004	1.68088E-001	9.50546E-001	3.57800E+000	9	...........
	42	0.573333	9.52582E-001	2.80657E-004	0.00000E+000	2.67349E-004	1.68088E-001	9.52951E-001	3.57800E+000	9	...........
	43	0.586667	9.54943E-001	2.81027E-004	0.00000E+000	2.68365E-004	1.68088E-001	9.55325E-001	3.57800E+000	9	...........
	44	0.6	9.57219E-001	2.81101E-004	0.00000E+000	2.69075E-004	1.68088E-001	9.57601E-001	3.57800E+000	9	...........
	45	0.613333	9.59428E-001	2.81461E-004	0.00000E+000	2.70041E-004	1.68088E-001	9.59825E-001	3.57800E+000	9	...........
	46	0.626667	9.61581E-001	2.81946E-004	0.00000E+000	2.71114E-004	1.68088E-001	9.61975E-001	3.57800E+000	9	...........
	47	0.64	9.63680E-001	2.80891E-004	0.00000E+000	2.70689E-004	1.68088E-001	9.64063E-001	3.57800E+000	9	...........
	48	0.653333	9.65720E-001	2.80081E-004	0.00000E+000	2.70480E-004	1.68088E-001	9.66121E-001	3.57800E+000	9	...........
	49	0.666667	9.67733E-001	2.81133E-004	0.00000E+000	2.72061E-004	1.68088E-001	9.68113E-001	3.57800E+000	9	...........
	50	0.68	9.69689E-001	2.81269E-004	0.00000E+000	2.72743E-004	1.68088E-001	9.70074E-001	3.57800E+000	9	...........
	51	0.693333	9.71584E-001	2.81438E-004	0.00000E+000	2.73441E-004	1.68088E-001	9.71993E-001	3.57800E+000	9	...........
	52	0.706667	9.73511E-001	2.81272E-004	0.00000E+000	2.73822E-004	1.68088E-001	9.73884E-001	3.57800E+000	9	...........
	53	0.72	9.75334E-001	2.81187E-004	0.00000E+000	2.74251E-004	1.68088E-001	9.75700E-001	3.57800E+000	9	...........
	54	0.733333	9.77101E-001	2.80780E-004	0.00000E+000	2.74351E-004	1.68088E-001	9.77450E-001	3.57800E+000	9	...........
	55	0.746667	9.78875E-001	2.81545E-004	0.00000E+000	2.75597E-004	1.68088E-001	9.79171E-001	3.57800E+000	9	...........
	56	0.76	9.80585E-001	2.81042E-004	0.00000E+000	2.75585E-004	1.68088E-001	9.80894E-001	3.57800E+000	9	...........
	57	0.773333	9.82271E-001	2.82025E-004	0.00000E+000	2.77025E-004	1.68088E-001	9.82580E-001	3.57800E+000	9	...........
	58	0.786667	9.83929E-001	2.80293E-004	0.00000E+000	2.75788E-004	1.68088E-001	9.84231E-001	3.57800E+000	9	...........
	59	0.8	9.85557E-001	2.81177E-004	0.00000E+000	2.77116E-004	1.68088E-001	9.85890E-001	3.57800E+000	9	...........
	60	0.813333	9.87158E-001	2.80942E-004	0.00000E+000	2.77334E-004	1.68088E-001	9.87536E-001	3.57800E+000	9	...........
	61	0.826667	9.88767E-001	2.80604E-004	0.00000E+000	2.77452E-004	1.68088E-001	9.89110E-001	3.57800E+000	9	...........
	62	0.84	9.90317E-001	2.81161E-004	0.00000E+000	2.78438E-004	1.68088E-001	9.90675E-001	3.57800E+000	9	...........
	63	0.853333	9.91803E-001	2.81537E-004	0.00000E+000	2.79229E-004	1.68088E-001	9.92165E-001	3.57800E+000	9	...........
	64	0.866667	9.93276E-001	2.80987E-004	0.00000E+000	2.79097E-004	1.68088E-001	9.93664E-001	3.57800E+000	9	...........
	65	0.88	9.94730E-001	2.80479E-004	0.00000E+000	2.79001E-004	1.68088E-001	9.95089E-001	3.57800E+000	9	...........
	66	0.893333	9.96146E-001	2.81823E-004	0.00000E+000	2.80737E-004	1.68088E-001	9.96509E-001	3.57800E+000	9	...........
	67	0.906667	9.97536E-001	2.80619E-004	0.00000E+000	2.79928E-004	1.68088E-001	9.97919E-001	3.57800E+000	9	...........
	68	0.92	9.98917E-001	2.80747E-004	0.00000E+000	2.80443E-004	1.68088E-001	9.99289E-001	3.57800E+000	9	...........
	69	0.925	9.99846E-001	2.81027E-004	0.00000E+000	2.80984E-004	1.68088E-001	1.00020E+000	3.57800E+000	9	...........
STARTTIMEOFFSET	QUANT	1451.682	Start Time Offset (s)
