EXPLAIN
TAG	PWR800_CHARGE
TITLE	LABEL	PWR Cyclic Charge Discharge (Cell) - Charge Step	Test &Identifier
DATE	LABEL	7-7-2017	Date
TIME	LABEL	16:08:31	Time
NOTES	NOTES	3	&Notes...
	supercap test cell
	2.8mg
	6M KOH
PSTAT	PSTAT	IFC5000-01520	Potentiostat
CAPACITY	QUANT	1.00000E-003	Capacity (A-hr)
CELLTYPE	SELECTOR	1	&Cell Type
WORKINGCONNECTION	SELECTOR	0	&Working Lead
MAXCHARGETIME	VARIABLEANDUNITS	1.00000E+002	s	1.00000E+002	second(s)	Max &Charge Time
CHARGECURRENT	QUANT	2.80000E-004	&Charge Current (A) 
VOLTAGEFINISH	TWOPARAM	F	1.00000E-003	3.60000E+003	&Voltage Finish	 I (A) < 	Max Time(s)
SAMPLETIME	QUANT	1.00000E-002	Sa&mple Period (s)
CHARGESTOPAT1	MULTIPARAM	4	1.00000E+000	Charge Stop At &1	Voltage > Limit	V
CHARGESTOPAT2	MULTIPARAM	0	0.00000E+000	Charge Stop At &2	None	N/A
AESBHCSELECTOR	TOGGLE	F	Save Both Half Cells
IRCOMP	TOGGLE	F	IR &Measure
EOC	QUANT	0	Open Circuit (V)
SEQUENCER	TOGGLE	TRUE	Run as Sequence
PSTATMODEL	IQUANT	53	Pstat Model
PSTATSECTION	LABEL	IFC5000-01520	Pstat Section
PSTATSERIALNO	LABEL	01520	Pstat Serial Number
CTRLMODE	IQUANT	0	Control Mode
ELECTROMETER	IQUANT	1	RE=0 or CS=1
IESTAB	IQUANT	0	I/E Stability
CASPEED	IQUANT	4	Control Amp Speed
CONVENTION	IQUANT	1	Current Convention
ICHRANGE	IQUANT	2	Ich Range
ICHRANGEMODE	TOGGLE	T	Ich Auto Range
ICHOFFSETENABLE	TOGGLE	F	Ich Offset Enable
ICHOFFSET	QUANT	0	Ich Offset (V)
ICHFILTER	IQUANT	1	Ich Filter
VCHRANGE	IQUANT	2	Vch Range
VCHRANGEMODE	TOGGLE	T	Vch Auto Range
VCHOFFSETENABLE	TOGGLE	F	Vch Offset Enable
VCHOFFSET	QUANT	0	Vch Offset (V)
VCHFILTER	IQUANT	1	Vch Filter
IERANGELOWERLIMIT	IQUANT	9	I/E Range Lower Limit
IERANGEMODE	TOGGLE	F	I/E AutoRange
IERANGE	IQUANT	9	I/E Range
ACHSELECT	IQUANT	1	Ach Select
ACHRANGE	IQUANT	2	Ach Range
ACHOFFSETENABLE	TOGGLE	F	Ach Offset Enable
ACHOFFSET	QUANT	0	Ach Offset (V)
ACHFILTER	IQUANT	1	Ach Filter
CABLEID	IQUANT	14	Cable ID
DCCALDATE	LABEL	5-7-2017	DC Calibration Date
ACCALDATE	LABEL	12/3/2015	AC Calibration Date
FRAMEWORKVERSION	QUANT	7.01	Framework Version
INSTRUMENTVERSION	LABEL	4.00	Instrument Version
CURVE	TABLE	70
	Pt	T	Vf	Im	Vu	Pwr	Sig	Ach	Temp	IERange	Over
	#	s	V	A	V	W	V	V	deg C	#	bits
	0	0.013333	6.03151E-001	2.80919E-004	0.00000E+000	1.69436E-004	1.68088E-001	6.03377E-001	3.57740E+000	9	...........
	1	0.026667	6.33110E-001	2.81462E-004	0.00000E+000	1.78196E-004	1.68088E-001	6.33319E-001	3.57740E+000	9	...........
	2	0.04	6.58716E-001	2.81180E-004	0.00000E+000	1.85218E-004	1.68088E-001	6.58953E-001	3.57740E+000	9	...........
	3	0.053333	6.81193E-001	2.80816E-004	0.00000E+000	1.91290E-004	1.68088E-001	6.81408E-001	3.57740E+000	9	...........
	4	0.066667	7.01186E-001	2.80406E-004	0.00000E+000	1.96617E-004	1.68088E-001	7.01423E-001	3.57740E+000	9	...........
	5	0.08	7.19221E-001	2.81685E-004	0.00000E+000	2.02594E-004	1.68088E-001	7.19428E-001	3.57740E+000	9	...........
	6	0.093333	7.35570E-001	2.81437E-004	0.00000E+000	2.07016E-004	1.68088E-001	7.35804E-001	3.57740E+000	9	...........
	7	0.106667	7.50533E-001	2.81143E-004	0.00000E+000	2.11007E-004	1.68088E-001	7.50763E-001	3.57740E+000	9	...........
	8	0.12	7.64295E-001	2.81563E-004	0.00000E+000	2.15197E-004	1.68088E-001	7.64536E-001	3.57740E+000	9	...........
	9	0.133333	7.76985E-001	2.81678E-004	0.00000E+000	2.18860E-004	1.68088E-001	7.77221E-001	3.57740E+000	9	...........
	10	0.146667	7.88715E-001	2.80457E-004	0.00000E+000	2.21201E-004	1.68088E-001	7.88959E-001	3.57740E+000	9	...........
	11	0.16	7.99661E-001	2.81012E-004	0.00000E+000	2.24714E-004	1.68088E-001	7.99887E-001	3.57740E+000	9	...........
	12	0.173333	8.09773E-001	2.81507E-004	0.00000E+000	2.27956E-004	1.68088E-001	8.10060E-001	3.57740E+000	9	...........
	13	0.186667	8.19263E-001	2.82235E-004	0.00000E+000	2.31225E-004	1.68088E-001	8.19537E-001	3.57740E+000	9	...........
	14	0.2	8.28128E-001	2.81556E-004	0.00000E+000	2.33164E-004	1.68088E-001	8.28411E-001	3.57740E+000	9	...........
	15	0.213333	8.36436E-001	2.81582E-004	0.00000E+000	2.35525E-004	1.68088E-001	8.36742E-001	3.57771E+000	9	...........
	16	0.226667	8.44198E-001	2.80244E-004	0.00000E+000	2.36581E-004	1.68088E-001	8.44522E-001	3.57790E+000	9	...........
	17	0.24	8.51521E-001	2.81316E-004	0.00000E+000	2.39546E-004	1.68088E-001	8.51843E-001	3.57790E+000	9	...........
	18	0.253333	8.58416E-001	2.81061E-004	0.00000E+000	2.41267E-004	1.68088E-001	8.58732E-001	3.57790E+000	9	...........
	19	0.266667	8.64902E-001	2.80825E-004	0.00000E+000	2.42886E-004	1.68088E-001	8.65229E-001	3.57790E+000	9	...........
	20	0.28	8.71086E-001	2.79996E-004	0.00000E+000	2.43900E-004	1.68088E-001	8.71373E-001	3.57790E+000	9	...........
	21	0.293333	8.76888E-001	2.82034E-004	0.00000E+000	2.47312E-004	1.68088E-001	8.77199E-001	3.57790E+000	9	...........
	22	0.306667	8.82380E-001	2.81506E-004	0.00000E+000	2.48395E-004	1.68088E-001	8.82687E-001	3.57790E+000	9	...........
	23	0.32	8.87567E-001	2.80947E-004	0.00000E+000	2.49359E-004	1.68088E-001	8.87904E-001	3.57790E+000	9	...........
	24	0.333333	8.92515E-001	2.81088E-004	0.00000E+000	2.50875E-004	1.68088E-001	8.92878E-001	3.57790E+000	9	...........
	25	0.346667	8.97257E-001	2.79496E-004	0.00000E+000	2.50779E-004	1.68088E-001	8.97605E-001	3.57790E+000	9	...........
	26	0.36	9.01776E-001	2.81387E-004	0.00000E+000	2.53748E-004	1.68088E-001	9.02125E-001	3.57790E+000	9	...........
	27	0.373333	9.06024E-001	2.79866E-004	0.00000E+000	2.53565E-004	1.68088E-001	9.06390E-001	3.57790E+000	9	...........
	28	0.386667	9.10092E-001	2.80153E-004	0.00000E+000	2.54965E-004	1.68088E-001	9.10429E-001	3.57790E+000	9	...........
	29	0.4	9.13982E-001	2.81223E-004	0.00000E+000	2.57033E-004	1.68088E-001	9.14363E-001	3.57790E+000	9	...........
	30	0.413333	9.17688E-001	2.81408E-004	0.00000E+000	2.58244E-004	1.68088E-001	9.18064E-001	3.57790E+000	9	...........
	31	0.426667	9.21288E-001	2.81538E-004	0.00000E+000	2.59377E-004	1.68088E-001	9.21607E-001	3.57790E+000	9	...........
	32	0.44	9.24696E-001	2.81677E-004	0.00000E+000	2.60466E-004	1.68088E-001	9.25014E-001	3.57790E+000	9	...........
	33	0.453333	9.27992E-001	2.81318E-004	0.00000E+000	2.61061E-004	1.68088E-001	9.28308E-001	3.57790E+000	9	...........
	34	0.466667	9.31153E-001	2.80229E-004	0.00000E+000	2.60936E-004	1.68088E-001	9.31453E-001	3.57790E+000	9	...........
	35	0.48	9.34192E-001	2.82175E-004	0.00000E+000	2.63606E-004	1.68088E-001	9.34523E-001	3.57790E+000	9	...........
	36	0.493333	9.37148E-001	2.80782E-004	0.00000E+000	2.63135E-004	1.68088E-001	9.37443E-001	3.57790E+000	9	...........
	37	0.506667	9.40006E-001	2.81585E-004	0.00000E+000	2.64691E-004	1.68088E-001	9.40300E-001	3.57790E+000	9	...........
	38	0.52	9.42765E-001	2.80641E-004	0.00000E+000	2.64578E-004	1.68088E-001	9.43039E-001	3.57790E+000	9	...........
	39	0.533333	9.45407E-001	2.80330E-004	0.00000E+000	2.65026E-004	1.68088E-001	9.45730E-001	3.57790E+000	9	...........
	40	0.546667	9.48046E-001	2.80676E-004	0.00000E+000	2.66094E-004	1.68088E-001	9.48353E-001	3.57790E+000	9	...........
	41	0.56	9.50579E-001	2.81295E-004	0.00000E+000	2.67393E-004	1.68088E-001	9.50916E-001	3.57790E+000	9	...........
	42	0.573333	9.52952E-001	2.80104E-004	0.00000E+000	2.66926E-004	1.68088E-001	9.53313E-001	3.57790E+000	9	...........
	43	0.586667	9.55274E-001	2.80603E-004	0.00000E+000	2.68053E-004	1.68088E-001	9.55624E-001	3.57790E+000	9	...........
	44	0.6	9.57555E-001	2.80285E-004	0.00000E+000	2.68389E-004	1.68088E-001	9.57891E-001	3.57790E+000	9	...........
	45	0.613333	9.59762E-001	2.81493E-004	0.00000E+000	2.70166E-004	1.68088E-001	9.60150E-001	3.57790E+000	9	...........
	46	0.626667	9.61908E-001	2.81813E-004	0.00000E+000	2.71078E-004	1.68088E-001	9.62281E-001	3.57790E+000	9	...........
	47	0.64	9.63990E-001	2.81666E-004	0.00000E+000	2.71523E-004	1.68088E-001	9.64376E-001	3.57790E+000	9	...........
	48	0.653333	9.66041E-001	2.81471E-004	0.00000E+000	2.71913E-004	1.68088E-001	9.66406E-001	3.57790E+000	9	...........
	49	0.666667	9.68033E-001	2.81988E-004	0.00000E+000	2.72974E-004	1.68088E-001	9.68409E-001	3.57790E+000	9	...........
	50	0.68	9.69970E-001	2.81721E-004	0.00000E+000	2.73261E-004	1.68088E-001	9.70361E-001	3.57790E+000	9	...........
	51	0.693333	9.71892E-001	2.82036E-004	0.00000E+000	2.74108E-004	1.68088E-001	9.72311E-001	3.57790E+000	9	...........
	52	0.706667	9.73773E-001	2.80755E-004	0.00000E+000	2.73392E-004	1.68088E-001	9.74153E-001	3.57790E+000	9	...........
	53	0.72	9.75588E-001	2.81340E-004	0.00000E+000	2.74472E-004	1.68088E-001	9.75953E-001	3.57790E+000	9	...........
	54	0.733333	9.77331E-001	2.80083E-004	0.00000E+000	2.73734E-004	1.68088E-001	9.77716E-001	3.57790E+000	9	...........
	55	0.746667	9.79080E-001	2.80416E-004	0.00000E+000	2.74549E-004	1.68088E-001	9.79446E-001	3.57790E+000	9	...........
	56	0.76	9.80784E-001	2.81724E-004	0.00000E+000	2.76311E-004	1.68088E-001	9.81159E-001	3.57790E+000	9	...........
	57	0.773333	9.82481E-001	2.81416E-004	0.00000E+000	2.76486E-004	1.68088E-001	9.82849E-001	3.57790E+000	9	...........
	58	0.786667	9.84109E-001	2.82160E-004	0.00000E+000	2.77676E-004	1.68088E-001	9.84500E-001	3.57790E+000	9	...........
	59	0.8	9.85726E-001	2.81560E-004	0.00000E+000	2.77541E-004	1.68088E-001	9.86130E-001	3.57790E+000	9	...........
	60	0.813333	9.87294E-001	2.81615E-004	0.00000E+000	2.78037E-004	1.68088E-001	9.87671E-001	3.57790E+000	9	...........
	61	0.826667	9.88814E-001	2.81774E-004	0.00000E+000	2.78622E-004	1.68088E-001	9.89226E-001	3.57790E+000	9	...........
	62	0.84	9.90335E-001	2.81455E-004	0.00000E+000	2.78735E-004	1.68088E-001	9.90757E-001	3.57790E+000	9	...........
	63	0.853333	9.91854E-001	2.80917E-004	0.00000E+000	2.78629E-004	1.68088E-001	9.92237E-001	3.57790E+000	9	...........
	64	0.866667	9.93345E-001	2.81435E-004	0.00000E+000	2.79562E-004	1.68088E-001	9.93737E-001	3.57790E+000	9	...........
	65	0.88	9.94819E-001	2.82163E-004	0.00000E+000	2.80701E-004	1.68088E-001	9.95212E-001	3.57790E+000	9	...........
	66	0.893333	9.96276E-001	2.80916E-004	0.00000E+000	2.79870E-004	1.68088E-001	9.96655E-001	3.57790E+000	9	...........
	67	0.906667	9.97726E-001	2.82203E-004	0.00000E+000	2.81561E-004	1.68088E-001	9.98106E-001	3.57790E+000	9	...........
	68	0.92	9.99121E-001	2.82264E-004	0.00000E+000	2.82016E-004	1.68088E-001	9.99480E-001	3.57790E+000	9	...........
	69	0.923333	9.99981E-001	2.78973E-004	0.00000E+000	2.78967E-004	1.68088E-001	1.00030E+000	3.57790E+000	9	...........
STARTTIMEOFFSET	QUANT	1463.982	Start Time Offset (s)
