EXPLAIN
TAG	PWR800_CHARGE
TITLE	LABEL	PWR Cyclic Charge Discharge (Cell) - Charge Step	Test &Identifier
DATE	LABEL	7-7-2017	Date
TIME	LABEL	16:15:02	Time
NOTES	NOTES	3	&Notes...
	supercap test cell
	2.8mg
	6M KOH
PSTAT	PSTAT	IFC5000-01520	Potentiostat
CAPACITY	QUANT	1.00000E-003	Capacity (A-hr)
CELLTYPE	SELECTOR	1	&Cell Type
WORKINGCONNECTION	SELECTOR	0	&Working Lead
MAXCHARGETIME	VARIABLEANDUNITS	1.00000E+002	s	1.00000E+002	second(s)	Max &Charge Time
CHARGECURRENT	QUANT	2.80000E-004	&Charge Current (A) 
VOLTAGEFINISH	TWOPARAM	F	1.00000E-003	3.60000E+003	&Voltage Finish	 I (A) < 	Max Time(s)
SAMPLETIME	QUANT	1.00000E-002	Sa&mple Period (s)
CHARGESTOPAT1	MULTIPARAM	4	1.00000E+000	Charge Stop At &1	Voltage > Limit	V
CHARGESTOPAT2	MULTIPARAM	0	0.00000E+000	Charge Stop At &2	None	N/A
AESBHCSELECTOR	TOGGLE	F	Save Both Half Cells
IRCOMP	TOGGLE	F	IR &Measure
EOC	QUANT	0	Open Circuit (V)
SEQUENCER	TOGGLE	TRUE	Run as Sequence
PSTATMODEL	IQUANT	53	Pstat Model
PSTATSECTION	LABEL	IFC5000-01520	Pstat Section
PSTATSERIALNO	LABEL	01520	Pstat Serial Number
CTRLMODE	IQUANT	0	Control Mode
ELECTROMETER	IQUANT	1	RE=0 or CS=1
IESTAB	IQUANT	0	I/E Stability
CASPEED	IQUANT	4	Control Amp Speed
CONVENTION	IQUANT	1	Current Convention
ICHRANGE	IQUANT	2	Ich Range
ICHRANGEMODE	TOGGLE	T	Ich Auto Range
ICHOFFSETENABLE	TOGGLE	F	Ich Offset Enable
ICHOFFSET	QUANT	0	Ich Offset (V)
ICHFILTER	IQUANT	1	Ich Filter
VCHRANGE	IQUANT	2	Vch Range
VCHRANGEMODE	TOGGLE	T	Vch Auto Range
VCHOFFSETENABLE	TOGGLE	F	Vch Offset Enable
VCHOFFSET	QUANT	0	Vch Offset (V)
VCHFILTER	IQUANT	1	Vch Filter
IERANGELOWERLIMIT	IQUANT	9	I/E Range Lower Limit
IERANGEMODE	TOGGLE	F	I/E AutoRange
IERANGE	IQUANT	9	I/E Range
ACHSELECT	IQUANT	1	Ach Select
ACHRANGE	IQUANT	2	Ach Range
ACHOFFSETENABLE	TOGGLE	F	Ach Offset Enable
ACHOFFSET	QUANT	0	Ach Offset (V)
ACHFILTER	IQUANT	1	Ach Filter
CABLEID	IQUANT	14	Cable ID
DCCALDATE	LABEL	5-7-2017	DC Calibration Date
ACCALDATE	LABEL	12/3/2015	AC Calibration Date
FRAMEWORKVERSION	QUANT	7.01	Framework Version
INSTRUMENTVERSION	LABEL	4.00	Instrument Version
CURVE	TABLE	64
	Pt	T	Vf	Im	Vu	Pwr	Sig	Ach	Temp	IERange	Over
	#	s	V	A	V	W	V	V	deg C	#	bits
	0	0.013333	6.06997E-001	2.80555E-004	0.00000E+000	1.70296E-004	1.68088E-001	6.07207E-001	3.57750E+000	9	...........
	1	0.026667	6.37153E-001	2.80146E-004	0.00000E+000	1.78496E-004	1.68088E-001	6.37358E-001	3.57750E+000	9	...........
	2	0.04	6.63103E-001	2.81658E-004	0.00000E+000	1.86768E-004	1.68088E-001	6.63314E-001	3.57750E+000	9	...........
	3	0.053333	6.85897E-001	2.80270E-004	0.00000E+000	1.92236E-004	1.68088E-001	6.86114E-001	3.57750E+000	9	...........
	4	0.066667	7.06252E-001	2.81072E-004	0.00000E+000	1.98508E-004	1.68088E-001	7.06489E-001	3.57750E+000	9	...........
	5	0.08	7.24664E-001	2.81334E-004	0.00000E+000	2.03872E-004	1.68088E-001	7.24895E-001	3.57750E+000	9	...........
	6	0.093333	7.41367E-001	2.82203E-004	0.00000E+000	2.09216E-004	1.68088E-001	7.41614E-001	3.57750E+000	9	...........
	7	0.106667	7.56660E-001	2.82265E-004	0.00000E+000	2.13579E-004	1.68088E-001	7.56925E-001	3.57750E+000	9	...........
	8	0.12	7.70725E-001	2.80155E-004	0.00000E+000	2.15923E-004	1.68088E-001	7.70979E-001	3.57750E+000	9	...........
	9	0.133333	7.83709E-001	2.81701E-004	0.00000E+000	2.20772E-004	1.68088E-001	7.83981E-001	3.57750E+000	9	...........
	10	0.146667	7.95739E-001	2.80735E-004	0.00000E+000	2.23391E-004	1.68088E-001	7.96005E-001	3.57750E+000	9	...........
	11	0.16	8.06891E-001	2.80826E-004	0.00000E+000	2.26596E-004	1.68088E-001	8.07142E-001	3.57775E+000	9	...........
	12	0.173333	8.17285E-001	2.80598E-004	0.00000E+000	2.29328E-004	1.68088E-001	8.17570E-001	3.57800E+000	9	...........
	13	0.186667	8.26991E-001	2.80350E-004	0.00000E+000	2.31847E-004	1.68088E-001	8.27252E-001	3.57800E+000	9	...........
	14	0.2	8.36015E-001	2.80479E-004	0.00000E+000	2.34485E-004	1.68088E-001	8.36313E-001	3.57800E+000	9	...........
	15	0.213333	8.44481E-001	2.81434E-004	0.00000E+000	2.37665E-004	1.68088E-001	8.44781E-001	3.57800E+000	9	...........
	16	0.226667	8.52420E-001	2.81120E-004	0.00000E+000	2.39632E-004	1.68088E-001	8.52734E-001	3.57800E+000	9	...........
	17	0.24	8.59877E-001	2.81148E-004	0.00000E+000	2.41753E-004	1.68088E-001	8.60208E-001	3.57800E+000	9	...........
	18	0.253333	8.66896E-001	2.82775E-004	0.00000E+000	2.45136E-004	1.68088E-001	8.67221E-001	3.57800E+000	9	...........
	19	0.266667	8.73499E-001	2.80566E-004	0.00000E+000	2.45074E-004	1.68088E-001	8.73817E-001	3.57800E+000	9	...........
	20	0.28	8.79709E-001	2.80564E-004	0.00000E+000	2.46814E-004	1.68088E-001	8.80016E-001	3.57800E+000	9	...........
	21	0.293333	8.85619E-001	2.81050E-004	0.00000E+000	2.48903E-004	1.68088E-001	8.85933E-001	3.57800E+000	9	...........
	22	0.306667	8.91135E-001	2.80207E-004	0.00000E+000	2.49702E-004	1.68088E-001	8.91442E-001	3.57800E+000	9	...........
	23	0.32	8.96389E-001	2.80061E-004	0.00000E+000	2.51044E-004	1.68088E-001	8.96734E-001	3.57800E+000	9	...........
	24	0.333333	9.01383E-001	2.80911E-004	0.00000E+000	2.53208E-004	1.68088E-001	9.01749E-001	3.57800E+000	9	...........
	25	0.346667	9.06109E-001	2.80890E-004	0.00000E+000	2.54517E-004	1.68088E-001	9.06448E-001	3.57800E+000	9	...........
	26	0.36	9.10600E-001	2.80896E-004	0.00000E+000	2.55784E-004	1.68088E-001	9.10965E-001	3.57800E+000	9	...........
	27	0.373333	9.14913E-001	2.80837E-004	0.00000E+000	2.56941E-004	1.68088E-001	9.15258E-001	3.57800E+000	9	...........
	28	0.386667	9.18999E-001	2.81408E-004	0.00000E+000	2.58613E-004	1.68088E-001	9.19357E-001	3.57800E+000	9	...........
	29	0.4	9.22965E-001	2.81448E-004	0.00000E+000	2.59767E-004	1.68088E-001	9.23287E-001	3.57800E+000	9	...........
	30	0.413333	9.26684E-001	2.81347E-004	0.00000E+000	2.60720E-004	1.68088E-001	9.26969E-001	3.57800E+000	9	...........
	31	0.426667	9.30225E-001	2.81476E-004	0.00000E+000	2.61836E-004	1.68088E-001	9.30525E-001	3.57800E+000	9	...........
	32	0.44	9.33640E-001	2.80940E-004	0.00000E+000	2.62297E-004	1.68088E-001	9.33953E-001	3.57800E+000	9	...........
	33	0.453333	9.36911E-001	2.80543E-004	0.00000E+000	2.62844E-004	1.68088E-001	9.37235E-001	3.57800E+000	9	...........
	34	0.466667	9.40024E-001	2.80594E-004	0.00000E+000	2.63765E-004	1.68088E-001	9.40381E-001	3.57800E+000	9	...........
	35	0.48	9.43071E-001	2.79669E-004	0.00000E+000	2.63747E-004	1.68088E-001	9.43394E-001	3.57800E+000	9	...........
	36	0.493333	9.45981E-001	2.81095E-004	0.00000E+000	2.65911E-004	1.68088E-001	9.46349E-001	3.57800E+000	9	...........
	37	0.506667	9.48828E-001	2.81355E-004	0.00000E+000	2.66958E-004	1.68088E-001	9.49146E-001	3.57800E+000	9	...........
	38	0.52	9.51517E-001	2.80985E-004	0.00000E+000	2.67362E-004	1.68088E-001	9.51870E-001	3.57800E+000	9	...........
	39	0.533333	9.54148E-001	2.80691E-004	0.00000E+000	2.67820E-004	1.68088E-001	9.54466E-001	3.57800E+000	9	...........
	40	0.546667	9.56700E-001	2.82022E-004	0.00000E+000	2.69811E-004	1.68088E-001	9.56993E-001	3.57800E+000	9	...........
	41	0.56	9.59156E-001	2.81858E-004	0.00000E+000	2.70345E-004	1.68088E-001	9.59441E-001	3.57800E+000	9	...........
	42	0.573333	9.61539E-001	2.79996E-004	0.00000E+000	2.69227E-004	1.68088E-001	9.61869E-001	3.57800E+000	9	...........
	43	0.586667	9.63885E-001	2.81334E-004	0.00000E+000	2.71173E-004	1.68088E-001	9.64214E-001	3.57800E+000	9	...........
	44	0.6	9.66117E-001	2.79934E-004	0.00000E+000	2.70449E-004	1.68088E-001	9.66423E-001	3.57800E+000	9	...........
	45	0.613333	9.68299E-001	2.81956E-004	0.00000E+000	2.73017E-004	1.68088E-001	9.68604E-001	3.57800E+000	9	...........
	46	0.626667	9.70399E-001	2.81049E-004	0.00000E+000	2.72730E-004	1.68088E-001	9.70740E-001	3.57800E+000	9	...........
	47	0.64	9.72487E-001	2.80665E-004	0.00000E+000	2.72943E-004	1.68088E-001	9.72834E-001	3.57800E+000	9	...........
	48	0.653333	9.74538E-001	2.80445E-004	0.00000E+000	2.73304E-004	1.68088E-001	9.74871E-001	3.57800E+000	9	...........
	49	0.666667	9.76486E-001	2.80331E-004	0.00000E+000	2.73740E-004	1.68088E-001	9.76811E-001	3.57800E+000	9	...........
	50	0.68	9.78417E-001	2.81290E-004	0.00000E+000	2.75219E-004	1.68088E-001	9.78731E-001	3.57800E+000	9	...........
	51	0.693333	9.80298E-001	2.80527E-004	0.00000E+000	2.75000E-004	1.68088E-001	9.80601E-001	3.57800E+000	9	...........
	52	0.706667	9.82117E-001	2.81384E-004	0.00000E+000	2.76352E-004	1.68088E-001	9.82420E-001	3.57800E+000	9	...........
	53	0.72	9.83894E-001	2.81130E-004	0.00000E+000	2.76602E-004	1.68088E-001	9.84205E-001	3.57800E+000	9	...........
	54	0.733333	9.85652E-001	2.81135E-004	0.00000E+000	2.77101E-004	1.68088E-001	9.85990E-001	3.57800E+000	9	...........
	55	0.746667	9.87349E-001	2.81745E-004	0.00000E+000	2.78181E-004	1.68088E-001	9.87709E-001	3.57800E+000	9	...........
	56	0.76	9.89086E-001	2.80743E-004	0.00000E+000	2.77679E-004	1.68088E-001	9.89392E-001	3.57800E+000	9	...........
	57	0.773333	9.90723E-001	2.82946E-004	0.00000E+000	2.80321E-004	1.68088E-001	9.91057E-001	3.57800E+000	9	...........
	58	0.786667	9.92302E-001	2.79701E-004	0.00000E+000	2.77548E-004	1.68088E-001	9.92638E-001	3.57800E+000	9	...........
	59	0.8	9.93904E-001	2.79741E-004	0.00000E+000	2.78035E-004	1.68088E-001	9.94261E-001	3.57800E+000	9	...........
	60	0.813333	9.95503E-001	2.80907E-004	0.00000E+000	2.79644E-004	1.68088E-001	9.95821E-001	3.57800E+000	9	...........
	61	0.826667	9.97085E-001	2.81488E-004	0.00000E+000	2.80667E-004	1.68088E-001	9.97427E-001	3.57800E+000	9	...........
	62	0.84	9.98546E-001	2.80980E-004	0.00000E+000	2.80572E-004	1.68088E-001	9.98899E-001	3.57800E+000	9	...........
	63	0.848333	9.99754E-001	2.82214E-004	0.00000E+000	2.82145E-004	1.68088E-001	1.00012E+000	3.57800E+000	9	...........
STARTTIMEOFFSET	QUANT	1725.66	Start Time Offset (s)
