EXPLAIN
TAG	PWR800_CHARGE
TITLE	LABEL	PWR Cyclic Charge Discharge (Cell) - Charge Step	Test &Identifier
DATE	LABEL	7-7-2017	Date
TIME	LABEL	15:55:29	Time
NOTES	NOTES	3	&Notes...
	supercap test cell
	2.8mg
	6M KOH
PSTAT	PSTAT	IFC5000-01520	Potentiostat
CAPACITY	QUANT	1.00000E-003	Capacity (A-hr)
CELLTYPE	SELECTOR	1	&Cell Type
WORKINGCONNECTION	SELECTOR	0	&Working Lead
MAXCHARGETIME	VARIABLEANDUNITS	1.00000E+002	s	1.00000E+002	second(s)	Max &Charge Time
CHARGECURRENT	QUANT	2.80000E-004	&Charge Current (A) 
VOLTAGEFINISH	TWOPARAM	F	1.00000E-003	3.60000E+003	&Voltage Finish	 I (A) < 	Max Time(s)
SAMPLETIME	QUANT	1.00000E-002	Sa&mple Period (s)
CHARGESTOPAT1	MULTIPARAM	4	1.00000E+000	Charge Stop At &1	Voltage > Limit	V
CHARGESTOPAT2	MULTIPARAM	0	0.00000E+000	Charge Stop At &2	None	N/A
AESBHCSELECTOR	TOGGLE	F	Save Both Half Cells
IRCOMP	TOGGLE	F	IR &Measure
EOC	QUANT	0	Open Circuit (V)
SEQUENCER	TOGGLE	TRUE	Run as Sequence
PSTATMODEL	IQUANT	53	Pstat Model
PSTATSECTION	LABEL	IFC5000-01520	Pstat Section
PSTATSERIALNO	LABEL	01520	Pstat Serial Number
CTRLMODE	IQUANT	0	Control Mode
ELECTROMETER	IQUANT	1	RE=0 or CS=1
IESTAB	IQUANT	0	I/E Stability
CASPEED	IQUANT	4	Control Amp Speed
CONVENTION	IQUANT	1	Current Convention
ICHRANGE	IQUANT	2	Ich Range
ICHRANGEMODE	TOGGLE	T	Ich Auto Range
ICHOFFSETENABLE	TOGGLE	F	Ich Offset Enable
ICHOFFSET	QUANT	0	Ich Offset (V)
ICHFILTER	IQUANT	1	Ich Filter
VCHRANGE	IQUANT	2	Vch Range
VCHRANGEMODE	TOGGLE	T	Vch Auto Range
VCHOFFSETENABLE	TOGGLE	F	Vch Offset Enable
VCHOFFSET	QUANT	0	Vch Offset (V)
VCHFILTER	IQUANT	1	Vch Filter
IERANGELOWERLIMIT	IQUANT	9	I/E Range Lower Limit
IERANGEMODE	TOGGLE	F	I/E AutoRange
IERANGE	IQUANT	9	I/E Range
ACHSELECT	IQUANT	1	Ach Select
ACHRANGE	IQUANT	2	Ach Range
ACHOFFSETENABLE	TOGGLE	F	Ach Offset Enable
ACHOFFSET	QUANT	0	Ach Offset (V)
ACHFILTER	IQUANT	1	Ach Filter
CABLEID	IQUANT	14	Cable ID
DCCALDATE	LABEL	5-7-2017	DC Calibration Date
ACCALDATE	LABEL	12/3/2015	AC Calibration Date
FRAMEWORKVERSION	QUANT	7.01	Framework Version
INSTRUMENTVERSION	LABEL	4.00	Instrument Version
CURVE	TABLE	89
	Pt	T	Vf	Im	Vu	Pwr	Sig	Ach	Temp	IERange	Over
	#	s	V	A	V	W	V	V	deg C	#	bits
	0	0.013333	5.90590E-001	2.80804E-004	0.00000E+000	1.65840E-004	1.68088E-001	5.90863E-001	3.57870E+000	9	...........
	1	0.026667	6.20023E-001	2.81543E-004	0.00000E+000	1.74563E-004	1.68088E-001	6.20312E-001	3.57870E+000	9	...........
	2	0.04	6.45014E-001	2.81656E-004	0.00000E+000	1.81672E-004	1.68088E-001	6.45286E-001	3.57870E+000	9	...........
	3	0.053333	6.66774E-001	2.80514E-004	0.00000E+000	1.87039E-004	1.68088E-001	6.67047E-001	3.57870E+000	9	...........
	4	0.066667	6.86019E-001	2.81931E-004	0.00000E+000	1.93410E-004	1.68088E-001	6.86295E-001	3.57870E+000	9	...........
	5	0.08	7.03263E-001	2.80546E-004	0.00000E+000	1.97297E-004	1.68088E-001	7.03575E-001	3.57870E+000	9	...........
	6	0.093333	7.18896E-001	2.81300E-004	0.00000E+000	2.02226E-004	1.68088E-001	7.19199E-001	3.57870E+000	9	...........
	7	0.106667	7.33140E-001	2.81345E-004	0.00000E+000	2.06265E-004	1.68088E-001	7.33405E-001	3.57870E+000	9	...........
	8	0.12	7.46180E-001	2.80841E-004	0.00000E+000	2.09558E-004	1.68088E-001	7.46479E-001	3.57870E+000	9	...........
	9	0.133333	7.58243E-001	2.80433E-004	0.00000E+000	2.12637E-004	1.68088E-001	7.58524E-001	3.57870E+000	9	...........
	10	0.146667	7.69376E-001	2.80322E-004	0.00000E+000	2.15673E-004	1.68088E-001	7.69662E-001	3.57870E+000	9	...........
	11	0.16	7.79718E-001	2.81694E-004	0.00000E+000	2.19642E-004	1.68088E-001	7.80006E-001	3.57870E+000	9	...........
	12	0.173333	7.89318E-001	2.80822E-004	0.00000E+000	2.21658E-004	1.68088E-001	7.89607E-001	3.57870E+000	9	...........
	13	0.186667	7.98309E-001	2.80944E-004	0.00000E+000	2.24280E-004	1.68088E-001	7.98594E-001	3.57870E+000	9	...........
	14	0.2	8.06697E-001	2.80219E-004	0.00000E+000	2.26052E-004	1.68088E-001	8.06981E-001	3.57870E+000	9	...........
	15	0.213333	8.14549E-001	2.80482E-004	0.00000E+000	2.28467E-004	1.68088E-001	8.14858E-001	3.57870E+000	9	...........
	16	0.226667	8.21984E-001	2.81706E-004	0.00000E+000	2.31557E-004	1.68088E-001	8.22312E-001	3.57870E+000	9	...........
	17	0.24	8.28928E-001	2.81404E-004	0.00000E+000	2.33264E-004	1.68088E-001	8.29236E-001	3.57870E+000	9	...........
	18	0.253333	8.35490E-001	2.80997E-004	0.00000E+000	2.34770E-004	1.68088E-001	8.35828E-001	3.57870E+000	9	...........
	19	0.266667	8.41701E-001	2.81028E-004	0.00000E+000	2.36542E-004	1.68088E-001	8.42032E-001	3.57870E+000	9	...........
	20	0.28	8.47605E-001	2.81514E-004	0.00000E+000	2.38612E-004	1.68088E-001	8.47951E-001	3.57870E+000	9	...........
	21	0.293333	8.53139E-001	2.80457E-004	0.00000E+000	2.39269E-004	1.68088E-001	8.53472E-001	3.57870E+000	9	...........
	22	0.306667	8.58445E-001	2.82247E-004	0.00000E+000	2.42294E-004	1.68088E-001	8.58764E-001	3.57870E+000	9	...........
	23	0.32	8.63467E-001	2.82033E-004	0.00000E+000	2.43526E-004	1.68088E-001	8.63817E-001	3.57870E+000	9	...........
	24	0.333333	8.68251E-001	2.81446E-004	0.00000E+000	2.44366E-004	1.68088E-001	8.68613E-001	3.57870E+000	9	...........
	25	0.346667	8.72832E-001	2.81631E-004	0.00000E+000	2.45816E-004	1.68088E-001	8.73187E-001	3.57870E+000	9	...........
	26	0.36	8.77201E-001	2.81834E-004	0.00000E+000	2.47225E-004	1.68088E-001	8.77553E-001	3.57870E+000	9	...........
	27	0.373333	8.81383E-001	2.80221E-004	0.00000E+000	2.46982E-004	1.68088E-001	8.81728E-001	3.57870E+000	9	...........
	28	0.386667	8.85357E-001	2.81712E-004	0.00000E+000	2.49416E-004	1.68088E-001	8.85719E-001	3.57870E+000	9	...........
	29	0.4	8.89180E-001	2.80804E-004	0.00000E+000	2.49686E-004	1.68088E-001	8.89532E-001	3.57870E+000	9	...........
	30	0.413333	8.92785E-001	2.81089E-004	0.00000E+000	2.50952E-004	1.68088E-001	8.93143E-001	3.57870E+000	9	...........
	31	0.426667	8.96310E-001	2.81710E-004	0.00000E+000	2.52499E-004	1.68088E-001	8.96689E-001	3.57870E+000	9	...........
	32	0.44	8.99734E-001	2.81054E-004	0.00000E+000	2.52874E-004	1.68088E-001	9.00074E-001	3.57870E+000	9	...........
	33	0.453333	9.03003E-001	2.81295E-004	0.00000E+000	2.54010E-004	1.68088E-001	9.03350E-001	3.57870E+000	9	...........
	34	0.466667	9.06118E-001	2.80660E-004	0.00000E+000	2.54311E-004	1.68088E-001	9.06497E-001	3.57870E+000	9	...........
	35	0.48	9.09156E-001	2.80838E-004	0.00000E+000	2.55325E-004	1.68088E-001	9.09517E-001	3.57870E+000	9	...........
	36	0.493333	9.12099E-001	2.80994E-004	0.00000E+000	2.56294E-004	1.68088E-001	9.12444E-001	3.57870E+000	9	...........
	37	0.506667	9.14921E-001	2.80702E-004	0.00000E+000	2.56820E-004	1.68088E-001	9.15307E-001	3.57870E+000	9	...........
	38	0.52	9.17647E-001	2.81883E-004	0.00000E+000	2.58669E-004	1.68088E-001	9.18030E-001	3.57870E+000	9	...........
	39	0.533333	9.20290E-001	2.81458E-004	0.00000E+000	2.59023E-004	1.68088E-001	9.20643E-001	3.57870E+000	9	...........
	40	0.546667	9.22929E-001	2.80164E-004	0.00000E+000	2.58571E-004	1.68088E-001	9.23227E-001	3.57870E+000	9	...........
	41	0.56	9.25418E-001	2.81004E-004	0.00000E+000	2.60047E-004	1.68088E-001	9.25745E-001	3.57870E+000	9	...........
	42	0.573333	9.27871E-001	2.81401E-004	0.00000E+000	2.61104E-004	1.68088E-001	9.28170E-001	3.57870E+000	9	...........
	43	0.586667	9.30245E-001	2.81698E-004	0.00000E+000	2.62048E-004	1.68088E-001	9.30547E-001	3.57870E+000	9	...........
	44	0.6	9.32542E-001	2.80448E-004	0.00000E+000	2.61530E-004	1.68088E-001	9.32878E-001	3.57870E+000	9	...........
	45	0.613333	9.34793E-001	2.80705E-004	0.00000E+000	2.62401E-004	1.68088E-001	9.35145E-001	3.57870E+000	9	...........
	46	0.626667	9.36985E-001	2.81296E-004	0.00000E+000	2.63570E-004	1.68088E-001	9.37355E-001	3.57870E+000	9	...........
	47	0.64	9.39159E-001	2.82684E-004	0.00000E+000	2.65485E-004	1.68088E-001	9.39516E-001	3.57870E+000	9	...........
	48	0.653333	9.41248E-001	2.81285E-004	0.00000E+000	2.64759E-004	1.68088E-001	9.41575E-001	3.57870E+000	9	...........
	49	0.666667	9.43261E-001	2.81317E-004	0.00000E+000	2.65355E-004	1.68088E-001	9.43593E-001	3.57900E+000	9	...........
	50	0.68	9.45256E-001	2.80326E-004	0.00000E+000	2.64980E-004	1.68088E-001	9.45606E-001	3.57910E+000	9	...........
	51	0.693333	9.47262E-001	2.80216E-004	0.00000E+000	2.65438E-004	1.68088E-001	9.47584E-001	3.57910E+000	9	...........
	52	0.706667	9.49148E-001	2.82195E-004	0.00000E+000	2.67845E-004	1.68088E-001	9.49490E-001	3.57910E+000	9	...........
	53	0.72	9.51008E-001	2.81128E-004	0.00000E+000	2.67355E-004	1.68088E-001	9.51333E-001	3.57910E+000	9	...........
	54	0.733333	9.52836E-001	2.81508E-004	0.00000E+000	2.68231E-004	1.68088E-001	9.53178E-001	3.57910E+000	9	...........
	55	0.746667	9.54610E-001	2.80475E-004	0.00000E+000	2.67744E-004	1.68088E-001	9.54931E-001	3.57910E+000	9	...........
	56	0.76	9.56331E-001	2.81202E-004	0.00000E+000	2.68923E-004	1.68088E-001	9.56668E-001	3.57910E+000	9	...........
	57	0.773333	9.58013E-001	2.81480E-004	0.00000E+000	2.69662E-004	1.68088E-001	9.58353E-001	3.57910E+000	9	...........
	58	0.786667	9.59720E-001	2.80867E-004	0.00000E+000	2.69553E-004	1.68088E-001	9.60058E-001	3.57910E+000	9	...........
	59	0.8	9.61334E-001	2.81364E-004	0.00000E+000	2.70485E-004	1.68088E-001	9.61673E-001	3.57910E+000	9	...........
	60	0.813333	9.62965E-001	2.80915E-004	0.00000E+000	2.70511E-004	1.68088E-001	9.63308E-001	3.57910E+000	9	...........
	61	0.826667	9.64545E-001	2.81759E-004	0.00000E+000	2.71769E-004	1.68088E-001	9.64879E-001	3.57910E+000	9	...........
	62	0.84	9.66060E-001	2.80217E-004	0.00000E+000	2.70706E-004	1.68088E-001	9.66391E-001	3.57910E+000	9	...........
	63	0.853333	9.67565E-001	2.81441E-004	0.00000E+000	2.72312E-004	1.68088E-001	9.67903E-001	3.57910E+000	9	...........
	64	0.866667	9.69053E-001	2.81097E-004	0.00000E+000	2.72398E-004	1.68088E-001	9.69414E-001	3.57910E+000	9	...........
	65	0.88	9.70573E-001	2.81995E-004	0.00000E+000	2.73697E-004	1.68088E-001	9.70953E-001	3.57910E+000	9	...........
	66	0.893333	9.72049E-001	2.80542E-004	0.00000E+000	2.72700E-004	1.68088E-001	9.72419E-001	3.57910E+000	9	...........
	67	0.906667	9.73526E-001	2.82099E-004	0.00000E+000	2.74631E-004	1.68088E-001	9.73848E-001	3.57910E+000	9	...........
	68	0.92	9.74958E-001	2.81399E-004	0.00000E+000	2.74352E-004	1.68088E-001	9.75305E-001	3.57910E+000	9	...........
	69	0.933333	9.76389E-001	2.80715E-004	0.00000E+000	2.74087E-004	1.68088E-001	9.76770E-001	3.57910E+000	9	...........
	70	0.946667	9.77800E-001	2.80644E-004	0.00000E+000	2.74414E-004	1.68088E-001	9.78159E-001	3.57910E+000	9	...........
	71	0.96	9.79198E-001	2.81620E-004	0.00000E+000	2.75762E-004	1.68088E-001	9.79554E-001	3.57910E+000	9	...........
	72	0.97333	9.80554E-001	2.81739E-004	0.00000E+000	2.76260E-004	1.68088E-001	9.80906E-001	3.57910E+000	9	...........
	73	0.98667	9.81883E-001	2.80641E-004	0.00000E+000	2.75556E-004	1.68088E-001	9.82241E-001	3.57910E+000	9	...........
	74	1	9.83167E-001	2.81162E-004	0.00000E+000	2.76429E-004	1.68088E-001	9.83500E-001	3.57910E+000	9	...........
	75	1.01333	9.84440E-001	2.81434E-004	0.00000E+000	2.77055E-004	1.68088E-001	9.84784E-001	3.57910E+000	9	...........
	76	1.02667	9.85763E-001	2.81282E-004	0.00000E+000	2.77277E-004	1.68088E-001	9.86109E-001	3.57910E+000	9	...........
	77	1.04	9.86999E-001	2.81429E-004	0.00000E+000	2.77771E-004	1.68088E-001	9.87340E-001	3.57910E+000	9	...........
	78	1.05333	9.88224E-001	2.80615E-004	0.00000E+000	2.77310E-004	1.68088E-001	9.88596E-001	3.57910E+000	9	...........
	79	1.06667	9.89472E-001	2.82082E-004	0.00000E+000	2.79112E-004	1.68088E-001	9.89851E-001	3.57910E+000	9	...........
	80	1.08	9.90674E-001	2.82532E-004	0.00000E+000	2.79897E-004	1.68088E-001	9.91057E-001	3.57910E+000	9	...........
	81	1.09333	9.91892E-001	2.81390E-004	0.00000E+000	2.79108E-004	1.68088E-001	9.92272E-001	3.57910E+000	9	...........
	82	1.10667	9.93040E-001	2.81269E-004	0.00000E+000	2.79311E-004	1.68088E-001	9.93450E-001	3.57910E+000	9	...........
	83	1.12	9.94193E-001	2.81079E-004	0.00000E+000	2.79447E-004	1.68088E-001	9.94597E-001	3.57910E+000	9	...........
	84	1.13333	9.95363E-001	2.81208E-004	0.00000E+000	2.79904E-004	1.68088E-001	9.95769E-001	3.57910E+000	9	...........
	85	1.14667	9.96507E-001	2.81128E-004	0.00000E+000	2.80146E-004	1.68088E-001	9.96911E-001	3.57910E+000	9	...........
	86	1.16	9.97655E-001	2.81200E-004	0.00000E+000	2.80541E-004	1.68088E-001	9.98079E-001	3.57910E+000	9	...........
	87	1.17333	9.98801E-001	2.80773E-004	0.00000E+000	2.80436E-004	1.68088E-001	9.99195E-001	3.57910E+000	9	...........
	88	1.18333	9.99756E-001	2.81857E-004	0.00000E+000	2.81788E-004	1.68088E-001	1.00018E+000	3.57910E+000	9	...........
STARTTIMEOFFSET	QUANT	915.5318	Start Time Offset (s)
