EXPLAIN
TAG	PWR800_CHARGE
TITLE	LABEL	PWR Cyclic Charge Discharge (Cell) - Charge Step	Test &Identifier
DATE	LABEL	7-7-2017	Date
TIME	LABEL	15:43:57	Time
NOTES	NOTES	3	&Notes...
	supercap test cell
	2.8mg
	6M KOH
PSTAT	PSTAT	IFC5000-01520	Potentiostat
CAPACITY	QUANT	1.00000E-003	Capacity (A-hr)
CELLTYPE	SELECTOR	1	&Cell Type
WORKINGCONNECTION	SELECTOR	0	&Working Lead
MAXCHARGETIME	VARIABLEANDUNITS	1.00000E+002	s	1.00000E+002	second(s)	Max &Charge Time
CHARGECURRENT	QUANT	2.80000E-004	&Charge Current (A) 
VOLTAGEFINISH	TWOPARAM	F	1.00000E-003	3.60000E+003	&Voltage Finish	 I (A) < 	Max Time(s)
SAMPLETIME	QUANT	1.00000E-002	Sa&mple Period (s)
CHARGESTOPAT1	MULTIPARAM	4	1.00000E+000	Charge Stop At &1	Voltage > Limit	V
CHARGESTOPAT2	MULTIPARAM	0	0.00000E+000	Charge Stop At &2	None	N/A
AESBHCSELECTOR	TOGGLE	F	Save Both Half Cells
IRCOMP	TOGGLE	F	IR &Measure
EOC	QUANT	0	Open Circuit (V)
SEQUENCER	TOGGLE	TRUE	Run as Sequence
PSTATMODEL	IQUANT	53	Pstat Model
PSTATSECTION	LABEL	IFC5000-01520	Pstat Section
PSTATSERIALNO	LABEL	01520	Pstat Serial Number
CTRLMODE	IQUANT	0	Control Mode
ELECTROMETER	IQUANT	1	RE=0 or CS=1
IESTAB	IQUANT	0	I/E Stability
CASPEED	IQUANT	4	Control Amp Speed
CONVENTION	IQUANT	1	Current Convention
ICHRANGE	IQUANT	2	Ich Range
ICHRANGEMODE	TOGGLE	T	Ich Auto Range
ICHOFFSETENABLE	TOGGLE	F	Ich Offset Enable
ICHOFFSET	QUANT	0	Ich Offset (V)
ICHFILTER	IQUANT	1	Ich Filter
VCHRANGE	IQUANT	2	Vch Range
VCHRANGEMODE	TOGGLE	T	Vch Auto Range
VCHOFFSETENABLE	TOGGLE	F	Vch Offset Enable
VCHOFFSET	QUANT	0	Vch Offset (V)
VCHFILTER	IQUANT	1	Vch Filter
IERANGELOWERLIMIT	IQUANT	9	I/E Range Lower Limit
IERANGEMODE	TOGGLE	F	I/E AutoRange
IERANGE	IQUANT	9	I/E Range
ACHSELECT	IQUANT	1	Ach Select
ACHRANGE	IQUANT	2	Ach Range
ACHOFFSETENABLE	TOGGLE	F	Ach Offset Enable
ACHOFFSET	QUANT	0	Ach Offset (V)
ACHFILTER	IQUANT	1	Ach Filter
CABLEID	IQUANT	14	Cable ID
DCCALDATE	LABEL	5-7-2017	DC Calibration Date
ACCALDATE	LABEL	12/3/2015	AC Calibration Date
FRAMEWORKVERSION	QUANT	7.01	Framework Version
INSTRUMENTVERSION	LABEL	4.00	Instrument Version
CURVE	TABLE	132
	Pt	T	Vf	Im	Vu	Pwr	Sig	Ach	Temp	IERange	Over
	#	s	V	A	V	W	V	V	deg C	#	bits
	0	0.013333	5.71115E-001	2.80675E-004	0.00000E+000	1.60298E-004	1.68088E-001	5.71382E-001	3.57840E+000	9	...........
	1	0.026667	5.99489E-001	2.81429E-004	0.00000E+000	1.68714E-004	1.68088E-001	5.99746E-001	3.57840E+000	9	...........
	2	0.04	6.23233E-001	2.81647E-004	0.00000E+000	1.75532E-004	1.68088E-001	6.23511E-001	3.57840E+000	9	...........
	3	0.053333	6.43644E-001	2.80600E-004	0.00000E+000	1.80607E-004	1.68088E-001	6.43931E-001	3.57840E+000	9	...........
	4	0.066667	6.61526E-001	2.81414E-004	0.00000E+000	1.86163E-004	1.68088E-001	6.61835E-001	3.57840E+000	9	...........
	5	0.08	6.77433E-001	2.80681E-004	0.00000E+000	1.90143E-004	1.68088E-001	6.77725E-001	3.57840E+000	9	...........
	6	0.093333	6.91680E-001	2.80303E-004	0.00000E+000	1.93880E-004	1.68088E-001	6.91982E-001	3.57840E+000	9	...........
	7	0.106667	7.04579E-001	2.81360E-004	0.00000E+000	1.98240E-004	1.68088E-001	7.04895E-001	3.57840E+000	9	...........
	8	0.12	7.16364E-001	2.81520E-004	0.00000E+000	2.01671E-004	1.68088E-001	7.16653E-001	3.57840E+000	9	...........
	9	0.133333	7.27205E-001	2.81210E-004	0.00000E+000	2.04497E-004	1.68088E-001	7.27466E-001	3.57840E+000	9	...........
	10	0.146667	7.37139E-001	2.81395E-004	0.00000E+000	2.07427E-004	1.68088E-001	7.37410E-001	3.57840E+000	9	...........
	11	0.16	7.46382E-001	2.81864E-004	0.00000E+000	2.10378E-004	1.68088E-001	7.46676E-001	3.57840E+000	9	...........
	12	0.173333	7.54913E-001	2.80588E-004	0.00000E+000	2.11819E-004	1.68088E-001	7.55204E-001	3.57840E+000	9	...........
	13	0.186667	7.62867E-001	2.81052E-004	0.00000E+000	2.14406E-004	1.68088E-001	7.63185E-001	3.57840E+000	9	...........
	14	0.2	7.70347E-001	2.81274E-004	0.00000E+000	2.16679E-004	1.68088E-001	7.70664E-001	3.57840E+000	9	...........
	15	0.213333	7.77385E-001	2.81746E-004	0.00000E+000	2.19025E-004	1.68088E-001	7.77685E-001	3.57840E+000	9	...........
	16	0.226667	7.84009E-001	2.81140E-004	0.00000E+000	2.20416E-004	1.68088E-001	7.84291E-001	3.57840E+000	9	...........
	17	0.24	7.90236E-001	2.81026E-004	0.00000E+000	2.22077E-004	1.68088E-001	7.90516E-001	3.57840E+000	9	...........
	18	0.253333	7.96179E-001	2.81198E-004	0.00000E+000	2.23884E-004	1.68088E-001	7.96441E-001	3.57840E+000	9	...........
	19	0.266667	8.01738E-001	2.80848E-004	0.00000E+000	2.25167E-004	1.68088E-001	8.02028E-001	3.57840E+000	9	...........
	20	0.28	8.07003E-001	2.81521E-004	0.00000E+000	2.27189E-004	1.68088E-001	8.07310E-001	3.57840E+000	9	...........
	21	0.293333	8.12064E-001	2.81214E-004	0.00000E+000	2.28364E-004	1.68088E-001	8.12347E-001	3.57840E+000	9	...........
	22	0.306667	8.16892E-001	2.81886E-004	0.00000E+000	2.30270E-004	1.68088E-001	8.17207E-001	3.57840E+000	9	...........
	23	0.32	8.21543E-001	2.81217E-004	0.00000E+000	2.31032E-004	1.68088E-001	8.21851E-001	3.57840E+000	9	...........
	24	0.333333	8.25962E-001	2.82022E-004	0.00000E+000	2.32940E-004	1.68088E-001	8.26285E-001	3.57840E+000	9	...........
	25	0.346667	8.30137E-001	2.80894E-004	0.00000E+000	2.33180E-004	1.68088E-001	8.30471E-001	3.57840E+000	9	...........
	26	0.36	8.34145E-001	2.80945E-004	0.00000E+000	2.34349E-004	1.68088E-001	8.34496E-001	3.57840E+000	9	...........
	27	0.373333	8.38001E-001	2.81790E-004	0.00000E+000	2.36140E-004	1.68088E-001	8.38362E-001	3.57840E+000	9	...........
	28	0.386667	8.41745E-001	2.81516E-004	0.00000E+000	2.36965E-004	1.68088E-001	8.42112E-001	3.57840E+000	9	...........
	29	0.4	8.45393E-001	2.80514E-004	0.00000E+000	2.37144E-004	1.68088E-001	8.45739E-001	3.57840E+000	9	...........
	30	0.413333	8.48858E-001	2.80630E-004	0.00000E+000	2.38215E-004	1.68088E-001	8.49217E-001	3.57840E+000	9	...........
	31	0.426667	8.52215E-001	2.81252E-004	0.00000E+000	2.39687E-004	1.68088E-001	8.52552E-001	3.57840E+000	9	...........
	32	0.44	8.55456E-001	2.80964E-004	0.00000E+000	2.40352E-004	1.68088E-001	8.55816E-001	3.57840E+000	9	...........
	33	0.453333	8.58590E-001	2.80761E-004	0.00000E+000	2.41058E-004	1.68088E-001	8.58957E-001	3.57840E+000	9	...........
	34	0.466667	8.61644E-001	2.81715E-004	0.00000E+000	2.42738E-004	1.68088E-001	8.61944E-001	3.57840E+000	9	...........
	35	0.48	8.64535E-001	2.81157E-004	0.00000E+000	2.43070E-004	1.68088E-001	8.64852E-001	3.57840E+000	9	...........
	36	0.493333	8.67390E-001	2.81681E-004	0.00000E+000	2.44327E-004	1.68088E-001	8.67673E-001	3.57840E+000	9	...........
	37	0.506667	8.70169E-001	2.81482E-004	0.00000E+000	2.44937E-004	1.68088E-001	8.70471E-001	3.57840E+000	9	...........
	38	0.52	8.72809E-001	2.80149E-004	0.00000E+000	2.44517E-004	1.68088E-001	8.73118E-001	3.57855E+000	9	...........
	39	0.533333	8.75392E-001	2.80926E-004	0.00000E+000	2.45921E-004	1.68088E-001	8.75736E-001	3.57870E+000	9	...........
	40	0.546667	8.77956E-001	2.81368E-004	0.00000E+000	2.47029E-004	1.68088E-001	8.78294E-001	3.57870E+000	9	...........
	41	0.56	8.80391E-001	2.80530E-004	0.00000E+000	2.46976E-004	1.68088E-001	8.80763E-001	3.57870E+000	9	...........
	42	0.573333	8.82867E-001	2.81362E-004	0.00000E+000	2.48405E-004	1.68088E-001	8.83224E-001	3.57870E+000	9	...........
	43	0.586667	8.85200E-001	2.81728E-004	0.00000E+000	2.49386E-004	1.68088E-001	8.85547E-001	3.57870E+000	9	...........
	44	0.6	8.87491E-001	2.80608E-004	0.00000E+000	2.49037E-004	1.68088E-001	8.87830E-001	3.57870E+000	9	...........
	45	0.613333	8.89735E-001	2.81269E-004	0.00000E+000	2.50255E-004	1.68088E-001	8.90057E-001	3.57870E+000	9	...........
	46	0.626667	8.91950E-001	2.80806E-004	0.00000E+000	2.50465E-004	1.68088E-001	8.92286E-001	3.57870E+000	9	...........
	47	0.64	8.94101E-001	2.81161E-004	0.00000E+000	2.51386E-004	1.68088E-001	8.94490E-001	3.57870E+000	9	...........
	48	0.653333	8.96249E-001	2.81082E-004	0.00000E+000	2.51920E-004	1.68088E-001	8.96635E-001	3.57870E+000	9	...........
	49	0.666667	8.98325E-001	2.80788E-004	0.00000E+000	2.52238E-004	1.68088E-001	8.98713E-001	3.57870E+000	9	...........
	50	0.68	9.00365E-001	2.81057E-004	0.00000E+000	2.53054E-004	1.68088E-001	9.00742E-001	3.57870E+000	9	...........
	51	0.693333	9.02389E-001	2.81372E-004	0.00000E+000	2.53907E-004	1.68088E-001	9.02758E-001	3.57870E+000	9	...........
	52	0.706667	9.04324E-001	2.80554E-004	0.00000E+000	2.53712E-004	1.68088E-001	9.04684E-001	3.57870E+000	9	...........
	53	0.72	9.06256E-001	2.81233E-004	0.00000E+000	2.54869E-004	1.68088E-001	9.06614E-001	3.57870E+000	9	...........
	54	0.733333	9.08135E-001	2.80379E-004	0.00000E+000	2.54622E-004	1.68088E-001	9.08504E-001	3.57870E+000	9	...........
	55	0.746667	9.10010E-001	2.81681E-004	0.00000E+000	2.56332E-004	1.68088E-001	9.10363E-001	3.57870E+000	9	...........
	56	0.76	9.11813E-001	2.80802E-004	0.00000E+000	2.56039E-004	1.68088E-001	9.12177E-001	3.57870E+000	9	...........
	57	0.773333	9.13589E-001	2.81353E-004	0.00000E+000	2.57041E-004	1.68088E-001	9.13987E-001	3.57870E+000	9	...........
	58	0.786667	9.15350E-001	2.80968E-004	0.00000E+000	2.57184E-004	1.68088E-001	9.15759E-001	3.57870E+000	9	...........
	59	0.8	9.17094E-001	2.81527E-004	0.00000E+000	2.58187E-004	1.68088E-001	9.17500E-001	3.57870E+000	9	...........
	60	0.813333	9.18766E-001	2.80498E-004	0.00000E+000	2.57712E-004	1.68088E-001	9.19167E-001	3.57870E+000	9	...........
	61	0.826667	9.20439E-001	2.80399E-004	0.00000E+000	2.58090E-004	1.68088E-001	9.20829E-001	3.57870E+000	9	...........
	62	0.84	9.22125E-001	2.81093E-004	0.00000E+000	2.59203E-004	1.68088E-001	9.22473E-001	3.57870E+000	9	...........
	63	0.853333	9.23747E-001	2.81645E-004	0.00000E+000	2.60169E-004	1.68088E-001	9.24097E-001	3.57870E+000	9	...........
	64	0.866667	9.25360E-001	2.80540E-004	0.00000E+000	2.59600E-004	1.68088E-001	9.25710E-001	3.57870E+000	9	...........
	65	0.88	9.26957E-001	2.80873E-004	0.00000E+000	2.60357E-004	1.68088E-001	9.27305E-001	3.57870E+000	9	...........
	66	0.893333	9.28521E-001	2.80964E-004	0.00000E+000	2.60881E-004	1.68088E-001	9.28854E-001	3.57870E+000	9	...........
	67	0.906667	9.30060E-001	2.81379E-004	0.00000E+000	2.61700E-004	1.68088E-001	9.30408E-001	3.57870E+000	9	...........
	68	0.92	9.31549E-001	2.82219E-004	0.00000E+000	2.62901E-004	1.68088E-001	9.31921E-001	3.57870E+000	9	...........
	69	0.933333	9.33046E-001	2.81418E-004	0.00000E+000	2.62576E-004	1.68088E-001	9.33422E-001	3.57870E+000	9	...........
	70	0.946667	9.34526E-001	2.81450E-004	0.00000E+000	2.63022E-004	1.68088E-001	9.34908E-001	3.57870E+000	9	...........
	71	0.96	9.35937E-001	2.81119E-004	0.00000E+000	2.63110E-004	1.68088E-001	9.36345E-001	3.57870E+000	9	...........
	72	0.97333	9.37373E-001	2.81678E-004	0.00000E+000	2.64038E-004	1.68088E-001	9.37765E-001	3.57870E+000	9	...........
	73	0.98667	9.38757E-001	2.81067E-004	0.00000E+000	2.63854E-004	1.68088E-001	9.39143E-001	3.57870E+000	9	...........
	74	1	9.40116E-001	2.81342E-004	0.00000E+000	2.64494E-004	1.68088E-001	9.40509E-001	3.57870E+000	9	...........
	75	1.01333	9.41456E-001	2.80832E-004	0.00000E+000	2.64391E-004	1.68088E-001	9.41829E-001	3.57870E+000	9	...........
	76	1.02667	9.42770E-001	2.81781E-004	0.00000E+000	2.65654E-004	1.68088E-001	9.43143E-001	3.57870E+000	9	...........
	77	1.04	9.44068E-001	2.80873E-004	0.00000E+000	2.65163E-004	1.68088E-001	9.44453E-001	3.57870E+000	9	...........
	78	1.05333	9.45431E-001	2.81502E-004	0.00000E+000	2.66141E-004	1.68088E-001	9.45819E-001	3.57870E+000	9	...........
	79	1.06667	9.46786E-001	2.80820E-004	0.00000E+000	2.65877E-004	1.68088E-001	9.47160E-001	3.57870E+000	9	...........
	80	1.08	9.48088E-001	2.81173E-004	0.00000E+000	2.66577E-004	1.68088E-001	9.48441E-001	3.57870E+000	9	...........
	81	1.09333	9.49370E-001	2.81475E-004	0.00000E+000	2.67224E-004	1.68088E-001	9.49715E-001	3.57870E+000	9	...........
	82	1.10667	9.50638E-001	2.80737E-004	0.00000E+000	2.66879E-004	1.68088E-001	9.50988E-001	3.57870E+000	9	...........
	83	1.12	9.51911E-001	2.81093E-004	0.00000E+000	2.67575E-004	1.68088E-001	9.52265E-001	3.57870E+000	9	...........
	84	1.13333	9.53165E-001	2.80491E-004	0.00000E+000	2.67354E-004	1.68088E-001	9.53490E-001	3.57870E+000	9	...........
	85	1.14667	9.54385E-001	2.80812E-004	0.00000E+000	2.68002E-004	1.68088E-001	9.54734E-001	3.57870E+000	9	...........
	86	1.16	9.55585E-001	2.81311E-004	0.00000E+000	2.68816E-004	1.68088E-001	9.55924E-001	3.57870E+000	9	...........
	87	1.17333	9.56766E-001	2.81635E-004	0.00000E+000	2.69459E-004	1.68088E-001	9.57144E-001	3.57870E+000	9	...........
	88	1.18667	9.57983E-001	2.80694E-004	0.00000E+000	2.68900E-004	1.68088E-001	9.58343E-001	3.57870E+000	9	...........
	89	1.2	9.59177E-001	2.81016E-004	0.00000E+000	2.69544E-004	1.68088E-001	9.59589E-001	3.57870E+000	9	...........
	90	1.21333	9.60385E-001	2.81334E-004	0.00000E+000	2.70189E-004	1.68088E-001	9.60761E-001	3.57870E+000	9	...........
	91	1.22667	9.61527E-001	2.80714E-004	0.00000E+000	2.69914E-004	1.68088E-001	9.61923E-001	3.57870E+000	9	...........
	92	1.24	9.62660E-001	2.81035E-004	0.00000E+000	2.70541E-004	1.68088E-001	9.63064E-001	3.57870E+000	9	...........
	93	1.25333	9.63781E-001	2.81514E-004	0.00000E+000	2.71318E-004	1.68088E-001	9.64170E-001	3.57870E+000	9	...........
	94	1.26667	9.64868E-001	2.82033E-004	0.00000E+000	2.72124E-004	1.68088E-001	9.65289E-001	3.57870E+000	9	...........
	95	1.28	9.66007E-001	2.80995E-004	0.00000E+000	2.71443E-004	1.68088E-001	9.66404E-001	3.57870E+000	9	...........
	96	1.29333	9.67139E-001	2.81138E-004	0.00000E+000	2.71899E-004	1.68088E-001	9.67536E-001	3.57870E+000	9	...........
	97	1.30667	9.68206E-001	2.82004E-004	0.00000E+000	2.73037E-004	1.68088E-001	9.68608E-001	3.57870E+000	9	...........
	98	1.32	9.69262E-001	2.80662E-004	0.00000E+000	2.72035E-004	1.68088E-001	9.69664E-001	3.57870E+000	9	...........
	99	1.33333	9.70358E-001	2.81805E-004	0.00000E+000	2.73451E-004	1.68088E-001	9.70798E-001	3.57870E+000	9	...........
	100	1.34667	9.71405E-001	2.81534E-004	0.00000E+000	2.73483E-004	1.68088E-001	9.71901E-001	3.57870E+000	9	...........
	101	1.36	9.72523E-001	2.81802E-004	0.00000E+000	2.74059E-004	1.68088E-001	9.72971E-001	3.57870E+000	9	...........
	102	1.37333	9.73565E-001	2.81189E-004	0.00000E+000	2.73756E-004	1.68088E-001	9.73968E-001	3.57870E+000	9	...........
	103	1.38667	9.74612E-001	2.81379E-004	0.00000E+000	2.74236E-004	1.68088E-001	9.75024E-001	3.57870E+000	9	...........
	104	1.4	9.75611E-001	2.80940E-004	0.00000E+000	2.74088E-004	1.68088E-001	9.76013E-001	3.57870E+000	9	...........
	105	1.41333	9.76632E-001	2.81234E-004	0.00000E+000	2.74662E-004	1.68088E-001	9.77031E-001	3.57870E+000	9	...........
	106	1.42667	9.77645E-001	2.80950E-004	0.00000E+000	2.74670E-004	1.68088E-001	9.78058E-001	3.57870E+000	9	...........
	107	1.44	9.78653E-001	2.80738E-004	0.00000E+000	2.74745E-004	1.68088E-001	9.79030E-001	3.57870E+000	9	...........
	108	1.45333	9.79634E-001	2.81143E-004	0.00000E+000	2.75417E-004	1.68088E-001	9.80006E-001	3.57870E+000	9	...........
	109	1.46667	9.80604E-001	2.81543E-004	0.00000E+000	2.76082E-004	1.68088E-001	9.80974E-001	3.57870E+000	9	...........
	110	1.48	9.81584E-001	2.80726E-004	0.00000E+000	2.75556E-004	1.68088E-001	9.81943E-001	3.57870E+000	9	...........
	111	1.49333	9.82562E-001	2.81119E-004	0.00000E+000	2.76217E-004	1.68088E-001	9.82932E-001	3.57870E+000	9	...........
	112	1.50667	9.83482E-001	2.81080E-004	0.00000E+000	2.76438E-004	1.68088E-001	9.83870E-001	3.57870E+000	9	...........
	113	1.52	9.84429E-001	2.81119E-004	0.00000E+000	2.76742E-004	1.68088E-001	9.84829E-001	3.57835E+000	9	...........
	114	1.53333	9.85392E-001	2.80966E-004	0.00000E+000	2.76861E-004	1.68088E-001	9.85776E-001	3.57800E+000	9	...........
	115	1.54667	9.86307E-001	2.80812E-004	0.00000E+000	2.76967E-004	1.68088E-001	9.86706E-001	3.57800E+000	9	...........
	116	1.56	9.87215E-001	2.81728E-004	0.00000E+000	2.78127E-004	1.68088E-001	9.87614E-001	3.57800E+000	9	...........
	117	1.57333	9.88153E-001	2.80951E-004	0.00000E+000	2.77623E-004	1.68088E-001	9.88522E-001	3.57800E+000	9	...........
	118	1.58667	9.89112E-001	2.81155E-004	0.00000E+000	2.78094E-004	1.68088E-001	9.89480E-001	3.57800E+000	9	...........
	119	1.6	9.90019E-001	2.80350E-004	0.00000E+000	2.77552E-004	1.68088E-001	9.90396E-001	3.57800E+000	9	...........
	120	1.61333	9.90930E-001	2.80554E-004	0.00000E+000	2.78010E-004	1.68088E-001	9.91284E-001	3.57800E+000	9	...........
	121	1.62667	9.91763E-001	2.79880E-004	0.00000E+000	2.77575E-004	1.68088E-001	9.92161E-001	3.57800E+000	9	...........
	122	1.64	9.92637E-001	2.82180E-004	0.00000E+000	2.80102E-004	1.68088E-001	9.93037E-001	3.57800E+000	9	...........
	123	1.65333	9.93492E-001	2.81501E-004	0.00000E+000	2.79669E-004	1.68088E-001	9.93892E-001	3.57800E+000	9	...........
	124	1.66667	9.94354E-001	2.81072E-004	0.00000E+000	2.79485E-004	1.68088E-001	9.94765E-001	3.57800E+000	9	...........
	125	1.68	9.95207E-001	2.81259E-004	0.00000E+000	2.79910E-004	1.68088E-001	9.95594E-001	3.57800E+000	9	...........
	126	1.69333	9.96062E-001	2.80447E-004	0.00000E+000	2.79343E-004	1.68088E-001	9.96474E-001	3.57800E+000	9	...........
	127	1.70667	9.96891E-001	2.81737E-004	0.00000E+000	2.80861E-004	1.68088E-001	9.97322E-001	3.57800E+000	9	...........
	128	1.72	9.97786E-001	2.81477E-004	0.00000E+000	2.80854E-004	1.68088E-001	9.98181E-001	3.57800E+000	9	...........
	129	1.73333	9.98643E-001	2.81438E-004	0.00000E+000	2.81056E-004	1.68088E-001	9.99035E-001	3.57800E+000	9	...........
	130	1.74667	9.99461E-001	2.81213E-004	0.00000E+000	2.81061E-004	1.68088E-001	9.99860E-001	3.57800E+000	9	...........
	131	1.75	9.99991E-001	2.80561E-004	0.00000E+000	2.80558E-004	1.68088E-001	1.00038E+000	3.57800E+000	9	...........
STARTTIMEOFFSET	QUANT	391.8668	Start Time Offset (s)
