EXPLAIN
TAG	PWR800_CHARGE
TITLE	LABEL	PWR Cyclic Charge Discharge (Cell) - Charge Step	Test &Identifier
DATE	LABEL	7-7-2017	Date
TIME	LABEL	16:03:05	Time
NOTES	NOTES	3	&Notes...
	supercap test cell
	2.8mg
	6M KOH
PSTAT	PSTAT	IFC5000-01520	Potentiostat
CAPACITY	QUANT	1.00000E-003	Capacity (A-hr)
CELLTYPE	SELECTOR	1	&Cell Type
WORKINGCONNECTION	SELECTOR	0	&Working Lead
MAXCHARGETIME	VARIABLEANDUNITS	1.00000E+002	s	1.00000E+002	second(s)	Max &Charge Time
CHARGECURRENT	QUANT	2.80000E-004	&Charge Current (A) 
VOLTAGEFINISH	TWOPARAM	F	1.00000E-003	3.60000E+003	&Voltage Finish	 I (A) < 	Max Time(s)
SAMPLETIME	QUANT	1.00000E-002	Sa&mple Period (s)
CHARGESTOPAT1	MULTIPARAM	4	1.00000E+000	Charge Stop At &1	Voltage > Limit	V
CHARGESTOPAT2	MULTIPARAM	0	0.00000E+000	Charge Stop At &2	None	N/A
AESBHCSELECTOR	TOGGLE	F	Save Both Half Cells
IRCOMP	TOGGLE	F	IR &Measure
EOC	QUANT	0	Open Circuit (V)
SEQUENCER	TOGGLE	TRUE	Run as Sequence
PSTATMODEL	IQUANT	53	Pstat Model
PSTATSECTION	LABEL	IFC5000-01520	Pstat Section
PSTATSERIALNO	LABEL	01520	Pstat Serial Number
CTRLMODE	IQUANT	0	Control Mode
ELECTROMETER	IQUANT	1	RE=0 or CS=1
IESTAB	IQUANT	0	I/E Stability
CASPEED	IQUANT	4	Control Amp Speed
CONVENTION	IQUANT	1	Current Convention
ICHRANGE	IQUANT	2	Ich Range
ICHRANGEMODE	TOGGLE	T	Ich Auto Range
ICHOFFSETENABLE	TOGGLE	F	Ich Offset Enable
ICHOFFSET	QUANT	0	Ich Offset (V)
ICHFILTER	IQUANT	1	Ich Filter
VCHRANGE	IQUANT	2	Vch Range
VCHRANGEMODE	TOGGLE	T	Vch Auto Range
VCHOFFSETENABLE	TOGGLE	F	Vch Offset Enable
VCHOFFSET	QUANT	0	Vch Offset (V)
VCHFILTER	IQUANT	1	Vch Filter
IERANGELOWERLIMIT	IQUANT	9	I/E Range Lower Limit
IERANGEMODE	TOGGLE	F	I/E AutoRange
IERANGE	IQUANT	9	I/E Range
ACHSELECT	IQUANT	1	Ach Select
ACHRANGE	IQUANT	2	Ach Range
ACHOFFSETENABLE	TOGGLE	F	Ach Offset Enable
ACHOFFSET	QUANT	0	Ach Offset (V)
ACHFILTER	IQUANT	1	Ach Filter
CABLEID	IQUANT	14	Cable ID
DCCALDATE	LABEL	5-7-2017	DC Calibration Date
ACCALDATE	LABEL	12/3/2015	AC Calibration Date
FRAMEWORKVERSION	QUANT	7.01	Framework Version
INSTRUMENTVERSION	LABEL	4.00	Instrument Version
CURVE	TABLE	75
	Pt	T	Vf	Im	Vu	Pwr	Sig	Ach	Temp	IERange	Over
	#	s	V	A	V	W	V	V	deg C	#	bits
	0	0.013333	5.97051E-001	2.81887E-004	0.00000E+000	1.68301E-004	1.68088E-001	5.97351E-001	3.57890E+000	9	...........
	1	0.026667	6.27066E-001	2.81121E-004	0.00000E+000	1.76281E-004	1.68088E-001	6.27339E-001	3.57890E+000	9	...........
	2	0.04	6.52676E-001	2.79696E-004	0.00000E+000	1.82551E-004	1.68088E-001	6.52963E-001	3.57890E+000	9	...........
	3	0.053333	6.75118E-001	2.81329E-004	0.00000E+000	1.89931E-004	1.68088E-001	6.75358E-001	3.57890E+000	9	...........
	4	0.066667	6.95027E-001	2.81117E-004	0.00000E+000	1.95384E-004	1.68088E-001	6.95310E-001	3.57890E+000	9	...........
	5	0.08	7.12997E-001	2.82093E-004	0.00000E+000	2.01132E-004	1.68088E-001	7.13256E-001	3.57890E+000	9	...........
	6	0.093333	7.29283E-001	2.81988E-004	0.00000E+000	2.05649E-004	1.68088E-001	7.29526E-001	3.57890E+000	9	...........
	7	0.106667	7.44155E-001	2.82049E-004	0.00000E+000	2.09889E-004	1.68088E-001	7.44430E-001	3.57890E+000	9	...........
	8	0.12	7.57820E-001	2.80931E-004	0.00000E+000	2.12896E-004	1.68088E-001	7.58080E-001	3.57890E+000	9	...........
	9	0.133333	7.70419E-001	2.81131E-004	0.00000E+000	2.16589E-004	1.68088E-001	7.70702E-001	3.57890E+000	9	...........
	10	0.146667	7.82059E-001	2.79245E-004	0.00000E+000	2.18386E-004	1.68088E-001	7.82344E-001	3.57890E+000	9	...........
	11	0.16	7.92928E-001	2.80293E-004	0.00000E+000	2.22252E-004	1.68088E-001	7.93185E-001	3.57890E+000	9	...........
	12	0.173333	8.03006E-001	2.81866E-004	0.00000E+000	2.26340E-004	1.68088E-001	8.03296E-001	3.57890E+000	9	...........
	13	0.186667	8.12397E-001	2.81031E-004	0.00000E+000	2.28309E-004	1.68088E-001	8.12678E-001	3.57890E+000	9	...........
	14	0.2	8.21236E-001	2.81100E-004	0.00000E+000	2.30850E-004	1.68088E-001	8.21515E-001	3.57890E+000	9	...........
	15	0.213333	8.29466E-001	2.80945E-004	0.00000E+000	2.33034E-004	1.68088E-001	8.29772E-001	3.57890E+000	9	...........
	16	0.226667	8.37221E-001	2.79965E-004	0.00000E+000	2.34392E-004	1.68088E-001	8.37531E-001	3.57890E+000	9	...........
	17	0.24	8.44500E-001	2.81294E-004	0.00000E+000	2.37553E-004	1.68088E-001	8.44829E-001	3.57890E+000	9	...........
	18	0.253333	8.51346E-001	2.81210E-004	0.00000E+000	2.39407E-004	1.68088E-001	8.51673E-001	3.57890E+000	9	...........
	19	0.266667	8.57777E-001	2.80895E-004	0.00000E+000	2.40945E-004	1.68088E-001	8.58134E-001	3.57890E+000	9	...........
	20	0.28	8.63876E-001	2.82149E-004	0.00000E+000	2.43742E-004	1.68088E-001	8.64238E-001	3.57890E+000	9	...........
	21	0.293333	8.69687E-001	2.81923E-004	0.00000E+000	2.45185E-004	1.68088E-001	8.70042E-001	3.57890E+000	9	...........
	22	0.306667	8.75165E-001	2.80555E-004	0.00000E+000	2.45532E-004	1.68088E-001	8.75531E-001	3.57890E+000	9	...........
	23	0.32	8.80316E-001	2.81501E-004	0.00000E+000	2.47810E-004	1.68088E-001	8.80704E-001	3.57890E+000	9	...........
	24	0.333333	8.85272E-001	2.81616E-004	0.00000E+000	2.49307E-004	1.68088E-001	8.85643E-001	3.57890E+000	9	...........
	25	0.346667	8.89965E-001	2.80556E-004	0.00000E+000	2.49685E-004	1.68088E-001	8.90342E-001	3.57890E+000	9	...........
	26	0.36	8.94451E-001	2.81104E-004	0.00000E+000	2.51434E-004	1.68088E-001	8.94817E-001	3.57890E+000	9	...........
	27	0.373333	8.98720E-001	2.80768E-004	0.00000E+000	2.52332E-004	1.68088E-001	8.99068E-001	3.57872E+000	9	...........
	28	0.386667	9.02833E-001	2.81701E-004	0.00000E+000	2.54329E-004	1.68088E-001	9.03187E-001	3.57820E+000	9	...........
	29	0.4	9.06749E-001	2.81438E-004	0.00000E+000	2.55193E-004	1.68088E-001	9.07099E-001	3.57820E+000	9	...........
	30	0.413333	9.10523E-001	2.81076E-004	0.00000E+000	2.55926E-004	1.68088E-001	9.10867E-001	3.57820E+000	9	...........
	31	0.426667	9.14123E-001	2.81010E-004	0.00000E+000	2.56877E-004	1.68088E-001	9.14478E-001	3.57820E+000	9	...........
	32	0.44	9.17571E-001	2.81365E-004	0.00000E+000	2.58172E-004	1.68088E-001	9.17922E-001	3.57820E+000	9	...........
	33	0.453333	9.20888E-001	2.79925E-004	0.00000E+000	2.57780E-004	1.68088E-001	9.21247E-001	3.57820E+000	9	...........
	34	0.466667	9.24118E-001	2.80608E-004	0.00000E+000	2.59315E-004	1.68088E-001	9.24410E-001	3.57820E+000	9	...........
	35	0.48	9.27117E-001	2.81368E-004	0.00000E+000	2.60861E-004	1.68088E-001	9.27472E-001	3.57820E+000	9	...........
	36	0.493333	9.30038E-001	2.81641E-004	0.00000E+000	2.61937E-004	1.68088E-001	9.30362E-001	3.57820E+000	9	...........
	37	0.506667	9.32847E-001	2.81559E-004	0.00000E+000	2.62651E-004	1.68088E-001	9.33180E-001	3.57820E+000	9	...........
	38	0.52	9.35586E-001	2.79928E-004	0.00000E+000	2.61897E-004	1.68088E-001	9.35929E-001	3.57820E+000	9	...........
	39	0.533333	9.38254E-001	2.81319E-004	0.00000E+000	2.63949E-004	1.68088E-001	9.38611E-001	3.57820E+000	9	...........
	40	0.546667	9.40854E-001	2.81624E-004	0.00000E+000	2.64967E-004	1.68088E-001	9.41179E-001	3.57820E+000	9	...........
	41	0.56	9.43335E-001	2.82908E-004	0.00000E+000	2.66877E-004	1.68088E-001	9.43665E-001	3.57820E+000	9	...........
	42	0.573333	9.45748E-001	2.81562E-004	0.00000E+000	2.66287E-004	1.68088E-001	9.46084E-001	3.57820E+000	9	...........
	43	0.586667	9.48107E-001	2.82172E-004	0.00000E+000	2.67530E-004	1.68088E-001	9.48426E-001	3.57820E+000	9	...........
	44	0.6	9.50408E-001	2.81458E-004	0.00000E+000	2.67499E-004	1.68088E-001	9.50715E-001	3.57820E+000	9	...........
	45	0.613333	9.52642E-001	2.82246E-004	0.00000E+000	2.68880E-004	1.68088E-001	9.52975E-001	3.57820E+000	9	...........
	46	0.626667	9.54796E-001	2.80976E-004	0.00000E+000	2.68275E-004	1.68088E-001	9.55113E-001	3.57820E+000	9	...........
	47	0.64	9.56895E-001	2.81399E-004	0.00000E+000	2.69270E-004	1.68088E-001	9.57236E-001	3.57820E+000	9	...........
	48	0.653333	9.58982E-001	2.81283E-004	0.00000E+000	2.69745E-004	1.68088E-001	9.59336E-001	3.57820E+000	9	...........
	49	0.666667	9.61018E-001	2.81678E-004	0.00000E+000	2.70698E-004	1.68088E-001	9.61383E-001	3.57820E+000	9	...........
	50	0.68	9.63004E-001	2.81450E-004	0.00000E+000	2.71038E-004	1.68088E-001	9.63366E-001	3.57820E+000	9	...........
	51	0.693333	9.64923E-001	2.81564E-004	0.00000E+000	2.71687E-004	1.68088E-001	9.65305E-001	3.57820E+000	9	...........
	52	0.706667	9.66834E-001	2.80389E-004	0.00000E+000	2.71089E-004	1.68088E-001	9.67160E-001	3.57820E+000	9	...........
	53	0.72	9.68684E-001	2.81624E-004	0.00000E+000	2.72805E-004	1.68088E-001	9.69021E-001	3.57820E+000	9	...........
	54	0.733333	9.70491E-001	2.81198E-004	0.00000E+000	2.72900E-004	1.68088E-001	9.70874E-001	3.57820E+000	9	...........
	55	0.746667	9.72322E-001	2.80595E-004	0.00000E+000	2.72829E-004	1.68088E-001	9.72668E-001	3.57820E+000	9	...........
	56	0.76	9.74079E-001	2.80453E-004	0.00000E+000	2.73184E-004	1.68088E-001	9.74403E-001	3.57820E+000	9	...........
	57	0.773333	9.75751E-001	2.81255E-004	0.00000E+000	2.74435E-004	1.68088E-001	9.76121E-001	3.57820E+000	9	...........
	58	0.786667	9.77396E-001	2.81001E-004	0.00000E+000	2.74650E-004	1.68088E-001	9.77769E-001	3.57820E+000	9	...........
	59	0.8	9.79022E-001	2.80778E-004	0.00000E+000	2.74888E-004	1.68088E-001	9.79371E-001	3.57820E+000	9	...........
	60	0.813333	9.80618E-001	2.81616E-004	0.00000E+000	2.76158E-004	1.68088E-001	9.80980E-001	3.57820E+000	9	...........
	61	0.826667	9.82196E-001	2.80558E-004	0.00000E+000	2.75563E-004	1.68088E-001	9.82562E-001	3.57820E+000	9	...........
	62	0.84	9.83739E-001	2.81274E-004	0.00000E+000	2.76700E-004	1.68088E-001	9.84099E-001	3.57820E+000	9	...........
	63	0.853333	9.85252E-001	2.81028E-004	0.00000E+000	2.76884E-004	1.68088E-001	9.85652E-001	3.57820E+000	9	...........
	64	0.866667	9.86775E-001	2.80777E-004	0.00000E+000	2.77064E-004	1.68088E-001	9.87157E-001	3.57820E+000	9	...........
	65	0.88	9.88277E-001	2.82359E-004	0.00000E+000	2.79049E-004	1.68088E-001	9.88652E-001	3.57820E+000	9	...........
	66	0.893333	9.89708E-001	2.80716E-004	0.00000E+000	2.77827E-004	1.68088E-001	9.90079E-001	3.57820E+000	9	...........
	67	0.906667	9.91109E-001	2.81300E-004	0.00000E+000	2.78799E-004	1.68088E-001	9.91476E-001	3.57820E+000	9	...........
	68	0.92	9.92482E-001	2.80900E-004	0.00000E+000	2.78788E-004	1.68088E-001	9.92866E-001	3.57820E+000	9	...........
	69	0.933333	9.93856E-001	2.81569E-004	0.00000E+000	2.79839E-004	1.68088E-001	9.94232E-001	3.57820E+000	9	...........
	70	0.946667	9.95227E-001	2.80907E-004	0.00000E+000	2.79567E-004	1.68088E-001	9.95585E-001	3.57820E+000	9	...........
	71	0.96	9.96561E-001	2.81117E-004	0.00000E+000	2.80150E-004	1.68088E-001	9.96941E-001	3.57820E+000	9	...........
	72	0.97333	9.97899E-001	2.81111E-004	0.00000E+000	2.80520E-004	1.68088E-001	9.98289E-001	3.57820E+000	9	...........
	73	0.98667	9.99168E-001	2.82866E-004	0.00000E+000	2.82631E-004	1.68088E-001	9.99569E-001	3.57820E+000	9	...........
	74	0.99	9.99951E-001	2.80315E-004	0.00000E+000	2.80301E-004	1.68088E-001	1.00036E+000	3.57820E+000	9	...........
STARTTIMEOFFSET	QUANT	1238.949	Start Time Offset (s)
