EXPLAIN
TAG	PWR800_CHARGE
TITLE	LABEL	PWR Cyclic Charge Discharge (Cell) - Charge Step	Test &Identifier
DATE	LABEL	7-7-2017	Date
TIME	LABEL	16:23:50	Time
NOTES	NOTES	3	&Notes...
	supercap test cell
	2.8mg
	6M KOH
PSTAT	PSTAT	IFC5000-01520	Potentiostat
CAPACITY	QUANT	1.00000E-003	Capacity (A-hr)
CELLTYPE	SELECTOR	1	&Cell Type
WORKINGCONNECTION	SELECTOR	0	&Working Lead
MAXCHARGETIME	VARIABLEANDUNITS	1.00000E+002	s	1.00000E+002	second(s)	Max &Charge Time
CHARGECURRENT	QUANT	2.80000E-004	&Charge Current (A) 
VOLTAGEFINISH	TWOPARAM	F	1.00000E-003	3.60000E+003	&Voltage Finish	 I (A) < 	Max Time(s)
SAMPLETIME	QUANT	1.00000E-002	Sa&mple Period (s)
CHARGESTOPAT1	MULTIPARAM	4	1.00000E+000	Charge Stop At &1	Voltage > Limit	V
CHARGESTOPAT2	MULTIPARAM	0	0.00000E+000	Charge Stop At &2	None	N/A
AESBHCSELECTOR	TOGGLE	F	Save Both Half Cells
IRCOMP	TOGGLE	F	IR &Measure
EOC	QUANT	0	Open Circuit (V)
SEQUENCER	TOGGLE	TRUE	Run as Sequence
PSTATMODEL	IQUANT	53	Pstat Model
PSTATSECTION	LABEL	IFC5000-01520	Pstat Section
PSTATSERIALNO	LABEL	01520	Pstat Serial Number
CTRLMODE	IQUANT	0	Control Mode
ELECTROMETER	IQUANT	1	RE=0 or CS=1
IESTAB	IQUANT	0	I/E Stability
CASPEED	IQUANT	4	Control Amp Speed
CONVENTION	IQUANT	1	Current Convention
ICHRANGE	IQUANT	2	Ich Range
ICHRANGEMODE	TOGGLE	T	Ich Auto Range
ICHOFFSETENABLE	TOGGLE	F	Ich Offset Enable
ICHOFFSET	QUANT	0	Ich Offset (V)
ICHFILTER	IQUANT	1	Ich Filter
VCHRANGE	IQUANT	2	Vch Range
VCHRANGEMODE	TOGGLE	T	Vch Auto Range
VCHOFFSETENABLE	TOGGLE	F	Vch Offset Enable
VCHOFFSET	QUANT	0	Vch Offset (V)
VCHFILTER	IQUANT	1	Vch Filter
IERANGELOWERLIMIT	IQUANT	9	I/E Range Lower Limit
IERANGEMODE	TOGGLE	F	I/E AutoRange
IERANGE	IQUANT	9	I/E Range
ACHSELECT	IQUANT	1	Ach Select
ACHRANGE	IQUANT	2	Ach Range
ACHOFFSETENABLE	TOGGLE	F	Ach Offset Enable
ACHOFFSET	QUANT	0	Ach Offset (V)
ACHFILTER	IQUANT	1	Ach Filter
CABLEID	IQUANT	14	Cable ID
DCCALDATE	LABEL	5-7-2017	DC Calibration Date
ACCALDATE	LABEL	12/3/2015	AC Calibration Date
FRAMEWORKVERSION	QUANT	7.01	Framework Version
INSTRUMENTVERSION	LABEL	4.00	Instrument Version
CURVE	TABLE	58
	Pt	T	Vf	Im	Vu	Pwr	Sig	Ach	Temp	IERange	Over
	#	s	V	A	V	W	V	V	deg C	#	bits
	0	0.013333	6.08800E-001	2.81433E-004	0.00000E+000	1.71336E-004	1.68088E-001	6.09043E-001	3.57730E+000	9	...........
	1	0.026667	6.39548E-001	2.81857E-004	0.00000E+000	1.80261E-004	1.68088E-001	6.39793E-001	3.57730E+000	9	...........
	2	0.04	6.66060E-001	2.81389E-004	0.00000E+000	1.87422E-004	1.68088E-001	6.66304E-001	3.57730E+000	9	...........
	3	0.053333	6.89444E-001	2.81043E-004	0.00000E+000	1.93763E-004	1.68088E-001	6.89722E-001	3.57730E+000	9	...........
	4	0.066667	7.10401E-001	2.80845E-004	0.00000E+000	1.99513E-004	1.68088E-001	7.10685E-001	3.57730E+000	9	...........
	5	0.08	7.29340E-001	2.80973E-004	0.00000E+000	2.04925E-004	1.68088E-001	7.29618E-001	3.57730E+000	9	...........
	6	0.093333	7.46599E-001	2.80789E-004	0.00000E+000	2.09636E-004	1.68088E-001	7.46901E-001	3.57730E+000	9	...........
	7	0.106667	7.62433E-001	2.80852E-004	0.00000E+000	2.14131E-004	1.68088E-001	7.62709E-001	3.57730E+000	9	...........
	8	0.12	7.77022E-001	2.80463E-004	0.00000E+000	2.17926E-004	1.68088E-001	7.77314E-001	3.57730E+000	9	...........
	9	0.133333	7.90454E-001	2.79947E-004	0.00000E+000	2.21285E-004	1.68088E-001	7.90760E-001	3.57730E+000	9	...........
	10	0.146667	8.02892E-001	2.79867E-004	0.00000E+000	2.24703E-004	1.68088E-001	8.03190E-001	3.57730E+000	9	...........
	11	0.16	8.14406E-001	2.80590E-004	0.00000E+000	2.28514E-004	1.68088E-001	8.14720E-001	3.57730E+000	9	...........
	12	0.173333	8.25146E-001	2.79278E-004	0.00000E+000	2.30445E-004	1.68088E-001	8.25448E-001	3.57730E+000	9	...........
	13	0.186667	8.35105E-001	2.81802E-004	0.00000E+000	2.35335E-004	1.68088E-001	8.35416E-001	3.57730E+000	9	...........
	14	0.2	8.44425E-001	2.81214E-004	0.00000E+000	2.37464E-004	1.68088E-001	8.44733E-001	3.57730E+000	9	...........
	15	0.213333	8.53149E-001	2.80374E-004	0.00000E+000	2.39201E-004	1.68088E-001	8.53487E-001	3.57730E+000	9	...........
	16	0.226667	8.61323E-001	2.80627E-004	0.00000E+000	2.41711E-004	1.68088E-001	8.61657E-001	3.57730E+000	9	...........
	17	0.24	8.68986E-001	2.81243E-004	0.00000E+000	2.44396E-004	1.68088E-001	8.69298E-001	3.57730E+000	9	...........
	18	0.253333	8.76178E-001	2.82018E-004	0.00000E+000	2.47098E-004	1.68088E-001	8.76504E-001	3.57730E+000	9	...........
	19	0.266667	8.82929E-001	2.81682E-004	0.00000E+000	2.48705E-004	1.68088E-001	8.83263E-001	3.57730E+000	9	...........
	20	0.28	8.89336E-001	2.82508E-004	0.00000E+000	2.51244E-004	1.68088E-001	8.89654E-001	3.57730E+000	9	...........
	21	0.293333	8.95302E-001	2.80446E-004	0.00000E+000	2.51084E-004	1.68088E-001	8.95644E-001	3.57730E+000	9	...........
	22	0.306667	9.00987E-001	2.80622E-004	0.00000E+000	2.52837E-004	1.68088E-001	9.01328E-001	3.57730E+000	9	...........
	23	0.32	9.06335E-001	2.81254E-004	0.00000E+000	2.54911E-004	1.68088E-001	9.06670E-001	3.57730E+000	9	...........
	24	0.333333	9.11395E-001	2.82031E-004	0.00000E+000	2.57041E-004	1.68088E-001	9.11718E-001	3.57730E+000	9	...........
	25	0.346667	9.16149E-001	2.81209E-004	0.00000E+000	2.57629E-004	1.68088E-001	9.16510E-001	3.57730E+000	9	...........
	26	0.36	9.20758E-001	2.81824E-004	0.00000E+000	2.59492E-004	1.68088E-001	9.21069E-001	3.57730E+000	9	...........
	27	0.373333	9.25128E-001	2.80879E-004	0.00000E+000	2.59849E-004	1.68088E-001	9.25427E-001	3.57730E+000	9	...........
	28	0.386667	9.29237E-001	2.80869E-004	0.00000E+000	2.60994E-004	1.68088E-001	9.29559E-001	3.57730E+000	9	...........
	29	0.4	9.33186E-001	2.80843E-004	0.00000E+000	2.62079E-004	1.68088E-001	9.33528E-001	3.57730E+000	9	...........
	30	0.413333	9.36958E-001	2.80861E-004	0.00000E+000	2.63154E-004	1.68088E-001	9.37297E-001	3.57730E+000	9	...........
	31	0.426667	9.40527E-001	2.81573E-004	0.00000E+000	2.64827E-004	1.68088E-001	9.40860E-001	3.57730E+000	9	...........
	32	0.44	9.43959E-001	2.80496E-004	0.00000E+000	2.64777E-004	1.68088E-001	9.44286E-001	3.57730E+000	9	...........
	33	0.453333	9.47299E-001	2.81733E-004	0.00000E+000	2.66885E-004	1.68088E-001	9.47635E-001	3.57730E+000	9	...........
	34	0.466667	9.50464E-001	2.80840E-004	0.00000E+000	2.66928E-004	1.68088E-001	9.50804E-001	3.57730E+000	9	...........
	35	0.48	9.53523E-001	2.80528E-004	0.00000E+000	2.67490E-004	1.68088E-001	9.53858E-001	3.57788E+000	9	...........
	36	0.493333	9.56454E-001	2.81169E-004	0.00000E+000	2.68925E-004	1.68088E-001	9.56791E-001	3.57810E+000	9	...........
	37	0.506667	9.59283E-001	2.81646E-004	0.00000E+000	2.70178E-004	1.68088E-001	9.59626E-001	3.57810E+000	9	...........
	38	0.52	9.61978E-001	2.80086E-004	0.00000E+000	2.69437E-004	1.68088E-001	9.62333E-001	3.57810E+000	9	...........
	39	0.533333	9.64625E-001	2.80945E-004	0.00000E+000	2.71007E-004	1.68088E-001	9.64970E-001	3.57810E+000	9	...........
	40	0.546667	9.67176E-001	2.80249E-004	0.00000E+000	2.71050E-004	1.68088E-001	9.67504E-001	3.57810E+000	9	...........
	41	0.56	9.69589E-001	2.81642E-004	0.00000E+000	2.73077E-004	1.68088E-001	9.69954E-001	3.57810E+000	9	...........
	42	0.573333	9.71952E-001	2.80726E-004	0.00000E+000	2.72852E-004	1.68088E-001	9.72320E-001	3.57810E+000	9	...........
	43	0.586667	9.74312E-001	2.80288E-004	0.00000E+000	2.73087E-004	1.68088E-001	9.74608E-001	3.57810E+000	9	...........
	44	0.6	9.76549E-001	2.80696E-004	0.00000E+000	2.74113E-004	1.68088E-001	9.76846E-001	3.57810E+000	9	...........
	45	0.613333	9.78667E-001	2.81056E-004	0.00000E+000	2.75061E-004	1.68088E-001	9.78998E-001	3.57810E+000	9	...........
	46	0.626667	9.80745E-001	2.81404E-004	0.00000E+000	2.75986E-004	1.68088E-001	9.81066E-001	3.57810E+000	9	...........
	47	0.64	9.82795E-001	2.79738E-004	0.00000E+000	2.74925E-004	1.68088E-001	9.83104E-001	3.57810E+000	9	...........
	48	0.653333	9.84772E-001	2.79934E-004	0.00000E+000	2.75671E-004	1.68088E-001	9.85101E-001	3.57810E+000	9	...........
	49	0.666667	9.86706E-001	2.81701E-004	0.00000E+000	2.77956E-004	1.68088E-001	9.87047E-001	3.57810E+000	9	...........
	50	0.68	9.88604E-001	2.81457E-004	0.00000E+000	2.78249E-004	1.68088E-001	9.88955E-001	3.57810E+000	9	...........
	51	0.693333	9.90470E-001	2.80214E-004	0.00000E+000	2.77543E-004	1.68088E-001	9.90809E-001	3.57810E+000	9	...........
	52	0.706667	9.92278E-001	2.81672E-004	0.00000E+000	2.79497E-004	1.68088E-001	9.92646E-001	3.57810E+000	9	...........
	53	0.72	9.94048E-001	2.82169E-004	0.00000E+000	2.80490E-004	1.68088E-001	9.94444E-001	3.57810E+000	9	...........
	54	0.733333	9.95812E-001	2.81803E-004	0.00000E+000	2.80623E-004	1.68088E-001	9.96191E-001	3.57810E+000	9	...........
	55	0.746667	9.97513E-001	2.81079E-004	0.00000E+000	2.80380E-004	1.68088E-001	9.97880E-001	3.57810E+000	9	...........
	56	0.76	9.99170E-001	2.81863E-004	0.00000E+000	2.81629E-004	1.68088E-001	9.99549E-001	3.57810E+000	9	...........
	57	0.761667	1.00011E+000	2.80460E-004	0.00000E+000	2.80490E-004	1.68088E-001	1.00049E+000	3.57810E+000	9	...........
STARTTIMEOFFSET	QUANT	2070.798	Start Time Offset (s)
