EXPLAIN
TAG	PWR800_CHARGE
TITLE	LABEL	PWR Cyclic Charge Discharge (Cell) - Charge Step	Test &Identifier
DATE	LABEL	7-7-2017	Date
TIME	LABEL	16:05:10	Time
NOTES	NOTES	3	&Notes...
	supercap test cell
	2.8mg
	6M KOH
PSTAT	PSTAT	IFC5000-01520	Potentiostat
CAPACITY	QUANT	1.00000E-003	Capacity (A-hr)
CELLTYPE	SELECTOR	1	&Cell Type
WORKINGCONNECTION	SELECTOR	0	&Working Lead
MAXCHARGETIME	VARIABLEANDUNITS	1.00000E+002	s	1.00000E+002	second(s)	Max &Charge Time
CHARGECURRENT	QUANT	2.80000E-004	&Charge Current (A) 
VOLTAGEFINISH	TWOPARAM	F	1.00000E-003	3.60000E+003	&Voltage Finish	 I (A) < 	Max Time(s)
SAMPLETIME	QUANT	1.00000E-002	Sa&mple Period (s)
CHARGESTOPAT1	MULTIPARAM	4	1.00000E+000	Charge Stop At &1	Voltage > Limit	V
CHARGESTOPAT2	MULTIPARAM	0	0.00000E+000	Charge Stop At &2	None	N/A
AESBHCSELECTOR	TOGGLE	F	Save Both Half Cells
IRCOMP	TOGGLE	F	IR &Measure
EOC	QUANT	0	Open Circuit (V)
SEQUENCER	TOGGLE	TRUE	Run as Sequence
PSTATMODEL	IQUANT	53	Pstat Model
PSTATSECTION	LABEL	IFC5000-01520	Pstat Section
PSTATSERIALNO	LABEL	01520	Pstat Serial Number
CTRLMODE	IQUANT	0	Control Mode
ELECTROMETER	IQUANT	1	RE=0 or CS=1
IESTAB	IQUANT	0	I/E Stability
CASPEED	IQUANT	4	Control Amp Speed
CONVENTION	IQUANT	1	Current Convention
ICHRANGE	IQUANT	2	Ich Range
ICHRANGEMODE	TOGGLE	T	Ich Auto Range
ICHOFFSETENABLE	TOGGLE	F	Ich Offset Enable
ICHOFFSET	QUANT	0	Ich Offset (V)
ICHFILTER	IQUANT	1	Ich Filter
VCHRANGE	IQUANT	2	Vch Range
VCHRANGEMODE	TOGGLE	T	Vch Auto Range
VCHOFFSETENABLE	TOGGLE	F	Vch Offset Enable
VCHOFFSET	QUANT	0	Vch Offset (V)
VCHFILTER	IQUANT	1	Vch Filter
IERANGELOWERLIMIT	IQUANT	9	I/E Range Lower Limit
IERANGEMODE	TOGGLE	F	I/E AutoRange
IERANGE	IQUANT	9	I/E Range
ACHSELECT	IQUANT	1	Ach Select
ACHRANGE	IQUANT	2	Ach Range
ACHOFFSETENABLE	TOGGLE	F	Ach Offset Enable
ACHOFFSET	QUANT	0	Ach Offset (V)
ACHFILTER	IQUANT	1	Ach Filter
CABLEID	IQUANT	14	Cable ID
DCCALDATE	LABEL	5-7-2017	DC Calibration Date
ACCALDATE	LABEL	12/3/2015	AC Calibration Date
FRAMEWORKVERSION	QUANT	7.01	Framework Version
INSTRUMENTVERSION	LABEL	4.00	Instrument Version
CURVE	TABLE	73
	Pt	T	Vf	Im	Vu	Pwr	Sig	Ach	Temp	IERange	Over
	#	s	V	A	V	W	V	V	deg C	#	bits
	0	0.013333	6.00741E-001	2.80308E-004	0.00000E+000	1.68393E-004	1.68088E-001	6.01026E-001	3.57750E+000	9	...........
	1	0.026667	6.30621E-001	2.80271E-004	0.00000E+000	1.76745E-004	1.68088E-001	6.30903E-001	3.57750E+000	9	...........
	2	0.04	6.56164E-001	2.80937E-004	0.00000E+000	1.84341E-004	1.68088E-001	6.56448E-001	3.57750E+000	9	...........
	3	0.053333	6.78548E-001	2.81755E-004	0.00000E+000	1.91184E-004	1.68088E-001	6.78833E-001	3.57750E+000	9	...........
	4	0.066667	6.98428E-001	2.82248E-004	0.00000E+000	1.97130E-004	1.68088E-001	6.98727E-001	3.57750E+000	9	...........
	5	0.08	7.16367E-001	2.80775E-004	0.00000E+000	2.01138E-004	1.68088E-001	7.16664E-001	3.57750E+000	9	...........
	6	0.093333	7.32623E-001	2.80695E-004	0.00000E+000	2.05644E-004	1.68088E-001	7.32945E-001	3.57750E+000	9	...........
	7	0.106667	7.47521E-001	2.80878E-004	0.00000E+000	2.09963E-004	1.68088E-001	7.47840E-001	3.57750E+000	9	...........
	8	0.12	7.61191E-001	2.80456E-004	0.00000E+000	2.13481E-004	1.68088E-001	7.61501E-001	3.57750E+000	9	...........
	9	0.133333	7.73804E-001	2.80404E-004	0.00000E+000	2.16978E-004	1.68088E-001	7.74124E-001	3.57750E+000	9	...........
	10	0.146667	7.85479E-001	2.80673E-004	0.00000E+000	2.20463E-004	1.68088E-001	7.85775E-001	3.57750E+000	9	...........
	11	0.16	7.96329E-001	2.81674E-004	0.00000E+000	2.24306E-004	1.68088E-001	7.96637E-001	3.57750E+000	9	...........
	12	0.173333	8.06423E-001	2.81451E-004	0.00000E+000	2.26969E-004	1.68088E-001	8.06720E-001	3.57750E+000	9	...........
	13	0.186667	8.15809E-001	2.79871E-004	0.00000E+000	2.28321E-004	1.68088E-001	8.16133E-001	3.57750E+000	9	...........
	14	0.2	8.24607E-001	2.81425E-004	0.00000E+000	2.32065E-004	1.68088E-001	8.24932E-001	3.57750E+000	9	...........
	15	0.213333	8.32773E-001	2.80801E-004	0.00000E+000	2.33844E-004	1.68088E-001	8.33142E-001	3.57750E+000	9	...........
	16	0.226667	8.40491E-001	2.81385E-004	0.00000E+000	2.36501E-004	1.68088E-001	8.40850E-001	3.57750E+000	9	...........
	17	0.24	8.47765E-001	2.80934E-004	0.00000E+000	2.38166E-004	1.68088E-001	8.48133E-001	3.57750E+000	9	...........
	18	0.253333	8.54594E-001	2.81001E-004	0.00000E+000	2.40142E-004	1.68088E-001	8.54973E-001	3.57750E+000	9	...........
	19	0.266667	8.61046E-001	2.79944E-004	0.00000E+000	2.41044E-004	1.68088E-001	8.61419E-001	3.57750E+000	9	...........
	20	0.28	8.67152E-001	2.81168E-004	0.00000E+000	2.43815E-004	1.68088E-001	8.67539E-001	3.57750E+000	9	...........
	21	0.293333	8.72969E-001	2.80581E-004	0.00000E+000	2.44939E-004	1.68088E-001	8.73334E-001	3.57750E+000	9	...........
	22	0.306667	8.78414E-001	2.81410E-004	0.00000E+000	2.47194E-004	1.68088E-001	8.78796E-001	3.57750E+000	9	...........
	23	0.32	8.83597E-001	2.81014E-004	0.00000E+000	2.48303E-004	1.68088E-001	8.83970E-001	3.57750E+000	9	...........
	24	0.333333	8.88536E-001	2.81848E-004	0.00000E+000	2.50432E-004	1.68088E-001	8.88909E-001	3.57750E+000	9	...........
	25	0.346667	8.93217E-001	2.82080E-004	0.00000E+000	2.51958E-004	1.68088E-001	8.93589E-001	3.57750E+000	9	...........
	26	0.36	8.97679E-001	2.81502E-004	0.00000E+000	2.52699E-004	1.68088E-001	8.98044E-001	3.57750E+000	9	...........
	27	0.373333	9.01937E-001	2.80821E-004	0.00000E+000	2.53283E-004	1.68088E-001	9.02295E-001	3.57750E+000	9	...........
	28	0.386667	9.05985E-001	2.82521E-004	0.00000E+000	2.55960E-004	1.68088E-001	9.06355E-001	3.57750E+000	9	...........
	29	0.4	9.09879E-001	2.81374E-004	0.00000E+000	2.56017E-004	1.68088E-001	9.10220E-001	3.57750E+000	9	...........
	30	0.413333	9.13587E-001	2.79533E-004	0.00000E+000	2.55378E-004	1.68088E-001	9.13932E-001	3.57750E+000	9	...........
	31	0.426667	9.17143E-001	2.80726E-004	0.00000E+000	2.57466E-004	1.68088E-001	9.17532E-001	3.57750E+000	9	...........
	32	0.44	9.20629E-001	2.81219E-004	0.00000E+000	2.58898E-004	1.68088E-001	9.20947E-001	3.57750E+000	9	...........
	33	0.453333	9.23934E-001	2.80313E-004	0.00000E+000	2.58990E-004	1.68088E-001	9.24250E-001	3.57750E+000	9	...........
	34	0.466667	9.27074E-001	2.80751E-004	0.00000E+000	2.60277E-004	1.68088E-001	9.27417E-001	3.57750E+000	9	...........
	35	0.48	9.30121E-001	2.81808E-004	0.00000E+000	2.62115E-004	1.68088E-001	9.30437E-001	3.57750E+000	9	...........
	36	0.493333	9.33041E-001	2.81771E-004	0.00000E+000	2.62904E-004	1.68088E-001	9.33380E-001	3.57750E+000	9	...........
	37	0.506667	9.35906E-001	2.81166E-004	0.00000E+000	2.63145E-004	1.68088E-001	9.36222E-001	3.57750E+000	9	...........
	38	0.52	9.38635E-001	2.80988E-004	0.00000E+000	2.63745E-004	1.68088E-001	9.38975E-001	3.57750E+000	9	...........
	39	0.533333	9.41336E-001	2.81579E-004	0.00000E+000	2.65061E-004	1.68088E-001	9.41664E-001	3.57750E+000	9	...........
	40	0.546667	9.43907E-001	2.79728E-004	0.00000E+000	2.64037E-004	1.68088E-001	9.44219E-001	3.57750E+000	9	...........
	41	0.56	9.46430E-001	2.81134E-004	0.00000E+000	2.66073E-004	1.68088E-001	9.46771E-001	3.57750E+000	9	...........
	42	0.573333	9.48867E-001	2.81772E-004	0.00000E+000	2.67364E-004	1.68088E-001	9.49218E-001	3.57750E+000	9	...........
	43	0.586667	9.51238E-001	2.81270E-004	0.00000E+000	2.67555E-004	1.68088E-001	9.51569E-001	3.57750E+000	9	...........
	44	0.6	9.53506E-001	2.80858E-004	0.00000E+000	2.67800E-004	1.68088E-001	9.53851E-001	3.57750E+000	9	...........
	45	0.613333	9.55730E-001	2.81194E-004	0.00000E+000	2.68745E-004	1.68088E-001	9.56064E-001	3.57750E+000	9	...........
	46	0.626667	9.57890E-001	2.80993E-004	0.00000E+000	2.69160E-004	1.68088E-001	9.58213E-001	3.57750E+000	9	...........
	47	0.64	9.59984E-001	2.81338E-004	0.00000E+000	2.70080E-004	1.68088E-001	9.60331E-001	3.57750E+000	9	...........
	48	0.653333	9.62033E-001	2.80650E-004	0.00000E+000	2.69995E-004	1.68088E-001	9.62370E-001	3.57750E+000	9	...........
	49	0.666667	9.64053E-001	2.80672E-004	0.00000E+000	2.70583E-004	1.68088E-001	9.64394E-001	3.57750E+000	9	...........
	50	0.68	9.66022E-001	2.80653E-004	0.00000E+000	2.71117E-004	1.68088E-001	9.66364E-001	3.57750E+000	9	...........
	51	0.693333	9.67917E-001	2.80730E-004	0.00000E+000	2.71724E-004	1.68088E-001	9.68303E-001	3.57750E+000	9	...........
	52	0.706667	9.69781E-001	2.81471E-004	0.00000E+000	2.72965E-004	1.68088E-001	9.70164E-001	3.57815E+000	9	...........
	53	0.72	9.71618E-001	2.81593E-004	0.00000E+000	2.73601E-004	1.68088E-001	9.72019E-001	3.57880E+000	9	...........
	54	0.733333	9.73437E-001	2.81852E-004	0.00000E+000	2.74366E-004	1.68088E-001	9.73821E-001	3.57880E+000	9	...........
	55	0.746667	9.75186E-001	2.81444E-004	0.00000E+000	2.74460E-004	1.68088E-001	9.75535E-001	3.57880E+000	9	...........
	56	0.76	9.76890E-001	2.81187E-004	0.00000E+000	2.74688E-004	1.68088E-001	9.77254E-001	3.57880E+000	9	...........
	57	0.773333	9.78566E-001	2.80741E-004	0.00000E+000	2.74723E-004	1.68088E-001	9.78929E-001	3.57880E+000	9	...........
	58	0.786667	9.80184E-001	2.80736E-004	0.00000E+000	2.75172E-004	1.68088E-001	9.80554E-001	3.57880E+000	9	...........
	59	0.8	9.81776E-001	2.80566E-004	0.00000E+000	2.75453E-004	1.68088E-001	9.82135E-001	3.57880E+000	9	...........
	60	0.813333	9.83365E-001	2.81371E-004	0.00000E+000	2.76690E-004	1.68088E-001	9.83739E-001	3.57880E+000	9	...........
	61	0.826667	9.84920E-001	2.81873E-004	0.00000E+000	2.77623E-004	1.68088E-001	9.85319E-001	3.57880E+000	9	...........
	62	0.84	9.86496E-001	2.80779E-004	0.00000E+000	2.76988E-004	1.68088E-001	9.86852E-001	3.57880E+000	9	...........
	63	0.853333	9.87970E-001	2.81316E-004	0.00000E+000	2.77932E-004	1.68088E-001	9.88346E-001	3.57880E+000	9	...........
	64	0.866667	9.89450E-001	2.80702E-004	0.00000E+000	2.77741E-004	1.68088E-001	9.89814E-001	3.57880E+000	9	...........
	65	0.88	9.90890E-001	2.81564E-004	0.00000E+000	2.78999E-004	1.68088E-001	9.91257E-001	3.57880E+000	9	...........
	66	0.893333	9.92306E-001	2.80409E-004	0.00000E+000	2.78252E-004	1.68088E-001	9.92707E-001	3.57880E+000	9	...........
	67	0.906667	9.93710E-001	2.81449E-004	0.00000E+000	2.79679E-004	1.68088E-001	9.94117E-001	3.57880E+000	9	...........
	68	0.92	9.95090E-001	2.81450E-004	0.00000E+000	2.80068E-004	1.68088E-001	9.95476E-001	3.57880E+000	9	...........
	69	0.933333	9.96440E-001	2.80856E-004	0.00000E+000	2.79856E-004	1.68088E-001	9.96845E-001	3.57880E+000	9	...........
	70	0.946667	9.97824E-001	2.81755E-004	0.00000E+000	2.81141E-004	1.68088E-001	9.98182E-001	3.57880E+000	9	...........
	71	0.96	9.99158E-001	2.81863E-004	0.00000E+000	2.81626E-004	1.68088E-001	9.99482E-001	3.57880E+000	9	...........
	72	0.96333	9.99986E-001	2.79860E-004	0.00000E+000	2.79856E-004	1.68088E-001	1.00031E+000	3.57880E+000	9	...........
STARTTIMEOFFSET	QUANT	1325.831	Start Time Offset (s)
