EXPLAIN
TAG	PWR800_CHARGE
TITLE	LABEL	PWR Cyclic Charge Discharge (Cell) - Charge Step	Test &Identifier
DATE	LABEL	7-7-2017	Date
TIME	LABEL	15:43:24	Time
NOTES	NOTES	3	&Notes...
	supercap test cell
	2.8mg
	6M KOH
PSTAT	PSTAT	IFC5000-01520	Potentiostat
CAPACITY	QUANT	1.00000E-003	Capacity (A-hr)
CELLTYPE	SELECTOR	1	&Cell Type
WORKINGCONNECTION	SELECTOR	0	&Working Lead
MAXCHARGETIME	VARIABLEANDUNITS	1.00000E+002	s	1.00000E+002	second(s)	Max &Charge Time
CHARGECURRENT	QUANT	2.80000E-004	&Charge Current (A) 
VOLTAGEFINISH	TWOPARAM	F	1.00000E-003	3.60000E+003	&Voltage Finish	 I (A) < 	Max Time(s)
SAMPLETIME	QUANT	1.00000E-002	Sa&mple Period (s)
CHARGESTOPAT1	MULTIPARAM	4	1.00000E+000	Charge Stop At &1	Voltage > Limit	V
CHARGESTOPAT2	MULTIPARAM	0	0.00000E+000	Charge Stop At &2	None	N/A
AESBHCSELECTOR	TOGGLE	F	Save Both Half Cells
IRCOMP	TOGGLE	F	IR &Measure
EOC	QUANT	0	Open Circuit (V)
SEQUENCER	TOGGLE	TRUE	Run as Sequence
PSTATMODEL	IQUANT	53	Pstat Model
PSTATSECTION	LABEL	IFC5000-01520	Pstat Section
PSTATSERIALNO	LABEL	01520	Pstat Serial Number
CTRLMODE	IQUANT	0	Control Mode
ELECTROMETER	IQUANT	1	RE=0 or CS=1
IESTAB	IQUANT	0	I/E Stability
CASPEED	IQUANT	4	Control Amp Speed
CONVENTION	IQUANT	1	Current Convention
ICHRANGE	IQUANT	2	Ich Range
ICHRANGEMODE	TOGGLE	T	Ich Auto Range
ICHOFFSETENABLE	TOGGLE	F	Ich Offset Enable
ICHOFFSET	QUANT	0	Ich Offset (V)
ICHFILTER	IQUANT	1	Ich Filter
VCHRANGE	IQUANT	2	Vch Range
VCHRANGEMODE	TOGGLE	T	Vch Auto Range
VCHOFFSETENABLE	TOGGLE	F	Vch Offset Enable
VCHOFFSET	QUANT	0	Vch Offset (V)
VCHFILTER	IQUANT	1	Vch Filter
IERANGELOWERLIMIT	IQUANT	9	I/E Range Lower Limit
IERANGEMODE	TOGGLE	F	I/E AutoRange
IERANGE	IQUANT	9	I/E Range
ACHSELECT	IQUANT	1	Ach Select
ACHRANGE	IQUANT	2	Ach Range
ACHOFFSETENABLE	TOGGLE	F	Ach Offset Enable
ACHOFFSET	QUANT	0	Ach Offset (V)
ACHFILTER	IQUANT	1	Ach Filter
CABLEID	IQUANT	14	Cable ID
DCCALDATE	LABEL	5-7-2017	DC Calibration Date
ACCALDATE	LABEL	12/3/2015	AC Calibration Date
FRAMEWORKVERSION	QUANT	7.01	Framework Version
INSTRUMENTVERSION	LABEL	4.00	Instrument Version
CURVE	TABLE	135
	Pt	T	Vf	Im	Vu	Pwr	Sig	Ach	Temp	IERange	Over
	#	s	V	A	V	W	V	V	deg C	#	bits
	0	0.013333	5.70504E-001	2.80243E-004	0.00000E+000	1.59879E-004	1.68088E-001	5.70825E-001	3.57840E+000	9	...........
	1	0.026667	5.98611E-001	2.81188E-004	0.00000E+000	1.68322E-004	1.68088E-001	5.98937E-001	3.57840E+000	9	...........
	2	0.04	6.22178E-001	2.80724E-004	0.00000E+000	1.74660E-004	1.68088E-001	6.22483E-001	3.57840E+000	9	...........
	3	0.053333	6.42416E-001	2.80986E-004	0.00000E+000	1.80510E-004	1.68088E-001	6.42717E-001	3.57840E+000	9	...........
	4	0.066667	6.60149E-001	2.81054E-004	0.00000E+000	1.85538E-004	1.68088E-001	6.60442E-001	3.57840E+000	9	...........
	5	0.08	6.75867E-001	2.80994E-004	0.00000E+000	1.89915E-004	1.68088E-001	6.76162E-001	3.57840E+000	9	...........
	6	0.093333	6.89946E-001	2.80797E-004	0.00000E+000	1.93735E-004	1.68088E-001	6.90233E-001	3.57840E+000	9	...........
	7	0.106667	7.02716E-001	2.81366E-004	0.00000E+000	1.97720E-004	1.68088E-001	7.02999E-001	3.57840E+000	9	...........
	8	0.12	7.14324E-001	2.80881E-004	0.00000E+000	2.00640E-004	1.68088E-001	7.14644E-001	3.57840E+000	9	...........
	9	0.133333	7.25026E-001	2.81355E-004	0.00000E+000	2.03990E-004	1.68088E-001	7.25298E-001	3.57840E+000	9	...........
	10	0.146667	7.34830E-001	2.81359E-004	0.00000E+000	2.06751E-004	1.68088E-001	7.35135E-001	3.57840E+000	9	...........
	11	0.16	7.43963E-001	2.81622E-004	0.00000E+000	2.09516E-004	1.68088E-001	7.44286E-001	3.57840E+000	9	...........
	12	0.173333	7.52455E-001	2.81254E-004	0.00000E+000	2.11631E-004	1.68088E-001	7.52747E-001	3.57840E+000	9	...........
	13	0.186667	7.60351E-001	2.80863E-004	0.00000E+000	2.13554E-004	1.68088E-001	7.60654E-001	3.57840E+000	9	...........
	14	0.2	7.67754E-001	2.81304E-004	0.00000E+000	2.15973E-004	1.68088E-001	7.68087E-001	3.57840E+000	9	...........
	15	0.213333	7.74713E-001	2.81183E-004	0.00000E+000	2.17836E-004	1.68088E-001	7.75022E-001	3.57840E+000	9	...........
	16	0.226667	7.81243E-001	2.80405E-004	0.00000E+000	2.19065E-004	1.68088E-001	7.81571E-001	3.57840E+000	9	...........
	17	0.24	7.87410E-001	2.79583E-004	0.00000E+000	2.20147E-004	1.68088E-001	7.87745E-001	3.57840E+000	9	...........
	18	0.253333	7.93295E-001	2.80699E-004	0.00000E+000	2.22677E-004	1.68088E-001	7.93610E-001	3.57840E+000	9	...........
	19	0.266667	7.98814E-001	2.81904E-004	0.00000E+000	2.25189E-004	1.68088E-001	7.99116E-001	3.57840E+000	9	...........
	20	0.28	8.04065E-001	2.81454E-004	0.00000E+000	2.26308E-004	1.68088E-001	8.04350E-001	3.57840E+000	9	...........
	21	0.293333	8.09035E-001	2.80194E-004	0.00000E+000	2.26687E-004	1.68088E-001	8.09330E-001	3.57840E+000	9	...........
	22	0.306667	8.13822E-001	2.81190E-004	0.00000E+000	2.28839E-004	1.68088E-001	8.14120E-001	3.57840E+000	9	...........
	23	0.32	8.18405E-001	2.81434E-004	0.00000E+000	2.30327E-004	1.68088E-001	8.18720E-001	3.57840E+000	9	...........
	24	0.333333	8.22788E-001	2.80796E-004	0.00000E+000	2.31036E-004	1.68088E-001	8.23102E-001	3.57840E+000	9	...........
	25	0.346667	8.26943E-001	2.80880E-004	0.00000E+000	2.32272E-004	1.68088E-001	8.27263E-001	3.57840E+000	9	...........
	26	0.36	8.30960E-001	2.81433E-004	0.00000E+000	2.33859E-004	1.68088E-001	8.31270E-001	3.57840E+000	9	...........
	27	0.373333	8.34772E-001	2.81658E-004	0.00000E+000	2.35120E-004	1.68088E-001	8.35146E-001	3.57840E+000	9	...........
	28	0.386667	8.38498E-001	2.81146E-004	0.00000E+000	2.35740E-004	1.68088E-001	8.38835E-001	3.57840E+000	9	...........
	29	0.4	8.42061E-001	2.81336E-004	0.00000E+000	2.36902E-004	1.68088E-001	8.42391E-001	3.57840E+000	9	...........
	30	0.413333	8.45533E-001	2.80922E-004	0.00000E+000	2.37529E-004	1.68088E-001	8.45845E-001	3.57840E+000	9	...........
	31	0.426667	8.48848E-001	2.81484E-004	0.00000E+000	2.38937E-004	1.68088E-001	8.49178E-001	3.57840E+000	9	...........
	32	0.44	8.52049E-001	2.81229E-004	0.00000E+000	2.39621E-004	1.68088E-001	8.52397E-001	3.57840E+000	9	...........
	33	0.453333	8.55136E-001	2.81183E-004	0.00000E+000	2.40449E-004	1.68088E-001	8.55491E-001	3.57870E+000	9	...........
	34	0.466667	8.58146E-001	2.80887E-004	0.00000E+000	2.41042E-004	1.68088E-001	8.58479E-001	3.57920E+000	9	...........
	35	0.48	8.61086E-001	2.80954E-004	0.00000E+000	2.41926E-004	1.68088E-001	8.61403E-001	3.57920E+000	9	...........
	36	0.493333	8.63944E-001	2.81305E-004	0.00000E+000	2.43032E-004	1.68088E-001	8.64264E-001	3.57920E+000	9	...........
	37	0.506667	8.66677E-001	2.81535E-004	0.00000E+000	2.44000E-004	1.68088E-001	8.67016E-001	3.57920E+000	9	...........
	38	0.52	8.69388E-001	2.81731E-004	0.00000E+000	2.44933E-004	1.68088E-001	8.69728E-001	3.57920E+000	9	...........
	39	0.533333	8.71984E-001	2.81615E-004	0.00000E+000	2.45564E-004	1.68088E-001	8.72311E-001	3.57920E+000	9	...........
	40	0.546667	8.74531E-001	2.81125E-004	0.00000E+000	2.45853E-004	1.68088E-001	8.74873E-001	3.57920E+000	9	...........
	41	0.56	8.77037E-001	2.80861E-004	0.00000E+000	2.46325E-004	1.68088E-001	8.77341E-001	3.57920E+000	9	...........
	42	0.573333	8.79461E-001	2.80521E-004	0.00000E+000	2.46707E-004	1.68088E-001	8.79794E-001	3.57920E+000	9	...........
	43	0.586667	8.81890E-001	2.81603E-004	0.00000E+000	2.48343E-004	1.68088E-001	8.82215E-001	3.57920E+000	9	...........
	44	0.6	8.84221E-001	2.81166E-004	0.00000E+000	2.48613E-004	1.68088E-001	8.84553E-001	3.57920E+000	9	...........
	45	0.613333	8.86487E-001	2.81236E-004	0.00000E+000	2.49312E-004	1.68088E-001	8.86847E-001	3.57920E+000	9	...........
	46	0.626667	8.88691E-001	2.81342E-004	0.00000E+000	2.50026E-004	1.68088E-001	8.89053E-001	3.57920E+000	9	...........
	47	0.64	8.90852E-001	2.80741E-004	0.00000E+000	2.50098E-004	1.68088E-001	8.91216E-001	3.57920E+000	9	...........
	48	0.653333	8.92960E-001	2.80527E-004	0.00000E+000	2.50500E-004	1.68088E-001	8.93310E-001	3.57920E+000	9	...........
	49	0.666667	8.95011E-001	2.80288E-004	0.00000E+000	2.50860E-004	1.68088E-001	8.95398E-001	3.57920E+000	9	...........
	50	0.68	8.97034E-001	2.80964E-004	0.00000E+000	2.52034E-004	1.68088E-001	8.97418E-001	3.57920E+000	9	...........
	51	0.693333	8.99020E-001	2.81524E-004	0.00000E+000	2.53096E-004	1.68088E-001	8.99385E-001	3.57920E+000	9	...........
	52	0.706667	9.00969E-001	2.80463E-004	0.00000E+000	2.52688E-004	1.68088E-001	9.01345E-001	3.57920E+000	9	...........
	53	0.72	9.02918E-001	2.81201E-004	0.00000E+000	2.53902E-004	1.68088E-001	9.03260E-001	3.57920E+000	9	...........
	54	0.733333	9.04786E-001	2.79870E-004	0.00000E+000	2.53222E-004	1.68088E-001	9.05182E-001	3.57920E+000	9	...........
	55	0.746667	9.06635E-001	2.81487E-004	0.00000E+000	2.55206E-004	1.68088E-001	9.06997E-001	3.57920E+000	9	...........
	56	0.76	9.08462E-001	2.79939E-004	0.00000E+000	2.54314E-004	1.68088E-001	9.08820E-001	3.57920E+000	9	...........
	57	0.773333	9.10215E-001	2.81397E-004	0.00000E+000	2.56132E-004	1.68088E-001	9.10577E-001	3.57920E+000	9	...........
	58	0.786667	9.11937E-001	2.81253E-004	0.00000E+000	2.56485E-004	1.68088E-001	9.12289E-001	3.57920E+000	9	...........
	59	0.8	9.13663E-001	2.81001E-004	0.00000E+000	2.56740E-004	1.68088E-001	9.14040E-001	3.57920E+000	9	...........
	60	0.813333	9.15396E-001	2.80503E-004	0.00000E+000	2.56772E-004	1.68088E-001	9.15773E-001	3.57920E+000	9	...........
	61	0.826667	9.17058E-001	2.81497E-004	0.00000E+000	2.58149E-004	1.68088E-001	9.17450E-001	3.57920E+000	9	...........
	62	0.84	9.18702E-001	2.80896E-004	0.00000E+000	2.58060E-004	1.68088E-001	9.19102E-001	3.57920E+000	9	...........
	63	0.853333	9.20352E-001	2.81074E-004	0.00000E+000	2.58687E-004	1.68088E-001	9.20734E-001	3.57920E+000	9	...........
	64	0.866667	9.21995E-001	2.81342E-004	0.00000E+000	2.59396E-004	1.68088E-001	9.22370E-001	3.57920E+000	9	...........
	65	0.88	9.23605E-001	2.81327E-004	0.00000E+000	2.59835E-004	1.68088E-001	9.23925E-001	3.57920E+000	9	...........
	66	0.893333	9.25132E-001	2.81155E-004	0.00000E+000	2.60106E-004	1.68088E-001	9.25490E-001	3.57920E+000	9	...........
	67	0.906667	9.26646E-001	2.81088E-004	0.00000E+000	2.60469E-004	1.68088E-001	9.27005E-001	3.57920E+000	9	...........
	68	0.92	9.28126E-001	2.81653E-004	0.00000E+000	2.61410E-004	1.68088E-001	9.28484E-001	3.57920E+000	9	...........
	69	0.933333	9.29577E-001	2.80941E-004	0.00000E+000	2.61156E-004	1.68088E-001	9.29937E-001	3.57920E+000	9	...........
	70	0.946667	9.31066E-001	2.80690E-004	0.00000E+000	2.61341E-004	1.68088E-001	9.31404E-001	3.57920E+000	9	...........
	71	0.96	9.32521E-001	2.80880E-004	0.00000E+000	2.61927E-004	1.68088E-001	9.32872E-001	3.57920E+000	9	...........
	72	0.97333	9.33973E-001	2.81176E-004	0.00000E+000	2.62611E-004	1.68088E-001	9.34318E-001	3.57920E+000	9	...........
	73	0.98667	9.35358E-001	2.81349E-004	0.00000E+000	2.63162E-004	1.68088E-001	9.35715E-001	3.57920E+000	9	...........
	74	1	9.36749E-001	2.81403E-004	0.00000E+000	2.63604E-004	1.68088E-001	9.37096E-001	3.57920E+000	9	...........
	75	1.01333	9.38123E-001	2.80749E-004	0.00000E+000	2.63377E-004	1.68088E-001	9.38484E-001	3.57920E+000	9	...........
	76	1.02667	9.39519E-001	2.80967E-004	0.00000E+000	2.63974E-004	1.68088E-001	9.39891E-001	3.57920E+000	9	...........
	77	1.04	9.40868E-001	2.81257E-004	0.00000E+000	2.64625E-004	1.68088E-001	9.41236E-001	3.57920E+000	9	...........
	78	1.05333	9.42193E-001	2.80691E-004	0.00000E+000	2.64465E-004	1.68088E-001	9.42566E-001	3.57920E+000	9	...........
	79	1.06667	9.43490E-001	2.81193E-004	0.00000E+000	2.65303E-004	1.68088E-001	9.43879E-001	3.57920E+000	9	...........
	80	1.08	9.44818E-001	2.81077E-004	0.00000E+000	2.65567E-004	1.68088E-001	9.45208E-001	3.57920E+000	9	...........
	81	1.09333	9.46131E-001	2.80971E-004	0.00000E+000	2.65835E-004	1.68088E-001	9.46528E-001	3.57920E+000	9	...........
	82	1.10667	9.47445E-001	2.80674E-004	0.00000E+000	2.65923E-004	1.68088E-001	9.47843E-001	3.57920E+000	9	...........
	83	1.12	9.48696E-001	2.81308E-004	0.00000E+000	2.66875E-004	1.68088E-001	9.49075E-001	3.57920E+000	9	...........
	84	1.13333	9.49919E-001	2.80977E-004	0.00000E+000	2.66906E-004	1.68088E-001	9.50298E-001	3.57920E+000	9	...........
	85	1.14667	9.51157E-001	2.80582E-004	0.00000E+000	2.66878E-004	1.68088E-001	9.51555E-001	3.57920E+000	9	...........
	86	1.16	9.52377E-001	2.81588E-004	0.00000E+000	2.68178E-004	1.68088E-001	9.52769E-001	3.57920E+000	9	...........
	87	1.17333	9.53616E-001	2.82138E-004	0.00000E+000	2.69051E-004	1.68088E-001	9.53988E-001	3.57920E+000	9	...........
	88	1.18667	9.54803E-001	2.80658E-004	0.00000E+000	2.67974E-004	1.68088E-001	9.55163E-001	3.57920E+000	9	...........
	89	1.2	9.55975E-001	2.81374E-004	0.00000E+000	2.68987E-004	1.68088E-001	9.56335E-001	3.57920E+000	9	...........
	90	1.21333	9.57175E-001	2.81433E-004	0.00000E+000	2.69380E-004	1.68088E-001	9.57530E-001	3.57920E+000	9	...........
	91	1.22667	9.58344E-001	2.81066E-004	0.00000E+000	2.69358E-004	1.68088E-001	9.58718E-001	3.57920E+000	9	...........
	92	1.24	9.59520E-001	2.81062E-004	0.00000E+000	2.69684E-004	1.68088E-001	9.59904E-001	3.57920E+000	9	...........
	93	1.25333	9.60680E-001	2.80579E-004	0.00000E+000	2.69547E-004	1.68088E-001	9.61073E-001	3.57920E+000	9	...........
	94	1.26667	9.61823E-001	2.80946E-004	0.00000E+000	2.70220E-004	1.68088E-001	9.62196E-001	3.57920E+000	9	...........
	95	1.28	9.62995E-001	2.81421E-004	0.00000E+000	2.71007E-004	1.68088E-001	9.63376E-001	3.57920E+000	9	...........
	96	1.29333	9.64133E-001	2.81602E-004	0.00000E+000	2.71502E-004	1.68088E-001	9.64523E-001	3.57920E+000	9	...........
	97	1.30667	9.65224E-001	2.81173E-004	0.00000E+000	2.71395E-004	1.68088E-001	9.65631E-001	3.57920E+000	9	...........
	98	1.32	9.66352E-001	2.81274E-004	0.00000E+000	2.71810E-004	1.68088E-001	9.66733E-001	3.57920E+000	9	...........
	99	1.33333	9.67445E-001	2.81568E-004	0.00000E+000	2.72402E-004	1.68088E-001	9.67823E-001	3.57920E+000	9	...........
	100	1.34667	9.68513E-001	2.80613E-004	0.00000E+000	2.71777E-004	1.68088E-001	9.68890E-001	3.57920E+000	9	...........
	101	1.36	9.69581E-001	2.80737E-004	0.00000E+000	2.72197E-004	1.68088E-001	9.69973E-001	3.57920E+000	9	...........
	102	1.37333	9.70656E-001	2.80850E-004	0.00000E+000	2.72609E-004	1.68088E-001	9.71041E-001	3.57920E+000	9	...........
	103	1.38667	9.71699E-001	2.80758E-004	0.00000E+000	2.72813E-004	1.68088E-001	9.72095E-001	3.57920E+000	9	...........
	104	1.4	9.72770E-001	2.80520E-004	0.00000E+000	2.72881E-004	1.68088E-001	9.73130E-001	3.57920E+000	9	...........
	105	1.41333	9.73795E-001	2.80810E-004	0.00000E+000	2.73451E-004	1.68088E-001	9.74134E-001	3.57920E+000	9	...........
	106	1.42667	9.74790E-001	2.82161E-004	0.00000E+000	2.75048E-004	1.68088E-001	9.75144E-001	3.57920E+000	9	...........
	107	1.44	9.75832E-001	2.81656E-004	0.00000E+000	2.74849E-004	1.68088E-001	9.76179E-001	3.57920E+000	9	...........
	108	1.45333	9.76820E-001	2.81122E-004	0.00000E+000	2.74606E-004	1.68088E-001	9.77191E-001	3.57875E+000	9	...........
	109	1.46667	9.77800E-001	2.80885E-004	0.00000E+000	2.74649E-004	1.68088E-001	9.78203E-001	3.57800E+000	9	...........
	110	1.48	9.78783E-001	2.81439E-004	0.00000E+000	2.75468E-004	1.68088E-001	9.79140E-001	3.57800E+000	9	...........
	111	1.49333	9.79745E-001	2.81006E-004	0.00000E+000	2.75315E-004	1.68088E-001	9.80140E-001	3.57800E+000	9	...........
	112	1.50667	9.80733E-001	2.80847E-004	0.00000E+000	2.75436E-004	1.68088E-001	9.81101E-001	3.57800E+000	9	...........
	113	1.52	9.81708E-001	2.80939E-004	0.00000E+000	2.75800E-004	1.68088E-001	9.82087E-001	3.57800E+000	9	...........
	114	1.53333	9.82655E-001	2.80351E-004	0.00000E+000	2.75488E-004	1.68088E-001	9.83020E-001	3.57800E+000	9	...........
	115	1.54667	9.83621E-001	2.81556E-004	0.00000E+000	2.76944E-004	1.68088E-001	9.83977E-001	3.57800E+000	9	...........
	116	1.56	9.84529E-001	2.81348E-004	0.00000E+000	2.76995E-004	1.68088E-001	9.84961E-001	3.57800E+000	9	...........
	117	1.57333	9.85488E-001	2.81090E-004	0.00000E+000	2.77011E-004	1.68088E-001	9.85886E-001	3.57800E+000	9	...........
	118	1.58667	9.86415E-001	2.80894E-004	0.00000E+000	2.77078E-004	1.68088E-001	9.86801E-001	3.57800E+000	9	...........
	119	1.6	9.87341E-001	2.81146E-004	0.00000E+000	2.77587E-004	1.68088E-001	9.87777E-001	3.57800E+000	9	...........
	120	1.61333	9.88307E-001	2.80521E-004	0.00000E+000	2.77241E-004	1.68088E-001	9.88704E-001	3.57800E+000	9	...........
	121	1.62667	9.89213E-001	2.80921E-004	0.00000E+000	2.77891E-004	1.68088E-001	9.89576E-001	3.57800E+000	9	...........
	122	1.64	9.90112E-001	2.80920E-004	0.00000E+000	2.78142E-004	1.68088E-001	9.90497E-001	3.57800E+000	9	...........
	123	1.65333	9.90978E-001	2.81483E-004	0.00000E+000	2.78943E-004	1.68088E-001	9.91364E-001	3.57800E+000	9	...........
	124	1.66667	9.91858E-001	2.81127E-004	0.00000E+000	2.78838E-004	1.68088E-001	9.92255E-001	3.57800E+000	9	...........
	125	1.68	9.92713E-001	2.81544E-004	0.00000E+000	2.79493E-004	1.68088E-001	9.93115E-001	3.57800E+000	9	...........
	126	1.69333	9.93602E-001	2.81210E-004	0.00000E+000	2.79411E-004	1.68088E-001	9.94007E-001	3.57800E+000	9	...........
	127	1.70667	9.94445E-001	2.81446E-004	0.00000E+000	2.79883E-004	1.68088E-001	9.94859E-001	3.57800E+000	9	...........
	128	1.72	9.95258E-001	2.80313E-004	0.00000E+000	2.78983E-004	1.68088E-001	9.95666E-001	3.57800E+000	9	...........
	129	1.73333	9.96127E-001	2.81554E-004	0.00000E+000	2.80464E-004	1.68088E-001	9.96525E-001	3.57800E+000	9	...........
	130	1.74667	9.96985E-001	2.81293E-004	0.00000E+000	2.80445E-004	1.68088E-001	9.97401E-001	3.57800E+000	9	...........
	131	1.76	9.97834E-001	2.81190E-004	0.00000E+000	2.80581E-004	1.68088E-001	9.98217E-001	3.57800E+000	9	...........
	132	1.77333	9.98647E-001	2.80849E-004	0.00000E+000	2.80469E-004	1.68088E-001	9.99031E-001	3.57800E+000	9	...........
	133	1.78667	9.99457E-001	2.81000E-004	0.00000E+000	2.80848E-004	1.68088E-001	9.99859E-001	3.57800E+000	9	...........
	134	1.79	9.99951E-001	2.80294E-004	0.00000E+000	2.80280E-004	1.68088E-001	1.00041E+000	3.57800E+000	9	...........
STARTTIMEOFFSET	QUANT	365.8601	Start Time Offset (s)
