EXPLAIN
TAG	PWR800_CHARGE
TITLE	LABEL	PWR Cyclic Charge Discharge (Cell) - Charge Step	Test &Identifier
DATE	LABEL	7-7-2017	Date
TIME	LABEL	15:36:39	Time
NOTES	NOTES	3	&Notes...
	supercap test cell
	2.8mg
	6M KOH
PSTAT	PSTAT	IFC5000-01520	Potentiostat
CAPACITY	QUANT	1.00000E-003	Capacity (A-hr)
CELLTYPE	SELECTOR	1	&Cell Type
WORKINGCONNECTION	SELECTOR	0	&Working Lead
MAXCHARGETIME	VARIABLEANDUNITS	1.00000E+002	s	1.00000E+002	second(s)	Max &Charge Time
CHARGECURRENT	QUANT	2.80000E-004	&Charge Current (A) 
VOLTAGEFINISH	TWOPARAM	F	1.00000E-003	3.60000E+003	&Voltage Finish	 I (A) < 	Max Time(s)
SAMPLETIME	QUANT	1.00000E-002	Sa&mple Period (s)
CHARGESTOPAT1	MULTIPARAM	4	1.00000E+000	Charge Stop At &1	Voltage > Limit	V
CHARGESTOPAT2	MULTIPARAM	0	0.00000E+000	Charge Stop At &2	None	N/A
AESBHCSELECTOR	TOGGLE	F	Save Both Half Cells
IRCOMP	TOGGLE	F	IR &Measure
EOC	QUANT	0	Open Circuit (V)
SEQUENCER	TOGGLE	TRUE	Run as Sequence
PSTATMODEL	IQUANT	53	Pstat Model
PSTATSECTION	LABEL	IFC5000-01520	Pstat Section
PSTATSERIALNO	LABEL	01520	Pstat Serial Number
CTRLMODE	IQUANT	0	Control Mode
ELECTROMETER	IQUANT	1	RE=0 or CS=1
IESTAB	IQUANT	0	I/E Stability
CASPEED	IQUANT	4	Control Amp Speed
CONVENTION	IQUANT	1	Current Convention
ICHRANGE	IQUANT	2	Ich Range
ICHRANGEMODE	TOGGLE	T	Ich Auto Range
ICHOFFSETENABLE	TOGGLE	F	Ich Offset Enable
ICHOFFSET	QUANT	0	Ich Offset (V)
ICHFILTER	IQUANT	1	Ich Filter
VCHRANGE	IQUANT	2	Vch Range
VCHRANGEMODE	TOGGLE	T	Vch Auto Range
VCHOFFSETENABLE	TOGGLE	F	Vch Offset Enable
VCHOFFSET	QUANT	0	Vch Offset (V)
VCHFILTER	IQUANT	1	Vch Filter
IERANGELOWERLIMIT	IQUANT	9	I/E Range Lower Limit
IERANGEMODE	TOGGLE	F	I/E AutoRange
IERANGE	IQUANT	9	I/E Range
ACHSELECT	IQUANT	1	Ach Select
ACHRANGE	IQUANT	2	Ach Range
ACHOFFSETENABLE	TOGGLE	F	Ach Offset Enable
ACHOFFSET	QUANT	0	Ach Offset (V)
ACHFILTER	IQUANT	1	Ach Filter
CABLEID	IQUANT	14	Cable ID
DCCALDATE	LABEL	5-7-2017	DC Calibration Date
ACCALDATE	LABEL	12/3/2015	AC Calibration Date
FRAMEWORKVERSION	QUANT	7.01	Framework Version
INSTRUMENTVERSION	LABEL	4.00	Instrument Version
CURVE	TABLE	222
	Pt	T	Vf	Im	Vu	Pwr	Sig	Ach	Temp	IERange	Over
	#	s	V	A	V	W	V	V	deg C	#	bits
	0	0.013333	5.45137E-001	2.80773E-004	0.00000E+000	1.53060E-004	1.68088E-001	5.45384E-001	3.57840E+000	9	...........
	1	0.026667	5.71409E-001	2.81583E-004	0.00000E+000	1.60899E-004	1.68088E-001	5.71657E-001	3.57840E+000	9	...........
	2	0.04	5.93064E-001	2.79976E-004	0.00000E+000	1.66044E-004	1.68088E-001	5.93356E-001	3.57840E+000	9	...........
	3	0.053333	6.11517E-001	2.81038E-004	0.00000E+000	1.71859E-004	1.68088E-001	6.11772E-001	3.57840E+000	9	...........
	4	0.066667	6.27536E-001	2.80867E-004	0.00000E+000	1.76254E-004	1.68088E-001	6.27789E-001	3.57840E+000	9	...........
	5	0.08	6.41607E-001	2.81624E-004	0.00000E+000	1.80692E-004	1.68088E-001	6.41881E-001	3.57840E+000	9	...........
	6	0.093333	6.54144E-001	2.81236E-004	0.00000E+000	1.83969E-004	1.68088E-001	6.54417E-001	3.57840E+000	9	...........
	7	0.106667	6.65476E-001	2.81031E-004	0.00000E+000	1.87020E-004	1.68088E-001	6.65760E-001	3.57840E+000	9	...........
	8	0.12	6.75789E-001	2.81625E-004	0.00000E+000	1.90319E-004	1.68088E-001	6.76059E-001	3.57840E+000	9	...........
	9	0.133333	6.85163E-001	2.80277E-004	0.00000E+000	1.92036E-004	1.68088E-001	6.85438E-001	3.57840E+000	9	...........
	10	0.146667	6.93788E-001	2.81048E-004	0.00000E+000	1.94988E-004	1.68088E-001	6.94084E-001	3.57840E+000	9	...........
	11	0.16	7.01796E-001	2.80718E-004	0.00000E+000	1.97007E-004	1.68088E-001	7.02084E-001	3.57840E+000	9	...........
	12	0.173333	7.09207E-001	2.81083E-004	0.00000E+000	1.99346E-004	1.68088E-001	7.09515E-001	3.57840E+000	9	...........
	13	0.186667	7.16149E-001	2.81472E-004	0.00000E+000	2.01576E-004	1.68088E-001	7.16458E-001	3.57840E+000	9	...........
	14	0.2	7.22641E-001	2.80415E-004	0.00000E+000	2.02639E-004	1.68088E-001	7.22951E-001	3.57840E+000	9	...........
	15	0.213333	7.28701E-001	2.81242E-004	0.00000E+000	2.04941E-004	1.68088E-001	7.29003E-001	3.57840E+000	9	...........
	16	0.226667	7.34413E-001	2.81573E-004	0.00000E+000	2.06791E-004	1.68088E-001	7.34709E-001	3.57840E+000	9	...........
	17	0.24	7.39832E-001	2.81551E-004	0.00000E+000	2.08301E-004	1.68088E-001	7.40119E-001	3.57840E+000	9	...........
	18	0.253333	7.45012E-001	2.81535E-004	0.00000E+000	2.09747E-004	1.68088E-001	7.45269E-001	3.57840E+000	9	...........
	19	0.266667	7.49864E-001	2.80837E-004	0.00000E+000	2.10589E-004	1.68088E-001	7.50134E-001	3.57840E+000	9	...........
	20	0.28	7.54512E-001	2.81796E-004	0.00000E+000	2.12618E-004	1.68088E-001	7.54801E-001	3.57840E+000	9	...........
	21	0.293333	7.58908E-001	2.81690E-004	0.00000E+000	2.13777E-004	1.68088E-001	7.59195E-001	3.57840E+000	9	...........
	22	0.306667	7.63153E-001	2.81234E-004	0.00000E+000	2.14624E-004	1.68088E-001	7.63432E-001	3.57840E+000	9	...........
	23	0.32	7.67149E-001	2.81167E-004	0.00000E+000	2.15697E-004	1.68088E-001	7.67467E-001	3.57840E+000	9	...........
	24	0.333333	7.71060E-001	2.80884E-004	0.00000E+000	2.16578E-004	1.68088E-001	7.71359E-001	3.57840E+000	9	...........
	25	0.346667	7.74773E-001	2.81617E-004	0.00000E+000	2.18189E-004	1.68088E-001	7.75074E-001	3.57840E+000	9	...........
	26	0.36	7.78340E-001	2.81491E-004	0.00000E+000	2.19096E-004	1.68088E-001	7.78649E-001	3.57840E+000	9	...........
	27	0.373333	7.81792E-001	2.81097E-004	0.00000E+000	2.19759E-004	1.68088E-001	7.82096E-001	3.57840E+000	9	...........
	28	0.386667	7.85123E-001	2.80924E-004	0.00000E+000	2.20560E-004	1.68088E-001	7.85361E-001	3.57840E+000	9	...........
	29	0.4	7.88325E-001	2.80986E-004	0.00000E+000	2.21508E-004	1.68088E-001	7.88559E-001	3.57840E+000	9	...........
	30	0.413333	7.91416E-001	2.81165E-004	0.00000E+000	2.22518E-004	1.68088E-001	7.91706E-001	3.57840E+000	9	...........
	31	0.426667	7.94495E-001	2.81178E-004	0.00000E+000	2.23395E-004	1.68088E-001	7.94761E-001	3.57840E+000	9	...........
	32	0.44	7.97382E-001	2.80511E-004	0.00000E+000	2.23674E-004	1.68088E-001	7.97655E-001	3.57840E+000	9	...........
	33	0.453333	8.00206E-001	2.81396E-004	0.00000E+000	2.25175E-004	1.68088E-001	8.00469E-001	3.57840E+000	9	...........
	34	0.466667	8.02922E-001	2.81971E-004	0.00000E+000	2.26401E-004	1.68088E-001	8.03212E-001	3.57840E+000	9	...........
	35	0.48	8.05580E-001	2.81032E-004	0.00000E+000	2.26394E-004	1.68088E-001	8.05877E-001	3.57840E+000	9	...........
	36	0.493333	8.08160E-001	2.81269E-004	0.00000E+000	2.27310E-004	1.68088E-001	8.08463E-001	3.57840E+000	9	...........
	37	0.506667	8.10677E-001	2.81186E-004	0.00000E+000	2.27951E-004	1.68088E-001	8.10986E-001	3.57840E+000	9	...........
	38	0.52	8.13146E-001	2.80635E-004	0.00000E+000	2.28197E-004	1.68088E-001	8.13471E-001	3.57840E+000	9	...........
	39	0.533333	8.15550E-001	2.80919E-004	0.00000E+000	2.29104E-004	1.68088E-001	8.15857E-001	3.57840E+000	9	...........
	40	0.546667	8.17895E-001	2.81171E-004	0.00000E+000	2.29968E-004	1.68088E-001	8.18223E-001	3.57840E+000	9	...........
	41	0.56	8.20195E-001	2.81976E-004	0.00000E+000	2.31276E-004	1.68088E-001	8.20512E-001	3.57840E+000	9	...........
	42	0.573333	8.22439E-001	2.81595E-004	0.00000E+000	2.31595E-004	1.68088E-001	8.22767E-001	3.57840E+000	9	...........
	43	0.586667	8.24655E-001	2.81042E-004	0.00000E+000	2.31763E-004	1.68088E-001	8.24993E-001	3.57840E+000	9	...........
	44	0.6	8.26797E-001	2.81253E-004	0.00000E+000	2.32539E-004	1.68088E-001	8.27111E-001	3.57840E+000	9	...........
	45	0.613333	8.28899E-001	2.80874E-004	0.00000E+000	2.32816E-004	1.68088E-001	8.29227E-001	3.57840E+000	9	...........
	46	0.626667	8.30977E-001	2.80761E-004	0.00000E+000	2.33306E-004	1.68088E-001	8.31318E-001	3.57840E+000	9	...........
	47	0.64	8.33004E-001	2.80423E-004	0.00000E+000	2.33594E-004	1.68088E-001	8.33366E-001	3.57840E+000	9	...........
	48	0.653333	8.34994E-001	2.81556E-004	0.00000E+000	2.35097E-004	1.68088E-001	8.35340E-001	3.57840E+000	9	...........
	49	0.666667	8.36928E-001	2.81459E-004	0.00000E+000	2.35561E-004	1.68088E-001	8.37262E-001	3.57840E+000	9	...........
	50	0.68	8.38803E-001	2.80768E-004	0.00000E+000	2.35509E-004	1.68088E-001	8.39117E-001	3.57840E+000	9	...........
	51	0.693333	8.40598E-001	2.81513E-004	0.00000E+000	2.36639E-004	1.68088E-001	8.40918E-001	3.57902E+000	9	...........
	52	0.706667	8.42443E-001	2.81438E-004	0.00000E+000	2.37095E-004	1.68088E-001	8.42762E-001	3.57940E+000	9	...........
	53	0.72	8.44281E-001	2.81100E-004	0.00000E+000	2.37328E-004	1.68088E-001	8.44591E-001	3.57940E+000	9	...........
	54	0.733333	8.46074E-001	2.80312E-004	0.00000E+000	2.37164E-004	1.68088E-001	8.46380E-001	3.57940E+000	9	...........
	55	0.746667	8.47824E-001	2.81061E-004	0.00000E+000	2.38290E-004	1.68088E-001	8.48149E-001	3.57940E+000	9	...........
	56	0.76	8.49564E-001	2.81313E-004	0.00000E+000	2.38993E-004	1.68088E-001	8.49881E-001	3.57940E+000	9	...........
	57	0.773333	8.51255E-001	2.81455E-004	0.00000E+000	2.39590E-004	1.68088E-001	8.51581E-001	3.57940E+000	9	...........
	58	0.786667	8.52923E-001	2.81074E-004	0.00000E+000	2.39735E-004	1.68088E-001	8.53237E-001	3.57940E+000	9	...........
	59	0.8	8.54576E-001	2.81425E-004	0.00000E+000	2.40499E-004	1.68088E-001	8.54868E-001	3.57940E+000	9	...........
	60	0.813333	8.56180E-001	2.81240E-004	0.00000E+000	2.40792E-004	1.68088E-001	8.56528E-001	3.57940E+000	9	...........
	61	0.826667	8.57786E-001	2.81690E-004	0.00000E+000	2.41630E-004	1.68088E-001	8.58133E-001	3.57940E+000	9	...........
	62	0.84	8.59392E-001	2.80787E-004	0.00000E+000	2.41306E-004	1.68088E-001	8.59749E-001	3.57940E+000	9	...........
	63	0.853333	8.60961E-001	2.81024E-004	0.00000E+000	2.41951E-004	1.68088E-001	8.61268E-001	3.57940E+000	9	...........
	64	0.866667	8.62493E-001	2.81623E-004	0.00000E+000	2.42898E-004	1.68088E-001	8.62812E-001	3.57940E+000	9	...........
	65	0.88	8.64013E-001	2.81144E-004	0.00000E+000	2.42912E-004	1.68088E-001	8.64334E-001	3.57940E+000	9	...........
	66	0.893333	8.65534E-001	2.81479E-004	0.00000E+000	2.43630E-004	1.68088E-001	8.65864E-001	3.57940E+000	9	...........
	67	0.906667	8.67013E-001	2.80470E-004	0.00000E+000	2.43171E-004	1.68088E-001	8.67357E-001	3.57940E+000	9	...........
	68	0.92	8.68476E-001	2.80697E-004	0.00000E+000	2.43779E-004	1.68088E-001	8.68841E-001	3.57940E+000	9	...........
	69	0.933333	8.69972E-001	2.81984E-004	0.00000E+000	2.45318E-004	1.68088E-001	8.70311E-001	3.57940E+000	9	...........
	70	0.946667	8.71388E-001	2.81142E-004	0.00000E+000	2.44984E-004	1.68088E-001	8.71741E-001	3.57940E+000	9	...........
	71	0.96	8.72842E-001	2.81234E-004	0.00000E+000	2.45472E-004	1.68088E-001	8.73173E-001	3.57940E+000	9	...........
	72	0.97333	8.74233E-001	2.81197E-004	0.00000E+000	2.45832E-004	1.68088E-001	8.74613E-001	3.57940E+000	9	...........
	73	0.98667	8.75640E-001	2.81576E-004	0.00000E+000	2.46560E-004	1.68088E-001	8.76019E-001	3.57940E+000	9	...........
	74	1	8.77021E-001	2.81265E-004	0.00000E+000	2.46675E-004	1.68088E-001	8.77403E-001	3.57940E+000	9	...........
	75	1.01333	8.78389E-001	2.80996E-004	0.00000E+000	2.46824E-004	1.68088E-001	8.78748E-001	3.57940E+000	9	...........
	76	1.02667	8.79733E-001	2.80924E-004	0.00000E+000	2.47138E-004	1.68088E-001	8.80089E-001	3.57940E+000	9	...........
	77	1.04	8.81067E-001	2.81238E-004	0.00000E+000	2.47789E-004	1.68088E-001	8.81434E-001	3.57940E+000	9	...........
	78	1.05333	8.82405E-001	2.80930E-004	0.00000E+000	2.47894E-004	1.68088E-001	8.82771E-001	3.57940E+000	9	...........
	79	1.06667	8.83734E-001	2.81403E-004	0.00000E+000	2.48686E-004	1.68088E-001	8.84092E-001	3.57940E+000	9	...........
	80	1.08	8.85051E-001	2.80856E-004	0.00000E+000	2.48572E-004	1.68088E-001	8.85412E-001	3.57940E+000	9	...........
	81	1.09333	8.86342E-001	2.80821E-004	0.00000E+000	2.48903E-004	1.68088E-001	8.86690E-001	3.57940E+000	9	...........
	82	1.10667	8.87613E-001	2.81672E-004	0.00000E+000	2.50016E-004	1.68088E-001	8.87959E-001	3.57940E+000	9	...........
	83	1.12	8.88817E-001	2.81128E-004	0.00000E+000	2.49872E-004	1.68088E-001	8.89149E-001	3.57940E+000	9	...........
	84	1.13333	8.90055E-001	2.80828E-004	0.00000E+000	2.49953E-004	1.68088E-001	8.90383E-001	3.57940E+000	9	...........
	85	1.14667	8.91267E-001	2.80524E-004	0.00000E+000	2.50022E-004	1.68088E-001	8.91639E-001	3.57940E+000	9	...........
	86	1.16	8.92510E-001	2.81009E-004	0.00000E+000	2.50803E-004	1.68088E-001	8.92844E-001	3.57940E+000	9	...........
	87	1.17333	8.93708E-001	2.80845E-004	0.00000E+000	2.50993E-004	1.68088E-001	8.94055E-001	3.57940E+000	9	...........
	88	1.18667	8.94878E-001	2.81106E-004	0.00000E+000	2.51556E-004	1.68088E-001	8.95309E-001	3.57940E+000	9	...........
	89	1.2	8.96081E-001	2.80307E-004	0.00000E+000	2.51178E-004	1.68088E-001	8.96472E-001	3.57940E+000	9	...........
	90	1.21333	8.97229E-001	2.80588E-004	0.00000E+000	2.51751E-004	1.68088E-001	8.97597E-001	3.57940E+000	9	...........
	91	1.22667	8.98383E-001	2.80811E-004	0.00000E+000	2.52276E-004	1.68088E-001	8.98774E-001	3.57940E+000	9	...........
	92	1.24	8.99533E-001	2.81664E-004	0.00000E+000	2.53366E-004	1.68088E-001	8.99924E-001	3.57940E+000	9	...........
	93	1.25333	9.00684E-001	2.80504E-004	0.00000E+000	2.52646E-004	1.68088E-001	9.01093E-001	3.57940E+000	9	...........
	94	1.26667	9.01816E-001	2.80607E-004	0.00000E+000	2.53056E-004	1.68088E-001	9.02213E-001	3.57940E+000	9	...........
	95	1.28	9.02890E-001	2.81367E-004	0.00000E+000	2.54043E-004	1.68088E-001	9.03293E-001	3.57940E+000	9	...........
	96	1.29333	9.03976E-001	2.81636E-004	0.00000E+000	2.54592E-004	1.68088E-001	9.04377E-001	3.57940E+000	9	...........
	97	1.30667	9.05103E-001	2.80715E-004	0.00000E+000	2.54076E-004	1.68088E-001	9.05498E-001	3.57940E+000	9	...........
	98	1.32	9.06184E-001	2.81621E-004	0.00000E+000	2.55201E-004	1.68088E-001	9.06584E-001	3.57940E+000	9	...........
	99	1.33333	9.07228E-001	2.80991E-004	0.00000E+000	2.54923E-004	1.68088E-001	9.07629E-001	3.57940E+000	9	...........
	100	1.34667	9.08348E-001	2.81536E-004	0.00000E+000	2.55733E-004	1.68088E-001	9.08733E-001	3.57940E+000	9	...........
	101	1.36	9.09405E-001	2.80953E-004	0.00000E+000	2.55500E-004	1.68088E-001	9.09765E-001	3.57940E+000	9	...........
	102	1.37333	9.10473E-001	2.81851E-004	0.00000E+000	2.56618E-004	1.68088E-001	9.10837E-001	3.57940E+000	9	...........
	103	1.38667	9.11512E-001	2.81402E-004	0.00000E+000	2.56502E-004	1.68088E-001	9.11869E-001	3.57940E+000	9	...........
	104	1.4	9.12571E-001	2.81005E-004	0.00000E+000	2.56437E-004	1.68088E-001	9.12933E-001	3.57940E+000	9	...........
	105	1.41333	9.13610E-001	2.81366E-004	0.00000E+000	2.57059E-004	1.68088E-001	9.14004E-001	3.57940E+000	9	...........
	106	1.42667	9.14701E-001	2.81544E-004	0.00000E+000	2.57529E-004	1.68088E-001	9.15084E-001	3.57940E+000	9	...........
	107	1.44	9.15769E-001	2.81412E-004	0.00000E+000	2.57708E-004	1.68088E-001	9.16150E-001	3.57940E+000	9	...........
	108	1.45333	9.16799E-001	2.80792E-004	0.00000E+000	2.57430E-004	1.68088E-001	9.17173E-001	3.57940E+000	9	...........
	109	1.46667	9.17829E-001	2.81458E-004	0.00000E+000	2.58330E-004	1.68088E-001	9.18219E-001	3.57940E+000	9	...........
	110	1.48	9.18830E-001	2.80268E-004	0.00000E+000	2.57518E-004	1.68088E-001	9.19192E-001	3.57940E+000	9	...........
	111	1.49333	9.19835E-001	2.81511E-004	0.00000E+000	2.58943E-004	1.68088E-001	9.20224E-001	3.57940E+000	9	...........
	112	1.50667	9.20883E-001	2.81139E-004	0.00000E+000	2.58896E-004	1.68088E-001	9.21213E-001	3.57940E+000	9	...........
	113	1.52	9.21866E-001	2.81230E-004	0.00000E+000	2.59257E-004	1.68088E-001	9.22192E-001	3.57940E+000	9	...........
	114	1.53333	9.22858E-001	2.80848E-004	0.00000E+000	2.59183E-004	1.68088E-001	9.23170E-001	3.57940E+000	9	...........
	115	1.54667	9.23848E-001	2.80972E-004	0.00000E+000	2.59575E-004	1.68088E-001	9.24199E-001	3.57940E+000	9	...........
	116	1.56	9.24842E-001	2.81044E-004	0.00000E+000	2.59921E-004	1.68088E-001	9.25153E-001	3.57940E+000	9	...........
	117	1.57333	9.25806E-001	2.81687E-004	0.00000E+000	2.60787E-004	1.68088E-001	9.26143E-001	3.57940E+000	9	...........
	118	1.58667	9.26791E-001	2.81715E-004	0.00000E+000	2.61091E-004	1.68088E-001	9.27142E-001	3.57940E+000	9	...........
	119	1.6	9.27763E-001	2.81434E-004	0.00000E+000	2.61104E-004	1.68088E-001	9.28113E-001	3.57940E+000	9	...........
	120	1.61333	9.28692E-001	2.80790E-004	0.00000E+000	2.60767E-004	1.68088E-001	9.29054E-001	3.57940E+000	9	...........
	121	1.62667	9.29625E-001	2.80594E-004	0.00000E+000	2.60847E-004	1.68088E-001	9.29972E-001	3.57940E+000	9	...........
	122	1.64	9.30562E-001	2.80575E-004	0.00000E+000	2.61092E-004	1.68088E-001	9.30905E-001	3.57940E+000	9	...........
	123	1.65333	9.31461E-001	2.81148E-004	0.00000E+000	2.61878E-004	1.68088E-001	9.31833E-001	3.57940E+000	9	...........
	124	1.66667	9.32372E-001	2.81304E-004	0.00000E+000	2.62280E-004	1.68088E-001	9.32724E-001	3.57940E+000	9	...........
	125	1.68	9.33250E-001	2.80922E-004	0.00000E+000	2.62171E-004	1.68088E-001	9.33613E-001	3.57940E+000	9	...........
	126	1.69333	9.34142E-001	2.81450E-004	0.00000E+000	2.62914E-004	1.68088E-001	9.34488E-001	3.57915E+000	9	...........
	127	1.70667	9.35046E-001	2.80703E-004	0.00000E+000	2.62470E-004	1.68088E-001	9.35387E-001	3.57900E+000	9	...........
	128	1.72	9.35960E-001	2.81185E-004	0.00000E+000	2.63177E-004	1.68088E-001	9.36263E-001	3.57900E+000	9	...........
	129	1.73333	9.36840E-001	2.81500E-004	0.00000E+000	2.63721E-004	1.68088E-001	9.37186E-001	3.57900E+000	9	...........
	130	1.74667	9.37727E-001	2.81675E-004	0.00000E+000	2.64135E-004	1.68088E-001	9.38071E-001	3.57900E+000	9	...........
	131	1.76	9.38631E-001	2.80850E-004	0.00000E+000	2.63615E-004	1.68088E-001	9.38990E-001	3.57900E+000	9	...........
	132	1.77333	9.39520E-001	2.81170E-004	0.00000E+000	2.64165E-004	1.68088E-001	9.39903E-001	3.57900E+000	9	...........
	133	1.78667	9.40405E-001	2.81222E-004	0.00000E+000	2.64463E-004	1.68088E-001	9.40754E-001	3.57900E+000	9	...........
	134	1.8	9.41229E-001	2.81067E-004	0.00000E+000	2.64548E-004	1.68088E-001	9.41584E-001	3.57900E+000	9	...........
	135	1.81333	9.42076E-001	2.80755E-004	0.00000E+000	2.64493E-004	1.68088E-001	9.42416E-001	3.57900E+000	9	...........
	136	1.82667	9.42937E-001	2.80994E-004	0.00000E+000	2.64960E-004	1.68088E-001	9.43286E-001	3.57900E+000	9	...........
	137	1.84	9.43800E-001	2.81655E-004	0.00000E+000	2.65826E-004	1.68088E-001	9.44129E-001	3.57900E+000	9	...........
	138	1.85333	9.44664E-001	2.81041E-004	0.00000E+000	2.65489E-004	1.68088E-001	9.45013E-001	3.57900E+000	9	...........
	139	1.86667	9.45513E-001	2.81747E-004	0.00000E+000	2.66396E-004	1.68088E-001	9.45884E-001	3.57900E+000	9	...........
	140	1.88	9.46367E-001	2.81166E-004	0.00000E+000	2.66086E-004	1.68088E-001	9.46738E-001	3.57900E+000	9	...........
	141	1.89333	9.47219E-001	2.81410E-004	0.00000E+000	2.66557E-004	1.68088E-001	9.47555E-001	3.57900E+000	9	...........
	142	1.90667	9.48077E-001	2.81180E-004	0.00000E+000	2.66581E-004	1.68088E-001	9.48435E-001	3.57900E+000	9	...........
	143	1.92	9.48933E-001	2.81245E-004	0.00000E+000	2.66883E-004	1.68088E-001	9.49294E-001	3.57900E+000	9	...........
	144	1.93333	9.49820E-001	2.80778E-004	0.00000E+000	2.66689E-004	1.68088E-001	9.50174E-001	3.57900E+000	9	...........
	145	1.94667	9.50652E-001	2.80984E-004	0.00000E+000	2.67117E-004	1.68088E-001	9.51000E-001	3.57900E+000	9	...........
	146	1.96	9.51426E-001	2.81041E-004	0.00000E+000	2.67389E-004	1.68088E-001	9.51799E-001	3.57900E+000	9	...........
	147	1.97333	9.52232E-001	2.81412E-004	0.00000E+000	2.67969E-004	1.68088E-001	9.52603E-001	3.57900E+000	9	...........
	148	1.98667	9.53011E-001	2.81696E-004	0.00000E+000	2.68460E-004	1.68088E-001	9.53351E-001	3.57900E+000	9	...........
	149	2	9.53806E-001	2.81002E-004	0.00000E+000	2.68022E-004	1.68088E-001	9.54159E-001	3.57900E+000	9	...........
	150	2.01333	9.54619E-001	2.81389E-004	0.00000E+000	2.68619E-004	1.68088E-001	9.54943E-001	3.57900E+000	9	...........
	151	2.02667	9.55386E-001	2.81030E-004	0.00000E+000	2.68492E-004	1.68088E-001	9.55734E-001	3.57900E+000	9	...........
	152	2.04	9.56152E-001	2.80864E-004	0.00000E+000	2.68548E-004	1.68088E-001	9.56500E-001	3.57900E+000	9	...........
	153	2.05333	9.56934E-001	2.81881E-004	0.00000E+000	2.69741E-004	1.68088E-001	9.57284E-001	3.57900E+000	9	...........
	154	2.06667	9.57717E-001	2.80992E-004	0.00000E+000	2.69111E-004	1.68088E-001	9.58081E-001	3.57900E+000	9	...........
	155	2.08	9.58517E-001	2.81644E-004	0.00000E+000	2.69961E-004	1.68088E-001	9.58884E-001	3.57900E+000	9	...........
	156	2.09333	9.59235E-001	2.80660E-004	0.00000E+000	2.69218E-004	1.68088E-001	9.59626E-001	3.57900E+000	9	...........
	157	2.10667	9.60033E-001	2.80721E-004	0.00000E+000	2.69501E-004	1.68088E-001	9.60383E-001	3.57900E+000	9	...........
	158	2.12	9.60799E-001	2.81427E-004	0.00000E+000	2.70395E-004	1.68088E-001	9.61161E-001	3.57900E+000	9	...........
	159	2.13333	9.61549E-001	2.80366E-004	0.00000E+000	2.69585E-004	1.68088E-001	9.61905E-001	3.57900E+000	9	...........
	160	2.14667	9.62248E-001	2.81529E-004	0.00000E+000	2.70901E-004	1.68088E-001	9.62636E-001	3.57900E+000	9	...........
	161	2.16	9.63001E-001	2.80444E-004	0.00000E+000	2.70068E-004	1.68088E-001	9.63363E-001	3.57900E+000	9	...........
	162	2.17333	9.63731E-001	2.81251E-004	0.00000E+000	2.71051E-004	1.68088E-001	9.64114E-001	3.57900E+000	9	...........
	163	2.18667	9.64440E-001	2.81484E-004	0.00000E+000	2.71474E-004	1.68088E-001	9.64810E-001	3.57900E+000	9	...........
	164	2.2	9.65171E-001	2.81045E-004	0.00000E+000	2.71256E-004	1.68088E-001	9.65550E-001	3.57900E+000	9	...........
	165	2.21333	9.65892E-001	2.81060E-004	0.00000E+000	2.71473E-004	1.68088E-001	9.66266E-001	3.57900E+000	9	...........
	166	2.22667	9.66566E-001	2.80985E-004	0.00000E+000	2.71590E-004	1.68088E-001	9.66959E-001	3.57900E+000	9	...........
	167	2.24	9.67300E-001	2.80911E-004	0.00000E+000	2.71725E-004	1.68088E-001	9.67685E-001	3.57900E+000	9	...........
	168	2.25333	9.68034E-001	2.81692E-004	0.00000E+000	2.72687E-004	1.68088E-001	9.68421E-001	3.57900E+000	9	...........
	169	2.26667	9.68724E-001	2.81725E-004	0.00000E+000	2.72914E-004	1.68088E-001	9.69109E-001	3.57900E+000	9	...........
	170	2.28	9.69447E-001	2.81091E-004	0.00000E+000	2.72503E-004	1.68088E-001	9.69830E-001	3.57900E+000	9	...........
	171	2.29333	9.70097E-001	2.80926E-004	0.00000E+000	2.72526E-004	1.68088E-001	9.70526E-001	3.57900E+000	9	...........
	172	2.30667	9.70798E-001	2.81572E-004	0.00000E+000	2.73350E-004	1.68088E-001	9.71196E-001	3.57900E+000	9	...........
	173	2.32	9.71449E-001	2.80132E-004	0.00000E+000	2.72134E-004	1.68088E-001	9.71889E-001	3.57900E+000	9	...........
	174	2.33333	9.72166E-001	2.81379E-004	0.00000E+000	2.73547E-004	1.68088E-001	9.72553E-001	3.57900E+000	9	...........
	175	2.34667	9.72886E-001	2.81427E-004	0.00000E+000	2.73797E-004	1.68088E-001	9.73226E-001	3.57900E+000	9	...........
	176	2.36	9.73541E-001	2.81367E-004	0.00000E+000	2.73922E-004	1.68088E-001	9.73895E-001	3.57900E+000	9	...........
	177	2.37333	9.74203E-001	2.81576E-004	0.00000E+000	2.74312E-004	1.68088E-001	9.74554E-001	3.57900E+000	9	...........
	178	2.38667	9.74862E-001	2.80604E-004	0.00000E+000	2.73550E-004	1.68088E-001	9.75226E-001	3.57900E+000	9	...........
	179	2.4	9.75503E-001	2.80448E-004	0.00000E+000	2.73578E-004	1.68088E-001	9.75868E-001	3.57900E+000	9	...........
	180	2.41333	9.76187E-001	2.80619E-004	0.00000E+000	2.73937E-004	1.68088E-001	9.76559E-001	3.57900E+000	9	...........
	181	2.42667	9.76854E-001	2.80661E-004	0.00000E+000	2.74164E-004	1.68088E-001	9.77231E-001	3.57900E+000	9	...........
	182	2.44	9.77536E-001	2.81217E-004	0.00000E+000	2.74900E-004	1.68088E-001	9.77926E-001	3.57900E+000	9	...........
	183	2.45333	9.78137E-001	2.81321E-004	0.00000E+000	2.75170E-004	1.68088E-001	9.78521E-001	3.57900E+000	9	...........
	184	2.46667	9.78783E-001	2.81461E-004	0.00000E+000	2.75489E-004	1.68088E-001	9.79133E-001	3.57900E+000	9	...........
	185	2.48	9.79405E-001	2.80950E-004	0.00000E+000	2.75164E-004	1.68088E-001	9.79770E-001	3.57900E+000	9	...........
	186	2.49333	9.80024E-001	2.81177E-004	0.00000E+000	2.75560E-004	1.68088E-001	9.80408E-001	3.57900E+000	9	...........
	187	2.50667	9.80684E-001	2.81213E-004	0.00000E+000	2.75781E-004	1.68088E-001	9.81061E-001	3.57900E+000	9	...........
	188	2.52	9.81323E-001	2.81363E-004	0.00000E+000	2.76108E-004	1.68088E-001	9.81691E-001	3.57900E+000	9	...........
	189	2.53333	9.81936E-001	2.80571E-004	0.00000E+000	2.75503E-004	1.68088E-001	9.82302E-001	3.57900E+000	9	...........
	190	2.54667	9.82536E-001	2.81215E-004	0.00000E+000	2.76304E-004	1.68088E-001	9.82942E-001	3.57900E+000	9	...........
	191	2.56	9.83167E-001	2.81556E-004	0.00000E+000	2.76816E-004	1.68088E-001	9.83547E-001	3.57900E+000	9	...........
	192	2.57333	9.83775E-001	2.81068E-004	0.00000E+000	2.76508E-004	1.68088E-001	9.84175E-001	3.57900E+000	9	...........
	193	2.58667	9.84390E-001	2.81232E-004	0.00000E+000	2.76842E-004	1.68088E-001	9.84800E-001	3.57900E+000	9	...........
	194	2.6	9.85002E-001	2.81173E-004	0.00000E+000	2.76956E-004	1.68088E-001	9.85390E-001	3.57900E+000	9	...........
	195	2.61333	9.85626E-001	2.81371E-004	0.00000E+000	2.77327E-004	1.68088E-001	9.86002E-001	3.57900E+000	9	...........
	196	2.62667	9.86227E-001	2.81131E-004	0.00000E+000	2.77260E-004	1.68088E-001	9.86609E-001	3.57900E+000	9	...........
	197	2.64	9.86812E-001	2.81211E-004	0.00000E+000	2.77502E-004	1.68088E-001	9.87224E-001	3.57900E+000	9	...........
	198	2.65333	9.87371E-001	2.81149E-004	0.00000E+000	2.77599E-004	1.68088E-001	9.87775E-001	3.57900E+000	9	...........
	199	2.66667	9.87908E-001	2.80077E-004	0.00000E+000	2.76690E-004	1.68088E-001	9.88300E-001	3.57900E+000	9	...........
	200	2.68	9.88511E-001	2.81064E-004	0.00000E+000	2.77834E-004	1.68088E-001	9.88850E-001	3.57900E+000	9	...........
	201	2.69333	9.89086E-001	2.80913E-004	0.00000E+000	2.77847E-004	1.68088E-001	9.89422E-001	3.57850E+000	9	...........
	202	2.70667	9.89662E-001	2.81126E-004	0.00000E+000	2.78220E-004	1.68088E-001	9.90021E-001	3.57820E+000	9	...........
	203	2.72	9.90215E-001	2.81344E-004	0.00000E+000	2.78591E-004	1.68088E-001	9.90571E-001	3.57820E+000	9	...........
	204	2.73333	9.90768E-001	2.80994E-004	0.00000E+000	2.78400E-004	1.68088E-001	9.91136E-001	3.57820E+000	9	...........
	205	2.74667	9.91324E-001	2.81364E-004	0.00000E+000	2.78923E-004	1.68088E-001	9.91712E-001	3.57820E+000	9	...........
	206	2.76	9.91883E-001	2.81445E-004	0.00000E+000	2.79161E-004	1.68088E-001	9.92254E-001	3.57820E+000	9	...........
	207	2.77333	9.92441E-001	2.80505E-004	0.00000E+000	2.78385E-004	1.68088E-001	9.92839E-001	3.57820E+000	9	...........
	208	2.78667	9.93010E-001	2.81532E-004	0.00000E+000	2.79564E-004	1.68088E-001	9.93411E-001	3.57820E+000	9	...........
	209	2.8	9.93551E-001	2.81061E-004	0.00000E+000	2.79248E-004	1.68088E-001	9.93942E-001	3.57820E+000	9	...........
	210	2.81333	9.94073E-001	2.81589E-004	0.00000E+000	2.79920E-004	1.68088E-001	9.94479E-001	3.57820E+000	9	...........
	211	2.82667	9.94644E-001	2.81730E-004	0.00000E+000	2.80221E-004	1.68088E-001	9.95019E-001	3.57820E+000	9	...........
	212	2.84	9.95183E-001	2.81294E-004	0.00000E+000	2.79939E-004	1.68088E-001	9.95560E-001	3.57820E+000	9	...........
	213	2.85333	9.95739E-001	2.80929E-004	0.00000E+000	2.79732E-004	1.68088E-001	9.96149E-001	3.57820E+000	9	...........
	214	2.86667	9.96291E-001	2.81156E-004	0.00000E+000	2.80114E-004	1.68088E-001	9.96687E-001	3.57820E+000	9	...........
	215	2.88	9.96829E-001	2.81220E-004	0.00000E+000	2.80328E-004	1.68088E-001	9.97245E-001	3.57820E+000	9	...........
	216	2.89333	9.97346E-001	2.80735E-004	0.00000E+000	2.79990E-004	1.68088E-001	9.97786E-001	3.57820E+000	9	...........
	217	2.90667	9.97910E-001	2.81026E-004	0.00000E+000	2.80439E-004	1.68088E-001	9.98317E-001	3.57820E+000	9	...........
	218	2.92	9.98427E-001	2.81221E-004	0.00000E+000	2.80779E-004	1.68088E-001	9.98836E-001	3.57820E+000	9	...........
	219	2.93333	9.98982E-001	2.80804E-004	0.00000E+000	2.80518E-004	1.68088E-001	9.99379E-001	3.57820E+000	9	...........
	220	2.94667	9.99528E-001	2.81523E-004	0.00000E+000	2.81390E-004	1.68088E-001	9.99932E-001	3.57820E+000	9	...........
	221	2.95167	9.99913E-001	2.80586E-004	0.00000E+000	2.80561E-004	1.68088E-001	1.00034E+000	3.57820E+000	9	...........
STARTTIMEOFFSET	QUANT	34.41167	Start Time Offset (s)
