EXPLAIN
TAG	PWR800_CHARGE
TITLE	LABEL	PWR Cyclic Charge Discharge (Cell) - Charge Step	Test &Identifier
DATE	LABEL	7-7-2017	Date
TIME	LABEL	16:08:48	Time
NOTES	NOTES	3	&Notes...
	supercap test cell
	2.8mg
	6M KOH
PSTAT	PSTAT	IFC5000-01520	Potentiostat
CAPACITY	QUANT	1.00000E-003	Capacity (A-hr)
CELLTYPE	SELECTOR	1	&Cell Type
WORKINGCONNECTION	SELECTOR	0	&Working Lead
MAXCHARGETIME	VARIABLEANDUNITS	1.00000E+002	s	1.00000E+002	second(s)	Max &Charge Time
CHARGECURRENT	QUANT	2.80000E-004	&Charge Current (A) 
VOLTAGEFINISH	TWOPARAM	F	1.00000E-003	3.60000E+003	&Voltage Finish	 I (A) < 	Max Time(s)
SAMPLETIME	QUANT	1.00000E-002	Sa&mple Period (s)
CHARGESTOPAT1	MULTIPARAM	4	1.00000E+000	Charge Stop At &1	Voltage > Limit	V
CHARGESTOPAT2	MULTIPARAM	0	0.00000E+000	Charge Stop At &2	None	N/A
AESBHCSELECTOR	TOGGLE	F	Save Both Half Cells
IRCOMP	TOGGLE	F	IR &Measure
EOC	QUANT	0	Open Circuit (V)
SEQUENCER	TOGGLE	TRUE	Run as Sequence
PSTATMODEL	IQUANT	53	Pstat Model
PSTATSECTION	LABEL	IFC5000-01520	Pstat Section
PSTATSERIALNO	LABEL	01520	Pstat Serial Number
CTRLMODE	IQUANT	0	Control Mode
ELECTROMETER	IQUANT	1	RE=0 or CS=1
IESTAB	IQUANT	0	I/E Stability
CASPEED	IQUANT	4	Control Amp Speed
CONVENTION	IQUANT	1	Current Convention
ICHRANGE	IQUANT	2	Ich Range
ICHRANGEMODE	TOGGLE	T	Ich Auto Range
ICHOFFSETENABLE	TOGGLE	F	Ich Offset Enable
ICHOFFSET	QUANT	0	Ich Offset (V)
ICHFILTER	IQUANT	1	Ich Filter
VCHRANGE	IQUANT	2	Vch Range
VCHRANGEMODE	TOGGLE	T	Vch Auto Range
VCHOFFSETENABLE	TOGGLE	F	Vch Offset Enable
VCHOFFSET	QUANT	0	Vch Offset (V)
VCHFILTER	IQUANT	1	Vch Filter
IERANGELOWERLIMIT	IQUANT	9	I/E Range Lower Limit
IERANGEMODE	TOGGLE	F	I/E AutoRange
IERANGE	IQUANT	9	I/E Range
ACHSELECT	IQUANT	1	Ach Select
ACHRANGE	IQUANT	2	Ach Range
ACHOFFSETENABLE	TOGGLE	F	Ach Offset Enable
ACHOFFSET	QUANT	0	Ach Offset (V)
ACHFILTER	IQUANT	1	Ach Filter
CABLEID	IQUANT	14	Cable ID
DCCALDATE	LABEL	5-7-2017	DC Calibration Date
ACCALDATE	LABEL	12/3/2015	AC Calibration Date
FRAMEWORKVERSION	QUANT	7.01	Framework Version
INSTRUMENTVERSION	LABEL	4.00	Instrument Version
CURVE	TABLE	70
	Pt	T	Vf	Im	Vu	Pwr	Sig	Ach	Temp	IERange	Over
	#	s	V	A	V	W	V	V	deg C	#	bits
	0	0.013333	6.01107E-001	2.81166E-004	0.00000E+000	1.69011E-004	1.68088E-001	6.01365E-001	3.57870E+000	9	...........
	1	0.026667	6.31275E-001	2.80871E-004	0.00000E+000	1.77307E-004	1.68088E-001	6.31539E-001	3.57870E+000	9	...........
	2	0.04	6.57061E-001	2.81536E-004	0.00000E+000	1.84986E-004	1.68088E-001	6.57336E-001	3.57870E+000	9	...........
	3	0.053333	6.79659E-001	2.80228E-004	0.00000E+000	1.90460E-004	1.68088E-001	6.79942E-001	3.57870E+000	9	...........
	4	0.066667	6.99801E-001	2.81499E-004	0.00000E+000	1.96994E-004	1.68088E-001	7.00093E-001	3.57870E+000	9	...........
	5	0.08	7.17968E-001	2.82043E-004	0.00000E+000	2.02498E-004	1.68088E-001	7.18235E-001	3.57870E+000	9	...........
	6	0.093333	7.34402E-001	2.80968E-004	0.00000E+000	2.06343E-004	1.68088E-001	7.34709E-001	3.57870E+000	9	...........
	7	0.106667	7.49468E-001	2.81089E-004	0.00000E+000	2.10667E-004	1.68088E-001	7.49759E-001	3.57870E+000	9	...........
	8	0.12	7.63335E-001	2.82243E-004	0.00000E+000	2.15446E-004	1.68088E-001	7.63634E-001	3.57870E+000	9	...........
	9	0.133333	7.76142E-001	2.82147E-004	0.00000E+000	2.18986E-004	1.68088E-001	7.76439E-001	3.57870E+000	9	...........
	10	0.146667	7.87973E-001	2.82065E-004	0.00000E+000	2.22260E-004	1.68088E-001	7.88280E-001	3.57870E+000	9	...........
	11	0.16	7.98999E-001	2.80129E-004	0.00000E+000	2.23823E-004	1.68088E-001	7.99301E-001	3.57870E+000	9	...........
	12	0.173333	8.09218E-001	2.81420E-004	0.00000E+000	2.27730E-004	1.68088E-001	8.09543E-001	3.57870E+000	9	...........
	13	0.186667	8.18763E-001	2.80900E-004	0.00000E+000	2.29991E-004	1.68088E-001	8.19087E-001	3.57870E+000	9	...........
	14	0.2	8.27681E-001	2.82001E-004	0.00000E+000	2.33407E-004	1.68088E-001	8.28000E-001	3.57870E+000	9	...........
	15	0.213333	8.36019E-001	2.80923E-004	0.00000E+000	2.34857E-004	1.68088E-001	8.36360E-001	3.57870E+000	9	...........
	16	0.226667	8.43896E-001	2.79953E-004	0.00000E+000	2.36251E-004	1.68088E-001	8.44208E-001	3.57870E+000	9	...........
	17	0.24	8.51250E-001	2.80657E-004	0.00000E+000	2.38910E-004	1.68088E-001	8.51601E-001	3.57870E+000	9	...........
	18	0.253333	8.58187E-001	2.80902E-004	0.00000E+000	2.41067E-004	1.68088E-001	8.58533E-001	3.57870E+000	9	...........
	19	0.266667	8.64694E-001	2.82323E-004	0.00000E+000	2.44123E-004	1.68088E-001	8.65041E-001	3.57870E+000	9	...........
	20	0.28	8.70927E-001	2.81106E-004	0.00000E+000	2.44823E-004	1.68088E-001	8.71237E-001	3.57870E+000	9	...........
	21	0.293333	8.76776E-001	2.81550E-004	0.00000E+000	2.46856E-004	1.68088E-001	8.77083E-001	3.57870E+000	9	...........
	22	0.306667	8.82300E-001	2.81017E-004	0.00000E+000	2.47941E-004	1.68088E-001	8.82631E-001	3.57870E+000	9	...........
	23	0.32	8.87553E-001	2.81708E-004	0.00000E+000	2.50031E-004	1.68088E-001	8.87879E-001	3.57870E+000	9	...........
	24	0.333333	8.92528E-001	2.83394E-004	0.00000E+000	2.52937E-004	1.68088E-001	8.92859E-001	3.57870E+000	9	...........
	25	0.346667	8.97286E-001	2.81935E-004	0.00000E+000	2.52976E-004	1.68088E-001	8.97619E-001	3.57870E+000	9	...........
	26	0.36	9.01753E-001	2.81557E-004	0.00000E+000	2.53895E-004	1.68088E-001	9.02107E-001	3.57870E+000	9	...........
	27	0.373333	9.06025E-001	2.80949E-004	0.00000E+000	2.54547E-004	1.68088E-001	9.06369E-001	3.57870E+000	9	...........
	28	0.386667	9.10125E-001	2.79977E-004	0.00000E+000	2.54814E-004	1.68088E-001	9.10480E-001	3.57870E+000	9	...........
	29	0.4	9.14030E-001	2.80951E-004	0.00000E+000	2.56798E-004	1.68088E-001	9.14400E-001	3.57870E+000	9	...........
	30	0.413333	9.17776E-001	2.80871E-004	0.00000E+000	2.57777E-004	1.68088E-001	9.18152E-001	3.57870E+000	9	...........
	31	0.426667	9.21425E-001	2.79802E-004	0.00000E+000	2.57816E-004	1.68088E-001	9.21753E-001	3.57870E+000	9	...........
	32	0.44	9.24851E-001	2.81178E-004	0.00000E+000	2.60048E-004	1.68088E-001	9.25197E-001	3.57870E+000	9	...........
	33	0.453333	9.28159E-001	2.81208E-004	0.00000E+000	2.61005E-004	1.68088E-001	9.28504E-001	3.57870E+000	9	...........
	34	0.466667	9.31304E-001	2.80497E-004	0.00000E+000	2.61228E-004	1.68088E-001	9.31645E-001	3.57870E+000	9	...........
	35	0.48	9.34371E-001	2.81544E-004	0.00000E+000	2.63066E-004	1.68088E-001	9.34693E-001	3.57870E+000	9	...........
	36	0.493333	9.37322E-001	2.81417E-004	0.00000E+000	2.63778E-004	1.68088E-001	9.37659E-001	3.57870E+000	9	...........
	37	0.506667	9.40170E-001	2.81231E-004	0.00000E+000	2.64405E-004	1.68088E-001	9.40523E-001	3.57850E+000	9	...........
	38	0.52	9.42892E-001	2.81176E-004	0.00000E+000	2.65119E-004	1.68088E-001	9.43248E-001	3.57800E+000	9	...........
	39	0.533333	9.45561E-001	2.80202E-004	0.00000E+000	2.64948E-004	1.68088E-001	9.45908E-001	3.57800E+000	9	...........
	40	0.546667	9.48147E-001	2.80297E-004	0.00000E+000	2.65763E-004	1.68088E-001	9.48481E-001	3.57800E+000	9	...........
	41	0.56	9.50628E-001	2.80473E-004	0.00000E+000	2.66625E-004	1.68088E-001	9.50956E-001	3.57800E+000	9	...........
	42	0.573333	9.53046E-001	2.80568E-004	0.00000E+000	2.67394E-004	1.68088E-001	9.53386E-001	3.57800E+000	9	...........
	43	0.586667	9.55432E-001	2.80604E-004	0.00000E+000	2.68098E-004	1.68088E-001	9.55758E-001	3.57800E+000	9	...........
	44	0.6	9.57713E-001	2.80793E-004	0.00000E+000	2.68919E-004	1.68088E-001	9.58060E-001	3.57800E+000	9	...........
	45	0.613333	9.59902E-001	2.81583E-004	0.00000E+000	2.70292E-004	1.68088E-001	9.60259E-001	3.57800E+000	9	...........
	46	0.626667	9.62082E-001	2.81627E-004	0.00000E+000	2.70949E-004	1.68088E-001	9.62433E-001	3.57800E+000	9	...........
	47	0.64	9.64194E-001	2.81411E-004	0.00000E+000	2.71335E-004	1.68088E-001	9.64559E-001	3.57800E+000	9	...........
	48	0.653333	9.66264E-001	2.81693E-004	0.00000E+000	2.72190E-004	1.68088E-001	9.66631E-001	3.57800E+000	9	...........
	49	0.666667	9.68228E-001	2.81742E-004	0.00000E+000	2.72791E-004	1.68088E-001	9.68600E-001	3.57800E+000	9	...........
	50	0.68	9.70156E-001	2.80920E-004	0.00000E+000	2.72536E-004	1.68088E-001	9.70524E-001	3.57800E+000	9	...........
	51	0.693333	9.72096E-001	2.81740E-004	0.00000E+000	2.73878E-004	1.68088E-001	9.72474E-001	3.57800E+000	9	...........
	52	0.706667	9.73989E-001	2.81226E-004	0.00000E+000	2.73911E-004	1.68088E-001	9.74321E-001	3.57800E+000	9	...........
	53	0.72	9.75826E-001	2.80811E-004	0.00000E+000	2.74022E-004	1.68088E-001	9.76175E-001	3.57800E+000	9	...........
	54	0.733333	9.77595E-001	2.81073E-004	0.00000E+000	2.74776E-004	1.68088E-001	9.77988E-001	3.57800E+000	9	...........
	55	0.746667	9.79345E-001	2.81186E-004	0.00000E+000	2.75378E-004	1.68088E-001	9.79698E-001	3.57800E+000	9	...........
	56	0.76	9.81071E-001	2.81835E-004	0.00000E+000	2.76500E-004	1.68088E-001	9.81415E-001	3.57800E+000	9	...........
	57	0.773333	9.82761E-001	2.81912E-004	0.00000E+000	2.77052E-004	1.68088E-001	9.83120E-001	3.57800E+000	9	...........
	58	0.786667	9.84381E-001	2.80331E-004	0.00000E+000	2.75953E-004	1.68088E-001	9.84769E-001	3.57800E+000	9	...........
	59	0.8	9.86015E-001	2.81891E-004	0.00000E+000	2.77949E-004	1.68088E-001	9.86406E-001	3.57800E+000	9	...........
	60	0.813333	9.87603E-001	2.79678E-004	0.00000E+000	2.76211E-004	1.68088E-001	9.87991E-001	3.57800E+000	9	...........
	61	0.826667	9.89150E-001	2.82176E-004	0.00000E+000	2.79115E-004	1.68088E-001	9.89540E-001	3.57800E+000	9	...........
	62	0.84	9.90684E-001	2.81298E-004	0.00000E+000	2.78678E-004	1.68088E-001	9.91040E-001	3.57800E+000	9	...........
	63	0.853333	9.92163E-001	2.81848E-004	0.00000E+000	2.79639E-004	1.68088E-001	9.92510E-001	3.57800E+000	9	...........
	64	0.866667	9.93632E-001	2.81457E-004	0.00000E+000	2.79664E-004	1.68088E-001	9.93994E-001	3.57800E+000	9	...........
	65	0.88	9.95123E-001	2.80715E-004	0.00000E+000	2.79346E-004	1.68088E-001	9.95475E-001	3.57800E+000	9	...........
	66	0.893333	9.96576E-001	2.80793E-004	0.00000E+000	2.79831E-004	1.68088E-001	9.96925E-001	3.57800E+000	9	...........
	67	0.906667	9.97972E-001	2.82405E-004	0.00000E+000	2.81832E-004	1.68088E-001	9.98327E-001	3.57800E+000	9	...........
	68	0.92	9.99335E-001	2.80421E-004	0.00000E+000	2.80234E-004	1.68088E-001	9.99707E-001	3.57800E+000	9	...........
	69	0.921667	1.00011E+000	2.83778E-004	0.00000E+000	2.83808E-004	1.68088E-001	1.00046E+000	3.57800E+000	9	...........
STARTTIMEOFFSET	QUANT	1476.213	Start Time Offset (s)
