EXPLAIN
TAG	PWR800_CHARGE
TITLE	LABEL	PWR Cyclic Charge Discharge (Cell) - Charge Step	Test &Identifier
DATE	LABEL	7-7-2017	Date
TIME	LABEL	15:45:45	Time
NOTES	NOTES	3	&Notes...
	supercap test cell
	2.8mg
	6M KOH
PSTAT	PSTAT	IFC5000-01520	Potentiostat
CAPACITY	QUANT	1.00000E-003	Capacity (A-hr)
CELLTYPE	SELECTOR	1	&Cell Type
WORKINGCONNECTION	SELECTOR	0	&Working Lead
MAXCHARGETIME	VARIABLEANDUNITS	1.00000E+002	s	1.00000E+002	second(s)	Max &Charge Time
CHARGECURRENT	QUANT	2.80000E-004	&Charge Current (A) 
VOLTAGEFINISH	TWOPARAM	F	1.00000E-003	3.60000E+003	&Voltage Finish	 I (A) < 	Max Time(s)
SAMPLETIME	QUANT	1.00000E-002	Sa&mple Period (s)
CHARGESTOPAT1	MULTIPARAM	4	1.00000E+000	Charge Stop At &1	Voltage > Limit	V
CHARGESTOPAT2	MULTIPARAM	0	0.00000E+000	Charge Stop At &2	None	N/A
AESBHCSELECTOR	TOGGLE	F	Save Both Half Cells
IRCOMP	TOGGLE	F	IR &Measure
EOC	QUANT	0	Open Circuit (V)
SEQUENCER	TOGGLE	TRUE	Run as Sequence
PSTATMODEL	IQUANT	53	Pstat Model
PSTATSECTION	LABEL	IFC5000-01520	Pstat Section
PSTATSERIALNO	LABEL	01520	Pstat Serial Number
CTRLMODE	IQUANT	0	Control Mode
ELECTROMETER	IQUANT	1	RE=0 or CS=1
IESTAB	IQUANT	0	I/E Stability
CASPEED	IQUANT	4	Control Amp Speed
CONVENTION	IQUANT	1	Current Convention
ICHRANGE	IQUANT	2	Ich Range
ICHRANGEMODE	TOGGLE	T	Ich Auto Range
ICHOFFSETENABLE	TOGGLE	F	Ich Offset Enable
ICHOFFSET	QUANT	0	Ich Offset (V)
ICHFILTER	IQUANT	1	Ich Filter
VCHRANGE	IQUANT	2	Vch Range
VCHRANGEMODE	TOGGLE	T	Vch Auto Range
VCHOFFSETENABLE	TOGGLE	F	Vch Offset Enable
VCHOFFSET	QUANT	0	Vch Offset (V)
VCHFILTER	IQUANT	1	Vch Filter
IERANGELOWERLIMIT	IQUANT	9	I/E Range Lower Limit
IERANGEMODE	TOGGLE	F	I/E AutoRange
IERANGE	IQUANT	9	I/E Range
ACHSELECT	IQUANT	1	Ach Select
ACHRANGE	IQUANT	2	Ach Range
ACHOFFSETENABLE	TOGGLE	F	Ach Offset Enable
ACHOFFSET	QUANT	0	Ach Offset (V)
ACHFILTER	IQUANT	1	Ach Filter
CABLEID	IQUANT	14	Cable ID
DCCALDATE	LABEL	5-7-2017	DC Calibration Date
ACCALDATE	LABEL	12/3/2015	AC Calibration Date
FRAMEWORKVERSION	QUANT	7.01	Framework Version
INSTRUMENTVERSION	LABEL	4.00	Instrument Version
CURVE	TABLE	123
	Pt	T	Vf	Im	Vu	Pwr	Sig	Ach	Temp	IERange	Over
	#	s	V	A	V	W	V	V	deg C	#	bits
	0	0.013333	5.79148E-001	2.81464E-004	0.00000E+000	1.63009E-004	1.68088E-001	5.79427E-001	3.57860E+000	9	...........
	1	0.026667	6.07340E-001	2.80097E-004	0.00000E+000	1.70114E-004	1.68088E-001	6.07620E-001	3.57860E+000	9	...........
	2	0.04	6.31018E-001	2.80937E-004	0.00000E+000	1.77276E-004	1.68088E-001	6.31259E-001	3.57860E+000	9	...........
	3	0.053333	6.51400E-001	2.81063E-004	0.00000E+000	1.83084E-004	1.68088E-001	6.51668E-001	3.57860E+000	9	...........
	4	0.066667	6.69304E-001	2.81128E-004	0.00000E+000	1.88160E-004	1.68088E-001	6.69593E-001	3.57860E+000	9	...........
	5	0.08	6.85221E-001	2.80822E-004	0.00000E+000	1.92425E-004	1.68088E-001	6.85517E-001	3.57860E+000	9	...........
	6	0.093333	6.99546E-001	2.80976E-004	0.00000E+000	1.96556E-004	1.68088E-001	6.99830E-001	3.57860E+000	9	...........
	7	0.106667	7.12503E-001	2.81088E-004	0.00000E+000	2.00276E-004	1.68088E-001	7.12803E-001	3.57860E+000	9	...........
	8	0.12	7.24344E-001	2.81105E-004	0.00000E+000	2.03617E-004	1.68088E-001	7.24639E-001	3.57860E+000	9	...........
	9	0.133333	7.35172E-001	2.81384E-004	0.00000E+000	2.06865E-004	1.68088E-001	7.35475E-001	3.57860E+000	9	...........
	10	0.146667	7.45191E-001	2.80262E-004	0.00000E+000	2.08848E-004	1.68088E-001	7.45504E-001	3.57860E+000	9	...........
	11	0.16	7.54513E-001	2.80830E-004	0.00000E+000	2.11890E-004	1.68088E-001	7.54789E-001	3.57860E+000	9	...........
	12	0.173333	7.63150E-001	2.80471E-004	0.00000E+000	2.14041E-004	1.68088E-001	7.63457E-001	3.57860E+000	9	...........
	13	0.186667	7.71268E-001	2.80529E-004	0.00000E+000	2.16363E-004	1.68088E-001	7.71576E-001	3.57860E+000	9	...........
	14	0.2	7.78871E-001	2.81630E-004	0.00000E+000	2.19353E-004	1.68088E-001	7.79175E-001	3.57860E+000	9	...........
	15	0.213333	7.85969E-001	2.81024E-004	0.00000E+000	2.20876E-004	1.68088E-001	7.86254E-001	3.57849E+000	9	...........
	16	0.226667	7.92677E-001	2.80903E-004	0.00000E+000	2.22666E-004	1.68088E-001	7.92989E-001	3.57830E+000	9	...........
	17	0.24	7.98994E-001	2.80915E-004	0.00000E+000	2.24449E-004	1.68088E-001	7.99297E-001	3.57830E+000	9	...........
	18	0.253333	8.04954E-001	2.81251E-004	0.00000E+000	2.26394E-004	1.68088E-001	8.05258E-001	3.57830E+000	9	...........
	19	0.266667	8.10500E-001	2.81399E-004	0.00000E+000	2.28074E-004	1.68088E-001	8.10835E-001	3.57830E+000	9	...........
	20	0.28	8.15803E-001	2.80394E-004	0.00000E+000	2.28746E-004	1.68088E-001	8.16160E-001	3.57830E+000	9	...........
	21	0.293333	8.20922E-001	2.81128E-004	0.00000E+000	2.30785E-004	1.68088E-001	8.21253E-001	3.57830E+000	9	...........
	22	0.306667	8.25749E-001	2.80973E-004	0.00000E+000	2.32013E-004	1.68088E-001	8.26085E-001	3.57830E+000	9	...........
	23	0.32	8.30375E-001	2.81315E-004	0.00000E+000	2.33597E-004	1.68088E-001	8.30726E-001	3.57830E+000	9	...........
	24	0.333333	8.34791E-001	2.80552E-004	0.00000E+000	2.34202E-004	1.68088E-001	8.35145E-001	3.57830E+000	9	...........
	25	0.346667	8.39019E-001	2.81273E-004	0.00000E+000	2.35994E-004	1.68088E-001	8.39362E-001	3.57830E+000	9	...........
	26	0.36	8.43127E-001	2.80653E-004	0.00000E+000	2.36626E-004	1.68088E-001	8.43481E-001	3.57830E+000	9	...........
	27	0.373333	8.47092E-001	2.81557E-004	0.00000E+000	2.38504E-004	1.68088E-001	8.47420E-001	3.57830E+000	9	...........
	28	0.386667	8.50816E-001	2.80980E-004	0.00000E+000	2.39063E-004	1.68088E-001	8.51109E-001	3.57830E+000	9	...........
	29	0.4	8.54390E-001	2.80869E-004	0.00000E+000	2.39972E-004	1.68088E-001	8.54709E-001	3.57830E+000	9	...........
	30	0.413333	8.57871E-001	2.80690E-004	0.00000E+000	2.40796E-004	1.68088E-001	8.58203E-001	3.57830E+000	9	...........
	31	0.426667	8.61228E-001	2.81289E-004	0.00000E+000	2.42254E-004	1.68088E-001	8.61532E-001	3.57830E+000	9	...........
	32	0.44	8.64421E-001	2.81760E-004	0.00000E+000	2.43559E-004	1.68088E-001	8.64766E-001	3.57830E+000	9	...........
	33	0.453333	8.67572E-001	2.80787E-004	0.00000E+000	2.43603E-004	1.68088E-001	8.67872E-001	3.57830E+000	9	...........
	34	0.466667	8.70619E-001	2.81143E-004	0.00000E+000	2.44769E-004	1.68088E-001	8.70917E-001	3.57830E+000	9	...........
	35	0.48	8.73544E-001	2.81252E-004	0.00000E+000	2.45686E-004	1.68088E-001	8.73884E-001	3.57830E+000	9	...........
	36	0.493333	8.76339E-001	2.81543E-004	0.00000E+000	2.46727E-004	1.68088E-001	8.76691E-001	3.57830E+000	9	...........
	37	0.506667	8.79070E-001	2.81144E-004	0.00000E+000	2.47145E-004	1.68088E-001	8.79382E-001	3.57830E+000	9	...........
	38	0.52	8.81750E-001	2.80721E-004	0.00000E+000	2.47526E-004	1.68088E-001	8.82071E-001	3.57830E+000	9	...........
	39	0.533333	8.84351E-001	2.81277E-004	0.00000E+000	2.48748E-004	1.68088E-001	8.84689E-001	3.57830E+000	9	...........
	40	0.546667	8.86877E-001	2.80919E-004	0.00000E+000	2.49140E-004	1.68088E-001	8.87219E-001	3.57830E+000	9	...........
	41	0.56	8.89343E-001	2.80737E-004	0.00000E+000	2.49671E-004	1.68088E-001	8.89657E-001	3.57830E+000	9	...........
	42	0.573333	8.91741E-001	2.81660E-004	0.00000E+000	2.51168E-004	1.68088E-001	8.92072E-001	3.57830E+000	9	...........
	43	0.586667	8.94039E-001	2.80904E-004	0.00000E+000	2.51140E-004	1.68088E-001	8.94399E-001	3.57830E+000	9	...........
	44	0.6	8.96364E-001	2.81400E-004	0.00000E+000	2.52237E-004	1.68088E-001	8.96739E-001	3.57830E+000	9	...........
	45	0.613333	8.98619E-001	2.80760E-004	0.00000E+000	2.52296E-004	1.68088E-001	8.98979E-001	3.57830E+000	9	...........
	46	0.626667	9.00813E-001	2.81199E-004	0.00000E+000	2.53308E-004	1.68088E-001	9.01173E-001	3.57830E+000	9	...........
	47	0.64	9.02985E-001	2.82007E-004	0.00000E+000	2.54648E-004	1.68088E-001	9.03352E-001	3.57830E+000	9	...........
	48	0.653333	9.05076E-001	2.81703E-004	0.00000E+000	2.54963E-004	1.68088E-001	9.05433E-001	3.57830E+000	9	...........
	49	0.666667	9.07117E-001	2.81032E-004	0.00000E+000	2.54929E-004	1.68088E-001	9.07515E-001	3.57830E+000	9	...........
	50	0.68	9.09180E-001	2.80611E-004	0.00000E+000	2.55125E-004	1.68088E-001	9.09527E-001	3.57830E+000	9	...........
	51	0.693333	9.11132E-001	2.80861E-004	0.00000E+000	2.55901E-004	1.68088E-001	9.11523E-001	3.57830E+000	9	...........
	52	0.706667	9.13064E-001	2.81295E-004	0.00000E+000	2.56840E-004	1.68088E-001	9.13459E-001	3.57830E+000	9	...........
	53	0.72	9.14995E-001	2.81648E-004	0.00000E+000	2.57707E-004	1.68088E-001	9.15375E-001	3.57830E+000	9	...........
	54	0.733333	9.16829E-001	2.81260E-004	0.00000E+000	2.57867E-004	1.68088E-001	9.17209E-001	3.57830E+000	9	...........
	55	0.746667	9.18621E-001	2.81887E-004	0.00000E+000	2.58947E-004	1.68088E-001	9.19008E-001	3.57830E+000	9	...........
	56	0.76	9.20412E-001	2.81547E-004	0.00000E+000	2.59139E-004	1.68088E-001	9.20793E-001	3.57830E+000	9	...........
	57	0.773333	9.22239E-001	2.81502E-004	0.00000E+000	2.59612E-004	1.68088E-001	9.22603E-001	3.57830E+000	9	...........
	58	0.786667	9.23990E-001	2.81267E-004	0.00000E+000	2.59888E-004	1.68088E-001	9.24338E-001	3.57830E+000	9	...........
	59	0.8	9.25704E-001	2.80543E-004	0.00000E+000	2.59699E-004	1.68088E-001	9.26040E-001	3.57830E+000	9	...........
	60	0.813333	9.27383E-001	2.81044E-004	0.00000E+000	2.60635E-004	1.68088E-001	9.27714E-001	3.57830E+000	9	...........
	61	0.826667	9.28967E-001	2.80208E-004	0.00000E+000	2.60304E-004	1.68088E-001	9.29307E-001	3.57830E+000	9	...........
	62	0.84	9.30578E-001	2.81251E-004	0.00000E+000	2.61726E-004	1.68088E-001	9.30919E-001	3.57830E+000	9	...........
	63	0.853333	9.32178E-001	2.81242E-004	0.00000E+000	2.62168E-004	1.68088E-001	9.32512E-001	3.57830E+000	9	...........
	64	0.866667	9.33758E-001	2.81600E-004	0.00000E+000	2.62947E-004	1.68088E-001	9.34084E-001	3.57830E+000	9	...........
	65	0.88	9.35303E-001	2.80457E-004	0.00000E+000	2.62313E-004	1.68088E-001	9.35657E-001	3.57830E+000	9	...........
	66	0.893333	9.36843E-001	2.80952E-004	0.00000E+000	2.63208E-004	1.68088E-001	9.37180E-001	3.57830E+000	9	...........
	67	0.906667	9.38371E-001	2.80623E-004	0.00000E+000	2.63328E-004	1.68088E-001	9.38744E-001	3.57830E+000	9	...........
	68	0.92	9.39859E-001	2.82323E-004	0.00000E+000	2.65344E-004	1.68088E-001	9.40211E-001	3.57830E+000	9	...........
	69	0.933333	9.41316E-001	2.81055E-004	0.00000E+000	2.64562E-004	1.68088E-001	9.41646E-001	3.57830E+000	9	...........
	70	0.946667	9.42730E-001	2.80221E-004	0.00000E+000	2.64173E-004	1.68088E-001	9.43094E-001	3.57830E+000	9	...........
	71	0.96	9.44128E-001	2.80924E-004	0.00000E+000	2.65228E-004	1.68088E-001	9.44508E-001	3.57830E+000	9	...........
	72	0.97333	9.45548E-001	2.81508E-004	0.00000E+000	2.66179E-004	1.68088E-001	9.45941E-001	3.57830E+000	9	...........
	73	0.98667	9.46985E-001	2.80959E-004	0.00000E+000	2.66064E-004	1.68088E-001	9.47341E-001	3.57830E+000	9	...........
	74	1	9.48327E-001	2.81401E-004	0.00000E+000	2.66860E-004	1.68088E-001	9.48689E-001	3.57830E+000	9	...........
	75	1.01333	9.49681E-001	2.81085E-004	0.00000E+000	2.66941E-004	1.68088E-001	9.50048E-001	3.57830E+000	9	...........
	76	1.02667	9.51035E-001	2.81341E-004	0.00000E+000	2.67565E-004	1.68088E-001	9.51415E-001	3.57830E+000	9	...........
	77	1.04	9.52360E-001	2.81491E-004	0.00000E+000	2.68081E-004	1.68088E-001	9.52730E-001	3.57830E+000	9	...........
	78	1.05333	9.53714E-001	2.81560E-004	0.00000E+000	2.68527E-004	1.68088E-001	9.54060E-001	3.57830E+000	9	...........
	79	1.06667	9.55022E-001	2.81163E-004	0.00000E+000	2.68517E-004	1.68088E-001	9.55358E-001	3.57830E+000	9	...........
	80	1.08	9.56261E-001	2.81320E-004	0.00000E+000	2.69015E-004	1.68088E-001	9.56625E-001	3.57830E+000	9	...........
	81	1.09333	9.57578E-001	2.80961E-004	0.00000E+000	2.69042E-004	1.68088E-001	9.57914E-001	3.57830E+000	9	...........
	82	1.10667	9.58845E-001	2.80638E-004	0.00000E+000	2.69088E-004	1.68088E-001	9.59220E-001	3.57830E+000	9	...........
	83	1.12	9.60121E-001	2.80959E-004	0.00000E+000	2.69754E-004	1.68088E-001	9.60478E-001	3.57830E+000	9	...........
	84	1.13333	9.61368E-001	2.80491E-004	0.00000E+000	2.69655E-004	1.68088E-001	9.61741E-001	3.57830E+000	9	...........
	85	1.14667	9.62566E-001	2.80167E-004	0.00000E+000	2.69679E-004	1.68088E-001	9.62944E-001	3.57830E+000	9	...........
	86	1.16	9.63735E-001	2.81557E-004	0.00000E+000	2.71346E-004	1.68088E-001	9.64140E-001	3.57830E+000	9	...........
	87	1.17333	9.64897E-001	2.81539E-004	0.00000E+000	2.71656E-004	1.68088E-001	9.65288E-001	3.57830E+000	9	...........
	88	1.18667	9.66075E-001	2.81560E-004	0.00000E+000	2.72008E-004	1.68088E-001	9.66435E-001	3.57830E+000	9	...........
	89	1.2	9.67176E-001	2.80913E-004	0.00000E+000	2.71692E-004	1.68088E-001	9.67545E-001	3.57830E+000	9	...........
	90	1.21333	9.68328E-001	2.81499E-004	0.00000E+000	2.72584E-004	1.68088E-001	9.68728E-001	3.57826E+000	9	...........
	91	1.22667	9.69522E-001	2.80760E-004	0.00000E+000	2.72203E-004	1.68088E-001	9.69888E-001	3.57820E+000	9	...........
	92	1.24	9.70669E-001	2.81052E-004	0.00000E+000	2.72809E-004	1.68088E-001	9.71093E-001	3.57820E+000	9	...........
	93	1.25333	9.71773E-001	2.80681E-004	0.00000E+000	2.72759E-004	1.68088E-001	9.72219E-001	3.57820E+000	9	...........
	94	1.26667	9.72924E-001	2.81254E-004	0.00000E+000	2.73639E-004	1.68088E-001	9.73315E-001	3.57820E+000	9	...........
	95	1.28	9.73980E-001	2.80710E-004	0.00000E+000	2.73405E-004	1.68088E-001	9.74350E-001	3.57820E+000	9	...........
	96	1.29333	9.75072E-001	2.80412E-004	0.00000E+000	2.73421E-004	1.68088E-001	9.75435E-001	3.57820E+000	9	...........
	97	1.30667	9.76164E-001	2.80140E-004	0.00000E+000	2.73462E-004	1.68088E-001	9.76526E-001	3.57820E+000	9	...........
	98	1.32	9.77224E-001	2.81412E-004	0.00000E+000	2.75002E-004	1.68088E-001	9.77614E-001	3.57820E+000	9	...........
	99	1.33333	9.78282E-001	2.80674E-004	0.00000E+000	2.74578E-004	1.68088E-001	9.78651E-001	3.57820E+000	9	...........
	100	1.34667	9.79307E-001	2.80820E-004	0.00000E+000	2.75009E-004	1.68088E-001	9.79686E-001	3.57820E+000	9	...........
	101	1.36	9.80329E-001	2.80451E-004	0.00000E+000	2.74934E-004	1.68088E-001	9.80700E-001	3.57820E+000	9	...........
	102	1.37333	9.81334E-001	2.81278E-004	0.00000E+000	2.76028E-004	1.68088E-001	9.81713E-001	3.57820E+000	9	...........
	103	1.38667	9.82329E-001	2.80997E-004	0.00000E+000	2.76032E-004	1.68088E-001	9.82692E-001	3.57820E+000	9	...........
	104	1.4	9.83302E-001	2.81187E-004	0.00000E+000	2.76492E-004	1.68088E-001	9.83670E-001	3.57820E+000	9	...........
	105	1.41333	9.84308E-001	2.81639E-004	0.00000E+000	2.77219E-004	1.68088E-001	9.84671E-001	3.57820E+000	9	...........
	106	1.42667	9.85311E-001	2.80870E-004	0.00000E+000	2.76744E-004	1.68088E-001	9.85687E-001	3.57820E+000	9	...........
	107	1.44	9.86283E-001	2.80166E-004	0.00000E+000	2.76323E-004	1.68088E-001	9.86676E-001	3.57820E+000	9	...........
	108	1.45333	9.87279E-001	2.81167E-004	0.00000E+000	2.77590E-004	1.68088E-001	9.87681E-001	3.57820E+000	9	...........
	109	1.46667	9.88295E-001	2.81913E-004	0.00000E+000	2.78613E-004	1.68088E-001	9.88646E-001	3.57820E+000	9	...........
	110	1.48	9.89251E-001	2.80550E-004	0.00000E+000	2.77534E-004	1.68088E-001	9.89627E-001	3.57820E+000	9	...........
	111	1.49333	9.90207E-001	2.81354E-004	0.00000E+000	2.78599E-004	1.68088E-001	9.90580E-001	3.57820E+000	9	...........
	112	1.50667	9.91141E-001	2.80609E-004	0.00000E+000	2.78124E-004	1.68088E-001	9.91509E-001	3.57820E+000	9	...........
	113	1.52	9.92073E-001	2.82107E-004	0.00000E+000	2.79870E-004	1.68088E-001	9.92446E-001	3.57820E+000	9	...........
	114	1.53333	9.93008E-001	2.80264E-004	0.00000E+000	2.78304E-004	1.68088E-001	9.93385E-001	3.57820E+000	9	...........
	115	1.54667	9.93940E-001	2.80960E-004	0.00000E+000	2.79257E-004	1.68088E-001	9.94315E-001	3.57820E+000	9	...........
	116	1.56	9.94857E-001	2.80851E-004	0.00000E+000	2.79407E-004	1.68088E-001	9.95231E-001	3.57820E+000	9	...........
	117	1.57333	9.95791E-001	2.80881E-004	0.00000E+000	2.79699E-004	1.68088E-001	9.96179E-001	3.57820E+000	9	...........
	118	1.58667	9.96709E-001	2.80944E-004	0.00000E+000	2.80019E-004	1.68088E-001	9.97106E-001	3.57820E+000	9	...........
	119	1.6	9.97614E-001	2.80542E-004	0.00000E+000	2.79872E-004	1.68088E-001	9.98022E-001	3.57820E+000	9	...........
	120	1.61333	9.98539E-001	2.81423E-004	0.00000E+000	2.81012E-004	1.68088E-001	9.98922E-001	3.57820E+000	9	...........
	121	1.62667	9.99430E-001	2.81497E-004	0.00000E+000	2.81337E-004	1.68088E-001	9.99806E-001	3.57820E+000	9	...........
	122	1.63	9.99951E-001	2.81694E-004	0.00000E+000	2.81680E-004	1.68088E-001	1.00033E+000	3.57820E+000	9	...........
STARTTIMEOFFSET	QUANT	476.075	Start Time Offset (s)
