EXPLAIN
TAG	PWR800_CHARGE
TITLE	LABEL	PWR Cyclic Charge Discharge (Cell) - Charge Step	Test &Identifier
DATE	LABEL	7-7-2017	Date
TIME	LABEL	15:54:18	Time
NOTES	NOTES	3	&Notes...
	supercap test cell
	2.8mg
	6M KOH
PSTAT	PSTAT	IFC5000-01520	Potentiostat
CAPACITY	QUANT	1.00000E-003	Capacity (A-hr)
CELLTYPE	SELECTOR	1	&Cell Type
WORKINGCONNECTION	SELECTOR	0	&Working Lead
MAXCHARGETIME	VARIABLEANDUNITS	1.00000E+002	s	1.00000E+002	second(s)	Max &Charge Time
CHARGECURRENT	QUANT	2.80000E-004	&Charge Current (A) 
VOLTAGEFINISH	TWOPARAM	F	1.00000E-003	3.60000E+003	&Voltage Finish	 I (A) < 	Max Time(s)
SAMPLETIME	QUANT	1.00000E-002	Sa&mple Period (s)
CHARGESTOPAT1	MULTIPARAM	4	1.00000E+000	Charge Stop At &1	Voltage > Limit	V
CHARGESTOPAT2	MULTIPARAM	0	0.00000E+000	Charge Stop At &2	None	N/A
AESBHCSELECTOR	TOGGLE	F	Save Both Half Cells
IRCOMP	TOGGLE	F	IR &Measure
EOC	QUANT	0	Open Circuit (V)
SEQUENCER	TOGGLE	TRUE	Run as Sequence
PSTATMODEL	IQUANT	53	Pstat Model
PSTATSECTION	LABEL	IFC5000-01520	Pstat Section
PSTATSERIALNO	LABEL	01520	Pstat Serial Number
CTRLMODE	IQUANT	0	Control Mode
ELECTROMETER	IQUANT	1	RE=0 or CS=1
IESTAB	IQUANT	0	I/E Stability
CASPEED	IQUANT	4	Control Amp Speed
CONVENTION	IQUANT	1	Current Convention
ICHRANGE	IQUANT	2	Ich Range
ICHRANGEMODE	TOGGLE	T	Ich Auto Range
ICHOFFSETENABLE	TOGGLE	F	Ich Offset Enable
ICHOFFSET	QUANT	0	Ich Offset (V)
ICHFILTER	IQUANT	1	Ich Filter
VCHRANGE	IQUANT	2	Vch Range
VCHRANGEMODE	TOGGLE	T	Vch Auto Range
VCHOFFSETENABLE	TOGGLE	F	Vch Offset Enable
VCHOFFSET	QUANT	0	Vch Offset (V)
VCHFILTER	IQUANT	1	Vch Filter
IERANGELOWERLIMIT	IQUANT	9	I/E Range Lower Limit
IERANGEMODE	TOGGLE	F	I/E AutoRange
IERANGE	IQUANT	9	I/E Range
ACHSELECT	IQUANT	1	Ach Select
ACHRANGE	IQUANT	2	Ach Range
ACHOFFSETENABLE	TOGGLE	F	Ach Offset Enable
ACHOFFSET	QUANT	0	Ach Offset (V)
ACHFILTER	IQUANT	1	Ach Filter
CABLEID	IQUANT	14	Cable ID
DCCALDATE	LABEL	5-7-2017	DC Calibration Date
ACCALDATE	LABEL	12/3/2015	AC Calibration Date
FRAMEWORKVERSION	QUANT	7.01	Framework Version
INSTRUMENTVERSION	LABEL	4.00	Instrument Version
CURVE	TABLE	92
	Pt	T	Vf	Im	Vu	Pwr	Sig	Ach	Temp	IERange	Over
	#	s	V	A	V	W	V	V	deg C	#	bits
	0	0.013333	5.89504E-001	2.81320E-004	0.00000E+000	1.65839E-004	1.68088E-001	5.89751E-001	3.57840E+000	9	...........
	1	0.026667	6.18773E-001	2.81975E-004	0.00000E+000	1.74479E-004	1.68088E-001	6.19014E-001	3.57840E+000	9	...........
	2	0.04	6.43598E-001	2.81836E-004	0.00000E+000	1.81389E-004	1.68088E-001	6.43847E-001	3.57840E+000	9	...........
	3	0.053333	6.65216E-001	2.81361E-004	0.00000E+000	1.87166E-004	1.68088E-001	6.65483E-001	3.57840E+000	9	...........
	4	0.066667	6.84327E-001	2.81862E-004	0.00000E+000	1.92886E-004	1.68088E-001	6.84610E-001	3.57840E+000	9	...........
	5	0.08	7.01453E-001	2.81091E-004	0.00000E+000	1.97172E-004	1.68088E-001	7.01714E-001	3.57840E+000	9	...........
	6	0.093333	7.16931E-001	2.80909E-004	0.00000E+000	2.01392E-004	1.68088E-001	7.17216E-001	3.57840E+000	9	...........
	7	0.106667	7.31045E-001	2.80669E-004	0.00000E+000	2.05182E-004	1.68088E-001	7.31340E-001	3.57840E+000	9	...........
	8	0.12	7.43991E-001	2.81950E-004	0.00000E+000	2.09769E-004	1.68088E-001	7.44289E-001	3.57840E+000	9	...........
	9	0.133333	7.55922E-001	2.80342E-004	0.00000E+000	2.11916E-004	1.68088E-001	7.56210E-001	3.57840E+000	9	...........
	10	0.146667	7.66904E-001	2.80984E-004	0.00000E+000	2.15487E-004	1.68088E-001	7.67211E-001	3.57840E+000	9	...........
	11	0.16	7.77155E-001	2.82017E-004	0.00000E+000	2.19171E-004	1.68088E-001	7.77444E-001	3.57840E+000	9	...........
	12	0.173333	7.86646E-001	2.81156E-004	0.00000E+000	2.21171E-004	1.68088E-001	7.86960E-001	3.57840E+000	9	...........
	13	0.186667	7.95558E-001	2.81279E-004	0.00000E+000	2.23774E-004	1.68088E-001	7.95864E-001	3.57840E+000	9	...........
	14	0.2	8.03895E-001	2.80346E-004	0.00000E+000	2.25369E-004	1.68088E-001	8.04205E-001	3.57840E+000	9	...........
	15	0.213333	8.11695E-001	2.81318E-004	0.00000E+000	2.28344E-004	1.68088E-001	8.12005E-001	3.57840E+000	9	...........
	16	0.226667	8.19027E-001	2.81308E-004	0.00000E+000	2.30398E-004	1.68088E-001	8.19310E-001	3.57840E+000	9	...........
	17	0.24	8.25938E-001	2.81078E-004	0.00000E+000	2.32153E-004	1.68088E-001	8.26237E-001	3.57840E+000	9	...........
	18	0.253333	8.32448E-001	2.80721E-004	0.00000E+000	2.33686E-004	1.68088E-001	8.32746E-001	3.57840E+000	9	...........
	19	0.266667	8.38619E-001	2.80853E-004	0.00000E+000	2.35529E-004	1.68088E-001	8.38923E-001	3.57840E+000	9	...........
	20	0.28	8.44460E-001	2.80794E-004	0.00000E+000	2.37119E-004	1.68088E-001	8.44753E-001	3.57840E+000	9	...........
	21	0.293333	8.49979E-001	2.80363E-004	0.00000E+000	2.38302E-004	1.68088E-001	8.50293E-001	3.57840E+000	9	...........
	22	0.306667	8.55230E-001	2.81165E-004	0.00000E+000	2.40461E-004	1.68088E-001	8.55547E-001	3.57840E+000	9	...........
	23	0.32	8.60243E-001	2.81643E-004	0.00000E+000	2.42281E-004	1.68088E-001	8.60563E-001	3.57840E+000	9	...........
	24	0.333333	8.64979E-001	2.81085E-004	0.00000E+000	2.43132E-004	1.68088E-001	8.65314E-001	3.57840E+000	9	...........
	25	0.346667	8.69540E-001	2.81860E-004	0.00000E+000	2.45088E-004	1.68088E-001	8.69869E-001	3.57840E+000	9	...........
	26	0.36	8.73867E-001	2.81027E-004	0.00000E+000	2.45580E-004	1.68088E-001	8.74223E-001	3.57840E+000	9	...........
	27	0.373333	8.78022E-001	2.80981E-004	0.00000E+000	2.46708E-004	1.68088E-001	8.78363E-001	3.57840E+000	9	...........
	28	0.386667	8.81979E-001	2.80382E-004	0.00000E+000	2.47291E-004	1.68088E-001	8.82328E-001	3.57840E+000	9	...........
	29	0.4	8.85789E-001	2.80816E-004	0.00000E+000	2.48743E-004	1.68088E-001	8.86148E-001	3.57840E+000	9	...........
	30	0.413333	8.89421E-001	2.81762E-004	0.00000E+000	2.50605E-004	1.68088E-001	8.89777E-001	3.57840E+000	9	...........
	31	0.426667	8.92908E-001	2.81177E-004	0.00000E+000	2.51065E-004	1.68088E-001	8.93260E-001	3.57840E+000	9	...........
	32	0.44	8.96251E-001	2.81197E-004	0.00000E+000	2.52023E-004	1.68088E-001	8.96652E-001	3.57840E+000	9	...........
	33	0.453333	8.99516E-001	2.80333E-004	0.00000E+000	2.52164E-004	1.68088E-001	8.99897E-001	3.57840E+000	9	...........
	34	0.466667	9.02659E-001	2.81370E-004	0.00000E+000	2.53981E-004	1.68088E-001	9.03033E-001	3.57840E+000	9	...........
	35	0.48	9.05647E-001	2.80171E-004	0.00000E+000	2.53736E-004	1.68088E-001	9.06029E-001	3.57840E+000	9	...........
	36	0.493333	9.08553E-001	2.80752E-004	0.00000E+000	2.55078E-004	1.68088E-001	9.08929E-001	3.57840E+000	9	...........
	37	0.506667	9.11395E-001	2.81467E-004	0.00000E+000	2.56527E-004	1.68088E-001	9.11773E-001	3.57840E+000	9	...........
	38	0.52	9.14119E-001	2.80794E-004	0.00000E+000	2.56679E-004	1.68088E-001	9.14494E-001	3.57840E+000	9	...........
	39	0.533333	9.16769E-001	2.81646E-004	0.00000E+000	2.58204E-004	1.68088E-001	9.17175E-001	3.57840E+000	9	...........
	40	0.546667	9.19356E-001	2.81006E-004	0.00000E+000	2.58345E-004	1.68088E-001	9.19743E-001	3.57840E+000	9	...........
	41	0.56	9.21927E-001	2.81376E-004	0.00000E+000	2.59408E-004	1.68088E-001	9.22268E-001	3.57840E+000	9	...........
	42	0.573333	9.24371E-001	2.81911E-004	0.00000E+000	2.60590E-004	1.68088E-001	9.24704E-001	3.57840E+000	9	...........
	43	0.586667	9.26761E-001	2.81913E-004	0.00000E+000	2.61266E-004	1.68088E-001	9.27092E-001	3.57840E+000	9	...........
	44	0.6	9.29079E-001	2.81233E-004	0.00000E+000	2.61287E-004	1.68088E-001	9.29398E-001	3.57840E+000	9	...........
	45	0.613333	9.31297E-001	2.80814E-004	0.00000E+000	2.61521E-004	1.68088E-001	9.31622E-001	3.57840E+000	9	...........
	46	0.626667	9.33469E-001	2.80557E-004	0.00000E+000	2.61892E-004	1.68088E-001	9.33799E-001	3.57840E+000	9	...........
	47	0.64	9.35570E-001	2.81308E-004	0.00000E+000	2.63183E-004	1.68088E-001	9.35928E-001	3.57840E+000	9	...........
	48	0.653333	9.37624E-001	2.80526E-004	0.00000E+000	2.63028E-004	1.68088E-001	9.37960E-001	3.57840E+000	9	...........
	49	0.666667	9.39642E-001	2.81227E-004	0.00000E+000	2.64253E-004	1.68088E-001	9.40014E-001	3.57840E+000	9	...........
	50	0.68	9.41644E-001	2.80791E-004	0.00000E+000	2.64405E-004	1.68088E-001	9.41980E-001	3.57840E+000	9	...........
	51	0.693333	9.43589E-001	2.81077E-004	0.00000E+000	2.65221E-004	1.68088E-001	9.43925E-001	3.57840E+000	9	...........
	52	0.706667	9.45517E-001	2.81145E-004	0.00000E+000	2.65827E-004	1.68088E-001	9.45895E-001	3.57840E+000	9	...........
	53	0.72	9.47403E-001	2.80726E-004	0.00000E+000	2.65961E-004	1.68088E-001	9.47769E-001	3.57840E+000	9	...........
	54	0.733333	9.49232E-001	2.80678E-004	0.00000E+000	2.66429E-004	1.68088E-001	9.49589E-001	3.57840E+000	9	...........
	55	0.746667	9.50979E-001	2.80397E-004	0.00000E+000	2.66652E-004	1.68088E-001	9.51364E-001	3.57840E+000	9	...........
	56	0.76	9.52731E-001	2.81201E-004	0.00000E+000	2.67909E-004	1.68088E-001	9.53089E-001	3.57840E+000	9	...........
	57	0.773333	9.54440E-001	2.81128E-004	0.00000E+000	2.68320E-004	1.68088E-001	9.54801E-001	3.57840E+000	9	...........
	58	0.786667	9.56102E-001	2.80819E-004	0.00000E+000	2.68492E-004	1.68088E-001	9.56461E-001	3.57840E+000	9	...........
	59	0.8	9.57744E-001	2.80881E-004	0.00000E+000	2.69013E-004	1.68088E-001	9.58109E-001	3.57840E+000	9	...........
	60	0.813333	9.59391E-001	2.81310E-004	0.00000E+000	2.69886E-004	1.68088E-001	9.59779E-001	3.57840E+000	9	...........
	61	0.826667	9.60994E-001	2.80638E-004	0.00000E+000	2.69691E-004	1.68088E-001	9.61373E-001	3.57840E+000	9	...........
	62	0.84	9.62540E-001	2.81994E-004	0.00000E+000	2.71431E-004	1.68088E-001	9.62929E-001	3.57880E+000	9	...........
	63	0.853333	9.64094E-001	2.81064E-004	0.00000E+000	2.70972E-004	1.68088E-001	9.64464E-001	3.57920E+000	9	...........
	64	0.866667	9.65662E-001	2.81861E-004	0.00000E+000	2.72182E-004	1.68088E-001	9.66023E-001	3.57920E+000	9	...........
	65	0.88	9.67168E-001	2.80354E-004	0.00000E+000	2.71150E-004	1.68088E-001	9.67545E-001	3.57920E+000	9	...........
	66	0.893333	9.68686E-001	2.81164E-004	0.00000E+000	2.72359E-004	1.68088E-001	9.69060E-001	3.57920E+000	9	...........
	67	0.906667	9.70139E-001	2.81330E-004	0.00000E+000	2.72930E-004	1.68088E-001	9.70518E-001	3.57920E+000	9	...........
	68	0.92	9.71548E-001	2.80984E-004	0.00000E+000	2.72989E-004	1.68088E-001	9.71944E-001	3.57920E+000	9	...........
	69	0.933333	9.73040E-001	2.81792E-004	0.00000E+000	2.74195E-004	1.68088E-001	9.73399E-001	3.57920E+000	9	...........
	70	0.946667	9.74452E-001	2.81733E-004	0.00000E+000	2.74535E-004	1.68088E-001	9.74802E-001	3.57920E+000	9	...........
	71	0.96	9.75828E-001	2.80829E-004	0.00000E+000	2.74041E-004	1.68088E-001	9.76199E-001	3.57920E+000	9	...........
	72	0.97333	9.77204E-001	2.80697E-004	0.00000E+000	2.74298E-004	1.68088E-001	9.77579E-001	3.57920E+000	9	...........
	73	0.98667	9.78584E-001	2.81308E-004	0.00000E+000	2.75283E-004	1.68088E-001	9.78938E-001	3.57920E+000	9	...........
	74	1	9.79887E-001	2.81895E-004	0.00000E+000	2.76226E-004	1.68088E-001	9.80243E-001	3.57920E+000	9	...........
	75	1.01333	9.81152E-001	2.81587E-004	0.00000E+000	2.76279E-004	1.68088E-001	9.81548E-001	3.57920E+000	9	...........
	76	1.02667	9.82422E-001	2.82022E-004	0.00000E+000	2.77065E-004	1.68088E-001	9.82796E-001	3.57920E+000	9	...........
	77	1.04	9.83667E-001	2.80853E-004	0.00000E+000	2.76266E-004	1.68088E-001	9.84082E-001	3.57920E+000	9	...........
	78	1.05333	9.84924E-001	2.81503E-004	0.00000E+000	2.77260E-004	1.68088E-001	9.85340E-001	3.57920E+000	9	...........
	79	1.06667	9.86192E-001	2.81110E-004	0.00000E+000	2.77228E-004	1.68088E-001	9.86606E-001	3.57920E+000	9	...........
	80	1.08	9.87418E-001	2.81312E-004	0.00000E+000	2.77772E-004	1.68088E-001	9.87822E-001	3.57920E+000	9	...........
	81	1.09333	9.88658E-001	2.81730E-004	0.00000E+000	2.78534E-004	1.68088E-001	9.89042E-001	3.57920E+000	9	...........
	82	1.10667	9.89856E-001	2.81042E-004	0.00000E+000	2.78191E-004	1.68088E-001	9.90242E-001	3.57920E+000	9	...........
	83	1.12	9.91026E-001	2.81634E-004	0.00000E+000	2.79106E-004	1.68088E-001	9.91401E-001	3.57920E+000	9	...........
	84	1.13333	9.92216E-001	2.81010E-004	0.00000E+000	2.78822E-004	1.68088E-001	9.92611E-001	3.57920E+000	9	...........
	85	1.14667	9.93376E-001	2.80917E-004	0.00000E+000	2.79056E-004	1.68088E-001	9.93766E-001	3.57920E+000	9	...........
	86	1.16	9.94527E-001	2.81375E-004	0.00000E+000	2.79835E-004	1.68088E-001	9.94889E-001	3.57920E+000	9	...........
	87	1.17333	9.95637E-001	2.81130E-004	0.00000E+000	2.79904E-004	1.68088E-001	9.95999E-001	3.57920E+000	9	...........
	88	1.18667	9.96695E-001	2.80665E-004	0.00000E+000	2.79737E-004	1.68088E-001	9.97089E-001	3.57920E+000	9	...........
	89	1.2	9.97823E-001	2.82240E-004	0.00000E+000	2.81626E-004	1.68088E-001	9.98190E-001	3.57920E+000	9	...........
	90	1.21333	9.98904E-001	2.81212E-004	0.00000E+000	2.80904E-004	1.68088E-001	9.99265E-001	3.57920E+000	9	...........
	91	1.22167	9.99810E-001	2.82066E-004	0.00000E+000	2.82012E-004	1.68088E-001	1.00016E+000	3.57920E+000	9	...........
STARTTIMEOFFSET	QUANT	864.0685	Start Time Offset (s)
