EXPLAIN
TAG	PWR800_CHARGE
TITLE	LABEL	PWR Cyclic Charge Discharge (Cell) - Charge Step	Test &Identifier
DATE	LABEL	7-7-2017	Date
TIME	LABEL	16:05:23	Time
NOTES	NOTES	3	&Notes...
	supercap test cell
	2.8mg
	6M KOH
PSTAT	PSTAT	IFC5000-01520	Potentiostat
CAPACITY	QUANT	1.00000E-003	Capacity (A-hr)
CELLTYPE	SELECTOR	1	&Cell Type
WORKINGCONNECTION	SELECTOR	0	&Working Lead
MAXCHARGETIME	VARIABLEANDUNITS	1.00000E+002	s	1.00000E+002	second(s)	Max &Charge Time
CHARGECURRENT	QUANT	2.80000E-004	&Charge Current (A) 
VOLTAGEFINISH	TWOPARAM	F	1.00000E-003	3.60000E+003	&Voltage Finish	 I (A) < 	Max Time(s)
SAMPLETIME	QUANT	1.00000E-002	Sa&mple Period (s)
CHARGESTOPAT1	MULTIPARAM	4	1.00000E+000	Charge Stop At &1	Voltage > Limit	V
CHARGESTOPAT2	MULTIPARAM	0	0.00000E+000	Charge Stop At &2	None	N/A
AESBHCSELECTOR	TOGGLE	F	Save Both Half Cells
IRCOMP	TOGGLE	F	IR &Measure
EOC	QUANT	0	Open Circuit (V)
SEQUENCER	TOGGLE	TRUE	Run as Sequence
PSTATMODEL	IQUANT	53	Pstat Model
PSTATSECTION	LABEL	IFC5000-01520	Pstat Section
PSTATSERIALNO	LABEL	01520	Pstat Serial Number
CTRLMODE	IQUANT	0	Control Mode
ELECTROMETER	IQUANT	1	RE=0 or CS=1
IESTAB	IQUANT	0	I/E Stability
CASPEED	IQUANT	4	Control Amp Speed
CONVENTION	IQUANT	1	Current Convention
ICHRANGE	IQUANT	2	Ich Range
ICHRANGEMODE	TOGGLE	T	Ich Auto Range
ICHOFFSETENABLE	TOGGLE	F	Ich Offset Enable
ICHOFFSET	QUANT	0	Ich Offset (V)
ICHFILTER	IQUANT	1	Ich Filter
VCHRANGE	IQUANT	2	Vch Range
VCHRANGEMODE	TOGGLE	T	Vch Auto Range
VCHOFFSETENABLE	TOGGLE	F	Vch Offset Enable
VCHOFFSET	QUANT	0	Vch Offset (V)
VCHFILTER	IQUANT	1	Vch Filter
IERANGELOWERLIMIT	IQUANT	9	I/E Range Lower Limit
IERANGEMODE	TOGGLE	F	I/E AutoRange
IERANGE	IQUANT	9	I/E Range
ACHSELECT	IQUANT	1	Ach Select
ACHRANGE	IQUANT	2	Ach Range
ACHOFFSETENABLE	TOGGLE	F	Ach Offset Enable
ACHOFFSET	QUANT	0	Ach Offset (V)
ACHFILTER	IQUANT	1	Ach Filter
CABLEID	IQUANT	14	Cable ID
DCCALDATE	LABEL	5-7-2017	DC Calibration Date
ACCALDATE	LABEL	12/3/2015	AC Calibration Date
FRAMEWORKVERSION	QUANT	7.01	Framework Version
INSTRUMENTVERSION	LABEL	4.00	Instrument Version
CURVE	TABLE	72
	Pt	T	Vf	Im	Vu	Pwr	Sig	Ach	Temp	IERange	Over
	#	s	V	A	V	W	V	V	deg C	#	bits
	0	0.013333	6.01172E-001	2.81265E-004	0.00000E+000	1.69089E-004	1.68088E-001	6.01452E-001	3.57880E+000	9	...........
	1	0.026667	6.31022E-001	2.80567E-004	0.00000E+000	1.77044E-004	1.68088E-001	6.31283E-001	3.57880E+000	9	...........
	2	0.04	6.56533E-001	2.80668E-004	0.00000E+000	1.84268E-004	1.68088E-001	6.56819E-001	3.57880E+000	9	...........
	3	0.053333	6.78865E-001	2.81036E-004	0.00000E+000	1.90785E-004	1.68088E-001	6.79140E-001	3.57880E+000	9	...........
	4	0.066667	6.98708E-001	2.80803E-004	0.00000E+000	1.96200E-004	1.68088E-001	6.99004E-001	3.57880E+000	9	...........
	5	0.08	7.16590E-001	2.83324E-004	0.00000E+000	2.03027E-004	1.68088E-001	7.16885E-001	3.57880E+000	9	...........
	6	0.093333	7.32861E-001	2.81877E-004	0.00000E+000	2.06577E-004	1.68088E-001	7.33143E-001	3.57880E+000	9	...........
	7	0.106667	7.47697E-001	2.80877E-004	0.00000E+000	2.10011E-004	1.68088E-001	7.47989E-001	3.57880E+000	9	...........
	8	0.12	7.61342E-001	2.82248E-004	0.00000E+000	2.14887E-004	1.68088E-001	7.61625E-001	3.57880E+000	9	...........
	9	0.133333	7.73929E-001	2.82677E-004	0.00000E+000	2.18772E-004	1.68088E-001	7.74237E-001	3.57880E+000	9	...........
	10	0.146667	7.85572E-001	2.81483E-004	0.00000E+000	2.21125E-004	1.68088E-001	7.85875E-001	3.57880E+000	9	...........
	11	0.16	7.96417E-001	2.82001E-004	0.00000E+000	2.24591E-004	1.68088E-001	7.96715E-001	3.57880E+000	9	...........
	12	0.173333	8.06446E-001	2.82210E-004	0.00000E+000	2.27587E-004	1.68088E-001	8.06748E-001	3.57880E+000	9	...........
	13	0.186667	8.15812E-001	2.80787E-004	0.00000E+000	2.29069E-004	1.68088E-001	8.16142E-001	3.57880E+000	9	...........
	14	0.2	8.24600E-001	2.81863E-004	0.00000E+000	2.32424E-004	1.68088E-001	8.24928E-001	3.57880E+000	9	...........
	15	0.213333	8.32823E-001	2.81618E-004	0.00000E+000	2.34538E-004	1.68088E-001	8.33156E-001	3.57880E+000	9	...........
	16	0.226667	8.40526E-001	2.81857E-004	0.00000E+000	2.36908E-004	1.68088E-001	8.40883E-001	3.57880E+000	9	...........
	17	0.24	8.47822E-001	2.79328E-004	0.00000E+000	2.36820E-004	1.68088E-001	8.48171E-001	3.57880E+000	9	...........
	18	0.253333	8.54667E-001	2.80528E-004	0.00000E+000	2.39758E-004	1.68088E-001	8.55018E-001	3.57880E+000	9	...........
	19	0.266667	8.61088E-001	2.80508E-004	0.00000E+000	2.41543E-004	1.68088E-001	8.61453E-001	3.57880E+000	9	...........
	20	0.28	8.67183E-001	2.80594E-004	0.00000E+000	2.43326E-004	1.68088E-001	8.67547E-001	3.57880E+000	9	...........
	21	0.293333	8.72962E-001	2.80136E-004	0.00000E+000	2.44548E-004	1.68088E-001	8.73319E-001	3.57880E+000	9	...........
	22	0.306667	8.78416E-001	2.82170E-004	0.00000E+000	2.47863E-004	1.68088E-001	8.78768E-001	3.57880E+000	9	...........
	23	0.32	8.83628E-001	2.80587E-004	0.00000E+000	2.47934E-004	1.68088E-001	8.83981E-001	3.57880E+000	9	...........
	24	0.333333	8.88552E-001	2.81876E-004	0.00000E+000	2.50462E-004	1.68088E-001	8.88909E-001	3.57880E+000	9	...........
	25	0.346667	8.93230E-001	2.82374E-004	0.00000E+000	2.52225E-004	1.68088E-001	8.93595E-001	3.57880E+000	9	...........
	26	0.36	8.97669E-001	2.81162E-004	0.00000E+000	2.52390E-004	1.68088E-001	8.98058E-001	3.57880E+000	9	...........
	27	0.373333	9.01929E-001	2.81272E-004	0.00000E+000	2.53687E-004	1.68088E-001	9.02324E-001	3.57880E+000	9	...........
	28	0.386667	9.06005E-001	2.81054E-004	0.00000E+000	2.54637E-004	1.68088E-001	9.06417E-001	3.57880E+000	9	...........
	29	0.4	9.09914E-001	2.80703E-004	0.00000E+000	2.55416E-004	1.68088E-001	9.10304E-001	3.57880E+000	9	...........
	30	0.413333	9.13622E-001	2.80445E-004	0.00000E+000	2.56220E-004	1.68088E-001	9.14017E-001	3.57880E+000	9	...........
	31	0.426667	9.17175E-001	2.82180E-004	0.00000E+000	2.58808E-004	1.68088E-001	9.17577E-001	3.57880E+000	9	...........
	32	0.44	9.20670E-001	2.80842E-004	0.00000E+000	2.58563E-004	1.68088E-001	9.21052E-001	3.57880E+000	9	...........
	33	0.453333	9.23993E-001	2.81196E-004	0.00000E+000	2.59823E-004	1.68088E-001	9.24342E-001	3.57880E+000	9	...........
	34	0.466667	9.27188E-001	2.81552E-004	0.00000E+000	2.61052E-004	1.68088E-001	9.27527E-001	3.57880E+000	9	...........
	35	0.48	9.30268E-001	2.80988E-004	0.00000E+000	2.61394E-004	1.68088E-001	9.30578E-001	3.57880E+000	9	...........
	36	0.493333	9.33200E-001	2.80870E-004	0.00000E+000	2.62108E-004	1.68088E-001	9.33517E-001	3.57880E+000	9	...........
	37	0.506667	9.36020E-001	2.80309E-004	0.00000E+000	2.62375E-004	1.68088E-001	9.36354E-001	3.57880E+000	9	...........
	38	0.52	9.38770E-001	2.80887E-004	0.00000E+000	2.63688E-004	1.68088E-001	9.39111E-001	3.57880E+000	9	...........
	39	0.533333	9.41421E-001	2.81761E-004	0.00000E+000	2.65255E-004	1.68088E-001	9.41774E-001	3.57880E+000	9	...........
	40	0.546667	9.44008E-001	2.81098E-004	0.00000E+000	2.65359E-004	1.68088E-001	9.44346E-001	3.57880E+000	9	...........
	41	0.56	9.46529E-001	2.82569E-004	0.00000E+000	2.67460E-004	1.68088E-001	9.46894E-001	3.57880E+000	9	...........
	42	0.573333	9.48945E-001	2.81424E-004	0.00000E+000	2.67056E-004	1.68088E-001	9.49289E-001	3.57880E+000	9	...........
	43	0.586667	9.51299E-001	2.81861E-004	0.00000E+000	2.68134E-004	1.68088E-001	9.51651E-001	3.57880E+000	9	...........
	44	0.6	9.53550E-001	2.81665E-004	0.00000E+000	2.68582E-004	1.68088E-001	9.53895E-001	3.57880E+000	9	...........
	45	0.613333	9.55781E-001	2.80588E-004	0.00000E+000	2.68180E-004	1.68088E-001	9.56113E-001	3.57880E+000	9	...........
	46	0.626667	9.57925E-001	2.81317E-004	0.00000E+000	2.69481E-004	1.68088E-001	9.58305E-001	3.57880E+000	9	...........
	47	0.64	9.60054E-001	2.80963E-004	0.00000E+000	2.69739E-004	1.68088E-001	9.60416E-001	3.57880E+000	9	...........
	48	0.653333	9.62090E-001	2.79842E-004	0.00000E+000	2.69233E-004	1.68088E-001	9.62461E-001	3.57880E+000	9	...........
	49	0.666667	9.64068E-001	2.80959E-004	0.00000E+000	2.70863E-004	1.68088E-001	9.64469E-001	3.57880E+000	9	...........
	50	0.68	9.66042E-001	2.81633E-004	0.00000E+000	2.72069E-004	1.68088E-001	9.66430E-001	3.57880E+000	9	...........
	51	0.693333	9.67979E-001	2.80643E-004	0.00000E+000	2.71656E-004	1.68088E-001	9.68348E-001	3.57880E+000	9	...........
	52	0.706667	9.69827E-001	2.81250E-004	0.00000E+000	2.72764E-004	1.68088E-001	9.70229E-001	3.57880E+000	9	...........
	53	0.72	9.71626E-001	2.81393E-004	0.00000E+000	2.73409E-004	1.68088E-001	9.72006E-001	3.57880E+000	9	...........
	54	0.733333	9.73465E-001	2.80043E-004	0.00000E+000	2.72612E-004	1.68088E-001	9.73795E-001	3.57880E+000	9	...........
	55	0.746667	9.75244E-001	2.80981E-004	0.00000E+000	2.74026E-004	1.68088E-001	9.75549E-001	3.57880E+000	9	...........
	56	0.76	9.76937E-001	2.81365E-004	0.00000E+000	2.74876E-004	1.68088E-001	9.77269E-001	3.57880E+000	9	...........
	57	0.773333	9.78618E-001	2.81889E-004	0.00000E+000	2.75862E-004	1.68088E-001	9.78946E-001	3.57880E+000	9	...........
	58	0.786667	9.80259E-001	2.81695E-004	0.00000E+000	2.76134E-004	1.68088E-001	9.80590E-001	3.57880E+000	9	...........
	59	0.8	9.81887E-001	2.80553E-004	0.00000E+000	2.75472E-004	1.68088E-001	9.82212E-001	3.57880E+000	9	...........
	60	0.813333	9.83459E-001	2.81430E-004	0.00000E+000	2.76775E-004	1.68088E-001	9.83811E-001	3.57880E+000	9	...........
	61	0.826667	9.85038E-001	2.80457E-004	0.00000E+000	2.76261E-004	1.68088E-001	9.85400E-001	3.57880E+000	9	...........
	62	0.84	9.86572E-001	2.79732E-004	0.00000E+000	2.75976E-004	1.68088E-001	9.86910E-001	3.57880E+000	9	...........
	63	0.853333	9.88084E-001	2.82582E-004	0.00000E+000	2.79215E-004	1.68088E-001	9.88442E-001	3.57880E+000	9	...........
	64	0.866667	9.89588E-001	2.79531E-004	0.00000E+000	2.76621E-004	1.68088E-001	9.89961E-001	3.57880E+000	9	...........
	65	0.88	9.91084E-001	2.81260E-004	0.00000E+000	2.78752E-004	1.68088E-001	9.91425E-001	3.57880E+000	9	...........
	66	0.893333	9.92493E-001	2.81395E-004	0.00000E+000	2.79283E-004	1.68088E-001	9.92876E-001	3.57880E+000	9	...........
	67	0.906667	9.93919E-001	2.79951E-004	0.00000E+000	2.78249E-004	1.68088E-001	9.94297E-001	3.57880E+000	9	...........
	68	0.92	9.95329E-001	2.80786E-004	0.00000E+000	2.79474E-004	1.68088E-001	9.95710E-001	3.57880E+000	9	...........
	69	0.933333	9.96714E-001	2.81529E-004	0.00000E+000	2.80604E-004	1.68088E-001	9.97115E-001	3.57880E+000	9	...........
	70	0.946667	9.98074E-001	2.81121E-004	0.00000E+000	2.80580E-004	1.68088E-001	9.98487E-001	3.57880E+000	9	...........
	71	0.96	9.99407E-001	2.82068E-004	0.00000E+000	2.81901E-004	1.68088E-001	9.99799E-001	3.57880E+000	9	...........
STARTTIMEOFFSET	QUANT	1334.911	Start Time Offset (s)
