EXPLAIN
TAG	PWR800_CHARGE
TITLE	LABEL	PWR Cyclic Charge Discharge (Cell) - Charge Step	Test &Identifier
DATE	LABEL	7-7-2017	Date
TIME	LABEL	16:04:36	Time
NOTES	NOTES	3	&Notes...
	supercap test cell
	2.8mg
	6M KOH
PSTAT	PSTAT	IFC5000-01520	Potentiostat
CAPACITY	QUANT	1.00000E-003	Capacity (A-hr)
CELLTYPE	SELECTOR	1	&Cell Type
WORKINGCONNECTION	SELECTOR	0	&Working Lead
MAXCHARGETIME	VARIABLEANDUNITS	1.00000E+002	s	1.00000E+002	second(s)	Max &Charge Time
CHARGECURRENT	QUANT	2.80000E-004	&Charge Current (A) 
VOLTAGEFINISH	TWOPARAM	F	1.00000E-003	3.60000E+003	&Voltage Finish	 I (A) < 	Max Time(s)
SAMPLETIME	QUANT	1.00000E-002	Sa&mple Period (s)
CHARGESTOPAT1	MULTIPARAM	4	1.00000E+000	Charge Stop At &1	Voltage > Limit	V
CHARGESTOPAT2	MULTIPARAM	0	0.00000E+000	Charge Stop At &2	None	N/A
AESBHCSELECTOR	TOGGLE	F	Save Both Half Cells
IRCOMP	TOGGLE	F	IR &Measure
EOC	QUANT	0	Open Circuit (V)
SEQUENCER	TOGGLE	TRUE	Run as Sequence
PSTATMODEL	IQUANT	53	Pstat Model
PSTATSECTION	LABEL	IFC5000-01520	Pstat Section
PSTATSERIALNO	LABEL	01520	Pstat Serial Number
CTRLMODE	IQUANT	0	Control Mode
ELECTROMETER	IQUANT	1	RE=0 or CS=1
IESTAB	IQUANT	0	I/E Stability
CASPEED	IQUANT	4	Control Amp Speed
CONVENTION	IQUANT	1	Current Convention
ICHRANGE	IQUANT	2	Ich Range
ICHRANGEMODE	TOGGLE	T	Ich Auto Range
ICHOFFSETENABLE	TOGGLE	F	Ich Offset Enable
ICHOFFSET	QUANT	0	Ich Offset (V)
ICHFILTER	IQUANT	1	Ich Filter
VCHRANGE	IQUANT	2	Vch Range
VCHRANGEMODE	TOGGLE	T	Vch Auto Range
VCHOFFSETENABLE	TOGGLE	F	Vch Offset Enable
VCHOFFSET	QUANT	0	Vch Offset (V)
VCHFILTER	IQUANT	1	Vch Filter
IERANGELOWERLIMIT	IQUANT	9	I/E Range Lower Limit
IERANGEMODE	TOGGLE	F	I/E AutoRange
IERANGE	IQUANT	9	I/E Range
ACHSELECT	IQUANT	1	Ach Select
ACHRANGE	IQUANT	2	Ach Range
ACHOFFSETENABLE	TOGGLE	F	Ach Offset Enable
ACHOFFSET	QUANT	0	Ach Offset (V)
ACHFILTER	IQUANT	1	Ach Filter
CABLEID	IQUANT	14	Cable ID
DCCALDATE	LABEL	5-7-2017	DC Calibration Date
ACCALDATE	LABEL	12/3/2015	AC Calibration Date
FRAMEWORKVERSION	QUANT	7.01	Framework Version
INSTRUMENTVERSION	LABEL	4.00	Instrument Version
CURVE	TABLE	73
	Pt	T	Vf	Im	Vu	Pwr	Sig	Ach	Temp	IERange	Over
	#	s	V	A	V	W	V	V	deg C	#	bits
	0	0.013333	6.00078E-001	2.80797E-004	0.00000E+000	1.68500E-004	1.68088E-001	6.00361E-001	3.57830E+000	9	...........
	1	0.026667	6.29960E-001	2.81468E-004	0.00000E+000	1.77314E-004	1.68088E-001	6.30218E-001	3.57830E+000	9	...........
	2	0.04	6.55464E-001	2.80984E-004	0.00000E+000	1.84174E-004	1.68088E-001	6.55735E-001	3.57830E+000	9	...........
	3	0.053333	6.77833E-001	2.80427E-004	0.00000E+000	1.90083E-004	1.68088E-001	6.78093E-001	3.57830E+000	9	...........
	4	0.066667	6.97706E-001	2.81750E-004	0.00000E+000	1.96579E-004	1.68088E-001	6.97983E-001	3.57830E+000	9	...........
	5	0.08	7.15622E-001	2.81639E-004	0.00000E+000	2.01547E-004	1.68088E-001	7.15898E-001	3.57830E+000	9	...........
	6	0.093333	7.31849E-001	2.81382E-004	0.00000E+000	2.05929E-004	1.68088E-001	7.32115E-001	3.57830E+000	9	...........
	7	0.106667	7.46735E-001	2.80428E-004	0.00000E+000	2.09406E-004	1.68088E-001	7.46981E-001	3.57830E+000	9	...........
	8	0.12	7.60380E-001	2.82697E-004	0.00000E+000	2.14957E-004	1.68088E-001	7.60617E-001	3.57830E+000	9	...........
	9	0.133333	7.72943E-001	2.81215E-004	0.00000E+000	2.17363E-004	1.68088E-001	7.73200E-001	3.57830E+000	9	...........
	10	0.146667	7.84615E-001	2.80131E-004	0.00000E+000	2.19795E-004	1.68088E-001	7.84874E-001	3.57830E+000	9	...........
	11	0.16	7.95457E-001	2.81714E-004	0.00000E+000	2.24091E-004	1.68088E-001	7.95723E-001	3.57830E+000	9	...........
	12	0.173333	8.05534E-001	2.81164E-004	0.00000E+000	2.26487E-004	1.68088E-001	8.05820E-001	3.57830E+000	9	...........
	13	0.186667	8.14926E-001	2.80835E-004	0.00000E+000	2.28859E-004	1.68088E-001	8.15267E-001	3.57830E+000	9	...........
	14	0.2	8.23770E-001	2.80953E-004	0.00000E+000	2.31441E-004	1.68088E-001	8.24080E-001	3.57830E+000	9	...........
	15	0.213333	8.31978E-001	2.82437E-004	0.00000E+000	2.34981E-004	1.68088E-001	8.32312E-001	3.57830E+000	9	...........
	16	0.226667	8.39694E-001	2.79965E-004	0.00000E+000	2.35085E-004	1.68088E-001	8.40028E-001	3.57830E+000	9	...........
	17	0.24	8.46981E-001	2.81151E-004	0.00000E+000	2.38130E-004	1.68088E-001	8.47318E-001	3.57830E+000	9	...........
	18	0.253333	8.53807E-001	2.81235E-004	0.00000E+000	2.40120E-004	1.68088E-001	8.54138E-001	3.57830E+000	9	...........
	19	0.266667	8.60222E-001	2.80754E-004	0.00000E+000	2.41511E-004	1.68088E-001	8.60571E-001	3.57830E+000	9	...........
	20	0.28	8.66307E-001	2.81350E-004	0.00000E+000	2.43736E-004	1.68088E-001	8.66637E-001	3.57830E+000	9	...........
	21	0.293333	8.72097E-001	2.81187E-004	0.00000E+000	2.45222E-004	1.68088E-001	8.72416E-001	3.57830E+000	9	...........
	22	0.306667	8.77555E-001	2.81334E-004	0.00000E+000	2.46886E-004	1.68088E-001	8.77882E-001	3.57830E+000	9	...........
	23	0.32	8.82731E-001	2.81465E-004	0.00000E+000	2.48458E-004	1.68088E-001	8.83077E-001	3.57830E+000	9	...........
	24	0.333333	8.87662E-001	2.81896E-004	0.00000E+000	2.50229E-004	1.68088E-001	8.88000E-001	3.57830E+000	9	...........
	25	0.346667	8.92319E-001	2.81164E-004	0.00000E+000	2.50888E-004	1.68088E-001	8.92662E-001	3.57830E+000	9	...........
	26	0.36	8.96792E-001	2.81375E-004	0.00000E+000	2.52335E-004	1.68088E-001	8.97153E-001	3.57830E+000	9	...........
	27	0.373333	9.01054E-001	2.81709E-004	0.00000E+000	2.53835E-004	1.68088E-001	9.01384E-001	3.57830E+000	9	...........
	28	0.386667	9.05115E-001	2.82126E-004	0.00000E+000	2.55357E-004	1.68088E-001	9.05477E-001	3.57830E+000	9	...........
	29	0.4	9.09045E-001	2.81390E-004	0.00000E+000	2.55796E-004	1.68088E-001	9.09392E-001	3.57830E+000	9	...........
	30	0.413333	9.12778E-001	2.81501E-004	0.00000E+000	2.56948E-004	1.68088E-001	9.13137E-001	3.57830E+000	9	...........
	31	0.426667	9.16391E-001	2.81016E-004	0.00000E+000	2.57520E-004	1.68088E-001	9.16762E-001	3.57830E+000	9	...........
	32	0.44	9.19828E-001	2.81667E-004	0.00000E+000	2.59085E-004	1.68088E-001	9.20194E-001	3.57830E+000	9	...........
	33	0.453333	9.23183E-001	2.79811E-004	0.00000E+000	2.58317E-004	1.68088E-001	9.23513E-001	3.57830E+000	9	...........
	34	0.466667	9.26333E-001	2.80207E-004	0.00000E+000	2.59565E-004	1.68088E-001	9.26685E-001	3.57830E+000	9	...........
	35	0.48	9.29404E-001	2.80896E-004	0.00000E+000	2.61066E-004	1.68088E-001	9.29767E-001	3.57830E+000	9	...........
	36	0.493333	9.32324E-001	2.81097E-004	0.00000E+000	2.62073E-004	1.68088E-001	9.32697E-001	3.57830E+000	9	...........
	37	0.506667	9.35145E-001	2.81892E-004	0.00000E+000	2.63610E-004	1.68088E-001	9.35543E-001	3.57830E+000	9	...........
	38	0.52	9.37908E-001	2.81803E-004	0.00000E+000	2.64306E-004	1.68088E-001	9.38298E-001	3.57830E+000	9	...........
	39	0.533333	9.40562E-001	2.82647E-004	0.00000E+000	2.65847E-004	1.68088E-001	9.40954E-001	3.57830E+000	9	...........
	40	0.546667	9.43141E-001	2.79687E-004	0.00000E+000	2.63785E-004	1.68088E-001	9.43525E-001	3.57830E+000	9	...........
	41	0.56	9.45666E-001	2.81465E-004	0.00000E+000	2.66172E-004	1.68088E-001	9.46075E-001	3.57830E+000	9	...........
	42	0.573333	9.48126E-001	2.81801E-004	0.00000E+000	2.67183E-004	1.68088E-001	9.48484E-001	3.57830E+000	9	...........
	43	0.586667	9.50455E-001	2.81568E-004	0.00000E+000	2.67618E-004	1.68088E-001	9.50829E-001	3.57830E+000	9	...........
	44	0.6	9.52761E-001	2.81059E-004	0.00000E+000	2.67782E-004	1.68088E-001	9.53109E-001	3.57830E+000	9	...........
	45	0.613333	9.54964E-001	2.81259E-004	0.00000E+000	2.68592E-004	1.68088E-001	9.55316E-001	3.57830E+000	9	...........
	46	0.626667	9.57109E-001	2.82081E-004	0.00000E+000	2.69982E-004	1.68088E-001	9.57481E-001	3.57830E+000	9	...........
	47	0.64	9.59231E-001	2.80797E-004	0.00000E+000	2.69349E-004	1.68088E-001	9.59614E-001	3.57830E+000	9	...........
	48	0.653333	9.61299E-001	2.81246E-004	0.00000E+000	2.70362E-004	1.68088E-001	9.61681E-001	3.57830E+000	9	...........
	49	0.666667	9.63291E-001	2.80872E-004	0.00000E+000	2.70562E-004	1.68088E-001	9.63686E-001	3.57830E+000	9	...........
	50	0.68	9.65224E-001	2.81901E-004	0.00000E+000	2.72098E-004	1.68088E-001	9.65600E-001	3.57830E+000	9	...........
	51	0.693333	9.67131E-001	2.81535E-004	0.00000E+000	2.72281E-004	1.68088E-001	9.67490E-001	3.57830E+000	9	...........
	52	0.706667	9.69006E-001	2.81433E-004	0.00000E+000	2.72710E-004	1.68088E-001	9.69360E-001	3.57830E+000	9	...........
	53	0.72	9.70858E-001	2.80974E-004	0.00000E+000	2.72786E-004	1.68088E-001	9.71226E-001	3.57830E+000	9	...........
	54	0.733333	9.72700E-001	2.81219E-004	0.00000E+000	2.73542E-004	1.68088E-001	9.73058E-001	3.57830E+000	9	...........
	55	0.746667	9.74439E-001	2.81793E-004	0.00000E+000	2.74590E-004	1.68088E-001	9.74813E-001	3.57830E+000	9	...........
	56	0.76	9.76173E-001	2.81179E-004	0.00000E+000	2.74480E-004	1.68088E-001	9.76519E-001	3.57830E+000	9	...........
	57	0.773333	9.77835E-001	2.80937E-004	0.00000E+000	2.74710E-004	1.68088E-001	9.78204E-001	3.57830E+000	9	...........
	58	0.786667	9.79522E-001	2.81358E-004	0.00000E+000	2.75596E-004	1.68088E-001	9.79873E-001	3.57830E+000	9	...........
	59	0.8	9.81153E-001	2.80422E-004	0.00000E+000	2.75137E-004	1.68088E-001	9.81501E-001	3.57830E+000	9	...........
	60	0.813333	9.82745E-001	2.80834E-004	0.00000E+000	2.75988E-004	1.68088E-001	9.83079E-001	3.57830E+000	9	...........
	61	0.826667	9.84276E-001	2.81449E-004	0.00000E+000	2.77024E-004	1.68088E-001	9.84642E-001	3.57830E+000	9	...........
	62	0.84	9.85790E-001	2.81296E-004	0.00000E+000	2.77299E-004	1.68088E-001	9.86156E-001	3.57855E+000	9	...........
	63	0.853333	9.87305E-001	2.80981E-004	0.00000E+000	2.77414E-004	1.68088E-001	9.87660E-001	3.57880E+000	9	...........
	64	0.866667	9.88817E-001	2.80139E-004	0.00000E+000	2.77006E-004	1.68088E-001	9.89161E-001	3.57880E+000	9	...........
	65	0.88	9.90292E-001	2.82537E-004	0.00000E+000	2.79794E-004	1.68088E-001	9.90626E-001	3.57880E+000	9	...........
	66	0.893333	9.91743E-001	2.80215E-004	0.00000E+000	2.77901E-004	1.68088E-001	9.92080E-001	3.57880E+000	9	...........
	67	0.906667	9.93138E-001	2.82009E-004	0.00000E+000	2.80074E-004	1.68088E-001	9.93519E-001	3.57880E+000	9	...........
	68	0.92	9.94550E-001	2.80697E-004	0.00000E+000	2.79167E-004	1.68088E-001	9.94934E-001	3.57880E+000	9	...........
	69	0.933333	9.95951E-001	2.80368E-004	0.00000E+000	2.79233E-004	1.68088E-001	9.96322E-001	3.57880E+000	9	...........
	70	0.946667	9.97333E-001	2.80836E-004	0.00000E+000	2.80086E-004	1.68088E-001	9.97716E-001	3.57880E+000	9	...........
	71	0.96	9.98672E-001	2.81146E-004	0.00000E+000	2.80773E-004	1.68088E-001	9.99055E-001	3.57880E+000	9	...........
	72	0.96833	9.99710E-001	2.80684E-004	0.00000E+000	2.80602E-004	1.68088E-001	1.00010E+000	3.57880E+000	9	...........
STARTTIMEOFFSET	QUANT	1302.123	Start Time Offset (s)
