EXPLAIN
TAG	PWR800_DISCHARGE
TITLE	LABEL	PWR Cyclic Charge Discharge (Cell) - Discharge Step	Test &Identifier
DATE	LABEL	7-7-2017	Date
TIME	LABEL	16:08:55	Time
NOTES	NOTES	3	&Notes...
	supercap test cell
	2.8mg
	6M KOH
PSTAT	PSTAT	IFC5000-01520	Potentiostat
CAPACITY	QUANT	1.00000E-003	Capacity (A-hr)
CELLTYPE	SELECTOR	1	&Cell Type
WORKINGCONNECTION	SELECTOR	0	&Working Lead
MAXDISCHARGETIME	VARIABLEANDUNITS	1.00000E+002	s	1.00000E+002	second(s)	Max &Discharge Time
DISCHARGEMODE	MULTIPARAM	0	2.80000E-004	&Discharge Mode	Constant Current	Amp(s)
SAMPLETIME	QUANT	1.00000E-002	Sa&mple Period (s)
DISCHARGESTOPAT1	MULTIPARAM	3	0.00000E+000	Discharge Stop At &1	Voltage < Limit	V
DISCHARGESTOPAT2	MULTIPARAM	0	0.00000E+000	Discharge Stop At &2	None	N/A
AESBHCSELECTOR	TOGGLE	F	Save Both Half Cells
IRCOMP	TOGGLE	F	IR &Measure
EOC	QUANT	0	Open Circuit (V)
SEQUENCER	TOGGLE	TRUE	Run as Sequence
PSTATMODEL	IQUANT	53	Pstat Model
PSTATSECTION	LABEL	IFC5000-01520	Pstat Section
PSTATSERIALNO	LABEL	01520	Pstat Serial Number
CTRLMODE	IQUANT	0	Control Mode
ELECTROMETER	IQUANT	1	RE=0 or CS=1
IESTAB	IQUANT	0	I/E Stability
CASPEED	IQUANT	4	Control Amp Speed
CONVENTION	IQUANT	1	Current Convention
ICHRANGE	IQUANT	2	Ich Range
ICHRANGEMODE	TOGGLE	T	Ich Auto Range
ICHOFFSETENABLE	TOGGLE	F	Ich Offset Enable
ICHOFFSET	QUANT	0	Ich Offset (V)
ICHFILTER	IQUANT	1	Ich Filter
VCHRANGE	IQUANT	2	Vch Range
VCHRANGEMODE	TOGGLE	T	Vch Auto Range
VCHOFFSETENABLE	TOGGLE	F	Vch Offset Enable
VCHOFFSET	QUANT	0	Vch Offset (V)
VCHFILTER	IQUANT	1	Vch Filter
IERANGELOWERLIMIT	IQUANT	9	I/E Range Lower Limit
IERANGEMODE	TOGGLE	F	I/E AutoRange
IERANGE	IQUANT	9	I/E Range
ACHSELECT	IQUANT	1	Ach Select
ACHRANGE	IQUANT	2	Ach Range
ACHOFFSETENABLE	TOGGLE	F	Ach Offset Enable
ACHOFFSET	QUANT	0	Ach Offset (V)
ACHFILTER	IQUANT	1	Ach Filter
CABLEID	IQUANT	14	Cable ID
DCCALDATE	LABEL	5-7-2017	DC Calibration Date
ACCALDATE	LABEL	12/3/2015	AC Calibration Date
FRAMEWORKVERSION	QUANT	7.01	Framework Version
INSTRUMENTVERSION	LABEL	4.00	Instrument Version
CURVE	TABLE	62
	Pt	T	Vf	Im	Vu	Pwr	Sig	Ach	Temp	IERange	Over
	#	s	V	A	V	W	V	V	deg C	#	bits
	0	0.013333	5.30994E-001	-2.78892E-004	0.00000E+000	-1.48090E-004	-1.68088E-001	5.31211E-001	3.57860E+000	9	...........
	1	0.026667	4.97685E-001	-2.78499E-004	0.00000E+000	-1.38605E-004	-1.68088E-001	4.97913E-001	3.57860E+000	9	...........
	2	0.04	4.67493E-001	-2.78895E-004	0.00000E+000	-1.30381E-004	-1.68088E-001	4.67605E-001	3.57860E+000	9	...........
	3	0.053333	4.39126E-001	-2.78221E-004	0.00000E+000	-1.22174E-004	-1.68088E-001	4.39235E-001	3.57860E+000	9	...........
	4	0.066667	4.12652E-001	-2.79022E-004	0.00000E+000	-1.15139E-004	-1.68088E-001	4.12749E-001	3.57860E+000	9	...........
	5	0.08	3.87939E-001	-2.79368E-004	0.00000E+000	-1.08378E-004	-1.68088E-001	3.88035E-001	3.57860E+000	9	...........
	6	0.093333	3.64838E-001	-2.78323E-004	0.00000E+000	-1.01543E-004	-1.68088E-001	3.64926E-001	3.57860E+000	9	...........
	7	0.106667	3.43296E-001	-2.79035E-004	0.00000E+000	-9.57918E-005	-1.68088E-001	3.43379E-001	3.57860E+000	9	...........
	8	0.12	3.23256E-001	-2.77700E-004	0.00000E+000	-8.97680E-005	-1.68088E-001	3.23337E-001	3.57860E+000	9	...........
	9	0.133333	3.04615E-001	-2.77942E-004	0.00000E+000	-8.46656E-005	-1.68088E-001	3.04690E-001	3.57860E+000	9	...........
	10	0.146667	2.87293E-001	-2.78649E-004	0.00000E+000	-8.00538E-005	-1.68088E-001	2.87363E-001	3.57860E+000	9	...........
	11	0.16	2.71197E-001	-2.79723E-004	0.00000E+000	-7.58602E-005	-1.68088E-001	2.71263E-001	3.57860E+000	9	...........
	12	0.173333	2.56230E-001	-2.78432E-004	0.00000E+000	-7.13428E-005	-1.68088E-001	2.56298E-001	3.57798E+000	9	...........
	13	0.186667	2.42317E-001	-2.78678E-004	0.00000E+000	-6.75285E-005	-1.68088E-001	2.42378E-001	3.57760E+000	9	...........
	14	0.2	2.29384E-001	-2.79487E-004	0.00000E+000	-6.41098E-005	-1.68088E-001	2.29443E-001	3.57760E+000	9	...........
	15	0.213333	2.17390E-001	-2.79684E-004	0.00000E+000	-6.08006E-005	-1.68088E-001	2.17442E-001	3.57760E+000	9	...........
	16	0.226667	2.06221E-001	-2.80652E-004	0.00000E+000	-5.78764E-005	-1.68088E-001	2.06269E-001	3.57760E+000	9	...........
	17	0.24	1.95798E-001	-2.78641E-004	0.00000E+000	-5.45573E-005	-1.68088E-001	1.95840E-001	3.57760E+000	9	...........
	18	0.253333	1.86074E-001	-2.79911E-004	0.00000E+000	-5.20842E-005	-1.68088E-001	1.86114E-001	3.57760E+000	9	...........
	19	0.266667	1.76963E-001	-2.78855E-004	0.00000E+000	-4.93471E-005	-1.68088E-001	1.76998E-001	3.57760E+000	9	...........
	20	0.28	1.68388E-001	-2.78953E-004	0.00000E+000	-4.69725E-005	-1.68088E-001	1.68420E-001	3.57760E+000	9	...........
	21	0.293333	1.60345E-001	-2.78238E-004	0.00000E+000	-4.46140E-005	-1.68088E-001	1.60379E-001	3.57760E+000	9	...........
	22	0.306667	1.52783E-001	-2.78971E-004	0.00000E+000	-4.26221E-005	-1.68088E-001	1.52810E-001	3.57760E+000	9	...........
	23	0.32	1.45664E-001	-2.78597E-004	0.00000E+000	-4.05817E-005	-1.68088E-001	1.45693E-001	3.57760E+000	9	...........
	24	0.333333	1.38912E-001	-2.79659E-004	0.00000E+000	-3.88480E-005	-1.68088E-001	1.38941E-001	3.57760E+000	9	...........
	25	0.346667	1.32487E-001	-2.78352E-004	0.00000E+000	-3.68779E-005	-1.68088E-001	1.32515E-001	3.57760E+000	9	...........
	26	0.36	1.26379E-001	-2.79580E-004	0.00000E+000	-3.53330E-005	-1.68088E-001	1.26404E-001	3.57760E+000	9	...........
	27	0.373333	1.20583E-001	-2.78433E-004	0.00000E+000	-3.35744E-005	-1.68088E-001	1.20609E-001	3.57760E+000	9	...........
	28	0.386667	1.15040E-001	-2.79283E-004	0.00000E+000	-3.21287E-005	-1.68088E-001	1.15061E-001	3.57760E+000	9	...........
	29	0.4	1.09755E-001	-2.78460E-004	0.00000E+000	-3.05624E-005	-1.68088E-001	1.09781E-001	3.57760E+000	9	...........
	30	0.413333	1.04686E-001	-2.79076E-004	0.00000E+000	-2.92154E-005	-1.68088E-001	1.04718E-001	3.57760E+000	9	...........
	31	0.426667	9.98407E-002	-2.79356E-004	0.00000E+000	-2.78911E-005	-1.68088E-001	9.98668E-002	3.57760E+000	9	...........
	32	0.44	9.51224E-002	-2.78585E-004	0.00000E+000	-2.64997E-005	-1.68088E-001	9.51523E-002	3.57760E+000	9	...........
	33	0.453333	9.05809E-002	-2.79341E-004	0.00000E+000	-2.53029E-005	-1.68088E-001	9.06069E-002	3.57760E+000	9	...........
	34	0.466667	8.62159E-002	-2.78542E-004	0.00000E+000	-2.40147E-005	-1.68088E-001	8.62375E-002	3.57760E+000	9	...........
	35	0.48	8.20689E-002	-2.78667E-004	0.00000E+000	-2.28699E-005	-1.68088E-001	8.20879E-002	3.57760E+000	9	...........
	36	0.493333	7.80220E-002	-2.79233E-004	0.00000E+000	-2.17864E-005	-1.68088E-001	7.80364E-002	3.57760E+000	9	...........
	37	0.506667	7.40273E-002	-2.80334E-004	0.00000E+000	-2.07523E-005	-1.68088E-001	7.40420E-002	3.57760E+000	9	...........
	38	0.52	7.02000E-002	-2.79298E-004	0.00000E+000	-1.96067E-005	-1.68088E-001	7.02209E-002	3.57760E+000	9	...........
	39	0.533333	6.64783E-002	-2.78641E-004	0.00000E+000	-1.85235E-005	-1.68088E-001	6.64935E-002	3.57760E+000	9	...........
	40	0.546667	6.28425E-002	-2.78328E-004	0.00000E+000	-1.74908E-005	-1.68088E-001	6.28544E-002	3.57760E+000	9	...........
	41	0.56	5.92299E-002	-2.80179E-004	0.00000E+000	-1.65950E-005	-1.68088E-001	5.92418E-002	3.57760E+000	9	...........
	42	0.573333	5.57364E-002	-2.77662E-004	0.00000E+000	-1.54759E-005	-1.68088E-001	5.57482E-002	3.57760E+000	9	...........
	43	0.586667	5.23690E-002	-2.77255E-004	0.00000E+000	-1.45196E-005	-1.68088E-001	5.23722E-002	3.57760E+000	9	...........
	44	0.6	4.90540E-002	-2.79323E-004	0.00000E+000	-1.37019E-005	-1.68088E-001	4.90589E-002	3.57760E+000	9	...........
	45	0.613333	4.58013E-002	-2.79720E-004	0.00000E+000	-1.28115E-005	-1.68088E-001	4.58142E-002	3.57760E+000	9	...........
	46	0.626667	4.26382E-002	-2.78954E-004	0.00000E+000	-1.18941E-005	-1.68088E-001	4.26519E-002	3.57760E+000	9	...........
	47	0.64	3.95498E-002	-2.78959E-004	0.00000E+000	-1.10328E-005	-1.68088E-001	3.95580E-002	3.57760E+000	9	...........
	48	0.653333	3.64604E-002	-2.79079E-004	0.00000E+000	-1.01753E-005	-1.68088E-001	3.64691E-002	3.57760E+000	9	...........
	49	0.666667	3.34454E-002	-2.78425E-004	0.00000E+000	-9.31202E-006	-1.68088E-001	3.34518E-002	3.57760E+000	9	...........
	50	0.68	3.04968E-002	-2.78918E-004	0.00000E+000	-8.50610E-006	-1.68088E-001	3.05018E-002	3.57760E+000	9	...........
	51	0.693333	2.76360E-002	-2.78291E-004	0.00000E+000	-7.69087E-006	-1.68088E-001	2.76368E-002	3.57760E+000	9	...........
	52	0.706667	2.47694E-002	-2.78841E-004	0.00000E+000	-6.90670E-006	-1.68088E-001	2.47658E-002	3.57760E+000	9	...........
	53	0.72	2.19861E-002	-2.78197E-004	0.00000E+000	-6.11647E-006	-1.68088E-001	2.19849E-002	3.57760E+000	9	...........
	54	0.733333	1.92377E-002	-2.78846E-004	0.00000E+000	-5.36435E-006	-1.68088E-001	1.92340E-002	3.57760E+000	9	...........
	55	0.746667	1.64915E-002	-2.78845E-004	0.00000E+000	-4.59857E-006	-1.68088E-001	1.64890E-002	3.57760E+000	9	...........
	56	0.76	1.37830E-002	-2.78737E-004	0.00000E+000	-3.84184E-006	-1.68088E-001	1.37773E-002	3.57760E+000	9	...........
	57	0.773333	1.11541E-002	-2.79151E-004	0.00000E+000	-3.11368E-006	-1.68088E-001	1.11455E-002	3.57760E+000	9	...........
	58	0.786667	8.54635E-003	-2.77872E-004	0.00000E+000	-2.37479E-006	-1.68088E-001	8.53591E-003	3.57760E+000	9	...........
	59	0.8	5.93632E-003	-2.79626E-004	0.00000E+000	-1.65995E-006	-1.68088E-001	5.92106E-003	3.57760E+000	9	...........
	60	0.813333	3.40046E-003	-2.78991E-004	0.00000E+000	-9.48697E-007	-1.68088E-001	3.38379E-003	3.57760E+000	9	...........
	61	0.826667	8.90284E-004	-2.79694E-004	0.00000E+000	-2.49007E-007	-1.68088E-001	8.76079E-004	3.57760E+000	9	...........
STARTTIMEOFFSET	QUANT	1480.625	Start Time Offset (s)
