EXPLAIN
TAG	PWR800_DISCHARGE
TITLE	LABEL	PWR Cyclic Charge Discharge (Cell) - Discharge Step	Test &Identifier
DATE	LABEL	7-7-2017	Date
TIME	LABEL	16:18:38	Time
NOTES	NOTES	3	&Notes...
	supercap test cell
	2.8mg
	6M KOH
PSTAT	PSTAT	IFC5000-01520	Potentiostat
CAPACITY	QUANT	1.00000E-003	Capacity (A-hr)
CELLTYPE	SELECTOR	1	&Cell Type
WORKINGCONNECTION	SELECTOR	0	&Working Lead
MAXDISCHARGETIME	VARIABLEANDUNITS	1.00000E+002	s	1.00000E+002	second(s)	Max &Discharge Time
DISCHARGEMODE	MULTIPARAM	0	2.80000E-004	&Discharge Mode	Constant Current	Amp(s)
SAMPLETIME	QUANT	1.00000E-002	Sa&mple Period (s)
DISCHARGESTOPAT1	MULTIPARAM	3	0.00000E+000	Discharge Stop At &1	Voltage < Limit	V
DISCHARGESTOPAT2	MULTIPARAM	0	0.00000E+000	Discharge Stop At &2	None	N/A
AESBHCSELECTOR	TOGGLE	F	Save Both Half Cells
IRCOMP	TOGGLE	F	IR &Measure
EOC	QUANT	0	Open Circuit (V)
SEQUENCER	TOGGLE	TRUE	Run as Sequence
PSTATMODEL	IQUANT	53	Pstat Model
PSTATSECTION	LABEL	IFC5000-01520	Pstat Section
PSTATSERIALNO	LABEL	01520	Pstat Serial Number
CTRLMODE	IQUANT	0	Control Mode
ELECTROMETER	IQUANT	1	RE=0 or CS=1
IESTAB	IQUANT	0	I/E Stability
CASPEED	IQUANT	4	Control Amp Speed
CONVENTION	IQUANT	1	Current Convention
ICHRANGE	IQUANT	2	Ich Range
ICHRANGEMODE	TOGGLE	T	Ich Auto Range
ICHOFFSETENABLE	TOGGLE	F	Ich Offset Enable
ICHOFFSET	QUANT	0	Ich Offset (V)
ICHFILTER	IQUANT	1	Ich Filter
VCHRANGE	IQUANT	2	Vch Range
VCHRANGEMODE	TOGGLE	T	Vch Auto Range
VCHOFFSETENABLE	TOGGLE	F	Vch Offset Enable
VCHOFFSET	QUANT	0	Vch Offset (V)
VCHFILTER	IQUANT	1	Vch Filter
IERANGELOWERLIMIT	IQUANT	9	I/E Range Lower Limit
IERANGEMODE	TOGGLE	F	I/E AutoRange
IERANGE	IQUANT	9	I/E Range
ACHSELECT	IQUANT	1	Ach Select
ACHRANGE	IQUANT	2	Ach Range
ACHOFFSETENABLE	TOGGLE	F	Ach Offset Enable
ACHOFFSET	QUANT	0	Ach Offset (V)
ACHFILTER	IQUANT	1	Ach Filter
CABLEID	IQUANT	14	Cable ID
DCCALDATE	LABEL	5-7-2017	DC Calibration Date
ACCALDATE	LABEL	12/3/2015	AC Calibration Date
FRAMEWORKVERSION	QUANT	7.01	Framework Version
INSTRUMENTVERSION	LABEL	4.00	Instrument Version
CURVE	TABLE	54
	Pt	T	Vf	Im	Vu	Pwr	Sig	Ach	Temp	IERange	Over
	#	s	V	A	V	W	V	V	deg C	#	bits
	0	0.013333	5.14869E-001	-2.78558E-004	0.00000E+000	-1.43421E-004	-1.68088E-001	5.15104E-001	3.57740E+000	9	...........
	1	0.026667	4.81249E-001	-2.78607E-004	0.00000E+000	-1.34079E-004	-1.68088E-001	4.81415E-001	3.57740E+000	9	...........
	2	0.04	4.50364E-001	-2.78805E-004	0.00000E+000	-1.25564E-004	-1.68088E-001	4.50467E-001	3.57740E+000	9	...........
	3	0.053333	4.21530E-001	-2.78588E-004	0.00000E+000	-1.17433E-004	-1.68088E-001	4.21626E-001	3.57740E+000	9	...........
	4	0.066667	3.94613E-001	-2.78335E-004	0.00000E+000	-1.09835E-004	-1.68088E-001	3.94694E-001	3.57740E+000	9	...........
	5	0.08	3.69472E-001	-2.78547E-004	0.00000E+000	-1.02915E-004	-1.68088E-001	3.69557E-001	3.57740E+000	9	...........
	6	0.093333	3.46006E-001	-2.77705E-004	0.00000E+000	-9.60876E-005	-1.68088E-001	3.46082E-001	3.57740E+000	9	...........
	7	0.106667	3.24079E-001	-2.78632E-004	0.00000E+000	-9.02988E-005	-1.68088E-001	3.24151E-001	3.57740E+000	9	...........
	8	0.12	3.03684E-001	-2.78917E-004	0.00000E+000	-8.47024E-005	-1.68088E-001	3.03754E-001	3.57740E+000	9	...........
	9	0.133333	2.84729E-001	-2.77933E-004	0.00000E+000	-7.91357E-005	-1.68088E-001	2.84799E-001	3.57740E+000	9	...........
	10	0.146667	2.67131E-001	-2.79326E-004	0.00000E+000	-7.46168E-005	-1.68088E-001	2.67193E-001	3.57740E+000	9	...........
	11	0.16	2.50794E-001	-2.78656E-004	0.00000E+000	-6.98852E-005	-1.68088E-001	2.50849E-001	3.57740E+000	9	...........
	12	0.173333	2.35613E-001	-2.78279E-004	0.00000E+000	-6.55662E-005	-1.68088E-001	2.35662E-001	3.57740E+000	9	...........
	13	0.186667	2.21538E-001	-2.77480E-004	0.00000E+000	-6.14724E-005	-1.68088E-001	2.21586E-001	3.57740E+000	9	...........
	14	0.2	2.08494E-001	-2.79523E-004	0.00000E+000	-5.82788E-005	-1.68088E-001	2.08537E-001	3.57740E+000	9	...........
	15	0.213333	1.96327E-001	-2.77925E-004	0.00000E+000	-5.45640E-005	-1.68088E-001	1.96371E-001	3.57740E+000	9	...........
	16	0.226667	1.85038E-001	-2.78262E-004	0.00000E+000	-5.14890E-005	-1.68088E-001	1.85079E-001	3.57740E+000	9	...........
	17	0.24	1.74498E-001	-2.79044E-004	0.00000E+000	-4.86925E-005	-1.68088E-001	1.74537E-001	3.57740E+000	9	...........
	18	0.253333	1.64704E-001	-2.77666E-004	0.00000E+000	-4.57327E-005	-1.68088E-001	1.64739E-001	3.57740E+000	9	...........
	19	0.266667	1.55572E-001	-2.78353E-004	0.00000E+000	-4.33040E-005	-1.68088E-001	1.55604E-001	3.57740E+000	9	...........
	20	0.28	1.47001E-001	-2.80069E-004	0.00000E+000	-4.11704E-005	-1.68088E-001	1.47025E-001	3.57740E+000	9	...........
	21	0.293333	1.38987E-001	-2.78620E-004	0.00000E+000	-3.87244E-005	-1.68088E-001	1.39020E-001	3.57740E+000	9	...........
	22	0.306667	1.31433E-001	-2.79278E-004	0.00000E+000	-3.67064E-005	-1.68088E-001	1.31462E-001	3.57740E+000	9	...........
	23	0.32	1.24273E-001	-2.79575E-004	0.00000E+000	-3.47436E-005	-1.68088E-001	1.24298E-001	3.57740E+000	9	...........
	24	0.333333	1.17499E-001	-2.78731E-004	0.00000E+000	-3.27507E-005	-1.68088E-001	1.17528E-001	3.57740E+000	9	...........
	25	0.346667	1.11111E-001	-2.77790E-004	0.00000E+000	-3.08655E-005	-1.68088E-001	1.11132E-001	3.57740E+000	9	...........
	26	0.36	1.04996E-001	-2.79777E-004	0.00000E+000	-2.93756E-005	-1.68088E-001	1.05016E-001	3.57740E+000	9	...........
	27	0.373333	9.92278E-002	-2.77905E-004	0.00000E+000	-2.75759E-005	-1.68088E-001	9.92497E-002	3.57740E+000	9	...........
	28	0.386667	9.37066E-002	-2.78643E-004	0.00000E+000	-2.61107E-005	-1.68088E-001	9.37293E-002	3.57740E+000	9	...........
	29	0.4	8.84269E-002	-2.80030E-004	0.00000E+000	-2.47622E-005	-1.68088E-001	8.84412E-002	3.57740E+000	9	...........
	30	0.413333	8.33660E-002	-2.78309E-004	0.00000E+000	-2.32015E-005	-1.68088E-001	8.33799E-002	3.57740E+000	9	...........
	31	0.426667	7.85199E-002	-2.78463E-004	0.00000E+000	-2.18649E-005	-1.68088E-001	7.85303E-002	3.57740E+000	9	...........
	32	0.44	7.38267E-002	-2.77329E-004	0.00000E+000	-2.04743E-005	-1.68088E-001	7.38419E-002	3.57740E+000	9	...........
	33	0.453333	6.93313E-002	-2.78638E-004	0.00000E+000	-1.93184E-005	-1.68088E-001	6.93448E-002	3.57740E+000	9	...........
	34	0.466667	6.49906E-002	-2.78165E-004	0.00000E+000	-1.80781E-005	-1.68088E-001	6.49932E-002	3.57740E+000	9	...........
	35	0.48	6.07963E-002	-2.79768E-004	0.00000E+000	-1.70088E-005	-1.68088E-001	6.08093E-002	3.57740E+000	9	...........
	36	0.493333	5.67144E-002	-2.78002E-004	0.00000E+000	-1.57667E-005	-1.68088E-001	5.67234E-002	3.57740E+000	9	...........
	37	0.506667	5.27809E-002	-2.78457E-004	0.00000E+000	-1.46972E-005	-1.68088E-001	5.27928E-002	3.57740E+000	9	...........
	38	0.52	4.89268E-002	-2.78896E-004	0.00000E+000	-1.36455E-005	-1.68088E-001	4.89262E-002	3.57740E+000	9	...........
	39	0.533333	4.51886E-002	-2.79383E-004	0.00000E+000	-1.26249E-005	-1.68088E-001	4.51951E-002	3.57740E+000	9	...........
	40	0.546667	4.15461E-002	-2.79169E-004	0.00000E+000	-1.15984E-005	-1.68088E-001	4.15526E-002	3.57740E+000	9	...........
	41	0.56	3.80268E-002	-2.78887E-004	0.00000E+000	-1.06052E-005	-1.68088E-001	3.80323E-002	3.57740E+000	9	...........
	42	0.573333	3.45785E-002	-2.79249E-004	0.00000E+000	-9.65601E-006	-1.68088E-001	3.45785E-002	3.57740E+000	9	...........
	43	0.586667	3.12353E-002	-2.78409E-004	0.00000E+000	-8.69619E-006	-1.68088E-001	3.12373E-002	3.57740E+000	9	...........
	44	0.6	2.79857E-002	-2.77925E-004	0.00000E+000	-7.77793E-006	-1.68088E-001	2.79832E-002	3.57740E+000	9	...........
	45	0.613333	2.47456E-002	-2.77655E-004	0.00000E+000	-6.87075E-006	-1.68088E-001	2.47416E-002	3.57740E+000	9	...........
	46	0.626667	2.15905E-002	-2.78206E-004	0.00000E+000	-6.00662E-006	-1.68088E-001	2.15846E-002	3.57740E+000	9	...........
	47	0.64	1.84943E-002	-2.78581E-004	0.00000E+000	-5.15217E-006	-1.68088E-001	1.84878E-002	3.57740E+000	9	...........
	48	0.653333	1.54624E-002	-2.79464E-004	0.00000E+000	-4.32118E-006	-1.68088E-001	1.54531E-002	3.57740E+000	9	...........
	49	0.666667	1.25107E-002	-2.78457E-004	0.00000E+000	-3.48368E-006	-1.68088E-001	1.24991E-002	3.57740E+000	9	...........
	50	0.68	9.54745E-003	-2.78626E-004	0.00000E+000	-2.66017E-006	-1.68088E-001	9.53939E-003	3.57740E+000	9	...........
	51	0.693333	6.69432E-003	-2.79029E-004	0.00000E+000	-1.86791E-006	-1.68088E-001	6.68087E-003	3.57740E+000	9	...........
	52	0.706667	3.90046E-003	-2.79297E-004	0.00000E+000	-1.08939E-006	-1.68088E-001	3.88580E-003	3.57740E+000	9	...........
	53	0.72	1.13696E-003	-2.78418E-004	0.00000E+000	-3.16549E-007	-1.68088E-001	1.11801E-003	3.57740E+000	9	...........
STARTTIMEOFFSET	QUANT	1869.171	Start Time Offset (s)
