EXPLAIN
TAG	PWR800_DISCHARGE
TITLE	LABEL	PWR Cyclic Charge Discharge (Cell) - Discharge Step	Test &Identifier
DATE	LABEL	7-7-2017	Date
TIME	LABEL	15:50:34	Time
NOTES	NOTES	3	&Notes...
	supercap test cell
	2.8mg
	6M KOH
PSTAT	PSTAT	IFC5000-01520	Potentiostat
CAPACITY	QUANT	1.00000E-003	Capacity (A-hr)
CELLTYPE	SELECTOR	1	&Cell Type
WORKINGCONNECTION	SELECTOR	0	&Working Lead
MAXDISCHARGETIME	VARIABLEANDUNITS	1.00000E+002	s	1.00000E+002	second(s)	Max &Discharge Time
DISCHARGEMODE	MULTIPARAM	0	2.80000E-004	&Discharge Mode	Constant Current	Amp(s)
SAMPLETIME	QUANT	1.00000E-002	Sa&mple Period (s)
DISCHARGESTOPAT1	MULTIPARAM	3	0.00000E+000	Discharge Stop At &1	Voltage < Limit	V
DISCHARGESTOPAT2	MULTIPARAM	0	0.00000E+000	Discharge Stop At &2	None	N/A
AESBHCSELECTOR	TOGGLE	F	Save Both Half Cells
IRCOMP	TOGGLE	F	IR &Measure
EOC	QUANT	0	Open Circuit (V)
SEQUENCER	TOGGLE	TRUE	Run as Sequence
PSTATMODEL	IQUANT	53	Pstat Model
PSTATSECTION	LABEL	IFC5000-01520	Pstat Section
PSTATSERIALNO	LABEL	01520	Pstat Serial Number
CTRLMODE	IQUANT	0	Control Mode
ELECTROMETER	IQUANT	1	RE=0 or CS=1
IESTAB	IQUANT	0	I/E Stability
CASPEED	IQUANT	4	Control Amp Speed
CONVENTION	IQUANT	1	Current Convention
ICHRANGE	IQUANT	2	Ich Range
ICHRANGEMODE	TOGGLE	T	Ich Auto Range
ICHOFFSETENABLE	TOGGLE	F	Ich Offset Enable
ICHOFFSET	QUANT	0	Ich Offset (V)
ICHFILTER	IQUANT	1	Ich Filter
VCHRANGE	IQUANT	2	Vch Range
VCHRANGEMODE	TOGGLE	T	Vch Auto Range
VCHOFFSETENABLE	TOGGLE	F	Vch Offset Enable
VCHOFFSET	QUANT	0	Vch Offset (V)
VCHFILTER	IQUANT	1	Vch Filter
IERANGELOWERLIMIT	IQUANT	9	I/E Range Lower Limit
IERANGEMODE	TOGGLE	F	I/E AutoRange
IERANGE	IQUANT	9	I/E Range
ACHSELECT	IQUANT	1	Ach Select
ACHRANGE	IQUANT	2	Ach Range
ACHOFFSETENABLE	TOGGLE	F	Ach Offset Enable
ACHOFFSET	QUANT	0	Ach Offset (V)
ACHFILTER	IQUANT	1	Ach Filter
CABLEID	IQUANT	14	Cable ID
DCCALDATE	LABEL	5-7-2017	DC Calibration Date
ACCALDATE	LABEL	12/3/2015	AC Calibration Date
FRAMEWORKVERSION	QUANT	7.01	Framework Version
INSTRUMENTVERSION	LABEL	4.00	Instrument Version
CURVE	TABLE	89
	Pt	T	Vf	Im	Vu	Pwr	Sig	Ach	Temp	IERange	Over
	#	s	V	A	V	W	V	V	deg C	#	bits
	0	0.013333	5.46280E-001	-2.78496E-004	0.00000E+000	-1.52137E-004	-1.68088E-001	5.46522E-001	3.57780E+000	9	...........
	1	0.026667	5.15533E-001	-2.78315E-004	0.00000E+000	-1.43481E-004	-1.68088E-001	5.15766E-001	3.57780E+000	9	...........
	2	0.04	4.87716E-001	-2.78891E-004	0.00000E+000	-1.36019E-004	-1.68088E-001	4.87912E-001	3.57780E+000	9	...........
	3	0.053333	4.62319E-001	-2.79332E-004	0.00000E+000	-1.29141E-004	-1.68088E-001	4.62430E-001	3.57780E+000	9	...........
	4	0.066667	4.38599E-001	-2.79422E-004	0.00000E+000	-1.22554E-004	-1.68088E-001	4.38704E-001	3.57780E+000	9	...........
	5	0.08	4.16615E-001	-2.78583E-004	0.00000E+000	-1.16062E-004	-1.68088E-001	4.16715E-001	3.57780E+000	9	...........
	6	0.093333	3.96195E-001	-2.78812E-004	0.00000E+000	-1.10464E-004	-1.68088E-001	3.96287E-001	3.57780E+000	9	...........
	7	0.106667	3.77219E-001	-2.78831E-004	0.00000E+000	-1.05180E-004	-1.68088E-001	3.77305E-001	3.57780E+000	9	...........
	8	0.12	3.59615E-001	-2.78833E-004	0.00000E+000	-1.00273E-004	-1.68088E-001	3.59700E-001	3.57780E+000	9	...........
	9	0.133333	3.43274E-001	-2.78715E-004	0.00000E+000	-9.56755E-005	-1.68088E-001	3.43357E-001	3.57780E+000	9	...........
	10	0.146667	3.28063E-001	-2.79218E-004	0.00000E+000	-9.16010E-005	-1.68088E-001	3.28143E-001	3.57780E+000	9	...........
	11	0.16	3.13961E-001	-2.79606E-004	0.00000E+000	-8.77854E-005	-1.68088E-001	3.14038E-001	3.57780E+000	9	...........
	12	0.173333	3.00825E-001	-2.78468E-004	0.00000E+000	-8.37699E-005	-1.68088E-001	3.00903E-001	3.57780E+000	9	...........
	13	0.186667	2.88576E-001	-2.79286E-004	0.00000E+000	-8.05953E-005	-1.68088E-001	2.88651E-001	3.57780E+000	9	...........
	14	0.2	2.77152E-001	-2.78589E-004	0.00000E+000	-7.72117E-005	-1.68088E-001	2.77227E-001	3.57780E+000	9	...........
	15	0.213333	2.66492E-001	-2.79053E-004	0.00000E+000	-7.43653E-005	-1.68088E-001	2.66559E-001	3.57780E+000	9	...........
	16	0.226667	2.56532E-001	-2.79375E-004	0.00000E+000	-7.16685E-005	-1.68088E-001	2.56597E-001	3.57780E+000	9	...........
	17	0.24	2.47222E-001	-2.78862E-004	0.00000E+000	-6.89409E-005	-1.68088E-001	2.47279E-001	3.57780E+000	9	...........
	18	0.253333	2.38470E-001	-2.79808E-004	0.00000E+000	-6.67260E-005	-1.68088E-001	2.38529E-001	3.57780E+000	9	...........
	19	0.266667	2.30272E-001	-2.77951E-004	0.00000E+000	-6.40044E-005	-1.68088E-001	2.30327E-001	3.57780E+000	9	...........
	20	0.28	2.22488E-001	-2.78778E-004	0.00000E+000	-6.20249E-005	-1.68088E-001	2.22544E-001	3.57780E+000	9	...........
	21	0.293333	2.15174E-001	-2.78849E-004	0.00000E+000	-6.00010E-005	-1.68088E-001	2.15225E-001	3.57780E+000	9	...........
	22	0.306667	2.08249E-001	-2.79061E-004	0.00000E+000	-5.81143E-005	-1.68088E-001	2.08297E-001	3.57780E+000	9	...........
	23	0.32	2.01614E-001	-2.78220E-004	0.00000E+000	-5.60928E-005	-1.68088E-001	2.01666E-001	3.57780E+000	9	...........
	24	0.333333	1.95315E-001	-2.79224E-004	0.00000E+000	-5.45367E-005	-1.68088E-001	1.95361E-001	3.57780E+000	9	...........
	25	0.346667	1.89331E-001	-2.79736E-004	0.00000E+000	-5.29627E-005	-1.68088E-001	1.89374E-001	3.57780E+000	9	...........
	26	0.36	1.83659E-001	-2.78221E-004	0.00000E+000	-5.10978E-005	-1.68088E-001	1.83706E-001	3.57780E+000	9	...........
	27	0.373333	1.78137E-001	-2.78527E-004	0.00000E+000	-4.96161E-005	-1.68088E-001	1.78185E-001	3.57780E+000	9	...........
	28	0.386667	1.72861E-001	-2.78612E-004	0.00000E+000	-4.81613E-005	-1.68088E-001	1.72902E-001	3.57780E+000	9	...........
	29	0.4	1.67857E-001	-2.78252E-004	0.00000E+000	-4.67064E-005	-1.68088E-001	1.67896E-001	3.57780E+000	9	...........
	30	0.413333	1.63005E-001	-2.79310E-004	0.00000E+000	-4.55291E-005	-1.68088E-001	1.63045E-001	3.57780E+000	9	...........
	31	0.426667	1.58311E-001	-2.79199E-004	0.00000E+000	-4.42004E-005	-1.68088E-001	1.58354E-001	3.57780E+000	9	...........
	32	0.44	1.53806E-001	-2.78642E-004	0.00000E+000	-4.28567E-005	-1.68088E-001	1.53842E-001	3.57780E+000	9	...........
	33	0.453333	1.49452E-001	-2.78285E-004	0.00000E+000	-4.15902E-005	-1.68088E-001	1.49489E-001	3.57780E+000	9	...........
	34	0.466667	1.45217E-001	-2.78503E-004	0.00000E+000	-4.04433E-005	-1.68088E-001	1.45247E-001	3.57855E+000	9	...........
	35	0.48	1.41119E-001	-2.78318E-004	0.00000E+000	-3.92760E-005	-1.68088E-001	1.41156E-001	3.57900E+000	9	...........
	36	0.493333	1.37132E-001	-2.78848E-004	0.00000E+000	-3.82390E-005	-1.68088E-001	1.37168E-001	3.57900E+000	9	...........
	37	0.506667	1.33279E-001	-2.78709E-004	0.00000E+000	-3.71461E-005	-1.68088E-001	1.33309E-001	3.57900E+000	9	...........
	38	0.52	1.29484E-001	-2.79452E-004	0.00000E+000	-3.61845E-005	-1.68088E-001	1.29512E-001	3.57900E+000	9	...........
	39	0.533333	1.25789E-001	-2.80167E-004	0.00000E+000	-3.52419E-005	-1.68088E-001	1.25817E-001	3.57900E+000	9	...........
	40	0.546667	1.22223E-001	-2.78630E-004	0.00000E+000	-3.40550E-005	-1.68088E-001	1.22248E-001	3.57900E+000	9	...........
	41	0.56	1.18678E-001	-2.78860E-004	0.00000E+000	-3.30946E-005	-1.68088E-001	1.18708E-001	3.57900E+000	9	...........
	42	0.573333	1.15246E-001	-2.78861E-004	0.00000E+000	-3.21378E-005	-1.68088E-001	1.15273E-001	3.57900E+000	9	...........
	43	0.586667	1.11872E-001	-2.79554E-004	0.00000E+000	-3.12743E-005	-1.68088E-001	1.11898E-001	3.57900E+000	9	...........
	44	0.6	1.08584E-001	-2.78333E-004	0.00000E+000	-3.02224E-005	-1.68088E-001	1.08610E-001	3.57900E+000	9	...........
	45	0.613333	1.05370E-001	-2.78623E-004	0.00000E+000	-2.93586E-005	-1.68088E-001	1.05398E-001	3.57900E+000	9	...........
	46	0.626667	1.02223E-001	-2.79377E-004	0.00000E+000	-2.85588E-005	-1.68088E-001	1.02252E-001	3.57900E+000	9	...........
	47	0.64	9.91285E-002	-2.79416E-004	0.00000E+000	-2.76981E-005	-1.68088E-001	9.91549E-002	3.57900E+000	9	...........
	48	0.653333	9.60699E-002	-2.79004E-004	0.00000E+000	-2.68039E-005	-1.68088E-001	9.60866E-002	3.57900E+000	9	...........
	49	0.666667	9.30453E-002	-2.79176E-004	0.00000E+000	-2.59760E-005	-1.68088E-001	9.30630E-002	3.57900E+000	9	...........
	50	0.68	9.00478E-002	-2.78833E-004	0.00000E+000	-2.51083E-005	-1.68088E-001	9.00769E-002	3.57900E+000	9	...........
	51	0.693333	8.71204E-002	-2.78509E-004	0.00000E+000	-2.42638E-005	-1.68088E-001	8.71435E-002	3.57900E+000	9	...........
	52	0.706667	8.42292E-002	-2.78692E-004	0.00000E+000	-2.34740E-005	-1.68088E-001	8.42466E-002	3.57900E+000	9	...........
	53	0.72	8.13925E-002	-2.79061E-004	0.00000E+000	-2.27135E-005	-1.68088E-001	8.14103E-002	3.57900E+000	9	...........
	54	0.733333	7.85494E-002	-2.78808E-004	0.00000E+000	-2.19002E-005	-1.68088E-001	7.85621E-002	3.57900E+000	9	...........
	55	0.746667	7.57644E-002	-2.78701E-004	0.00000E+000	-2.11156E-005	-1.68088E-001	7.57768E-002	3.57900E+000	9	...........
	56	0.76	7.30129E-002	-2.78703E-004	0.00000E+000	-2.03489E-005	-1.68088E-001	7.30256E-002	3.57900E+000	9	...........
	57	0.773333	7.03227E-002	-2.79793E-004	0.00000E+000	-1.96758E-005	-1.68088E-001	7.03322E-002	3.57900E+000	9	...........
	58	0.786667	6.77238E-002	-2.79802E-004	0.00000E+000	-1.89493E-005	-1.68088E-001	6.77368E-002	3.57900E+000	9	...........
	59	0.8	6.51383E-002	-2.78995E-004	0.00000E+000	-1.81733E-005	-1.68088E-001	6.51549E-002	3.57900E+000	9	...........
	60	0.813333	6.25515E-002	-2.78629E-004	0.00000E+000	-1.74287E-005	-1.68088E-001	6.25676E-002	3.57900E+000	9	...........
	61	0.826667	5.99572E-002	-2.78873E-004	0.00000E+000	-1.67204E-005	-1.68088E-001	5.99787E-002	3.57900E+000	9	...........
	62	0.84	5.74327E-002	-2.78947E-004	0.00000E+000	-1.60207E-005	-1.68088E-001	5.74466E-002	3.57900E+000	9	...........
	63	0.853333	5.49650E-002	-2.79092E-004	0.00000E+000	-1.53403E-005	-1.68088E-001	5.49763E-002	3.57900E+000	9	...........
	64	0.866667	5.25213E-002	-2.79060E-004	0.00000E+000	-1.46566E-005	-1.68088E-001	5.25315E-002	3.57900E+000	9	...........
	65	0.88	5.00930E-002	-2.79592E-004	0.00000E+000	-1.40056E-005	-1.68088E-001	5.01088E-002	3.57900E+000	9	...........
	66	0.893333	4.77703E-002	-2.79500E-004	0.00000E+000	-1.33518E-005	-1.68088E-001	4.77741E-002	3.57900E+000	9	...........
	67	0.906667	4.54438E-002	-2.78529E-004	0.00000E+000	-1.26574E-005	-1.68088E-001	4.54556E-002	3.57900E+000	9	...........
	68	0.92	4.30935E-002	-2.78552E-004	0.00000E+000	-1.20038E-005	-1.68088E-001	4.31027E-002	3.57900E+000	9	...........
	69	0.933333	4.07314E-002	-2.79816E-004	0.00000E+000	-1.13973E-005	-1.68088E-001	4.07370E-002	3.57900E+000	9	...........
	70	0.946667	3.84037E-002	-2.79551E-004	0.00000E+000	-1.07358E-005	-1.68088E-001	3.84123E-002	3.57900E+000	9	...........
	71	0.96	3.60795E-002	-2.79643E-004	0.00000E+000	-1.00894E-005	-1.68088E-001	3.60853E-002	3.57900E+000	9	...........
	72	0.97333	3.37883E-002	-2.79551E-004	0.00000E+000	-9.44554E-006	-1.68088E-001	3.37955E-002	3.57900E+000	9	...........
	73	0.98667	3.14761E-002	-2.79165E-004	0.00000E+000	-8.78702E-006	-1.68088E-001	3.14765E-002	3.57900E+000	9	...........
	74	1	2.91535E-002	-2.79558E-004	0.00000E+000	-8.15011E-006	-1.68088E-001	2.91543E-002	3.57900E+000	9	...........
	75	1.01333	2.69208E-002	-2.79060E-004	0.00000E+000	-7.51253E-006	-1.68088E-001	2.69183E-002	3.57900E+000	9	...........
	76	1.02667	2.47684E-002	-2.78719E-004	0.00000E+000	-6.90340E-006	-1.68088E-001	2.47669E-002	3.57900E+000	9	...........
	77	1.04	2.25943E-002	-2.78770E-004	0.00000E+000	-6.29860E-006	-1.68088E-001	2.25887E-002	3.57900E+000	9	...........
	78	1.05333	2.04489E-002	-2.79467E-004	0.00000E+000	-5.71478E-006	-1.68088E-001	2.04438E-002	3.57900E+000	9	...........
	79	1.06667	1.82894E-002	-2.78556E-004	0.00000E+000	-5.09463E-006	-1.68088E-001	1.82792E-002	3.57900E+000	9	...........
	80	1.08	1.61877E-002	-2.79108E-004	0.00000E+000	-4.51813E-006	-1.68088E-001	1.61740E-002	3.57900E+000	9	...........
	81	1.09333	1.40992E-002	-2.79323E-004	0.00000E+000	-3.93824E-006	-1.68088E-001	1.40835E-002	3.57900E+000	9	...........
	82	1.10667	1.19962E-002	-2.79274E-004	0.00000E+000	-3.35022E-006	-1.68088E-001	1.19828E-002	3.57900E+000	9	...........
	83	1.12	9.93737E-003	-2.78573E-004	0.00000E+000	-2.76828E-006	-1.68088E-001	9.92660E-003	3.57900E+000	9	...........
	84	1.13333	7.90801E-003	-2.78843E-004	0.00000E+000	-2.20509E-006	-1.68088E-001	7.89280E-003	3.57900E+000	9	...........
	85	1.14667	5.86259E-003	-2.79141E-004	0.00000E+000	-1.63649E-006	-1.68088E-001	5.84762E-003	3.57900E+000	9	...........
	86	1.16	3.79171E-003	-2.79071E-004	0.00000E+000	-1.05815E-006	-1.68088E-001	3.77048E-003	3.57900E+000	9	...........
	87	1.17333	1.75241E-003	-2.79324E-004	0.00000E+000	-4.89490E-007	-1.68088E-001	1.73454E-003	3.57900E+000	9	...........
	88	1.18	2.38528E-004	-2.79183E-004	0.00000E+000	-6.65932E-008	-1.68088E-001	2.17945E-004	3.57900E+000	9	...........
STARTTIMEOFFSET	QUANT	698.8552	Start Time Offset (s)
