EXPLAIN
TAG	PWR800_DISCHARGE
TITLE	LABEL	PWR Cyclic Charge Discharge (Cell) - Discharge Step	Test &Identifier
DATE	LABEL	7-7-2017	Date
TIME	LABEL	15:36:54	Time
NOTES	NOTES	3	&Notes...
	supercap test cell
	2.8mg
	6M KOH
PSTAT	PSTAT	IFC5000-01520	Potentiostat
CAPACITY	QUANT	1.00000E-003	Capacity (A-hr)
CELLTYPE	SELECTOR	1	&Cell Type
WORKINGCONNECTION	SELECTOR	0	&Working Lead
MAXDISCHARGETIME	VARIABLEANDUNITS	1.00000E+002	s	1.00000E+002	second(s)	Max &Discharge Time
DISCHARGEMODE	MULTIPARAM	0	2.80000E-004	&Discharge Mode	Constant Current	Amp(s)
SAMPLETIME	QUANT	1.00000E-002	Sa&mple Period (s)
DISCHARGESTOPAT1	MULTIPARAM	3	0.00000E+000	Discharge Stop At &1	Voltage < Limit	V
DISCHARGESTOPAT2	MULTIPARAM	0	0.00000E+000	Discharge Stop At &2	None	N/A
AESBHCSELECTOR	TOGGLE	F	Save Both Half Cells
IRCOMP	TOGGLE	F	IR &Measure
EOC	QUANT	0	Open Circuit (V)
SEQUENCER	TOGGLE	TRUE	Run as Sequence
PSTATMODEL	IQUANT	53	Pstat Model
PSTATSECTION	LABEL	IFC5000-01520	Pstat Section
PSTATSERIALNO	LABEL	01520	Pstat Serial Number
CTRLMODE	IQUANT	0	Control Mode
ELECTROMETER	IQUANT	1	RE=0 or CS=1
IESTAB	IQUANT	0	I/E Stability
CASPEED	IQUANT	4	Control Amp Speed
CONVENTION	IQUANT	1	Current Convention
ICHRANGE	IQUANT	2	Ich Range
ICHRANGEMODE	TOGGLE	T	Ich Auto Range
ICHOFFSETENABLE	TOGGLE	F	Ich Offset Enable
ICHOFFSET	QUANT	0	Ich Offset (V)
ICHFILTER	IQUANT	1	Ich Filter
VCHRANGE	IQUANT	2	Vch Range
VCHRANGEMODE	TOGGLE	T	Vch Auto Range
VCHOFFSETENABLE	TOGGLE	F	Vch Offset Enable
VCHOFFSET	QUANT	0	Vch Offset (V)
VCHFILTER	IQUANT	1	Vch Filter
IERANGELOWERLIMIT	IQUANT	9	I/E Range Lower Limit
IERANGEMODE	TOGGLE	F	I/E AutoRange
IERANGE	IQUANT	9	I/E Range
ACHSELECT	IQUANT	1	Ach Select
ACHRANGE	IQUANT	2	Ach Range
ACHOFFSETENABLE	TOGGLE	F	Ach Offset Enable
ACHOFFSET	QUANT	0	Ach Offset (V)
ACHFILTER	IQUANT	1	Ach Filter
CABLEID	IQUANT	14	Cable ID
DCCALDATE	LABEL	5-7-2017	DC Calibration Date
ACCALDATE	LABEL	12/3/2015	AC Calibration Date
FRAMEWORKVERSION	QUANT	7.01	Framework Version
INSTRUMENTVERSION	LABEL	4.00	Instrument Version
CURVE	TABLE	160
	Pt	T	Vf	Im	Vu	Pwr	Sig	Ach	Temp	IERange	Over
	#	s	V	A	V	W	V	V	deg C	#	bits
	0	0.013333	5.84944E-001	-2.78116E-004	0.00000E+000	-1.62683E-004	-1.68088E-001	5.85223E-001	3.57860E+000	9	...........
	1	0.026667	5.59513E-001	-2.79295E-004	0.00000E+000	-1.56269E-004	-1.68088E-001	5.59774E-001	3.57860E+000	9	...........
	2	0.04	5.37056E-001	-2.78950E-004	0.00000E+000	-1.49812E-004	-1.68088E-001	5.37302E-001	3.57860E+000	9	...........
	3	0.053333	5.16805E-001	-2.79440E-004	0.00000E+000	-1.44416E-004	-1.68088E-001	5.17000E-001	3.57860E+000	9	...........
	4	0.066667	4.98332E-001	-2.78729E-004	0.00000E+000	-1.38900E-004	-1.68088E-001	4.98544E-001	3.57860E+000	9	...........
	5	0.08	4.81610E-001	-2.78728E-004	0.00000E+000	-1.34238E-004	-1.68088E-001	4.81764E-001	3.57860E+000	9	...........
	6	0.093333	4.66092E-001	-2.79009E-004	0.00000E+000	-1.30044E-004	-1.68088E-001	4.66204E-001	3.57860E+000	9	...........
	7	0.106667	4.51614E-001	-2.79230E-004	0.00000E+000	-1.26104E-004	-1.68088E-001	4.51720E-001	3.57860E+000	9	...........
	8	0.12	4.38175E-001	-2.78147E-004	0.00000E+000	-1.21877E-004	-1.68088E-001	4.38278E-001	3.57860E+000	9	...........
	9	0.133333	4.25660E-001	-2.79101E-004	0.00000E+000	-1.18802E-004	-1.68088E-001	4.25758E-001	3.57860E+000	9	...........
	10	0.146667	4.13942E-001	-2.79387E-004	0.00000E+000	-1.15650E-004	-1.68088E-001	4.14040E-001	3.57860E+000	9	...........
	11	0.16	4.02938E-001	-2.78901E-004	0.00000E+000	-1.12380E-004	-1.68088E-001	4.03029E-001	3.57860E+000	9	...........
	12	0.173333	3.92637E-001	-2.78737E-004	0.00000E+000	-1.09443E-004	-1.68088E-001	3.92727E-001	3.57860E+000	9	...........
	13	0.186667	3.82951E-001	-2.79140E-004	0.00000E+000	-1.06897E-004	-1.68088E-001	3.83037E-001	3.57860E+000	9	...........
	14	0.2	3.73870E-001	-2.79121E-004	0.00000E+000	-1.04355E-004	-1.68088E-001	3.73955E-001	3.57860E+000	9	...........
	15	0.213333	3.65298E-001	-2.78433E-004	0.00000E+000	-1.01711E-004	-1.68088E-001	3.65388E-001	3.57860E+000	9	...........
	16	0.226667	3.57182E-001	-2.79582E-004	0.00000E+000	-9.98617E-005	-1.68088E-001	3.57267E-001	3.57860E+000	9	...........
	17	0.24	3.49476E-001	-2.78517E-004	0.00000E+000	-9.73350E-005	-1.68088E-001	3.49562E-001	3.57860E+000	9	...........
	18	0.253333	3.42125E-001	-2.79242E-004	0.00000E+000	-9.55355E-005	-1.68088E-001	3.42210E-001	3.57860E+000	9	...........
	19	0.266667	3.35142E-001	-2.79431E-004	0.00000E+000	-9.36493E-005	-1.68088E-001	3.35223E-001	3.57860E+000	9	...........
	20	0.28	3.28510E-001	-2.79034E-004	0.00000E+000	-9.16656E-005	-1.68088E-001	3.28589E-001	3.57860E+000	9	...........
	21	0.293333	3.22191E-001	-2.78809E-004	0.00000E+000	-8.98299E-005	-1.68088E-001	3.22274E-001	3.57860E+000	9	...........
	22	0.306667	3.16134E-001	-2.78846E-004	0.00000E+000	-8.81527E-005	-1.68088E-001	3.16218E-001	3.57860E+000	9	...........
	23	0.32	3.10330E-001	-2.78573E-004	0.00000E+000	-8.64494E-005	-1.68088E-001	3.10404E-001	3.57860E+000	9	...........
	24	0.333333	3.04734E-001	-2.79024E-004	0.00000E+000	-8.50280E-005	-1.68088E-001	3.04805E-001	3.57860E+000	9	...........
	25	0.346667	2.99379E-001	-2.78626E-004	0.00000E+000	-8.34146E-005	-1.68088E-001	2.99453E-001	3.57860E+000	9	...........
	26	0.36	2.94258E-001	-2.78678E-004	0.00000E+000	-8.20033E-005	-1.68088E-001	2.94327E-001	3.57860E+000	9	...........
	27	0.373333	2.89267E-001	-2.78421E-004	0.00000E+000	-8.05378E-005	-1.68088E-001	2.89338E-001	3.57860E+000	9	...........
	28	0.386667	2.84451E-001	-2.78853E-004	0.00000E+000	-7.93199E-005	-1.68088E-001	2.84526E-001	3.57860E+000	9	...........
	29	0.4	2.79805E-001	-2.79074E-004	0.00000E+000	-7.80862E-005	-1.68088E-001	2.79876E-001	3.57860E+000	9	...........
	30	0.413333	2.75338E-001	-2.78696E-004	0.00000E+000	-7.67354E-005	-1.68088E-001	2.75407E-001	3.57860E+000	9	...........
	31	0.426667	2.71007E-001	-2.78567E-004	0.00000E+000	-7.54936E-005	-1.68088E-001	2.71073E-001	3.57860E+000	9	...........
	32	0.44	2.66765E-001	-2.78508E-004	0.00000E+000	-7.42963E-005	-1.68088E-001	2.66833E-001	3.57860E+000	9	...........
	33	0.453333	2.62669E-001	-2.78972E-004	0.00000E+000	-7.32774E-005	-1.68088E-001	2.62732E-001	3.57860E+000	9	...........
	34	0.466667	2.58685E-001	-2.78683E-004	0.00000E+000	-7.20911E-005	-1.68088E-001	2.58750E-001	3.57822E+000	9	...........
	35	0.48	2.54813E-001	-2.78951E-004	0.00000E+000	-7.10803E-005	-1.68088E-001	2.54872E-001	3.57800E+000	9	...........
	36	0.493333	2.51020E-001	-2.79097E-004	0.00000E+000	-7.00588E-005	-1.68088E-001	2.51082E-001	3.57800E+000	9	...........
	37	0.506667	2.47320E-001	-2.79096E-004	0.00000E+000	-6.90260E-005	-1.68088E-001	2.47381E-001	3.57800E+000	9	...........
	38	0.52	2.43734E-001	-2.78818E-004	0.00000E+000	-6.79572E-005	-1.68088E-001	2.43789E-001	3.57800E+000	9	...........
	39	0.533333	2.40202E-001	-2.78765E-004	0.00000E+000	-6.69599E-005	-1.68088E-001	2.40256E-001	3.57800E+000	9	...........
	40	0.546667	2.36767E-001	-2.78533E-004	0.00000E+000	-6.59474E-005	-1.68088E-001	2.36816E-001	3.57800E+000	9	...........
	41	0.56	2.33426E-001	-2.79479E-004	0.00000E+000	-6.52378E-005	-1.68088E-001	2.33484E-001	3.57800E+000	9	...........
	42	0.573333	2.30183E-001	-2.78610E-004	0.00000E+000	-6.41313E-005	-1.68088E-001	2.30235E-001	3.57800E+000	9	...........
	43	0.586667	2.26956E-001	-2.78830E-004	0.00000E+000	-6.32821E-005	-1.68088E-001	2.27009E-001	3.57800E+000	9	...........
	44	0.6	2.23826E-001	-2.79332E-004	0.00000E+000	-6.25218E-005	-1.68088E-001	2.23873E-001	3.57800E+000	9	...........
	45	0.613333	2.20694E-001	-2.78455E-004	0.00000E+000	-6.14533E-005	-1.68088E-001	2.20740E-001	3.57800E+000	9	...........
	46	0.626667	2.17577E-001	-2.79864E-004	0.00000E+000	-6.08919E-005	-1.68088E-001	2.17628E-001	3.57800E+000	9	...........
	47	0.64	2.14554E-001	-2.78858E-004	0.00000E+000	-5.98300E-005	-1.68088E-001	2.14605E-001	3.57800E+000	9	...........
	48	0.653333	2.11558E-001	-2.77877E-004	0.00000E+000	-5.87870E-005	-1.68088E-001	2.11602E-001	3.57800E+000	9	...........
	49	0.666667	2.08608E-001	-2.79664E-004	0.00000E+000	-5.83401E-005	-1.68088E-001	2.08656E-001	3.57800E+000	9	...........
	50	0.68	2.05719E-001	-2.80039E-004	0.00000E+000	-5.76092E-005	-1.68088E-001	2.05765E-001	3.57800E+000	9	...........
	51	0.693333	2.02917E-001	-2.79349E-004	0.00000E+000	-5.66847E-005	-1.68088E-001	2.02964E-001	3.57800E+000	9	...........
	52	0.706667	2.00183E-001	-2.78304E-004	0.00000E+000	-5.57117E-005	-1.68088E-001	2.00239E-001	3.57800E+000	9	...........
	53	0.72	1.97448E-001	-2.79098E-004	0.00000E+000	-5.51073E-005	-1.68088E-001	1.97492E-001	3.57800E+000	9	...........
	54	0.733333	1.94772E-001	-2.78912E-004	0.00000E+000	-5.43244E-005	-1.68088E-001	1.94817E-001	3.57800E+000	9	...........
	55	0.746667	1.92110E-001	-2.78464E-004	0.00000E+000	-5.34957E-005	-1.68088E-001	1.92153E-001	3.57800E+000	9	...........
	56	0.76	1.89511E-001	-2.78897E-004	0.00000E+000	-5.28540E-005	-1.68088E-001	1.89552E-001	3.57800E+000	9	...........
	57	0.773333	1.86940E-001	-2.80085E-004	0.00000E+000	-5.23591E-005	-1.68088E-001	1.86986E-001	3.57800E+000	9	...........
	58	0.786667	1.84357E-001	-2.78703E-004	0.00000E+000	-5.13808E-005	-1.68088E-001	1.84399E-001	3.57800E+000	9	...........
	59	0.8	1.81826E-001	-2.78154E-004	0.00000E+000	-5.05756E-005	-1.68088E-001	1.81874E-001	3.57800E+000	9	...........
	60	0.813333	1.79363E-001	-2.78806E-004	0.00000E+000	-5.00076E-005	-1.68088E-001	1.79408E-001	3.57800E+000	9	...........
	61	0.826667	1.76883E-001	-2.79056E-004	0.00000E+000	-4.93604E-005	-1.68088E-001	1.76928E-001	3.57800E+000	9	...........
	62	0.84	1.74394E-001	-2.78901E-004	0.00000E+000	-4.86387E-005	-1.68088E-001	1.74438E-001	3.57800E+000	9	...........
	63	0.853333	1.71944E-001	-2.78878E-004	0.00000E+000	-4.79513E-005	-1.68088E-001	1.71982E-001	3.57800E+000	9	...........
	64	0.866667	1.69552E-001	-2.79421E-004	0.00000E+000	-4.73763E-005	-1.68088E-001	1.69602E-001	3.57800E+000	9	...........
	65	0.88	1.67200E-001	-2.78870E-004	0.00000E+000	-4.66269E-005	-1.68088E-001	1.67232E-001	3.57800E+000	9	...........
	66	0.893333	1.64797E-001	-2.79382E-004	0.00000E+000	-4.60415E-005	-1.68088E-001	1.64831E-001	3.57800E+000	9	...........
	67	0.906667	1.62478E-001	-2.78129E-004	0.00000E+000	-4.51898E-005	-1.68088E-001	1.62508E-001	3.57800E+000	9	...........
	68	0.92	1.60175E-001	-2.78378E-004	0.00000E+000	-4.45892E-005	-1.68088E-001	1.60215E-001	3.57800E+000	9	...........
	69	0.933333	1.57896E-001	-2.79339E-004	0.00000E+000	-4.41064E-005	-1.68088E-001	1.57937E-001	3.57800E+000	9	...........
	70	0.946667	1.55672E-001	-2.78461E-004	0.00000E+000	-4.33487E-005	-1.68088E-001	1.55708E-001	3.57800E+000	9	...........
	71	0.96	1.53467E-001	-2.79268E-004	0.00000E+000	-4.28583E-005	-1.68088E-001	1.53505E-001	3.57800E+000	9	...........
	72	0.97333	1.51275E-001	-2.78180E-004	0.00000E+000	-4.20817E-005	-1.68088E-001	1.51312E-001	3.57800E+000	9	...........
	73	0.98667	1.49072E-001	-2.78941E-004	0.00000E+000	-4.15821E-005	-1.68088E-001	1.49109E-001	3.57800E+000	9	...........
	74	1	1.46819E-001	-2.79274E-004	0.00000E+000	-4.10028E-005	-1.68088E-001	1.46851E-001	3.57800E+000	9	...........
	75	1.01333	1.44639E-001	-2.79203E-004	0.00000E+000	-4.03837E-005	-1.68088E-001	1.44672E-001	3.57800E+000	9	...........
	76	1.02667	1.42473E-001	-2.77604E-004	0.00000E+000	-3.95510E-005	-1.68088E-001	1.42501E-001	3.57800E+000	9	...........
	77	1.04	1.40349E-001	-2.78835E-004	0.00000E+000	-3.91342E-005	-1.68088E-001	1.40381E-001	3.57800E+000	9	...........
	78	1.05333	1.38293E-001	-2.78311E-004	0.00000E+000	-3.84884E-005	-1.68088E-001	1.38324E-001	3.57800E+000	9	...........
	79	1.06667	1.36187E-001	-2.79721E-004	0.00000E+000	-3.80945E-005	-1.68088E-001	1.36216E-001	3.57800E+000	9	...........
	80	1.08	1.34071E-001	-2.78943E-004	0.00000E+000	-3.73980E-005	-1.68088E-001	1.34100E-001	3.57800E+000	9	...........
	81	1.09333	1.32017E-001	-2.78844E-004	0.00000E+000	-3.68122E-005	-1.68088E-001	1.32043E-001	3.57800E+000	9	...........
	82	1.10667	1.29994E-001	-2.78645E-004	0.00000E+000	-3.62223E-005	-1.68088E-001	1.30020E-001	3.57800E+000	9	...........
	83	1.12	1.27986E-001	-2.78561E-004	0.00000E+000	-3.56520E-005	-1.68088E-001	1.28020E-001	3.57800E+000	9	...........
	84	1.13333	1.25984E-001	-2.78170E-004	0.00000E+000	-3.50451E-005	-1.68088E-001	1.26008E-001	3.57800E+000	9	...........
	85	1.14667	1.23947E-001	-2.79307E-004	0.00000E+000	-3.46194E-005	-1.68088E-001	1.23974E-001	3.57800E+000	9	...........
	86	1.16	1.21924E-001	-2.79132E-004	0.00000E+000	-3.40329E-005	-1.68088E-001	1.21957E-001	3.57800E+000	9	...........
	87	1.17333	1.19927E-001	-2.78790E-004	0.00000E+000	-3.34343E-005	-1.68088E-001	1.19958E-001	3.57800E+000	9	...........
	88	1.18667	1.17943E-001	-2.79084E-004	0.00000E+000	-3.29159E-005	-1.68088E-001	1.17976E-001	3.57800E+000	9	...........
	89	1.2	1.15946E-001	-2.79082E-004	0.00000E+000	-3.23584E-005	-1.68088E-001	1.15975E-001	3.57800E+000	9	...........
	90	1.21333	1.13978E-001	-2.78927E-004	0.00000E+000	-3.17914E-005	-1.68088E-001	1.14005E-001	3.57800E+000	9	...........
	91	1.22667	1.12036E-001	-2.78482E-004	0.00000E+000	-3.11999E-005	-1.68088E-001	1.12060E-001	3.57800E+000	9	...........
	92	1.24	1.10100E-001	-2.78798E-004	0.00000E+000	-3.06955E-005	-1.68088E-001	1.10130E-001	3.57800E+000	9	...........
	93	1.25333	1.08206E-001	-2.78882E-004	0.00000E+000	-3.01768E-005	-1.68088E-001	1.08230E-001	3.57800E+000	9	...........
	94	1.26667	1.06315E-001	-2.79530E-004	0.00000E+000	-2.97184E-005	-1.68088E-001	1.06338E-001	3.57800E+000	9	...........
	95	1.28	1.04439E-001	-2.79377E-004	0.00000E+000	-2.91779E-005	-1.68088E-001	1.04461E-001	3.57800E+000	9	...........
	96	1.29333	1.02558E-001	-2.78258E-004	0.00000E+000	-2.85376E-005	-1.68088E-001	1.02578E-001	3.57800E+000	9	...........
	97	1.30667	1.00655E-001	-2.78977E-004	0.00000E+000	-2.80806E-005	-1.68088E-001	1.00682E-001	3.57800E+000	9	...........
	98	1.32	9.87314E-002	-2.79463E-004	0.00000E+000	-2.75917E-005	-1.68088E-001	9.87579E-002	3.57800E+000	9	...........
	99	1.33333	9.68884E-002	-2.79293E-004	0.00000E+000	-2.70602E-005	-1.68088E-001	9.69125E-002	3.57800E+000	9	...........
	100	1.34667	9.50510E-002	-2.79513E-004	0.00000E+000	-2.65680E-005	-1.68088E-001	9.50694E-002	3.57800E+000	9	...........
	101	1.36	9.32557E-002	-2.79205E-004	0.00000E+000	-2.60375E-005	-1.68088E-001	9.32802E-002	3.57800E+000	9	...........
	102	1.37333	9.14324E-002	-2.78994E-004	0.00000E+000	-2.55091E-005	-1.68088E-001	9.14516E-002	3.57800E+000	9	...........
	103	1.38667	8.96439E-002	-2.79667E-004	0.00000E+000	-2.50704E-005	-1.68088E-001	8.96656E-002	3.57800E+000	9	...........
	104	1.4	8.78259E-002	-2.79194E-004	0.00000E+000	-2.45204E-005	-1.68088E-001	8.78505E-002	3.57800E+000	9	...........
	105	1.41333	8.60034E-002	-2.78506E-004	0.00000E+000	-2.39525E-005	-1.68088E-001	8.60242E-002	3.57800E+000	9	...........
	106	1.42667	8.42295E-002	-2.79129E-004	0.00000E+000	-2.35109E-005	-1.68088E-001	8.42421E-002	3.57800E+000	9	...........
	107	1.44	8.24257E-002	-2.79015E-004	0.00000E+000	-2.29980E-005	-1.68088E-001	8.24434E-002	3.57800E+000	9	...........
	108	1.45333	8.06537E-002	-2.79152E-004	0.00000E+000	-2.25146E-005	-1.68088E-001	8.06717E-002	3.57800E+000	9	...........
	109	1.46667	7.89648E-002	-2.77791E-004	0.00000E+000	-2.19357E-005	-1.68088E-001	7.89811E-002	3.57825E+000	9	...........
	110	1.48	7.72117E-002	-2.78944E-004	0.00000E+000	-2.15377E-005	-1.68088E-001	7.72300E-002	3.57840E+000	9	...........
	111	1.49333	7.54558E-002	-2.78779E-004	0.00000E+000	-2.10355E-005	-1.68088E-001	7.54710E-002	3.57840E+000	9	...........
	112	1.50667	7.37051E-002	-2.78974E-004	0.00000E+000	-2.05618E-005	-1.68088E-001	7.37164E-002	3.57840E+000	9	...........
	113	1.52	7.19539E-002	-2.78894E-004	0.00000E+000	-2.00675E-005	-1.68088E-001	7.19682E-002	3.57840E+000	9	...........
	114	1.53333	7.02979E-002	-2.79982E-004	0.00000E+000	-1.96822E-005	-1.68088E-001	7.03060E-002	3.57840E+000	9	...........
	115	1.54667	6.86086E-002	-2.78209E-004	0.00000E+000	-1.90875E-005	-1.68088E-001	6.86221E-002	3.57840E+000	9	...........
	116	1.56	6.69039E-002	-2.78389E-004	0.00000E+000	-1.86253E-005	-1.68088E-001	6.69070E-002	3.57840E+000	9	...........
	117	1.57333	6.51644E-002	-2.78798E-004	0.00000E+000	-1.81677E-005	-1.68088E-001	6.51742E-002	3.57840E+000	9	...........
	118	1.58667	6.34681E-002	-2.78852E-004	0.00000E+000	-1.76982E-005	-1.68088E-001	6.34769E-002	3.57840E+000	9	...........
	119	1.6	6.18639E-002	-2.78943E-004	0.00000E+000	-1.72565E-005	-1.68088E-001	6.18757E-002	3.57840E+000	9	...........
	120	1.61333	6.02294E-002	-2.78954E-004	0.00000E+000	-1.68012E-005	-1.68088E-001	6.02454E-002	3.57840E+000	9	...........
	121	1.62667	5.85371E-002	-2.78951E-004	0.00000E+000	-1.63290E-005	-1.68088E-001	5.85534E-002	3.57840E+000	9	...........
	122	1.64	5.68460E-002	-2.78748E-004	0.00000E+000	-1.58457E-005	-1.68088E-001	5.68568E-002	3.57840E+000	9	...........
	123	1.65333	5.51935E-002	-2.79368E-004	0.00000E+000	-1.54193E-005	-1.68088E-001	5.52017E-002	3.57840E+000	9	...........
	124	1.66667	5.35160E-002	-2.79378E-004	0.00000E+000	-1.49512E-005	-1.68088E-001	5.35301E-002	3.57840E+000	9	...........
	125	1.68	5.18449E-002	-2.78768E-004	0.00000E+000	-1.44527E-005	-1.68088E-001	5.18538E-002	3.57840E+000	9	...........
	126	1.69333	5.02230E-002	-2.79117E-004	0.00000E+000	-1.40181E-005	-1.68088E-001	5.02342E-002	3.57840E+000	9	...........
	127	1.70667	4.86115E-002	-2.78075E-004	0.00000E+000	-1.35176E-005	-1.68088E-001	4.86214E-002	3.57840E+000	9	...........
	128	1.72	4.70419E-002	-2.78976E-004	0.00000E+000	-1.31236E-005	-1.68088E-001	4.70493E-002	3.57840E+000	9	...........
	129	1.73333	4.54161E-002	-2.79110E-004	0.00000E+000	-1.26761E-005	-1.68088E-001	4.54242E-002	3.57840E+000	9	...........
	130	1.74667	4.38310E-002	-2.78634E-004	0.00000E+000	-1.22128E-005	-1.68088E-001	4.38427E-002	3.57840E+000	9	...........
	131	1.76	4.22863E-002	-2.79342E-004	0.00000E+000	-1.18123E-005	-1.68088E-001	4.22909E-002	3.57840E+000	9	...........
	132	1.77333	4.07201E-002	-2.78222E-004	0.00000E+000	-1.13292E-005	-1.68088E-001	4.07213E-002	3.57840E+000	9	...........
	133	1.78667	3.91083E-002	-2.79810E-004	0.00000E+000	-1.09429E-005	-1.68088E-001	3.91098E-002	3.57840E+000	9	...........
	134	1.8	3.75063E-002	-2.78548E-004	0.00000E+000	-1.04473E-005	-1.68088E-001	3.75096E-002	3.57840E+000	9	...........
	135	1.81333	3.58708E-002	-2.79075E-004	0.00000E+000	-1.00106E-005	-1.68088E-001	3.58782E-002	3.57840E+000	9	...........
	136	1.82667	3.42692E-002	-2.78860E-004	0.00000E+000	-9.55631E-006	-1.68088E-001	3.42711E-002	3.57840E+000	9	...........
	137	1.84	3.26990E-002	-2.78424E-004	0.00000E+000	-9.10417E-006	-1.68088E-001	3.27048E-002	3.57840E+000	9	...........
	138	1.85333	3.11570E-002	-2.79571E-004	0.00000E+000	-8.71060E-006	-1.68088E-001	3.11563E-002	3.57840E+000	9	...........
	139	1.86667	2.96136E-002	-2.79065E-004	0.00000E+000	-8.26410E-006	-1.68088E-001	2.96127E-002	3.57840E+000	9	...........
	140	1.88	2.80977E-002	-2.79003E-004	0.00000E+000	-7.83933E-006	-1.68088E-001	2.80914E-002	3.57840E+000	9	...........
	141	1.89333	2.65945E-002	-2.79529E-004	0.00000E+000	-7.43394E-006	-1.68088E-001	2.65899E-002	3.57840E+000	9	...........
	142	1.90667	2.50935E-002	-2.78631E-004	0.00000E+000	-6.99184E-006	-1.68088E-001	2.50895E-002	3.57840E+000	9	...........
	143	1.92	2.35914E-002	-2.78834E-004	0.00000E+000	-6.57809E-006	-1.68088E-001	2.35825E-002	3.57840E+000	9	...........
	144	1.93333	2.21096E-002	-2.79915E-004	0.00000E+000	-6.18881E-006	-1.68088E-001	2.21012E-002	3.57840E+000	9	...........
	145	1.94667	2.06381E-002	-2.79328E-004	0.00000E+000	-5.76482E-006	-1.68088E-001	2.06311E-002	3.57840E+000	9	...........
	146	1.96	1.91325E-002	-2.79897E-004	0.00000E+000	-5.35513E-006	-1.68088E-001	1.91226E-002	3.57840E+000	9	...........
	147	1.97333	1.75886E-002	-2.78769E-004	0.00000E+000	-4.90314E-006	-1.68088E-001	1.75825E-002	3.57840E+000	9	...........
	148	1.98667	1.60328E-002	-2.79819E-004	0.00000E+000	-4.48628E-006	-1.68088E-001	1.60262E-002	3.57840E+000	9	...........
	149	2	1.45195E-002	-2.78281E-004	0.00000E+000	-4.04051E-006	-1.68088E-001	1.45059E-002	3.57840E+000	9	...........
	150	2.01333	1.29927E-002	-2.78408E-004	0.00000E+000	-3.61727E-006	-1.68088E-001	1.29812E-002	3.57840E+000	9	...........
	151	2.02667	1.14708E-002	-2.78868E-004	0.00000E+000	-3.19883E-006	-1.68088E-001	1.14575E-002	3.57840E+000	9	...........
	152	2.04	9.99335E-003	-2.79297E-004	0.00000E+000	-2.79111E-006	-1.68088E-001	9.98117E-003	3.57840E+000	9	...........
	153	2.05333	8.50025E-003	-2.78424E-004	0.00000E+000	-2.36667E-006	-1.68088E-001	8.48571E-003	3.57840E+000	9	...........
	154	2.06667	6.97757E-003	-2.79265E-004	0.00000E+000	-1.94859E-006	-1.68088E-001	6.95973E-003	3.57840E+000	9	...........
	155	2.08	5.41195E-003	-2.79661E-004	0.00000E+000	-1.51351E-006	-1.68088E-001	5.39422E-003	3.57840E+000	9	...........
	156	2.09333	3.89507E-003	-2.80179E-004	0.00000E+000	-1.09132E-006	-1.68088E-001	3.87686E-003	3.57840E+000	9	...........
	157	2.10667	2.41534E-003	-2.78511E-004	0.00000E+000	-6.72700E-007	-1.68088E-001	2.39673E-003	3.57840E+000	9	...........
	158	2.12	9.36147E-004	-2.78702E-004	0.00000E+000	-2.60906E-007	-1.68088E-001	9.17086E-004	3.57840E+000	9	...........
	159	2.12333	3.55548E-005	-2.78156E-004	0.00000E+000	-9.88978E-009	-1.68088E-001	1.36208E-005	3.57840E+000	9	...........
STARTTIMEOFFSET	QUANT	47.39334	Start Time Offset (s)
