EXPLAIN
TAG	PWR800_DISCHARGE
TITLE	LABEL	PWR Cyclic Charge Discharge (Cell) - Discharge Step	Test &Identifier
DATE	LABEL	7-7-2017	Date
TIME	LABEL	16:01:00	Time
NOTES	NOTES	3	&Notes...
	supercap test cell
	2.8mg
	6M KOH
PSTAT	PSTAT	IFC5000-01520	Potentiostat
CAPACITY	QUANT	1.00000E-003	Capacity (A-hr)
CELLTYPE	SELECTOR	1	&Cell Type
WORKINGCONNECTION	SELECTOR	0	&Working Lead
MAXDISCHARGETIME	VARIABLEANDUNITS	1.00000E+002	s	1.00000E+002	second(s)	Max &Discharge Time
DISCHARGEMODE	MULTIPARAM	0	2.80000E-004	&Discharge Mode	Constant Current	Amp(s)
SAMPLETIME	QUANT	1.00000E-002	Sa&mple Period (s)
DISCHARGESTOPAT1	MULTIPARAM	3	0.00000E+000	Discharge Stop At &1	Voltage < Limit	V
DISCHARGESTOPAT2	MULTIPARAM	0	0.00000E+000	Discharge Stop At &2	None	N/A
AESBHCSELECTOR	TOGGLE	F	Save Both Half Cells
IRCOMP	TOGGLE	F	IR &Measure
EOC	QUANT	0	Open Circuit (V)
SEQUENCER	TOGGLE	TRUE	Run as Sequence
PSTATMODEL	IQUANT	53	Pstat Model
PSTATSECTION	LABEL	IFC5000-01520	Pstat Section
PSTATSERIALNO	LABEL	01520	Pstat Serial Number
CTRLMODE	IQUANT	0	Control Mode
ELECTROMETER	IQUANT	1	RE=0 or CS=1
IESTAB	IQUANT	0	I/E Stability
CASPEED	IQUANT	4	Control Amp Speed
CONVENTION	IQUANT	1	Current Convention
ICHRANGE	IQUANT	2	Ich Range
ICHRANGEMODE	TOGGLE	T	Ich Auto Range
ICHOFFSETENABLE	TOGGLE	F	Ich Offset Enable
ICHOFFSET	QUANT	0	Ich Offset (V)
ICHFILTER	IQUANT	1	Ich Filter
VCHRANGE	IQUANT	2	Vch Range
VCHRANGEMODE	TOGGLE	T	Vch Auto Range
VCHOFFSETENABLE	TOGGLE	F	Vch Offset Enable
VCHOFFSET	QUANT	0	Vch Offset (V)
VCHFILTER	IQUANT	1	Vch Filter
IERANGELOWERLIMIT	IQUANT	9	I/E Range Lower Limit
IERANGEMODE	TOGGLE	F	I/E AutoRange
IERANGE	IQUANT	9	I/E Range
ACHSELECT	IQUANT	1	Ach Select
ACHRANGE	IQUANT	2	Ach Range
ACHOFFSETENABLE	TOGGLE	F	Ach Offset Enable
ACHOFFSET	QUANT	0	Ach Offset (V)
ACHFILTER	IQUANT	1	Ach Filter
CABLEID	IQUANT	14	Cable ID
DCCALDATE	LABEL	5-7-2017	DC Calibration Date
ACCALDATE	LABEL	12/3/2015	AC Calibration Date
FRAMEWORKVERSION	QUANT	7.01	Framework Version
INSTRUMENTVERSION	LABEL	4.00	Instrument Version
CURVE	TABLE	69
	Pt	T	Vf	Im	Vu	Pwr	Sig	Ach	Temp	IERange	Over
	#	s	V	A	V	W	V	V	deg C	#	bits
	0	0.013333	5.18582E-001	-2.78313E-004	0.00000E+000	-1.44328E-004	-1.68088E-001	5.18809E-001	3.57750E+000	9	...........
	1	0.026667	4.86546E-001	-2.77925E-004	0.00000E+000	-1.35223E-004	-1.68088E-001	4.86732E-001	3.57750E+000	9	...........
	2	0.04	4.57459E-001	-2.78668E-004	0.00000E+000	-1.27479E-004	-1.68088E-001	4.57565E-001	3.57750E+000	9	...........
	3	0.053333	4.30477E-001	-2.79943E-004	0.00000E+000	-1.20509E-004	-1.68088E-001	4.30587E-001	3.57750E+000	9	...........
	4	0.066667	4.05503E-001	-2.77550E-004	0.00000E+000	-1.12547E-004	-1.68088E-001	4.05602E-001	3.57750E+000	9	...........
	5	0.08	3.82301E-001	-2.78835E-004	0.00000E+000	-1.06599E-004	-1.68088E-001	3.82389E-001	3.57750E+000	9	...........
	6	0.093333	3.60771E-001	-2.78525E-004	0.00000E+000	-1.00484E-004	-1.68088E-001	3.60857E-001	3.57750E+000	9	...........
	7	0.106667	3.40774E-001	-2.79408E-004	0.00000E+000	-9.52152E-005	-1.68088E-001	3.40855E-001	3.57750E+000	9	...........
	8	0.12	3.22244E-001	-2.78354E-004	0.00000E+000	-8.96979E-005	-1.68088E-001	3.22320E-001	3.57750E+000	9	...........
	9	0.133333	3.05043E-001	-2.77826E-004	0.00000E+000	-8.47488E-005	-1.68088E-001	3.05121E-001	3.57750E+000	9	...........
	10	0.146667	2.89055E-001	-2.78064E-004	0.00000E+000	-8.03758E-005	-1.68088E-001	2.89128E-001	3.57750E+000	9	...........
	11	0.16	2.74238E-001	-2.79603E-004	0.00000E+000	-7.66778E-005	-1.68088E-001	2.74310E-001	3.57750E+000	9	...........
	12	0.173333	2.60514E-001	-2.79126E-004	0.00000E+000	-7.27162E-005	-1.68088E-001	2.60583E-001	3.57750E+000	9	...........
	13	0.186667	2.47779E-001	-2.79032E-004	0.00000E+000	-6.91382E-005	-1.68088E-001	2.47839E-001	3.57750E+000	9	...........
	14	0.2	2.35908E-001	-2.78481E-004	0.00000E+000	-6.56961E-005	-1.68088E-001	2.35959E-001	3.57750E+000	9	...........
	15	0.213333	2.24819E-001	-2.77469E-004	0.00000E+000	-6.23804E-005	-1.68088E-001	2.24873E-001	3.57750E+000	9	...........
	16	0.226667	2.14529E-001	-2.78447E-004	0.00000E+000	-5.97350E-005	-1.68088E-001	2.14583E-001	3.57750E+000	9	...........
	17	0.24	2.04930E-001	-2.78679E-004	0.00000E+000	-5.71097E-005	-1.68088E-001	2.04976E-001	3.57750E+000	9	...........
	18	0.253333	1.95941E-001	-2.78516E-004	0.00000E+000	-5.45727E-005	-1.68088E-001	1.95990E-001	3.57750E+000	9	...........
	19	0.266667	1.87470E-001	-2.78580E-004	0.00000E+000	-5.22254E-005	-1.68088E-001	1.87518E-001	3.57750E+000	9	...........
	20	0.28	1.79506E-001	-2.78794E-004	0.00000E+000	-5.00451E-005	-1.68088E-001	1.79557E-001	3.57750E+000	9	...........
	21	0.293333	1.72053E-001	-2.78588E-004	0.00000E+000	-4.79320E-005	-1.68088E-001	1.72097E-001	3.57750E+000	9	...........
	22	0.306667	1.65013E-001	-2.78695E-004	0.00000E+000	-4.59882E-005	-1.68088E-001	1.65054E-001	3.57750E+000	9	...........
	23	0.32	1.58330E-001	-2.78860E-004	0.00000E+000	-4.41520E-005	-1.68088E-001	1.58367E-001	3.57750E+000	9	...........
	24	0.333333	1.51993E-001	-2.79269E-004	0.00000E+000	-4.24469E-005	-1.68088E-001	1.52029E-001	3.57750E+000	9	...........
	25	0.346667	1.45968E-001	-2.79272E-004	0.00000E+000	-4.07648E-005	-1.68088E-001	1.46003E-001	3.57750E+000	9	...........
	26	0.36	1.40225E-001	-2.78517E-004	0.00000E+000	-3.90550E-005	-1.68088E-001	1.40255E-001	3.57750E+000	9	...........
	27	0.373333	1.34732E-001	-2.78360E-004	0.00000E+000	-3.75040E-005	-1.68088E-001	1.34763E-001	3.57750E+000	9	...........
	28	0.386667	1.29444E-001	-2.78451E-004	0.00000E+000	-3.60439E-005	-1.68088E-001	1.29468E-001	3.57750E+000	9	...........
	29	0.4	1.24373E-001	-2.78365E-004	0.00000E+000	-3.46211E-005	-1.68088E-001	1.24399E-001	3.57750E+000	9	...........
	30	0.413333	1.19524E-001	-2.78755E-004	0.00000E+000	-3.33180E-005	-1.68088E-001	1.19557E-001	3.57750E+000	9	...........
	31	0.426667	1.14840E-001	-2.80107E-004	0.00000E+000	-3.21675E-005	-1.68088E-001	1.14864E-001	3.57750E+000	9	...........
	32	0.44	1.10345E-001	-2.79946E-004	0.00000E+000	-3.08907E-005	-1.68088E-001	1.10370E-001	3.57750E+000	9	...........
	33	0.453333	1.05997E-001	-2.78134E-004	0.00000E+000	-2.94813E-005	-1.68088E-001	1.06021E-001	3.57750E+000	9	...........
	34	0.466667	1.01735E-001	-2.77911E-004	0.00000E+000	-2.82733E-005	-1.68088E-001	1.01756E-001	3.57750E+000	9	...........
	35	0.48	9.76489E-002	-2.79568E-004	0.00000E+000	-2.72995E-005	-1.68088E-001	9.76713E-002	3.57750E+000	9	...........
	36	0.493333	9.36786E-002	-2.79380E-004	0.00000E+000	-2.61719E-005	-1.68088E-001	9.37019E-002	3.57750E+000	9	...........
	37	0.506667	8.98222E-002	-2.80437E-004	0.00000E+000	-2.51895E-005	-1.68088E-001	8.98452E-002	3.57750E+000	9	...........
	38	0.52	8.60680E-002	-2.78397E-004	0.00000E+000	-2.39610E-005	-1.68088E-001	8.60928E-002	3.57750E+000	9	...........
	39	0.533333	8.23917E-002	-2.76524E-004	0.00000E+000	-2.27833E-005	-1.68088E-001	8.24140E-002	3.57750E+000	9	...........
	40	0.546667	7.88194E-002	-2.77775E-004	0.00000E+000	-2.18940E-005	-1.68088E-001	7.88345E-002	3.57750E+000	9	...........
	41	0.56	7.53148E-002	-2.78845E-004	0.00000E+000	-2.10011E-005	-1.68088E-001	7.53283E-002	3.57750E+000	9	...........
	42	0.573333	7.18804E-002	-2.79451E-004	0.00000E+000	-2.00871E-005	-1.68088E-001	7.18960E-002	3.57750E+000	9	...........
	43	0.586667	6.85624E-002	-2.78654E-004	0.00000E+000	-1.91052E-005	-1.68088E-001	6.85754E-002	3.57750E+000	9	...........
	44	0.6	6.52751E-002	-2.79909E-004	0.00000E+000	-1.82710E-005	-1.68088E-001	6.52859E-002	3.57750E+000	9	...........
	45	0.613333	6.20753E-002	-2.79357E-004	0.00000E+000	-1.73412E-005	-1.68088E-001	6.20877E-002	3.57750E+000	9	...........
	46	0.626667	5.89494E-002	-2.77817E-004	0.00000E+000	-1.63772E-005	-1.68088E-001	5.89667E-002	3.57750E+000	9	...........
	47	0.64	5.58500E-002	-2.79663E-004	0.00000E+000	-1.56191E-005	-1.68088E-001	5.58636E-002	3.57750E+000	9	...........
	48	0.653333	5.28647E-002	-2.78623E-004	0.00000E+000	-1.47293E-005	-1.68088E-001	5.28734E-002	3.57750E+000	9	...........
	49	0.666667	4.98983E-002	-2.78761E-004	0.00000E+000	-1.39097E-005	-1.68088E-001	4.99079E-002	3.57750E+000	9	...........
	50	0.68	4.70351E-002	-2.78420E-004	0.00000E+000	-1.30955E-005	-1.68088E-001	4.70421E-002	3.57750E+000	9	...........
	51	0.693333	4.41806E-002	-2.78496E-004	0.00000E+000	-1.23041E-005	-1.68088E-001	4.41902E-002	3.57750E+000	9	...........
	52	0.706667	4.13270E-002	-2.79264E-004	0.00000E+000	-1.15411E-005	-1.68088E-001	4.13397E-002	3.57750E+000	9	...........
	53	0.72	3.85186E-002	-2.78467E-004	0.00000E+000	-1.07261E-005	-1.68088E-001	3.85242E-002	3.57750E+000	9	...........
	54	0.733333	3.57619E-002	-2.77879E-004	0.00000E+000	-9.93749E-006	-1.68088E-001	3.57690E-002	3.57750E+000	9	...........
	55	0.746667	3.30163E-002	-2.79504E-004	0.00000E+000	-9.22820E-006	-1.68088E-001	3.30234E-002	3.57750E+000	9	...........
	56	0.76	3.03833E-002	-2.79340E-004	0.00000E+000	-8.48726E-006	-1.68088E-001	3.03845E-002	3.57750E+000	9	...........
	57	0.773333	2.77433E-002	-2.78184E-004	0.00000E+000	-7.71774E-006	-1.68088E-001	2.77477E-002	3.57750E+000	9	...........
	58	0.786667	2.51043E-002	-2.79412E-004	0.00000E+000	-7.01444E-006	-1.68088E-001	2.51052E-002	3.57750E+000	9	...........
	59	0.8	2.25510E-002	-2.78782E-004	0.00000E+000	-6.28683E-006	-1.68088E-001	2.25443E-002	3.57750E+000	9	...........
	60	0.813333	1.99934E-002	-2.79238E-004	0.00000E+000	-5.58292E-006	-1.68088E-001	1.99871E-002	3.57750E+000	9	...........
	61	0.826667	1.74754E-002	-2.78892E-004	0.00000E+000	-4.87374E-006	-1.68088E-001	1.74699E-002	3.57750E+000	9	...........
	62	0.84	1.49775E-002	-2.78301E-004	0.00000E+000	-4.16826E-006	-1.68088E-001	1.49672E-002	3.57750E+000	9	...........
	63	0.853333	1.25002E-002	-2.78704E-004	0.00000E+000	-3.48385E-006	-1.68088E-001	1.24912E-002	3.57750E+000	9	...........
	64	0.866667	1.00323E-002	-2.78705E-004	0.00000E+000	-2.79605E-006	-1.68088E-001	1.00179E-002	3.57750E+000	9	...........
	65	0.88	7.61938E-003	-2.79256E-004	0.00000E+000	-2.12776E-006	-1.68088E-001	7.61162E-003	3.57750E+000	9	...........
	66	0.893333	5.26288E-003	-2.78485E-004	0.00000E+000	-1.46563E-006	-1.68088E-001	5.24512E-003	3.57750E+000	9	...........
	67	0.906667	2.94763E-003	-2.79194E-004	0.00000E+000	-8.22959E-007	-1.68088E-001	2.92742E-003	3.57750E+000	9	...........
	68	0.918333	7.54426E-004	-2.77290E-004	0.00000E+000	-2.09195E-007	-1.68088E-001	7.38244E-004	3.57750E+000	9	...........
STARTTIMEOFFSET	QUANT	1151.663	Start Time Offset (s)
