EXPLAIN
TAG	PWR800_DISCHARGE
TITLE	LABEL	PWR Cyclic Charge Discharge (Cell) - Discharge Step	Test &Identifier
DATE	LABEL	7-7-2017	Date
TIME	LABEL	16:04:37	Time
NOTES	NOTES	3	&Notes...
	supercap test cell
	2.8mg
	6M KOH
PSTAT	PSTAT	IFC5000-01520	Potentiostat
CAPACITY	QUANT	1.00000E-003	Capacity (A-hr)
CELLTYPE	SELECTOR	1	&Cell Type
WORKINGCONNECTION	SELECTOR	0	&Working Lead
MAXDISCHARGETIME	VARIABLEANDUNITS	1.00000E+002	s	1.00000E+002	second(s)	Max &Discharge Time
DISCHARGEMODE	MULTIPARAM	0	2.80000E-004	&Discharge Mode	Constant Current	Amp(s)
SAMPLETIME	QUANT	1.00000E-002	Sa&mple Period (s)
DISCHARGESTOPAT1	MULTIPARAM	3	0.00000E+000	Discharge Stop At &1	Voltage < Limit	V
DISCHARGESTOPAT2	MULTIPARAM	0	0.00000E+000	Discharge Stop At &2	None	N/A
AESBHCSELECTOR	TOGGLE	F	Save Both Half Cells
IRCOMP	TOGGLE	F	IR &Measure
EOC	QUANT	0	Open Circuit (V)
SEQUENCER	TOGGLE	TRUE	Run as Sequence
PSTATMODEL	IQUANT	53	Pstat Model
PSTATSECTION	LABEL	IFC5000-01520	Pstat Section
PSTATSERIALNO	LABEL	01520	Pstat Serial Number
CTRLMODE	IQUANT	0	Control Mode
ELECTROMETER	IQUANT	1	RE=0 or CS=1
IESTAB	IQUANT	0	I/E Stability
CASPEED	IQUANT	4	Control Amp Speed
CONVENTION	IQUANT	1	Current Convention
ICHRANGE	IQUANT	2	Ich Range
ICHRANGEMODE	TOGGLE	T	Ich Auto Range
ICHOFFSETENABLE	TOGGLE	F	Ich Offset Enable
ICHOFFSET	QUANT	0	Ich Offset (V)
ICHFILTER	IQUANT	1	Ich Filter
VCHRANGE	IQUANT	2	Vch Range
VCHRANGEMODE	TOGGLE	T	Vch Auto Range
VCHOFFSETENABLE	TOGGLE	F	Vch Offset Enable
VCHOFFSET	QUANT	0	Vch Offset (V)
VCHFILTER	IQUANT	1	Vch Filter
IERANGELOWERLIMIT	IQUANT	9	I/E Range Lower Limit
IERANGEMODE	TOGGLE	F	I/E AutoRange
IERANGE	IQUANT	9	I/E Range
ACHSELECT	IQUANT	1	Ach Select
ACHRANGE	IQUANT	2	Ach Range
ACHOFFSETENABLE	TOGGLE	F	Ach Offset Enable
ACHOFFSET	QUANT	0	Ach Offset (V)
ACHFILTER	IQUANT	1	Ach Filter
CABLEID	IQUANT	14	Cable ID
DCCALDATE	LABEL	5-7-2017	DC Calibration Date
ACCALDATE	LABEL	12/3/2015	AC Calibration Date
FRAMEWORKVERSION	QUANT	7.01	Framework Version
INSTRUMENTVERSION	LABEL	4.00	Instrument Version
CURVE	TABLE	65
	Pt	T	Vf	Im	Vu	Pwr	Sig	Ach	Temp	IERange	Over
	#	s	V	A	V	W	V	V	deg C	#	bits
	0	0.013333	5.27136E-001	-2.78930E-004	0.00000E+000	-1.47034E-004	-1.68088E-001	5.27392E-001	3.57880E+000	9	...........
	1	0.026667	4.94322E-001	-2.77977E-004	0.00000E+000	-1.37410E-004	-1.68088E-001	4.94585E-001	3.57880E+000	9	...........
	2	0.04	4.64581E-001	-2.78477E-004	0.00000E+000	-1.29375E-004	-1.68088E-001	4.64697E-001	3.57880E+000	9	...........
	3	0.053333	4.36740E-001	-2.78902E-004	0.00000E+000	-1.21808E-004	-1.68088E-001	4.36849E-001	3.57880E+000	9	...........
	4	0.066667	4.10827E-001	-2.78306E-004	0.00000E+000	-1.14336E-004	-1.68088E-001	4.10933E-001	3.57880E+000	9	...........
	5	0.08	3.86667E-001	-2.78580E-004	0.00000E+000	-1.07718E-004	-1.68088E-001	3.86764E-001	3.57880E+000	9	...........
	6	0.093333	3.64154E-001	-2.78958E-004	0.00000E+000	-1.01584E-004	-1.68088E-001	3.64241E-001	3.57880E+000	9	...........
	7	0.106667	3.43201E-001	-2.78386E-004	0.00000E+000	-9.55425E-005	-1.68088E-001	3.43287E-001	3.57880E+000	9	...........
	8	0.12	3.23687E-001	-2.78755E-004	0.00000E+000	-9.02295E-005	-1.68088E-001	3.23766E-001	3.57880E+000	9	...........
	9	0.133333	3.05528E-001	-2.77579E-004	0.00000E+000	-8.48082E-005	-1.68088E-001	3.05606E-001	3.57880E+000	9	...........
	10	0.146667	2.88666E-001	-2.78529E-004	0.00000E+000	-8.04020E-005	-1.68088E-001	2.88741E-001	3.57880E+000	9	...........
	11	0.16	2.73038E-001	-2.79136E-004	0.00000E+000	-7.62150E-005	-1.68088E-001	2.73105E-001	3.57880E+000	9	...........
	12	0.173333	2.58523E-001	-2.79255E-004	0.00000E+000	-7.21939E-005	-1.68088E-001	2.58588E-001	3.57880E+000	9	...........
	13	0.186667	2.45003E-001	-2.77693E-004	0.00000E+000	-6.80358E-005	-1.68088E-001	2.45062E-001	3.57880E+000	9	...........
	14	0.2	2.32451E-001	-2.79169E-004	0.00000E+000	-6.48932E-005	-1.68088E-001	2.32511E-001	3.57880E+000	9	...........
	15	0.213333	2.20759E-001	-2.80258E-004	0.00000E+000	-6.18695E-005	-1.68088E-001	2.20809E-001	3.57880E+000	9	...........
	16	0.226667	2.09864E-001	-2.78408E-004	0.00000E+000	-5.84278E-005	-1.68088E-001	2.09914E-001	3.57880E+000	9	...........
	17	0.24	1.99715E-001	-2.78076E-004	0.00000E+000	-5.55360E-005	-1.68088E-001	1.99762E-001	3.57880E+000	9	...........
	18	0.253333	1.90194E-001	-2.78633E-004	0.00000E+000	-5.29944E-005	-1.68088E-001	1.90241E-001	3.57880E+000	9	...........
	19	0.266667	1.81265E-001	-2.77930E-004	0.00000E+000	-5.03790E-005	-1.68088E-001	1.81317E-001	3.57880E+000	9	...........
	20	0.28	1.72911E-001	-2.78818E-004	0.00000E+000	-4.82108E-005	-1.68088E-001	1.72955E-001	3.57880E+000	9	...........
	21	0.293333	1.65068E-001	-2.78047E-004	0.00000E+000	-4.58966E-005	-1.68088E-001	1.65108E-001	3.57880E+000	9	...........
	22	0.306667	1.57710E-001	-2.78813E-004	0.00000E+000	-4.39718E-005	-1.68088E-001	1.57748E-001	3.57880E+000	9	...........
	23	0.32	1.50751E-001	-2.79467E-004	0.00000E+000	-4.21298E-005	-1.68088E-001	1.50778E-001	3.57880E+000	9	...........
	24	0.333333	1.44160E-001	-2.78428E-004	0.00000E+000	-4.01381E-005	-1.68088E-001	1.44190E-001	3.57880E+000	9	...........
	25	0.346667	1.37913E-001	-2.78401E-004	0.00000E+000	-3.83950E-005	-1.68088E-001	1.37950E-001	3.57880E+000	9	...........
	26	0.36	1.31982E-001	-2.79450E-004	0.00000E+000	-3.68824E-005	-1.68088E-001	1.32014E-001	3.57880E+000	9	...........
	27	0.373333	1.26296E-001	-2.79256E-004	0.00000E+000	-3.52690E-005	-1.68088E-001	1.26326E-001	3.57880E+000	9	...........
	28	0.386667	1.20850E-001	-2.79224E-004	0.00000E+000	-3.37443E-005	-1.68088E-001	1.20888E-001	3.57880E+000	9	...........
	29	0.4	1.15603E-001	-2.78148E-004	0.00000E+000	-3.21548E-005	-1.68088E-001	1.15630E-001	3.57880E+000	9	...........
	30	0.413333	1.10605E-001	-2.77757E-004	0.00000E+000	-3.07213E-005	-1.68088E-001	1.10631E-001	3.57880E+000	9	...........
	31	0.426667	1.05814E-001	-2.79220E-004	0.00000E+000	-2.95453E-005	-1.68088E-001	1.05839E-001	3.57880E+000	9	...........
	32	0.44	1.01198E-001	-2.78734E-004	0.00000E+000	-2.82072E-005	-1.68088E-001	1.01220E-001	3.57880E+000	9	...........
	33	0.453333	9.67441E-002	-2.79705E-004	0.00000E+000	-2.70599E-005	-1.68088E-001	9.67756E-002	3.57880E+000	9	...........
	34	0.466667	9.24710E-002	-2.79417E-004	0.00000E+000	-2.58379E-005	-1.68088E-001	9.24990E-002	3.57880E+000	9	...........
	35	0.48	8.83093E-002	-2.79633E-004	0.00000E+000	-2.46942E-005	-1.68088E-001	8.83360E-002	3.57862E+000	9	...........
	36	0.493333	8.42779E-002	-2.79434E-004	0.00000E+000	-2.35501E-005	-1.68088E-001	8.43005E-002	3.57740E+000	9	...........
	37	0.506667	8.03455E-002	-2.77760E-004	0.00000E+000	-2.23168E-005	-1.68088E-001	8.03671E-002	3.57740E+000	9	...........
	38	0.52	7.64388E-002	-2.77836E-004	0.00000E+000	-2.12375E-005	-1.68088E-001	7.64602E-002	3.57740E+000	9	...........
	39	0.533333	7.26692E-002	-2.78678E-004	0.00000E+000	-2.02513E-005	-1.68088E-001	7.26868E-002	3.57740E+000	9	...........
	40	0.546667	6.90639E-002	-2.78033E-004	0.00000E+000	-1.92020E-005	-1.68088E-001	6.90776E-002	3.57740E+000	9	...........
	41	0.56	6.55536E-002	-2.78982E-004	0.00000E+000	-1.82883E-005	-1.68088E-001	6.55716E-002	3.57740E+000	9	...........
	42	0.573333	6.21142E-002	-2.78775E-004	0.00000E+000	-1.73159E-005	-1.68088E-001	6.21227E-002	3.57740E+000	9	...........
	43	0.586667	5.87758E-002	-2.79128E-004	0.00000E+000	-1.64060E-005	-1.68088E-001	5.87877E-002	3.57740E+000	9	...........
	44	0.6	5.54822E-002	-2.77400E-004	0.00000E+000	-1.53907E-005	-1.68088E-001	5.54952E-002	3.57740E+000	9	...........
	45	0.613333	5.22447E-002	-2.79125E-004	0.00000E+000	-1.45828E-005	-1.68088E-001	5.22532E-002	3.57740E+000	9	...........
	46	0.626667	4.90718E-002	-2.78996E-004	0.00000E+000	-1.36908E-005	-1.68088E-001	4.90772E-002	3.57740E+000	9	...........
	47	0.64	4.59185E-002	-2.77748E-004	0.00000E+000	-1.27538E-005	-1.68088E-001	4.59351E-002	3.57740E+000	9	...........
	48	0.653333	4.28473E-002	-2.78763E-004	0.00000E+000	-1.19443E-005	-1.68088E-001	4.28567E-002	3.57740E+000	9	...........
	49	0.666667	3.98564E-002	-2.78729E-004	0.00000E+000	-1.11091E-005	-1.68088E-001	3.98601E-002	3.57740E+000	9	...........
	50	0.68	3.69181E-002	-2.79144E-004	0.00000E+000	-1.03054E-005	-1.68088E-001	3.69240E-002	3.57740E+000	9	...........
	51	0.693333	3.39956E-002	-2.79352E-004	0.00000E+000	-9.49675E-006	-1.68088E-001	3.39999E-002	3.57740E+000	9	...........
	52	0.706667	3.11384E-002	-2.79196E-004	0.00000E+000	-8.69370E-006	-1.68088E-001	3.11390E-002	3.57740E+000	9	...........
	53	0.72	2.83447E-002	-2.79029E-004	0.00000E+000	-7.90900E-006	-1.68088E-001	2.83492E-002	3.57740E+000	9	...........
	54	0.733333	2.55513E-002	-2.78479E-004	0.00000E+000	-7.11549E-006	-1.68088E-001	2.55504E-002	3.57740E+000	9	...........
	55	0.746667	2.28030E-002	-2.79192E-004	0.00000E+000	-6.36641E-006	-1.68088E-001	2.28011E-002	3.57740E+000	9	...........
	56	0.76	2.01281E-002	-2.78017E-004	0.00000E+000	-5.59595E-006	-1.68088E-001	2.01264E-002	3.57740E+000	9	...........
	57	0.773333	1.74590E-002	-2.78306E-004	0.00000E+000	-4.85894E-006	-1.68088E-001	1.74530E-002	3.57740E+000	9	...........
	58	0.786667	1.48032E-002	-2.79544E-004	0.00000E+000	-4.13813E-006	-1.68088E-001	1.47950E-002	3.57740E+000	9	...........
	59	0.8	1.22609E-002	-2.77935E-004	0.00000E+000	-3.40772E-006	-1.68088E-001	1.22511E-002	3.57740E+000	9	...........
	60	0.813333	9.76600E-003	-2.78976E-004	0.00000E+000	-2.72448E-006	-1.68088E-001	9.75561E-003	3.57740E+000	9	...........
	61	0.826667	7.25835E-003	-2.79831E-004	0.00000E+000	-2.03111E-006	-1.68088E-001	7.24723E-003	3.57740E+000	9	...........
	62	0.84	4.73640E-003	-2.78745E-004	0.00000E+000	-1.32025E-006	-1.68088E-001	4.72474E-003	3.57740E+000	9	...........
	63	0.853333	2.27311E-003	-2.78924E-004	0.00000E+000	-6.34024E-007	-1.68088E-001	2.25479E-003	3.57740E+000	9	...........
	64	0.86	4.53440E-004	-2.77543E-004	0.00000E+000	-1.25849E-007	-1.68088E-001	4.34432E-004	3.57740E+000	9	...........
STARTTIMEOFFSET	QUANT	1303.091	Start Time Offset (s)
