EXPLAIN
TAG	PWR800_DISCHARGE
TITLE	LABEL	PWR Cyclic Charge Discharge (Cell) - Discharge Step	Test &Identifier
DATE	LABEL	7-7-2017	Date
TIME	LABEL	16:22:07	Time
NOTES	NOTES	3	&Notes...
	supercap test cell
	2.8mg
	6M KOH
PSTAT	PSTAT	IFC5000-01520	Potentiostat
CAPACITY	QUANT	1.00000E-003	Capacity (A-hr)
CELLTYPE	SELECTOR	1	&Cell Type
WORKINGCONNECTION	SELECTOR	0	&Working Lead
MAXDISCHARGETIME	VARIABLEANDUNITS	1.00000E+002	s	1.00000E+002	second(s)	Max &Discharge Time
DISCHARGEMODE	MULTIPARAM	0	2.80000E-004	&Discharge Mode	Constant Current	Amp(s)
SAMPLETIME	QUANT	1.00000E-002	Sa&mple Period (s)
DISCHARGESTOPAT1	MULTIPARAM	3	0.00000E+000	Discharge Stop At &1	Voltage < Limit	V
DISCHARGESTOPAT2	MULTIPARAM	0	0.00000E+000	Discharge Stop At &2	None	N/A
AESBHCSELECTOR	TOGGLE	F	Save Both Half Cells
IRCOMP	TOGGLE	F	IR &Measure
EOC	QUANT	0	Open Circuit (V)
SEQUENCER	TOGGLE	TRUE	Run as Sequence
PSTATMODEL	IQUANT	53	Pstat Model
PSTATSECTION	LABEL	IFC5000-01520	Pstat Section
PSTATSERIALNO	LABEL	01520	Pstat Serial Number
CTRLMODE	IQUANT	0	Control Mode
ELECTROMETER	IQUANT	1	RE=0 or CS=1
IESTAB	IQUANT	0	I/E Stability
CASPEED	IQUANT	4	Control Amp Speed
CONVENTION	IQUANT	1	Current Convention
ICHRANGE	IQUANT	2	Ich Range
ICHRANGEMODE	TOGGLE	T	Ich Auto Range
ICHOFFSETENABLE	TOGGLE	F	Ich Offset Enable
ICHOFFSET	QUANT	0	Ich Offset (V)
ICHFILTER	IQUANT	1	Ich Filter
VCHRANGE	IQUANT	2	Vch Range
VCHRANGEMODE	TOGGLE	T	Vch Auto Range
VCHOFFSETENABLE	TOGGLE	F	Vch Offset Enable
VCHOFFSET	QUANT	0	Vch Offset (V)
VCHFILTER	IQUANT	1	Vch Filter
IERANGELOWERLIMIT	IQUANT	9	I/E Range Lower Limit
IERANGEMODE	TOGGLE	F	I/E AutoRange
IERANGE	IQUANT	9	I/E Range
ACHSELECT	IQUANT	1	Ach Select
ACHRANGE	IQUANT	2	Ach Range
ACHOFFSETENABLE	TOGGLE	F	Ach Offset Enable
ACHOFFSET	QUANT	0	Ach Offset (V)
ACHFILTER	IQUANT	1	Ach Filter
CABLEID	IQUANT	14	Cable ID
DCCALDATE	LABEL	5-7-2017	DC Calibration Date
ACCALDATE	LABEL	12/3/2015	AC Calibration Date
FRAMEWORKVERSION	QUANT	7.01	Framework Version
INSTRUMENTVERSION	LABEL	4.00	Instrument Version
CURVE	TABLE	53
	Pt	T	Vf	Im	Vu	Pwr	Sig	Ach	Temp	IERange	Over
	#	s	V	A	V	W	V	V	deg C	#	bits
	0	0.013333	5.15179E-001	-2.77955E-004	0.00000E+000	-1.43197E-004	-1.68088E-001	5.15464E-001	3.57840E+000	9	...........
	1	0.026667	4.81456E-001	-2.79705E-004	0.00000E+000	-1.34666E-004	-1.68088E-001	4.81636E-001	3.57840E+000	9	...........
	2	0.04	4.50479E-001	-2.78363E-004	0.00000E+000	-1.25397E-004	-1.68088E-001	4.50589E-001	3.57840E+000	9	...........
	3	0.053333	4.21525E-001	-2.79733E-004	0.00000E+000	-1.17915E-004	-1.68088E-001	4.21618E-001	3.57840E+000	9	...........
	4	0.066667	3.94472E-001	-2.78634E-004	0.00000E+000	-1.09913E-004	-1.68088E-001	3.94556E-001	3.57840E+000	9	...........
	5	0.08	3.69171E-001	-2.77865E-004	0.00000E+000	-1.02580E-004	-1.68088E-001	3.69250E-001	3.57840E+000	9	...........
	6	0.093333	3.45527E-001	-2.79136E-004	0.00000E+000	-9.64493E-005	-1.68088E-001	3.45600E-001	3.57840E+000	9	...........
	7	0.106667	3.23465E-001	-2.77306E-004	0.00000E+000	-8.96988E-005	-1.68088E-001	3.23540E-001	3.57840E+000	9	...........
	8	0.12	3.02920E-001	-2.78121E-004	0.00000E+000	-8.42483E-005	-1.68088E-001	3.02990E-001	3.57840E+000	9	...........
	9	0.133333	2.83771E-001	-2.78861E-004	0.00000E+000	-7.91328E-005	-1.68088E-001	2.83835E-001	3.57840E+000	9	...........
	10	0.146667	2.65979E-001	-2.79201E-004	0.00000E+000	-7.42615E-005	-1.68088E-001	2.66050E-001	3.57840E+000	9	...........
	11	0.16	2.49495E-001	-2.78749E-004	0.00000E+000	-6.95465E-005	-1.68088E-001	2.49547E-001	3.57840E+000	9	...........
	12	0.173333	2.34199E-001	-2.78858E-004	0.00000E+000	-6.53083E-005	-1.68088E-001	2.34249E-001	3.57836E+000	9	...........
	13	0.186667	2.19990E-001	-2.78489E-004	0.00000E+000	-6.12649E-005	-1.68088E-001	2.20040E-001	3.57830E+000	9	...........
	14	0.2	2.06756E-001	-2.79754E-004	0.00000E+000	-5.78410E-005	-1.68088E-001	2.06801E-001	3.57830E+000	9	...........
	15	0.213333	1.94488E-001	-2.79482E-004	0.00000E+000	-5.43560E-005	-1.68088E-001	1.94535E-001	3.57830E+000	9	...........
	16	0.226667	1.83073E-001	-2.78781E-004	0.00000E+000	-5.10374E-005	-1.68088E-001	1.83113E-001	3.57830E+000	9	...........
	17	0.24	1.72474E-001	-2.79769E-004	0.00000E+000	-4.82528E-005	-1.68088E-001	1.72516E-001	3.57830E+000	9	...........
	18	0.253333	1.62578E-001	-2.79480E-004	0.00000E+000	-4.54374E-005	-1.68088E-001	1.62610E-001	3.57830E+000	9	...........
	19	0.266667	1.53321E-001	-2.79871E-004	0.00000E+000	-4.29101E-005	-1.68088E-001	1.53355E-001	3.57830E+000	9	...........
	20	0.28	1.44654E-001	-2.78672E-004	0.00000E+000	-4.03111E-005	-1.68088E-001	1.44685E-001	3.57830E+000	9	...........
	21	0.293333	1.36497E-001	-2.78182E-004	0.00000E+000	-3.79710E-005	-1.68088E-001	1.36523E-001	3.57830E+000	9	...........
	22	0.306667	1.28813E-001	-2.79641E-004	0.00000E+000	-3.60214E-005	-1.68088E-001	1.28847E-001	3.57830E+000	9	...........
	23	0.32	1.21576E-001	-2.79094E-004	0.00000E+000	-3.39311E-005	-1.68088E-001	1.21603E-001	3.57830E+000	9	...........
	24	0.333333	1.14737E-001	-2.78642E-004	0.00000E+000	-3.19705E-005	-1.68088E-001	1.14764E-001	3.57830E+000	9	...........
	25	0.346667	1.08232E-001	-2.79980E-004	0.00000E+000	-3.03028E-005	-1.68088E-001	1.08255E-001	3.57830E+000	9	...........
	26	0.36	1.02103E-001	-2.77212E-004	0.00000E+000	-2.83041E-005	-1.68088E-001	1.02126E-001	3.57830E+000	9	...........
	27	0.373333	9.62492E-002	-2.79621E-004	0.00000E+000	-2.69133E-005	-1.68088E-001	9.62673E-002	3.57830E+000	9	...........
	28	0.386667	9.06438E-002	-2.78899E-004	0.00000E+000	-2.52805E-005	-1.68088E-001	9.06631E-002	3.57830E+000	9	...........
	29	0.4	8.53171E-002	-2.80172E-004	0.00000E+000	-2.39035E-005	-1.68088E-001	8.53392E-002	3.57830E+000	9	...........
	30	0.413333	8.02275E-002	-2.79427E-004	0.00000E+000	-2.24177E-005	-1.68088E-001	8.02352E-002	3.57830E+000	9	...........
	31	0.426667	7.53611E-002	-2.79425E-004	0.00000E+000	-2.10578E-005	-1.68088E-001	7.53722E-002	3.57830E+000	9	...........
	32	0.44	7.06720E-002	-2.79543E-004	0.00000E+000	-1.97558E-005	-1.68088E-001	7.06847E-002	3.57830E+000	9	...........
	33	0.453333	6.61389E-002	-2.79363E-004	0.00000E+000	-1.84767E-005	-1.68088E-001	6.61495E-002	3.57830E+000	9	...........
	34	0.466667	6.17402E-002	-2.78551E-004	0.00000E+000	-1.71978E-005	-1.68088E-001	6.17517E-002	3.57830E+000	9	...........
	35	0.48	5.74792E-002	-2.78776E-004	0.00000E+000	-1.60238E-005	-1.68088E-001	5.74902E-002	3.57830E+000	9	...........
	36	0.493333	5.33653E-002	-2.79035E-004	0.00000E+000	-1.48908E-005	-1.68088E-001	5.33720E-002	3.57830E+000	9	...........
	37	0.506667	4.93658E-002	-2.78677E-004	0.00000E+000	-1.37571E-005	-1.68088E-001	4.93704E-002	3.57830E+000	9	...........
	38	0.52	4.55093E-002	-2.78631E-004	0.00000E+000	-1.26803E-005	-1.68088E-001	4.55189E-002	3.57830E+000	9	...........
	39	0.533333	4.17169E-002	-2.79392E-004	0.00000E+000	-1.16554E-005	-1.68088E-001	4.17189E-002	3.57830E+000	9	...........
	40	0.546667	3.80306E-002	-2.79073E-004	0.00000E+000	-1.06133E-005	-1.68088E-001	3.80305E-002	3.57830E+000	9	...........
	41	0.56	3.44830E-002	-2.79804E-004	0.00000E+000	-9.64850E-006	-1.68088E-001	3.44836E-002	3.57830E+000	9	...........
	42	0.573333	3.10225E-002	-2.79124E-004	0.00000E+000	-8.65912E-006	-1.68088E-001	3.10234E-002	3.57830E+000	9	...........
	43	0.586667	2.76389E-002	-2.79185E-004	0.00000E+000	-7.71638E-006	-1.68088E-001	2.76356E-002	3.57830E+000	9	...........
	44	0.6	2.43209E-002	-2.79871E-004	0.00000E+000	-6.80671E-006	-1.68088E-001	2.43127E-002	3.57830E+000	9	...........
	45	0.613333	2.10801E-002	-2.78935E-004	0.00000E+000	-5.87998E-006	-1.68088E-001	2.10755E-002	3.57830E+000	9	...........
	46	0.626667	1.79024E-002	-2.80803E-004	0.00000E+000	-5.02707E-006	-1.68088E-001	1.78949E-002	3.57830E+000	9	...........
	47	0.64	1.47932E-002	-2.79036E-004	0.00000E+000	-4.12783E-006	-1.68088E-001	1.47872E-002	3.57830E+000	9	...........
	48	0.653333	1.17568E-002	-2.78216E-004	0.00000E+000	-3.27095E-006	-1.68088E-001	1.17463E-002	3.57830E+000	9	...........
	49	0.666667	8.71721E-003	-2.78726E-004	0.00000E+000	-2.42971E-006	-1.68088E-001	8.70343E-003	3.57830E+000	9	...........
	50	0.68	5.71430E-003	-2.79428E-004	0.00000E+000	-1.59674E-006	-1.68088E-001	5.69653E-003	3.57830E+000	9	...........
	51	0.693333	2.84147E-003	-2.80002E-004	0.00000E+000	-7.95619E-007	-1.68088E-001	2.82709E-003	3.57830E+000	9	...........
	52	0.701667	5.16895E-004	-2.80292E-004	0.00000E+000	-1.44881E-007	-1.68088E-001	4.99253E-004	3.57830E+000	9	...........
STARTTIMEOFFSET	QUANT	2004.287	Start Time Offset (s)
