EXPLAIN
TAG	PWR800_DISCHARGE
TITLE	LABEL	PWR Cyclic Charge Discharge (Cell) - Discharge Step	Test &Identifier
DATE	LABEL	7-7-2017	Date
TIME	LABEL	15:59:24	Time
NOTES	NOTES	3	&Notes...
	supercap test cell
	2.8mg
	6M KOH
PSTAT	PSTAT	IFC5000-01520	Potentiostat
CAPACITY	QUANT	1.00000E-003	Capacity (A-hr)
CELLTYPE	SELECTOR	1	&Cell Type
WORKINGCONNECTION	SELECTOR	0	&Working Lead
MAXDISCHARGETIME	VARIABLEANDUNITS	1.00000E+002	s	1.00000E+002	second(s)	Max &Discharge Time
DISCHARGEMODE	MULTIPARAM	0	2.80000E-004	&Discharge Mode	Constant Current	Amp(s)
SAMPLETIME	QUANT	1.00000E-002	Sa&mple Period (s)
DISCHARGESTOPAT1	MULTIPARAM	3	0.00000E+000	Discharge Stop At &1	Voltage < Limit	V
DISCHARGESTOPAT2	MULTIPARAM	0	0.00000E+000	Discharge Stop At &2	None	N/A
AESBHCSELECTOR	TOGGLE	F	Save Both Half Cells
IRCOMP	TOGGLE	F	IR &Measure
EOC	QUANT	0	Open Circuit (V)
SEQUENCER	TOGGLE	TRUE	Run as Sequence
PSTATMODEL	IQUANT	53	Pstat Model
PSTATSECTION	LABEL	IFC5000-01520	Pstat Section
PSTATSERIALNO	LABEL	01520	Pstat Serial Number
CTRLMODE	IQUANT	0	Control Mode
ELECTROMETER	IQUANT	1	RE=0 or CS=1
IESTAB	IQUANT	0	I/E Stability
CASPEED	IQUANT	4	Control Amp Speed
CONVENTION	IQUANT	1	Current Convention
ICHRANGE	IQUANT	2	Ich Range
ICHRANGEMODE	TOGGLE	T	Ich Auto Range
ICHOFFSETENABLE	TOGGLE	F	Ich Offset Enable
ICHOFFSET	QUANT	0	Ich Offset (V)
ICHFILTER	IQUANT	1	Ich Filter
VCHRANGE	IQUANT	2	Vch Range
VCHRANGEMODE	TOGGLE	T	Vch Auto Range
VCHOFFSETENABLE	TOGGLE	F	Vch Offset Enable
VCHOFFSET	QUANT	0	Vch Offset (V)
VCHFILTER	IQUANT	1	Vch Filter
IERANGELOWERLIMIT	IQUANT	9	I/E Range Lower Limit
IERANGEMODE	TOGGLE	F	I/E AutoRange
IERANGE	IQUANT	9	I/E Range
ACHSELECT	IQUANT	1	Ach Select
ACHRANGE	IQUANT	2	Ach Range
ACHOFFSETENABLE	TOGGLE	F	Ach Offset Enable
ACHOFFSET	QUANT	0	Ach Offset (V)
ACHFILTER	IQUANT	1	Ach Filter
CABLEID	IQUANT	14	Cable ID
DCCALDATE	LABEL	5-7-2017	DC Calibration Date
ACCALDATE	LABEL	12/3/2015	AC Calibration Date
FRAMEWORKVERSION	QUANT	7.01	Framework Version
INSTRUMENTVERSION	LABEL	4.00	Instrument Version
CURVE	TABLE	72
	Pt	T	Vf	Im	Vu	Pwr	Sig	Ach	Temp	IERange	Over
	#	s	V	A	V	W	V	V	deg C	#	bits
	0	0.013333	5.36048E-001	-2.77940E-004	0.00000E+000	-1.48989E-004	-1.68088E-001	5.36335E-001	3.57780E+000	9	...........
	1	0.026667	5.03811E-001	-2.77566E-004	0.00000E+000	-1.39841E-004	-1.68088E-001	5.04096E-001	3.57780E+000	9	...........
	2	0.04	4.74613E-001	-2.79103E-004	0.00000E+000	-1.32466E-004	-1.68088E-001	4.74775E-001	3.57780E+000	9	...........
	3	0.053333	4.47437E-001	-2.78576E-004	0.00000E+000	-1.24645E-004	-1.68088E-001	4.47548E-001	3.57780E+000	9	...........
	4	0.066667	4.22096E-001	-2.78579E-004	0.00000E+000	-1.17587E-004	-1.68088E-001	4.22203E-001	3.57780E+000	9	...........
	5	0.08	3.98476E-001	-2.79023E-004	0.00000E+000	-1.11184E-004	-1.68088E-001	3.98568E-001	3.57780E+000	9	...........
	6	0.093333	3.76478E-001	-2.79837E-004	0.00000E+000	-1.05352E-004	-1.68088E-001	3.76566E-001	3.57780E+000	9	...........
	7	0.106667	3.55973E-001	-2.78696E-004	0.00000E+000	-9.92083E-005	-1.68088E-001	3.56061E-001	3.57780E+000	9	...........
	8	0.12	3.36941E-001	-2.78311E-004	0.00000E+000	-9.37746E-005	-1.68088E-001	3.37021E-001	3.57780E+000	9	...........
	9	0.133333	3.19226E-001	-2.77372E-004	0.00000E+000	-8.85443E-005	-1.68088E-001	3.19304E-001	3.57780E+000	9	...........
	10	0.146667	3.02753E-001	-2.79859E-004	0.00000E+000	-8.47281E-005	-1.68088E-001	3.02830E-001	3.57780E+000	9	...........
	11	0.16	2.87459E-001	-2.78502E-004	0.00000E+000	-8.00580E-005	-1.68088E-001	2.87531E-001	3.57780E+000	9	...........
	12	0.173333	2.73271E-001	-2.79272E-004	0.00000E+000	-7.63169E-005	-1.68088E-001	2.73343E-001	3.57780E+000	9	...........
	13	0.186667	2.60045E-001	-2.78836E-004	0.00000E+000	-7.25101E-005	-1.68088E-001	2.60112E-001	3.57780E+000	9	...........
	14	0.2	2.47763E-001	-2.80602E-004	0.00000E+000	-6.95228E-005	-1.68088E-001	2.47821E-001	3.57780E+000	9	...........
	15	0.213333	2.36323E-001	-2.78552E-004	0.00000E+000	-6.58282E-005	-1.68088E-001	2.36376E-001	3.57780E+000	9	...........
	16	0.226667	2.25639E-001	-2.78865E-004	0.00000E+000	-6.29227E-005	-1.68088E-001	2.25693E-001	3.57780E+000	9	...........
	17	0.24	2.15642E-001	-2.77758E-004	0.00000E+000	-5.98963E-005	-1.68088E-001	2.15694E-001	3.57780E+000	9	...........
	18	0.253333	2.06243E-001	-2.79090E-004	0.00000E+000	-5.75603E-005	-1.68088E-001	2.06291E-001	3.57780E+000	9	...........
	19	0.266667	1.97455E-001	-2.78991E-004	0.00000E+000	-5.50880E-005	-1.68088E-001	1.97500E-001	3.57780E+000	9	...........
	20	0.28	1.89203E-001	-2.78060E-004	0.00000E+000	-5.26100E-005	-1.68088E-001	1.89246E-001	3.57780E+000	9	...........
	21	0.293333	1.81371E-001	-2.78349E-004	0.00000E+000	-5.04845E-005	-1.68088E-001	1.81418E-001	3.57780E+000	9	...........
	22	0.306667	1.74015E-001	-2.78171E-004	0.00000E+000	-4.84059E-005	-1.68088E-001	1.74061E-001	3.57780E+000	9	...........
	23	0.32	1.67039E-001	-2.79671E-004	0.00000E+000	-4.67160E-005	-1.68088E-001	1.67083E-001	3.57780E+000	9	...........
	24	0.333333	1.60470E-001	-2.78793E-004	0.00000E+000	-4.47378E-005	-1.68088E-001	1.60502E-001	3.57780E+000	9	...........
	25	0.346667	1.54227E-001	-2.79864E-004	0.00000E+000	-4.31626E-005	-1.68088E-001	1.54262E-001	3.57780E+000	9	...........
	26	0.36	1.48288E-001	-2.78566E-004	0.00000E+000	-4.13079E-005	-1.68088E-001	1.48318E-001	3.57780E+000	9	...........
	27	0.373333	1.42593E-001	-2.78658E-004	0.00000E+000	-3.97346E-005	-1.68088E-001	1.42630E-001	3.57780E+000	9	...........
	28	0.386667	1.37197E-001	-2.77421E-004	0.00000E+000	-3.80614E-005	-1.68088E-001	1.37231E-001	3.57780E+000	9	...........
	29	0.4	1.32024E-001	-2.78126E-004	0.00000E+000	-3.67193E-005	-1.68088E-001	1.32058E-001	3.57780E+000	9	...........
	30	0.413333	1.26985E-001	-2.79726E-004	0.00000E+000	-3.55211E-005	-1.68088E-001	1.27012E-001	3.57780E+000	9	...........
	31	0.426667	1.22149E-001	-2.78639E-004	0.00000E+000	-3.40356E-005	-1.68088E-001	1.22177E-001	3.57780E+000	9	...........
	32	0.44	1.17467E-001	-2.79290E-004	0.00000E+000	-3.28075E-005	-1.68088E-001	1.17494E-001	3.57780E+000	9	...........
	33	0.453333	1.12984E-001	-2.78542E-004	0.00000E+000	-3.14707E-005	-1.68088E-001	1.13016E-001	3.57780E+000	9	...........
	34	0.466667	1.08630E-001	-2.78981E-004	0.00000E+000	-3.03056E-005	-1.68088E-001	1.08653E-001	3.57780E+000	9	...........
	35	0.48	1.04457E-001	-2.78800E-004	0.00000E+000	-2.91227E-005	-1.68088E-001	1.04482E-001	3.57780E+000	9	...........
	36	0.493333	1.00369E-001	-2.79412E-004	0.00000E+000	-2.80443E-005	-1.68088E-001	1.00401E-001	3.57780E+000	9	...........
	37	0.506667	9.63829E-002	-2.79182E-004	0.00000E+000	-2.69084E-005	-1.68088E-001	9.64080E-002	3.57780E+000	9	...........
	38	0.52	9.25316E-002	-2.78699E-004	0.00000E+000	-2.57884E-005	-1.68088E-001	9.25531E-002	3.57780E+000	9	...........
	39	0.533333	8.87890E-002	-2.79091E-004	0.00000E+000	-2.47802E-005	-1.68088E-001	8.88100E-002	3.57780E+000	9	...........
	40	0.546667	8.51949E-002	-2.78023E-004	0.00000E+000	-2.36861E-005	-1.68088E-001	8.52182E-002	3.57780E+000	9	...........
	41	0.56	8.16447E-002	-2.79186E-004	0.00000E+000	-2.27941E-005	-1.68088E-001	8.16627E-002	3.57780E+000	9	...........
	42	0.573333	7.81646E-002	-2.78895E-004	0.00000E+000	-2.17997E-005	-1.68088E-001	7.81822E-002	3.57780E+000	9	...........
	43	0.586667	7.48194E-002	-2.78771E-004	0.00000E+000	-2.08575E-005	-1.68088E-001	7.48370E-002	3.57780E+000	9	...........
	44	0.6	7.15010E-002	-2.78892E-004	0.00000E+000	-1.99410E-005	-1.68088E-001	7.15160E-002	3.57780E+000	9	...........
	45	0.613333	6.82493E-002	-2.78373E-004	0.00000E+000	-1.89988E-005	-1.68088E-001	6.82553E-002	3.57780E+000	9	...........
	46	0.626667	6.50690E-002	-2.79636E-004	0.00000E+000	-1.81956E-005	-1.68088E-001	6.50786E-002	3.57780E+000	9	...........
	47	0.64	6.19137E-002	-2.78746E-004	0.00000E+000	-1.72582E-005	-1.68088E-001	6.19277E-002	3.57780E+000	9	...........
	48	0.653333	5.88406E-002	-2.77954E-004	0.00000E+000	-1.63550E-005	-1.68088E-001	5.88534E-002	3.57780E+000	9	...........
	49	0.666667	5.58174E-002	-2.78077E-004	0.00000E+000	-1.55215E-005	-1.68088E-001	5.58275E-002	3.57780E+000	9	...........
	50	0.68	5.28572E-002	-2.78040E-004	0.00000E+000	-1.46964E-005	-1.68088E-001	5.28697E-002	3.57780E+000	9	...........
	51	0.693333	4.99562E-002	-2.78895E-004	0.00000E+000	-1.39325E-005	-1.68088E-001	4.99625E-002	3.57780E+000	9	...........
	52	0.706667	4.71245E-002	-2.78758E-004	0.00000E+000	-1.31364E-005	-1.68088E-001	4.71278E-002	3.57780E+000	9	...........
	53	0.72	4.42755E-002	-2.79674E-004	0.00000E+000	-1.23827E-005	-1.68088E-001	4.42844E-002	3.57780E+000	9	...........
	54	0.733333	4.14596E-002	-2.77988E-004	0.00000E+000	-1.15253E-005	-1.68088E-001	4.14660E-002	3.57780E+000	9	...........
	55	0.746667	3.86817E-002	-2.79819E-004	0.00000E+000	-1.08239E-005	-1.68088E-001	3.86870E-002	3.57780E+000	9	...........
	56	0.76	3.59388E-002	-2.79880E-004	0.00000E+000	-1.00586E-005	-1.68088E-001	3.59449E-002	3.57780E+000	9	...........
	57	0.773333	3.32873E-002	-2.77767E-004	0.00000E+000	-9.24613E-006	-1.68088E-001	3.32911E-002	3.57780E+000	9	...........
	58	0.786667	3.06535E-002	-2.78425E-004	0.00000E+000	-8.53469E-006	-1.68088E-001	3.06572E-002	3.57780E+000	9	...........
	59	0.8	2.80848E-002	-2.79183E-004	0.00000E+000	-7.84082E-006	-1.68088E-001	2.80829E-002	3.57862E+000	9	...........
	60	0.813333	2.55140E-002	-2.78713E-004	0.00000E+000	-7.11111E-006	-1.68088E-001	2.55158E-002	3.57890E+000	9	...........
	61	0.826667	2.29559E-002	-2.78214E-004	0.00000E+000	-6.38666E-006	-1.68088E-001	2.29497E-002	3.57890E+000	9	...........
	62	0.84	2.04195E-002	-2.80212E-004	0.00000E+000	-5.72178E-006	-1.68088E-001	2.04186E-002	3.57890E+000	9	...........
	63	0.853333	1.79008E-002	-2.80421E-004	0.00000E+000	-5.01975E-006	-1.68088E-001	1.78882E-002	3.57890E+000	9	...........
	64	0.866667	1.54616E-002	-2.79145E-004	0.00000E+000	-4.31602E-006	-1.68088E-001	1.54492E-002	3.57890E+000	9	...........
	65	0.88	1.30593E-002	-2.79867E-004	0.00000E+000	-3.65485E-006	-1.68088E-001	1.30473E-002	3.57890E+000	9	...........
	66	0.893333	1.07107E-002	-2.78145E-004	0.00000E+000	-2.97911E-006	-1.68088E-001	1.06985E-002	3.57890E+000	9	...........
	67	0.906667	8.33085E-003	-2.78596E-004	0.00000E+000	-2.32094E-006	-1.68088E-001	8.31940E-003	3.57890E+000	9	...........
	68	0.92	5.97510E-003	-2.79705E-004	0.00000E+000	-1.67127E-006	-1.68088E-001	5.96142E-003	3.57890E+000	9	...........
	69	0.933333	3.61680E-003	-2.79509E-004	0.00000E+000	-1.01093E-006	-1.68088E-001	3.59933E-003	3.57890E+000	9	...........
	70	0.946667	1.32833E-003	-2.78858E-004	0.00000E+000	-3.70416E-007	-1.68088E-001	1.31171E-003	3.57890E+000	9	...........
	71	0.95	-9.11849E-005	-2.76972E-004	0.00000E+000	2.52557E-008	-1.68088E-001	-1.12918E-004	3.57890E+000	9	...........
STARTTIMEOFFSET	QUANT	1084.051	Start Time Offset (s)
