EXPLAIN
TAG	PWR800_DISCHARGE
TITLE	LABEL	PWR Cyclic Charge Discharge (Cell) - Discharge Step	Test &Identifier
DATE	LABEL	7-7-2017	Date
TIME	LABEL	16:23:09	Time
NOTES	NOTES	3	&Notes...
	supercap test cell
	2.8mg
	6M KOH
PSTAT	PSTAT	IFC5000-01520	Potentiostat
CAPACITY	QUANT	1.00000E-003	Capacity (A-hr)
CELLTYPE	SELECTOR	1	&Cell Type
WORKINGCONNECTION	SELECTOR	0	&Working Lead
MAXDISCHARGETIME	VARIABLEANDUNITS	1.00000E+002	s	1.00000E+002	second(s)	Max &Discharge Time
DISCHARGEMODE	MULTIPARAM	0	2.80000E-004	&Discharge Mode	Constant Current	Amp(s)
SAMPLETIME	QUANT	1.00000E-002	Sa&mple Period (s)
DISCHARGESTOPAT1	MULTIPARAM	3	0.00000E+000	Discharge Stop At &1	Voltage < Limit	V
DISCHARGESTOPAT2	MULTIPARAM	0	0.00000E+000	Discharge Stop At &2	None	N/A
AESBHCSELECTOR	TOGGLE	F	Save Both Half Cells
IRCOMP	TOGGLE	F	IR &Measure
EOC	QUANT	0	Open Circuit (V)
SEQUENCER	TOGGLE	TRUE	Run as Sequence
PSTATMODEL	IQUANT	53	Pstat Model
PSTATSECTION	LABEL	IFC5000-01520	Pstat Section
PSTATSERIALNO	LABEL	01520	Pstat Serial Number
CTRLMODE	IQUANT	0	Control Mode
ELECTROMETER	IQUANT	1	RE=0 or CS=1
IESTAB	IQUANT	0	I/E Stability
CASPEED	IQUANT	4	Control Amp Speed
CONVENTION	IQUANT	1	Current Convention
ICHRANGE	IQUANT	2	Ich Range
ICHRANGEMODE	TOGGLE	T	Ich Auto Range
ICHOFFSETENABLE	TOGGLE	F	Ich Offset Enable
ICHOFFSET	QUANT	0	Ich Offset (V)
ICHFILTER	IQUANT	1	Ich Filter
VCHRANGE	IQUANT	2	Vch Range
VCHRANGEMODE	TOGGLE	T	Vch Auto Range
VCHOFFSETENABLE	TOGGLE	F	Vch Offset Enable
VCHOFFSET	QUANT	0	Vch Offset (V)
VCHFILTER	IQUANT	1	Vch Filter
IERANGELOWERLIMIT	IQUANT	9	I/E Range Lower Limit
IERANGEMODE	TOGGLE	F	I/E AutoRange
IERANGE	IQUANT	9	I/E Range
ACHSELECT	IQUANT	1	Ach Select
ACHRANGE	IQUANT	2	Ach Range
ACHOFFSETENABLE	TOGGLE	F	Ach Offset Enable
ACHOFFSET	QUANT	0	Ach Offset (V)
ACHFILTER	IQUANT	1	Ach Filter
CABLEID	IQUANT	14	Cable ID
DCCALDATE	LABEL	5-7-2017	DC Calibration Date
ACCALDATE	LABEL	12/3/2015	AC Calibration Date
FRAMEWORKVERSION	QUANT	7.01	Framework Version
INSTRUMENTVERSION	LABEL	4.00	Instrument Version
CURVE	TABLE	52
	Pt	T	Vf	Im	Vu	Pwr	Sig	Ach	Temp	IERange	Over
	#	s	V	A	V	W	V	V	deg C	#	bits
	0	0.013333	5.16005E-001	-2.78996E-004	0.00000E+000	-1.43963E-004	-1.68088E-001	5.16225E-001	3.57770E+000	9	...........
	1	0.026667	4.82122E-001	-2.79222E-004	0.00000E+000	-1.34619E-004	-1.68088E-001	4.82296E-001	3.57770E+000	9	...........
	2	0.04	4.50967E-001	-2.78411E-004	0.00000E+000	-1.25554E-004	-1.68088E-001	4.51078E-001	3.57770E+000	9	...........
	3	0.053333	4.21819E-001	-2.78519E-004	0.00000E+000	-1.17485E-004	-1.68088E-001	4.21920E-001	3.57770E+000	9	...........
	4	0.066667	3.94588E-001	-2.79711E-004	0.00000E+000	-1.10370E-004	-1.68088E-001	3.94674E-001	3.57770E+000	9	...........
	5	0.08	3.69091E-001	-2.77675E-004	0.00000E+000	-1.02487E-004	-1.68088E-001	3.69177E-001	3.57770E+000	9	...........
	6	0.093333	3.45254E-001	-2.79650E-004	0.00000E+000	-9.65504E-005	-1.68088E-001	3.45333E-001	3.57770E+000	9	...........
	7	0.106667	3.23016E-001	-2.79895E-004	0.00000E+000	-9.04107E-005	-1.68088E-001	3.23087E-001	3.57770E+000	9	...........
	8	0.12	3.02264E-001	-2.78876E-004	0.00000E+000	-8.42941E-005	-1.68088E-001	3.02333E-001	3.57770E+000	9	...........
	9	0.133333	2.82924E-001	-2.79605E-004	0.00000E+000	-7.91070E-005	-1.68088E-001	2.82987E-001	3.57770E+000	9	...........
	10	0.146667	2.65000E-001	-2.79683E-004	0.00000E+000	-7.41160E-005	-1.68088E-001	2.65064E-001	3.57770E+000	9	...........
	11	0.16	2.48337E-001	-2.77261E-004	0.00000E+000	-6.88541E-005	-1.68088E-001	2.48391E-001	3.57770E+000	9	...........
	12	0.173333	2.32860E-001	-2.78976E-004	0.00000E+000	-6.49624E-005	-1.68088E-001	2.32911E-001	3.57770E+000	9	...........
	13	0.186667	2.18529E-001	-2.78083E-004	0.00000E+000	-6.07694E-005	-1.68088E-001	2.18583E-001	3.57730E+000	9	...........
	14	0.2	2.05218E-001	-2.79041E-004	0.00000E+000	-5.72642E-005	-1.68088E-001	2.05264E-001	3.57730E+000	9	...........
	15	0.213333	1.92853E-001	-2.78884E-004	0.00000E+000	-5.37836E-005	-1.68088E-001	1.92896E-001	3.57730E+000	9	...........
	16	0.226667	1.81350E-001	-2.79376E-004	0.00000E+000	-5.06648E-005	-1.68088E-001	1.81396E-001	3.57730E+000	9	...........
	17	0.24	1.70621E-001	-2.78270E-004	0.00000E+000	-4.74787E-005	-1.68088E-001	1.70664E-001	3.57730E+000	9	...........
	18	0.253333	1.60646E-001	-2.77048E-004	0.00000E+000	-4.45065E-005	-1.68088E-001	1.60681E-001	3.57730E+000	9	...........
	19	0.266667	1.51319E-001	-2.78989E-004	0.00000E+000	-4.22163E-005	-1.68088E-001	1.51349E-001	3.57730E+000	9	...........
	20	0.28	1.42589E-001	-2.79105E-004	0.00000E+000	-3.97973E-005	-1.68088E-001	1.42616E-001	3.57730E+000	9	...........
	21	0.293333	1.34382E-001	-2.78333E-004	0.00000E+000	-3.74028E-005	-1.68088E-001	1.34416E-001	3.57730E+000	9	...........
	22	0.306667	1.26664E-001	-2.80037E-004	0.00000E+000	-3.54705E-005	-1.68088E-001	1.26689E-001	3.57730E+000	9	...........
	23	0.32	1.19377E-001	-2.79115E-004	0.00000E+000	-3.33198E-005	-1.68088E-001	1.19405E-001	3.57730E+000	9	...........
	24	0.333333	1.12518E-001	-2.78420E-004	0.00000E+000	-3.13271E-005	-1.68088E-001	1.12544E-001	3.57730E+000	9	...........
	25	0.346667	1.06015E-001	-2.79403E-004	0.00000E+000	-2.96208E-005	-1.68088E-001	1.06031E-001	3.57730E+000	9	...........
	26	0.36	9.98914E-002	-2.79240E-004	0.00000E+000	-2.78936E-005	-1.68088E-001	9.99088E-002	3.57730E+000	9	...........
	27	0.373333	9.40321E-002	-2.80265E-004	0.00000E+000	-2.63539E-005	-1.68088E-001	9.40533E-002	3.57730E+000	9	...........
	28	0.386667	8.84558E-002	-2.79385E-004	0.00000E+000	-2.47133E-005	-1.68088E-001	8.84769E-002	3.57730E+000	9	...........
	29	0.4	8.31540E-002	-2.78348E-004	0.00000E+000	-2.31457E-005	-1.68088E-001	8.31732E-002	3.57730E+000	9	...........
	30	0.413333	7.80895E-002	-2.77425E-004	0.00000E+000	-2.16639E-005	-1.68088E-001	7.81007E-002	3.57730E+000	9	...........
	31	0.426667	7.31628E-002	-2.79616E-004	0.00000E+000	-2.04575E-005	-1.68088E-001	7.31752E-002	3.57730E+000	9	...........
	32	0.44	6.84297E-002	-2.78876E-004	0.00000E+000	-1.90834E-005	-1.68088E-001	6.84365E-002	3.57730E+000	9	...........
	33	0.453333	6.39096E-002	-2.79271E-004	0.00000E+000	-1.78481E-005	-1.68088E-001	6.39165E-002	3.57730E+000	9	...........
	34	0.466667	5.95877E-002	-2.78776E-004	0.00000E+000	-1.66116E-005	-1.68088E-001	5.95967E-002	3.57730E+000	9	...........
	35	0.48	5.53875E-002	-2.79363E-004	0.00000E+000	-1.54732E-005	-1.68088E-001	5.53991E-002	3.57730E+000	9	...........
	36	0.493333	5.13188E-002	-2.79824E-004	0.00000E+000	-1.43602E-005	-1.68088E-001	5.13287E-002	3.57730E+000	9	...........
	37	0.506667	4.73816E-002	-2.79845E-004	0.00000E+000	-1.32595E-005	-1.68088E-001	4.73806E-002	3.57730E+000	9	...........
	38	0.52	4.35167E-002	-2.79802E-004	0.00000E+000	-1.21761E-005	-1.68088E-001	4.35250E-002	3.57730E+000	9	...........
	39	0.533333	3.97264E-002	-2.77998E-004	0.00000E+000	-1.10438E-005	-1.68088E-001	3.97337E-002	3.57730E+000	9	...........
	40	0.546667	3.60769E-002	-2.78906E-004	0.00000E+000	-1.00621E-005	-1.68088E-001	3.60793E-002	3.57730E+000	9	...........
	41	0.56	3.24926E-002	-2.79470E-004	0.00000E+000	-9.08069E-006	-1.68088E-001	3.24935E-002	3.57730E+000	9	...........
	42	0.573333	2.90142E-002	-2.79015E-004	0.00000E+000	-8.09539E-006	-1.68088E-001	2.90121E-002	3.57730E+000	9	...........
	43	0.586667	2.56455E-002	-2.78984E-004	0.00000E+000	-7.15469E-006	-1.68088E-001	2.56421E-002	3.57730E+000	9	...........
	44	0.6	2.22715E-002	-2.79055E-004	0.00000E+000	-6.21499E-006	-1.68088E-001	2.22677E-002	3.57730E+000	9	...........
	45	0.613333	1.90195E-002	-2.79442E-004	0.00000E+000	-5.31483E-006	-1.68088E-001	1.90065E-002	3.57730E+000	9	...........
	46	0.626667	1.57823E-002	-2.79340E-004	0.00000E+000	-4.40863E-006	-1.68088E-001	1.57738E-002	3.57730E+000	9	...........
	47	0.64	1.26487E-002	-2.79050E-004	0.00000E+000	-3.52961E-006	-1.68088E-001	1.26353E-002	3.57730E+000	9	...........
	48	0.653333	9.56899E-003	-2.77948E-004	0.00000E+000	-2.65968E-006	-1.68088E-001	9.55672E-003	3.57730E+000	9	...........
	49	0.666667	6.57245E-003	-2.78517E-004	0.00000E+000	-1.83054E-006	-1.68088E-001	6.56288E-003	3.57730E+000	9	...........
	50	0.68	3.62440E-003	-2.78869E-004	0.00000E+000	-1.01073E-006	-1.68088E-001	3.60185E-003	3.57730E+000	9	...........
	51	0.691667	9.18392E-004	-2.78861E-004	0.00000E+000	-2.56104E-007	-1.68088E-001	8.97189E-004	3.57730E+000	9	...........
STARTTIMEOFFSET	QUANT	2044.003	Start Time Offset (s)
