EXPLAIN
TAG	PWR800_DISCHARGE
TITLE	LABEL	PWR Cyclic Charge Discharge (Cell) - Discharge Step	Test &Identifier
DATE	LABEL	7-7-2017	Date
TIME	LABEL	16:07:45	Time
NOTES	NOTES	3	&Notes...
	supercap test cell
	2.8mg
	6M KOH
PSTAT	PSTAT	IFC5000-01520	Potentiostat
CAPACITY	QUANT	1.00000E-003	Capacity (A-hr)
CELLTYPE	SELECTOR	1	&Cell Type
WORKINGCONNECTION	SELECTOR	0	&Working Lead
MAXDISCHARGETIME	VARIABLEANDUNITS	1.00000E+002	s	1.00000E+002	second(s)	Max &Discharge Time
DISCHARGEMODE	MULTIPARAM	0	2.80000E-004	&Discharge Mode	Constant Current	Amp(s)
SAMPLETIME	QUANT	1.00000E-002	Sa&mple Period (s)
DISCHARGESTOPAT1	MULTIPARAM	3	0.00000E+000	Discharge Stop At &1	Voltage < Limit	V
DISCHARGESTOPAT2	MULTIPARAM	0	0.00000E+000	Discharge Stop At &2	None	N/A
AESBHCSELECTOR	TOGGLE	F	Save Both Half Cells
IRCOMP	TOGGLE	F	IR &Measure
EOC	QUANT	0	Open Circuit (V)
SEQUENCER	TOGGLE	TRUE	Run as Sequence
PSTATMODEL	IQUANT	53	Pstat Model
PSTATSECTION	LABEL	IFC5000-01520	Pstat Section
PSTATSERIALNO	LABEL	01520	Pstat Serial Number
CTRLMODE	IQUANT	0	Control Mode
ELECTROMETER	IQUANT	1	RE=0 or CS=1
IESTAB	IQUANT	0	I/E Stability
CASPEED	IQUANT	4	Control Amp Speed
CONVENTION	IQUANT	1	Current Convention
ICHRANGE	IQUANT	2	Ich Range
ICHRANGEMODE	TOGGLE	T	Ich Auto Range
ICHOFFSETENABLE	TOGGLE	F	Ich Offset Enable
ICHOFFSET	QUANT	0	Ich Offset (V)
ICHFILTER	IQUANT	1	Ich Filter
VCHRANGE	IQUANT	2	Vch Range
VCHRANGEMODE	TOGGLE	T	Vch Auto Range
VCHOFFSETENABLE	TOGGLE	F	Vch Offset Enable
VCHOFFSET	QUANT	0	Vch Offset (V)
VCHFILTER	IQUANT	1	Vch Filter
IERANGELOWERLIMIT	IQUANT	9	I/E Range Lower Limit
IERANGEMODE	TOGGLE	F	I/E AutoRange
IERANGE	IQUANT	9	I/E Range
ACHSELECT	IQUANT	1	Ach Select
ACHRANGE	IQUANT	2	Ach Range
ACHOFFSETENABLE	TOGGLE	F	Ach Offset Enable
ACHOFFSET	QUANT	0	Ach Offset (V)
ACHFILTER	IQUANT	1	Ach Filter
CABLEID	IQUANT	14	Cable ID
DCCALDATE	LABEL	5-7-2017	DC Calibration Date
ACCALDATE	LABEL	12/3/2015	AC Calibration Date
FRAMEWORKVERSION	QUANT	7.01	Framework Version
INSTRUMENTVERSION	LABEL	4.00	Instrument Version
CURVE	TABLE	63
	Pt	T	Vf	Im	Vu	Pwr	Sig	Ach	Temp	IERange	Over
	#	s	V	A	V	W	V	V	deg C	#	bits
	0	0.013333	5.20300E-001	-2.79139E-004	0.00000E+000	-1.45236E-004	-1.68088E-001	5.20574E-001	3.58170E+000	9	...........
	1	0.026667	4.87648E-001	-2.78060E-004	0.00000E+000	-1.35595E-004	-1.68088E-001	4.87834E-001	3.58170E+000	9	...........
	2	0.04	4.57884E-001	-2.78037E-004	0.00000E+000	-1.27309E-004	-1.68088E-001	4.57991E-001	3.58170E+000	9	...........
	3	0.053333	4.30123E-001	-2.78131E-004	0.00000E+000	-1.19631E-004	-1.68088E-001	4.30229E-001	3.58170E+000	9	...........
	4	0.066667	4.04291E-001	-2.78295E-004	0.00000E+000	-1.12512E-004	-1.68088E-001	4.04390E-001	3.58170E+000	9	...........
	5	0.08	3.80221E-001	-2.78553E-004	0.00000E+000	-1.05912E-004	-1.68088E-001	3.80312E-001	3.58170E+000	9	...........
	6	0.093333	3.57799E-001	-2.80052E-004	0.00000E+000	-1.00203E-004	-1.68088E-001	3.57889E-001	3.58170E+000	9	...........
	7	0.106667	3.36917E-001	-2.77461E-004	0.00000E+000	-9.34812E-005	-1.68088E-001	3.36994E-001	3.58170E+000	9	...........
	8	0.12	3.17470E-001	-2.79233E-004	0.00000E+000	-8.86483E-005	-1.68088E-001	3.17551E-001	3.58170E+000	9	...........
	9	0.133333	2.99395E-001	-2.79259E-004	0.00000E+000	-8.36089E-005	-1.68088E-001	2.99475E-001	3.58170E+000	9	...........
	10	0.146667	2.82632E-001	-2.78914E-004	0.00000E+000	-7.88299E-005	-1.68088E-001	2.82701E-001	3.58170E+000	9	...........
	11	0.16	2.67050E-001	-2.79002E-004	0.00000E+000	-7.45074E-005	-1.68088E-001	2.67120E-001	3.58170E+000	9	...........
	12	0.173333	2.52644E-001	-2.78716E-004	0.00000E+000	-7.04157E-005	-1.68088E-001	2.52709E-001	3.58170E+000	9	...........
	13	0.186667	2.39245E-001	-2.78862E-004	0.00000E+000	-6.67164E-005	-1.68088E-001	2.39299E-001	3.58170E+000	9	...........
	14	0.2	2.26770E-001	-2.78165E-004	0.00000E+000	-6.30796E-005	-1.68088E-001	2.26830E-001	3.58170E+000	9	...........
	15	0.213333	2.15151E-001	-2.78289E-004	0.00000E+000	-5.98743E-005	-1.68088E-001	2.15206E-001	3.58170E+000	9	...........
	16	0.226667	2.04360E-001	-2.78601E-004	0.00000E+000	-5.69350E-005	-1.68088E-001	2.04415E-001	3.58170E+000	9	...........
	17	0.24	1.94289E-001	-2.78956E-004	0.00000E+000	-5.41981E-005	-1.68088E-001	1.94340E-001	3.58170E+000	9	...........
	18	0.253333	1.84823E-001	-2.78302E-004	0.00000E+000	-5.14367E-005	-1.68088E-001	1.84865E-001	3.58170E+000	9	...........
	19	0.266667	1.75968E-001	-2.79181E-004	0.00000E+000	-4.91270E-005	-1.68088E-001	1.76011E-001	3.58115E+000	9	...........
	20	0.28	1.67711E-001	-2.79002E-004	0.00000E+000	-4.67919E-005	-1.68088E-001	1.67756E-001	3.57730E+000	9	...........
	21	0.293333	1.59953E-001	-2.78995E-004	0.00000E+000	-4.46260E-005	-1.68088E-001	1.59993E-001	3.57730E+000	9	...........
	22	0.306667	1.52600E-001	-2.80017E-004	0.00000E+000	-4.27305E-005	-1.68088E-001	1.52643E-001	3.57730E+000	9	...........
	23	0.32	1.45603E-001	-2.79679E-004	0.00000E+000	-4.07223E-005	-1.68088E-001	1.45639E-001	3.57730E+000	9	...........
	24	0.333333	1.39039E-001	-2.78594E-004	0.00000E+000	-3.87354E-005	-1.68088E-001	1.39074E-001	3.57730E+000	9	...........
	25	0.346667	1.32773E-001	-2.78962E-004	0.00000E+000	-3.70388E-005	-1.68088E-001	1.32808E-001	3.57730E+000	9	...........
	26	0.36	1.26809E-001	-2.77861E-004	0.00000E+000	-3.52352E-005	-1.68088E-001	1.26843E-001	3.57730E+000	9	...........
	27	0.373333	1.21144E-001	-2.78575E-004	0.00000E+000	-3.37476E-005	-1.68088E-001	1.21178E-001	3.57730E+000	9	...........
	28	0.386667	1.15712E-001	-2.77760E-004	0.00000E+000	-3.21403E-005	-1.68088E-001	1.15742E-001	3.57730E+000	9	...........
	29	0.4	1.10509E-001	-2.79065E-004	0.00000E+000	-3.08392E-005	-1.68088E-001	1.10537E-001	3.57730E+000	9	...........
	30	0.413333	1.05541E-001	-2.78659E-004	0.00000E+000	-2.94100E-005	-1.68088E-001	1.05568E-001	3.57730E+000	9	...........
	31	0.426667	1.00744E-001	-2.78898E-004	0.00000E+000	-2.80973E-005	-1.68088E-001	1.00775E-001	3.57730E+000	9	...........
	32	0.44	9.61382E-002	-2.78911E-004	0.00000E+000	-2.68141E-005	-1.68088E-001	9.61631E-002	3.57730E+000	9	...........
	33	0.453333	9.16720E-002	-2.78685E-004	0.00000E+000	-2.55476E-005	-1.68088E-001	9.16941E-002	3.57730E+000	9	...........
	34	0.466667	8.73685E-002	-2.78962E-004	0.00000E+000	-2.43725E-005	-1.68088E-001	8.73923E-002	3.57730E+000	9	...........
	35	0.48	8.32173E-002	-2.79807E-004	0.00000E+000	-2.32848E-005	-1.68088E-001	8.32405E-002	3.57730E+000	9	...........
	36	0.493333	7.92051E-002	-2.79188E-004	0.00000E+000	-2.21131E-005	-1.68088E-001	7.92255E-002	3.57730E+000	9	...........
	37	0.506667	7.52625E-002	-2.79438E-004	0.00000E+000	-2.10312E-005	-1.68088E-001	7.52784E-002	3.57730E+000	9	...........
	38	0.52	7.13897E-002	-2.79133E-004	0.00000E+000	-1.99272E-005	-1.68088E-001	7.14066E-002	3.57730E+000	9	...........
	39	0.533333	6.76857E-002	-2.78592E-004	0.00000E+000	-1.88567E-005	-1.68088E-001	6.77045E-002	3.57730E+000	9	...........
	40	0.546667	6.40908E-002	-2.78492E-004	0.00000E+000	-1.78487E-005	-1.68088E-001	6.41029E-002	3.57730E+000	9	...........
	41	0.56	6.05738E-002	-2.78685E-004	0.00000E+000	-1.68810E-005	-1.68088E-001	6.05934E-002	3.57730E+000	9	...........
	42	0.573333	5.71621E-002	-2.78787E-004	0.00000E+000	-1.59361E-005	-1.68088E-001	5.71776E-002	3.57730E+000	9	...........
	43	0.586667	5.37913E-002	-2.79591E-004	0.00000E+000	-1.50396E-005	-1.68088E-001	5.38047E-002	3.57730E+000	9	...........
	44	0.6	5.05181E-002	-2.79208E-004	0.00000E+000	-1.41051E-005	-1.68088E-001	5.05305E-002	3.57730E+000	9	...........
	45	0.613333	4.73290E-002	-2.79737E-004	0.00000E+000	-1.32396E-005	-1.68088E-001	4.73397E-002	3.57730E+000	9	...........
	46	0.626667	4.41500E-002	-2.78529E-004	0.00000E+000	-1.22970E-005	-1.68088E-001	4.41575E-002	3.57730E+000	9	...........
	47	0.64	4.10060E-002	-2.78102E-004	0.00000E+000	-1.14038E-005	-1.68088E-001	4.10123E-002	3.57730E+000	9	...........
	48	0.653333	3.79342E-002	-2.78065E-004	0.00000E+000	-1.05482E-005	-1.68088E-001	3.79443E-002	3.57730E+000	9	...........
	49	0.666667	3.49338E-002	-2.78916E-004	0.00000E+000	-9.74358E-006	-1.68088E-001	3.49356E-002	3.57730E+000	9	...........
	50	0.68	3.20159E-002	-2.78668E-004	0.00000E+000	-8.92179E-006	-1.68088E-001	3.20227E-002	3.57730E+000	9	...........
	51	0.693333	2.91236E-002	-2.78596E-004	0.00000E+000	-8.11370E-006	-1.68088E-001	2.91221E-002	3.57730E+000	9	...........
	52	0.706667	2.62497E-002	-2.79355E-004	0.00000E+000	-7.33300E-006	-1.68088E-001	2.62526E-002	3.57730E+000	9	...........
	53	0.72	2.34323E-002	-2.78576E-004	0.00000E+000	-6.52767E-006	-1.68088E-001	2.34295E-002	3.57730E+000	9	...........
	54	0.733333	2.06748E-002	-2.79165E-004	0.00000E+000	-5.77168E-006	-1.68088E-001	2.06741E-002	3.57730E+000	9	...........
	55	0.746667	1.79769E-002	-2.78991E-004	0.00000E+000	-5.01540E-006	-1.68088E-001	1.79677E-002	3.57730E+000	9	...........
	56	0.76	1.52958E-002	-2.79935E-004	0.00000E+000	-4.28182E-006	-1.68088E-001	1.52916E-002	3.57730E+000	9	...........
	57	0.773333	1.26735E-002	-2.78896E-004	0.00000E+000	-3.53458E-006	-1.68088E-001	1.26648E-002	3.57730E+000	9	...........
	58	0.786667	1.00415E-002	-2.78493E-004	0.00000E+000	-2.79649E-006	-1.68088E-001	1.00337E-002	3.57730E+000	9	...........
	59	0.8	7.44675E-003	-2.78161E-004	0.00000E+000	-2.07140E-006	-1.68088E-001	7.43441E-003	3.57730E+000	9	...........
	60	0.813333	4.92188E-003	-2.79204E-004	0.00000E+000	-1.37421E-006	-1.68088E-001	4.90457E-003	3.57730E+000	9	...........
	61	0.826667	2.40768E-003	-2.77867E-004	0.00000E+000	-6.69016E-007	-1.68088E-001	2.39224E-003	3.57730E+000	9	...........
	62	0.835	3.63306E-004	-2.78891E-004	0.00000E+000	-1.01323E-007	-1.68088E-001	3.50210E-004	3.57730E+000	9	...........
STARTTIMEOFFSET	QUANT	1433.202	Start Time Offset (s)
