EXPLAIN
TAG	PWR800_DISCHARGE
TITLE	LABEL	PWR Cyclic Charge Discharge (Cell) - Discharge Step	Test &Identifier
DATE	LABEL	7-7-2017	Date
TIME	LABEL	16:22:34	Time
NOTES	NOTES	3	&Notes...
	supercap test cell
	2.8mg
	6M KOH
PSTAT	PSTAT	IFC5000-01520	Potentiostat
CAPACITY	QUANT	1.00000E-003	Capacity (A-hr)
CELLTYPE	SELECTOR	1	&Cell Type
WORKINGCONNECTION	SELECTOR	0	&Working Lead
MAXDISCHARGETIME	VARIABLEANDUNITS	1.00000E+002	s	1.00000E+002	second(s)	Max &Discharge Time
DISCHARGEMODE	MULTIPARAM	0	2.80000E-004	&Discharge Mode	Constant Current	Amp(s)
SAMPLETIME	QUANT	1.00000E-002	Sa&mple Period (s)
DISCHARGESTOPAT1	MULTIPARAM	3	0.00000E+000	Discharge Stop At &1	Voltage < Limit	V
DISCHARGESTOPAT2	MULTIPARAM	0	0.00000E+000	Discharge Stop At &2	None	N/A
AESBHCSELECTOR	TOGGLE	F	Save Both Half Cells
IRCOMP	TOGGLE	F	IR &Measure
EOC	QUANT	0	Open Circuit (V)
SEQUENCER	TOGGLE	TRUE	Run as Sequence
PSTATMODEL	IQUANT	53	Pstat Model
PSTATSECTION	LABEL	IFC5000-01520	Pstat Section
PSTATSERIALNO	LABEL	01520	Pstat Serial Number
CTRLMODE	IQUANT	0	Control Mode
ELECTROMETER	IQUANT	1	RE=0 or CS=1
IESTAB	IQUANT	0	I/E Stability
CASPEED	IQUANT	4	Control Amp Speed
CONVENTION	IQUANT	1	Current Convention
ICHRANGE	IQUANT	2	Ich Range
ICHRANGEMODE	TOGGLE	T	Ich Auto Range
ICHOFFSETENABLE	TOGGLE	F	Ich Offset Enable
ICHOFFSET	QUANT	0	Ich Offset (V)
ICHFILTER	IQUANT	1	Ich Filter
VCHRANGE	IQUANT	2	Vch Range
VCHRANGEMODE	TOGGLE	T	Vch Auto Range
VCHOFFSETENABLE	TOGGLE	F	Vch Offset Enable
VCHOFFSET	QUANT	0	Vch Offset (V)
VCHFILTER	IQUANT	1	Vch Filter
IERANGELOWERLIMIT	IQUANT	9	I/E Range Lower Limit
IERANGEMODE	TOGGLE	F	I/E AutoRange
IERANGE	IQUANT	9	I/E Range
ACHSELECT	IQUANT	1	Ach Select
ACHRANGE	IQUANT	2	Ach Range
ACHOFFSETENABLE	TOGGLE	F	Ach Offset Enable
ACHOFFSET	QUANT	0	Ach Offset (V)
ACHFILTER	IQUANT	1	Ach Filter
CABLEID	IQUANT	14	Cable ID
DCCALDATE	LABEL	5-7-2017	DC Calibration Date
ACCALDATE	LABEL	12/3/2015	AC Calibration Date
FRAMEWORKVERSION	QUANT	7.01	Framework Version
INSTRUMENTVERSION	LABEL	4.00	Instrument Version
CURVE	TABLE	52
	Pt	T	Vf	Im	Vu	Pwr	Sig	Ach	Temp	IERange	Over
	#	s	V	A	V	W	V	V	deg C	#	bits
	0	0.013333	4.69254E-001	-2.80003E-004	0.00000E+000	-1.31393E-004	-1.68088E-001	4.69385E-001	3.57880E+000	9	...........
	1	0.026667	4.36141E-001	-2.78570E-004	0.00000E+000	-1.21496E-004	-1.68088E-001	4.36245E-001	3.57880E+000	9	...........
	2	0.04	4.06102E-001	-2.78401E-004	0.00000E+000	-1.13059E-004	-1.68088E-001	4.06189E-001	3.57880E+000	9	...........
	3	0.053333	3.78536E-001	-2.79840E-004	0.00000E+000	-1.05930E-004	-1.68088E-001	3.78618E-001	3.57880E+000	9	...........
	4	0.066667	3.53116E-001	-2.78457E-004	0.00000E+000	-9.83276E-005	-1.68088E-001	3.53196E-001	3.57880E+000	9	...........
	5	0.08	3.29616E-001	-2.77854E-004	0.00000E+000	-9.15851E-005	-1.68088E-001	3.29691E-001	3.57880E+000	9	...........
	6	0.093333	3.07875E-001	-2.79256E-004	0.00000E+000	-8.59761E-005	-1.68088E-001	3.07944E-001	3.57880E+000	9	...........
	7	0.106667	2.87783E-001	-2.78728E-004	0.00000E+000	-8.02131E-005	-1.68088E-001	2.87846E-001	3.57880E+000	9	...........
	8	0.12	2.69259E-001	-2.78765E-004	0.00000E+000	-7.50598E-005	-1.68088E-001	2.69321E-001	3.57880E+000	9	...........
	9	0.133333	2.52112E-001	-2.79564E-004	0.00000E+000	-7.04814E-005	-1.68088E-001	2.52174E-001	3.57880E+000	9	...........
	10	0.146667	2.36297E-001	-2.78771E-004	0.00000E+000	-6.58727E-005	-1.68088E-001	2.36351E-001	3.57880E+000	9	...........
	11	0.16	2.21666E-001	-2.78420E-004	0.00000E+000	-6.17162E-005	-1.68088E-001	2.21714E-001	3.57880E+000	9	...........
	12	0.173333	2.08130E-001	-2.78994E-004	0.00000E+000	-5.80670E-005	-1.68088E-001	2.08174E-001	3.57880E+000	9	...........
	13	0.186667	1.95649E-001	-2.79291E-004	0.00000E+000	-5.46428E-005	-1.68088E-001	1.95694E-001	3.57880E+000	9	...........
	14	0.2	1.84070E-001	-2.77160E-004	0.00000E+000	-5.10167E-005	-1.68088E-001	1.84108E-001	3.57880E+000	9	...........
	15	0.213333	1.73276E-001	-2.79396E-004	0.00000E+000	-4.84125E-005	-1.68088E-001	1.73318E-001	3.57880E+000	9	...........
	16	0.226667	1.63216E-001	-2.79442E-004	0.00000E+000	-4.56094E-005	-1.68088E-001	1.63251E-001	3.57880E+000	9	...........
	17	0.24	1.53818E-001	-2.78357E-004	0.00000E+000	-4.28165E-005	-1.68088E-001	1.53849E-001	3.57880E+000	9	...........
	18	0.253333	1.45040E-001	-2.79275E-004	0.00000E+000	-4.05060E-005	-1.68088E-001	1.45070E-001	3.57880E+000	9	...........
	19	0.266667	1.36849E-001	-2.79594E-004	0.00000E+000	-3.82621E-005	-1.68088E-001	1.36881E-001	3.57880E+000	9	...........
	20	0.28	1.29217E-001	-2.79116E-004	0.00000E+000	-3.60665E-005	-1.68088E-001	1.29247E-001	3.57880E+000	9	...........
	21	0.293333	1.22004E-001	-2.79571E-004	0.00000E+000	-3.41087E-005	-1.68088E-001	1.22030E-001	3.57880E+000	9	...........
	22	0.306667	1.15189E-001	-2.77554E-004	0.00000E+000	-3.19712E-005	-1.68088E-001	1.15215E-001	3.57880E+000	9	...........
	23	0.32	1.08713E-001	-2.79717E-004	0.00000E+000	-3.04089E-005	-1.68088E-001	1.08738E-001	3.57880E+000	9	...........
	24	0.333333	1.02614E-001	-2.80201E-004	0.00000E+000	-2.87525E-005	-1.68088E-001	1.02635E-001	3.57842E+000	9	...........
	25	0.346667	9.68316E-002	-2.79170E-004	0.00000E+000	-2.70325E-005	-1.68088E-001	9.68504E-002	3.57730E+000	9	...........
	26	0.36	9.12623E-002	-2.79731E-004	0.00000E+000	-2.55289E-005	-1.68088E-001	9.12874E-002	3.57730E+000	9	...........
	27	0.373333	8.59663E-002	-2.79651E-004	0.00000E+000	-2.40406E-005	-1.68088E-001	8.59797E-002	3.57730E+000	9	...........
	28	0.386667	8.08907E-002	-2.81131E-004	0.00000E+000	-2.27409E-005	-1.68088E-001	8.09134E-002	3.57730E+000	9	...........
	29	0.4	7.60336E-002	-2.78473E-004	0.00000E+000	-2.11733E-005	-1.68088E-001	7.60488E-002	3.57730E+000	9	...........
	30	0.413333	7.13166E-002	-2.80034E-004	0.00000E+000	-1.99711E-005	-1.68088E-001	7.13338E-002	3.57730E+000	9	...........
	31	0.426667	6.68335E-002	-2.78392E-004	0.00000E+000	-1.86059E-005	-1.68088E-001	6.68482E-002	3.57730E+000	9	...........
	32	0.44	6.24627E-002	-2.78905E-004	0.00000E+000	-1.74212E-005	-1.68088E-001	6.24702E-002	3.57730E+000	9	...........
	33	0.453333	5.82362E-002	-2.79536E-004	0.00000E+000	-1.62791E-005	-1.68088E-001	5.82433E-002	3.57730E+000	9	...........
	34	0.466667	5.41801E-002	-2.79116E-004	0.00000E+000	-1.51225E-005	-1.68088E-001	5.41909E-002	3.57730E+000	9	...........
	35	0.48	5.02698E-002	-2.80169E-004	0.00000E+000	-1.40840E-005	-1.68088E-001	5.02766E-002	3.57730E+000	9	...........
	36	0.493333	4.64879E-002	-2.79894E-004	0.00000E+000	-1.30117E-005	-1.68088E-001	4.64975E-002	3.57730E+000	9	...........
	37	0.506667	4.27692E-002	-2.79441E-004	0.00000E+000	-1.19515E-005	-1.68088E-001	4.27829E-002	3.57730E+000	9	...........
	38	0.52	3.91815E-002	-2.78007E-004	0.00000E+000	-1.08927E-005	-1.68088E-001	3.91864E-002	3.57730E+000	9	...........
	39	0.533333	3.56536E-002	-2.78234E-004	0.00000E+000	-9.92004E-006	-1.68088E-001	3.56593E-002	3.57730E+000	9	...........
	40	0.546667	3.22007E-002	-2.79782E-004	0.00000E+000	-9.00920E-006	-1.68088E-001	3.22033E-002	3.57730E+000	9	...........
	41	0.56	2.88084E-002	-2.79724E-004	0.00000E+000	-8.05841E-006	-1.68088E-001	2.88085E-002	3.57730E+000	9	...........
	42	0.573333	2.54870E-002	-2.77264E-004	0.00000E+000	-7.06662E-006	-1.68088E-001	2.54850E-002	3.57730E+000	9	...........
	43	0.586667	2.22950E-002	-2.78272E-004	0.00000E+000	-6.20407E-006	-1.68088E-001	2.22901E-002	3.57730E+000	9	...........
	44	0.6	1.91350E-002	-2.79182E-004	0.00000E+000	-5.34214E-006	-1.68088E-001	1.91293E-002	3.57730E+000	9	...........
	45	0.613333	1.60533E-002	-2.78122E-004	0.00000E+000	-4.46477E-006	-1.68088E-001	1.60510E-002	3.57730E+000	9	...........
	46	0.626667	1.30316E-002	-2.79525E-004	0.00000E+000	-3.64266E-006	-1.68088E-001	1.30227E-002	3.57730E+000	9	...........
	47	0.64	1.00602E-002	-2.79156E-004	0.00000E+000	-2.80835E-006	-1.68088E-001	1.00556E-002	3.57730E+000	9	...........
	48	0.653333	7.12043E-003	-2.79845E-004	0.00000E+000	-1.99262E-006	-1.68088E-001	7.10787E-003	3.57730E+000	9	...........
	49	0.666667	4.24474E-003	-2.80422E-004	0.00000E+000	-1.19032E-006	-1.68088E-001	4.23151E-003	3.57730E+000	9	...........
	50	0.68	1.43162E-003	-2.79600E-004	0.00000E+000	-4.00281E-007	-1.68088E-001	1.41522E-003	3.57730E+000	9	...........
	51	0.681667	-1.52502E-004	-2.79790E-004	0.00000E+000	4.26686E-008	-1.68088E-001	-1.75887E-004	3.57730E+000	9	...........
STARTTIMEOFFSET	QUANT	2022.035	Start Time Offset (s)
