EXPLAIN
TAG	PWR800_DISCHARGE
TITLE	LABEL	PWR Cyclic Charge Discharge (Cell) - Discharge Step	Test &Identifier
DATE	LABEL	7-7-2017	Date
TIME	LABEL	15:57:22	Time
NOTES	NOTES	3	&Notes...
	supercap test cell
	2.8mg
	6M KOH
PSTAT	PSTAT	IFC5000-01520	Potentiostat
CAPACITY	QUANT	1.00000E-003	Capacity (A-hr)
CELLTYPE	SELECTOR	1	&Cell Type
WORKINGCONNECTION	SELECTOR	0	&Working Lead
MAXDISCHARGETIME	VARIABLEANDUNITS	1.00000E+002	s	1.00000E+002	second(s)	Max &Discharge Time
DISCHARGEMODE	MULTIPARAM	0	2.80000E-004	&Discharge Mode	Constant Current	Amp(s)
SAMPLETIME	QUANT	1.00000E-002	Sa&mple Period (s)
DISCHARGESTOPAT1	MULTIPARAM	3	0.00000E+000	Discharge Stop At &1	Voltage < Limit	V
DISCHARGESTOPAT2	MULTIPARAM	0	0.00000E+000	Discharge Stop At &2	None	N/A
AESBHCSELECTOR	TOGGLE	F	Save Both Half Cells
IRCOMP	TOGGLE	F	IR &Measure
EOC	QUANT	0	Open Circuit (V)
SEQUENCER	TOGGLE	TRUE	Run as Sequence
PSTATMODEL	IQUANT	53	Pstat Model
PSTATSECTION	LABEL	IFC5000-01520	Pstat Section
PSTATSERIALNO	LABEL	01520	Pstat Serial Number
CTRLMODE	IQUANT	0	Control Mode
ELECTROMETER	IQUANT	1	RE=0 or CS=1
IESTAB	IQUANT	0	I/E Stability
CASPEED	IQUANT	4	Control Amp Speed
CONVENTION	IQUANT	1	Current Convention
ICHRANGE	IQUANT	2	Ich Range
ICHRANGEMODE	TOGGLE	T	Ich Auto Range
ICHOFFSETENABLE	TOGGLE	F	Ich Offset Enable
ICHOFFSET	QUANT	0	Ich Offset (V)
ICHFILTER	IQUANT	1	Ich Filter
VCHRANGE	IQUANT	2	Vch Range
VCHRANGEMODE	TOGGLE	T	Vch Auto Range
VCHOFFSETENABLE	TOGGLE	F	Vch Offset Enable
VCHOFFSET	QUANT	0	Vch Offset (V)
VCHFILTER	IQUANT	1	Vch Filter
IERANGELOWERLIMIT	IQUANT	9	I/E Range Lower Limit
IERANGEMODE	TOGGLE	F	I/E AutoRange
IERANGE	IQUANT	9	I/E Range
ACHSELECT	IQUANT	1	Ach Select
ACHRANGE	IQUANT	2	Ach Range
ACHOFFSETENABLE	TOGGLE	F	Ach Offset Enable
ACHOFFSET	QUANT	0	Ach Offset (V)
ACHFILTER	IQUANT	1	Ach Filter
CABLEID	IQUANT	14	Cable ID
DCCALDATE	LABEL	5-7-2017	DC Calibration Date
ACCALDATE	LABEL	12/3/2015	AC Calibration Date
FRAMEWORKVERSION	QUANT	7.01	Framework Version
INSTRUMENTVERSION	LABEL	4.00	Instrument Version
CURVE	TABLE	75
	Pt	T	Vf	Im	Vu	Pwr	Sig	Ach	Temp	IERange	Over
	#	s	V	A	V	W	V	V	deg C	#	bits
	0	0.013333	5.33810E-001	-2.78866E-004	0.00000E+000	-1.48861E-004	-1.68088E-001	5.34044E-001	3.57770E+000	9	...........
	1	0.026667	5.01977E-001	-2.78329E-004	0.00000E+000	-1.39715E-004	-1.68088E-001	5.02205E-001	3.57770E+000	9	...........
	2	0.04	4.73222E-001	-2.79214E-004	0.00000E+000	-1.32130E-004	-1.68088E-001	4.73318E-001	3.57770E+000	9	...........
	3	0.053333	4.46457E-001	-2.78557E-004	0.00000E+000	-1.24364E-004	-1.68088E-001	4.46563E-001	3.57770E+000	9	...........
	4	0.066667	4.21566E-001	-2.78094E-004	0.00000E+000	-1.17235E-004	-1.68088E-001	4.21666E-001	3.57770E+000	9	...........
	5	0.08	3.98438E-001	-2.78807E-004	0.00000E+000	-1.11087E-004	-1.68088E-001	3.98526E-001	3.57770E+000	9	...........
	6	0.093333	3.76939E-001	-2.79239E-004	0.00000E+000	-1.05256E-004	-1.68088E-001	3.77026E-001	3.57770E+000	9	...........
	7	0.106667	3.56928E-001	-2.78237E-004	0.00000E+000	-9.93107E-005	-1.68088E-001	3.57006E-001	3.57770E+000	9	...........
	8	0.12	3.38337E-001	-2.78344E-004	0.00000E+000	-9.41740E-005	-1.68088E-001	3.38420E-001	3.57770E+000	9	...........
	9	0.133333	3.21070E-001	-2.79236E-004	0.00000E+000	-8.96545E-005	-1.68088E-001	3.21143E-001	3.57770E+000	9	...........
	10	0.146667	3.05069E-001	-2.78012E-004	0.00000E+000	-8.48129E-005	-1.68088E-001	3.05140E-001	3.57770E+000	9	...........
	11	0.16	2.90170E-001	-2.79040E-004	0.00000E+000	-8.09689E-005	-1.68088E-001	2.90242E-001	3.57770E+000	9	...........
	12	0.173333	2.76338E-001	-2.80258E-004	0.00000E+000	-7.74459E-005	-1.68088E-001	2.76404E-001	3.57770E+000	9	...........
	13	0.186667	2.63510E-001	-2.78983E-004	0.00000E+000	-7.35149E-005	-1.68088E-001	2.63576E-001	3.57770E+000	9	...........
	14	0.2	2.51575E-001	-2.78469E-004	0.00000E+000	-7.00558E-005	-1.68088E-001	2.51637E-001	3.57770E+000	9	...........
	15	0.213333	2.40432E-001	-2.79154E-004	0.00000E+000	-6.71177E-005	-1.68088E-001	2.40489E-001	3.57770E+000	9	...........
	16	0.226667	2.29999E-001	-2.79349E-004	0.00000E+000	-6.42501E-005	-1.68088E-001	2.30052E-001	3.57770E+000	9	...........
	17	0.24	2.20282E-001	-2.79594E-004	0.00000E+000	-6.15895E-005	-1.68088E-001	2.20331E-001	3.57770E+000	9	...........
	18	0.253333	2.11175E-001	-2.78007E-004	0.00000E+000	-5.87081E-005	-1.68088E-001	2.11226E-001	3.57770E+000	9	...........
	19	0.266667	2.02606E-001	-2.79911E-004	0.00000E+000	-5.67115E-005	-1.68088E-001	2.02657E-001	3.57770E+000	9	...........
	20	0.28	1.94556E-001	-2.79538E-004	0.00000E+000	-5.43856E-005	-1.68088E-001	1.94603E-001	3.57770E+000	9	...........
	21	0.293333	1.86978E-001	-2.78577E-004	0.00000E+000	-5.20877E-005	-1.68088E-001	1.87019E-001	3.57770E+000	9	...........
	22	0.306667	1.79795E-001	-2.79402E-004	0.00000E+000	-5.02351E-005	-1.68088E-001	1.79840E-001	3.57770E+000	9	...........
	23	0.32	1.73000E-001	-2.78928E-004	0.00000E+000	-4.82545E-005	-1.68088E-001	1.73039E-001	3.57770E+000	9	...........
	24	0.333333	1.66536E-001	-2.78782E-004	0.00000E+000	-4.64274E-005	-1.68088E-001	1.66572E-001	3.57770E+000	9	...........
	25	0.346667	1.60403E-001	-2.79428E-004	0.00000E+000	-4.48210E-005	-1.68088E-001	1.60440E-001	3.57770E+000	9	...........
	26	0.36	1.54597E-001	-2.78875E-004	0.00000E+000	-4.31133E-005	-1.68088E-001	1.54634E-001	3.57770E+000	9	...........
	27	0.373333	1.49029E-001	-2.78564E-004	0.00000E+000	-4.15142E-005	-1.68088E-001	1.49064E-001	3.57770E+000	9	...........
	28	0.386667	1.43646E-001	-2.78624E-004	0.00000E+000	-4.00231E-005	-1.68088E-001	1.43677E-001	3.57770E+000	9	...........
	29	0.4	1.38482E-001	-2.79301E-004	0.00000E+000	-3.86781E-005	-1.68088E-001	1.38515E-001	3.57770E+000	9	...........
	30	0.413333	1.33562E-001	-2.78775E-004	0.00000E+000	-3.72337E-005	-1.68088E-001	1.33589E-001	3.57770E+000	9	...........
	31	0.426667	1.28850E-001	-2.79519E-004	0.00000E+000	-3.60160E-005	-1.68088E-001	1.28877E-001	3.57770E+000	9	...........
	32	0.44	1.24298E-001	-2.78501E-004	0.00000E+000	-3.46172E-005	-1.68088E-001	1.24324E-001	3.57770E+000	9	...........
	33	0.453333	1.19904E-001	-2.78890E-004	0.00000E+000	-3.34399E-005	-1.68088E-001	1.19930E-001	3.57770E+000	9	...........
	34	0.466667	1.15645E-001	-2.78311E-004	0.00000E+000	-3.21854E-005	-1.68088E-001	1.15673E-001	3.57770E+000	9	...........
	35	0.48	1.11468E-001	-2.77521E-004	0.00000E+000	-3.09346E-005	-1.68088E-001	1.11492E-001	3.57770E+000	9	...........
	36	0.493333	1.07473E-001	-2.78854E-004	0.00000E+000	-2.99694E-005	-1.68088E-001	1.07503E-001	3.57770E+000	9	...........
	37	0.506667	1.03601E-001	-2.78095E-004	0.00000E+000	-2.88109E-005	-1.68088E-001	1.03623E-001	3.57770E+000	9	...........
	38	0.52	9.98133E-002	-2.78876E-004	0.00000E+000	-2.78355E-005	-1.68088E-001	9.98399E-002	3.57770E+000	9	...........
	39	0.533333	9.60796E-002	-2.78514E-004	0.00000E+000	-2.67595E-005	-1.68088E-001	9.61092E-002	3.57770E+000	9	...........
	40	0.546667	9.24411E-002	-2.79107E-004	0.00000E+000	-2.58010E-005	-1.68088E-001	9.24629E-002	3.57770E+000	9	...........
	41	0.56	8.89066E-002	-2.78560E-004	0.00000E+000	-2.47659E-005	-1.68088E-001	8.89337E-002	3.57770E+000	9	...........
	42	0.573333	8.54682E-002	-2.78283E-004	0.00000E+000	-2.37844E-005	-1.68088E-001	8.54919E-002	3.57770E+000	9	...........
	43	0.586667	8.20624E-002	-2.79032E-004	0.00000E+000	-2.28981E-005	-1.68088E-001	8.20796E-002	3.57770E+000	9	...........
	44	0.6	7.87479E-002	-2.78991E-004	0.00000E+000	-2.19699E-005	-1.68088E-001	7.87646E-002	3.57770E+000	9	...........
	45	0.613333	7.54876E-002	-2.78800E-004	0.00000E+000	-2.10459E-005	-1.68088E-001	7.54976E-002	3.57770E+000	9	...........
	46	0.626667	7.22743E-002	-2.78120E-004	0.00000E+000	-2.01009E-005	-1.68088E-001	7.22904E-002	3.57770E+000	9	...........
	47	0.64	6.91541E-002	-2.78076E-004	0.00000E+000	-1.92301E-005	-1.68088E-001	6.91691E-002	3.57770E+000	9	...........
	48	0.653333	6.61074E-002	-2.79185E-004	0.00000E+000	-1.84562E-005	-1.68088E-001	6.61241E-002	3.57770E+000	9	...........
	49	0.666667	6.30733E-002	-2.78726E-004	0.00000E+000	-1.75802E-005	-1.68088E-001	6.30893E-002	3.57770E+000	9	...........
	50	0.68	6.01126E-002	-2.78388E-004	0.00000E+000	-1.67346E-005	-1.68088E-001	6.01253E-002	3.57770E+000	9	...........
	51	0.693333	5.71895E-002	-2.78323E-004	0.00000E+000	-1.59171E-005	-1.68088E-001	5.72066E-002	3.57770E+000	9	...........
	52	0.706667	5.43134E-002	-2.79196E-004	0.00000E+000	-1.51641E-005	-1.68088E-001	5.43222E-002	3.57770E+000	9	...........
	53	0.72	5.14694E-002	-2.78743E-004	0.00000E+000	-1.43467E-005	-1.68088E-001	5.14728E-002	3.57770E+000	9	...........
	54	0.733333	4.87012E-002	-2.78632E-004	0.00000E+000	-1.35697E-005	-1.68088E-001	4.87064E-002	3.57770E+000	9	...........
	55	0.746667	4.60175E-002	-2.78535E-004	0.00000E+000	-1.28175E-005	-1.68088E-001	4.60308E-002	3.57770E+000	9	...........
	56	0.76	4.33387E-002	-2.77874E-004	0.00000E+000	-1.20427E-005	-1.68088E-001	4.33458E-002	3.57770E+000	9	...........
	57	0.773333	4.06586E-002	-2.79383E-004	0.00000E+000	-1.13593E-005	-1.68088E-001	4.06673E-002	3.57770E+000	9	...........
	58	0.786667	3.80340E-002	-2.78997E-004	0.00000E+000	-1.06114E-005	-1.68088E-001	3.80370E-002	3.57770E+000	9	...........
	59	0.8	3.54559E-002	-2.79590E-004	0.00000E+000	-9.91309E-006	-1.68088E-001	3.54590E-002	3.57884E+000	9	...........
	60	0.813333	3.29107E-002	-2.78904E-004	0.00000E+000	-9.17894E-006	-1.68088E-001	3.29147E-002	3.57900E+000	9	...........
	61	0.826667	3.03787E-002	-2.79230E-004	0.00000E+000	-8.48265E-006	-1.68088E-001	3.03798E-002	3.57900E+000	9	...........
	62	0.84	2.79282E-002	-2.78607E-004	0.00000E+000	-7.78100E-006	-1.68088E-001	2.79270E-002	3.57900E+000	9	...........
	63	0.853333	2.54688E-002	-2.79012E-004	0.00000E+000	-7.10611E-006	-1.68088E-001	2.54642E-002	3.57900E+000	9	...........
	64	0.866667	2.29768E-002	-2.79253E-004	0.00000E+000	-6.41634E-006	-1.68088E-001	2.29751E-002	3.57900E+000	9	...........
	65	0.88	2.05310E-002	-2.79927E-004	0.00000E+000	-5.74720E-006	-1.68088E-001	2.05269E-002	3.57900E+000	9	...........
	66	0.893333	1.80826E-002	-2.78544E-004	0.00000E+000	-5.03679E-006	-1.68088E-001	1.80744E-002	3.57900E+000	9	...........
	67	0.906667	1.57008E-002	-2.79263E-004	0.00000E+000	-4.38465E-006	-1.68088E-001	1.56916E-002	3.57900E+000	9	...........
	68	0.92	1.33611E-002	-2.79225E-004	0.00000E+000	-3.73076E-006	-1.68088E-001	1.33519E-002	3.57900E+000	9	...........
	69	0.933333	1.10598E-002	-2.78521E-004	0.00000E+000	-3.08037E-006	-1.68088E-001	1.10496E-002	3.57900E+000	9	...........
	70	0.946667	8.75221E-003	-2.78280E-004	0.00000E+000	-2.43557E-006	-1.68088E-001	8.73690E-003	3.57900E+000	9	...........
	71	0.96	6.43980E-003	-2.78947E-004	0.00000E+000	-1.79636E-006	-1.68088E-001	6.42222E-003	3.57900E+000	9	...........
	72	0.97333	4.16970E-003	-2.78650E-004	0.00000E+000	-1.16189E-006	-1.68088E-001	4.15432E-003	3.57900E+000	9	...........
	73	0.98667	1.93748E-003	-2.79109E-004	0.00000E+000	-5.40768E-007	-1.68088E-001	1.92410E-003	3.57900E+000	9	...........
	74	0.99333	2.75169E-004	-2.79271E-004	0.00000E+000	-7.68466E-008	-1.68088E-001	2.53183E-004	3.57900E+000	9	...........
STARTTIMEOFFSET	QUANT	996.935	Start Time Offset (s)
