EXPLAIN
TAG	PWR800_DISCHARGE
TITLE	LABEL	PWR Cyclic Charge Discharge (Cell) - Discharge Step	Test &Identifier
DATE	LABEL	7-7-2017	Date
TIME	LABEL	15:58:00	Time
NOTES	NOTES	3	&Notes...
	supercap test cell
	2.8mg
	6M KOH
PSTAT	PSTAT	IFC5000-01520	Potentiostat
CAPACITY	QUANT	1.00000E-003	Capacity (A-hr)
CELLTYPE	SELECTOR	1	&Cell Type
WORKINGCONNECTION	SELECTOR	0	&Working Lead
MAXDISCHARGETIME	VARIABLEANDUNITS	1.00000E+002	s	1.00000E+002	second(s)	Max &Discharge Time
DISCHARGEMODE	MULTIPARAM	0	2.80000E-004	&Discharge Mode	Constant Current	Amp(s)
SAMPLETIME	QUANT	1.00000E-002	Sa&mple Period (s)
DISCHARGESTOPAT1	MULTIPARAM	3	0.00000E+000	Discharge Stop At &1	Voltage < Limit	V
DISCHARGESTOPAT2	MULTIPARAM	0	0.00000E+000	Discharge Stop At &2	None	N/A
AESBHCSELECTOR	TOGGLE	F	Save Both Half Cells
IRCOMP	TOGGLE	F	IR &Measure
EOC	QUANT	0	Open Circuit (V)
SEQUENCER	TOGGLE	TRUE	Run as Sequence
PSTATMODEL	IQUANT	53	Pstat Model
PSTATSECTION	LABEL	IFC5000-01520	Pstat Section
PSTATSERIALNO	LABEL	01520	Pstat Serial Number
CTRLMODE	IQUANT	0	Control Mode
ELECTROMETER	IQUANT	1	RE=0 or CS=1
IESTAB	IQUANT	0	I/E Stability
CASPEED	IQUANT	4	Control Amp Speed
CONVENTION	IQUANT	1	Current Convention
ICHRANGE	IQUANT	2	Ich Range
ICHRANGEMODE	TOGGLE	T	Ich Auto Range
ICHOFFSETENABLE	TOGGLE	F	Ich Offset Enable
ICHOFFSET	QUANT	0	Ich Offset (V)
ICHFILTER	IQUANT	1	Ich Filter
VCHRANGE	IQUANT	2	Vch Range
VCHRANGEMODE	TOGGLE	T	Vch Auto Range
VCHOFFSETENABLE	TOGGLE	F	Vch Offset Enable
VCHOFFSET	QUANT	0	Vch Offset (V)
VCHFILTER	IQUANT	1	Vch Filter
IERANGELOWERLIMIT	IQUANT	9	I/E Range Lower Limit
IERANGEMODE	TOGGLE	F	I/E AutoRange
IERANGE	IQUANT	9	I/E Range
ACHSELECT	IQUANT	1	Ach Select
ACHRANGE	IQUANT	2	Ach Range
ACHOFFSETENABLE	TOGGLE	F	Ach Offset Enable
ACHOFFSET	QUANT	0	Ach Offset (V)
ACHFILTER	IQUANT	1	Ach Filter
CABLEID	IQUANT	14	Cable ID
DCCALDATE	LABEL	5-7-2017	DC Calibration Date
ACCALDATE	LABEL	12/3/2015	AC Calibration Date
FRAMEWORKVERSION	QUANT	7.01	Framework Version
INSTRUMENTVERSION	LABEL	4.00	Instrument Version
CURVE	TABLE	74
	Pt	T	Vf	Im	Vu	Pwr	Sig	Ach	Temp	IERange	Over
	#	s	V	A	V	W	V	V	deg C	#	bits
	0	0.013333	5.33497E-001	-2.79234E-004	0.00000E+000	-1.48971E-004	-1.68088E-001	5.33740E-001	3.57790E+000	9	...........
	1	0.026667	5.01484E-001	-2.78992E-004	0.00000E+000	-1.39910E-004	-1.68088E-001	5.01734E-001	3.57790E+000	9	...........
	2	0.04	4.72581E-001	-2.77749E-004	0.00000E+000	-1.31259E-004	-1.68088E-001	4.72724E-001	3.57790E+000	9	...........
	3	0.053333	4.45696E-001	-2.78686E-004	0.00000E+000	-1.24209E-004	-1.68088E-001	4.45807E-001	3.57790E+000	9	...........
	4	0.066667	4.20706E-001	-2.78303E-004	0.00000E+000	-1.17084E-004	-1.68088E-001	4.20808E-001	3.57790E+000	9	...........
	5	0.08	3.97440E-001	-2.79053E-004	0.00000E+000	-1.10907E-004	-1.68088E-001	3.97531E-001	3.57790E+000	9	...........
	6	0.093333	3.75799E-001	-2.77752E-004	0.00000E+000	-1.04379E-004	-1.68088E-001	3.75881E-001	3.57790E+000	9	...........
	7	0.106667	3.55691E-001	-2.78549E-004	0.00000E+000	-9.90774E-005	-1.68088E-001	3.55774E-001	3.57790E+000	9	...........
	8	0.12	3.37036E-001	-2.78211E-004	0.00000E+000	-9.37671E-005	-1.68088E-001	3.37112E-001	3.57790E+000	9	...........
	9	0.133333	3.19658E-001	-2.79570E-004	0.00000E+000	-8.93668E-005	-1.68088E-001	3.19735E-001	3.57790E+000	9	...........
	10	0.146667	3.03530E-001	-2.78219E-004	0.00000E+000	-8.44477E-005	-1.68088E-001	3.03603E-001	3.57790E+000	9	...........
	11	0.16	2.88545E-001	-2.78971E-004	0.00000E+000	-8.04955E-005	-1.68088E-001	2.88616E-001	3.57790E+000	9	...........
	12	0.173333	2.74644E-001	-2.78249E-004	0.00000E+000	-7.64194E-005	-1.68088E-001	2.74709E-001	3.57790E+000	9	...........
	13	0.186667	2.61709E-001	-2.79884E-004	0.00000E+000	-7.32482E-005	-1.68088E-001	2.61775E-001	3.57790E+000	9	...........
	14	0.2	2.49671E-001	-2.78682E-004	0.00000E+000	-6.95788E-005	-1.68088E-001	2.49729E-001	3.57790E+000	9	...........
	15	0.213333	2.38475E-001	-2.78560E-004	0.00000E+000	-6.64298E-005	-1.68088E-001	2.38531E-001	3.57790E+000	9	...........
	16	0.226667	2.28037E-001	-2.79176E-004	0.00000E+000	-6.36624E-005	-1.68088E-001	2.28094E-001	3.57790E+000	9	...........
	17	0.24	2.18266E-001	-2.79797E-004	0.00000E+000	-6.10702E-005	-1.68088E-001	2.18316E-001	3.57790E+000	9	...........
	18	0.253333	2.09114E-001	-2.78835E-004	0.00000E+000	-5.83084E-005	-1.68088E-001	2.09160E-001	3.57790E+000	9	...........
	19	0.266667	2.00526E-001	-2.79125E-004	0.00000E+000	-5.59718E-005	-1.68088E-001	2.00574E-001	3.57790E+000	9	...........
	20	0.28	1.92457E-001	-2.78680E-004	0.00000E+000	-5.36340E-005	-1.68088E-001	1.92499E-001	3.57790E+000	9	...........
	21	0.293333	1.84842E-001	-2.77841E-004	0.00000E+000	-5.13566E-005	-1.68088E-001	1.84890E-001	3.57790E+000	9	...........
	22	0.306667	1.77644E-001	-2.79160E-004	0.00000E+000	-4.95912E-005	-1.68088E-001	1.77689E-001	3.57790E+000	9	...........
	23	0.32	1.70861E-001	-2.77458E-004	0.00000E+000	-4.74068E-005	-1.68088E-001	1.70903E-001	3.57790E+000	9	...........
	24	0.333333	1.64387E-001	-2.79684E-004	0.00000E+000	-4.59766E-005	-1.68088E-001	1.64429E-001	3.57790E+000	9	...........
	25	0.346667	1.58241E-001	-2.78973E-004	0.00000E+000	-4.41450E-005	-1.68088E-001	1.58275E-001	3.57790E+000	9	...........
	26	0.36	1.52385E-001	-2.77949E-004	0.00000E+000	-4.23552E-005	-1.68088E-001	1.52421E-001	3.57790E+000	9	...........
	27	0.373333	1.46792E-001	-2.78945E-004	0.00000E+000	-4.09468E-005	-1.68088E-001	1.46819E-001	3.57790E+000	9	...........
	28	0.386667	1.41440E-001	-2.78908E-004	0.00000E+000	-3.94488E-005	-1.68088E-001	1.41469E-001	3.57790E+000	9	...........
	29	0.4	1.36300E-001	-2.78708E-004	0.00000E+000	-3.79878E-005	-1.68088E-001	1.36332E-001	3.57790E+000	9	...........
	30	0.413333	1.31352E-001	-2.78374E-004	0.00000E+000	-3.65650E-005	-1.68088E-001	1.31390E-001	3.57790E+000	9	...........
	31	0.426667	1.26609E-001	-2.79251E-004	0.00000E+000	-3.53557E-005	-1.68088E-001	1.26640E-001	3.57790E+000	9	...........
	32	0.44	1.22011E-001	-2.78652E-004	0.00000E+000	-3.39986E-005	-1.68088E-001	1.22044E-001	3.57790E+000	9	...........
	33	0.453333	1.17569E-001	-2.79253E-004	0.00000E+000	-3.28314E-005	-1.68088E-001	1.17597E-001	3.57790E+000	9	...........
	34	0.466667	1.13259E-001	-2.79355E-004	0.00000E+000	-3.16396E-005	-1.68088E-001	1.13294E-001	3.57790E+000	9	...........
	35	0.48	1.09111E-001	-2.79556E-004	0.00000E+000	-3.05027E-005	-1.68088E-001	1.09142E-001	3.57790E+000	9	...........
	36	0.493333	1.05065E-001	-2.79939E-004	0.00000E+000	-2.94117E-005	-1.68088E-001	1.05094E-001	3.57790E+000	9	...........
	37	0.506667	1.01127E-001	-2.78800E-004	0.00000E+000	-2.81941E-005	-1.68088E-001	1.01153E-001	3.57790E+000	9	...........
	38	0.52	9.73432E-002	-2.79834E-004	0.00000E+000	-2.72399E-005	-1.68088E-001	9.73685E-002	3.57790E+000	9	...........
	39	0.533333	9.36219E-002	-2.78961E-004	0.00000E+000	-2.61169E-005	-1.68088E-001	9.36471E-002	3.57790E+000	9	...........
	40	0.546667	8.99811E-002	-2.79153E-004	0.00000E+000	-2.51185E-005	-1.68088E-001	9.00107E-002	3.57790E+000	9	...........
	41	0.56	8.64740E-002	-2.79353E-004	0.00000E+000	-2.41568E-005	-1.68088E-001	8.64990E-002	3.57790E+000	9	...........
	42	0.573333	8.30684E-002	-2.78360E-004	0.00000E+000	-2.31230E-005	-1.68088E-001	8.30869E-002	3.57790E+000	9	...........
	43	0.586667	7.97042E-002	-2.79739E-004	0.00000E+000	-2.22963E-005	-1.68088E-001	7.97206E-002	3.57790E+000	9	...........
	44	0.6	7.64525E-002	-2.79217E-004	0.00000E+000	-2.13468E-005	-1.68088E-001	7.64690E-002	3.57790E+000	9	...........
	45	0.613333	7.32587E-002	-2.78446E-004	0.00000E+000	-2.03986E-005	-1.68088E-001	7.32717E-002	3.57790E+000	9	...........
	46	0.626667	7.00622E-002	-2.79349E-004	0.00000E+000	-1.95718E-005	-1.68088E-001	7.00773E-002	3.57790E+000	9	...........
	47	0.64	6.69454E-002	-2.79172E-004	0.00000E+000	-1.86893E-005	-1.68088E-001	6.69601E-002	3.57837E+000	9	...........
	48	0.653333	6.39384E-002	-2.78502E-004	0.00000E+000	-1.78070E-005	-1.68088E-001	6.39503E-002	3.57980E+000	9	...........
	49	0.666667	6.09845E-002	-2.79000E-004	0.00000E+000	-1.70147E-005	-1.68088E-001	6.09943E-002	3.57980E+000	9	...........
	50	0.68	5.80564E-002	-2.80142E-004	0.00000E+000	-1.62640E-005	-1.68088E-001	5.80679E-002	3.57980E+000	9	...........
	51	0.693333	5.51858E-002	-2.79157E-004	0.00000E+000	-1.54055E-005	-1.68088E-001	5.51979E-002	3.57980E+000	9	...........
	52	0.706667	5.23472E-002	-2.78194E-004	0.00000E+000	-1.45627E-005	-1.68088E-001	5.23554E-002	3.57980E+000	9	...........
	53	0.72	4.95386E-002	-2.79033E-004	0.00000E+000	-1.38229E-005	-1.68088E-001	4.95434E-002	3.57980E+000	9	...........
	54	0.733333	4.67968E-002	-2.78236E-004	0.00000E+000	-1.30206E-005	-1.68088E-001	4.68085E-002	3.57980E+000	9	...........
	55	0.746667	4.40562E-002	-2.78305E-004	0.00000E+000	-1.22611E-005	-1.68088E-001	4.40647E-002	3.57980E+000	9	...........
	56	0.76	4.13240E-002	-2.79002E-004	0.00000E+000	-1.15295E-005	-1.68088E-001	4.13311E-002	3.57980E+000	9	...........
	57	0.773333	3.87446E-002	-2.78679E-004	0.00000E+000	-1.07973E-005	-1.68088E-001	3.87530E-002	3.57980E+000	9	...........
	58	0.786667	3.61027E-002	-2.79672E-004	0.00000E+000	-1.00969E-005	-1.68088E-001	3.61061E-002	3.57980E+000	9	...........
	59	0.8	3.34694E-002	-2.79193E-004	0.00000E+000	-9.34442E-006	-1.68088E-001	3.34741E-002	3.57980E+000	9	...........
	60	0.813333	3.09129E-002	-2.79006E-004	0.00000E+000	-8.62490E-006	-1.68088E-001	3.09181E-002	3.57980E+000	9	...........
	61	0.826667	2.83700E-002	-2.78126E-004	0.00000E+000	-7.89043E-006	-1.68088E-001	2.83658E-002	3.57980E+000	9	...........
	62	0.84	2.58599E-002	-2.78993E-004	0.00000E+000	-7.21473E-006	-1.68088E-001	2.58610E-002	3.57980E+000	9	...........
	63	0.853333	2.33866E-002	-2.78126E-004	0.00000E+000	-6.50441E-006	-1.68088E-001	2.33836E-002	3.57980E+000	9	...........
	64	0.866667	2.09119E-002	-2.79737E-004	0.00000E+000	-5.84981E-006	-1.68088E-001	2.09076E-002	3.57980E+000	9	...........
	65	0.88	1.84932E-002	-2.79081E-004	0.00000E+000	-5.16112E-006	-1.68088E-001	1.84852E-002	3.57980E+000	9	...........
	66	0.893333	1.60813E-002	-2.79317E-004	0.00000E+000	-4.49177E-006	-1.68088E-001	1.60722E-002	3.57980E+000	9	...........
	67	0.906667	1.36821E-002	-2.79840E-004	0.00000E+000	-3.82880E-006	-1.68088E-001	1.36700E-002	3.57980E+000	9	...........
	68	0.92	1.13488E-002	-2.78474E-004	0.00000E+000	-3.16035E-006	-1.68088E-001	1.13420E-002	3.57980E+000	9	...........
	69	0.933333	9.09459E-003	-2.78407E-004	0.00000E+000	-2.53200E-006	-1.68088E-001	9.08423E-003	3.57980E+000	9	...........
	70	0.946667	6.80460E-003	-2.77914E-004	0.00000E+000	-1.89110E-006	-1.68088E-001	6.78582E-003	3.57980E+000	9	...........
	71	0.96	4.53609E-003	-2.78324E-004	0.00000E+000	-1.26250E-006	-1.68088E-001	4.51932E-003	3.57980E+000	9	...........
	72	0.97333	2.28717E-003	-2.78396E-004	0.00000E+000	-6.36739E-007	-1.68088E-001	2.27156E-003	3.57980E+000	9	...........
	73	0.98167	4.94310E-004	-2.78723E-004	0.00000E+000	-1.37776E-007	-1.68088E-001	4.77249E-004	3.57980E+000	9	...........
STARTTIMEOFFSET	QUANT	1024.37	Start Time Offset (s)
