EXPLAIN
TAG	PWR800_DISCHARGE
TITLE	LABEL	PWR Cyclic Charge Discharge (Cell) - Discharge Step	Test &Identifier
DATE	LABEL	7-7-2017	Date
TIME	LABEL	16:04:06	Time
NOTES	NOTES	3	&Notes...
	supercap test cell
	2.8mg
	6M KOH
PSTAT	PSTAT	IFC5000-01520	Potentiostat
CAPACITY	QUANT	1.00000E-003	Capacity (A-hr)
CELLTYPE	SELECTOR	1	&Cell Type
WORKINGCONNECTION	SELECTOR	0	&Working Lead
MAXDISCHARGETIME	VARIABLEANDUNITS	1.00000E+002	s	1.00000E+002	second(s)	Max &Discharge Time
DISCHARGEMODE	MULTIPARAM	0	2.80000E-004	&Discharge Mode	Constant Current	Amp(s)
SAMPLETIME	QUANT	1.00000E-002	Sa&mple Period (s)
DISCHARGESTOPAT1	MULTIPARAM	3	0.00000E+000	Discharge Stop At &1	Voltage < Limit	V
DISCHARGESTOPAT2	MULTIPARAM	0	0.00000E+000	Discharge Stop At &2	None	N/A
AESBHCSELECTOR	TOGGLE	F	Save Both Half Cells
IRCOMP	TOGGLE	F	IR &Measure
EOC	QUANT	0	Open Circuit (V)
SEQUENCER	TOGGLE	TRUE	Run as Sequence
PSTATMODEL	IQUANT	53	Pstat Model
PSTATSECTION	LABEL	IFC5000-01520	Pstat Section
PSTATSERIALNO	LABEL	01520	Pstat Serial Number
CTRLMODE	IQUANT	0	Control Mode
ELECTROMETER	IQUANT	1	RE=0 or CS=1
IESTAB	IQUANT	0	I/E Stability
CASPEED	IQUANT	4	Control Amp Speed
CONVENTION	IQUANT	1	Current Convention
ICHRANGE	IQUANT	2	Ich Range
ICHRANGEMODE	TOGGLE	T	Ich Auto Range
ICHOFFSETENABLE	TOGGLE	F	Ich Offset Enable
ICHOFFSET	QUANT	0	Ich Offset (V)
ICHFILTER	IQUANT	1	Ich Filter
VCHRANGE	IQUANT	2	Vch Range
VCHRANGEMODE	TOGGLE	T	Vch Auto Range
VCHOFFSETENABLE	TOGGLE	F	Vch Offset Enable
VCHOFFSET	QUANT	0	Vch Offset (V)
VCHFILTER	IQUANT	1	Vch Filter
IERANGELOWERLIMIT	IQUANT	9	I/E Range Lower Limit
IERANGEMODE	TOGGLE	F	I/E AutoRange
IERANGE	IQUANT	9	I/E Range
ACHSELECT	IQUANT	1	Ach Select
ACHRANGE	IQUANT	2	Ach Range
ACHOFFSETENABLE	TOGGLE	F	Ach Offset Enable
ACHOFFSET	QUANT	0	Ach Offset (V)
ACHFILTER	IQUANT	1	Ach Filter
CABLEID	IQUANT	14	Cable ID
DCCALDATE	LABEL	5-7-2017	DC Calibration Date
ACCALDATE	LABEL	12/3/2015	AC Calibration Date
FRAMEWORKVERSION	QUANT	7.01	Framework Version
INSTRUMENTVERSION	LABEL	4.00	Instrument Version
CURVE	TABLE	66
	Pt	T	Vf	Im	Vu	Pwr	Sig	Ach	Temp	IERange	Over
	#	s	V	A	V	W	V	V	deg C	#	bits
	0	0.013333	5.27178E-001	-2.77212E-004	0.00000E+000	-1.46140E-004	-1.68088E-001	5.27386E-001	3.57810E+000	9	...........
	1	0.026667	4.94503E-001	-2.79609E-004	0.00000E+000	-1.38268E-004	-1.68088E-001	4.94717E-001	3.57810E+000	9	...........
	2	0.04	4.64874E-001	-2.79617E-004	0.00000E+000	-1.29986E-004	-1.68088E-001	4.64990E-001	3.57810E+000	9	...........
	3	0.053333	4.37181E-001	-2.77944E-004	0.00000E+000	-1.21512E-004	-1.68088E-001	4.37288E-001	3.57810E+000	9	...........
	4	0.066667	4.11387E-001	-2.77155E-004	0.00000E+000	-1.14018E-004	-1.68088E-001	4.11490E-001	3.57810E+000	9	...........
	5	0.08	3.87329E-001	-2.79997E-004	0.00000E+000	-1.08451E-004	-1.68088E-001	3.87423E-001	3.57810E+000	9	...........
	6	0.093333	3.64909E-001	-2.78496E-004	0.00000E+000	-1.01625E-004	-1.68088E-001	3.64997E-001	3.57810E+000	9	...........
	7	0.106667	3.44023E-001	-2.77992E-004	0.00000E+000	-9.56358E-005	-1.68088E-001	3.44103E-001	3.57810E+000	9	...........
	8	0.12	3.24583E-001	-2.78837E-004	0.00000E+000	-9.05059E-005	-1.68088E-001	3.24665E-001	3.57810E+000	9	...........
	9	0.133333	3.06541E-001	-2.78191E-004	0.00000E+000	-8.52772E-005	-1.68088E-001	3.06616E-001	3.57810E+000	9	...........
	10	0.146667	2.89782E-001	-2.79044E-004	0.00000E+000	-8.08620E-005	-1.68088E-001	2.89861E-001	3.57810E+000	9	...........
	11	0.16	2.74246E-001	-2.78819E-004	0.00000E+000	-7.64649E-005	-1.68088E-001	2.74319E-001	3.57810E+000	9	...........
	12	0.173333	2.59807E-001	-2.79057E-004	0.00000E+000	-7.25010E-005	-1.68088E-001	2.59870E-001	3.57810E+000	9	...........
	13	0.186667	2.46386E-001	-2.79613E-004	0.00000E+000	-6.88928E-005	-1.68088E-001	2.46443E-001	3.57810E+000	9	...........
	14	0.2	2.33904E-001	-2.78892E-004	0.00000E+000	-6.52340E-005	-1.68088E-001	2.33955E-001	3.57810E+000	9	...........
	15	0.213333	2.22269E-001	-2.79202E-004	0.00000E+000	-6.20579E-005	-1.68088E-001	2.22322E-001	3.57749E+000	9	...........
	16	0.226667	2.11439E-001	-2.78178E-004	0.00000E+000	-5.88175E-005	-1.68088E-001	2.11486E-001	3.57740E+000	9	...........
	17	0.24	2.01314E-001	-2.79118E-004	0.00000E+000	-5.61903E-005	-1.68088E-001	2.01362E-001	3.57740E+000	9	...........
	18	0.253333	1.91857E-001	-2.79121E-004	0.00000E+000	-5.35511E-005	-1.68088E-001	1.91899E-001	3.57740E+000	9	...........
	19	0.266667	1.83023E-001	-2.79010E-004	0.00000E+000	-5.10652E-005	-1.68088E-001	1.83064E-001	3.57740E+000	9	...........
	20	0.28	1.74752E-001	-2.79158E-004	0.00000E+000	-4.87836E-005	-1.68088E-001	1.74791E-001	3.57740E+000	9	...........
	21	0.293333	1.66982E-001	-2.77700E-004	0.00000E+000	-4.63708E-005	-1.68088E-001	1.67020E-001	3.57740E+000	9	...........
	22	0.306667	1.59627E-001	-2.79438E-004	0.00000E+000	-4.46057E-005	-1.68088E-001	1.59658E-001	3.57740E+000	9	...........
	23	0.32	1.52669E-001	-2.79638E-004	0.00000E+000	-4.26921E-005	-1.68088E-001	1.52698E-001	3.57740E+000	9	...........
	24	0.333333	1.46049E-001	-2.79040E-004	0.00000E+000	-4.07534E-005	-1.68088E-001	1.46071E-001	3.57740E+000	9	...........
	25	0.346667	1.39816E-001	-2.80288E-004	0.00000E+000	-3.91886E-005	-1.68088E-001	1.39850E-001	3.57740E+000	9	...........
	26	0.36	1.33836E-001	-2.78727E-004	0.00000E+000	-3.73038E-005	-1.68088E-001	1.33875E-001	3.57740E+000	9	...........
	27	0.373333	1.28156E-001	-2.78674E-004	0.00000E+000	-3.57137E-005	-1.68088E-001	1.28187E-001	3.57740E+000	9	...........
	28	0.386667	1.22769E-001	-2.79770E-004	0.00000E+000	-3.43470E-005	-1.68088E-001	1.22798E-001	3.57740E+000	9	...........
	29	0.4	1.17602E-001	-2.79874E-004	0.00000E+000	-3.29137E-005	-1.68088E-001	1.17632E-001	3.57740E+000	9	...........
	30	0.413333	1.12590E-001	-2.78984E-004	0.00000E+000	-3.14109E-005	-1.68088E-001	1.12617E-001	3.57740E+000	9	...........
	31	0.426667	1.07763E-001	-2.78284E-004	0.00000E+000	-2.99887E-005	-1.68088E-001	1.07794E-001	3.57740E+000	9	...........
	32	0.44	1.03124E-001	-2.80031E-004	0.00000E+000	-2.88780E-005	-1.68088E-001	1.03153E-001	3.57740E+000	9	...........
	33	0.453333	9.86547E-002	-2.77903E-004	0.00000E+000	-2.74164E-005	-1.68088E-001	9.86873E-002	3.57740E+000	9	...........
	34	0.466667	9.43680E-002	-2.78320E-004	0.00000E+000	-2.62645E-005	-1.68088E-001	9.43979E-002	3.57740E+000	9	...........
	35	0.48	9.02125E-002	-2.77524E-004	0.00000E+000	-2.50361E-005	-1.68088E-001	9.02422E-002	3.57740E+000	9	...........
	36	0.493333	8.61295E-002	-2.79232E-004	0.00000E+000	-2.40501E-005	-1.68088E-001	8.61502E-002	3.57740E+000	9	...........
	37	0.506667	8.21608E-002	-2.79001E-004	0.00000E+000	-2.29230E-005	-1.68088E-001	8.21871E-002	3.57740E+000	9	...........
	38	0.52	7.83160E-002	-2.80475E-004	0.00000E+000	-2.19657E-005	-1.68088E-001	7.83415E-002	3.57740E+000	9	...........
	39	0.533333	7.46021E-002	-2.79445E-004	0.00000E+000	-2.08472E-005	-1.68088E-001	7.46189E-002	3.57740E+000	9	...........
	40	0.546667	7.09865E-002	-2.79474E-004	0.00000E+000	-1.98389E-005	-1.68088E-001	7.09987E-002	3.57740E+000	9	...........
	41	0.56	6.74819E-002	-2.78728E-004	0.00000E+000	-1.88091E-005	-1.68088E-001	6.74929E-002	3.57740E+000	9	...........
	42	0.573333	6.40011E-002	-2.78101E-004	0.00000E+000	-1.77988E-005	-1.68088E-001	6.40128E-002	3.57740E+000	9	...........
	43	0.586667	6.06059E-002	-2.78091E-004	0.00000E+000	-1.68540E-005	-1.68088E-001	6.06166E-002	3.57740E+000	9	...........
	44	0.6	5.72757E-002	-2.78829E-004	0.00000E+000	-1.59701E-005	-1.68088E-001	5.72877E-002	3.57740E+000	9	...........
	45	0.613333	5.40095E-002	-2.77479E-004	0.00000E+000	-1.49865E-005	-1.68088E-001	5.40202E-002	3.57740E+000	9	...........
	46	0.626667	5.07934E-002	-2.78742E-004	0.00000E+000	-1.41582E-005	-1.68088E-001	5.08052E-002	3.57740E+000	9	...........
	47	0.64	4.76921E-002	-2.79902E-004	0.00000E+000	-1.33491E-005	-1.68088E-001	4.77004E-002	3.57740E+000	9	...........
	48	0.653333	4.46665E-002	-2.78749E-004	0.00000E+000	-1.24507E-005	-1.68088E-001	4.46786E-002	3.57740E+000	9	...........
	49	0.666667	4.16648E-002	-2.78494E-004	0.00000E+000	-1.16034E-005	-1.68088E-001	4.16703E-002	3.57740E+000	9	...........
	50	0.68	3.87236E-002	-2.78519E-004	0.00000E+000	-1.07852E-005	-1.68088E-001	3.87308E-002	3.57740E+000	9	...........
	51	0.693333	3.58281E-002	-2.79102E-004	0.00000E+000	-9.99971E-006	-1.68088E-001	3.58385E-002	3.57740E+000	9	...........
	52	0.706667	3.29496E-002	-2.78740E-004	0.00000E+000	-9.18437E-006	-1.68088E-001	3.29528E-002	3.57740E+000	9	...........
	53	0.72	3.01162E-002	-2.77979E-004	0.00000E+000	-8.37168E-006	-1.68088E-001	3.01142E-002	3.57740E+000	9	...........
	54	0.733333	2.73180E-002	-2.79422E-004	0.00000E+000	-7.63324E-006	-1.68088E-001	2.73275E-002	3.57740E+000	9	...........
	55	0.746667	2.45611E-002	-2.78467E-004	0.00000E+000	-6.83945E-006	-1.68088E-001	2.45579E-002	3.57740E+000	9	...........
	56	0.76	2.18657E-002	-2.78842E-004	0.00000E+000	-6.09706E-006	-1.68088E-001	2.18615E-002	3.57740E+000	9	...........
	57	0.773333	1.92102E-002	-2.78248E-004	0.00000E+000	-5.34521E-006	-1.68088E-001	1.92021E-002	3.57740E+000	9	...........
	58	0.786667	1.65912E-002	-2.78006E-004	0.00000E+000	-4.61245E-006	-1.68088E-001	1.65834E-002	3.57740E+000	9	...........
	59	0.8	1.39760E-002	-2.79803E-004	0.00000E+000	-3.91052E-006	-1.68088E-001	1.39671E-002	3.57740E+000	9	...........
	60	0.813333	1.14232E-002	-2.78304E-004	0.00000E+000	-3.17912E-006	-1.68088E-001	1.14162E-002	3.57740E+000	9	...........
	61	0.826667	8.91837E-003	-2.79464E-004	0.00000E+000	-2.49236E-006	-1.68088E-001	8.90692E-003	3.57740E+000	9	...........
	62	0.84	6.45936E-003	-2.79595E-004	0.00000E+000	-1.80600E-006	-1.68088E-001	6.44567E-003	3.57740E+000	9	...........
	63	0.853333	4.04909E-003	-2.80004E-004	0.00000E+000	-1.13376E-006	-1.68088E-001	4.03463E-003	3.57740E+000	9	...........
	64	0.866667	1.64569E-003	-2.78698E-004	0.00000E+000	-4.58651E-007	-1.68088E-001	1.63116E-003	3.57740E+000	9	...........
	65	0.871667	1.06774E-005	-2.79590E-004	0.00000E+000	-2.98529E-009	-1.68088E-001	-6.53462E-006	3.57740E+000	9	...........
STARTTIMEOFFSET	QUANT	1280.968	Start Time Offset (s)
