EXPLAIN
TAG	PWR800_DISCHARGE
TITLE	LABEL	PWR Cyclic Charge Discharge (Cell) - Discharge Step	Test &Identifier
DATE	LABEL	7-7-2017	Date
TIME	LABEL	16:24:58	Time
NOTES	NOTES	3	&Notes...
	supercap test cell
	2.8mg
	6M KOH
PSTAT	PSTAT	IFC5000-01520	Potentiostat
CAPACITY	QUANT	1.00000E-003	Capacity (A-hr)
CELLTYPE	SELECTOR	1	&Cell Type
WORKINGCONNECTION	SELECTOR	0	&Working Lead
MAXDISCHARGETIME	VARIABLEANDUNITS	1.00000E+002	s	1.00000E+002	second(s)	Max &Discharge Time
DISCHARGEMODE	MULTIPARAM	0	2.80000E-004	&Discharge Mode	Constant Current	Amp(s)
SAMPLETIME	QUANT	1.00000E-002	Sa&mple Period (s)
DISCHARGESTOPAT1	MULTIPARAM	3	0.00000E+000	Discharge Stop At &1	Voltage < Limit	V
DISCHARGESTOPAT2	MULTIPARAM	0	0.00000E+000	Discharge Stop At &2	None	N/A
AESBHCSELECTOR	TOGGLE	F	Save Both Half Cells
IRCOMP	TOGGLE	F	IR &Measure
EOC	QUANT	0	Open Circuit (V)
SEQUENCER	TOGGLE	TRUE	Run as Sequence
PSTATMODEL	IQUANT	53	Pstat Model
PSTATSECTION	LABEL	IFC5000-01520	Pstat Section
PSTATSERIALNO	LABEL	01520	Pstat Serial Number
CTRLMODE	IQUANT	0	Control Mode
ELECTROMETER	IQUANT	1	RE=0 or CS=1
IESTAB	IQUANT	0	I/E Stability
CASPEED	IQUANT	4	Control Amp Speed
CONVENTION	IQUANT	1	Current Convention
ICHRANGE	IQUANT	2	Ich Range
ICHRANGEMODE	TOGGLE	T	Ich Auto Range
ICHOFFSETENABLE	TOGGLE	F	Ich Offset Enable
ICHOFFSET	QUANT	0	Ich Offset (V)
ICHFILTER	IQUANT	1	Ich Filter
VCHRANGE	IQUANT	2	Vch Range
VCHRANGEMODE	TOGGLE	T	Vch Auto Range
VCHOFFSETENABLE	TOGGLE	F	Vch Offset Enable
VCHOFFSET	QUANT	0	Vch Offset (V)
VCHFILTER	IQUANT	1	Vch Filter
IERANGELOWERLIMIT	IQUANT	9	I/E Range Lower Limit
IERANGEMODE	TOGGLE	F	I/E AutoRange
IERANGE	IQUANT	9	I/E Range
ACHSELECT	IQUANT	1	Ach Select
ACHRANGE	IQUANT	2	Ach Range
ACHOFFSETENABLE	TOGGLE	F	Ach Offset Enable
ACHOFFSET	QUANT	0	Ach Offset (V)
ACHFILTER	IQUANT	1	Ach Filter
CABLEID	IQUANT	14	Cable ID
DCCALDATE	LABEL	5-7-2017	DC Calibration Date
ACCALDATE	LABEL	12/3/2015	AC Calibration Date
FRAMEWORKVERSION	QUANT	7.01	Framework Version
INSTRUMENTVERSION	LABEL	4.00	Instrument Version
CURVE	TABLE	51
	Pt	T	Vf	Im	Vu	Pwr	Sig	Ach	Temp	IERange	Over
	#	s	V	A	V	W	V	V	deg C	#	bits
	0	0.013333	5.06744E-001	-2.77679E-004	0.00000E+000	-1.40712E-004	-1.68088E-001	5.06988E-001	3.57880E+000	9	...........
	1	0.026667	4.72917E-001	-2.79581E-004	0.00000E+000	-1.32219E-004	-1.68088E-001	4.73052E-001	3.57880E+000	9	...........
	2	0.04	4.41720E-001	-2.79114E-004	0.00000E+000	-1.23290E-004	-1.68088E-001	4.41816E-001	3.57880E+000	9	...........
	3	0.053333	4.12675E-001	-2.80029E-004	0.00000E+000	-1.15561E-004	-1.68088E-001	4.12769E-001	3.57880E+000	9	...........
	4	0.066667	3.85565E-001	-2.77897E-004	0.00000E+000	-1.07147E-004	-1.68088E-001	3.85651E-001	3.57880E+000	9	...........
	5	0.08	3.60223E-001	-2.80121E-004	0.00000E+000	-1.00906E-004	-1.68088E-001	3.60296E-001	3.57880E+000	9	...........
	6	0.093333	3.36574E-001	-2.77342E-004	0.00000E+000	-9.33463E-005	-1.68088E-001	3.36646E-001	3.57880E+000	9	...........
	7	0.106667	3.14510E-001	-2.78877E-004	0.00000E+000	-8.77096E-005	-1.68088E-001	3.14579E-001	3.57880E+000	9	...........
	8	0.12	2.93973E-001	-2.76807E-004	0.00000E+000	-8.13738E-005	-1.68088E-001	2.94037E-001	3.57880E+000	9	...........
	9	0.133333	2.74899E-001	-2.78604E-004	0.00000E+000	-7.65881E-005	-1.68088E-001	2.74957E-001	3.57880E+000	9	...........
	10	0.146667	2.57164E-001	-2.80034E-004	0.00000E+000	-7.20147E-005	-1.68088E-001	2.57229E-001	3.57880E+000	9	...........
	11	0.16	2.40704E-001	-2.80181E-004	0.00000E+000	-6.74408E-005	-1.68088E-001	2.40756E-001	3.57880E+000	9	...........
	12	0.173333	2.25461E-001	-2.77073E-004	0.00000E+000	-6.24690E-005	-1.68088E-001	2.25505E-001	3.57880E+000	9	...........
	13	0.186667	2.11349E-001	-2.78741E-004	0.00000E+000	-5.89115E-005	-1.68088E-001	2.11391E-001	3.57880E+000	9	...........
	14	0.2	1.98217E-001	-2.78786E-004	0.00000E+000	-5.52602E-005	-1.68088E-001	1.98258E-001	3.57880E+000	9	...........
	15	0.213333	1.86023E-001	-2.78706E-004	0.00000E+000	-5.18457E-005	-1.68088E-001	1.86062E-001	3.57880E+000	9	...........
	16	0.226667	1.74707E-001	-2.78752E-004	0.00000E+000	-4.86999E-005	-1.68088E-001	1.74745E-001	3.57880E+000	9	...........
	17	0.24	1.64119E-001	-2.78617E-004	0.00000E+000	-4.57262E-005	-1.68088E-001	1.64150E-001	3.57880E+000	9	...........
	18	0.253333	1.54268E-001	-2.79971E-004	0.00000E+000	-4.31907E-005	-1.68088E-001	1.54296E-001	3.57880E+000	9	...........
	19	0.266667	1.45061E-001	-2.78208E-004	0.00000E+000	-4.03572E-005	-1.68088E-001	1.45089E-001	3.57880E+000	9	...........
	20	0.28	1.36472E-001	-2.78710E-004	0.00000E+000	-3.80362E-005	-1.68088E-001	1.36493E-001	3.57880E+000	9	...........
	21	0.293333	1.28404E-001	-2.78104E-004	0.00000E+000	-3.57098E-005	-1.68088E-001	1.28421E-001	3.57880E+000	9	...........
	22	0.306667	1.20759E-001	-2.79189E-004	0.00000E+000	-3.37144E-005	-1.68088E-001	1.20782E-001	3.57880E+000	9	...........
	23	0.32	1.13563E-001	-2.78325E-004	0.00000E+000	-3.16075E-005	-1.68088E-001	1.13581E-001	3.57880E+000	9	...........
	24	0.333333	1.06769E-001	-2.78933E-004	0.00000E+000	-2.97813E-005	-1.68088E-001	1.06786E-001	3.57880E+000	9	...........
	25	0.346667	1.00367E-001	-2.79495E-004	0.00000E+000	-2.80522E-005	-1.68088E-001	1.00388E-001	3.57880E+000	9	...........
	26	0.36	9.43265E-002	-2.79399E-004	0.00000E+000	-2.63547E-005	-1.68088E-001	9.43431E-002	3.57880E+000	9	...........
	27	0.373333	8.85506E-002	-2.80445E-004	0.00000E+000	-2.48336E-005	-1.68088E-001	8.85675E-002	3.57880E+000	9	...........
	28	0.386667	8.30964E-002	-2.79263E-004	0.00000E+000	-2.32057E-005	-1.68088E-001	8.31058E-002	3.57880E+000	9	...........
	29	0.4	7.78393E-002	-2.79713E-004	0.00000E+000	-2.17726E-005	-1.68088E-001	7.78459E-002	3.57880E+000	9	...........
	30	0.413333	7.27621E-002	-2.78657E-004	0.00000E+000	-2.02757E-005	-1.68088E-001	7.27728E-002	3.57880E+000	9	...........
	31	0.426667	6.78968E-002	-2.78712E-004	0.00000E+000	-1.89237E-005	-1.68088E-001	6.79057E-002	3.57880E+000	9	...........
	32	0.44	6.32551E-002	-2.78363E-004	0.00000E+000	-1.76079E-005	-1.68088E-001	6.32697E-002	3.57880E+000	9	...........
	33	0.453333	5.87712E-002	-2.79342E-004	0.00000E+000	-1.64172E-005	-1.68088E-001	5.87770E-002	3.57880E+000	9	...........
	34	0.466667	5.44653E-002	-2.78901E-004	0.00000E+000	-1.51904E-005	-1.68088E-001	5.44674E-002	3.57880E+000	9	...........
	35	0.48	5.02720E-002	-2.77562E-004	0.00000E+000	-1.39536E-005	-1.68088E-001	5.02759E-002	3.57880E+000	9	...........
	36	0.493333	4.62904E-002	-2.79157E-004	0.00000E+000	-1.29223E-005	-1.68088E-001	4.62995E-002	3.57810E+000	9	...........
	37	0.506667	4.23441E-002	-2.78976E-004	0.00000E+000	-1.18130E-005	-1.68088E-001	4.23462E-002	3.57740E+000	9	...........
	38	0.52	3.84966E-002	-2.79723E-004	0.00000E+000	-1.07684E-005	-1.68088E-001	3.84981E-002	3.57740E+000	9	...........
	39	0.533333	3.47378E-002	-2.78624E-004	0.00000E+000	-9.67877E-006	-1.68088E-001	3.47366E-002	3.57740E+000	9	...........
	40	0.546667	3.11152E-002	-2.78849E-004	0.00000E+000	-8.67644E-006	-1.68088E-001	3.11162E-002	3.57740E+000	9	...........
	41	0.56	2.75752E-002	-2.78773E-004	0.00000E+000	-7.68722E-006	-1.68088E-001	2.75692E-002	3.57740E+000	9	...........
	42	0.573333	2.41481E-002	-2.79113E-004	0.00000E+000	-6.74002E-006	-1.68088E-001	2.41426E-002	3.57740E+000	9	...........
	43	0.586667	2.07832E-002	-2.78781E-004	0.00000E+000	-5.79396E-006	-1.68088E-001	2.07680E-002	3.57740E+000	9	...........
	44	0.6	1.74870E-002	-2.77953E-004	0.00000E+000	-4.86055E-006	-1.68088E-001	1.74743E-002	3.57740E+000	9	...........
	45	0.613333	1.42390E-002	-2.78852E-004	0.00000E+000	-3.97057E-006	-1.68088E-001	1.42261E-002	3.57740E+000	9	...........
	46	0.626667	1.10640E-002	-2.79483E-004	0.00000E+000	-3.09221E-006	-1.68088E-001	1.10499E-002	3.57740E+000	9	...........
	47	0.64	7.97264E-003	-2.78957E-004	0.00000E+000	-2.22403E-006	-1.68088E-001	7.95415E-003	3.57740E+000	9	...........
	48	0.653333	4.95918E-003	-2.79558E-004	0.00000E+000	-1.38638E-006	-1.68088E-001	4.94174E-003	3.57740E+000	9	...........
	49	0.666667	2.03555E-003	-2.79805E-004	0.00000E+000	-5.69557E-007	-1.68088E-001	2.01609E-003	3.57740E+000	9	...........
	50	0.671667	6.15334E-005	-2.75003E-004	0.00000E+000	-1.69219E-008	-1.68088E-001	3.77139E-005	3.57740E+000	9	...........
STARTTIMEOFFSET	QUANT	2114.637	Start Time Offset (s)
