EXPLAIN
TAG	PWR800_DISCHARGE
TITLE	LABEL	PWR Cyclic Charge Discharge (Cell) - Discharge Step	Test &Identifier
DATE	LABEL	7-7-2017	Date
TIME	LABEL	16:21:30	Time
NOTES	NOTES	3	&Notes...
	supercap test cell
	2.8mg
	6M KOH
PSTAT	PSTAT	IFC5000-01520	Potentiostat
CAPACITY	QUANT	1.00000E-003	Capacity (A-hr)
CELLTYPE	SELECTOR	1	&Cell Type
WORKINGCONNECTION	SELECTOR	0	&Working Lead
MAXDISCHARGETIME	VARIABLEANDUNITS	1.00000E+002	s	1.00000E+002	second(s)	Max &Discharge Time
DISCHARGEMODE	MULTIPARAM	0	2.80000E-004	&Discharge Mode	Constant Current	Amp(s)
SAMPLETIME	QUANT	1.00000E-002	Sa&mple Period (s)
DISCHARGESTOPAT1	MULTIPARAM	3	0.00000E+000	Discharge Stop At &1	Voltage < Limit	V
DISCHARGESTOPAT2	MULTIPARAM	0	0.00000E+000	Discharge Stop At &2	None	N/A
AESBHCSELECTOR	TOGGLE	F	Save Both Half Cells
IRCOMP	TOGGLE	F	IR &Measure
EOC	QUANT	0	Open Circuit (V)
SEQUENCER	TOGGLE	TRUE	Run as Sequence
PSTATMODEL	IQUANT	53	Pstat Model
PSTATSECTION	LABEL	IFC5000-01520	Pstat Section
PSTATSERIALNO	LABEL	01520	Pstat Serial Number
CTRLMODE	IQUANT	0	Control Mode
ELECTROMETER	IQUANT	1	RE=0 or CS=1
IESTAB	IQUANT	0	I/E Stability
CASPEED	IQUANT	4	Control Amp Speed
CONVENTION	IQUANT	1	Current Convention
ICHRANGE	IQUANT	2	Ich Range
ICHRANGEMODE	TOGGLE	T	Ich Auto Range
ICHOFFSETENABLE	TOGGLE	F	Ich Offset Enable
ICHOFFSET	QUANT	0	Ich Offset (V)
ICHFILTER	IQUANT	1	Ich Filter
VCHRANGE	IQUANT	2	Vch Range
VCHRANGEMODE	TOGGLE	T	Vch Auto Range
VCHOFFSETENABLE	TOGGLE	F	Vch Offset Enable
VCHOFFSET	QUANT	0	Vch Offset (V)
VCHFILTER	IQUANT	1	Vch Filter
IERANGELOWERLIMIT	IQUANT	9	I/E Range Lower Limit
IERANGEMODE	TOGGLE	F	I/E AutoRange
IERANGE	IQUANT	9	I/E Range
ACHSELECT	IQUANT	1	Ach Select
ACHRANGE	IQUANT	2	Ach Range
ACHOFFSETENABLE	TOGGLE	F	Ach Offset Enable
ACHOFFSET	QUANT	0	Ach Offset (V)
ACHFILTER	IQUANT	1	Ach Filter
CABLEID	IQUANT	14	Cable ID
DCCALDATE	LABEL	5-7-2017	DC Calibration Date
ACCALDATE	LABEL	12/3/2015	AC Calibration Date
FRAMEWORKVERSION	QUANT	7.01	Framework Version
INSTRUMENTVERSION	LABEL	4.00	Instrument Version
CURVE	TABLE	53
	Pt	T	Vf	Im	Vu	Pwr	Sig	Ach	Temp	IERange	Over
	#	s	V	A	V	W	V	V	deg C	#	bits
	0	0.013333	5.16650E-001	-2.78522E-004	0.00000E+000	-1.43898E-004	-1.68088E-001	5.16890E-001	3.57740E+000	9	...........
	1	0.026667	4.82889E-001	-2.78307E-004	0.00000E+000	-1.34391E-004	-1.68088E-001	4.83069E-001	3.57740E+000	9	...........
	2	0.04	4.51840E-001	-2.80053E-004	0.00000E+000	-1.26539E-004	-1.68088E-001	4.51942E-001	3.57740E+000	9	...........
	3	0.053333	4.22796E-001	-2.78525E-004	0.00000E+000	-1.17759E-004	-1.68088E-001	4.22892E-001	3.57740E+000	9	...........
	4	0.066667	3.95657E-001	-2.79343E-004	0.00000E+000	-1.10524E-004	-1.68088E-001	3.95747E-001	3.57740E+000	9	...........
	5	0.08	3.70246E-001	-2.79903E-004	0.00000E+000	-1.03633E-004	-1.68088E-001	3.70329E-001	3.57740E+000	9	...........
	6	0.093333	3.46491E-001	-2.80315E-004	0.00000E+000	-9.71266E-005	-1.68088E-001	3.46572E-001	3.57740E+000	9	...........
	7	0.106667	3.24349E-001	-2.78429E-004	0.00000E+000	-9.03081E-005	-1.68088E-001	3.24426E-001	3.57740E+000	9	...........
	8	0.12	3.03681E-001	-2.79361E-004	0.00000E+000	-8.48367E-005	-1.68088E-001	3.03754E-001	3.57740E+000	9	...........
	9	0.133333	2.84462E-001	-2.78981E-004	0.00000E+000	-7.93595E-005	-1.68088E-001	2.84532E-001	3.57740E+000	9	...........
	10	0.146667	2.66606E-001	-2.78426E-004	0.00000E+000	-7.42300E-005	-1.68088E-001	2.66674E-001	3.57740E+000	9	...........
	11	0.16	2.49994E-001	-2.78420E-004	0.00000E+000	-6.96033E-005	-1.68088E-001	2.50055E-001	3.57740E+000	9	...........
	12	0.173333	2.34587E-001	-2.78219E-004	0.00000E+000	-6.52665E-005	-1.68088E-001	2.34642E-001	3.57740E+000	9	...........
	13	0.186667	2.20258E-001	-2.78996E-004	0.00000E+000	-6.14510E-005	-1.68088E-001	2.20311E-001	3.57740E+000	9	...........
	14	0.2	2.06960E-001	-2.78211E-004	0.00000E+000	-5.75785E-005	-1.68088E-001	2.07007E-001	3.57740E+000	9	...........
	15	0.213333	1.94652E-001	-2.78664E-004	0.00000E+000	-5.42425E-005	-1.68088E-001	1.94703E-001	3.57740E+000	9	...........
	16	0.226667	1.83226E-001	-2.79166E-004	0.00000E+000	-5.11505E-005	-1.68088E-001	1.83270E-001	3.57740E+000	9	...........
	17	0.24	1.72559E-001	-2.78517E-004	0.00000E+000	-4.80607E-005	-1.68088E-001	1.72600E-001	3.57740E+000	9	...........
	18	0.253333	1.62607E-001	-2.78647E-004	0.00000E+000	-4.53098E-005	-1.68088E-001	1.62648E-001	3.57740E+000	9	...........
	19	0.266667	1.53289E-001	-2.79233E-004	0.00000E+000	-4.28033E-005	-1.68088E-001	1.53324E-001	3.57740E+000	9	...........
	20	0.28	1.44569E-001	-2.78198E-004	0.00000E+000	-4.02188E-005	-1.68088E-001	1.44604E-001	3.57740E+000	9	...........
	21	0.293333	1.36426E-001	-2.79846E-004	0.00000E+000	-3.81783E-005	-1.68088E-001	1.36455E-001	3.57740E+000	9	...........
	22	0.306667	1.28778E-001	-2.79153E-004	0.00000E+000	-3.59487E-005	-1.68088E-001	1.28806E-001	3.57740E+000	9	...........
	23	0.32	1.21527E-001	-2.78985E-004	0.00000E+000	-3.39043E-005	-1.68088E-001	1.21555E-001	3.57740E+000	9	...........
	24	0.333333	1.14637E-001	-2.78984E-004	0.00000E+000	-3.19819E-005	-1.68088E-001	1.14662E-001	3.57740E+000	9	...........
	25	0.346667	1.08174E-001	-2.79042E-004	0.00000E+000	-3.01850E-005	-1.68088E-001	1.08201E-001	3.57740E+000	9	...........
	26	0.36	1.02056E-001	-2.78835E-004	0.00000E+000	-2.84567E-005	-1.68088E-001	1.02080E-001	3.57740E+000	9	...........
	27	0.373333	9.62263E-002	-2.79026E-004	0.00000E+000	-2.68496E-005	-1.68088E-001	9.62455E-002	3.57740E+000	9	...........
	28	0.386667	9.06093E-002	-2.79924E-004	0.00000E+000	-2.53637E-005	-1.68088E-001	9.06319E-002	3.57740E+000	9	...........
	29	0.4	8.52239E-002	-2.78929E-004	0.00000E+000	-2.37714E-005	-1.68088E-001	8.52444E-002	3.57740E+000	9	...........
	30	0.413333	8.01033E-002	-2.79302E-004	0.00000E+000	-2.23730E-005	-1.68088E-001	8.01142E-002	3.57740E+000	9	...........
	31	0.426667	7.52116E-002	-2.79867E-004	0.00000E+000	-2.10492E-005	-1.68088E-001	7.52196E-002	3.57740E+000	9	...........
	32	0.44	7.04915E-002	-2.79522E-004	0.00000E+000	-1.97039E-005	-1.68088E-001	7.05025E-002	3.57740E+000	9	...........
	33	0.453333	6.59391E-002	-2.77933E-004	0.00000E+000	-1.83267E-005	-1.68088E-001	6.59548E-002	3.57740E+000	9	...........
	34	0.466667	6.15348E-002	-2.78748E-004	0.00000E+000	-1.71527E-005	-1.68088E-001	6.15426E-002	3.57740E+000	9	...........
	35	0.48	5.72926E-002	-2.78730E-004	0.00000E+000	-1.59692E-005	-1.68088E-001	5.72995E-002	3.57740E+000	9	...........
	36	0.493333	5.32066E-002	-2.78734E-004	0.00000E+000	-1.48305E-005	-1.68088E-001	5.32159E-002	3.57740E+000	9	...........
	37	0.506667	4.92208E-002	-2.79027E-004	0.00000E+000	-1.37339E-005	-1.68088E-001	4.92291E-002	3.57740E+000	9	...........
	38	0.52	4.54077E-002	-2.79747E-004	0.00000E+000	-1.27027E-005	-1.68088E-001	4.54187E-002	3.57740E+000	9	...........
	39	0.533333	4.16979E-002	-2.80030E-004	0.00000E+000	-1.16767E-005	-1.68088E-001	4.17049E-002	3.57740E+000	9	...........
	40	0.546667	3.81022E-002	-2.79017E-004	0.00000E+000	-1.06312E-005	-1.68088E-001	3.81032E-002	3.57740E+000	9	...........
	41	0.56	3.45325E-002	-2.78636E-004	0.00000E+000	-9.62201E-006	-1.68088E-001	3.45336E-002	3.57740E+000	9	...........
	42	0.573333	3.09925E-002	-2.78304E-004	0.00000E+000	-8.62534E-006	-1.68088E-001	3.09940E-002	3.57740E+000	9	...........
	43	0.586667	2.75752E-002	-2.78461E-004	0.00000E+000	-7.67861E-006	-1.68088E-001	2.75688E-002	3.57740E+000	9	...........
	44	0.6	2.42202E-002	-2.79090E-004	0.00000E+000	-6.75960E-006	-1.68088E-001	2.42169E-002	3.57740E+000	9	...........
	45	0.613333	2.09540E-002	-2.78550E-004	0.00000E+000	-5.83674E-006	-1.68088E-001	2.09527E-002	3.57740E+000	9	...........
	46	0.626667	1.77510E-002	-2.76798E-004	0.00000E+000	-4.91344E-006	-1.68088E-001	1.77439E-002	3.57740E+000	9	...........
	47	0.64	1.46356E-002	-2.79320E-004	0.00000E+000	-4.08802E-006	-1.68088E-001	1.46242E-002	3.57740E+000	9	...........
	48	0.653333	1.15756E-002	-2.79179E-004	0.00000E+000	-3.23166E-006	-1.68088E-001	1.15624E-002	3.57740E+000	9	...........
	49	0.666667	8.54899E-003	-2.78070E-004	0.00000E+000	-2.37721E-006	-1.68088E-001	8.53168E-003	3.57740E+000	9	...........
	50	0.68	5.56575E-003	-2.79009E-004	0.00000E+000	-1.55290E-006	-1.68088E-001	5.54580E-003	3.57740E+000	9	...........
	51	0.693333	2.63446E-003	-2.79346E-004	0.00000E+000	-7.35925E-007	-1.68088E-001	2.61435E-003	3.57740E+000	9	...........
	52	0.7	4.95512E-004	-2.79138E-004	0.00000E+000	-1.38316E-007	-1.68088E-001	4.75677E-004	3.57740E+000	9	...........
STARTTIMEOFFSET	QUANT	1980.564	Start Time Offset (s)
