EXPLAIN
TAG	PWR800_DISCHARGE
TITLE	LABEL	PWR Cyclic Charge Discharge (Cell) - Discharge Step	Test &Identifier
DATE	LABEL	7-7-2017	Date
TIME	LABEL	16:08:22	Time
NOTES	NOTES	3	&Notes...
	supercap test cell
	2.8mg
	6M KOH
PSTAT	PSTAT	IFC5000-01520	Potentiostat
CAPACITY	QUANT	1.00000E-003	Capacity (A-hr)
CELLTYPE	SELECTOR	1	&Cell Type
WORKINGCONNECTION	SELECTOR	0	&Working Lead
MAXDISCHARGETIME	VARIABLEANDUNITS	1.00000E+002	s	1.00000E+002	second(s)	Max &Discharge Time
DISCHARGEMODE	MULTIPARAM	0	2.80000E-004	&Discharge Mode	Constant Current	Amp(s)
SAMPLETIME	QUANT	1.00000E-002	Sa&mple Period (s)
DISCHARGESTOPAT1	MULTIPARAM	3	0.00000E+000	Discharge Stop At &1	Voltage < Limit	V
DISCHARGESTOPAT2	MULTIPARAM	0	0.00000E+000	Discharge Stop At &2	None	N/A
AESBHCSELECTOR	TOGGLE	F	Save Both Half Cells
IRCOMP	TOGGLE	F	IR &Measure
EOC	QUANT	0	Open Circuit (V)
SEQUENCER	TOGGLE	TRUE	Run as Sequence
PSTATMODEL	IQUANT	53	Pstat Model
PSTATSECTION	LABEL	IFC5000-01520	Pstat Section
PSTATSERIALNO	LABEL	01520	Pstat Serial Number
CTRLMODE	IQUANT	0	Control Mode
ELECTROMETER	IQUANT	1	RE=0 or CS=1
IESTAB	IQUANT	0	I/E Stability
CASPEED	IQUANT	4	Control Amp Speed
CONVENTION	IQUANT	1	Current Convention
ICHRANGE	IQUANT	2	Ich Range
ICHRANGEMODE	TOGGLE	T	Ich Auto Range
ICHOFFSETENABLE	TOGGLE	F	Ich Offset Enable
ICHOFFSET	QUANT	0	Ich Offset (V)
ICHFILTER	IQUANT	1	Ich Filter
VCHRANGE	IQUANT	2	Vch Range
VCHRANGEMODE	TOGGLE	T	Vch Auto Range
VCHOFFSETENABLE	TOGGLE	F	Vch Offset Enable
VCHOFFSET	QUANT	0	Vch Offset (V)
VCHFILTER	IQUANT	1	Vch Filter
IERANGELOWERLIMIT	IQUANT	9	I/E Range Lower Limit
IERANGEMODE	TOGGLE	F	I/E AutoRange
IERANGE	IQUANT	9	I/E Range
ACHSELECT	IQUANT	1	Ach Select
ACHRANGE	IQUANT	2	Ach Range
ACHOFFSETENABLE	TOGGLE	F	Ach Offset Enable
ACHOFFSET	QUANT	0	Ach Offset (V)
ACHFILTER	IQUANT	1	Ach Filter
CABLEID	IQUANT	14	Cable ID
DCCALDATE	LABEL	5-7-2017	DC Calibration Date
ACCALDATE	LABEL	12/3/2015	AC Calibration Date
FRAMEWORKVERSION	QUANT	7.01	Framework Version
INSTRUMENTVERSION	LABEL	4.00	Instrument Version
CURVE	TABLE	63
	Pt	T	Vf	Im	Vu	Pwr	Sig	Ach	Temp	IERange	Over
	#	s	V	A	V	W	V	V	deg C	#	bits
	0	0.013333	5.27660E-001	-2.78806E-004	0.00000E+000	-1.47115E-004	-1.68088E-001	5.27924E-001	3.57830E+000	9	...........
	1	0.026667	4.94617E-001	-2.79748E-004	0.00000E+000	-1.38368E-004	-1.68088E-001	4.94881E-001	3.57830E+000	9	...........
	2	0.04	4.64624E-001	-2.80121E-004	0.00000E+000	-1.30151E-004	-1.68088E-001	4.64735E-001	3.57830E+000	9	...........
	3	0.053333	4.36519E-001	-2.79580E-004	0.00000E+000	-1.22042E-004	-1.68088E-001	4.36626E-001	3.57830E+000	9	...........
	4	0.066667	4.10311E-001	-2.79808E-004	0.00000E+000	-1.14809E-004	-1.68088E-001	4.10408E-001	3.57830E+000	9	...........
	5	0.08	3.85863E-001	-2.78562E-004	0.00000E+000	-1.07487E-004	-1.68088E-001	3.85954E-001	3.57805E+000	9	...........
	6	0.093333	3.63029E-001	-2.79028E-004	0.00000E+000	-1.01295E-004	-1.68088E-001	3.63120E-001	3.57790E+000	9	...........
	7	0.106667	3.41754E-001	-2.78681E-004	0.00000E+000	-9.52403E-005	-1.68088E-001	3.41839E-001	3.57790E+000	9	...........
	8	0.12	3.21974E-001	-2.78681E-004	0.00000E+000	-8.97280E-005	-1.68088E-001	3.22049E-001	3.57790E+000	9	...........
	9	0.133333	3.03562E-001	-2.79091E-004	0.00000E+000	-8.47213E-005	-1.68088E-001	3.03634E-001	3.57790E+000	9	...........
	10	0.146667	2.86455E-001	-2.79590E-004	0.00000E+000	-8.00900E-005	-1.68088E-001	2.86527E-001	3.57790E+000	9	...........
	11	0.16	2.70578E-001	-2.78087E-004	0.00000E+000	-7.52444E-005	-1.68088E-001	2.70649E-001	3.57790E+000	9	...........
	12	0.173333	2.55823E-001	-2.78732E-004	0.00000E+000	-7.13062E-005	-1.68088E-001	2.55893E-001	3.57790E+000	9	...........
	13	0.186667	2.42132E-001	-2.77983E-004	0.00000E+000	-6.73085E-005	-1.68088E-001	2.42187E-001	3.57790E+000	9	...........
	14	0.2	2.29387E-001	-2.79229E-004	0.00000E+000	-6.40515E-005	-1.68088E-001	2.29449E-001	3.57790E+000	9	...........
	15	0.213333	2.17506E-001	-2.78908E-004	0.00000E+000	-6.06641E-005	-1.68088E-001	2.17555E-001	3.57790E+000	9	...........
	16	0.226667	2.06467E-001	-2.78021E-004	0.00000E+000	-5.74020E-005	-1.68088E-001	2.06518E-001	3.57790E+000	9	...........
	17	0.24	1.96168E-001	-2.78254E-004	0.00000E+000	-5.45844E-005	-1.68088E-001	1.96217E-001	3.57790E+000	9	...........
	18	0.253333	1.86520E-001	-2.78249E-004	0.00000E+000	-5.18989E-005	-1.68088E-001	1.86567E-001	3.57790E+000	9	...........
	19	0.266667	1.77472E-001	-2.79186E-004	0.00000E+000	-4.95478E-005	-1.68088E-001	1.77521E-001	3.57790E+000	9	...........
	20	0.28	1.69028E-001	-2.78261E-004	0.00000E+000	-4.70339E-005	-1.68088E-001	1.69067E-001	3.57790E+000	9	...........
	21	0.293333	1.61103E-001	-2.77207E-004	0.00000E+000	-4.46589E-005	-1.68088E-001	1.61145E-001	3.57790E+000	9	...........
	22	0.306667	1.53617E-001	-2.79071E-004	0.00000E+000	-4.28702E-005	-1.68088E-001	1.53651E-001	3.57790E+000	9	...........
	23	0.32	1.46555E-001	-2.78805E-004	0.00000E+000	-4.08603E-005	-1.68088E-001	1.46595E-001	3.57790E+000	9	...........
	24	0.333333	1.39851E-001	-2.78889E-004	0.00000E+000	-3.90028E-005	-1.68088E-001	1.39887E-001	3.57790E+000	9	...........
	25	0.346667	1.33503E-001	-2.77539E-004	0.00000E+000	-3.70522E-005	-1.68088E-001	1.33540E-001	3.57790E+000	9	...........
	26	0.36	1.27502E-001	-2.79352E-004	0.00000E+000	-3.56178E-005	-1.68088E-001	1.27539E-001	3.57790E+000	9	...........
	27	0.373333	1.21798E-001	-2.79316E-004	0.00000E+000	-3.40201E-005	-1.68088E-001	1.21828E-001	3.57790E+000	9	...........
	28	0.386667	1.16289E-001	-2.79154E-004	0.00000E+000	-3.24627E-005	-1.68088E-001	1.16325E-001	3.57790E+000	9	...........
	29	0.4	1.11041E-001	-2.78473E-004	0.00000E+000	-3.09219E-005	-1.68088E-001	1.11073E-001	3.57790E+000	9	...........
	30	0.413333	1.05984E-001	-2.78781E-004	0.00000E+000	-2.95463E-005	-1.68088E-001	1.06014E-001	3.57790E+000	9	...........
	31	0.426667	1.01105E-001	-2.78912E-004	0.00000E+000	-2.81994E-005	-1.68088E-001	1.01133E-001	3.57790E+000	9	...........
	32	0.44	9.64418E-002	-2.78028E-004	0.00000E+000	-2.68135E-005	-1.68088E-001	9.64759E-002	3.57790E+000	9	...........
	33	0.453333	9.19883E-002	-2.77940E-004	0.00000E+000	-2.55673E-005	-1.68088E-001	9.20178E-002	3.57790E+000	9	...........
	34	0.466667	8.76420E-002	-2.78924E-004	0.00000E+000	-2.44455E-005	-1.68088E-001	8.76703E-002	3.57790E+000	9	...........
	35	0.48	8.34068E-002	-2.80385E-004	0.00000E+000	-2.33860E-005	-1.68088E-001	8.34288E-002	3.57790E+000	9	...........
	36	0.493333	7.93086E-002	-2.78687E-004	0.00000E+000	-2.21023E-005	-1.68088E-001	7.93291E-002	3.57790E+000	9	...........
	37	0.506667	7.53636E-002	-2.78732E-004	0.00000E+000	-2.10063E-005	-1.68088E-001	7.53853E-002	3.57790E+000	9	...........
	38	0.52	7.15443E-002	-2.78461E-004	0.00000E+000	-1.99223E-005	-1.68088E-001	7.15665E-002	3.57790E+000	9	...........
	39	0.533333	6.77940E-002	-2.78654E-004	0.00000E+000	-1.88911E-005	-1.68088E-001	6.78098E-002	3.57790E+000	9	...........
	40	0.546667	6.41701E-002	-2.77634E-004	0.00000E+000	-1.78158E-005	-1.68088E-001	6.41886E-002	3.57790E+000	9	...........
	41	0.56	6.06133E-002	-2.78632E-004	0.00000E+000	-1.68888E-005	-1.68088E-001	6.06314E-002	3.57790E+000	9	...........
	42	0.573333	5.71567E-002	-2.79438E-004	0.00000E+000	-1.59717E-005	-1.68088E-001	5.71681E-002	3.57790E+000	9	...........
	43	0.586667	5.37658E-002	-2.78799E-004	0.00000E+000	-1.49898E-005	-1.68088E-001	5.37755E-002	3.57790E+000	9	...........
	44	0.6	5.04352E-002	-2.78630E-004	0.00000E+000	-1.40528E-005	-1.68088E-001	5.04482E-002	3.57790E+000	9	...........
	45	0.613333	4.72123E-002	-2.78048E-004	0.00000E+000	-1.31273E-005	-1.68088E-001	4.72204E-002	3.57790E+000	9	...........
	46	0.626667	4.40892E-002	-2.79786E-004	0.00000E+000	-1.23355E-005	-1.68088E-001	4.41025E-002	3.57790E+000	9	...........
	47	0.64	4.09647E-002	-2.78794E-004	0.00000E+000	-1.14207E-005	-1.68088E-001	4.09722E-002	3.57790E+000	9	...........
	48	0.653333	3.78700E-002	-2.79155E-004	0.00000E+000	-1.05716E-005	-1.68088E-001	3.78775E-002	3.57790E+000	9	...........
	49	0.666667	3.48914E-002	-2.78034E-004	0.00000E+000	-9.70099E-006	-1.68088E-001	3.48988E-002	3.57790E+000	9	...........
	50	0.68	3.19358E-002	-2.79783E-004	0.00000E+000	-8.93512E-006	-1.68088E-001	3.19411E-002	3.57790E+000	9	...........
	51	0.693333	2.90491E-002	-2.77972E-004	0.00000E+000	-8.07483E-006	-1.68088E-001	2.90512E-002	3.57790E+000	9	...........
	52	0.706667	2.62000E-002	-2.77745E-004	0.00000E+000	-7.27689E-006	-1.68088E-001	2.62002E-002	3.57790E+000	9	...........
	53	0.72	2.33933E-002	-2.79264E-004	0.00000E+000	-6.53291E-006	-1.68088E-001	2.33938E-002	3.57790E+000	9	...........
	54	0.733333	2.05859E-002	-2.79084E-004	0.00000E+000	-5.74519E-006	-1.68088E-001	2.05847E-002	3.57790E+000	9	...........
	55	0.746667	1.78517E-002	-2.78525E-004	0.00000E+000	-4.97213E-006	-1.68088E-001	1.78509E-002	3.57790E+000	9	...........
	56	0.76	1.51556E-002	-2.78928E-004	0.00000E+000	-4.22732E-006	-1.68088E-001	1.51501E-002	3.57790E+000	9	...........
	57	0.773333	1.24992E-002	-2.78232E-004	0.00000E+000	-3.47768E-006	-1.68088E-001	1.24943E-002	3.57790E+000	9	...........
	58	0.786667	9.84761E-003	-2.79405E-004	0.00000E+000	-2.75147E-006	-1.68088E-001	9.83086E-003	3.57790E+000	9	...........
	59	0.8	7.24017E-003	-2.78972E-004	0.00000E+000	-2.01980E-006	-1.68088E-001	7.22534E-003	3.57790E+000	9	...........
	60	0.813333	4.66441E-003	-2.79367E-004	0.00000E+000	-1.30308E-006	-1.68088E-001	4.65244E-003	3.57790E+000	9	...........
	61	0.826667	2.12045E-003	-2.79724E-004	0.00000E+000	-5.93142E-007	-1.68088E-001	2.10145E-003	3.57790E+000	9	...........
	62	0.833333	2.32547E-004	-2.78227E-004	0.00000E+000	-6.47008E-008	-1.68088E-001	2.14015E-004	3.57790E+000	9	...........
STARTTIMEOFFSET	QUANT	1457.875	Start Time Offset (s)
