EXPLAIN
TAG	PWR800_DISCHARGE
TITLE	LABEL	PWR Cyclic Charge Discharge (Cell) - Discharge Step	Test &Identifier
DATE	LABEL	7-7-2017	Date
TIME	LABEL	16:01:45	Time
NOTES	NOTES	3	&Notes...
	supercap test cell
	2.8mg
	6M KOH
PSTAT	PSTAT	IFC5000-01520	Potentiostat
CAPACITY	QUANT	1.00000E-003	Capacity (A-hr)
CELLTYPE	SELECTOR	1	&Cell Type
WORKINGCONNECTION	SELECTOR	0	&Working Lead
MAXDISCHARGETIME	VARIABLEANDUNITS	1.00000E+002	s	1.00000E+002	second(s)	Max &Discharge Time
DISCHARGEMODE	MULTIPARAM	0	2.80000E-004	&Discharge Mode	Constant Current	Amp(s)
SAMPLETIME	QUANT	1.00000E-002	Sa&mple Period (s)
DISCHARGESTOPAT1	MULTIPARAM	3	0.00000E+000	Discharge Stop At &1	Voltage < Limit	V
DISCHARGESTOPAT2	MULTIPARAM	0	0.00000E+000	Discharge Stop At &2	None	N/A
AESBHCSELECTOR	TOGGLE	F	Save Both Half Cells
IRCOMP	TOGGLE	F	IR &Measure
EOC	QUANT	0	Open Circuit (V)
SEQUENCER	TOGGLE	TRUE	Run as Sequence
PSTATMODEL	IQUANT	53	Pstat Model
PSTATSECTION	LABEL	IFC5000-01520	Pstat Section
PSTATSERIALNO	LABEL	01520	Pstat Serial Number
CTRLMODE	IQUANT	0	Control Mode
ELECTROMETER	IQUANT	1	RE=0 or CS=1
IESTAB	IQUANT	0	I/E Stability
CASPEED	IQUANT	4	Control Amp Speed
CONVENTION	IQUANT	1	Current Convention
ICHRANGE	IQUANT	2	Ich Range
ICHRANGEMODE	TOGGLE	T	Ich Auto Range
ICHOFFSETENABLE	TOGGLE	F	Ich Offset Enable
ICHOFFSET	QUANT	0	Ich Offset (V)
ICHFILTER	IQUANT	1	Ich Filter
VCHRANGE	IQUANT	2	Vch Range
VCHRANGEMODE	TOGGLE	T	Vch Auto Range
VCHOFFSETENABLE	TOGGLE	F	Vch Offset Enable
VCHOFFSET	QUANT	0	Vch Offset (V)
VCHFILTER	IQUANT	1	Vch Filter
IERANGELOWERLIMIT	IQUANT	9	I/E Range Lower Limit
IERANGEMODE	TOGGLE	F	I/E AutoRange
IERANGE	IQUANT	9	I/E Range
ACHSELECT	IQUANT	1	Ach Select
ACHRANGE	IQUANT	2	Ach Range
ACHOFFSETENABLE	TOGGLE	F	Ach Offset Enable
ACHOFFSET	QUANT	0	Ach Offset (V)
ACHFILTER	IQUANT	1	Ach Filter
CABLEID	IQUANT	14	Cable ID
DCCALDATE	LABEL	5-7-2017	DC Calibration Date
ACCALDATE	LABEL	12/3/2015	AC Calibration Date
FRAMEWORKVERSION	QUANT	7.01	Framework Version
INSTRUMENTVERSION	LABEL	4.00	Instrument Version
CURVE	TABLE	69
	Pt	T	Vf	Im	Vu	Pwr	Sig	Ach	Temp	IERange	Over
	#	s	V	A	V	W	V	V	deg C	#	bits
	0	0.013333	5.31558E-001	-2.78613E-004	0.00000E+000	-1.48099E-004	-1.68088E-001	5.31824E-001	3.57822E+000	9	...........
	1	0.026667	4.99043E-001	-2.79441E-004	0.00000E+000	-1.39453E-004	-1.68088E-001	4.99316E-001	3.57750E+000	9	...........
	2	0.04	4.69643E-001	-2.77856E-004	0.00000E+000	-1.30493E-004	-1.68088E-001	4.69785E-001	3.57750E+000	9	...........
	3	0.053333	4.42185E-001	-2.78959E-004	0.00000E+000	-1.23352E-004	-1.68088E-001	4.42293E-001	3.57750E+000	9	...........
	4	0.066667	4.16590E-001	-2.79467E-004	0.00000E+000	-1.16423E-004	-1.68088E-001	4.16692E-001	3.57750E+000	9	...........
	5	0.08	3.92762E-001	-2.78684E-004	0.00000E+000	-1.09457E-004	-1.68088E-001	3.92856E-001	3.57750E+000	9	...........
	6	0.093333	3.70578E-001	-2.79070E-004	0.00000E+000	-1.03417E-004	-1.68088E-001	3.70668E-001	3.57750E+000	9	...........
	7	0.106667	3.49910E-001	-2.78089E-004	0.00000E+000	-9.73061E-005	-1.68088E-001	3.49996E-001	3.57750E+000	9	...........
	8	0.12	3.30678E-001	-2.78925E-004	0.00000E+000	-9.22345E-005	-1.68088E-001	3.30755E-001	3.57750E+000	9	...........
	9	0.133333	3.12825E-001	-2.78336E-004	0.00000E+000	-8.70705E-005	-1.68088E-001	3.12903E-001	3.57750E+000	9	...........
	10	0.146667	2.96223E-001	-2.78027E-004	0.00000E+000	-8.23580E-005	-1.68088E-001	2.96299E-001	3.57750E+000	9	...........
	11	0.16	2.80769E-001	-2.78180E-004	0.00000E+000	-7.81044E-005	-1.68088E-001	2.80842E-001	3.57750E+000	9	...........
	12	0.173333	2.66422E-001	-2.78449E-004	0.00000E+000	-7.41848E-005	-1.68088E-001	2.66497E-001	3.57750E+000	9	...........
	13	0.186667	2.53088E-001	-2.79151E-004	0.00000E+000	-7.06497E-005	-1.68088E-001	2.53160E-001	3.57750E+000	9	...........
	14	0.2	2.40725E-001	-2.78612E-004	0.00000E+000	-6.70691E-005	-1.68088E-001	2.40791E-001	3.57750E+000	9	...........
	15	0.213333	2.29193E-001	-2.78386E-004	0.00000E+000	-6.38043E-005	-1.68088E-001	2.29249E-001	3.57750E+000	9	...........
	16	0.226667	2.18428E-001	-2.78868E-004	0.00000E+000	-6.09126E-005	-1.68088E-001	2.18484E-001	3.57750E+000	9	...........
	17	0.24	2.08415E-001	-2.77535E-004	0.00000E+000	-5.78426E-005	-1.68088E-001	2.08463E-001	3.57750E+000	9	...........
	18	0.253333	1.99015E-001	-2.79023E-004	0.00000E+000	-5.55299E-005	-1.68088E-001	1.99059E-001	3.57750E+000	9	...........
	19	0.266667	1.90233E-001	-2.78488E-004	0.00000E+000	-5.29778E-005	-1.68088E-001	1.90281E-001	3.57750E+000	9	...........
	20	0.28	1.81972E-001	-2.79996E-004	0.00000E+000	-5.09514E-005	-1.68088E-001	1.82017E-001	3.57750E+000	9	...........
	21	0.293333	1.74187E-001	-2.78044E-004	0.00000E+000	-4.84317E-005	-1.68088E-001	1.74232E-001	3.57750E+000	9	...........
	22	0.306667	1.66869E-001	-2.78939E-004	0.00000E+000	-4.65461E-005	-1.68088E-001	1.66910E-001	3.57750E+000	9	...........
	23	0.32	1.59952E-001	-2.79417E-004	0.00000E+000	-4.46932E-005	-1.68088E-001	1.59981E-001	3.57750E+000	9	...........
	24	0.333333	1.53388E-001	-2.78148E-004	0.00000E+000	-4.26644E-005	-1.68088E-001	1.53429E-001	3.57750E+000	9	...........
	25	0.346667	1.47123E-001	-2.79140E-004	0.00000E+000	-4.10679E-005	-1.68088E-001	1.47159E-001	3.57750E+000	9	...........
	26	0.36	1.41168E-001	-2.78858E-004	0.00000E+000	-3.93659E-005	-1.68088E-001	1.41204E-001	3.57750E+000	9	...........
	27	0.373333	1.35544E-001	-2.78255E-004	0.00000E+000	-3.77159E-005	-1.68088E-001	1.35579E-001	3.57750E+000	9	...........
	28	0.386667	1.30094E-001	-2.78509E-004	0.00000E+000	-3.62323E-005	-1.68088E-001	1.30123E-001	3.57750E+000	9	...........
	29	0.4	1.24903E-001	-2.78148E-004	0.00000E+000	-3.47415E-005	-1.68088E-001	1.24932E-001	3.57750E+000	9	...........
	30	0.413333	1.19896E-001	-2.79188E-004	0.00000E+000	-3.34735E-005	-1.68088E-001	1.19928E-001	3.57750E+000	9	...........
	31	0.426667	1.15119E-001	-2.79134E-004	0.00000E+000	-3.21337E-005	-1.68088E-001	1.15153E-001	3.57750E+000	9	...........
	32	0.44	1.10516E-001	-2.79074E-004	0.00000E+000	-3.08422E-005	-1.68088E-001	1.10544E-001	3.57750E+000	9	...........
	33	0.453333	1.06067E-001	-2.78824E-004	0.00000E+000	-2.95740E-005	-1.68088E-001	1.06091E-001	3.57750E+000	9	...........
	34	0.466667	1.01757E-001	-2.79086E-004	0.00000E+000	-2.83989E-005	-1.68088E-001	1.01783E-001	3.57750E+000	9	...........
	35	0.48	9.76059E-002	-2.79927E-004	0.00000E+000	-2.73225E-005	-1.68088E-001	9.76296E-002	3.57750E+000	9	...........
	36	0.493333	9.35534E-002	-2.78753E-004	0.00000E+000	-2.60783E-005	-1.68088E-001	9.35782E-002	3.57750E+000	9	...........
	37	0.506667	8.96181E-002	-2.78925E-004	0.00000E+000	-2.49967E-005	-1.68088E-001	8.96376E-002	3.57750E+000	9	...........
	38	0.52	8.58023E-002	-2.78487E-004	0.00000E+000	-2.38949E-005	-1.68088E-001	8.58259E-002	3.57750E+000	9	...........
	39	0.533333	8.21028E-002	-2.78312E-004	0.00000E+000	-2.28502E-005	-1.68088E-001	8.21221E-002	3.57750E+000	9	...........
	40	0.546667	7.84847E-002	-2.77891E-004	0.00000E+000	-2.18102E-005	-1.68088E-001	7.85057E-002	3.57750E+000	9	...........
	41	0.56	7.50021E-002	-2.79929E-004	0.00000E+000	-2.09953E-005	-1.68088E-001	7.50221E-002	3.57750E+000	9	...........
	42	0.573333	7.15646E-002	-2.79182E-004	0.00000E+000	-1.99796E-005	-1.68088E-001	7.15830E-002	3.57750E+000	9	...........
	43	0.586667	6.81666E-002	-2.78223E-004	0.00000E+000	-1.89655E-005	-1.68088E-001	6.81818E-002	3.57750E+000	9	...........
	44	0.6	6.48871E-002	-2.78723E-004	0.00000E+000	-1.80855E-005	-1.68088E-001	6.48993E-002	3.57750E+000	9	...........
	45	0.613333	6.16194E-002	-2.78409E-004	0.00000E+000	-1.71554E-005	-1.68088E-001	6.16334E-002	3.57750E+000	9	...........
	46	0.626667	5.83655E-002	-2.79304E-004	0.00000E+000	-1.63017E-005	-1.68088E-001	5.83775E-002	3.57750E+000	9	...........
	47	0.64	5.52423E-002	-2.77388E-004	0.00000E+000	-1.53236E-005	-1.68088E-001	5.52495E-002	3.57750E+000	9	...........
	48	0.653333	5.21925E-002	-2.79777E-004	0.00000E+000	-1.46023E-005	-1.68088E-001	5.22049E-002	3.57750E+000	9	...........
	49	0.666667	4.92211E-002	-2.78906E-004	0.00000E+000	-1.37281E-005	-1.68088E-001	4.92287E-002	3.57750E+000	9	...........
	50	0.68	4.63647E-002	-2.79226E-004	0.00000E+000	-1.29462E-005	-1.68088E-001	4.63724E-002	3.57750E+000	9	...........
	51	0.693333	4.34892E-002	-2.78629E-004	0.00000E+000	-1.21174E-005	-1.68088E-001	4.34989E-002	3.57750E+000	9	...........
	52	0.706667	4.06251E-002	-2.80003E-004	0.00000E+000	-1.13752E-005	-1.68088E-001	4.06353E-002	3.57750E+000	9	...........
	53	0.72	3.77810E-002	-2.78784E-004	0.00000E+000	-1.05328E-005	-1.68088E-001	3.77874E-002	3.57750E+000	9	...........
	54	0.733333	3.50080E-002	-2.78503E-004	0.00000E+000	-9.74982E-006	-1.68088E-001	3.50127E-002	3.57750E+000	9	...........
	55	0.746667	3.23282E-002	-2.77905E-004	0.00000E+000	-8.98416E-006	-1.68088E-001	3.23352E-002	3.57750E+000	9	...........
	56	0.76	2.96600E-002	-2.78729E-004	0.00000E+000	-8.26710E-006	-1.68088E-001	2.96633E-002	3.57750E+000	9	...........
	57	0.773333	2.69650E-002	-2.78701E-004	0.00000E+000	-7.51516E-006	-1.68088E-001	2.69673E-002	3.57750E+000	9	...........
	58	0.786667	2.42987E-002	-2.78191E-004	0.00000E+000	-6.75970E-006	-1.68088E-001	2.42996E-002	3.57750E+000	9	...........
	59	0.8	2.17080E-002	-2.79498E-004	0.00000E+000	-6.06734E-006	-1.68088E-001	2.17071E-002	3.57750E+000	9	...........
	60	0.813333	1.91782E-002	-2.78198E-004	0.00000E+000	-5.33533E-006	-1.68088E-001	1.91702E-002	3.57750E+000	9	...........
	61	0.826667	1.66984E-002	-2.79129E-004	0.00000E+000	-4.66102E-006	-1.68088E-001	1.66914E-002	3.57750E+000	9	...........
	62	0.84	1.42296E-002	-2.78952E-004	0.00000E+000	-3.96939E-006	-1.68088E-001	1.42171E-002	3.57750E+000	9	...........
	63	0.853333	1.17568E-002	-2.78781E-004	0.00000E+000	-3.27757E-006	-1.68088E-001	1.17458E-002	3.57750E+000	9	...........
	64	0.866667	9.33525E-003	-2.78974E-004	0.00000E+000	-2.60429E-006	-1.68088E-001	9.32514E-003	3.57750E+000	9	...........
	65	0.88	6.93281E-003	-2.79244E-004	0.00000E+000	-1.93594E-006	-1.68088E-001	6.92112E-003	3.57750E+000	9	...........
	66	0.893333	4.57551E-003	-2.78574E-004	0.00000E+000	-1.27462E-006	-1.68088E-001	4.56096E-003	3.57750E+000	9	...........
	67	0.906667	2.18377E-003	-2.79275E-004	0.00000E+000	-6.09873E-007	-1.68088E-001	2.17169E-003	3.57750E+000	9	...........
	68	0.913333	4.19052E-004	-2.80236E-004	0.00000E+000	-1.17433E-007	-1.68088E-001	4.03423E-004	3.57750E+000	9	...........
STARTTIMEOFFSET	QUANT	1182.904	Start Time Offset (s)
