EXPLAIN
TAG	PWR800_DISCHARGE
TITLE	LABEL	PWR Cyclic Charge Discharge (Cell) - Discharge Step	Test &Identifier
DATE	LABEL	7-7-2017	Date
TIME	LABEL	15:44:16	Time
NOTES	NOTES	3	&Notes...
	supercap test cell
	2.8mg
	6M KOH
PSTAT	PSTAT	IFC5000-01520	Potentiostat
CAPACITY	QUANT	1.00000E-003	Capacity (A-hr)
CELLTYPE	SELECTOR	1	&Cell Type
WORKINGCONNECTION	SELECTOR	0	&Working Lead
MAXDISCHARGETIME	VARIABLEANDUNITS	1.00000E+002	s	1.00000E+002	second(s)	Max &Discharge Time
DISCHARGEMODE	MULTIPARAM	0	2.80000E-004	&Discharge Mode	Constant Current	Amp(s)
SAMPLETIME	QUANT	1.00000E-002	Sa&mple Period (s)
DISCHARGESTOPAT1	MULTIPARAM	3	0.00000E+000	Discharge Stop At &1	Voltage < Limit	V
DISCHARGESTOPAT2	MULTIPARAM	0	0.00000E+000	Discharge Stop At &2	None	N/A
AESBHCSELECTOR	TOGGLE	F	Save Both Half Cells
IRCOMP	TOGGLE	F	IR &Measure
EOC	QUANT	0	Open Circuit (V)
SEQUENCER	TOGGLE	TRUE	Run as Sequence
PSTATMODEL	IQUANT	53	Pstat Model
PSTATSECTION	LABEL	IFC5000-01520	Pstat Section
PSTATSERIALNO	LABEL	01520	Pstat Serial Number
CTRLMODE	IQUANT	0	Control Mode
ELECTROMETER	IQUANT	1	RE=0 or CS=1
IESTAB	IQUANT	0	I/E Stability
CASPEED	IQUANT	4	Control Amp Speed
CONVENTION	IQUANT	1	Current Convention
ICHRANGE	IQUANT	2	Ich Range
ICHRANGEMODE	TOGGLE	T	Ich Auto Range
ICHOFFSETENABLE	TOGGLE	F	Ich Offset Enable
ICHOFFSET	QUANT	0	Ich Offset (V)
ICHFILTER	IQUANT	1	Ich Filter
VCHRANGE	IQUANT	2	Vch Range
VCHRANGEMODE	TOGGLE	T	Vch Auto Range
VCHOFFSETENABLE	TOGGLE	F	Vch Offset Enable
VCHOFFSET	QUANT	0	Vch Offset (V)
VCHFILTER	IQUANT	1	Vch Filter
IERANGELOWERLIMIT	IQUANT	9	I/E Range Lower Limit
IERANGEMODE	TOGGLE	F	I/E AutoRange
IERANGE	IQUANT	9	I/E Range
ACHSELECT	IQUANT	1	Ach Select
ACHRANGE	IQUANT	2	Ach Range
ACHOFFSETENABLE	TOGGLE	F	Ach Offset Enable
ACHOFFSET	QUANT	0	Ach Offset (V)
ACHFILTER	IQUANT	1	Ach Filter
CABLEID	IQUANT	14	Cable ID
DCCALDATE	LABEL	5-7-2017	DC Calibration Date
ACCALDATE	LABEL	12/3/2015	AC Calibration Date
FRAMEWORKVERSION	QUANT	7.01	Framework Version
INSTRUMENTVERSION	LABEL	4.00	Instrument Version
CURVE	TABLE	110
	Pt	T	Vf	Im	Vu	Pwr	Sig	Ach	Temp	IERange	Over
	#	s	V	A	V	W	V	V	deg C	#	bits
	0	0.013333	5.63148E-001	-2.79248E-004	0.00000E+000	-1.57258E-004	-1.68088E-001	5.63424E-001	3.57820E+000	9	...........
	1	0.026667	5.33934E-001	-2.78736E-004	0.00000E+000	-1.48827E-004	-1.68088E-001	5.34210E-001	3.57820E+000	9	...........
	2	0.04	5.07609E-001	-2.78474E-004	0.00000E+000	-1.41356E-004	-1.68088E-001	5.07881E-001	3.57820E+000	9	...........
	3	0.053333	4.83753E-001	-2.79182E-004	0.00000E+000	-1.35055E-004	-1.68088E-001	4.83929E-001	3.57820E+000	9	...........
	4	0.066667	4.61789E-001	-2.79022E-004	0.00000E+000	-1.28849E-004	-1.68088E-001	4.61907E-001	3.57820E+000	9	...........
	5	0.08	4.41343E-001	-2.78987E-004	0.00000E+000	-1.23129E-004	-1.68088E-001	4.41452E-001	3.57820E+000	9	...........
	6	0.093333	4.22388E-001	-2.78833E-004	0.00000E+000	-1.17776E-004	-1.68088E-001	4.22498E-001	3.57820E+000	9	...........
	7	0.106667	4.04808E-001	-2.79135E-004	0.00000E+000	-1.12996E-004	-1.68088E-001	4.04907E-001	3.57820E+000	9	...........
	8	0.12	3.88494E-001	-2.79146E-004	0.00000E+000	-1.08446E-004	-1.68088E-001	3.88586E-001	3.57820E+000	9	...........
	9	0.133333	3.73354E-001	-2.79395E-004	0.00000E+000	-1.04313E-004	-1.68088E-001	3.73440E-001	3.57820E+000	9	...........
	10	0.146667	3.59261E-001	-2.78937E-004	0.00000E+000	-1.00211E-004	-1.68088E-001	3.59351E-001	3.57820E+000	9	...........
	11	0.16	3.46145E-001	-2.78858E-004	0.00000E+000	-9.65253E-005	-1.68088E-001	3.46225E-001	3.57820E+000	9	...........
	12	0.173333	3.33894E-001	-2.78612E-004	0.00000E+000	-9.30270E-005	-1.68088E-001	3.33973E-001	3.57812E+000	9	...........
	13	0.186667	3.22458E-001	-2.79006E-004	0.00000E+000	-8.99678E-005	-1.68088E-001	3.22536E-001	3.57800E+000	9	...........
	14	0.2	3.11766E-001	-2.79826E-004	0.00000E+000	-8.72402E-005	-1.68088E-001	3.11849E-001	3.57800E+000	9	...........
	15	0.213333	3.01729E-001	-2.78642E-004	0.00000E+000	-8.40744E-005	-1.68088E-001	3.01808E-001	3.57800E+000	9	...........
	16	0.226667	2.92293E-001	-2.79639E-004	0.00000E+000	-8.17364E-005	-1.68088E-001	2.92369E-001	3.57800E+000	9	...........
	17	0.24	2.83452E-001	-2.79052E-004	0.00000E+000	-7.90980E-005	-1.68088E-001	2.83527E-001	3.57800E+000	9	...........
	18	0.253333	2.75118E-001	-2.79258E-004	0.00000E+000	-7.68290E-005	-1.68088E-001	2.75188E-001	3.57800E+000	9	...........
	19	0.266667	2.67260E-001	-2.78977E-004	0.00000E+000	-7.45595E-005	-1.68088E-001	2.67330E-001	3.57800E+000	9	...........
	20	0.28	2.59766E-001	-2.79057E-004	0.00000E+000	-7.24895E-005	-1.68088E-001	2.59835E-001	3.57800E+000	9	...........
	21	0.293333	2.52706E-001	-2.79790E-004	0.00000E+000	-7.07046E-005	-1.68088E-001	2.52770E-001	3.57800E+000	9	...........
	22	0.306667	2.45979E-001	-2.79567E-004	0.00000E+000	-6.87677E-005	-1.68088E-001	2.46032E-001	3.57800E+000	9	...........
	23	0.32	2.39604E-001	-2.78831E-004	0.00000E+000	-6.68089E-005	-1.68088E-001	2.39657E-001	3.57800E+000	9	...........
	24	0.333333	2.33536E-001	-2.79189E-004	0.00000E+000	-6.52007E-005	-1.68088E-001	2.33586E-001	3.57800E+000	9	...........
	25	0.346667	2.27730E-001	-2.78600E-004	0.00000E+000	-6.34456E-005	-1.68088E-001	2.27782E-001	3.57800E+000	9	...........
	26	0.36	2.22161E-001	-2.78157E-004	0.00000E+000	-6.17957E-005	-1.68088E-001	2.22211E-001	3.57800E+000	9	...........
	27	0.373333	2.16850E-001	-2.79388E-004	0.00000E+000	-6.05853E-005	-1.68088E-001	2.16903E-001	3.57800E+000	9	...........
	28	0.386667	2.11741E-001	-2.78794E-004	0.00000E+000	-5.90321E-005	-1.68088E-001	2.11792E-001	3.57800E+000	9	...........
	29	0.4	2.06862E-001	-2.79059E-004	0.00000E+000	-5.77267E-005	-1.68088E-001	2.06904E-001	3.57800E+000	9	...........
	30	0.413333	2.02120E-001	-2.78712E-004	0.00000E+000	-5.63334E-005	-1.68088E-001	2.02170E-001	3.57800E+000	9	...........
	31	0.426667	1.97509E-001	-2.78804E-004	0.00000E+000	-5.50663E-005	-1.68088E-001	1.97558E-001	3.57800E+000	9	...........
	32	0.44	1.93089E-001	-2.78346E-004	0.00000E+000	-5.37454E-005	-1.68088E-001	1.93139E-001	3.57800E+000	9	...........
	33	0.453333	1.88773E-001	-2.79331E-004	0.00000E+000	-5.27302E-005	-1.68088E-001	1.88818E-001	3.57800E+000	9	...........
	34	0.466667	1.84603E-001	-2.79370E-004	0.00000E+000	-5.15724E-005	-1.68088E-001	1.84649E-001	3.57800E+000	9	...........
	35	0.48	1.80583E-001	-2.78520E-004	0.00000E+000	-5.02958E-005	-1.68088E-001	1.80635E-001	3.57800E+000	9	...........
	36	0.493333	1.76689E-001	-2.79168E-004	0.00000E+000	-4.93258E-005	-1.68088E-001	1.76728E-001	3.57800E+000	9	...........
	37	0.506667	1.72874E-001	-2.79059E-004	0.00000E+000	-4.82422E-005	-1.68088E-001	1.72916E-001	3.57800E+000	9	...........
	38	0.52	1.69140E-001	-2.78926E-004	0.00000E+000	-4.71775E-005	-1.68088E-001	1.69181E-001	3.57800E+000	9	...........
	39	0.533333	1.65472E-001	-2.78725E-004	0.00000E+000	-4.61212E-005	-1.68088E-001	1.65505E-001	3.57800E+000	9	...........
	40	0.546667	1.61939E-001	-2.78931E-004	0.00000E+000	-4.51697E-005	-1.68088E-001	1.61980E-001	3.57800E+000	9	...........
	41	0.56	1.58477E-001	-2.79814E-004	0.00000E+000	-4.43441E-005	-1.68088E-001	1.58517E-001	3.57800E+000	9	...........
	42	0.573333	1.55064E-001	-2.79118E-004	0.00000E+000	-4.32811E-005	-1.68088E-001	1.55098E-001	3.57800E+000	9	...........
	43	0.586667	1.51706E-001	-2.78992E-004	0.00000E+000	-4.23248E-005	-1.68088E-001	1.51743E-001	3.57800E+000	9	...........
	44	0.6	1.48437E-001	-2.78999E-004	0.00000E+000	-4.14137E-005	-1.68088E-001	1.48467E-001	3.57800E+000	9	...........
	45	0.613333	1.45257E-001	-2.79588E-004	0.00000E+000	-4.06120E-005	-1.68088E-001	1.45291E-001	3.57800E+000	9	...........
	46	0.626667	1.42102E-001	-2.78659E-004	0.00000E+000	-3.95981E-005	-1.68088E-001	1.42139E-001	3.57800E+000	9	...........
	47	0.64	1.38987E-001	-2.78504E-004	0.00000E+000	-3.87085E-005	-1.68088E-001	1.39015E-001	3.57800E+000	9	...........
	48	0.653333	1.35960E-001	-2.78902E-004	0.00000E+000	-3.79194E-005	-1.68088E-001	1.35992E-001	3.57800E+000	9	...........
	49	0.666667	1.32973E-001	-2.79253E-004	0.00000E+000	-3.71331E-005	-1.68088E-001	1.33000E-001	3.57800E+000	9	...........
	50	0.68	1.30004E-001	-2.78645E-004	0.00000E+000	-3.62249E-005	-1.68088E-001	1.30031E-001	3.57800E+000	9	...........
	51	0.693333	1.27105E-001	-2.79254E-004	0.00000E+000	-3.54946E-005	-1.68088E-001	1.27132E-001	3.57800E+000	9	...........
	52	0.706667	1.24231E-001	-2.78979E-004	0.00000E+000	-3.46578E-005	-1.68088E-001	1.24264E-001	3.57800E+000	9	...........
	53	0.72	1.21439E-001	-2.78680E-004	0.00000E+000	-3.38427E-005	-1.68088E-001	1.21473E-001	3.57800E+000	9	...........
	54	0.733333	1.18677E-001	-2.78983E-004	0.00000E+000	-3.31090E-005	-1.68088E-001	1.18708E-001	3.57800E+000	9	...........
	55	0.746667	1.15966E-001	-2.78480E-004	0.00000E+000	-3.22943E-005	-1.68088E-001	1.15997E-001	3.57800E+000	9	...........
	56	0.76	1.13314E-001	-2.79039E-004	0.00000E+000	-3.16189E-005	-1.68088E-001	1.13345E-001	3.57800E+000	9	...........
	57	0.773333	1.10679E-001	-2.78958E-004	0.00000E+000	-3.08748E-005	-1.68088E-001	1.10708E-001	3.57800E+000	9	...........
	58	0.786667	1.08040E-001	-2.78995E-004	0.00000E+000	-3.01427E-005	-1.68088E-001	1.08065E-001	3.57800E+000	9	...........
	59	0.8	1.05410E-001	-2.79327E-004	0.00000E+000	-2.94438E-005	-1.68088E-001	1.05435E-001	3.57800E+000	9	...........
	60	0.813333	1.02853E-001	-2.79116E-004	0.00000E+000	-2.87080E-005	-1.68088E-001	1.02876E-001	3.57800E+000	9	...........
	61	0.826667	1.00308E-001	-2.78945E-004	0.00000E+000	-2.79803E-005	-1.68088E-001	1.00336E-001	3.57800E+000	9	...........
	62	0.84	9.77766E-002	-2.78847E-004	0.00000E+000	-2.72647E-005	-1.68088E-001	9.78032E-002	3.57800E+000	9	...........
	63	0.853333	9.52779E-002	-2.79424E-004	0.00000E+000	-2.66229E-005	-1.68088E-001	9.53001E-002	3.57800E+000	9	...........
	64	0.866667	9.28339E-002	-2.78186E-004	0.00000E+000	-2.58251E-005	-1.68088E-001	9.28598E-002	3.57800E+000	9	...........
	65	0.88	9.03965E-002	-2.78885E-004	0.00000E+000	-2.52103E-005	-1.68088E-001	9.04201E-002	3.57800E+000	9	...........
	66	0.893333	8.79726E-002	-2.78512E-004	0.00000E+000	-2.45015E-005	-1.68088E-001	8.79918E-002	3.57800E+000	9	...........
	67	0.906667	8.55826E-002	-2.79100E-004	0.00000E+000	-2.38861E-005	-1.68088E-001	8.56058E-002	3.57800E+000	9	...........
	68	0.92	8.32842E-002	-2.79539E-004	0.00000E+000	-2.32812E-005	-1.68088E-001	8.33042E-002	3.57800E+000	9	...........
	69	0.933333	8.09684E-002	-2.78521E-004	0.00000E+000	-2.25514E-005	-1.68088E-001	8.09832E-002	3.57800E+000	9	...........
	70	0.946667	7.86352E-002	-2.79032E-004	0.00000E+000	-2.19418E-005	-1.68088E-001	7.86506E-002	3.57800E+000	9	...........
	71	0.96	7.63266E-002	-2.79247E-004	0.00000E+000	-2.13140E-005	-1.68088E-001	7.63393E-002	3.57800E+000	9	...........
	72	0.97333	7.40237E-002	-2.78992E-004	0.00000E+000	-2.06520E-005	-1.68088E-001	7.40421E-002	3.57800E+000	9	...........
	73	0.98667	7.17183E-002	-2.78786E-004	0.00000E+000	-1.99941E-005	-1.68088E-001	7.17319E-002	3.57800E+000	9	...........
	74	1	6.94609E-002	-2.79092E-004	0.00000E+000	-1.93860E-005	-1.68088E-001	6.94755E-002	3.57800E+000	9	...........
	75	1.01333	6.73004E-002	-2.78196E-004	0.00000E+000	-1.87227E-005	-1.68088E-001	6.73142E-002	3.57800E+000	9	...........
	76	1.02667	6.51192E-002	-2.79309E-004	0.00000E+000	-1.81884E-005	-1.68088E-001	6.51336E-002	3.57800E+000	9	...........
	77	1.04	6.29801E-002	-2.79511E-004	0.00000E+000	-1.76036E-005	-1.68088E-001	6.29888E-002	3.57800E+000	9	...........
	78	1.05333	6.08486E-002	-2.79556E-004	0.00000E+000	-1.70106E-005	-1.68088E-001	6.08725E-002	3.57800E+000	9	...........
	79	1.06667	5.87164E-002	-2.78902E-004	0.00000E+000	-1.63761E-005	-1.68088E-001	5.87336E-002	3.57800E+000	9	...........
	80	1.08	5.65746E-002	-2.80013E-004	0.00000E+000	-1.58416E-005	-1.68088E-001	5.65897E-002	3.57800E+000	9	...........
	81	1.09333	5.45243E-002	-2.79024E-004	0.00000E+000	-1.52136E-005	-1.68088E-001	5.45356E-002	3.57800E+000	9	...........
	82	1.10667	5.24768E-002	-2.79270E-004	0.00000E+000	-1.46552E-005	-1.68088E-001	5.24840E-002	3.57800E+000	9	...........
	83	1.12	5.03651E-002	-2.80172E-004	0.00000E+000	-1.41109E-005	-1.68088E-001	5.03768E-002	3.57800E+000	9	...........
	84	1.13333	4.83070E-002	-2.79050E-004	0.00000E+000	-1.34801E-005	-1.68088E-001	4.83125E-002	3.57800E+000	9	...........
	85	1.14667	4.62046E-002	-2.79645E-004	0.00000E+000	-1.29209E-005	-1.68088E-001	4.62165E-002	3.57800E+000	9	...........
	86	1.16	4.41228E-002	-2.79010E-004	0.00000E+000	-1.23107E-005	-1.68088E-001	4.41333E-002	3.57800E+000	9	...........
	87	1.17333	4.21235E-002	-2.78909E-004	0.00000E+000	-1.17486E-005	-1.68088E-001	4.21302E-002	3.57819E+000	9	...........
	88	1.18667	4.01059E-002	-2.79153E-004	0.00000E+000	-1.11957E-005	-1.68088E-001	4.01122E-002	3.57850E+000	9	...........
	89	1.2	3.81064E-002	-2.78757E-004	0.00000E+000	-1.06224E-005	-1.68088E-001	3.81139E-002	3.57850E+000	9	...........
	90	1.21333	3.61029E-002	-2.78617E-004	0.00000E+000	-1.00589E-005	-1.68088E-001	3.61083E-002	3.57850E+000	9	...........
	91	1.22667	3.41114E-002	-2.78470E-004	0.00000E+000	-9.49900E-006	-1.68088E-001	3.41147E-002	3.57850E+000	9	...........
	92	1.24	3.21272E-002	-2.79143E-004	0.00000E+000	-8.96807E-006	-1.68088E-001	3.21271E-002	3.57850E+000	9	...........
	93	1.25333	3.01984E-002	-2.78660E-004	0.00000E+000	-8.41510E-006	-1.68088E-001	3.01998E-002	3.57850E+000	9	...........
	94	1.26667	2.82890E-002	-2.78569E-004	0.00000E+000	-7.88042E-006	-1.68088E-001	2.82847E-002	3.57850E+000	9	...........
	95	1.28	2.63901E-002	-2.79359E-004	0.00000E+000	-7.37232E-006	-1.68088E-001	2.63886E-002	3.57850E+000	9	...........
	96	1.29333	2.45014E-002	-2.79290E-004	0.00000E+000	-6.84300E-006	-1.68088E-001	2.44957E-002	3.57850E+000	9	...........
	97	1.30667	2.25851E-002	-2.79279E-004	0.00000E+000	-6.30756E-006	-1.68088E-001	2.25784E-002	3.57850E+000	9	...........
	98	1.32	2.06988E-002	-2.78845E-004	0.00000E+000	-5.77176E-006	-1.68088E-001	2.06905E-002	3.57850E+000	9	...........
	99	1.33333	1.88657E-002	-2.79391E-004	0.00000E+000	-5.27091E-006	-1.68088E-001	1.88583E-002	3.57850E+000	9	...........
	100	1.34667	1.70190E-002	-2.79116E-004	0.00000E+000	-4.75027E-006	-1.68088E-001	1.70134E-002	3.57850E+000	9	...........
	101	1.36	1.51897E-002	-2.79057E-004	0.00000E+000	-4.23881E-006	-1.68088E-001	1.51773E-002	3.57850E+000	9	...........
	102	1.37333	1.33785E-002	-2.79747E-004	0.00000E+000	-3.74261E-006	-1.68088E-001	1.33665E-002	3.57850E+000	9	...........
	103	1.38667	1.15586E-002	-2.79273E-004	0.00000E+000	-3.22800E-006	-1.68088E-001	1.15417E-002	3.57850E+000	9	...........
	104	1.4	9.71743E-003	-2.79994E-004	0.00000E+000	-2.72082E-006	-1.68088E-001	9.70386E-003	3.57850E+000	9	...........
	105	1.41333	7.87814E-003	-2.79104E-004	0.00000E+000	-2.19882E-006	-1.68088E-001	7.86403E-003	3.57850E+000	9	...........
	106	1.42667	6.03882E-003	-2.79188E-004	0.00000E+000	-1.68596E-006	-1.68088E-001	6.02403E-003	3.57850E+000	9	...........
	107	1.44	4.25908E-003	-2.79532E-004	0.00000E+000	-1.19055E-006	-1.68088E-001	4.24083E-003	3.57850E+000	9	...........
	108	1.45333	2.44853E-003	-2.79491E-004	0.00000E+000	-6.84340E-007	-1.68088E-001	2.43162E-003	3.57850E+000	9	...........
	109	1.46667	6.41698E-004	-2.78607E-004	0.00000E+000	-1.78782E-007	-1.68088E-001	6.23627E-004	3.57850E+000	9	...........
STARTTIMEOFFSET	QUANT	406.4767	Start Time Offset (s)
