EXPLAIN
TAG	PWR800_DISCHARGE
TITLE	LABEL	PWR Cyclic Charge Discharge (Cell) - Discharge Step	Test &Identifier
DATE	LABEL	7-7-2017	Date
TIME	LABEL	15:39:08	Time
NOTES	NOTES	3	&Notes...
	supercap test cell
	2.8mg
	6M KOH
PSTAT	PSTAT	IFC5000-01520	Potentiostat
CAPACITY	QUANT	1.00000E-003	Capacity (A-hr)
CELLTYPE	SELECTOR	1	&Cell Type
WORKINGCONNECTION	SELECTOR	0	&Working Lead
MAXDISCHARGETIME	VARIABLEANDUNITS	1.00000E+002	s	1.00000E+002	second(s)	Max &Discharge Time
DISCHARGEMODE	MULTIPARAM	0	2.80000E-004	&Discharge Mode	Constant Current	Amp(s)
SAMPLETIME	QUANT	1.00000E-002	Sa&mple Period (s)
DISCHARGESTOPAT1	MULTIPARAM	3	0.00000E+000	Discharge Stop At &1	Voltage < Limit	V
DISCHARGESTOPAT2	MULTIPARAM	0	0.00000E+000	Discharge Stop At &2	None	N/A
AESBHCSELECTOR	TOGGLE	F	Save Both Half Cells
IRCOMP	TOGGLE	F	IR &Measure
EOC	QUANT	0	Open Circuit (V)
SEQUENCER	TOGGLE	TRUE	Run as Sequence
PSTATMODEL	IQUANT	53	Pstat Model
PSTATSECTION	LABEL	IFC5000-01520	Pstat Section
PSTATSERIALNO	LABEL	01520	Pstat Serial Number
CTRLMODE	IQUANT	0	Control Mode
ELECTROMETER	IQUANT	1	RE=0 or CS=1
IESTAB	IQUANT	0	I/E Stability
CASPEED	IQUANT	4	Control Amp Speed
CONVENTION	IQUANT	1	Current Convention
ICHRANGE	IQUANT	2	Ich Range
ICHRANGEMODE	TOGGLE	T	Ich Auto Range
ICHOFFSETENABLE	TOGGLE	F	Ich Offset Enable
ICHOFFSET	QUANT	0	Ich Offset (V)
ICHFILTER	IQUANT	1	Ich Filter
VCHRANGE	IQUANT	2	Vch Range
VCHRANGEMODE	TOGGLE	T	Vch Auto Range
VCHOFFSETENABLE	TOGGLE	F	Vch Offset Enable
VCHOFFSET	QUANT	0	Vch Offset (V)
VCHFILTER	IQUANT	1	Vch Filter
IERANGELOWERLIMIT	IQUANT	9	I/E Range Lower Limit
IERANGEMODE	TOGGLE	F	I/E AutoRange
IERANGE	IQUANT	9	I/E Range
ACHSELECT	IQUANT	1	Ach Select
ACHRANGE	IQUANT	2	Ach Range
ACHOFFSETENABLE	TOGGLE	F	Ach Offset Enable
ACHOFFSET	QUANT	0	Ach Offset (V)
ACHFILTER	IQUANT	1	Ach Filter
CABLEID	IQUANT	14	Cable ID
DCCALDATE	LABEL	5-7-2017	DC Calibration Date
ACCALDATE	LABEL	12/3/2015	AC Calibration Date
FRAMEWORKVERSION	QUANT	7.01	Framework Version
INSTRUMENTVERSION	LABEL	4.00	Instrument Version
CURVE	TABLE	139
	Pt	T	Vf	Im	Vu	Pwr	Sig	Ach	Temp	IERange	Over
	#	s	V	A	V	W	V	V	deg C	#	bits
	0	0.013333	5.78003E-001	-2.78907E-004	0.00000E+000	-1.61209E-004	-1.68088E-001	5.78303E-001	3.57800E+000	9	...........
	1	0.026667	5.50855E-001	-2.79687E-004	0.00000E+000	-1.54067E-004	-1.68088E-001	5.51137E-001	3.57800E+000	9	...........
	2	0.04	5.26651E-001	-2.78729E-004	0.00000E+000	-1.46793E-004	-1.68088E-001	5.26915E-001	3.57800E+000	9	...........
	3	0.053333	5.04683E-001	-2.78467E-004	0.00000E+000	-1.40537E-004	-1.68088E-001	5.04979E-001	3.57800E+000	9	...........
	4	0.066667	4.84737E-001	-2.78768E-004	0.00000E+000	-1.35129E-004	-1.68088E-001	4.84943E-001	3.57800E+000	9	...........
	5	0.08	4.66472E-001	-2.78941E-004	0.00000E+000	-1.30118E-004	-1.68088E-001	4.66591E-001	3.57800E+000	9	...........
	6	0.093333	4.49370E-001	-2.78236E-004	0.00000E+000	-1.25031E-004	-1.68088E-001	4.49483E-001	3.57800E+000	9	...........
	7	0.106667	4.33530E-001	-2.78840E-004	0.00000E+000	-1.20885E-004	-1.68088E-001	4.33637E-001	3.57800E+000	9	...........
	8	0.12	4.18832E-001	-2.78860E-004	0.00000E+000	-1.16796E-004	-1.68088E-001	4.18941E-001	3.57800E+000	9	...........
	9	0.133333	4.05139E-001	-2.78672E-004	0.00000E+000	-1.12901E-004	-1.68088E-001	4.05233E-001	3.57800E+000	9	...........
	10	0.146667	3.92377E-001	-2.79157E-004	0.00000E+000	-1.09535E-004	-1.68088E-001	3.92477E-001	3.57800E+000	9	...........
	11	0.16	3.80480E-001	-2.78200E-004	0.00000E+000	-1.05849E-004	-1.68088E-001	3.80568E-001	3.57800E+000	9	...........
	12	0.173333	3.69363E-001	-2.79160E-004	0.00000E+000	-1.03111E-004	-1.68088E-001	3.69455E-001	3.57800E+000	9	...........
	13	0.186667	3.58949E-001	-2.78294E-004	0.00000E+000	-9.98932E-005	-1.68088E-001	3.59041E-001	3.57800E+000	9	...........
	14	0.2	3.49199E-001	-2.79627E-004	0.00000E+000	-9.76456E-005	-1.68088E-001	3.49285E-001	3.57800E+000	9	...........
	15	0.213333	3.40015E-001	-2.79470E-004	0.00000E+000	-9.50240E-005	-1.68088E-001	3.40100E-001	3.57800E+000	9	...........
	16	0.226667	3.31329E-001	-2.79641E-004	0.00000E+000	-9.26531E-005	-1.68088E-001	3.31406E-001	3.57800E+000	9	...........
	17	0.24	3.23137E-001	-2.78675E-004	0.00000E+000	-9.00502E-005	-1.68088E-001	3.23213E-001	3.57800E+000	9	...........
	18	0.253333	3.15348E-001	-2.79077E-004	0.00000E+000	-8.80065E-005	-1.68088E-001	3.15427E-001	3.57800E+000	9	...........
	19	0.266667	3.07989E-001	-2.79366E-004	0.00000E+000	-8.60416E-005	-1.68088E-001	3.08068E-001	3.57800E+000	9	...........
	20	0.28	3.00994E-001	-2.79003E-004	0.00000E+000	-8.39784E-005	-1.68088E-001	3.01071E-001	3.57800E+000	9	...........
	21	0.293333	2.94318E-001	-2.78790E-004	0.00000E+000	-8.20526E-005	-1.68088E-001	2.94391E-001	3.57800E+000	9	...........
	22	0.306667	2.87972E-001	-2.79055E-004	0.00000E+000	-8.03601E-005	-1.68088E-001	2.88046E-001	3.57800E+000	9	...........
	23	0.32	2.81931E-001	-2.79583E-004	0.00000E+000	-7.88231E-005	-1.68088E-001	2.82000E-001	3.57800E+000	9	...........
	24	0.333333	2.76141E-001	-2.79692E-004	0.00000E+000	-7.72343E-005	-1.68088E-001	2.76205E-001	3.57800E+000	9	...........
	25	0.346667	2.70574E-001	-2.78990E-004	0.00000E+000	-7.54872E-005	-1.68088E-001	2.70640E-001	3.57800E+000	9	...........
	26	0.36	2.65262E-001	-2.79605E-004	0.00000E+000	-7.41686E-005	-1.68088E-001	2.65329E-001	3.57800E+000	9	...........
	27	0.373333	2.60121E-001	-2.79638E-004	0.00000E+000	-7.27397E-005	-1.68088E-001	2.60184E-001	3.57800E+000	9	...........
	28	0.386667	2.55176E-001	-2.78538E-004	0.00000E+000	-7.10763E-005	-1.68088E-001	2.55246E-001	3.57800E+000	9	...........
	29	0.4	2.50399E-001	-2.79407E-004	0.00000E+000	-6.99633E-005	-1.68088E-001	2.50460E-001	3.57800E+000	9	...........
	30	0.413333	2.45761E-001	-2.78326E-004	0.00000E+000	-6.84016E-005	-1.68088E-001	2.45817E-001	3.57800E+000	9	...........
	31	0.426667	2.41261E-001	-2.79188E-004	0.00000E+000	-6.73570E-005	-1.68088E-001	2.41318E-001	3.57800E+000	9	...........
	32	0.44	2.36944E-001	-2.78861E-004	0.00000E+000	-6.60745E-005	-1.68088E-001	2.36997E-001	3.57800E+000	9	...........
	33	0.453333	2.32739E-001	-2.79423E-004	0.00000E+000	-6.50326E-005	-1.68088E-001	2.32797E-001	3.57800E+000	9	...........
	34	0.466667	2.28678E-001	-2.78442E-004	0.00000E+000	-6.36733E-005	-1.68088E-001	2.28733E-001	3.57800E+000	9	...........
	35	0.48	2.24668E-001	-2.79253E-004	0.00000E+000	-6.27394E-005	-1.68088E-001	2.24723E-001	3.57800E+000	9	...........
	36	0.493333	2.20791E-001	-2.79028E-004	0.00000E+000	-6.16068E-005	-1.68088E-001	2.20843E-001	3.57800E+000	9	...........
	37	0.506667	2.17051E-001	-2.78531E-004	0.00000E+000	-6.04554E-005	-1.68088E-001	2.17103E-001	3.57800E+000	9	...........
	38	0.52	2.13463E-001	-2.78649E-004	0.00000E+000	-5.94811E-005	-1.68088E-001	2.13513E-001	3.57800E+000	9	...........
	39	0.533333	2.09956E-001	-2.79247E-004	0.00000E+000	-5.86295E-005	-1.68088E-001	2.10005E-001	3.57800E+000	9	...........
	40	0.546667	2.06460E-001	-2.78550E-004	0.00000E+000	-5.75094E-005	-1.68088E-001	2.06507E-001	3.57800E+000	9	...........
	41	0.56	2.03058E-001	-2.78820E-004	0.00000E+000	-5.66166E-005	-1.68088E-001	2.03109E-001	3.57800E+000	9	...........
	42	0.573333	1.99713E-001	-2.78971E-004	0.00000E+000	-5.57142E-005	-1.68088E-001	1.99764E-001	3.57800E+000	9	...........
	43	0.586667	1.96397E-001	-2.79612E-004	0.00000E+000	-5.49149E-005	-1.68088E-001	1.96445E-001	3.57800E+000	9	...........
	44	0.6	1.93152E-001	-2.78803E-004	0.00000E+000	-5.38514E-005	-1.68088E-001	1.93203E-001	3.57800E+000	9	...........
	45	0.613333	1.89995E-001	-2.78581E-004	0.00000E+000	-5.29291E-005	-1.68088E-001	1.90046E-001	3.57800E+000	9	...........
	46	0.626667	1.86889E-001	-2.79084E-004	0.00000E+000	-5.21579E-005	-1.68088E-001	1.86933E-001	3.57800E+000	9	...........
	47	0.64	1.83844E-001	-2.79726E-004	0.00000E+000	-5.14260E-005	-1.68088E-001	1.83892E-001	3.57800E+000	9	...........
	48	0.653333	1.80886E-001	-2.78620E-004	0.00000E+000	-5.03983E-005	-1.68088E-001	1.80930E-001	3.57800E+000	9	...........
	49	0.666667	1.77973E-001	-2.79767E-004	0.00000E+000	-4.97908E-005	-1.68088E-001	1.78016E-001	3.57800E+000	9	...........
	50	0.68	1.75040E-001	-2.79394E-004	0.00000E+000	-4.89050E-005	-1.68088E-001	1.75084E-001	3.57800E+000	9	...........
	51	0.693333	1.72183E-001	-2.78555E-004	0.00000E+000	-4.79623E-005	-1.68088E-001	1.72228E-001	3.57837E+000	9	...........
	52	0.706667	1.69391E-001	-2.78720E-004	0.00000E+000	-4.72125E-005	-1.68088E-001	1.69432E-001	3.57950E+000	9	...........
	53	0.72	1.66593E-001	-2.78530E-004	0.00000E+000	-4.64012E-005	-1.68088E-001	1.66638E-001	3.57950E+000	9	...........
	54	0.733333	1.63885E-001	-2.79200E-004	0.00000E+000	-4.57566E-005	-1.68088E-001	1.63928E-001	3.57950E+000	9	...........
	55	0.746667	1.61222E-001	-2.79290E-004	0.00000E+000	-4.50278E-005	-1.68088E-001	1.61261E-001	3.57950E+000	9	...........
	56	0.76	1.58583E-001	-2.78286E-004	0.00000E+000	-4.41314E-005	-1.68088E-001	1.58621E-001	3.57950E+000	9	...........
	57	0.773333	1.55972E-001	-2.79293E-004	0.00000E+000	-4.35619E-005	-1.68088E-001	1.56010E-001	3.57950E+000	9	...........
	58	0.786667	1.53391E-001	-2.79496E-004	0.00000E+000	-4.28722E-005	-1.68088E-001	1.53427E-001	3.57950E+000	9	...........
	59	0.8	1.50871E-001	-2.78944E-004	0.00000E+000	-4.20845E-005	-1.68088E-001	1.50904E-001	3.57950E+000	9	...........
	60	0.813333	1.48328E-001	-2.80006E-004	0.00000E+000	-4.15328E-005	-1.68088E-001	1.48359E-001	3.57950E+000	9	...........
	61	0.826667	1.45831E-001	-2.79291E-004	0.00000E+000	-4.07292E-005	-1.68088E-001	1.45863E-001	3.57950E+000	9	...........
	62	0.84	1.43378E-001	-2.79078E-004	0.00000E+000	-4.00136E-005	-1.68088E-001	1.43413E-001	3.57950E+000	9	...........
	63	0.853333	1.40936E-001	-2.79023E-004	0.00000E+000	-3.93244E-005	-1.68088E-001	1.40967E-001	3.57950E+000	9	...........
	64	0.866667	1.38512E-001	-2.78093E-004	0.00000E+000	-3.85192E-005	-1.68088E-001	1.38543E-001	3.57950E+000	9	...........
	65	0.88	1.36126E-001	-2.80147E-004	0.00000E+000	-3.81353E-005	-1.68088E-001	1.36153E-001	3.57950E+000	9	...........
	66	0.893333	1.33762E-001	-2.79221E-004	0.00000E+000	-3.73491E-005	-1.68088E-001	1.33793E-001	3.57950E+000	9	...........
	67	0.906667	1.31430E-001	-2.79675E-004	0.00000E+000	-3.67576E-005	-1.68088E-001	1.31456E-001	3.57950E+000	9	...........
	68	0.92	1.29127E-001	-2.79430E-004	0.00000E+000	-3.60821E-005	-1.68088E-001	1.29156E-001	3.57950E+000	9	...........
	69	0.933333	1.26846E-001	-2.78879E-004	0.00000E+000	-3.53746E-005	-1.68088E-001	1.26870E-001	3.57950E+000	9	...........
	70	0.946667	1.24565E-001	-2.78616E-004	0.00000E+000	-3.47056E-005	-1.68088E-001	1.24583E-001	3.57950E+000	9	...........
	71	0.96	1.22297E-001	-2.78422E-004	0.00000E+000	-3.40501E-005	-1.68088E-001	1.22326E-001	3.57950E+000	9	...........
	72	0.97333	1.20049E-001	-2.79290E-004	0.00000E+000	-3.35285E-005	-1.68088E-001	1.20071E-001	3.57950E+000	9	...........
	73	0.98667	1.17841E-001	-2.79850E-004	0.00000E+000	-3.29777E-005	-1.68088E-001	1.17871E-001	3.57950E+000	9	...........
	74	1	1.15618E-001	-2.79200E-004	0.00000E+000	-3.22804E-005	-1.68088E-001	1.15647E-001	3.57950E+000	9	...........
	75	1.01333	1.13398E-001	-2.78854E-004	0.00000E+000	-3.16216E-005	-1.68088E-001	1.13425E-001	3.57950E+000	9	...........
	76	1.02667	1.11199E-001	-2.78650E-004	0.00000E+000	-3.09857E-005	-1.68088E-001	1.11221E-001	3.57950E+000	9	...........
	77	1.04	1.09038E-001	-2.79146E-004	0.00000E+000	-3.04376E-005	-1.68088E-001	1.09064E-001	3.57950E+000	9	...........
	78	1.05333	1.06916E-001	-2.77732E-004	0.00000E+000	-2.96939E-005	-1.68088E-001	1.06942E-001	3.57950E+000	9	...........
	79	1.06667	1.04788E-001	-2.79793E-004	0.00000E+000	-2.93190E-005	-1.68088E-001	1.04813E-001	3.57950E+000	9	...........
	80	1.08	1.02678E-001	-2.78748E-004	0.00000E+000	-2.86211E-005	-1.68088E-001	1.02701E-001	3.57950E+000	9	...........
	81	1.09333	1.00620E-001	-2.79238E-004	0.00000E+000	-2.80970E-005	-1.68088E-001	1.00647E-001	3.57950E+000	9	...........
	82	1.10667	9.85336E-002	-2.79453E-004	0.00000E+000	-2.75355E-005	-1.68088E-001	9.85558E-002	3.57950E+000	9	...........
	83	1.12	9.64453E-002	-2.79139E-004	0.00000E+000	-2.69216E-005	-1.68088E-001	9.64680E-002	3.57950E+000	9	...........
	84	1.13333	9.43233E-002	-2.79124E-004	0.00000E+000	-2.63279E-005	-1.68088E-001	9.43539E-002	3.57950E+000	9	...........
	85	1.14667	9.22639E-002	-2.79912E-004	0.00000E+000	-2.58257E-005	-1.68088E-001	9.22865E-002	3.57950E+000	9	...........
	86	1.16	9.02769E-002	-2.78687E-004	0.00000E+000	-2.51590E-005	-1.68088E-001	9.02997E-002	3.57950E+000	9	...........
	87	1.17333	8.82678E-002	-2.78749E-004	0.00000E+000	-2.46046E-005	-1.68088E-001	8.82905E-002	3.57950E+000	9	...........
	88	1.18667	8.62873E-002	-2.77932E-004	0.00000E+000	-2.39820E-005	-1.68088E-001	8.63132E-002	3.57950E+000	9	...........
	89	1.2	8.43019E-002	-2.78833E-004	0.00000E+000	-2.35062E-005	-1.68088E-001	8.43207E-002	3.57950E+000	9	...........
	90	1.21333	8.23092E-002	-2.78065E-004	0.00000E+000	-2.28873E-005	-1.68088E-001	8.23239E-002	3.57950E+000	9	...........
	91	1.22667	8.03488E-002	-2.78878E-004	0.00000E+000	-2.24075E-005	-1.68088E-001	8.03622E-002	3.57950E+000	9	...........
	92	1.24	7.84152E-002	-2.79176E-004	0.00000E+000	-2.18916E-005	-1.68088E-001	7.84269E-002	3.57950E+000	9	...........
	93	1.25333	7.64632E-002	-2.79605E-004	0.00000E+000	-2.13795E-005	-1.68088E-001	7.64743E-002	3.57950E+000	9	...........
	94	1.26667	7.45532E-002	-2.79536E-004	0.00000E+000	-2.08403E-005	-1.68088E-001	7.45669E-002	3.57950E+000	9	...........
	95	1.28	7.26844E-002	-2.79238E-004	0.00000E+000	-2.02962E-005	-1.68088E-001	7.26968E-002	3.57950E+000	9	...........
	96	1.29333	7.07840E-002	-2.78776E-004	0.00000E+000	-1.97329E-005	-1.68088E-001	7.07943E-002	3.57950E+000	9	...........
	97	1.30667	6.88721E-002	-2.78295E-004	0.00000E+000	-1.91667E-005	-1.68088E-001	6.88879E-002	3.57950E+000	9	...........
	98	1.32	6.70074E-002	-2.79108E-004	0.00000E+000	-1.87023E-005	-1.68088E-001	6.70188E-002	3.57950E+000	9	...........
	99	1.33333	6.51666E-002	-2.79191E-004	0.00000E+000	-1.81939E-005	-1.68088E-001	6.51774E-002	3.57950E+000	9	...........
	100	1.34667	6.32919E-002	-2.78999E-004	0.00000E+000	-1.76584E-005	-1.68088E-001	6.32995E-002	3.57950E+000	9	...........
	101	1.36	6.14175E-002	-2.78820E-004	0.00000E+000	-1.71244E-005	-1.68088E-001	6.14250E-002	3.57950E+000	9	...........
	102	1.37333	5.95925E-002	-2.78720E-004	0.00000E+000	-1.66096E-005	-1.68088E-001	5.96014E-002	3.57950E+000	9	...........
	103	1.38667	5.78110E-002	-2.79286E-004	0.00000E+000	-1.61458E-005	-1.68088E-001	5.78188E-002	3.57950E+000	9	...........
	104	1.4	5.59886E-002	-2.78560E-004	0.00000E+000	-1.55962E-005	-1.68088E-001	5.60018E-002	3.57950E+000	9	...........
	105	1.41333	5.41702E-002	-2.79165E-004	0.00000E+000	-1.51224E-005	-1.68088E-001	5.41838E-002	3.57950E+000	9	...........
	106	1.42667	5.23839E-002	-2.79228E-004	0.00000E+000	-1.46271E-005	-1.68088E-001	5.23940E-002	3.57950E+000	9	...........
	107	1.44	5.05778E-002	-2.79712E-004	0.00000E+000	-1.41472E-005	-1.68088E-001	5.05910E-002	3.57950E+000	9	...........
	108	1.45333	4.88446E-002	-2.78771E-004	0.00000E+000	-1.36164E-005	-1.68088E-001	4.88476E-002	3.57950E+000	9	...........
	109	1.46667	4.71637E-002	-2.79525E-004	0.00000E+000	-1.31834E-005	-1.68088E-001	4.71761E-002	3.57950E+000	9	...........
	110	1.48	4.54329E-002	-2.78715E-004	0.00000E+000	-1.26628E-005	-1.68088E-001	4.54388E-002	3.57950E+000	9	...........
	111	1.49333	4.36685E-002	-2.78648E-004	0.00000E+000	-1.21681E-005	-1.68088E-001	4.36707E-002	3.57950E+000	9	...........
	112	1.50667	4.19083E-002	-2.78219E-004	0.00000E+000	-1.16597E-005	-1.68088E-001	4.19138E-002	3.57950E+000	9	...........
	113	1.52	4.01679E-002	-2.78564E-004	0.00000E+000	-1.11893E-005	-1.68088E-001	4.01726E-002	3.57950E+000	9	...........
	114	1.53333	3.84545E-002	-2.78788E-004	0.00000E+000	-1.07207E-005	-1.68088E-001	3.84549E-002	3.57950E+000	9	...........
	115	1.54667	3.67359E-002	-2.78123E-004	0.00000E+000	-1.02171E-005	-1.68088E-001	3.67401E-002	3.57950E+000	9	...........
	116	1.56	3.49769E-002	-2.79334E-004	0.00000E+000	-9.77026E-006	-1.68088E-001	3.49762E-002	3.57950E+000	9	...........
	117	1.57333	3.32513E-002	-2.79030E-004	0.00000E+000	-9.27812E-006	-1.68088E-001	3.32538E-002	3.57950E+000	9	...........
	118	1.58667	3.15974E-002	-2.79216E-004	0.00000E+000	-8.82249E-006	-1.68088E-001	3.15945E-002	3.57950E+000	9	...........
	119	1.6	2.99197E-002	-2.78175E-004	0.00000E+000	-8.32291E-006	-1.68088E-001	2.99176E-002	3.57950E+000	9	...........
	120	1.61333	2.82505E-002	-2.78709E-004	0.00000E+000	-7.87369E-006	-1.68088E-001	2.82487E-002	3.57950E+000	9	...........
	121	1.62667	2.65850E-002	-2.78298E-004	0.00000E+000	-7.39854E-006	-1.68088E-001	2.65787E-002	3.57950E+000	9	...........
	122	1.64	2.48472E-002	-2.78740E-004	0.00000E+000	-6.92590E-006	-1.68088E-001	2.48462E-002	3.57950E+000	9	...........
	123	1.65333	2.31042E-002	-2.79567E-004	0.00000E+000	-6.45917E-006	-1.68088E-001	2.30990E-002	3.57950E+000	9	...........
	124	1.66667	2.14095E-002	-2.79359E-004	0.00000E+000	-5.98093E-006	-1.68088E-001	2.14000E-002	3.57950E+000	9	...........
	125	1.68	1.97347E-002	-2.78643E-004	0.00000E+000	-5.49893E-006	-1.68088E-001	1.97238E-002	3.57950E+000	9	...........
	126	1.69333	1.81573E-002	-2.79272E-004	0.00000E+000	-5.07082E-006	-1.68088E-001	1.81455E-002	3.57922E+000	9	...........
	127	1.70667	1.65400E-002	-2.79301E-004	0.00000E+000	-4.61965E-006	-1.68088E-001	1.65278E-002	3.57840E+000	9	...........
	128	1.72	1.49016E-002	-2.78943E-004	0.00000E+000	-4.15669E-006	-1.68088E-001	1.48902E-002	3.57840E+000	9	...........
	129	1.73333	1.32786E-002	-2.79748E-004	0.00000E+000	-3.71466E-006	-1.68088E-001	1.32676E-002	3.57840E+000	9	...........
	130	1.74667	1.16534E-002	-2.78723E-004	0.00000E+000	-3.24806E-006	-1.68088E-001	1.16377E-002	3.57840E+000	9	...........
	131	1.76	1.00710E-002	-2.79353E-004	0.00000E+000	-2.81337E-006	-1.68088E-001	1.00528E-002	3.57840E+000	9	...........
	132	1.77333	8.49842E-003	-2.78818E-004	0.00000E+000	-2.36951E-006	-1.68088E-001	8.47843E-003	3.57840E+000	9	...........
	133	1.78667	6.96540E-003	-2.78519E-004	0.00000E+000	-1.93999E-006	-1.68088E-001	6.94925E-003	3.57840E+000	9	...........
	134	1.8	5.40950E-003	-2.78710E-004	0.00000E+000	-1.50768E-006	-1.68088E-001	5.39174E-003	3.57840E+000	9	...........
	135	1.81333	3.80777E-003	-2.78004E-004	0.00000E+000	-1.05858E-006	-1.68088E-001	3.79248E-003	3.57840E+000	9	...........
	136	1.82667	2.23727E-003	-2.78139E-004	0.00000E+000	-6.22273E-007	-1.68088E-001	2.21575E-003	3.57840E+000	9	...........
	137	1.84	6.83068E-004	-2.78691E-004	0.00000E+000	-1.90365E-007	-1.68088E-001	6.66048E-004	3.57840E+000	9	...........
	138	1.84167	-1.53604E-004	-2.78056E-004	0.00000E+000	4.27104E-008	-1.68088E-001	-1.72383E-004	3.57840E+000	9	...........
STARTTIMEOFFSET	QUANT	158.9817	Start Time Offset (s)
