EXPLAIN
TAG	PWR800_DISCHARGE
TITLE	LABEL	PWR Cyclic Charge Discharge (Cell) - Discharge Step	Test &Identifier
DATE	LABEL	7-7-2017	Date
TIME	LABEL	16:12:14	Time
NOTES	NOTES	3	&Notes...
	supercap test cell
	2.8mg
	6M KOH
PSTAT	PSTAT	IFC5000-01520	Potentiostat
CAPACITY	QUANT	1.00000E-003	Capacity (A-hr)
CELLTYPE	SELECTOR	1	&Cell Type
WORKINGCONNECTION	SELECTOR	0	&Working Lead
MAXDISCHARGETIME	VARIABLEANDUNITS	1.00000E+002	s	1.00000E+002	second(s)	Max &Discharge Time
DISCHARGEMODE	MULTIPARAM	0	2.80000E-004	&Discharge Mode	Constant Current	Amp(s)
SAMPLETIME	QUANT	1.00000E-002	Sa&mple Period (s)
DISCHARGESTOPAT1	MULTIPARAM	3	0.00000E+000	Discharge Stop At &1	Voltage < Limit	V
DISCHARGESTOPAT2	MULTIPARAM	0	0.00000E+000	Discharge Stop At &2	None	N/A
AESBHCSELECTOR	TOGGLE	F	Save Both Half Cells
IRCOMP	TOGGLE	F	IR &Measure
EOC	QUANT	0	Open Circuit (V)
SEQUENCER	TOGGLE	TRUE	Run as Sequence
PSTATMODEL	IQUANT	53	Pstat Model
PSTATSECTION	LABEL	IFC5000-01520	Pstat Section
PSTATSERIALNO	LABEL	01520	Pstat Serial Number
CTRLMODE	IQUANT	0	Control Mode
ELECTROMETER	IQUANT	1	RE=0 or CS=1
IESTAB	IQUANT	0	I/E Stability
CASPEED	IQUANT	4	Control Amp Speed
CONVENTION	IQUANT	1	Current Convention
ICHRANGE	IQUANT	2	Ich Range
ICHRANGEMODE	TOGGLE	T	Ich Auto Range
ICHOFFSETENABLE	TOGGLE	F	Ich Offset Enable
ICHOFFSET	QUANT	0	Ich Offset (V)
ICHFILTER	IQUANT	1	Ich Filter
VCHRANGE	IQUANT	2	Vch Range
VCHRANGEMODE	TOGGLE	T	Vch Auto Range
VCHOFFSETENABLE	TOGGLE	F	Vch Offset Enable
VCHOFFSET	QUANT	0	Vch Offset (V)
VCHFILTER	IQUANT	1	Vch Filter
IERANGELOWERLIMIT	IQUANT	9	I/E Range Lower Limit
IERANGEMODE	TOGGLE	F	I/E AutoRange
IERANGE	IQUANT	9	I/E Range
ACHSELECT	IQUANT	1	Ach Select
ACHRANGE	IQUANT	2	Ach Range
ACHOFFSETENABLE	TOGGLE	F	Ach Offset Enable
ACHOFFSET	QUANT	0	Ach Offset (V)
ACHFILTER	IQUANT	1	Ach Filter
CABLEID	IQUANT	14	Cable ID
DCCALDATE	LABEL	5-7-2017	DC Calibration Date
ACCALDATE	LABEL	12/3/2015	AC Calibration Date
FRAMEWORKVERSION	QUANT	7.01	Framework Version
INSTRUMENTVERSION	LABEL	4.00	Instrument Version
CURVE	TABLE	60
	Pt	T	Vf	Im	Vu	Pwr	Sig	Ach	Temp	IERange	Over
	#	s	V	A	V	W	V	V	deg C	#	bits
	0	0.013333	5.22703E-001	-2.78461E-004	0.00000E+000	-1.45553E-004	-1.68088E-001	5.22932E-001	3.57810E+000	9	...........
	1	0.026667	4.89565E-001	-2.78283E-004	0.00000E+000	-1.36238E-004	-1.68088E-001	4.89768E-001	3.57810E+000	9	...........
	2	0.04	4.59313E-001	-2.79874E-004	0.00000E+000	-1.28550E-004	-1.68088E-001	4.59420E-001	3.57810E+000	9	...........
	3	0.053333	4.31014E-001	-2.79792E-004	0.00000E+000	-1.20594E-004	-1.68088E-001	4.31120E-001	3.57810E+000	9	...........
	4	0.066667	4.04618E-001	-2.79768E-004	0.00000E+000	-1.13199E-004	-1.68088E-001	4.04705E-001	3.57810E+000	9	...........
	5	0.08	3.79982E-001	-2.78995E-004	0.00000E+000	-1.06013E-004	-1.68088E-001	3.80066E-001	3.57810E+000	9	...........
	6	0.093333	3.56971E-001	-2.77867E-004	0.00000E+000	-9.91907E-005	-1.68088E-001	3.57053E-001	3.57772E+000	9	...........
	7	0.106667	3.35527E-001	-2.78898E-004	0.00000E+000	-9.35777E-005	-1.68088E-001	3.35609E-001	3.57740E+000	9	...........
	8	0.12	3.15568E-001	-2.78592E-004	0.00000E+000	-8.79145E-005	-1.68088E-001	3.15645E-001	3.57740E+000	9	...........
	9	0.133333	2.97017E-001	-2.78457E-004	0.00000E+000	-8.27064E-005	-1.68088E-001	2.97094E-001	3.57740E+000	9	...........
	10	0.146667	2.79769E-001	-2.79567E-004	0.00000E+000	-7.82142E-005	-1.68088E-001	2.79836E-001	3.57740E+000	9	...........
	11	0.16	2.63768E-001	-2.79533E-004	0.00000E+000	-7.37320E-005	-1.68088E-001	2.63834E-001	3.57740E+000	9	...........
	12	0.173333	2.48916E-001	-2.78301E-004	0.00000E+000	-6.92736E-005	-1.68088E-001	2.48979E-001	3.57740E+000	9	...........
	13	0.186667	2.35133E-001	-2.78845E-004	0.00000E+000	-6.55656E-005	-1.68088E-001	2.35183E-001	3.57740E+000	9	...........
	14	0.2	2.22337E-001	-2.78281E-004	0.00000E+000	-6.18722E-005	-1.68088E-001	2.22387E-001	3.57740E+000	9	...........
	15	0.213333	2.10420E-001	-2.78439E-004	0.00000E+000	-5.85892E-005	-1.68088E-001	2.10467E-001	3.57740E+000	9	...........
	16	0.226667	1.99312E-001	-2.78868E-004	0.00000E+000	-5.55815E-005	-1.68088E-001	1.99361E-001	3.57740E+000	9	...........
	17	0.24	1.88938E-001	-2.78358E-004	0.00000E+000	-5.25923E-005	-1.68088E-001	1.88984E-001	3.57740E+000	9	...........
	18	0.253333	1.79274E-001	-2.79541E-004	0.00000E+000	-5.01142E-005	-1.68088E-001	1.79318E-001	3.57740E+000	9	...........
	19	0.266667	1.70227E-001	-2.78773E-004	0.00000E+000	-4.74546E-005	-1.68088E-001	1.70270E-001	3.57740E+000	9	...........
	20	0.28	1.61741E-001	-2.79286E-004	0.00000E+000	-4.51722E-005	-1.68088E-001	1.61774E-001	3.57740E+000	9	...........
	21	0.293333	1.53786E-001	-2.78308E-004	0.00000E+000	-4.27998E-005	-1.68088E-001	1.53818E-001	3.57740E+000	9	...........
	22	0.306667	1.46286E-001	-2.79016E-004	0.00000E+000	-4.08160E-005	-1.68088E-001	1.46322E-001	3.57740E+000	9	...........
	23	0.32	1.39196E-001	-2.78907E-004	0.00000E+000	-3.88228E-005	-1.68088E-001	1.39229E-001	3.57740E+000	9	...........
	24	0.333333	1.32494E-001	-2.78597E-004	0.00000E+000	-3.69123E-005	-1.68088E-001	1.32521E-001	3.57740E+000	9	...........
	25	0.346667	1.26155E-001	-2.79194E-004	0.00000E+000	-3.52216E-005	-1.68088E-001	1.26184E-001	3.57740E+000	9	...........
	26	0.36	1.20134E-001	-2.78845E-004	0.00000E+000	-3.34987E-005	-1.68088E-001	1.20166E-001	3.57740E+000	9	...........
	27	0.373333	1.14430E-001	-2.78940E-004	0.00000E+000	-3.19190E-005	-1.68088E-001	1.14458E-001	3.57740E+000	9	...........
	28	0.386667	1.08935E-001	-2.78106E-004	0.00000E+000	-3.02954E-005	-1.68088E-001	1.08962E-001	3.57740E+000	9	...........
	29	0.4	1.03674E-001	-2.79394E-004	0.00000E+000	-2.89659E-005	-1.68088E-001	1.03694E-001	3.57740E+000	9	...........
	30	0.413333	9.86124E-002	-2.78589E-004	0.00000E+000	-2.74724E-005	-1.68088E-001	9.86319E-002	3.57740E+000	9	...........
	31	0.426667	9.37615E-002	-2.78230E-004	0.00000E+000	-2.60873E-005	-1.68088E-001	9.37839E-002	3.57740E+000	9	...........
	32	0.44	8.90586E-002	-2.77637E-004	0.00000E+000	-2.47260E-005	-1.68088E-001	8.90796E-002	3.57740E+000	9	...........
	33	0.453333	8.44650E-002	-2.78859E-004	0.00000E+000	-2.35539E-005	-1.68088E-001	8.44881E-002	3.57740E+000	9	...........
	34	0.466667	8.00824E-002	-2.79299E-004	0.00000E+000	-2.23669E-005	-1.68088E-001	8.00966E-002	3.57740E+000	9	...........
	35	0.48	7.59015E-002	-2.79045E-004	0.00000E+000	-2.11799E-005	-1.68088E-001	7.59198E-002	3.57740E+000	9	...........
	36	0.493333	7.18191E-002	-2.77791E-004	0.00000E+000	-1.99507E-005	-1.68088E-001	7.18351E-002	3.57740E+000	9	...........
	37	0.506667	6.78227E-002	-2.79034E-004	0.00000E+000	-1.89249E-005	-1.68088E-001	6.78333E-002	3.57740E+000	9	...........
	38	0.52	6.39871E-002	-2.78832E-004	0.00000E+000	-1.78417E-005	-1.68088E-001	6.39963E-002	3.57740E+000	9	...........
	39	0.533333	6.02608E-002	-2.79618E-004	0.00000E+000	-1.68500E-005	-1.68088E-001	6.02798E-002	3.57740E+000	9	...........
	40	0.546667	5.66483E-002	-2.80213E-004	0.00000E+000	-1.58736E-005	-1.68088E-001	5.66586E-002	3.57740E+000	9	...........
	41	0.56	5.30836E-002	-2.80540E-004	0.00000E+000	-1.48921E-005	-1.68088E-001	5.30966E-002	3.57740E+000	9	...........
	42	0.573333	4.95898E-002	-2.77709E-004	0.00000E+000	-1.37715E-005	-1.68088E-001	4.96055E-002	3.57740E+000	9	...........
	43	0.586667	4.61853E-002	-2.79489E-004	0.00000E+000	-1.29083E-005	-1.68088E-001	4.61957E-002	3.57740E+000	9	...........
	44	0.6	4.28686E-002	-2.79272E-004	0.00000E+000	-1.19720E-005	-1.68088E-001	4.28741E-002	3.57740E+000	9	...........
	45	0.613333	3.95484E-002	-2.78899E-004	0.00000E+000	-1.10300E-005	-1.68088E-001	3.95613E-002	3.57740E+000	9	...........
	46	0.626667	3.63255E-002	-2.78797E-004	0.00000E+000	-1.01274E-005	-1.68088E-001	3.63269E-002	3.57740E+000	9	...........
	47	0.64	3.31693E-002	-2.77969E-004	0.00000E+000	-9.22002E-006	-1.68088E-001	3.31744E-002	3.57740E+000	9	...........
	48	0.653333	3.00871E-002	-2.79215E-004	0.00000E+000	-8.40077E-006	-1.68088E-001	3.00876E-002	3.57740E+000	9	...........
	49	0.666667	2.71243E-002	-2.80002E-004	0.00000E+000	-7.59488E-006	-1.68088E-001	2.71251E-002	3.57740E+000	9	...........
	50	0.68	2.41676E-002	-2.79869E-004	0.00000E+000	-6.76375E-006	-1.68088E-001	2.41688E-002	3.57740E+000	9	...........
	51	0.693333	2.12439E-002	-2.78298E-004	0.00000E+000	-5.91214E-006	-1.68088E-001	2.12396E-002	3.57740E+000	9	...........
	52	0.706667	1.83322E-002	-2.77905E-004	0.00000E+000	-5.09460E-006	-1.68088E-001	1.83250E-002	3.57740E+000	9	...........
	53	0.72	1.54793E-002	-2.78246E-004	0.00000E+000	-4.30705E-006	-1.68088E-001	1.54714E-002	3.57740E+000	9	...........
	54	0.733333	1.27331E-002	-2.79942E-004	0.00000E+000	-3.56452E-006	-1.68088E-001	1.27276E-002	3.57740E+000	9	...........
	55	0.746667	1.00287E-002	-2.79950E-004	0.00000E+000	-2.80752E-006	-1.68088E-001	1.00211E-002	3.57740E+000	9	...........
	56	0.76	7.32299E-003	-2.78587E-004	0.00000E+000	-2.04009E-006	-1.68088E-001	7.31324E-003	3.57740E+000	9	...........
	57	0.773333	4.64938E-003	-2.78728E-004	0.00000E+000	-1.29591E-006	-1.68088E-001	4.63434E-003	3.57740E+000	9	...........
	58	0.786667	1.99957E-003	-2.79080E-004	0.00000E+000	-5.58040E-007	-1.68088E-001	1.98713E-003	3.57740E+000	9	...........
	59	0.791667	2.37260E-004	-2.76906E-004	0.00000E+000	-6.56988E-008	-1.68088E-001	2.16944E-004	3.57740E+000	9	...........
STARTTIMEOFFSET	QUANT	1613.032	Start Time Offset (s)
