EXPLAIN
TAG	PWR800_DISCHARGE
TITLE	LABEL	PWR Cyclic Charge Discharge (Cell) - Discharge Step	Test &Identifier
DATE	LABEL	7-7-2017	Date
TIME	LABEL	15:59:35	Time
NOTES	NOTES	3	&Notes...
	supercap test cell
	2.8mg
	6M KOH
PSTAT	PSTAT	IFC5000-01520	Potentiostat
CAPACITY	QUANT	1.00000E-003	Capacity (A-hr)
CELLTYPE	SELECTOR	1	&Cell Type
WORKINGCONNECTION	SELECTOR	0	&Working Lead
MAXDISCHARGETIME	VARIABLEANDUNITS	1.00000E+002	s	1.00000E+002	second(s)	Max &Discharge Time
DISCHARGEMODE	MULTIPARAM	0	2.80000E-004	&Discharge Mode	Constant Current	Amp(s)
SAMPLETIME	QUANT	1.00000E-002	Sa&mple Period (s)
DISCHARGESTOPAT1	MULTIPARAM	3	0.00000E+000	Discharge Stop At &1	Voltage < Limit	V
DISCHARGESTOPAT2	MULTIPARAM	0	0.00000E+000	Discharge Stop At &2	None	N/A
AESBHCSELECTOR	TOGGLE	F	Save Both Half Cells
IRCOMP	TOGGLE	F	IR &Measure
EOC	QUANT	0	Open Circuit (V)
SEQUENCER	TOGGLE	TRUE	Run as Sequence
PSTATMODEL	IQUANT	53	Pstat Model
PSTATSECTION	LABEL	IFC5000-01520	Pstat Section
PSTATSERIALNO	LABEL	01520	Pstat Serial Number
CTRLMODE	IQUANT	0	Control Mode
ELECTROMETER	IQUANT	1	RE=0 or CS=1
IESTAB	IQUANT	0	I/E Stability
CASPEED	IQUANT	4	Control Amp Speed
CONVENTION	IQUANT	1	Current Convention
ICHRANGE	IQUANT	2	Ich Range
ICHRANGEMODE	TOGGLE	T	Ich Auto Range
ICHOFFSETENABLE	TOGGLE	F	Ich Offset Enable
ICHOFFSET	QUANT	0	Ich Offset (V)
ICHFILTER	IQUANT	1	Ich Filter
VCHRANGE	IQUANT	2	Vch Range
VCHRANGEMODE	TOGGLE	T	Vch Auto Range
VCHOFFSETENABLE	TOGGLE	F	Vch Offset Enable
VCHOFFSET	QUANT	0	Vch Offset (V)
VCHFILTER	IQUANT	1	Vch Filter
IERANGELOWERLIMIT	IQUANT	9	I/E Range Lower Limit
IERANGEMODE	TOGGLE	F	I/E AutoRange
IERANGE	IQUANT	9	I/E Range
ACHSELECT	IQUANT	1	Ach Select
ACHRANGE	IQUANT	2	Ach Range
ACHOFFSETENABLE	TOGGLE	F	Ach Offset Enable
ACHOFFSET	QUANT	0	Ach Offset (V)
ACHFILTER	IQUANT	1	Ach Filter
CABLEID	IQUANT	14	Cable ID
DCCALDATE	LABEL	5-7-2017	DC Calibration Date
ACCALDATE	LABEL	12/3/2015	AC Calibration Date
FRAMEWORKVERSION	QUANT	7.01	Framework Version
INSTRUMENTVERSION	LABEL	4.00	Instrument Version
CURVE	TABLE	71
	Pt	T	Vf	Im	Vu	Pwr	Sig	Ach	Temp	IERange	Over
	#	s	V	A	V	W	V	V	deg C	#	bits
	0	0.013333	5.30079E-001	-2.79370E-004	0.00000E+000	-1.48088E-004	-1.68088E-001	5.30340E-001	3.57900E+000	9	...........
	1	0.026667	4.97830E-001	-2.78691E-004	0.00000E+000	-1.38741E-004	-1.68088E-001	4.98100E-001	3.57900E+000	9	...........
	2	0.04	4.68764E-001	-2.78649E-004	0.00000E+000	-1.30621E-004	-1.68088E-001	4.68881E-001	3.57900E+000	9	...........
	3	0.053333	4.41597E-001	-2.78631E-004	0.00000E+000	-1.23043E-004	-1.68088E-001	4.41713E-001	3.57900E+000	9	...........
	4	0.066667	4.16365E-001	-2.78952E-004	0.00000E+000	-1.16146E-004	-1.68088E-001	4.16470E-001	3.57900E+000	9	...........
	5	0.08	3.92886E-001	-2.78451E-004	0.00000E+000	-1.09400E-004	-1.68088E-001	3.92975E-001	3.57900E+000	9	...........
	6	0.093333	3.71033E-001	-2.78574E-004	0.00000E+000	-1.03360E-004	-1.68088E-001	3.71122E-001	3.57900E+000	9	...........
	7	0.106667	3.50720E-001	-2.78572E-004	0.00000E+000	-9.77006E-005	-1.68088E-001	3.50801E-001	3.57900E+000	9	...........
	8	0.12	3.31837E-001	-2.78549E-004	0.00000E+000	-9.24327E-005	-1.68088E-001	3.31923E-001	3.57900E+000	9	...........
	9	0.133333	3.14303E-001	-2.78737E-004	0.00000E+000	-8.76079E-005	-1.68088E-001	3.14380E-001	3.57900E+000	9	...........
	10	0.146667	2.98028E-001	-2.78656E-004	0.00000E+000	-8.30474E-005	-1.68088E-001	2.98106E-001	3.57900E+000	9	...........
	11	0.16	2.82912E-001	-2.78795E-004	0.00000E+000	-7.88744E-005	-1.68088E-001	2.82988E-001	3.57900E+000	9	...........
	12	0.173333	2.68855E-001	-2.78474E-004	0.00000E+000	-7.48690E-005	-1.68088E-001	2.68933E-001	3.57900E+000	9	...........
	13	0.186667	2.55757E-001	-2.78442E-004	0.00000E+000	-7.12132E-005	-1.68088E-001	2.55831E-001	3.57900E+000	9	...........
	14	0.2	2.43597E-001	-2.78969E-004	0.00000E+000	-6.79560E-005	-1.68088E-001	2.43654E-001	3.57900E+000	9	...........
	15	0.213333	2.32255E-001	-2.78223E-004	0.00000E+000	-6.46186E-005	-1.68088E-001	2.32313E-001	3.57900E+000	9	...........
	16	0.226667	2.21699E-001	-2.78797E-004	0.00000E+000	-6.18089E-005	-1.68088E-001	2.21754E-001	3.57900E+000	9	...........
	17	0.24	2.11850E-001	-2.78315E-004	0.00000E+000	-5.89610E-005	-1.68088E-001	2.11904E-001	3.57900E+000	9	...........
	18	0.253333	2.02619E-001	-2.79928E-004	0.00000E+000	-5.67188E-005	-1.68088E-001	2.02672E-001	3.57900E+000	9	...........
	19	0.266667	1.93951E-001	-2.79281E-004	0.00000E+000	-5.41669E-005	-1.68088E-001	1.93995E-001	3.57900E+000	9	...........
	20	0.28	1.85767E-001	-2.78776E-004	0.00000E+000	-5.17873E-005	-1.68088E-001	1.85819E-001	3.57825E+000	9	...........
	21	0.293333	1.78108E-001	-2.79268E-004	0.00000E+000	-4.97399E-005	-1.68088E-001	1.78155E-001	3.57750E+000	9	...........
	22	0.306667	1.70857E-001	-2.78548E-004	0.00000E+000	-4.75918E-005	-1.68088E-001	1.70903E-001	3.57750E+000	9	...........
	23	0.32	1.64007E-001	-2.79812E-004	0.00000E+000	-4.58912E-005	-1.68088E-001	1.64056E-001	3.57750E+000	9	...........
	24	0.333333	1.57504E-001	-2.78287E-004	0.00000E+000	-4.38313E-005	-1.68088E-001	1.57546E-001	3.57750E+000	9	...........
	25	0.346667	1.51347E-001	-2.78772E-004	0.00000E+000	-4.21912E-005	-1.68088E-001	1.51381E-001	3.57750E+000	9	...........
	26	0.36	1.45456E-001	-2.78649E-004	0.00000E+000	-4.05312E-005	-1.68088E-001	1.45493E-001	3.57750E+000	9	...........
	27	0.373333	1.39844E-001	-2.79006E-004	0.00000E+000	-3.90173E-005	-1.68088E-001	1.39879E-001	3.57750E+000	9	...........
	28	0.386667	1.34447E-001	-2.79361E-004	0.00000E+000	-3.75592E-005	-1.68088E-001	1.34474E-001	3.57750E+000	9	...........
	29	0.4	1.29292E-001	-2.78629E-004	0.00000E+000	-3.60244E-005	-1.68088E-001	1.29325E-001	3.57750E+000	9	...........
	30	0.413333	1.24361E-001	-2.78670E-004	0.00000E+000	-3.46555E-005	-1.68088E-001	1.24388E-001	3.57750E+000	9	...........
	31	0.426667	1.19601E-001	-2.79926E-004	0.00000E+000	-3.34794E-005	-1.68088E-001	1.19630E-001	3.57750E+000	9	...........
	32	0.44	1.15023E-001	-2.78120E-004	0.00000E+000	-3.19902E-005	-1.68088E-001	1.15047E-001	3.57750E+000	9	...........
	33	0.453333	1.10585E-001	-2.79363E-004	0.00000E+000	-3.08934E-005	-1.68088E-001	1.10615E-001	3.57750E+000	9	...........
	34	0.466667	1.06335E-001	-2.78140E-004	0.00000E+000	-2.95760E-005	-1.68088E-001	1.06362E-001	3.57750E+000	9	...........
	35	0.48	1.02193E-001	-2.77846E-004	0.00000E+000	-2.83940E-005	-1.68088E-001	1.02220E-001	3.57750E+000	9	...........
	36	0.493333	9.81556E-002	-2.79363E-004	0.00000E+000	-2.74210E-005	-1.68088E-001	9.81823E-002	3.57750E+000	9	...........
	37	0.506667	9.42418E-002	-2.78708E-004	0.00000E+000	-2.62660E-005	-1.68088E-001	9.42662E-002	3.57750E+000	9	...........
	38	0.52	9.04537E-002	-2.79680E-004	0.00000E+000	-2.52981E-005	-1.68088E-001	9.04816E-002	3.57750E+000	9	...........
	39	0.533333	8.67552E-002	-2.77743E-004	0.00000E+000	-2.40957E-005	-1.68088E-001	8.67792E-002	3.57750E+000	9	...........
	40	0.546667	8.31410E-002	-2.79951E-004	0.00000E+000	-2.32754E-005	-1.68088E-001	8.31612E-002	3.57750E+000	9	...........
	41	0.56	7.96182E-002	-2.79665E-004	0.00000E+000	-2.22664E-005	-1.68088E-001	7.96397E-002	3.57750E+000	9	...........
	42	0.573333	7.61905E-002	-2.79375E-004	0.00000E+000	-2.12857E-005	-1.68088E-001	7.62035E-002	3.57750E+000	9	...........
	43	0.586667	7.27674E-002	-2.77680E-004	0.00000E+000	-2.02060E-005	-1.68088E-001	7.27839E-002	3.57750E+000	9	...........
	44	0.6	6.94215E-002	-2.79980E-004	0.00000E+000	-1.94367E-005	-1.68088E-001	6.94370E-002	3.57750E+000	9	...........
	45	0.613333	6.61336E-002	-2.79693E-004	0.00000E+000	-1.84971E-005	-1.68088E-001	6.61525E-002	3.57750E+000	9	...........
	46	0.626667	6.29754E-002	-2.79625E-004	0.00000E+000	-1.76095E-005	-1.68088E-001	6.29907E-002	3.57750E+000	9	...........
	47	0.64	5.98602E-002	-2.78982E-004	0.00000E+000	-1.66999E-005	-1.68088E-001	5.98686E-002	3.57750E+000	9	...........
	48	0.653333	5.67712E-002	-2.79002E-004	0.00000E+000	-1.58393E-005	-1.68088E-001	5.67793E-002	3.57750E+000	9	...........
	49	0.666667	5.37095E-002	-2.80438E-004	0.00000E+000	-1.50622E-005	-1.68088E-001	5.37130E-002	3.57750E+000	9	...........
	50	0.68	5.07620E-002	-2.78247E-004	0.00000E+000	-1.41244E-005	-1.68088E-001	5.07736E-002	3.57750E+000	9	...........
	51	0.693333	4.79195E-002	-2.77853E-004	0.00000E+000	-1.33146E-005	-1.68088E-001	4.79275E-002	3.57750E+000	9	...........
	52	0.706667	4.50613E-002	-2.79178E-004	0.00000E+000	-1.25801E-005	-1.68088E-001	4.50729E-002	3.57750E+000	9	...........
	53	0.72	4.22921E-002	-2.79159E-004	0.00000E+000	-1.18062E-005	-1.68088E-001	4.23047E-002	3.57750E+000	9	...........
	54	0.733333	3.95138E-002	-2.79207E-004	0.00000E+000	-1.10326E-005	-1.68088E-001	3.95256E-002	3.57750E+000	9	...........
	55	0.746667	3.67850E-002	-2.78755E-004	0.00000E+000	-1.02540E-005	-1.68088E-001	3.67908E-002	3.57750E+000	9	...........
	56	0.76	3.40564E-002	-2.79245E-004	0.00000E+000	-9.51007E-006	-1.68088E-001	3.40619E-002	3.57750E+000	9	...........
	57	0.773333	3.13710E-002	-2.78575E-004	0.00000E+000	-8.73919E-006	-1.68088E-001	3.13753E-002	3.57750E+000	9	...........
	58	0.786667	2.87400E-002	-2.79663E-004	0.00000E+000	-8.03750E-006	-1.68088E-001	2.87414E-002	3.57750E+000	9	...........
	59	0.8	2.61471E-002	-2.79484E-004	0.00000E+000	-7.30770E-006	-1.68088E-001	2.61486E-002	3.57750E+000	9	...........
	60	0.813333	2.35899E-002	-2.78923E-004	0.00000E+000	-6.57977E-006	-1.68088E-001	2.35867E-002	3.57750E+000	9	...........
	61	0.826667	2.10817E-002	-2.77532E-004	0.00000E+000	-5.85085E-006	-1.68088E-001	2.10778E-002	3.57750E+000	9	...........
	62	0.84	1.86000E-002	-2.80142E-004	0.00000E+000	-5.21063E-006	-1.68088E-001	1.85958E-002	3.57750E+000	9	...........
	63	0.853333	1.61861E-002	-2.78940E-004	0.00000E+000	-4.51494E-006	-1.68088E-001	1.61752E-002	3.57750E+000	9	...........
	64	0.866667	1.37743E-002	-2.79836E-004	0.00000E+000	-3.85454E-006	-1.68088E-001	1.37683E-002	3.57750E+000	9	...........
	65	0.88	1.13759E-002	-2.80037E-004	0.00000E+000	-3.18568E-006	-1.68088E-001	1.13659E-002	3.57750E+000	9	...........
	66	0.893333	9.02344E-003	-2.79129E-004	0.00000E+000	-2.51870E-006	-1.68088E-001	9.01444E-003	3.57750E+000	9	...........
	67	0.906667	6.63623E-003	-2.78289E-004	0.00000E+000	-1.84679E-006	-1.68088E-001	6.62397E-003	3.57750E+000	9	...........
	68	0.92	4.26570E-003	-2.78700E-004	0.00000E+000	-1.18885E-006	-1.68088E-001	4.25388E-003	3.57750E+000	9	...........
	69	0.933333	1.98702E-003	-2.80046E-004	0.00000E+000	-5.56457E-007	-1.68088E-001	1.97217E-003	3.57750E+000	9	...........
	70	0.94	3.02699E-004	-2.79296E-004	0.00000E+000	-8.45426E-008	-1.68088E-001	2.83016E-004	3.57750E+000	9	...........
STARTTIMEOFFSET	QUANT	1092.114	Start Time Offset (s)
