EXPLAIN
TAG	PWR800_DISCHARGE
TITLE	LABEL	PWR Cyclic Charge Discharge (Cell) - Discharge Step	Test &Identifier
DATE	LABEL	7-7-2017	Date
TIME	LABEL	16:04:03	Time
NOTES	NOTES	3	&Notes...
	supercap test cell
	2.8mg
	6M KOH
PSTAT	PSTAT	IFC5000-01520	Potentiostat
CAPACITY	QUANT	1.00000E-003	Capacity (A-hr)
CELLTYPE	SELECTOR	1	&Cell Type
WORKINGCONNECTION	SELECTOR	0	&Working Lead
MAXDISCHARGETIME	VARIABLEANDUNITS	1.00000E+002	s	1.00000E+002	second(s)	Max &Discharge Time
DISCHARGEMODE	MULTIPARAM	0	2.80000E-004	&Discharge Mode	Constant Current	Amp(s)
SAMPLETIME	QUANT	1.00000E-002	Sa&mple Period (s)
DISCHARGESTOPAT1	MULTIPARAM	3	0.00000E+000	Discharge Stop At &1	Voltage < Limit	V
DISCHARGESTOPAT2	MULTIPARAM	0	0.00000E+000	Discharge Stop At &2	None	N/A
AESBHCSELECTOR	TOGGLE	F	Save Both Half Cells
IRCOMP	TOGGLE	F	IR &Measure
EOC	QUANT	0	Open Circuit (V)
SEQUENCER	TOGGLE	TRUE	Run as Sequence
PSTATMODEL	IQUANT	53	Pstat Model
PSTATSECTION	LABEL	IFC5000-01520	Pstat Section
PSTATSERIALNO	LABEL	01520	Pstat Serial Number
CTRLMODE	IQUANT	0	Control Mode
ELECTROMETER	IQUANT	1	RE=0 or CS=1
IESTAB	IQUANT	0	I/E Stability
CASPEED	IQUANT	4	Control Amp Speed
CONVENTION	IQUANT	1	Current Convention
ICHRANGE	IQUANT	2	Ich Range
ICHRANGEMODE	TOGGLE	T	Ich Auto Range
ICHOFFSETENABLE	TOGGLE	F	Ich Offset Enable
ICHOFFSET	QUANT	0	Ich Offset (V)
ICHFILTER	IQUANT	1	Ich Filter
VCHRANGE	IQUANT	2	Vch Range
VCHRANGEMODE	TOGGLE	T	Vch Auto Range
VCHOFFSETENABLE	TOGGLE	F	Vch Offset Enable
VCHOFFSET	QUANT	0	Vch Offset (V)
VCHFILTER	IQUANT	1	Vch Filter
IERANGELOWERLIMIT	IQUANT	9	I/E Range Lower Limit
IERANGEMODE	TOGGLE	F	I/E AutoRange
IERANGE	IQUANT	9	I/E Range
ACHSELECT	IQUANT	1	Ach Select
ACHRANGE	IQUANT	2	Ach Range
ACHOFFSETENABLE	TOGGLE	F	Ach Offset Enable
ACHOFFSET	QUANT	0	Ach Offset (V)
ACHFILTER	IQUANT	1	Ach Filter
CABLEID	IQUANT	14	Cable ID
DCCALDATE	LABEL	5-7-2017	DC Calibration Date
ACCALDATE	LABEL	12/3/2015	AC Calibration Date
FRAMEWORKVERSION	QUANT	7.01	Framework Version
INSTRUMENTVERSION	LABEL	4.00	Instrument Version
CURVE	TABLE	66
	Pt	T	Vf	Im	Vu	Pwr	Sig	Ach	Temp	IERange	Over
	#	s	V	A	V	W	V	V	deg C	#	bits
	0	0.013333	5.25544E-001	-2.79710E-004	0.00000E+000	-1.47000E-004	-1.68088E-001	5.25795E-001	3.57750E+000	9	...........
	1	0.026667	4.92891E-001	-2.79268E-004	0.00000E+000	-1.37649E-004	-1.68088E-001	4.93159E-001	3.57750E+000	9	...........
	2	0.04	4.63332E-001	-2.79197E-004	0.00000E+000	-1.29361E-004	-1.68088E-001	4.63442E-001	3.57750E+000	9	...........
	3	0.053333	4.35660E-001	-2.78571E-004	0.00000E+000	-1.21362E-004	-1.68088E-001	4.35766E-001	3.57750E+000	9	...........
	4	0.066667	4.09908E-001	-2.78824E-004	0.00000E+000	-1.14292E-004	-1.68088E-001	4.10005E-001	3.57750E+000	9	...........
	5	0.08	3.85892E-001	-2.79850E-004	0.00000E+000	-1.07992E-004	-1.68088E-001	3.85986E-001	3.57750E+000	9	...........
	6	0.093333	3.63536E-001	-2.78934E-004	0.00000E+000	-1.01403E-004	-1.68088E-001	3.63624E-001	3.57750E+000	9	...........
	7	0.106667	3.42709E-001	-2.79469E-004	0.00000E+000	-9.57764E-005	-1.68088E-001	3.42789E-001	3.57750E+000	9	...........
	8	0.12	3.23347E-001	-2.79552E-004	0.00000E+000	-9.03923E-005	-1.68088E-001	3.23421E-001	3.57750E+000	9	...........
	9	0.133333	3.05376E-001	-2.77666E-004	0.00000E+000	-8.47927E-005	-1.68088E-001	3.05447E-001	3.57750E+000	9	...........
	10	0.146667	2.88677E-001	-2.79061E-004	0.00000E+000	-8.05587E-005	-1.68088E-001	2.88747E-001	3.57750E+000	9	...........
	11	0.16	2.73178E-001	-2.79209E-004	0.00000E+000	-7.62738E-005	-1.68088E-001	2.73250E-001	3.57750E+000	9	...........
	12	0.173333	2.58773E-001	-2.79326E-004	0.00000E+000	-7.22820E-005	-1.68088E-001	2.58840E-001	3.57750E+000	9	...........
	13	0.186667	2.45392E-001	-2.78580E-004	0.00000E+000	-6.83615E-005	-1.68088E-001	2.45450E-001	3.57750E+000	9	...........
	14	0.2	2.32944E-001	-2.78973E-004	0.00000E+000	-6.49850E-005	-1.68088E-001	2.33002E-001	3.57750E+000	9	...........
	15	0.213333	2.21336E-001	-2.78014E-004	0.00000E+000	-6.15346E-005	-1.68088E-001	2.21392E-001	3.57750E+000	9	...........
	16	0.226667	2.10537E-001	-2.77702E-004	0.00000E+000	-5.84665E-005	-1.68088E-001	2.10589E-001	3.57750E+000	9	...........
	17	0.24	2.00457E-001	-2.79207E-004	0.00000E+000	-5.59689E-005	-1.68088E-001	2.00507E-001	3.57750E+000	9	...........
	18	0.253333	1.91054E-001	-2.78530E-004	0.00000E+000	-5.32143E-005	-1.68088E-001	1.91101E-001	3.57750E+000	9	...........
	19	0.266667	1.82258E-001	-2.78647E-004	0.00000E+000	-5.07855E-005	-1.68088E-001	1.82298E-001	3.57750E+000	9	...........
	20	0.28	1.73975E-001	-2.79512E-004	0.00000E+000	-4.86280E-005	-1.68088E-001	1.74018E-001	3.57750E+000	9	...........
	21	0.293333	1.66165E-001	-2.79380E-004	0.00000E+000	-4.64232E-005	-1.68088E-001	1.66201E-001	3.57750E+000	9	...........
	22	0.306667	1.58826E-001	-2.78670E-004	0.00000E+000	-4.42599E-005	-1.68088E-001	1.58858E-001	3.57750E+000	9	...........
	23	0.32	1.51907E-001	-2.79199E-004	0.00000E+000	-4.24122E-005	-1.68088E-001	1.51944E-001	3.57750E+000	9	...........
	24	0.333333	1.45362E-001	-2.78731E-004	0.00000E+000	-4.05169E-005	-1.68088E-001	1.45394E-001	3.57750E+000	9	...........
	25	0.346667	1.39127E-001	-2.79973E-004	0.00000E+000	-3.89519E-005	-1.68088E-001	1.39153E-001	3.57750E+000	9	...........
	26	0.36	1.33242E-001	-2.78658E-004	0.00000E+000	-3.71289E-005	-1.68088E-001	1.33271E-001	3.57750E+000	9	...........
	27	0.373333	1.27613E-001	-2.79491E-004	0.00000E+000	-3.56667E-005	-1.68088E-001	1.27645E-001	3.57750E+000	9	...........
	28	0.386667	1.22167E-001	-2.79463E-004	0.00000E+000	-3.41412E-005	-1.68088E-001	1.22192E-001	3.57750E+000	9	...........
	29	0.4	1.16940E-001	-2.78840E-004	0.00000E+000	-3.26074E-005	-1.68088E-001	1.16974E-001	3.57750E+000	9	...........
	30	0.413333	1.11922E-001	-2.77876E-004	0.00000E+000	-3.11004E-005	-1.68088E-001	1.11954E-001	3.57750E+000	9	...........
	31	0.426667	1.07159E-001	-2.77256E-004	0.00000E+000	-2.97105E-005	-1.68088E-001	1.07188E-001	3.57750E+000	9	...........
	32	0.44	1.02580E-001	-2.78842E-004	0.00000E+000	-2.86035E-005	-1.68088E-001	1.02606E-001	3.57750E+000	9	...........
	33	0.453333	9.81597E-002	-2.78369E-004	0.00000E+000	-2.73246E-005	-1.68088E-001	9.81932E-002	3.57750E+000	9	...........
	34	0.466667	9.39002E-002	-2.78734E-004	0.00000E+000	-2.61732E-005	-1.68088E-001	9.39296E-002	3.57750E+000	9	...........
	35	0.48	8.97518E-002	-2.77708E-004	0.00000E+000	-2.49248E-005	-1.68088E-001	8.97806E-002	3.57750E+000	9	...........
	36	0.493333	8.57247E-002	-2.80005E-004	0.00000E+000	-2.40034E-005	-1.68088E-001	8.57480E-002	3.57750E+000	9	...........
	37	0.506667	8.17776E-002	-2.79388E-004	0.00000E+000	-2.28476E-005	-1.68088E-001	8.17980E-002	3.57750E+000	9	...........
	38	0.52	7.79794E-002	-2.78097E-004	0.00000E+000	-2.16858E-005	-1.68088E-001	7.80012E-002	3.57750E+000	9	...........
	39	0.533333	7.43190E-002	-2.78907E-004	0.00000E+000	-2.07281E-005	-1.68088E-001	7.43425E-002	3.57750E+000	9	...........
	40	0.546667	7.07065E-002	-2.78467E-004	0.00000E+000	-1.96894E-005	-1.68088E-001	7.07177E-002	3.57750E+000	9	...........
	41	0.56	6.71323E-002	-2.78592E-004	0.00000E+000	-1.87025E-005	-1.68088E-001	6.71502E-002	3.57750E+000	9	...........
	42	0.573333	6.36676E-002	-2.78046E-004	0.00000E+000	-1.77025E-005	-1.68088E-001	6.36796E-002	3.57750E+000	9	...........
	43	0.586667	6.02837E-002	-2.79205E-004	0.00000E+000	-1.68315E-005	-1.68088E-001	6.02990E-002	3.57750E+000	9	...........
	44	0.6	5.69781E-002	-2.79640E-004	0.00000E+000	-1.59333E-005	-1.68088E-001	5.69897E-002	3.57750E+000	9	...........
	45	0.613333	5.37467E-002	-2.79995E-004	0.00000E+000	-1.50488E-005	-1.68088E-001	5.37620E-002	3.57750E+000	9	...........
	46	0.626667	5.05690E-002	-2.78830E-004	0.00000E+000	-1.41002E-005	-1.68088E-001	5.05844E-002	3.57750E+000	9	...........
	47	0.64	4.74523E-002	-2.78319E-004	0.00000E+000	-1.32068E-005	-1.68088E-001	4.74679E-002	3.57750E+000	9	...........
	48	0.653333	4.43385E-002	-2.79387E-004	0.00000E+000	-1.23876E-005	-1.68088E-001	4.43481E-002	3.57750E+000	9	...........
	49	0.666667	4.13052E-002	-2.78307E-004	0.00000E+000	-1.14955E-005	-1.68088E-001	4.13145E-002	3.57750E+000	9	...........
	50	0.68	3.83401E-002	-2.79329E-004	0.00000E+000	-1.07095E-005	-1.68088E-001	3.83497E-002	3.57750E+000	9	...........
	51	0.693333	3.54801E-002	-2.77779E-004	0.00000E+000	-9.85562E-006	-1.68088E-001	3.54844E-002	3.57750E+000	9	...........
	52	0.706667	3.26522E-002	-2.77826E-004	0.00000E+000	-9.07162E-006	-1.68088E-001	3.26574E-002	3.57750E+000	9	...........
	53	0.72	2.98300E-002	-2.78806E-004	0.00000E+000	-8.31679E-006	-1.68088E-001	2.98320E-002	3.57750E+000	9	...........
	54	0.733333	2.71218E-002	-2.78175E-004	0.00000E+000	-7.54461E-006	-1.68088E-001	2.71278E-002	3.57750E+000	9	...........
	55	0.746667	2.44398E-002	-2.79471E-004	0.00000E+000	-6.83020E-006	-1.68088E-001	2.44404E-002	3.57750E+000	9	...........
	56	0.76	2.17222E-002	-2.79762E-004	0.00000E+000	-6.07703E-006	-1.68088E-001	2.17165E-002	3.57750E+000	9	...........
	57	0.773333	1.90913E-002	-2.78771E-004	0.00000E+000	-5.32209E-006	-1.68088E-001	1.90891E-002	3.57750E+000	9	...........
	58	0.786667	1.65227E-002	-2.78425E-004	0.00000E+000	-4.60032E-006	-1.68088E-001	1.65131E-002	3.57750E+000	9	...........
	59	0.8	1.39557E-002	-2.79196E-004	0.00000E+000	-3.89639E-006	-1.68088E-001	1.39452E-002	3.57750E+000	9	...........
	60	0.813333	1.14717E-002	-2.79438E-004	0.00000E+000	-3.20563E-006	-1.68088E-001	1.14625E-002	3.57750E+000	9	...........
	61	0.826667	8.99621E-003	-2.79492E-004	0.00000E+000	-2.51437E-006	-1.68088E-001	8.98827E-003	3.57750E+000	9	...........
	62	0.84	6.52650E-003	-2.79448E-004	0.00000E+000	-1.82382E-006	-1.68088E-001	6.51386E-003	3.57750E+000	9	...........
	63	0.853333	4.04917E-003	-2.78510E-004	0.00000E+000	-1.12773E-006	-1.68088E-001	4.03370E-003	3.57847E+000	9	...........
	64	0.866667	1.60929E-003	-2.78817E-004	0.00000E+000	-4.48697E-007	-1.68088E-001	1.59417E-003	3.57880E+000	9	...........
	65	0.87	1.11188E-004	-2.78506E-004	0.00000E+000	-3.09666E-008	-1.68088E-001	9.06052E-005	3.57880E+000	9	...........
STARTTIMEOFFSET	QUANT	1279.114	Start Time Offset (s)
