EXPLAIN
TAG	PWR800_DISCHARGE
TITLE	LABEL	PWR Cyclic Charge Discharge (Cell) - Discharge Step	Test &Identifier
DATE	LABEL	7-7-2017	Date
TIME	LABEL	15:48:37	Time
NOTES	NOTES	3	&Notes...
	supercap test cell
	2.8mg
	6M KOH
PSTAT	PSTAT	IFC5000-01520	Potentiostat
CAPACITY	QUANT	1.00000E-003	Capacity (A-hr)
CELLTYPE	SELECTOR	1	&Cell Type
WORKINGCONNECTION	SELECTOR	0	&Working Lead
MAXDISCHARGETIME	VARIABLEANDUNITS	1.00000E+002	s	1.00000E+002	second(s)	Max &Discharge Time
DISCHARGEMODE	MULTIPARAM	0	2.80000E-004	&Discharge Mode	Constant Current	Amp(s)
SAMPLETIME	QUANT	1.00000E-002	Sa&mple Period (s)
DISCHARGESTOPAT1	MULTIPARAM	3	0.00000E+000	Discharge Stop At &1	Voltage < Limit	V
DISCHARGESTOPAT2	MULTIPARAM	0	0.00000E+000	Discharge Stop At &2	None	N/A
AESBHCSELECTOR	TOGGLE	F	Save Both Half Cells
IRCOMP	TOGGLE	F	IR &Measure
EOC	QUANT	0	Open Circuit (V)
SEQUENCER	TOGGLE	TRUE	Run as Sequence
PSTATMODEL	IQUANT	53	Pstat Model
PSTATSECTION	LABEL	IFC5000-01520	Pstat Section
PSTATSERIALNO	LABEL	01520	Pstat Serial Number
CTRLMODE	IQUANT	0	Control Mode
ELECTROMETER	IQUANT	1	RE=0 or CS=1
IESTAB	IQUANT	0	I/E Stability
CASPEED	IQUANT	4	Control Amp Speed
CONVENTION	IQUANT	1	Current Convention
ICHRANGE	IQUANT	2	Ich Range
ICHRANGEMODE	TOGGLE	T	Ich Auto Range
ICHOFFSETENABLE	TOGGLE	F	Ich Offset Enable
ICHOFFSET	QUANT	0	Ich Offset (V)
ICHFILTER	IQUANT	1	Ich Filter
VCHRANGE	IQUANT	2	Vch Range
VCHRANGEMODE	TOGGLE	T	Vch Auto Range
VCHOFFSETENABLE	TOGGLE	F	Vch Offset Enable
VCHOFFSET	QUANT	0	Vch Offset (V)
VCHFILTER	IQUANT	1	Vch Filter
IERANGELOWERLIMIT	IQUANT	9	I/E Range Lower Limit
IERANGEMODE	TOGGLE	F	I/E AutoRange
IERANGE	IQUANT	9	I/E Range
ACHSELECT	IQUANT	1	Ach Select
ACHRANGE	IQUANT	2	Ach Range
ACHOFFSETENABLE	TOGGLE	F	Ach Offset Enable
ACHOFFSET	QUANT	0	Ach Offset (V)
ACHFILTER	IQUANT	1	Ach Filter
CABLEID	IQUANT	14	Cable ID
DCCALDATE	LABEL	5-7-2017	DC Calibration Date
ACCALDATE	LABEL	12/3/2015	AC Calibration Date
FRAMEWORKVERSION	QUANT	7.01	Framework Version
INSTRUMENTVERSION	LABEL	4.00	Instrument Version
CURVE	TABLE	94
	Pt	T	Vf	Im	Vu	Pwr	Sig	Ach	Temp	IERange	Over
	#	s	V	A	V	W	V	V	deg C	#	bits
	0	0.013333	5.48859E-001	-2.78570E-004	0.00000E+000	-1.52896E-004	-1.68088E-001	5.49110E-001	3.57820E+000	9	...........
	1	0.026667	5.18556E-001	-2.79026E-004	0.00000E+000	-1.44691E-004	-1.68088E-001	5.18819E-001	3.57820E+000	9	...........
	2	0.04	4.91119E-001	-2.78835E-004	0.00000E+000	-1.36941E-004	-1.68088E-001	4.91367E-001	3.57820E+000	9	...........
	3	0.053333	4.66257E-001	-2.78873E-004	0.00000E+000	-1.30026E-004	-1.68088E-001	4.66373E-001	3.57820E+000	9	...........
	4	0.066667	4.42991E-001	-2.79574E-004	0.00000E+000	-1.23849E-004	-1.68088E-001	4.43099E-001	3.57820E+000	9	...........
	5	0.08	4.21429E-001	-2.79174E-004	0.00000E+000	-1.17652E-004	-1.68088E-001	4.21538E-001	3.57820E+000	9	...........
	6	0.093333	4.01429E-001	-2.78881E-004	0.00000E+000	-1.11951E-004	-1.68088E-001	4.01523E-001	3.57820E+000	9	...........
	7	0.106667	3.82883E-001	-2.79331E-004	0.00000E+000	-1.06951E-004	-1.68088E-001	3.82971E-001	3.57820E+000	9	...........
	8	0.12	3.65655E-001	-2.79258E-004	0.00000E+000	-1.02112E-004	-1.68088E-001	3.65739E-001	3.57820E+000	9	...........
	9	0.133333	3.49674E-001	-2.79246E-004	0.00000E+000	-9.76449E-005	-1.68088E-001	3.49760E-001	3.57820E+000	9	...........
	10	0.146667	3.34813E-001	-2.79255E-004	0.00000E+000	-9.34982E-005	-1.68088E-001	3.34893E-001	3.57820E+000	9	...........
	11	0.16	3.21022E-001	-2.79350E-004	0.00000E+000	-8.96774E-005	-1.68088E-001	3.21094E-001	3.57820E+000	9	...........
	12	0.173333	3.08162E-001	-2.79643E-004	0.00000E+000	-8.61754E-005	-1.68088E-001	3.08239E-001	3.57820E+000	9	...........
	13	0.186667	2.96198E-001	-2.78387E-004	0.00000E+000	-8.24579E-005	-1.68088E-001	2.96273E-001	3.57794E+000	9	...........
	14	0.2	2.85030E-001	-2.78989E-004	0.00000E+000	-7.95202E-005	-1.68088E-001	2.85097E-001	3.57790E+000	9	...........
	15	0.213333	2.74572E-001	-2.79365E-004	0.00000E+000	-7.67058E-005	-1.68088E-001	2.74645E-001	3.57790E+000	9	...........
	16	0.226667	2.64755E-001	-2.79611E-004	0.00000E+000	-7.40283E-005	-1.68088E-001	2.64826E-001	3.57790E+000	9	...........
	17	0.24	2.55628E-001	-2.78007E-004	0.00000E+000	-7.10664E-005	-1.68088E-001	2.55694E-001	3.57790E+000	9	...........
	18	0.253333	2.47015E-001	-2.78770E-004	0.00000E+000	-6.88603E-005	-1.68088E-001	2.47075E-001	3.57790E+000	9	...........
	19	0.266667	2.38926E-001	-2.79145E-004	0.00000E+000	-6.66951E-005	-1.68088E-001	2.38980E-001	3.57790E+000	9	...........
	20	0.28	2.31300E-001	-2.78550E-004	0.00000E+000	-6.44285E-005	-1.68088E-001	2.31358E-001	3.57790E+000	9	...........
	21	0.293333	2.24063E-001	-2.79322E-004	0.00000E+000	-6.25856E-005	-1.68088E-001	2.24118E-001	3.57790E+000	9	...........
	22	0.306667	2.17224E-001	-2.79612E-004	0.00000E+000	-6.07383E-005	-1.68088E-001	2.17278E-001	3.57790E+000	9	...........
	23	0.32	2.10738E-001	-2.79281E-004	0.00000E+000	-5.88552E-005	-1.68088E-001	2.10794E-001	3.57790E+000	9	...........
	24	0.333333	2.04514E-001	-2.78484E-004	0.00000E+000	-5.69538E-005	-1.68088E-001	2.04569E-001	3.57790E+000	9	...........
	25	0.346667	1.98619E-001	-2.79070E-004	0.00000E+000	-5.54285E-005	-1.68088E-001	1.98664E-001	3.57790E+000	9	...........
	26	0.36	1.93006E-001	-2.78438E-004	0.00000E+000	-5.37402E-005	-1.68088E-001	1.93055E-001	3.57790E+000	9	...........
	27	0.373333	1.87584E-001	-2.78934E-004	0.00000E+000	-5.23236E-005	-1.68088E-001	1.87631E-001	3.57790E+000	9	...........
	28	0.386667	1.82366E-001	-2.78805E-004	0.00000E+000	-5.08447E-005	-1.68088E-001	1.82413E-001	3.57790E+000	9	...........
	29	0.4	1.77407E-001	-2.78987E-004	0.00000E+000	-4.94944E-005	-1.68088E-001	1.77454E-001	3.57790E+000	9	...........
	30	0.413333	1.72626E-001	-2.79103E-004	0.00000E+000	-4.81806E-005	-1.68088E-001	1.72672E-001	3.57790E+000	9	...........
	31	0.426667	1.67988E-001	-2.79317E-004	0.00000E+000	-4.69218E-005	-1.68088E-001	1.68033E-001	3.57790E+000	9	...........
	32	0.44	1.63536E-001	-2.79285E-004	0.00000E+000	-4.56732E-005	-1.68088E-001	1.63575E-001	3.57790E+000	9	...........
	33	0.453333	1.59201E-001	-2.79145E-004	0.00000E+000	-4.44401E-005	-1.68088E-001	1.59242E-001	3.57790E+000	9	...........
	34	0.466667	1.55004E-001	-2.79029E-004	0.00000E+000	-4.32508E-005	-1.68088E-001	1.55039E-001	3.57790E+000	9	...........
	35	0.48	1.50920E-001	-2.78771E-004	0.00000E+000	-4.20722E-005	-1.68088E-001	1.50955E-001	3.57790E+000	9	...........
	36	0.493333	1.46968E-001	-2.78854E-004	0.00000E+000	-4.09827E-005	-1.68088E-001	1.46999E-001	3.57790E+000	9	...........
	37	0.506667	1.43090E-001	-2.79273E-004	0.00000E+000	-3.99612E-005	-1.68088E-001	1.43127E-001	3.57790E+000	9	...........
	38	0.52	1.39314E-001	-2.79314E-004	0.00000E+000	-3.89124E-005	-1.68088E-001	1.39349E-001	3.57790E+000	9	...........
	39	0.533333	1.35639E-001	-2.80013E-004	0.00000E+000	-3.79807E-005	-1.68088E-001	1.35666E-001	3.57790E+000	9	...........
	40	0.546667	1.32014E-001	-2.79658E-004	0.00000E+000	-3.69188E-005	-1.68088E-001	1.32044E-001	3.57790E+000	9	...........
	41	0.56	1.28513E-001	-2.78679E-004	0.00000E+000	-3.58140E-005	-1.68088E-001	1.28542E-001	3.57790E+000	9	...........
	42	0.573333	1.25125E-001	-2.79102E-004	0.00000E+000	-3.49226E-005	-1.68088E-001	1.25148E-001	3.57790E+000	9	...........
	43	0.586667	1.21777E-001	-2.78696E-004	0.00000E+000	-3.39388E-005	-1.68088E-001	1.21807E-001	3.57790E+000	9	...........
	44	0.6	1.18527E-001	-2.79151E-004	0.00000E+000	-3.30870E-005	-1.68088E-001	1.18555E-001	3.57790E+000	9	...........
	45	0.613333	1.15310E-001	-2.78311E-004	0.00000E+000	-3.20922E-005	-1.68088E-001	1.15337E-001	3.57790E+000	9	...........
	46	0.626667	1.12155E-001	-2.79632E-004	0.00000E+000	-3.13621E-005	-1.68088E-001	1.12186E-001	3.57790E+000	9	...........
	47	0.64	1.09061E-001	-2.78643E-004	0.00000E+000	-3.03889E-005	-1.68088E-001	1.09091E-001	3.57790E+000	9	...........
	48	0.653333	1.06014E-001	-2.78493E-004	0.00000E+000	-2.95242E-005	-1.68088E-001	1.06037E-001	3.57790E+000	9	...........
	49	0.666667	1.03042E-001	-2.78965E-004	0.00000E+000	-2.87451E-005	-1.68088E-001	1.03067E-001	3.57790E+000	9	...........
	50	0.68	1.00123E-001	-2.79662E-004	0.00000E+000	-2.80006E-005	-1.68088E-001	1.00149E-001	3.57790E+000	9	...........
	51	0.693333	9.72477E-002	-2.79466E-004	0.00000E+000	-2.71774E-005	-1.68088E-001	9.72690E-002	3.57790E+000	9	...........
	52	0.706667	9.43852E-002	-2.79611E-004	0.00000E+000	-2.63911E-005	-1.68088E-001	9.44095E-002	3.57790E+000	9	...........
	53	0.72	9.15428E-002	-2.79051E-004	0.00000E+000	-2.55451E-005	-1.68088E-001	9.15660E-002	3.57790E+000	9	...........
	54	0.733333	8.87661E-002	-2.79003E-004	0.00000E+000	-2.47660E-005	-1.68088E-001	8.87885E-002	3.57790E+000	9	...........
	55	0.746667	8.60218E-002	-2.79425E-004	0.00000E+000	-2.40366E-005	-1.68088E-001	8.60458E-002	3.57790E+000	9	...........
	56	0.76	8.33346E-002	-2.79145E-004	0.00000E+000	-2.32624E-005	-1.68088E-001	8.33525E-002	3.57790E+000	9	...........
	57	0.773333	8.06764E-002	-2.78628E-004	0.00000E+000	-2.24787E-005	-1.68088E-001	8.06942E-002	3.57790E+000	9	...........
	58	0.786667	7.80050E-002	-2.79002E-004	0.00000E+000	-2.17636E-005	-1.68088E-001	7.80283E-002	3.57790E+000	9	...........
	59	0.8	7.54008E-002	-2.78942E-004	0.00000E+000	-2.10324E-005	-1.68088E-001	7.54157E-002	3.57790E+000	9	...........
	60	0.813333	7.28437E-002	-2.79921E-004	0.00000E+000	-2.03905E-005	-1.68088E-001	7.28511E-002	3.57790E+000	9	...........
	61	0.826667	7.02961E-002	-2.78775E-004	0.00000E+000	-1.95968E-005	-1.68088E-001	7.03098E-002	3.57790E+000	9	...........
	62	0.84	6.77886E-002	-2.79463E-004	0.00000E+000	-1.89444E-005	-1.68088E-001	6.77970E-002	3.57790E+000	9	...........
	63	0.853333	6.53043E-002	-2.78669E-004	0.00000E+000	-1.81983E-005	-1.68088E-001	6.53133E-002	3.57790E+000	9	...........
	64	0.866667	6.28529E-002	-2.79370E-004	0.00000E+000	-1.75592E-005	-1.68088E-001	6.28596E-002	3.57790E+000	9	...........
	65	0.88	6.04062E-002	-2.79498E-004	0.00000E+000	-1.68834E-005	-1.68088E-001	6.04133E-002	3.57790E+000	9	...........
	66	0.893333	5.79867E-002	-2.79304E-004	0.00000E+000	-1.61959E-005	-1.68088E-001	5.79985E-002	3.57790E+000	9	...........
	67	0.906667	5.55985E-002	-2.78959E-004	0.00000E+000	-1.55097E-005	-1.68088E-001	5.56049E-002	3.57790E+000	9	...........
	68	0.92	5.32317E-002	-2.79556E-004	0.00000E+000	-1.48813E-005	-1.68088E-001	5.32347E-002	3.57790E+000	9	...........
	69	0.933333	5.08736E-002	-2.78249E-004	0.00000E+000	-1.41555E-005	-1.68088E-001	5.08786E-002	3.57790E+000	9	...........
	70	0.946667	4.85243E-002	-2.79120E-004	0.00000E+000	-1.35441E-005	-1.68088E-001	4.85272E-002	3.57790E+000	9	...........
	71	0.96	4.62103E-002	-2.79104E-004	0.00000E+000	-1.28975E-005	-1.68088E-001	4.62153E-002	3.57790E+000	9	...........
	72	0.97333	4.39416E-002	-2.79398E-004	0.00000E+000	-1.22772E-005	-1.68088E-001	4.39498E-002	3.57790E+000	9	...........
	73	0.98667	4.17372E-002	-2.79338E-004	0.00000E+000	-1.16588E-005	-1.68088E-001	4.17436E-002	3.57790E+000	9	...........
	74	1	3.95239E-002	-2.79973E-004	0.00000E+000	-1.10656E-005	-1.68088E-001	3.95261E-002	3.57790E+000	9	...........
	75	1.01333	3.73080E-002	-2.79482E-004	0.00000E+000	-1.04269E-005	-1.68088E-001	3.73119E-002	3.57790E+000	9	...........
	76	1.02667	3.51565E-002	-2.79435E-004	0.00000E+000	-9.82398E-006	-1.68088E-001	3.51604E-002	3.57790E+000	9	...........
	77	1.04	3.29579E-002	-2.78755E-004	0.00000E+000	-9.18720E-006	-1.68088E-001	3.29598E-002	3.57790E+000	9	...........
	78	1.05333	3.07641E-002	-2.78814E-004	0.00000E+000	-8.57744E-006	-1.68088E-001	3.07663E-002	3.57790E+000	9	...........
	79	1.06667	2.86369E-002	-2.79513E-004	0.00000E+000	-8.00439E-006	-1.68088E-001	2.86297E-002	3.57790E+000	9	...........
	80	1.08	2.64621E-002	-2.79044E-004	0.00000E+000	-7.38409E-006	-1.68088E-001	2.64583E-002	3.57790E+000	9	...........
	81	1.09333	2.43467E-002	-2.79379E-004	0.00000E+000	-6.80195E-006	-1.68088E-001	2.43400E-002	3.57790E+000	9	...........
	82	1.10667	2.22387E-002	-2.79581E-004	0.00000E+000	-6.21752E-006	-1.68088E-001	2.22306E-002	3.57790E+000	9	...........
	83	1.12	2.01287E-002	-2.79279E-004	0.00000E+000	-5.62154E-006	-1.68088E-001	2.01236E-002	3.57790E+000	9	...........
	84	1.13333	1.80616E-002	-2.79154E-004	0.00000E+000	-5.04197E-006	-1.68088E-001	1.80543E-002	3.57790E+000	9	...........
	85	1.14667	1.60065E-002	-2.78417E-004	0.00000E+000	-4.45648E-006	-1.68088E-001	1.59930E-002	3.57790E+000	9	...........
	86	1.16	1.40093E-002	-2.78804E-004	0.00000E+000	-3.90584E-006	-1.68088E-001	1.39983E-002	3.57790E+000	9	...........
	87	1.17333	1.20053E-002	-2.79194E-004	0.00000E+000	-3.35180E-006	-1.68088E-001	1.19968E-002	3.57790E+000	9	...........
	88	1.18667	9.99715E-003	-2.79214E-004	0.00000E+000	-2.79134E-006	-1.68088E-001	9.98583E-003	3.57834E+000	9	...........
	89	1.2	8.00912E-003	-2.78320E-004	0.00000E+000	-2.22909E-006	-1.68088E-001	7.98803E-003	3.57840E+000	9	...........
	90	1.21333	6.02481E-003	-2.79174E-004	0.00000E+000	-1.68197E-006	-1.68088E-001	6.00396E-003	3.57840E+000	9	...........
	91	1.22667	4.07268E-003	-2.78929E-004	0.00000E+000	-1.13599E-006	-1.68088E-001	4.05957E-003	3.57840E+000	9	...........
	92	1.24	2.20633E-003	-2.79483E-004	0.00000E+000	-6.16634E-007	-1.68088E-001	2.18922E-003	3.57840E+000	9	...........
	93	1.25	5.65205E-004	-2.79742E-004	0.00000E+000	-1.58112E-007	-1.68088E-001	5.50159E-004	3.57840E+000	9	...........
STARTTIMEOFFSET	QUANT	609.4668	Start Time Offset (s)
