EXPLAIN
TAG	PWR800_DISCHARGE
TITLE	LABEL	PWR Cyclic Charge Discharge (Cell) - Discharge Step	Test &Identifier
DATE	LABEL	7-7-2017	Date
TIME	LABEL	15:52:41	Time
NOTES	NOTES	3	&Notes...
	supercap test cell
	2.8mg
	6M KOH
PSTAT	PSTAT	IFC5000-01520	Potentiostat
CAPACITY	QUANT	1.00000E-003	Capacity (A-hr)
CELLTYPE	SELECTOR	1	&Cell Type
WORKINGCONNECTION	SELECTOR	0	&Working Lead
MAXDISCHARGETIME	VARIABLEANDUNITS	1.00000E+002	s	1.00000E+002	second(s)	Max &Discharge Time
DISCHARGEMODE	MULTIPARAM	0	2.80000E-004	&Discharge Mode	Constant Current	Amp(s)
SAMPLETIME	QUANT	1.00000E-002	Sa&mple Period (s)
DISCHARGESTOPAT1	MULTIPARAM	3	0.00000E+000	Discharge Stop At &1	Voltage < Limit	V
DISCHARGESTOPAT2	MULTIPARAM	0	0.00000E+000	Discharge Stop At &2	None	N/A
AESBHCSELECTOR	TOGGLE	F	Save Both Half Cells
IRCOMP	TOGGLE	F	IR &Measure
EOC	QUANT	0	Open Circuit (V)
SEQUENCER	TOGGLE	TRUE	Run as Sequence
PSTATMODEL	IQUANT	53	Pstat Model
PSTATSECTION	LABEL	IFC5000-01520	Pstat Section
PSTATSERIALNO	LABEL	01520	Pstat Serial Number
CTRLMODE	IQUANT	0	Control Mode
ELECTROMETER	IQUANT	1	RE=0 or CS=1
IESTAB	IQUANT	0	I/E Stability
CASPEED	IQUANT	4	Control Amp Speed
CONVENTION	IQUANT	1	Current Convention
ICHRANGE	IQUANT	2	Ich Range
ICHRANGEMODE	TOGGLE	T	Ich Auto Range
ICHOFFSETENABLE	TOGGLE	F	Ich Offset Enable
ICHOFFSET	QUANT	0	Ich Offset (V)
ICHFILTER	IQUANT	1	Ich Filter
VCHRANGE	IQUANT	2	Vch Range
VCHRANGEMODE	TOGGLE	T	Vch Auto Range
VCHOFFSETENABLE	TOGGLE	F	Vch Offset Enable
VCHOFFSET	QUANT	0	Vch Offset (V)
VCHFILTER	IQUANT	1	Vch Filter
IERANGELOWERLIMIT	IQUANT	9	I/E Range Lower Limit
IERANGEMODE	TOGGLE	F	I/E AutoRange
IERANGE	IQUANT	9	I/E Range
ACHSELECT	IQUANT	1	Ach Select
ACHRANGE	IQUANT	2	Ach Range
ACHOFFSETENABLE	TOGGLE	F	Ach Offset Enable
ACHOFFSET	QUANT	0	Ach Offset (V)
ACHFILTER	IQUANT	1	Ach Filter
CABLEID	IQUANT	14	Cable ID
DCCALDATE	LABEL	5-7-2017	DC Calibration Date
ACCALDATE	LABEL	12/3/2015	AC Calibration Date
FRAMEWORKVERSION	QUANT	7.01	Framework Version
INSTRUMENTVERSION	LABEL	4.00	Instrument Version
CURVE	TABLE	84
	Pt	T	Vf	Im	Vu	Pwr	Sig	Ach	Temp	IERange	Over
	#	s	V	A	V	W	V	V	deg C	#	bits
	0	0.013333	5.39840E-001	-2.79017E-004	0.00000E+000	-1.50624E-004	-1.68088E-001	5.40095E-001	3.57780E+000	9	...........
	1	0.026667	5.08716E-001	-2.79083E-004	0.00000E+000	-1.41974E-004	-1.68088E-001	5.08978E-001	3.57780E+000	9	...........
	2	0.04	4.80698E-001	-2.79664E-004	0.00000E+000	-1.34434E-004	-1.68088E-001	4.80835E-001	3.57780E+000	9	...........
	3	0.053333	4.54815E-001	-2.78222E-004	0.00000E+000	-1.26539E-004	-1.68088E-001	4.54929E-001	3.57780E+000	9	...........
	4	0.066667	4.30765E-001	-2.78793E-004	0.00000E+000	-1.20094E-004	-1.68088E-001	4.30867E-001	3.57780E+000	9	...........
	5	0.08	4.08462E-001	-2.78835E-004	0.00000E+000	-1.13894E-004	-1.68088E-001	4.08556E-001	3.57780E+000	9	...........
	6	0.093333	3.87737E-001	-2.78848E-004	0.00000E+000	-1.08120E-004	-1.68088E-001	3.87831E-001	3.57780E+000	9	...........
	7	0.106667	3.68505E-001	-2.78518E-004	0.00000E+000	-1.02635E-004	-1.68088E-001	3.68590E-001	3.57780E+000	9	...........
	8	0.12	3.50650E-001	-2.78474E-004	0.00000E+000	-9.76468E-005	-1.68088E-001	3.50727E-001	3.57780E+000	9	...........
	9	0.133333	3.34073E-001	-2.79325E-004	0.00000E+000	-9.33149E-005	-1.68088E-001	3.34147E-001	3.57780E+000	9	...........
	10	0.146667	3.18663E-001	-2.79096E-004	0.00000E+000	-8.89375E-005	-1.68088E-001	3.18733E-001	3.57780E+000	9	...........
	11	0.16	3.04329E-001	-2.79303E-004	0.00000E+000	-8.49999E-005	-1.68088E-001	3.04399E-001	3.57780E+000	9	...........
	12	0.173333	2.91033E-001	-2.79264E-004	0.00000E+000	-8.12748E-005	-1.68088E-001	2.91100E-001	3.57780E+000	9	...........
	13	0.186667	2.78628E-001	-2.79034E-004	0.00000E+000	-7.77467E-005	-1.68088E-001	2.78691E-001	3.57780E+000	9	...........
	14	0.2	2.67082E-001	-2.78475E-004	0.00000E+000	-7.43757E-005	-1.68088E-001	2.67144E-001	3.57780E+000	9	...........
	15	0.213333	2.56339E-001	-2.78456E-004	0.00000E+000	-7.13791E-005	-1.68088E-001	2.56398E-001	3.57780E+000	9	...........
	16	0.226667	2.46280E-001	-2.78650E-004	0.00000E+000	-6.86258E-005	-1.68088E-001	2.46336E-001	3.57780E+000	9	...........
	17	0.24	2.36880E-001	-2.79120E-004	0.00000E+000	-6.61180E-005	-1.68088E-001	2.36934E-001	3.57780E+000	9	...........
	18	0.253333	2.28061E-001	-2.78453E-004	0.00000E+000	-6.35042E-005	-1.68088E-001	2.28114E-001	3.57780E+000	9	...........
	19	0.266667	2.19766E-001	-2.78695E-004	0.00000E+000	-6.12476E-005	-1.68088E-001	2.19811E-001	3.57780E+000	9	...........
	20	0.28	2.11924E-001	-2.78691E-004	0.00000E+000	-5.90613E-005	-1.68088E-001	2.11975E-001	3.57780E+000	9	...........
	21	0.293333	2.04527E-001	-2.79040E-004	0.00000E+000	-5.70710E-005	-1.68088E-001	2.04572E-001	3.57780E+000	9	...........
	22	0.306667	1.97534E-001	-2.78443E-004	0.00000E+000	-5.50020E-005	-1.68088E-001	1.97582E-001	3.57780E+000	9	...........
	23	0.32	1.90895E-001	-2.79132E-004	0.00000E+000	-5.32851E-005	-1.68088E-001	1.90940E-001	3.57780E+000	9	...........
	24	0.333333	1.84553E-001	-2.78918E-004	0.00000E+000	-5.14752E-005	-1.68088E-001	1.84599E-001	3.57780E+000	9	...........
	25	0.346667	1.78521E-001	-2.79217E-004	0.00000E+000	-4.98461E-005	-1.68088E-001	1.78563E-001	3.57780E+000	9	...........
	26	0.36	1.72791E-001	-2.79497E-004	0.00000E+000	-4.82947E-005	-1.68088E-001	1.72831E-001	3.57780E+000	9	...........
	27	0.373333	1.67347E-001	-2.78731E-004	0.00000E+000	-4.66448E-005	-1.68088E-001	1.67387E-001	3.57780E+000	9	...........
	28	0.386667	1.62133E-001	-2.79347E-004	0.00000E+000	-4.52915E-005	-1.68088E-001	1.62168E-001	3.57780E+000	9	...........
	29	0.4	1.57100E-001	-2.78287E-004	0.00000E+000	-4.37190E-005	-1.68088E-001	1.57135E-001	3.57780E+000	9	...........
	30	0.413333	1.52238E-001	-2.78107E-004	0.00000E+000	-4.23385E-005	-1.68088E-001	1.52271E-001	3.57780E+000	9	...........
	31	0.426667	1.47594E-001	-2.78801E-004	0.00000E+000	-4.11494E-005	-1.68088E-001	1.47626E-001	3.57780E+000	9	...........
	32	0.44	1.43095E-001	-2.78694E-004	0.00000E+000	-3.98796E-005	-1.68088E-001	1.43128E-001	3.57780E+000	9	...........
	33	0.453333	1.38726E-001	-2.79233E-004	0.00000E+000	-3.87370E-005	-1.68088E-001	1.38762E-001	3.57780E+000	9	...........
	34	0.466667	1.34475E-001	-2.79360E-004	0.00000E+000	-3.75671E-005	-1.68088E-001	1.34505E-001	3.57780E+000	9	...........
	35	0.48	1.30360E-001	-2.78824E-004	0.00000E+000	-3.63474E-005	-1.68088E-001	1.30388E-001	3.57780E+000	9	...........
	36	0.493333	1.26364E-001	-2.78266E-004	0.00000E+000	-3.51629E-005	-1.68088E-001	1.26389E-001	3.57780E+000	9	...........
	37	0.506667	1.22496E-001	-2.78394E-004	0.00000E+000	-3.41021E-005	-1.68088E-001	1.22519E-001	3.57780E+000	9	...........
	38	0.52	1.18734E-001	-2.79508E-004	0.00000E+000	-3.31872E-005	-1.68088E-001	1.18764E-001	3.57780E+000	9	...........
	39	0.533333	1.15042E-001	-2.78744E-004	0.00000E+000	-3.20673E-005	-1.68088E-001	1.15068E-001	3.57780E+000	9	...........
	40	0.546667	1.11458E-001	-2.78555E-004	0.00000E+000	-3.10471E-005	-1.68088E-001	1.11480E-001	3.57780E+000	9	...........
	41	0.56	1.07941E-001	-2.78661E-004	0.00000E+000	-3.00790E-005	-1.68088E-001	1.07964E-001	3.57780E+000	9	...........
	42	0.573333	1.04482E-001	-2.78808E-004	0.00000E+000	-2.91304E-005	-1.68088E-001	1.04507E-001	3.57780E+000	9	...........
	43	0.586667	1.01078E-001	-2.78069E-004	0.00000E+000	-2.81066E-005	-1.68088E-001	1.01101E-001	3.57780E+000	9	...........
	44	0.6	9.77520E-002	-2.79483E-004	0.00000E+000	-2.73200E-005	-1.68088E-001	9.77724E-002	3.57780E+000	9	...........
	45	0.613333	9.45413E-002	-2.79202E-004	0.00000E+000	-2.63961E-005	-1.68088E-001	9.45593E-002	3.57780E+000	9	...........
	46	0.626667	9.14339E-002	-2.79407E-004	0.00000E+000	-2.55473E-005	-1.68088E-001	9.14507E-002	3.57780E+000	9	...........
	47	0.64	8.83716E-002	-2.78930E-004	0.00000E+000	-2.46495E-005	-1.68088E-001	8.83885E-002	3.57780E+000	9	...........
	48	0.653333	8.53621E-002	-2.78623E-004	0.00000E+000	-2.37838E-005	-1.68088E-001	8.53815E-002	3.57780E+000	9	...........
	49	0.666667	8.23810E-002	-2.78650E-004	0.00000E+000	-2.29554E-005	-1.68088E-001	8.23937E-002	3.57780E+000	9	...........
	50	0.68	7.94213E-002	-2.79100E-004	0.00000E+000	-2.21665E-005	-1.68088E-001	7.94326E-002	3.57780E+000	9	...........
	51	0.693333	7.64869E-002	-2.77938E-004	0.00000E+000	-2.12586E-005	-1.68088E-001	7.65085E-002	3.57780E+000	9	...........
	52	0.706667	7.36217E-002	-2.79552E-004	0.00000E+000	-2.05811E-005	-1.68088E-001	7.36303E-002	3.57780E+000	9	...........
	53	0.72	7.07679E-002	-2.78915E-004	0.00000E+000	-1.97382E-005	-1.68088E-001	7.07785E-002	3.57780E+000	9	...........
	54	0.733333	6.79886E-002	-2.79080E-004	0.00000E+000	-1.89743E-005	-1.68088E-001	6.79999E-002	3.57780E+000	9	...........
	55	0.746667	6.52554E-002	-2.78534E-004	0.00000E+000	-1.81759E-005	-1.68088E-001	6.52663E-002	3.57780E+000	9	...........
	56	0.76	6.25659E-002	-2.79512E-004	0.00000E+000	-1.74879E-005	-1.68088E-001	6.25747E-002	3.57780E+000	9	...........
	57	0.773333	5.99243E-002	-2.78731E-004	0.00000E+000	-1.67028E-005	-1.68088E-001	5.99321E-002	3.57780E+000	9	...........
	58	0.786667	5.72957E-002	-2.78833E-004	0.00000E+000	-1.59759E-005	-1.68088E-001	5.72990E-002	3.57780E+000	9	...........
	59	0.8	5.46899E-002	-2.79209E-004	0.00000E+000	-1.52699E-005	-1.68088E-001	5.46982E-002	3.57780E+000	9	...........
	60	0.813333	5.21291E-002	-2.79273E-004	0.00000E+000	-1.45582E-005	-1.68088E-001	5.21385E-002	3.57818E+000	9	...........
	61	0.826667	4.95787E-002	-2.79165E-004	0.00000E+000	-1.38406E-005	-1.68088E-001	4.95803E-002	3.57930E+000	9	...........
	62	0.84	4.70801E-002	-2.78273E-004	0.00000E+000	-1.31011E-005	-1.68088E-001	4.70874E-002	3.57930E+000	9	...........
	63	0.853333	4.45888E-002	-2.79326E-004	0.00000E+000	-1.24548E-005	-1.68088E-001	4.45948E-002	3.57930E+000	9	...........
	64	0.866667	4.21383E-002	-2.79372E-004	0.00000E+000	-1.17723E-005	-1.68088E-001	4.21427E-002	3.57930E+000	9	...........
	65	0.88	3.97002E-002	-2.79434E-004	0.00000E+000	-1.10936E-005	-1.68088E-001	3.97078E-002	3.57930E+000	9	...........
	66	0.893333	3.73338E-002	-2.78095E-004	0.00000E+000	-1.03823E-005	-1.68088E-001	3.73379E-002	3.57930E+000	9	...........
	67	0.906667	3.49563E-002	-2.78722E-004	0.00000E+000	-9.74308E-006	-1.68088E-001	3.49559E-002	3.57930E+000	9	...........
	68	0.92	3.25793E-002	-2.78460E-004	0.00000E+000	-9.07204E-006	-1.68088E-001	3.25784E-002	3.57930E+000	9	...........
	69	0.933333	3.01943E-002	-2.78713E-004	0.00000E+000	-8.41557E-006	-1.68088E-001	3.01910E-002	3.57930E+000	9	...........
	70	0.946667	2.78701E-002	-2.79382E-004	0.00000E+000	-7.78641E-006	-1.68088E-001	2.78720E-002	3.57930E+000	9	...........
	71	0.96	2.56029E-002	-2.78924E-004	0.00000E+000	-7.14125E-006	-1.68088E-001	2.55983E-002	3.57930E+000	9	...........
	72	0.97333	2.32886E-002	-2.80125E-004	0.00000E+000	-6.52372E-006	-1.68088E-001	2.32800E-002	3.57930E+000	9	...........
	73	0.98667	2.10111E-002	-2.77592E-004	0.00000E+000	-5.83252E-006	-1.68088E-001	2.10054E-002	3.57930E+000	9	...........
	74	1	1.87344E-002	-2.79832E-004	0.00000E+000	-5.24250E-006	-1.68088E-001	1.87255E-002	3.57930E+000	9	...........
	75	1.01333	1.65575E-002	-2.78821E-004	0.00000E+000	-4.61659E-006	-1.68088E-001	1.65476E-002	3.57930E+000	9	...........
	76	1.02667	1.43406E-002	-2.78603E-004	0.00000E+000	-3.99534E-006	-1.68088E-001	1.43297E-002	3.57930E+000	9	...........
	77	1.04	1.21696E-002	-2.78801E-004	0.00000E+000	-3.39290E-006	-1.68088E-001	1.21622E-002	3.57930E+000	9	...........
	78	1.05333	1.00586E-002	-2.78968E-004	0.00000E+000	-2.80602E-006	-1.68088E-001	1.00425E-002	3.57930E+000	9	...........
	79	1.06667	7.96164E-003	-2.78647E-004	0.00000E+000	-2.21849E-006	-1.68088E-001	7.94683E-003	3.57930E+000	9	...........
	80	1.08	5.86515E-003	-2.79132E-004	0.00000E+000	-1.63715E-006	-1.68088E-001	5.84904E-003	3.57930E+000	9	...........
	81	1.09333	3.76033E-003	-2.78643E-004	0.00000E+000	-1.04779E-006	-1.68088E-001	3.74261E-003	3.57930E+000	9	...........
	82	1.10667	1.64194E-003	-2.80066E-004	0.00000E+000	-4.59851E-007	-1.68088E-001	1.61906E-003	3.57930E+000	9	...........
	83	1.11167	1.73290E-004	-2.80120E-004	0.00000E+000	-4.85420E-008	-1.68088E-001	1.53741E-004	3.57930E+000	9	...........
STARTTIMEOFFSET	QUANT	792.8851	Start Time Offset (s)
