EXPLAIN
TAG	PWR800_DISCHARGE
TITLE	LABEL	PWR Cyclic Charge Discharge (Cell) - Discharge Step	Test &Identifier
DATE	LABEL	7-7-2017	Date
TIME	LABEL	16:21:07	Time
NOTES	NOTES	3	&Notes...
	supercap test cell
	2.8mg
	6M KOH
PSTAT	PSTAT	IFC5000-01520	Potentiostat
CAPACITY	QUANT	1.00000E-003	Capacity (A-hr)
CELLTYPE	SELECTOR	1	&Cell Type
WORKINGCONNECTION	SELECTOR	0	&Working Lead
MAXDISCHARGETIME	VARIABLEANDUNITS	1.00000E+002	s	1.00000E+002	second(s)	Max &Discharge Time
DISCHARGEMODE	MULTIPARAM	0	2.80000E-004	&Discharge Mode	Constant Current	Amp(s)
SAMPLETIME	QUANT	1.00000E-002	Sa&mple Period (s)
DISCHARGESTOPAT1	MULTIPARAM	3	0.00000E+000	Discharge Stop At &1	Voltage < Limit	V
DISCHARGESTOPAT2	MULTIPARAM	0	0.00000E+000	Discharge Stop At &2	None	N/A
AESBHCSELECTOR	TOGGLE	F	Save Both Half Cells
IRCOMP	TOGGLE	F	IR &Measure
EOC	QUANT	0	Open Circuit (V)
SEQUENCER	TOGGLE	TRUE	Run as Sequence
PSTATMODEL	IQUANT	53	Pstat Model
PSTATSECTION	LABEL	IFC5000-01520	Pstat Section
PSTATSERIALNO	LABEL	01520	Pstat Serial Number
CTRLMODE	IQUANT	0	Control Mode
ELECTROMETER	IQUANT	1	RE=0 or CS=1
IESTAB	IQUANT	0	I/E Stability
CASPEED	IQUANT	4	Control Amp Speed
CONVENTION	IQUANT	1	Current Convention
ICHRANGE	IQUANT	2	Ich Range
ICHRANGEMODE	TOGGLE	T	Ich Auto Range
ICHOFFSETENABLE	TOGGLE	F	Ich Offset Enable
ICHOFFSET	QUANT	0	Ich Offset (V)
ICHFILTER	IQUANT	1	Ich Filter
VCHRANGE	IQUANT	2	Vch Range
VCHRANGEMODE	TOGGLE	T	Vch Auto Range
VCHOFFSETENABLE	TOGGLE	F	Vch Offset Enable
VCHOFFSET	QUANT	0	Vch Offset (V)
VCHFILTER	IQUANT	1	Vch Filter
IERANGELOWERLIMIT	IQUANT	9	I/E Range Lower Limit
IERANGEMODE	TOGGLE	F	I/E AutoRange
IERANGE	IQUANT	9	I/E Range
ACHSELECT	IQUANT	1	Ach Select
ACHRANGE	IQUANT	2	Ach Range
ACHOFFSETENABLE	TOGGLE	F	Ach Offset Enable
ACHOFFSET	QUANT	0	Ach Offset (V)
ACHFILTER	IQUANT	1	Ach Filter
CABLEID	IQUANT	14	Cable ID
DCCALDATE	LABEL	5-7-2017	DC Calibration Date
ACCALDATE	LABEL	12/3/2015	AC Calibration Date
FRAMEWORKVERSION	QUANT	7.01	Framework Version
INSTRUMENTVERSION	LABEL	4.00	Instrument Version
CURVE	TABLE	53
	Pt	T	Vf	Im	Vu	Pwr	Sig	Ach	Temp	IERange	Over
	#	s	V	A	V	W	V	V	deg C	#	bits
	0	0.013333	5.15433E-001	-2.78470E-004	0.00000E+000	-1.43532E-004	-1.68088E-001	5.15694E-001	3.57760E+000	9	...........
	1	0.026667	4.81647E-001	-2.79330E-004	0.00000E+000	-1.34538E-004	-1.68088E-001	4.81833E-001	3.57760E+000	9	...........
	2	0.04	4.50616E-001	-2.78993E-004	0.00000E+000	-1.25718E-004	-1.68088E-001	4.50726E-001	3.57760E+000	9	...........
	3	0.053333	4.21642E-001	-2.80091E-004	0.00000E+000	-1.18098E-004	-1.68088E-001	4.21742E-001	3.57760E+000	9	...........
	4	0.066667	3.94600E-001	-2.78964E-004	0.00000E+000	-1.10079E-004	-1.68088E-001	3.94693E-001	3.57760E+000	9	...........
	5	0.08	3.69292E-001	-2.78942E-004	0.00000E+000	-1.03011E-004	-1.68088E-001	3.69373E-001	3.57760E+000	9	...........
	6	0.093333	3.45636E-001	-2.78165E-004	0.00000E+000	-9.61441E-005	-1.68088E-001	3.45711E-001	3.57760E+000	9	...........
	7	0.106667	3.23586E-001	-2.77693E-004	0.00000E+000	-8.98577E-005	-1.68088E-001	3.23665E-001	3.57760E+000	9	...........
	8	0.12	3.03062E-001	-2.78359E-004	0.00000E+000	-8.43601E-005	-1.68088E-001	3.03137E-001	3.57760E+000	9	...........
	9	0.133333	2.83978E-001	-2.78752E-004	0.00000E+000	-7.91595E-005	-1.68088E-001	2.84044E-001	3.57760E+000	9	...........
	10	0.146667	2.66232E-001	-2.79341E-004	0.00000E+000	-7.43695E-005	-1.68088E-001	2.66302E-001	3.57760E+000	9	...........
	11	0.16	2.49758E-001	-2.78740E-004	0.00000E+000	-6.96174E-005	-1.68088E-001	2.49818E-001	3.57760E+000	9	...........
	12	0.173333	2.34480E-001	-2.80442E-004	0.00000E+000	-6.57579E-005	-1.68088E-001	2.34536E-001	3.57760E+000	9	...........
	13	0.186667	2.20294E-001	-2.78241E-004	0.00000E+000	-6.12949E-005	-1.68088E-001	2.20353E-001	3.57760E+000	9	...........
	14	0.2	2.07109E-001	-2.79138E-004	0.00000E+000	-5.78119E-005	-1.68088E-001	2.07157E-001	3.57760E+000	9	...........
	15	0.213333	1.94855E-001	-2.79126E-004	0.00000E+000	-5.43892E-005	-1.68088E-001	1.94901E-001	3.57760E+000	9	...........
	16	0.226667	1.83484E-001	-2.77919E-004	0.00000E+000	-5.09935E-005	-1.68088E-001	1.83524E-001	3.57760E+000	9	...........
	17	0.24	1.72879E-001	-2.79264E-004	0.00000E+000	-4.82788E-005	-1.68088E-001	1.72917E-001	3.57760E+000	9	...........
	18	0.253333	1.63003E-001	-2.78453E-004	0.00000E+000	-4.53888E-005	-1.68088E-001	1.63039E-001	3.57760E+000	9	...........
	19	0.266667	1.53797E-001	-2.77679E-004	0.00000E+000	-4.27063E-005	-1.68088E-001	1.53831E-001	3.57760E+000	9	...........
	20	0.28	1.45116E-001	-2.78642E-004	0.00000E+000	-4.04353E-005	-1.68088E-001	1.45151E-001	3.57760E+000	9	...........
	21	0.293333	1.37014E-001	-2.79074E-004	0.00000E+000	-3.82369E-005	-1.68088E-001	1.37048E-001	3.57760E+000	9	...........
	22	0.306667	1.29382E-001	-2.79360E-004	0.00000E+000	-3.61442E-005	-1.68088E-001	1.29411E-001	3.57760E+000	9	...........
	23	0.32	1.22162E-001	-2.78554E-004	0.00000E+000	-3.40286E-005	-1.68088E-001	1.22191E-001	3.57760E+000	9	...........
	24	0.333333	1.15350E-001	-2.78960E-004	0.00000E+000	-3.21782E-005	-1.68088E-001	1.15375E-001	3.57760E+000	9	...........
	25	0.346667	1.08943E-001	-2.79122E-004	0.00000E+000	-3.04083E-005	-1.68088E-001	1.08967E-001	3.57760E+000	9	...........
	26	0.36	1.02831E-001	-2.78284E-004	0.00000E+000	-2.86162E-005	-1.68088E-001	1.02850E-001	3.57760E+000	9	...........
	27	0.373333	9.70307E-002	-2.78999E-004	0.00000E+000	-2.70715E-005	-1.68088E-001	9.70529E-002	3.57760E+000	9	...........
	28	0.386667	9.14613E-002	-2.79036E-004	0.00000E+000	-2.55210E-005	-1.68088E-001	9.14827E-002	3.57760E+000	9	...........
	29	0.4	8.61405E-002	-2.79032E-004	0.00000E+000	-2.40360E-005	-1.68088E-001	8.61591E-002	3.57760E+000	9	...........
	30	0.413333	8.10313E-002	-2.78831E-004	0.00000E+000	-2.25941E-005	-1.68088E-001	8.10504E-002	3.57760E+000	9	...........
	31	0.426667	7.60980E-002	-2.78894E-004	0.00000E+000	-2.12232E-005	-1.68088E-001	7.61137E-002	3.57760E+000	9	...........
	32	0.44	7.14262E-002	-2.78716E-004	0.00000E+000	-1.99076E-005	-1.68088E-001	7.14331E-002	3.57760E+000	9	...........
	33	0.453333	6.68816E-002	-2.79790E-004	0.00000E+000	-1.87128E-005	-1.68088E-001	6.68890E-002	3.57760E+000	9	...........
	34	0.466667	6.24991E-002	-2.78239E-004	0.00000E+000	-1.73897E-005	-1.68088E-001	6.25044E-002	3.57760E+000	9	...........
	35	0.48	5.82829E-002	-2.78782E-004	0.00000E+000	-1.62482E-005	-1.68088E-001	5.82868E-002	3.57760E+000	9	...........
	36	0.493333	5.41870E-002	-2.79106E-004	0.00000E+000	-1.51239E-005	-1.68088E-001	5.41949E-002	3.57760E+000	9	...........
	37	0.506667	5.02143E-002	-2.79091E-004	0.00000E+000	-1.40143E-005	-1.68088E-001	5.02210E-002	3.57760E+000	9	...........
	38	0.52	4.63859E-002	-2.77075E-004	0.00000E+000	-1.28524E-005	-1.68088E-001	4.63943E-002	3.57760E+000	9	...........
	39	0.533333	4.25884E-002	-2.79721E-004	0.00000E+000	-1.19129E-005	-1.68088E-001	4.25947E-002	3.57760E+000	9	...........
	40	0.546667	3.89134E-002	-2.78897E-004	0.00000E+000	-1.08528E-005	-1.68088E-001	3.89194E-002	3.57760E+000	9	...........
	41	0.56	3.53454E-002	-2.77626E-004	0.00000E+000	-9.81279E-006	-1.68088E-001	3.53504E-002	3.57760E+000	9	...........
	42	0.573333	3.18438E-002	-2.79948E-004	0.00000E+000	-8.91460E-006	-1.68088E-001	3.18432E-002	3.57760E+000	9	...........
	43	0.586667	2.84420E-002	-2.79536E-004	0.00000E+000	-7.95055E-006	-1.68088E-001	2.84403E-002	3.57760E+000	9	...........
	44	0.6	2.51698E-002	-2.80354E-004	0.00000E+000	-7.05647E-006	-1.68088E-001	2.51656E-002	3.57760E+000	9	...........
	45	0.613333	2.19608E-002	-2.79216E-004	0.00000E+000	-6.13180E-006	-1.68088E-001	2.19540E-002	3.57760E+000	9	...........
	46	0.626667	1.87821E-002	-2.78017E-004	0.00000E+000	-5.22175E-006	-1.68088E-001	1.87757E-002	3.57760E+000	9	...........
	47	0.64	1.56948E-002	-2.79394E-004	0.00000E+000	-4.38503E-006	-1.68088E-001	1.56894E-002	3.57760E+000	9	...........
	48	0.653333	1.26418E-002	-2.78872E-004	0.00000E+000	-3.52543E-006	-1.68088E-001	1.26280E-002	3.57760E+000	9	...........
	49	0.666667	9.66125E-003	-2.80637E-004	0.00000E+000	-2.71130E-006	-1.68088E-001	9.65385E-003	3.57760E+000	9	...........
	50	0.68	6.71941E-003	-2.78102E-004	0.00000E+000	-1.86868E-006	-1.68088E-001	6.70695E-003	3.57760E+000	9	...........
	51	0.693333	3.79331E-003	-2.78522E-004	0.00000E+000	-1.05652E-006	-1.68088E-001	3.77496E-003	3.57760E+000	9	...........
	52	0.706667	9.55756E-004	-2.80057E-004	0.00000E+000	-2.67667E-007	-1.68088E-001	9.40011E-004	3.57760E+000	9	...........
STARTTIMEOFFSET	QUANT	1965.763	Start Time Offset (s)
