EXPLAIN
TAG	PWR800_DISCHARGE
TITLE	LABEL	PWR Cyclic Charge Discharge (Cell) - Discharge Step	Test &Identifier
DATE	LABEL	7-7-2017	Date
TIME	LABEL	15:48:54	Time
NOTES	NOTES	3	&Notes...
	supercap test cell
	2.8mg
	6M KOH
PSTAT	PSTAT	IFC5000-01520	Potentiostat
CAPACITY	QUANT	1.00000E-003	Capacity (A-hr)
CELLTYPE	SELECTOR	1	&Cell Type
WORKINGCONNECTION	SELECTOR	0	&Working Lead
MAXDISCHARGETIME	VARIABLEANDUNITS	1.00000E+002	s	1.00000E+002	second(s)	Max &Discharge Time
DISCHARGEMODE	MULTIPARAM	0	2.80000E-004	&Discharge Mode	Constant Current	Amp(s)
SAMPLETIME	QUANT	1.00000E-002	Sa&mple Period (s)
DISCHARGESTOPAT1	MULTIPARAM	3	0.00000E+000	Discharge Stop At &1	Voltage < Limit	V
DISCHARGESTOPAT2	MULTIPARAM	0	0.00000E+000	Discharge Stop At &2	None	N/A
AESBHCSELECTOR	TOGGLE	F	Save Both Half Cells
IRCOMP	TOGGLE	F	IR &Measure
EOC	QUANT	0	Open Circuit (V)
SEQUENCER	TOGGLE	TRUE	Run as Sequence
PSTATMODEL	IQUANT	53	Pstat Model
PSTATSECTION	LABEL	IFC5000-01520	Pstat Section
PSTATSERIALNO	LABEL	01520	Pstat Serial Number
CTRLMODE	IQUANT	0	Control Mode
ELECTROMETER	IQUANT	1	RE=0 or CS=1
IESTAB	IQUANT	0	I/E Stability
CASPEED	IQUANT	4	Control Amp Speed
CONVENTION	IQUANT	1	Current Convention
ICHRANGE	IQUANT	2	Ich Range
ICHRANGEMODE	TOGGLE	T	Ich Auto Range
ICHOFFSETENABLE	TOGGLE	F	Ich Offset Enable
ICHOFFSET	QUANT	0	Ich Offset (V)
ICHFILTER	IQUANT	1	Ich Filter
VCHRANGE	IQUANT	2	Vch Range
VCHRANGEMODE	TOGGLE	T	Vch Auto Range
VCHOFFSETENABLE	TOGGLE	F	Vch Offset Enable
VCHOFFSET	QUANT	0	Vch Offset (V)
VCHFILTER	IQUANT	1	Vch Filter
IERANGELOWERLIMIT	IQUANT	9	I/E Range Lower Limit
IERANGEMODE	TOGGLE	F	I/E AutoRange
IERANGE	IQUANT	9	I/E Range
ACHSELECT	IQUANT	1	Ach Select
ACHRANGE	IQUANT	2	Ach Range
ACHOFFSETENABLE	TOGGLE	F	Ach Offset Enable
ACHOFFSET	QUANT	0	Ach Offset (V)
ACHFILTER	IQUANT	1	Ach Filter
CABLEID	IQUANT	14	Cable ID
DCCALDATE	LABEL	5-7-2017	DC Calibration Date
ACCALDATE	LABEL	12/3/2015	AC Calibration Date
FRAMEWORKVERSION	QUANT	7.01	Framework Version
INSTRUMENTVERSION	LABEL	4.00	Instrument Version
CURVE	TABLE	93
	Pt	T	Vf	Im	Vu	Pwr	Sig	Ach	Temp	IERange	Over
	#	s	V	A	V	W	V	V	deg C	#	bits
	0	0.013333	5.44309E-001	-2.78488E-004	0.00000E+000	-1.51584E-004	-1.68088E-001	5.44585E-001	3.57850E+000	9	...........
	1	0.026667	5.13928E-001	-2.78693E-004	0.00000E+000	-1.43228E-004	-1.68088E-001	5.14180E-001	3.57850E+000	9	...........
	2	0.04	4.86568E-001	-2.78797E-004	0.00000E+000	-1.35654E-004	-1.68088E-001	4.86811E-001	3.57850E+000	9	...........
	3	0.053333	4.61660E-001	-2.78761E-004	0.00000E+000	-1.28693E-004	-1.68088E-001	4.61769E-001	3.57850E+000	9	...........
	4	0.066667	4.38447E-001	-2.79055E-004	0.00000E+000	-1.22351E-004	-1.68088E-001	4.38557E-001	3.57850E+000	9	...........
	5	0.08	4.16984E-001	-2.78880E-004	0.00000E+000	-1.16289E-004	-1.68088E-001	4.17085E-001	3.57850E+000	9	...........
	6	0.093333	3.97103E-001	-2.78907E-004	0.00000E+000	-1.10755E-004	-1.68088E-001	3.97197E-001	3.57850E+000	9	...........
	7	0.106667	3.78666E-001	-2.78194E-004	0.00000E+000	-1.05343E-004	-1.68088E-001	3.78751E-001	3.57850E+000	9	...........
	8	0.12	3.61560E-001	-2.79200E-004	0.00000E+000	-1.00948E-004	-1.68088E-001	3.61649E-001	3.57850E+000	9	...........
	9	0.133333	3.45672E-001	-2.78314E-004	0.00000E+000	-9.62055E-005	-1.68088E-001	3.45753E-001	3.57850E+000	9	...........
	10	0.146667	3.30921E-001	-2.79390E-004	0.00000E+000	-9.24559E-005	-1.68088E-001	3.30999E-001	3.57850E+000	9	...........
	11	0.16	3.17214E-001	-2.80005E-004	0.00000E+000	-8.88218E-005	-1.68088E-001	3.17290E-001	3.57850E+000	9	...........
	12	0.173333	3.04448E-001	-2.79781E-004	0.00000E+000	-8.51790E-005	-1.68088E-001	3.04522E-001	3.57850E+000	9	...........
	13	0.186667	2.92567E-001	-2.78552E-004	0.00000E+000	-8.14952E-005	-1.68088E-001	2.92637E-001	3.57850E+000	9	...........
	14	0.2	2.81488E-001	-2.79279E-004	0.00000E+000	-7.86138E-005	-1.68088E-001	2.81561E-001	3.57850E+000	9	...........
	15	0.213333	2.71162E-001	-2.79829E-004	0.00000E+000	-7.58791E-005	-1.68088E-001	2.71229E-001	3.57850E+000	9	...........
	16	0.226667	2.61536E-001	-2.78807E-004	0.00000E+000	-7.29180E-005	-1.68088E-001	2.61606E-001	3.57850E+000	9	...........
	17	0.24	2.52448E-001	-2.78895E-004	0.00000E+000	-7.04065E-005	-1.68088E-001	2.52514E-001	3.57850E+000	9	...........
	18	0.253333	2.43931E-001	-2.79190E-004	0.00000E+000	-6.81030E-005	-1.68088E-001	2.43996E-001	3.57850E+000	9	...........
	19	0.266667	2.35945E-001	-2.79114E-004	0.00000E+000	-6.58554E-005	-1.68088E-001	2.35999E-001	3.57850E+000	9	...........
	20	0.28	2.28384E-001	-2.79203E-004	0.00000E+000	-6.37654E-005	-1.68088E-001	2.28437E-001	3.57850E+000	9	...........
	21	0.293333	2.21225E-001	-2.80040E-004	0.00000E+000	-6.19519E-005	-1.68088E-001	2.21280E-001	3.57850E+000	9	...........
	22	0.306667	2.14425E-001	-2.79552E-004	0.00000E+000	-5.99431E-005	-1.68088E-001	2.14472E-001	3.57850E+000	9	...........
	23	0.32	2.07994E-001	-2.78995E-004	0.00000E+000	-5.80291E-005	-1.68088E-001	2.08035E-001	3.57850E+000	9	...........
	24	0.333333	2.01858E-001	-2.79054E-004	0.00000E+000	-5.63293E-005	-1.68088E-001	2.01903E-001	3.57850E+000	9	...........
	25	0.346667	1.96064E-001	-2.79056E-004	0.00000E+000	-5.47129E-005	-1.68088E-001	1.96110E-001	3.57850E+000	9	...........
	26	0.36	1.90508E-001	-2.77640E-004	0.00000E+000	-5.28926E-005	-1.68088E-001	1.90554E-001	3.57850E+000	9	...........
	27	0.373333	1.85168E-001	-2.79427E-004	0.00000E+000	-5.17410E-005	-1.68088E-001	1.85202E-001	3.57850E+000	9	...........
	28	0.386667	1.80029E-001	-2.78520E-004	0.00000E+000	-5.01416E-005	-1.68088E-001	1.80071E-001	3.57850E+000	9	...........
	29	0.4	1.75082E-001	-2.78845E-004	0.00000E+000	-4.88208E-005	-1.68088E-001	1.75125E-001	3.57850E+000	9	...........
	30	0.413333	1.70297E-001	-2.79156E-004	0.00000E+000	-4.75395E-005	-1.68088E-001	1.70342E-001	3.57850E+000	9	...........
	31	0.426667	1.65700E-001	-2.78373E-004	0.00000E+000	-4.61265E-005	-1.68088E-001	1.65739E-001	3.57850E+000	9	...........
	32	0.44	1.61235E-001	-2.78526E-004	0.00000E+000	-4.49081E-005	-1.68088E-001	1.61270E-001	3.57850E+000	9	...........
	33	0.453333	1.56925E-001	-2.78352E-004	0.00000E+000	-4.36804E-005	-1.68088E-001	1.56956E-001	3.57850E+000	9	...........
	34	0.466667	1.52715E-001	-2.78962E-004	0.00000E+000	-4.26019E-005	-1.68088E-001	1.52750E-001	3.57850E+000	9	...........
	35	0.48	1.48685E-001	-2.78625E-004	0.00000E+000	-4.14272E-005	-1.68088E-001	1.48717E-001	3.57850E+000	9	...........
	36	0.493333	1.44754E-001	-2.78999E-004	0.00000E+000	-4.03863E-005	-1.68088E-001	1.44792E-001	3.57850E+000	9	...........
	37	0.506667	1.40940E-001	-2.79679E-004	0.00000E+000	-3.94180E-005	-1.68088E-001	1.40976E-001	3.57850E+000	9	...........
	38	0.52	1.37199E-001	-2.78975E-004	0.00000E+000	-3.82751E-005	-1.68088E-001	1.37231E-001	3.57850E+000	9	...........
	39	0.533333	1.33537E-001	-2.79230E-004	0.00000E+000	-3.72877E-005	-1.68088E-001	1.33569E-001	3.57860E+000	9	...........
	40	0.546667	1.29971E-001	-2.78355E-004	0.00000E+000	-3.61782E-005	-1.68088E-001	1.30000E-001	3.57860E+000	9	...........
	41	0.56	1.26484E-001	-2.79181E-004	0.00000E+000	-3.53119E-005	-1.68088E-001	1.26515E-001	3.57860E+000	9	...........
	42	0.573333	1.23056E-001	-2.78316E-004	0.00000E+000	-3.42484E-005	-1.68088E-001	1.23088E-001	3.57860E+000	9	...........
	43	0.586667	1.19688E-001	-2.79180E-004	0.00000E+000	-3.34144E-005	-1.68088E-001	1.19717E-001	3.57860E+000	9	...........
	44	0.6	1.16400E-001	-2.79454E-004	0.00000E+000	-3.25285E-005	-1.68088E-001	1.16430E-001	3.57860E+000	9	...........
	45	0.613333	1.13191E-001	-2.78741E-004	0.00000E+000	-3.15510E-005	-1.68088E-001	1.13222E-001	3.57860E+000	9	...........
	46	0.626667	1.10027E-001	-2.78547E-004	0.00000E+000	-3.06477E-005	-1.68088E-001	1.10057E-001	3.57860E+000	9	...........
	47	0.64	1.06853E-001	-2.79371E-004	0.00000E+000	-2.98516E-005	-1.68088E-001	1.06882E-001	3.57860E+000	9	...........
	48	0.653333	1.03788E-001	-2.79587E-004	0.00000E+000	-2.90177E-005	-1.68088E-001	1.03820E-001	3.57860E+000	9	...........
	49	0.666667	1.00743E-001	-2.79467E-004	0.00000E+000	-2.81544E-005	-1.68088E-001	1.00774E-001	3.57860E+000	9	...........
	50	0.68	9.78383E-002	-2.79059E-004	0.00000E+000	-2.73027E-005	-1.68088E-001	9.78609E-002	3.57860E+000	9	...........
	51	0.693333	9.49227E-002	-2.79464E-004	0.00000E+000	-2.65274E-005	-1.68088E-001	9.49478E-002	3.57860E+000	9	...........
	52	0.706667	9.20879E-002	-2.77926E-004	0.00000E+000	-2.55936E-005	-1.68088E-001	9.21117E-002	3.57860E+000	9	...........
	53	0.72	8.92585E-002	-2.78670E-004	0.00000E+000	-2.48736E-005	-1.68088E-001	8.92778E-002	3.57860E+000	9	...........
	54	0.733333	8.64651E-002	-2.78360E-004	0.00000E+000	-2.40684E-005	-1.68088E-001	8.64806E-002	3.57860E+000	9	...........
	55	0.746667	8.36750E-002	-2.78382E-004	0.00000E+000	-2.32936E-005	-1.68088E-001	8.36909E-002	3.57860E+000	9	...........
	56	0.76	8.09550E-002	-2.78294E-004	0.00000E+000	-2.25293E-005	-1.68088E-001	8.09664E-002	3.57860E+000	9	...........
	57	0.773333	7.82786E-002	-2.79332E-004	0.00000E+000	-2.18657E-005	-1.68088E-001	7.82886E-002	3.57860E+000	9	...........
	58	0.786667	7.56451E-002	-2.79285E-004	0.00000E+000	-2.11266E-005	-1.68088E-001	7.56599E-002	3.57860E+000	9	...........
	59	0.8	7.30439E-002	-2.78989E-004	0.00000E+000	-2.03784E-005	-1.68088E-001	7.30568E-002	3.57860E+000	9	...........
	60	0.813333	7.04389E-002	-2.79368E-004	0.00000E+000	-1.96784E-005	-1.68088E-001	7.04560E-002	3.57860E+000	9	...........
	61	0.826667	6.79510E-002	-2.78966E-004	0.00000E+000	-1.89560E-005	-1.68088E-001	6.79612E-002	3.57860E+000	9	...........
	62	0.84	6.54766E-002	-2.78679E-004	0.00000E+000	-1.82470E-005	-1.68088E-001	6.54852E-002	3.57860E+000	9	...........
	63	0.853333	6.30249E-002	-2.79937E-004	0.00000E+000	-1.76430E-005	-1.68088E-001	6.30356E-002	3.57860E+000	9	...........
	64	0.866667	6.05999E-002	-2.79406E-004	0.00000E+000	-1.69320E-005	-1.68088E-001	6.06123E-002	3.57860E+000	9	...........
	65	0.88	5.81565E-002	-2.78716E-004	0.00000E+000	-1.62091E-005	-1.68088E-001	5.81699E-002	3.57860E+000	9	...........
	66	0.893333	5.57470E-002	-2.79020E-004	0.00000E+000	-1.55545E-005	-1.68088E-001	5.57576E-002	3.57860E+000	9	...........
	67	0.906667	5.33515E-002	-2.77458E-004	0.00000E+000	-1.48028E-005	-1.68088E-001	5.33611E-002	3.57860E+000	9	...........
	68	0.92	5.09847E-002	-2.78809E-004	0.00000E+000	-1.42150E-005	-1.68088E-001	5.09908E-002	3.57860E+000	9	...........
	69	0.933333	4.86470E-002	-2.78975E-004	0.00000E+000	-1.35713E-005	-1.68088E-001	4.86558E-002	3.57860E+000	9	...........
	70	0.946667	4.63285E-002	-2.79742E-004	0.00000E+000	-1.29600E-005	-1.68088E-001	4.63376E-002	3.57860E+000	9	...........
	71	0.96	4.40442E-002	-2.79692E-004	0.00000E+000	-1.23188E-005	-1.68088E-001	4.40512E-002	3.57860E+000	9	...........
	72	0.97333	4.17759E-002	-2.78683E-004	0.00000E+000	-1.16423E-005	-1.68088E-001	4.17862E-002	3.57860E+000	9	...........
	73	0.98667	3.94984E-002	-2.78178E-004	0.00000E+000	-1.09876E-005	-1.68088E-001	3.95029E-002	3.57860E+000	9	...........
	74	1	3.72355E-002	-2.79244E-004	0.00000E+000	-1.03978E-005	-1.68088E-001	3.72401E-002	3.57860E+000	9	...........
	75	1.01333	3.50673E-002	-2.78962E-004	0.00000E+000	-9.78245E-006	-1.68088E-001	3.50714E-002	3.57860E+000	9	...........
	76	1.02667	3.28611E-002	-2.78875E-004	0.00000E+000	-9.16415E-006	-1.68088E-001	3.28604E-002	3.57860E+000	9	...........
	77	1.04	3.06958E-002	-2.79515E-004	0.00000E+000	-8.57992E-006	-1.68088E-001	3.06949E-002	3.57860E+000	9	...........
	78	1.05333	2.85661E-002	-2.79308E-004	0.00000E+000	-7.97876E-006	-1.68088E-001	2.85670E-002	3.57860E+000	9	...........
	79	1.06667	2.64449E-002	-2.78940E-004	0.00000E+000	-7.37653E-006	-1.68088E-001	2.64434E-002	3.57860E+000	9	...........
	80	1.08	2.43274E-002	-2.78712E-004	0.00000E+000	-6.78035E-006	-1.68088E-001	2.43230E-002	3.57860E+000	9	...........
	81	1.09333	2.22188E-002	-2.79981E-004	0.00000E+000	-6.22084E-006	-1.68088E-001	2.22093E-002	3.57860E+000	9	...........
	82	1.10667	2.01281E-002	-2.79042E-004	0.00000E+000	-5.61658E-006	-1.68088E-001	2.01206E-002	3.57860E+000	9	...........
	83	1.12	1.80621E-002	-2.79943E-004	0.00000E+000	-5.05637E-006	-1.68088E-001	1.80578E-002	3.57860E+000	9	...........
	84	1.13333	1.59564E-002	-2.79594E-004	0.00000E+000	-4.46131E-006	-1.68088E-001	1.59447E-002	3.57860E+000	9	...........
	85	1.14667	1.39315E-002	-2.78184E-004	0.00000E+000	-3.87552E-006	-1.68088E-001	1.39251E-002	3.57860E+000	9	...........
	86	1.16	1.19114E-002	-2.79012E-004	0.00000E+000	-3.32344E-006	-1.68088E-001	1.18988E-002	3.57860E+000	9	...........
	87	1.17333	9.93278E-003	-2.78857E-004	0.00000E+000	-2.76983E-006	-1.68088E-001	9.92068E-003	3.57860E+000	9	...........
	88	1.18667	7.94497E-003	-2.79562E-004	0.00000E+000	-2.22111E-006	-1.68088E-001	7.92897E-003	3.57860E+000	9	...........
	89	1.2	5.98099E-003	-2.79496E-004	0.00000E+000	-1.67166E-006	-1.68088E-001	5.96386E-003	3.57860E+000	9	...........
	90	1.21333	4.04318E-003	-2.78969E-004	0.00000E+000	-1.12792E-006	-1.68088E-001	4.02882E-003	3.57860E+000	9	...........
	91	1.22667	2.12138E-003	-2.78484E-004	0.00000E+000	-5.90770E-007	-1.68088E-001	2.10868E-003	3.57860E+000	9	...........
	92	1.23667	4.22398E-004	-2.78960E-004	0.00000E+000	-1.17832E-007	-1.68088E-001	4.04132E-004	3.57860E+000	9	...........
STARTTIMEOFFSET	QUANT	622.9467	Start Time Offset (s)
