EXPLAIN
TAG	PWR800_DISCHARGE
TITLE	LABEL	PWR Cyclic Charge Discharge (Cell) - Discharge Step	Test &Identifier
DATE	LABEL	7-7-2017	Date
TIME	LABEL	16:03:18	Time
NOTES	NOTES	3	&Notes...
	supercap test cell
	2.8mg
	6M KOH
PSTAT	PSTAT	IFC5000-01520	Potentiostat
CAPACITY	QUANT	1.00000E-003	Capacity (A-hr)
CELLTYPE	SELECTOR	1	&Cell Type
WORKINGCONNECTION	SELECTOR	0	&Working Lead
MAXDISCHARGETIME	VARIABLEANDUNITS	1.00000E+002	s	1.00000E+002	second(s)	Max &Discharge Time
DISCHARGEMODE	MULTIPARAM	0	2.80000E-004	&Discharge Mode	Constant Current	Amp(s)
SAMPLETIME	QUANT	1.00000E-002	Sa&mple Period (s)
DISCHARGESTOPAT1	MULTIPARAM	3	0.00000E+000	Discharge Stop At &1	Voltage < Limit	V
DISCHARGESTOPAT2	MULTIPARAM	0	0.00000E+000	Discharge Stop At &2	None	N/A
AESBHCSELECTOR	TOGGLE	F	Save Both Half Cells
IRCOMP	TOGGLE	F	IR &Measure
EOC	QUANT	0	Open Circuit (V)
SEQUENCER	TOGGLE	TRUE	Run as Sequence
PSTATMODEL	IQUANT	53	Pstat Model
PSTATSECTION	LABEL	IFC5000-01520	Pstat Section
PSTATSERIALNO	LABEL	01520	Pstat Serial Number
CTRLMODE	IQUANT	0	Control Mode
ELECTROMETER	IQUANT	1	RE=0 or CS=1
IESTAB	IQUANT	0	I/E Stability
CASPEED	IQUANT	4	Control Amp Speed
CONVENTION	IQUANT	1	Current Convention
ICHRANGE	IQUANT	2	Ich Range
ICHRANGEMODE	TOGGLE	T	Ich Auto Range
ICHOFFSETENABLE	TOGGLE	F	Ich Offset Enable
ICHOFFSET	QUANT	0	Ich Offset (V)
ICHFILTER	IQUANT	1	Ich Filter
VCHRANGE	IQUANT	2	Vch Range
VCHRANGEMODE	TOGGLE	T	Vch Auto Range
VCHOFFSETENABLE	TOGGLE	F	Vch Offset Enable
VCHOFFSET	QUANT	0	Vch Offset (V)
VCHFILTER	IQUANT	1	Vch Filter
IERANGELOWERLIMIT	IQUANT	9	I/E Range Lower Limit
IERANGEMODE	TOGGLE	F	I/E AutoRange
IERANGE	IQUANT	9	I/E Range
ACHSELECT	IQUANT	1	Ach Select
ACHRANGE	IQUANT	2	Ach Range
ACHOFFSETENABLE	TOGGLE	F	Ach Offset Enable
ACHOFFSET	QUANT	0	Ach Offset (V)
ACHFILTER	IQUANT	1	Ach Filter
CABLEID	IQUANT	14	Cable ID
DCCALDATE	LABEL	5-7-2017	DC Calibration Date
ACCALDATE	LABEL	12/3/2015	AC Calibration Date
FRAMEWORKVERSION	QUANT	7.01	Framework Version
INSTRUMENTVERSION	LABEL	4.00	Instrument Version
CURVE	TABLE	66
	Pt	T	Vf	Im	Vu	Pwr	Sig	Ach	Temp	IERange	Over
	#	s	V	A	V	W	V	V	deg C	#	bits
	0	0.013333	5.27269E-001	-2.79004E-004	0.00000E+000	-1.47110E-004	-1.68088E-001	5.27546E-001	3.57810E+000	9	...........
	1	0.026667	4.94627E-001	-2.77916E-004	0.00000E+000	-1.37465E-004	-1.68088E-001	4.94878E-001	3.57810E+000	9	...........
	2	0.04	4.65048E-001	-2.78827E-004	0.00000E+000	-1.29668E-004	-1.68088E-001	4.65163E-001	3.57810E+000	9	...........
	3	0.053333	4.37350E-001	-2.78050E-004	0.00000E+000	-1.21605E-004	-1.68088E-001	4.37460E-001	3.57810E+000	9	...........
	4	0.066667	4.11580E-001	-2.79242E-004	0.00000E+000	-1.14930E-004	-1.68088E-001	4.11677E-001	3.57810E+000	9	...........
	5	0.08	3.87577E-001	-2.79148E-004	0.00000E+000	-1.08191E-004	-1.68088E-001	3.87672E-001	3.57810E+000	9	...........
	6	0.093333	3.65216E-001	-2.79283E-004	0.00000E+000	-1.01999E-004	-1.68088E-001	3.65298E-001	3.57810E+000	9	...........
	7	0.106667	3.44370E-001	-2.79202E-004	0.00000E+000	-9.61488E-005	-1.68088E-001	3.44453E-001	3.57810E+000	9	...........
	8	0.12	3.24999E-001	-2.78972E-004	0.00000E+000	-9.06656E-005	-1.68088E-001	3.25071E-001	3.57810E+000	9	...........
	9	0.133333	3.07005E-001	-2.78207E-004	0.00000E+000	-8.54110E-005	-1.68088E-001	3.07090E-001	3.57810E+000	9	...........
	10	0.146667	2.90288E-001	-2.79206E-004	0.00000E+000	-8.10502E-005	-1.68088E-001	2.90359E-001	3.57781E+000	9	...........
	11	0.16	2.74786E-001	-2.78148E-004	0.00000E+000	-7.64312E-005	-1.68088E-001	2.74858E-001	3.57770E+000	9	...........
	12	0.173333	2.60378E-001	-2.79229E-004	0.00000E+000	-7.27051E-005	-1.68088E-001	2.60451E-001	3.57770E+000	9	...........
	13	0.186667	2.46982E-001	-2.77906E-004	0.00000E+000	-6.86378E-005	-1.68088E-001	2.47040E-001	3.57770E+000	9	...........
	14	0.2	2.34533E-001	-2.78435E-004	0.00000E+000	-6.53023E-005	-1.68088E-001	2.34593E-001	3.57770E+000	9	...........
	15	0.213333	2.22965E-001	-2.77790E-004	0.00000E+000	-6.19375E-005	-1.68088E-001	2.23019E-001	3.57770E+000	9	...........
	16	0.226667	2.12195E-001	-2.78645E-004	0.00000E+000	-5.91269E-005	-1.68088E-001	2.12249E-001	3.57770E+000	9	...........
	17	0.24	2.02155E-001	-2.79012E-004	0.00000E+000	-5.64038E-005	-1.68088E-001	2.02209E-001	3.57770E+000	9	...........
	18	0.253333	1.92753E-001	-2.79665E-004	0.00000E+000	-5.39063E-005	-1.68088E-001	1.92808E-001	3.57770E+000	9	...........
	19	0.266667	1.83940E-001	-2.78819E-004	0.00000E+000	-5.12860E-005	-1.68088E-001	1.83989E-001	3.57770E+000	9	...........
	20	0.28	1.75684E-001	-2.79669E-004	0.00000E+000	-4.91334E-005	-1.68088E-001	1.75736E-001	3.57770E+000	9	...........
	21	0.293333	1.67885E-001	-2.78776E-004	0.00000E+000	-4.68022E-005	-1.68088E-001	1.67927E-001	3.57770E+000	9	...........
	22	0.306667	1.60517E-001	-2.77779E-004	0.00000E+000	-4.45882E-005	-1.68088E-001	1.60559E-001	3.57770E+000	9	...........
	23	0.32	1.53588E-001	-2.78620E-004	0.00000E+000	-4.27925E-005	-1.68088E-001	1.53624E-001	3.57770E+000	9	...........
	24	0.333333	1.46993E-001	-2.78308E-004	0.00000E+000	-4.09092E-005	-1.68088E-001	1.47030E-001	3.57770E+000	9	...........
	25	0.346667	1.40749E-001	-2.79007E-004	0.00000E+000	-3.92700E-005	-1.68088E-001	1.40788E-001	3.57770E+000	9	...........
	26	0.36	1.34815E-001	-2.79515E-004	0.00000E+000	-3.76827E-005	-1.68088E-001	1.34846E-001	3.57770E+000	9	...........
	27	0.373333	1.29215E-001	-2.78908E-004	0.00000E+000	-3.60391E-005	-1.68088E-001	1.29247E-001	3.57770E+000	9	...........
	28	0.386667	1.23856E-001	-2.79097E-004	0.00000E+000	-3.45677E-005	-1.68088E-001	1.23887E-001	3.57770E+000	9	...........
	29	0.4	1.18655E-001	-2.78370E-004	0.00000E+000	-3.30298E-005	-1.68088E-001	1.18696E-001	3.57770E+000	9	...........
	30	0.413333	1.13670E-001	-2.79268E-004	0.00000E+000	-3.17443E-005	-1.68088E-001	1.13704E-001	3.57770E+000	9	...........
	31	0.426667	1.08913E-001	-2.79683E-004	0.00000E+000	-3.04612E-005	-1.68088E-001	1.08949E-001	3.57770E+000	9	...........
	32	0.44	1.04270E-001	-2.79496E-004	0.00000E+000	-2.91431E-005	-1.68088E-001	1.04301E-001	3.57770E+000	9	...........
	33	0.453333	9.98240E-002	-2.78378E-004	0.00000E+000	-2.77888E-005	-1.68088E-001	9.98525E-002	3.57770E+000	9	...........
	34	0.466667	9.54967E-002	-2.78271E-004	0.00000E+000	-2.65739E-005	-1.68088E-001	9.55225E-002	3.57770E+000	9	...........
	35	0.48	9.13255E-002	-2.77226E-004	0.00000E+000	-2.53178E-005	-1.68088E-001	9.13531E-002	3.57770E+000	9	...........
	36	0.493333	8.72450E-002	-2.78480E-004	0.00000E+000	-2.42960E-005	-1.68088E-001	8.72655E-002	3.57770E+000	9	...........
	37	0.506667	8.32693E-002	-2.78928E-004	0.00000E+000	-2.32262E-005	-1.68088E-001	8.32927E-002	3.57770E+000	9	...........
	38	0.52	7.94431E-002	-2.77758E-004	0.00000E+000	-2.20660E-005	-1.68088E-001	7.94593E-002	3.57770E+000	9	...........
	39	0.533333	7.57570E-002	-2.79176E-004	0.00000E+000	-2.11495E-005	-1.68088E-001	7.57762E-002	3.57770E+000	9	...........
	40	0.546667	7.21213E-002	-2.79007E-004	0.00000E+000	-2.01224E-005	-1.68088E-001	7.21403E-002	3.57770E+000	9	...........
	41	0.56	6.86029E-002	-2.78907E-004	0.00000E+000	-1.91339E-005	-1.68088E-001	6.86158E-002	3.57770E+000	9	...........
	42	0.573333	6.51660E-002	-2.78306E-004	0.00000E+000	-1.81361E-005	-1.68088E-001	6.51817E-002	3.57770E+000	9	...........
	43	0.586667	6.17747E-002	-2.80110E-004	0.00000E+000	-1.73037E-005	-1.68088E-001	6.17875E-002	3.57770E+000	9	...........
	44	0.6	5.84401E-002	-2.78765E-004	0.00000E+000	-1.62910E-005	-1.68088E-001	5.84575E-002	3.57770E+000	9	...........
	45	0.613333	5.52224E-002	-2.79943E-004	0.00000E+000	-1.54591E-005	-1.68088E-001	5.52375E-002	3.57770E+000	9	...........
	46	0.626667	5.20936E-002	-2.79553E-004	0.00000E+000	-1.45629E-005	-1.68088E-001	5.21073E-002	3.57770E+000	9	...........
	47	0.64	4.90211E-002	-2.79567E-004	0.00000E+000	-1.37047E-005	-1.68088E-001	4.90299E-002	3.57770E+000	9	...........
	48	0.653333	4.59549E-002	-2.78766E-004	0.00000E+000	-1.28106E-005	-1.68088E-001	4.59716E-002	3.57770E+000	9	...........
	49	0.666667	4.28979E-002	-2.79684E-004	0.00000E+000	-1.19979E-005	-1.68088E-001	4.29071E-002	3.57770E+000	9	...........
	50	0.68	3.99216E-002	-2.78315E-004	0.00000E+000	-1.11108E-005	-1.68088E-001	3.99311E-002	3.57770E+000	9	...........
	51	0.693333	3.70313E-002	-2.78900E-004	0.00000E+000	-1.03280E-005	-1.68088E-001	3.70362E-002	3.57770E+000	9	...........
	52	0.706667	3.41298E-002	-2.78920E-004	0.00000E+000	-9.51947E-006	-1.68088E-001	3.41381E-002	3.57770E+000	9	...........
	53	0.72	3.12824E-002	-2.77904E-004	0.00000E+000	-8.69350E-006	-1.68088E-001	3.12893E-002	3.57770E+000	9	...........
	54	0.733333	2.85070E-002	-2.78864E-004	0.00000E+000	-7.94956E-006	-1.68088E-001	2.85104E-002	3.57770E+000	9	...........
	55	0.746667	2.57692E-002	-2.79719E-004	0.00000E+000	-7.20812E-006	-1.68088E-001	2.57729E-002	3.57770E+000	9	...........
	56	0.76	2.30605E-002	-2.80040E-004	0.00000E+000	-6.45787E-006	-1.68088E-001	2.30668E-002	3.57770E+000	9	...........
	57	0.773333	2.04124E-002	-2.78263E-004	0.00000E+000	-5.68001E-006	-1.68088E-001	2.04099E-002	3.57770E+000	9	...........
	58	0.786667	1.78050E-002	-2.79079E-004	0.00000E+000	-4.96899E-006	-1.68088E-001	1.77954E-002	3.57770E+000	9	...........
	59	0.8	1.51909E-002	-2.78021E-004	0.00000E+000	-4.22337E-006	-1.68088E-001	1.51823E-002	3.57770E+000	9	...........
	60	0.813333	1.26036E-002	-2.78869E-004	0.00000E+000	-3.51474E-006	-1.68088E-001	1.25973E-002	3.57770E+000	9	...........
	61	0.826667	1.01061E-002	-2.79451E-004	0.00000E+000	-2.82417E-006	-1.68088E-001	1.00975E-002	3.57770E+000	9	...........
	62	0.84	7.63847E-003	-2.78528E-004	0.00000E+000	-2.12753E-006	-1.68088E-001	7.62883E-003	3.57770E+000	9	...........
	63	0.853333	5.18716E-003	-2.79829E-004	0.00000E+000	-1.45152E-006	-1.68088E-001	5.17652E-003	3.57770E+000	9	...........
	64	0.866667	2.78088E-003	-2.78165E-004	0.00000E+000	-7.73545E-007	-1.68088E-001	2.76753E-003	3.57770E+000	9	...........
	65	0.876667	6.91194E-004	-2.78576E-004	0.00000E+000	-1.92550E-007	-1.68088E-001	6.74362E-004	3.57770E+000	9	...........
STARTTIMEOFFSET	QUANT	1247.388	Start Time Offset (s)
