EXPLAIN
TAG	PWR800_DISCHARGE
TITLE	LABEL	PWR Cyclic Charge Discharge (Cell) - Discharge Step	Test &Identifier
DATE	LABEL	7-7-2017	Date
TIME	LABEL	16:13:49	Time
NOTES	NOTES	3	&Notes...
	supercap test cell
	2.8mg
	6M KOH
PSTAT	PSTAT	IFC5000-01520	Potentiostat
CAPACITY	QUANT	1.00000E-003	Capacity (A-hr)
CELLTYPE	SELECTOR	1	&Cell Type
WORKINGCONNECTION	SELECTOR	0	&Working Lead
MAXDISCHARGETIME	VARIABLEANDUNITS	1.00000E+002	s	1.00000E+002	second(s)	Max &Discharge Time
DISCHARGEMODE	MULTIPARAM	0	2.80000E-004	&Discharge Mode	Constant Current	Amp(s)
SAMPLETIME	QUANT	1.00000E-002	Sa&mple Period (s)
DISCHARGESTOPAT1	MULTIPARAM	3	0.00000E+000	Discharge Stop At &1	Voltage < Limit	V
DISCHARGESTOPAT2	MULTIPARAM	0	0.00000E+000	Discharge Stop At &2	None	N/A
AESBHCSELECTOR	TOGGLE	F	Save Both Half Cells
IRCOMP	TOGGLE	F	IR &Measure
EOC	QUANT	0	Open Circuit (V)
SEQUENCER	TOGGLE	TRUE	Run as Sequence
PSTATMODEL	IQUANT	53	Pstat Model
PSTATSECTION	LABEL	IFC5000-01520	Pstat Section
PSTATSERIALNO	LABEL	01520	Pstat Serial Number
CTRLMODE	IQUANT	0	Control Mode
ELECTROMETER	IQUANT	1	RE=0 or CS=1
IESTAB	IQUANT	0	I/E Stability
CASPEED	IQUANT	4	Control Amp Speed
CONVENTION	IQUANT	1	Current Convention
ICHRANGE	IQUANT	2	Ich Range
ICHRANGEMODE	TOGGLE	T	Ich Auto Range
ICHOFFSETENABLE	TOGGLE	F	Ich Offset Enable
ICHOFFSET	QUANT	0	Ich Offset (V)
ICHFILTER	IQUANT	1	Ich Filter
VCHRANGE	IQUANT	2	Vch Range
VCHRANGEMODE	TOGGLE	T	Vch Auto Range
VCHOFFSETENABLE	TOGGLE	F	Vch Offset Enable
VCHOFFSET	QUANT	0	Vch Offset (V)
VCHFILTER	IQUANT	1	Vch Filter
IERANGELOWERLIMIT	IQUANT	9	I/E Range Lower Limit
IERANGEMODE	TOGGLE	F	I/E AutoRange
IERANGE	IQUANT	9	I/E Range
ACHSELECT	IQUANT	1	Ach Select
ACHRANGE	IQUANT	2	Ach Range
ACHOFFSETENABLE	TOGGLE	F	Ach Offset Enable
ACHOFFSET	QUANT	0	Ach Offset (V)
ACHFILTER	IQUANT	1	Ach Filter
CABLEID	IQUANT	14	Cable ID
DCCALDATE	LABEL	5-7-2017	DC Calibration Date
ACCALDATE	LABEL	12/3/2015	AC Calibration Date
FRAMEWORKVERSION	QUANT	7.01	Framework Version
INSTRUMENTVERSION	LABEL	4.00	Instrument Version
CURVE	TABLE	59
	Pt	T	Vf	Im	Vu	Pwr	Sig	Ach	Temp	IERange	Over
	#	s	V	A	V	W	V	V	deg C	#	bits
	0	0.013333	5.26727E-001	-2.77965E-004	0.00000E+000	-1.46412E-004	-1.68088E-001	5.26980E-001	3.57810E+000	9	...........
	1	0.026667	4.93293E-001	-2.79305E-004	0.00000E+000	-1.37779E-004	-1.68088E-001	4.93529E-001	3.57810E+000	9	...........
	2	0.04	4.62869E-001	-2.78256E-004	0.00000E+000	-1.28796E-004	-1.68088E-001	4.62981E-001	3.57810E+000	9	...........
	3	0.053333	4.34297E-001	-2.79276E-004	0.00000E+000	-1.21289E-004	-1.68088E-001	4.34400E-001	3.57810E+000	9	...........
	4	0.066667	4.07604E-001	-2.78921E-004	0.00000E+000	-1.13689E-004	-1.68088E-001	4.07697E-001	3.57810E+000	9	...........
	5	0.08	3.82660E-001	-2.78633E-004	0.00000E+000	-1.06622E-004	-1.68088E-001	3.82746E-001	3.57810E+000	9	...........
	6	0.093333	3.59356E-001	-2.78876E-004	0.00000E+000	-1.00216E-004	-1.68088E-001	3.59437E-001	3.57810E+000	9	...........
	7	0.106667	3.37571E-001	-2.78762E-004	0.00000E+000	-9.41022E-005	-1.68088E-001	3.37648E-001	3.57810E+000	9	...........
	8	0.12	3.17267E-001	-2.78275E-004	0.00000E+000	-8.82874E-005	-1.68088E-001	3.17338E-001	3.57810E+000	9	...........
	9	0.133333	2.98378E-001	-2.78797E-004	0.00000E+000	-8.31869E-005	-1.68088E-001	2.98448E-001	3.57810E+000	9	...........
	10	0.146667	2.80811E-001	-2.79796E-004	0.00000E+000	-7.85697E-005	-1.68088E-001	2.80876E-001	3.57810E+000	9	...........
	11	0.16	2.64502E-001	-2.80404E-004	0.00000E+000	-7.41677E-005	-1.68088E-001	2.64564E-001	3.57810E+000	9	...........
	12	0.173333	2.49375E-001	-2.79070E-004	0.00000E+000	-6.95931E-005	-1.68088E-001	2.49430E-001	3.57810E+000	9	...........
	13	0.186667	2.35330E-001	-2.78400E-004	0.00000E+000	-6.55159E-005	-1.68088E-001	2.35382E-001	3.57810E+000	9	...........
	14	0.2	2.22242E-001	-2.79650E-004	0.00000E+000	-6.21499E-005	-1.68088E-001	2.22293E-001	3.57810E+000	9	...........
	15	0.213333	2.10094E-001	-2.78087E-004	0.00000E+000	-5.84244E-005	-1.68088E-001	2.10145E-001	3.57810E+000	9	...........
	16	0.226667	1.98787E-001	-2.78633E-004	0.00000E+000	-5.53886E-005	-1.68088E-001	1.98832E-001	3.57810E+000	9	...........
	17	0.24	1.88256E-001	-2.78865E-004	0.00000E+000	-5.24979E-005	-1.68088E-001	1.88298E-001	3.57810E+000	9	...........
	18	0.253333	1.78439E-001	-2.77913E-004	0.00000E+000	-4.95905E-005	-1.68088E-001	1.78478E-001	3.57810E+000	9	...........
	19	0.266667	1.69242E-001	-2.78712E-004	0.00000E+000	-4.71699E-005	-1.68088E-001	1.69274E-001	3.57810E+000	9	...........
	20	0.28	1.60631E-001	-2.79623E-004	0.00000E+000	-4.49162E-005	-1.68088E-001	1.60659E-001	3.57810E+000	9	...........
	21	0.293333	1.52515E-001	-2.78240E-004	0.00000E+000	-4.24359E-005	-1.68088E-001	1.52543E-001	3.57800E+000	9	...........
	22	0.306667	1.44894E-001	-2.79190E-004	0.00000E+000	-4.04528E-005	-1.68088E-001	1.44919E-001	3.57730E+000	9	...........
	23	0.32	1.37678E-001	-2.78604E-004	0.00000E+000	-3.83575E-005	-1.68088E-001	1.37710E-001	3.57730E+000	9	...........
	24	0.333333	1.30877E-001	-2.78387E-004	0.00000E+000	-3.64344E-005	-1.68088E-001	1.30911E-001	3.57730E+000	9	...........
	25	0.346667	1.24464E-001	-2.78990E-004	0.00000E+000	-3.47241E-005	-1.68088E-001	1.24488E-001	3.57730E+000	9	...........
	26	0.36	1.18384E-001	-2.79631E-004	0.00000E+000	-3.31038E-005	-1.68088E-001	1.18417E-001	3.57730E+000	9	...........
	27	0.373333	1.12537E-001	-2.78674E-004	0.00000E+000	-3.13612E-005	-1.68088E-001	1.12570E-001	3.57730E+000	9	...........
	28	0.386667	1.07006E-001	-2.79362E-004	0.00000E+000	-2.98934E-005	-1.68088E-001	1.07037E-001	3.57730E+000	9	...........
	29	0.4	1.01684E-001	-2.78150E-004	0.00000E+000	-2.82834E-005	-1.68088E-001	1.01714E-001	3.57730E+000	9	...........
	30	0.413333	9.66061E-002	-2.77762E-004	0.00000E+000	-2.68335E-005	-1.68088E-001	9.66319E-002	3.57730E+000	9	...........
	31	0.426667	9.17390E-002	-2.77977E-004	0.00000E+000	-2.55013E-005	-1.68088E-001	9.17572E-002	3.57730E+000	9	...........
	32	0.44	8.69861E-002	-2.79083E-004	0.00000E+000	-2.42764E-005	-1.68088E-001	8.70062E-002	3.57730E+000	9	...........
	33	0.453333	8.24301E-002	-2.78252E-004	0.00000E+000	-2.29363E-005	-1.68088E-001	8.24481E-002	3.57730E+000	9	...........
	34	0.466667	7.80410E-002	-2.78718E-004	0.00000E+000	-2.17514E-005	-1.68088E-001	7.80555E-002	3.57730E+000	9	...........
	35	0.48	7.38118E-002	-2.79283E-004	0.00000E+000	-2.06144E-005	-1.68088E-001	7.38256E-002	3.57730E+000	9	...........
	36	0.493333	6.96858E-002	-2.78750E-004	0.00000E+000	-1.94249E-005	-1.68088E-001	6.97017E-002	3.57730E+000	9	...........
	37	0.506667	6.57230E-002	-2.79687E-004	0.00000E+000	-1.83818E-005	-1.68088E-001	6.57327E-002	3.57730E+000	9	...........
	38	0.52	6.18634E-002	-2.78826E-004	0.00000E+000	-1.72491E-005	-1.68088E-001	6.18776E-002	3.57730E+000	9	...........
	39	0.533333	5.80747E-002	-2.78458E-004	0.00000E+000	-1.61714E-005	-1.68088E-001	5.80844E-002	3.57730E+000	9	...........
	40	0.546667	5.44101E-002	-2.79199E-004	0.00000E+000	-1.51912E-005	-1.68088E-001	5.44241E-002	3.57730E+000	9	...........
	41	0.56	5.07983E-002	-2.79823E-004	0.00000E+000	-1.42145E-005	-1.68088E-001	5.08096E-002	3.57730E+000	9	...........
	42	0.573333	4.73423E-002	-2.78287E-004	0.00000E+000	-1.31748E-005	-1.68088E-001	4.73479E-002	3.57730E+000	9	...........
	43	0.586667	4.39148E-002	-2.77500E-004	0.00000E+000	-1.21863E-005	-1.68088E-001	4.39269E-002	3.57730E+000	9	...........
	44	0.6	4.05663E-002	-2.78649E-004	0.00000E+000	-1.13037E-005	-1.68088E-001	4.05754E-002	3.57730E+000	9	...........
	45	0.613333	3.73470E-002	-2.78709E-004	0.00000E+000	-1.04089E-005	-1.68088E-001	3.73540E-002	3.57730E+000	9	...........
	46	0.626667	3.41833E-002	-2.77820E-004	0.00000E+000	-9.49678E-006	-1.68088E-001	3.41851E-002	3.57730E+000	9	...........
	47	0.64	3.11183E-002	-2.79127E-004	0.00000E+000	-8.68595E-006	-1.68088E-001	3.11165E-002	3.57730E+000	9	...........
	48	0.653333	2.80495E-002	-2.79584E-004	0.00000E+000	-7.84220E-006	-1.68088E-001	2.80548E-002	3.57730E+000	9	...........
	49	0.666667	2.50675E-002	-2.80162E-004	0.00000E+000	-7.02297E-006	-1.68088E-001	2.50663E-002	3.57730E+000	9	...........
	50	0.68	2.21365E-002	-2.77656E-004	0.00000E+000	-6.14634E-006	-1.68088E-001	2.21334E-002	3.57730E+000	9	...........
	51	0.693333	1.92367E-002	-2.79269E-004	0.00000E+000	-5.37221E-006	-1.68088E-001	1.92277E-002	3.57730E+000	9	...........
	52	0.706667	1.63464E-002	-2.78193E-004	0.00000E+000	-4.54744E-006	-1.68088E-001	1.63388E-002	3.57730E+000	9	...........
	53	0.72	1.34808E-002	-2.79045E-004	0.00000E+000	-3.76175E-006	-1.68088E-001	1.34712E-002	3.57730E+000	9	...........
	54	0.733333	1.07167E-002	-2.78930E-004	0.00000E+000	-2.98921E-006	-1.68088E-001	1.07098E-002	3.57730E+000	9	...........
	55	0.746667	7.95222E-003	-2.77409E-004	0.00000E+000	-2.20602E-006	-1.68088E-001	7.94156E-003	3.57730E+000	9	...........
	56	0.76	5.27069E-003	-2.79018E-004	0.00000E+000	-1.47061E-006	-1.68088E-001	5.25664E-003	3.57730E+000	9	...........
	57	0.773333	2.61980E-003	-2.77608E-004	0.00000E+000	-7.27278E-007	-1.68088E-001	2.60659E-003	3.57730E+000	9	...........
	58	0.781667	4.21590E-004	-2.79300E-004	0.00000E+000	-1.17750E-007	-1.68088E-001	4.01326E-004	3.57730E+000	9	...........
STARTTIMEOFFSET	QUANT	1677.782	Start Time Offset (s)
