EXPLAIN
TAG	PWR800_DISCHARGE
TITLE	LABEL	PWR Cyclic Charge Discharge (Cell) - Discharge Step	Test &Identifier
DATE	LABEL	7-7-2017	Date
TIME	LABEL	16:14:29	Time
NOTES	NOTES	3	&Notes...
	supercap test cell
	2.8mg
	6M KOH
PSTAT	PSTAT	IFC5000-01520	Potentiostat
CAPACITY	QUANT	1.00000E-003	Capacity (A-hr)
CELLTYPE	SELECTOR	1	&Cell Type
WORKINGCONNECTION	SELECTOR	0	&Working Lead
MAXDISCHARGETIME	VARIABLEANDUNITS	1.00000E+002	s	1.00000E+002	second(s)	Max &Discharge Time
DISCHARGEMODE	MULTIPARAM	0	2.80000E-004	&Discharge Mode	Constant Current	Amp(s)
SAMPLETIME	QUANT	1.00000E-002	Sa&mple Period (s)
DISCHARGESTOPAT1	MULTIPARAM	3	0.00000E+000	Discharge Stop At &1	Voltage < Limit	V
DISCHARGESTOPAT2	MULTIPARAM	0	0.00000E+000	Discharge Stop At &2	None	N/A
AESBHCSELECTOR	TOGGLE	F	Save Both Half Cells
IRCOMP	TOGGLE	F	IR &Measure
EOC	QUANT	0	Open Circuit (V)
SEQUENCER	TOGGLE	TRUE	Run as Sequence
PSTATMODEL	IQUANT	53	Pstat Model
PSTATSECTION	LABEL	IFC5000-01520	Pstat Section
PSTATSERIALNO	LABEL	01520	Pstat Serial Number
CTRLMODE	IQUANT	0	Control Mode
ELECTROMETER	IQUANT	1	RE=0 or CS=1
IESTAB	IQUANT	0	I/E Stability
CASPEED	IQUANT	4	Control Amp Speed
CONVENTION	IQUANT	1	Current Convention
ICHRANGE	IQUANT	2	Ich Range
ICHRANGEMODE	TOGGLE	T	Ich Auto Range
ICHOFFSETENABLE	TOGGLE	F	Ich Offset Enable
ICHOFFSET	QUANT	0	Ich Offset (V)
ICHFILTER	IQUANT	1	Ich Filter
VCHRANGE	IQUANT	2	Vch Range
VCHRANGEMODE	TOGGLE	T	Vch Auto Range
VCHOFFSETENABLE	TOGGLE	F	Vch Offset Enable
VCHOFFSET	QUANT	0	Vch Offset (V)
VCHFILTER	IQUANT	1	Vch Filter
IERANGELOWERLIMIT	IQUANT	9	I/E Range Lower Limit
IERANGEMODE	TOGGLE	F	I/E AutoRange
IERANGE	IQUANT	9	I/E Range
ACHSELECT	IQUANT	1	Ach Select
ACHRANGE	IQUANT	2	Ach Range
ACHOFFSETENABLE	TOGGLE	F	Ach Offset Enable
ACHOFFSET	QUANT	0	Ach Offset (V)
ACHFILTER	IQUANT	1	Ach Filter
CABLEID	IQUANT	14	Cable ID
DCCALDATE	LABEL	5-7-2017	DC Calibration Date
ACCALDATE	LABEL	12/3/2015	AC Calibration Date
FRAMEWORKVERSION	QUANT	7.01	Framework Version
INSTRUMENTVERSION	LABEL	4.00	Instrument Version
CURVE	TABLE	58
	Pt	T	Vf	Im	Vu	Pwr	Sig	Ach	Temp	IERange	Over
	#	s	V	A	V	W	V	V	deg C	#	bits
	0	0.013333	5.17733E-001	-2.80755E-004	0.00000E+000	-1.45356E-004	-1.68088E-001	5.17972E-001	3.57730E+000	9	...........
	1	0.026667	4.84428E-001	-2.79002E-004	0.00000E+000	-1.35156E-004	-1.68088E-001	4.84618E-001	3.57730E+000	9	...........
	2	0.04	4.53988E-001	-2.79564E-004	0.00000E+000	-1.26919E-004	-1.68088E-001	4.54090E-001	3.57730E+000	9	...........
	3	0.053333	4.25569E-001	-2.79571E-004	0.00000E+000	-1.18977E-004	-1.68088E-001	4.25666E-001	3.57730E+000	9	...........
	4	0.066667	3.99083E-001	-2.78856E-004	0.00000E+000	-1.11287E-004	-1.68088E-001	3.99170E-001	3.57730E+000	9	...........
	5	0.08	3.74381E-001	-2.77560E-004	0.00000E+000	-1.03913E-004	-1.68088E-001	3.74464E-001	3.57730E+000	9	...........
	6	0.093333	3.51311E-001	-2.77664E-004	0.00000E+000	-9.75464E-005	-1.68088E-001	3.51385E-001	3.57730E+000	9	...........
	7	0.106667	3.29813E-001	-2.79375E-004	0.00000E+000	-9.21416E-005	-1.68088E-001	3.29889E-001	3.57730E+000	9	...........
	8	0.12	3.09771E-001	-2.80847E-004	0.00000E+000	-8.69984E-005	-1.68088E-001	3.09842E-001	3.57730E+000	9	...........
	9	0.133333	2.91147E-001	-2.79222E-004	0.00000E+000	-8.12946E-005	-1.68088E-001	2.91210E-001	3.57730E+000	9	...........
	10	0.146667	2.73895E-001	-2.78677E-004	0.00000E+000	-7.63281E-005	-1.68088E-001	2.73958E-001	3.57730E+000	9	...........
	11	0.16	2.57881E-001	-2.78867E-004	0.00000E+000	-7.19145E-005	-1.68088E-001	2.57947E-001	3.57730E+000	9	...........
	12	0.173333	2.42999E-001	-2.79086E-004	0.00000E+000	-6.78178E-005	-1.68088E-001	2.43052E-001	3.57730E+000	9	...........
	13	0.186667	2.29204E-001	-2.78504E-004	0.00000E+000	-6.38343E-005	-1.68088E-001	2.29251E-001	3.57730E+000	9	...........
	14	0.2	2.16381E-001	-2.79055E-004	0.00000E+000	-6.03822E-005	-1.68088E-001	2.16428E-001	3.57730E+000	9	...........
	15	0.213333	2.04445E-001	-2.77941E-004	0.00000E+000	-5.68238E-005	-1.68088E-001	2.04487E-001	3.57730E+000	9	...........
	16	0.226667	1.93322E-001	-2.79566E-004	0.00000E+000	-5.40463E-005	-1.68088E-001	1.93366E-001	3.57730E+000	9	...........
	17	0.24	1.82981E-001	-2.78956E-004	0.00000E+000	-5.10438E-005	-1.68088E-001	1.83022E-001	3.57730E+000	9	...........
	18	0.253333	1.73371E-001	-2.78124E-004	0.00000E+000	-4.82185E-005	-1.68088E-001	1.73413E-001	3.57730E+000	9	...........
	19	0.266667	1.64383E-001	-2.78510E-004	0.00000E+000	-4.57825E-005	-1.68088E-001	1.64419E-001	3.57730E+000	9	...........
	20	0.28	1.55898E-001	-2.79057E-004	0.00000E+000	-4.35046E-005	-1.68088E-001	1.55933E-001	3.57730E+000	9	...........
	21	0.293333	1.47930E-001	-2.77168E-004	0.00000E+000	-4.10016E-005	-1.68088E-001	1.47961E-001	3.57730E+000	9	...........
	22	0.306667	1.40422E-001	-2.79298E-004	0.00000E+000	-3.92195E-005	-1.68088E-001	1.40456E-001	3.57730E+000	9	...........
	23	0.32	1.33353E-001	-2.79919E-004	0.00000E+000	-3.73279E-005	-1.68088E-001	1.33378E-001	3.57730E+000	9	...........
	24	0.333333	1.26635E-001	-2.79386E-004	0.00000E+000	-3.53800E-005	-1.68088E-001	1.26663E-001	3.57730E+000	9	...........
	25	0.346667	1.20293E-001	-2.77380E-004	0.00000E+000	-3.33669E-005	-1.68088E-001	1.20322E-001	3.57730E+000	9	...........
	26	0.36	1.14251E-001	-2.78380E-004	0.00000E+000	-3.18051E-005	-1.68088E-001	1.14280E-001	3.57730E+000	9	...........
	27	0.373333	1.08519E-001	-2.77368E-004	0.00000E+000	-3.00998E-005	-1.68088E-001	1.08540E-001	3.57730E+000	9	...........
	28	0.386667	1.03053E-001	-2.77992E-004	0.00000E+000	-2.86480E-005	-1.68088E-001	1.03074E-001	3.57730E+000	9	...........
	29	0.4	9.78615E-002	-2.79057E-004	0.00000E+000	-2.73090E-005	-1.68088E-001	9.78930E-002	3.57730E+000	9	...........
	30	0.413333	9.28230E-002	-2.78999E-004	0.00000E+000	-2.58975E-005	-1.68088E-001	9.28478E-002	3.57730E+000	9	...........
	31	0.426667	8.79963E-002	-2.78767E-004	0.00000E+000	-2.45304E-005	-1.68088E-001	8.80149E-002	3.57730E+000	9	...........
	32	0.44	8.33460E-002	-2.78991E-004	0.00000E+000	-2.32527E-005	-1.68088E-001	8.33681E-002	3.57730E+000	9	...........
	33	0.453333	7.89056E-002	-2.78749E-004	0.00000E+000	-2.19949E-005	-1.68088E-001	7.89239E-002	3.57730E+000	9	...........
	34	0.466667	7.45845E-002	-2.79107E-004	0.00000E+000	-2.08171E-005	-1.68088E-001	7.46031E-002	3.57730E+000	9	...........
	35	0.48	7.04105E-002	-2.79779E-004	0.00000E+000	-1.96994E-005	-1.68088E-001	7.04247E-002	3.57730E+000	9	...........
	36	0.493333	6.63574E-002	-2.79801E-004	0.00000E+000	-1.85669E-005	-1.68088E-001	6.63694E-002	3.57730E+000	9	...........
	37	0.506667	6.24642E-002	-2.79032E-004	0.00000E+000	-1.74295E-005	-1.68088E-001	6.24729E-002	3.57730E+000	9	...........
	38	0.52	5.86368E-002	-2.78837E-004	0.00000E+000	-1.63501E-005	-1.68088E-001	5.86467E-002	3.57730E+000	9	...........
	39	0.533333	5.49356E-002	-2.79762E-004	0.00000E+000	-1.53689E-005	-1.68088E-001	5.49411E-002	3.57730E+000	9	...........
	40	0.546667	5.13397E-002	-2.79428E-004	0.00000E+000	-1.43458E-005	-1.68088E-001	5.13488E-002	3.57730E+000	9	...........
	41	0.56	4.78353E-002	-2.77892E-004	0.00000E+000	-1.32931E-005	-1.68088E-001	4.78494E-002	3.57730E+000	9	...........
	42	0.573333	4.43994E-002	-2.79214E-004	0.00000E+000	-1.23969E-005	-1.68088E-001	4.44082E-002	3.57730E+000	9	...........
	43	0.586667	4.09869E-002	-2.78512E-004	0.00000E+000	-1.14154E-005	-1.68088E-001	4.09950E-002	3.57730E+000	9	...........
	44	0.6	3.76583E-002	-2.77781E-004	0.00000E+000	-1.04608E-005	-1.68088E-001	3.76656E-002	3.57730E+000	9	...........
	45	0.613333	3.44086E-002	-2.79856E-004	0.00000E+000	-9.62946E-006	-1.68088E-001	3.44082E-002	3.57730E+000	9	...........
	46	0.626667	3.12048E-002	-2.78301E-004	0.00000E+000	-8.68432E-006	-1.68088E-001	3.12058E-002	3.57730E+000	9	...........
	47	0.64	2.80585E-002	-2.78890E-004	0.00000E+000	-7.82521E-006	-1.68088E-001	2.80588E-002	3.57730E+000	9	...........
	48	0.653333	2.50220E-002	-2.78639E-004	0.00000E+000	-6.97211E-006	-1.68088E-001	2.50240E-002	3.57730E+000	9	...........
	49	0.666667	2.20183E-002	-2.78338E-004	0.00000E+000	-6.12855E-006	-1.68088E-001	2.20168E-002	3.57730E+000	9	...........
	50	0.68	1.89966E-002	-2.78379E-004	0.00000E+000	-5.28826E-006	-1.68088E-001	1.89916E-002	3.57730E+000	9	...........
	51	0.693333	1.60762E-002	-2.79568E-004	0.00000E+000	-4.49438E-006	-1.68088E-001	1.60665E-002	3.57730E+000	9	...........
	52	0.706667	1.31953E-002	-2.78685E-004	0.00000E+000	-3.67734E-006	-1.68088E-001	1.31856E-002	3.57730E+000	9	...........
	53	0.72	1.03946E-002	-2.78495E-004	0.00000E+000	-2.89483E-006	-1.68088E-001	1.03838E-002	3.57730E+000	9	...........
	54	0.733333	7.63254E-003	-2.79687E-004	0.00000E+000	-2.13472E-006	-1.68088E-001	7.61822E-003	3.57730E+000	9	...........
	55	0.746667	4.89933E-003	-2.79199E-004	0.00000E+000	-1.36789E-006	-1.68088E-001	4.88202E-003	3.57730E+000	9	...........
	56	0.76	2.21143E-003	-2.79497E-004	0.00000E+000	-6.18087E-007	-1.68088E-001	2.19150E-003	3.57730E+000	9	...........
	57	0.766667	2.01688E-004	-2.79636E-004	0.00000E+000	-5.63991E-008	-1.68088E-001	1.73446E-004	3.57730E+000	9	...........
STARTTIMEOFFSET	QUANT	1703.915	Start Time Offset (s)
