EXPLAIN
TAG	PWR800_DISCHARGE
TITLE	LABEL	PWR Cyclic Charge Discharge (Cell) - Discharge Step	Test &Identifier
DATE	LABEL	7-7-2017	Date
TIME	LABEL	16:13:40	Time
NOTES	NOTES	3	&Notes...
	supercap test cell
	2.8mg
	6M KOH
PSTAT	PSTAT	IFC5000-01520	Potentiostat
CAPACITY	QUANT	1.00000E-003	Capacity (A-hr)
CELLTYPE	SELECTOR	1	&Cell Type
WORKINGCONNECTION	SELECTOR	0	&Working Lead
MAXDISCHARGETIME	VARIABLEANDUNITS	1.00000E+002	s	1.00000E+002	second(s)	Max &Discharge Time
DISCHARGEMODE	MULTIPARAM	0	2.80000E-004	&Discharge Mode	Constant Current	Amp(s)
SAMPLETIME	QUANT	1.00000E-002	Sa&mple Period (s)
DISCHARGESTOPAT1	MULTIPARAM	3	0.00000E+000	Discharge Stop At &1	Voltage < Limit	V
DISCHARGESTOPAT2	MULTIPARAM	0	0.00000E+000	Discharge Stop At &2	None	N/A
AESBHCSELECTOR	TOGGLE	F	Save Both Half Cells
IRCOMP	TOGGLE	F	IR &Measure
EOC	QUANT	0	Open Circuit (V)
SEQUENCER	TOGGLE	TRUE	Run as Sequence
PSTATMODEL	IQUANT	53	Pstat Model
PSTATSECTION	LABEL	IFC5000-01520	Pstat Section
PSTATSERIALNO	LABEL	01520	Pstat Serial Number
CTRLMODE	IQUANT	0	Control Mode
ELECTROMETER	IQUANT	1	RE=0 or CS=1
IESTAB	IQUANT	0	I/E Stability
CASPEED	IQUANT	4	Control Amp Speed
CONVENTION	IQUANT	1	Current Convention
ICHRANGE	IQUANT	2	Ich Range
ICHRANGEMODE	TOGGLE	T	Ich Auto Range
ICHOFFSETENABLE	TOGGLE	F	Ich Offset Enable
ICHOFFSET	QUANT	0	Ich Offset (V)
ICHFILTER	IQUANT	1	Ich Filter
VCHRANGE	IQUANT	2	Vch Range
VCHRANGEMODE	TOGGLE	T	Vch Auto Range
VCHOFFSETENABLE	TOGGLE	F	Vch Offset Enable
VCHOFFSET	QUANT	0	Vch Offset (V)
VCHFILTER	IQUANT	1	Vch Filter
IERANGELOWERLIMIT	IQUANT	9	I/E Range Lower Limit
IERANGEMODE	TOGGLE	F	I/E AutoRange
IERANGE	IQUANT	9	I/E Range
ACHSELECT	IQUANT	1	Ach Select
ACHRANGE	IQUANT	2	Ach Range
ACHOFFSETENABLE	TOGGLE	F	Ach Offset Enable
ACHOFFSET	QUANT	0	Ach Offset (V)
ACHFILTER	IQUANT	1	Ach Filter
CABLEID	IQUANT	14	Cable ID
DCCALDATE	LABEL	5-7-2017	DC Calibration Date
ACCALDATE	LABEL	12/3/2015	AC Calibration Date
FRAMEWORKVERSION	QUANT	7.01	Framework Version
INSTRUMENTVERSION	LABEL	4.00	Instrument Version
CURVE	TABLE	59
	Pt	T	Vf	Im	Vu	Pwr	Sig	Ach	Temp	IERange	Over
	#	s	V	A	V	W	V	V	deg C	#	bits
	0	0.013333	5.27204E-001	-2.78437E-004	0.00000E+000	-1.46793E-004	-1.68088E-001	5.27440E-001	3.57830E+000	9	...........
	1	0.026667	4.93765E-001	-2.79813E-004	0.00000E+000	-1.38162E-004	-1.68088E-001	4.94025E-001	3.57830E+000	9	...........
	2	0.04	4.63391E-001	-2.78354E-004	0.00000E+000	-1.28987E-004	-1.68088E-001	4.63502E-001	3.57830E+000	9	...........
	3	0.053333	4.34863E-001	-2.77766E-004	0.00000E+000	-1.20790E-004	-1.68088E-001	4.34970E-001	3.57830E+000	9	...........
	4	0.066667	4.08222E-001	-2.78649E-004	0.00000E+000	-1.13751E-004	-1.68088E-001	4.08319E-001	3.57830E+000	9	...........
	5	0.08	3.83304E-001	-2.80256E-004	0.00000E+000	-1.07424E-004	-1.68088E-001	3.83395E-001	3.57799E+000	9	...........
	6	0.093333	3.60027E-001	-2.78587E-004	0.00000E+000	-1.00299E-004	-1.68088E-001	3.60108E-001	3.57780E+000	9	...........
	7	0.106667	3.38295E-001	-2.78197E-004	0.00000E+000	-9.41126E-005	-1.68088E-001	3.38377E-001	3.57780E+000	9	...........
	8	0.12	3.18035E-001	-2.79350E-004	0.00000E+000	-8.88432E-005	-1.68088E-001	3.18114E-001	3.57780E+000	9	...........
	9	0.133333	2.99183E-001	-2.78543E-004	0.00000E+000	-8.33352E-005	-1.68088E-001	2.99258E-001	3.57780E+000	9	...........
	10	0.146667	2.81641E-001	-2.79250E-004	0.00000E+000	-7.86483E-005	-1.68088E-001	2.81710E-001	3.57780E+000	9	...........
	11	0.16	2.65345E-001	-2.78674E-004	0.00000E+000	-7.39446E-005	-1.68088E-001	2.65412E-001	3.57780E+000	9	...........
	12	0.173333	2.50221E-001	-2.78466E-004	0.00000E+000	-6.96779E-005	-1.68088E-001	2.50281E-001	3.57780E+000	9	...........
	13	0.186667	2.36211E-001	-2.78120E-004	0.00000E+000	-6.56949E-005	-1.68088E-001	2.36261E-001	3.57780E+000	9	...........
	14	0.2	2.23157E-001	-2.78472E-004	0.00000E+000	-6.21430E-005	-1.68088E-001	2.23210E-001	3.57780E+000	9	...........
	15	0.213333	2.10986E-001	-2.78403E-004	0.00000E+000	-5.87392E-005	-1.68088E-001	2.11033E-001	3.57780E+000	9	...........
	16	0.226667	1.99672E-001	-2.78864E-004	0.00000E+000	-5.56812E-005	-1.68088E-001	1.99720E-001	3.57780E+000	9	...........
	17	0.24	1.89098E-001	-2.80059E-004	0.00000E+000	-5.29584E-005	-1.68088E-001	1.89145E-001	3.57780E+000	9	...........
	18	0.253333	1.79282E-001	-2.77666E-004	0.00000E+000	-4.97805E-005	-1.68088E-001	1.79326E-001	3.57780E+000	9	...........
	19	0.266667	1.70074E-001	-2.78164E-004	0.00000E+000	-4.73086E-005	-1.68088E-001	1.70122E-001	3.57780E+000	9	...........
	20	0.28	1.61472E-001	-2.78042E-004	0.00000E+000	-4.48962E-005	-1.68088E-001	1.61509E-001	3.57780E+000	9	...........
	21	0.293333	1.53390E-001	-2.78284E-004	0.00000E+000	-4.26861E-005	-1.68088E-001	1.53426E-001	3.57780E+000	9	...........
	22	0.306667	1.45751E-001	-2.79723E-004	0.00000E+000	-4.07699E-005	-1.68088E-001	1.45786E-001	3.57780E+000	9	...........
	23	0.32	1.38560E-001	-2.78748E-004	0.00000E+000	-3.86233E-005	-1.68088E-001	1.38593E-001	3.57780E+000	9	...........
	24	0.333333	1.31782E-001	-2.80035E-004	0.00000E+000	-3.69034E-005	-1.68088E-001	1.31815E-001	3.57780E+000	9	...........
	25	0.346667	1.25411E-001	-2.77838E-004	0.00000E+000	-3.48441E-005	-1.68088E-001	1.25439E-001	3.57780E+000	9	...........
	26	0.36	1.19348E-001	-2.80096E-004	0.00000E+000	-3.34288E-005	-1.68088E-001	1.19373E-001	3.57780E+000	9	...........
	27	0.373333	1.13517E-001	-2.78220E-004	0.00000E+000	-3.15826E-005	-1.68088E-001	1.13542E-001	3.57780E+000	9	...........
	28	0.386667	1.07969E-001	-2.79687E-004	0.00000E+000	-3.01975E-005	-1.68088E-001	1.07997E-001	3.57780E+000	9	...........
	29	0.4	1.02653E-001	-2.79692E-004	0.00000E+000	-2.87112E-005	-1.68088E-001	1.02678E-001	3.57780E+000	9	...........
	30	0.413333	9.75222E-002	-2.79761E-004	0.00000E+000	-2.72829E-005	-1.68088E-001	9.75447E-002	3.57780E+000	9	...........
	31	0.426667	9.26451E-002	-2.79609E-004	0.00000E+000	-2.59045E-005	-1.68088E-001	9.26738E-002	3.57780E+000	9	...........
	32	0.44	8.79463E-002	-2.79681E-004	0.00000E+000	-2.45970E-005	-1.68088E-001	8.79641E-002	3.57780E+000	9	...........
	33	0.453333	8.33769E-002	-2.77261E-004	0.00000E+000	-2.31172E-005	-1.68088E-001	8.33976E-002	3.57780E+000	9	...........
	34	0.466667	7.89684E-002	-2.78658E-004	0.00000E+000	-2.20052E-005	-1.68088E-001	7.89870E-002	3.57780E+000	9	...........
	35	0.48	7.46957E-002	-2.78897E-004	0.00000E+000	-2.08324E-005	-1.68088E-001	7.47122E-002	3.57780E+000	9	...........
	36	0.493333	7.05865E-002	-2.79330E-004	0.00000E+000	-1.97170E-005	-1.68088E-001	7.06004E-002	3.57780E+000	9	...........
	37	0.506667	6.66045E-002	-2.79646E-004	0.00000E+000	-1.86257E-005	-1.68088E-001	6.66150E-002	3.57780E+000	9	...........
	38	0.52	6.27414E-002	-2.78568E-004	0.00000E+000	-1.74777E-005	-1.68088E-001	6.27568E-002	3.57780E+000	9	...........
	39	0.533333	5.89683E-002	-2.80739E-004	0.00000E+000	-1.65547E-005	-1.68088E-001	5.89828E-002	3.57780E+000	9	...........
	40	0.546667	5.52961E-002	-2.78629E-004	0.00000E+000	-1.54071E-005	-1.68088E-001	5.53090E-002	3.57780E+000	9	...........
	41	0.56	5.16848E-002	-2.79898E-004	0.00000E+000	-1.44665E-005	-1.68088E-001	5.16970E-002	3.57780E+000	9	...........
	42	0.573333	4.82150E-002	-2.78466E-004	0.00000E+000	-1.34262E-005	-1.68088E-001	4.82215E-002	3.57780E+000	9	...........
	43	0.586667	4.48161E-002	-2.78557E-004	0.00000E+000	-1.24839E-005	-1.68088E-001	4.48269E-002	3.57780E+000	9	...........
	44	0.6	4.14612E-002	-2.78999E-004	0.00000E+000	-1.15676E-005	-1.68088E-001	4.14687E-002	3.57780E+000	9	...........
	45	0.613333	3.81633E-002	-2.77828E-004	0.00000E+000	-1.06028E-005	-1.68088E-001	3.81729E-002	3.57780E+000	9	...........
	46	0.626667	3.48764E-002	-2.78783E-004	0.00000E+000	-9.72297E-006	-1.68088E-001	3.48820E-002	3.57780E+000	9	...........
	47	0.64	3.17093E-002	-2.78680E-004	0.00000E+000	-8.83675E-006	-1.68088E-001	3.17106E-002	3.57780E+000	9	...........
	48	0.653333	2.86576E-002	-2.80006E-004	0.00000E+000	-8.02432E-006	-1.68088E-001	2.86589E-002	3.57780E+000	9	...........
	49	0.666667	2.56669E-002	-2.78694E-004	0.00000E+000	-7.15320E-006	-1.68088E-001	2.56669E-002	3.57780E+000	9	...........
	50	0.68	2.27748E-002	-2.78879E-004	0.00000E+000	-6.35142E-006	-1.68088E-001	2.27741E-002	3.57780E+000	9	...........
	51	0.693333	1.99047E-002	-2.78933E-004	0.00000E+000	-5.55208E-006	-1.68088E-001	1.98966E-002	3.57780E+000	9	...........
	52	0.706667	1.70653E-002	-2.78837E-004	0.00000E+000	-4.75845E-006	-1.68088E-001	1.70595E-002	3.57780E+000	9	...........
	53	0.72	1.43115E-002	-2.79246E-004	0.00000E+000	-3.99641E-006	-1.68088E-001	1.43068E-002	3.57780E+000	9	...........
	54	0.733333	1.15887E-002	-2.79181E-004	0.00000E+000	-3.23535E-006	-1.68088E-001	1.15808E-002	3.57780E+000	9	...........
	55	0.746667	8.85176E-003	-2.78951E-004	0.00000E+000	-2.46921E-006	-1.68088E-001	8.84450E-003	3.57780E+000	9	...........
	56	0.76	6.16936E-003	-2.78752E-004	0.00000E+000	-1.71972E-006	-1.68088E-001	6.15797E-003	3.57780E+000	9	...........
	57	0.773333	3.49121E-003	-2.78835E-004	0.00000E+000	-9.73474E-007	-1.68088E-001	3.47560E-003	3.57780E+000	9	...........
	58	0.786667	8.74667E-004	-2.78554E-004	0.00000E+000	-2.43642E-007	-1.68088E-001	8.56795E-004	3.57780E+000	9	...........
STARTTIMEOFFSET	QUANT	1671.177	Start Time Offset (s)
