EXPLAIN
TAG	PWR800_DISCHARGE
TITLE	LABEL	PWR Cyclic Charge Discharge (Cell) - Discharge Step	Test &Identifier
DATE	LABEL	7-7-2017	Date
TIME	LABEL	16:15:41	Time
NOTES	NOTES	3	&Notes...
	supercap test cell
	2.8mg
	6M KOH
PSTAT	PSTAT	IFC5000-01520	Potentiostat
CAPACITY	QUANT	1.00000E-003	Capacity (A-hr)
CELLTYPE	SELECTOR	1	&Cell Type
WORKINGCONNECTION	SELECTOR	0	&Working Lead
MAXDISCHARGETIME	VARIABLEANDUNITS	1.00000E+002	s	1.00000E+002	second(s)	Max &Discharge Time
DISCHARGEMODE	MULTIPARAM	0	2.80000E-004	&Discharge Mode	Constant Current	Amp(s)
SAMPLETIME	QUANT	1.00000E-002	Sa&mple Period (s)
DISCHARGESTOPAT1	MULTIPARAM	3	0.00000E+000	Discharge Stop At &1	Voltage < Limit	V
DISCHARGESTOPAT2	MULTIPARAM	0	0.00000E+000	Discharge Stop At &2	None	N/A
AESBHCSELECTOR	TOGGLE	F	Save Both Half Cells
IRCOMP	TOGGLE	F	IR &Measure
EOC	QUANT	0	Open Circuit (V)
SEQUENCER	TOGGLE	TRUE	Run as Sequence
PSTATMODEL	IQUANT	53	Pstat Model
PSTATSECTION	LABEL	IFC5000-01520	Pstat Section
PSTATSERIALNO	LABEL	01520	Pstat Serial Number
CTRLMODE	IQUANT	0	Control Mode
ELECTROMETER	IQUANT	1	RE=0 or CS=1
IESTAB	IQUANT	0	I/E Stability
CASPEED	IQUANT	4	Control Amp Speed
CONVENTION	IQUANT	1	Current Convention
ICHRANGE	IQUANT	2	Ich Range
ICHRANGEMODE	TOGGLE	T	Ich Auto Range
ICHOFFSETENABLE	TOGGLE	F	Ich Offset Enable
ICHOFFSET	QUANT	0	Ich Offset (V)
ICHFILTER	IQUANT	1	Ich Filter
VCHRANGE	IQUANT	2	Vch Range
VCHRANGEMODE	TOGGLE	T	Vch Auto Range
VCHOFFSETENABLE	TOGGLE	F	Vch Offset Enable
VCHOFFSET	QUANT	0	Vch Offset (V)
VCHFILTER	IQUANT	1	Vch Filter
IERANGELOWERLIMIT	IQUANT	9	I/E Range Lower Limit
IERANGEMODE	TOGGLE	F	I/E AutoRange
IERANGE	IQUANT	9	I/E Range
ACHSELECT	IQUANT	1	Ach Select
ACHRANGE	IQUANT	2	Ach Range
ACHOFFSETENABLE	TOGGLE	F	Ach Offset Enable
ACHOFFSET	QUANT	0	Ach Offset (V)
ACHFILTER	IQUANT	1	Ach Filter
CABLEID	IQUANT	14	Cable ID
DCCALDATE	LABEL	5-7-2017	DC Calibration Date
ACCALDATE	LABEL	12/3/2015	AC Calibration Date
FRAMEWORKVERSION	QUANT	7.01	Framework Version
INSTRUMENTVERSION	LABEL	4.00	Instrument Version
CURVE	TABLE	57
	Pt	T	Vf	Im	Vu	Pwr	Sig	Ach	Temp	IERange	Over
	#	s	V	A	V	W	V	V	deg C	#	bits
	0	0.013333	5.16081E-001	-2.78807E-004	0.00000E+000	-1.43887E-004	-1.68088E-001	5.16334E-001	3.57880E+000	9	...........
	1	0.026667	4.82793E-001	-2.79203E-004	0.00000E+000	-1.34797E-004	-1.68088E-001	4.82964E-001	3.57880E+000	9	...........
	2	0.04	4.52273E-001	-2.78822E-004	0.00000E+000	-1.26104E-004	-1.68088E-001	4.52374E-001	3.57880E+000	9	...........
	3	0.053333	4.23825E-001	-2.79353E-004	0.00000E+000	-1.18397E-004	-1.68088E-001	4.23927E-001	3.57880E+000	9	...........
	4	0.066667	3.97323E-001	-2.78930E-004	0.00000E+000	-1.10825E-004	-1.68088E-001	3.97402E-001	3.57880E+000	9	...........
	5	0.08	3.72582E-001	-2.77863E-004	0.00000E+000	-1.03527E-004	-1.68088E-001	3.72666E-001	3.57880E+000	9	...........
	6	0.093333	3.49488E-001	-2.81076E-004	0.00000E+000	-9.82328E-005	-1.68088E-001	3.49573E-001	3.57880E+000	9	...........
	7	0.106667	3.27986E-001	-2.77880E-004	0.00000E+000	-9.11408E-005	-1.68088E-001	3.28063E-001	3.57880E+000	9	...........
	8	0.12	3.07975E-001	-2.79443E-004	0.00000E+000	-8.60614E-005	-1.68088E-001	3.08043E-001	3.57880E+000	9	...........
	9	0.133333	2.89325E-001	-2.79716E-004	0.00000E+000	-8.09287E-005	-1.68088E-001	2.89391E-001	3.57880E+000	9	...........
	10	0.146667	2.72021E-001	-2.79979E-004	0.00000E+000	-7.61604E-005	-1.68088E-001	2.72088E-001	3.57880E+000	9	...........
	11	0.16	2.55976E-001	-2.78957E-004	0.00000E+000	-7.14063E-005	-1.68088E-001	2.56038E-001	3.57880E+000	9	...........
	12	0.173333	2.41102E-001	-2.79070E-004	0.00000E+000	-6.72842E-005	-1.68088E-001	2.41153E-001	3.57880E+000	9	...........
	13	0.186667	2.27287E-001	-2.80158E-004	0.00000E+000	-6.36761E-005	-1.68088E-001	2.27336E-001	3.57880E+000	9	...........
	14	0.2	2.14474E-001	-2.77876E-004	0.00000E+000	-5.95972E-005	-1.68088E-001	2.14522E-001	3.57880E+000	9	...........
	15	0.213333	2.02549E-001	-2.79371E-004	0.00000E+000	-5.65863E-005	-1.68088E-001	2.02595E-001	3.57880E+000	9	...........
	16	0.226667	1.91446E-001	-2.79395E-004	0.00000E+000	-5.34891E-005	-1.68088E-001	1.91489E-001	3.57880E+000	9	...........
	17	0.24	1.81093E-001	-2.78773E-004	0.00000E+000	-5.04837E-005	-1.68088E-001	1.81140E-001	3.57880E+000	9	...........
	18	0.253333	1.71443E-001	-2.79058E-004	0.00000E+000	-4.78427E-005	-1.68088E-001	1.71481E-001	3.57880E+000	9	...........
	19	0.266667	1.62385E-001	-2.79016E-004	0.00000E+000	-4.53080E-005	-1.68088E-001	1.62422E-001	3.57880E+000	9	...........
	20	0.28	1.53858E-001	-2.78632E-004	0.00000E+000	-4.28698E-005	-1.68088E-001	1.53893E-001	3.57880E+000	9	...........
	21	0.293333	1.45906E-001	-2.79229E-004	0.00000E+000	-4.07413E-005	-1.68088E-001	1.45942E-001	3.57880E+000	9	...........
	22	0.306667	1.38447E-001	-2.79210E-004	0.00000E+000	-3.86558E-005	-1.68088E-001	1.38474E-001	3.57880E+000	9	...........
	23	0.32	1.31389E-001	-2.79894E-004	0.00000E+000	-3.67749E-005	-1.68088E-001	1.31413E-001	3.57880E+000	9	...........
	24	0.333333	1.24674E-001	-2.78933E-004	0.00000E+000	-3.47757E-005	-1.68088E-001	1.24693E-001	3.57880E+000	9	...........
	25	0.346667	1.18269E-001	-2.78422E-004	0.00000E+000	-3.29287E-005	-1.68088E-001	1.18289E-001	3.57880E+000	9	...........
	26	0.36	1.12226E-001	-2.79274E-004	0.00000E+000	-3.13418E-005	-1.68088E-001	1.12252E-001	3.57880E+000	9	...........
	27	0.373333	1.06502E-001	-2.78605E-004	0.00000E+000	-2.96720E-005	-1.68088E-001	1.06517E-001	3.57880E+000	9	...........
	28	0.386667	1.01031E-001	-2.78642E-004	0.00000E+000	-2.81513E-005	-1.68088E-001	1.01052E-001	3.57880E+000	9	...........
	29	0.4	9.58257E-002	-2.78059E-004	0.00000E+000	-2.66452E-005	-1.68088E-001	9.58431E-002	3.57880E+000	9	...........
	30	0.413333	9.08157E-002	-2.78498E-004	0.00000E+000	-2.52920E-005	-1.68088E-001	9.08339E-002	3.57880E+000	9	...........
	31	0.426667	8.59992E-002	-2.78309E-004	0.00000E+000	-2.39344E-005	-1.68088E-001	8.60127E-002	3.57880E+000	9	...........
	32	0.44	8.13305E-002	-2.80535E-004	0.00000E+000	-2.28160E-005	-1.68088E-001	8.13413E-002	3.57880E+000	9	...........
	33	0.453333	7.68713E-002	-2.78976E-004	0.00000E+000	-2.14452E-005	-1.68088E-001	7.68831E-002	3.57880E+000	9	...........
	34	0.466667	7.25012E-002	-2.80080E-004	0.00000E+000	-2.03062E-005	-1.68088E-001	7.25119E-002	3.57880E+000	9	...........
	35	0.48	6.83015E-002	-2.78553E-004	0.00000E+000	-1.90256E-005	-1.68088E-001	6.83106E-002	3.57880E+000	9	...........
	36	0.493333	6.42030E-002	-2.79492E-004	0.00000E+000	-1.79442E-005	-1.68088E-001	6.42109E-002	3.57880E+000	9	...........
	37	0.506667	6.02661E-002	-2.78951E-004	0.00000E+000	-1.68113E-005	-1.68088E-001	6.02784E-002	3.57880E+000	9	...........
	38	0.52	5.64648E-002	-2.79503E-004	0.00000E+000	-1.57821E-005	-1.68088E-001	5.64773E-002	3.57801E+000	9	...........
	39	0.533333	5.27661E-002	-2.78911E-004	0.00000E+000	-1.47171E-005	-1.68088E-001	5.27750E-002	3.57790E+000	9	...........
	40	0.546667	4.91237E-002	-2.80210E-004	0.00000E+000	-1.37649E-005	-1.68088E-001	4.91318E-002	3.57790E+000	9	...........
	41	0.56	4.55800E-002	-2.77700E-004	0.00000E+000	-1.26576E-005	-1.68088E-001	4.55914E-002	3.57790E+000	9	...........
	42	0.573333	4.21049E-002	-2.79244E-004	0.00000E+000	-1.17575E-005	-1.68088E-001	4.21108E-002	3.57790E+000	9	...........
	43	0.586667	3.86962E-002	-2.79073E-004	0.00000E+000	-1.07991E-005	-1.68088E-001	3.87025E-002	3.57790E+000	9	...........
	44	0.6	3.53946E-002	-2.78928E-004	0.00000E+000	-9.87256E-006	-1.68088E-001	3.53973E-002	3.57790E+000	9	...........
	45	0.613333	3.21381E-002	-2.78631E-004	0.00000E+000	-8.95467E-006	-1.68088E-001	3.21371E-002	3.57790E+000	9	...........
	46	0.626667	2.89602E-002	-2.78467E-004	0.00000E+000	-8.06444E-006	-1.68088E-001	2.89596E-002	3.57790E+000	9	...........
	47	0.64	2.58583E-002	-2.77532E-004	0.00000E+000	-7.17651E-006	-1.68088E-001	2.58535E-002	3.57790E+000	9	...........
	48	0.653333	2.27919E-002	-2.79698E-004	0.00000E+000	-6.37486E-006	-1.68088E-001	2.27880E-002	3.57790E+000	9	...........
	49	0.666667	1.97685E-002	-2.78447E-004	0.00000E+000	-5.50449E-006	-1.68088E-001	1.97631E-002	3.57790E+000	9	...........
	50	0.68	1.68327E-002	-2.79851E-004	0.00000E+000	-4.71066E-006	-1.68088E-001	1.68304E-002	3.57790E+000	9	...........
	51	0.693333	1.39985E-002	-2.78161E-004	0.00000E+000	-3.89385E-006	-1.68088E-001	1.39894E-002	3.57790E+000	9	...........
	52	0.706667	1.11236E-002	-2.78965E-004	0.00000E+000	-3.10308E-006	-1.68088E-001	1.11133E-002	3.57790E+000	9	...........
	53	0.72	8.28971E-003	-2.78655E-004	0.00000E+000	-2.30997E-006	-1.68088E-001	8.27680E-003	3.57790E+000	9	...........
	54	0.733333	5.47686E-003	-2.78905E-004	0.00000E+000	-1.52753E-006	-1.68088E-001	5.45750E-003	3.57790E+000	9	...........
	55	0.746667	2.70560E-003	-2.79661E-004	0.00000E+000	-7.56649E-007	-1.68088E-001	2.68899E-003	3.57790E+000	9	...........
	56	0.755	4.84119E-004	-2.79870E-004	0.00000E+000	-1.35490E-007	-1.68088E-001	4.64035E-004	3.57790E+000	9	...........
STARTTIMEOFFSET	QUANT	1752.208	Start Time Offset (s)
