EXPLAIN
TAG	PWR800_DISCHARGE
TITLE	LABEL	PWR Cyclic Charge Discharge (Cell) - Discharge Step	Test &Identifier
DATE	LABEL	7-7-2017	Date
TIME	LABEL	16:11:56	Time
NOTES	NOTES	3	&Notes...
	supercap test cell
	2.8mg
	6M KOH
PSTAT	PSTAT	IFC5000-01520	Potentiostat
CAPACITY	QUANT	1.00000E-003	Capacity (A-hr)
CELLTYPE	SELECTOR	1	&Cell Type
WORKINGCONNECTION	SELECTOR	0	&Working Lead
MAXDISCHARGETIME	VARIABLEANDUNITS	1.00000E+002	s	1.00000E+002	second(s)	Max &Discharge Time
DISCHARGEMODE	MULTIPARAM	0	2.80000E-004	&Discharge Mode	Constant Current	Amp(s)
SAMPLETIME	QUANT	1.00000E-002	Sa&mple Period (s)
DISCHARGESTOPAT1	MULTIPARAM	3	0.00000E+000	Discharge Stop At &1	Voltage < Limit	V
DISCHARGESTOPAT2	MULTIPARAM	0	0.00000E+000	Discharge Stop At &2	None	N/A
AESBHCSELECTOR	TOGGLE	F	Save Both Half Cells
IRCOMP	TOGGLE	F	IR &Measure
EOC	QUANT	0	Open Circuit (V)
SEQUENCER	TOGGLE	TRUE	Run as Sequence
PSTATMODEL	IQUANT	53	Pstat Model
PSTATSECTION	LABEL	IFC5000-01520	Pstat Section
PSTATSERIALNO	LABEL	01520	Pstat Serial Number
CTRLMODE	IQUANT	0	Control Mode
ELECTROMETER	IQUANT	1	RE=0 or CS=1
IESTAB	IQUANT	0	I/E Stability
CASPEED	IQUANT	4	Control Amp Speed
CONVENTION	IQUANT	1	Current Convention
ICHRANGE	IQUANT	2	Ich Range
ICHRANGEMODE	TOGGLE	T	Ich Auto Range
ICHOFFSETENABLE	TOGGLE	F	Ich Offset Enable
ICHOFFSET	QUANT	0	Ich Offset (V)
ICHFILTER	IQUANT	1	Ich Filter
VCHRANGE	IQUANT	2	Vch Range
VCHRANGEMODE	TOGGLE	T	Vch Auto Range
VCHOFFSETENABLE	TOGGLE	F	Vch Offset Enable
VCHOFFSET	QUANT	0	Vch Offset (V)
VCHFILTER	IQUANT	1	Vch Filter
IERANGELOWERLIMIT	IQUANT	9	I/E Range Lower Limit
IERANGEMODE	TOGGLE	F	I/E AutoRange
IERANGE	IQUANT	9	I/E Range
ACHSELECT	IQUANT	1	Ach Select
ACHRANGE	IQUANT	2	Ach Range
ACHOFFSETENABLE	TOGGLE	F	Ach Offset Enable
ACHOFFSET	QUANT	0	Ach Offset (V)
ACHFILTER	IQUANT	1	Ach Filter
CABLEID	IQUANT	14	Cable ID
DCCALDATE	LABEL	5-7-2017	DC Calibration Date
ACCALDATE	LABEL	12/3/2015	AC Calibration Date
FRAMEWORKVERSION	QUANT	7.01	Framework Version
INSTRUMENTVERSION	LABEL	4.00	Instrument Version
CURVE	TABLE	60
	Pt	T	Vf	Im	Vu	Pwr	Sig	Ach	Temp	IERange	Over
	#	s	V	A	V	W	V	V	deg C	#	bits
	0	0.013333	5.18998E-001	-2.78566E-004	0.00000E+000	-1.44575E-004	-1.68088E-001	5.19265E-001	3.57880E+000	9	...........
	1	0.026667	4.85783E-001	-2.78376E-004	0.00000E+000	-1.35230E-004	-1.68088E-001	4.85992E-001	3.57880E+000	9	...........
	2	0.04	4.55477E-001	-2.78546E-004	0.00000E+000	-1.26871E-004	-1.68088E-001	4.55589E-001	3.57880E+000	9	...........
	3	0.053333	4.27206E-001	-2.79319E-004	0.00000E+000	-1.19327E-004	-1.68088E-001	4.27306E-001	3.57880E+000	9	...........
	4	0.066667	4.00853E-001	-2.78800E-004	0.00000E+000	-1.11758E-004	-1.68088E-001	4.00948E-001	3.57880E+000	9	...........
	5	0.08	3.76260E-001	-2.79188E-004	0.00000E+000	-1.05047E-004	-1.68088E-001	3.76346E-001	3.57880E+000	9	...........
	6	0.093333	3.53347E-001	-2.77712E-004	0.00000E+000	-9.81289E-005	-1.68088E-001	3.53430E-001	3.57880E+000	9	...........
	7	0.106667	3.31999E-001	-2.78519E-004	0.00000E+000	-9.24680E-005	-1.68088E-001	3.32078E-001	3.57880E+000	9	...........
	8	0.12	3.12140E-001	-2.80470E-004	0.00000E+000	-8.75460E-005	-1.68088E-001	3.12214E-001	3.57880E+000	9	...........
	9	0.133333	2.93704E-001	-2.79043E-004	0.00000E+000	-8.19561E-005	-1.68088E-001	2.93774E-001	3.57880E+000	9	...........
	10	0.146667	2.76590E-001	-2.79861E-004	0.00000E+000	-7.74068E-005	-1.68088E-001	2.76660E-001	3.57880E+000	9	...........
	11	0.16	2.60724E-001	-2.79357E-004	0.00000E+000	-7.28353E-005	-1.68088E-001	2.60788E-001	3.57880E+000	9	...........
	12	0.173333	2.46022E-001	-2.78697E-004	0.00000E+000	-6.85655E-005	-1.68088E-001	2.46078E-001	3.57880E+000	9	...........
	13	0.186667	2.32334E-001	-2.78892E-004	0.00000E+000	-6.47961E-005	-1.68088E-001	2.32387E-001	3.57880E+000	9	...........
	14	0.2	2.19597E-001	-2.79692E-004	0.00000E+000	-6.14194E-005	-1.68088E-001	2.19649E-001	3.57880E+000	9	...........
	15	0.213333	2.07773E-001	-2.77795E-004	0.00000E+000	-5.77182E-005	-1.68088E-001	2.07828E-001	3.57880E+000	9	...........
	16	0.226667	1.96794E-001	-2.78521E-004	0.00000E+000	-5.48112E-005	-1.68088E-001	1.96842E-001	3.57880E+000	9	...........
	17	0.24	1.86564E-001	-2.77622E-004	0.00000E+000	-5.17942E-005	-1.68088E-001	1.86609E-001	3.57880E+000	9	...........
	18	0.253333	1.77017E-001	-2.78722E-004	0.00000E+000	-4.93384E-005	-1.68088E-001	1.77057E-001	3.57880E+000	9	...........
	19	0.266667	1.68151E-001	-2.79067E-004	0.00000E+000	-4.69253E-005	-1.68088E-001	1.68190E-001	3.57880E+000	9	...........
	20	0.28	1.59793E-001	-2.79405E-004	0.00000E+000	-4.46470E-005	-1.68088E-001	1.59824E-001	3.57880E+000	9	...........
	21	0.293333	1.51897E-001	-2.78362E-004	0.00000E+000	-4.22825E-005	-1.68088E-001	1.51929E-001	3.57880E+000	9	...........
	22	0.306667	1.44472E-001	-2.80036E-004	0.00000E+000	-4.04572E-005	-1.68088E-001	1.44505E-001	3.57880E+000	9	...........
	23	0.32	1.37463E-001	-2.79589E-004	0.00000E+000	-3.84332E-005	-1.68088E-001	1.37495E-001	3.57880E+000	9	...........
	24	0.333333	1.30823E-001	-2.79030E-004	0.00000E+000	-3.65035E-005	-1.68088E-001	1.30853E-001	3.57880E+000	9	...........
	25	0.346667	1.24501E-001	-2.79141E-004	0.00000E+000	-3.47532E-005	-1.68088E-001	1.24533E-001	3.57880E+000	9	...........
	26	0.36	1.18494E-001	-2.79020E-004	0.00000E+000	-3.30622E-005	-1.68088E-001	1.18528E-001	3.57880E+000	9	...........
	27	0.373333	1.12757E-001	-2.78250E-004	0.00000E+000	-3.13746E-005	-1.68088E-001	1.12789E-001	3.57880E+000	9	...........
	28	0.386667	1.07265E-001	-2.77692E-004	0.00000E+000	-2.97867E-005	-1.68088E-001	1.07293E-001	3.57880E+000	9	...........
	29	0.4	1.02029E-001	-2.79294E-004	0.00000E+000	-2.84961E-005	-1.68088E-001	1.02057E-001	3.57880E+000	9	...........
	30	0.413333	9.70161E-002	-2.78867E-004	0.00000E+000	-2.70545E-005	-1.68088E-001	9.70446E-002	3.57880E+000	9	...........
	31	0.426667	9.22171E-002	-2.78818E-004	0.00000E+000	-2.57118E-005	-1.68088E-001	9.22402E-002	3.57880E+000	9	...........
	32	0.44	8.75793E-002	-2.78780E-004	0.00000E+000	-2.44154E-005	-1.68088E-001	8.76014E-002	3.57824E+000	9	...........
	33	0.453333	8.31142E-002	-2.78514E-004	0.00000E+000	-2.31485E-005	-1.68088E-001	8.31329E-002	3.57790E+000	9	...........
	34	0.466667	7.88203E-002	-2.80037E-004	0.00000E+000	-2.20726E-005	-1.68088E-001	7.88395E-002	3.57790E+000	9	...........
	35	0.48	7.46471E-002	-2.79520E-004	0.00000E+000	-2.08654E-005	-1.68088E-001	7.46629E-002	3.57790E+000	9	...........
	36	0.493333	7.05949E-002	-2.78844E-004	0.00000E+000	-1.96849E-005	-1.68088E-001	7.06102E-002	3.57790E+000	9	...........
	37	0.506667	6.66873E-002	-2.78668E-004	0.00000E+000	-1.85836E-005	-1.68088E-001	6.66951E-002	3.57790E+000	9	...........
	38	0.52	6.28639E-002	-2.78825E-004	0.00000E+000	-1.75280E-005	-1.68088E-001	6.28764E-002	3.57790E+000	9	...........
	39	0.533333	5.91466E-002	-2.78577E-004	0.00000E+000	-1.64769E-005	-1.68088E-001	5.91655E-002	3.57790E+000	9	...........
	40	0.546667	5.54895E-002	-2.79146E-004	0.00000E+000	-1.54897E-005	-1.68088E-001	5.55030E-002	3.57790E+000	9	...........
	41	0.56	5.19037E-002	-2.78818E-004	0.00000E+000	-1.44717E-005	-1.68088E-001	5.19106E-002	3.57790E+000	9	...........
	42	0.573333	4.84829E-002	-2.78450E-004	0.00000E+000	-1.35001E-005	-1.68088E-001	4.84878E-002	3.57790E+000	9	...........
	43	0.586667	4.51557E-002	-2.78941E-004	0.00000E+000	-1.25958E-005	-1.68088E-001	4.51669E-002	3.57790E+000	9	...........
	44	0.6	4.18901E-002	-2.78563E-004	0.00000E+000	-1.16690E-005	-1.68088E-001	4.19005E-002	3.57790E+000	9	...........
	45	0.613333	3.86917E-002	-2.78810E-004	0.00000E+000	-1.07877E-005	-1.68088E-001	3.87011E-002	3.57790E+000	9	...........
	46	0.626667	3.54977E-002	-2.79812E-004	0.00000E+000	-9.93266E-006	-1.68088E-001	3.55006E-002	3.57790E+000	9	...........
	47	0.64	3.24030E-002	-2.79146E-004	0.00000E+000	-9.04516E-006	-1.68088E-001	3.24072E-002	3.57790E+000	9	...........
	48	0.653333	2.93753E-002	-2.79565E-004	0.00000E+000	-8.21230E-006	-1.68088E-001	2.93783E-002	3.57790E+000	9	...........
	49	0.666667	2.63719E-002	-2.78659E-004	0.00000E+000	-7.34879E-006	-1.68088E-001	2.63706E-002	3.57790E+000	9	...........
	50	0.68	2.34562E-002	-2.79947E-004	0.00000E+000	-6.56648E-006	-1.68088E-001	2.34498E-002	3.57790E+000	9	...........
	51	0.693333	2.05358E-002	-2.79415E-004	0.00000E+000	-5.73800E-006	-1.68088E-001	2.05299E-002	3.57790E+000	9	...........
	52	0.706667	1.76200E-002	-2.79414E-004	0.00000E+000	-4.92326E-006	-1.68088E-001	1.76103E-002	3.57790E+000	9	...........
	53	0.72	1.48481E-002	-2.79736E-004	0.00000E+000	-4.15353E-006	-1.68088E-001	1.48365E-002	3.57790E+000	9	...........
	54	0.733333	1.20993E-002	-2.78485E-004	0.00000E+000	-3.36948E-006	-1.68088E-001	1.20917E-002	3.57790E+000	9	...........
	55	0.746667	9.39984E-003	-2.79449E-004	0.00000E+000	-2.62678E-006	-1.68088E-001	9.38961E-003	3.57790E+000	9	...........
	56	0.76	6.76899E-003	-2.77643E-004	0.00000E+000	-1.87937E-006	-1.68088E-001	6.75272E-003	3.57790E+000	9	...........
	57	0.773333	4.10727E-003	-2.78007E-004	0.00000E+000	-1.14185E-006	-1.68088E-001	4.08885E-003	3.57790E+000	9	...........
	58	0.786667	1.46240E-003	-2.79180E-004	0.00000E+000	-4.08274E-007	-1.68088E-001	1.45117E-003	3.57790E+000	9	...........
	59	0.79	-1.63915E-004	-2.79544E-004	0.00000E+000	4.58214E-008	-1.68088E-001	-1.78540E-004	3.57790E+000	9	...........
STARTTIMEOFFSET	QUANT	1601.35	Start Time Offset (s)
