EXPLAIN
TAG	PWR800_DISCHARGE
TITLE	LABEL	PWR Cyclic Charge Discharge (Cell) - Discharge Step	Test &Identifier
DATE	LABEL	7-7-2017	Date
TIME	LABEL	16:23:20	Time
NOTES	NOTES	3	&Notes...
	supercap test cell
	2.8mg
	6M KOH
PSTAT	PSTAT	IFC5000-01520	Potentiostat
CAPACITY	QUANT	1.00000E-003	Capacity (A-hr)
CELLTYPE	SELECTOR	1	&Cell Type
WORKINGCONNECTION	SELECTOR	0	&Working Lead
MAXDISCHARGETIME	VARIABLEANDUNITS	1.00000E+002	s	1.00000E+002	second(s)	Max &Discharge Time
DISCHARGEMODE	MULTIPARAM	0	2.80000E-004	&Discharge Mode	Constant Current	Amp(s)
SAMPLETIME	QUANT	1.00000E-002	Sa&mple Period (s)
DISCHARGESTOPAT1	MULTIPARAM	3	0.00000E+000	Discharge Stop At &1	Voltage < Limit	V
DISCHARGESTOPAT2	MULTIPARAM	0	0.00000E+000	Discharge Stop At &2	None	N/A
AESBHCSELECTOR	TOGGLE	F	Save Both Half Cells
IRCOMP	TOGGLE	F	IR &Measure
EOC	QUANT	0	Open Circuit (V)
SEQUENCER	TOGGLE	TRUE	Run as Sequence
PSTATMODEL	IQUANT	53	Pstat Model
PSTATSECTION	LABEL	IFC5000-01520	Pstat Section
PSTATSERIALNO	LABEL	01520	Pstat Serial Number
CTRLMODE	IQUANT	0	Control Mode
ELECTROMETER	IQUANT	1	RE=0 or CS=1
IESTAB	IQUANT	0	I/E Stability
CASPEED	IQUANT	4	Control Amp Speed
CONVENTION	IQUANT	1	Current Convention
ICHRANGE	IQUANT	2	Ich Range
ICHRANGEMODE	TOGGLE	T	Ich Auto Range
ICHOFFSETENABLE	TOGGLE	F	Ich Offset Enable
ICHOFFSET	QUANT	0	Ich Offset (V)
ICHFILTER	IQUANT	1	Ich Filter
VCHRANGE	IQUANT	2	Vch Range
VCHRANGEMODE	TOGGLE	T	Vch Auto Range
VCHOFFSETENABLE	TOGGLE	F	Vch Offset Enable
VCHOFFSET	QUANT	0	Vch Offset (V)
VCHFILTER	IQUANT	1	Vch Filter
IERANGELOWERLIMIT	IQUANT	9	I/E Range Lower Limit
IERANGEMODE	TOGGLE	F	I/E AutoRange
IERANGE	IQUANT	9	I/E Range
ACHSELECT	IQUANT	1	Ach Select
ACHRANGE	IQUANT	2	Ach Range
ACHOFFSETENABLE	TOGGLE	F	Ach Offset Enable
ACHOFFSET	QUANT	0	Ach Offset (V)
ACHFILTER	IQUANT	1	Ach Filter
CABLEID	IQUANT	14	Cable ID
DCCALDATE	LABEL	5-7-2017	DC Calibration Date
ACCALDATE	LABEL	12/3/2015	AC Calibration Date
FRAMEWORKVERSION	QUANT	7.01	Framework Version
INSTRUMENTVERSION	LABEL	4.00	Instrument Version
CURVE	TABLE	52
	Pt	T	Vf	Im	Vu	Pwr	Sig	Ach	Temp	IERange	Over
	#	s	V	A	V	W	V	V	deg C	#	bits
	0	0.013333	5.15751E-001	-2.78982E-004	0.00000E+000	-1.43885E-004	-1.68088E-001	5.16004E-001	3.57790E+000	9	...........
	1	0.026667	4.81819E-001	-2.79099E-004	0.00000E+000	-1.34475E-004	-1.68088E-001	4.81987E-001	3.57790E+000	9	...........
	2	0.04	4.50626E-001	-2.79061E-004	0.00000E+000	-1.25752E-004	-1.68088E-001	4.50730E-001	3.57790E+000	9	...........
	3	0.053333	4.21460E-001	-2.78981E-004	0.00000E+000	-1.17580E-004	-1.68088E-001	4.21557E-001	3.57790E+000	9	...........
	4	0.066667	3.94191E-001	-2.80152E-004	0.00000E+000	-1.10434E-004	-1.68088E-001	3.94275E-001	3.57790E+000	9	...........
	5	0.08	3.68681E-001	-2.78335E-004	0.00000E+000	-1.02617E-004	-1.68088E-001	3.68762E-001	3.57790E+000	9	...........
	6	0.093333	3.44813E-001	-2.78228E-004	0.00000E+000	-9.59367E-005	-1.68088E-001	3.44888E-001	3.57790E+000	9	...........
	7	0.106667	3.22573E-001	-2.79913E-004	0.00000E+000	-9.02922E-005	-1.68088E-001	3.22642E-001	3.57790E+000	9	...........
	8	0.12	3.01859E-001	-2.79414E-004	0.00000E+000	-8.43434E-005	-1.68088E-001	3.01921E-001	3.57790E+000	9	...........
	9	0.133333	2.82590E-001	-2.79004E-004	0.00000E+000	-7.88439E-005	-1.68088E-001	2.82652E-001	3.57790E+000	9	...........
	10	0.146667	2.64671E-001	-2.78495E-004	0.00000E+000	-7.37095E-005	-1.68088E-001	2.64727E-001	3.57790E+000	9	...........
	11	0.16	2.48027E-001	-2.79798E-004	0.00000E+000	-6.93976E-005	-1.68088E-001	2.48080E-001	3.57790E+000	9	...........
	12	0.173333	2.32569E-001	-2.79499E-004	0.00000E+000	-6.50028E-005	-1.68088E-001	2.32616E-001	3.57790E+000	9	...........
	13	0.186667	2.18249E-001	-2.78844E-004	0.00000E+000	-6.08574E-005	-1.68088E-001	2.18295E-001	3.57790E+000	9	...........
	14	0.2	2.04927E-001	-2.79562E-004	0.00000E+000	-5.72898E-005	-1.68088E-001	2.04969E-001	3.57790E+000	9	...........
	15	0.213333	1.92572E-001	-2.77864E-004	0.00000E+000	-5.35090E-005	-1.68088E-001	1.92610E-001	3.57790E+000	9	...........
	16	0.226667	1.81123E-001	-2.78427E-004	0.00000E+000	-5.04296E-005	-1.68088E-001	1.81164E-001	3.57790E+000	9	...........
	17	0.24	1.70406E-001	-2.79340E-004	0.00000E+000	-4.76011E-005	-1.68088E-001	1.70438E-001	3.57790E+000	9	...........
	18	0.253333	1.60412E-001	-2.79957E-004	0.00000E+000	-4.49085E-005	-1.68088E-001	1.60446E-001	3.57790E+000	9	...........
	19	0.266667	1.51106E-001	-2.79428E-004	0.00000E+000	-4.22233E-005	-1.68088E-001	1.51138E-001	3.57790E+000	9	...........
	20	0.28	1.42346E-001	-2.77549E-004	0.00000E+000	-3.95079E-005	-1.68088E-001	1.42377E-001	3.57790E+000	9	...........
	21	0.293333	1.34182E-001	-2.79353E-004	0.00000E+000	-3.74843E-005	-1.68088E-001	1.34211E-001	3.57790E+000	9	...........
	22	0.306667	1.26473E-001	-2.79342E-004	0.00000E+000	-3.53293E-005	-1.68088E-001	1.26494E-001	3.57790E+000	9	...........
	23	0.32	1.19211E-001	-2.77729E-004	0.00000E+000	-3.31082E-005	-1.68088E-001	1.19238E-001	3.57790E+000	9	...........
	24	0.333333	1.12386E-001	-2.77733E-004	0.00000E+000	-3.12133E-005	-1.68088E-001	1.12412E-001	3.57790E+000	9	...........
	25	0.346667	1.05889E-001	-2.79060E-004	0.00000E+000	-2.95495E-005	-1.68088E-001	1.05910E-001	3.57790E+000	9	...........
	26	0.36	9.97345E-002	-2.79129E-004	0.00000E+000	-2.78388E-005	-1.68088E-001	9.97606E-002	3.57790E+000	9	...........
	27	0.373333	9.39065E-002	-2.78917E-004	0.00000E+000	-2.61921E-005	-1.68088E-001	9.39248E-002	3.57790E+000	9	...........
	28	0.386667	8.82828E-002	-2.79333E-004	0.00000E+000	-2.46603E-005	-1.68088E-001	8.83035E-002	3.57790E+000	9	...........
	29	0.4	8.29620E-002	-2.77814E-004	0.00000E+000	-2.30480E-005	-1.68088E-001	8.29806E-002	3.57790E+000	9	...........
	30	0.413333	7.78158E-002	-2.80411E-004	0.00000E+000	-2.18204E-005	-1.68088E-001	7.78333E-002	3.57790E+000	9	...........
	31	0.426667	7.28728E-002	-2.78724E-004	0.00000E+000	-2.03114E-005	-1.68088E-001	7.28864E-002	3.57790E+000	9	...........
	32	0.44	6.81261E-002	-2.78702E-004	0.00000E+000	-1.89869E-005	-1.68088E-001	6.81409E-002	3.57790E+000	9	...........
	33	0.453333	6.35749E-002	-2.80848E-004	0.00000E+000	-1.78549E-005	-1.68088E-001	6.35854E-002	3.57790E+000	9	...........
	34	0.466667	5.92012E-002	-2.80047E-004	0.00000E+000	-1.65791E-005	-1.68088E-001	5.92136E-002	3.57790E+000	9	...........
	35	0.48	5.49976E-002	-2.78937E-004	0.00000E+000	-1.53409E-005	-1.68088E-001	5.50119E-002	3.57790E+000	9	...........
	36	0.493333	5.09231E-002	-2.78819E-004	0.00000E+000	-1.41983E-005	-1.68088E-001	5.09267E-002	3.57790E+000	9	...........
	37	0.506667	4.69544E-002	-2.78359E-004	0.00000E+000	-1.30702E-005	-1.68088E-001	4.69584E-002	3.57790E+000	9	...........
	38	0.52	4.30811E-002	-2.78899E-004	0.00000E+000	-1.20153E-005	-1.68088E-001	4.30835E-002	3.57790E+000	9	...........
	39	0.533333	3.93434E-002	-2.78043E-004	0.00000E+000	-1.09391E-005	-1.68088E-001	3.93456E-002	3.57790E+000	9	...........
	40	0.546667	3.57332E-002	-2.78937E-004	0.00000E+000	-9.96734E-006	-1.68088E-001	3.57324E-002	3.57790E+000	9	...........
	41	0.56	3.21873E-002	-2.79064E-004	0.00000E+000	-8.98229E-006	-1.68088E-001	3.21859E-002	3.57790E+000	9	...........
	42	0.573333	2.87106E-002	-2.79954E-004	0.00000E+000	-8.03765E-006	-1.68088E-001	2.87086E-002	3.57790E+000	9	...........
	43	0.586667	2.53050E-002	-2.78892E-004	0.00000E+000	-7.05735E-006	-1.68088E-001	2.53038E-002	3.57790E+000	9	...........
	44	0.6	2.19898E-002	-2.78660E-004	0.00000E+000	-6.12770E-006	-1.68088E-001	2.19825E-002	3.57790E+000	9	...........
	45	0.613333	1.86965E-002	-2.77815E-004	0.00000E+000	-5.19417E-006	-1.68088E-001	1.86828E-002	3.57790E+000	9	...........
	46	0.626667	1.55098E-002	-2.78876E-004	0.00000E+000	-4.32531E-006	-1.68088E-001	1.54995E-002	3.57790E+000	9	...........
	47	0.64	1.23750E-002	-2.78036E-004	0.00000E+000	-3.44070E-006	-1.68088E-001	1.23640E-002	3.57790E+000	9	...........
	48	0.653333	9.27496E-003	-2.79366E-004	0.00000E+000	-2.59111E-006	-1.68088E-001	9.26056E-003	3.57790E+000	9	...........
	49	0.666667	6.26794E-003	-2.76845E-004	0.00000E+000	-1.73525E-006	-1.68088E-001	6.25410E-003	3.57790E+000	9	...........
	50	0.68	3.34919E-003	-2.78519E-004	0.00000E+000	-9.32813E-007	-1.68088E-001	3.33245E-003	3.57790E+000	9	...........
	51	0.69	8.18401E-004	-2.79888E-004	0.00000E+000	-2.29061E-007	-1.68088E-001	8.03236E-004	3.57790E+000	9	...........
STARTTIMEOFFSET	QUANT	2051.283	Start Time Offset (s)
