EXPLAIN
TAG	PWR800_DISCHARGE
TITLE	LABEL	PWR Cyclic Charge Discharge (Cell) - Discharge Step	Test &Identifier
DATE	LABEL	7-7-2017	Date
TIME	LABEL	15:56:10	Time
NOTES	NOTES	3	&Notes...
	supercap test cell
	2.8mg
	6M KOH
PSTAT	PSTAT	IFC5000-01520	Potentiostat
CAPACITY	QUANT	1.00000E-003	Capacity (A-hr)
CELLTYPE	SELECTOR	1	&Cell Type
WORKINGCONNECTION	SELECTOR	0	&Working Lead
MAXDISCHARGETIME	VARIABLEANDUNITS	1.00000E+002	s	1.00000E+002	second(s)	Max &Discharge Time
DISCHARGEMODE	MULTIPARAM	0	2.80000E-004	&Discharge Mode	Constant Current	Amp(s)
SAMPLETIME	QUANT	1.00000E-002	Sa&mple Period (s)
DISCHARGESTOPAT1	MULTIPARAM	3	0.00000E+000	Discharge Stop At &1	Voltage < Limit	V
DISCHARGESTOPAT2	MULTIPARAM	0	0.00000E+000	Discharge Stop At &2	None	N/A
AESBHCSELECTOR	TOGGLE	F	Save Both Half Cells
IRCOMP	TOGGLE	F	IR &Measure
EOC	QUANT	0	Open Circuit (V)
SEQUENCER	TOGGLE	TRUE	Run as Sequence
PSTATMODEL	IQUANT	53	Pstat Model
PSTATSECTION	LABEL	IFC5000-01520	Pstat Section
PSTATSERIALNO	LABEL	01520	Pstat Serial Number
CTRLMODE	IQUANT	0	Control Mode
ELECTROMETER	IQUANT	1	RE=0 or CS=1
IESTAB	IQUANT	0	I/E Stability
CASPEED	IQUANT	4	Control Amp Speed
CONVENTION	IQUANT	1	Current Convention
ICHRANGE	IQUANT	2	Ich Range
ICHRANGEMODE	TOGGLE	T	Ich Auto Range
ICHOFFSETENABLE	TOGGLE	F	Ich Offset Enable
ICHOFFSET	QUANT	0	Ich Offset (V)
ICHFILTER	IQUANT	1	Ich Filter
VCHRANGE	IQUANT	2	Vch Range
VCHRANGEMODE	TOGGLE	T	Vch Auto Range
VCHOFFSETENABLE	TOGGLE	F	Vch Offset Enable
VCHOFFSET	QUANT	0	Vch Offset (V)
VCHFILTER	IQUANT	1	Vch Filter
IERANGELOWERLIMIT	IQUANT	9	I/E Range Lower Limit
IERANGEMODE	TOGGLE	F	I/E AutoRange
IERANGE	IQUANT	9	I/E Range
ACHSELECT	IQUANT	1	Ach Select
ACHRANGE	IQUANT	2	Ach Range
ACHOFFSETENABLE	TOGGLE	F	Ach Offset Enable
ACHOFFSET	QUANT	0	Ach Offset (V)
ACHFILTER	IQUANT	1	Ach Filter
CABLEID	IQUANT	14	Cable ID
DCCALDATE	LABEL	5-7-2017	DC Calibration Date
ACCALDATE	LABEL	12/3/2015	AC Calibration Date
FRAMEWORKVERSION	QUANT	7.01	Framework Version
INSTRUMENTVERSION	LABEL	4.00	Instrument Version
CURVE	TABLE	77
	Pt	T	Vf	Im	Vu	Pwr	Sig	Ach	Temp	IERange	Over
	#	s	V	A	V	W	V	V	deg C	#	bits
	0	0.013333	5.35677E-001	-2.78702E-004	0.00000E+000	-1.49294E-004	-1.68088E-001	5.35922E-001	3.57770E+000	9	...........
	1	0.026667	5.03920E-001	-2.78948E-004	0.00000E+000	-1.40567E-004	-1.68088E-001	5.04171E-001	3.57770E+000	9	...........
	2	0.04	4.75254E-001	-2.78722E-004	0.00000E+000	-1.32464E-004	-1.68088E-001	4.75407E-001	3.57770E+000	9	...........
	3	0.053333	4.48642E-001	-2.78987E-004	0.00000E+000	-1.25165E-004	-1.68088E-001	4.48749E-001	3.57770E+000	9	...........
	4	0.066667	4.23883E-001	-2.79206E-004	0.00000E+000	-1.18351E-004	-1.68088E-001	4.23990E-001	3.57770E+000	9	...........
	5	0.08	4.00857E-001	-2.79677E-004	0.00000E+000	-1.12111E-004	-1.68088E-001	4.00949E-001	3.57770E+000	9	...........
	6	0.093333	3.79439E-001	-2.78662E-004	0.00000E+000	-1.05735E-004	-1.68088E-001	3.79524E-001	3.57770E+000	9	...........
	7	0.106667	3.59517E-001	-2.79482E-004	0.00000E+000	-1.00479E-004	-1.68088E-001	3.59602E-001	3.57770E+000	9	...........
	8	0.12	3.41012E-001	-2.78373E-004	0.00000E+000	-9.49286E-005	-1.68088E-001	3.41088E-001	3.57770E+000	9	...........
	9	0.133333	3.23818E-001	-2.79170E-004	0.00000E+000	-9.04001E-005	-1.68088E-001	3.23892E-001	3.57770E+000	9	...........
	10	0.146667	3.07848E-001	-2.78982E-004	0.00000E+000	-8.58841E-005	-1.68088E-001	3.07920E-001	3.57770E+000	9	...........
	11	0.16	2.93012E-001	-2.78703E-004	0.00000E+000	-8.16633E-005	-1.68088E-001	2.93080E-001	3.57770E+000	9	...........
	12	0.173333	2.79251E-001	-2.78776E-004	0.00000E+000	-7.78485E-005	-1.68088E-001	2.79320E-001	3.57770E+000	9	...........
	13	0.186667	2.66434E-001	-2.79667E-004	0.00000E+000	-7.45127E-005	-1.68088E-001	2.66499E-001	3.57770E+000	9	...........
	14	0.2	2.54489E-001	-2.79323E-004	0.00000E+000	-7.10845E-005	-1.68088E-001	2.54549E-001	3.57770E+000	9	...........
	15	0.213333	2.43321E-001	-2.78444E-004	0.00000E+000	-6.77512E-005	-1.68088E-001	2.43376E-001	3.57770E+000	9	...........
	16	0.226667	2.32917E-001	-2.78944E-004	0.00000E+000	-6.49706E-005	-1.68088E-001	2.32966E-001	3.57770E+000	9	...........
	17	0.24	2.23220E-001	-2.79914E-004	0.00000E+000	-6.24824E-005	-1.68088E-001	2.23275E-001	3.57770E+000	9	...........
	18	0.253333	2.14139E-001	-2.80186E-004	0.00000E+000	-5.99986E-005	-1.68088E-001	2.14189E-001	3.57770E+000	9	...........
	19	0.266667	2.05618E-001	-2.77828E-004	0.00000E+000	-5.71263E-005	-1.68088E-001	2.05665E-001	3.57770E+000	9	...........
	20	0.28	1.97579E-001	-2.80131E-004	0.00000E+000	-5.53481E-005	-1.68088E-001	1.97628E-001	3.57770E+000	9	...........
	21	0.293333	1.89998E-001	-2.79450E-004	0.00000E+000	-5.30949E-005	-1.68088E-001	1.90047E-001	3.57770E+000	9	...........
	22	0.306667	1.82854E-001	-2.78644E-004	0.00000E+000	-5.09511E-005	-1.68088E-001	1.82894E-001	3.57770E+000	9	...........
	23	0.32	1.76116E-001	-2.78848E-004	0.00000E+000	-4.91094E-005	-1.68088E-001	1.76158E-001	3.57770E+000	9	...........
	24	0.333333	1.69782E-001	-2.79655E-004	0.00000E+000	-4.74804E-005	-1.68088E-001	1.69823E-001	3.57770E+000	9	...........
	25	0.346667	1.63695E-001	-2.79516E-004	0.00000E+000	-4.57554E-005	-1.68088E-001	1.63735E-001	3.57770E+000	9	...........
	26	0.36	1.57874E-001	-2.79378E-004	0.00000E+000	-4.41067E-005	-1.68088E-001	1.57911E-001	3.57770E+000	9	...........
	27	0.373333	1.52312E-001	-2.77740E-004	0.00000E+000	-4.23032E-005	-1.68088E-001	1.52346E-001	3.57770E+000	9	...........
	28	0.386667	1.46934E-001	-2.78767E-004	0.00000E+000	-4.09604E-005	-1.68088E-001	1.46971E-001	3.57770E+000	9	...........
	29	0.4	1.41823E-001	-2.78454E-004	0.00000E+000	-3.94912E-005	-1.68088E-001	1.41864E-001	3.57770E+000	9	...........
	30	0.413333	1.36922E-001	-2.79247E-004	0.00000E+000	-3.82352E-005	-1.68088E-001	1.36960E-001	3.57770E+000	9	...........
	31	0.426667	1.32176E-001	-2.79315E-004	0.00000E+000	-3.69187E-005	-1.68088E-001	1.32209E-001	3.57770E+000	9	...........
	32	0.44	1.27614E-001	-2.79215E-004	0.00000E+000	-3.56318E-005	-1.68088E-001	1.27647E-001	3.57770E+000	9	...........
	33	0.453333	1.23209E-001	-2.79047E-004	0.00000E+000	-3.43810E-005	-1.68088E-001	1.23239E-001	3.57770E+000	9	...........
	34	0.466667	1.18965E-001	-2.80120E-004	0.00000E+000	-3.33244E-005	-1.68088E-001	1.18993E-001	3.57770E+000	9	...........
	35	0.48	1.14885E-001	-2.78635E-004	0.00000E+000	-3.20112E-005	-1.68088E-001	1.14910E-001	3.57770E+000	9	...........
	36	0.493333	1.10854E-001	-2.79022E-004	0.00000E+000	-3.09308E-005	-1.68088E-001	1.10882E-001	3.57780E+000	9	...........
	37	0.506667	1.06976E-001	-2.79182E-004	0.00000E+000	-2.98658E-005	-1.68088E-001	1.07000E-001	3.57810E+000	9	...........
	38	0.52	1.03226E-001	-2.80231E-004	0.00000E+000	-2.89271E-005	-1.68088E-001	1.03249E-001	3.57810E+000	9	...........
	39	0.533333	9.95487E-002	-2.79039E-004	0.00000E+000	-2.77779E-005	-1.68088E-001	9.95729E-002	3.57810E+000	9	...........
	40	0.546667	9.59354E-002	-2.78676E-004	0.00000E+000	-2.67349E-005	-1.68088E-001	9.59587E-002	3.57810E+000	9	...........
	41	0.56	9.24047E-002	-2.78950E-004	0.00000E+000	-2.57763E-005	-1.68088E-001	9.24248E-002	3.57810E+000	9	...........
	42	0.573333	8.89539E-002	-2.79335E-004	0.00000E+000	-2.48480E-005	-1.68088E-001	8.89765E-002	3.57810E+000	9	...........
	43	0.586667	8.55696E-002	-2.78420E-004	0.00000E+000	-2.38243E-005	-1.68088E-001	8.55950E-002	3.57810E+000	9	...........
	44	0.6	8.22775E-002	-2.78736E-004	0.00000E+000	-2.29337E-005	-1.68088E-001	8.22946E-002	3.57810E+000	9	...........
	45	0.613333	7.90241E-002	-2.78666E-004	0.00000E+000	-2.20213E-005	-1.68088E-001	7.90392E-002	3.57810E+000	9	...........
	46	0.626667	7.58805E-002	-2.77696E-004	0.00000E+000	-2.10717E-005	-1.68088E-001	7.58931E-002	3.57810E+000	9	...........
	47	0.64	7.27260E-002	-2.78651E-004	0.00000E+000	-2.02652E-005	-1.68088E-001	7.27414E-002	3.57810E+000	9	...........
	48	0.653333	6.96200E-002	-2.78004E-004	0.00000E+000	-1.93546E-005	-1.68088E-001	6.96323E-002	3.57810E+000	9	...........
	49	0.666667	6.65808E-002	-2.78808E-004	0.00000E+000	-1.85633E-005	-1.68088E-001	6.65932E-002	3.57810E+000	9	...........
	50	0.68	6.35752E-002	-2.77806E-004	0.00000E+000	-1.76616E-005	-1.68088E-001	6.35909E-002	3.57810E+000	9	...........
	51	0.693333	6.06671E-002	-2.79221E-004	0.00000E+000	-1.69395E-005	-1.68088E-001	6.06809E-002	3.57810E+000	9	...........
	52	0.706667	5.78162E-002	-2.79588E-004	0.00000E+000	-1.61647E-005	-1.68088E-001	5.78320E-002	3.57810E+000	9	...........
	53	0.72	5.50014E-002	-2.78860E-004	0.00000E+000	-1.53377E-005	-1.68088E-001	5.50152E-002	3.57810E+000	9	...........
	54	0.733333	5.22428E-002	-2.78758E-004	0.00000E+000	-1.45631E-005	-1.68088E-001	5.22483E-002	3.57810E+000	9	...........
	55	0.746667	4.95842E-002	-2.78523E-004	0.00000E+000	-1.38103E-005	-1.68088E-001	4.95854E-002	3.57810E+000	9	...........
	56	0.76	4.69394E-002	-2.78893E-004	0.00000E+000	-1.30911E-005	-1.68088E-001	4.69530E-002	3.57810E+000	9	...........
	57	0.773333	4.42702E-002	-2.79380E-004	0.00000E+000	-1.23682E-005	-1.68088E-001	4.42798E-002	3.57810E+000	9	...........
	58	0.786667	4.16324E-002	-2.78255E-004	0.00000E+000	-1.15844E-005	-1.68088E-001	4.16400E-002	3.57810E+000	9	...........
	59	0.8	3.90272E-002	-2.79170E-004	0.00000E+000	-1.08952E-005	-1.68088E-001	3.90340E-002	3.57810E+000	9	...........
	60	0.813333	3.64465E-002	-2.79451E-004	0.00000E+000	-1.01850E-005	-1.68088E-001	3.64478E-002	3.57810E+000	9	...........
	61	0.826667	3.38695E-002	-2.77524E-004	0.00000E+000	-9.39957E-006	-1.68088E-001	3.38693E-002	3.57810E+000	9	...........
	62	0.84	3.12986E-002	-2.77966E-004	0.00000E+000	-8.69996E-006	-1.68088E-001	3.12977E-002	3.57810E+000	9	...........
	63	0.853333	2.88317E-002	-2.77838E-004	0.00000E+000	-8.01054E-006	-1.68088E-001	2.88319E-002	3.57810E+000	9	...........
	64	0.866667	2.64158E-002	-2.79214E-004	0.00000E+000	-7.37564E-006	-1.68088E-001	2.64136E-002	3.57810E+000	9	...........
	65	0.88	2.39782E-002	-2.79589E-004	0.00000E+000	-6.70404E-006	-1.68088E-001	2.39764E-002	3.57810E+000	9	...........
	66	0.893333	2.16053E-002	-2.79071E-004	0.00000E+000	-6.02941E-006	-1.68088E-001	2.15990E-002	3.57810E+000	9	...........
	67	0.906667	1.92516E-002	-2.78596E-004	0.00000E+000	-5.36340E-006	-1.68088E-001	1.92403E-002	3.57810E+000	9	...........
	68	0.92	1.68601E-002	-2.78401E-004	0.00000E+000	-4.69388E-006	-1.68088E-001	1.68498E-002	3.57810E+000	9	...........
	69	0.933333	1.45072E-002	-2.79779E-004	0.00000E+000	-4.05881E-006	-1.68088E-001	1.44924E-002	3.57810E+000	9	...........
	70	0.946667	1.22670E-002	-2.79821E-004	0.00000E+000	-3.43256E-006	-1.68088E-001	1.22552E-002	3.57810E+000	9	...........
	71	0.96	1.00690E-002	-2.77824E-004	0.00000E+000	-2.79742E-006	-1.68088E-001	1.00584E-002	3.57810E+000	9	...........
	72	0.97333	7.81890E-003	-2.79897E-004	0.00000E+000	-2.18849E-006	-1.68088E-001	7.80211E-003	3.57810E+000	9	...........
	73	0.98667	5.54187E-003	-2.78162E-004	0.00000E+000	-1.54154E-006	-1.68088E-001	5.52625E-003	3.57810E+000	9	...........
	74	1	3.32808E-003	-2.79359E-004	0.00000E+000	-9.29731E-007	-1.68088E-001	3.31142E-003	3.57810E+000	9	...........
	75	1.01333	1.11571E-003	-2.78699E-004	0.00000E+000	-3.10946E-007	-1.68088E-001	1.10198E-003	3.57810E+000	9	...........
	76	1.015	-1.05651E-004	-2.80140E-004	0.00000E+000	2.95970E-008	-1.68088E-001	-1.28235E-004	3.57810E+000	9	...........
STARTTIMEOFFSET	QUANT	945.1852	Start Time Offset (s)
