EXPLAIN
TAG	PWR800_DISCHARGE
TITLE	LABEL	PWR Cyclic Charge Discharge (Cell) - Discharge Step	Test &Identifier
DATE	LABEL	7-7-2017	Date
TIME	LABEL	16:20:11	Time
NOTES	NOTES	3	&Notes...
	supercap test cell
	2.8mg
	6M KOH
PSTAT	PSTAT	IFC5000-01520	Potentiostat
CAPACITY	QUANT	1.00000E-003	Capacity (A-hr)
CELLTYPE	SELECTOR	1	&Cell Type
WORKINGCONNECTION	SELECTOR	0	&Working Lead
MAXDISCHARGETIME	VARIABLEANDUNITS	1.00000E+002	s	1.00000E+002	second(s)	Max &Discharge Time
DISCHARGEMODE	MULTIPARAM	0	2.80000E-004	&Discharge Mode	Constant Current	Amp(s)
SAMPLETIME	QUANT	1.00000E-002	Sa&mple Period (s)
DISCHARGESTOPAT1	MULTIPARAM	3	0.00000E+000	Discharge Stop At &1	Voltage < Limit	V
DISCHARGESTOPAT2	MULTIPARAM	0	0.00000E+000	Discharge Stop At &2	None	N/A
AESBHCSELECTOR	TOGGLE	F	Save Both Half Cells
IRCOMP	TOGGLE	F	IR &Measure
EOC	QUANT	0	Open Circuit (V)
SEQUENCER	TOGGLE	TRUE	Run as Sequence
PSTATMODEL	IQUANT	53	Pstat Model
PSTATSECTION	LABEL	IFC5000-01520	Pstat Section
PSTATSERIALNO	LABEL	01520	Pstat Serial Number
CTRLMODE	IQUANT	0	Control Mode
ELECTROMETER	IQUANT	1	RE=0 or CS=1
IESTAB	IQUANT	0	I/E Stability
CASPEED	IQUANT	4	Control Amp Speed
CONVENTION	IQUANT	1	Current Convention
ICHRANGE	IQUANT	2	Ich Range
ICHRANGEMODE	TOGGLE	T	Ich Auto Range
ICHOFFSETENABLE	TOGGLE	F	Ich Offset Enable
ICHOFFSET	QUANT	0	Ich Offset (V)
ICHFILTER	IQUANT	1	Ich Filter
VCHRANGE	IQUANT	2	Vch Range
VCHRANGEMODE	TOGGLE	T	Vch Auto Range
VCHOFFSETENABLE	TOGGLE	F	Vch Offset Enable
VCHOFFSET	QUANT	0	Vch Offset (V)
VCHFILTER	IQUANT	1	Vch Filter
IERANGELOWERLIMIT	IQUANT	9	I/E Range Lower Limit
IERANGEMODE	TOGGLE	F	I/E AutoRange
IERANGE	IQUANT	9	I/E Range
ACHSELECT	IQUANT	1	Ach Select
ACHRANGE	IQUANT	2	Ach Range
ACHOFFSETENABLE	TOGGLE	F	Ach Offset Enable
ACHOFFSET	QUANT	0	Ach Offset (V)
ACHFILTER	IQUANT	1	Ach Filter
CABLEID	IQUANT	14	Cable ID
DCCALDATE	LABEL	5-7-2017	DC Calibration Date
ACCALDATE	LABEL	12/3/2015	AC Calibration Date
FRAMEWORKVERSION	QUANT	7.01	Framework Version
INSTRUMENTVERSION	LABEL	4.00	Instrument Version
CURVE	TABLE	54
	Pt	T	Vf	Im	Vu	Pwr	Sig	Ach	Temp	IERange	Over
	#	s	V	A	V	W	V	V	deg C	#	bits
	0	0.013333	5.18787E-001	-2.79392E-004	0.00000E+000	-1.44945E-004	-1.68088E-001	5.19042E-001	3.57770E+000	9	...........
	1	0.026667	4.85016E-001	-2.79008E-004	0.00000E+000	-1.35323E-004	-1.68088E-001	4.85239E-001	3.57745E+000	9	...........
	2	0.04	4.54101E-001	-2.79318E-004	0.00000E+000	-1.26839E-004	-1.68088E-001	4.54212E-001	3.57730E+000	9	...........
	3	0.053333	4.25160E-001	-2.79057E-004	0.00000E+000	-1.18644E-004	-1.68088E-001	4.25266E-001	3.57730E+000	9	...........
	4	0.066667	3.98122E-001	-2.79106E-004	0.00000E+000	-1.11118E-004	-1.68088E-001	3.98208E-001	3.57730E+000	9	...........
	5	0.08	3.72808E-001	-2.78307E-004	0.00000E+000	-1.03755E-004	-1.68088E-001	3.72891E-001	3.57730E+000	9	...........
	6	0.093333	3.49180E-001	-2.80429E-004	0.00000E+000	-9.79203E-005	-1.68088E-001	3.49260E-001	3.57730E+000	9	...........
	7	0.106667	3.27087E-001	-2.79482E-004	0.00000E+000	-9.14150E-005	-1.68088E-001	3.27165E-001	3.57730E+000	9	...........
	8	0.12	3.06477E-001	-2.79789E-004	0.00000E+000	-8.57488E-005	-1.68088E-001	3.06551E-001	3.57730E+000	9	...........
	9	0.133333	2.87311E-001	-2.79544E-004	0.00000E+000	-8.03161E-005	-1.68088E-001	2.87378E-001	3.57730E+000	9	...........
	10	0.146667	2.69515E-001	-2.79399E-004	0.00000E+000	-7.53021E-005	-1.68088E-001	2.69581E-001	3.57730E+000	9	...........
	11	0.16	2.53004E-001	-2.79400E-004	0.00000E+000	-7.06893E-005	-1.68088E-001	2.53064E-001	3.57730E+000	9	...........
	12	0.173333	2.37681E-001	-2.77516E-004	0.00000E+000	-6.59602E-005	-1.68088E-001	2.37731E-001	3.57730E+000	9	...........
	13	0.186667	2.23406E-001	-2.79997E-004	0.00000E+000	-6.25530E-005	-1.68088E-001	2.23455E-001	3.57730E+000	9	...........
	14	0.2	2.10176E-001	-2.78544E-004	0.00000E+000	-5.85432E-005	-1.68088E-001	2.10217E-001	3.57730E+000	9	...........
	15	0.213333	1.97869E-001	-2.79762E-004	0.00000E+000	-5.53562E-005	-1.68088E-001	1.97909E-001	3.57730E+000	9	...........
	16	0.226667	1.86410E-001	-2.79946E-004	0.00000E+000	-5.21848E-005	-1.68088E-001	1.86453E-001	3.57730E+000	9	...........
	17	0.24	1.75761E-001	-2.77279E-004	0.00000E+000	-4.87347E-005	-1.68088E-001	1.75800E-001	3.57730E+000	9	...........
	18	0.253333	1.65862E-001	-2.79476E-004	0.00000E+000	-4.63546E-005	-1.68088E-001	1.65898E-001	3.57730E+000	9	...........
	19	0.266667	1.56574E-001	-2.78036E-004	0.00000E+000	-4.35331E-005	-1.68088E-001	1.56605E-001	3.57730E+000	9	...........
	20	0.28	1.47880E-001	-2.79504E-004	0.00000E+000	-4.13330E-005	-1.68088E-001	1.47909E-001	3.57730E+000	9	...........
	21	0.293333	1.39743E-001	-2.79305E-004	0.00000E+000	-3.90311E-005	-1.68088E-001	1.39773E-001	3.57730E+000	9	...........
	22	0.306667	1.32095E-001	-2.79593E-004	0.00000E+000	-3.69327E-005	-1.68088E-001	1.32128E-001	3.57730E+000	9	...........
	23	0.32	1.24903E-001	-2.77631E-004	0.00000E+000	-3.46768E-005	-1.68088E-001	1.24931E-001	3.57730E+000	9	...........
	24	0.333333	1.17998E-001	-2.78751E-004	0.00000E+000	-3.28920E-005	-1.68088E-001	1.18025E-001	3.57730E+000	9	...........
	25	0.346667	1.11483E-001	-2.78097E-004	0.00000E+000	-3.10032E-005	-1.68088E-001	1.11507E-001	3.57730E+000	9	...........
	26	0.36	1.05290E-001	-2.79618E-004	0.00000E+000	-2.94409E-005	-1.68088E-001	1.05318E-001	3.57730E+000	9	...........
	27	0.373333	9.94225E-002	-2.79340E-004	0.00000E+000	-2.77726E-005	-1.68088E-001	9.94437E-002	3.57730E+000	9	...........
	28	0.386667	9.38100E-002	-2.80079E-004	0.00000E+000	-2.62743E-005	-1.68088E-001	9.38343E-002	3.57730E+000	9	...........
	29	0.4	8.84917E-002	-2.78946E-004	0.00000E+000	-2.46844E-005	-1.68088E-001	8.85121E-002	3.57730E+000	9	...........
	30	0.413333	8.33479E-002	-2.78674E-004	0.00000E+000	-2.32269E-005	-1.68088E-001	8.33689E-002	3.57730E+000	9	...........
	31	0.426667	7.84201E-002	-2.78568E-004	0.00000E+000	-2.18453E-005	-1.68088E-001	7.84375E-002	3.57730E+000	9	...........
	32	0.44	7.36799E-002	-2.78476E-004	0.00000E+000	-2.05181E-005	-1.68088E-001	7.36965E-002	3.57730E+000	9	...........
	33	0.453333	6.90945E-002	-2.79555E-004	0.00000E+000	-1.93157E-005	-1.68088E-001	6.91090E-002	3.57730E+000	9	...........
	34	0.466667	6.46840E-002	-2.79184E-004	0.00000E+000	-1.80588E-005	-1.68088E-001	6.47003E-002	3.57730E+000	9	...........
	35	0.48	6.04153E-002	-2.78770E-004	0.00000E+000	-1.68420E-005	-1.68088E-001	6.04269E-002	3.57730E+000	9	...........
	36	0.493333	5.62996E-002	-2.79381E-004	0.00000E+000	-1.57291E-005	-1.68088E-001	5.63099E-002	3.57730E+000	9	...........
	37	0.506667	5.23066E-002	-2.79423E-004	0.00000E+000	-1.46157E-005	-1.68088E-001	5.23126E-002	3.57730E+000	9	...........
	38	0.52	4.84583E-002	-2.78126E-004	0.00000E+000	-1.34775E-005	-1.68088E-001	4.84621E-002	3.57730E+000	9	...........
	39	0.533333	4.47309E-002	-2.78648E-004	0.00000E+000	-1.24642E-005	-1.68088E-001	4.47369E-002	3.57730E+000	9	...........
	40	0.546667	4.10835E-002	-2.79186E-004	0.00000E+000	-1.14700E-005	-1.68088E-001	4.10914E-002	3.57730E+000	9	...........
	41	0.56	3.75692E-002	-2.79390E-004	0.00000E+000	-1.04964E-005	-1.68088E-001	3.75697E-002	3.57730E+000	9	...........
	42	0.573333	3.41516E-002	-2.78808E-004	0.00000E+000	-9.52174E-006	-1.68088E-001	3.41524E-002	3.57730E+000	9	...........
	43	0.586667	3.07338E-002	-2.78205E-004	0.00000E+000	-8.55030E-006	-1.68088E-001	3.07316E-002	3.57730E+000	9	...........
	44	0.6	2.73929E-002	-2.79203E-004	0.00000E+000	-7.64817E-006	-1.68088E-001	2.73919E-002	3.57730E+000	9	...........
	45	0.613333	2.40913E-002	-2.78498E-004	0.00000E+000	-6.70939E-006	-1.68088E-001	2.40838E-002	3.57730E+000	9	...........
	46	0.626667	2.09197E-002	-2.78962E-004	0.00000E+000	-5.83581E-006	-1.68088E-001	2.09088E-002	3.57730E+000	9	...........
	47	0.64	1.77903E-002	-2.80179E-004	0.00000E+000	-4.98449E-006	-1.68088E-001	1.77862E-002	3.57730E+000	9	...........
	48	0.653333	1.46993E-002	-2.79376E-004	0.00000E+000	-4.10662E-006	-1.68088E-001	1.46895E-002	3.57730E+000	9	...........
	49	0.666667	1.16851E-002	-2.79038E-004	0.00000E+000	-3.26059E-006	-1.68088E-001	1.16737E-002	3.57730E+000	9	...........
	50	0.68	8.72329E-003	-2.79078E-004	0.00000E+000	-2.43448E-006	-1.68088E-001	8.71032E-003	3.57730E+000	9	...........
	51	0.693333	5.79609E-003	-2.79277E-004	0.00000E+000	-1.61872E-006	-1.68088E-001	5.77975E-003	3.57730E+000	9	...........
	52	0.706667	2.92722E-003	-2.80274E-004	0.00000E+000	-8.20423E-007	-1.68088E-001	2.91057E-003	3.57730E+000	9	...........
	53	0.715	6.22812E-004	-2.80141E-004	0.00000E+000	-1.74475E-007	-1.68088E-001	5.99203E-004	3.57730E+000	9	...........
STARTTIMEOFFSET	QUANT	1929.86	Start Time Offset (s)
