EXPLAIN
TAG	PWR800_DISCHARGE
TITLE	LABEL	PWR Cyclic Charge Discharge (Cell) - Discharge Step	Test &Identifier
DATE	LABEL	7-7-2017	Date
TIME	LABEL	15:59:58	Time
NOTES	NOTES	3	&Notes...
	supercap test cell
	2.8mg
	6M KOH
PSTAT	PSTAT	IFC5000-01520	Potentiostat
CAPACITY	QUANT	1.00000E-003	Capacity (A-hr)
CELLTYPE	SELECTOR	1	&Cell Type
WORKINGCONNECTION	SELECTOR	0	&Working Lead
MAXDISCHARGETIME	VARIABLEANDUNITS	1.00000E+002	s	1.00000E+002	second(s)	Max &Discharge Time
DISCHARGEMODE	MULTIPARAM	0	2.80000E-004	&Discharge Mode	Constant Current	Amp(s)
SAMPLETIME	QUANT	1.00000E-002	Sa&mple Period (s)
DISCHARGESTOPAT1	MULTIPARAM	3	0.00000E+000	Discharge Stop At &1	Voltage < Limit	V
DISCHARGESTOPAT2	MULTIPARAM	0	0.00000E+000	Discharge Stop At &2	None	N/A
AESBHCSELECTOR	TOGGLE	F	Save Both Half Cells
IRCOMP	TOGGLE	F	IR &Measure
EOC	QUANT	0	Open Circuit (V)
SEQUENCER	TOGGLE	TRUE	Run as Sequence
PSTATMODEL	IQUANT	53	Pstat Model
PSTATSECTION	LABEL	IFC5000-01520	Pstat Section
PSTATSERIALNO	LABEL	01520	Pstat Serial Number
CTRLMODE	IQUANT	0	Control Mode
ELECTROMETER	IQUANT	1	RE=0 or CS=1
IESTAB	IQUANT	0	I/E Stability
CASPEED	IQUANT	4	Control Amp Speed
CONVENTION	IQUANT	1	Current Convention
ICHRANGE	IQUANT	2	Ich Range
ICHRANGEMODE	TOGGLE	T	Ich Auto Range
ICHOFFSETENABLE	TOGGLE	F	Ich Offset Enable
ICHOFFSET	QUANT	0	Ich Offset (V)
ICHFILTER	IQUANT	1	Ich Filter
VCHRANGE	IQUANT	2	Vch Range
VCHRANGEMODE	TOGGLE	T	Vch Auto Range
VCHOFFSETENABLE	TOGGLE	F	Vch Offset Enable
VCHOFFSET	QUANT	0	Vch Offset (V)
VCHFILTER	IQUANT	1	Vch Filter
IERANGELOWERLIMIT	IQUANT	9	I/E Range Lower Limit
IERANGEMODE	TOGGLE	F	I/E AutoRange
IERANGE	IQUANT	9	I/E Range
ACHSELECT	IQUANT	1	Ach Select
ACHRANGE	IQUANT	2	Ach Range
ACHOFFSETENABLE	TOGGLE	F	Ach Offset Enable
ACHOFFSET	QUANT	0	Ach Offset (V)
ACHFILTER	IQUANT	1	Ach Filter
CABLEID	IQUANT	14	Cable ID
DCCALDATE	LABEL	5-7-2017	DC Calibration Date
ACCALDATE	LABEL	12/3/2015	AC Calibration Date
FRAMEWORKVERSION	QUANT	7.01	Framework Version
INSTRUMENTVERSION	LABEL	4.00	Instrument Version
CURVE	TABLE	70
	Pt	T	Vf	Im	Vu	Pwr	Sig	Ach	Temp	IERange	Over
	#	s	V	A	V	W	V	V	deg C	#	bits
	0	0.013333	5.33994E-001	-2.79220E-004	0.00000E+000	-1.49102E-004	-1.68088E-001	5.34226E-001	3.57890E+000	9	...........
	1	0.026667	5.01582E-001	-2.78364E-004	0.00000E+000	-1.39623E-004	-1.68088E-001	5.01854E-001	3.57890E+000	9	...........
	2	0.04	4.72267E-001	-2.78270E-004	0.00000E+000	-1.31418E-004	-1.68088E-001	4.72399E-001	3.57890E+000	9	...........
	3	0.053333	4.44907E-001	-2.78964E-004	0.00000E+000	-1.24113E-004	-1.68088E-001	4.45012E-001	3.57890E+000	9	...........
	4	0.066667	4.19416E-001	-2.78772E-004	0.00000E+000	-1.16921E-004	-1.68088E-001	4.19515E-001	3.57890E+000	9	...........
	5	0.08	3.95668E-001	-2.79794E-004	0.00000E+000	-1.10705E-004	-1.68088E-001	3.95758E-001	3.57890E+000	9	...........
	6	0.093333	3.73557E-001	-2.76841E-004	0.00000E+000	-1.03416E-004	-1.68088E-001	3.73642E-001	3.57890E+000	9	...........
	7	0.106667	3.52945E-001	-2.79529E-004	0.00000E+000	-9.86583E-005	-1.68088E-001	3.53023E-001	3.57890E+000	9	...........
	8	0.12	3.33764E-001	-2.79005E-004	0.00000E+000	-9.31218E-005	-1.68088E-001	3.33846E-001	3.57890E+000	9	...........
	9	0.133333	3.15956E-001	-2.79296E-004	0.00000E+000	-8.82451E-005	-1.68088E-001	3.16025E-001	3.57890E+000	9	...........
	10	0.146667	2.99386E-001	-2.79244E-004	0.00000E+000	-8.36018E-005	-1.68088E-001	2.99456E-001	3.57890E+000	9	...........
	11	0.16	2.83998E-001	-2.79543E-004	0.00000E+000	-7.93895E-005	-1.68088E-001	2.84066E-001	3.57890E+000	9	...........
	12	0.173333	2.69676E-001	-2.78493E-004	0.00000E+000	-7.51029E-005	-1.68088E-001	2.69742E-001	3.57890E+000	9	...........
	13	0.186667	2.56359E-001	-2.78128E-004	0.00000E+000	-7.13006E-005	-1.68088E-001	2.56427E-001	3.57890E+000	9	...........
	14	0.2	2.43999E-001	-2.78493E-004	0.00000E+000	-6.79520E-005	-1.68088E-001	2.44054E-001	3.57890E+000	9	...........
	15	0.213333	2.32494E-001	-2.78218E-004	0.00000E+000	-6.46840E-005	-1.68088E-001	2.32548E-001	3.57890E+000	9	...........
	16	0.226667	2.21759E-001	-2.78785E-004	0.00000E+000	-6.18232E-005	-1.68088E-001	2.21815E-001	3.57890E+000	9	...........
	17	0.24	2.11762E-001	-2.78111E-004	0.00000E+000	-5.88933E-005	-1.68088E-001	2.11816E-001	3.57890E+000	9	...........
	18	0.253333	2.02389E-001	-2.79199E-004	0.00000E+000	-5.65069E-005	-1.68088E-001	2.02443E-001	3.57890E+000	9	...........
	19	0.266667	1.93558E-001	-2.78606E-004	0.00000E+000	-5.39265E-005	-1.68088E-001	1.93607E-001	3.57890E+000	9	...........
	20	0.28	1.85296E-001	-2.79327E-004	0.00000E+000	-5.17581E-005	-1.68088E-001	1.85342E-001	3.57890E+000	9	...........
	21	0.293333	1.77572E-001	-2.77972E-004	0.00000E+000	-4.93599E-005	-1.68088E-001	1.77616E-001	3.57890E+000	9	...........
	22	0.306667	1.70280E-001	-2.79904E-004	0.00000E+000	-4.76621E-005	-1.68088E-001	1.70326E-001	3.57890E+000	9	...........
	23	0.32	1.63404E-001	-2.78956E-004	0.00000E+000	-4.55827E-005	-1.68088E-001	1.63443E-001	3.57890E+000	9	...........
	24	0.333333	1.56858E-001	-2.78606E-004	0.00000E+000	-4.37015E-005	-1.68088E-001	1.56897E-001	3.57890E+000	9	...........
	25	0.346667	1.50571E-001	-2.78427E-004	0.00000E+000	-4.19230E-005	-1.68088E-001	1.50611E-001	3.57890E+000	9	...........
	26	0.36	1.44651E-001	-2.78856E-004	0.00000E+000	-4.03369E-005	-1.68088E-001	1.44687E-001	3.57890E+000	9	...........
	27	0.373333	1.38951E-001	-2.78413E-004	0.00000E+000	-3.86858E-005	-1.68088E-001	1.38988E-001	3.57890E+000	9	...........
	28	0.386667	1.33543E-001	-2.78805E-004	0.00000E+000	-3.72325E-005	-1.68088E-001	1.33576E-001	3.57890E+000	9	...........
	29	0.4	1.28363E-001	-2.78627E-004	0.00000E+000	-3.57653E-005	-1.68088E-001	1.28399E-001	3.57890E+000	9	...........
	30	0.413333	1.23374E-001	-2.77721E-004	0.00000E+000	-3.42634E-005	-1.68088E-001	1.23403E-001	3.57868E+000	9	...........
	31	0.426667	1.18559E-001	-2.77519E-004	0.00000E+000	-3.29025E-005	-1.68088E-001	1.18592E-001	3.57760E+000	9	...........
	32	0.44	1.13879E-001	-2.79588E-004	0.00000E+000	-3.18390E-005	-1.68088E-001	1.13911E-001	3.57760E+000	9	...........
	33	0.453333	1.09394E-001	-2.79620E-004	0.00000E+000	-3.05887E-005	-1.68088E-001	1.09426E-001	3.57760E+000	9	...........
	34	0.466667	1.05068E-001	-2.78383E-004	0.00000E+000	-2.92491E-005	-1.68088E-001	1.05096E-001	3.57760E+000	9	...........
	35	0.48	1.00858E-001	-2.78354E-004	0.00000E+000	-2.80742E-005	-1.68088E-001	1.00888E-001	3.57760E+000	9	...........
	36	0.493333	9.67759E-002	-2.79090E-004	0.00000E+000	-2.70092E-005	-1.68088E-001	9.68075E-002	3.57760E+000	9	...........
	37	0.506667	9.28195E-002	-2.79640E-004	0.00000E+000	-2.59560E-005	-1.68088E-001	9.28416E-002	3.57760E+000	9	...........
	38	0.52	8.90167E-002	-2.78395E-004	0.00000E+000	-2.47818E-005	-1.68088E-001	8.90439E-002	3.57760E+000	9	...........
	39	0.533333	8.52597E-002	-2.80136E-004	0.00000E+000	-2.38843E-005	-1.68088E-001	8.52851E-002	3.57760E+000	9	...........
	40	0.546667	8.15737E-002	-2.78451E-004	0.00000E+000	-2.27143E-005	-1.68088E-001	8.15928E-002	3.57760E+000	9	...........
	41	0.56	7.80061E-002	-2.78612E-004	0.00000E+000	-2.17335E-005	-1.68088E-001	7.80283E-002	3.57760E+000	9	...........
	42	0.573333	7.45423E-002	-2.78446E-004	0.00000E+000	-2.07560E-005	-1.68088E-001	7.45569E-002	3.57760E+000	9	...........
	43	0.586667	7.11644E-002	-2.77680E-004	0.00000E+000	-1.97609E-005	-1.68088E-001	7.11801E-002	3.57760E+000	9	...........
	44	0.6	6.78906E-002	-2.78835E-004	0.00000E+000	-1.89303E-005	-1.68088E-001	6.79108E-002	3.57760E+000	9	...........
	45	0.613333	6.46589E-002	-2.79603E-004	0.00000E+000	-1.80788E-005	-1.68088E-001	6.46712E-002	3.57760E+000	9	...........
	46	0.626667	6.15046E-002	-2.78723E-004	0.00000E+000	-1.71428E-005	-1.68088E-001	6.15193E-002	3.57760E+000	9	...........
	47	0.64	5.84555E-002	-2.78961E-004	0.00000E+000	-1.63068E-005	-1.68088E-001	5.84674E-002	3.57760E+000	9	...........
	48	0.653333	5.54321E-002	-2.80010E-004	0.00000E+000	-1.55215E-005	-1.68088E-001	5.54456E-002	3.57760E+000	9	...........
	49	0.666667	5.24574E-002	-2.80233E-004	0.00000E+000	-1.47003E-005	-1.68088E-001	5.24640E-002	3.57760E+000	9	...........
	50	0.68	4.95408E-002	-2.77909E-004	0.00000E+000	-1.37678E-005	-1.68088E-001	4.95417E-002	3.57760E+000	9	...........
	51	0.693333	4.66747E-002	-2.79044E-004	0.00000E+000	-1.30243E-005	-1.68088E-001	4.66841E-002	3.57760E+000	9	...........
	52	0.706667	4.37770E-002	-2.79989E-004	0.00000E+000	-1.22571E-005	-1.68088E-001	4.37895E-002	3.57760E+000	9	...........
	53	0.72	4.09395E-002	-2.79313E-004	0.00000E+000	-1.14349E-005	-1.68088E-001	4.09487E-002	3.57760E+000	9	...........
	54	0.733333	3.81768E-002	-2.78534E-004	0.00000E+000	-1.06335E-005	-1.68088E-001	3.81820E-002	3.57760E+000	9	...........
	55	0.746667	3.54565E-002	-2.78379E-004	0.00000E+000	-9.87034E-006	-1.68088E-001	3.54611E-002	3.57760E+000	9	...........
	56	0.76	3.27635E-002	-2.78553E-004	0.00000E+000	-9.12637E-006	-1.68088E-001	3.27699E-002	3.57760E+000	9	...........
	57	0.773333	3.00970E-002	-2.77809E-004	0.00000E+000	-8.36123E-006	-1.68088E-001	3.01010E-002	3.57760E+000	9	...........
	58	0.786667	2.74157E-002	-2.80026E-004	0.00000E+000	-7.67712E-006	-1.68088E-001	2.74184E-002	3.57760E+000	9	...........
	59	0.8	2.48190E-002	-2.79444E-004	0.00000E+000	-6.93552E-006	-1.68088E-001	2.48134E-002	3.57760E+000	9	...........
	60	0.813333	2.22998E-002	-2.79522E-004	0.00000E+000	-6.23327E-006	-1.68088E-001	2.22973E-002	3.57760E+000	9	...........
	61	0.826667	1.98151E-002	-2.78130E-004	0.00000E+000	-5.51116E-006	-1.68088E-001	1.98062E-002	3.57760E+000	9	...........
	62	0.84	1.73024E-002	-2.78723E-004	0.00000E+000	-4.82258E-006	-1.68088E-001	1.72960E-002	3.57760E+000	9	...........
	63	0.853333	1.48811E-002	-2.78930E-004	0.00000E+000	-4.15078E-006	-1.68088E-001	1.48749E-002	3.57760E+000	9	...........
	64	0.866667	1.24683E-002	-2.77001E-004	0.00000E+000	-3.45373E-006	-1.68088E-001	1.24599E-002	3.57760E+000	9	...........
	65	0.88	1.00397E-002	-2.79636E-004	0.00000E+000	-2.80744E-006	-1.68088E-001	1.00308E-002	3.57760E+000	9	...........
	66	0.893333	7.65246E-003	-2.79481E-004	0.00000E+000	-2.13872E-006	-1.68088E-001	7.63808E-003	3.57760E+000	9	...........
	67	0.906667	5.28494E-003	-2.79317E-004	0.00000E+000	-1.47617E-006	-1.68088E-001	5.27400E-003	3.57760E+000	9	...........
	68	0.92	2.92837E-003	-2.79939E-004	0.00000E+000	-8.19763E-007	-1.68088E-001	2.90912E-003	3.57760E+000	9	...........
	69	0.931667	7.37307E-004	-2.79885E-004	0.00000E+000	-2.06361E-007	-1.68088E-001	7.16992E-004	3.57760E+000	9	...........
STARTTIMEOFFSET	QUANT	1108.102	Start Time Offset (s)
