EXPLAIN
TAG	PWR800_DISCHARGE
TITLE	LABEL	PWR Cyclic Charge Discharge (Cell) - Discharge Step	Test &Identifier
DATE	LABEL	7-7-2017	Date
TIME	LABEL	15:37:45	Time
NOTES	NOTES	3	&Notes...
	supercap test cell
	2.8mg
	6M KOH
PSTAT	PSTAT	IFC5000-01520	Potentiostat
CAPACITY	QUANT	1.00000E-003	Capacity (A-hr)
CELLTYPE	SELECTOR	1	&Cell Type
WORKINGCONNECTION	SELECTOR	0	&Working Lead
MAXDISCHARGETIME	VARIABLEANDUNITS	1.00000E+002	s	1.00000E+002	second(s)	Max &Discharge Time
DISCHARGEMODE	MULTIPARAM	0	2.80000E-004	&Discharge Mode	Constant Current	Amp(s)
SAMPLETIME	QUANT	1.00000E-002	Sa&mple Period (s)
DISCHARGESTOPAT1	MULTIPARAM	3	0.00000E+000	Discharge Stop At &1	Voltage < Limit	V
DISCHARGESTOPAT2	MULTIPARAM	0	0.00000E+000	Discharge Stop At &2	None	N/A
AESBHCSELECTOR	TOGGLE	F	Save Both Half Cells
IRCOMP	TOGGLE	F	IR &Measure
EOC	QUANT	0	Open Circuit (V)
SEQUENCER	TOGGLE	TRUE	Run as Sequence
PSTATMODEL	IQUANT	53	Pstat Model
PSTATSECTION	LABEL	IFC5000-01520	Pstat Section
PSTATSERIALNO	LABEL	01520	Pstat Serial Number
CTRLMODE	IQUANT	0	Control Mode
ELECTROMETER	IQUANT	1	RE=0 or CS=1
IESTAB	IQUANT	0	I/E Stability
CASPEED	IQUANT	4	Control Amp Speed
CONVENTION	IQUANT	1	Current Convention
ICHRANGE	IQUANT	2	Ich Range
ICHRANGEMODE	TOGGLE	T	Ich Auto Range
ICHOFFSETENABLE	TOGGLE	F	Ich Offset Enable
ICHOFFSET	QUANT	0	Ich Offset (V)
ICHFILTER	IQUANT	1	Ich Filter
VCHRANGE	IQUANT	2	Vch Range
VCHRANGEMODE	TOGGLE	T	Vch Auto Range
VCHOFFSETENABLE	TOGGLE	F	Vch Offset Enable
VCHOFFSET	QUANT	0	Vch Offset (V)
VCHFILTER	IQUANT	1	Vch Filter
IERANGELOWERLIMIT	IQUANT	9	I/E Range Lower Limit
IERANGEMODE	TOGGLE	F	I/E AutoRange
IERANGE	IQUANT	9	I/E Range
ACHSELECT	IQUANT	1	Ach Select
ACHRANGE	IQUANT	2	Ach Range
ACHOFFSETENABLE	TOGGLE	F	Ach Offset Enable
ACHOFFSET	QUANT	0	Ach Offset (V)
ACHFILTER	IQUANT	1	Ach Filter
CABLEID	IQUANT	14	Cable ID
DCCALDATE	LABEL	5-7-2017	DC Calibration Date
ACCALDATE	LABEL	12/3/2015	AC Calibration Date
FRAMEWORKVERSION	QUANT	7.01	Framework Version
INSTRUMENTVERSION	LABEL	4.00	Instrument Version
CURVE	TABLE	151
	Pt	T	Vf	Im	Vu	Pwr	Sig	Ach	Temp	IERange	Over
	#	s	V	A	V	W	V	V	deg C	#	bits
	0	0.013333	5.86883E-001	-2.79009E-004	0.00000E+000	-1.63746E-004	-1.68088E-001	5.87123E-001	3.57800E+000	9	...........
	1	0.026667	5.60626E-001	-2.79396E-004	0.00000E+000	-1.56637E-004	-1.68088E-001	5.60841E-001	3.57800E+000	9	...........
	2	0.04	5.37221E-001	-2.78667E-004	0.00000E+000	-1.49706E-004	-1.68088E-001	5.37430E-001	3.57800E+000	9	...........
	3	0.053333	5.16070E-001	-2.79090E-004	0.00000E+000	-1.44030E-004	-1.68088E-001	5.16271E-001	3.57800E+000	9	...........
	4	0.066667	4.96720E-001	-2.78985E-004	0.00000E+000	-1.38578E-004	-1.68088E-001	4.96929E-001	3.57800E+000	9	...........
	5	0.08	4.79213E-001	-2.78258E-004	0.00000E+000	-1.33345E-004	-1.68088E-001	4.79346E-001	3.57800E+000	9	...........
	6	0.093333	4.62876E-001	-2.78229E-004	0.00000E+000	-1.28786E-004	-1.68088E-001	4.62992E-001	3.57800E+000	9	...........
	7	0.106667	4.47660E-001	-2.78414E-004	0.00000E+000	-1.24635E-004	-1.68088E-001	4.47764E-001	3.57800E+000	9	...........
	8	0.12	4.33541E-001	-2.79205E-004	0.00000E+000	-1.21047E-004	-1.68088E-001	4.33644E-001	3.57800E+000	9	...........
	9	0.133333	4.20366E-001	-2.79230E-004	0.00000E+000	-1.17379E-004	-1.68088E-001	4.20467E-001	3.57888E+000	9	...........
	10	0.146667	4.08083E-001	-2.79176E-004	0.00000E+000	-1.13927E-004	-1.68088E-001	4.08180E-001	3.57900E+000	9	...........
	11	0.16	3.96576E-001	-2.79124E-004	0.00000E+000	-1.10694E-004	-1.68088E-001	3.96665E-001	3.57900E+000	9	...........
	12	0.173333	3.85811E-001	-2.79100E-004	0.00000E+000	-1.07680E-004	-1.68088E-001	3.85898E-001	3.57900E+000	9	...........
	13	0.186667	3.75721E-001	-2.79056E-004	0.00000E+000	-1.04847E-004	-1.68088E-001	3.75808E-001	3.57900E+000	9	...........
	14	0.2	3.66218E-001	-2.78483E-004	0.00000E+000	-1.01985E-004	-1.68088E-001	3.66303E-001	3.57900E+000	9	...........
	15	0.213333	3.57239E-001	-2.79347E-004	0.00000E+000	-9.97935E-005	-1.68088E-001	3.57328E-001	3.57900E+000	9	...........
	16	0.226667	3.48777E-001	-2.79124E-004	0.00000E+000	-9.73520E-005	-1.68088E-001	3.48858E-001	3.57900E+000	9	...........
	17	0.24	3.40772E-001	-2.78749E-004	0.00000E+000	-9.49899E-005	-1.68088E-001	3.40852E-001	3.57900E+000	9	...........
	18	0.253333	3.33177E-001	-2.79095E-004	0.00000E+000	-9.29879E-005	-1.68088E-001	3.33260E-001	3.57900E+000	9	...........
	19	0.266667	3.25953E-001	-2.79155E-004	0.00000E+000	-9.09914E-005	-1.68088E-001	3.26038E-001	3.57900E+000	9	...........
	20	0.28	3.19065E-001	-2.79124E-004	0.00000E+000	-8.90588E-005	-1.68088E-001	3.19143E-001	3.57900E+000	9	...........
	21	0.293333	3.12500E-001	-2.78064E-004	0.00000E+000	-8.68952E-005	-1.68088E-001	3.12579E-001	3.57900E+000	9	...........
	22	0.306667	3.06248E-001	-2.78957E-004	0.00000E+000	-8.54302E-005	-1.68088E-001	3.06324E-001	3.57900E+000	9	...........
	23	0.32	3.00281E-001	-2.78824E-004	0.00000E+000	-8.37256E-005	-1.68088E-001	3.00349E-001	3.57900E+000	9	...........
	24	0.333333	2.94543E-001	-2.79218E-004	0.00000E+000	-8.22416E-005	-1.68088E-001	2.94614E-001	3.57900E+000	9	...........
	25	0.346667	2.89071E-001	-2.77929E-004	0.00000E+000	-8.03412E-005	-1.68088E-001	2.89137E-001	3.57900E+000	9	...........
	26	0.36	2.83792E-001	-2.79452E-004	0.00000E+000	-7.93064E-005	-1.68088E-001	2.83864E-001	3.57900E+000	9	...........
	27	0.373333	2.78703E-001	-2.78775E-004	0.00000E+000	-7.76953E-005	-1.68088E-001	2.78774E-001	3.57900E+000	9	...........
	28	0.386667	2.73734E-001	-2.79188E-004	0.00000E+000	-7.64232E-005	-1.68088E-001	2.73804E-001	3.57900E+000	9	...........
	29	0.4	2.68975E-001	-2.79104E-004	0.00000E+000	-7.50722E-005	-1.68088E-001	2.69040E-001	3.57900E+000	9	...........
	30	0.413333	2.64350E-001	-2.78425E-004	0.00000E+000	-7.36016E-005	-1.68088E-001	2.64422E-001	3.57900E+000	9	...........
	31	0.426667	2.59924E-001	-2.79041E-004	0.00000E+000	-7.25293E-005	-1.68088E-001	2.59990E-001	3.57900E+000	9	...........
	32	0.44	2.55625E-001	-2.79107E-004	0.00000E+000	-7.13469E-005	-1.68088E-001	2.55688E-001	3.57900E+000	9	...........
	33	0.453333	2.51419E-001	-2.79907E-004	0.00000E+000	-7.03742E-005	-1.68088E-001	2.51491E-001	3.57900E+000	9	...........
	34	0.466667	2.47331E-001	-2.78822E-004	0.00000E+000	-6.89613E-005	-1.68088E-001	2.47393E-001	3.57900E+000	9	...........
	35	0.48	2.43386E-001	-2.78777E-004	0.00000E+000	-6.78506E-005	-1.68088E-001	2.43449E-001	3.57900E+000	9	...........
	36	0.493333	2.39556E-001	-2.79322E-004	0.00000E+000	-6.69133E-005	-1.68088E-001	2.39607E-001	3.57900E+000	9	...........
	37	0.506667	2.35826E-001	-2.79208E-004	0.00000E+000	-6.58445E-005	-1.68088E-001	2.35882E-001	3.57900E+000	9	...........
	38	0.52	2.32243E-001	-2.77940E-004	0.00000E+000	-6.45496E-005	-1.68088E-001	2.32293E-001	3.57900E+000	9	...........
	39	0.533333	2.28705E-001	-2.78600E-004	0.00000E+000	-6.37172E-005	-1.68088E-001	2.28760E-001	3.57900E+000	9	...........
	40	0.546667	2.25224E-001	-2.78889E-004	0.00000E+000	-6.28123E-005	-1.68088E-001	2.25277E-001	3.57900E+000	9	...........
	41	0.56	2.21794E-001	-2.79016E-004	0.00000E+000	-6.18839E-005	-1.68088E-001	2.21842E-001	3.57900E+000	9	...........
	42	0.573333	2.18394E-001	-2.79838E-004	0.00000E+000	-6.11150E-005	-1.68088E-001	2.18448E-001	3.57900E+000	9	...........
	43	0.586667	2.15107E-001	-2.78981E-004	0.00000E+000	-6.00108E-005	-1.68088E-001	2.15156E-001	3.57900E+000	9	...........
	44	0.6	2.11806E-001	-2.79294E-004	0.00000E+000	-5.91561E-005	-1.68088E-001	2.11854E-001	3.57900E+000	9	...........
	45	0.613333	2.08602E-001	-2.78685E-004	0.00000E+000	-5.81343E-005	-1.68088E-001	2.08647E-001	3.57900E+000	9	...........
	46	0.626667	2.05484E-001	-2.78417E-004	0.00000E+000	-5.72102E-005	-1.68088E-001	2.05527E-001	3.57900E+000	9	...........
	47	0.64	2.02428E-001	-2.79314E-004	0.00000E+000	-5.65409E-005	-1.68088E-001	2.02477E-001	3.57900E+000	9	...........
	48	0.653333	1.99422E-001	-2.79408E-004	0.00000E+000	-5.57201E-005	-1.68088E-001	1.99473E-001	3.57900E+000	9	...........
	49	0.666667	1.96527E-001	-2.78800E-004	0.00000E+000	-5.47917E-005	-1.68088E-001	1.96573E-001	3.57900E+000	9	...........
	50	0.68	1.93633E-001	-2.79423E-004	0.00000E+000	-5.41055E-005	-1.68088E-001	1.93684E-001	3.57900E+000	9	...........
	51	0.693333	1.90746E-001	-2.78796E-004	0.00000E+000	-5.31791E-005	-1.68088E-001	1.90789E-001	3.57900E+000	9	...........
	52	0.706667	1.87900E-001	-2.79188E-004	0.00000E+000	-5.24593E-005	-1.68088E-001	1.87942E-001	3.57900E+000	9	...........
	53	0.72	1.85120E-001	-2.80217E-004	0.00000E+000	-5.18736E-005	-1.68088E-001	1.85160E-001	3.57900E+000	9	...........
	54	0.733333	1.82367E-001	-2.78052E-004	0.00000E+000	-5.07074E-005	-1.68088E-001	1.82415E-001	3.57900E+000	9	...........
	55	0.746667	1.79667E-001	-2.79074E-004	0.00000E+000	-5.01403E-005	-1.68088E-001	1.79712E-001	3.57900E+000	9	...........
	56	0.76	1.77003E-001	-2.78113E-004	0.00000E+000	-4.92270E-005	-1.68088E-001	1.77044E-001	3.57900E+000	9	...........
	57	0.773333	1.74375E-001	-2.79191E-004	0.00000E+000	-4.86838E-005	-1.68088E-001	1.74416E-001	3.57900E+000	9	...........
	58	0.786667	1.71805E-001	-2.79392E-004	0.00000E+000	-4.80008E-005	-1.68088E-001	1.71848E-001	3.57900E+000	9	...........
	59	0.8	1.69271E-001	-2.78326E-004	0.00000E+000	-4.71125E-005	-1.68088E-001	1.69310E-001	3.57900E+000	9	...........
	60	0.813333	1.66767E-001	-2.78921E-004	0.00000E+000	-4.65149E-005	-1.68088E-001	1.66801E-001	3.57900E+000	9	...........
	61	0.826667	1.64306E-001	-2.78579E-004	0.00000E+000	-4.57723E-005	-1.68088E-001	1.64343E-001	3.57900E+000	9	...........
	62	0.84	1.61851E-001	-2.79449E-004	0.00000E+000	-4.52290E-005	-1.68088E-001	1.61888E-001	3.57900E+000	9	...........
	63	0.853333	1.59437E-001	-2.79727E-004	0.00000E+000	-4.45988E-005	-1.68088E-001	1.59476E-001	3.57900E+000	9	...........
	64	0.866667	1.57046E-001	-2.78389E-004	0.00000E+000	-4.37200E-005	-1.68088E-001	1.57076E-001	3.57900E+000	9	...........
	65	0.88	1.54635E-001	-2.79768E-004	0.00000E+000	-4.32618E-005	-1.68088E-001	1.54669E-001	3.57900E+000	9	...........
	66	0.893333	1.52229E-001	-2.79300E-004	0.00000E+000	-4.25175E-005	-1.68088E-001	1.52266E-001	3.57900E+000	9	...........
	67	0.906667	1.49877E-001	-2.79421E-004	0.00000E+000	-4.18788E-005	-1.68088E-001	1.49904E-001	3.57900E+000	9	...........
	68	0.92	1.47563E-001	-2.79813E-004	0.00000E+000	-4.12900E-005	-1.68088E-001	1.47596E-001	3.57900E+000	9	...........
	69	0.933333	1.45240E-001	-2.78950E-004	0.00000E+000	-4.05146E-005	-1.68088E-001	1.45264E-001	3.57900E+000	9	...........
	70	0.946667	1.42961E-001	-2.77969E-004	0.00000E+000	-3.97386E-005	-1.68088E-001	1.42993E-001	3.57900E+000	9	...........
	71	0.96	1.40723E-001	-2.79016E-004	0.00000E+000	-3.92640E-005	-1.68088E-001	1.40754E-001	3.57900E+000	9	...........
	72	0.97333	1.38503E-001	-2.79407E-004	0.00000E+000	-3.86989E-005	-1.68088E-001	1.38537E-001	3.57900E+000	9	...........
	73	0.98667	1.36372E-001	-2.79228E-004	0.00000E+000	-3.80789E-005	-1.68088E-001	1.36401E-001	3.57900E+000	9	...........
	74	1	1.34202E-001	-2.79545E-004	0.00000E+000	-3.75154E-005	-1.68088E-001	1.34230E-001	3.57900E+000	9	...........
	75	1.01333	1.32033E-001	-2.79530E-004	0.00000E+000	-3.69072E-005	-1.68088E-001	1.32061E-001	3.57900E+000	9	...........
	76	1.02667	1.29862E-001	-2.78266E-004	0.00000E+000	-3.61362E-005	-1.68088E-001	1.29896E-001	3.57900E+000	9	...........
	77	1.04	1.27709E-001	-2.79450E-004	0.00000E+000	-3.56883E-005	-1.68088E-001	1.27737E-001	3.57900E+000	9	...........
	78	1.05333	1.25603E-001	-2.78019E-004	0.00000E+000	-3.49199E-005	-1.68088E-001	1.25628E-001	3.57900E+000	9	...........
	79	1.06667	1.23462E-001	-2.78656E-004	0.00000E+000	-3.44035E-005	-1.68088E-001	1.23492E-001	3.57900E+000	9	...........
	80	1.08	1.21368E-001	-2.79051E-004	0.00000E+000	-3.38679E-005	-1.68088E-001	1.21404E-001	3.57900E+000	9	...........
	81	1.09333	1.19323E-001	-2.78383E-004	0.00000E+000	-3.32176E-005	-1.68088E-001	1.19356E-001	3.57900E+000	9	...........
	82	1.10667	1.17321E-001	-2.79231E-004	0.00000E+000	-3.27596E-005	-1.68088E-001	1.17353E-001	3.57900E+000	9	...........
	83	1.12	1.15267E-001	-2.78081E-004	0.00000E+000	-3.20536E-005	-1.68088E-001	1.15296E-001	3.57900E+000	9	...........
	84	1.13333	1.13207E-001	-2.79417E-004	0.00000E+000	-3.16319E-005	-1.68088E-001	1.13241E-001	3.57865E+000	9	...........
	85	1.14667	1.11169E-001	-2.77908E-004	0.00000E+000	-3.08947E-005	-1.68088E-001	1.11197E-001	3.57860E+000	9	...........
	86	1.16	1.09217E-001	-2.78501E-004	0.00000E+000	-3.04171E-005	-1.68088E-001	1.09240E-001	3.57860E+000	9	...........
	87	1.17333	1.07214E-001	-2.78485E-004	0.00000E+000	-2.98575E-005	-1.68088E-001	1.07243E-001	3.57860E+000	9	...........
	88	1.18667	1.05221E-001	-2.79588E-004	0.00000E+000	-2.94184E-005	-1.68088E-001	1.05240E-001	3.57860E+000	9	...........
	89	1.2	1.03294E-001	-2.79033E-004	0.00000E+000	-2.88226E-005	-1.68088E-001	1.03316E-001	3.57860E+000	9	...........
	90	1.21333	1.01348E-001	-2.78625E-004	0.00000E+000	-2.82380E-005	-1.68088E-001	1.01372E-001	3.57860E+000	9	...........
	91	1.22667	9.94413E-002	-2.79216E-004	0.00000E+000	-2.77656E-005	-1.68088E-001	9.94614E-002	3.57860E+000	9	...........
	92	1.24	9.75421E-002	-2.77790E-004	0.00000E+000	-2.70962E-005	-1.68088E-001	9.75659E-002	3.57860E+000	9	...........
	93	1.25333	9.56555E-002	-2.79157E-004	0.00000E+000	-2.67029E-005	-1.68088E-001	9.56813E-002	3.57860E+000	9	...........
	94	1.26667	9.37475E-002	-2.79600E-004	0.00000E+000	-2.62118E-005	-1.68088E-001	9.37702E-002	3.57860E+000	9	...........
	95	1.28	9.18447E-002	-2.79511E-004	0.00000E+000	-2.56716E-005	-1.68088E-001	9.18702E-002	3.57860E+000	9	...........
	96	1.29333	8.99965E-002	-2.79208E-004	0.00000E+000	-2.51278E-005	-1.68088E-001	9.00153E-002	3.57860E+000	9	...........
	97	1.30667	8.81070E-002	-2.78832E-004	0.00000E+000	-2.45671E-005	-1.68088E-001	8.81291E-002	3.57860E+000	9	...........
	98	1.32	8.62266E-002	-2.79010E-004	0.00000E+000	-2.40581E-005	-1.68088E-001	8.62489E-002	3.57860E+000	9	...........
	99	1.33333	8.43757E-002	-2.79586E-004	0.00000E+000	-2.35902E-005	-1.68088E-001	8.43974E-002	3.57860E+000	9	...........
	100	1.34667	8.24857E-002	-2.79100E-004	0.00000E+000	-2.30217E-005	-1.68088E-001	8.25080E-002	3.57860E+000	9	...........
	101	1.36	8.06409E-002	-2.79253E-004	0.00000E+000	-2.25192E-005	-1.68088E-001	8.06578E-002	3.57860E+000	9	...........
	102	1.37333	7.87644E-002	-2.78342E-004	0.00000E+000	-2.19234E-005	-1.68088E-001	7.87866E-002	3.57860E+000	9	...........
	103	1.38667	7.69318E-002	-2.79059E-004	0.00000E+000	-2.14685E-005	-1.68088E-001	7.69421E-002	3.57860E+000	9	...........
	104	1.4	7.51726E-002	-2.78609E-004	0.00000E+000	-2.09438E-005	-1.68088E-001	7.51891E-002	3.57860E+000	9	...........
	105	1.41333	7.33375E-002	-2.78859E-004	0.00000E+000	-2.04508E-005	-1.68088E-001	7.33485E-002	3.57860E+000	9	...........
	106	1.42667	7.15369E-002	-2.77895E-004	0.00000E+000	-1.98797E-005	-1.68088E-001	7.15540E-002	3.57860E+000	9	...........
	107	1.44	6.97920E-002	-2.79745E-004	0.00000E+000	-1.95240E-005	-1.68088E-001	6.98021E-002	3.57860E+000	9	...........
	108	1.45333	6.80337E-002	-2.79346E-004	0.00000E+000	-1.90049E-005	-1.68088E-001	6.80507E-002	3.57860E+000	9	...........
	109	1.46667	6.62317E-002	-2.78549E-004	0.00000E+000	-1.84488E-005	-1.68088E-001	6.62436E-002	3.57860E+000	9	...........
	110	1.48	6.44380E-002	-2.79246E-004	0.00000E+000	-1.79940E-005	-1.68088E-001	6.44516E-002	3.57860E+000	9	...........
	111	1.49333	6.27095E-002	-2.78780E-004	0.00000E+000	-1.74822E-005	-1.68088E-001	6.27247E-002	3.57860E+000	9	...........
	112	1.50667	6.10321E-002	-2.78205E-004	0.00000E+000	-1.69794E-005	-1.68088E-001	6.10473E-002	3.57860E+000	9	...........
	113	1.52	5.92919E-002	-2.78533E-004	0.00000E+000	-1.65148E-005	-1.68088E-001	5.93047E-002	3.57860E+000	9	...........
	114	1.53333	5.75702E-002	-2.78033E-004	0.00000E+000	-1.60064E-005	-1.68088E-001	5.75784E-002	3.57860E+000	9	...........
	115	1.54667	5.58390E-002	-2.79353E-004	0.00000E+000	-1.55988E-005	-1.68088E-001	5.58528E-002	3.57860E+000	9	...........
	116	1.56	5.41563E-002	-2.78636E-004	0.00000E+000	-1.50899E-005	-1.68088E-001	5.41671E-002	3.57860E+000	9	...........
	117	1.57333	5.24798E-002	-2.79501E-004	0.00000E+000	-1.46682E-005	-1.68088E-001	5.24859E-002	3.57860E+000	9	...........
	118	1.58667	5.08266E-002	-2.79921E-004	0.00000E+000	-1.42274E-005	-1.68088E-001	5.08266E-002	3.57860E+000	9	...........
	119	1.6	4.91618E-002	-2.78873E-004	0.00000E+000	-1.37099E-005	-1.68088E-001	4.91535E-002	3.57860E+000	9	...........
	120	1.61333	4.74732E-002	-2.80115E-004	0.00000E+000	-1.32980E-005	-1.68088E-001	4.74845E-002	3.57860E+000	9	...........
	121	1.62667	4.57930E-002	-2.79753E-004	0.00000E+000	-1.28107E-005	-1.68088E-001	4.57993E-002	3.57860E+000	9	...........
	122	1.64	4.41371E-002	-2.79438E-004	0.00000E+000	-1.23336E-005	-1.68088E-001	4.41453E-002	3.57860E+000	9	...........
	123	1.65333	4.24838E-002	-2.78929E-004	0.00000E+000	-1.18500E-005	-1.68088E-001	4.24897E-002	3.57860E+000	9	...........
	124	1.66667	4.08423E-002	-2.78347E-004	0.00000E+000	-1.13683E-005	-1.68088E-001	4.08435E-002	3.57860E+000	9	...........
	125	1.68	3.92610E-002	-2.78104E-004	0.00000E+000	-1.09186E-005	-1.68088E-001	3.92609E-002	3.57860E+000	9	...........
	126	1.69333	3.76195E-002	-2.78934E-004	0.00000E+000	-1.04934E-005	-1.68088E-001	3.76256E-002	3.57860E+000	9	...........
	127	1.70667	3.59617E-002	-2.79473E-004	0.00000E+000	-1.00503E-005	-1.68088E-001	3.59620E-002	3.57860E+000	9	...........
	128	1.72	3.42982E-002	-2.78568E-004	0.00000E+000	-9.55436E-006	-1.68088E-001	3.43006E-002	3.57860E+000	9	...........
	129	1.73333	3.27150E-002	-2.78406E-004	0.00000E+000	-9.10805E-006	-1.68088E-001	3.27197E-002	3.57860E+000	9	...........
	130	1.74667	3.11377E-002	-2.79279E-004	0.00000E+000	-8.69610E-006	-1.68088E-001	3.11353E-002	3.57860E+000	9	...........
	131	1.76	2.95277E-002	-2.78851E-004	0.00000E+000	-8.23382E-006	-1.68088E-001	2.95290E-002	3.57860E+000	9	...........
	132	1.77333	2.79618E-002	-2.79351E-004	0.00000E+000	-7.81117E-006	-1.68088E-001	2.79611E-002	3.57860E+000	9	...........
	133	1.78667	2.63549E-002	-2.79159E-004	0.00000E+000	-7.35721E-006	-1.68088E-001	2.63477E-002	3.57860E+000	9	...........
	134	1.8	2.47411E-002	-2.78686E-004	0.00000E+000	-6.89500E-006	-1.68088E-001	2.47336E-002	3.57860E+000	9	...........
	135	1.81333	2.31847E-002	-2.78641E-004	0.00000E+000	-6.46019E-006	-1.68088E-001	2.31805E-002	3.57860E+000	9	...........
	136	1.82667	2.16679E-002	-2.79415E-004	0.00000E+000	-6.05434E-006	-1.68088E-001	2.16603E-002	3.57860E+000	9	...........
	137	1.84	2.01282E-002	-2.78817E-004	0.00000E+000	-5.61208E-006	-1.68088E-001	2.01172E-002	3.57860E+000	9	...........
	138	1.85333	1.85872E-002	-2.78893E-004	0.00000E+000	-5.18384E-006	-1.68088E-001	1.85818E-002	3.57860E+000	9	...........
	139	1.86667	1.70389E-002	-2.79211E-004	0.00000E+000	-4.75747E-006	-1.68088E-001	1.70295E-002	3.57860E+000	9	...........
	140	1.88	1.54447E-002	-2.79198E-004	0.00000E+000	-4.31214E-006	-1.68088E-001	1.54341E-002	3.57860E+000	9	...........
	141	1.89333	1.38424E-002	-2.78699E-004	0.00000E+000	-3.85785E-006	-1.68088E-001	1.38291E-002	3.57860E+000	9	...........
	142	1.90667	1.22837E-002	-2.79410E-004	0.00000E+000	-3.43221E-006	-1.68088E-001	1.22751E-002	3.57860E+000	9	...........
	143	1.92	1.07572E-002	-2.79084E-004	0.00000E+000	-3.00218E-006	-1.68088E-001	1.07427E-002	3.57860E+000	9	...........
	144	1.93333	9.22080E-003	-2.78727E-004	0.00000E+000	-2.57009E-006	-1.68088E-001	9.20931E-003	3.57860E+000	9	...........
	145	1.94667	7.68745E-003	-2.79279E-004	0.00000E+000	-2.14695E-006	-1.68088E-001	7.67496E-003	3.57860E+000	9	...........
	146	1.96	6.22292E-003	-2.78090E-004	0.00000E+000	-1.73054E-006	-1.68088E-001	6.20714E-003	3.57860E+000	9	...........
	147	1.97333	4.73453E-003	-2.79034E-004	0.00000E+000	-1.32110E-006	-1.68088E-001	4.71430E-003	3.57860E+000	9	...........
	148	1.98667	3.24982E-003	-2.78605E-004	0.00000E+000	-9.05417E-007	-1.68088E-001	3.22809E-003	3.57860E+000	9	...........
	149	2	1.78303E-003	-2.78882E-004	0.00000E+000	-4.97256E-007	-1.68088E-001	1.76409E-003	3.57860E+000	9	...........
	150	2.01	4.72703E-004	-2.79305E-004	0.00000E+000	-1.32028E-007	-1.68088E-001	4.54321E-004	3.57860E+000	9	...........
STARTTIMEOFFSET	QUANT	89.85669	Start Time Offset (s)
