EXPLAIN
TAG	PWR800_DISCHARGE
TITLE	LABEL	PWR Cyclic Charge Discharge (Cell) - Discharge Step	Test &Identifier
DATE	LABEL	7-7-2017	Date
TIME	LABEL	15:38:22	Time
NOTES	NOTES	3	&Notes...
	supercap test cell
	2.8mg
	6M KOH
PSTAT	PSTAT	IFC5000-01520	Potentiostat
CAPACITY	QUANT	1.00000E-003	Capacity (A-hr)
CELLTYPE	SELECTOR	1	&Cell Type
WORKINGCONNECTION	SELECTOR	0	&Working Lead
MAXDISCHARGETIME	VARIABLEANDUNITS	1.00000E+002	s	1.00000E+002	second(s)	Max &Discharge Time
DISCHARGEMODE	MULTIPARAM	0	2.80000E-004	&Discharge Mode	Constant Current	Amp(s)
SAMPLETIME	QUANT	1.00000E-002	Sa&mple Period (s)
DISCHARGESTOPAT1	MULTIPARAM	3	0.00000E+000	Discharge Stop At &1	Voltage < Limit	V
DISCHARGESTOPAT2	MULTIPARAM	0	0.00000E+000	Discharge Stop At &2	None	N/A
AESBHCSELECTOR	TOGGLE	F	Save Both Half Cells
IRCOMP	TOGGLE	F	IR &Measure
EOC	QUANT	0	Open Circuit (V)
SEQUENCER	TOGGLE	TRUE	Run as Sequence
PSTATMODEL	IQUANT	53	Pstat Model
PSTATSECTION	LABEL	IFC5000-01520	Pstat Section
PSTATSERIALNO	LABEL	01520	Pstat Serial Number
CTRLMODE	IQUANT	0	Control Mode
ELECTROMETER	IQUANT	1	RE=0 or CS=1
IESTAB	IQUANT	0	I/E Stability
CASPEED	IQUANT	4	Control Amp Speed
CONVENTION	IQUANT	1	Current Convention
ICHRANGE	IQUANT	2	Ich Range
ICHRANGEMODE	TOGGLE	T	Ich Auto Range
ICHOFFSETENABLE	TOGGLE	F	Ich Offset Enable
ICHOFFSET	QUANT	0	Ich Offset (V)
ICHFILTER	IQUANT	1	Ich Filter
VCHRANGE	IQUANT	2	Vch Range
VCHRANGEMODE	TOGGLE	T	Vch Auto Range
VCHOFFSETENABLE	TOGGLE	F	Vch Offset Enable
VCHOFFSET	QUANT	0	Vch Offset (V)
VCHFILTER	IQUANT	1	Vch Filter
IERANGELOWERLIMIT	IQUANT	9	I/E Range Lower Limit
IERANGEMODE	TOGGLE	F	I/E AutoRange
IERANGE	IQUANT	9	I/E Range
ACHSELECT	IQUANT	1	Ach Select
ACHRANGE	IQUANT	2	Ach Range
ACHOFFSETENABLE	TOGGLE	F	Ach Offset Enable
ACHOFFSET	QUANT	0	Ach Offset (V)
ACHFILTER	IQUANT	1	Ach Filter
CABLEID	IQUANT	14	Cable ID
DCCALDATE	LABEL	5-7-2017	DC Calibration Date
ACCALDATE	LABEL	12/3/2015	AC Calibration Date
FRAMEWORKVERSION	QUANT	7.01	Framework Version
INSTRUMENTVERSION	LABEL	4.00	Instrument Version
CURVE	TABLE	145
	Pt	T	Vf	Im	Vu	Pwr	Sig	Ach	Temp	IERange	Over
	#	s	V	A	V	W	V	V	deg C	#	bits
	0	0.013333	5.81316E-001	-2.78823E-004	0.00000E+000	-1.62084E-004	-1.68088E-001	5.81588E-001	3.57840E+000	9	...........
	1	0.026667	5.54608E-001	-2.79144E-004	0.00000E+000	-1.54815E-004	-1.68088E-001	5.54875E-001	3.57840E+000	9	...........
	2	0.04	5.30821E-001	-2.78553E-004	0.00000E+000	-1.47862E-004	-1.68088E-001	5.31079E-001	3.57840E+000	9	...........
	3	0.053333	5.09292E-001	-2.79659E-004	0.00000E+000	-1.42428E-004	-1.68088E-001	5.09539E-001	3.57840E+000	9	...........
	4	0.066667	4.89657E-001	-2.77553E-004	0.00000E+000	-1.35906E-004	-1.68088E-001	4.89901E-001	3.57840E+000	9	...........
	5	0.08	4.71876E-001	-2.78605E-004	0.00000E+000	-1.31467E-004	-1.68088E-001	4.71991E-001	3.57840E+000	9	...........
	6	0.093333	4.55168E-001	-2.79335E-004	0.00000E+000	-1.27145E-004	-1.68088E-001	4.55277E-001	3.57840E+000	9	...........
	7	0.106667	4.39717E-001	-2.79050E-004	0.00000E+000	-1.22703E-004	-1.68088E-001	4.39826E-001	3.57840E+000	9	...........
	8	0.12	4.25317E-001	-2.78237E-004	0.00000E+000	-1.18339E-004	-1.68088E-001	4.25421E-001	3.57840E+000	9	...........
	9	0.133333	4.11921E-001	-2.79686E-004	0.00000E+000	-1.15208E-004	-1.68088E-001	4.12019E-001	3.57840E+000	9	...........
	10	0.146667	3.99446E-001	-2.79404E-004	0.00000E+000	-1.11607E-004	-1.68088E-001	3.99538E-001	3.57840E+000	9	...........
	11	0.16	3.87821E-001	-2.78403E-004	0.00000E+000	-1.07971E-004	-1.68088E-001	3.87909E-001	3.57840E+000	9	...........
	12	0.173333	3.76933E-001	-2.79224E-004	0.00000E+000	-1.05249E-004	-1.68088E-001	3.77021E-001	3.57840E+000	9	...........
	13	0.186667	3.66700E-001	-2.79401E-004	0.00000E+000	-1.02456E-004	-1.68088E-001	3.66788E-001	3.57840E+000	9	...........
	14	0.2	3.57090E-001	-2.78868E-004	0.00000E+000	-9.95810E-005	-1.68088E-001	3.57175E-001	3.57840E+000	9	...........
	15	0.213333	3.48053E-001	-2.78532E-004	0.00000E+000	-9.69440E-005	-1.68088E-001	3.48139E-001	3.57840E+000	9	...........
	16	0.226667	3.39501E-001	-2.78996E-004	0.00000E+000	-9.47193E-005	-1.68088E-001	3.39592E-001	3.57840E+000	9	...........
	17	0.24	3.31409E-001	-2.78867E-004	0.00000E+000	-9.24190E-005	-1.68088E-001	3.31488E-001	3.57840E+000	9	...........
	18	0.253333	3.23761E-001	-2.79276E-004	0.00000E+000	-9.04188E-005	-1.68088E-001	3.23842E-001	3.57840E+000	9	...........
	19	0.266667	3.16507E-001	-2.77741E-004	0.00000E+000	-8.79071E-005	-1.68088E-001	3.16582E-001	3.57840E+000	9	...........
	20	0.28	3.09612E-001	-2.78691E-004	0.00000E+000	-8.62860E-005	-1.68088E-001	3.09689E-001	3.57840E+000	9	...........
	21	0.293333	3.03038E-001	-2.79033E-004	0.00000E+000	-8.45576E-005	-1.68088E-001	3.03118E-001	3.57840E+000	9	...........
	22	0.306667	2.96811E-001	-2.78585E-004	0.00000E+000	-8.26872E-005	-1.68088E-001	2.96883E-001	3.57840E+000	9	...........
	23	0.32	2.90798E-001	-2.79216E-004	0.00000E+000	-8.11954E-005	-1.68088E-001	2.90867E-001	3.57840E+000	9	...........
	24	0.333333	2.85044E-001	-2.78510E-004	0.00000E+000	-7.93877E-005	-1.68088E-001	2.85117E-001	3.57840E+000	9	...........
	25	0.346667	2.79557E-001	-2.78489E-004	0.00000E+000	-7.78536E-005	-1.68088E-001	2.79621E-001	3.57840E+000	9	...........
	26	0.36	2.74287E-001	-2.78775E-004	0.00000E+000	-7.64643E-005	-1.68088E-001	2.74356E-001	3.57840E+000	9	...........
	27	0.373333	2.69186E-001	-2.79422E-004	0.00000E+000	-7.52164E-005	-1.68088E-001	2.69253E-001	3.57840E+000	9	...........
	28	0.386667	2.64302E-001	-2.78722E-004	0.00000E+000	-7.36667E-005	-1.68088E-001	2.64373E-001	3.57840E+000	9	...........
	29	0.4	2.59574E-001	-2.78816E-004	0.00000E+000	-7.23733E-005	-1.68088E-001	2.59638E-001	3.57840E+000	9	...........
	30	0.413333	2.54958E-001	-2.79080E-004	0.00000E+000	-7.11538E-005	-1.68088E-001	2.55022E-001	3.57840E+000	9	...........
	31	0.426667	2.50498E-001	-2.79082E-004	0.00000E+000	-6.99096E-005	-1.68088E-001	2.50561E-001	3.57840E+000	9	...........
	32	0.44	2.46201E-001	-2.79241E-004	0.00000E+000	-6.87492E-005	-1.68088E-001	2.46262E-001	3.57840E+000	9	...........
	33	0.453333	2.42050E-001	-2.78561E-004	0.00000E+000	-6.74257E-005	-1.68088E-001	2.42107E-001	3.57840E+000	9	...........
	34	0.466667	2.38021E-001	-2.79540E-004	0.00000E+000	-6.65364E-005	-1.68088E-001	2.38077E-001	3.57840E+000	9	...........
	35	0.48	2.34124E-001	-2.78740E-004	0.00000E+000	-6.52595E-005	-1.68088E-001	2.34178E-001	3.57840E+000	9	...........
	36	0.493333	2.30336E-001	-2.79392E-004	0.00000E+000	-6.43540E-005	-1.68088E-001	2.30390E-001	3.57840E+000	9	...........
	37	0.506667	2.26581E-001	-2.78374E-004	0.00000E+000	-6.30743E-005	-1.68088E-001	2.26629E-001	3.57840E+000	9	...........
	38	0.52	2.22922E-001	-2.79314E-004	0.00000E+000	-6.22652E-005	-1.68088E-001	2.22978E-001	3.57840E+000	9	...........
	39	0.533333	2.19387E-001	-2.79144E-004	0.00000E+000	-6.12404E-005	-1.68088E-001	2.19438E-001	3.57840E+000	9	...........
	40	0.546667	2.15920E-001	-2.79619E-004	0.00000E+000	-6.03753E-005	-1.68088E-001	2.15972E-001	3.57840E+000	9	...........
	41	0.56	2.12528E-001	-2.78971E-004	0.00000E+000	-5.92892E-005	-1.68088E-001	2.12573E-001	3.57840E+000	9	...........
	42	0.573333	2.09179E-001	-2.79471E-004	0.00000E+000	-5.84594E-005	-1.68088E-001	2.09231E-001	3.57840E+000	9	...........
	43	0.586667	2.05953E-001	-2.79044E-004	0.00000E+000	-5.74699E-005	-1.68088E-001	2.05994E-001	3.57840E+000	9	...........
	44	0.6	2.02744E-001	-2.78429E-004	0.00000E+000	-5.64498E-005	-1.68088E-001	2.02795E-001	3.57840E+000	9	...........
	45	0.613333	1.99595E-001	-2.78816E-004	0.00000E+000	-5.56502E-005	-1.68088E-001	1.99645E-001	3.57840E+000	9	...........
	46	0.626667	1.96484E-001	-2.79400E-004	0.00000E+000	-5.48976E-005	-1.68088E-001	1.96530E-001	3.57840E+000	9	...........
	47	0.64	1.93439E-001	-2.78158E-004	0.00000E+000	-5.38066E-005	-1.68088E-001	1.93487E-001	3.57840E+000	9	...........
	48	0.653333	1.90446E-001	-2.78993E-004	0.00000E+000	-5.31329E-005	-1.68088E-001	1.90491E-001	3.57840E+000	9	...........
	49	0.666667	1.87494E-001	-2.79421E-004	0.00000E+000	-5.23899E-005	-1.68088E-001	1.87537E-001	3.57840E+000	9	...........
	50	0.68	1.84580E-001	-2.79915E-004	0.00000E+000	-5.16667E-005	-1.68088E-001	1.84623E-001	3.57840E+000	9	...........
	51	0.693333	1.81778E-001	-2.79513E-004	0.00000E+000	-5.08091E-005	-1.68088E-001	1.81824E-001	3.57840E+000	9	...........
	52	0.706667	1.78991E-001	-2.79157E-004	0.00000E+000	-4.99668E-005	-1.68088E-001	1.79038E-001	3.57840E+000	9	...........
	53	0.72	1.76185E-001	-2.79524E-004	0.00000E+000	-4.92478E-005	-1.68088E-001	1.76229E-001	3.57840E+000	9	...........
	54	0.733333	1.73426E-001	-2.78582E-004	0.00000E+000	-4.83133E-005	-1.68088E-001	1.73472E-001	3.57840E+000	9	...........
	55	0.746667	1.70784E-001	-2.79184E-004	0.00000E+000	-4.76802E-005	-1.68088E-001	1.70823E-001	3.57840E+000	9	...........
	56	0.76	1.68212E-001	-2.78851E-004	0.00000E+000	-4.69061E-005	-1.68088E-001	1.68251E-001	3.57840E+000	9	...........
	57	0.773333	1.65585E-001	-2.79231E-004	0.00000E+000	-4.62365E-005	-1.68088E-001	1.65624E-001	3.57840E+000	9	...........
	58	0.786667	1.62964E-001	-2.78959E-004	0.00000E+000	-4.54604E-005	-1.68088E-001	1.62997E-001	3.57840E+000	9	...........
	59	0.8	1.60377E-001	-2.79870E-004	0.00000E+000	-4.48846E-005	-1.68088E-001	1.60411E-001	3.57840E+000	9	...........
	60	0.813333	1.57815E-001	-2.79643E-004	0.00000E+000	-4.41317E-005	-1.68088E-001	1.57852E-001	3.57840E+000	9	...........
	61	0.826667	1.55298E-001	-2.77902E-004	0.00000E+000	-4.31576E-005	-1.68088E-001	1.55333E-001	3.57840E+000	9	...........
	62	0.84	1.52808E-001	-2.79199E-004	0.00000E+000	-4.26637E-005	-1.68088E-001	1.52836E-001	3.57950E+000	9	...........
	63	0.853333	1.50365E-001	-2.78667E-004	0.00000E+000	-4.19016E-005	-1.68088E-001	1.50392E-001	3.57950E+000	9	...........
	64	0.866667	1.47958E-001	-2.79016E-004	0.00000E+000	-4.12825E-005	-1.68088E-001	1.47984E-001	3.57950E+000	9	...........
	65	0.88	1.45556E-001	-2.79029E-004	0.00000E+000	-4.06143E-005	-1.68088E-001	1.45584E-001	3.57950E+000	9	...........
	66	0.893333	1.43178E-001	-2.78873E-004	0.00000E+000	-3.99286E-005	-1.68088E-001	1.43211E-001	3.57950E+000	9	...........
	67	0.906667	1.40845E-001	-2.79368E-004	0.00000E+000	-3.93476E-005	-1.68088E-001	1.40878E-001	3.57950E+000	9	...........
	68	0.92	1.38503E-001	-2.78907E-004	0.00000E+000	-3.86295E-005	-1.68088E-001	1.38535E-001	3.57950E+000	9	...........
	69	0.933333	1.36154E-001	-2.79218E-004	0.00000E+000	-3.80166E-005	-1.68088E-001	1.36185E-001	3.57950E+000	9	...........
	70	0.946667	1.33900E-001	-2.79083E-004	0.00000E+000	-3.73694E-005	-1.68088E-001	1.33931E-001	3.57950E+000	9	...........
	71	0.96	1.31667E-001	-2.79016E-004	0.00000E+000	-3.67372E-005	-1.68088E-001	1.31699E-001	3.57950E+000	9	...........
	72	0.97333	1.29457E-001	-2.78484E-004	0.00000E+000	-3.60516E-005	-1.68088E-001	1.29485E-001	3.57950E+000	9	...........
	73	0.98667	1.27262E-001	-2.78725E-004	0.00000E+000	-3.54711E-005	-1.68088E-001	1.27290E-001	3.57950E+000	9	...........
	74	1	1.25105E-001	-2.78948E-004	0.00000E+000	-3.48977E-005	-1.68088E-001	1.25134E-001	3.57950E+000	9	...........
	75	1.01333	1.22954E-001	-2.79512E-004	0.00000E+000	-3.43670E-005	-1.68088E-001	1.22985E-001	3.57950E+000	9	...........
	76	1.02667	1.20788E-001	-2.77990E-004	0.00000E+000	-3.35778E-005	-1.68088E-001	1.20816E-001	3.57950E+000	9	...........
	77	1.04	1.18592E-001	-2.79208E-004	0.00000E+000	-3.31119E-005	-1.68088E-001	1.18624E-001	3.57950E+000	9	...........
	78	1.05333	1.16429E-001	-2.79292E-004	0.00000E+000	-3.25176E-005	-1.68088E-001	1.16463E-001	3.57950E+000	9	...........
	79	1.06667	1.14305E-001	-2.78297E-004	0.00000E+000	-3.18108E-005	-1.68088E-001	1.14334E-001	3.57950E+000	9	...........
	80	1.08	1.12165E-001	-2.78845E-004	0.00000E+000	-3.12766E-005	-1.68088E-001	1.12193E-001	3.57950E+000	9	...........
	81	1.09333	1.10086E-001	-2.78666E-004	0.00000E+000	-3.06771E-005	-1.68088E-001	1.10113E-001	3.57950E+000	9	...........
	82	1.10667	1.08023E-001	-2.78747E-004	0.00000E+000	-3.01111E-005	-1.68088E-001	1.08055E-001	3.57950E+000	9	...........
	83	1.12	1.05942E-001	-2.79373E-004	0.00000E+000	-2.95974E-005	-1.68088E-001	1.05965E-001	3.57950E+000	9	...........
	84	1.13333	1.03891E-001	-2.79282E-004	0.00000E+000	-2.90150E-005	-1.68088E-001	1.03916E-001	3.57950E+000	9	...........
	85	1.14667	1.01840E-001	-2.79732E-004	0.00000E+000	-2.84880E-005	-1.68088E-001	1.01861E-001	3.57950E+000	9	...........
	86	1.16	9.98295E-002	-2.79407E-004	0.00000E+000	-2.78931E-005	-1.68088E-001	9.98558E-002	3.57950E+000	9	...........
	87	1.17333	9.78084E-002	-2.78809E-004	0.00000E+000	-2.72699E-005	-1.68088E-001	9.78303E-002	3.57950E+000	9	...........
	88	1.18667	9.57913E-002	-2.78788E-004	0.00000E+000	-2.67055E-005	-1.68088E-001	9.58175E-002	3.57950E+000	9	...........
	89	1.2	9.38294E-002	-2.78652E-004	0.00000E+000	-2.61458E-005	-1.68088E-001	9.38509E-002	3.57950E+000	9	...........
	90	1.21333	9.18482E-002	-2.78871E-004	0.00000E+000	-2.56138E-005	-1.68088E-001	9.18734E-002	3.57950E+000	9	...........
	91	1.22667	8.99002E-002	-2.78779E-004	0.00000E+000	-2.50623E-005	-1.68088E-001	8.99254E-002	3.57950E+000	9	...........
	92	1.24	8.79675E-002	-2.79374E-004	0.00000E+000	-2.45758E-005	-1.68088E-001	8.79864E-002	3.57950E+000	9	...........
	93	1.25333	8.60393E-002	-2.79266E-004	0.00000E+000	-2.40278E-005	-1.68088E-001	8.60621E-002	3.57950E+000	9	...........
	94	1.26667	8.41727E-002	-2.79052E-004	0.00000E+000	-2.34886E-005	-1.68088E-001	8.41997E-002	3.57950E+000	9	...........
	95	1.28	8.23119E-002	-2.79105E-004	0.00000E+000	-2.29737E-005	-1.68088E-001	8.23340E-002	3.57950E+000	9	...........
	96	1.29333	8.04448E-002	-2.79480E-004	0.00000E+000	-2.24827E-005	-1.68088E-001	8.04592E-002	3.57950E+000	9	...........
	97	1.30667	7.85628E-002	-2.78097E-004	0.00000E+000	-2.18480E-005	-1.68088E-001	7.85801E-002	3.57950E+000	9	...........
	98	1.32	7.66843E-002	-2.78926E-004	0.00000E+000	-2.13892E-005	-1.68088E-001	7.67025E-002	3.57950E+000	9	...........
	99	1.33333	7.47873E-002	-2.79353E-004	0.00000E+000	-2.08921E-005	-1.68088E-001	7.48015E-002	3.57950E+000	9	...........
	100	1.34667	7.29444E-002	-2.78761E-004	0.00000E+000	-2.03341E-005	-1.68088E-001	7.29574E-002	3.57950E+000	9	...........
	101	1.36	7.11244E-002	-2.79188E-004	0.00000E+000	-1.98570E-005	-1.68088E-001	7.11393E-002	3.57950E+000	9	...........
	102	1.37333	6.93319E-002	-2.78561E-004	0.00000E+000	-1.93132E-005	-1.68088E-001	6.93374E-002	3.57950E+000	9	...........
	103	1.38667	6.75225E-002	-2.79078E-004	0.00000E+000	-1.88440E-005	-1.68088E-001	6.75338E-002	3.57950E+000	9	...........
	104	1.4	6.57302E-002	-2.79404E-004	0.00000E+000	-1.83653E-005	-1.68088E-001	6.57474E-002	3.57950E+000	9	...........
	105	1.41333	6.39173E-002	-2.78908E-004	0.00000E+000	-1.78271E-005	-1.68088E-001	6.39259E-002	3.57950E+000	9	...........
	106	1.42667	6.21159E-002	-2.79014E-004	0.00000E+000	-1.73312E-005	-1.68088E-001	6.21265E-002	3.57950E+000	9	...........
	107	1.44	6.03491E-002	-2.78500E-004	0.00000E+000	-1.68072E-005	-1.68088E-001	6.03592E-002	3.57950E+000	9	...........
	108	1.45333	5.86147E-002	-2.78244E-004	0.00000E+000	-1.63092E-005	-1.68088E-001	5.86258E-002	3.57950E+000	9	...........
	109	1.46667	5.68356E-002	-2.79310E-004	0.00000E+000	-1.58748E-005	-1.68088E-001	5.68441E-002	3.57950E+000	9	...........
	110	1.48	5.51027E-002	-2.79128E-004	0.00000E+000	-1.53807E-005	-1.68088E-001	5.51107E-002	3.57950E+000	9	...........
	111	1.49333	5.33722E-002	-2.79049E-004	0.00000E+000	-1.48934E-005	-1.68088E-001	5.33787E-002	3.57950E+000	9	...........
	112	1.50667	5.16414E-002	-2.79505E-004	0.00000E+000	-1.44340E-005	-1.68088E-001	5.16486E-002	3.57950E+000	9	...........
	113	1.52	4.99051E-002	-2.78601E-004	0.00000E+000	-1.39036E-005	-1.68088E-001	4.99137E-002	3.57950E+000	9	...........
	114	1.53333	4.81944E-002	-2.78731E-004	0.00000E+000	-1.34333E-005	-1.68088E-001	4.82038E-002	3.57950E+000	9	...........
	115	1.54667	4.65281E-002	-2.78957E-004	0.00000E+000	-1.29793E-005	-1.68088E-001	4.65390E-002	3.57950E+000	9	...........
	116	1.56	4.47534E-002	-2.79089E-004	0.00000E+000	-1.24901E-005	-1.68088E-001	4.47633E-002	3.57950E+000	9	...........
	117	1.57333	4.30136E-002	-2.79335E-004	0.00000E+000	-1.20152E-005	-1.68088E-001	4.30189E-002	3.57950E+000	9	...........
	118	1.58667	4.12764E-002	-2.79129E-004	0.00000E+000	-1.15214E-005	-1.68088E-001	4.12832E-002	3.57950E+000	9	...........
	119	1.6	3.95656E-002	-2.79226E-004	0.00000E+000	-1.10477E-005	-1.68088E-001	3.95675E-002	3.57950E+000	9	...........
	120	1.61333	3.78897E-002	-2.79004E-004	0.00000E+000	-1.05714E-005	-1.68088E-001	3.78946E-002	3.57950E+000	9	...........
	121	1.62667	3.62196E-002	-2.78801E-004	0.00000E+000	-1.00980E-005	-1.68088E-001	3.62240E-002	3.57950E+000	9	...........
	122	1.64	3.45813E-002	-2.78621E-004	0.00000E+000	-9.63505E-006	-1.68088E-001	3.45834E-002	3.57950E+000	9	...........
	123	1.65333	3.29178E-002	-2.78071E-004	0.00000E+000	-9.15348E-006	-1.68088E-001	3.29174E-002	3.57950E+000	9	...........
	124	1.66667	3.12934E-002	-2.78821E-004	0.00000E+000	-8.72525E-006	-1.68088E-001	3.12959E-002	3.57950E+000	9	...........
	125	1.68	2.96587E-002	-2.78835E-004	0.00000E+000	-8.26988E-006	-1.68088E-001	2.96518E-002	3.57950E+000	9	...........
	126	1.69333	2.80468E-002	-2.78401E-004	0.00000E+000	-7.80826E-006	-1.68088E-001	2.80435E-002	3.57950E+000	9	...........
	127	1.70667	2.64468E-002	-2.79864E-004	0.00000E+000	-7.40150E-006	-1.68088E-001	2.64433E-002	3.57950E+000	9	...........
	128	1.72	2.48337E-002	-2.79318E-004	0.00000E+000	-6.93650E-006	-1.68088E-001	2.48305E-002	3.57950E+000	9	...........
	129	1.73333	2.32793E-002	-2.79227E-004	0.00000E+000	-6.50022E-006	-1.68088E-001	2.32729E-002	3.57950E+000	9	...........
	130	1.74667	2.16890E-002	-2.78991E-004	0.00000E+000	-6.05104E-006	-1.68088E-001	2.16857E-002	3.57950E+000	9	...........
	131	1.76	2.00983E-002	-2.78947E-004	0.00000E+000	-5.60634E-006	-1.68088E-001	2.00902E-002	3.57950E+000	9	...........
	132	1.77333	1.85029E-002	-2.78183E-004	0.00000E+000	-5.14720E-006	-1.68088E-001	1.84956E-002	3.57950E+000	9	...........
	133	1.78667	1.69132E-002	-2.78822E-004	0.00000E+000	-4.71576E-006	-1.68088E-001	1.69082E-002	3.57950E+000	9	...........
	134	1.8	1.53325E-002	-2.79764E-004	0.00000E+000	-4.28948E-006	-1.68088E-001	1.53259E-002	3.57950E+000	9	...........
	135	1.81333	1.38082E-002	-2.79600E-004	0.00000E+000	-3.86077E-006	-1.68088E-001	1.37981E-002	3.57950E+000	9	...........
	136	1.82667	1.22594E-002	-2.78958E-004	0.00000E+000	-3.41987E-006	-1.68088E-001	1.22492E-002	3.57950E+000	9	...........
	137	1.84	1.07382E-002	-2.79101E-004	0.00000E+000	-2.99705E-006	-1.68088E-001	1.07283E-002	3.57840E+000	9	...........
	138	1.85333	9.20346E-003	-2.78983E-004	0.00000E+000	-2.56761E-006	-1.68088E-001	9.19296E-003	3.57840E+000	9	...........
	139	1.86667	7.64452E-003	-2.78433E-004	0.00000E+000	-2.12849E-006	-1.68088E-001	7.63346E-003	3.57840E+000	9	...........
	140	1.88	6.16126E-003	-2.79116E-004	0.00000E+000	-1.71970E-006	-1.68088E-001	6.14561E-003	3.57840E+000	9	...........
	141	1.89333	4.63063E-003	-2.79029E-004	0.00000E+000	-1.29208E-006	-1.68088E-001	4.61027E-003	3.57840E+000	9	...........
	142	1.90667	3.06532E-003	-2.79442E-004	0.00000E+000	-8.56578E-007	-1.68088E-001	3.04522E-003	3.57840E+000	9	...........
	143	1.92	1.54247E-003	-2.79040E-004	0.00000E+000	-4.30409E-007	-1.68088E-001	1.51958E-003	3.57840E+000	9	...........
	144	1.92833	3.09867E-004	-2.79878E-004	0.00000E+000	-8.67250E-008	-1.68088E-001	2.93287E-004	3.57840E+000	9	...........
STARTTIMEOFFSET	QUANT	120.9417	Start Time Offset (s)
