EXPLAIN
TAG	PWR800_DISCHARGE
TITLE	LABEL	PWR Cyclic Charge Discharge (Cell) - Discharge Step	Test &Identifier
DATE	LABEL	7-7-2017	Date
TIME	LABEL	16:02:39	Time
NOTES	NOTES	3	&Notes...
	supercap test cell
	2.8mg
	6M KOH
PSTAT	PSTAT	IFC5000-01520	Potentiostat
CAPACITY	QUANT	1.00000E-003	Capacity (A-hr)
CELLTYPE	SELECTOR	1	&Cell Type
WORKINGCONNECTION	SELECTOR	0	&Working Lead
MAXDISCHARGETIME	VARIABLEANDUNITS	1.00000E+002	s	1.00000E+002	second(s)	Max &Discharge Time
DISCHARGEMODE	MULTIPARAM	0	2.80000E-004	&Discharge Mode	Constant Current	Amp(s)
SAMPLETIME	QUANT	1.00000E-002	Sa&mple Period (s)
DISCHARGESTOPAT1	MULTIPARAM	3	0.00000E+000	Discharge Stop At &1	Voltage < Limit	V
DISCHARGESTOPAT2	MULTIPARAM	0	0.00000E+000	Discharge Stop At &2	None	N/A
AESBHCSELECTOR	TOGGLE	F	Save Both Half Cells
IRCOMP	TOGGLE	F	IR &Measure
EOC	QUANT	0	Open Circuit (V)
SEQUENCER	TOGGLE	TRUE	Run as Sequence
PSTATMODEL	IQUANT	53	Pstat Model
PSTATSECTION	LABEL	IFC5000-01520	Pstat Section
PSTATSERIALNO	LABEL	01520	Pstat Serial Number
CTRLMODE	IQUANT	0	Control Mode
ELECTROMETER	IQUANT	1	RE=0 or CS=1
IESTAB	IQUANT	0	I/E Stability
CASPEED	IQUANT	4	Control Amp Speed
CONVENTION	IQUANT	1	Current Convention
ICHRANGE	IQUANT	2	Ich Range
ICHRANGEMODE	TOGGLE	T	Ich Auto Range
ICHOFFSETENABLE	TOGGLE	F	Ich Offset Enable
ICHOFFSET	QUANT	0	Ich Offset (V)
ICHFILTER	IQUANT	1	Ich Filter
VCHRANGE	IQUANT	2	Vch Range
VCHRANGEMODE	TOGGLE	T	Vch Auto Range
VCHOFFSETENABLE	TOGGLE	F	Vch Offset Enable
VCHOFFSET	QUANT	0	Vch Offset (V)
VCHFILTER	IQUANT	1	Vch Filter
IERANGELOWERLIMIT	IQUANT	9	I/E Range Lower Limit
IERANGEMODE	TOGGLE	F	I/E AutoRange
IERANGE	IQUANT	9	I/E Range
ACHSELECT	IQUANT	1	Ach Select
ACHRANGE	IQUANT	2	Ach Range
ACHOFFSETENABLE	TOGGLE	F	Ach Offset Enable
ACHOFFSET	QUANT	0	Ach Offset (V)
ACHFILTER	IQUANT	1	Ach Filter
CABLEID	IQUANT	14	Cable ID
DCCALDATE	LABEL	5-7-2017	DC Calibration Date
ACCALDATE	LABEL	12/3/2015	AC Calibration Date
FRAMEWORKVERSION	QUANT	7.01	Framework Version
INSTRUMENTVERSION	LABEL	4.00	Instrument Version
CURVE	TABLE	67
	Pt	T	Vf	Im	Vu	Pwr	Sig	Ach	Temp	IERange	Over
	#	s	V	A	V	W	V	V	deg C	#	bits
	0	0.013333	5.28312E-001	-2.78508E-004	0.00000E+000	-1.47139E-004	-1.68088E-001	5.28612E-001	3.57890E+000	9	...........
	1	0.026667	4.95752E-001	-2.78950E-004	0.00000E+000	-1.38290E-004	-1.68088E-001	4.96015E-001	3.57890E+000	9	...........
	2	0.04	4.66276E-001	-2.78559E-004	0.00000E+000	-1.29885E-004	-1.68088E-001	4.66385E-001	3.57890E+000	9	...........
	3	0.053333	4.38672E-001	-2.79689E-004	0.00000E+000	-1.22691E-004	-1.68088E-001	4.38782E-001	3.57890E+000	9	...........
	4	0.066667	4.13006E-001	-2.78630E-004	0.00000E+000	-1.15076E-004	-1.68088E-001	4.13102E-001	3.57890E+000	9	...........
	5	0.08	3.89092E-001	-2.79817E-004	0.00000E+000	-1.08874E-004	-1.68088E-001	3.89185E-001	3.57890E+000	9	...........
	6	0.093333	3.66814E-001	-2.78835E-004	0.00000E+000	-1.02281E-004	-1.68088E-001	3.66907E-001	3.57890E+000	9	...........
	7	0.106667	3.46063E-001	-2.79180E-004	0.00000E+000	-9.66139E-005	-1.68088E-001	3.46141E-001	3.57890E+000	9	...........
	8	0.12	3.26768E-001	-2.78904E-004	0.00000E+000	-9.11369E-005	-1.68088E-001	3.26848E-001	3.57890E+000	9	...........
	9	0.133333	3.08840E-001	-2.79758E-004	0.00000E+000	-8.64006E-005	-1.68088E-001	3.08923E-001	3.57890E+000	9	...........
	10	0.146667	2.92188E-001	-2.79391E-004	0.00000E+000	-8.16346E-005	-1.68088E-001	2.92262E-001	3.57890E+000	9	...........
	11	0.16	2.76749E-001	-2.78859E-004	0.00000E+000	-7.71740E-005	-1.68088E-001	2.76822E-001	3.57890E+000	9	...........
	12	0.173333	2.62415E-001	-2.78756E-004	0.00000E+000	-7.31497E-005	-1.68088E-001	2.62478E-001	3.57890E+000	9	...........
	13	0.186667	2.49092E-001	-2.78531E-004	0.00000E+000	-6.93800E-005	-1.68088E-001	2.49152E-001	3.57890E+000	9	...........
	14	0.2	2.36681E-001	-2.78616E-004	0.00000E+000	-6.59430E-005	-1.68088E-001	2.36737E-001	3.57890E+000	9	...........
	15	0.213333	2.25136E-001	-2.79528E-004	0.00000E+000	-6.29319E-005	-1.68088E-001	2.25186E-001	3.57890E+000	9	...........
	16	0.226667	2.14364E-001	-2.79030E-004	0.00000E+000	-5.98141E-005	-1.68088E-001	2.14412E-001	3.57890E+000	9	...........
	17	0.24	2.04349E-001	-2.78657E-004	0.00000E+000	-5.69432E-005	-1.68088E-001	2.04396E-001	3.57890E+000	9	...........
	18	0.253333	1.94990E-001	-2.78545E-004	0.00000E+000	-5.43133E-005	-1.68088E-001	1.95040E-001	3.57890E+000	9	...........
	19	0.266667	1.86228E-001	-2.79873E-004	0.00000E+000	-5.21202E-005	-1.68088E-001	1.86273E-001	3.57890E+000	9	...........
	20	0.28	1.77987E-001	-2.79619E-004	0.00000E+000	-4.97686E-005	-1.68088E-001	1.78032E-001	3.57890E+000	9	...........
	21	0.293333	1.70217E-001	-2.78876E-004	0.00000E+000	-4.74695E-005	-1.68088E-001	1.70261E-001	3.57890E+000	9	...........
	22	0.306667	1.62914E-001	-2.78618E-004	0.00000E+000	-4.53907E-005	-1.68088E-001	1.62954E-001	3.57890E+000	9	...........
	23	0.32	1.55985E-001	-2.79477E-004	0.00000E+000	-4.35941E-005	-1.68088E-001	1.56024E-001	3.57890E+000	9	...........
	24	0.333333	1.49417E-001	-2.78770E-004	0.00000E+000	-4.16529E-005	-1.68088E-001	1.49455E-001	3.57890E+000	9	...........
	25	0.346667	1.43165E-001	-2.78150E-004	0.00000E+000	-3.98213E-005	-1.68088E-001	1.43203E-001	3.57890E+000	9	...........
	26	0.36	1.37238E-001	-2.78194E-004	0.00000E+000	-3.81786E-005	-1.68088E-001	1.37274E-001	3.57890E+000	9	...........
	27	0.373333	1.31581E-001	-2.78952E-004	0.00000E+000	-3.67049E-005	-1.68088E-001	1.31616E-001	3.57890E+000	9	...........
	28	0.386667	1.26146E-001	-2.77833E-004	0.00000E+000	-3.50475E-005	-1.68088E-001	1.26176E-001	3.57890E+000	9	...........
	29	0.4	1.20945E-001	-2.77888E-004	0.00000E+000	-3.36092E-005	-1.68088E-001	1.20981E-001	3.57778E+000	9	...........
	30	0.413333	1.16042E-001	-2.77252E-004	0.00000E+000	-3.21730E-005	-1.68088E-001	1.16068E-001	3.57740E+000	9	...........
	31	0.426667	1.11279E-001	-2.80064E-004	0.00000E+000	-3.11652E-005	-1.68088E-001	1.11306E-001	3.57740E+000	9	...........
	32	0.44	1.06759E-001	-2.78010E-004	0.00000E+000	-2.96802E-005	-1.68088E-001	1.06789E-001	3.57740E+000	9	...........
	33	0.453333	1.02339E-001	-2.78927E-004	0.00000E+000	-2.85450E-005	-1.68088E-001	1.02372E-001	3.57740E+000	9	...........
	34	0.466667	9.81321E-002	-2.79232E-004	0.00000E+000	-2.74017E-005	-1.68088E-001	9.81633E-002	3.57740E+000	9	...........
	35	0.48	9.39652E-002	-2.78922E-004	0.00000E+000	-2.62089E-005	-1.68088E-001	9.39959E-002	3.57740E+000	9	...........
	36	0.493333	8.99038E-002	-2.79887E-004	0.00000E+000	-2.51629E-005	-1.68088E-001	8.99311E-002	3.57740E+000	9	...........
	37	0.506667	8.59740E-002	-2.79943E-004	0.00000E+000	-2.40678E-005	-1.68088E-001	8.60002E-002	3.57740E+000	9	...........
	38	0.52	8.21863E-002	-2.78885E-004	0.00000E+000	-2.29206E-005	-1.68088E-001	8.22030E-002	3.57740E+000	9	...........
	39	0.533333	7.84421E-002	-2.78851E-004	0.00000E+000	-2.18736E-005	-1.68088E-001	7.84650E-002	3.57740E+000	9	...........
	40	0.546667	7.48119E-002	-2.79205E-004	0.00000E+000	-2.08879E-005	-1.68088E-001	7.48365E-002	3.57740E+000	9	...........
	41	0.56	7.12543E-002	-2.79280E-004	0.00000E+000	-1.98999E-005	-1.68088E-001	7.12749E-002	3.57740E+000	9	...........
	42	0.573333	6.77742E-002	-2.79277E-004	0.00000E+000	-1.89278E-005	-1.68088E-001	6.77940E-002	3.57740E+000	9	...........
	43	0.586667	6.44092E-002	-2.79307E-004	0.00000E+000	-1.79900E-005	-1.68088E-001	6.44294E-002	3.57740E+000	9	...........
	44	0.6	6.10610E-002	-2.78771E-004	0.00000E+000	-1.70220E-005	-1.68088E-001	6.10748E-002	3.57740E+000	9	...........
	45	0.613333	5.77960E-002	-2.78805E-004	0.00000E+000	-1.61138E-005	-1.68088E-001	5.78175E-002	3.57740E+000	9	...........
	46	0.626667	5.45949E-002	-2.79998E-004	0.00000E+000	-1.52865E-005	-1.68088E-001	5.46083E-002	3.57740E+000	9	...........
	47	0.64	5.14653E-002	-2.78986E-004	0.00000E+000	-1.43581E-005	-1.68088E-001	5.14796E-002	3.57740E+000	9	...........
	48	0.653333	4.84202E-002	-2.79028E-004	0.00000E+000	-1.35106E-005	-1.68088E-001	4.84304E-002	3.57740E+000	9	...........
	49	0.666667	4.53916E-002	-2.79771E-004	0.00000E+000	-1.26992E-005	-1.68088E-001	4.54080E-002	3.57740E+000	9	...........
	50	0.68	4.24533E-002	-2.79054E-004	0.00000E+000	-1.18468E-005	-1.68088E-001	4.24646E-002	3.57740E+000	9	...........
	51	0.693333	3.95079E-002	-2.77858E-004	0.00000E+000	-1.09776E-005	-1.68088E-001	3.95157E-002	3.57740E+000	9	...........
	52	0.706667	3.66021E-002	-2.78931E-004	0.00000E+000	-1.02095E-005	-1.68088E-001	3.66120E-002	3.57740E+000	9	...........
	53	0.72	3.37875E-002	-2.78883E-004	0.00000E+000	-9.42276E-006	-1.68088E-001	3.37947E-002	3.57740E+000	9	...........
	54	0.733333	3.10418E-002	-2.79030E-004	0.00000E+000	-8.66160E-006	-1.68088E-001	3.10477E-002	3.57740E+000	9	...........
	55	0.746667	2.83099E-002	-2.78632E-004	0.00000E+000	-7.88806E-006	-1.68088E-001	2.83143E-002	3.57740E+000	9	...........
	56	0.76	2.55919E-002	-2.80154E-004	0.00000E+000	-7.16968E-006	-1.68088E-001	2.55930E-002	3.57740E+000	9	...........
	57	0.773333	2.29595E-002	-2.79089E-004	0.00000E+000	-6.40772E-006	-1.68088E-001	2.29571E-002	3.57740E+000	9	...........
	58	0.786667	2.03650E-002	-2.78837E-004	0.00000E+000	-5.67853E-006	-1.68088E-001	2.03623E-002	3.57740E+000	9	...........
	59	0.8	1.77936E-002	-2.78512E-004	0.00000E+000	-4.95574E-006	-1.68088E-001	1.77935E-002	3.57740E+000	9	...........
	60	0.813333	1.52319E-002	-2.78936E-004	0.00000E+000	-4.24873E-006	-1.68088E-001	1.52247E-002	3.57740E+000	9	...........
	61	0.826667	1.26684E-002	-2.78890E-004	0.00000E+000	-3.53308E-006	-1.68088E-001	1.26589E-002	3.57740E+000	9	...........
	62	0.84	1.01826E-002	-2.78726E-004	0.00000E+000	-2.83815E-006	-1.68088E-001	1.01744E-002	3.57740E+000	9	...........
	63	0.853333	7.75850E-003	-2.78645E-004	0.00000E+000	-2.16187E-006	-1.68088E-001	7.74726E-003	3.57740E+000	9	...........
	64	0.866667	5.31342E-003	-2.78676E-004	0.00000E+000	-1.48072E-006	-1.68088E-001	5.30214E-003	3.57740E+000	9	...........
	65	0.88	2.89681E-003	-2.78850E-004	0.00000E+000	-8.07775E-007	-1.68088E-001	2.87959E-003	3.57740E+000	9	...........
	66	0.891667	6.70347E-004	-2.78441E-004	0.00000E+000	-1.86652E-007	-1.68088E-001	6.53065E-004	3.57740E+000	9	...........
STARTTIMEOFFSET	QUANT	1221.184	Start Time Offset (s)
