EXPLAIN
TAG	PWR800_DISCHARGE
TITLE	LABEL	PWR Cyclic Charge Discharge (Cell) - Discharge Step	Test &Identifier
DATE	LABEL	7-7-2017	Date
TIME	LABEL	16:04:40	Time
NOTES	NOTES	3	&Notes...
	supercap test cell
	2.8mg
	6M KOH
PSTAT	PSTAT	IFC5000-01520	Potentiostat
CAPACITY	QUANT	1.00000E-003	Capacity (A-hr)
CELLTYPE	SELECTOR	1	&Cell Type
WORKINGCONNECTION	SELECTOR	0	&Working Lead
MAXDISCHARGETIME	VARIABLEANDUNITS	1.00000E+002	s	1.00000E+002	second(s)	Max &Discharge Time
DISCHARGEMODE	MULTIPARAM	0	2.80000E-004	&Discharge Mode	Constant Current	Amp(s)
SAMPLETIME	QUANT	1.00000E-002	Sa&mple Period (s)
DISCHARGESTOPAT1	MULTIPARAM	3	0.00000E+000	Discharge Stop At &1	Voltage < Limit	V
DISCHARGESTOPAT2	MULTIPARAM	0	0.00000E+000	Discharge Stop At &2	None	N/A
AESBHCSELECTOR	TOGGLE	F	Save Both Half Cells
IRCOMP	TOGGLE	F	IR &Measure
EOC	QUANT	0	Open Circuit (V)
SEQUENCER	TOGGLE	TRUE	Run as Sequence
PSTATMODEL	IQUANT	53	Pstat Model
PSTATSECTION	LABEL	IFC5000-01520	Pstat Section
PSTATSERIALNO	LABEL	01520	Pstat Serial Number
CTRLMODE	IQUANT	0	Control Mode
ELECTROMETER	IQUANT	1	RE=0 or CS=1
IESTAB	IQUANT	0	I/E Stability
CASPEED	IQUANT	4	Control Amp Speed
CONVENTION	IQUANT	1	Current Convention
ICHRANGE	IQUANT	2	Ich Range
ICHRANGEMODE	TOGGLE	T	Ich Auto Range
ICHOFFSETENABLE	TOGGLE	F	Ich Offset Enable
ICHOFFSET	QUANT	0	Ich Offset (V)
ICHFILTER	IQUANT	1	Ich Filter
VCHRANGE	IQUANT	2	Vch Range
VCHRANGEMODE	TOGGLE	T	Vch Auto Range
VCHOFFSETENABLE	TOGGLE	F	Vch Offset Enable
VCHOFFSET	QUANT	0	Vch Offset (V)
VCHFILTER	IQUANT	1	Vch Filter
IERANGELOWERLIMIT	IQUANT	9	I/E Range Lower Limit
IERANGEMODE	TOGGLE	F	I/E AutoRange
IERANGE	IQUANT	9	I/E Range
ACHSELECT	IQUANT	1	Ach Select
ACHRANGE	IQUANT	2	Ach Range
ACHOFFSETENABLE	TOGGLE	F	Ach Offset Enable
ACHOFFSET	QUANT	0	Ach Offset (V)
ACHFILTER	IQUANT	1	Ach Filter
CABLEID	IQUANT	14	Cable ID
DCCALDATE	LABEL	5-7-2017	DC Calibration Date
ACCALDATE	LABEL	12/3/2015	AC Calibration Date
FRAMEWORKVERSION	QUANT	7.01	Framework Version
INSTRUMENTVERSION	LABEL	4.00	Instrument Version
CURVE	TABLE	65
	Pt	T	Vf	Im	Vu	Pwr	Sig	Ach	Temp	IERange	Over
	#	s	V	A	V	W	V	V	deg C	#	bits
	0	0.013333	5.31923E-001	-2.78194E-004	0.00000E+000	-1.47978E-004	-1.68088E-001	5.32151E-001	3.57740E+000	9	...........
	1	0.026667	4.98976E-001	-2.77427E-004	0.00000E+000	-1.38429E-004	-1.68088E-001	4.99233E-001	3.57740E+000	9	...........
	2	0.04	4.69124E-001	-2.78594E-004	0.00000E+000	-1.30695E-004	-1.68088E-001	4.69216E-001	3.57740E+000	9	...........
	3	0.053333	4.41134E-001	-2.77622E-004	0.00000E+000	-1.22468E-004	-1.68088E-001	4.41240E-001	3.57740E+000	9	...........
	4	0.066667	4.15051E-001	-2.78534E-004	0.00000E+000	-1.15606E-004	-1.68088E-001	4.15152E-001	3.57740E+000	9	...........
	5	0.08	3.90692E-001	-2.77206E-004	0.00000E+000	-1.08302E-004	-1.68088E-001	3.90783E-001	3.57740E+000	9	...........
	6	0.093333	3.67972E-001	-2.78632E-004	0.00000E+000	-1.02529E-004	-1.68088E-001	3.68059E-001	3.57740E+000	9	...........
	7	0.106667	3.46783E-001	-2.78303E-004	0.00000E+000	-9.65107E-005	-1.68088E-001	3.46870E-001	3.57740E+000	9	...........
	8	0.12	3.27063E-001	-2.78286E-004	0.00000E+000	-9.10172E-005	-1.68088E-001	3.27142E-001	3.57740E+000	9	...........
	9	0.133333	3.08730E-001	-2.80266E-004	0.00000E+000	-8.65265E-005	-1.68088E-001	3.08798E-001	3.57740E+000	9	...........
	10	0.146667	2.91674E-001	-2.79910E-004	0.00000E+000	-8.16424E-005	-1.68088E-001	2.91742E-001	3.57740E+000	9	...........
	11	0.16	2.75825E-001	-2.78061E-004	0.00000E+000	-7.66962E-005	-1.68088E-001	2.75890E-001	3.57740E+000	9	...........
	12	0.173333	2.61109E-001	-2.79151E-004	0.00000E+000	-7.28888E-005	-1.68088E-001	2.61171E-001	3.57740E+000	9	...........
	13	0.186667	2.47454E-001	-2.79018E-004	0.00000E+000	-6.90439E-005	-1.68088E-001	2.47512E-001	3.57740E+000	9	...........
	14	0.2	2.34777E-001	-2.77541E-004	0.00000E+000	-6.51602E-005	-1.68088E-001	2.34833E-001	3.57740E+000	9	...........
	15	0.213333	2.22970E-001	-2.78799E-004	0.00000E+000	-6.21637E-005	-1.68088E-001	2.23025E-001	3.57740E+000	9	...........
	16	0.226667	2.11976E-001	-2.79388E-004	0.00000E+000	-5.92235E-005	-1.68088E-001	2.12028E-001	3.57740E+000	9	...........
	17	0.24	2.01715E-001	-2.79263E-004	0.00000E+000	-5.63313E-005	-1.68088E-001	2.01767E-001	3.57740E+000	9	...........
	18	0.253333	1.92123E-001	-2.78834E-004	0.00000E+000	-5.35705E-005	-1.68088E-001	1.92168E-001	3.57740E+000	9	...........
	19	0.266667	1.83158E-001	-2.79113E-004	0.00000E+000	-5.11216E-005	-1.68088E-001	1.83201E-001	3.57740E+000	9	...........
	20	0.28	1.74736E-001	-2.77528E-004	0.00000E+000	-4.84941E-005	-1.68088E-001	1.74781E-001	3.57740E+000	9	...........
	21	0.293333	1.66830E-001	-2.78387E-004	0.00000E+000	-4.64433E-005	-1.68088E-001	1.66872E-001	3.57740E+000	9	...........
	22	0.306667	1.59343E-001	-2.78030E-004	0.00000E+000	-4.43021E-005	-1.68088E-001	1.59380E-001	3.57740E+000	9	...........
	23	0.32	1.52235E-001	-2.79457E-004	0.00000E+000	-4.25431E-005	-1.68088E-001	1.52272E-001	3.57740E+000	9	...........
	24	0.333333	1.45539E-001	-2.78921E-004	0.00000E+000	-4.05938E-005	-1.68088E-001	1.45572E-001	3.57740E+000	9	...........
	25	0.346667	1.39194E-001	-2.78735E-004	0.00000E+000	-3.87983E-005	-1.68088E-001	1.39221E-001	3.57740E+000	9	...........
	26	0.36	1.33172E-001	-2.79272E-004	0.00000E+000	-3.71913E-005	-1.68088E-001	1.33207E-001	3.57740E+000	9	...........
	27	0.373333	1.27417E-001	-2.78287E-004	0.00000E+000	-3.54585E-005	-1.68088E-001	1.27444E-001	3.57740E+000	9	...........
	28	0.386667	1.21930E-001	-2.78603E-004	0.00000E+000	-3.39701E-005	-1.68088E-001	1.21962E-001	3.57740E+000	9	...........
	29	0.4	1.16727E-001	-2.78347E-004	0.00000E+000	-3.24907E-005	-1.68088E-001	1.16758E-001	3.57740E+000	9	...........
	30	0.413333	1.11701E-001	-2.78839E-004	0.00000E+000	-3.11465E-005	-1.68088E-001	1.11731E-001	3.57740E+000	9	...........
	31	0.426667	1.06777E-001	-2.80103E-004	0.00000E+000	-2.99087E-005	-1.68088E-001	1.06809E-001	3.57740E+000	9	...........
	32	0.44	1.02106E-001	-2.78816E-004	0.00000E+000	-2.84688E-005	-1.68088E-001	1.02135E-001	3.57740E+000	9	...........
	33	0.453333	9.75952E-002	-2.78708E-004	0.00000E+000	-2.72006E-005	-1.68088E-001	9.76184E-002	3.57740E+000	9	...........
	34	0.466667	9.32283E-002	-2.79166E-004	0.00000E+000	-2.60261E-005	-1.68088E-001	9.32525E-002	3.57740E+000	9	...........
	35	0.48	8.90146E-002	-2.78113E-004	0.00000E+000	-2.47561E-005	-1.68088E-001	8.90430E-002	3.57740E+000	9	...........
	36	0.493333	8.49195E-002	-2.79015E-004	0.00000E+000	-2.36938E-005	-1.68088E-001	8.49399E-002	3.57740E+000	9	...........
	37	0.506667	8.09236E-002	-2.79182E-004	0.00000E+000	-2.25924E-005	-1.68088E-001	8.09429E-002	3.57740E+000	9	...........
	38	0.52	7.70529E-002	-2.80051E-004	0.00000E+000	-2.15788E-005	-1.68088E-001	7.70719E-002	3.57740E+000	9	...........
	39	0.533333	7.32857E-002	-2.79430E-004	0.00000E+000	-2.04782E-005	-1.68088E-001	7.32978E-002	3.57740E+000	9	...........
	40	0.546667	6.96259E-002	-2.78255E-004	0.00000E+000	-1.93737E-005	-1.68088E-001	6.96361E-002	3.57740E+000	9	...........
	41	0.56	6.60408E-002	-2.79549E-004	0.00000E+000	-1.84617E-005	-1.68088E-001	6.60527E-002	3.57740E+000	9	...........
	42	0.573333	6.25322E-002	-2.77809E-004	0.00000E+000	-1.73720E-005	-1.68088E-001	6.25533E-002	3.57740E+000	9	...........
	43	0.586667	5.91233E-002	-2.79415E-004	0.00000E+000	-1.65199E-005	-1.68088E-001	5.91411E-002	3.57740E+000	9	...........
	44	0.6	5.57974E-002	-2.78703E-004	0.00000E+000	-1.55509E-005	-1.68088E-001	5.58119E-002	3.57740E+000	9	...........
	45	0.613333	5.25605E-002	-2.77922E-004	0.00000E+000	-1.46077E-005	-1.68088E-001	5.25739E-002	3.57740E+000	9	...........
	46	0.626667	4.93744E-002	-2.78814E-004	0.00000E+000	-1.37663E-005	-1.68088E-001	4.93809E-002	3.57740E+000	9	...........
	47	0.64	4.62302E-002	-2.79465E-004	0.00000E+000	-1.29197E-005	-1.68088E-001	4.62461E-002	3.57740E+000	9	...........
	48	0.653333	4.31387E-002	-2.78143E-004	0.00000E+000	-1.19987E-005	-1.68088E-001	4.31515E-002	3.57740E+000	9	...........
	49	0.666667	4.01309E-002	-2.79266E-004	0.00000E+000	-1.12072E-005	-1.68088E-001	4.01395E-002	3.57740E+000	9	...........
	50	0.68	3.71850E-002	-2.79349E-004	0.00000E+000	-1.03876E-005	-1.68088E-001	3.71877E-002	3.57740E+000	9	...........
	51	0.693333	3.42708E-002	-2.78340E-004	0.00000E+000	-9.53896E-006	-1.68088E-001	3.42752E-002	3.57740E+000	9	...........
	52	0.706667	3.14132E-002	-2.79105E-004	0.00000E+000	-8.76758E-006	-1.68088E-001	3.14208E-002	3.57740E+000	9	...........
	53	0.72	2.86242E-002	-2.78229E-004	0.00000E+000	-7.96407E-006	-1.68088E-001	2.86275E-002	3.57740E+000	9	...........
	54	0.733333	2.58734E-002	-2.78879E-004	0.00000E+000	-7.21556E-006	-1.68088E-001	2.58739E-002	3.57740E+000	9	...........
	55	0.746667	2.31752E-002	-2.78616E-004	0.00000E+000	-6.45697E-006	-1.68088E-001	2.31723E-002	3.57740E+000	9	...........
	56	0.76	2.05060E-002	-2.80237E-004	0.00000E+000	-5.74652E-006	-1.68088E-001	2.05033E-002	3.57740E+000	9	...........
	57	0.773333	1.78378E-002	-2.79896E-004	0.00000E+000	-4.99272E-006	-1.68088E-001	1.78342E-002	3.57740E+000	9	...........
	58	0.786667	1.52227E-002	-2.78425E-004	0.00000E+000	-4.23838E-006	-1.68088E-001	1.52145E-002	3.57740E+000	9	...........
	59	0.8	1.26695E-002	-2.79466E-004	0.00000E+000	-3.54068E-006	-1.68088E-001	1.26611E-002	3.57740E+000	9	...........
	60	0.813333	1.01064E-002	-2.78024E-004	0.00000E+000	-2.80981E-006	-1.68088E-001	1.00976E-002	3.57740E+000	9	...........
	61	0.826667	7.56248E-003	-2.79099E-004	0.00000E+000	-2.11068E-006	-1.68088E-001	7.54904E-003	3.57740E+000	9	...........
	62	0.84	5.10251E-003	-2.79058E-004	0.00000E+000	-1.42390E-006	-1.68088E-001	5.08801E-003	3.57740E+000	9	...........
	63	0.853333	2.65477E-003	-2.79681E-004	0.00000E+000	-7.42489E-007	-1.68088E-001	2.64081E-003	3.57740E+000	9	...........
	64	0.863333	5.27263E-004	-2.77862E-004	0.00000E+000	-1.46506E-007	-1.68088E-001	5.09798E-004	3.57740E+000	9	...........
STARTTIMEOFFSET	QUANT	1304.918	Start Time Offset (s)
